340.368	1	-5
340.539	1	6
340.710	1	1
340.881	1	3
341.052	1	-1
341.223	1	-1
341.394	1	-5
341.565	1	8
341.737	1	12
341.908	1	11
342.079	1	0
342.250	1	17
342.421	1	1
342.592	1	-2
342.763	1	0
342.934	1	8
343.105	1	7
343.276	1	2
343.447	1	2
343.618	1	16
343.789	1	2
343.960	1	7
344.131	1	-2
344.302	1	10
344.473	1	4
344.644	1	4
344.815	1	3
344.986	1	9
345.157	1	10
345.328	1	6
345.499	1	4
345.670	1	0
345.841	1	8
346.012	1	-3
346.183	1	0
346.354	1	3
346.526	1	12
346.697	1	3
346.868	1	-5
347.039	1	12
347.210	1	1
347.381	1	2
347.552	1	13
347.723	1	11
347.894	1	4
348.065	1	7
348.236	1	9
348.407	1	13
348.578	1	12
348.749	1	11
348.920	1	8
349.091	1	0
349.262	1	-2
349.433	1	-2
349.604	1	3
349.775	1	3
349.946	1	5
350.117	1	9
350.288	1	-4
350.459	1	10
350.630	1	-5
350.801	1	0
350.972	1	7
351.143	1	8
351.314	1	-2
351.485	1	15
351.656	1	7
351.827	1	6
351.998	1	0
352.169	1	9
352.340	1	7
352.511	1	-2
352.682	1	-10
352.853	1	4
353.024	1	9
353.195	1	-1
353.366	1	6
353.537	1	1
353.708	1	-1
353.879	1	15
354.050	1	-6
354.221	1	-2
354.392	1	-10
354.563	1	15
354.734	1	1
354.905	1	5
355.076	1	19
355.247	1	-1
355.418	1	2
355.589	1	10
355.760	1	12
355.931	1	5
356.102	1	8
356.273	1	6
356.444	1	9
356.615	1	9
356.785	1	6
356.956	1	12
357.127	1	9
357.298	1	3
357.469	1	15
357.640	1	4
357.811	1	4
357.982	1	22
358.153	1	0
358.324	1	7
358.495	1	0
358.666	1	7
358.837	1	13
359.008	1	2
359.179	1	4
359.350	1	-2
359.521	1	9
359.692	1	-1
359.863	1	7
360.034	1	-1
360.205	1	15
360.376	1	-5
360.547	1	20
360.718	1	2
360.889	1	10
361.060	1	18
361.231	1	19
361.401	1	5
361.572	1	19
361.743	1	0
361.914	1	14
362.085	1	11
362.256	1	9
362.427	1	18
362.598	1	21
362.769	1	14
362.940	1	15
363.111	1	19
363.282	1	5
363.453	1	17
363.624	1	10
363.795	1	23
363.966	1	17
364.137	1	16
364.308	1	14
364.478	1	23
364.649	1	18
364.820	1	23
364.991	1	20
365.162	1	32
365.333	1	19
365.504	1	13
365.675	1	36
365.846	1	16
366.017	1	37
366.188	1	29
366.359	1	15
366.530	1	30
366.701	1	24
366.871	1	31
367.042	1	27
367.213	1	44
367.384	1	18
367.555	1	30
367.726	1	33
367.897	1	25
368.068	1	37
368.239	1	43
368.410	1	29
368.581	1	28
368.752	1	39
368.923	1	18
369.093	1	29
369.264	1	36
369.435	1	38
369.606	1	37
369.777	1	40
369.948	1	32
370.119	1	28
370.290	1	34
370.461	1	24
370.632	1	27
370.803	1	27
370.973	1	31
371.144	1	29
371.315	1	44
371.486	1	35
371.657	1	34
371.828	1	20
371.999	1	30
372.170	1	32
372.341	1	21
372.512	1	17
372.682	1	31
372.853	1	27
373.024	1	18
373.195	1	24
373.366	1	22
373.537	1	0
373.708	1	20
373.879	1	17
374.050	1	26
374.220	1	19
374.391	1	14
374.562	1	23
374.733	1	16
374.904	1	22
375.075	1	2
375.246	1	15
375.417	1	12
375.588	1	16
375.758	1	22
375.929	1	11
376.100	1	7
376.271	1	9
376.442	1	8
376.613	1	17
376.784	1	12
376.955	1	8
377.125	1	11
377.296	1	19
377.467	1	19
377.638	1	12
377.809	1	-4
377.980	1	9
378.151	1	5
378.321	1	16
378.492	1	2
378.663	1	16
378.834	1	13
379.005	1	15
379.176	1	14
379.347	1	10
379.518	1	2
379.688	1	17
379.859	1	6
380.030	1	15
380.201	1	6
380.372	1	18
380.543	1	-2
380.714	1	13
380.884	1	13
381.055	1	10
381.226	1	12
381.397	1	11
381.568	1	2
381.739	1	2
381.910	1	14
382.080	1	15
382.251	1	5
382.422	1	12
382.593	1	11
382.764	1	12
382.935	1	3
383.105	1	2
383.276	1	16
383.447	1	3
383.618	1	9
383.789	1	3
383.960	1	11
384.130	1	7
384.301	1	1
384.472	1	6
384.643	1	12
384.814	1	4
384.985	1	3
385.156	1	14
385.326	1	-4
385.497	1	19
385.668	1	3
385.839	1	6
386.010	1	2
386.180	1	1
386.351	1	1
386.522	1	6
386.693	1	10
386.864	1	-1
387.035	1	13
387.205	1	7
387.376	1	3
387.547	1	21
387.718	1	4
387.889	1	4
388.060	1	14
388.230	1	3
388.401	1	6
388.572	1	-1
388.743	1	4
388.914	1	12
389.084	1	10
389.255	1	5
389.426	1	-1
389.597	1	0
389.768	1	7
389.939	1	16
390.109	1	4
390.280	1	5
390.451	1	9
390.622	1	3
390.793	1	9
390.963	1	4
391.134	1	9
391.305	1	1
391.476	1	8
391.647	1	9
391.817	1	-3
391.988	1	4
392.159	1	1
392.330	1	-2
392.501	1	4
392.671	1	11
392.842	1	-6
393.013	1	12
393.184	1	3
393.355	1	4
393.525	1	-5
393.696	1	8
393.867	1	10
394.038	1	7
394.208	1	13
394.379	1	17
394.550	1	14
394.721	1	6
394.892	1	13
395.062	1	2
395.233	1	11
395.404	1	10
395.575	1	16
395.746	1	6
395.916	1	5
396.087	1	7
396.258	1	18
396.429	1	8
396.599	1	9
396.770	1	6
396.941	1	8
397.112	1	-2
397.283	1	7
397.453	1	0
397.624	1	6
397.795	1	2
397.966	1	7
398.136	1	8
398.307	1	11
398.478	1	6
398.649	1	3
398.819	1	5
398.990	1	15
399.161	1	11
399.332	1	4
399.503	1	17
399.673	1	2
399.844	1	4
400.015	1	3
400.186	1	9
400.356	1	-1
400.527	1	7
400.698	1	7
400.869	1	7
401.039	1	2
401.210	1	11
401.381	1	5
401.552	1	9
401.722	1	14
401.893	1	12
402.064	1	13
402.235	1	18
402.405	1	7
402.576	1	10
402.747	1	6
402.918	1	-2
403.088	1	10
403.259	1	6
403.430	1	4
403.601	1	18
403.771	1	2
403.942	1	11
404.113	1	12
404.284	1	16
404.454	1	4
404.625	1	0
404.796	1	13
404.967	1	11
405.137	1	19
405.308	1	-4
405.479	1	6
405.649	1	3
405.820	1	-3
405.991	1	10
406.162	1	-1
406.332	1	16
406.503	1	4
406.674	1	11
406.845	1	11
407.015	1	0
407.186	1	-3
407.357	1	8
407.527	1	-2
407.698	1	5
407.869	1	7
408.040	1	16
408.210	1	25
408.381	1	1
408.552	1	-8
408.722	1	10
408.893	1	5
409.064	1	5
409.235	1	13
409.405	1	5
409.576	1	6
409.747	1	-3
409.917	1	13
410.088	1	12
410.259	1	9
410.430	1	8
410.600	1	4
410.771	1	10
410.942	1	16
411.112	1	17
411.283	1	10
411.454	1	9
411.625	1	6
411.795	1	1
411.966	1	3
412.137	1	7
412.307	1	9
412.478	1	6
412.649	1	4
412.819	1	8
412.990	1	11
413.161	1	12
413.332	1	6
413.502	1	11
413.673	1	3
413.844	1	10
414.014	1	7
414.185	1	2
414.356	1	15
414.526	1	-5
414.697	1	10
414.868	1	13
415.038	1	6
415.209	1	2
415.380	1	0
415.550	1	8
415.721	1	8
415.892	1	17
416.063	1	10
416.233	1	4
416.404	1	12
416.575	1	-1
416.745	1	13
416.916	1	0
417.087	1	6
417.257	1	2
417.428	1	15
417.599	1	7
417.769	1	9
417.940	1	4
418.111	1	9
418.281	1	9
418.452	1	13
418.623	1	8
418.793	1	8
418.964	1	19
419.135	1	13
419.305	1	11
419.476	1	6
419.647	1	7
419.817	1	13
419.988	1	19
420.159	1	5
420.329	1	10
420.500	1	13
420.671	1	19
420.841	1	11
421.012	1	8
421.183	1	5
421.353	1	17
421.524	1	7
421.695	1	8
421.865	1	12
422.036	1	13
422.206	1	14
422.377	1	7
422.548	1	13
422.718	1	5
422.889	1	11
423.060	1	19
423.230	1	10
423.401	1	4
423.572	1	5
423.742	1	12
423.913	1	0
424.084	1	3
424.254	1	3
424.425	1	9
424.595	1	21
424.766	1	8
424.937	1	13
425.107	1	19
425.278	1	9
425.449	1	12
425.619	1	6
425.790	1	7
425.961	1	24
426.131	1	-2
426.302	1	7
426.472	1	17
426.643	1	0
426.814	1	7
426.984	1	-5
427.155	1	6
427.326	1	7
427.496	1	7
427.667	1	9
427.837	1	9
428.008	1	12
428.179	1	17
428.349	1	9
428.520	1	14
428.691	1	12
428.861	1	10
429.032	1	7
429.202	1	5
429.373	1	9
429.544	1	9
429.714	1	21
429.885	1	-1
430.055	1	13
430.226	1	-6
430.397	1	10
430.567	1	0
430.738	1	11
430.909	1	1
431.079	1	12
431.250	1	9
431.420	1	1
431.591	1	14
431.762	1	5
431.932	1	6
432.103	1	9
432.273	1	24
432.444	1	8
432.615	1	-1
432.785	1	5
432.956	1	5
433.126	1	10
433.297	1	1
433.468	1	7
433.638	1	14
433.809	1	4
433.979	1	7
434.150	1	11
434.320	1	5
434.491	1	15
434.662	1	8
434.832	1	4
435.003	1	8
435.173	1	13
435.344	1	4
435.515	1	3
435.685	1	0
435.856	1	13
436.026	1	3
436.197	1	2
436.368	1	-6
436.538	1	8
436.709	1	7
436.879	1	11
437.050	1	8
437.220	1	11
437.391	1	7
437.562	1	9
437.732	1	15
437.903	1	0
438.073	1	3
438.244	1	16
438.414	1	9
438.585	1	5
438.756	1	7
438.926	1	10
439.097	1	6
439.267	1	-3
439.438	1	11
439.608	1	9
439.779	1	2
439.949	1	6
440.120	1	4
440.291	1	4
440.461	1	4
440.632	1	6
440.802	1	1
440.973	1	21
441.143	1	8
441.314	1	1
441.485	1	-1
441.655	1	12
441.826	1	11
441.996	1	2
442.167	1	4
442.337	1	0
442.508	1	6
442.678	1	15
442.849	1	11
443.019	1	7
443.190	1	16
443.361	1	13
443.531	1	17
443.702	1	16
443.872	1	-4
444.043	1	4
444.213	1	-6
444.384	1	11
444.554	1	8
444.725	1	20
444.895	1	3
445.066	1	2
445.237	1	9
445.407	1	-1
445.578	1	-6
445.748	1	6
445.919	1	7
446.089	1	15
446.260	1	19
446.430	1	11
446.601	1	5
446.771	1	3
446.942	1	5
447.112	1	6
447.283	1	12
447.453	1	-5
447.624	1	-5
447.794	1	-1
447.965	1	4
448.135	1	5
448.306	1	2
448.477	1	16
448.647	1	1
448.818	1	7
448.988	1	14
449.159	1	5
449.329	1	6
449.500	1	7
449.670	1	7
449.841	1	13
450.011	1	2
450.182	1	10
450.352	1	9
450.523	1	6
450.693	1	11
450.864	1	6
451.034	1	8
451.205	1	1
451.375	1	-1
451.546	1	10
451.716	1	6
451.887	1	14
452.057	1	6
452.228	1	3
452.398	1	10
452.569	1	5
452.739	1	5
452.910	1	4
453.080	1	3
453.251	1	-4
453.421	1	10
453.592	1	4
453.762	1	4
453.933	1	-3
454.103	1	5
454.274	1	6
454.444	1	1
454.615	1	-2
454.785	1	6
454.956	1	0
455.126	1	7
455.297	1	3
455.467	1	7
455.638	1	-6
455.808	1	10
455.979	1	6
456.149	1	-1
456.320	1	8
456.490	1	2
456.661	1	4
456.831	1	0
457.001	1	4
457.172	1	1
457.342	1	8
457.513	1	3
457.683	1	4
457.854	1	6
458.024	1	14
458.195	1	4
458.365	1	6
458.536	1	9
458.706	1	11
458.877	1	4
459.047	1	5
459.218	1	8
459.388	1	10
459.559	1	13
459.729	1	-4
459.899	1	4
460.070	1	16
460.240	1	1
460.411	1	8
460.581	1	-6
460.752	1	5
460.922	1	8
461.093	1	3
461.263	1	15
461.434	1	-2
461.604	1	7
461.775	1	10
461.945	1	6
462.115	1	4
462.286	1	-2
462.456	1	4
462.627	1	7
462.797	1	-1
462.968	1	11
463.138	1	-2
463.309	1	9
463.479	1	1
463.649	1	1
463.820	1	11
463.990	1	3
464.161	1	-3
464.331	1	10
464.502	1	9
464.672	1	7
464.843	1	10
465.013	1	10
465.183	1	-6
465.354	1	18
465.524	1	11
465.695	1	8
465.865	1	12
466.036	1	14
466.206	1	9
466.376	1	19
466.547	1	13
466.717	1	-5
466.888	1	-5
467.058	1	2
467.229	1	14
467.399	1	6
467.569	1	7
467.740	1	10
467.910	1	11
468.081	1	7
468.251	1	-4
468.422	1	-1
468.592	1	3
468.762	1	0
468.933	1	6
469.103	1	-6
469.274	1	1
469.444	1	9
469.614	1	1
469.785	1	3
469.955	1	-3
470.126	1	17
470.296	1	5
470.467	1	-3
470.637	1	10
470.807	1	7
470.978	1	1
471.148	1	3
471.319	1	4
471.489	1	4
471.659	1	3
471.830	1	4
472.000	1	-8
472.171	1	15
472.341	1	10
472.511	1	10
472.682	1	1
472.852	1	10
473.023	1	5
473.193	1	7
473.363	1	7
473.534	1	10
473.704	1	4
473.875	1	1
474.045	1	-1
474.215	1	8
474.386	1	1
474.556	1	7
474.727	1	0
474.897	1	-2
475.067	1	8
475.238	1	10
475.408	1	9
475.578	1	-2
475.749	1	16
475.919	1	-4
476.090	1	9
476.260	1	-2
476.430	1	-7
476.601	1	-3
476.771	1	2
476.942	1	13
477.112	1	7
477.282	1	-4
477.453	1	2
477.623	1	-1
477.793	1	7
477.964	1	4
478.134	1	6
478.305	1	8
478.475	1	6
478.645	1	8
478.816	1	2
478.986	1	5
479.156	1	1
479.327	1	5
479.497	1	3
479.667	1	5
479.838	1	10
480.008	1	-2
480.179	1	10
480.349	1	4
480.519	1	7
480.690	1	9
480.860	1	4
481.030	1	4
481.201	1	5
481.371	1	-1
481.541	1	-3
481.712	1	18
481.882	1	4
482.053	1	6
482.223	1	6
482.393	1	9
482.564	1	12
482.734	1	6
482.904	1	0
483.075	1	9
483.245	1	3
483.415	1	10
483.586	1	2
483.756	1	7
483.926	1	3
484.097	1	7
484.267	1	7
484.437	1	7
484.608	1	1
484.778	1	7
484.948	1	9
485.119	1	1
485.289	1	-2
485.459	1	-4
485.630	1	8
485.800	1	0
485.970	1	-2
486.141	1	5
486.311	1	3
486.481	1	-1
486.652	1	-10
486.822	1	8
486.992	1	10
487.163	1	-3
487.333	1	-3
487.503	1	13
487.674	1	-3
487.844	1	-1
488.014	1	7
488.185	1	-3
488.355	1	12
488.525	1	-4
488.696	1	15
488.866	1	-1
489.036	1	2
489.207	1	8
489.377	1	8
489.547	1	5
489.718	1	-13
489.888	1	4
490.058	1	2
490.228	1	10
490.399	1	11
490.569	1	1
490.739	1	11
490.910	1	7
491.080	1	8
491.250	1	13
491.421	1	-5
491.591	1	3
491.761	1	3
491.932	1	11
492.102	1	7
492.272	1	-2
492.442	1	8
492.613	1	5
492.783	1	4
492.953	1	7
493.124	1	10
493.294	1	0
493.464	1	-11
493.635	1	0
493.805	1	2
493.975	1	13
494.145	1	2
494.316	1	2
494.486	1	3
494.656	1	10
494.827	1	2
494.997	1	-5
495.167	1	4
495.337	1	5
495.508	1	2
495.678	1	3
495.848	1	3
496.019	1	0
496.189	1	2
496.359	1	-5
496.529	1	5
496.700	1	-5
496.870	1	7
497.040	1	6
497.211	1	-5
497.381	1	5
497.551	1	5
497.721	1	0
497.892	1	10
498.062	1	0
498.232	1	-4
498.403	1	9
498.573	1	-2
498.743	1	0
498.913	1	-1
499.084	1	8
499.254	1	5
499.424	1	-2
499.594	1	8
499.765	1	3
499.935	1	10
500.105	1	7
500.275	1	5
500.446	1	0
500.616	1	-6
500.786	1	7
500.956	1	9
501.127	1	14
501.297	1	7
501.467	1	7
501.638	1	12
501.808	1	10
501.978	1	2
502.148	1	-1
502.319	1	6
502.489	1	-4
502.659	1	14
502.829	1	-2
503.000	1	10
503.170	1	14
503.340	1	3
503.510	1	11
503.681	1	1
503.851	1	7
504.021	1	15
504.191	1	0
504.362	1	0
504.532	1	11
504.702	1	2
504.872	1	5
505.042	1	7
505.213	1	4
505.383	1	10
505.553	1	-2
505.723	1	8
505.894	1	3
506.064	1	0
506.234	1	4
506.404	1	5
506.575	1	16
506.745	1	8
506.915	1	6
507.085	1	5
507.256	1	14
507.426	1	6
507.596	1	10
507.766	1	14
507.936	1	8
508.107	1	0
508.277	1	11
508.447	1	9
508.617	1	8
508.788	1	5
508.958	1	19
509.128	1	5
509.298	1	-2
509.468	1	-4
509.639	1	7
509.809	1	0
509.979	1	2
510.149	1	1
510.319	1	12
510.490	1	7
510.660	1	2
510.830	1	4
511.000	1	9
511.171	1	10
511.341	1	17
511.511	1	15
511.681	1	2
511.851	1	15
512.022	1	0
512.192	1	10
512.362	1	10
512.532	1	13
512.702	1	-10
512.873	1	12
513.043	1	17
513.213	1	13
513.383	1	3
513.553	1	7
513.724	1	15
513.894	1	1
514.064	1	7
514.234	1	4
514.404	1	12
514.575	1	-2
514.745	1	5
514.915	1	3
515.085	1	14
515.255	1	-3
515.425	1	11
515.596	1	12
515.766	1	2
515.936	1	5
516.106	1	13
516.276	1	6
516.447	1	10
516.617	1	5
516.787	1	5
516.957	1	2
517.127	1	18
517.297	1	9
517.468	1	15
517.638	1	13
517.808	1	-8
517.978	1	7
518.148	1	7
518.319	1	11
518.489	1	0
518.659	1	19
518.829	1	14
518.999	1	8
519.169	1	-2
519.340	1	9
519.510	1	5
519.680	1	9
519.850	1	7
520.020	1	7
520.190	1	7
520.361	1	1
520.531	1	4
520.701	1	7
520.871	1	11
521.041	1	16
521.211	1	7
521.382	1	12
521.552	1	13
521.722	1	5
521.892	1	10
522.062	1	11
522.232	1	9
522.402	1	17
522.573	1	15
522.743	1	5
522.913	1	15
523.083	1	10
523.253	1	20
523.423	1	17
523.593	1	17
523.764	1	6
523.934	1	10
524.104	1	19
524.274	1	4
524.444	1	9
524.614	1	15
524.784	1	3
524.955	1	5
525.125	1	9
525.295	1	17
525.465	1	22
525.635	1	9
525.805	1	6
525.975	1	-1
526.146	1	10
526.316	1	-5
526.486	1	6
526.656	1	4
526.826	1	11
526.996	1	0
527.166	1	5
527.337	1	11
527.507	1	11
527.677	1	15
527.847	1	-5
528.017	1	1
528.187	1	19
528.357	1	8
528.527	1	12
528.698	1	18
528.868	1	-2
529.038	1	9
529.208	1	2
529.378	1	9
529.548	1	14
529.718	1	4
529.888	1	12
530.058	1	7
530.229	1	9
530.399	1	11
530.569	1	5
530.739	1	15
530.909	1	11
531.079	1	5
531.249	1	12
531.419	1	5
531.589	1	7
531.760	1	13
531.930	1	4
532.100	1	16
532.270	1	6
532.440	1	13
532.610	1	14
532.780	1	5
532.950	1	17
533.120	1	11
533.290	1	3
533.461	1	11
533.631	1	16
533.801	1	14
533.971	1	2
534.141	1	11
534.311	1	8
534.481	1	19
534.651	1	0
534.821	1	10
534.991	1	13
535.162	1	5
535.332	1	16
535.502	1	12
535.672	1	16
535.842	1	12
536.012	1	10
536.182	1	8
536.352	1	13
536.522	1	-6
536.692	1	13
536.862	1	8
537.032	1	9
537.203	1	6
537.373	1	11
537.543	1	7
537.713	1	8
537.883	1	8
538.053	1	17
538.223	1	20
538.393	1	3
538.563	1	9
538.733	1	-3
538.903	1	2
539.073	1	-4
539.243	1	7
539.413	1	4
539.584	1	10
539.754	1	4
539.924	1	7
540.094	1	17
540.264	1	21
540.434	1	14
540.604	1	12
540.774	1	7
540.944	1	7
541.114	1	13
541.284	1	5
541.454	1	1
541.624	1	4
541.794	1	13
541.964	1	6
542.134	1	14
542.305	1	18
542.475	1	10
542.645	1	7
542.815	1	9
542.985	1	1
543.155	1	11
543.325	1	14
543.495	1	15
543.665	1	4
543.835	1	5
544.005	1	1
544.175	1	1
544.345	1	5
544.515	1	7
544.685	1	0
544.855	1	6
545.025	1	7
545.195	1	4
545.365	1	15
545.535	1	8
545.705	1	5
545.875	1	8
546.045	1	8
546.216	1	3
546.386	1	4
546.556	1	8
546.726	1	5
546.896	1	3
547.066	1	7
547.236	1	2
547.406	1	3
547.576	1	4
547.746	1	7
547.916	1	18
548.086	1	3
548.256	1	-2
548.426	1	8
548.596	1	10
548.766	1	12
548.936	1	3
549.106	1	0
549.276	1	14
549.446	1	9
549.616	1	11
549.786	1	9
549.956	1	9
550.126	1	0
550.296	1	13
550.466	1	11
550.636	1	3
550.806	1	25
550.976	1	-3
551.146	1	13
551.316	1	12
551.486	1	2
551.656	1	6
551.826	1	3
551.996	1	-4
552.166	1	6
552.336	1	-6
552.506	1	8
552.676	1	9
552.846	1	13
553.016	1	11
553.186	1	3
553.356	1	7
553.526	1	0
553.696	1	4
553.866	1	-8
554.036	1	19
554.206	1	5
554.376	1	20
554.546	1	11
554.716	1	3
554.886	1	6
555.056	1	3
555.226	1	6
555.396	1	6
555.566	1	9
555.736	1	11
555.906	1	8
556.076	1	-2
556.246	1	8
556.416	1	16
556.586	1	9
556.756	1	-1
556.926	1	9
557.096	1	9
557.266	1	14
557.436	1	11
557.606	1	-2
557.776	1	0
557.946	1	9
558.116	1	7
558.286	1	-4
558.456	1	-1
558.626	1	8
558.796	1	10
558.966	1	5
559.136	1	7
559.306	1	10
559.476	1	-2
559.646	1	10
559.816	1	9
559.986	1	13
560.155	1	12
560.325	1	9
560.495	1	12
560.665	1	4
560.835	1	6
561.005	1	3
561.175	1	-3
561.345	1	7
561.515	1	10
561.685	1	10
561.855	1	-4
562.025	1	13
562.195	1	6
562.365	1	2
562.535	1	7
562.705	1	10
562.875	1	-1
563.045	1	10
563.215	1	5
563.385	1	8
563.555	1	9
563.725	1	6
563.895	1	11
564.064	1	0
564.234	1	-9
564.404	1	-3
564.574	1	10
564.744	1	17
564.914	1	21
565.084	1	11
565.254	1	19
565.424	1	-1
565.594	1	4
565.764	1	8
565.934	1	9
566.104	1	7
566.274	1	7
566.444	1	8
566.614	1	6
566.783	1	9
566.953	1	16
567.123	1	3
567.293	1	3
567.463	1	6
567.633	1	0
567.803	1	13
567.973	1	5
568.143	1	8
568.313	1	2
568.483	1	15
568.653	1	7
568.823	1	10
568.993	1	8
569.162	1	-4
569.332	1	7
569.502	1	9
569.672	1	7
569.842	1	2
570.012	1	-8
570.182	1	-3
570.352	1	3
570.522	1	-2
570.692	1	3
570.862	1	-6
571.031	1	15
571.201	1	13
571.371	1	-3
571.541	1	5
571.711	1	8
571.881	1	0
572.051	1	8
572.221	1	-2
572.391	1	9
572.561	1	7
572.731	1	2
572.900	1	11
573.070	1	15
573.240	1	0
573.410	1	6
573.580	1	16
573.750	1	1
573.920	1	12
574.090	1	8
574.260	1	6
574.430	1	4
574.599	1	10
574.769	1	6
574.939	1	3
575.109	1	7
575.279	1	-1
575.449	1	-4
575.619	1	2
575.789	1	7
575.959	1	9
576.128	1	2
576.298	1	0
576.468	1	7
576.638	1	14
576.808	1	9
576.978	1	9
577.148	1	-8
577.318	1	10
577.487	1	-2
577.657	1	1
577.827	1	-3
577.997	1	10
578.167	1	13
578.337	1	8
578.507	1	5
578.677	1	-1
578.846	1	-1
579.016	1	5
579.186	1	9
579.356	1	5
579.526	1	-5
579.696	1	4
579.866	1	3
580.036	1	-3
580.205	1	5
580.375	1	10
580.545	1	10
580.715	1	11
580.885	1	2
581.055	1	1
581.225	1	14
581.394	1	5
581.564	1	12
581.734	1	6
581.904	1	8
582.074	1	-2
582.244	1	-2
582.414	1	5
582.583	1	4
582.753	1	1
582.923	1	-3
583.093	1	10
583.263	1	11
583.433	1	13
583.603	1	-1
583.772	1	2
583.942	1	-4
584.112	1	11
584.282	1	2
584.452	1	11
584.622	1	6
584.791	1	10
584.961	1	1
585.131	1	6
585.301	1	7
585.471	1	0
585.641	1	14
585.811	1	5
585.980	1	4
586.150	1	4
586.320	1	8
586.490	1	-3
586.660	1	6
586.830	1	0
586.999	1	4
587.169	1	0
587.339	1	-1
587.509	1	0
587.679	1	10
587.849	1	12
588.018	1	3
588.188	1	13
588.358	1	14
588.528	1	6
588.698	1	8
588.867	1	6
589.037	1	2
589.207	1	-3
589.377	1	3
589.547	1	-2
589.717	1	8
589.886	1	9
590.056	1	16
590.226	1	4
590.396	1	7
590.566	1	5
590.735	1	0
590.905	1	-1
591.075	1	10
591.245	1	-2
591.415	1	7
591.585	1	-2
591.754	1	-2
591.924	1	4
592.094	1	12
592.264	1	4
592.434	1	3
592.603	1	-3
592.773	1	1
592.943	1	1
593.113	1	-3
593.283	1	0
593.452	1	8
593.622	1	4
593.792	1	-1
593.962	1	5
594.132	1	10
594.301	1	9
594.471	1	-3
594.641	1	4
594.811	1	3
594.981	1	-1
595.150	1	5
595.320	1	5
595.490	1	0
595.660	1	11
595.829	1	1
595.999	1	4
596.169	1	0
596.339	1	4
596.509	1	11
596.678	1	-7
596.848	1	2
597.018	1	-3
597.188	1	1
597.358	1	5
597.527	1	6
597.697	1	-4
597.867	1	-8
598.037	1	-2
598.206	1	9
598.376	1	6
598.546	1	7
598.716	1	6
598.885	1	4
599.055	1	8
599.225	1	7
599.395	1	-6
599.565	1	1
599.734	1	9
599.904	1	7
600.074	1	0
600.244	1	-1
600.413	1	6
600.583	1	6
600.753	1	11
600.923	1	0
601.092	1	-3
601.262	1	-7
601.432	1	-4
601.602	1	18
601.771	1	1
601.941	1	-2
602.111	1	10
602.281	1	14
602.451	1	0
602.620	1	1
602.790	1	4
602.960	1	-6
603.130	1	5
603.299	1	6
603.469	1	8
603.639	1	11
603.809	1	9
603.978	1	3
604.148	1	6
604.318	1	-1
604.487	1	5
604.657	1	5
604.827	1	1
604.997	1	13
605.166	1	8
605.336	1	8
605.506	1	-5
605.676	1	-9
605.845	1	4
606.015	1	-1
606.185	1	10
606.355	1	-11
606.524	1	4
606.694	1	8
606.864	1	20
607.034	1	0
607.203	1	8
607.373	1	7
607.543	1	3
607.712	1	4
607.882	1	2
608.052	1	-7
608.222	1	2
608.391	1	6
608.561	1	3
608.731	1	-11
608.901	1	5
609.070	1	0
609.240	1	9
609.410	1	7
609.579	1	4
609.749	1	8
609.919	1	-6
610.089	1	10
610.258	1	16
610.428	1	11
610.598	1	-8
610.767	1	6
610.937	1	1
611.107	1	15
611.277	1	8
611.446	1	11
611.616	1	13
611.786	1	-1
611.955	1	-2
612.125	1	2
612.295	1	7
612.465	1	1
612.634	1	1
612.804	1	-1
612.974	1	2
613.143	1	-2
613.313	1	14
613.483	1	3
613.652	1	14
613.822	1	7
613.992	1	-4
614.162	1	17
614.331	1	11
614.501	1	-3
614.671	1	7
614.840	1	9
615.010	1	14
615.180	1	3
615.349	1	2
615.519	1	-7
615.689	1	1
615.858	1	-5
616.028	1	10
616.198	1	10
616.368	1	10
616.537	1	-14
616.707	1	9
616.877	1	3
617.046	1	6
617.216	1	0
617.386	1	4
617.555	1	6
617.725	1	7
617.895	1	16
618.064	1	-3
618.234	1	-2
618.404	1	-1
618.573	1	9
618.743	1	4
618.913	1	4
619.082	1	13
619.252	1	7
619.422	1	13
619.591	1	6
619.761	1	3
619.931	1	14
620.100	1	5
620.270	1	11
620.440	1	9
620.609	1	3
620.779	1	16
620.949	1	12
621.118	1	15
621.288	1	10
621.458	1	-2
621.627	1	9
621.797	1	-8
621.967	1	4
622.136	1	2
622.306	1	-3
622.476	1	8
622.645	1	11
622.815	1	8
622.985	1	-3
623.154	1	-8
623.324	1	11
623.494	1	-6
623.663	1	5
623.833	1	3
624.002	1	7
624.172	1	7
624.342	1	13
624.511	1	-2
624.681	1	12
624.851	1	-1
625.020	1	-3
625.190	1	1
625.360	1	8
625.529	1	4
625.699	1	11
625.869	1	7
626.038	1	1
626.208	1	-5
626.377	1	2
626.547	1	-5
626.717	1	3
626.886	1	0
627.056	1	2
627.226	1	7
627.395	1	-1
627.565	1	13
627.735	1	6
627.904	1	6
628.074	1	-2
628.243	1	12
628.413	1	3
628.583	1	8
628.752	1	1
628.922	1	16
629.091	1	10
629.261	1	-1
629.431	1	4
629.600	1	5
629.770	1	8
629.940	1	8
630.109	1	-3
630.279	1	9
630.448	1	3
630.618	1	15
630.788	1	6
630.957	1	-3
631.127	1	11
631.297	1	0
631.466	1	6
631.636	1	-2
631.805	1	16
631.975	1	5
632.145	1	-1
632.314	1	8
632.484	1	8
632.653	1	-2
632.823	1	4
632.993	1	7
633.162	1	0
633.332	1	-2
633.501	1	-7
633.671	1	4
633.841	1	5
634.010	1	3
634.180	1	-2
634.349	1	11
634.519	1	-4
634.689	1	0
634.858	1	8
635.028	1	1
635.197	1	4
635.367	1	10
635.537	1	6
635.706	1	3
635.876	1	0
636.045	1	-2
636.215	1	0
636.384	1	3
636.554	1	-5
636.724	1	1
636.893	1	1
637.063	1	-9
637.232	1	-3
637.402	1	7
637.572	1	4
637.741	1	5
637.911	1	5
638.080	1	14
638.250	1	-7
638.419	1	3
638.589	1	14
638.759	1	8
638.928	1	2
639.098	1	9
639.267	1	13
639.437	1	6
639.606	1	14
639.776	1	4
639.946	1	15
640.115	1	-8
640.285	1	4
640.454	1	-4
640.624	1	4
640.793	1	4
640.963	1	7
641.132	1	5
641.302	1	9
641.472	1	11
641.641	1	4
641.811	1	3
641.980	1	14
642.150	1	0
642.319	1	14
642.489	1	8
642.659	1	9
642.828	1	16
642.998	1	-2
643.167	1	11
643.337	1	5
643.506	1	0
643.676	1	-1
643.845	1	11
644.015	1	3
644.184	1	9
644.354	1	9
644.524	1	7
644.693	1	4
644.863	1	4
645.032	1	3
645.202	1	2
645.371	1	7
645.541	1	6
645.710	1	13
645.880	1	6
646.049	1	5
646.219	1	1
646.388	1	4
646.558	1	-5
646.728	1	4
646.897	1	5
647.067	1	19
647.236	1	1
647.406	1	6
647.575	1	17
647.745	1	1
647.914	1	4
648.084	1	-2
648.253	1	6
648.423	1	12
648.592	1	0
648.762	1	6
648.931	1	10
649.101	1	-1
649.270	1	11
649.440	1	4
649.610	1	10
649.779	1	-3
649.949	1	5
650.118	1	3
650.288	1	5
650.457	1	12
650.627	1	4
650.796	1	6
650.966	1	-4
651.135	1	7
651.305	1	7
651.474	1	13
651.644	1	11
651.813	1	4
651.983	1	-8
652.152	1	4
652.322	1	0
652.491	1	3
652.661	1	10
652.830	1	6
653.000	1	8
653.169	1	4
653.339	1	3
653.508	1	-9
653.678	1	10
653.847	1	-1
654.017	1	24
654.186	1	6
654.356	1	11
654.525	1	7
654.695	1	12
654.864	1	0
655.034	1	-2
655.203	1	3
655.373	1	8
655.542	1	3
655.712	1	11
655.881	1	-1
656.051	1	-4
656.220	1	4
656.390	1	4
656.559	1	6
656.729	1	0
656.898	1	9
657.068	1	2
657.237	1	6
657.406	1	-1
657.576	1	8
657.745	1	12
657.915	1	11
658.084	1	2
658.254	1	6
658.423	1	2
658.593	1	6
658.762	1	2
658.932	1	15
659.101	1	-4
659.271	1	9
659.440	1	5
659.610	1	9
659.779	1	4
659.949	1	9
660.118	1	0
660.288	1	-4
660.457	1	1
660.626	1	-2
660.796	1	8
660.965	1	3
661.135	1	20
661.304	1	9
661.474	1	7
661.643	1	6
661.813	1	5
661.982	1	-6
662.152	1	4
662.321	1	-3
662.491	1	9
662.660	1	17
662.829	1	8
662.999	1	17
663.168	1	0
663.338	1	-3
663.507	1	11
663.677	1	0
663.846	1	-1
664.016	1	-6
664.185	1	1
664.354	1	-2
664.524	1	13
664.693	1	4
664.863	1	-3
665.032	1	3
665.202	1	1
665.371	1	5
665.541	1	6
665.710	1	7
665.879	1	7
666.049	1	8
666.218	1	8
666.388	1	5
666.557	1	2
666.727	1	9
666.896	1	6
667.065	1	5
667.235	1	-11
667.404	1	-1
667.574	1	0
667.743	1	-1
667.913	1	8
668.082	1	4
668.251	1	-1
668.421	1	10
668.590	1	0
668.760	1	5
668.929	1	3
669.099	1	3
669.268	1	4
669.437	1	1
669.607	1	-3
669.776	1	-6
669.946	1	8
670.115	1	6
670.285	1	7
670.454	1	2
670.623	1	1
670.793	1	-9
670.962	1	-9
671.132	1	4
671.301	1	9
671.470	1	3
671.640	1	7
671.809	1	4
671.979	1	5
672.148	1	5
672.317	1	6
672.487	1	-2
672.656	1	11
672.826	1	2
672.995	1	0
673.164	1	1
673.334	1	2
673.503	1	6
673.673	1	17
673.842	1	0
674.011	1	4
674.181	1	2
674.350	1	-13
674.520	1	6
674.689	1	-1
674.858	1	-3
675.028	1	11
675.197	1	12
675.367	1	6
675.536	1	-12
675.705	1	-4
675.875	1	7
676.044	1	0
676.214	1	13
676.383	1	5
676.552	1	-3
676.722	1	2
676.891	1	4
677.060	1	-1
677.230	1	14
677.399	1	8
677.569	1	12
677.738	1	-5
677.907	1	13
678.077	1	2
678.246	1	-6
678.416	1	-8
678.585	1	0
678.754	1	7
678.924	1	4
679.093	1	16
679.262	1	11
679.432	1	-3
679.601	1	6
679.771	1	2
679.940	1	-6
680.109	1	-3
680.279	1	7
680.448	1	-4
680.617	1	7
680.787	1	-4
680.956	1	14
681.125	1	-3
681.295	1	3
681.464	1	5
681.634	1	14
681.803	1	-8
681.972	1	1
682.142	1	2
682.311	1	7
682.480	1	1
682.650	1	7
682.819	1	5
682.988	1	4
683.158	1	-1
683.327	1	0
683.496	1	-1
683.666	1	4
683.835	1	17
684.004	1	-7
684.174	1	9
684.343	1	-2
684.512	1	10
684.682	1	2
684.851	1	4
685.021	1	7
685.190	1	6
685.359	1	8
685.529	1	-3
685.698	1	-9
685.867	1	1
686.037	1	1
686.206	1	-1
686.375	1	3
686.545	1	3
686.714	1	1
686.883	1	9
687.053	1	19
687.222	1	0
687.391	1	-8
687.561	1	2
687.730	1	11
687.899	1	-2
688.069	1	5
688.238	1	5
688.407	1	4
688.577	1	-2
688.746	1	3
