340.368	1	4
340.539	1	1
340.710	1	11
340.881	1	6
341.052	1	2
341.223	1	11
341.394	1	-7
341.565	1	8
341.737	1	12
341.908	1	18
342.079	1	8
342.250	1	0
342.421	1	3
342.592	1	12
342.763	1	7
342.934	1	7
343.105	1	15
343.276	1	0
343.447	1	12
343.618	1	24
343.789	1	3
343.960	1	9
344.131	1	-7
344.302	1	14
344.473	1	2
344.644	1	8
344.815	1	12
344.986	1	5
345.157	1	19
345.328	1	6
345.499	1	4
345.670	1	-4
345.841	1	17
346.012	1	-3
346.183	1	4
346.354	1	3
346.526	1	4
346.697	1	10
346.868	1	3
347.039	1	13
347.210	1	8
347.381	1	15
347.552	1	23
347.723	1	12
347.894	1	2
348.065	1	9
348.236	1	-2
348.407	1	5
348.578	1	6
348.749	1	14
348.920	1	3
349.091	1	8
349.262	1	8
349.433	1	2
349.604	1	5
349.775	1	9
349.946	1	8
350.117	1	10
350.288	1	4
350.459	1	1
350.630	1	12
350.801	1	12
350.972	1	1
351.143	1	5
351.314	1	0
351.485	1	10
351.656	1	12
351.827	1	20
351.998	1	7
352.169	1	9
352.340	1	7
352.511	1	10
352.682	1	-8
352.853	1	-4
353.024	1	19
353.195	1	0
353.366	1	16
353.537	1	9
353.708	1	13
353.879	1	18
354.050	1	6
354.221	1	2
354.392	1	9
354.563	1	9
354.734	1	15
354.905	1	7
355.076	1	21
355.247	1	10
355.418	1	11
355.589	1	19
355.760	1	11
355.931	1	14
356.102	1	8
356.273	1	20
356.444	1	22
356.615	1	16
356.785	1	17
356.956	1	19
357.127	1	20
357.298	1	10
357.469	1	16
357.640	1	8
357.811	1	15
357.982	1	20
358.153	1	14
358.324	1	15
358.495	1	16
358.666	1	17
358.837	1	36
359.008	1	16
359.179	1	39
359.350	1	22
359.521	1	19
359.692	1	19
359.863	1	25
360.034	1	17
360.205	1	50
360.376	1	31
360.547	1	30
360.718	1	41
360.889	1	25
361.060	1	47
361.231	1	39
361.401	1	41
361.572	1	49
361.743	1	29
361.914	1	45
362.085	1	47
362.256	1	49
362.427	1	52
362.598	1	63
362.769	1	55
362.940	1	58
363.111	1	56
363.282	1	48
363.453	1	66
363.624	1	78
363.795	1	69
363.966	1	74
364.137	1	75
364.308	1	82
364.478	1	85
364.649	1	83
364.820	1	104
364.991	1	96
365.162	1	105
365.333	1	101
365.504	1	105
365.675	1	117
365.846	1	110
366.017	1	121
366.188	1	122
366.359	1	130
366.530	1	129
366.701	1	133
366.871	1	151
367.042	1	138
367.213	1	156
367.384	1	149
367.555	1	152
367.726	1	147
367.897	1	150
368.068	1	161
368.239	1	154
368.410	1	148
368.581	1	153
368.752	1	156
368.923	1	144
369.093	1	150
369.264	1	144
369.435	1	154
369.606	1	148
369.777	1	145
369.948	1	135
370.119	1	138
370.290	1	145
370.461	1	135
370.632	1	119
370.803	1	122
370.973	1	130
371.144	1	112
371.315	1	115
371.486	1	110
371.657	1	114
371.828	1	110
371.999	1	98
372.170	1	97
372.341	1	93
372.512	1	92
372.682	1	96
372.853	1	108
373.024	1	85
373.195	1	89
373.366	1	99
373.537	1	82
373.708	1	88
373.879	1	75
374.050	1	84
374.220	1	88
374.391	1	72
374.562	1	79
374.733	1	69
374.904	1	77
375.075	1	55
375.246	1	64
375.417	1	60
375.588	1	54
375.758	1	64
375.929	1	64
376.100	1	63
376.271	1	63
376.442	1	57
376.613	1	55
376.784	1	57
376.955	1	51
377.125	1	32
377.296	1	65
377.467	1	58
377.638	1	41
377.809	1	23
377.980	1	43
378.151	1	39
378.321	1	46
378.492	1	26
378.663	1	49
378.834	1	50
379.005	1	48
379.176	1	28
379.347	1	40
379.518	1	32
379.688	1	43
379.859	1	49
380.030	1	39
380.201	1	34
380.372	1	39
380.543	1	26
380.714	1	35
380.884	1	43
381.055	1	33
381.226	1	36
381.397	1	38
381.568	1	32
381.739	1	20
381.910	1	38
382.080	1	29
382.251	1	32
382.422	1	34
382.593	1	36
382.764	1	27
382.935	1	26
383.105	1	26
383.276	1	37
383.447	1	33
383.618	1	30
383.789	1	13
383.960	1	37
384.130	1	34
384.301	1	19
384.472	1	24
384.643	1	29
384.814	1	24
384.985	1	30
385.156	1	19
385.326	1	18
385.497	1	40
385.668	1	22
385.839	1	29
386.010	1	19
386.180	1	20
386.351	1	27
386.522	1	27
386.693	1	20
386.864	1	18
387.035	1	24
387.205	1	19
387.376	1	23
387.547	1	26
387.718	1	20
387.889	1	13
388.060	1	30
388.230	1	13
388.401	1	21
388.572	1	16
388.743	1	7
388.914	1	21
389.084	1	20
389.255	1	24
389.426	1	13
389.597	1	16
389.768	1	22
389.939	1	31
390.109	1	18
390.280	1	15
390.451	1	11
390.622	1	7
390.793	1	16
390.963	1	10
391.134	1	28
391.305	1	16
391.476	1	21
391.647	1	13
391.817	1	8
391.988	1	19
392.159	1	9
392.330	1	13
392.501	1	15
392.671	1	20
392.842	1	22
393.013	1	12
393.184	1	12
393.355	1	33
393.525	1	7
393.696	1	11
393.867	1	16
394.038	1	23
394.208	1	10
394.379	1	21
394.550	1	23
394.721	1	20
394.892	1	12
395.062	1	7
395.233	1	19
395.404	1	20
395.575	1	25
395.746	1	4
395.916	1	10
396.087	1	21
396.258	1	30
396.429	1	20
396.599	1	16
396.770	1	14
396.941	1	22
397.112	1	16
397.283	1	12
397.453	1	15
397.624	1	11
397.795	1	18
397.966	1	16
398.136	1	20
398.307	1	14
398.478	1	16
398.649	1	13
398.819	1	19
398.990	1	18
399.161	1	17
399.332	1	7
399.503	1	29
399.673	1	20
399.844	1	8
400.015	1	12
400.186	1	19
400.356	1	12
400.527	1	17
400.698	1	16
400.869	1	4
401.039	1	7
401.210	1	21
401.381	1	9
401.552	1	15
401.722	1	23
401.893	1	28
402.064	1	21
402.235	1	22
402.405	1	12
402.576	1	23
402.747	1	16
402.918	1	4
403.088	1	12
403.259	1	24
403.430	1	10
403.601	1	21
403.771	1	5
403.942	1	8
404.113	1	14
404.284	1	19
404.454	1	18
404.625	1	9
404.796	1	21
404.967	1	8
405.137	1	24
405.308	1	5
405.479	1	18
405.649	1	15
405.820	1	2
405.991	1	13
406.162	1	8
406.332	1	10
406.503	1	18
406.674	1	7
406.845	1	24
407.015	1	17
407.186	1	8
407.357	1	20
407.527	1	10
407.698	1	24
407.869	1	6
408.040	1	26
408.210	1	26
408.381	1	8
408.552	1	8
408.722	1	22
408.893	1	11
409.064	1	23
409.235	1	12
409.405	1	14
409.576	1	11
409.747	1	11
409.917	1	34
410.088	1	18
410.259	1	15
410.430	1	25
410.600	1	15
410.771	1	20
410.942	1	23
411.112	1	15
411.283	1	13
411.454	1	14
411.625	1	3
411.795	1	16
411.966	1	21
412.137	1	9
412.307	1	17
412.478	1	18
412.649	1	12
412.819	1	14
412.990	1	14
413.161	1	16
413.332	1	21
413.502	1	21
413.673	1	13
413.844	1	23
414.014	1	4
414.185	1	13
414.356	1	18
414.526	1	8
414.697	1	12
414.868	1	10
415.038	1	14
415.209	1	10
415.380	1	8
415.550	1	9
415.721	1	20
415.892	1	28
416.063	1	20
416.233	1	7
416.404	1	3
416.575	1	15
416.745	1	11
416.916	1	7
417.087	1	12
417.257	1	3
417.428	1	22
417.599	1	19
417.769	1	12
417.940	1	15
418.111	1	24
418.281	1	24
418.452	1	21
418.623	1	14
418.793	1	5
418.964	1	25
419.135	1	18
419.305	1	20
419.476	1	13
419.647	1	15
419.817	1	8
419.988	1	25
420.159	1	14
420.329	1	13
420.500	1	20
420.671	1	26
420.841	1	15
421.012	1	14
421.183	1	20
421.353	1	20
421.524	1	19
421.695	1	16
421.865	1	13
422.036	1	15
422.206	1	22
422.377	1	9
422.548	1	19
422.718	1	19
422.889	1	22
423.060	1	23
423.230	1	26
423.401	1	9
423.572	1	6
423.742	1	18
423.913	1	12
424.084	1	25
424.254	1	7
424.425	1	27
424.595	1	23
424.766	1	2
424.937	1	13
425.107	1	12
425.278	1	14
425.449	1	18
425.619	1	12
425.790	1	14
425.961	1	27
426.131	1	9
426.302	1	13
426.472	1	29
426.643	1	12
426.814	1	14
426.984	1	10
427.155	1	18
427.326	1	19
427.496	1	19
427.667	1	10
427.837	1	16
428.008	1	19
428.179	1	25
428.349	1	28
428.520	1	18
428.691	1	18
428.861	1	27
429.032	1	17
429.202	1	6
429.373	1	22
429.544	1	17
429.714	1	30
429.885	1	17
430.055	1	18
430.226	1	3
430.397	1	9
430.567	1	10
430.738	1	11
430.909	1	14
431.079	1	16
431.250	1	18
431.420	1	27
431.591	1	21
431.762	1	15
431.932	1	15
432.103	1	20
432.273	1	30
432.444	1	11
432.615	1	20
432.785	1	18
432.956	1	16
433.126	1	16
433.297	1	18
433.468	1	0
433.638	1	22
433.809	1	16
433.979	1	19
434.150	1	22
434.320	1	15
434.491	1	21
434.662	1	16
434.832	1	11
435.003	1	23
435.173	1	19
435.344	1	7
435.515	1	7
435.685	1	6
435.856	1	14
436.026	1	25
436.197	1	16
436.368	1	15
436.538	1	18
436.709	1	11
436.879	1	0
437.050	1	10
437.220	1	16
437.391	1	14
437.562	1	19
437.732	1	12
437.903	1	12
438.073	1	8
438.244	1	14
438.414	1	14
438.585	1	10
438.756	1	17
438.926	1	16
439.097	1	18
439.267	1	13
439.438	1	10
439.608	1	10
439.779	1	6
439.949	1	20
440.120	1	11
440.291	1	17
440.461	1	17
440.632	1	12
440.802	1	12
440.973	1	22
441.143	1	18
441.314	1	7
441.485	1	13
441.655	1	17
441.826	1	13
441.996	1	18
442.167	1	6
442.337	1	19
442.508	1	14
442.678	1	17
442.849	1	18
443.019	1	19
443.190	1	20
443.361	1	20
443.531	1	14
443.702	1	7
443.872	1	5
444.043	1	16
444.213	1	2
444.384	1	16
444.554	1	12
444.725	1	26
444.895	1	16
445.066	1	6
445.237	1	20
445.407	1	8
445.578	1	3
445.748	1	16
445.919	1	13
446.089	1	11
446.260	1	15
446.430	1	26
446.601	1	15
446.771	1	12
446.942	1	1
447.112	1	17
447.283	1	16
447.453	1	-2
447.624	1	4
447.794	1	6
447.965	1	5
448.135	1	9
448.306	1	7
448.477	1	15
448.647	1	10
448.818	1	11
448.988	1	10
449.159	1	8
449.329	1	19
449.500	1	15
449.670	1	13
449.841	1	17
450.011	1	6
450.182	1	9
450.352	1	8
450.523	1	10
450.693	1	16
450.864	1	13
451.034	1	11
451.205	1	14
451.375	1	16
451.546	1	17
451.716	1	11
451.887	1	6
452.057	1	19
452.228	1	6
452.398	1	19
452.569	1	19
452.739	1	13
452.910	1	7
453.080	1	14
453.251	1	4
453.421	1	17
453.592	1	10
453.762	1	13
453.933	1	4
454.103	1	10
454.274	1	12
454.444	1	6
454.615	1	13
454.785	1	9
454.956	1	18
455.126	1	10
455.297	1	5
455.467	1	12
455.638	1	9
455.808	1	16
455.979	1	15
456.149	1	5
456.320	1	11
456.490	1	4
456.661	1	4
456.831	1	8
457.001	1	25
457.172	1	4
457.342	1	9
457.513	1	6
457.683	1	8
457.854	1	5
458.024	1	14
458.195	1	13
458.365	1	11
458.536	1	21
458.706	1	18
458.877	1	20
459.047	1	9
459.218	1	11
459.388	1	9
459.559	1	10
459.729	1	7
459.899	1	10
460.070	1	16
460.240	1	15
460.411	1	13
460.581	1	1
460.752	1	12
460.922	1	8
461.093	1	19
461.263	1	17
461.434	1	-3
461.604	1	7
461.775	1	7
461.945	1	11
462.115	1	1
462.286	1	10
462.456	1	11
462.627	1	14
462.797	1	9
462.968	1	0
463.138	1	-2
463.309	1	6
463.479	1	0
463.649	1	2
463.820	1	14
463.990	1	13
464.161	1	14
464.331	1	10
464.502	1	5
464.672	1	6
464.843	1	17
465.013	1	10
465.183	1	1
465.354	1	18
465.524	1	3
465.695	1	1
465.865	1	5
466.036	1	13
466.206	1	7
466.376	1	24
466.547	1	14
466.717	1	2
466.888	1	12
467.058	1	24
467.229	1	15
467.399	1	1
467.569	1	6
467.740	1	7
467.910	1	21
468.081	1	13
468.251	1	3
468.422	1	11
468.592	1	4
468.762	1	17
468.933	1	2
469.103	1	17
469.274	1	10
469.444	1	13
469.614	1	-4
469.785	1	5
469.955	1	11
470.126	1	14
470.296	1	10
470.467	1	11
470.637	1	18
470.807	1	11
470.978	1	6
471.148	1	9
471.319	1	4
471.489	1	7
471.659	1	0
471.830	1	15
472.000	1	-7
472.171	1	13
472.341	1	7
472.511	1	11
472.682	1	14
472.852	1	17
473.023	1	17
473.193	1	7
473.363	1	6
473.534	1	14
473.704	1	14
473.875	1	5
474.045	1	11
474.215	1	11
474.386	1	10
474.556	1	6
474.727	1	10
474.897	1	7
475.067	1	15
475.238	1	11
475.408	1	4
475.578	1	-3
475.749	1	-6
475.919	1	1
476.090	1	3
476.260	1	5
476.430	1	-6
476.601	1	13
476.771	1	5
476.942	1	11
477.112	1	16
477.282	1	6
477.453	1	15
477.623	1	5
477.793	1	12
477.964	1	16
478.134	1	6
478.305	1	18
478.475	1	18
478.645	1	5
478.816	1	15
478.986	1	11
479.156	1	9
479.327	1	10
479.497	1	10
479.667	1	7
479.838	1	10
480.008	1	10
480.179	1	14
480.349	1	11
480.519	1	10
480.690	1	12
480.860	1	8
481.030	1	2
481.201	1	2
481.371	1	1
481.541	1	-2
481.712	1	23
481.882	1	7
482.053	1	15
482.223	1	11
482.393	1	12
482.564	1	16
482.734	1	12
482.904	1	10
483.075	1	15
483.245	1	1
483.415	1	8
483.586	1	6
483.756	1	12
483.926	1	8
484.097	1	17
484.267	1	9
484.437	1	16
484.608	1	9
484.778	1	1
484.948	1	16
485.119	1	18
485.289	1	2
485.459	1	10
485.630	1	11
485.800	1	9
485.970	1	-1
486.141	1	18
486.311	1	13
486.481	1	3
486.652	1	12
486.822	1	24
486.992	1	15
487.163	1	8
487.333	1	8
487.503	1	6
487.674	1	10
487.844	1	5
488.014	1	15
488.185	1	12
488.355	1	22
488.525	1	3
488.696	1	20
488.866	1	14
489.036	1	16
489.207	1	18
489.377	1	18
489.547	1	14
489.718	1	0
489.888	1	22
490.058	1	9
490.228	1	14
490.399	1	27
490.569	1	16
490.739	1	20
490.910	1	19
491.080	1	12
491.250	1	16
491.421	1	19
491.591	1	17
491.761	1	12
491.932	1	17
492.102	1	19
492.272	1	5
492.442	1	22
492.613	1	15
492.783	1	24
492.953	1	23
493.124	1	19
493.294	1	10
493.464	1	7
493.635	1	21
493.805	1	31
493.975	1	19
494.145	1	15
494.316	1	14
494.486	1	22
494.656	1	23
494.827	1	6
494.997	1	9
495.167	1	23
495.337	1	10
495.508	1	27
495.678	1	11
495.848	1	21
496.019	1	17
496.189	1	15
496.359	1	9
496.529	1	13
496.700	1	15
496.870	1	23
497.040	1	8
497.211	1	14
497.381	1	23
497.551	1	17
497.721	1	8
497.892	1	12
498.062	1	16
498.232	1	18
498.403	1	28
498.573	1	15
498.743	1	28
498.913	1	17
499.084	1	22
499.254	1	30
499.424	1	22
499.594	1	23
499.765	1	26
499.935	1	27
500.105	1	26
500.275	1	19
500.446	1	25
500.616	1	11
500.786	1	18
500.956	1	31
501.127	1	25
501.297	1	29
501.467	1	22
501.638	1	22
501.808	1	20
501.978	1	12
502.148	1	20
502.319	1	33
502.489	1	23
502.659	1	33
502.829	1	19
503.000	1	31
503.170	1	21
503.340	1	21
503.510	1	26
503.681	1	25
503.851	1	26
504.021	1	33
504.191	1	22
504.362	1	15
504.532	1	41
504.702	1	13
504.872	1	31
505.042	1	27
505.213	1	23
505.383	1	37
505.553	1	39
505.723	1	46
505.894	1	29
506.064	1	29
506.234	1	36
506.404	1	31
506.575	1	50
506.745	1	26
506.915	1	27
507.085	1	38
507.256	1	42
507.426	1	22
507.596	1	39
507.766	1	33
507.936	1	32
508.107	1	23
508.277	1	40
508.447	1	20
508.617	1	41
508.788	1	37
508.958	1	34
509.128	1	34
509.298	1	27
509.468	1	27
509.639	1	26
509.809	1	27
509.979	1	28
510.149	1	28
510.319	1	36
510.490	1	28
510.660	1	44
510.830	1	27
511.000	1	28
511.171	1	39
511.341	1	46
511.511	1	32
511.681	1	26
511.851	1	42
512.022	1	27
512.192	1	40
512.362	1	43
512.532	1	47
512.702	1	33
512.873	1	37
513.043	1	42
513.213	1	32
513.383	1	32
513.553	1	42
513.724	1	32
513.894	1	23
514.064	1	33
514.234	1	33
514.404	1	47
514.575	1	30
514.745	1	36
514.915	1	29
515.085	1	47
515.255	1	40
515.425	1	40
515.596	1	43
515.766	1	40
515.936	1	39
516.106	1	28
516.276	1	41
516.447	1	39
516.617	1	44
516.787	1	34
516.957	1	38
517.127	1	39
517.297	1	34
517.468	1	43
517.638	1	38
517.808	1	34
517.978	1	44
518.148	1	44
518.319	1	33
518.489	1	38
518.659	1	44
518.829	1	50
518.999	1	41
519.169	1	36
519.340	1	32
519.510	1	33
519.680	1	53
519.850	1	40
520.020	1	42
520.190	1	40
520.361	1	34
520.531	1	35
520.701	1	40
520.871	1	41
521.041	1	47
521.211	1	46
521.382	1	36
521.552	1	35
521.722	1	37
521.892	1	45
522.062	1	28
522.232	1	37
522.402	1	47
522.573	1	41
522.743	1	53
522.913	1	40
523.083	1	31
523.253	1	42
523.423	1	46
523.593	1	38
523.764	1	43
523.934	1	40
524.104	1	42
524.274	1	47
524.444	1	51
524.614	1	40
524.784	1	29
524.955	1	33
525.125	1	34
525.295	1	52
525.465	1	41
525.635	1	46
525.805	1	46
525.975	1	39
526.146	1	44
526.316	1	33
526.486	1	38
526.656	1	47
526.826	1	41
526.996	1	36
527.166	1	45
527.337	1	42
527.507	1	36
527.677	1	50
527.847	1	35
528.017	1	41
528.187	1	52
528.357	1	50
528.527	1	48
528.698	1	49
528.868	1	32
529.038	1	48
529.208	1	46
529.378	1	45
529.548	1	48
529.718	1	34
529.888	1	54
530.058	1	40
530.229	1	49
530.399	1	49
530.569	1	42
530.739	1	49
530.909	1	53
531.079	1	49
531.249	1	52
531.419	1	43
531.589	1	41
531.760	1	50
531.930	1	58
532.100	1	58
532.270	1	43
532.440	1	48
532.610	1	45
532.780	1	51
532.950	1	36
533.120	1	36
533.290	1	45
533.461	1	41
533.631	1	44
533.801	1	47
533.971	1	37
534.141	1	32
534.311	1	53
534.481	1	57
534.651	1	34
534.821	1	46
534.991	1	43
535.162	1	45
535.332	1	40
535.502	1	39
535.672	1	45
535.842	1	40
536.012	1	41
536.182	1	45
536.352	1	45
536.522	1	27
536.692	1	39
536.862	1	37
537.032	1	36
537.203	1	41
537.373	1	27
537.543	1	43
537.713	1	42
537.883	1	39
538.053	1	31
538.223	1	50
538.393	1	38
538.563	1	43
538.733	1	52
538.903	1	36
539.073	1	27
539.243	1	40
539.413	1	24
539.584	1	36
539.754	1	39
539.924	1	43
540.094	1	46
540.264	1	41
540.434	1	36
540.604	1	43
540.774	1	43
540.944	1	39
541.114	1	45
541.284	1	37
541.454	1	32
541.624	1	33
541.794	1	38
541.964	1	30
542.134	1	35
542.305	1	42
542.475	1	33
542.645	1	38
542.815	1	41
542.985	1	32
543.155	1	46
543.325	1	33
543.495	1	35
543.665	1	37
543.835	1	42
544.005	1	34
544.175	1	29
544.345	1	59
544.515	1	42
544.685	1	37
544.855	1	29
545.025	1	38
545.195	1	32
545.365	1	42
545.535	1	36
545.705	1	40
545.875	1	44
546.045	1	38
546.216	1	34
546.386	1	43
546.556	1	43
546.726	1	35
546.896	1	44
547.066	1	38
547.236	1	45
547.406	1	38
547.576	1	43
547.746	1	35
547.916	1	36
548.086	1	40
548.256	1	29
548.426	1	42
548.596	1	50
548.766	1	44
548.936	1	36
549.106	1	33
549.276	1	42
549.446	1	48
549.616	1	36
549.786	1	36
549.956	1	35
550.126	1	43
550.296	1	28
550.466	1	37
550.636	1	35
550.806	1	30
550.976	1	28
551.146	1	30
551.316	1	32
551.486	1	30
551.656	1	41
551.826	1	29
551.996	1	34
552.166	1	32
552.336	1	34
552.506	1	33
552.676	1	39
552.846	1	39
553.016	1	35
553.186	1	28
553.356	1	41
553.526	1	26
553.696	1	29
553.866	1	42
554.036	1	31
554.206	1	38
554.376	1	46
554.546	1	26
554.716	1	29
554.886	1	30
555.056	1	32
555.226	1	36
555.396	1	32
555.566	1	28
555.736	1	32
555.906	1	20
556.076	1	32
556.246	1	34
556.416	1	28
556.586	1	39
556.756	1	19
556.926	1	19
557.096	1	26
557.266	1	27
557.436	1	30
557.606	1	18
557.776	1	29
557.946	1	41
558.116	1	37
558.286	1	16
558.456	1	25
558.626	1	22
558.796	1	41
558.966	1	29
559.136	1	25
559.306	1	29
559.476	1	26
559.646	1	26
559.816	1	39
559.986	1	34
560.155	1	32
560.325	1	31
560.495	1	31
560.665	1	30
560.835	1	20
561.005	1	24
561.175	1	28
561.345	1	24
561.515	1	16
561.685	1	35
561.855	1	26
562.025	1	30
562.195	1	31
562.365	1	29
562.535	1	17
562.705	1	33
562.875	1	37
563.045	1	22
563.215	1	30
563.385	1	20
563.555	1	32
563.725	1	27
563.895	1	22
564.064	1	26
564.234	1	27
564.404	1	14
564.574	1	22
564.744	1	38
564.914	1	27
565.084	1	26
565.254	1	37
565.424	1	11
565.594	1	25
565.764	1	23
565.934	1	31
566.104	1	25
566.274	1	26
566.444	1	24
566.614	1	21
566.783	1	21
566.953	1	31
567.123	1	27
567.293	1	5
567.463	1	20
567.633	1	29
567.803	1	27
567.973	1	14
568.143	1	35
568.313	1	31
568.483	1	28
568.653	1	18
568.823	1	22
568.993	1	11
569.162	1	17
569.332	1	16
569.502	1	27
569.672	1	24
569.842	1	21
570.012	1	11
570.182	1	20
570.352	1	31
570.522	1	20
570.692	1	26
570.862	1	10
571.031	1	33
571.201	1	35
571.371	1	17
571.541	1	23
571.711	1	30
571.881	1	14
572.051	1	28
572.221	1	19
572.391	1	16
572.561	1	20
572.731	1	14
572.900	1	29
573.070	1	22
573.240	1	23
573.410	1	29
573.580	1	20
573.750	1	26
573.920	1	21
574.090	1	15
574.260	1	25
574.430	1	21
574.599	1	23
574.769	1	15
574.939	1	17
575.109	1	25
575.279	1	17
575.449	1	14
575.619	1	20
575.789	1	21
575.959	1	20
576.128	1	8
576.298	1	9
576.468	1	22
576.638	1	19
576.808	1	12
576.978	1	21
577.148	1	10
577.318	1	19
577.487	1	9
577.657	1	12
577.827	1	16
577.997	1	19
578.167	1	28
578.337	1	19
578.507	1	20
578.677	1	21
578.846	1	17
579.016	1	10
579.186	1	22
579.356	1	20
579.526	1	9
579.696	1	14
579.866	1	16
580.036	1	14
580.205	1	17
580.375	1	13
580.545	1	18
580.715	1	15
580.885	1	27
581.055	1	14
581.225	1	22
581.394	1	26
581.564	1	11
581.734	1	17
581.904	1	30
582.074	1	15
582.244	1	14
582.414	1	20
582.583	1	24
582.753	1	14
582.923	1	3
583.093	1	27
583.263	1	15
583.433	1	26
583.603	1	13
583.772	1	25
583.942	1	3
584.112	1	18
584.282	1	17
584.452	1	19
584.622	1	5
584.791	1	17
584.961	1	7
585.131	1	18
585.301	1	11
585.471	1	18
585.641	1	16
585.811	1	19
585.980	1	9
586.150	1	16
586.320	1	17
586.490	1	23
586.660	1	11
586.830	1	12
586.999	1	8
587.169	1	13
587.339	1	12
587.509	1	26
587.679	1	10
587.849	1	24
588.018	1	9
588.188	1	27
588.358	1	34
588.528	1	7
588.698	1	9
588.867	1	12
589.037	1	21
589.207	1	10
589.377	1	14
589.547	1	19
589.717	1	12
589.886	1	14
590.056	1	13
590.226	1	9
590.396	1	7
590.566	1	8
590.735	1	18
590.905	1	16
591.075	1	9
591.245	1	8
591.415	1	24
591.585	1	1
591.754	1	9
591.924	1	7
592.094	1	13
592.264	1	-2
592.434	1	10
592.603	1	-3
592.773	1	3
592.943	1	13
593.113	1	17
593.283	1	14
593.452	1	12
593.622	1	10
593.792	1	5
593.962	1	15
594.132	1	8
594.301	1	5
594.471	1	10
594.641	1	14
594.811	1	19
594.981	1	10
595.150	1	3
595.320	1	16
595.490	1	1
595.660	1	11
595.829	1	1
595.999	1	10
596.169	1	11
596.339	1	9
596.509	1	18
596.678	1	5
596.848	1	11
597.018	1	-1
597.188	1	7
597.358	1	7
597.527	1	7
597.697	1	7
597.867	1	11
598.037	1	15
598.206	1	12
598.376	1	-1
598.546	1	15
598.716	1	9
598.885	1	20
599.055	1	16
599.225	1	14
599.395	1	6
599.565	1	7
599.734	1	9
599.904	1	7
600.074	1	6
600.244	1	15
600.413	1	4
600.583	1	19
600.753	1	9
600.923	1	23
601.092	1	5
601.262	1	4
601.432	1	6
601.602	1	4
601.771	1	20
601.941	1	10
602.111	1	12
602.281	1	22
602.451	1	15
602.620	1	14
602.790	1	6
602.960	1	-7
603.130	1	13
603.299	1	21
603.469	1	18
603.639	1	10
603.809	1	16
603.978	1	6
604.148	1	2
604.318	1	16
604.487	1	9
604.657	1	14
604.827	1	13
604.997	1	11
605.166	1	19
605.336	1	26
605.506	1	5
605.676	1	4
605.845	1	12
606.015	1	2
606.185	1	7
606.355	1	1
606.524	1	1
606.694	1	33
606.864	1	14
607.034	1	14
607.203	1	19
607.373	1	7
607.543	1	8
607.712	1	5
607.882	1	11
608.052	1	3
608.222	1	2
608.391	1	12
608.561	1	9
608.731	1	9
608.901	1	13
609.070	1	16
609.240	1	8
609.410	1	11
609.579	1	10
609.749	1	13
609.919	1	6
610.089	1	19
610.258	1	24
610.428	1	21
610.598	1	1
610.767	1	18
610.937	1	4
611.107	1	9
611.277	1	19
611.446	1	12
611.616	1	15
611.786	1	12
611.955	1	2
612.125	1	8
612.295	1	20
612.465	1	1
612.634	1	9
612.804	1	10
612.974	1	8
613.143	1	6
613.313	1	5
613.483	1	13
613.652	1	11
613.822	1	10
613.992	1	11
614.162	1	24
614.331	1	16
614.501	1	8
614.671	1	5
614.840	1	10
615.010	1	14
615.180	1	0
615.349	1	9
615.519	1	2
615.689	1	10
615.858	1	-1
616.028	1	22
616.198	1	14
616.368	1	13
616.537	1	-1
616.707	1	1
616.877	1	13
617.046	1	3
617.216	1	8
617.386	1	13
617.555	1	10
617.725	1	8
617.895	1	4
618.064	1	3
618.234	1	8
618.404	1	13
618.573	1	13
618.743	1	13
618.913	1	7
619.082	1	24
619.252	1	3
619.422	1	14
619.591	1	12
619.761	1	9
619.931	1	13
620.100	1	11
620.270	1	19
620.440	1	19
620.609	1	5
620.779	1	13
620.949	1	15
621.118	1	8
621.288	1	6
621.458	1	11
621.627	1	10
621.797	1	3
621.967	1	10
622.136	1	5
622.306	1	7
622.476	1	8
622.645	1	6
622.815	1	8
622.985	1	3
623.154	1	-1
623.324	1	9
623.494	1	-5
623.663	1	8
623.833	1	5
624.002	1	16
624.172	1	14
624.342	1	11
624.511	1	-2
624.681	1	12
624.851	1	4
625.020	1	-9
625.190	1	7
625.360	1	7
625.529	1	10
625.699	1	15
625.869	1	14
626.038	1	13
626.208	1	-1
626.377	1	16
626.547	1	3
626.717	1	12
626.886	1	6
627.056	1	18
627.226	1	7
627.395	1	11
627.565	1	8
627.735	1	13
627.904	1	3
628.074	1	7
628.243	1	15
628.413	1	7
628.583	1	6
628.752	1	8
628.922	1	12
629.091	1	24
629.261	1	11
629.431	1	-1
629.600	1	6
629.770	1	17
629.940	1	14
630.109	1	-5
630.279	1	9
630.448	1	11
630.618	1	9
630.788	1	7
630.957	1	6
631.127	1	7
631.297	1	10
631.466	1	4
631.636	1	7
631.805	1	11
631.975	1	9
632.145	1	6
632.314	1	4
632.484	1	18
632.653	1	1
632.823	1	4
632.993	1	5
633.162	1	3
633.332	1	19
633.501	1	-3
633.671	1	15
633.841	1	11
634.010	1	8
634.180	1	3
634.349	1	10
634.519	1	-3
634.689	1	3
634.858	1	5
635.028	1	2
635.197	1	10
635.367	1	16
635.537	1	8
635.706	1	0
635.876	1	8
636.045	1	8
636.215	1	2
636.384	1	11
636.554	1	1
636.724	1	8
636.893	1	21
637.063	1	3
637.232	1	6
637.402	1	5
637.572	1	13
637.741	1	8
637.911	1	8
638.080	1	0
638.250	1	10
638.419	1	9
638.589	1	15
638.759	1	12
638.928	1	6
639.098	1	2
639.267	1	19
639.437	1	7
639.606	1	16
639.776	1	7
639.946	1	1
640.115	1	7
640.285	1	2
640.454	1	8
640.624	1	6
640.793	1	6
640.963	1	12
641.132	1	2
641.302	1	14
641.472	1	15
641.641	1	-1
641.811	1	0
641.980	1	7
642.150	1	4
642.319	1	18
642.489	1	9
642.659	1	9
642.828	1	24
642.998	1	8
643.167	1	2
643.337	1	4
643.506	1	-2
643.676	1	10
643.845	1	21
644.015	1	0
644.184	1	18
644.354	1	11
644.524	1	3
644.693	1	4
644.863	1	5
645.032	1	4
645.202	1	3
645.371	1	8
645.541	1	3
645.710	1	12
645.880	1	2
646.049	1	13
646.219	1	2
646.388	1	11
646.558	1	-4
646.728	1	8
646.897	1	-1
647.067	1	12
647.236	1	-6
647.406	1	14
647.575	1	16
647.745	1	0
647.914	1	5
648.084	1	6
648.253	1	19
648.423	1	17
648.592	1	2
648.762	1	8
648.931	1	15
649.101	1	2
649.270	1	15
649.440	1	10
649.610	1	13
649.779	1	-1
649.949	1	4
650.118	1	15
650.288	1	7
650.457	1	8
650.627	1	8
650.796	1	16
650.966	1	4
651.135	1	9
651.305	1	13
651.474	1	14
651.644	1	19
651.813	1	9
651.983	1	6
652.152	1	13
652.322	1	4
652.491	1	3
652.661	1	11
652.830	1	12
653.000	1	12
653.169	1	-1
653.339	1	2
653.508	1	-5
653.678	1	15
653.847	1	4
654.017	1	15
654.186	1	8
654.356	1	12
654.525	1	12
654.695	1	21
654.864	1	2
655.034	1	10
655.203	1	1
655.373	1	7
655.542	1	8
655.712	1	15
655.881	1	7
656.051	1	0
656.220	1	23
656.390	1	8
656.559	1	7
656.729	1	15
656.898	1	6
657.068	1	6
657.237	1	12
657.406	1	-3
657.576	1	7
657.745	1	16
657.915	1	11
658.084	1	14
658.254	1	9
658.423	1	11
658.593	1	13
658.762	1	2
658.932	1	7
659.101	1	7
659.271	1	10
659.440	1	10
659.610	1	1
659.779	1	8
659.949	1	5
660.118	1	2
660.288	1	0
660.457	1	8
660.626	1	4
660.796	1	11
660.965	1	8
661.135	1	17
661.304	1	11
661.474	1	7
661.643	1	12
661.813	1	-4
661.982	1	-2
662.152	1	12
662.321	1	6
662.491	1	-4
662.660	1	12
662.829	1	-1
662.999	1	16
663.168	1	11
663.338	1	4
663.507	1	4
663.677	1	1
663.846	1	1
664.016	1	-3
664.185	1	9
664.354	1	5
664.524	1	18
664.693	1	10
664.863	1	5
665.032	1	19
665.202	1	0
665.371	1	15
665.541	1	8
665.710	1	11
665.879	1	15
666.049	1	9
666.218	1	11
666.388	1	8
666.557	1	-1
666.727	1	4
666.896	1	15
667.065	1	7
667.235	1	3
667.404	1	9
667.574	1	5
667.743	1	-3
667.913	1	14
668.082	1	7
668.251	1	-2
668.421	1	12
668.590	1	-2
668.760	1	6
668.929	1	4
669.099	1	13
669.268	1	6
669.437	1	-3
669.607	1	0
669.776	1	7
669.946	1	15
670.115	1	6
670.285	1	9
670.454	1	13
670.623	1	9
670.793	1	8
670.962	1	-3
671.132	1	3
671.301	1	5
671.470	1	8
671.640	1	3
671.809	1	11
671.979	1	1
672.148	1	7
672.317	1	9
672.487	1	3
672.656	1	12
672.826	1	5
672.995	1	1
673.164	1	-2
673.334	1	3
673.503	1	13
673.673	1	15
673.842	1	4
674.011	1	22
674.181	1	9
674.350	1	7
674.520	1	11
674.689	1	4
674.858	1	3
675.028	1	15
675.197	1	4
675.367	1	23
675.536	1	-5
675.705	1	-3
675.875	1	10
676.044	1	0
676.214	1	6
676.383	1	7
676.552	1	4
676.722	1	-2
676.891	1	-2
677.060	1	15
677.230	1	11
677.399	1	18
677.569	1	18
677.738	1	6
677.907	1	17
678.077	1	3
678.246	1	1
678.416	1	-9
678.585	1	4
678.754	1	-1
678.924	1	0
679.093	1	16
679.262	1	16
679.432	1	5
679.601	1	7
679.771	1	13
679.940	1	-1
680.109	1	1
680.279	1	7
680.448	1	2
680.617	1	16
680.787	1	-3
680.956	1	12
681.125	1	6
681.295	1	6
681.464	1	4
681.634	1	9
681.803	1	8
681.972	1	14
682.142	1	10
682.311	1	10
682.480	1	7
682.650	1	3
682.819	1	0
682.988	1	8
683.158	1	2
683.327	1	13
683.496	1	1
683.666	1	11
683.835	1	11
684.004	1	-10
684.174	1	6
684.343	1	8
684.512	1	3
684.682	1	10
684.851	1	7
685.021	1	15
685.190	1	7
685.359	1	16
685.529	1	-4
685.698	1	2
685.867	1	14
686.037	1	10
686.206	1	-2
686.375	1	3
686.545	1	12
686.714	1	12
686.883	1	15
687.053	1	21
687.222	1	6
687.391	1	6
687.561	1	6
687.730	1	12
687.899	1	10
688.069	1	12
688.238	1	12
688.407	1	12
688.577	1	11
688.746	1	11
