340.368	1	5
340.539	1	8
340.710	1	4
340.881	1	7
341.052	1	-3
341.223	1	9
341.394	1	-7
341.565	1	13
341.737	1	11
341.908	1	2
342.079	1	4
342.250	1	7
342.421	1	1
342.592	1	12
342.763	1	-1
342.934	1	13
343.105	1	13
343.276	1	-2
343.447	1	6
343.618	1	17
343.789	1	3
343.960	1	12
344.131	1	-5
344.302	1	14
344.473	1	2
344.644	1	2
344.815	1	9
344.986	1	9
345.157	1	7
345.328	1	9
345.499	1	-1
345.670	1	0
345.841	1	2
346.012	1	1
346.183	1	1
346.354	1	2
346.526	1	9
346.697	1	8
346.868	1	8
347.039	1	11
347.210	1	1
347.381	1	17
347.552	1	11
347.723	1	11
347.894	1	1
348.065	1	6
348.236	1	5
348.407	1	12
348.578	1	13
348.749	1	5
348.920	1	4
349.091	1	3
349.262	1	3
349.433	1	1
349.604	1	2
349.775	1	6
349.946	1	-3
350.117	1	4
350.288	1	-5
350.459	1	5
350.630	1	-7
350.801	1	-2
350.972	1	8
351.143	1	7
351.314	1	7
351.485	1	5
351.656	1	11
351.827	1	21
351.998	1	2
352.169	1	12
352.340	1	4
352.511	1	-10
352.682	1	-4
352.853	1	0
353.024	1	13
353.195	1	-1
353.366	1	3
353.537	1	-9
353.708	1	14
353.879	1	17
354.050	1	4
354.221	1	-3
354.392	1	-11
354.563	1	14
354.734	1	5
354.905	1	9
355.076	1	13
355.247	1	3
355.418	1	6
355.589	1	11
355.760	1	9
355.931	1	17
356.102	1	3
356.273	1	7
356.444	1	9
356.615	1	9
356.785	1	12
356.956	1	12
357.127	1	3
357.298	1	-2
357.469	1	12
357.640	1	15
357.811	1	12
357.982	1	7
358.153	1	-1
358.324	1	16
358.495	1	9
358.666	1	5
358.837	1	14
359.008	1	7
359.179	1	8
359.350	1	3
359.521	1	13
359.692	1	-1
359.863	1	7
360.034	1	-6
360.205	1	19
360.376	1	6
360.547	1	12
360.718	1	11
360.889	1	15
361.060	1	20
361.231	1	14
361.401	1	10
361.572	1	3
361.743	1	6
361.914	1	15
362.085	1	10
362.256	1	20
362.427	1	12
362.598	1	22
362.769	1	13
362.940	1	22
363.111	1	13
363.282	1	8
363.453	1	16
363.624	1	19
363.795	1	13
363.966	1	18
364.137	1	17
364.308	1	14
364.478	1	24
364.649	1	22
364.820	1	26
364.991	1	23
365.162	1	42
365.333	1	22
365.504	1	17
365.675	1	41
365.846	1	18
366.017	1	29
366.188	1	38
366.359	1	18
366.530	1	18
366.701	1	26
366.871	1	30
367.042	1	38
367.213	1	40
367.384	1	25
367.555	1	42
367.726	1	33
367.897	1	46
368.068	1	49
368.239	1	41
368.410	1	38
368.581	1	45
368.752	1	54
368.923	1	35
369.093	1	43
369.264	1	40
369.435	1	41
369.606	1	28
369.777	1	43
369.948	1	41
370.119	1	40
370.290	1	37
370.461	1	31
370.632	1	44
370.803	1	35
370.973	1	24
371.144	1	29
371.315	1	31
371.486	1	37
371.657	1	43
371.828	1	33
371.999	1	28
372.170	1	26
372.341	1	30
372.512	1	19
372.682	1	28
372.853	1	37
373.024	1	23
373.195	1	28
373.366	1	26
373.537	1	14
373.708	1	20
373.879	1	24
374.050	1	33
374.220	1	20
374.391	1	26
374.562	1	31
374.733	1	12
374.904	1	22
375.075	1	6
375.246	1	18
375.417	1	13
375.588	1	18
375.758	1	19
375.929	1	18
376.100	1	14
376.271	1	12
376.442	1	17
376.613	1	8
376.784	1	16
376.955	1	18
377.125	1	0
377.296	1	13
377.467	1	16
377.638	1	9
377.809	1	7
377.980	1	13
378.151	1	21
378.321	1	14
378.492	1	3
378.663	1	25
378.834	1	23
379.005	1	11
379.176	1	9
379.347	1	11
379.518	1	5
379.688	1	19
379.859	1	7
380.030	1	27
380.201	1	18
380.372	1	16
380.543	1	5
380.714	1	20
380.884	1	17
381.055	1	5
381.226	1	10
381.397	1	8
381.568	1	6
381.739	1	9
381.910	1	17
382.080	1	12
382.251	1	5
382.422	1	15
382.593	1	15
382.764	1	8
382.935	1	9
383.105	1	6
383.276	1	10
383.447	1	8
383.618	1	3
383.789	1	5
383.960	1	5
384.130	1	9
384.301	1	0
384.472	1	4
384.643	1	1
384.814	1	11
384.985	1	3
385.156	1	14
385.326	1	-10
385.497	1	18
385.668	1	7
385.839	1	10
386.010	1	3
386.180	1	7
386.351	1	3
386.522	1	9
386.693	1	-5
386.864	1	8
387.035	1	8
387.205	1	14
387.376	1	4
387.547	1	9
387.718	1	9
387.889	1	7
388.060	1	3
388.230	1	7
388.401	1	15
388.572	1	4
388.743	1	-2
388.914	1	15
389.084	1	-1
389.255	1	12
389.426	1	-10
389.597	1	7
389.768	1	0
389.939	1	13
390.109	1	4
390.280	1	4
390.451	1	13
390.622	1	3
390.793	1	15
390.963	1	-2
391.134	1	15
391.305	1	4
391.476	1	5
391.647	1	3
391.817	1	4
391.988	1	10
392.159	1	5
392.330	1	7
392.501	1	10
392.671	1	6
392.842	1	0
393.013	1	13
393.184	1	-2
393.355	1	14
393.525	1	-3
393.696	1	5
393.867	1	0
394.038	1	7
394.208	1	16
394.379	1	8
394.550	1	8
394.721	1	11
394.892	1	13
395.062	1	3
395.233	1	13
395.404	1	4
395.575	1	7
395.746	1	3
395.916	1	4
396.087	1	12
396.258	1	8
396.429	1	12
396.599	1	8
396.770	1	0
396.941	1	6
397.112	1	0
397.283	1	11
397.453	1	1
397.624	1	0
397.795	1	1
397.966	1	8
398.136	1	10
398.307	1	12
398.478	1	2
398.649	1	1
398.819	1	0
398.990	1	18
399.161	1	14
399.332	1	12
399.503	1	13
399.673	1	12
399.844	1	-5
400.015	1	-2
400.186	1	14
400.356	1	5
400.527	1	9
400.698	1	8
400.869	1	14
401.039	1	1
401.210	1	14
401.381	1	5
401.552	1	5
401.722	1	14
401.893	1	-2
402.064	1	15
402.235	1	12
402.405	1	1
402.576	1	16
402.747	1	16
402.918	1	3
403.088	1	10
403.259	1	14
403.430	1	2
403.601	1	13
403.771	1	-3
403.942	1	19
404.113	1	12
404.284	1	17
404.454	1	1
404.625	1	6
404.796	1	7
404.967	1	9
405.137	1	15
405.308	1	-5
405.479	1	13
405.649	1	4
405.820	1	4
405.991	1	12
406.162	1	1
406.332	1	8
406.503	1	8
406.674	1	2
406.845	1	10
407.015	1	6
407.186	1	1
407.357	1	7
407.527	1	4
407.698	1	13
407.869	1	10
408.040	1	15
408.210	1	20
408.381	1	3
408.552	1	4
408.722	1	8
408.893	1	5
409.064	1	7
409.235	1	2
409.405	1	13
409.576	1	0
409.747	1	5
409.917	1	18
410.088	1	18
410.259	1	1
410.430	1	20
410.600	1	10
410.771	1	13
410.942	1	19
411.112	1	9
411.283	1	12
411.454	1	2
411.625	1	3
411.795	1	15
411.966	1	14
412.137	1	3
412.307	1	14
412.478	1	5
412.649	1	3
412.819	1	7
412.990	1	8
413.161	1	1
413.332	1	4
413.502	1	8
413.673	1	-2
413.844	1	22
414.014	1	1
414.185	1	8
414.356	1	13
414.526	1	7
414.697	1	7
414.868	1	7
415.038	1	11
415.209	1	6
415.380	1	9
415.550	1	10
415.721	1	16
415.892	1	13
416.063	1	10
416.233	1	10
416.404	1	13
416.575	1	-1
416.745	1	4
416.916	1	6
417.087	1	7
417.257	1	8
417.428	1	13
417.599	1	3
417.769	1	13
417.940	1	-10
418.111	1	15
418.281	1	12
418.452	1	7
418.623	1	3
418.793	1	3
418.964	1	20
419.135	1	6
419.305	1	11
419.476	1	25
419.647	1	12
419.817	1	5
419.988	1	32
420.159	1	11
420.329	1	9
420.500	1	2
420.671	1	18
420.841	1	6
421.012	1	13
421.183	1	10
421.353	1	20
421.524	1	11
421.695	1	21
421.865	1	9
422.036	1	11
422.206	1	0
422.377	1	11
422.548	1	15
422.718	1	12
422.889	1	12
423.060	1	17
423.230	1	12
423.401	1	3
423.572	1	5
423.742	1	15
423.913	1	5
424.084	1	15
424.254	1	3
424.425	1	16
424.595	1	19
424.766	1	8
424.937	1	22
425.107	1	8
425.278	1	3
425.449	1	10
425.619	1	5
425.790	1	9
425.961	1	20
426.131	1	6
426.302	1	12
426.472	1	21
426.643	1	9
426.814	1	7
426.984	1	3
427.155	1	5
427.326	1	12
427.496	1	5
427.667	1	2
427.837	1	3
428.008	1	13
428.179	1	14
428.349	1	16
428.520	1	7
428.691	1	9
428.861	1	5
429.032	1	10
429.202	1	9
429.373	1	13
429.544	1	13
429.714	1	11
429.885	1	15
430.055	1	12
430.226	1	-2
430.397	1	5
430.567	1	-4
430.738	1	14
430.909	1	-1
431.079	1	10
431.250	1	11
431.420	1	13
431.591	1	3
431.762	1	0
431.932	1	6
432.103	1	18
432.273	1	10
432.444	1	7
432.615	1	-5
432.785	1	5
432.956	1	11
433.126	1	12
433.297	1	8
433.468	1	15
433.638	1	10
433.809	1	4
433.979	1	11
434.150	1	8
434.320	1	9
434.491	1	15
434.662	1	13
434.832	1	5
435.003	1	13
435.173	1	10
435.344	1	-7
435.515	1	10
435.685	1	2
435.856	1	4
436.026	1	5
436.197	1	2
436.368	1	7
436.538	1	-2
436.709	1	2
436.879	1	7
437.050	1	6
437.220	1	12
437.391	1	0
437.562	1	12
437.732	1	10
437.903	1	9
438.073	1	1
438.244	1	16
438.414	1	20
438.585	1	13
438.756	1	9
438.926	1	8
439.097	1	4
439.267	1	6
439.438	1	2
439.608	1	0
439.779	1	9
439.949	1	17
440.120	1	1
440.291	1	15
440.461	1	5
440.632	1	-2
440.802	1	8
440.973	1	5
441.143	1	14
441.314	1	-1
441.485	1	0
441.655	1	18
441.826	1	12
441.996	1	4
442.167	1	12
442.337	1	5
442.508	1	12
442.678	1	14
442.849	1	4
443.019	1	11
443.190	1	12
443.361	1	5
443.531	1	9
443.702	1	6
443.872	1	3
444.043	1	6
444.213	1	-4
444.384	1	13
444.554	1	3
444.725	1	17
444.895	1	-2
445.066	1	9
445.237	1	12
445.407	1	8
445.578	1	-2
445.748	1	16
445.919	1	3
446.089	1	12
446.260	1	13
446.430	1	9
446.601	1	5
446.771	1	-2
446.942	1	6
447.112	1	9
447.283	1	11
447.453	1	3
447.624	1	-4
447.794	1	1
447.965	1	15
448.135	1	3
448.306	1	9
448.477	1	4
448.647	1	10
448.818	1	8
448.988	1	7
449.159	1	-3
449.329	1	12
449.500	1	7
449.670	1	6
449.841	1	2
450.011	1	12
450.182	1	-3
450.352	1	6
450.523	1	5
450.693	1	10
450.864	1	2
451.034	1	8
451.205	1	8
451.375	1	3
451.546	1	6
451.716	1	4
451.887	1	15
452.057	1	2
452.228	1	5
452.398	1	9
452.569	1	-9
452.739	1	8
452.910	1	2
453.080	1	7
453.251	1	5
453.421	1	11
453.592	1	5
453.762	1	10
453.933	1	7
454.103	1	-1
454.274	1	0
454.444	1	6
454.615	1	8
454.785	1	10
454.956	1	15
455.126	1	6
455.297	1	1
455.467	1	13
455.638	1	2
455.808	1	-2
455.979	1	-1
456.149	1	-8
456.320	1	13
456.490	1	14
456.661	1	-3
456.831	1	1
457.001	1	9
457.172	1	1
457.342	1	4
457.513	1	5
457.683	1	10
457.854	1	6
458.024	1	8
458.195	1	8
458.365	1	4
458.536	1	12
458.706	1	8
458.877	1	8
459.047	1	-5
459.218	1	7
459.388	1	5
459.559	1	5
459.729	1	-5
459.899	1	2
460.070	1	18
460.240	1	-14
460.411	1	16
460.581	1	4
460.752	1	-3
460.922	1	1
461.093	1	16
461.263	1	16
461.434	1	-11
461.604	1	7
461.775	1	15
461.945	1	6
462.115	1	1
462.286	1	8
462.456	1	-3
462.627	1	7
462.797	1	-1
462.968	1	12
463.138	1	-2
463.309	1	11
463.479	1	8
463.649	1	-6
463.820	1	4
463.990	1	12
464.161	1	-1
464.331	1	12
464.502	1	10
464.672	1	7
464.843	1	14
465.013	1	14
465.183	1	-1
465.354	1	12
465.524	1	11
465.695	1	10
465.865	1	9
466.036	1	12
466.206	1	-2
466.376	1	12
466.547	1	5
466.717	1	0
466.888	1	4
467.058	1	4
467.229	1	10
467.399	1	-2
467.569	1	6
467.740	1	10
467.910	1	10
468.081	1	12
468.251	1	-1
468.422	1	4
468.592	1	5
468.762	1	8
468.933	1	11
469.103	1	-1
469.274	1	10
469.444	1	9
469.614	1	4
469.785	1	-2
469.955	1	4
470.126	1	10
470.296	1	5
470.467	1	4
470.637	1	0
470.807	1	1
470.978	1	-3
471.148	1	3
471.319	1	4
471.489	1	12
471.659	1	-4
471.830	1	7
472.000	1	-1
472.171	1	12
472.341	1	13
472.511	1	10
472.682	1	12
472.852	1	14
473.023	1	5
473.193	1	10
473.363	1	5
473.534	1	7
473.704	1	4
473.875	1	5
474.045	1	-2
474.215	1	6
474.386	1	1
474.556	1	-4
474.727	1	2
474.897	1	-5
475.067	1	12
475.238	1	9
475.408	1	11
475.578	1	5
475.749	1	1
475.919	1	3
476.090	1	10
476.260	1	4
476.430	1	-7
476.601	1	2
476.771	1	5
476.942	1	1
477.112	1	8
477.282	1	1
477.453	1	9
477.623	1	-2
477.793	1	-3
477.964	1	9
478.134	1	6
478.305	1	8
478.475	1	6
478.645	1	2
478.816	1	2
478.986	1	3
479.156	1	6
479.327	1	5
479.497	1	1
479.667	1	1
479.838	1	8
480.008	1	13
480.179	1	9
480.349	1	-5
480.519	1	3
480.690	1	5
480.860	1	0
481.030	1	2
481.201	1	1
481.371	1	-3
481.541	1	-10
481.712	1	13
481.882	1	1
482.053	1	17
482.223	1	9
482.393	1	6
482.564	1	2
482.734	1	3
482.904	1	-2
483.075	1	5
483.245	1	6
483.415	1	9
483.586	1	3
483.756	1	12
483.926	1	6
484.097	1	15
484.267	1	4
484.437	1	9
484.608	1	-9
484.778	1	-2
484.948	1	8
485.119	1	3
485.289	1	6
485.459	1	-1
485.630	1	13
485.800	1	7
485.970	1	5
486.141	1	10
486.311	1	11
486.481	1	-9
486.652	1	-1
486.822	1	13
486.992	1	15
487.163	1	0
487.333	1	-4
487.503	1	4
487.674	1	-5
487.844	1	-5
488.014	1	11
488.185	1	5
488.355	1	8
488.525	1	-1
488.696	1	9
488.866	1	-1
489.036	1	3
489.207	1	10
489.377	1	9
489.547	1	1
489.718	1	-8
489.888	1	9
490.058	1	7
490.228	1	2
490.399	1	14
490.569	1	0
490.739	1	-5
490.910	1	6
491.080	1	5
491.250	1	7
491.421	1	-3
491.591	1	3
491.761	1	3
491.932	1	10
492.102	1	4
492.272	1	-7
492.442	1	10
492.613	1	11
492.783	1	4
492.953	1	-2
493.124	1	12
493.294	1	-10
493.464	1	0
493.635	1	7
493.805	1	12
493.975	1	17
494.145	1	-2
494.316	1	10
494.486	1	6
494.656	1	16
494.827	1	2
494.997	1	-6
495.167	1	6
495.337	1	10
495.508	1	3
495.678	1	4
495.848	1	10
496.019	1	4
496.189	1	3
496.359	1	-1
496.529	1	1
496.700	1	2
496.870	1	8
497.040	1	-2
497.211	1	4
497.381	1	4
497.551	1	4
497.721	1	-8
497.892	1	6
498.062	1	-8
498.232	1	7
498.403	1	6
498.573	1	11
498.743	1	7
498.913	1	7
499.084	1	8
499.254	1	4
499.424	1	4
499.594	1	5
499.765	1	10
499.935	1	15
500.105	1	8
500.275	1	5
500.446	1	2
500.616	1	-6
500.786	1	8
500.956	1	10
501.127	1	6
501.297	1	12
501.467	1	13
501.638	1	9
501.808	1	4
501.978	1	6
502.148	1	-2
502.319	1	14
502.489	1	0
502.659	1	19
502.829	1	5
503.000	1	14
503.170	1	11
503.340	1	4
503.510	1	6
503.681	1	-4
503.851	1	7
504.021	1	14
504.191	1	6
504.362	1	2
504.532	1	17
504.702	1	-4
504.872	1	4
505.042	1	11
505.213	1	2
505.383	1	12
505.553	1	0
505.723	1	11
505.894	1	9
506.064	1	-5
506.234	1	14
506.404	1	8
506.575	1	15
506.745	1	4
506.915	1	13
507.085	1	5
507.256	1	11
507.426	1	10
507.596	1	23
507.766	1	9
507.936	1	9
508.107	1	-2
508.277	1	10
508.447	1	12
508.617	1	10
508.788	1	18
508.958	1	9
509.128	1	5
509.298	1	3
509.468	1	5
509.639	1	6
509.809	1	10
509.979	1	7
510.149	1	5
510.319	1	17
510.490	1	5
510.660	1	8
510.830	1	0
511.000	1	2
511.171	1	9
511.341	1	15
511.511	1	-2
511.681	1	5
511.851	1	22
512.022	1	-2
512.192	1	17
512.362	1	12
512.532	1	28
512.702	1	8
512.873	1	10
513.043	1	13
513.213	1	14
513.383	1	7
513.553	1	12
513.724	1	19
513.894	1	3
514.064	1	15
514.234	1	1
514.404	1	19
514.575	1	3
514.745	1	-3
514.915	1	6
515.085	1	14
515.255	1	-3
515.425	1	7
515.596	1	11
515.766	1	12
515.936	1	3
516.106	1	1
516.276	1	5
516.447	1	16
516.617	1	12
516.787	1	10
516.957	1	12
517.127	1	12
517.297	1	7
517.468	1	23
517.638	1	18
517.808	1	8
517.978	1	-1
518.148	1	16
518.319	1	4
518.489	1	4
518.659	1	18
518.829	1	19
518.999	1	15
519.169	1	5
519.340	1	11
519.510	1	-2
519.680	1	23
519.850	1	23
520.020	1	8
520.190	1	3
520.361	1	2
520.531	1	10
520.701	1	8
520.871	1	12
521.041	1	16
521.211	1	7
521.382	1	9
521.552	1	17
521.722	1	15
521.892	1	20
522.062	1	13
522.232	1	11
522.402	1	12
522.573	1	7
522.743	1	18
522.913	1	20
523.083	1	10
523.253	1	17
523.423	1	14
523.593	1	12
523.764	1	9
523.934	1	14
524.104	1	7
524.274	1	6
524.444	1	9
524.614	1	19
524.784	1	-1
524.955	1	3
525.125	1	13
525.295	1	14
525.465	1	16
525.635	1	11
525.805	1	20
525.975	1	8
526.146	1	11
526.316	1	8
526.486	1	13
526.656	1	6
526.826	1	2
526.996	1	9
527.166	1	1
527.337	1	10
527.507	1	17
527.677	1	14
527.847	1	-1
528.017	1	4
528.187	1	14
528.357	1	18
528.527	1	14
528.698	1	16
528.868	1	7
529.038	1	4
529.208	1	8
529.378	1	7
529.548	1	22
529.718	1	5
529.888	1	14
530.058	1	13
530.229	1	17
530.399	1	14
530.569	1	11
530.739	1	19
530.909	1	9
531.079	1	0
531.249	1	12
531.419	1	7
531.589	1	9
531.760	1	16
531.930	1	8
532.100	1	16
532.270	1	15
532.440	1	15
532.610	1	16
532.780	1	14
532.950	1	21
533.120	1	14
533.290	1	6
533.461	1	10
533.631	1	14
533.801	1	7
533.971	1	7
534.141	1	15
534.311	1	8
534.481	1	19
534.651	1	2
534.821	1	3
534.991	1	7
535.162	1	8
535.332	1	9
535.502	1	10
535.672	1	16
535.842	1	5
536.012	1	8
536.182	1	9
536.352	1	14
536.522	1	6
536.692	1	10
536.862	1	2
537.032	1	8
537.203	1	6
537.373	1	14
537.543	1	16
537.713	1	9
537.883	1	12
538.053	1	1
538.223	1	25
538.393	1	9
538.563	1	12
538.733	1	14
538.903	1	4
539.073	1	-5
539.243	1	5
539.413	1	0
539.584	1	6
539.754	1	11
539.924	1	8
540.094	1	13
540.264	1	12
540.434	1	8
540.604	1	15
540.774	1	8
540.944	1	10
541.114	1	9
541.284	1	11
541.454	1	11
541.624	1	12
541.794	1	3
541.964	1	17
542.134	1	14
542.305	1	20
542.475	1	11
542.645	1	6
542.815	1	10
542.985	1	11
543.155	1	0
543.325	1	18
543.495	1	15
543.665	1	8
543.835	1	0
544.005	1	10
544.175	1	5
544.345	1	21
544.515	1	8
544.685	1	4
544.855	1	0
545.025	1	14
545.195	1	3
545.365	1	8
545.535	1	6
545.705	1	3
545.875	1	2
546.045	1	13
546.216	1	10
546.386	1	11
546.556	1	12
546.726	1	5
546.896	1	7
547.066	1	7
547.236	1	3
547.406	1	10
547.576	1	-2
547.746	1	0
547.916	1	9
548.086	1	14
548.256	1	9
548.426	1	11
548.596	1	12
548.766	1	9
548.936	1	12
549.106	1	4
549.276	1	19
549.446	1	16
549.616	1	12
549.786	1	11
549.956	1	7
550.126	1	12
550.296	1	14
550.466	1	7
550.636	1	0
550.806	1	17
550.976	1	2
551.146	1	5
551.316	1	5
551.486	1	6
551.656	1	11
551.826	1	-3
551.996	1	1
552.166	1	3
552.336	1	7
552.506	1	11
552.676	1	12
552.846	1	10
553.016	1	13
553.186	1	8
553.356	1	3
553.526	1	11
553.696	1	-3
553.866	1	-1
554.036	1	18
554.206	1	11
554.376	1	13
554.546	1	17
554.716	1	1
554.886	1	10
555.056	1	5
555.226	1	11
555.396	1	18
555.566	1	5
555.736	1	10
555.906	1	-1
556.076	1	3
556.246	1	9
556.416	1	19
556.586	1	-1
556.756	1	8
556.926	1	8
557.096	1	16
557.266	1	17
557.436	1	2
557.606	1	0
557.776	1	10
557.946	1	14
558.116	1	9
558.286	1	-3
558.456	1	3
558.626	1	4
558.796	1	10
558.966	1	8
559.136	1	17
559.306	1	15
559.476	1	0
559.646	1	5
559.816	1	0
559.986	1	10
560.155	1	7
560.325	1	16
560.495	1	8
560.665	1	10
560.835	1	4
561.005	1	3
561.175	1	3
561.345	1	-3
561.515	1	7
561.685	1	7
561.855	1	7
562.025	1	4
562.195	1	2
562.365	1	12
562.535	1	5
562.705	1	14
562.875	1	9
563.045	1	2
563.215	1	3
563.385	1	4
563.555	1	8
563.725	1	4
563.895	1	11
564.064	1	7
564.234	1	0
564.404	1	2
564.574	1	3
564.744	1	7
564.914	1	12
565.084	1	13
565.254	1	20
565.424	1	-2
565.594	1	7
565.764	1	8
565.934	1	31
566.104	1	17
566.274	1	6
566.444	1	10
566.614	1	12
566.783	1	11
566.953	1	15
567.123	1	-3
567.293	1	-1
567.463	1	6
567.633	1	7
567.803	1	18
567.973	1	8
568.143	1	8
568.313	1	3
568.483	1	13
568.653	1	-2
568.823	1	2
568.993	1	9
569.162	1	-5
569.332	1	-2
569.502	1	11
569.672	1	11
569.842	1	9
570.012	1	-14
570.182	1	13
570.352	1	18
570.522	1	-3
570.692	1	7
570.862	1	-8
571.031	1	11
571.201	1	13
571.371	1	1
571.541	1	15
571.711	1	9
571.881	1	-8
572.051	1	19
572.221	1	6
572.391	1	11
572.561	1	13
572.731	1	4
572.900	1	10
573.070	1	11
573.240	1	8
573.410	1	9
573.580	1	11
573.750	1	0
573.920	1	21
574.090	1	4
574.260	1	8
574.430	1	5
574.599	1	7
574.769	1	20
574.939	1	2
575.109	1	7
575.279	1	6
575.449	1	-1
575.619	1	4
575.789	1	-3
575.959	1	8
576.128	1	1
576.298	1	-1
576.468	1	8
576.638	1	18
576.808	1	0
576.978	1	8
577.148	1	-7
577.318	1	5
577.487	1	-1
577.657	1	5
577.827	1	4
577.997	1	13
578.167	1	15
578.337	1	6
578.507	1	7
578.677	1	-4
578.846	1	-2
579.016	1	4
579.186	1	14
579.356	1	9
579.526	1	-4
579.696	1	0
579.866	1	-3
580.036	1	4
580.205	1	11
580.375	1	7
580.545	1	8
580.715	1	10
580.885	1	12
581.055	1	12
581.225	1	14
581.394	1	-2
581.564	1	1
581.734	1	5
581.904	1	16
582.074	1	4
582.244	1	6
582.414	1	3
582.583	1	5
582.753	1	0
582.923	1	-1
583.093	1	6
583.263	1	3
583.433	1	14
583.603	1	5
583.772	1	8
583.942	1	-9
584.112	1	9
584.282	1	3
584.452	1	12
584.622	1	6
584.791	1	10
584.961	1	-11
585.131	1	12
585.301	1	7
585.471	1	4
585.641	1	11
585.811	1	16
585.980	1	2
586.150	1	3
586.320	1	1
586.490	1	1
586.660	1	5
586.830	1	7
586.999	1	5
587.169	1	3
587.339	1	0
587.509	1	4
587.679	1	1
587.849	1	10
588.018	1	-1
588.188	1	7
588.358	1	19
588.528	1	2
588.698	1	1
588.867	1	9
589.037	1	-2
589.207	1	9
589.377	1	8
589.547	1	10
589.717	1	6
589.886	1	1
590.056	1	8
590.226	1	-1
590.396	1	2
590.566	1	2
590.735	1	9
590.905	1	4
591.075	1	5
591.245	1	-5
591.415	1	9
591.585	1	-6
591.754	1	4
591.924	1	2
592.094	1	10
592.264	1	-1
592.434	1	3
592.603	1	-7
592.773	1	6
592.943	1	4
593.113	1	6
593.283	1	6
593.452	1	11
593.622	1	-1
593.792	1	5
593.962	1	6
594.132	1	6
594.301	1	5
594.471	1	-2
594.641	1	10
594.811	1	-5
594.981	1	-3
595.150	1	3
595.320	1	6
595.490	1	-4
595.660	1	3
595.829	1	-2
595.999	1	-3
596.169	1	6
596.339	1	10
596.509	1	12
596.678	1	-4
596.848	1	14
597.018	1	3
597.188	1	3
597.358	1	9
597.527	1	8
597.697	1	-5
597.867	1	-3
598.037	1	0
598.206	1	13
598.376	1	1
598.546	1	-3
598.716	1	4
598.885	1	8
599.055	1	10
599.225	1	5
599.395	1	8
599.565	1	4
599.734	1	4
599.904	1	-5
600.074	1	-4
600.244	1	10
600.413	1	4
600.583	1	0
600.753	1	13
600.923	1	15
601.092	1	0
601.262	1	-3
601.432	1	0
601.602	1	8
601.771	1	11
601.941	1	1
602.111	1	7
602.281	1	7
602.451	1	1
602.620	1	4
602.790	1	-2
602.960	1	-8
603.130	1	7
603.299	1	6
603.469	1	6
603.639	1	7
603.809	1	5
603.978	1	9
604.148	1	-7
604.318	1	10
604.487	1	-2
604.657	1	5
604.827	1	11
604.997	1	7
605.166	1	10
605.336	1	13
605.506	1	0
605.676	1	-6
605.845	1	7
606.015	1	1
606.185	1	11
606.355	1	-12
606.524	1	-1
606.694	1	10
606.864	1	5
607.034	1	6
607.203	1	9
607.373	1	-2
607.543	1	6
607.712	1	5
607.882	1	7
608.052	1	-2
608.222	1	5
608.391	1	3
608.561	1	3
608.731	1	-12
608.901	1	7
609.070	1	5
609.240	1	5
609.410	1	3
609.579	1	5
609.749	1	13
609.919	1	-14
610.089	1	8
610.258	1	9
610.428	1	7
610.598	1	-4
610.767	1	7
610.937	1	2
611.107	1	17
611.277	1	8
611.446	1	6
611.616	1	17
611.786	1	-6
611.955	1	0
612.125	1	3
612.295	1	12
612.465	1	5
612.634	1	2
612.804	1	-2
612.974	1	-2
613.143	1	-2
613.313	1	9
613.483	1	1
613.652	1	7
613.822	1	7
613.992	1	9
614.162	1	13
614.331	1	10
614.501	1	-3
614.671	1	0
614.840	1	10
615.010	1	9
615.180	1	3
615.349	1	0
615.519	1	4
615.689	1	4
615.858	1	2
616.028	1	15
616.198	1	15
616.368	1	11
616.537	1	2
616.707	1	5
616.877	1	1
617.046	1	4
617.216	1	7
617.386	1	8
617.555	1	9
617.725	1	5
617.895	1	12
618.064	1	1
618.234	1	2
618.404	1	1
618.573	1	17
618.743	1	1
618.913	1	-1
619.082	1	16
619.252	1	1
619.422	1	9
619.591	1	2
619.761	1	0
619.931	1	15
620.100	1	13
620.270	1	2
620.440	1	2
620.609	1	-1
620.779	1	8
620.949	1	12
621.118	1	9
621.288	1	5
621.458	1	-2
621.627	1	0
621.797	1	1
621.967	1	9
622.136	1	2
622.306	1	2
622.476	1	0
622.645	1	11
622.815	1	13
622.985	1	6
623.154	1	-12
623.324	1	7
623.494	1	-8
623.663	1	8
623.833	1	-1
624.002	1	16
624.172	1	6
624.342	1	10
624.511	1	0
624.681	1	8
624.851	1	3
625.020	1	7
625.190	1	1
625.360	1	3
625.529	1	2
625.699	1	11
625.869	1	17
626.038	1	11
626.208	1	3
626.377	1	11
626.547	1	-1
626.717	1	-2
626.886	1	8
627.056	1	6
627.226	1	6
627.395	1	-1
627.565	1	5
627.735	1	10
627.904	1	2
628.074	1	10
628.243	1	12
628.413	1	12
628.583	1	0
628.752	1	-3
628.922	1	2
629.091	1	0
629.261	1	5
629.431	1	7
629.600	1	3
629.770	1	8
629.940	1	10
630.109	1	3
630.279	1	11
630.448	1	-1
630.618	1	10
630.788	1	5
630.957	1	7
631.127	1	2
631.297	1	7
631.466	1	1
631.636	1	11
631.805	1	10
631.975	1	4
632.145	1	7
632.314	1	-3
632.484	1	8
632.653	1	4
632.823	1	-2
632.993	1	5
633.162	1	-2
633.332	1	6
633.501	1	-13
633.671	1	9
633.841	1	4
634.010	1	-7
634.180	1	7
634.349	1	19
634.519	1	4
634.689	1	2
634.858	1	10
635.028	1	9
635.197	1	5
635.367	1	-1
635.537	1	10
635.706	1	6
635.876	1	12
636.045	1	-3
636.215	1	-1
636.384	1	13
636.554	1	1
636.724	1	11
636.893	1	11
637.063	1	7
637.232	1	2
637.402	1	2
637.572	1	5
637.741	1	1
637.911	1	12
638.080	1	-3
638.250	1	-7
638.419	1	-1
638.589	1	11
638.759	1	13
638.928	1	8
639.098	1	1
639.267	1	18
639.437	1	-4
639.606	1	9
639.776	1	5
639.946	1	6
640.115	1	3
640.285	1	-7
640.454	1	3
640.624	1	11
640.793	1	2
640.963	1	0
641.132	1	12
641.302	1	8
641.472	1	11
641.641	1	-8
641.811	1	8
641.980	1	4
642.150	1	-4
642.319	1	16
642.489	1	9
642.659	1	7
642.828	1	18
642.998	1	2
643.167	1	11
643.337	1	-3
643.506	1	-2
643.676	1	15
643.845	1	12
644.015	1	1
644.184	1	12
644.354	1	10
644.524	1	2
644.693	1	4
644.863	1	4
645.032	1	-2
645.202	1	-3
645.371	1	3
645.541	1	8
645.710	1	9
645.880	1	10
646.049	1	6
646.219	1	2
646.388	1	-5
646.558	1	-10
646.728	1	8
646.897	1	-8
647.067	1	18
647.236	1	-1
647.406	1	7
647.575	1	8
647.745	1	-2
647.914	1	12
648.084	1	-1
648.253	1	11
648.423	1	6
648.592	1	7
648.762	1	3
648.931	1	10
649.101	1	5
649.270	1	18
649.440	1	2
649.610	1	9
649.779	1	-3
649.949	1	-15
650.118	1	1
650.288	1	3
650.457	1	10
650.627	1	-3
650.796	1	10
650.966	1	3
651.135	1	7
651.305	1	-1
651.474	1	5
651.644	1	7
651.813	1	9
651.983	1	-4
652.152	1	8
652.322	1	0
652.491	1	4
652.661	1	5
652.830	1	10
653.000	1	10
653.169	1	2
653.339	1	4
653.508	1	9
653.678	1	5
653.847	1	12
654.017	1	7
654.186	1	1
654.356	1	8
654.525	1	4
654.695	1	22
654.864	1	5
655.034	1	1
655.203	1	0
655.373	1	6
655.542	1	3
655.712	1	11
655.881	1	2
656.051	1	7
656.220	1	6
656.390	1	7
656.559	1	17
656.729	1	3
656.898	1	8
657.068	1	-1
657.237	1	1
657.406	1	1
657.576	1	3
657.745	1	8
657.915	1	12
658.084	1	7
658.254	1	9
658.423	1	8
658.593	1	13
658.762	1	0
658.932	1	12
659.101	1	1
659.271	1	-1
659.440	1	10
659.610	1	11
659.779	1	8
659.949	1	5
660.118	1	2
660.288	1	-3
660.457	1	2
660.626	1	10
660.796	1	2
660.965	1	0
661.135	1	12
661.304	1	10
661.474	1	9
661.643	1	5
661.813	1	1
661.982	1	-7
662.152	1	-3
662.321	1	0
662.491	1	-6
662.660	1	9
662.829	1	4
662.999	1	7
663.168	1	4
663.338	1	3
663.507	1	4
663.677	1	-1
663.846	1	-4
664.016	1	-10
664.185	1	1
664.354	1	6
664.524	1	9
664.693	1	6
664.863	1	-1
665.032	1	10
665.202	1	1
665.371	1	11
665.541	1	-5
665.710	1	6
665.879	1	4
666.049	1	15
666.218	1	5
666.388	1	4
666.557	1	3
666.727	1	4
666.896	1	5
667.065	1	0
667.235	1	4
667.404	1	9
667.574	1	1
667.743	1	-2
667.913	1	8
668.082	1	3
668.251	1	-1
668.421	1	8
668.590	1	5
668.760	1	-2
668.929	1	3
669.099	1	3
669.268	1	6
669.437	1	0
669.607	1	-10
669.776	1	2
669.946	1	5
670.115	1	2
670.285	1	10
670.454	1	5
670.623	1	2
670.793	1	-2
670.962	1	-2
671.132	1	6
671.301	1	4
671.470	1	-5
671.640	1	7
671.809	1	12
671.979	1	6
672.148	1	5
672.317	1	13
672.487	1	-1
672.656	1	5
672.826	1	5
672.995	1	5
673.164	1	-2
673.334	1	-6
673.503	1	11
673.673	1	17
673.842	1	4
674.011	1	2
674.181	1	4
674.350	1	2
674.520	1	4
674.689	1	4
674.858	1	3
675.028	1	5
675.197	1	3
675.367	1	6
675.536	1	4
675.705	1	-3
675.875	1	7
676.044	1	2
676.214	1	9
676.383	1	12
676.552	1	-3
676.722	1	0
676.891	1	0
677.060	1	4
677.230	1	9
677.399	1	14
677.569	1	16
677.738	1	-2
677.907	1	17
678.077	1	1
678.246	1	3
678.416	1	1
678.585	1	-7
678.754	1	2
678.924	1	5
679.093	1	16
679.262	1	5
679.432	1	-5
679.601	1	0
679.771	1	0
679.940	1	-4
680.109	1	9
680.279	1	2
680.448	1	-10
680.617	1	5
680.787	1	-8
680.956	1	3
681.125	1	-4
681.295	1	-1
681.464	1	12
681.634	1	6
681.803	1	-8
681.972	1	9
682.142	1	13
682.311	1	13
682.480	1	-4
682.650	1	13
682.819	1	0
682.988	1	3
683.158	1	-2
683.327	1	7
683.496	1	4
683.666	1	4
683.835	1	8
684.004	1	-3
684.174	1	7
684.343	1	0
684.512	1	-4
684.682	1	8
684.851	1	-3
685.021	1	11
685.190	1	2
685.359	1	8
685.529	1	-5
685.698	1	-4
685.867	1	-4
686.037	1	5
686.206	1	-9
686.375	1	-1
686.545	1	1
686.714	1	5
686.883	1	20
687.053	1	22
687.222	1	-2
687.391	1	-5
687.561	1	2
687.730	1	12
687.899	1	6
688.069	1	10
688.238	1	14
688.407	1	-1
688.577	1	4
688.746	1	1
