340.368	1	7
340.539	1	-1
340.710	1	6
340.881	1	2
341.052	1	4
341.223	1	13
341.394	1	-8
341.565	1	7
341.737	1	-1
341.908	1	10
342.079	1	-2
342.250	1	6
342.421	1	3
342.592	1	9
342.763	1	8
342.934	1	16
343.105	1	4
343.276	1	-1
343.447	1	6
343.618	1	12
343.789	1	5
343.960	1	-1
344.131	1	-8
344.302	1	10
344.473	1	4
344.644	1	5
344.815	1	0
344.986	1	0
345.157	1	5
345.328	1	-1
345.499	1	8
345.670	1	-2
345.841	1	-2
346.012	1	4
346.183	1	5
346.354	1	-4
346.526	1	9
346.697	1	3
346.868	1	3
347.039	1	10
347.210	1	0
347.381	1	15
347.552	1	12
347.723	1	15
347.894	1	1
348.065	1	9
348.236	1	0
348.407	1	10
348.578	1	9
348.749	1	10
348.920	1	-2
349.091	1	14
349.262	1	9
349.433	1	-3
349.604	1	-1
349.775	1	-2
349.946	1	1
350.117	1	10
350.288	1	-1
350.459	1	1
350.630	1	4
350.801	1	-13
350.972	1	13
351.143	1	6
351.314	1	-10
351.485	1	7
351.656	1	9
351.827	1	8
351.998	1	1
352.169	1	5
352.340	1	3
352.511	1	5
352.682	1	-13
352.853	1	-2
353.024	1	14
353.195	1	-6
353.366	1	8
353.537	1	7
353.708	1	5
353.879	1	9
354.050	1	1
354.221	1	-7
354.392	1	-6
354.563	1	8
354.734	1	0
354.905	1	0
355.076	1	14
355.247	1	3
355.418	1	-1
355.589	1	10
355.760	1	7
355.931	1	5
356.102	1	7
356.273	1	10
356.444	1	13
356.615	1	-6
356.785	1	10
356.956	1	-2
357.127	1	12
357.298	1	-6
357.469	1	7
357.640	1	3
357.811	1	-7
357.982	1	7
358.153	1	-9
358.324	1	-6
358.495	1	3
358.666	1	5
358.837	1	9
359.008	1	-11
359.179	1	2
359.350	1	2
359.521	1	10
359.692	1	2
359.863	1	2
360.034	1	-6
360.205	1	14
360.376	1	-1
360.547	1	7
360.718	1	-1
360.889	1	1
361.060	1	6
361.231	1	6
361.401	1	5
361.572	1	10
361.743	1	1
361.914	1	16
362.085	1	6
362.256	1	-1
362.427	1	0
362.598	1	15
362.769	1	3
362.940	1	11
363.111	1	1
363.282	1	1
363.453	1	7
363.624	1	6
363.795	1	10
363.966	1	5
364.137	1	1
364.308	1	18
364.478	1	8
364.649	1	6
364.820	1	15
364.991	1	9
365.162	1	11
365.333	1	12
365.504	1	3
365.675	1	13
365.846	1	-6
366.017	1	19
366.188	1	9
366.359	1	13
366.530	1	16
366.701	1	14
366.871	1	9
367.042	1	8
367.213	1	14
367.384	1	0
367.555	1	11
367.726	1	15
367.897	1	14
368.068	1	24
368.239	1	25
368.410	1	14
368.581	1	10
368.752	1	19
368.923	1	9
369.093	1	17
369.264	1	6
369.435	1	19
369.606	1	7
369.777	1	21
369.948	1	11
370.119	1	8
370.290	1	12
370.461	1	7
370.632	1	10
370.803	1	9
370.973	1	8
371.144	1	14
371.315	1	13
371.486	1	14
371.657	1	19
371.828	1	9
371.999	1	7
372.170	1	7
372.341	1	15
372.512	1	7
372.682	1	17
372.853	1	20
373.024	1	12
373.195	1	6
373.366	1	14
373.537	1	-2
373.708	1	9
373.879	1	5
374.050	1	7
374.220	1	15
374.391	1	0
374.562	1	9
374.733	1	11
374.904	1	8
375.075	1	4
375.246	1	6
375.417	1	0
375.588	1	8
375.758	1	12
375.929	1	15
376.100	1	5
376.271	1	7
376.442	1	-4
376.613	1	5
376.784	1	1
376.955	1	7
377.125	1	-3
377.296	1	5
377.467	1	6
377.638	1	6
377.809	1	1
377.980	1	12
378.151	1	3
378.321	1	7
378.492	1	-2
378.663	1	-2
378.834	1	11
379.005	1	7
379.176	1	0
379.347	1	6
379.518	1	-7
379.688	1	9
379.859	1	-1
380.030	1	13
380.201	1	2
380.372	1	2
380.543	1	0
380.714	1	11
380.884	1	8
381.055	1	-4
381.226	1	-4
381.397	1	5
381.568	1	5
381.739	1	1
381.910	1	10
382.080	1	11
382.251	1	-3
382.422	1	10
382.593	1	0
382.764	1	2
382.935	1	-3
383.105	1	7
383.276	1	-1
383.447	1	2
383.618	1	3
383.789	1	-2
383.960	1	4
384.130	1	5
384.301	1	-4
384.472	1	2
384.643	1	4
384.814	1	10
384.985	1	0
385.156	1	3
385.326	1	-7
385.497	1	9
385.668	1	6
385.839	1	4
386.010	1	-4
386.180	1	-3
386.351	1	0
386.522	1	0
386.693	1	-1
386.864	1	4
387.035	1	11
387.205	1	8
387.376	1	-6
387.547	1	7
387.718	1	-8
387.889	1	2
388.060	1	3
388.230	1	7
388.401	1	2
388.572	1	-2
388.743	1	-2
388.914	1	10
389.084	1	10
389.255	1	5
389.426	1	-2
389.597	1	5
389.768	1	1
389.939	1	16
390.109	1	4
390.280	1	1
390.451	1	4
390.622	1	-9
390.793	1	3
390.963	1	-12
391.134	1	16
391.305	1	3
391.476	1	15
391.647	1	2
391.817	1	-6
391.988	1	1
392.159	1	-5
392.330	1	1
392.501	1	-1
392.671	1	8
392.842	1	-6
393.013	1	8
393.184	1	-2
393.355	1	5
393.525	1	0
393.696	1	7
393.867	1	10
394.038	1	4
394.208	1	-1
394.379	1	7
394.550	1	4
394.721	1	-5
394.892	1	14
395.062	1	-2
395.233	1	10
395.404	1	2
395.575	1	18
395.746	1	-2
395.916	1	2
396.087	1	7
396.258	1	9
396.429	1	8
396.599	1	5
396.770	1	8
396.941	1	7
397.112	1	-4
397.283	1	7
397.453	1	-4
397.624	1	3
397.795	1	-9
397.966	1	4
398.136	1	5
398.307	1	9
398.478	1	6
398.649	1	2
398.819	1	11
398.990	1	11
399.161	1	5
399.332	1	5
399.503	1	11
399.673	1	2
399.844	1	8
400.015	1	-4
400.186	1	3
400.356	1	-11
400.527	1	-5
400.698	1	8
400.869	1	-1
401.039	1	-1
401.210	1	9
401.381	1	5
401.552	1	-4
401.722	1	-2
401.893	1	6
402.064	1	3
402.235	1	14
402.405	1	-11
402.576	1	8
402.747	1	18
402.918	1	-7
403.088	1	4
403.259	1	0
403.430	1	0
403.601	1	3
403.771	1	-7
403.942	1	-2
404.113	1	3
404.284	1	15
404.454	1	1
404.625	1	2
404.796	1	14
404.967	1	8
405.137	1	6
405.308	1	-10
405.479	1	10
405.649	1	-3
405.820	1	0
405.991	1	3
406.162	1	3
406.332	1	5
406.503	1	4
406.674	1	2
406.845	1	11
407.015	1	-1
407.186	1	-5
407.357	1	9
407.527	1	5
407.698	1	4
407.869	1	-7
408.040	1	17
408.210	1	10
408.381	1	1
408.552	1	-12
408.722	1	11
408.893	1	-6
409.064	1	5
409.235	1	-1
409.405	1	1
409.576	1	5
409.747	1	1
409.917	1	11
410.088	1	1
410.259	1	-6
410.430	1	10
410.600	1	1
410.771	1	14
410.942	1	12
411.112	1	6
411.283	1	7
411.454	1	2
411.625	1	2
411.795	1	10
411.966	1	0
412.137	1	0
412.307	1	2
412.478	1	1
412.649	1	10
412.819	1	9
412.990	1	-2
413.161	1	1
413.332	1	7
413.502	1	3
413.673	1	-11
413.844	1	2
414.014	1	2
414.185	1	6
414.356	1	12
414.526	1	3
414.697	1	7
414.868	1	8
415.038	1	7
415.209	1	-6
415.380	1	4
415.550	1	3
415.721	1	1
415.892	1	6
416.063	1	10
416.233	1	10
416.404	1	-1
416.575	1	-11
416.745	1	8
416.916	1	3
417.087	1	1
417.257	1	0
417.428	1	9
417.599	1	2
417.769	1	-8
417.940	1	-11
418.111	1	-4
418.281	1	8
418.452	1	2
418.623	1	6
418.793	1	-4
418.964	1	14
419.135	1	4
419.305	1	2
419.476	1	4
419.647	1	2
419.817	1	1
419.988	1	9
420.159	1	13
420.329	1	2
420.500	1	13
420.671	1	15
420.841	1	-2
421.012	1	3
421.183	1	4
421.353	1	8
421.524	1	7
421.695	1	10
421.865	1	-1
422.036	1	16
422.206	1	8
422.377	1	2
422.548	1	-5
422.718	1	1
422.889	1	7
423.060	1	-3
423.230	1	6
423.401	1	-1
423.572	1	-4
423.742	1	21
423.913	1	-2
424.084	1	3
424.254	1	0
424.425	1	11
424.595	1	16
424.766	1	3
424.937	1	8
425.107	1	3
425.278	1	0
425.449	1	1
425.619	1	3
425.790	1	9
425.961	1	9
426.131	1	-5
426.302	1	1
426.472	1	12
426.643	1	5
426.814	1	3
426.984	1	-3
427.155	1	-6
427.326	1	15
427.496	1	3
427.667	1	1
427.837	1	1
428.008	1	0
428.179	1	10
428.349	1	-4
428.520	1	6
428.691	1	3
428.861	1	-1
429.032	1	-1
429.202	1	-9
429.373	1	6
429.544	1	2
429.714	1	9
429.885	1	12
430.055	1	3
430.226	1	-14
430.397	1	3
430.567	1	-3
430.738	1	15
430.909	1	0
431.079	1	0
431.250	1	9
431.420	1	2
431.591	1	2
431.762	1	2
431.932	1	0
432.103	1	13
432.273	1	8
432.444	1	0
432.615	1	1
432.785	1	4
432.956	1	0
433.126	1	3
433.297	1	-1
433.468	1	4
433.638	1	12
433.809	1	-7
433.979	1	16
434.150	1	1
434.320	1	6
434.491	1	14
434.662	1	7
434.832	1	-4
435.003	1	19
435.173	1	3
435.344	1	8
435.515	1	0
435.685	1	1
435.856	1	8
436.026	1	0
436.197	1	-4
436.368	1	-8
436.538	1	13
436.709	1	-6
436.879	1	4
437.050	1	-7
437.220	1	8
437.391	1	-1
437.562	1	12
437.732	1	11
437.903	1	2
438.073	1	-7
438.244	1	11
438.414	1	1
438.585	1	8
438.756	1	1
438.926	1	5
439.097	1	8
439.267	1	-2
439.438	1	-6
439.608	1	-8
439.779	1	4
439.949	1	6
440.120	1	3
440.291	1	11
440.461	1	9
440.632	1	9
440.802	1	1
440.973	1	13
441.143	1	-3
441.314	1	-1
441.485	1	-2
441.655	1	15
441.826	1	-1
441.996	1	-2
442.167	1	-7
442.337	1	-5
442.508	1	-2
442.678	1	4
442.849	1	14
443.019	1	6
443.190	1	8
443.361	1	11
443.531	1	7
443.702	1	7
443.872	1	-13
444.043	1	2
444.213	1	-2
444.384	1	5
444.554	1	11
444.725	1	11
444.895	1	-5
445.066	1	-10
445.237	1	10
445.407	1	8
445.578	1	-10
445.748	1	3
445.919	1	8
446.089	1	8
446.260	1	18
446.430	1	7
446.601	1	6
446.771	1	-1
446.942	1	0
447.112	1	3
447.283	1	10
447.453	1	-7
447.624	1	-9
447.794	1	3
447.965	1	-1
448.135	1	7
448.306	1	1
448.477	1	14
448.647	1	0
448.818	1	7
448.988	1	5
449.159	1	-2
449.329	1	8
449.500	1	3
449.670	1	1
449.841	1	-5
450.011	1	2
450.182	1	-2
450.352	1	4
450.523	1	2
450.693	1	4
450.864	1	-4
451.034	1	-4
451.205	1	4
451.375	1	8
451.546	1	6
451.716	1	8
451.887	1	12
452.057	1	7
452.228	1	3
452.398	1	10
452.569	1	5
452.739	1	3
452.910	1	-15
453.080	1	4
453.251	1	-7
453.421	1	17
453.592	1	-4
453.762	1	11
453.933	1	-2
454.103	1	4
454.274	1	-5
454.444	1	2
454.615	1	4
454.785	1	5
454.956	1	11
455.126	1	6
455.297	1	4
455.467	1	8
455.638	1	-7
455.808	1	11
455.979	1	0
456.149	1	-5
456.320	1	7
456.490	1	-2
456.661	1	0
456.831	1	1
457.001	1	9
457.172	1	1
457.342	1	-3
457.513	1	8
457.683	1	5
457.854	1	5
458.024	1	6
458.195	1	1
458.365	1	-4
458.536	1	12
458.706	1	10
458.877	1	3
459.047	1	0
459.218	1	8
459.388	1	4
459.559	1	1
459.729	1	6
459.899	1	1
460.070	1	9
460.240	1	-11
460.411	1	12
460.581	1	-2
460.752	1	-2
460.922	1	7
461.093	1	6
461.263	1	11
461.434	1	-13
461.604	1	2
461.775	1	11
461.945	1	6
462.115	1	0
462.286	1	-2
462.456	1	-2
462.627	1	6
462.797	1	-4
462.968	1	11
463.138	1	-5
463.309	1	5
463.479	1	-10
463.649	1	-5
463.820	1	14
463.990	1	-6
464.161	1	-1
464.331	1	3
464.502	1	8
464.672	1	3
464.843	1	8
465.013	1	-1
465.183	1	-8
465.354	1	10
465.524	1	6
465.695	1	-6
465.865	1	-5
466.036	1	9
466.206	1	-6
466.376	1	7
466.547	1	16
466.717	1	-7
466.888	1	-1
467.058	1	6
467.229	1	8
467.399	1	-6
467.569	1	-5
467.740	1	-3
467.910	1	-1
468.081	1	8
468.251	1	-5
468.422	1	14
468.592	1	0
468.762	1	1
468.933	1	4
469.103	1	-1
469.274	1	-3
469.444	1	8
469.614	1	-2
469.785	1	-4
469.955	1	-3
470.126	1	0
470.296	1	5
470.467	1	4
470.637	1	17
470.807	1	10
470.978	1	2
471.148	1	-3
471.319	1	5
471.489	1	8
471.659	1	-14
471.830	1	1
472.000	1	-9
472.171	1	9
472.341	1	12
472.511	1	2
472.682	1	5
472.852	1	7
473.023	1	6
473.193	1	1
473.363	1	0
473.534	1	9
473.704	1	3
473.875	1	2
474.045	1	5
474.215	1	9
474.386	1	2
474.556	1	2
474.727	1	-8
474.897	1	-5
475.067	1	1
475.238	1	0
475.408	1	5
475.578	1	-9
475.749	1	11
475.919	1	3
476.090	1	-3
476.260	1	-4
476.430	1	-9
476.601	1	2
476.771	1	5
476.942	1	0
477.112	1	2
477.282	1	-5
477.453	1	-2
477.623	1	3
477.793	1	-5
477.964	1	5
478.134	1	15
478.305	1	6
478.475	1	-9
478.645	1	2
478.816	1	2
478.986	1	9
479.156	1	-2
479.327	1	8
479.497	1	2
479.667	1	1
479.838	1	10
480.008	1	0
480.179	1	10
480.349	1	-2
480.519	1	2
480.690	1	8
480.860	1	-1
481.030	1	-4
481.201	1	4
481.371	1	-10
481.541	1	-11
481.712	1	13
481.882	1	1
482.053	1	4
482.223	1	7
482.393	1	9
482.564	1	3
482.734	1	2
482.904	1	-3
483.075	1	5
483.245	1	5
483.415	1	4
483.586	1	-3
483.756	1	5
483.926	1	1
484.097	1	17
484.267	1	0
484.437	1	-1
484.608	1	-1
484.778	1	-2
484.948	1	2
485.119	1	3
485.289	1	2
485.459	1	4
485.630	1	0
485.800	1	-4
485.970	1	-4
486.141	1	3
486.311	1	5
486.481	1	-13
486.652	1	-9
486.822	1	13
486.992	1	14
487.163	1	3
487.333	1	-2
487.503	1	1
487.674	1	-10
487.844	1	-4
488.014	1	-2
488.185	1	11
488.355	1	7
488.525	1	-7
488.696	1	8
488.866	1	-5
489.036	1	2
489.207	1	8
489.377	1	8
489.547	1	2
489.718	1	-8
489.888	1	-4
490.058	1	9
490.228	1	6
490.399	1	13
490.569	1	-5
490.739	1	5
490.910	1	-5
491.080	1	3
491.250	1	16
491.421	1	-3
491.591	1	4
491.761	1	4
491.932	1	9
492.102	1	-1
492.272	1	-2
492.442	1	9
492.613	1	4
492.783	1	-5
492.953	1	3
493.124	1	11
493.294	1	-4
493.464	1	-4
493.635	1	5
493.805	1	12
493.975	1	21
494.145	1	-1
494.316	1	2
494.486	1	-2
494.656	1	10
494.827	1	-1
494.997	1	-2
495.167	1	11
495.337	1	-2
495.508	1	9
495.678	1	8
495.848	1	5
496.019	1	2
496.189	1	4
496.359	1	-1
496.529	1	-3
496.700	1	0
496.870	1	7
497.040	1	4
497.211	1	-6
497.381	1	9
497.551	1	2
497.721	1	-14
497.892	1	-4
498.062	1	2
498.232	1	1
498.403	1	10
498.573	1	-5
498.743	1	11
498.913	1	-6
499.084	1	11
499.254	1	-9
499.424	1	-1
499.594	1	3
499.765	1	11
499.935	1	19
500.105	1	7
500.275	1	2
500.446	1	1
500.616	1	-4
500.786	1	-2
500.956	1	12
501.127	1	8
501.297	1	1
501.467	1	0
501.638	1	-2
501.808	1	4
501.978	1	1
502.148	1	6
502.319	1	8
502.489	1	5
502.659	1	8
502.829	1	-4
503.000	1	2
503.170	1	7
503.340	1	-3
503.510	1	-9
503.681	1	-1
503.851	1	9
504.021	1	8
504.191	1	-1
504.362	1	-9
504.532	1	6
504.702	1	-1
504.872	1	3
505.042	1	-1
505.213	1	1
505.383	1	9
505.553	1	2
505.723	1	3
505.894	1	3
506.064	1	1
506.234	1	14
506.404	1	2
506.575	1	14
506.745	1	-1
506.915	1	3
507.085	1	4
507.256	1	3
507.426	1	1
507.596	1	4
507.766	1	5
507.936	1	12
508.107	1	4
508.277	1	13
508.447	1	2
508.617	1	2
508.788	1	-2
508.958	1	11
509.128	1	7
509.298	1	-1
509.468	1	7
509.639	1	-1
509.809	1	-2
509.979	1	-1
510.149	1	0
510.319	1	-5
510.490	1	-5
510.660	1	-4
510.830	1	-13
511.000	1	-8
511.171	1	4
511.341	1	19
511.511	1	2
511.681	1	6
511.851	1	17
512.022	1	1
512.192	1	10
512.362	1	3
512.532	1	9
512.702	1	-3
512.873	1	-4
513.043	1	6
513.213	1	8
513.383	1	7
513.553	1	2
513.724	1	10
513.894	1	-1
514.064	1	2
514.234	1	9
514.404	1	15
514.575	1	-3
514.745	1	1
514.915	1	-4
515.085	1	3
515.255	1	-4
515.425	1	6
515.596	1	6
515.766	1	-5
515.936	1	2
516.106	1	1
516.276	1	3
516.447	1	13
516.617	1	3
516.787	1	-6
516.957	1	4
517.127	1	12
517.297	1	-5
517.468	1	15
517.638	1	6
517.808	1	-1
517.978	1	10
518.148	1	7
518.319	1	6
518.489	1	10
518.659	1	5
518.829	1	2
518.999	1	12
519.169	1	-2
519.340	1	4
519.510	1	0
519.680	1	5
519.850	1	15
520.020	1	1
520.190	1	0
520.361	1	2
520.531	1	3
520.701	1	-2
520.871	1	2
521.041	1	18
521.211	1	-3
521.382	1	-3
521.552	1	-1
521.722	1	5
521.892	1	7
522.062	1	0
522.232	1	0
522.402	1	13
522.573	1	3
522.743	1	4
522.913	1	9
523.083	1	5
523.253	1	8
523.423	1	-1
523.593	1	13
523.764	1	3
523.934	1	7
524.104	1	1
524.274	1	2
524.444	1	15
524.614	1	7
524.784	1	-4
524.955	1	5
525.125	1	4
525.295	1	12
525.465	1	10
525.635	1	6
525.805	1	8
525.975	1	-1
526.146	1	6
526.316	1	-7
526.486	1	11
526.656	1	3
526.826	1	4
526.996	1	-4
527.166	1	-3
527.337	1	9
527.507	1	12
527.677	1	14
527.847	1	-6
528.017	1	-2
528.187	1	4
528.357	1	6
528.527	1	-8
528.698	1	6
528.868	1	-4
529.038	1	3
529.208	1	-1
529.378	1	-5
529.548	1	17
529.718	1	2
529.888	1	8
530.058	1	1
530.229	1	8
530.399	1	2
530.569	1	2
530.739	1	1
530.909	1	13
531.079	1	4
531.249	1	1
531.419	1	11
531.589	1	3
531.760	1	13
531.930	1	-2
532.100	1	9
532.270	1	10
532.440	1	10
532.610	1	7
532.780	1	1
532.950	1	4
533.120	1	-2
533.290	1	-6
533.461	1	11
533.631	1	4
533.801	1	-8
533.971	1	-3
534.141	1	2
534.311	1	1
534.481	1	20
534.651	1	-8
534.821	1	-2
534.991	1	5
535.162	1	9
535.332	1	18
535.502	1	5
535.672	1	4
535.842	1	-9
536.012	1	5
536.182	1	-3
536.352	1	20
536.522	1	0
536.692	1	1
536.862	1	-5
537.032	1	4
537.203	1	3
537.373	1	10
537.543	1	9
537.713	1	0
537.883	1	2
538.053	1	1
538.223	1	4
538.393	1	11
538.563	1	2
538.733	1	2
538.903	1	0
539.073	1	-5
539.243	1	5
539.413	1	1
539.584	1	2
539.754	1	5
539.924	1	5
540.094	1	13
540.264	1	15
540.434	1	12
540.604	1	8
540.774	1	-4
540.944	1	5
541.114	1	5
541.284	1	3
541.454	1	7
541.624	1	3
541.794	1	8
541.964	1	6
542.134	1	2
542.305	1	11
542.475	1	9
542.645	1	-6
542.815	1	2
542.985	1	2
543.155	1	11
543.325	1	3
543.495	1	9
543.665	1	-1
543.835	1	3
544.005	1	4
544.175	1	-9
544.345	1	7
544.515	1	4
544.685	1	-8
544.855	1	6
545.025	1	9
545.195	1	5
545.365	1	9
545.535	1	5
545.705	1	-2
545.875	1	3
546.045	1	8
546.216	1	0
546.386	1	6
546.556	1	6
546.726	1	6
546.896	1	-6
547.066	1	6
547.236	1	5
547.406	1	-1
547.576	1	-3
547.746	1	4
547.916	1	9
548.086	1	5
548.256	1	-9
548.426	1	4
548.596	1	4
548.766	1	10
548.936	1	5
549.106	1	5
549.276	1	-3
549.446	1	9
549.616	1	5
549.786	1	12
549.956	1	2
550.126	1	-4
550.296	1	3
550.466	1	1
550.636	1	-4
550.806	1	20
550.976	1	1
551.146	1	10
551.316	1	4
551.486	1	-5
551.656	1	-3
551.826	1	-3
551.996	1	0
552.166	1	5
552.336	1	10
552.506	1	2
552.676	1	4
552.846	1	10
553.016	1	9
553.186	1	-1
553.356	1	-1
553.526	1	4
553.696	1	-6
553.866	1	8
554.036	1	6
554.206	1	7
554.376	1	14
554.546	1	5
554.716	1	1
554.886	1	0
555.056	1	1
555.226	1	-3
555.396	1	-1
555.566	1	3
555.736	1	13
555.906	1	-1
556.076	1	-6
556.246	1	12
556.416	1	5
556.586	1	3
556.756	1	1
556.926	1	3
557.096	1	15
557.266	1	1
557.436	1	-1
557.606	1	-4
557.776	1	15
557.946	1	5
558.116	1	4
558.286	1	-14
558.456	1	1
558.626	1	8
558.796	1	5
558.966	1	6
559.136	1	5
559.306	1	10
559.476	1	2
559.646	1	3
559.816	1	6
559.986	1	8
560.155	1	10
560.325	1	-2
560.495	1	5
560.665	1	-4
560.835	1	-7
561.005	1	-2
561.175	1	-8
561.345	1	2
561.515	1	4
561.685	1	5
561.855	1	-3
562.025	1	13
562.195	1	4
562.365	1	4
562.535	1	1
562.705	1	13
562.875	1	4
563.045	1	9
563.215	1	-6
563.385	1	8
563.555	1	7
563.725	1	0
563.895	1	1
564.064	1	-8
564.234	1	4
564.404	1	-1
564.574	1	10
564.744	1	6
564.914	1	-3
565.084	1	-1
565.254	1	13
565.424	1	-3
565.594	1	4
565.764	1	3
565.934	1	10
566.104	1	6
566.274	1	7
566.444	1	12
566.614	1	5
566.783	1	4
566.953	1	7
567.123	1	-4
567.293	1	2
567.463	1	8
567.633	1	1
567.803	1	7
567.973	1	2
568.143	1	-6
568.313	1	3
568.483	1	10
568.653	1	5
568.823	1	-7
568.993	1	6
569.162	1	-7
569.332	1	0
569.502	1	6
569.672	1	6
569.842	1	5
570.012	1	-4
570.182	1	-4
570.352	1	5
570.522	1	-2
570.692	1	10
570.862	1	-7
571.031	1	19
571.201	1	10
571.371	1	1
571.541	1	2
571.711	1	0
571.881	1	2
572.051	1	8
572.221	1	1
572.391	1	2
572.561	1	4
572.731	1	4
572.900	1	14
573.070	1	2
573.240	1	-10
573.410	1	10
573.580	1	8
573.750	1	-6
573.920	1	6
574.090	1	2
574.260	1	4
574.430	1	-2
574.599	1	14
574.769	1	3
574.939	1	5
575.109	1	7
575.279	1	0
575.449	1	2
575.619	1	5
575.789	1	0
575.959	1	6
576.128	1	-1
576.298	1	-15
576.468	1	0
576.638	1	6
576.808	1	-13
576.978	1	3
577.148	1	-12
577.318	1	8
577.487	1	-3
577.657	1	2
577.827	1	-5
577.997	1	5
578.167	1	9
578.337	1	3
578.507	1	-1
578.677	1	2
578.846	1	0
579.016	1	8
579.186	1	2
579.356	1	5
579.526	1	-7
579.696	1	6
579.866	1	-3
580.036	1	1
580.205	1	0
580.375	1	1
580.545	1	5
580.715	1	11
580.885	1	7
581.055	1	2
581.225	1	4
581.394	1	13
581.564	1	1
581.734	1	-3
581.904	1	0
582.074	1	3
582.244	1	-4
582.414	1	-2
582.583	1	1
582.753	1	-2
582.923	1	-7
583.093	1	8
583.263	1	11
583.433	1	3
583.603	1	-4
583.772	1	9
583.942	1	-3
584.112	1	3
584.282	1	0
584.452	1	2
584.622	1	1
584.791	1	-2
584.961	1	-4
585.131	1	4
585.301	1	5
585.471	1	4
585.641	1	14
585.811	1	-1
585.980	1	3
586.150	1	-4
586.320	1	3
586.490	1	-1
586.660	1	-8
586.830	1	3
586.999	1	-1
587.169	1	-1
587.339	1	3
587.509	1	9
587.679	1	-5
587.849	1	12
588.018	1	-2
588.188	1	12
588.358	1	16
588.528	1	0
588.698	1	-3
588.867	1	4
589.037	1	8
589.207	1	6
589.377	1	-2
589.547	1	0
589.717	1	8
589.886	1	5
590.056	1	5
590.226	1	-4
590.396	1	-1
590.566	1	5
590.735	1	4
590.905	1	0
591.075	1	8
591.245	1	-4
591.415	1	6
591.585	1	0
591.754	1	3
591.924	1	-2
592.094	1	4
592.264	1	-2
592.434	1	-7
592.603	1	-9
592.773	1	-6
592.943	1	-3
593.113	1	2
593.283	1	6
593.452	1	3
593.622	1	-2
593.792	1	-3
593.962	1	8
594.132	1	8
594.301	1	1
594.471	1	-12
594.641	1	9
594.811	1	-1
594.981	1	5
595.150	1	-14
595.320	1	5
595.490	1	-4
595.660	1	5
595.829	1	-6
595.999	1	3
596.169	1	-6
596.339	1	0
596.509	1	-1
596.678	1	-4
596.848	1	-3
597.018	1	-12
597.188	1	1
597.358	1	4
597.527	1	3
597.697	1	-2
597.867	1	-4
598.037	1	0
598.206	1	2
598.376	1	-10
598.546	1	0
598.716	1	3
598.885	1	9
599.055	1	10
599.225	1	0
599.395	1	-4
599.565	1	2
599.734	1	3
599.904	1	1
600.074	1	-4
600.244	1	3
600.413	1	2
600.583	1	11
600.753	1	2
600.923	1	10
601.092	1	-6
601.262	1	3
601.432	1	-3
601.602	1	8
601.771	1	-8
601.941	1	-5
602.111	1	3
602.281	1	6
602.451	1	-4
602.620	1	-1
602.790	1	5
602.960	1	-13
603.130	1	0
603.299	1	9
603.469	1	2
603.639	1	10
603.809	1	4
603.978	1	1
604.148	1	-4
604.318	1	3
604.487	1	0
604.657	1	1
604.827	1	3
604.997	1	7
605.166	1	14
605.336	1	9
605.506	1	-4
605.676	1	-4
605.845	1	9
606.015	1	-1
606.185	1	-7
606.355	1	-18
606.524	1	0
606.694	1	12
606.864	1	15
607.034	1	2
607.203	1	2
607.373	1	-2
607.543	1	-5
607.712	1	-1
607.882	1	8
608.052	1	-3
608.222	1	-1
608.391	1	7
608.561	1	-2
608.731	1	-15
608.901	1	-1
609.070	1	1
609.240	1	3
609.410	1	-2
609.579	1	-2
609.749	1	0
609.919	1	-5
610.089	1	7
610.258	1	13
610.428	1	3
610.598	1	-4
610.767	1	8
610.937	1	-8
611.107	1	14
611.277	1	3
611.446	1	9
611.616	1	10
611.786	1	3
611.955	1	-5
612.125	1	5
612.295	1	2
612.465	1	9
612.634	1	7
612.804	1	1
612.974	1	-1
613.143	1	-1
613.313	1	3
613.483	1	-9
613.652	1	10
613.822	1	0
613.992	1	-6
614.162	1	6
614.331	1	9
614.501	1	-3
614.671	1	12
614.840	1	10
615.010	1	0
615.180	1	3
615.349	1	10
615.519	1	-9
615.689	1	-2
615.858	1	-14
616.028	1	18
616.198	1	12
616.368	1	7
616.537	1	-8
616.707	1	4
616.877	1	-4
617.046	1	6
617.216	1	-1
617.386	1	9
617.555	1	5
617.725	1	1
617.895	1	2
618.064	1	-5
618.234	1	-2
618.404	1	-2
618.573	1	5
618.743	1	2
618.913	1	-6
619.082	1	9
619.252	1	-9
619.422	1	16
619.591	1	8
619.761	1	3
619.931	1	13
620.100	1	9
620.270	1	0
620.440	1	4
620.609	1	-8
620.779	1	0
620.949	1	9
621.118	1	8
621.288	1	5
621.458	1	0
621.627	1	11
621.797	1	0
621.967	1	-2
622.136	1	4
622.306	1	0
622.476	1	3
622.645	1	7
622.815	1	-3
622.985	1	-4
623.154	1	-7
623.324	1	4
623.494	1	-11
623.663	1	13
623.833	1	2
624.002	1	12
624.172	1	5
624.342	1	10
624.511	1	-6
624.681	1	7
624.851	1	-9
625.020	1	2
625.190	1	2
625.360	1	11
625.529	1	-13
625.699	1	7
625.869	1	14
626.038	1	3
626.208	1	-5
626.377	1	2
626.547	1	1
626.717	1	-1
626.886	1	-9
627.056	1	2
627.226	1	9
627.395	1	5
627.565	1	8
627.735	1	5
627.904	1	1
628.074	1	1
628.243	1	8
628.413	1	3
628.583	1	5
628.752	1	5
628.922	1	3
629.091	1	0
629.261	1	-9
629.431	1	-6
629.600	1	4
629.770	1	3
629.940	1	6
630.109	1	-5
630.279	1	1
630.448	1	8
630.618	1	4
630.788	1	-1
630.957	1	11
631.127	1	0
631.297	1	10
631.466	1	-1
631.636	1	10
631.805	1	-3
631.975	1	-3
632.145	1	4
632.314	1	5
632.484	1	7
632.653	1	-3
632.823	1	-3
632.993	1	4
633.162	1	-5
633.332	1	5
633.501	1	-2
633.671	1	7
633.841	1	4
634.010	1	4
634.180	1	5
634.349	1	0
634.519	1	0
634.689	1	4
634.858	1	1
635.028	1	-4
635.197	1	9
635.367	1	13
635.537	1	7
635.706	1	-3
635.876	1	9
636.045	1	-2
636.215	1	-5
636.384	1	12
636.554	1	3
636.724	1	3
636.893	1	4
637.063	1	-12
637.232	1	4
637.402	1	-1
637.572	1	9
637.741	1	2
637.911	1	8
638.080	1	2
638.250	1	-6
638.419	1	-3
638.589	1	5
638.759	1	8
638.928	1	-4
639.098	1	4
639.267	1	8
639.437	1	5
639.606	1	5
639.776	1	3
639.946	1	2
640.115	1	-4
640.285	1	-4
640.454	1	-3
640.624	1	6
640.793	1	0
640.963	1	3
641.132	1	3
641.302	1	7
641.472	1	6
641.641	1	7
641.811	1	-4
641.980	1	12
642.150	1	-7
642.319	1	10
642.489	1	12
642.659	1	14
642.828	1	15
642.998	1	0
643.167	1	-4
643.337	1	2
643.506	1	4
643.676	1	7
643.845	1	4
644.015	1	9
644.184	1	12
644.354	1	10
644.524	1	-7
644.693	1	2
644.863	1	-1
645.032	1	3
645.202	1	2
645.371	1	2
645.541	1	6
645.710	1	6
645.880	1	2
646.049	1	4
646.219	1	-7
646.388	1	0
646.558	1	-10
646.728	1	-4
646.897	1	-4
647.067	1	14
647.236	1	-8
647.406	1	-1
647.575	1	4
647.745	1	-13
647.914	1	-4
648.084	1	-2
648.253	1	4
648.423	1	15
648.592	1	16
648.762	1	6
648.931	1	3
649.101	1	-2
649.270	1	5
649.440	1	-1
649.610	1	5
649.779	1	-1
649.949	1	1
650.118	1	0
650.288	1	6
650.457	1	6
650.627	1	6
650.796	1	7
650.966	1	1
651.135	1	1
651.305	1	-1
651.474	1	2
651.644	1	20
651.813	1	0
651.983	1	-4
652.152	1	4
652.322	1	8
652.491	1	4
652.661	1	3
652.830	1	4
653.000	1	-1
653.169	1	1
653.339	1	1
653.508	1	-4
653.678	1	12
653.847	1	2
654.017	1	13
654.186	1	3
654.356	1	2
654.525	1	0
654.695	1	12
654.864	1	-1
655.034	1	-2
655.203	1	4
655.373	1	1
655.542	1	0
655.712	1	14
655.881	1	0
656.051	1	-15
656.220	1	4
656.390	1	-9
656.559	1	3
656.729	1	-1
656.898	1	2
657.068	1	0
657.237	1	11
657.406	1	-5
657.576	1	5
657.745	1	12
657.915	1	2
658.084	1	-1
658.254	1	4
658.423	1	10
658.593	1	2
658.762	1	-4
658.932	1	7
659.101	1	1
659.271	1	7
659.440	1	0
659.610	1	3
659.779	1	2
659.949	1	-1
660.118	1	8
660.288	1	-4
660.457	1	-2
660.626	1	-11
660.796	1	11
660.965	1	2
661.135	1	1
661.304	1	12
661.474	1	2
661.643	1	-3
661.813	1	-3
661.982	1	-1
662.152	1	7
662.321	1	-1
662.491	1	-8
662.660	1	10
662.829	1	15
662.999	1	6
663.168	1	-1
663.338	1	-7
663.507	1	1
663.677	1	10
663.846	1	-6
664.016	1	-7
664.185	1	2
664.354	1	1
664.524	1	11
664.693	1	2
664.863	1	-5
665.032	1	-5
665.202	1	1
665.371	1	9
665.541	1	-1
665.710	1	13
665.879	1	5
666.049	1	9
666.218	1	0
666.388	1	-2
666.557	1	-7
666.727	1	4
666.896	1	12
667.065	1	3
667.235	1	-9
667.404	1	9
667.574	1	4
667.743	1	-2
667.913	1	0
668.082	1	3
668.251	1	-9
668.421	1	5
668.590	1	3
668.760	1	-3
668.929	1	-2
669.099	1	8
669.268	1	0
669.437	1	-2
669.607	1	-19
669.776	1	5
669.946	1	3
670.115	1	-3
670.285	1	-4
670.454	1	5
670.623	1	4
670.793	1	-6
670.962	1	-3
671.132	1	3
671.301	1	3
671.470	1	-3
671.640	1	13
671.809	1	-1
671.979	1	1
672.148	1	9
672.317	1	8
672.487	1	2
672.656	1	3
672.826	1	6
672.995	1	3
673.164	1	-7
673.334	1	-3
673.503	1	8
673.673	1	11
673.842	1	1
674.011	1	4
674.181	1	2
674.350	1	-3
674.520	1	-2
674.689	1	-5
674.858	1	-1
675.028	1	5
675.197	1	7
675.367	1	9
675.536	1	-4
675.705	1	-7
675.875	1	-1
676.044	1	-3
676.214	1	12
676.383	1	0
676.552	1	-8
676.722	1	5
676.891	1	4
677.060	1	9
677.230	1	3
677.399	1	9
677.569	1	11
677.738	1	5
677.907	1	14
678.077	1	-9
678.246	1	-7
678.416	1	1
678.585	1	11
678.754	1	-1
678.924	1	-2
679.093	1	11
679.262	1	0
679.432	1	7
679.601	1	0
679.771	1	4
679.940	1	0
680.109	1	-1
680.279	1	5
680.448	1	2
680.617	1	5
680.787	1	-6
680.956	1	6
681.125	1	-10
681.295	1	-2
681.464	1	7
681.634	1	3
681.803	1	1
681.972	1	2
682.142	1	3
682.311	1	12
682.480	1	-7
682.650	1	-1
682.819	1	-6
682.988	1	7
683.158	1	-5
683.327	1	7
683.496	1	-5
683.666	1	5
683.835	1	5
684.004	1	-6
684.174	1	3
684.343	1	9
684.512	1	2
684.682	1	21
684.851	1	-3
685.021	1	7
685.190	1	-5
685.359	1	-1
685.529	1	5
685.698	1	-5
685.867	1	16
686.037	1	-10
686.206	1	-6
686.375	1	-4
686.545	1	-3
686.714	1	2
686.883	1	7
687.053	1	21
687.222	1	1
687.391	1	-1
687.561	1	0
687.730	1	3
687.899	1	-2
688.069	1	-2
688.238	1	14
688.407	1	-3
688.577	1	-2
688.746	1	-2
