340.368	1	7
340.539	1	7
340.710	1	4
340.881	1	6
341.052	1	2
341.223	1	13
341.394	1	-4
341.565	1	6
341.737	1	14
341.908	1	17
342.079	1	12
342.250	1	6
342.421	1	5
342.592	1	10
342.763	1	8
342.934	1	7
343.105	1	12
343.276	1	1
343.447	1	5
343.618	1	22
343.789	1	8
343.960	1	8
344.131	1	-10
344.302	1	17
344.473	1	14
344.644	1	6
344.815	1	7
344.986	1	12
345.157	1	10
345.328	1	-1
345.499	1	-2
345.670	1	0
345.841	1	12
346.012	1	8
346.183	1	6
346.354	1	17
346.526	1	14
346.697	1	19
346.868	1	-9
347.039	1	9
347.210	1	0
347.381	1	11
347.552	1	21
347.723	1	20
347.894	1	2
348.065	1	7
348.236	1	13
348.407	1	15
348.578	1	8
348.749	1	13
348.920	1	10
349.091	1	4
349.262	1	5
349.433	1	5
349.604	1	5
349.775	1	7
349.946	1	2
350.117	1	11
350.288	1	2
350.459	1	3
350.630	1	-3
350.801	1	8
350.972	1	14
351.143	1	4
351.314	1	-1
351.485	1	14
351.656	1	15
351.827	1	11
351.998	1	5
352.169	1	14
352.340	1	11
352.511	1	-1
352.682	1	-2
352.853	1	6
353.024	1	22
353.195	1	7
353.366	1	8
353.537	1	1
353.708	1	15
353.879	1	20
354.050	1	9
354.221	1	-4
354.392	1	3
354.563	1	35
354.734	1	16
354.905	1	3
355.076	1	19
355.247	1	21
355.418	1	9
355.589	1	19
355.760	1	6
355.931	1	27
356.102	1	10
356.273	1	16
356.444	1	24
356.615	1	18
356.785	1	21
356.956	1	20
357.127	1	25
357.298	1	8
357.469	1	17
357.640	1	13
357.811	1	9
357.982	1	18
358.153	1	5
358.324	1	25
358.495	1	12
358.666	1	14
358.837	1	31
359.008	1	16
359.179	1	23
359.350	1	17
359.521	1	33
359.692	1	16
359.863	1	24
360.034	1	17
360.205	1	30
360.376	1	35
360.547	1	25
360.718	1	33
360.889	1	34
361.060	1	38
361.231	1	37
361.401	1	44
361.572	1	41
361.743	1	43
361.914	1	52
362.085	1	51
362.256	1	55
362.427	1	58
362.598	1	60
362.769	1	60
362.940	1	57
363.111	1	59
363.282	1	62
363.453	1	65
363.624	1	67
363.795	1	70
363.966	1	65
364.137	1	77
364.308	1	92
364.478	1	92
364.649	1	92
364.820	1	115
364.991	1	91
365.162	1	107
365.333	1	104
365.504	1	108
365.675	1	135
365.846	1	114
366.017	1	135
366.188	1	127
366.359	1	130
366.530	1	140
366.701	1	150
366.871	1	150
367.042	1	161
367.213	1	170
367.384	1	152
367.555	1	170
367.726	1	170
367.897	1	176
368.068	1	170
368.239	1	174
368.410	1	176
368.581	1	169
368.752	1	174
368.923	1	155
369.093	1	177
369.264	1	172
369.435	1	162
369.606	1	144
369.777	1	172
369.948	1	153
370.119	1	149
370.290	1	154
370.461	1	134
370.632	1	143
370.803	1	127
370.973	1	133
371.144	1	124
371.315	1	122
371.486	1	112
371.657	1	119
371.828	1	106
371.999	1	109
372.170	1	111
372.341	1	103
372.512	1	92
372.682	1	102
372.853	1	108
373.024	1	81
373.195	1	91
373.366	1	98
373.537	1	79
373.708	1	90
373.879	1	80
374.050	1	81
374.220	1	96
374.391	1	77
374.562	1	87
374.733	1	74
374.904	1	68
375.075	1	58
375.246	1	71
375.417	1	60
375.588	1	66
375.758	1	72
375.929	1	66
376.100	1	63
376.271	1	70
376.442	1	52
376.613	1	62
376.784	1	49
376.955	1	56
377.125	1	51
377.296	1	62
377.467	1	54
377.638	1	57
377.809	1	37
377.980	1	43
378.151	1	39
378.321	1	64
378.492	1	42
378.663	1	45
378.834	1	54
379.005	1	38
379.176	1	56
379.347	1	38
379.518	1	35
379.688	1	49
379.859	1	43
380.030	1	48
380.201	1	36
380.372	1	48
380.543	1	36
380.714	1	34
380.884	1	38
381.055	1	34
381.226	1	39
381.397	1	33
381.568	1	27
381.739	1	27
381.910	1	44
382.080	1	36
382.251	1	25
382.422	1	37
382.593	1	34
382.764	1	25
382.935	1	17
383.105	1	31
383.276	1	28
383.447	1	29
383.618	1	29
383.789	1	25
383.960	1	39
384.130	1	36
384.301	1	19
384.472	1	21
384.643	1	33
384.814	1	21
384.985	1	25
385.156	1	33
385.326	1	8
385.497	1	32
385.668	1	26
385.839	1	21
386.010	1	19
386.180	1	33
386.351	1	26
386.522	1	27
386.693	1	29
386.864	1	19
387.035	1	29
387.205	1	31
387.376	1	15
387.547	1	33
387.718	1	26
387.889	1	24
388.060	1	14
388.230	1	22
388.401	1	30
388.572	1	12
388.743	1	17
388.914	1	29
389.084	1	20
389.255	1	27
389.426	1	-2
389.597	1	20
389.768	1	16
389.939	1	34
390.109	1	21
390.280	1	18
390.451	1	29
390.622	1	10
390.793	1	19
390.963	1	7
391.134	1	29
391.305	1	12
391.476	1	20
391.647	1	13
391.817	1	1
391.988	1	20
392.159	1	4
392.330	1	21
392.501	1	10
392.671	1	18
392.842	1	4
393.013	1	22
393.184	1	15
393.355	1	34
393.525	1	4
393.696	1	17
393.867	1	17
394.038	1	15
394.208	1	17
394.379	1	18
394.550	1	20
394.721	1	13
394.892	1	22
395.062	1	12
395.233	1	25
395.404	1	16
395.575	1	17
395.746	1	2
395.916	1	10
396.087	1	21
396.258	1	20
396.429	1	14
396.599	1	15
396.770	1	16
396.941	1	16
397.112	1	16
397.283	1	27
397.453	1	12
397.624	1	15
397.795	1	9
397.966	1	24
398.136	1	15
398.307	1	20
398.478	1	10
398.649	1	14
398.819	1	24
398.990	1	24
399.161	1	19
399.332	1	22
399.503	1	21
399.673	1	17
399.844	1	12
400.015	1	11
400.186	1	12
400.356	1	17
400.527	1	14
400.698	1	20
400.869	1	13
401.039	1	22
401.210	1	14
401.381	1	12
401.552	1	21
401.722	1	21
401.893	1	17
402.064	1	18
402.235	1	27
402.405	1	12
402.576	1	20
402.747	1	21
402.918	1	4
403.088	1	14
403.259	1	10
403.430	1	10
403.601	1	27
403.771	1	5
403.942	1	15
404.113	1	24
404.284	1	25
404.454	1	13
404.625	1	6
404.796	1	14
404.967	1	18
405.137	1	19
405.308	1	4
405.479	1	14
405.649	1	23
405.820	1	13
405.991	1	21
406.162	1	10
406.332	1	8
406.503	1	18
406.674	1	12
406.845	1	22
407.015	1	26
407.186	1	11
407.357	1	20
407.527	1	-2
407.698	1	31
407.869	1	11
408.040	1	18
408.210	1	28
408.381	1	19
408.552	1	10
408.722	1	14
408.893	1	17
409.064	1	21
409.235	1	17
409.405	1	17
409.576	1	23
409.747	1	19
409.917	1	23
410.088	1	19
410.259	1	16
410.430	1	23
410.600	1	12
410.771	1	18
410.942	1	24
411.112	1	16
411.283	1	17
411.454	1	23
411.625	1	9
411.795	1	13
411.966	1	21
412.137	1	17
412.307	1	15
412.478	1	19
412.649	1	20
412.819	1	21
412.990	1	18
413.161	1	10
413.332	1	26
413.502	1	20
413.673	1	16
413.844	1	21
414.014	1	11
414.185	1	11
414.356	1	31
414.526	1	7
414.697	1	24
414.868	1	15
415.038	1	16
415.209	1	12
415.380	1	20
415.550	1	22
415.721	1	13
415.892	1	30
416.063	1	21
416.233	1	19
416.404	1	16
416.575	1	5
416.745	1	13
416.916	1	7
417.087	1	16
417.257	1	14
417.428	1	23
417.599	1	8
417.769	1	11
417.940	1	20
418.111	1	11
418.281	1	21
418.452	1	30
418.623	1	20
418.793	1	12
418.964	1	35
419.135	1	10
419.305	1	17
419.476	1	10
419.647	1	22
419.817	1	8
419.988	1	34
420.159	1	13
420.329	1	27
420.500	1	18
420.671	1	27
420.841	1	7
421.012	1	15
421.183	1	20
421.353	1	15
421.524	1	19
421.695	1	18
421.865	1	14
422.036	1	27
422.206	1	17
422.377	1	18
422.548	1	17
422.718	1	17
422.889	1	16
423.060	1	19
423.230	1	18
423.401	1	21
423.572	1	13
423.742	1	27
423.913	1	5
424.084	1	20
424.254	1	16
424.425	1	18
424.595	1	20
424.766	1	13
424.937	1	17
425.107	1	20
425.278	1	21
425.449	1	16
425.619	1	14
425.790	1	21
425.961	1	26
426.131	1	14
426.302	1	17
426.472	1	21
426.643	1	19
426.814	1	13
426.984	1	12
427.155	1	9
427.326	1	23
427.496	1	21
427.667	1	11
427.837	1	21
428.008	1	23
428.179	1	32
428.349	1	14
428.520	1	12
428.691	1	22
428.861	1	23
429.032	1	16
429.202	1	8
429.373	1	21
429.544	1	18
429.714	1	14
429.885	1	21
430.055	1	14
430.226	1	5
430.397	1	10
430.567	1	7
430.738	1	17
430.909	1	12
431.079	1	19
431.250	1	23
431.420	1	18
431.591	1	18
431.762	1	16
431.932	1	10
432.103	1	18
432.273	1	19
432.444	1	14
432.615	1	17
432.785	1	16
432.956	1	12
433.126	1	20
433.297	1	16
433.468	1	12
433.638	1	14
433.809	1	2
433.979	1	12
434.150	1	22
434.320	1	12
434.491	1	24
434.662	1	23
434.832	1	10
435.003	1	24
435.173	1	17
435.344	1	15
435.515	1	18
435.685	1	11
435.856	1	12
436.026	1	12
436.197	1	8
436.368	1	11
436.538	1	10
436.709	1	20
436.879	1	14
437.050	1	8
437.220	1	13
437.391	1	9
437.562	1	23
437.732	1	21
437.903	1	21
438.073	1	6
438.244	1	21
438.414	1	25
438.585	1	14
438.756	1	18
438.926	1	3
439.097	1	19
439.267	1	13
439.438	1	12
439.608	1	7
439.779	1	4
439.949	1	19
440.120	1	14
440.291	1	10
440.461	1	14
440.632	1	10
440.802	1	17
440.973	1	16
441.143	1	19
441.314	1	2
441.485	1	17
441.655	1	29
441.826	1	10
441.996	1	10
442.167	1	23
442.337	1	16
442.508	1	12
442.678	1	12
442.849	1	12
443.019	1	18
443.190	1	16
443.361	1	20
443.531	1	15
443.702	1	21
443.872	1	11
444.043	1	20
444.213	1	8
444.384	1	24
444.554	1	10
444.725	1	24
444.895	1	14
445.066	1	14
445.237	1	19
445.407	1	17
445.578	1	7
445.748	1	9
445.919	1	11
446.089	1	16
446.260	1	16
446.430	1	24
446.601	1	13
446.771	1	8
446.942	1	3
447.112	1	12
447.283	1	21
447.453	1	2
447.624	1	-2
447.794	1	8
447.965	1	13
448.135	1	19
448.306	1	15
448.477	1	15
448.647	1	15
448.818	1	13
448.988	1	18
449.159	1	1
449.329	1	11
449.500	1	19
449.670	1	17
449.841	1	11
450.011	1	11
450.182	1	11
450.352	1	13
450.523	1	10
450.693	1	22
450.864	1	8
451.034	1	8
451.205	1	12
451.375	1	12
451.546	1	6
451.716	1	8
451.887	1	22
452.057	1	17
452.228	1	2
452.398	1	19
452.569	1	7
452.739	1	13
452.910	1	0
453.080	1	14
453.251	1	8
453.421	1	33
453.592	1	9
453.762	1	23
453.933	1	7
454.103	1	11
454.274	1	4
454.444	1	14
454.615	1	4
454.785	1	13
454.956	1	12
455.126	1	18
455.297	1	14
455.467	1	11
455.638	1	16
455.808	1	21
455.979	1	15
456.149	1	-2
456.320	1	24
456.490	1	11
456.661	1	11
456.831	1	7
457.001	1	14
457.172	1	17
457.342	1	7
457.513	1	9
457.683	1	0
457.854	1	11
458.024	1	14
458.195	1	4
458.365	1	9
458.536	1	12
458.706	1	15
458.877	1	9
459.047	1	8
459.218	1	11
459.388	1	9
459.559	1	13
459.729	1	7
459.899	1	8
460.070	1	21
460.240	1	12
460.411	1	20
460.581	1	9
460.752	1	9
460.922	1	9
461.093	1	13
461.263	1	15
461.434	1	0
461.604	1	12
461.775	1	17
461.945	1	11
462.115	1	9
462.286	1	2
462.456	1	12
462.627	1	6
462.797	1	11
462.968	1	18
463.138	1	6
463.309	1	7
463.479	1	7
463.649	1	3
463.820	1	22
463.990	1	12
464.161	1	15
464.331	1	19
464.502	1	7
464.672	1	2
464.843	1	12
465.013	1	11
465.183	1	5
465.354	1	12
465.524	1	14
465.695	1	15
465.865	1	16
466.036	1	13
466.206	1	20
466.376	1	19
466.547	1	20
466.717	1	-8
466.888	1	13
467.058	1	16
467.229	1	10
467.399	1	12
467.569	1	11
467.740	1	23
467.910	1	7
468.081	1	16
468.251	1	-1
468.422	1	14
468.592	1	8
468.762	1	13
468.933	1	16
469.103	1	16
469.274	1	9
469.444	1	18
469.614	1	9
469.785	1	13
469.955	1	5
470.126	1	14
470.296	1	13
470.467	1	6
470.637	1	13
470.807	1	14
470.978	1	-3
471.148	1	1
471.319	1	5
471.489	1	15
471.659	1	6
471.830	1	11
472.000	1	-5
472.171	1	13
472.341	1	18
472.511	1	3
472.682	1	21
472.852	1	29
473.023	1	20
473.193	1	9
473.363	1	9
473.534	1	7
473.704	1	8
473.875	1	8
474.045	1	8
474.215	1	13
474.386	1	5
474.556	1	4
474.727	1	7
474.897	1	7
475.067	1	6
475.238	1	23
475.408	1	14
475.578	1	1
475.749	1	10
475.919	1	6
476.090	1	10
476.260	1	3
476.430	1	-6
476.601	1	5
476.771	1	13
476.942	1	2
477.112	1	16
477.282	1	8
477.453	1	10
477.623	1	5
477.793	1	3
477.964	1	13
478.134	1	9
478.305	1	22
478.475	1	6
478.645	1	15
478.816	1	8
478.986	1	12
479.156	1	6
479.327	1	14
479.497	1	8
479.667	1	6
479.838	1	23
480.008	1	18
480.179	1	15
480.349	1	4
480.519	1	13
480.690	1	19
480.860	1	19
481.030	1	13
481.201	1	19
481.371	1	-1
481.541	1	-1
481.712	1	24
481.882	1	17
482.053	1	12
482.223	1	10
482.393	1	14
482.564	1	10
482.734	1	14
482.904	1	5
483.075	1	11
483.245	1	15
483.415	1	10
483.586	1	7
483.756	1	12
483.926	1	-4
484.097	1	19
484.267	1	11
484.437	1	19
484.608	1	10
484.778	1	6
484.948	1	20
485.119	1	10
485.289	1	3
485.459	1	4
485.630	1	9
485.800	1	8
485.970	1	-3
486.141	1	14
486.311	1	15
486.481	1	-7
486.652	1	10
486.822	1	26
486.992	1	22
487.163	1	4
487.333	1	13
487.503	1	10
487.674	1	6
487.844	1	4
488.014	1	23
488.185	1	19
488.355	1	12
488.525	1	9
488.696	1	19
488.866	1	9
489.036	1	12
489.207	1	18
489.377	1	13
489.547	1	21
489.718	1	10
489.888	1	8
490.058	1	22
490.228	1	15
490.399	1	17
490.569	1	6
490.739	1	11
490.910	1	22
491.080	1	20
491.250	1	27
491.421	1	19
491.591	1	13
491.761	1	14
491.932	1	23
492.102	1	18
492.272	1	6
492.442	1	22
492.613	1	11
492.783	1	25
492.953	1	19
493.124	1	24
493.294	1	11
493.464	1	12
493.635	1	14
493.805	1	23
493.975	1	26
494.145	1	16
494.316	1	16
494.486	1	15
494.656	1	26
494.827	1	13
494.997	1	15
495.167	1	18
495.337	1	7
495.508	1	18
495.678	1	26
495.848	1	11
496.019	1	20
496.189	1	29
496.359	1	19
496.529	1	11
496.700	1	17
496.870	1	22
497.040	1	16
497.211	1	11
497.381	1	14
497.551	1	25
497.721	1	14
497.892	1	20
498.062	1	24
498.232	1	20
498.403	1	26
498.573	1	21
498.743	1	20
498.913	1	17
499.084	1	17
499.254	1	18
499.424	1	16
499.594	1	29
499.765	1	18
499.935	1	29
500.105	1	42
500.275	1	14
500.446	1	11
500.616	1	20
500.786	1	16
500.956	1	34
501.127	1	32
501.297	1	25
501.467	1	25
501.638	1	26
501.808	1	34
501.978	1	12
502.148	1	23
502.319	1	28
502.489	1	22
502.659	1	40
502.829	1	27
503.000	1	35
503.170	1	33
503.340	1	29
503.510	1	28
503.681	1	31
503.851	1	32
504.021	1	29
504.191	1	25
504.362	1	29
504.532	1	36
504.702	1	24
504.872	1	27
505.042	1	32
505.213	1	25
505.383	1	34
505.553	1	35
505.723	1	35
505.894	1	25
506.064	1	24
506.234	1	32
506.404	1	28
506.575	1	46
506.745	1	31
506.915	1	38
507.085	1	38
507.256	1	33
507.426	1	28
507.596	1	42
507.766	1	32
507.936	1	37
508.107	1	24
508.277	1	36
508.447	1	35
508.617	1	40
508.788	1	36
508.958	1	40
509.128	1	36
509.298	1	31
509.468	1	20
509.639	1	33
509.809	1	38
509.979	1	27
510.149	1	24
510.319	1	26
510.490	1	22
510.660	1	30
510.830	1	17
511.000	1	42
511.171	1	42
511.341	1	49
511.511	1	38
511.681	1	41
511.851	1	36
512.022	1	25
512.192	1	44
512.362	1	40
512.532	1	48
512.702	1	25
512.873	1	32
513.043	1	33
513.213	1	44
513.383	1	36
513.553	1	43
513.724	1	40
513.894	1	37
514.064	1	33
514.234	1	42
514.404	1	34
514.575	1	43
514.745	1	47
514.915	1	32
515.085	1	41
515.255	1	33
515.425	1	36
515.596	1	39
515.766	1	30
515.936	1	38
516.106	1	32
516.276	1	36
516.447	1	41
516.617	1	38
516.787	1	40
516.957	1	40
517.127	1	39
517.297	1	27
517.468	1	46
517.638	1	39
517.808	1	43
517.978	1	47
518.148	1	43
518.319	1	36
518.489	1	38
518.659	1	49
518.829	1	41
518.999	1	52
519.169	1	38
519.340	1	40
519.510	1	38
519.680	1	36
519.850	1	34
520.020	1	45
520.190	1	39
520.361	1	46
520.531	1	42
520.701	1	47
520.871	1	45
521.041	1	50
521.211	1	41
521.382	1	39
521.552	1	37
521.722	1	45
521.892	1	46
522.062	1	34
522.232	1	44
522.402	1	56
522.573	1	54
522.743	1	46
522.913	1	45
523.083	1	41
523.253	1	53
523.423	1	45
523.593	1	53
523.764	1	44
523.934	1	50
524.104	1	45
524.274	1	38
524.444	1	57
524.614	1	47
524.784	1	39
524.955	1	42
525.125	1	41
525.295	1	45
525.465	1	48
525.635	1	44
525.805	1	52
525.975	1	52
526.146	1	36
526.316	1	32
526.486	1	40
526.656	1	54
526.826	1	39
526.996	1	45
527.166	1	29
527.337	1	50
527.507	1	48
527.677	1	56
527.847	1	39
528.017	1	35
528.187	1	67
528.357	1	48
528.527	1	35
528.698	1	47
528.868	1	36
529.038	1	39
529.208	1	54
529.378	1	38
529.548	1	50
529.718	1	41
529.888	1	42
530.058	1	47
530.229	1	44
530.399	1	40
530.569	1	42
530.739	1	45
530.909	1	46
531.079	1	44
531.249	1	58
531.419	1	42
531.589	1	43
531.760	1	54
531.930	1	42
532.100	1	49
532.270	1	49
532.440	1	48
532.610	1	61
532.780	1	42
532.950	1	50
533.120	1	44
533.290	1	49
533.461	1	45
533.631	1	48
533.801	1	38
533.971	1	38
534.141	1	47
534.311	1	45
534.481	1	57
534.651	1	42
534.821	1	48
534.991	1	38
535.162	1	49
535.332	1	47
535.502	1	45
535.672	1	50
535.842	1	37
536.012	1	50
536.182	1	32
536.352	1	43
536.522	1	33
536.692	1	42
536.862	1	39
537.032	1	50
537.203	1	38
537.373	1	35
537.543	1	50
537.713	1	38
537.883	1	51
538.053	1	48
538.223	1	47
538.393	1	40
538.563	1	43
538.733	1	50
538.903	1	28
539.073	1	34
539.243	1	40
539.413	1	34
539.584	1	41
539.754	1	31
539.924	1	38
540.094	1	50
540.264	1	49
540.434	1	46
540.604	1	51
540.774	1	36
540.944	1	38
541.114	1	50
541.284	1	36
541.454	1	33
541.624	1	42
541.794	1	42
541.964	1	35
542.134	1	46
542.305	1	48
542.475	1	41
542.645	1	33
542.815	1	32
542.985	1	43
543.155	1	43
543.325	1	48
543.495	1	41
543.665	1	40
543.835	1	28
544.005	1	29
544.175	1	40
544.345	1	34
544.515	1	38
544.685	1	30
544.855	1	40
545.025	1	47
545.195	1	40
545.365	1	35
545.535	1	40
545.705	1	40
545.875	1	37
546.045	1	41
546.216	1	35
546.386	1	34
546.556	1	43
546.726	1	33
546.896	1	43
547.066	1	38
547.236	1	48
547.406	1	41
547.576	1	33
547.746	1	37
547.916	1	47
548.086	1	42
548.256	1	42
548.426	1	43
548.596	1	39
548.766	1	52
548.936	1	37
549.106	1	45
549.276	1	43
549.446	1	47
549.616	1	46
549.786	1	37
549.956	1	39
550.126	1	44
550.296	1	40
550.466	1	35
550.636	1	24
550.806	1	45
550.976	1	29
551.146	1	35
551.316	1	31
551.486	1	37
551.656	1	31
551.826	1	33
551.996	1	31
552.166	1	39
552.336	1	36
552.506	1	35
552.676	1	41
552.846	1	39
553.016	1	34
553.186	1	33
553.356	1	35
553.526	1	42
553.696	1	30
553.866	1	30
554.036	1	44
554.206	1	42
554.376	1	39
554.546	1	38
554.716	1	30
554.886	1	32
555.056	1	35
555.226	1	38
555.396	1	36
555.566	1	41
555.736	1	31
555.906	1	33
556.076	1	33
556.246	1	30
556.416	1	42
556.586	1	30
556.756	1	33
556.926	1	25
557.096	1	40
557.266	1	31
557.436	1	30
557.606	1	28
557.776	1	35
557.946	1	35
558.116	1	29
558.286	1	25
558.456	1	30
558.626	1	23
558.796	1	43
558.966	1	27
559.136	1	19
559.306	1	35
559.476	1	28
559.646	1	25
559.816	1	25
559.986	1	36
560.155	1	24
560.325	1	30
560.495	1	35
560.665	1	26
560.835	1	22
561.005	1	27
561.175	1	27
561.345	1	25
561.515	1	33
561.685	1	26
561.855	1	31
562.025	1	26
562.195	1	22
562.365	1	34
562.535	1	22
562.705	1	33
562.875	1	26
563.045	1	26
563.215	1	27
563.385	1	32
563.555	1	18
563.725	1	27
563.895	1	31
564.064	1	27
564.234	1	24
564.404	1	11
564.574	1	34
564.744	1	33
564.914	1	20
565.084	1	34
565.254	1	34
565.424	1	24
565.594	1	30
565.764	1	29
565.934	1	38
566.104	1	35
566.274	1	24
566.444	1	25
566.614	1	23
566.783	1	17
566.953	1	33
567.123	1	22
567.293	1	10
567.463	1	37
567.633	1	24
567.803	1	25
567.973	1	27
568.143	1	22
568.313	1	24
568.483	1	42
568.653	1	15
568.823	1	16
568.993	1	27
569.162	1	24
569.332	1	21
569.502	1	30
569.672	1	31
569.842	1	20
570.012	1	14
570.182	1	22
570.352	1	20
570.522	1	17
570.692	1	23
570.862	1	11
571.031	1	26
571.201	1	27
571.371	1	18
571.541	1	22
571.711	1	18
571.881	1	12
572.051	1	21
572.221	1	24
572.391	1	18
572.561	1	22
572.731	1	17
572.900	1	20
573.070	1	24
573.240	1	17
573.410	1	31
573.580	1	26
573.750	1	16
573.920	1	26
574.090	1	17
574.260	1	24
574.430	1	24
574.599	1	22
574.769	1	22
574.939	1	15
575.109	1	28
575.279	1	14
575.449	1	13
575.619	1	10
575.789	1	19
575.959	1	15
576.128	1	12
576.298	1	9
576.468	1	22
576.638	1	26
576.808	1	21
576.978	1	20
577.148	1	5
577.318	1	28
577.487	1	17
577.657	1	12
577.827	1	27
577.997	1	8
578.167	1	33
578.337	1	19
578.507	1	9
578.677	1	16
578.846	1	10
579.016	1	20
579.186	1	27
579.356	1	17
579.526	1	6
579.696	1	23
579.866	1	11
580.036	1	20
580.205	1	11
580.375	1	12
580.545	1	17
580.715	1	17
580.885	1	24
581.055	1	14
581.225	1	19
581.394	1	12
581.564	1	24
581.734	1	20
581.904	1	20
582.074	1	19
582.244	1	24
582.414	1	8
582.583	1	24
582.753	1	20
582.923	1	6
583.093	1	18
583.263	1	13
583.433	1	13
583.603	1	12
583.772	1	27
583.942	1	12
584.112	1	24
584.282	1	13
584.452	1	20
584.622	1	13
584.791	1	19
584.961	1	9
585.131	1	15
585.301	1	6
585.471	1	9
585.641	1	25
585.811	1	16
585.980	1	20
586.150	1	15
586.320	1	12
586.490	1	3
586.660	1	11
586.830	1	12
586.999	1	16
587.169	1	14
587.339	1	19
587.509	1	15
587.679	1	13
587.849	1	19
588.018	1	14
588.188	1	18
588.358	1	28
588.528	1	9
588.698	1	13
588.867	1	12
589.037	1	17
589.207	1	18
589.377	1	16
589.547	1	20
589.717	1	19
589.886	1	14
590.056	1	14
590.226	1	11
590.396	1	12
590.566	1	15
590.735	1	10
590.905	1	10
591.075	1	18
591.245	1	5
591.415	1	17
591.585	1	8
591.754	1	8
591.924	1	15
592.094	1	18
592.264	1	7
592.434	1	10
592.603	1	-1
592.773	1	12
592.943	1	13
593.113	1	10
593.283	1	9
593.452	1	14
593.622	1	13
593.792	1	9
593.962	1	25
594.132	1	14
594.301	1	8
594.471	1	4
594.641	1	17
594.811	1	13
594.981	1	16
595.150	1	8
595.320	1	16
595.490	1	6
595.660	1	4
595.829	1	8
595.999	1	10
596.169	1	7
596.339	1	11
596.509	1	19
596.678	1	7
596.848	1	16
597.018	1	7
597.188	1	16
597.358	1	17
597.527	1	20
597.697	1	3
597.867	1	6
598.037	1	11
598.206	1	19
598.376	1	8
598.546	1	17
598.716	1	15
598.885	1	17
599.055	1	11
599.225	1	8
599.395	1	2
599.565	1	4
599.734	1	1
599.904	1	10
600.074	1	9
600.244	1	15
600.413	1	16
600.583	1	17
600.753	1	22
600.923	1	6
601.092	1	6
601.262	1	4
601.432	1	-5
601.602	1	8
601.771	1	14
601.941	1	4
602.111	1	13
602.281	1	21
602.451	1	1
602.620	1	10
602.790	1	8
602.960	1	-2
603.130	1	11
603.299	1	21
603.469	1	5
603.639	1	17
603.809	1	6
603.978	1	19
604.148	1	6
604.318	1	16
604.487	1	17
604.657	1	19
604.827	1	7
604.997	1	13
605.166	1	20
605.336	1	22
605.506	1	-2
605.676	1	8
605.845	1	20
606.015	1	8
606.185	1	6
606.355	1	-3
606.524	1	20
606.694	1	18
606.864	1	10
607.034	1	6
607.203	1	18
607.373	1	1
607.543	1	9
607.712	1	-1
607.882	1	21
608.052	1	1
608.222	1	12
608.391	1	5
608.561	1	13
608.731	1	4
608.901	1	17
609.070	1	15
609.240	1	9
609.410	1	3
609.579	1	7
609.749	1	7
609.919	1	-3
610.089	1	17
610.258	1	22
610.428	1	7
610.598	1	2
610.767	1	17
610.937	1	13
611.107	1	17
611.277	1	17
611.446	1	20
611.616	1	20
611.786	1	5
611.955	1	11
612.125	1	13
612.295	1	6
612.465	1	11
612.634	1	5
612.804	1	2
612.974	1	9
613.143	1	3
613.313	1	10
613.483	1	15
613.652	1	24
613.822	1	15
613.992	1	3
614.162	1	15
614.331	1	19
614.501	1	4
614.671	1	17
614.840	1	21
615.010	1	7
615.180	1	4
615.349	1	11
615.519	1	-2
615.689	1	8
615.858	1	9
616.028	1	16
616.198	1	23
616.368	1	21
616.537	1	0
616.707	1	14
616.877	1	1
617.046	1	12
617.216	1	6
617.386	1	16
617.555	1	15
617.725	1	3
617.895	1	13
618.064	1	4
618.234	1	1
618.404	1	4
618.573	1	12
618.743	1	18
618.913	1	9
619.082	1	16
619.252	1	-6
619.422	1	25
619.591	1	5
619.761	1	6
619.931	1	20
620.100	1	13
620.270	1	3
620.440	1	21
620.609	1	3
620.779	1	13
620.949	1	11
621.118	1	12
621.288	1	10
621.458	1	1
621.627	1	9
621.797	1	6
621.967	1	6
622.136	1	-2
622.306	1	1
622.476	1	6
622.645	1	15
622.815	1	14
622.985	1	11
623.154	1	8
623.324	1	2
623.494	1	3
623.663	1	6
623.833	1	-2
624.002	1	10
624.172	1	7
624.342	1	14
624.511	1	4
624.681	1	18
624.851	1	8
625.020	1	14
625.190	1	1
625.360	1	11
625.529	1	8
625.699	1	24
625.869	1	11
626.038	1	2
626.208	1	3
626.377	1	16
626.547	1	9
626.717	1	4
626.886	1	5
627.056	1	10
627.226	1	7
627.395	1	-5
627.565	1	16
627.735	1	17
627.904	1	4
628.074	1	15
628.243	1	13
628.413	1	12
628.583	1	13
628.752	1	4
628.922	1	14
629.091	1	13
629.261	1	9
629.431	1	7
629.600	1	9
629.770	1	14
629.940	1	17
630.109	1	3
630.279	1	20
630.448	1	8
630.618	1	13
630.788	1	2
630.957	1	14
631.127	1	5
631.297	1	9
631.466	1	14
631.636	1	6
631.805	1	13
631.975	1	11
632.145	1	8
632.314	1	7
632.484	1	12
632.653	1	13
632.823	1	1
632.993	1	3
633.162	1	1
633.332	1	10
633.501	1	2
633.671	1	10
633.841	1	9
634.010	1	12
634.180	1	3
634.349	1	20
634.519	1	8
634.689	1	-2
634.858	1	11
635.028	1	4
635.197	1	9
635.367	1	13
635.537	1	23
635.706	1	5
635.876	1	18
636.045	1	-9
636.215	1	2
636.384	1	11
636.554	1	4
636.724	1	4
636.893	1	10
637.063	1	7
637.232	1	16
637.402	1	15
637.572	1	12
637.741	1	5
637.911	1	9
638.080	1	11
638.250	1	6
638.419	1	8
638.589	1	19
638.759	1	15
638.928	1	8
639.098	1	1
639.267	1	19
639.437	1	-2
639.606	1	17
639.776	1	10
639.946	1	18
640.115	1	1
640.285	1	3
640.454	1	1
640.624	1	1
640.793	1	9
640.963	1	8
641.132	1	9
641.302	1	21
641.472	1	17
641.641	1	5
641.811	1	8
641.980	1	14
642.150	1	-3
642.319	1	21
642.489	1	11
642.659	1	18
642.828	1	23
642.998	1	6
643.167	1	6
643.337	1	7
643.506	1	5
643.676	1	13
643.845	1	21
644.015	1	6
644.184	1	12
644.354	1	9
644.524	1	13
644.693	1	1
644.863	1	20
645.032	1	10
645.202	1	9
645.371	1	12
645.541	1	3
645.710	1	17
645.880	1	7
646.049	1	14
646.219	1	9
646.388	1	7
646.558	1	-1
646.728	1	4
646.897	1	-4
647.067	1	17
647.236	1	-2
647.406	1	7
647.575	1	6
647.745	1	3
647.914	1	14
648.084	1	4
648.253	1	21
648.423	1	7
648.592	1	17
648.762	1	9
648.931	1	6
649.101	1	2
649.270	1	10
649.440	1	12
649.610	1	7
649.779	1	11
649.949	1	2
650.118	1	6
650.288	1	10
650.457	1	9
650.627	1	1
650.796	1	4
650.966	1	13
651.135	1	11
651.305	1	16
651.474	1	12
651.644	1	12
651.813	1	5
651.983	1	-2
652.152	1	8
652.322	1	4
652.491	1	9
652.661	1	13
652.830	1	8
653.000	1	8
653.169	1	4
653.339	1	6
653.508	1	7
653.678	1	11
653.847	1	4
654.017	1	16
654.186	1	3
654.356	1	11
654.525	1	16
654.695	1	21
654.864	1	1
655.034	1	7
655.203	1	10
655.373	1	7
655.542	1	5
655.712	1	15
655.881	1	11
656.051	1	-3
656.220	1	11
656.390	1	5
656.559	1	14
656.729	1	19
656.898	1	11
657.068	1	14
657.237	1	14
657.406	1	-6
657.576	1	3
657.745	1	10
657.915	1	11
658.084	1	12
658.254	1	9
658.423	1	8
658.593	1	15
658.762	1	-2
658.932	1	12
659.101	1	4
659.271	1	11
659.440	1	2
659.610	1	11
659.779	1	8
659.949	1	6
660.118	1	6
660.288	1	-2
660.457	1	7
660.626	1	5
660.796	1	2
660.965	1	4
661.135	1	10
661.304	1	10
661.474	1	5
661.643	1	9
661.813	1	3
661.982	1	0
662.152	1	5
662.321	1	2
662.491	1	3
662.660	1	13
662.829	1	9
662.999	1	20
663.168	1	12
663.338	1	3
663.507	1	15
663.677	1	0
663.846	1	8
664.016	1	-5
664.185	1	4
664.354	1	6
664.524	1	11
664.693	1	7
664.863	1	-2
665.032	1	12
665.202	1	4
665.371	1	14
665.541	1	5
665.710	1	18
665.879	1	10
666.049	1	12
666.218	1	6
666.388	1	5
666.557	1	-2
666.727	1	4
666.896	1	12
667.065	1	9
667.235	1	-3
667.404	1	12
667.574	1	-6
667.743	1	5
667.913	1	8
668.082	1	8
668.251	1	-5
668.421	1	9
668.590	1	12
668.760	1	5
668.929	1	6
669.099	1	13
669.268	1	3
669.437	1	2
669.607	1	2
669.776	1	8
669.946	1	9
670.115	1	3
670.285	1	2
670.454	1	11
670.623	1	6
670.793	1	1
670.962	1	-3
671.132	1	6
671.301	1	5
671.470	1	12
671.640	1	11
671.809	1	5
671.979	1	-2
672.148	1	6
672.317	1	6
672.487	1	4
672.656	1	14
672.826	1	3
672.995	1	1
673.164	1	1
673.334	1	0
673.503	1	9
673.673	1	24
673.842	1	6
674.011	1	14
674.181	1	9
674.350	1	6
674.520	1	6
674.689	1	-2
674.858	1	-5
675.028	1	10
675.197	1	8
675.367	1	8
675.536	1	5
675.705	1	6
675.875	1	10
676.044	1	-5
676.214	1	13
676.383	1	4
676.552	1	1
676.722	1	3
676.891	1	6
677.060	1	12
677.230	1	14
677.399	1	14
677.569	1	11
677.738	1	1
677.907	1	19
678.077	1	3
678.246	1	6
678.416	1	7
678.585	1	4
678.754	1	6
678.924	1	3
679.093	1	8
679.262	1	6
679.432	1	3
679.601	1	8
679.771	1	8
679.940	1	5
680.109	1	14
680.279	1	4
680.448	1	4
680.617	1	5
680.787	1	-3
680.956	1	16
681.125	1	-2
681.295	1	0
681.464	1	16
681.634	1	6
681.803	1	2
681.972	1	12
682.142	1	6
682.311	1	5
682.480	1	3
682.650	1	4
682.819	1	10
682.988	1	9
683.158	1	2
683.327	1	9
683.496	1	6
683.666	1	13
683.835	1	9
684.004	1	-5
684.174	1	12
684.343	1	11
684.512	1	8
684.682	1	15
684.851	1	-1
685.021	1	10
685.190	1	9
685.359	1	2
685.529	1	10
685.698	1	5
685.867	1	7
686.037	1	-2
686.206	1	-2
686.375	1	7
686.545	1	10
686.714	1	19
686.883	1	15
687.053	1	22
687.222	1	0
687.391	1	4
687.561	1	9
687.730	1	17
687.899	1	10
688.069	1	9
688.238	1	17
688.407	1	9
688.577	1	5
688.746	1	13
