340.368	1	3
340.539	1	-3
340.710	1	2
340.881	1	-5
341.052	1	0
341.223	1	0
341.394	1	2
341.565	1	6
341.737	1	6
341.908	1	12
342.079	1	4
342.250	1	2
342.421	1	-5
342.592	1	7
342.763	1	-4
342.934	1	-6
343.105	1	8
343.276	1	2
343.447	1	7
343.618	1	17
343.789	1	3
343.960	1	3
344.131	1	-13
344.302	1	0
344.473	1	-4
344.644	1	4
344.815	1	2
344.986	1	14
345.157	1	8
345.328	1	5
345.499	1	-6
345.670	1	-5
345.841	1	11
346.012	1	1
346.183	1	5
346.354	1	-5
346.526	1	4
346.697	1	0
346.868	1	2
347.039	1	-4
347.210	1	6
347.381	1	16
347.552	1	16
347.723	1	13
347.894	1	2
348.065	1	-1
348.236	1	6
348.407	1	5
348.578	1	6
348.749	1	10
348.920	1	10
349.091	1	6
349.262	1	12
349.433	1	-7
349.604	1	-13
349.775	1	4
349.946	1	-4
350.117	1	3
350.288	1	-5
350.459	1	6
350.630	1	1
350.801	1	-4
350.972	1	5
351.143	1	6
351.314	1	-6
351.485	1	-1
351.656	1	6
351.827	1	5
351.998	1	6
352.169	1	6
352.340	1	7
352.511	1	-2
352.682	1	-7
352.853	1	-8
353.024	1	14
353.195	1	-9
353.366	1	9
353.537	1	0
353.708	1	6
353.879	1	12
354.050	1	-4
354.221	1	-7
354.392	1	0
354.563	1	16
354.734	1	0
354.905	1	-4
355.076	1	8
355.247	1	4
355.418	1	5
355.589	1	4
355.760	1	5
355.931	1	7
356.102	1	3
356.273	1	13
356.444	1	19
356.615	1	-1
356.785	1	4
356.956	1	6
357.127	1	11
357.298	1	0
357.469	1	2
357.640	1	4
357.811	1	-3
357.982	1	2
358.153	1	-10
358.324	1	6
358.495	1	3
358.666	1	-3
358.837	1	9
359.008	1	1
359.179	1	1
359.350	1	-1
359.521	1	8
359.692	1	-2
359.863	1	-5
360.034	1	2
360.205	1	11
360.376	1	-6
360.547	1	6
360.718	1	6
360.889	1	1
361.060	1	11
361.231	1	7
361.401	1	-3
361.572	1	7
361.743	1	2
361.914	1	9
362.085	1	8
362.256	1	6
362.427	1	11
362.598	1	11
362.769	1	6
362.940	1	3
363.111	1	2
363.282	1	-2
363.453	1	8
363.624	1	-6
363.795	1	0
363.966	1	3
364.137	1	8
364.308	1	19
364.478	1	18
364.649	1	12
364.820	1	6
364.991	1	7
365.162	1	12
365.333	1	6
365.504	1	3
365.675	1	2
365.846	1	5
366.017	1	10
366.188	1	5
366.359	1	13
366.530	1	10
366.701	1	-3
366.871	1	10
367.042	1	19
367.213	1	13
367.384	1	4
367.555	1	14
367.726	1	6
367.897	1	15
368.068	1	16
368.239	1	18
368.410	1	17
368.581	1	17
368.752	1	24
368.923	1	-3
369.093	1	13
369.264	1	16
369.435	1	13
369.606	1	13
369.777	1	14
369.948	1	1
370.119	1	10
370.290	1	22
370.461	1	18
370.632	1	17
370.803	1	6
370.973	1	15
371.144	1	19
371.315	1	7
371.486	1	11
371.657	1	13
371.828	1	7
371.999	1	5
372.170	1	5
372.341	1	4
372.512	1	5
372.682	1	18
372.853	1	15
373.024	1	25
373.195	1	2
373.366	1	8
373.537	1	-4
373.708	1	0
373.879	1	2
374.050	1	15
374.220	1	16
374.391	1	10
374.562	1	20
374.733	1	18
374.904	1	8
375.075	1	3
375.246	1	6
375.417	1	2
375.588	1	-2
375.758	1	5
375.929	1	11
376.100	1	13
376.271	1	2
376.442	1	5
376.613	1	10
376.784	1	12
376.955	1	4
377.125	1	-7
377.296	1	5
377.467	1	11
377.638	1	0
377.809	1	-4
377.980	1	0
378.151	1	-2
378.321	1	5
378.492	1	-4
378.663	1	7
378.834	1	4
379.005	1	7
379.176	1	-1
379.347	1	5
379.518	1	-1
379.688	1	13
379.859	1	5
380.030	1	12
380.201	1	2
380.372	1	4
380.543	1	5
380.714	1	-3
380.884	1	6
381.055	1	-10
381.226	1	6
381.397	1	4
381.568	1	-9
381.739	1	-5
381.910	1	12
382.080	1	10
382.251	1	4
382.422	1	8
382.593	1	0
382.764	1	4
382.935	1	-5
383.105	1	5
383.276	1	7
383.447	1	-2
383.618	1	0
383.789	1	-1
383.960	1	4
384.130	1	12
384.301	1	-4
384.472	1	-6
384.643	1	0
384.814	1	9
384.985	1	4
385.156	1	1
385.326	1	-6
385.497	1	15
385.668	1	0
385.839	1	10
386.010	1	1
386.180	1	-1
386.351	1	-5
386.522	1	4
386.693	1	8
386.864	1	-3
387.035	1	4
387.205	1	-5
387.376	1	5
387.547	1	-1
387.718	1	-5
387.889	1	-2
388.060	1	8
388.230	1	9
388.401	1	-2
388.572	1	-6
388.743	1	-6
388.914	1	4
389.084	1	5
389.255	1	-3
389.426	1	4
389.597	1	1
389.768	1	2
389.939	1	11
390.109	1	1
390.280	1	-7
390.451	1	5
390.622	1	4
390.793	1	1
390.963	1	-12
391.134	1	8
391.305	1	1
391.476	1	7
391.647	1	7
391.817	1	-2
391.988	1	-7
392.159	1	0
392.330	1	3
392.501	1	-2
392.671	1	6
392.842	1	-4
393.013	1	5
393.184	1	6
393.355	1	6
393.525	1	-1
393.696	1	3
393.867	1	0
394.038	1	8
394.208	1	-4
394.379	1	0
394.550	1	4
394.721	1	3
394.892	1	11
395.062	1	-8
395.233	1	8
395.404	1	5
395.575	1	12
395.746	1	-8
395.916	1	-1
396.087	1	9
396.258	1	-2
396.429	1	2
396.599	1	8
396.770	1	2
396.941	1	1
397.112	1	3
397.283	1	13
397.453	1	-7
397.624	1	4
397.795	1	-9
397.966	1	0
398.136	1	-2
398.307	1	8
398.478	1	-2
398.649	1	-8
398.819	1	4
398.990	1	13
399.161	1	7
399.332	1	7
399.503	1	12
399.673	1	-1
399.844	1	-9
400.015	1	-1
400.186	1	9
400.356	1	-1
400.527	1	5
400.698	1	9
400.869	1	0
401.039	1	0
401.210	1	-1
401.381	1	1
401.552	1	6
401.722	1	3
401.893	1	2
402.064	1	7
402.235	1	5
402.405	1	-3
402.576	1	-2
402.747	1	12
402.918	1	-8
403.088	1	5
403.259	1	2
403.430	1	-1
403.601	1	14
403.771	1	-11
403.942	1	9
404.113	1	9
404.284	1	13
404.454	1	3
404.625	1	1
404.796	1	8
404.967	1	-1
405.137	1	12
405.308	1	-8
405.479	1	8
405.649	1	0
405.820	1	-3
405.991	1	-5
406.162	1	4
406.332	1	-3
406.503	1	5
406.674	1	3
406.845	1	14
407.015	1	3
407.186	1	-5
407.357	1	8
407.527	1	-8
407.698	1	1
407.869	1	-3
408.040	1	16
408.210	1	8
408.381	1	-5
408.552	1	-8
408.722	1	14
408.893	1	1
409.064	1	3
409.235	1	5
409.405	1	-2
409.576	1	4
409.747	1	-1
409.917	1	18
410.088	1	16
410.259	1	-6
410.430	1	9
410.600	1	1
410.771	1	12
410.942	1	10
411.112	1	4
411.283	1	0
411.454	1	-2
411.625	1	3
411.795	1	-3
411.966	1	12
412.137	1	2
412.307	1	5
412.478	1	4
412.649	1	3
412.819	1	3
412.990	1	7
413.161	1	12
413.332	1	9
413.502	1	-5
413.673	1	2
413.844	1	12
414.014	1	-1
414.185	1	3
414.356	1	12
414.526	1	-4
414.697	1	14
414.868	1	2
415.038	1	3
415.209	1	1
415.380	1	-9
415.550	1	1
415.721	1	-1
415.892	1	0
416.063	1	3
416.233	1	5
416.404	1	8
416.575	1	-14
416.745	1	-4
416.916	1	8
417.087	1	-11
417.257	1	-1
417.428	1	3
417.599	1	6
417.769	1	0
417.940	1	4
418.111	1	7
418.281	1	22
418.452	1	11
418.623	1	4
418.793	1	-1
418.964	1	7
419.135	1	3
419.305	1	-1
419.476	1	8
419.647	1	4
419.817	1	7
419.988	1	1
420.159	1	10
420.329	1	3
420.500	1	4
420.671	1	8
420.841	1	-1
421.012	1	-8
421.183	1	4
421.353	1	3
421.524	1	0
421.695	1	4
421.865	1	4
422.036	1	11
422.206	1	7
422.377	1	-3
422.548	1	8
422.718	1	9
422.889	1	3
423.060	1	9
423.230	1	-2
423.401	1	4
423.572	1	-5
423.742	1	18
423.913	1	-4
424.084	1	8
424.254	1	2
424.425	1	10
424.595	1	6
424.766	1	1
424.937	1	9
425.107	1	-3
425.278	1	4
425.449	1	0
425.619	1	8
425.790	1	7
425.961	1	16
426.131	1	-2
426.302	1	-8
426.472	1	7
426.643	1	4
426.814	1	6
426.984	1	-4
427.155	1	2
427.326	1	1
427.496	1	12
427.667	1	-6
427.837	1	7
428.008	1	3
428.179	1	12
428.349	1	-1
428.520	1	10
428.691	1	12
428.861	1	9
429.032	1	-2
429.202	1	-10
429.373	1	1
429.544	1	-3
429.714	1	8
429.885	1	-1
430.055	1	6
430.226	1	-4
430.397	1	-4
430.567	1	-4
430.738	1	17
430.909	1	3
431.079	1	5
431.250	1	8
431.420	1	-3
431.591	1	-2
431.762	1	-9
431.932	1	5
432.103	1	9
432.273	1	11
432.444	1	9
432.615	1	-3
432.785	1	4
432.956	1	7
433.126	1	0
433.297	1	2
433.468	1	-1
433.638	1	8
433.809	1	-2
433.979	1	3
434.150	1	8
434.320	1	7
434.491	1	14
434.662	1	4
434.832	1	-4
435.003	1	12
435.173	1	5
435.344	1	1
435.515	1	6
435.685	1	0
435.856	1	9
436.026	1	1
436.197	1	-7
436.368	1	-6
436.538	1	4
436.709	1	-1
436.879	1	-3
437.050	1	-4
437.220	1	15
437.391	1	6
437.562	1	5
437.732	1	8
437.903	1	1
438.073	1	-3
438.244	1	1
438.414	1	8
438.585	1	9
438.756	1	2
438.926	1	5
439.097	1	0
439.267	1	5
439.438	1	4
439.608	1	-2
439.779	1	2
439.949	1	5
440.120	1	-4
440.291	1	14
440.461	1	-2
440.632	1	5
440.802	1	6
440.973	1	12
441.143	1	9
441.314	1	-4
441.485	1	7
441.655	1	4
441.826	1	2
441.996	1	7
442.167	1	2
442.337	1	-2
442.508	1	5
442.678	1	0
442.849	1	0
443.019	1	-2
443.190	1	14
443.361	1	10
443.531	1	6
443.702	1	-2
443.872	1	-3
444.043	1	5
444.213	1	-12
444.384	1	3
444.554	1	4
444.725	1	17
444.895	1	0
445.066	1	0
445.237	1	14
445.407	1	-3
445.578	1	-9
445.748	1	2
445.919	1	5
446.089	1	1
446.260	1	8
446.430	1	3
446.601	1	4
446.771	1	5
446.942	1	-6
447.112	1	6
447.283	1	2
447.453	1	-9
447.624	1	-13
447.794	1	1
447.965	1	8
448.135	1	5
448.306	1	0
448.477	1	-1
448.647	1	1
448.818	1	2
448.988	1	4
449.159	1	-4
449.329	1	7
449.500	1	6
449.670	1	5
449.841	1	8
450.011	1	1
450.182	1	4
450.352	1	-10
450.523	1	3
450.693	1	9
450.864	1	7
451.034	1	-3
451.205	1	13
451.375	1	4
451.546	1	5
451.716	1	0
451.887	1	5
452.057	1	4
452.228	1	4
452.398	1	17
452.569	1	4
452.739	1	-5
452.910	1	0
453.080	1	8
453.251	1	1
453.421	1	8
453.592	1	5
453.762	1	7
453.933	1	2
454.103	1	1
454.274	1	9
454.444	1	-1
454.615	1	2
454.785	1	9
454.956	1	11
455.126	1	10
455.297	1	-4
455.467	1	8
455.638	1	-2
455.808	1	10
455.979	1	3
456.149	1	0
456.320	1	13
456.490	1	-8
456.661	1	1
456.831	1	3
457.001	1	9
457.172	1	1
457.342	1	-4
457.513	1	0
457.683	1	0
457.854	1	3
458.024	1	10
458.195	1	7
458.365	1	-4
458.536	1	8
458.706	1	19
458.877	1	1
459.047	1	-6
459.218	1	3
459.388	1	3
459.559	1	7
459.729	1	8
459.899	1	-3
460.070	1	20
460.240	1	4
460.411	1	15
460.581	1	-6
460.752	1	-2
460.922	1	5
461.093	1	3
461.263	1	9
461.434	1	-2
461.604	1	6
461.775	1	4
461.945	1	10
462.115	1	4
462.286	1	-5
462.456	1	-3
462.627	1	1
462.797	1	2
462.968	1	11
463.138	1	-12
463.309	1	7
463.479	1	-1
463.649	1	6
463.820	1	6
463.990	1	3
464.161	1	0
464.331	1	2
464.502	1	2
464.672	1	7
464.843	1	18
465.013	1	15
465.183	1	-11
465.354	1	8
465.524	1	8
465.695	1	0
465.865	1	0
466.036	1	10
466.206	1	-4
466.376	1	7
466.547	1	8
466.717	1	-3
466.888	1	-1
467.058	1	3
467.229	1	10
467.399	1	-5
467.569	1	1
467.740	1	10
467.910	1	8
468.081	1	2
468.251	1	0
468.422	1	5
468.592	1	-10
468.762	1	-1
468.933	1	-1
469.103	1	4
469.274	1	6
469.444	1	8
469.614	1	-7
469.785	1	-5
469.955	1	2
470.126	1	4
470.296	1	0
470.467	1	2
470.637	1	-1
470.807	1	5
470.978	1	-8
471.148	1	-7
471.319	1	7
471.489	1	7
471.659	1	-10
471.830	1	8
472.000	1	-9
472.171	1	3
472.341	1	3
472.511	1	10
472.682	1	9
472.852	1	1
473.023	1	7
473.193	1	8
473.363	1	2
473.534	1	1
473.704	1	1
473.875	1	4
474.045	1	0
474.215	1	-7
474.386	1	4
474.556	1	-1
474.727	1	-3
474.897	1	-3
475.067	1	3
475.238	1	6
475.408	1	-5
475.578	1	-1
475.749	1	-5
475.919	1	-12
476.090	1	-2
476.260	1	-2
476.430	1	-14
476.601	1	1
476.771	1	-5
476.942	1	1
477.112	1	9
477.282	1	-3
477.453	1	-5
477.623	1	-4
477.793	1	-2
477.964	1	3
478.134	1	6
478.305	1	5
478.475	1	3
478.645	1	1
478.816	1	5
478.986	1	5
479.156	1	-3
479.327	1	3
479.497	1	-1
479.667	1	1
479.838	1	8
480.008	1	4
480.179	1	6
480.349	1	-1
480.519	1	-4
480.690	1	10
480.860	1	-5
481.030	1	-5
481.201	1	-2
481.371	1	1
481.541	1	-2
481.712	1	15
481.882	1	-8
482.053	1	12
482.223	1	6
482.393	1	12
482.564	1	7
482.734	1	5
482.904	1	-1
483.075	1	0
483.245	1	1
483.415	1	-5
483.586	1	2
483.756	1	3
483.926	1	1
484.097	1	6
484.267	1	9
484.437	1	10
484.608	1	2
484.778	1	-8
484.948	1	8
485.119	1	-1
485.289	1	0
485.459	1	-6
485.630	1	10
485.800	1	0
485.970	1	-4
486.141	1	6
486.311	1	5
486.481	1	-13
486.652	1	-6
486.822	1	9
486.992	1	9
487.163	1	-10
487.333	1	-4
487.503	1	6
487.674	1	1
487.844	1	-13
488.014	1	8
488.185	1	7
488.355	1	3
488.525	1	-2
488.696	1	7
488.866	1	-5
489.036	1	11
489.207	1	6
489.377	1	11
489.547	1	-1
489.718	1	-4
489.888	1	5
490.058	1	12
490.228	1	-1
490.399	1	4
490.569	1	-8
490.739	1	-4
490.910	1	8
491.080	1	0
491.250	1	13
491.421	1	4
491.591	1	4
491.761	1	-1
491.932	1	9
492.102	1	5
492.272	1	-17
492.442	1	6
492.613	1	7
492.783	1	6
492.953	1	1
493.124	1	11
493.294	1	-2
493.464	1	-7
493.635	1	2
493.805	1	11
493.975	1	11
494.145	1	-1
494.316	1	-5
494.486	1	7
494.656	1	12
494.827	1	5
494.997	1	-8
495.167	1	10
495.337	1	-1
495.508	1	9
495.678	1	6
495.848	1	0
496.019	1	-10
496.189	1	3
496.359	1	-7
496.529	1	0
496.700	1	0
496.870	1	4
497.040	1	-5
497.211	1	-8
497.381	1	-2
497.551	1	-1
497.721	1	-1
497.892	1	0
498.062	1	-2
498.232	1	0
498.403	1	11
498.573	1	2
498.743	1	-2
498.913	1	-4
499.084	1	13
499.254	1	-5
499.424	1	-2
499.594	1	6
499.765	1	4
499.935	1	9
500.105	1	5
500.275	1	3
500.446	1	3
500.616	1	-4
500.786	1	-6
500.956	1	9
501.127	1	9
501.297	1	6
501.467	1	9
501.638	1	3
501.808	1	2
501.978	1	-1
502.148	1	-3
502.319	1	7
502.489	1	-2
502.659	1	4
502.829	1	-11
503.000	1	5
503.170	1	8
503.340	1	-6
503.510	1	2
503.681	1	6
503.851	1	7
504.021	1	-5
504.191	1	-2
504.362	1	-7
504.532	1	13
504.702	1	-6
504.872	1	2
505.042	1	2
505.213	1	0
505.383	1	9
505.553	1	1
505.723	1	5
505.894	1	-3
506.064	1	0
506.234	1	7
506.404	1	8
506.575	1	7
506.745	1	-2
506.915	1	3
507.085	1	7
507.256	1	5
507.426	1	-1
507.596	1	15
507.766	1	-3
507.936	1	13
508.107	1	-13
508.277	1	12
508.447	1	-9
508.617	1	12
508.788	1	3
508.958	1	7
509.128	1	2
509.298	1	-2
509.468	1	5
509.639	1	-9
509.809	1	-2
509.979	1	-6
510.149	1	5
510.319	1	2
510.490	1	6
510.660	1	-8
510.830	1	-12
511.000	1	3
511.171	1	4
511.341	1	17
511.511	1	-1
511.681	1	2
511.851	1	15
512.022	1	1
512.192	1	4
512.362	1	-3
512.532	1	9
512.702	1	-1
512.873	1	-6
513.043	1	6
513.213	1	5
513.383	1	-1
513.553	1	8
513.724	1	-3
513.894	1	-2
514.064	1	3
514.234	1	1
514.404	1	9
514.575	1	-5
514.745	1	-2
514.915	1	5
515.085	1	3
515.255	1	-3
515.425	1	1
515.596	1	3
515.766	1	5
515.936	1	3
516.106	1	-2
516.276	1	0
516.447	1	13
516.617	1	1
516.787	1	3
516.957	1	6
517.127	1	6
517.297	1	2
517.468	1	13
517.638	1	11
517.808	1	1
517.978	1	3
518.148	1	12
518.319	1	-8
518.489	1	-5
518.659	1	6
518.829	1	3
518.999	1	7
519.169	1	-6
519.340	1	7
519.510	1	-3
519.680	1	9
519.850	1	4
520.020	1	2
520.190	1	0
520.361	1	-3
520.531	1	6
520.701	1	7
520.871	1	-7
521.041	1	16
521.211	1	10
521.382	1	-3
521.552	1	0
521.722	1	11
521.892	1	4
522.062	1	-4
522.232	1	4
522.402	1	18
522.573	1	4
522.743	1	10
522.913	1	13
523.083	1	-5
523.253	1	7
523.423	1	3
523.593	1	19
523.764	1	-1
523.934	1	0
524.104	1	5
524.274	1	7
524.444	1	14
524.614	1	5
524.784	1	1
524.955	1	1
525.125	1	3
525.295	1	2
525.465	1	11
525.635	1	5
525.805	1	11
525.975	1	-1
526.146	1	7
526.316	1	1
526.486	1	5
526.656	1	5
526.826	1	4
526.996	1	-1
527.166	1	-5
527.337	1	8
527.507	1	7
527.677	1	17
527.847	1	-6
528.017	1	-8
528.187	1	14
528.357	1	1
528.527	1	6
528.698	1	-4
528.868	1	-5
529.038	1	0
529.208	1	-2
529.378	1	1
529.548	1	18
529.718	1	5
529.888	1	9
530.058	1	9
530.229	1	7
530.399	1	5
530.569	1	-7
530.739	1	7
530.909	1	2
531.079	1	1
531.249	1	-4
531.419	1	-1
531.589	1	1
531.760	1	10
531.930	1	9
532.100	1	8
532.270	1	7
532.440	1	7
532.610	1	4
532.780	1	-1
532.950	1	11
533.120	1	4
533.290	1	4
533.461	1	1
533.631	1	0
533.801	1	13
533.971	1	5
534.141	1	8
534.311	1	-8
534.481	1	17
534.651	1	-5
534.821	1	1
534.991	1	0
535.162	1	3
535.332	1	3
535.502	1	10
535.672	1	-3
535.842	1	-2
536.012	1	1
536.182	1	4
536.352	1	12
536.522	1	0
536.692	1	1
536.862	1	-2
537.032	1	11
537.203	1	6
537.373	1	3
537.543	1	2
537.713	1	2
537.883	1	1
538.053	1	3
538.223	1	9
538.393	1	0
538.563	1	7
538.733	1	16
538.903	1	2
539.073	1	-1
539.243	1	8
539.413	1	-2
539.584	1	0
539.754	1	4
539.924	1	0
540.094	1	11
540.264	1	19
540.434	1	8
540.604	1	22
540.774	1	-1
540.944	1	5
541.114	1	7
541.284	1	10
541.454	1	-4
541.624	1	3
541.794	1	4
541.964	1	-2
542.134	1	0
542.305	1	11
542.475	1	6
542.645	1	6
542.815	1	5
542.985	1	-2
543.155	1	-1
543.325	1	4
543.495	1	4
543.665	1	11
543.835	1	-4
544.005	1	5
544.175	1	-3
544.345	1	8
544.515	1	5
544.685	1	9
544.855	1	0
545.025	1	10
545.195	1	-1
545.365	1	3
545.535	1	2
545.705	1	3
545.875	1	0
546.045	1	5
546.216	1	-4
546.386	1	0
546.556	1	-1
546.726	1	2
546.896	1	5
547.066	1	-3
547.236	1	6
547.406	1	-9
547.576	1	-1
547.746	1	8
547.916	1	6
548.086	1	7
548.256	1	2
548.426	1	-3
548.596	1	5
548.766	1	9
548.936	1	9
549.106	1	6
549.276	1	4
549.446	1	10
549.616	1	3
549.786	1	0
549.956	1	1
550.126	1	6
550.296	1	7
550.466	1	1
550.636	1	-2
550.806	1	9
550.976	1	2
551.146	1	4
551.316	1	12
551.486	1	4
551.656	1	-3
551.826	1	0
551.996	1	5
552.166	1	4
552.336	1	-1
552.506	1	-4
552.676	1	4
552.846	1	9
553.016	1	0
553.186	1	-7
553.356	1	6
553.526	1	1
553.696	1	-1
553.866	1	0
554.036	1	5
554.206	1	10
554.376	1	13
554.546	1	11
554.716	1	3
554.886	1	-1
555.056	1	0
555.226	1	9
555.396	1	7
555.566	1	5
555.736	1	-1
555.906	1	1
556.076	1	-5
556.246	1	6
556.416	1	8
556.586	1	1
556.756	1	-6
556.926	1	1
557.096	1	6
557.266	1	9
557.436	1	4
557.606	1	-1
557.776	1	9
557.946	1	4
558.116	1	2
558.286	1	-7
558.456	1	2
558.626	1	15
558.796	1	11
558.966	1	7
559.136	1	8
559.306	1	0
559.476	1	-7
559.646	1	8
559.816	1	-4
559.986	1	9
560.155	1	4
560.325	1	-3
560.495	1	4
560.665	1	7
560.835	1	0
561.005	1	0
561.175	1	0
561.345	1	-11
561.515	1	5
561.685	1	3
561.855	1	-5
562.025	1	5
562.195	1	0
562.365	1	2
562.535	1	6
562.705	1	5
562.875	1	5
563.045	1	6
563.215	1	-5
563.385	1	8
563.555	1	6
563.725	1	3
563.895	1	5
564.064	1	-4
564.234	1	-12
564.404	1	-2
564.574	1	0
564.744	1	12
564.914	1	3
565.084	1	4
565.254	1	12
565.424	1	-5
565.594	1	6
565.764	1	-2
565.934	1	14
566.104	1	4
566.274	1	-1
566.444	1	7
566.614	1	9
566.783	1	11
566.953	1	9
567.123	1	8
567.293	1	-6
567.463	1	2
567.633	1	8
567.803	1	3
567.973	1	-7
568.143	1	-3
568.313	1	4
568.483	1	15
568.653	1	-5
568.823	1	5
568.993	1	0
569.162	1	5
569.332	1	-1
569.502	1	3
569.672	1	1
569.842	1	-10
570.012	1	-11
570.182	1	0
570.352	1	15
570.522	1	-4
570.692	1	8
570.862	1	-7
571.031	1	7
571.201	1	12
571.371	1	-6
571.541	1	-3
571.711	1	1
571.881	1	0
572.051	1	13
572.221	1	3
572.391	1	5
572.561	1	12
572.731	1	2
572.900	1	2
573.070	1	-4
573.240	1	1
573.410	1	10
573.580	1	1
573.750	1	-3
573.920	1	13
574.090	1	5
574.260	1	7
574.430	1	-3
574.599	1	12
574.769	1	1
574.939	1	9
575.109	1	-2
575.279	1	-1
575.449	1	-7
575.619	1	-10
575.789	1	3
575.959	1	-5
576.128	1	-8
576.298	1	-5
576.468	1	3
576.638	1	1
576.808	1	-1
576.978	1	8
577.148	1	-1
577.318	1	-4
577.487	1	-5
577.657	1	-1
577.827	1	-2
577.997	1	8
578.167	1	8
578.337	1	0
578.507	1	-1
578.677	1	1
578.846	1	-9
579.016	1	-4
579.186	1	3
579.356	1	5
579.526	1	-1
579.696	1	6
579.866	1	-1
580.036	1	6
580.205	1	-1
580.375	1	2
580.545	1	-3
580.715	1	1
580.885	1	-2
581.055	1	5
581.225	1	3
581.394	1	4
581.564	1	-3
581.734	1	3
581.904	1	-4
582.074	1	7
582.244	1	-5
582.414	1	1
582.583	1	1
582.753	1	1
582.923	1	-7
583.093	1	9
583.263	1	9
583.433	1	3
583.603	1	6
583.772	1	6
583.942	1	0
584.112	1	-3
584.282	1	-2
584.452	1	2
584.622	1	-2
584.791	1	10
584.961	1	-3
585.131	1	10
585.301	1	-6
585.471	1	5
585.641	1	5
585.811	1	12
585.980	1	-7
586.150	1	5
586.320	1	-4
586.490	1	3
586.660	1	9
586.830	1	6
586.999	1	8
587.169	1	-3
587.339	1	0
587.509	1	0
587.679	1	5
587.849	1	7
588.018	1	3
588.188	1	10
588.358	1	13
588.528	1	6
588.698	1	2
588.867	1	10
589.037	1	-5
589.207	1	7
589.377	1	6
589.547	1	9
589.717	1	13
589.886	1	3
590.056	1	1
590.226	1	-1
590.396	1	0
590.566	1	2
590.735	1	9
590.905	1	-5
591.075	1	-4
591.245	1	-7
591.415	1	-2
591.585	1	-7
591.754	1	4
591.924	1	11
592.094	1	7
592.264	1	-3
592.434	1	-6
592.603	1	-17
592.773	1	6
592.943	1	1
593.113	1	7
593.283	1	10
593.452	1	8
593.622	1	-1
593.792	1	-7
593.962	1	9
594.132	1	1
594.301	1	-5
594.471	1	-5
594.641	1	-1
594.811	1	-1
594.981	1	3
595.150	1	-4
595.320	1	5
595.490	1	-9
595.660	1	4
595.829	1	-4
595.999	1	3
596.169	1	0
596.339	1	-3
596.509	1	1
596.678	1	1
596.848	1	14
597.018	1	-7
597.188	1	2
597.358	1	2
597.527	1	3
597.697	1	6
597.867	1	-3
598.037	1	5
598.206	1	4
598.376	1	-2
598.546	1	-3
598.716	1	-4
598.885	1	8
599.055	1	12
599.225	1	10
599.395	1	-5
599.565	1	4
599.734	1	6
599.904	1	3
600.074	1	-9
600.244	1	0
600.413	1	-4
600.583	1	4
600.753	1	9
600.923	1	12
601.092	1	-8
601.262	1	-7
601.432	1	-11
601.602	1	2
601.771	1	-5
601.941	1	6
602.111	1	10
602.281	1	8
602.451	1	-7
602.620	1	3
602.790	1	-2
602.960	1	-4
603.130	1	-4
603.299	1	20
603.469	1	-2
603.639	1	11
603.809	1	1
603.978	1	3
604.148	1	-16
604.318	1	-3
604.487	1	-4
604.657	1	3
604.827	1	9
604.997	1	2
605.166	1	5
605.336	1	5
605.506	1	1
605.676	1	0
605.845	1	4
606.015	1	-2
606.185	1	-3
606.355	1	-9
606.524	1	0
606.694	1	4
606.864	1	2
607.034	1	-7
607.203	1	1
607.373	1	-2
607.543	1	13
607.712	1	-4
607.882	1	14
608.052	1	-1
608.222	1	2
608.391	1	0
608.561	1	-1
608.731	1	-9
608.901	1	9
609.070	1	1
609.240	1	3
609.410	1	-5
609.579	1	1
609.749	1	2
609.919	1	-3
610.089	1	3
610.258	1	8
610.428	1	1
610.598	1	-4
610.767	1	3
610.937	1	-5
611.107	1	3
611.277	1	8
611.446	1	17
611.616	1	10
611.786	1	6
611.955	1	-8
612.125	1	5
612.295	1	6
612.465	1	4
612.634	1	2
612.804	1	0
612.974	1	-5
613.143	1	6
613.313	1	13
613.483	1	-3
613.652	1	4
613.822	1	-3
613.992	1	4
614.162	1	4
614.331	1	4
614.501	1	0
614.671	1	7
614.840	1	4
615.010	1	2
615.180	1	-5
615.349	1	10
615.519	1	-5
615.689	1	3
615.858	1	-14
616.028	1	14
616.198	1	10
616.368	1	14
616.537	1	-8
616.707	1	9
616.877	1	-3
617.046	1	-2
617.216	1	-3
617.386	1	8
617.555	1	9
617.725	1	-2
617.895	1	12
618.064	1	-4
618.234	1	-7
618.404	1	-7
618.573	1	8
618.743	1	5
618.913	1	0
619.082	1	12
619.252	1	-7
619.422	1	15
619.591	1	18
619.761	1	5
619.931	1	6
620.100	1	-4
620.270	1	4
620.440	1	7
620.609	1	-2
620.779	1	3
620.949	1	0
621.118	1	15
621.288	1	6
621.458	1	1
621.627	1	2
621.797	1	-3
621.967	1	2
622.136	1	-4
622.306	1	4
622.476	1	3
622.645	1	9
622.815	1	1
622.985	1	-6
623.154	1	-3
623.324	1	7
623.494	1	-6
623.663	1	6
623.833	1	3
624.002	1	11
624.172	1	-3
624.342	1	5
624.511	1	-7
624.681	1	2
624.851	1	-9
625.020	1	-3
625.190	1	-4
625.360	1	10
625.529	1	4
625.699	1	7
625.869	1	9
626.038	1	0
626.208	1	1
626.377	1	7
626.547	1	-7
626.717	1	-1
626.886	1	4
627.056	1	5
627.226	1	6
627.395	1	-2
627.565	1	8
627.735	1	4
627.904	1	-4
628.074	1	7
628.243	1	13
628.413	1	0
628.583	1	0
628.752	1	-3
628.922	1	-1
629.091	1	3
629.261	1	0
629.431	1	-3
629.600	1	-7
629.770	1	4
629.940	1	10
630.109	1	-2
630.279	1	12
630.448	1	10
630.618	1	-1
630.788	1	2
630.957	1	3
631.127	1	0
631.297	1	-5
631.466	1	-8
631.636	1	1
631.805	1	11
631.975	1	3
632.145	1	-1
632.314	1	5
632.484	1	13
632.653	1	-11
632.823	1	4
632.993	1	-6
633.162	1	-8
633.332	1	0
633.501	1	-3
633.671	1	5
633.841	1	7
634.010	1	-3
634.180	1	-5
634.349	1	9
634.519	1	-6
634.689	1	-6
634.858	1	3
635.028	1	-8
635.197	1	1
635.367	1	-2
635.537	1	6
635.706	1	-8
635.876	1	0
636.045	1	-2
636.215	1	4
636.384	1	8
636.554	1	-2
636.724	1	5
636.893	1	9
637.063	1	-7
637.232	1	-1
637.402	1	3
637.572	1	7
637.741	1	0
637.911	1	17
638.080	1	0
638.250	1	-11
638.419	1	-1
638.589	1	1
638.759	1	15
638.928	1	1
639.098	1	-5
639.267	1	11
639.437	1	4
639.606	1	-2
639.776	1	0
639.946	1	7
640.115	1	-13
640.285	1	-1
640.454	1	-2
640.624	1	5
640.793	1	0
640.963	1	3
641.132	1	0
641.302	1	9
641.472	1	16
641.641	1	1
641.811	1	-1
641.980	1	5
642.150	1	0
642.319	1	12
642.489	1	5
642.659	1	11
642.828	1	14
642.998	1	-2
643.167	1	0
643.337	1	6
643.506	1	5
643.676	1	4
643.845	1	2
644.015	1	-7
644.184	1	16
644.354	1	2
644.524	1	-7
644.693	1	3
644.863	1	-1
645.032	1	0
645.202	1	-2
645.371	1	15
645.541	1	5
645.710	1	13
645.880	1	10
646.049	1	5
646.219	1	-3
646.388	1	3
646.558	1	-9
646.728	1	1
646.897	1	-9
647.067	1	13
647.236	1	2
647.406	1	-3
647.575	1	8
647.745	1	-4
647.914	1	0
648.084	1	-9
648.253	1	6
648.423	1	5
648.592	1	9
648.762	1	10
648.931	1	1
649.101	1	1
649.270	1	2
649.440	1	10
649.610	1	4
649.779	1	4
649.949	1	2
650.118	1	6
650.288	1	-2
650.457	1	1
650.627	1	1
650.796	1	10
650.966	1	1
651.135	1	12
651.305	1	-1
651.474	1	11
651.644	1	11
651.813	1	6
651.983	1	-11
652.152	1	-1
652.322	1	-5
652.491	1	2
652.661	1	15
652.830	1	3
653.000	1	3
653.169	1	-4
653.339	1	2
653.508	1	-7
653.678	1	9
653.847	1	-1
654.017	1	5
654.186	1	10
654.356	1	3
654.525	1	2
654.695	1	18
654.864	1	4
655.034	1	0
655.203	1	3
655.373	1	2
655.542	1	-4
655.712	1	9
655.881	1	11
656.051	1	-6
656.220	1	4
656.390	1	-3
656.559	1	13
656.729	1	2
656.898	1	4
657.068	1	1
657.237	1	1
657.406	1	1
657.576	1	5
657.745	1	14
657.915	1	8
658.084	1	0
658.254	1	4
658.423	1	10
658.593	1	7
658.762	1	-6
658.932	1	13
659.101	1	-1
659.271	1	4
659.440	1	2
659.610	1	5
659.779	1	10
659.949	1	3
660.118	1	3
660.288	1	-4
660.457	1	3
660.626	1	-1
660.796	1	13
660.965	1	1
661.135	1	2
661.304	1	5
661.474	1	6
661.643	1	-2
661.813	1	-4
661.982	1	-4
662.152	1	2
662.321	1	-2
662.491	1	-6
662.660	1	3
662.829	1	11
662.999	1	5
663.168	1	7
663.338	1	-2
663.507	1	10
663.677	1	-2
663.846	1	5
664.016	1	-10
664.185	1	7
664.354	1	-1
664.524	1	7
664.693	1	-1
664.863	1	-6
665.032	1	8
665.202	1	3
665.371	1	7
665.541	1	-3
665.710	1	6
665.879	1	9
666.049	1	6
666.218	1	4
666.388	1	4
666.557	1	6
666.727	1	-1
666.896	1	8
667.065	1	4
667.235	1	-12
667.404	1	1
667.574	1	-4
667.743	1	-1
667.913	1	0
668.082	1	8
668.251	1	-8
668.421	1	12
668.590	1	-1
668.760	1	-5
668.929	1	2
669.099	1	0
669.268	1	3
669.437	1	-1
669.607	1	-7
669.776	1	1
669.946	1	-1
670.115	1	-1
670.285	1	6
670.454	1	9
670.623	1	0
670.793	1	-3
670.962	1	-6
671.132	1	0
671.301	1	2
671.470	1	3
671.640	1	10
671.809	1	9
671.979	1	2
672.148	1	5
672.317	1	0
672.487	1	-6
672.656	1	11
672.826	1	2
672.995	1	3
673.164	1	-11
673.334	1	-2
673.503	1	13
673.673	1	8
673.842	1	-7
674.011	1	6
674.181	1	9
674.350	1	-3
674.520	1	8
674.689	1	2
674.858	1	-1
675.028	1	11
675.197	1	6
675.367	1	0
675.536	1	-1
675.705	1	-1
675.875	1	8
676.044	1	0
676.214	1	-4
676.383	1	5
676.552	1	5
676.722	1	2
676.891	1	-5
677.060	1	5
677.230	1	0
677.399	1	13
677.569	1	16
677.738	1	-3
677.907	1	12
678.077	1	-7
678.246	1	-4
678.416	1	-2
678.585	1	-2
678.754	1	2
678.924	1	-3
679.093	1	10
679.262	1	13
679.432	1	-3
679.601	1	-1
679.771	1	2
679.940	1	3
680.109	1	0
680.279	1	5
680.448	1	4
680.617	1	-1
680.787	1	-2
680.956	1	3
681.125	1	-2
681.295	1	-3
681.464	1	0
681.634	1	7
681.803	1	1
681.972	1	4
682.142	1	1
682.311	1	6
682.480	1	3
682.650	1	-4
682.819	1	-4
682.988	1	1
683.158	1	4
683.327	1	2
683.496	1	-6
683.666	1	7
683.835	1	6
684.004	1	2
684.174	1	-5
684.343	1	-1
684.512	1	2
684.682	1	9
684.851	1	-14
685.021	1	6
685.190	1	-3
685.359	1	2
685.529	1	-1
685.698	1	2
685.867	1	3
686.037	1	3
686.206	1	-14
686.375	1	-1
686.545	1	-1
686.714	1	4
686.883	1	8
687.053	1	15
687.222	1	-2
687.391	1	-5
687.561	1	-3
687.730	1	7
687.899	1	2
688.069	1	-3
688.238	1	8
688.407	1	5
688.577	1	12
688.746	1	-1
