340.368	1	-1
340.539	1	8
340.710	1	12
340.881	1	7
341.052	1	11
341.223	1	14
341.394	1	1
341.565	1	4
341.737	1	9
341.908	1	19
342.079	1	8
342.250	1	10
342.421	1	4
342.592	1	1
342.763	1	9
342.934	1	18
343.105	1	6
343.276	1	7
343.447	1	5
343.618	1	15
343.789	1	5
343.960	1	12
344.131	1	-1
344.302	1	10
344.473	1	0
344.644	1	11
344.815	1	5
344.986	1	16
345.157	1	7
345.328	1	1
345.499	1	-1
345.670	1	8
345.841	1	15
346.012	1	6
346.183	1	4
346.354	1	10
346.526	1	9
346.697	1	4
346.868	1	1
347.039	1	10
347.210	1	2
347.381	1	5
347.552	1	12
347.723	1	16
347.894	1	5
348.065	1	7
348.236	1	12
348.407	1	17
348.578	1	9
348.749	1	13
348.920	1	10
349.091	1	21
349.262	1	5
349.433	1	11
349.604	1	-5
349.775	1	11
349.946	1	2
350.117	1	12
350.288	1	4
350.459	1	10
350.630	1	10
350.801	1	7
350.972	1	13
351.143	1	10
351.314	1	3
351.485	1	20
351.656	1	15
351.827	1	18
351.998	1	7
352.169	1	17
352.340	1	12
352.511	1	12
352.682	1	-4
352.853	1	4
353.024	1	16
353.195	1	2
353.366	1	21
353.537	1	3
353.708	1	8
353.879	1	16
354.050	1	11
354.221	1	9
354.392	1	4
354.563	1	20
354.734	1	15
354.905	1	5
355.076	1	26
355.247	1	19
355.418	1	17
355.589	1	28
355.760	1	17
355.931	1	27
356.102	1	17
356.273	1	19
356.444	1	28
356.615	1	18
356.785	1	23
356.956	1	20
357.127	1	25
357.298	1	17
357.469	1	19
357.640	1	25
357.811	1	15
357.982	1	36
358.153	1	21
358.324	1	34
358.495	1	27
358.666	1	33
358.837	1	38
359.008	1	27
359.179	1	33
359.350	1	33
359.521	1	42
359.692	1	33
359.863	1	31
360.034	1	35
360.205	1	53
360.376	1	53
360.547	1	49
360.718	1	61
360.889	1	47
361.060	1	64
361.231	1	69
361.401	1	65
361.572	1	68
361.743	1	74
361.914	1	83
362.085	1	73
362.256	1	94
362.427	1	85
362.598	1	109
362.769	1	105
362.940	1	99
363.111	1	99
363.282	1	106
363.453	1	119
363.624	1	113
363.795	1	137
363.966	1	137
364.137	1	139
364.308	1	165
364.478	1	171
364.649	1	184
364.820	1	202
364.991	1	211
365.162	1	213
365.333	1	221
365.504	1	222
365.675	1	247
365.846	1	254
366.017	1	275
366.188	1	278
366.359	1	280
366.530	1	297
366.701	1	291
366.871	1	314
367.042	1	319
367.213	1	331
367.384	1	326
367.555	1	360
367.726	1	359
367.897	1	353
368.068	1	350
368.239	1	355
368.410	1	367
368.581	1	348
368.752	1	374
368.923	1	344
369.093	1	346
369.264	1	339
369.435	1	337
369.606	1	320
369.777	1	328
369.948	1	308
370.119	1	294
370.290	1	304
370.461	1	271
370.632	1	265
370.803	1	272
370.973	1	257
371.144	1	249
371.315	1	251
371.486	1	233
371.657	1	222
371.828	1	220
371.999	1	199
372.170	1	202
372.341	1	205
372.512	1	202
372.682	1	180
372.853	1	198
373.024	1	179
373.195	1	184
373.366	1	181
373.537	1	155
373.708	1	163
373.879	1	149
374.050	1	164
374.220	1	144
374.391	1	142
374.562	1	141
374.733	1	134
374.904	1	139
375.075	1	119
375.246	1	125
375.417	1	132
375.588	1	110
375.758	1	133
375.929	1	114
376.100	1	108
376.271	1	104
376.442	1	101
376.613	1	99
376.784	1	101
376.955	1	98
377.125	1	86
377.296	1	95
377.467	1	98
377.638	1	88
377.809	1	82
377.980	1	81
378.151	1	82
378.321	1	88
378.492	1	76
378.663	1	77
378.834	1	82
379.005	1	81
379.176	1	62
379.347	1	75
379.518	1	56
379.688	1	75
379.859	1	66
380.030	1	66
380.201	1	64
380.372	1	63
380.543	1	61
380.714	1	63
380.884	1	62
381.055	1	60
381.226	1	52
381.397	1	55
381.568	1	43
381.739	1	44
381.910	1	65
382.080	1	50
382.251	1	54
382.422	1	54
382.593	1	43
382.764	1	45
382.935	1	41
383.105	1	48
383.276	1	54
383.447	1	54
383.618	1	46
383.789	1	39
383.960	1	52
384.130	1	51
384.301	1	44
384.472	1	49
384.643	1	49
384.814	1	53
384.985	1	43
385.156	1	54
385.326	1	31
385.497	1	54
385.668	1	44
385.839	1	42
386.010	1	39
386.180	1	50
386.351	1	39
386.522	1	45
386.693	1	39
386.864	1	28
387.035	1	44
387.205	1	42
387.376	1	44
387.547	1	47
387.718	1	43
387.889	1	39
388.060	1	41
388.230	1	32
388.401	1	40
388.572	1	25
388.743	1	30
388.914	1	38
389.084	1	37
389.255	1	42
389.426	1	30
389.597	1	31
389.768	1	44
389.939	1	40
390.109	1	38
390.280	1	35
390.451	1	31
390.622	1	28
390.793	1	43
390.963	1	27
391.134	1	38
391.305	1	22
391.476	1	39
391.647	1	31
391.817	1	19
391.988	1	24
392.159	1	22
392.330	1	31
392.501	1	25
392.671	1	38
392.842	1	13
393.013	1	26
393.184	1	28
393.355	1	31
393.525	1	19
393.696	1	34
393.867	1	22
394.038	1	29
394.208	1	32
394.379	1	34
394.550	1	35
394.721	1	31
394.892	1	37
395.062	1	18
395.233	1	35
395.404	1	34
395.575	1	31
395.746	1	29
395.916	1	27
396.087	1	29
396.258	1	28
396.429	1	34
396.599	1	21
396.770	1	26
396.941	1	30
397.112	1	18
397.283	1	30
397.453	1	26
397.624	1	17
397.795	1	19
397.966	1	27
398.136	1	35
398.307	1	27
398.478	1	27
398.649	1	19
398.819	1	24
398.990	1	39
399.161	1	23
399.332	1	33
399.503	1	33
399.673	1	10
399.844	1	19
400.015	1	21
400.186	1	21
400.356	1	15
400.527	1	39
400.698	1	25
400.869	1	17
401.039	1	18
401.210	1	19
401.381	1	17
401.552	1	19
401.722	1	21
401.893	1	25
402.064	1	24
402.235	1	26
402.405	1	10
402.576	1	22
402.747	1	29
402.918	1	13
403.088	1	20
403.259	1	23
403.430	1	23
403.601	1	18
403.771	1	7
403.942	1	16
404.113	1	32
404.284	1	19
404.454	1	23
404.625	1	26
404.796	1	24
404.967	1	25
405.137	1	31
405.308	1	4
405.479	1	16
405.649	1	30
405.820	1	12
405.991	1	19
406.162	1	26
406.332	1	20
406.503	1	17
406.674	1	22
406.845	1	27
407.015	1	20
407.186	1	5
407.357	1	19
407.527	1	9
407.698	1	23
407.869	1	9
408.040	1	36
408.210	1	31
408.381	1	15
408.552	1	16
408.722	1	19
408.893	1	12
409.064	1	13
409.235	1	14
409.405	1	17
409.576	1	21
409.747	1	15
409.917	1	31
410.088	1	16
410.259	1	4
410.430	1	32
410.600	1	22
410.771	1	21
410.942	1	40
411.112	1	20
411.283	1	24
411.454	1	24
411.625	1	21
411.795	1	14
411.966	1	10
412.137	1	17
412.307	1	13
412.478	1	24
412.649	1	21
412.819	1	24
412.990	1	28
413.161	1	20
413.332	1	24
413.502	1	27
413.673	1	20
413.844	1	20
414.014	1	23
414.185	1	13
414.356	1	14
414.526	1	15
414.697	1	22
414.868	1	14
415.038	1	19
415.209	1	14
415.380	1	9
415.550	1	19
415.721	1	22
415.892	1	21
416.063	1	23
416.233	1	19
416.404	1	17
416.575	1	-1
416.745	1	23
416.916	1	13
417.087	1	19
417.257	1	11
417.428	1	19
417.599	1	15
417.769	1	19
417.940	1	7
418.111	1	13
418.281	1	23
418.452	1	25
418.623	1	23
418.793	1	17
418.964	1	29
419.135	1	5
419.305	1	24
419.476	1	17
419.647	1	16
419.817	1	11
419.988	1	23
420.159	1	21
420.329	1	24
420.500	1	30
420.671	1	31
420.841	1	21
421.012	1	21
421.183	1	14
421.353	1	22
421.524	1	20
421.695	1	27
421.865	1	14
422.036	1	21
422.206	1	14
422.377	1	15
422.548	1	19
422.718	1	27
422.889	1	15
423.060	1	24
423.230	1	23
423.401	1	11
423.572	1	11
423.742	1	22
423.913	1	9
424.084	1	15
424.254	1	14
424.425	1	23
424.595	1	25
424.766	1	19
424.937	1	15
425.107	1	23
425.278	1	31
425.449	1	19
425.619	1	18
425.790	1	16
425.961	1	26
426.131	1	17
426.302	1	19
426.472	1	26
426.643	1	7
426.814	1	17
426.984	1	6
427.155	1	12
427.326	1	23
427.496	1	10
427.667	1	14
427.837	1	22
428.008	1	20
428.179	1	32
428.349	1	27
428.520	1	8
428.691	1	17
428.861	1	37
429.032	1	11
429.202	1	9
429.373	1	18
429.544	1	19
429.714	1	20
429.885	1	19
430.055	1	27
430.226	1	13
430.397	1	4
430.567	1	4
430.738	1	13
430.909	1	15
431.079	1	21
431.250	1	14
431.420	1	19
431.591	1	27
431.762	1	17
431.932	1	13
432.103	1	20
432.273	1	26
432.444	1	21
432.615	1	18
432.785	1	12
432.956	1	17
433.126	1	14
433.297	1	13
433.468	1	16
433.638	1	22
433.809	1	7
433.979	1	19
434.150	1	14
434.320	1	16
434.491	1	35
434.662	1	22
434.832	1	17
435.003	1	24
435.173	1	19
435.344	1	9
435.515	1	12
435.685	1	4
435.856	1	15
436.026	1	6
436.197	1	5
436.368	1	11
436.538	1	21
436.709	1	11
436.879	1	9
437.050	1	10
437.220	1	21
437.391	1	12
437.562	1	13
437.732	1	25
437.903	1	16
438.073	1	2
438.244	1	19
438.414	1	21
438.585	1	22
438.756	1	14
438.926	1	13
439.097	1	16
439.267	1	3
439.438	1	17
439.608	1	9
439.779	1	15
439.949	1	22
440.120	1	6
440.291	1	16
440.461	1	7
440.632	1	12
440.802	1	16
440.973	1	20
441.143	1	18
441.314	1	15
441.485	1	11
441.655	1	30
441.826	1	10
441.996	1	13
442.167	1	20
442.337	1	17
442.508	1	7
442.678	1	17
442.849	1	19
443.019	1	11
443.190	1	23
443.361	1	26
443.531	1	10
443.702	1	20
443.872	1	7
444.043	1	25
444.213	1	11
444.384	1	18
444.554	1	7
444.725	1	21
444.895	1	11
445.066	1	17
445.237	1	14
445.407	1	11
445.578	1	11
445.748	1	14
445.919	1	14
446.089	1	21
446.260	1	24
446.430	1	17
446.601	1	22
446.771	1	6
446.942	1	2
447.112	1	13
447.283	1	19
447.453	1	4
447.624	1	-3
447.794	1	12
447.965	1	16
448.135	1	15
448.306	1	8
448.477	1	18
448.647	1	5
448.818	1	12
448.988	1	17
449.159	1	1
449.329	1	8
449.500	1	9
449.670	1	8
449.841	1	13
450.011	1	10
450.182	1	17
450.352	1	14
450.523	1	11
450.693	1	21
450.864	1	15
451.034	1	12
451.205	1	15
451.375	1	8
451.546	1	19
451.716	1	6
451.887	1	15
452.057	1	9
452.228	1	14
452.398	1	17
452.569	1	16
452.739	1	11
452.910	1	0
453.080	1	18
453.251	1	2
453.421	1	23
453.592	1	7
453.762	1	18
453.933	1	0
454.103	1	16
454.274	1	6
454.444	1	16
454.615	1	13
454.785	1	21
454.956	1	18
455.126	1	8
455.297	1	12
455.467	1	12
455.638	1	12
455.808	1	28
455.979	1	18
456.149	1	7
456.320	1	13
456.490	1	7
456.661	1	9
456.831	1	4
457.001	1	20
457.172	1	22
457.342	1	5
457.513	1	10
457.683	1	11
457.854	1	11
458.024	1	15
458.195	1	16
458.365	1	17
458.536	1	8
458.706	1	21
458.877	1	24
459.047	1	6
459.218	1	17
459.388	1	15
459.559	1	14
459.729	1	7
459.899	1	7
460.070	1	15
460.240	1	13
460.411	1	17
460.581	1	-2
460.752	1	6
460.922	1	15
461.093	1	18
461.263	1	21
461.434	1	3
461.604	1	16
461.775	1	13
461.945	1	19
462.115	1	15
462.286	1	11
462.456	1	12
462.627	1	7
462.797	1	16
462.968	1	18
463.138	1	4
463.309	1	18
463.479	1	12
463.649	1	6
463.820	1	14
463.990	1	6
464.161	1	12
464.331	1	23
464.502	1	17
464.672	1	12
464.843	1	20
465.013	1	10
465.183	1	3
465.354	1	20
465.524	1	18
465.695	1	11
465.865	1	9
466.036	1	11
466.206	1	17
466.376	1	24
466.547	1	16
466.717	1	6
466.888	1	8
467.058	1	9
467.229	1	20
467.399	1	2
467.569	1	2
467.740	1	28
467.910	1	16
468.081	1	16
468.251	1	5
468.422	1	12
468.592	1	4
468.762	1	19
468.933	1	16
469.103	1	8
469.274	1	5
469.444	1	14
469.614	1	6
469.785	1	1
469.955	1	13
470.126	1	18
470.296	1	12
470.467	1	13
470.637	1	21
470.807	1	21
470.978	1	8
471.148	1	4
471.319	1	7
471.489	1	18
471.659	1	10
471.830	1	9
472.000	1	0
472.171	1	18
472.341	1	14
472.511	1	16
472.682	1	19
472.852	1	22
473.023	1	13
473.193	1	13
473.363	1	18
473.534	1	18
473.704	1	15
473.875	1	13
474.045	1	14
474.215	1	12
474.386	1	13
474.556	1	7
474.727	1	11
474.897	1	10
475.067	1	19
475.238	1	18
475.408	1	7
475.578	1	0
475.749	1	13
475.919	1	9
476.090	1	13
476.260	1	8
476.430	1	9
476.601	1	12
476.771	1	6
476.942	1	8
477.112	1	23
477.282	1	9
477.453	1	-3
477.623	1	8
477.793	1	6
477.964	1	11
478.134	1	29
478.305	1	16
478.475	1	18
478.645	1	5
478.816	1	12
478.986	1	15
479.156	1	9
479.327	1	13
479.497	1	14
479.667	1	8
479.838	1	15
480.008	1	12
480.179	1	19
480.349	1	14
480.519	1	16
480.690	1	22
480.860	1	13
481.030	1	3
481.201	1	14
481.371	1	4
481.541	1	8
481.712	1	27
481.882	1	13
482.053	1	24
482.223	1	16
482.393	1	14
482.564	1	14
482.734	1	21
482.904	1	18
483.075	1	27
483.245	1	12
483.415	1	21
483.586	1	5
483.756	1	21
483.926	1	11
484.097	1	29
484.267	1	18
484.437	1	19
484.608	1	12
484.778	1	13
484.948	1	26
485.119	1	17
485.289	1	18
485.459	1	12
485.630	1	18
485.800	1	18
485.970	1	17
486.141	1	25
486.311	1	14
486.481	1	14
486.652	1	20
486.822	1	27
486.992	1	22
487.163	1	24
487.333	1	12
487.503	1	22
487.674	1	28
487.844	1	19
488.014	1	28
488.185	1	23
488.355	1	25
488.525	1	19
488.696	1	24
488.866	1	22
489.036	1	29
489.207	1	33
489.377	1	28
489.547	1	34
489.718	1	18
489.888	1	24
490.058	1	40
490.228	1	28
490.399	1	34
490.569	1	24
490.739	1	31
490.910	1	41
491.080	1	30
491.250	1	35
491.421	1	33
491.591	1	34
491.761	1	35
491.932	1	39
492.102	1	31
492.272	1	20
492.442	1	34
492.613	1	25
492.783	1	44
492.953	1	33
493.124	1	27
493.294	1	31
493.464	1	25
493.635	1	32
493.805	1	35
493.975	1	41
494.145	1	32
494.316	1	24
494.486	1	43
494.656	1	50
494.827	1	27
494.997	1	29
495.167	1	42
495.337	1	39
495.508	1	28
495.678	1	31
495.848	1	26
496.019	1	35
496.189	1	30
496.359	1	33
496.529	1	31
496.700	1	28
496.870	1	31
497.040	1	30
497.211	1	39
497.381	1	35
497.551	1	35
497.721	1	31
497.892	1	40
498.062	1	39
498.232	1	46
498.403	1	41
498.573	1	37
498.743	1	35
498.913	1	39
499.084	1	38
499.254	1	29
499.424	1	38
499.594	1	48
499.765	1	41
499.935	1	56
500.105	1	50
500.275	1	51
500.446	1	43
500.616	1	33
500.786	1	34
500.956	1	49
501.127	1	50
501.297	1	52
501.467	1	53
501.638	1	58
501.808	1	50
501.978	1	46
502.148	1	45
502.319	1	52
502.489	1	52
502.659	1	50
502.829	1	45
503.000	1	55
503.170	1	53
503.340	1	46
503.510	1	45
503.681	1	52
503.851	1	58
504.021	1	52
504.191	1	57
504.362	1	53
504.532	1	53
504.702	1	48
504.872	1	53
505.042	1	54
505.213	1	53
505.383	1	60
505.553	1	60
505.723	1	55
505.894	1	54
506.064	1	52
506.234	1	61
506.404	1	55
506.575	1	67
506.745	1	51
506.915	1	56
507.085	1	48
507.256	1	56
507.426	1	59
507.596	1	61
507.766	1	58
507.936	1	68
508.107	1	51
508.277	1	57
508.447	1	63
508.617	1	66
508.788	1	64
508.958	1	67
509.128	1	58
509.298	1	52
509.468	1	63
509.639	1	50
509.809	1	69
509.979	1	64
510.149	1	60
510.319	1	59
510.490	1	67
510.660	1	58
510.830	1	48
511.000	1	66
511.171	1	59
511.341	1	72
511.511	1	58
511.681	1	57
511.851	1	76
512.022	1	50
512.192	1	71
512.362	1	70
512.532	1	81
512.702	1	60
512.873	1	65
513.043	1	61
513.213	1	66
513.383	1	62
513.553	1	75
513.724	1	65
513.894	1	72
514.064	1	63
514.234	1	56
514.404	1	68
514.575	1	64
514.745	1	59
514.915	1	67
515.085	1	73
515.255	1	61
515.425	1	73
515.596	1	74
515.766	1	67
515.936	1	65
516.106	1	64
516.276	1	72
516.447	1	82
516.617	1	63
516.787	1	81
516.957	1	67
517.127	1	74
517.297	1	65
517.468	1	74
517.638	1	78
517.808	1	59
517.978	1	70
518.148	1	89
518.319	1	66
518.489	1	73
518.659	1	73
518.829	1	74
518.999	1	85
519.169	1	67
519.340	1	87
519.510	1	67
519.680	1	73
519.850	1	82
520.020	1	84
520.190	1	82
520.361	1	67
520.531	1	79
520.701	1	75
520.871	1	76
521.041	1	78
521.211	1	79
521.382	1	78
521.552	1	76
521.722	1	79
521.892	1	71
522.062	1	68
522.232	1	75
522.402	1	81
522.573	1	71
522.743	1	87
522.913	1	81
523.083	1	77
523.253	1	72
523.423	1	87
523.593	1	82
523.764	1	82
523.934	1	71
524.104	1	84
524.274	1	85
524.444	1	86
524.614	1	84
524.784	1	76
524.955	1	86
525.125	1	72
525.295	1	90
525.465	1	87
525.635	1	87
525.805	1	89
525.975	1	79
526.146	1	80
526.316	1	61
526.486	1	74
526.656	1	87
526.826	1	86
526.996	1	80
527.166	1	64
527.337	1	81
527.507	1	80
527.677	1	87
527.847	1	79
528.017	1	81
528.187	1	89
528.357	1	68
528.527	1	83
528.698	1	87
528.868	1	80
529.038	1	82
529.208	1	100
529.378	1	87
529.548	1	89
529.718	1	78
529.888	1	82
530.058	1	80
530.229	1	87
530.399	1	95
530.569	1	83
530.739	1	87
530.909	1	86
531.079	1	80
531.249	1	86
531.419	1	86
531.589	1	91
531.760	1	88
531.930	1	86
532.100	1	98
532.270	1	84
532.440	1	77
532.610	1	91
532.780	1	82
532.950	1	92
533.120	1	90
533.290	1	83
533.461	1	81
533.631	1	91
533.801	1	79
533.971	1	75
534.141	1	79
534.311	1	79
534.481	1	103
534.651	1	67
534.821	1	83
534.991	1	77
535.162	1	93
535.332	1	77
535.502	1	81
535.672	1	72
535.842	1	70
536.012	1	81
536.182	1	76
536.352	1	87
536.522	1	70
536.692	1	84
536.862	1	73
537.032	1	73
537.203	1	81
537.373	1	71
537.543	1	75
537.713	1	79
537.883	1	67
538.053	1	70
538.223	1	86
538.393	1	72
538.563	1	75
538.733	1	75
538.903	1	70
539.073	1	68
539.243	1	72
539.413	1	65
539.584	1	81
539.754	1	61
539.924	1	76
540.094	1	80
540.264	1	90
540.434	1	73
540.604	1	68
540.774	1	78
540.944	1	74
541.114	1	80
541.284	1	72
541.454	1	68
541.624	1	75
541.794	1	70
541.964	1	68
542.134	1	66
542.305	1	82
542.475	1	71
542.645	1	71
542.815	1	75
542.985	1	68
543.155	1	59
543.325	1	76
543.495	1	74
543.665	1	73
543.835	1	72
544.005	1	64
544.175	1	73
544.345	1	80
544.515	1	71
544.685	1	63
544.855	1	75
545.025	1	79
545.195	1	69
545.365	1	75
545.535	1	72
545.705	1	72
545.875	1	78
546.045	1	76
546.216	1	65
546.386	1	64
546.556	1	71
546.726	1	64
546.896	1	65
547.066	1	58
547.236	1	67
547.406	1	61
547.576	1	70
547.746	1	59
547.916	1	83
548.086	1	73
548.256	1	74
548.426	1	75
548.596	1	81
548.766	1	78
548.936	1	70
549.106	1	80
549.276	1	72
549.446	1	79
549.616	1	80
549.786	1	67
549.956	1	69
550.126	1	70
550.296	1	72
550.466	1	66
550.636	1	59
550.806	1	76
550.976	1	65
551.146	1	72
551.316	1	61
551.486	1	72
551.656	1	63
551.826	1	58
551.996	1	68
552.166	1	69
552.336	1	62
552.506	1	68
552.676	1	67
552.846	1	63
553.016	1	57
553.186	1	62
553.356	1	67
553.526	1	67
553.696	1	69
553.866	1	54
554.036	1	79
554.206	1	63
554.376	1	64
554.546	1	65
554.716	1	56
554.886	1	68
555.056	1	61
555.226	1	62
555.396	1	59
555.566	1	59
555.736	1	54
555.906	1	64
556.076	1	57
556.246	1	57
556.416	1	73
556.586	1	57
556.756	1	49
556.926	1	67
557.096	1	58
557.266	1	61
557.436	1	59
557.606	1	54
557.776	1	59
557.946	1	64
558.116	1	60
558.286	1	51
558.456	1	51
558.626	1	61
558.796	1	64
558.966	1	49
559.136	1	57
559.306	1	50
559.476	1	46
559.646	1	55
559.816	1	50
559.986	1	55
560.155	1	58
560.325	1	50
560.495	1	63
560.665	1	56
560.835	1	54
561.005	1	59
561.175	1	39
561.345	1	57
561.515	1	53
561.685	1	69
561.855	1	51
562.025	1	52
562.195	1	46
562.365	1	46
562.535	1	54
562.705	1	58
562.875	1	45
563.045	1	53
563.215	1	48
563.385	1	48
563.555	1	57
563.725	1	48
563.895	1	55
564.064	1	34
564.234	1	39
564.404	1	37
564.574	1	52
564.744	1	57
564.914	1	53
565.084	1	50
565.254	1	63
565.424	1	48
565.594	1	52
565.764	1	50
565.934	1	48
566.104	1	55
566.274	1	54
566.444	1	51
566.614	1	43
566.783	1	53
566.953	1	55
567.123	1	40
567.293	1	50
567.463	1	45
567.633	1	48
567.803	1	47
567.973	1	44
568.143	1	42
568.313	1	54
568.483	1	46
568.653	1	46
568.823	1	38
568.993	1	47
569.162	1	40
569.332	1	38
569.502	1	44
569.672	1	42
569.842	1	47
570.012	1	37
570.182	1	40
570.352	1	51
570.522	1	42
570.692	1	48
570.862	1	29
571.031	1	60
571.201	1	47
571.371	1	31
571.541	1	41
571.711	1	38
571.881	1	40
572.051	1	47
572.221	1	46
572.391	1	46
572.561	1	48
572.731	1	43
572.900	1	44
573.070	1	31
573.240	1	35
573.410	1	51
573.580	1	44
573.750	1	37
573.920	1	37
574.090	1	40
574.260	1	36
574.430	1	42
574.599	1	35
574.769	1	41
574.939	1	42
575.109	1	50
575.279	1	37
575.449	1	31
575.619	1	33
575.789	1	32
575.959	1	33
576.128	1	32
576.298	1	28
576.468	1	42
576.638	1	44
576.808	1	35
576.978	1	43
577.148	1	24
577.318	1	42
577.487	1	31
577.657	1	34
577.827	1	41
577.997	1	35
578.167	1	42
578.337	1	35
578.507	1	35
578.677	1	38
578.846	1	26
579.016	1	34
579.186	1	44
579.356	1	42
579.526	1	16
579.696	1	38
579.866	1	31
580.036	1	33
580.205	1	40
580.375	1	35
580.545	1	41
580.715	1	40
580.885	1	43
581.055	1	36
581.225	1	38
581.394	1	40
581.564	1	38
581.734	1	39
581.904	1	30
582.074	1	32
582.244	1	30
582.414	1	35
582.583	1	29
582.753	1	36
582.923	1	32
583.093	1	41
583.263	1	40
583.433	1	50
583.603	1	28
583.772	1	43
583.942	1	26
584.112	1	38
584.282	1	31
584.452	1	34
584.622	1	31
584.791	1	32
584.961	1	24
585.131	1	37
585.301	1	34
585.471	1	31
585.641	1	40
585.811	1	34
585.980	1	30
586.150	1	29
586.320	1	26
586.490	1	32
586.660	1	33
586.830	1	29
586.999	1	35
587.169	1	16
587.339	1	38
587.509	1	35
587.679	1	21
587.849	1	40
588.018	1	29
588.188	1	26
588.358	1	53
588.528	1	25
588.698	1	30
588.867	1	34
589.037	1	31
589.207	1	27
589.377	1	24
589.547	1	27
589.717	1	30
589.886	1	23
590.056	1	26
590.226	1	17
590.396	1	26
590.566	1	20
590.735	1	25
590.905	1	34
591.075	1	28
591.245	1	0
591.415	1	33
591.585	1	8
591.754	1	23
591.924	1	30
592.094	1	21
592.264	1	18
592.434	1	28
592.603	1	11
592.773	1	16
592.943	1	29
593.113	1	21
593.283	1	26
593.452	1	31
593.622	1	26
593.792	1	17
593.962	1	30
594.132	1	36
594.301	1	18
594.471	1	20
594.641	1	31
594.811	1	15
594.981	1	33
595.150	1	12
595.320	1	22
595.490	1	22
595.660	1	17
595.829	1	7
595.999	1	28
596.169	1	17
596.339	1	20
596.509	1	31
596.678	1	8
596.848	1	14
597.018	1	25
597.188	1	20
597.358	1	20
597.527	1	17
597.697	1	14
597.867	1	23
598.037	1	23
598.206	1	16
598.376	1	22
598.546	1	19
598.716	1	23
598.885	1	29
599.055	1	22
599.225	1	24
599.395	1	14
599.565	1	11
599.734	1	17
599.904	1	19
600.074	1	15
600.244	1	18
600.413	1	21
600.583	1	30
600.753	1	28
600.923	1	23
601.092	1	4
601.262	1	10
601.432	1	19
601.602	1	31
601.771	1	15
601.941	1	27
602.111	1	23
602.281	1	21
602.451	1	19
602.620	1	20
602.790	1	18
602.960	1	13
603.130	1	22
603.299	1	25
603.469	1	20
603.639	1	35
603.809	1	16
603.978	1	27
604.148	1	17
604.318	1	21
604.487	1	33
604.657	1	17
604.827	1	28
604.997	1	24
605.166	1	18
605.336	1	19
605.506	1	13
605.676	1	25
605.845	1	23
606.015	1	13
606.185	1	18
606.355	1	4
606.524	1	10
606.694	1	21
606.864	1	33
607.034	1	11
607.203	1	27
607.373	1	16
607.543	1	25
607.712	1	18
607.882	1	26
608.052	1	11
608.222	1	16
608.391	1	16
608.561	1	16
608.731	1	13
608.901	1	19
609.070	1	23
609.240	1	20
609.410	1	17
609.579	1	9
609.749	1	13
609.919	1	10
610.089	1	24
610.258	1	21
610.428	1	21
610.598	1	7
610.767	1	19
610.937	1	18
611.107	1	23
611.277	1	24
611.446	1	29
611.616	1	26
611.786	1	12
611.955	1	11
612.125	1	22
612.295	1	18
612.465	1	23
612.634	1	16
612.804	1	18
612.974	1	17
613.143	1	12
613.313	1	20
613.483	1	15
613.652	1	24
613.822	1	12
613.992	1	8
614.162	1	29
614.331	1	24
614.501	1	12
614.671	1	26
614.840	1	25
615.010	1	26
615.180	1	14
615.349	1	16
615.519	1	10
615.689	1	7
615.858	1	11
616.028	1	21
616.198	1	30
616.368	1	23
616.537	1	10
616.707	1	16
616.877	1	21
617.046	1	8
617.216	1	14
617.386	1	22
617.555	1	21
617.725	1	10
617.895	1	21
618.064	1	16
618.234	1	10
618.404	1	8
618.573	1	17
618.743	1	25
618.913	1	13
619.082	1	24
619.252	1	5
619.422	1	26
619.591	1	19
619.761	1	13
619.931	1	17
620.100	1	19
620.270	1	14
620.440	1	23
620.609	1	6
620.779	1	30
620.949	1	25
621.118	1	25
621.288	1	23
621.458	1	21
621.627	1	4
621.797	1	10
621.967	1	16
622.136	1	12
622.306	1	10
622.476	1	8
622.645	1	34
622.815	1	10
622.985	1	13
623.154	1	14
623.324	1	21
623.494	1	7
623.663	1	16
623.833	1	14
624.002	1	22
624.172	1	16
624.342	1	16
624.511	1	7
624.681	1	10
624.851	1	13
625.020	1	-2
625.190	1	19
625.360	1	8
625.529	1	9
625.699	1	14
625.869	1	20
626.038	1	13
626.208	1	10
626.377	1	16
626.547	1	4
626.717	1	7
626.886	1	16
627.056	1	12
627.226	1	18
627.395	1	4
627.565	1	20
627.735	1	19
627.904	1	1
628.074	1	12
628.243	1	37
628.413	1	15
628.583	1	26
628.752	1	13
628.922	1	19
629.091	1	11
629.261	1	10
629.431	1	4
629.600	1	12
629.770	1	14
629.940	1	20
630.109	1	-1
630.279	1	20
630.448	1	6
630.618	1	21
630.788	1	13
630.957	1	19
631.127	1	11
631.297	1	18
631.466	1	14
631.636	1	12
631.805	1	12
631.975	1	10
632.145	1	10
632.314	1	6
632.484	1	28
632.653	1	8
632.823	1	4
632.993	1	11
633.162	1	12
633.332	1	15
633.501	1	10
633.671	1	19
633.841	1	15
634.010	1	14
634.180	1	6
634.349	1	17
634.519	1	8
634.689	1	15
634.858	1	13
635.028	1	7
635.197	1	17
635.367	1	22
635.537	1	12
635.706	1	7
635.876	1	18
636.045	1	6
636.215	1	16
636.384	1	15
636.554	1	10
636.724	1	12
636.893	1	18
637.063	1	10
637.232	1	16
637.402	1	8
637.572	1	17
637.741	1	14
637.911	1	15
638.080	1	8
638.250	1	3
638.419	1	16
638.589	1	18
638.759	1	9
638.928	1	10
639.098	1	13
639.267	1	13
639.437	1	15
639.606	1	18
639.776	1	16
639.946	1	13
640.115	1	-4
640.285	1	6
640.454	1	11
640.624	1	14
640.793	1	22
640.963	1	19
641.132	1	11
641.302	1	18
641.472	1	17
641.641	1	10
641.811	1	7
641.980	1	14
642.150	1	10
642.319	1	24
642.489	1	16
642.659	1	24
642.828	1	24
642.998	1	15
643.167	1	19
643.337	1	2
643.506	1	15
643.676	1	10
643.845	1	19
644.015	1	11
644.184	1	25
644.354	1	17
644.524	1	11
644.693	1	6
644.863	1	17
645.032	1	12
645.202	1	14
645.371	1	12
645.541	1	15
645.710	1	15
645.880	1	10
646.049	1	18
646.219	1	14
646.388	1	12
646.558	1	-1
646.728	1	22
646.897	1	2
647.067	1	20
647.236	1	1
647.406	1	14
647.575	1	16
647.745	1	5
647.914	1	9
648.084	1	13
648.253	1	10
648.423	1	27
648.592	1	9
648.762	1	17
648.931	1	13
649.101	1	13
649.270	1	17
649.440	1	13
649.610	1	19
649.779	1	8
649.949	1	16
650.118	1	19
650.288	1	25
650.457	1	21
650.627	1	16
650.796	1	14
650.966	1	6
651.135	1	13
651.305	1	14
651.474	1	16
651.644	1	19
651.813	1	5
651.983	1	9
652.152	1	14
652.322	1	6
652.491	1	10
652.661	1	18
652.830	1	13
653.000	1	17
653.169	1	3
653.339	1	15
653.508	1	6
653.678	1	14
653.847	1	13
654.017	1	17
654.186	1	16
654.356	1	20
654.525	1	13
654.695	1	21
654.864	1	4
655.034	1	13
655.203	1	11
655.373	1	16
655.542	1	14
655.712	1	16
655.881	1	12
656.051	1	13
656.220	1	9
656.390	1	14
656.559	1	18
656.729	1	17
656.898	1	10
657.068	1	7
657.237	1	6
657.406	1	1
657.576	1	7
657.745	1	11
657.915	1	13
658.084	1	12
658.254	1	23
658.423	1	6
658.593	1	16
658.762	1	0
658.932	1	16
659.101	1	10
659.271	1	13
659.440	1	9
659.610	1	15
659.779	1	16
659.949	1	11
660.118	1	5
660.288	1	11
660.457	1	9
660.626	1	4
660.796	1	23
660.965	1	8
661.135	1	14
661.304	1	15
661.474	1	15
661.643	1	2
661.813	1	-1
661.982	1	-2
662.152	1	14
662.321	1	4
662.491	1	-3
662.660	1	11
662.829	1	8
662.999	1	17
663.168	1	5
663.338	1	8
663.507	1	16
663.677	1	13
663.846	1	11
664.016	1	-3
664.185	1	13
664.354	1	4
664.524	1	18
664.693	1	9
664.863	1	-1
665.032	1	23
665.202	1	24
665.371	1	18
665.541	1	19
665.710	1	13
665.879	1	9
666.049	1	17
666.218	1	17
666.388	1	5
666.557	1	1
666.727	1	18
666.896	1	13
667.065	1	17
667.235	1	6
667.404	1	13
667.574	1	10
667.743	1	6
667.913	1	17
668.082	1	3
668.251	1	2
668.421	1	13
668.590	1	5
668.760	1	15
668.929	1	13
669.099	1	20
669.268	1	1
669.437	1	10
669.607	1	-2
669.776	1	10
669.946	1	11
670.115	1	4
670.285	1	7
670.454	1	20
670.623	1	10
670.793	1	10
670.962	1	5
671.132	1	5
671.301	1	15
671.470	1	11
671.640	1	6
671.809	1	11
671.979	1	0
672.148	1	9
672.317	1	12
672.487	1	8
672.656	1	12
672.826	1	12
672.995	1	7
673.164	1	5
673.334	1	10
673.503	1	11
673.673	1	21
673.842	1	7
674.011	1	15
674.181	1	14
674.350	1	7
674.520	1	20
674.689	1	0
674.858	1	12
675.028	1	10
675.197	1	15
675.367	1	14
675.536	1	1
675.705	1	5
675.875	1	18
676.044	1	8
676.214	1	8
676.383	1	7
676.552	1	8
676.722	1	5
676.891	1	14
677.060	1	16
677.230	1	14
677.399	1	21
677.569	1	22
677.738	1	11
677.907	1	20
678.077	1	7
678.246	1	12
678.416	1	6
678.585	1	15
678.754	1	6
678.924	1	13
679.093	1	19
679.262	1	8
679.432	1	-1
679.601	1	12
679.771	1	14
679.940	1	5
680.109	1	1
680.279	1	13
680.448	1	12
680.617	1	15
680.787	1	1
680.956	1	16
681.125	1	12
681.295	1	10
681.464	1	5
681.634	1	15
681.803	1	6
681.972	1	11
682.142	1	11
682.311	1	14
682.480	1	-2
682.650	1	9
682.819	1	0
682.988	1	11
683.158	1	10
683.327	1	13
683.496	1	9
683.666	1	14
683.835	1	13
684.004	1	8
684.174	1	16
684.343	1	20
684.512	1	13
684.682	1	22
684.851	1	11
685.021	1	19
685.190	1	16
685.359	1	19
685.529	1	16
685.698	1	5
685.867	1	16
686.037	1	8
686.206	1	2
686.375	1	12
686.545	1	10
686.714	1	19
686.883	1	14
687.053	1	32
687.222	1	10
687.391	1	6
687.561	1	6
687.730	1	17
687.899	1	16
688.069	1	11
688.238	1	17
688.407	1	11
688.577	1	13
688.746	1	19
