340.368	1	2
340.539	1	1
340.710	1	3
340.881	1	0
341.052	1	1
341.223	1	8
341.394	1	-9
341.565	1	11
341.737	1	2
341.908	1	9
342.079	1	-2
342.250	1	-1
342.421	1	-5
342.592	1	14
342.763	1	4
342.934	1	3
343.105	1	8
343.276	1	1
343.447	1	-2
343.618	1	-1
343.789	1	2
343.960	1	5
344.131	1	-7
344.302	1	15
344.473	1	3
344.644	1	4
344.815	1	0
344.986	1	1
345.157	1	9
345.328	1	1
345.499	1	7
345.670	1	-2
345.841	1	-1
346.012	1	-7
346.183	1	4
346.354	1	-1
346.526	1	15
346.697	1	7
346.868	1	4
347.039	1	12
347.210	1	-5
347.381	1	20
347.552	1	7
347.723	1	11
347.894	1	-9
348.065	1	4
348.236	1	2
348.407	1	12
348.578	1	-1
348.749	1	11
348.920	1	5
349.091	1	6
349.262	1	0
349.433	1	-4
349.604	1	1
349.775	1	9
349.946	1	10
350.117	1	1
350.288	1	-2
350.459	1	2
350.630	1	-5
350.801	1	1
350.972	1	11
351.143	1	4
351.314	1	-1
351.485	1	11
351.656	1	6
351.827	1	8
351.998	1	9
352.169	1	1
352.340	1	3
352.511	1	-13
352.682	1	-15
352.853	1	-6
353.024	1	17
353.195	1	1
353.366	1	14
353.537	1	-10
353.708	1	0
353.879	1	0
354.050	1	-9
354.221	1	-2
354.392	1	-5
354.563	1	18
354.734	1	4
354.905	1	3
355.076	1	2
355.247	1	1
355.418	1	-6
355.589	1	13
355.760	1	4
355.931	1	8
356.102	1	4
356.273	1	14
356.444	1	6
356.615	1	5
356.785	1	9
356.956	1	9
357.127	1	7
357.298	1	-4
357.469	1	-1
357.640	1	4
357.811	1	0
357.982	1	10
358.153	1	-7
358.324	1	13
358.495	1	1
358.666	1	8
358.837	1	12
359.008	1	0
359.179	1	1
359.350	1	4
359.521	1	6
359.692	1	-3
359.863	1	-6
360.034	1	-8
360.205	1	8
360.376	1	-3
360.547	1	9
360.718	1	4
360.889	1	-2
361.060	1	12
361.231	1	7
361.401	1	-5
361.572	1	7
361.743	1	-4
361.914	1	11
362.085	1	0
362.256	1	9
362.427	1	1
362.598	1	13
362.769	1	8
362.940	1	6
363.111	1	0
363.282	1	2
363.453	1	-3
363.624	1	7
363.795	1	4
363.966	1	4
364.137	1	4
364.308	1	14
364.478	1	7
364.649	1	7
364.820	1	12
364.991	1	10
365.162	1	11
365.333	1	2
365.504	1	4
365.675	1	25
365.846	1	4
366.017	1	18
366.188	1	-2
366.359	1	6
366.530	1	16
366.701	1	13
366.871	1	8
367.042	1	21
367.213	1	13
367.384	1	2
367.555	1	16
367.726	1	4
367.897	1	8
368.068	1	13
368.239	1	16
368.410	1	14
368.581	1	15
368.752	1	33
368.923	1	8
369.093	1	15
369.264	1	13
369.435	1	19
369.606	1	16
369.777	1	21
369.948	1	4
370.119	1	12
370.290	1	16
370.461	1	7
370.632	1	14
370.803	1	12
370.973	1	7
371.144	1	12
371.315	1	11
371.486	1	7
371.657	1	13
371.828	1	0
371.999	1	7
372.170	1	2
372.341	1	3
372.512	1	-1
372.682	1	13
372.853	1	21
373.024	1	7
373.195	1	11
373.366	1	14
373.537	1	-9
373.708	1	9
373.879	1	1
374.050	1	13
374.220	1	1
374.391	1	0
374.562	1	12
374.733	1	4
374.904	1	3
375.075	1	-6
375.246	1	13
375.417	1	3
375.588	1	2
375.758	1	12
375.929	1	7
376.100	1	-2
376.271	1	-2
376.442	1	0
376.613	1	3
376.784	1	7
376.955	1	0
377.125	1	2
377.296	1	0
377.467	1	11
377.638	1	-9
377.809	1	-5
377.980	1	6
378.151	1	0
378.321	1	7
378.492	1	1
378.663	1	9
378.834	1	15
379.005	1	0
379.176	1	-4
379.347	1	3
379.518	1	-2
379.688	1	18
379.859	1	0
380.030	1	11
380.201	1	9
380.372	1	8
380.543	1	2
380.714	1	3
380.884	1	5
381.055	1	-4
381.226	1	5
381.397	1	-1
381.568	1	2
381.739	1	-9
381.910	1	6
382.080	1	3
382.251	1	1
382.422	1	1
382.593	1	4
382.764	1	3
382.935	1	2
383.105	1	2
383.276	1	8
383.447	1	8
383.618	1	1
383.789	1	-10
383.960	1	10
384.130	1	-4
384.301	1	-9
384.472	1	-3
384.643	1	3
384.814	1	14
384.985	1	-4
385.156	1	3
385.326	1	-7
385.497	1	16
385.668	1	-2
385.839	1	8
386.010	1	-10
386.180	1	5
386.351	1	-7
386.522	1	11
386.693	1	-1
386.864	1	-4
387.035	1	4
387.205	1	7
387.376	1	1
387.547	1	1
387.718	1	0
387.889	1	-6
388.060	1	5
388.230	1	-2
388.401	1	2
388.572	1	-1
388.743	1	3
388.914	1	14
389.084	1	3
389.255	1	2
389.426	1	4
389.597	1	4
389.768	1	-1
389.939	1	6
390.109	1	3
390.280	1	5
390.451	1	1
390.622	1	1
390.793	1	0
390.963	1	-5
391.134	1	11
391.305	1	6
391.476	1	4
391.647	1	-2
391.817	1	-13
391.988	1	7
392.159	1	-11
392.330	1	3
392.501	1	-3
392.671	1	10
392.842	1	-4
393.013	1	8
393.184	1	-2
393.355	1	6
393.525	1	-8
393.696	1	5
393.867	1	3
394.038	1	11
394.208	1	-1
394.379	1	5
394.550	1	13
394.721	1	8
394.892	1	4
395.062	1	-4
395.233	1	4
395.404	1	14
395.575	1	9
395.746	1	-2
395.916	1	9
396.087	1	6
396.258	1	6
396.429	1	1
396.599	1	1
396.770	1	5
396.941	1	10
397.112	1	7
397.283	1	10
397.453	1	-4
397.624	1	-3
397.795	1	6
397.966	1	1
398.136	1	15
398.307	1	7
398.478	1	1
398.649	1	-10
398.819	1	3
398.990	1	6
399.161	1	7
399.332	1	0
399.503	1	12
399.673	1	3
399.844	1	3
400.015	1	-2
400.186	1	-5
400.356	1	-6
400.527	1	7
400.698	1	12
400.869	1	-1
401.039	1	1
401.210	1	7
401.381	1	2
401.552	1	-3
401.722	1	8
401.893	1	2
402.064	1	-1
402.235	1	-1
402.405	1	2
402.576	1	7
402.747	1	10
402.918	1	-2
403.088	1	7
403.259	1	0
403.430	1	-4
403.601	1	1
403.771	1	-9
403.942	1	0
404.113	1	9
404.284	1	8
404.454	1	6
404.625	1	6
404.796	1	6
404.967	1	-1
405.137	1	15
405.308	1	-10
405.479	1	2
405.649	1	-3
405.820	1	-4
405.991	1	3
406.162	1	-8
406.332	1	7
406.503	1	12
406.674	1	6
406.845	1	9
407.015	1	14
407.186	1	-10
407.357	1	12
407.527	1	-3
407.698	1	8
407.869	1	-7
408.040	1	16
408.210	1	11
408.381	1	-5
408.552	1	-10
408.722	1	4
408.893	1	-5
409.064	1	6
409.235	1	-1
409.405	1	1
409.576	1	-1
409.747	1	0
409.917	1	8
410.088	1	4
410.259	1	2
410.430	1	5
410.600	1	-1
410.771	1	7
410.942	1	11
411.112	1	-4
411.283	1	3
411.454	1	4
411.625	1	5
411.795	1	2
411.966	1	1
412.137	1	0
412.307	1	1
412.478	1	4
412.649	1	0
412.819	1	11
412.990	1	1
413.161	1	9
413.332	1	-1
413.502	1	1
413.673	1	-5
413.844	1	7
414.014	1	-5
414.185	1	1
414.356	1	4
414.526	1	-3
414.697	1	5
414.868	1	3
415.038	1	2
415.209	1	4
415.380	1	0
415.550	1	2
415.721	1	5
415.892	1	15
416.063	1	12
416.233	1	1
416.404	1	1
416.575	1	-7
416.745	1	-6
416.916	1	3
417.087	1	5
417.257	1	5
417.428	1	7
417.599	1	6
417.769	1	5
417.940	1	-1
418.111	1	4
418.281	1	1
418.452	1	4
418.623	1	-6
418.793	1	-12
418.964	1	13
419.135	1	2
419.305	1	14
419.476	1	4
419.647	1	3
419.817	1	8
419.988	1	10
420.159	1	12
420.329	1	5
420.500	1	-3
420.671	1	20
420.841	1	6
421.012	1	-5
421.183	1	3
421.353	1	6
421.524	1	3
421.695	1	10
421.865	1	1
422.036	1	7
422.206	1	13
422.377	1	1
422.548	1	8
422.718	1	14
422.889	1	5
423.060	1	2
423.230	1	8
423.401	1	-5
423.572	1	-2
423.742	1	9
423.913	1	-3
424.084	1	5
424.254	1	-1
424.425	1	17
424.595	1	12
424.766	1	-4
424.937	1	9
425.107	1	6
425.278	1	4
425.449	1	3
425.619	1	5
425.790	1	0
425.961	1	21
426.131	1	-3
426.302	1	-5
426.472	1	8
426.643	1	-7
426.814	1	3
426.984	1	-3
427.155	1	4
427.326	1	6
427.496	1	-5
427.667	1	4
427.837	1	1
428.008	1	18
428.179	1	1
428.349	1	5
428.520	1	1
428.691	1	4
428.861	1	10
429.032	1	1
429.202	1	-3
429.373	1	8
429.544	1	6
429.714	1	1
429.885	1	2
430.055	1	5
430.226	1	-4
430.397	1	0
430.567	1	-5
430.738	1	11
430.909	1	0
431.079	1	4
431.250	1	-2
431.420	1	3
431.591	1	9
431.762	1	2
431.932	1	-3
432.103	1	5
432.273	1	16
432.444	1	11
432.615	1	-5
432.785	1	4
432.956	1	8
433.126	1	1
433.297	1	6
433.468	1	0
433.638	1	8
433.809	1	-7
433.979	1	3
434.150	1	-1
434.320	1	7
434.491	1	4
434.662	1	15
434.832	1	2
435.003	1	13
435.173	1	5
435.344	1	2
435.515	1	-6
435.685	1	2
435.856	1	3
436.026	1	1
436.197	1	1
436.368	1	4
436.538	1	-2
436.709	1	6
436.879	1	-3
437.050	1	3
437.220	1	11
437.391	1	0
437.562	1	8
437.732	1	-1
437.903	1	-5
438.073	1	2
438.244	1	6
438.414	1	12
438.585	1	0
438.756	1	2
438.926	1	1
439.097	1	2
439.267	1	7
439.438	1	7
439.608	1	-5
439.779	1	1
439.949	1	1
440.120	1	5
440.291	1	10
440.461	1	6
440.632	1	15
440.802	1	3
440.973	1	2
441.143	1	5
441.314	1	-1
441.485	1	1
441.655	1	4
441.826	1	6
441.996	1	4
442.167	1	7
442.337	1	-3
442.508	1	3
442.678	1	2
442.849	1	3
443.019	1	5
443.190	1	-2
443.361	1	7
443.531	1	6
443.702	1	11
443.872	1	-10
444.043	1	7
444.213	1	-7
444.384	1	6
444.554	1	10
444.725	1	14
444.895	1	-1
445.066	1	-3
445.237	1	5
445.407	1	-1
445.578	1	3
445.748	1	-7
445.919	1	6
446.089	1	10
446.260	1	5
446.430	1	6
446.601	1	1
446.771	1	-1
446.942	1	-3
447.112	1	13
447.283	1	11
447.453	1	-10
447.624	1	-14
447.794	1	-3
447.965	1	1
448.135	1	3
448.306	1	1
448.477	1	10
448.647	1	-8
448.818	1	9
448.988	1	9
449.159	1	5
449.329	1	-4
449.500	1	-3
449.670	1	12
449.841	1	-4
450.011	1	8
450.182	1	0
450.352	1	11
450.523	1	2
450.693	1	-3
450.864	1	6
451.034	1	4
451.205	1	2
451.375	1	1
451.546	1	0
451.716	1	3
451.887	1	13
452.057	1	0
452.228	1	-4
452.398	1	9
452.569	1	-1
452.739	1	-2
452.910	1	-3
453.080	1	-5
453.251	1	1
453.421	1	6
453.592	1	-5
453.762	1	3
453.933	1	-1
454.103	1	6
454.274	1	8
454.444	1	3
454.615	1	3
454.785	1	3
454.956	1	6
455.126	1	2
455.297	1	0
455.467	1	2
455.638	1	-1
455.808	1	14
455.979	1	-2
456.149	1	-2
456.320	1	0
456.490	1	1
456.661	1	-5
456.831	1	-2
457.001	1	4
457.172	1	4
457.342	1	0
457.513	1	-2
457.683	1	-2
457.854	1	7
458.024	1	6
458.195	1	8
458.365	1	-2
458.536	1	7
458.706	1	11
458.877	1	3
459.047	1	-4
459.218	1	6
459.388	1	0
459.559	1	-3
459.729	1	-5
459.899	1	-6
460.070	1	10
460.240	1	-1
460.411	1	3
460.581	1	-7
460.752	1	-7
460.922	1	-1
461.093	1	9
461.263	1	7
461.434	1	2
461.604	1	3
461.775	1	4
461.945	1	-4
462.115	1	7
462.286	1	-3
462.456	1	-15
462.627	1	-4
462.797	1	-7
462.968	1	3
463.138	1	-3
463.309	1	11
463.479	1	8
463.649	1	-7
463.820	1	16
463.990	1	5
464.161	1	-2
464.331	1	-4
464.502	1	6
464.672	1	5
464.843	1	6
465.013	1	14
465.183	1	-4
465.354	1	12
465.524	1	6
465.695	1	3
465.865	1	3
466.036	1	9
466.206	1	-1
466.376	1	10
466.547	1	6
466.717	1	-7
466.888	1	-4
467.058	1	10
467.229	1	5
467.399	1	-2
467.569	1	-8
467.740	1	11
467.910	1	3
468.081	1	3
468.251	1	-2
468.422	1	6
468.592	1	-5
468.762	1	0
468.933	1	-6
469.103	1	9
469.274	1	-3
469.444	1	-2
469.614	1	-8
469.785	1	2
469.955	1	-1
470.126	1	6
470.296	1	6
470.467	1	6
470.637	1	4
470.807	1	-1
470.978	1	1
471.148	1	0
471.319	1	-2
471.489	1	5
471.659	1	-3
471.830	1	4
472.000	1	-10
472.171	1	5
472.341	1	2
472.511	1	4
472.682	1	5
472.852	1	-1
473.023	1	-1
473.193	1	0
473.363	1	2
473.534	1	9
473.704	1	-2
473.875	1	-1
474.045	1	-1
474.215	1	5
474.386	1	-1
474.556	1	0
474.727	1	-1
474.897	1	-1
475.067	1	3
475.238	1	8
475.408	1	5
475.578	1	-4
475.749	1	-3
475.919	1	-1
476.090	1	-6
476.260	1	-2
476.430	1	-10
476.601	1	-2
476.771	1	-2
476.942	1	1
477.112	1	-1
477.282	1	-3
477.453	1	3
477.623	1	-2
477.793	1	-1
477.964	1	12
478.134	1	9
478.305	1	-3
478.475	1	-2
478.645	1	5
478.816	1	8
478.986	1	5
479.156	1	2
479.327	1	2
479.497	1	-1
479.667	1	2
479.838	1	2
480.008	1	12
480.179	1	11
480.349	1	-6
480.519	1	-7
480.690	1	2
480.860	1	1
481.030	1	5
481.201	1	-3
481.371	1	-6
481.541	1	-9
481.712	1	8
481.882	1	-5
482.053	1	8
482.223	1	4
482.393	1	-2
482.564	1	11
482.734	1	4
482.904	1	-4
483.075	1	7
483.245	1	1
483.415	1	1
483.586	1	1
483.756	1	5
483.926	1	4
484.097	1	8
484.267	1	8
484.437	1	8
484.608	1	-3
484.778	1	-3
484.948	1	4
485.119	1	3
485.289	1	4
485.459	1	-2
485.630	1	8
485.800	1	-5
485.970	1	-5
486.141	1	8
486.311	1	6
486.481	1	-7
486.652	1	-6
486.822	1	2
486.992	1	7
487.163	1	-5
487.333	1	-8
487.503	1	13
487.674	1	2
487.844	1	-6
488.014	1	9
488.185	1	11
488.355	1	2
488.525	1	-4
488.696	1	-3
488.866	1	-3
489.036	1	0
489.207	1	8
489.377	1	7
489.547	1	-1
489.718	1	-11
489.888	1	9
490.058	1	5
490.228	1	5
490.399	1	11
490.569	1	-1
490.739	1	-1
490.910	1	-4
491.080	1	1
491.250	1	7
491.421	1	0
491.591	1	2
491.761	1	-2
491.932	1	18
492.102	1	7
492.272	1	-4
492.442	1	6
492.613	1	10
492.783	1	2
492.953	1	14
493.124	1	2
493.294	1	-7
493.464	1	-3
493.635	1	7
493.805	1	11
493.975	1	15
494.145	1	0
494.316	1	2
494.486	1	4
494.656	1	5
494.827	1	5
494.997	1	2
495.167	1	8
495.337	1	1
495.508	1	-2
495.678	1	-1
495.848	1	0
496.019	1	-3
496.189	1	-4
496.359	1	-8
496.529	1	-3
496.700	1	-1
496.870	1	4
497.040	1	-9
497.211	1	-5
497.381	1	5
497.551	1	3
497.721	1	4
497.892	1	3
498.062	1	1
498.232	1	9
498.403	1	0
498.573	1	0
498.743	1	6
498.913	1	-1
499.084	1	7
499.254	1	-4
499.424	1	4
499.594	1	5
499.765	1	8
499.935	1	8
500.105	1	8
500.275	1	-1
500.446	1	-7
500.616	1	-11
500.786	1	-6
500.956	1	16
501.127	1	9
501.297	1	1
501.467	1	2
501.638	1	3
501.808	1	6
501.978	1	6
502.148	1	-4
502.319	1	4
502.489	1	1
502.659	1	16
502.829	1	9
503.000	1	7
503.170	1	11
503.340	1	0
503.510	1	-7
503.681	1	-2
503.851	1	7
504.021	1	6
504.191	1	-1
504.362	1	-4
504.532	1	14
504.702	1	-4
504.872	1	-6
505.042	1	-4
505.213	1	-4
505.383	1	11
505.553	1	-2
505.723	1	2
505.894	1	10
506.064	1	-5
506.234	1	5
506.404	1	1
506.575	1	7
506.745	1	0
506.915	1	3
507.085	1	0
507.256	1	5
507.426	1	4
507.596	1	4
507.766	1	5
507.936	1	10
508.107	1	-2
508.277	1	8
508.447	1	3
508.617	1	3
508.788	1	4
508.958	1	-1
509.128	1	10
509.298	1	-1
509.468	1	8
509.639	1	0
509.809	1	5
509.979	1	-8
510.149	1	-2
510.319	1	-7
510.490	1	0
510.660	1	-8
510.830	1	-11
511.000	1	4
511.171	1	10
511.341	1	9
511.511	1	-2
511.681	1	7
511.851	1	16
512.022	1	-11
512.192	1	14
512.362	1	17
512.532	1	13
512.702	1	-4
512.873	1	8
513.043	1	12
513.213	1	7
513.383	1	-5
513.553	1	17
513.724	1	1
513.894	1	3
514.064	1	5
514.234	1	2
514.404	1	11
514.575	1	-1
514.745	1	-1
514.915	1	1
515.085	1	3
515.255	1	-6
515.425	1	11
515.596	1	8
515.766	1	5
515.936	1	-4
516.106	1	13
516.276	1	3
516.447	1	8
516.617	1	-5
516.787	1	2
516.957	1	6
517.127	1	13
517.297	1	-4
517.468	1	10
517.638	1	8
517.808	1	-3
517.978	1	4
518.148	1	11
518.319	1	2
518.489	1	1
518.659	1	12
518.829	1	10
518.999	1	8
519.169	1	-5
519.340	1	-5
519.510	1	-1
519.680	1	5
519.850	1	4
520.020	1	3
520.190	1	5
520.361	1	-1
520.531	1	5
520.701	1	9
520.871	1	-3
521.041	1	13
521.211	1	9
521.382	1	-4
521.552	1	1
521.722	1	-2
521.892	1	9
522.062	1	-1
522.232	1	9
522.402	1	15
522.573	1	6
522.743	1	6
522.913	1	1
523.083	1	0
523.253	1	17
523.423	1	4
523.593	1	4
523.764	1	0
523.934	1	12
524.104	1	10
524.274	1	8
524.444	1	12
524.614	1	2
524.784	1	-6
524.955	1	-1
525.125	1	5
525.295	1	9
525.465	1	9
525.635	1	15
525.805	1	11
525.975	1	7
526.146	1	4
526.316	1	-5
526.486	1	2
526.656	1	-4
526.826	1	0
526.996	1	6
527.166	1	2
527.337	1	3
527.507	1	7
527.677	1	10
527.847	1	-6
528.017	1	-5
528.187	1	10
528.357	1	10
528.527	1	-3
528.698	1	2
528.868	1	-9
529.038	1	8
529.208	1	1
529.378	1	2
529.548	1	9
529.718	1	2
529.888	1	3
530.058	1	-3
530.229	1	7
530.399	1	-3
530.569	1	3
530.739	1	7
530.909	1	12
531.079	1	0
531.249	1	7
531.419	1	-1
531.589	1	-4
531.760	1	-5
531.930	1	3
532.100	1	17
532.270	1	8
532.440	1	3
532.610	1	1
532.780	1	-1
532.950	1	9
533.120	1	-4
533.290	1	8
533.461	1	-1
533.631	1	7
533.801	1	8
533.971	1	0
534.141	1	5
534.311	1	0
534.481	1	17
534.651	1	-12
534.821	1	4
534.991	1	2
535.162	1	3
535.332	1	2
535.502	1	5
535.672	1	2
535.842	1	13
536.012	1	4
536.182	1	7
536.352	1	5
536.522	1	0
536.692	1	5
536.862	1	1
537.032	1	-2
537.203	1	0
537.373	1	10
537.543	1	4
537.713	1	0
537.883	1	10
538.053	1	7
538.223	1	9
538.393	1	7
538.563	1	6
538.733	1	9
538.903	1	-4
539.073	1	-6
539.243	1	11
539.413	1	-2
539.584	1	7
539.754	1	5
539.924	1	4
540.094	1	3
540.264	1	10
540.434	1	4
540.604	1	15
540.774	1	4
540.944	1	6
541.114	1	15
541.284	1	-2
541.454	1	1
541.624	1	1
541.794	1	0
541.964	1	2
542.134	1	12
542.305	1	3
542.475	1	9
542.645	1	-3
542.815	1	5
542.985	1	-1
543.155	1	1
543.325	1	5
543.495	1	10
543.665	1	7
543.835	1	7
544.005	1	2
544.175	1	-9
544.345	1	-4
544.515	1	11
544.685	1	-6
544.855	1	-4
545.025	1	4
545.195	1	6
545.365	1	12
545.535	1	2
545.705	1	7
545.875	1	9
546.045	1	5
546.216	1	-1
546.386	1	-4
546.556	1	-1
546.726	1	3
546.896	1	1
547.066	1	1
547.236	1	9
547.406	1	-7
547.576	1	0
547.746	1	0
547.916	1	9
548.086	1	10
548.256	1	1
548.426	1	1
548.596	1	5
548.766	1	0
548.936	1	5
549.106	1	4
549.276	1	-5
549.446	1	6
549.616	1	7
549.786	1	-2
549.956	1	7
550.126	1	8
550.296	1	7
550.466	1	1
550.636	1	-5
550.806	1	20
550.976	1	1
551.146	1	2
551.316	1	-2
551.486	1	-4
551.656	1	-1
551.826	1	2
551.996	1	-2
552.166	1	7
552.336	1	5
552.506	1	-2
552.676	1	15
552.846	1	10
553.016	1	-2
553.186	1	-5
553.356	1	11
553.526	1	-5
553.696	1	-2
553.866	1	3
554.036	1	7
554.206	1	0
554.376	1	9
554.546	1	3
554.716	1	5
554.886	1	1
555.056	1	2
555.226	1	3
555.396	1	12
555.566	1	-2
555.736	1	5
555.906	1	-4
556.076	1	1
556.246	1	8
556.416	1	9
556.586	1	-1
556.756	1	-6
556.926	1	7
557.096	1	6
557.266	1	13
557.436	1	-2
557.606	1	-1
557.776	1	7
557.946	1	7
558.116	1	12
558.286	1	-4
558.456	1	-1
558.626	1	9
558.796	1	7
558.966	1	-2
559.136	1	-1
559.306	1	10
559.476	1	-1
559.646	1	17
559.816	1	-3
559.986	1	3
560.155	1	9
560.325	1	-3
560.495	1	6
560.665	1	10
560.835	1	4
561.005	1	4
561.175	1	-6
561.345	1	1
561.515	1	9
561.685	1	5
561.855	1	-4
562.025	1	-5
562.195	1	1
562.365	1	-1
562.535	1	-8
562.705	1	16
562.875	1	4
563.045	1	1
563.215	1	6
563.385	1	4
563.555	1	9
563.725	1	2
563.895	1	3
564.064	1	-2
564.234	1	-6
564.404	1	-7
564.574	1	6
564.744	1	13
564.914	1	13
565.084	1	3
565.254	1	10
565.424	1	-6
565.594	1	-1
565.764	1	7
565.934	1	9
566.104	1	14
566.274	1	3
566.444	1	12
566.614	1	-4
566.783	1	7
566.953	1	11
567.123	1	-7
567.293	1	-3
567.463	1	9
567.633	1	-1
567.803	1	11
567.973	1	-3
568.143	1	-4
568.313	1	4
568.483	1	12
568.653	1	-5
568.823	1	-5
568.993	1	4
569.162	1	-5
569.332	1	-1
569.502	1	10
569.672	1	9
569.842	1	-3
570.012	1	-15
570.182	1	-6
570.352	1	5
570.522	1	1
570.692	1	8
570.862	1	-1
571.031	1	12
571.201	1	12
571.371	1	0
571.541	1	-3
571.711	1	1
571.881	1	-5
572.051	1	10
572.221	1	-5
572.391	1	7
572.561	1	3
572.731	1	7
572.900	1	16
573.070	1	6
573.240	1	1
573.410	1	12
573.580	1	8
573.750	1	3
573.920	1	8
574.090	1	3
574.260	1	1
574.430	1	3
574.599	1	15
574.769	1	2
574.939	1	2
575.109	1	18
575.279	1	2
575.449	1	-3
575.619	1	0
575.789	1	7
575.959	1	-5
576.128	1	0
576.298	1	-6
576.468	1	10
576.638	1	4
576.808	1	5
576.978	1	4
577.148	1	-7
577.318	1	5
577.487	1	-5
577.657	1	3
577.827	1	-6
577.997	1	3
578.167	1	4
578.337	1	-2
578.507	1	0
578.677	1	10
578.846	1	3
579.016	1	-1
579.186	1	-3
579.356	1	0
579.526	1	-8
579.696	1	-2
579.866	1	0
580.036	1	-7
580.205	1	8
580.375	1	9
580.545	1	9
580.715	1	8
580.885	1	-2
581.055	1	-1
581.225	1	3
581.394	1	2
581.564	1	-3
581.734	1	-1
581.904	1	-4
582.074	1	-3
582.244	1	7
582.414	1	-1
582.583	1	-2
582.753	1	-4
582.923	1	-2
583.093	1	11
583.263	1	-2
583.433	1	5
583.603	1	3
583.772	1	9
583.942	1	-3
584.112	1	7
584.282	1	2
584.452	1	1
584.622	1	-7
584.791	1	8
584.961	1	0
585.131	1	18
585.301	1	-1
585.471	1	0
585.641	1	10
585.811	1	5
585.980	1	3
586.150	1	9
586.320	1	-2
586.490	1	1
586.660	1	1
586.830	1	-2
586.999	1	-3
587.169	1	-2
587.339	1	-1
587.509	1	2
587.679	1	0
587.849	1	12
588.018	1	3
588.188	1	15
588.358	1	20
588.528	1	-9
588.698	1	4
588.867	1	6
589.037	1	4
589.207	1	4
589.377	1	6
589.547	1	16
589.717	1	4
589.886	1	4
590.056	1	4
590.226	1	2
590.396	1	-5
590.566	1	2
590.735	1	2
590.905	1	-5
591.075	1	-1
591.245	1	-1
591.415	1	14
591.585	1	-4
591.754	1	-9
591.924	1	-6
592.094	1	9
592.264	1	-7
592.434	1	-10
592.603	1	-5
592.773	1	8
592.943	1	-3
593.113	1	-4
593.283	1	0
593.452	1	1
593.622	1	-1
593.792	1	4
593.962	1	9
594.132	1	4
594.301	1	-5
594.471	1	-7
594.641	1	3
594.811	1	-2
594.981	1	3
595.150	1	-3
595.320	1	-2
595.490	1	-6
595.660	1	10
595.829	1	-8
595.999	1	14
596.169	1	1
596.339	1	6
596.509	1	1
596.678	1	-5
596.848	1	3
597.018	1	-10
597.188	1	5
597.358	1	5
597.527	1	3
597.697	1	-4
597.867	1	4
598.037	1	-1
598.206	1	3
598.376	1	-13
598.546	1	3
598.716	1	-1
598.885	1	-2
599.055	1	6
599.225	1	4
599.395	1	9
599.565	1	3
599.734	1	0
599.904	1	6
600.074	1	-12
600.244	1	1
600.413	1	-2
600.583	1	6
600.753	1	10
600.923	1	7
601.092	1	-7
601.262	1	-2
601.432	1	0
601.602	1	13
601.771	1	-2
601.941	1	0
602.111	1	-3
602.281	1	17
602.451	1	-2
602.620	1	9
602.790	1	9
602.960	1	-3
603.130	1	-1
603.299	1	6
603.469	1	3
603.639	1	15
603.809	1	7
603.978	1	5
604.148	1	-8
604.318	1	3
604.487	1	1
604.657	1	8
604.827	1	4
604.997	1	8
605.166	1	2
605.336	1	4
605.506	1	0
605.676	1	-3
605.845	1	3
606.015	1	-2
606.185	1	-7
606.355	1	-3
606.524	1	-6
606.694	1	11
606.864	1	10
607.034	1	3
607.203	1	4
607.373	1	-1
607.543	1	8
607.712	1	-2
607.882	1	9
608.052	1	-5
608.222	1	3
608.391	1	-3
608.561	1	2
608.731	1	-13
608.901	1	2
609.070	1	5
609.240	1	8
609.410	1	8
609.579	1	3
609.749	1	-7
609.919	1	-9
610.089	1	11
610.258	1	2
610.428	1	5
610.598	1	-4
610.767	1	4
610.937	1	3
611.107	1	9
611.277	1	8
611.446	1	13
611.616	1	15
611.786	1	-7
611.955	1	-8
612.125	1	2
612.295	1	7
612.465	1	-1
612.634	1	-2
612.804	1	4
612.974	1	-6
613.143	1	2
613.313	1	6
613.483	1	-4
613.652	1	2
613.822	1	-2
613.992	1	-2
614.162	1	14
614.331	1	16
614.501	1	-7
614.671	1	9
614.840	1	5
615.010	1	5
615.180	1	5
615.349	1	4
615.519	1	-8
615.689	1	-4
615.858	1	-2
616.028	1	11
616.198	1	3
616.368	1	11
616.537	1	-9
616.707	1	6
616.877	1	-6
617.046	1	-1
617.216	1	-6
617.386	1	5
617.555	1	7
617.725	1	2
617.895	1	8
618.064	1	2
618.234	1	-10
618.404	1	4
618.573	1	9
618.743	1	8
618.913	1	2
619.082	1	18
619.252	1	0
619.422	1	15
619.591	1	3
619.761	1	-10
619.931	1	8
620.100	1	6
620.270	1	-6
620.440	1	12
620.609	1	-6
620.779	1	2
620.949	1	7
621.118	1	12
621.288	1	11
621.458	1	1
621.627	1	3
621.797	1	4
621.967	1	0
622.136	1	-1
622.306	1	-2
622.476	1	7
622.645	1	3
622.815	1	3
622.985	1	-2
623.154	1	-3
623.324	1	2
623.494	1	-4
623.663	1	-4
623.833	1	-1
624.002	1	9
624.172	1	10
624.342	1	7
624.511	1	-5
624.681	1	-2
624.851	1	0
625.020	1	-4
625.190	1	-3
625.360	1	2
625.529	1	0
625.699	1	12
625.869	1	11
626.038	1	8
626.208	1	-6
626.377	1	5
626.547	1	-7
626.717	1	-2
626.886	1	-4
627.056	1	-3
627.226	1	13
627.395	1	-1
627.565	1	4
627.735	1	6
627.904	1	0
628.074	1	5
628.243	1	9
628.413	1	2
628.583	1	3
628.752	1	-1
628.922	1	9
629.091	1	1
629.261	1	-4
629.431	1	-9
629.600	1	-5
629.770	1	-2
629.940	1	7
630.109	1	-4
630.279	1	11
630.448	1	3
630.618	1	9
630.788	1	3
630.957	1	-4
631.127	1	3
631.297	1	0
631.466	1	-8
631.636	1	-4
631.805	1	5
631.975	1	12
632.145	1	6
632.314	1	-1
632.484	1	7
632.653	1	4
632.823	1	0
632.993	1	10
633.162	1	5
633.332	1	10
633.501	1	-1
633.671	1	5
633.841	1	5
634.010	1	2
634.180	1	-7
634.349	1	6
634.519	1	-3
634.689	1	-3
634.858	1	1
635.028	1	0
635.197	1	-1
635.367	1	6
635.537	1	4
635.706	1	1
635.876	1	-6
636.045	1	-6
636.215	1	-9
636.384	1	12
636.554	1	-11
636.724	1	16
636.893	1	7
637.063	1	-3
637.232	1	1
637.402	1	11
637.572	1	1
637.741	1	-3
637.911	1	4
638.080	1	4
638.250	1	1
638.419	1	-8
638.589	1	4
638.759	1	6
638.928	1	6
639.098	1	3
639.267	1	8
639.437	1	4
639.606	1	6
639.776	1	0
639.946	1	-1
640.115	1	-6
640.285	1	-8
640.454	1	-7
640.624	1	4
640.793	1	-1
640.963	1	12
641.132	1	11
641.302	1	9
641.472	1	10
641.641	1	2
641.811	1	-2
641.980	1	8
642.150	1	-3
642.319	1	16
642.489	1	13
642.659	1	2
642.828	1	13
642.998	1	2
643.167	1	6
643.337	1	-3
643.506	1	-1
643.676	1	2
643.845	1	7
644.015	1	2
644.184	1	7
644.354	1	5
644.524	1	-6
644.693	1	-7
644.863	1	2
645.032	1	-8
645.202	1	-2
645.371	1	3
645.541	1	-9
645.710	1	7
645.880	1	17
646.049	1	7
646.219	1	2
646.388	1	-4
646.558	1	-5
646.728	1	11
646.897	1	-4
647.067	1	7
647.236	1	-12
647.406	1	11
647.575	1	17
647.745	1	-7
647.914	1	6
648.084	1	-5
648.253	1	10
648.423	1	6
648.592	1	12
648.762	1	2
648.931	1	3
649.101	1	-10
649.270	1	12
649.440	1	-1
649.610	1	7
649.779	1	-5
649.949	1	3
650.118	1	4
650.288	1	7
650.457	1	6
650.627	1	-6
650.796	1	-2
650.966	1	-3
651.135	1	-1
651.305	1	10
651.474	1	3
651.644	1	13
651.813	1	2
651.983	1	0
652.152	1	6
652.322	1	2
652.491	1	-2
652.661	1	1
652.830	1	7
653.000	1	7
653.169	1	-2
653.339	1	3
653.508	1	1
653.678	1	8
653.847	1	5
654.017	1	7
654.186	1	4
654.356	1	14
654.525	1	7
654.695	1	14
654.864	1	-6
655.034	1	0
655.203	1	12
655.373	1	-6
655.542	1	-9
655.712	1	6
655.881	1	4
656.051	1	1
656.220	1	1
656.390	1	-3
656.559	1	6
656.729	1	10
656.898	1	2
657.068	1	-5
657.237	1	0
657.406	1	-4
657.576	1	3
657.745	1	8
657.915	1	9
658.084	1	4
658.254	1	1
658.423	1	1
658.593	1	8
658.762	1	2
658.932	1	9
659.101	1	2
659.271	1	-4
659.440	1	-3
659.610	1	12
659.779	1	9
659.949	1	-7
660.118	1	-1
660.288	1	-4
660.457	1	-2
660.626	1	-8
660.796	1	8
660.965	1	8
661.135	1	8
661.304	1	3
661.474	1	4
661.643	1	8
661.813	1	3
661.982	1	-10
662.152	1	2
662.321	1	-7
662.491	1	-9
662.660	1	10
662.829	1	8
662.999	1	11
663.168	1	3
663.338	1	-5
663.507	1	4
663.677	1	4
663.846	1	-5
664.016	1	-4
664.185	1	6
664.354	1	-3
664.524	1	13
664.693	1	5
664.863	1	-5
665.032	1	0
665.202	1	5
665.371	1	13
665.541	1	5
665.710	1	8
665.879	1	6
666.049	1	5
666.218	1	7
666.388	1	2
666.557	1	1
666.727	1	3
666.896	1	0
667.065	1	8
667.235	1	-8
667.404	1	7
667.574	1	-4
667.743	1	0
667.913	1	5
668.082	1	-1
668.251	1	-11
668.421	1	9
668.590	1	1
668.760	1	-3
668.929	1	1
669.099	1	0
669.268	1	-12
669.437	1	-4
669.607	1	-5
669.776	1	-2
669.946	1	6
670.115	1	3
670.285	1	-4
670.454	1	2
670.623	1	-3
670.793	1	-8
670.962	1	4
671.132	1	5
671.301	1	-2
671.470	1	3
671.640	1	4
671.809	1	4
671.979	1	-3
672.148	1	5
672.317	1	3
672.487	1	-2
672.656	1	7
672.826	1	3
672.995	1	-3
673.164	1	-7
673.334	1	-3
673.503	1	1
673.673	1	11
673.842	1	2
674.011	1	7
674.181	1	8
674.350	1	7
674.520	1	1
674.689	1	-6
674.858	1	2
675.028	1	2
675.197	1	5
675.367	1	-2
675.536	1	-3
675.705	1	-6
675.875	1	3
676.044	1	-7
676.214	1	6
676.383	1	5
676.552	1	-2
676.722	1	3
676.891	1	-3
677.060	1	-1
677.230	1	0
677.399	1	17
677.569	1	13
677.738	1	1
677.907	1	16
678.077	1	-8
678.246	1	5
678.416	1	-9
678.585	1	4
678.754	1	-4
678.924	1	-8
679.093	1	5
679.262	1	1
679.432	1	-2
679.601	1	6
679.771	1	8
679.940	1	-7
680.109	1	0
680.279	1	-2
680.448	1	9
680.617	1	4
680.787	1	-10
680.956	1	5
681.125	1	0
681.295	1	0
681.464	1	1
681.634	1	8
681.803	1	4
681.972	1	-2
682.142	1	-3
682.311	1	1
682.480	1	-7
682.650	1	-6
682.819	1	8
682.988	1	8
683.158	1	-9
683.327	1	3
683.496	1	0
683.666	1	7
683.835	1	0
684.004	1	-2
684.174	1	-5
684.343	1	11
684.512	1	4
684.682	1	22
684.851	1	-1
685.021	1	9
685.190	1	-5
685.359	1	3
685.529	1	-5
685.698	1	-9
685.867	1	4
686.037	1	4
686.206	1	1
686.375	1	5
686.545	1	-4
686.714	1	4
686.883	1	6
687.053	1	20
687.222	1	2
687.391	1	-4
687.561	1	-5
687.730	1	8
687.899	1	6
688.069	1	4
688.238	1	10
688.407	1	-3
688.577	1	-3
688.746	1	-6
