340.368	1	0
340.539	1	-3
340.710	1	4
340.881	1	6
341.052	1	1
341.223	1	5
341.394	1	-4
341.565	1	5
341.737	1	7
341.908	1	10
342.079	1	7
342.250	1	4
342.421	1	0
342.592	1	11
342.763	1	2
342.934	1	3
343.105	1	6
343.276	1	0
343.447	1	1
343.618	1	13
343.789	1	4
343.960	1	5
344.131	1	-4
344.302	1	6
344.473	1	3
344.644	1	8
344.815	1	-3
344.986	1	-2
345.157	1	11
345.328	1	3
345.499	1	3
345.670	1	-3
345.841	1	2
346.012	1	-6
346.183	1	-5
346.354	1	2
346.526	1	13
346.697	1	8
346.868	1	0
347.039	1	15
347.210	1	1
347.381	1	5
347.552	1	19
347.723	1	7
347.894	1	-4
348.065	1	0
348.236	1	7
348.407	1	9
348.578	1	-1
348.749	1	10
348.920	1	6
349.091	1	5
349.262	1	3
349.433	1	-7
349.604	1	-7
349.775	1	6
349.946	1	6
350.117	1	4
350.288	1	-6
350.459	1	3
350.630	1	-2
350.801	1	0
350.972	1	13
351.143	1	0
351.314	1	-5
351.485	1	10
351.656	1	6
351.827	1	11
351.998	1	2
352.169	1	8
352.340	1	3
352.511	1	-8
352.682	1	-15
352.853	1	-9
353.024	1	3
353.195	1	-7
353.366	1	9
353.537	1	-3
353.708	1	4
353.879	1	3
354.050	1	-7
354.221	1	0
354.392	1	-7
354.563	1	10
354.734	1	10
354.905	1	6
355.076	1	13
355.247	1	0
355.418	1	6
355.589	1	11
355.760	1	3
355.931	1	13
356.102	1	-9
356.273	1	15
356.444	1	13
356.615	1	1
356.785	1	4
356.956	1	1
357.127	1	11
357.298	1	-1
357.469	1	2
357.640	1	0
357.811	1	6
357.982	1	0
358.153	1	-13
358.324	1	2
358.495	1	-2
358.666	1	1
358.837	1	15
359.008	1	-2
359.179	1	5
359.350	1	1
359.521	1	5
359.692	1	4
359.863	1	2
360.034	1	2
360.205	1	10
360.376	1	-10
360.547	1	6
360.718	1	5
360.889	1	3
361.060	1	10
361.231	1	1
361.401	1	5
361.572	1	8
361.743	1	-8
361.914	1	2
362.085	1	4
362.256	1	12
362.427	1	1
362.598	1	10
362.769	1	6
362.940	1	17
363.111	1	9
363.282	1	-3
363.453	1	-2
363.624	1	6
363.795	1	8
363.966	1	0
364.137	1	3
364.308	1	17
364.478	1	18
364.649	1	12
364.820	1	11
364.991	1	21
365.162	1	19
365.333	1	6
365.504	1	-2
365.675	1	16
365.846	1	-6
366.017	1	17
366.188	1	8
366.359	1	10
366.530	1	7
366.701	1	7
366.871	1	20
367.042	1	15
367.213	1	21
367.384	1	7
367.555	1	12
367.726	1	12
367.897	1	16
368.068	1	25
368.239	1	17
368.410	1	15
368.581	1	16
368.752	1	32
368.923	1	-14
369.093	1	19
369.264	1	17
369.435	1	21
369.606	1	7
369.777	1	27
369.948	1	10
370.119	1	13
370.290	1	15
370.461	1	14
370.632	1	8
370.803	1	5
370.973	1	15
371.144	1	11
371.315	1	13
371.486	1	16
371.657	1	14
371.828	1	9
371.999	1	9
372.170	1	3
372.341	1	12
372.512	1	0
372.682	1	13
372.853	1	18
373.024	1	10
373.195	1	7
373.366	1	20
373.537	1	-3
373.708	1	1
373.879	1	12
374.050	1	16
374.220	1	12
374.391	1	-5
374.562	1	14
374.733	1	0
374.904	1	12
375.075	1	-5
375.246	1	22
375.417	1	9
375.588	1	4
375.758	1	5
375.929	1	12
376.100	1	-6
376.271	1	7
376.442	1	17
376.613	1	14
376.784	1	-5
376.955	1	9
377.125	1	1
377.296	1	4
377.467	1	10
377.638	1	-6
377.809	1	-5
377.980	1	-1
378.151	1	-3
378.321	1	10
378.492	1	7
378.663	1	11
378.834	1	12
379.005	1	-1
379.176	1	0
379.347	1	4
379.518	1	9
379.688	1	9
379.859	1	4
380.030	1	13
380.201	1	-1
380.372	1	9
380.543	1	2
380.714	1	11
380.884	1	1
381.055	1	9
381.226	1	4
381.397	1	3
381.568	1	-3
381.739	1	-4
381.910	1	13
382.080	1	5
382.251	1	-6
382.422	1	10
382.593	1	9
382.764	1	4
382.935	1	-4
383.105	1	2
383.276	1	10
383.447	1	2
383.618	1	7
383.789	1	3
383.960	1	-2
384.130	1	7
384.301	1	-4
384.472	1	-5
384.643	1	3
384.814	1	9
384.985	1	-3
385.156	1	11
385.326	1	-8
385.497	1	14
385.668	1	6
385.839	1	-1
386.010	1	5
386.180	1	-2
386.351	1	-1
386.522	1	2
386.693	1	6
386.864	1	-3
387.035	1	3
387.205	1	2
387.376	1	3
387.547	1	8
387.718	1	-1
387.889	1	-1
388.060	1	3
388.230	1	4
388.401	1	11
388.572	1	0
388.743	1	-2
388.914	1	11
389.084	1	9
389.255	1	9
389.426	1	-5
389.597	1	-2
389.768	1	7
389.939	1	11
390.109	1	-4
390.280	1	1
390.451	1	6
390.622	1	-5
390.793	1	6
390.963	1	-3
391.134	1	8
391.305	1	-5
391.476	1	2
391.647	1	-4
391.817	1	1
391.988	1	0
392.159	1	-7
392.330	1	-1
392.501	1	8
392.671	1	7
392.842	1	-10
393.013	1	3
393.184	1	1
393.355	1	16
393.525	1	-3
393.696	1	0
393.867	1	0
394.038	1	7
394.208	1	6
394.379	1	2
394.550	1	6
394.721	1	-1
394.892	1	15
395.062	1	0
395.233	1	8
395.404	1	3
395.575	1	3
395.746	1	-5
395.916	1	-1
396.087	1	14
396.258	1	0
396.429	1	6
396.599	1	14
396.770	1	6
396.941	1	4
397.112	1	-3
397.283	1	15
397.453	1	0
397.624	1	9
397.795	1	-6
397.966	1	1
398.136	1	10
398.307	1	6
398.478	1	0
398.649	1	-1
398.819	1	2
398.990	1	5
399.161	1	6
399.332	1	11
399.503	1	2
399.673	1	-2
399.844	1	-4
400.015	1	-6
400.186	1	6
400.356	1	-5
400.527	1	13
400.698	1	8
400.869	1	1
401.039	1	-6
401.210	1	3
401.381	1	1
401.552	1	16
401.722	1	7
401.893	1	3
402.064	1	1
402.235	1	1
402.405	1	2
402.576	1	3
402.747	1	14
402.918	1	-5
403.088	1	4
403.259	1	6
403.430	1	-2
403.601	1	7
403.771	1	2
403.942	1	-4
404.113	1	8
404.284	1	13
404.454	1	0
404.625	1	-4
404.796	1	12
404.967	1	2
405.137	1	6
405.308	1	-9
405.479	1	6
405.649	1	0
405.820	1	1
405.991	1	7
406.162	1	3
406.332	1	3
406.503	1	5
406.674	1	-2
406.845	1	12
407.015	1	8
407.186	1	-3
407.357	1	10
407.527	1	0
407.698	1	-2
407.869	1	-5
408.040	1	10
408.210	1	6
408.381	1	0
408.552	1	-13
408.722	1	8
408.893	1	-8
409.064	1	0
409.235	1	-1
409.405	1	4
409.576	1	2
409.747	1	-5
409.917	1	4
410.088	1	5
410.259	1	-6
410.430	1	12
410.600	1	2
410.771	1	1
410.942	1	5
411.112	1	6
411.283	1	4
411.454	1	8
411.625	1	0
411.795	1	3
411.966	1	3
412.137	1	0
412.307	1	-5
412.478	1	16
412.649	1	7
412.819	1	8
412.990	1	15
413.161	1	2
413.332	1	9
413.502	1	8
413.673	1	7
413.844	1	7
414.014	1	0
414.185	1	0
414.356	1	4
414.526	1	1
414.697	1	7
414.868	1	-3
415.038	1	-1
415.209	1	2
415.380	1	0
415.550	1	2
415.721	1	10
415.892	1	5
416.063	1	11
416.233	1	6
416.404	1	3
416.575	1	-6
416.745	1	-3
416.916	1	1
417.087	1	-6
417.257	1	4
417.428	1	-4
417.599	1	14
417.769	1	-4
417.940	1	-3
418.111	1	1
418.281	1	11
418.452	1	1
418.623	1	0
418.793	1	9
418.964	1	5
419.135	1	4
419.305	1	9
419.476	1	-1
419.647	1	-4
419.817	1	5
419.988	1	16
420.159	1	17
420.329	1	6
420.500	1	3
420.671	1	10
420.841	1	-3
421.012	1	-2
421.183	1	13
421.353	1	6
421.524	1	13
421.695	1	3
421.865	1	1
422.036	1	9
422.206	1	8
422.377	1	-1
422.548	1	10
422.718	1	-3
422.889	1	6
423.060	1	3
423.230	1	3
423.401	1	5
423.572	1	-1
423.742	1	10
423.913	1	-7
424.084	1	6
424.254	1	-5
424.425	1	8
424.595	1	6
424.766	1	4
424.937	1	9
425.107	1	-1
425.278	1	-3
425.449	1	5
425.619	1	1
425.790	1	6
425.961	1	5
426.131	1	7
426.302	1	-1
426.472	1	16
426.643	1	0
426.814	1	7
426.984	1	3
427.155	1	8
427.326	1	4
427.496	1	0
427.667	1	4
427.837	1	1
428.008	1	10
428.179	1	12
428.349	1	4
428.520	1	7
428.691	1	7
428.861	1	9
429.032	1	0
429.202	1	-5
429.373	1	1
429.544	1	6
429.714	1	11
429.885	1	4
430.055	1	13
430.226	1	-11
430.397	1	2
430.567	1	-5
430.738	1	12
430.909	1	-1
431.079	1	9
431.250	1	7
431.420	1	12
431.591	1	1
431.762	1	5
431.932	1	8
432.103	1	8
432.273	1	7
432.444	1	2
432.615	1	-1
432.785	1	-1
432.956	1	4
433.126	1	-1
433.297	1	5
433.468	1	6
433.638	1	5
433.809	1	-10
433.979	1	4
434.150	1	4
434.320	1	-2
434.491	1	18
434.662	1	11
434.832	1	-1
435.003	1	5
435.173	1	5
435.344	1	5
435.515	1	1
435.685	1	2
435.856	1	-5
436.026	1	-7
436.197	1	0
436.368	1	7
436.538	1	-2
436.709	1	0
436.879	1	3
437.050	1	-6
437.220	1	9
437.391	1	1
437.562	1	4
437.732	1	9
437.903	1	-4
438.073	1	-4
438.244	1	8
438.414	1	8
438.585	1	-4
438.756	1	4
438.926	1	-7
439.097	1	2
439.267	1	-6
439.438	1	13
439.608	1	-1
439.779	1	7
439.949	1	-5
440.120	1	2
440.291	1	7
440.461	1	9
440.632	1	3
440.802	1	5
440.973	1	3
441.143	1	0
441.314	1	-3
441.485	1	3
441.655	1	11
441.826	1	6
441.996	1	5
442.167	1	5
442.337	1	0
442.508	1	6
442.678	1	6
442.849	1	8
443.019	1	4
443.190	1	3
443.361	1	5
443.531	1	2
443.702	1	15
443.872	1	0
444.043	1	3
444.213	1	-1
444.384	1	7
444.554	1	7
444.725	1	17
444.895	1	2
445.066	1	4
445.237	1	7
445.407	1	5
445.578	1	1
445.748	1	-1
445.919	1	3
446.089	1	0
446.260	1	10
446.430	1	2
446.601	1	4
446.771	1	-6
446.942	1	5
447.112	1	6
447.283	1	10
447.453	1	-11
447.624	1	-7
447.794	1	-2
447.965	1	4
448.135	1	8
448.306	1	6
448.477	1	4
448.647	1	0
448.818	1	2
448.988	1	-4
449.159	1	1
449.329	1	4
449.500	1	4
449.670	1	5
449.841	1	-1
450.011	1	-4
450.182	1	2
450.352	1	1
450.523	1	4
450.693	1	5
450.864	1	3
451.034	1	-6
451.205	1	8
451.375	1	9
451.546	1	11
451.716	1	6
451.887	1	10
452.057	1	11
452.228	1	1
452.398	1	12
452.569	1	2
452.739	1	5
452.910	1	-6
453.080	1	2
453.251	1	-1
453.421	1	1
453.592	1	-2
453.762	1	3
453.933	1	-5
454.103	1	4
454.274	1	-1
454.444	1	0
454.615	1	-4
454.785	1	10
454.956	1	15
455.126	1	0
455.297	1	0
455.467	1	5
455.638	1	-4
455.808	1	8
455.979	1	-3
456.149	1	2
456.320	1	5
456.490	1	-2
456.661	1	-4
456.831	1	1
457.001	1	13
457.172	1	1
457.342	1	-9
457.513	1	2
457.683	1	-6
457.854	1	-5
458.024	1	5
458.195	1	6
458.365	1	-6
458.536	1	8
458.706	1	17
458.877	1	4
459.047	1	-7
459.218	1	8
459.388	1	0
459.559	1	-1
459.729	1	3
459.899	1	6
460.070	1	11
460.240	1	-3
460.411	1	7
460.581	1	-5
460.752	1	-4
460.922	1	3
461.093	1	-3
461.263	1	10
461.434	1	-5
461.604	1	2
461.775	1	11
461.945	1	10
462.115	1	0
462.286	1	-4
462.456	1	1
462.627	1	2
462.797	1	-1
462.968	1	3
463.138	1	-5
463.309	1	4
463.479	1	-2
463.649	1	5
463.820	1	3
463.990	1	6
464.161	1	-6
464.331	1	9
464.502	1	-2
464.672	1	0
464.843	1	8
465.013	1	-3
465.183	1	-5
465.354	1	15
465.524	1	6
465.695	1	10
465.865	1	6
466.036	1	0
466.206	1	-7
466.376	1	14
466.547	1	-1
466.717	1	-3
466.888	1	4
467.058	1	5
467.229	1	11
467.399	1	-3
467.569	1	5
467.740	1	15
467.910	1	11
468.081	1	2
468.251	1	-5
468.422	1	3
468.592	1	5
468.762	1	9
468.933	1	3
469.103	1	-1
469.274	1	-4
469.444	1	5
469.614	1	-4
469.785	1	4
469.955	1	-2
470.126	1	14
470.296	1	-1
470.467	1	-4
470.637	1	2
470.807	1	1
470.978	1	5
471.148	1	-1
471.319	1	0
471.489	1	6
471.659	1	4
471.830	1	3
472.000	1	-10
472.171	1	0
472.341	1	7
472.511	1	6
472.682	1	2
472.852	1	14
473.023	1	1
473.193	1	8
473.363	1	3
473.534	1	0
473.704	1	1
473.875	1	7
474.045	1	1
474.215	1	-5
474.386	1	8
474.556	1	-5
474.727	1	1
474.897	1	-7
475.067	1	-5
475.238	1	14
475.408	1	-5
475.578	1	2
475.749	1	13
475.919	1	1
476.090	1	6
476.260	1	-5
476.430	1	-11
476.601	1	-3
476.771	1	-4
476.942	1	-2
477.112	1	11
477.282	1	-8
477.453	1	-3
477.623	1	-2
477.793	1	1
477.964	1	-4
478.134	1	8
478.305	1	7
478.475	1	0
478.645	1	7
478.816	1	3
478.986	1	13
479.156	1	-2
479.327	1	13
479.497	1	-5
479.667	1	10
479.838	1	13
480.008	1	10
480.179	1	9
480.349	1	-2
480.519	1	-1
480.690	1	-1
480.860	1	3
481.030	1	-2
481.201	1	4
481.371	1	-12
481.541	1	-4
481.712	1	13
481.882	1	4
482.053	1	3
482.223	1	-8
482.393	1	-9
482.564	1	14
482.734	1	2
482.904	1	-7
483.075	1	1
483.245	1	2
483.415	1	6
483.586	1	3
483.756	1	6
483.926	1	-2
484.097	1	13
484.267	1	1
484.437	1	7
484.608	1	0
484.778	1	-6
484.948	1	5
485.119	1	8
485.289	1	-2
485.459	1	-8
485.630	1	5
485.800	1	-3
485.970	1	-3
486.141	1	9
486.311	1	6
486.481	1	-9
486.652	1	-7
486.822	1	10
486.992	1	8
487.163	1	-12
487.333	1	-2
487.503	1	5
487.674	1	-4
487.844	1	-1
488.014	1	10
488.185	1	6
488.355	1	3
488.525	1	-2
488.696	1	6
488.866	1	4
489.036	1	6
489.207	1	-4
489.377	1	1
489.547	1	7
489.718	1	-10
489.888	1	3
490.058	1	10
490.228	1	12
490.399	1	9
490.569	1	-9
490.739	1	2
490.910	1	8
491.080	1	-2
491.250	1	4
491.421	1	0
491.591	1	-1
491.761	1	-8
491.932	1	1
492.102	1	1
492.272	1	-9
492.442	1	5
492.613	1	-2
492.783	1	18
492.953	1	1
493.124	1	8
493.294	1	-10
493.464	1	-3
493.635	1	7
493.805	1	14
493.975	1	17
494.145	1	2
494.316	1	-10
494.486	1	3
494.656	1	1
494.827	1	3
494.997	1	-6
495.167	1	4
495.337	1	1
495.508	1	-2
495.678	1	1
495.848	1	-7
496.019	1	-3
496.189	1	-5
496.359	1	3
496.529	1	-2
496.700	1	3
496.870	1	5
497.040	1	-8
497.211	1	-2
497.381	1	7
497.551	1	1
497.721	1	-6
497.892	1	-1
498.062	1	-5
498.232	1	2
498.403	1	10
498.573	1	5
498.743	1	6
498.913	1	-3
499.084	1	7
499.254	1	-7
499.424	1	-1
499.594	1	1
499.765	1	7
499.935	1	13
500.105	1	16
500.275	1	2
500.446	1	0
500.616	1	-2
500.786	1	-9
500.956	1	8
501.127	1	0
501.297	1	7
501.467	1	2
501.638	1	2
501.808	1	2
501.978	1	0
502.148	1	-2
502.319	1	3
502.489	1	4
502.659	1	19
502.829	1	-7
503.000	1	6
503.170	1	6
503.340	1	2
503.510	1	-4
503.681	1	3
503.851	1	15
504.021	1	2
504.191	1	-3
504.362	1	-1
504.532	1	11
504.702	1	-3
504.872	1	-1
505.042	1	-5
505.213	1	-3
505.383	1	-3
505.553	1	6
505.723	1	6
505.894	1	4
506.064	1	-1
506.234	1	20
506.404	1	7
506.575	1	18
506.745	1	7
506.915	1	1
507.085	1	8
507.256	1	4
507.426	1	3
507.596	1	5
507.766	1	7
507.936	1	6
508.107	1	-15
508.277	1	13
508.447	1	8
508.617	1	8
508.788	1	-6
508.958	1	2
509.128	1	4
509.298	1	-5
509.468	1	3
509.639	1	-1
509.809	1	-4
509.979	1	1
510.149	1	-2
510.319	1	13
510.490	1	-8
510.660	1	0
510.830	1	-1
511.000	1	-3
511.171	1	5
511.341	1	13
511.511	1	7
511.681	1	10
511.851	1	17
512.022	1	-4
512.192	1	12
512.362	1	6
512.532	1	10
512.702	1	-5
512.873	1	-4
513.043	1	4
513.213	1	8
513.383	1	10
513.553	1	8
513.724	1	-6
513.894	1	-5
514.064	1	12
514.234	1	7
514.404	1	5
514.575	1	5
514.745	1	-6
514.915	1	8
515.085	1	2
515.255	1	4
515.425	1	1
515.596	1	4
515.766	1	0
515.936	1	1
516.106	1	-2
516.276	1	-2
516.447	1	9
516.617	1	1
516.787	1	11
516.957	1	1
517.127	1	10
517.297	1	-4
517.468	1	15
517.638	1	11
517.808	1	-5
517.978	1	5
518.148	1	13
518.319	1	-1
518.489	1	4
518.659	1	9
518.829	1	5
518.999	1	8
519.169	1	-1
519.340	1	-1
519.510	1	-5
519.680	1	1
519.850	1	10
520.020	1	11
520.190	1	6
520.361	1	5
520.531	1	4
520.701	1	-1
520.871	1	4
521.041	1	13
521.211	1	6
521.382	1	1
521.552	1	-4
521.722	1	9
521.892	1	1
522.062	1	9
522.232	1	-2
522.402	1	17
522.573	1	0
522.743	1	3
522.913	1	4
523.083	1	-3
523.253	1	5
523.423	1	4
523.593	1	14
523.764	1	7
523.934	1	8
524.104	1	12
524.274	1	1
524.444	1	1
524.614	1	10
524.784	1	-7
524.955	1	1
525.125	1	-7
525.295	1	8
525.465	1	11
525.635	1	5
525.805	1	5
525.975	1	1
526.146	1	7
526.316	1	-7
526.486	1	0
526.656	1	4
526.826	1	1
526.996	1	0
527.166	1	-8
527.337	1	16
527.507	1	6
527.677	1	19
527.847	1	-9
528.017	1	-6
528.187	1	11
528.357	1	6
528.527	1	4
528.698	1	13
528.868	1	-4
529.038	1	2
529.208	1	5
529.378	1	5
529.548	1	13
529.718	1	3
529.888	1	9
530.058	1	1
530.229	1	3
530.399	1	0
530.569	1	-7
530.739	1	8
530.909	1	10
531.079	1	2
531.249	1	9
531.419	1	12
531.589	1	3
531.760	1	6
531.930	1	4
532.100	1	13
532.270	1	1
532.440	1	9
532.610	1	7
532.780	1	9
532.950	1	7
533.120	1	1
533.290	1	9
533.461	1	2
533.631	1	-1
533.801	1	2
533.971	1	-9
534.141	1	6
534.311	1	4
534.481	1	18
534.651	1	-10
534.821	1	4
534.991	1	0
535.162	1	8
535.332	1	3
535.502	1	10
535.672	1	0
535.842	1	-1
536.012	1	2
536.182	1	12
536.352	1	12
536.522	1	-2
536.692	1	5
536.862	1	-7
537.032	1	-1
537.203	1	7
537.373	1	10
537.543	1	3
537.713	1	1
537.883	1	2
538.053	1	6
538.223	1	6
538.393	1	13
538.563	1	-1
538.733	1	8
538.903	1	6
539.073	1	-7
539.243	1	6
539.413	1	-7
539.584	1	6
539.754	1	-3
539.924	1	8
540.094	1	8
540.264	1	13
540.434	1	6
540.604	1	11
540.774	1	0
540.944	1	13
541.114	1	9
541.284	1	4
541.454	1	1
541.624	1	3
541.794	1	6
541.964	1	1
542.134	1	12
542.305	1	15
542.475	1	11
542.645	1	-2
542.815	1	-3
542.985	1	2
543.155	1	3
543.325	1	10
543.495	1	6
543.665	1	9
543.835	1	5
544.005	1	7
544.175	1	7
544.345	1	9
544.515	1	5
544.685	1	-3
544.855	1	9
545.025	1	10
545.195	1	-8
545.365	1	-3
545.535	1	3
545.705	1	3
545.875	1	5
546.045	1	-6
546.216	1	-6
546.386	1	3
546.556	1	7
546.726	1	-2
546.896	1	1
547.066	1	-15
547.236	1	5
547.406	1	-4
547.576	1	4
547.746	1	6
547.916	1	9
548.086	1	-1
548.256	1	-2
548.426	1	6
548.596	1	2
548.766	1	7
548.936	1	6
549.106	1	-1
549.276	1	3
549.446	1	9
549.616	1	-1
549.786	1	9
549.956	1	-3
550.126	1	5
550.296	1	6
550.466	1	3
550.636	1	1
550.806	1	7
550.976	1	0
551.146	1	3
551.316	1	5
551.486	1	4
551.656	1	-2
551.826	1	1
551.996	1	4
552.166	1	2
552.336	1	7
552.506	1	-6
552.676	1	10
552.846	1	-1
553.016	1	8
553.186	1	4
553.356	1	12
553.526	1	4
553.696	1	-11
553.866	1	3
554.036	1	7
554.206	1	8
554.376	1	18
554.546	1	4
554.716	1	3
554.886	1	-5
555.056	1	6
555.226	1	6
555.396	1	10
555.566	1	7
555.736	1	-4
555.906	1	0
556.076	1	-7
556.246	1	8
556.416	1	7
556.586	1	8
556.756	1	3
556.926	1	6
557.096	1	0
557.266	1	11
557.436	1	-5
557.606	1	0
557.776	1	-3
557.946	1	4
558.116	1	12
558.286	1	-9
558.456	1	2
558.626	1	10
558.796	1	20
558.966	1	1
559.136	1	-1
559.306	1	2
559.476	1	-2
559.646	1	11
559.816	1	-3
559.986	1	10
560.155	1	0
560.325	1	1
560.495	1	13
560.665	1	6
560.835	1	4
561.005	1	0
561.175	1	1
561.345	1	0
561.515	1	3
561.685	1	7
561.855	1	3
562.025	1	2
562.195	1	8
562.365	1	11
562.535	1	3
562.705	1	7
562.875	1	-1
563.045	1	9
563.215	1	5
563.385	1	4
563.555	1	3
563.725	1	-3
563.895	1	6
564.064	1	2
564.234	1	1
564.404	1	-5
564.574	1	7
564.744	1	8
564.914	1	11
565.084	1	-1
565.254	1	10
565.424	1	-13
565.594	1	5
565.764	1	2
565.934	1	10
566.104	1	6
566.274	1	-7
566.444	1	10
566.614	1	-2
566.783	1	3
566.953	1	12
567.123	1	-3
567.293	1	-4
567.463	1	6
567.633	1	5
567.803	1	6
567.973	1	-2
568.143	1	3
568.313	1	6
568.483	1	7
568.653	1	6
568.823	1	6
568.993	1	12
569.162	1	-11
569.332	1	-3
569.502	1	14
569.672	1	4
569.842	1	0
570.012	1	-3
570.182	1	-7
570.352	1	-2
570.522	1	-6
570.692	1	5
570.862	1	-15
571.031	1	8
571.201	1	15
571.371	1	-3
571.541	1	7
571.711	1	-4
571.881	1	3
572.051	1	15
572.221	1	3
572.391	1	1
572.561	1	10
572.731	1	2
572.900	1	5
573.070	1	-2
573.240	1	0
573.410	1	17
573.580	1	8
573.750	1	-1
573.920	1	9
574.090	1	7
574.260	1	9
574.430	1	-3
574.599	1	8
574.769	1	5
574.939	1	1
575.109	1	5
575.279	1	-2
575.449	1	-3
575.619	1	3
575.789	1	6
575.959	1	-6
576.128	1	4
576.298	1	-11
576.468	1	2
576.638	1	5
576.808	1	2
576.978	1	5
577.148	1	-11
577.318	1	5
577.487	1	0
577.657	1	4
577.827	1	5
577.997	1	5
578.167	1	10
578.337	1	0
578.507	1	3
578.677	1	0
578.846	1	-11
579.016	1	3
579.186	1	18
579.356	1	4
579.526	1	-18
579.696	1	1
579.866	1	1
580.036	1	2
580.205	1	-1
580.375	1	4
580.545	1	14
580.715	1	4
580.885	1	0
581.055	1	2
581.225	1	7
581.394	1	1
581.564	1	10
581.734	1	0
581.904	1	-8
582.074	1	-1
582.244	1	3
582.414	1	1
582.583	1	3
582.753	1	0
582.923	1	2
583.093	1	-1
583.263	1	1
583.433	1	10
583.603	1	1
583.772	1	9
583.942	1	-4
584.112	1	10
584.282	1	7
584.452	1	1
584.622	1	-7
584.791	1	-1
584.961	1	-5
585.131	1	1
585.301	1	-1
585.471	1	5
585.641	1	13
585.811	1	9
585.980	1	-4
586.150	1	6
586.320	1	-2
586.490	1	7
586.660	1	-1
586.830	1	1
586.999	1	5
587.169	1	-2
587.339	1	2
587.509	1	6
587.679	1	4
587.849	1	9
588.018	1	1
588.188	1	7
588.358	1	19
588.528	1	-2
588.698	1	4
588.867	1	8
589.037	1	3
589.207	1	6
589.377	1	-2
589.547	1	11
589.717	1	0
589.886	1	4
590.056	1	5
590.226	1	1
590.396	1	-1
590.566	1	-8
590.735	1	-1
590.905	1	-1
591.075	1	5
591.245	1	-3
591.415	1	-3
591.585	1	-1
591.754	1	2
591.924	1	3
592.094	1	2
592.264	1	5
592.434	1	-2
592.603	1	-6
592.773	1	5
592.943	1	-4
593.113	1	1
593.283	1	4
593.452	1	3
593.622	1	-6
593.792	1	-4
593.962	1	5
594.132	1	8
594.301	1	0
594.471	1	-8
594.641	1	8
594.811	1	14
594.981	1	1
595.150	1	-7
595.320	1	6
595.490	1	-9
595.660	1	4
595.829	1	-8
595.999	1	2
596.169	1	-5
596.339	1	5
596.509	1	5
596.678	1	-5
596.848	1	4
597.018	1	3
597.188	1	6
597.358	1	2
597.527	1	1
597.697	1	1
597.867	1	-6
598.037	1	1
598.206	1	1
598.376	1	-5
598.546	1	4
598.716	1	1
598.885	1	6
599.055	1	2
599.225	1	1
599.395	1	7
599.565	1	2
599.734	1	11
599.904	1	1
600.074	1	-3
600.244	1	-7
600.413	1	1
600.583	1	-4
600.753	1	11
600.923	1	6
601.092	1	-4
601.262	1	-1
601.432	1	-8
601.602	1	6
601.771	1	10
601.941	1	8
602.111	1	-1
602.281	1	2
602.451	1	-9
602.620	1	14
602.790	1	4
602.960	1	-6
603.130	1	10
603.299	1	-6
603.469	1	5
603.639	1	5
603.809	1	1
603.978	1	3
604.148	1	-1
604.318	1	-2
604.487	1	7
604.657	1	2
604.827	1	9
604.997	1	4
605.166	1	2
605.336	1	6
605.506	1	-2
605.676	1	0
605.845	1	8
606.015	1	-5
606.185	1	-3
606.355	1	-16
606.524	1	-2
606.694	1	5
606.864	1	14
607.034	1	4
607.203	1	5
607.373	1	-7
607.543	1	10
607.712	1	4
607.882	1	9
608.052	1	-3
608.222	1	3
608.391	1	-5
608.561	1	-4
608.731	1	-10
608.901	1	3
609.070	1	5
609.240	1	4
609.410	1	4
609.579	1	10
609.749	1	-2
609.919	1	-10
610.089	1	3
610.258	1	10
610.428	1	8
610.598	1	-8
610.767	1	8
610.937	1	0
611.107	1	18
611.277	1	-1
611.446	1	10
611.616	1	6
611.786	1	-4
611.955	1	-8
612.125	1	10
612.295	1	16
612.465	1	0
612.634	1	3
612.804	1	0
612.974	1	0
613.143	1	-11
613.313	1	8
613.483	1	8
613.652	1	7
613.822	1	3
613.992	1	-5
614.162	1	15
614.331	1	12
614.501	1	1
614.671	1	1
614.840	1	5
615.010	1	5
615.180	1	4
615.349	1	3
615.519	1	-5
615.689	1	0
615.858	1	-2
616.028	1	16
616.198	1	11
616.368	1	2
616.537	1	-3
616.707	1	1
616.877	1	-1
617.046	1	-1
617.216	1	-1
617.386	1	4
617.555	1	12
617.725	1	1
617.895	1	11
618.064	1	-3
618.234	1	-5
618.404	1	-4
618.573	1	3
618.743	1	3
618.913	1	1
619.082	1	22
619.252	1	-8
619.422	1	16
619.591	1	1
619.761	1	-8
619.931	1	0
620.100	1	2
620.270	1	4
620.440	1	3
620.609	1	2
620.779	1	-1
620.949	1	13
621.118	1	6
621.288	1	2
621.458	1	-5
621.627	1	-2
621.797	1	1
621.967	1	3
622.136	1	-9
622.306	1	-4
622.476	1	0
622.645	1	9
622.815	1	8
622.985	1	1
623.154	1	-7
623.324	1	5
623.494	1	-12
623.663	1	8
623.833	1	-1
624.002	1	10
624.172	1	3
624.342	1	6
624.511	1	-1
624.681	1	10
624.851	1	2
625.020	1	-9
625.190	1	-7
625.360	1	-3
625.529	1	-2
625.699	1	11
625.869	1	11
626.038	1	3
626.208	1	-6
626.377	1	2
626.547	1	-2
626.717	1	-1
626.886	1	-5
627.056	1	-2
627.226	1	5
627.395	1	-3
627.565	1	11
627.735	1	-1
627.904	1	-5
628.074	1	1
628.243	1	20
628.413	1	0
628.583	1	9
628.752	1	4
628.922	1	2
629.091	1	-4
629.261	1	7
629.431	1	1
629.600	1	4
629.770	1	4
629.940	1	8
630.109	1	-12
630.279	1	10
630.448	1	-1
630.618	1	9
630.788	1	-10
630.957	1	4
631.127	1	-4
631.297	1	11
631.466	1	6
631.636	1	2
631.805	1	0
631.975	1	2
632.145	1	5
632.314	1	1
632.484	1	7
632.653	1	-2
632.823	1	-4
632.993	1	-1
633.162	1	-4
633.332	1	5
633.501	1	-5
633.671	1	2
633.841	1	4
634.010	1	-6
634.180	1	1
634.349	1	5
634.519	1	-6
634.689	1	-1
634.858	1	2
635.028	1	-4
635.197	1	4
635.367	1	13
635.537	1	3
635.706	1	-5
635.876	1	9
636.045	1	-4
636.215	1	-8
636.384	1	6
636.554	1	-2
636.724	1	4
636.893	1	8
637.063	1	-6
637.232	1	3
637.402	1	5
637.572	1	1
637.741	1	0
637.911	1	9
638.080	1	11
638.250	1	-3
638.419	1	6
638.589	1	9
638.759	1	2
638.928	1	11
639.098	1	-1
639.267	1	8
639.437	1	3
639.606	1	11
639.776	1	2
639.946	1	12
640.115	1	2
640.285	1	-6
640.454	1	-9
640.624	1	6
640.793	1	-7
640.963	1	8
641.132	1	0
641.302	1	10
641.472	1	14
641.641	1	5
641.811	1	-6
641.980	1	9
642.150	1	-7
642.319	1	6
642.489	1	9
642.659	1	3
642.828	1	14
642.998	1	-3
643.167	1	13
643.337	1	-6
643.506	1	3
643.676	1	6
643.845	1	12
644.015	1	3
644.184	1	6
644.354	1	10
644.524	1	7
644.693	1	1
644.863	1	-5
645.032	1	11
645.202	1	-6
645.371	1	6
645.541	1	0
645.710	1	1
645.880	1	4
646.049	1	10
646.219	1	-1
646.388	1	4
646.558	1	6
646.728	1	10
646.897	1	7
647.067	1	12
647.236	1	-11
647.406	1	11
647.575	1	9
647.745	1	-9
647.914	1	4
648.084	1	-3
648.253	1	11
648.423	1	11
648.592	1	4
648.762	1	-4
648.931	1	2
649.101	1	-3
649.270	1	15
649.440	1	4
649.610	1	0
649.779	1	2
649.949	1	1
650.118	1	10
650.288	1	8
650.457	1	8
650.627	1	-2
650.796	1	2
650.966	1	3
651.135	1	6
651.305	1	2
651.474	1	6
651.644	1	6
651.813	1	3
651.983	1	1
652.152	1	5
652.322	1	2
652.491	1	4
652.661	1	5
652.830	1	11
653.000	1	0
653.169	1	-7
653.339	1	0
653.508	1	-1
653.678	1	7
653.847	1	8
654.017	1	1
654.186	1	10
654.356	1	0
654.525	1	8
654.695	1	6
654.864	1	-7
655.034	1	-6
655.203	1	2
655.373	1	4
655.542	1	9
655.712	1	15
655.881	1	4
656.051	1	-8
656.220	1	3
656.390	1	6
656.559	1	10
656.729	1	8
656.898	1	0
657.068	1	1
657.237	1	-3
657.406	1	-7
657.576	1	-3
657.745	1	15
657.915	1	5
658.084	1	8
658.254	1	8
658.423	1	0
658.593	1	-1
658.762	1	-3
658.932	1	5
659.101	1	-4
659.271	1	4
659.440	1	6
659.610	1	1
659.779	1	6
659.949	1	5
660.118	1	-5
660.288	1	-7
660.457	1	-7
660.626	1	2
660.796	1	11
660.965	1	2
661.135	1	10
661.304	1	10
661.474	1	7
661.643	1	7
661.813	1	-4
661.982	1	-4
662.152	1	4
662.321	1	-2
662.491	1	-6
662.660	1	4
662.829	1	2
662.999	1	10
663.168	1	3
663.338	1	-4
663.507	1	3
663.677	1	-2
663.846	1	-8
664.016	1	-7
664.185	1	8
664.354	1	1
664.524	1	11
664.693	1	-1
664.863	1	-3
665.032	1	13
665.202	1	7
665.371	1	9
665.541	1	-1
665.710	1	3
665.879	1	0
666.049	1	4
666.218	1	11
666.388	1	5
666.557	1	7
666.727	1	3
666.896	1	-1
667.065	1	1
667.235	1	-2
667.404	1	8
667.574	1	6
667.743	1	-4
667.913	1	-3
668.082	1	5
668.251	1	-8
668.421	1	9
668.590	1	-5
668.760	1	-6
668.929	1	1
669.099	1	5
669.268	1	8
669.437	1	-1
669.607	1	-3
669.776	1	1
669.946	1	-7
670.115	1	6
670.285	1	2
670.454	1	5
670.623	1	6
670.793	1	-8
670.962	1	-7
671.132	1	-1
671.301	1	15
671.470	1	4
671.640	1	4
671.809	1	0
671.979	1	1
672.148	1	4
672.317	1	-6
672.487	1	-10
672.656	1	5
672.826	1	-6
672.995	1	4
673.164	1	-6
673.334	1	5
673.503	1	-3
673.673	1	8
673.842	1	-2
674.011	1	12
674.181	1	5
674.350	1	2
674.520	1	-2
674.689	1	-4
674.858	1	-3
675.028	1	6
675.197	1	9
675.367	1	8
675.536	1	0
675.705	1	-7
675.875	1	0
676.044	1	1
676.214	1	4
676.383	1	5
676.552	1	-10
676.722	1	3
676.891	1	5
677.060	1	8
677.230	1	6
677.399	1	14
677.569	1	10
677.738	1	-4
677.907	1	12
678.077	1	-8
678.246	1	-1
678.416	1	-4
678.585	1	0
678.754	1	-4
678.924	1	1
679.093	1	4
679.262	1	0
679.432	1	-7
679.601	1	2
679.771	1	-4
679.940	1	-2
680.109	1	-1
680.279	1	2
680.448	1	-1
680.617	1	3
680.787	1	-8
680.956	1	3
681.125	1	-9
681.295	1	3
681.464	1	5
681.634	1	3
681.803	1	-9
681.972	1	5
682.142	1	5
682.311	1	5
682.480	1	0
682.650	1	-6
682.819	1	3
682.988	1	1
683.158	1	0
683.327	1	5
683.496	1	-9
683.666	1	2
683.835	1	4
684.004	1	-8
684.174	1	7
684.343	1	4
684.512	1	-2
684.682	1	7
684.851	1	-4
685.021	1	13
685.190	1	2
685.359	1	4
685.529	1	-8
685.698	1	0
685.867	1	1
686.037	1	1
686.206	1	-13
686.375	1	4
686.545	1	-10
686.714	1	15
686.883	1	10
687.053	1	19
687.222	1	-3
687.391	1	-10
687.561	1	-2
687.730	1	0
687.899	1	-2
688.069	1	4
688.238	1	6
688.407	1	3
688.577	1	-2
688.746	1	-6
