340.368	1	8
340.539	1	-3
340.710	1	7
340.881	1	7
341.052	1	7
341.223	1	14
341.394	1	-14
341.565	1	8
341.737	1	-1
341.908	1	5
342.079	1	6
342.250	1	10
342.421	1	0
342.592	1	3
342.763	1	2
342.934	1	13
343.105	1	5
343.276	1	4
343.447	1	5
343.618	1	13
343.789	1	8
343.960	1	15
344.131	1	-9
344.302	1	14
344.473	1	4
344.644	1	2
344.815	1	17
344.986	1	9
345.157	1	14
345.328	1	4
345.499	1	8
345.670	1	5
345.841	1	11
346.012	1	3
346.183	1	5
346.354	1	7
346.526	1	4
346.697	1	15
346.868	1	10
347.039	1	19
347.210	1	7
347.381	1	14
347.552	1	17
347.723	1	4
347.894	1	-9
348.065	1	7
348.236	1	5
348.407	1	11
348.578	1	14
348.749	1	19
348.920	1	11
349.091	1	11
349.262	1	17
349.433	1	4
349.604	1	-1
349.775	1	9
349.946	1	3
350.117	1	14
350.288	1	5
350.459	1	9
350.630	1	6
350.801	1	5
350.972	1	16
351.143	1	15
351.314	1	6
351.485	1	8
351.656	1	19
351.827	1	18
351.998	1	17
352.169	1	23
352.340	1	17
352.511	1	5
352.682	1	-2
352.853	1	10
353.024	1	18
353.195	1	11
353.366	1	14
353.537	1	18
353.708	1	10
353.879	1	17
354.050	1	4
354.221	1	13
354.392	1	8
354.563	1	23
354.734	1	22
354.905	1	17
355.076	1	31
355.247	1	6
355.418	1	14
355.589	1	31
355.760	1	26
355.931	1	20
356.102	1	27
356.273	1	26
356.444	1	30
356.615	1	32
356.785	1	26
356.956	1	21
357.127	1	39
357.298	1	18
357.469	1	28
357.640	1	32
357.811	1	35
357.982	1	38
358.153	1	32
358.324	1	41
358.495	1	38
358.666	1	40
358.837	1	53
359.008	1	44
359.179	1	47
359.350	1	43
359.521	1	68
359.692	1	49
359.863	1	48
360.034	1	57
360.205	1	68
360.376	1	73
360.547	1	78
360.718	1	80
360.889	1	66
361.060	1	98
361.231	1	88
361.401	1	90
361.572	1	106
361.743	1	102
361.914	1	122
362.085	1	115
362.256	1	130
362.427	1	144
362.598	1	149
362.769	1	152
362.940	1	180
363.111	1	184
363.282	1	196
363.453	1	197
363.624	1	231
363.795	1	243
363.966	1	238
364.137	1	255
364.308	1	295
364.478	1	311
364.649	1	313
364.820	1	358
364.991	1	388
365.162	1	418
365.333	1	427
365.504	1	454
365.675	1	490
365.846	1	497
366.017	1	538
366.188	1	556
366.359	1	575
366.530	1	591
366.701	1	631
366.871	1	670
367.042	1	687
367.213	1	708
367.384	1	730
367.555	1	741
367.726	1	739
367.897	1	742
368.068	1	756
368.239	1	748
368.410	1	767
368.581	1	736
368.752	1	754
368.923	1	728
369.093	1	723
369.264	1	734
369.435	1	701
369.606	1	673
369.777	1	649
369.948	1	628
370.119	1	639
370.290	1	605
370.461	1	542
370.632	1	546
370.803	1	524
370.973	1	530
371.144	1	483
371.315	1	469
371.486	1	458
371.657	1	444
371.828	1	425
371.999	1	409
372.170	1	403
372.341	1	394
372.512	1	361
372.682	1	349
372.853	1	349
373.024	1	345
373.195	1	339
373.366	1	323
373.537	1	312
373.708	1	300
373.879	1	312
374.050	1	304
374.220	1	295
374.391	1	275
374.562	1	276
374.733	1	277
374.904	1	251
375.075	1	233
375.246	1	227
375.417	1	246
375.588	1	206
375.758	1	209
375.929	1	219
376.100	1	207
376.271	1	206
376.442	1	194
376.613	1	194
376.784	1	191
376.955	1	183
377.125	1	167
377.296	1	171
377.467	1	169
377.638	1	142
377.809	1	143
377.980	1	151
378.151	1	141
378.321	1	135
378.492	1	132
378.663	1	138
378.834	1	128
379.005	1	129
379.176	1	119
379.347	1	120
379.518	1	107
379.688	1	125
379.859	1	122
380.030	1	104
380.201	1	108
380.372	1	114
380.543	1	108
380.714	1	122
380.884	1	110
381.055	1	91
381.226	1	100
381.397	1	113
381.568	1	95
381.739	1	93
381.910	1	101
382.080	1	94
382.251	1	88
382.422	1	108
382.593	1	99
382.764	1	94
382.935	1	97
383.105	1	90
383.276	1	90
383.447	1	88
383.618	1	91
383.789	1	87
383.960	1	98
384.130	1	99
384.301	1	91
384.472	1	97
384.643	1	89
384.814	1	95
384.985	1	95
385.156	1	92
385.326	1	91
385.497	1	101
385.668	1	97
385.839	1	97
386.010	1	86
386.180	1	86
386.351	1	82
386.522	1	94
386.693	1	82
386.864	1	84
387.035	1	83
387.205	1	77
387.376	1	87
387.547	1	84
387.718	1	72
387.889	1	64
388.060	1	83
388.230	1	66
388.401	1	80
388.572	1	72
388.743	1	68
388.914	1	77
389.084	1	63
389.255	1	63
389.426	1	65
389.597	1	77
389.768	1	61
389.939	1	68
390.109	1	72
390.280	1	69
390.451	1	66
390.622	1	64
390.793	1	64
390.963	1	51
391.134	1	65
391.305	1	68
391.476	1	66
391.647	1	69
391.817	1	58
391.988	1	56
392.159	1	54
392.330	1	59
392.501	1	51
392.671	1	69
392.842	1	51
393.013	1	54
393.184	1	52
393.355	1	58
393.525	1	42
393.696	1	54
393.867	1	61
394.038	1	52
394.208	1	61
394.379	1	63
394.550	1	55
394.721	1	54
394.892	1	65
395.062	1	43
395.233	1	55
395.404	1	57
395.575	1	55
395.746	1	44
395.916	1	51
396.087	1	66
396.258	1	63
396.429	1	54
396.599	1	57
396.770	1	58
396.941	1	57
397.112	1	49
397.283	1	58
397.453	1	52
397.624	1	58
397.795	1	45
397.966	1	52
398.136	1	70
398.307	1	57
398.478	1	51
398.649	1	50
398.819	1	59
398.990	1	56
399.161	1	58
399.332	1	46
399.503	1	58
399.673	1	56
399.844	1	42
400.015	1	47
400.186	1	40
400.356	1	44
400.527	1	56
400.698	1	51
400.869	1	33
401.039	1	36
401.210	1	39
401.381	1	36
401.552	1	44
401.722	1	47
401.893	1	40
402.064	1	45
402.235	1	46
402.405	1	31
402.576	1	46
402.747	1	45
402.918	1	28
403.088	1	47
403.259	1	46
403.430	1	43
403.601	1	42
403.771	1	34
403.942	1	40
404.113	1	42
404.284	1	43
404.454	1	35
404.625	1	28
404.796	1	35
404.967	1	37
405.137	1	40
405.308	1	27
405.479	1	49
405.649	1	39
405.820	1	31
405.991	1	39
406.162	1	29
406.332	1	32
406.503	1	31
406.674	1	47
406.845	1	38
407.015	1	43
407.186	1	26
407.357	1	37
407.527	1	27
407.698	1	43
407.869	1	35
408.040	1	47
408.210	1	41
408.381	1	34
408.552	1	40
408.722	1	37
408.893	1	29
409.064	1	37
409.235	1	41
409.405	1	34
409.576	1	35
409.747	1	25
409.917	1	49
410.088	1	38
410.259	1	33
410.430	1	36
410.600	1	41
410.771	1	29
410.942	1	34
411.112	1	29
411.283	1	38
411.454	1	27
411.625	1	23
411.795	1	24
411.966	1	33
412.137	1	32
412.307	1	22
412.478	1	33
412.649	1	39
412.819	1	26
412.990	1	33
413.161	1	32
413.332	1	29
413.502	1	28
413.673	1	31
413.844	1	34
414.014	1	25
414.185	1	27
414.356	1	32
414.526	1	23
414.697	1	35
414.868	1	26
415.038	1	31
415.209	1	32
415.380	1	18
415.550	1	27
415.721	1	29
415.892	1	28
416.063	1	38
416.233	1	43
416.404	1	14
416.575	1	25
416.745	1	39
416.916	1	18
417.087	1	28
417.257	1	27
417.428	1	35
417.599	1	38
417.769	1	29
417.940	1	16
418.111	1	33
418.281	1	29
418.452	1	27
418.623	1	26
418.793	1	25
418.964	1	37
419.135	1	35
419.305	1	22
419.476	1	30
419.647	1	18
419.817	1	27
419.988	1	43
420.159	1	32
420.329	1	28
420.500	1	25
420.671	1	28
420.841	1	34
421.012	1	17
421.183	1	21
421.353	1	41
421.524	1	21
421.695	1	22
421.865	1	37
422.036	1	31
422.206	1	31
422.377	1	23
422.548	1	22
422.718	1	40
422.889	1	24
423.060	1	29
423.230	1	33
423.401	1	18
423.572	1	19
423.742	1	27
423.913	1	21
424.084	1	17
424.254	1	10
424.425	1	31
424.595	1	31
424.766	1	21
424.937	1	17
425.107	1	21
425.278	1	22
425.449	1	23
425.619	1	28
425.790	1	24
425.961	1	30
426.131	1	32
426.302	1	20
426.472	1	32
426.643	1	23
426.814	1	25
426.984	1	21
427.155	1	25
427.326	1	31
427.496	1	23
427.667	1	24
427.837	1	22
428.008	1	25
428.179	1	42
428.349	1	25
428.520	1	21
428.691	1	26
428.861	1	24
429.032	1	21
429.202	1	17
429.373	1	25
429.544	1	22
429.714	1	40
429.885	1	23
430.055	1	27
430.226	1	18
430.397	1	15
430.567	1	22
430.738	1	31
430.909	1	16
431.079	1	30
431.250	1	31
431.420	1	17
431.591	1	31
431.762	1	27
431.932	1	10
432.103	1	29
432.273	1	33
432.444	1	19
432.615	1	25
432.785	1	21
432.956	1	22
433.126	1	26
433.297	1	21
433.468	1	18
433.638	1	32
433.809	1	16
433.979	1	29
434.150	1	29
434.320	1	24
434.491	1	37
434.662	1	26
434.832	1	12
435.003	1	41
435.173	1	17
435.344	1	20
435.515	1	16
435.685	1	17
435.856	1	19
436.026	1	12
436.197	1	18
436.368	1	23
436.538	1	17
436.709	1	8
436.879	1	28
437.050	1	9
437.220	1	29
437.391	1	30
437.562	1	28
437.732	1	18
437.903	1	31
438.073	1	14
438.244	1	21
438.414	1	24
438.585	1	19
438.756	1	20
438.926	1	15
439.097	1	14
439.267	1	13
439.438	1	23
439.608	1	14
439.779	1	13
439.949	1	16
440.120	1	12
440.291	1	16
440.461	1	22
440.632	1	16
440.802	1	21
440.973	1	24
441.143	1	21
441.314	1	13
441.485	1	27
441.655	1	27
441.826	1	12
441.996	1	22
442.167	1	19
442.337	1	20
442.508	1	15
442.678	1	22
442.849	1	18
443.019	1	22
443.190	1	22
443.361	1	19
443.531	1	17
443.702	1	26
443.872	1	14
444.043	1	21
444.213	1	2
444.384	1	24
444.554	1	22
444.725	1	31
444.895	1	7
445.066	1	16
445.237	1	18
445.407	1	14
445.578	1	7
445.748	1	21
445.919	1	13
446.089	1	16
446.260	1	36
446.430	1	29
446.601	1	18
446.771	1	28
446.942	1	17
447.112	1	18
447.283	1	39
447.453	1	6
447.624	1	7
447.794	1	15
447.965	1	21
448.135	1	17
448.306	1	19
448.477	1	25
448.647	1	18
448.818	1	18
448.988	1	13
449.159	1	15
449.329	1	23
449.500	1	13
449.670	1	17
449.841	1	15
450.011	1	16
450.182	1	13
450.352	1	23
450.523	1	9
450.693	1	18
450.864	1	23
451.034	1	21
451.205	1	13
451.375	1	19
451.546	1	22
451.716	1	21
451.887	1	28
452.057	1	8
452.228	1	15
452.398	1	12
452.569	1	21
452.739	1	25
452.910	1	15
453.080	1	20
453.251	1	11
453.421	1	23
453.592	1	14
453.762	1	32
453.933	1	7
454.103	1	6
454.274	1	17
454.444	1	22
454.615	1	18
454.785	1	19
454.956	1	26
455.126	1	26
455.297	1	19
455.467	1	9
455.638	1	23
455.808	1	20
455.979	1	21
456.149	1	18
456.320	1	22
456.490	1	11
456.661	1	10
456.831	1	16
457.001	1	29
457.172	1	18
457.342	1	13
457.513	1	15
457.683	1	15
457.854	1	16
458.024	1	27
458.195	1	21
458.365	1	9
458.536	1	20
458.706	1	23
458.877	1	19
459.047	1	10
459.218	1	21
459.388	1	20
459.559	1	22
459.729	1	17
459.899	1	15
460.070	1	24
460.240	1	11
460.411	1	28
460.581	1	6
460.752	1	11
460.922	1	17
461.093	1	26
461.263	1	21
461.434	1	5
461.604	1	11
461.775	1	17
461.945	1	20
462.115	1	22
462.286	1	12
462.456	1	17
462.627	1	11
462.797	1	9
462.968	1	24
463.138	1	17
463.309	1	13
463.479	1	14
463.649	1	13
463.820	1	20
463.990	1	13
464.161	1	18
464.331	1	22
464.502	1	15
464.672	1	20
464.843	1	23
465.013	1	14
465.183	1	15
465.354	1	28
465.524	1	22
465.695	1	16
465.865	1	16
466.036	1	18
466.206	1	12
466.376	1	18
466.547	1	25
466.717	1	6
466.888	1	10
467.058	1	20
467.229	1	26
467.399	1	9
467.569	1	22
467.740	1	23
467.910	1	25
468.081	1	21
468.251	1	12
468.422	1	17
468.592	1	7
468.762	1	17
468.933	1	12
469.103	1	18
469.274	1	10
469.444	1	26
469.614	1	11
469.785	1	12
469.955	1	12
470.126	1	25
470.296	1	20
470.467	1	11
470.637	1	15
470.807	1	18
470.978	1	22
471.148	1	8
471.319	1	14
471.489	1	18
471.659	1	16
471.830	1	13
472.000	1	9
472.171	1	27
472.341	1	20
472.511	1	21
472.682	1	14
472.852	1	18
473.023	1	32
473.193	1	25
473.363	1	16
473.534	1	28
473.704	1	12
473.875	1	25
474.045	1	22
474.215	1	23
474.386	1	12
474.556	1	11
474.727	1	21
474.897	1	17
475.067	1	12
475.238	1	24
475.408	1	25
475.578	1	16
475.749	1	11
475.919	1	17
476.090	1	9
476.260	1	23
476.430	1	14
476.601	1	17
476.771	1	32
476.942	1	14
477.112	1	21
477.282	1	24
477.453	1	22
477.623	1	19
477.793	1	22
477.964	1	29
478.134	1	21
478.305	1	19
478.475	1	21
478.645	1	25
478.816	1	24
478.986	1	30
479.156	1	28
479.327	1	24
479.497	1	18
479.667	1	30
479.838	1	20
480.008	1	21
480.179	1	35
480.349	1	22
480.519	1	21
480.690	1	34
480.860	1	27
481.030	1	25
481.201	1	26
481.371	1	23
481.541	1	22
481.712	1	35
481.882	1	26
482.053	1	42
482.223	1	34
482.393	1	34
482.564	1	37
482.734	1	35
482.904	1	32
483.075	1	27
483.245	1	27
483.415	1	27
483.586	1	24
483.756	1	37
483.926	1	34
484.097	1	39
484.267	1	36
484.437	1	38
484.608	1	30
484.778	1	28
484.948	1	44
485.119	1	24
485.289	1	27
485.459	1	33
485.630	1	31
485.800	1	34
485.970	1	27
486.141	1	43
486.311	1	43
486.481	1	34
486.652	1	31
486.822	1	50
486.992	1	44
487.163	1	38
487.333	1	35
487.503	1	35
487.674	1	39
487.844	1	30
488.014	1	46
488.185	1	42
488.355	1	40
488.525	1	44
488.696	1	53
488.866	1	29
489.036	1	43
489.207	1	53
489.377	1	54
489.547	1	38
489.718	1	45
489.888	1	62
490.058	1	48
490.228	1	49
490.399	1	61
490.569	1	42
490.739	1	43
490.910	1	55
491.080	1	53
491.250	1	56
491.421	1	47
491.591	1	55
491.761	1	46
491.932	1	56
492.102	1	50
492.272	1	44
492.442	1	55
492.613	1	40
492.783	1	56
492.953	1	57
493.124	1	64
493.294	1	51
493.464	1	44
493.635	1	57
493.805	1	53
493.975	1	69
494.145	1	48
494.316	1	62
494.486	1	58
494.656	1	55
494.827	1	52
494.997	1	48
495.167	1	71
495.337	1	52
495.508	1	61
495.678	1	58
495.848	1	62
496.019	1	66
496.189	1	58
496.359	1	61
496.529	1	60
496.700	1	61
496.870	1	73
497.040	1	62
497.211	1	54
497.381	1	57
497.551	1	61
497.721	1	51
497.892	1	73
498.062	1	74
498.232	1	79
498.403	1	72
498.573	1	66
498.743	1	71
498.913	1	78
499.084	1	82
499.254	1	73
499.424	1	66
499.594	1	71
499.765	1	72
499.935	1	82
500.105	1	80
500.275	1	82
500.446	1	75
500.616	1	70
500.786	1	84
500.956	1	87
501.127	1	87
501.297	1	80
501.467	1	88
501.638	1	80
501.808	1	72
501.978	1	76
502.148	1	92
502.319	1	83
502.489	1	72
502.659	1	99
502.829	1	77
503.000	1	89
503.170	1	97
503.340	1	86
503.510	1	81
503.681	1	84
503.851	1	102
504.021	1	87
504.191	1	93
504.362	1	88
504.532	1	103
504.702	1	85
504.872	1	90
505.042	1	103
505.213	1	97
505.383	1	102
505.553	1	91
505.723	1	103
505.894	1	99
506.064	1	87
506.234	1	102
506.404	1	93
506.575	1	105
506.745	1	102
506.915	1	105
507.085	1	96
507.256	1	113
507.426	1	105
507.596	1	106
507.766	1	109
507.936	1	107
508.107	1	92
508.277	1	111
508.447	1	104
508.617	1	112
508.788	1	107
508.958	1	115
509.128	1	101
509.298	1	97
509.468	1	119
509.639	1	106
509.809	1	101
509.979	1	101
510.149	1	97
510.319	1	110
510.490	1	99
510.660	1	108
510.830	1	107
511.000	1	101
511.171	1	104
511.341	1	111
511.511	1	112
511.681	1	102
511.851	1	111
512.022	1	114
512.192	1	114
512.362	1	116
512.532	1	131
512.702	1	114
512.873	1	105
513.043	1	113
513.213	1	116
513.383	1	126
513.553	1	112
513.724	1	107
513.894	1	114
514.064	1	115
514.234	1	126
514.404	1	121
514.575	1	120
514.745	1	121
514.915	1	122
515.085	1	133
515.255	1	125
515.425	1	132
515.596	1	126
515.766	1	119
515.936	1	123
516.106	1	123
516.276	1	122
516.447	1	127
516.617	1	128
516.787	1	129
516.957	1	137
517.127	1	133
517.297	1	124
517.468	1	136
517.638	1	139
517.808	1	122
517.978	1	129
518.148	1	144
518.319	1	134
518.489	1	135
518.659	1	141
518.829	1	141
518.999	1	138
519.169	1	129
519.340	1	139
519.510	1	130
519.680	1	135
519.850	1	136
520.020	1	136
520.190	1	142
520.361	1	129
520.531	1	138
520.701	1	140
520.871	1	134
521.041	1	156
521.211	1	125
521.382	1	133
521.552	1	123
521.722	1	143
521.892	1	127
522.062	1	155
522.232	1	139
522.402	1	143
522.573	1	136
522.743	1	142
522.913	1	140
523.083	1	136
523.253	1	151
523.423	1	152
523.593	1	146
523.764	1	139
523.934	1	146
524.104	1	150
524.274	1	137
524.444	1	155
524.614	1	154
524.784	1	128
524.955	1	143
525.125	1	134
525.295	1	152
525.465	1	151
525.635	1	156
525.805	1	143
525.975	1	140
526.146	1	145
526.316	1	140
526.486	1	142
526.656	1	146
526.826	1	145
526.996	1	146
527.166	1	139
527.337	1	159
527.507	1	147
527.677	1	165
527.847	1	141
528.017	1	142
528.187	1	176
528.357	1	134
528.527	1	156
528.698	1	148
528.868	1	138
529.038	1	159
529.208	1	151
529.378	1	160
529.548	1	158
529.718	1	158
529.888	1	156
530.058	1	151
530.229	1	158
530.399	1	156
530.569	1	162
530.739	1	165
530.909	1	163
531.079	1	154
531.249	1	161
531.419	1	173
531.589	1	163
531.760	1	163
531.930	1	163
532.100	1	169
532.270	1	168
532.440	1	178
532.610	1	157
532.780	1	146
532.950	1	171
533.120	1	146
533.290	1	156
533.461	1	142
533.631	1	159
533.801	1	161
533.971	1	148
534.141	1	161
534.311	1	147
534.481	1	166
534.651	1	144
534.821	1	155
534.991	1	149
535.162	1	145
535.332	1	137
535.502	1	139
535.672	1	141
535.842	1	141
536.012	1	152
536.182	1	145
536.352	1	157
536.522	1	131
536.692	1	153
536.862	1	132
537.032	1	151
537.203	1	134
537.373	1	137
537.543	1	141
537.713	1	133
537.883	1	133
538.053	1	133
538.223	1	142
538.393	1	137
538.563	1	135
538.733	1	145
538.903	1	127
539.073	1	127
539.243	1	135
539.413	1	121
539.584	1	134
539.754	1	133
539.924	1	130
540.094	1	135
540.264	1	156
540.434	1	130
540.604	1	138
540.774	1	132
540.944	1	132
541.114	1	136
541.284	1	139
541.454	1	119
541.624	1	136
541.794	1	135
541.964	1	132
542.134	1	126
542.305	1	142
542.475	1	140
542.645	1	133
542.815	1	126
542.985	1	124
543.155	1	123
543.325	1	140
543.495	1	141
543.665	1	133
543.835	1	128
544.005	1	136
544.175	1	124
544.345	1	141
544.515	1	133
544.685	1	125
544.855	1	136
545.025	1	144
545.195	1	128
545.365	1	131
545.535	1	137
545.705	1	142
545.875	1	140
546.045	1	145
546.216	1	133
546.386	1	129
546.556	1	139
546.726	1	129
546.896	1	141
547.066	1	129
547.236	1	137
547.406	1	138
547.576	1	133
547.746	1	128
547.916	1	151
548.086	1	136
548.256	1	136
548.426	1	137
548.596	1	140
548.766	1	144
548.936	1	140
549.106	1	143
549.276	1	123
549.446	1	133
549.616	1	145
549.786	1	133
549.956	1	130
550.126	1	134
550.296	1	145
550.466	1	135
550.636	1	135
550.806	1	140
550.976	1	129
551.146	1	135
551.316	1	131
551.486	1	122
551.656	1	129
551.826	1	128
551.996	1	131
552.166	1	123
552.336	1	129
552.506	1	124
552.676	1	130
552.846	1	131
553.016	1	107
553.186	1	125
553.356	1	129
553.526	1	120
553.696	1	112
553.866	1	121
554.036	1	125
554.206	1	123
554.376	1	131
554.546	1	112
554.716	1	124
554.886	1	125
555.056	1	120
555.226	1	117
555.396	1	115
555.566	1	113
555.736	1	116
555.906	1	117
556.076	1	112
556.246	1	114
556.416	1	116
556.586	1	114
556.756	1	116
556.926	1	111
557.096	1	109
557.266	1	108
557.436	1	107
557.606	1	106
557.776	1	94
557.946	1	116
558.116	1	101
558.286	1	100
558.456	1	102
558.626	1	97
558.796	1	104
558.966	1	98
559.136	1	115
559.306	1	101
559.476	1	105
559.646	1	109
559.816	1	107
559.986	1	101
560.155	1	104
560.325	1	116
560.495	1	117
560.665	1	109
560.835	1	90
561.005	1	100
561.175	1	104
561.345	1	99
561.515	1	102
561.685	1	103
561.855	1	98
562.025	1	107
562.195	1	93
562.365	1	106
562.535	1	97
562.705	1	97
562.875	1	107
563.045	1	94
563.215	1	106
563.385	1	90
563.555	1	104
563.725	1	92
563.895	1	97
564.064	1	95
564.234	1	92
564.404	1	84
564.574	1	95
564.744	1	102
564.914	1	97
565.084	1	98
565.254	1	100
565.424	1	95
565.594	1	83
565.764	1	101
565.934	1	107
566.104	1	86
566.274	1	99
566.444	1	108
566.614	1	83
566.783	1	99
566.953	1	92
567.123	1	86
567.293	1	89
567.463	1	92
567.633	1	88
567.803	1	96
567.973	1	81
568.143	1	86
568.313	1	87
568.483	1	95
568.653	1	86
568.823	1	83
568.993	1	85
569.162	1	79
569.332	1	72
569.502	1	90
569.672	1	88
569.842	1	81
570.012	1	69
570.182	1	93
570.352	1	91
570.522	1	78
570.692	1	89
570.862	1	75
571.031	1	94
571.201	1	88
571.371	1	73
571.541	1	81
571.711	1	81
571.881	1	80
572.051	1	93
572.221	1	75
572.391	1	78
572.561	1	82
572.731	1	82
572.900	1	83
573.070	1	89
573.240	1	70
573.410	1	83
573.580	1	70
573.750	1	72
573.920	1	77
574.090	1	83
574.260	1	77
574.430	1	83
574.599	1	81
574.769	1	76
574.939	1	71
575.109	1	87
575.279	1	70
575.449	1	68
575.619	1	67
575.789	1	69
575.959	1	79
576.128	1	83
576.298	1	64
576.468	1	81
576.638	1	83
576.808	1	64
576.978	1	75
577.148	1	81
577.318	1	77
577.487	1	63
577.657	1	73
577.827	1	72
577.997	1	81
578.167	1	89
578.337	1	74
578.507	1	75
578.677	1	71
578.846	1	70
579.016	1	74
579.186	1	74
579.356	1	71
579.526	1	62
579.696	1	72
579.866	1	73
580.036	1	75
580.205	1	64
580.375	1	81
580.545	1	77
580.715	1	71
580.885	1	64
581.055	1	70
581.225	1	72
581.394	1	80
581.564	1	72
581.734	1	62
581.904	1	79
582.074	1	65
582.244	1	66
582.414	1	67
582.583	1	82
582.753	1	69
582.923	1	62
583.093	1	69
583.263	1	75
583.433	1	66
583.603	1	70
583.772	1	70
583.942	1	64
584.112	1	64
584.282	1	67
584.452	1	69
584.622	1	60
584.791	1	71
584.961	1	62
585.131	1	69
585.301	1	48
585.471	1	70
585.641	1	75
585.811	1	71
585.980	1	51
586.150	1	67
586.320	1	65
586.490	1	73
586.660	1	63
586.830	1	56
586.999	1	49
587.169	1	62
587.339	1	57
587.509	1	58
587.679	1	67
587.849	1	68
588.018	1	51
588.188	1	61
588.358	1	78
588.528	1	54
588.698	1	61
588.867	1	63
589.037	1	52
589.207	1	59
589.377	1	64
589.547	1	61
589.717	1	60
589.886	1	58
590.056	1	45
590.226	1	58
590.396	1	48
590.566	1	52
590.735	1	55
590.905	1	49
591.075	1	56
591.245	1	55
591.415	1	58
591.585	1	56
591.754	1	50
591.924	1	47
592.094	1	58
592.264	1	50
592.434	1	43
592.603	1	38
592.773	1	47
592.943	1	55
593.113	1	55
593.283	1	50
593.452	1	60
593.622	1	51
593.792	1	47
593.962	1	54
594.132	1	53
594.301	1	53
594.471	1	49
594.641	1	59
594.811	1	50
594.981	1	43
595.150	1	47
595.320	1	63
595.490	1	47
595.660	1	57
595.829	1	36
595.999	1	61
596.169	1	55
596.339	1	47
596.509	1	53
596.678	1	34
596.848	1	54
597.018	1	42
597.188	1	55
597.358	1	41
597.527	1	54
597.697	1	55
597.867	1	59
598.037	1	50
598.206	1	59
598.376	1	47
598.546	1	56
598.716	1	57
598.885	1	51
599.055	1	50
599.225	1	45
599.395	1	42
599.565	1	42
599.734	1	54
599.904	1	46
600.074	1	52
600.244	1	46
600.413	1	46
600.583	1	44
600.753	1	52
600.923	1	50
601.092	1	45
601.262	1	43
601.432	1	38
601.602	1	58
601.771	1	55
601.941	1	46
602.111	1	43
602.281	1	50
602.451	1	51
602.620	1	61
602.790	1	54
602.960	1	31
603.130	1	40
603.299	1	55
603.469	1	52
603.639	1	57
603.809	1	44
603.978	1	46
604.148	1	41
604.318	1	60
604.487	1	52
604.657	1	53
604.827	1	52
604.997	1	48
605.166	1	41
605.336	1	55
605.506	1	44
605.676	1	42
605.845	1	47
606.015	1	38
606.185	1	53
606.355	1	46
606.524	1	37
606.694	1	59
606.864	1	59
607.034	1	55
607.203	1	54
607.373	1	42
607.543	1	49
607.712	1	43
607.882	1	51
608.052	1	42
608.222	1	51
608.391	1	48
608.561	1	46
608.731	1	35
608.901	1	42
609.070	1	52
609.240	1	51
609.410	1	39
609.579	1	50
609.749	1	46
609.919	1	30
610.089	1	51
610.258	1	64
610.428	1	51
610.598	1	43
610.767	1	34
610.937	1	41
611.107	1	47
611.277	1	43
611.446	1	55
611.616	1	50
611.786	1	35
611.955	1	36
612.125	1	44
612.295	1	41
612.465	1	43
612.634	1	44
612.804	1	41
612.974	1	35
613.143	1	34
613.313	1	52
613.483	1	36
613.652	1	41
613.822	1	44
613.992	1	34
614.162	1	52
614.331	1	49
614.501	1	40
614.671	1	44
614.840	1	37
615.010	1	44
615.180	1	40
615.349	1	32
615.519	1	35
615.689	1	37
615.858	1	27
616.028	1	59
616.198	1	47
616.368	1	48
616.537	1	24
616.707	1	39
616.877	1	37
617.046	1	45
617.216	1	37
617.386	1	39
617.555	1	43
617.725	1	33
617.895	1	38
618.064	1	40
618.234	1	36
618.404	1	35
618.573	1	35
618.743	1	30
618.913	1	36
619.082	1	43
619.252	1	33
619.422	1	42
619.591	1	40
619.761	1	30
619.931	1	42
620.100	1	38
620.270	1	43
620.440	1	44
620.609	1	38
620.779	1	49
620.949	1	37
621.118	1	42
621.288	1	31
621.458	1	35
621.627	1	34
621.797	1	37
621.967	1	35
622.136	1	38
622.306	1	32
622.476	1	42
622.645	1	48
622.815	1	34
622.985	1	33
623.154	1	36
623.324	1	44
623.494	1	31
623.663	1	31
623.833	1	36
624.002	1	37
624.172	1	28
624.342	1	42
624.511	1	27
624.681	1	41
624.851	1	34
625.020	1	32
625.190	1	36
625.360	1	37
625.529	1	32
625.699	1	35
625.869	1	33
626.038	1	39
626.208	1	34
626.377	1	37
626.547	1	29
626.717	1	29
626.886	1	34
627.056	1	33
627.226	1	34
627.395	1	23
627.565	1	39
627.735	1	40
627.904	1	38
628.074	1	43
628.243	1	44
628.413	1	32
628.583	1	32
628.752	1	31
628.922	1	27
629.091	1	45
629.261	1	38
629.431	1	23
629.600	1	32
629.770	1	39
629.940	1	38
630.109	1	27
630.279	1	42
630.448	1	33
630.618	1	43
630.788	1	21
630.957	1	37
631.127	1	39
631.297	1	34
631.466	1	37
631.636	1	23
631.805	1	36
631.975	1	30
632.145	1	21
632.314	1	29
632.484	1	41
632.653	1	26
632.823	1	33
632.993	1	36
633.162	1	30
633.332	1	37
633.501	1	31
633.671	1	37
633.841	1	37
634.010	1	28
634.180	1	30
634.349	1	40
634.519	1	29
634.689	1	37
634.858	1	30
635.028	1	30
635.197	1	32
635.367	1	37
635.537	1	33
635.706	1	26
635.876	1	35
636.045	1	24
636.215	1	31
636.384	1	36
636.554	1	32
636.724	1	33
636.893	1	34
637.063	1	24
637.232	1	35
637.402	1	39
637.572	1	32
637.741	1	26
637.911	1	32
638.080	1	28
638.250	1	22
638.419	1	25
638.589	1	43
638.759	1	39
638.928	1	27
639.098	1	27
639.267	1	42
639.437	1	25
639.606	1	37
639.776	1	21
639.946	1	24
640.115	1	22
640.285	1	27
640.454	1	27
640.624	1	39
640.793	1	16
640.963	1	31
641.132	1	34
641.302	1	31
641.472	1	39
641.641	1	34
641.811	1	31
641.980	1	37
642.150	1	23
642.319	1	41
642.489	1	27
642.659	1	39
642.828	1	41
642.998	1	21
643.167	1	33
643.337	1	31
643.506	1	22
643.676	1	29
643.845	1	45
644.015	1	12
644.184	1	40
644.354	1	28
644.524	1	23
644.693	1	39
644.863	1	14
645.032	1	30
645.202	1	31
645.371	1	29
645.541	1	34
645.710	1	38
645.880	1	28
646.049	1	32
646.219	1	23
646.388	1	18
646.558	1	19
646.728	1	25
646.897	1	19
647.067	1	37
647.236	1	16
647.406	1	33
647.575	1	52
647.745	1	32
647.914	1	26
648.084	1	21
648.253	1	30
648.423	1	35
648.592	1	33
648.762	1	28
648.931	1	34
649.101	1	25
649.270	1	35
649.440	1	35
649.610	1	22
649.779	1	20
649.949	1	27
650.118	1	22
650.288	1	25
650.457	1	33
650.627	1	18
650.796	1	32
650.966	1	35
651.135	1	25
651.305	1	29
651.474	1	31
651.644	1	28
651.813	1	34
651.983	1	26
652.152	1	24
652.322	1	30
652.491	1	38
652.661	1	22
652.830	1	30
653.000	1	23
653.169	1	21
653.339	1	31
653.508	1	24
653.678	1	43
653.847	1	24
654.017	1	33
654.186	1	26
654.356	1	26
654.525	1	33
654.695	1	29
654.864	1	24
655.034	1	30
655.203	1	27
655.373	1	23
655.542	1	29
655.712	1	40
655.881	1	32
656.051	1	19
656.220	1	33
656.390	1	27
656.559	1	31
656.729	1	34
656.898	1	25
657.068	1	25
657.237	1	30
657.406	1	15
657.576	1	32
657.745	1	33
657.915	1	29
658.084	1	25
658.254	1	27
658.423	1	17
658.593	1	25
658.762	1	10
658.932	1	35
659.101	1	16
659.271	1	25
659.440	1	33
659.610	1	26
659.779	1	23
659.949	1	25
660.118	1	20
660.288	1	13
660.457	1	26
660.626	1	9
660.796	1	30
660.965	1	33
661.135	1	30
661.304	1	27
661.474	1	31
661.643	1	12
661.813	1	26
661.982	1	26
662.152	1	22
662.321	1	19
662.491	1	12
662.660	1	27
662.829	1	25
662.999	1	30
663.168	1	22
663.338	1	16
663.507	1	20
663.677	1	17
663.846	1	12
664.016	1	9
664.185	1	13
664.354	1	25
664.524	1	21
664.693	1	21
664.863	1	17
665.032	1	31
665.202	1	23
665.371	1	16
665.541	1	31
665.710	1	20
665.879	1	22
666.049	1	28
666.218	1	25
666.388	1	19
666.557	1	13
666.727	1	31
666.896	1	30
667.065	1	24
667.235	1	24
667.404	1	29
667.574	1	14
667.743	1	24
667.913	1	21
668.082	1	18
668.251	1	17
668.421	1	23
668.590	1	15
668.760	1	24
668.929	1	24
669.099	1	25
669.268	1	19
669.437	1	26
669.607	1	13
669.776	1	17
669.946	1	24
670.115	1	26
670.285	1	22
670.454	1	18
670.623	1	29
670.793	1	15
670.962	1	19
671.132	1	26
671.301	1	20
671.470	1	25
671.640	1	37
671.809	1	26
671.979	1	18
672.148	1	27
672.317	1	20
672.487	1	23
672.656	1	27
672.826	1	18
672.995	1	18
673.164	1	18
673.334	1	20
673.503	1	23
673.673	1	29
673.842	1	19
674.011	1	28
674.181	1	26
674.350	1	21
674.520	1	24
674.689	1	11
674.858	1	22
675.028	1	24
675.197	1	26
675.367	1	21
675.536	1	20
675.705	1	6
675.875	1	27
676.044	1	21
676.214	1	26
676.383	1	11
676.552	1	13
676.722	1	23
676.891	1	24
677.060	1	23
677.230	1	26
677.399	1	35
677.569	1	30
677.738	1	15
677.907	1	23
678.077	1	16
678.246	1	30
678.416	1	32
678.585	1	14
678.754	1	23
678.924	1	27
679.093	1	27
679.262	1	28
679.432	1	25
679.601	1	29
679.771	1	28
679.940	1	28
680.109	1	19
680.279	1	30
680.448	1	11
680.617	1	25
680.787	1	16
680.956	1	22
681.125	1	10
681.295	1	29
681.464	1	16
681.634	1	22
681.803	1	19
681.972	1	22
682.142	1	23
682.311	1	27
682.480	1	16
682.650	1	18
682.819	1	24
682.988	1	16
683.158	1	14
683.327	1	25
683.496	1	20
683.666	1	20
683.835	1	31
684.004	1	12
684.174	1	20
684.343	1	26
684.512	1	24
684.682	1	28
684.851	1	22
685.021	1	25
685.190	1	19
685.359	1	23
685.529	1	15
685.698	1	8
685.867	1	20
686.037	1	22
686.206	1	23
686.375	1	25
686.545	1	14
686.714	1	33
686.883	1	24
687.053	1	34
687.222	1	22
687.391	1	19
687.561	1	21
687.730	1	34
687.899	1	17
688.069	1	33
688.238	1	39
688.407	1	25
688.577	1	23
688.746	1	28
