340.368	1	7
340.539	1	2
340.710	1	9
340.881	1	7
341.052	1	9
341.223	1	9
341.394	1	-9
341.565	1	4
341.737	1	8
341.908	1	8
342.079	1	4
342.250	1	2
342.421	1	0
342.592	1	7
342.763	1	3
342.934	1	5
343.105	1	5
343.276	1	-4
343.447	1	1
343.618	1	21
343.789	1	11
343.960	1	3
344.131	1	-5
344.302	1	6
344.473	1	-3
344.644	1	17
344.815	1	10
344.986	1	14
345.157	1	12
345.328	1	8
345.499	1	3
345.670	1	-4
345.841	1	5
346.012	1	-3
346.183	1	7
346.354	1	4
346.526	1	12
346.697	1	5
346.868	1	1
347.039	1	10
347.210	1	3
347.381	1	16
347.552	1	17
347.723	1	14
347.894	1	1
348.065	1	-1
348.236	1	9
348.407	1	15
348.578	1	5
348.749	1	20
348.920	1	3
349.091	1	4
349.262	1	8
349.433	1	4
349.604	1	-1
349.775	1	13
349.946	1	-1
350.117	1	5
350.288	1	-9
350.459	1	-8
350.630	1	-2
350.801	1	-4
350.972	1	9
351.143	1	5
351.314	1	10
351.485	1	3
351.656	1	8
351.827	1	14
351.998	1	3
352.169	1	11
352.340	1	10
352.511	1	-8
352.682	1	-4
352.853	1	-7
353.024	1	12
353.195	1	-6
353.366	1	10
353.537	1	-2
353.708	1	2
353.879	1	11
354.050	1	-8
354.221	1	-5
354.392	1	-5
354.563	1	7
354.734	1	11
354.905	1	4
355.076	1	14
355.247	1	4
355.418	1	4
355.589	1	12
355.760	1	7
355.931	1	0
356.102	1	9
356.273	1	8
356.444	1	4
356.615	1	5
356.785	1	11
356.956	1	7
357.127	1	12
357.298	1	-6
357.469	1	6
357.640	1	12
357.811	1	12
357.982	1	11
358.153	1	3
358.324	1	14
358.495	1	5
358.666	1	10
358.837	1	14
359.008	1	1
359.179	1	12
359.350	1	0
359.521	1	22
359.692	1	4
359.863	1	1
360.034	1	0
360.205	1	17
360.376	1	8
360.547	1	11
360.718	1	16
360.889	1	5
361.060	1	14
361.231	1	6
361.401	1	-3
361.572	1	17
361.743	1	4
361.914	1	17
362.085	1	16
362.256	1	15
362.427	1	6
362.598	1	25
362.769	1	19
362.940	1	16
363.111	1	8
363.282	1	8
363.453	1	11
363.624	1	16
363.795	1	16
363.966	1	14
364.137	1	11
364.308	1	22
364.478	1	25
364.649	1	19
364.820	1	24
364.991	1	22
365.162	1	30
365.333	1	20
365.504	1	17
365.675	1	27
365.846	1	9
366.017	1	24
366.188	1	23
366.359	1	9
366.530	1	23
366.701	1	30
366.871	1	27
367.042	1	28
367.213	1	30
367.384	1	20
367.555	1	23
367.726	1	22
367.897	1	26
368.068	1	35
368.239	1	30
368.410	1	39
368.581	1	28
368.752	1	31
368.923	1	17
369.093	1	36
369.264	1	25
369.435	1	43
369.606	1	37
369.777	1	31
369.948	1	29
370.119	1	25
370.290	1	28
370.461	1	22
370.632	1	20
370.803	1	20
370.973	1	17
371.144	1	24
371.315	1	23
371.486	1	30
371.657	1	17
371.828	1	17
371.999	1	16
372.170	1	23
372.341	1	18
372.512	1	10
372.682	1	15
372.853	1	29
373.024	1	21
373.195	1	17
373.366	1	23
373.537	1	15
373.708	1	16
373.879	1	16
374.050	1	22
374.220	1	14
374.391	1	8
374.562	1	16
374.733	1	23
374.904	1	15
375.075	1	5
375.246	1	10
375.417	1	23
375.588	1	5
375.758	1	17
375.929	1	17
376.100	1	2
376.271	1	12
376.442	1	12
376.613	1	14
376.784	1	10
376.955	1	6
377.125	1	14
377.296	1	16
377.467	1	21
377.638	1	9
377.809	1	1
377.980	1	2
378.151	1	4
378.321	1	13
378.492	1	7
378.663	1	11
378.834	1	16
379.005	1	13
379.176	1	7
379.347	1	5
379.518	1	9
379.688	1	11
379.859	1	3
380.030	1	17
380.201	1	9
380.372	1	10
380.543	1	8
380.714	1	14
380.884	1	8
381.055	1	2
381.226	1	12
381.397	1	7
381.568	1	2
381.739	1	-2
381.910	1	21
382.080	1	14
382.251	1	5
382.422	1	15
382.593	1	9
382.764	1	3
382.935	1	1
383.105	1	4
383.276	1	9
383.447	1	-1
383.618	1	11
383.789	1	-11
383.960	1	-1
384.130	1	10
384.301	1	1
384.472	1	1
384.643	1	3
384.814	1	17
384.985	1	0
385.156	1	2
385.326	1	-5
385.497	1	15
385.668	1	4
385.839	1	10
386.010	1	0
386.180	1	2
386.351	1	-4
386.522	1	9
386.693	1	6
386.864	1	-1
387.035	1	13
387.205	1	11
387.376	1	6
387.547	1	8
387.718	1	3
387.889	1	-9
388.060	1	13
388.230	1	2
388.401	1	5
388.572	1	-6
388.743	1	-5
388.914	1	14
389.084	1	7
389.255	1	4
389.426	1	0
389.597	1	8
389.768	1	3
389.939	1	9
390.109	1	0
390.280	1	2
390.451	1	3
390.622	1	0
390.793	1	5
390.963	1	-6
391.134	1	10
391.305	1	1
391.476	1	5
391.647	1	5
391.817	1	0
391.988	1	5
392.159	1	4
392.330	1	-5
392.501	1	-7
392.671	1	11
392.842	1	9
393.013	1	3
393.184	1	5
393.355	1	14
393.525	1	-4
393.696	1	12
393.867	1	2
394.038	1	9
394.208	1	7
394.379	1	15
394.550	1	6
394.721	1	-1
394.892	1	13
395.062	1	0
395.233	1	7
395.404	1	5
395.575	1	11
395.746	1	1
395.916	1	3
396.087	1	7
396.258	1	9
396.429	1	9
396.599	1	6
396.770	1	10
396.941	1	5
397.112	1	3
397.283	1	13
397.453	1	0
397.624	1	2
397.795	1	7
397.966	1	8
398.136	1	9
398.307	1	-3
398.478	1	6
398.649	1	-4
398.819	1	11
398.990	1	8
399.161	1	13
399.332	1	4
399.503	1	10
399.673	1	3
399.844	1	0
400.015	1	-8
400.186	1	7
400.356	1	1
400.527	1	8
400.698	1	13
400.869	1	3
401.039	1	5
401.210	1	3
401.381	1	-3
401.552	1	9
401.722	1	18
401.893	1	8
402.064	1	5
402.235	1	16
402.405	1	-3
402.576	1	12
402.747	1	15
402.918	1	0
403.088	1	11
403.259	1	-7
403.430	1	-6
403.601	1	10
403.771	1	6
403.942	1	-9
404.113	1	12
404.284	1	12
404.454	1	-3
404.625	1	4
404.796	1	12
404.967	1	13
405.137	1	12
405.308	1	-11
405.479	1	4
405.649	1	5
405.820	1	3
405.991	1	6
406.162	1	5
406.332	1	0
406.503	1	4
406.674	1	-1
406.845	1	16
407.015	1	5
407.186	1	2
407.357	1	-2
407.527	1	-4
407.698	1	10
407.869	1	13
408.040	1	15
408.210	1	14
408.381	1	0
408.552	1	0
408.722	1	15
408.893	1	-1
409.064	1	14
409.235	1	1
409.405	1	2
409.576	1	7
409.747	1	5
409.917	1	13
410.088	1	6
410.259	1	2
410.430	1	13
410.600	1	13
410.771	1	9
410.942	1	13
411.112	1	7
411.283	1	5
411.454	1	1
411.625	1	5
411.795	1	6
411.966	1	8
412.137	1	11
412.307	1	10
412.478	1	-2
412.649	1	7
412.819	1	16
412.990	1	10
413.161	1	11
413.332	1	5
413.502	1	13
413.673	1	-1
413.844	1	14
414.014	1	1
414.185	1	10
414.356	1	13
414.526	1	3
414.697	1	8
414.868	1	8
415.038	1	12
415.209	1	6
415.380	1	4
415.550	1	0
415.721	1	9
415.892	1	13
416.063	1	9
416.233	1	13
416.404	1	12
416.575	1	0
416.745	1	6
416.916	1	3
417.087	1	5
417.257	1	4
417.428	1	8
417.599	1	9
417.769	1	8
417.940	1	6
418.111	1	11
418.281	1	16
418.452	1	14
418.623	1	5
418.793	1	1
418.964	1	17
419.135	1	0
419.305	1	12
419.476	1	8
419.647	1	9
419.817	1	8
419.988	1	13
420.159	1	15
420.329	1	9
420.500	1	13
420.671	1	22
420.841	1	6
421.012	1	2
421.183	1	8
421.353	1	10
421.524	1	2
421.695	1	11
421.865	1	12
422.036	1	9
422.206	1	5
422.377	1	9
422.548	1	10
422.718	1	15
422.889	1	13
423.060	1	11
423.230	1	12
423.401	1	4
423.572	1	7
423.742	1	16
423.913	1	-9
424.084	1	1
424.254	1	13
424.425	1	14
424.595	1	16
424.766	1	7
424.937	1	10
425.107	1	10
425.278	1	8
425.449	1	-3
425.619	1	15
425.790	1	7
425.961	1	13
426.131	1	2
426.302	1	3
426.472	1	16
426.643	1	5
426.814	1	6
426.984	1	6
427.155	1	6
427.326	1	8
427.496	1	11
427.667	1	-7
427.837	1	10
428.008	1	15
428.179	1	18
428.349	1	6
428.520	1	18
428.691	1	10
428.861	1	4
429.032	1	6
429.202	1	-5
429.373	1	4
429.544	1	1
429.714	1	14
429.885	1	13
430.055	1	16
430.226	1	-7
430.397	1	9
430.567	1	-7
430.738	1	9
430.909	1	4
431.079	1	7
431.250	1	8
431.420	1	9
431.591	1	12
431.762	1	3
431.932	1	-2
432.103	1	17
432.273	1	14
432.444	1	10
432.615	1	-4
432.785	1	11
432.956	1	6
433.126	1	6
433.297	1	2
433.468	1	14
433.638	1	11
433.809	1	-4
433.979	1	12
434.150	1	12
434.320	1	12
434.491	1	11
434.662	1	8
434.832	1	10
435.003	1	19
435.173	1	7
435.344	1	6
435.515	1	5
435.685	1	-4
435.856	1	0
436.026	1	9
436.197	1	3
436.368	1	-3
436.538	1	0
436.709	1	-1
436.879	1	11
437.050	1	3
437.220	1	10
437.391	1	11
437.562	1	15
437.732	1	11
437.903	1	2
438.073	1	4
438.244	1	13
438.414	1	4
438.585	1	8
438.756	1	-2
438.926	1	9
439.097	1	13
439.267	1	-1
439.438	1	10
439.608	1	1
439.779	1	14
439.949	1	6
440.120	1	0
440.291	1	4
440.461	1	3
440.632	1	4
440.802	1	5
440.973	1	10
441.143	1	10
441.314	1	3
441.485	1	0
441.655	1	19
441.826	1	3
441.996	1	3
442.167	1	5
442.337	1	4
442.508	1	1
442.678	1	12
442.849	1	12
443.019	1	7
443.190	1	9
443.361	1	6
443.531	1	2
443.702	1	11
443.872	1	-7
444.043	1	19
444.213	1	-2
444.384	1	15
444.554	1	8
444.725	1	13
444.895	1	2
445.066	1	0
445.237	1	15
445.407	1	2
445.578	1	0
445.748	1	7
445.919	1	7
446.089	1	7
446.260	1	8
446.430	1	4
446.601	1	8
446.771	1	4
446.942	1	5
447.112	1	11
447.283	1	12
447.453	1	-5
447.624	1	-5
447.794	1	0
447.965	1	9
448.135	1	4
448.306	1	5
448.477	1	5
448.647	1	10
448.818	1	11
448.988	1	12
449.159	1	-4
449.329	1	10
449.500	1	8
449.670	1	6
449.841	1	3
450.011	1	4
450.182	1	11
450.352	1	7
450.523	1	8
450.693	1	5
450.864	1	3
451.034	1	-3
451.205	1	4
451.375	1	-2
451.546	1	8
451.716	1	10
451.887	1	21
452.057	1	3
452.228	1	8
452.398	1	10
452.569	1	5
452.739	1	6
452.910	1	2
453.080	1	10
453.251	1	3
453.421	1	11
453.592	1	1
453.762	1	9
453.933	1	-4
454.103	1	6
454.274	1	-3
454.444	1	-2
454.615	1	2
454.785	1	10
454.956	1	9
455.126	1	5
455.297	1	-5
455.467	1	10
455.638	1	7
455.808	1	15
455.979	1	9
456.149	1	2
456.320	1	1
456.490	1	1
456.661	1	-2
456.831	1	9
457.001	1	11
457.172	1	8
457.342	1	0
457.513	1	1
457.683	1	0
457.854	1	9
458.024	1	15
458.195	1	-1
458.365	1	-4
458.536	1	12
458.706	1	10
458.877	1	8
459.047	1	8
459.218	1	15
459.388	1	4
459.559	1	1
459.729	1	-1
459.899	1	-5
460.070	1	17
460.240	1	5
460.411	1	19
460.581	1	8
460.752	1	-3
460.922	1	15
461.093	1	7
461.263	1	7
461.434	1	4
461.604	1	4
461.775	1	11
461.945	1	5
462.115	1	0
462.286	1	3
462.456	1	11
462.627	1	13
462.797	1	4
462.968	1	14
463.138	1	4
463.309	1	2
463.479	1	-1
463.649	1	-6
463.820	1	15
463.990	1	4
464.161	1	3
464.331	1	11
464.502	1	7
464.672	1	11
464.843	1	7
465.013	1	2
465.183	1	-14
465.354	1	18
465.524	1	-5
465.695	1	-1
465.865	1	0
466.036	1	8
466.206	1	6
466.376	1	12
466.547	1	6
466.717	1	-6
466.888	1	4
467.058	1	0
467.229	1	10
467.399	1	-7
467.569	1	7
467.740	1	17
467.910	1	12
468.081	1	3
468.251	1	0
468.422	1	6
468.592	1	-6
468.762	1	12
468.933	1	2
469.103	1	5
469.274	1	3
469.444	1	6
469.614	1	1
469.785	1	-11
469.955	1	6
470.126	1	10
470.296	1	12
470.467	1	7
470.637	1	-5
470.807	1	8
470.978	1	-5
471.148	1	3
471.319	1	3
471.489	1	9
471.659	1	1
471.830	1	8
472.000	1	-8
472.171	1	6
472.341	1	12
472.511	1	1
472.682	1	11
472.852	1	9
473.023	1	7
473.193	1	4
473.363	1	6
473.534	1	3
473.704	1	3
473.875	1	1
474.045	1	0
474.215	1	8
474.386	1	7
474.556	1	-1
474.727	1	-5
474.897	1	-6
475.067	1	2
475.238	1	8
475.408	1	10
475.578	1	-5
475.749	1	5
475.919	1	-1
476.090	1	9
476.260	1	5
476.430	1	-8
476.601	1	1
476.771	1	6
476.942	1	3
477.112	1	6
477.282	1	-5
477.453	1	3
477.623	1	10
477.793	1	-3
477.964	1	7
478.134	1	6
478.305	1	10
478.475	1	6
478.645	1	0
478.816	1	-4
478.986	1	8
479.156	1	4
479.327	1	9
479.497	1	-5
479.667	1	-1
479.838	1	12
480.008	1	-6
480.179	1	5
480.349	1	5
480.519	1	-1
480.690	1	7
480.860	1	7
481.030	1	7
481.201	1	5
481.371	1	-3
481.541	1	4
481.712	1	10
481.882	1	-3
482.053	1	13
482.223	1	-1
482.393	1	6
482.564	1	2
482.734	1	6
482.904	1	-2
483.075	1	9
483.245	1	2
483.415	1	9
483.586	1	1
483.756	1	9
483.926	1	-3
484.097	1	14
484.267	1	13
484.437	1	12
484.608	1	2
484.778	1	-6
484.948	1	5
485.119	1	3
485.289	1	-2
485.459	1	0
485.630	1	3
485.800	1	0
485.970	1	-12
486.141	1	4
486.311	1	15
486.481	1	-6
486.652	1	-11
486.822	1	11
486.992	1	7
487.163	1	-1
487.333	1	-2
487.503	1	6
487.674	1	-1
487.844	1	-4
488.014	1	10
488.185	1	5
488.355	1	8
488.525	1	-5
488.696	1	17
488.866	1	6
489.036	1	4
489.207	1	9
489.377	1	8
489.547	1	9
489.718	1	0
489.888	1	2
490.058	1	3
490.228	1	6
490.399	1	9
490.569	1	-1
490.739	1	4
490.910	1	11
491.080	1	0
491.250	1	2
491.421	1	2
491.591	1	4
491.761	1	5
491.932	1	8
492.102	1	0
492.272	1	-1
492.442	1	10
492.613	1	4
492.783	1	9
492.953	1	10
493.124	1	14
493.294	1	-9
493.464	1	3
493.635	1	7
493.805	1	10
493.975	1	3
494.145	1	-7
494.316	1	-2
494.486	1	-2
494.656	1	5
494.827	1	4
494.997	1	4
495.167	1	5
495.337	1	-3
495.508	1	8
495.678	1	5
495.848	1	-8
496.019	1	4
496.189	1	-1
496.359	1	4
496.529	1	4
496.700	1	-1
496.870	1	2
497.040	1	0
497.211	1	-1
497.381	1	5
497.551	1	3
497.721	1	4
497.892	1	3
498.062	1	7
498.232	1	-3
498.403	1	9
498.573	1	3
498.743	1	10
498.913	1	12
499.084	1	-6
499.254	1	1
499.424	1	1
499.594	1	6
499.765	1	4
499.935	1	14
500.105	1	13
500.275	1	1
500.446	1	-4
500.616	1	0
500.786	1	0
500.956	1	12
501.127	1	4
501.297	1	5
501.467	1	15
501.638	1	10
501.808	1	4
501.978	1	8
502.148	1	-5
502.319	1	12
502.489	1	4
502.659	1	8
502.829	1	10
503.000	1	7
503.170	1	6
503.340	1	2
503.510	1	0
503.681	1	16
503.851	1	6
504.021	1	4
504.191	1	0
504.362	1	3
504.532	1	12
504.702	1	3
504.872	1	1
505.042	1	4
505.213	1	2
505.383	1	12
505.553	1	7
505.723	1	4
505.894	1	3
506.064	1	-5
506.234	1	4
506.404	1	5
506.575	1	16
506.745	1	5
506.915	1	0
507.085	1	12
507.256	1	7
507.426	1	8
507.596	1	3
507.766	1	7
507.936	1	11
508.107	1	-9
508.277	1	16
508.447	1	1
508.617	1	8
508.788	1	8
508.958	1	13
509.128	1	-3
509.298	1	-1
509.468	1	0
509.639	1	4
509.809	1	0
509.979	1	4
510.149	1	11
510.319	1	10
510.490	1	1
510.660	1	6
510.830	1	-7
511.000	1	-2
511.171	1	10
511.341	1	20
511.511	1	6
511.681	1	13
511.851	1	16
512.022	1	-11
512.192	1	9
512.362	1	10
512.532	1	15
512.702	1	3
512.873	1	5
513.043	1	19
513.213	1	16
513.383	1	6
513.553	1	-1
513.724	1	7
513.894	1	-3
514.064	1	8
514.234	1	13
514.404	1	16
514.575	1	-7
514.745	1	1
514.915	1	8
515.085	1	9
515.255	1	2
515.425	1	11
515.596	1	13
515.766	1	5
515.936	1	8
516.106	1	0
516.276	1	-5
516.447	1	16
516.617	1	4
516.787	1	9
516.957	1	4
517.127	1	15
517.297	1	2
517.468	1	13
517.638	1	4
517.808	1	6
517.978	1	2
518.148	1	19
518.319	1	2
518.489	1	5
518.659	1	13
518.829	1	10
518.999	1	10
519.169	1	2
519.340	1	3
519.510	1	-2
519.680	1	9
519.850	1	10
520.020	1	5
520.190	1	7
520.361	1	14
520.531	1	3
520.701	1	10
520.871	1	3
521.041	1	13
521.211	1	10
521.382	1	6
521.552	1	3
521.722	1	10
521.892	1	2
522.062	1	6
522.232	1	11
522.402	1	20
522.573	1	5
522.743	1	10
522.913	1	14
523.083	1	9
523.253	1	6
523.423	1	-2
523.593	1	5
523.764	1	4
523.934	1	10
524.104	1	1
524.274	1	13
524.444	1	10
524.614	1	11
524.784	1	-4
524.955	1	2
525.125	1	5
525.295	1	13
525.465	1	14
525.635	1	6
525.805	1	2
525.975	1	-5
526.146	1	12
526.316	1	-2
526.486	1	-4
526.656	1	15
526.826	1	10
526.996	1	12
527.166	1	-4
527.337	1	13
527.507	1	14
527.677	1	24
527.847	1	-7
528.017	1	2
528.187	1	12
528.357	1	12
528.527	1	10
528.698	1	11
528.868	1	-1
529.038	1	8
529.208	1	9
529.378	1	9
529.548	1	19
529.718	1	7
529.888	1	8
530.058	1	12
530.229	1	13
530.399	1	4
530.569	1	2
530.739	1	11
530.909	1	1
531.079	1	10
531.249	1	4
531.419	1	12
531.589	1	7
531.760	1	9
531.930	1	9
532.100	1	15
532.270	1	7
532.440	1	6
532.610	1	9
532.780	1	14
532.950	1	9
533.120	1	16
533.290	1	6
533.461	1	6
533.631	1	5
533.801	1	1
533.971	1	6
534.141	1	14
534.311	1	-3
534.481	1	25
534.651	1	-4
534.821	1	6
534.991	1	3
535.162	1	8
535.332	1	4
535.502	1	3
535.672	1	14
535.842	1	6
536.012	1	10
536.182	1	0
536.352	1	3
536.522	1	8
536.692	1	9
536.862	1	6
537.032	1	11
537.203	1	6
537.373	1	3
537.543	1	9
537.713	1	12
537.883	1	2
538.053	1	10
538.223	1	17
538.393	1	11
538.563	1	3
538.733	1	17
538.903	1	6
539.073	1	5
539.243	1	16
539.413	1	-8
539.584	1	6
539.754	1	0
539.924	1	3
540.094	1	15
540.264	1	8
540.434	1	11
540.604	1	15
540.774	1	7
540.944	1	9
541.114	1	19
541.284	1	4
541.454	1	2
541.624	1	2
541.794	1	1
541.964	1	13
542.134	1	6
542.305	1	13
542.475	1	22
542.645	1	7
542.815	1	11
542.985	1	4
543.155	1	10
543.325	1	2
543.495	1	10
543.665	1	8
543.835	1	7
544.005	1	6
544.175	1	9
544.345	1	4
544.515	1	8
544.685	1	4
544.855	1	7
545.025	1	0
545.195	1	5
545.365	1	5
545.535	1	5
545.705	1	8
545.875	1	15
546.045	1	13
546.216	1	-3
546.386	1	-1
546.556	1	8
546.726	1	-3
546.896	1	6
547.066	1	1
547.236	1	13
547.406	1	2
547.576	1	0
547.746	1	2
547.916	1	16
548.086	1	9
548.256	1	3
548.426	1	8
548.596	1	10
548.766	1	2
548.936	1	5
549.106	1	8
549.276	1	4
549.446	1	7
549.616	1	15
549.786	1	8
549.956	1	8
550.126	1	6
550.296	1	2
550.466	1	4
550.636	1	3
550.806	1	20
550.976	1	5
551.146	1	7
551.316	1	9
551.486	1	16
551.656	1	12
551.826	1	0
551.996	1	6
552.166	1	2
552.336	1	3
552.506	1	4
552.676	1	16
552.846	1	18
553.016	1	4
553.186	1	9
553.356	1	3
553.526	1	9
553.696	1	-5
553.866	1	-3
554.036	1	5
554.206	1	13
554.376	1	11
554.546	1	10
554.716	1	5
554.886	1	5
555.056	1	6
555.226	1	9
555.396	1	8
555.566	1	5
555.736	1	6
555.906	1	8
556.076	1	-2
556.246	1	8
556.416	1	12
556.586	1	2
556.756	1	2
556.926	1	7
557.096	1	11
557.266	1	11
557.436	1	5
557.606	1	-8
557.776	1	4
557.946	1	8
558.116	1	10
558.286	1	-7
558.456	1	-3
558.626	1	13
558.796	1	16
558.966	1	3
559.136	1	6
559.306	1	7
559.476	1	4
559.646	1	6
559.816	1	4
559.986	1	10
560.155	1	13
560.325	1	1
560.495	1	12
560.665	1	-2
560.835	1	3
561.005	1	2
561.175	1	-4
561.345	1	0
561.515	1	15
561.685	1	5
561.855	1	1
562.025	1	11
562.195	1	7
562.365	1	14
562.535	1	-6
562.705	1	5
562.875	1	2
563.045	1	4
563.215	1	5
563.385	1	12
563.555	1	6
563.725	1	7
563.895	1	4
564.064	1	-2
564.234	1	-5
564.404	1	8
564.574	1	-2
564.744	1	10
564.914	1	10
565.084	1	14
565.254	1	17
565.424	1	1
565.594	1	6
565.764	1	2
565.934	1	7
566.104	1	7
566.274	1	2
566.444	1	12
566.614	1	4
566.783	1	7
566.953	1	11
567.123	1	2
567.293	1	2
567.463	1	6
567.633	1	3
567.803	1	5
567.973	1	0
568.143	1	4
568.313	1	10
568.483	1	18
568.653	1	0
568.823	1	5
568.993	1	6
569.162	1	8
569.332	1	-3
569.502	1	8
569.672	1	7
569.842	1	1
570.012	1	-7
570.182	1	4
570.352	1	8
570.522	1	-3
570.692	1	8
570.862	1	-2
571.031	1	10
571.201	1	6
571.371	1	-9
571.541	1	9
571.711	1	7
571.881	1	1
572.051	1	11
572.221	1	4
572.391	1	1
572.561	1	8
572.731	1	1
572.900	1	15
573.070	1	-5
573.240	1	-3
573.410	1	12
573.580	1	10
573.750	1	-1
573.920	1	17
574.090	1	2
574.260	1	4
574.430	1	5
574.599	1	10
574.769	1	19
574.939	1	5
575.109	1	5
575.279	1	-4
575.449	1	7
575.619	1	1
575.789	1	4
575.959	1	2
576.128	1	3
576.298	1	-1
576.468	1	11
576.638	1	15
576.808	1	2
576.978	1	10
577.148	1	-3
577.318	1	6
577.487	1	3
577.657	1	6
577.827	1	3
577.997	1	7
578.167	1	6
578.337	1	-1
578.507	1	6
578.677	1	9
578.846	1	-1
579.016	1	-1
579.186	1	13
579.356	1	14
579.526	1	-7
579.696	1	2
579.866	1	6
580.036	1	5
580.205	1	6
580.375	1	2
580.545	1	12
580.715	1	10
580.885	1	5
581.055	1	5
581.225	1	6
581.394	1	6
581.564	1	-4
581.734	1	0
581.904	1	4
582.074	1	3
582.244	1	-3
582.414	1	6
582.583	1	3
582.753	1	-10
582.923	1	-1
583.093	1	10
583.263	1	3
583.433	1	12
583.603	1	6
583.772	1	10
583.942	1	-7
584.112	1	5
584.282	1	0
584.452	1	3
584.622	1	6
584.791	1	8
584.961	1	1
585.131	1	8
585.301	1	2
585.471	1	0
585.641	1	10
585.811	1	1
585.980	1	-5
586.150	1	8
586.320	1	2
586.490	1	4
586.660	1	3
586.830	1	8
586.999	1	3
587.169	1	-2
587.339	1	5
587.509	1	6
587.679	1	3
587.849	1	2
588.018	1	5
588.188	1	8
588.358	1	27
588.528	1	-9
588.698	1	10
588.867	1	12
589.037	1	3
589.207	1	8
589.377	1	-4
589.547	1	8
589.717	1	-3
589.886	1	8
590.056	1	1
590.226	1	3
590.396	1	2
590.566	1	3
590.735	1	18
590.905	1	6
591.075	1	10
591.245	1	-5
591.415	1	1
591.585	1	4
591.754	1	-6
591.924	1	-1
592.094	1	10
592.264	1	11
592.434	1	-4
592.603	1	-10
592.773	1	6
592.943	1	7
593.113	1	-3
593.283	1	5
593.452	1	1
593.622	1	4
593.792	1	7
593.962	1	8
594.132	1	10
594.301	1	8
594.471	1	-7
594.641	1	-1
594.811	1	18
594.981	1	9
595.150	1	-1
595.320	1	6
595.490	1	-6
595.660	1	10
595.829	1	0
595.999	1	3
596.169	1	-1
596.339	1	6
596.509	1	9
596.678	1	-8
596.848	1	4
597.018	1	-6
597.188	1	13
597.358	1	5
597.527	1	7
597.697	1	6
597.867	1	1
598.037	1	6
598.206	1	8
598.376	1	7
598.546	1	6
598.716	1	9
598.885	1	2
599.055	1	10
599.225	1	-2
599.395	1	0
599.565	1	4
599.734	1	8
599.904	1	9
600.074	1	2
600.244	1	-7
600.413	1	-2
600.583	1	9
600.753	1	5
600.923	1	9
601.092	1	-4
601.262	1	2
601.432	1	3
601.602	1	2
601.771	1	9
601.941	1	4
602.111	1	11
602.281	1	17
602.451	1	-3
602.620	1	15
602.790	1	5
602.960	1	-6
603.130	1	11
603.299	1	7
603.469	1	10
603.639	1	3
603.809	1	4
603.978	1	5
604.148	1	-3
604.318	1	7
604.487	1	2
604.657	1	5
604.827	1	1
604.997	1	6
605.166	1	-3
605.336	1	12
605.506	1	2
605.676	1	5
605.845	1	8
606.015	1	2
606.185	1	-5
606.355	1	-8
606.524	1	-5
606.694	1	15
606.864	1	17
607.034	1	-1
607.203	1	5
607.373	1	-6
607.543	1	4
607.712	1	-6
607.882	1	4
608.052	1	-4
608.222	1	1
608.391	1	5
608.561	1	0
608.731	1	-10
608.901	1	2
609.070	1	-3
609.240	1	5
609.410	1	-1
609.579	1	2
609.749	1	9
609.919	1	-8
610.089	1	3
610.258	1	10
610.428	1	2
610.598	1	7
610.767	1	4
610.937	1	4
611.107	1	14
611.277	1	12
611.446	1	-1
611.616	1	7
611.786	1	1
611.955	1	7
612.125	1	8
612.295	1	1
612.465	1	2
612.634	1	1
612.804	1	-3
612.974	1	-3
613.143	1	-11
613.313	1	7
613.483	1	4
613.652	1	11
613.822	1	-1
613.992	1	-1
614.162	1	11
614.331	1	10
614.501	1	-5
614.671	1	7
614.840	1	0
615.010	1	9
615.180	1	-2
615.349	1	12
615.519	1	-9
615.689	1	0
615.858	1	-1
616.028	1	19
616.198	1	12
616.368	1	14
616.537	1	4
616.707	1	0
616.877	1	3
617.046	1	0
617.216	1	1
617.386	1	14
617.555	1	16
617.725	1	0
617.895	1	6
618.064	1	-5
618.234	1	3
618.404	1	9
618.573	1	7
618.743	1	3
618.913	1	3
619.082	1	9
619.252	1	-7
619.422	1	19
619.591	1	12
619.761	1	-3
619.931	1	4
620.100	1	9
620.270	1	4
620.440	1	6
620.609	1	-1
620.779	1	6
620.949	1	6
621.118	1	21
621.288	1	6
621.458	1	0
621.627	1	4
621.797	1	-2
621.967	1	4
622.136	1	2
622.306	1	1
622.476	1	8
622.645	1	14
622.815	1	2
622.985	1	-1
623.154	1	-7
623.324	1	-6
623.494	1	-5
623.663	1	2
623.833	1	5
624.002	1	7
624.172	1	3
624.342	1	14
624.511	1	-6
624.681	1	0
624.851	1	11
625.020	1	-2
625.190	1	6
625.360	1	1
625.529	1	-1
625.699	1	9
625.869	1	22
626.038	1	2
626.208	1	2
626.377	1	9
626.547	1	-3
626.717	1	-3
626.886	1	-3
627.056	1	7
627.226	1	14
627.395	1	2
627.565	1	10
627.735	1	6
627.904	1	-3
628.074	1	9
628.243	1	8
628.413	1	1
628.583	1	3
628.752	1	0
628.922	1	5
629.091	1	9
629.261	1	0
629.431	1	7
629.600	1	-9
629.770	1	9
629.940	1	10
630.109	1	-4
630.279	1	8
630.448	1	4
630.618	1	8
630.788	1	5
630.957	1	17
631.127	1	0
631.297	1	7
631.466	1	5
631.636	1	3
631.805	1	6
631.975	1	2
632.145	1	0
632.314	1	6
632.484	1	9
632.653	1	4
632.823	1	1
632.993	1	5
633.162	1	-5
633.332	1	7
633.501	1	5
633.671	1	4
633.841	1	11
634.010	1	14
634.180	1	0
634.349	1	10
634.519	1	0
634.689	1	-4
634.858	1	4
635.028	1	-3
635.197	1	11
635.367	1	11
635.537	1	10
635.706	1	4
635.876	1	12
636.045	1	-2
636.215	1	-3
636.384	1	5
636.554	1	-2
636.724	1	3
636.893	1	5
637.063	1	-1
637.232	1	3
637.402	1	10
637.572	1	4
637.741	1	10
637.911	1	5
638.080	1	15
638.250	1	-5
638.419	1	5
638.589	1	4
638.759	1	4
638.928	1	-5
639.098	1	-7
639.267	1	15
639.437	1	7
639.606	1	15
639.776	1	-4
639.946	1	1
640.115	1	3
640.285	1	3
640.454	1	0
640.624	1	5
640.793	1	-1
640.963	1	4
641.132	1	11
641.302	1	10
641.472	1	9
641.641	1	8
641.811	1	-6
641.980	1	11
642.150	1	-1
642.319	1	17
642.489	1	1
642.659	1	2
642.828	1	8
642.998	1	1
643.167	1	8
643.337	1	-2
643.506	1	-2
643.676	1	7
643.845	1	16
644.015	1	8
644.184	1	7
644.354	1	11
644.524	1	-4
644.693	1	-5
644.863	1	9
645.032	1	5
645.202	1	5
645.371	1	7
645.541	1	3
645.710	1	10
645.880	1	10
646.049	1	15
646.219	1	6
646.388	1	0
646.558	1	-5
646.728	1	13
646.897	1	5
647.067	1	16
647.236	1	-6
647.406	1	2
647.575	1	6
647.745	1	-2
647.914	1	1
648.084	1	-5
648.253	1	8
648.423	1	13
648.592	1	10
648.762	1	5
648.931	1	11
649.101	1	-4
649.270	1	5
649.440	1	11
649.610	1	5
649.779	1	-5
649.949	1	2
650.118	1	3
650.288	1	7
650.457	1	9
650.627	1	0
650.796	1	8
650.966	1	4
651.135	1	-1
651.305	1	10
651.474	1	5
651.644	1	10
651.813	1	5
651.983	1	-5
652.152	1	7
652.322	1	5
652.491	1	4
652.661	1	5
652.830	1	-5
653.000	1	6
653.169	1	5
653.339	1	5
653.508	1	2
653.678	1	13
653.847	1	2
654.017	1	11
654.186	1	15
654.356	1	2
654.525	1	9
654.695	1	12
654.864	1	-2
655.034	1	-1
655.203	1	4
655.373	1	9
655.542	1	10
655.712	1	2
655.881	1	6
656.051	1	1
656.220	1	6
656.390	1	-1
656.559	1	5
656.729	1	11
656.898	1	11
657.068	1	2
657.237	1	-1
657.406	1	-6
657.576	1	9
657.745	1	14
657.915	1	12
658.084	1	5
658.254	1	-2
658.423	1	12
658.593	1	4
658.762	1	1
658.932	1	8
659.101	1	9
659.271	1	6
659.440	1	5
659.610	1	8
659.779	1	2
659.949	1	9
660.118	1	4
660.288	1	-8
660.457	1	4
660.626	1	-3
660.796	1	2
660.965	1	4
661.135	1	5
661.304	1	11
661.474	1	4
661.643	1	5
661.813	1	0
661.982	1	2
662.152	1	9
662.321	1	3
662.491	1	-2
662.660	1	2
662.829	1	0
662.999	1	14
663.168	1	1
663.338	1	-5
663.507	1	2
663.677	1	9
663.846	1	-4
664.016	1	-8
664.185	1	10
664.354	1	6
664.524	1	10
664.693	1	5
664.863	1	-5
665.032	1	7
665.202	1	8
665.371	1	5
665.541	1	6
665.710	1	2
665.879	1	10
666.049	1	6
666.218	1	5
666.388	1	7
666.557	1	3
666.727	1	13
666.896	1	8
667.065	1	1
667.235	1	-2
667.404	1	5
667.574	1	-2
667.743	1	3
667.913	1	11
668.082	1	10
668.251	1	-15
668.421	1	10
668.590	1	-5
668.760	1	0
668.929	1	0
669.099	1	2
669.268	1	-9
669.437	1	2
669.607	1	4
669.776	1	6
669.946	1	7
670.115	1	5
670.285	1	-2
670.454	1	4
670.623	1	-3
670.793	1	-2
670.962	1	-6
671.132	1	2
671.301	1	6
671.470	1	9
671.640	1	8
671.809	1	2
671.979	1	0
672.148	1	10
672.317	1	8
672.487	1	-5
672.656	1	0
672.826	1	2
672.995	1	5
673.164	1	0
673.334	1	-3
673.503	1	1
673.673	1	10
673.842	1	-5
674.011	1	5
674.181	1	4
674.350	1	8
674.520	1	-7
674.689	1	0
674.858	1	0
675.028	1	5
675.197	1	18
675.367	1	4
675.536	1	-2
675.705	1	-4
675.875	1	1
676.044	1	-2
676.214	1	6
676.383	1	1
676.552	1	-2
676.722	1	3
676.891	1	4
677.060	1	4
677.230	1	12
677.399	1	7
677.569	1	20
677.738	1	-5
677.907	1	10
678.077	1	-1
678.246	1	5
678.416	1	0
678.585	1	2
678.754	1	6
678.924	1	6
679.093	1	15
679.262	1	-1
679.432	1	-2
679.601	1	4
679.771	1	0
679.940	1	0
680.109	1	0
680.279	1	2
680.448	1	-7
680.617	1	-1
680.787	1	-12
680.956	1	4
681.125	1	4
681.295	1	-6
681.464	1	-4
681.634	1	5
681.803	1	2
681.972	1	8
682.142	1	6
682.311	1	5
682.480	1	-4
682.650	1	-16
682.819	1	-2
682.988	1	4
683.158	1	-5
683.327	1	9
683.496	1	-1
683.666	1	5
683.835	1	-1
684.004	1	-6
684.174	1	3
684.343	1	3
684.512	1	3
684.682	1	14
684.851	1	-5
685.021	1	8
685.190	1	0
685.359	1	14
685.529	1	-1
685.698	1	4
685.867	1	1
686.037	1	7
686.206	1	4
686.375	1	8
686.545	1	3
686.714	1	5
686.883	1	12
687.053	1	14
687.222	1	-6
687.391	1	-4
687.561	1	-9
687.730	1	4
687.899	1	-6
688.069	1	6
688.238	1	7
688.407	1	9
688.577	1	2
688.746	1	-1
