340.368	1	4
340.539	1	9
340.710	1	9
340.881	1	7
341.052	1	1
341.223	1	10
341.394	1	-9
341.565	1	12
341.737	1	8
341.908	1	10
342.079	1	-2
342.250	1	11
342.421	1	8
342.592	1	9
342.763	1	6
342.934	1	11
343.105	1	4
343.276	1	4
343.447	1	4
343.618	1	13
343.789	1	9
343.960	1	8
344.131	1	-5
344.302	1	18
344.473	1	5
344.644	1	4
344.815	1	2
344.986	1	9
345.157	1	7
345.328	1	1
345.499	1	0
345.670	1	5
345.841	1	11
346.012	1	2
346.183	1	9
346.354	1	7
346.526	1	8
346.697	1	5
346.868	1	7
347.039	1	11
347.210	1	1
347.381	1	17
347.552	1	18
347.723	1	15
347.894	1	11
348.065	1	7
348.236	1	1
348.407	1	11
348.578	1	12
348.749	1	21
348.920	1	15
349.091	1	1
349.262	1	10
349.433	1	4
349.604	1	6
349.775	1	2
349.946	1	3
350.117	1	15
350.288	1	4
350.459	1	7
350.630	1	4
350.801	1	16
350.972	1	13
351.143	1	12
351.314	1	10
351.485	1	14
351.656	1	14
351.827	1	13
351.998	1	5
352.169	1	11
352.340	1	9
352.511	1	6
352.682	1	1
352.853	1	1
353.024	1	25
353.195	1	-2
353.366	1	10
353.537	1	4
353.708	1	12
353.879	1	15
354.050	1	6
354.221	1	8
354.392	1	5
354.563	1	20
354.734	1	18
354.905	1	14
355.076	1	23
355.247	1	11
355.418	1	21
355.589	1	23
355.760	1	27
355.931	1	24
356.102	1	16
356.273	1	37
356.444	1	19
356.615	1	16
356.785	1	34
356.956	1	25
357.127	1	32
357.298	1	16
357.469	1	22
357.640	1	26
357.811	1	19
357.982	1	17
358.153	1	17
358.324	1	24
358.495	1	23
358.666	1	38
358.837	1	30
359.008	1	25
359.179	1	30
359.350	1	20
359.521	1	42
359.692	1	34
359.863	1	29
360.034	1	31
360.205	1	62
360.376	1	45
360.547	1	51
360.718	1	59
360.889	1	54
361.060	1	62
361.231	1	63
361.401	1	58
361.572	1	71
361.743	1	57
361.914	1	70
362.085	1	72
362.256	1	75
362.427	1	87
362.598	1	91
362.769	1	103
362.940	1	100
363.111	1	91
363.282	1	101
363.453	1	118
363.624	1	122
363.795	1	113
363.966	1	131
364.137	1	145
364.308	1	143
364.478	1	157
364.649	1	177
364.820	1	191
364.991	1	184
365.162	1	204
365.333	1	199
365.504	1	205
365.675	1	239
365.846	1	229
366.017	1	259
366.188	1	261
366.359	1	278
366.530	1	286
366.701	1	288
366.871	1	295
367.042	1	297
367.213	1	314
367.384	1	310
367.555	1	328
367.726	1	333
367.897	1	324
368.068	1	325
368.239	1	320
368.410	1	340
368.581	1	342
368.752	1	324
368.923	1	298
369.093	1	328
369.264	1	329
369.435	1	309
369.606	1	296
369.777	1	299
369.948	1	284
370.119	1	289
370.290	1	282
370.461	1	271
370.632	1	250
370.803	1	235
370.973	1	224
371.144	1	231
371.315	1	230
371.486	1	223
371.657	1	206
371.828	1	212
371.999	1	180
372.170	1	202
372.341	1	189
372.512	1	179
372.682	1	165
372.853	1	179
373.024	1	158
373.195	1	163
373.366	1	164
373.537	1	149
373.708	1	148
373.879	1	146
374.050	1	145
374.220	1	144
374.391	1	135
374.562	1	137
374.733	1	126
374.904	1	117
375.075	1	116
375.246	1	113
375.417	1	118
375.588	1	107
375.758	1	112
375.929	1	97
376.100	1	107
376.271	1	102
376.442	1	109
376.613	1	103
376.784	1	87
376.955	1	98
377.125	1	85
377.296	1	88
377.467	1	92
377.638	1	84
377.809	1	72
377.980	1	71
378.151	1	71
378.321	1	73
378.492	1	66
378.663	1	74
378.834	1	73
379.005	1	66
379.176	1	69
379.347	1	57
379.518	1	55
379.688	1	71
379.859	1	54
380.030	1	62
380.201	1	54
380.372	1	65
380.543	1	52
380.714	1	63
380.884	1	61
381.055	1	41
381.226	1	57
381.397	1	44
381.568	1	52
381.739	1	32
381.910	1	53
382.080	1	47
382.251	1	48
382.422	1	59
382.593	1	48
382.764	1	52
382.935	1	42
383.105	1	52
383.276	1	45
383.447	1	45
383.618	1	48
383.789	1	38
383.960	1	53
384.130	1	44
384.301	1	38
384.472	1	38
384.643	1	43
384.814	1	53
384.985	1	31
385.156	1	46
385.326	1	44
385.497	1	60
385.668	1	40
385.839	1	48
386.010	1	42
386.180	1	45
386.351	1	39
386.522	1	49
386.693	1	39
386.864	1	15
387.035	1	36
387.205	1	49
387.376	1	32
387.547	1	32
387.718	1	24
387.889	1	27
388.060	1	39
388.230	1	35
388.401	1	40
388.572	1	30
388.743	1	23
388.914	1	42
389.084	1	50
389.255	1	34
389.426	1	24
389.597	1	31
389.768	1	31
389.939	1	42
390.109	1	31
390.280	1	29
390.451	1	39
390.622	1	20
390.793	1	32
390.963	1	32
391.134	1	36
391.305	1	33
391.476	1	24
391.647	1	28
391.817	1	26
391.988	1	22
392.159	1	14
392.330	1	19
392.501	1	27
392.671	1	24
392.842	1	21
393.013	1	39
393.184	1	20
393.355	1	41
393.525	1	18
393.696	1	24
393.867	1	36
394.038	1	17
394.208	1	31
394.379	1	31
394.550	1	25
394.721	1	29
394.892	1	35
395.062	1	15
395.233	1	30
395.404	1	36
395.575	1	30
395.746	1	21
395.916	1	25
396.087	1	21
396.258	1	37
396.429	1	34
396.599	1	22
396.770	1	29
396.941	1	29
397.112	1	16
397.283	1	28
397.453	1	26
397.624	1	16
397.795	1	22
397.966	1	27
398.136	1	23
398.307	1	20
398.478	1	25
398.649	1	12
398.819	1	18
398.990	1	30
399.161	1	27
399.332	1	19
399.503	1	30
399.673	1	16
399.844	1	23
400.015	1	8
400.186	1	24
400.356	1	24
400.527	1	37
400.698	1	28
400.869	1	23
401.039	1	16
401.210	1	17
401.381	1	24
401.552	1	22
401.722	1	27
401.893	1	19
402.064	1	22
402.235	1	17
402.405	1	15
402.576	1	23
402.747	1	33
402.918	1	4
403.088	1	18
403.259	1	9
403.430	1	20
403.601	1	21
403.771	1	7
403.942	1	17
404.113	1	15
404.284	1	28
404.454	1	15
404.625	1	7
404.796	1	19
404.967	1	24
405.137	1	25
405.308	1	10
405.479	1	17
405.649	1	14
405.820	1	7
405.991	1	20
406.162	1	12
406.332	1	17
406.503	1	20
406.674	1	17
406.845	1	26
407.015	1	23
407.186	1	-1
407.357	1	29
407.527	1	12
407.698	1	25
407.869	1	9
408.040	1	30
408.210	1	23
408.381	1	17
408.552	1	8
408.722	1	27
408.893	1	11
409.064	1	18
409.235	1	19
409.405	1	18
409.576	1	22
409.747	1	10
409.917	1	31
410.088	1	23
410.259	1	16
410.430	1	25
410.600	1	15
410.771	1	23
410.942	1	17
411.112	1	24
411.283	1	18
411.454	1	16
411.625	1	15
411.795	1	23
411.966	1	16
412.137	1	27
412.307	1	16
412.478	1	12
412.649	1	23
412.819	1	18
412.990	1	15
413.161	1	20
413.332	1	18
413.502	1	20
413.673	1	22
413.844	1	19
414.014	1	11
414.185	1	11
414.356	1	27
414.526	1	17
414.697	1	26
414.868	1	13
415.038	1	11
415.209	1	9
415.380	1	17
415.550	1	20
415.721	1	16
415.892	1	21
416.063	1	20
416.233	1	15
416.404	1	20
416.575	1	13
416.745	1	23
416.916	1	16
417.087	1	21
417.257	1	11
417.428	1	24
417.599	1	14
417.769	1	21
417.940	1	17
418.111	1	14
418.281	1	24
418.452	1	13
418.623	1	18
418.793	1	13
418.964	1	28
419.135	1	16
419.305	1	18
419.476	1	24
419.647	1	23
419.817	1	7
419.988	1	19
420.159	1	27
420.329	1	15
420.500	1	23
420.671	1	18
420.841	1	20
421.012	1	10
421.183	1	15
421.353	1	18
421.524	1	22
421.695	1	24
421.865	1	19
422.036	1	19
422.206	1	12
422.377	1	21
422.548	1	24
422.718	1	23
422.889	1	19
423.060	1	19
423.230	1	11
423.401	1	8
423.572	1	15
423.742	1	24
423.913	1	7
424.084	1	16
424.254	1	16
424.425	1	22
424.595	1	22
424.766	1	14
424.937	1	19
425.107	1	18
425.278	1	17
425.449	1	23
425.619	1	20
425.790	1	12
425.961	1	18
426.131	1	15
426.302	1	15
426.472	1	13
426.643	1	11
426.814	1	21
426.984	1	17
427.155	1	15
427.326	1	24
427.496	1	19
427.667	1	26
427.837	1	11
428.008	1	18
428.179	1	34
428.349	1	17
428.520	1	21
428.691	1	19
428.861	1	29
429.032	1	17
429.202	1	6
429.373	1	28
429.544	1	11
429.714	1	16
429.885	1	33
430.055	1	21
430.226	1	10
430.397	1	12
430.567	1	-4
430.738	1	19
430.909	1	6
431.079	1	13
431.250	1	24
431.420	1	18
431.591	1	21
431.762	1	12
431.932	1	12
432.103	1	18
432.273	1	18
432.444	1	16
432.615	1	14
432.785	1	12
432.956	1	17
433.126	1	15
433.297	1	16
433.468	1	10
433.638	1	17
433.809	1	13
433.979	1	15
434.150	1	16
434.320	1	19
434.491	1	24
434.662	1	20
434.832	1	10
435.003	1	19
435.173	1	17
435.344	1	9
435.515	1	17
435.685	1	12
435.856	1	16
436.026	1	19
436.197	1	5
436.368	1	10
436.538	1	6
436.709	1	9
436.879	1	15
437.050	1	14
437.220	1	28
437.391	1	16
437.562	1	27
437.732	1	20
437.903	1	18
438.073	1	11
438.244	1	24
438.414	1	14
438.585	1	14
438.756	1	9
438.926	1	18
439.097	1	20
439.267	1	7
439.438	1	11
439.608	1	2
439.779	1	19
439.949	1	18
440.120	1	8
440.291	1	18
440.461	1	9
440.632	1	7
440.802	1	16
440.973	1	17
441.143	1	6
441.314	1	15
441.485	1	4
441.655	1	28
441.826	1	18
441.996	1	13
442.167	1	18
442.337	1	7
442.508	1	15
442.678	1	12
442.849	1	14
443.019	1	12
443.190	1	18
443.361	1	23
443.531	1	12
443.702	1	29
443.872	1	10
444.043	1	26
444.213	1	9
444.384	1	17
444.554	1	15
444.725	1	24
444.895	1	13
445.066	1	9
445.237	1	11
445.407	1	14
445.578	1	7
445.748	1	13
445.919	1	16
446.089	1	16
446.260	1	18
446.430	1	20
446.601	1	14
446.771	1	11
446.942	1	6
447.112	1	9
447.283	1	17
447.453	1	2
447.624	1	0
447.794	1	16
447.965	1	17
448.135	1	9
448.306	1	19
448.477	1	20
448.647	1	12
448.818	1	16
448.988	1	19
449.159	1	6
449.329	1	14
449.500	1	10
449.670	1	13
449.841	1	23
450.011	1	8
450.182	1	19
450.352	1	0
450.523	1	6
450.693	1	22
450.864	1	7
451.034	1	13
451.205	1	7
451.375	1	11
451.546	1	10
451.716	1	12
451.887	1	21
452.057	1	18
452.228	1	16
452.398	1	23
452.569	1	7
452.739	1	11
452.910	1	3
453.080	1	19
453.251	1	10
453.421	1	15
453.592	1	8
453.762	1	19
453.933	1	4
454.103	1	12
454.274	1	5
454.444	1	18
454.615	1	11
454.785	1	10
454.956	1	20
455.126	1	17
455.297	1	12
455.467	1	13
455.638	1	7
455.808	1	23
455.979	1	15
456.149	1	8
456.320	1	12
456.490	1	5
456.661	1	13
456.831	1	13
457.001	1	22
457.172	1	8
457.342	1	4
457.513	1	18
457.683	1	17
457.854	1	12
458.024	1	13
458.195	1	11
458.365	1	13
458.536	1	13
458.706	1	26
458.877	1	7
459.047	1	6
459.218	1	7
459.388	1	11
459.559	1	17
459.729	1	12
459.899	1	9
460.070	1	19
460.240	1	5
460.411	1	21
460.581	1	5
460.752	1	2
460.922	1	19
461.093	1	21
461.263	1	25
461.434	1	-2
461.604	1	8
461.775	1	15
461.945	1	8
462.115	1	10
462.286	1	15
462.456	1	7
462.627	1	7
462.797	1	8
462.968	1	16
463.138	1	12
463.309	1	11
463.479	1	11
463.649	1	8
463.820	1	20
463.990	1	14
464.161	1	6
464.331	1	8
464.502	1	13
464.672	1	5
464.843	1	25
465.013	1	13
465.183	1	12
465.354	1	19
465.524	1	18
465.695	1	14
465.865	1	13
466.036	1	22
466.206	1	9
466.376	1	20
466.547	1	15
466.717	1	11
466.888	1	12
467.058	1	19
467.229	1	14
467.399	1	8
467.569	1	14
467.740	1	19
467.910	1	22
468.081	1	4
468.251	1	-2
468.422	1	10
468.592	1	16
468.762	1	16
468.933	1	13
469.103	1	14
469.274	1	5
469.444	1	9
469.614	1	2
469.785	1	8
469.955	1	1
470.126	1	11
470.296	1	13
470.467	1	10
470.637	1	11
470.807	1	13
470.978	1	4
471.148	1	0
471.319	1	2
471.489	1	19
471.659	1	9
471.830	1	10
472.000	1	0
472.171	1	19
472.341	1	11
472.511	1	17
472.682	1	25
472.852	1	11
473.023	1	23
473.193	1	13
473.363	1	8
473.534	1	10
473.704	1	13
473.875	1	11
474.045	1	10
474.215	1	14
474.386	1	14
474.556	1	9
474.727	1	6
474.897	1	9
475.067	1	14
475.238	1	16
475.408	1	16
475.578	1	9
475.749	1	6
475.919	1	14
476.090	1	10
476.260	1	6
476.430	1	-7
476.601	1	8
476.771	1	16
476.942	1	10
477.112	1	15
477.282	1	6
477.453	1	13
477.623	1	5
477.793	1	14
477.964	1	19
478.134	1	15
478.305	1	19
478.475	1	12
478.645	1	19
478.816	1	12
478.986	1	15
479.156	1	15
479.327	1	17
479.497	1	10
479.667	1	13
479.838	1	20
480.008	1	13
480.179	1	17
480.349	1	11
480.519	1	0
480.690	1	19
480.860	1	11
481.030	1	7
481.201	1	14
481.371	1	13
481.541	1	12
481.712	1	24
481.882	1	6
482.053	1	22
482.223	1	21
482.393	1	11
482.564	1	22
482.734	1	15
482.904	1	7
483.075	1	23
483.245	1	18
483.415	1	24
483.586	1	11
483.756	1	16
483.926	1	10
484.097	1	25
484.267	1	15
484.437	1	21
484.608	1	15
484.778	1	3
484.948	1	13
485.119	1	18
485.289	1	9
485.459	1	22
485.630	1	20
485.800	1	12
485.970	1	27
486.141	1	20
486.311	1	28
486.481	1	11
486.652	1	8
486.822	1	33
486.992	1	25
487.163	1	17
487.333	1	24
487.503	1	20
487.674	1	15
487.844	1	21
488.014	1	19
488.185	1	23
488.355	1	21
488.525	1	21
488.696	1	28
488.866	1	16
489.036	1	34
489.207	1	34
489.377	1	24
489.547	1	32
489.718	1	18
489.888	1	33
490.058	1	28
490.228	1	25
490.399	1	31
490.569	1	15
490.739	1	23
490.910	1	26
491.080	1	27
491.250	1	30
491.421	1	30
491.591	1	31
491.761	1	26
491.932	1	36
492.102	1	21
492.272	1	26
492.442	1	30
492.613	1	24
492.783	1	37
492.953	1	28
493.124	1	39
493.294	1	23
493.464	1	27
493.635	1	24
493.805	1	43
493.975	1	45
494.145	1	25
494.316	1	26
494.486	1	37
494.656	1	44
494.827	1	30
494.997	1	31
495.167	1	33
495.337	1	30
495.508	1	33
495.678	1	29
495.848	1	29
496.019	1	31
496.189	1	38
496.359	1	42
496.529	1	23
496.700	1	26
496.870	1	41
497.040	1	36
497.211	1	34
497.381	1	39
497.551	1	32
497.721	1	23
497.892	1	36
498.062	1	37
498.232	1	52
498.403	1	43
498.573	1	32
498.743	1	43
498.913	1	42
499.084	1	51
499.254	1	20
499.424	1	33
499.594	1	40
499.765	1	45
499.935	1	54
500.105	1	50
500.275	1	33
500.446	1	33
500.616	1	43
500.786	1	39
500.956	1	55
501.127	1	50
501.297	1	42
501.467	1	43
501.638	1	53
501.808	1	53
501.978	1	36
502.148	1	45
502.319	1	52
502.489	1	49
502.659	1	54
502.829	1	41
503.000	1	50
503.170	1	55
503.340	1	44
503.510	1	56
503.681	1	44
503.851	1	58
504.021	1	47
504.191	1	54
504.362	1	45
504.532	1	62
504.702	1	40
504.872	1	51
505.042	1	47
505.213	1	50
505.383	1	57
505.553	1	57
505.723	1	51
505.894	1	51
506.064	1	54
506.234	1	58
506.404	1	63
506.575	1	59
506.745	1	45
506.915	1	63
507.085	1	56
507.256	1	53
507.426	1	54
507.596	1	58
507.766	1	56
507.936	1	52
508.107	1	44
508.277	1	67
508.447	1	57
508.617	1	62
508.788	1	56
508.958	1	56
509.128	1	54
509.298	1	47
509.468	1	57
509.639	1	50
509.809	1	53
509.979	1	58
510.149	1	52
510.319	1	57
510.490	1	56
510.660	1	54
510.830	1	41
511.000	1	60
511.171	1	59
511.341	1	62
511.511	1	62
511.681	1	65
511.851	1	71
512.022	1	51
512.192	1	65
512.362	1	67
512.532	1	64
512.702	1	46
512.873	1	55
513.043	1	64
513.213	1	61
513.383	1	62
513.553	1	67
513.724	1	60
513.894	1	55
514.064	1	68
514.234	1	64
514.404	1	65
514.575	1	67
514.745	1	68
514.915	1	61
515.085	1	68
515.255	1	63
515.425	1	78
515.596	1	67
515.766	1	65
515.936	1	71
516.106	1	59
516.276	1	66
516.447	1	73
516.617	1	75
516.787	1	64
516.957	1	66
517.127	1	78
517.297	1	58
517.468	1	81
517.638	1	66
517.808	1	63
517.978	1	68
518.148	1	79
518.319	1	58
518.489	1	73
518.659	1	72
518.829	1	74
518.999	1	74
519.169	1	71
519.340	1	69
519.510	1	62
519.680	1	74
519.850	1	74
520.020	1	74
520.190	1	61
520.361	1	81
520.531	1	64
520.701	1	74
520.871	1	71
521.041	1	82
521.211	1	74
521.382	1	74
521.552	1	77
521.722	1	62
521.892	1	78
522.062	1	72
522.232	1	77
522.402	1	77
522.573	1	65
522.743	1	89
522.913	1	66
523.083	1	70
523.253	1	81
523.423	1	72
523.593	1	81
523.764	1	74
523.934	1	65
524.104	1	74
524.274	1	69
524.444	1	80
524.614	1	70
524.784	1	68
524.955	1	69
525.125	1	71
525.295	1	84
525.465	1	84
525.635	1	85
525.805	1	79
525.975	1	55
526.146	1	72
526.316	1	68
526.486	1	81
526.656	1	72
526.826	1	75
526.996	1	72
527.166	1	69
527.337	1	86
527.507	1	78
527.677	1	80
527.847	1	67
528.017	1	64
528.187	1	89
528.357	1	82
528.527	1	70
528.698	1	92
528.868	1	75
529.038	1	81
529.208	1	85
529.378	1	79
529.548	1	91
529.718	1	76
529.888	1	82
530.058	1	82
530.229	1	76
530.399	1	75
530.569	1	78
530.739	1	88
530.909	1	88
531.079	1	89
531.249	1	66
531.419	1	76
531.589	1	71
531.760	1	87
531.930	1	71
532.100	1	87
532.270	1	79
532.440	1	78
532.610	1	79
532.780	1	77
532.950	1	84
533.120	1	77
533.290	1	76
533.461	1	78
533.631	1	81
533.801	1	78
533.971	1	67
534.141	1	82
534.311	1	70
534.481	1	92
534.651	1	71
534.821	1	73
534.991	1	74
535.162	1	72
535.332	1	79
535.502	1	69
535.672	1	72
535.842	1	67
536.012	1	76
536.182	1	79
536.352	1	83
536.522	1	75
536.692	1	71
536.862	1	75
537.032	1	75
537.203	1	69
537.373	1	69
537.543	1	74
537.713	1	71
537.883	1	67
538.053	1	74
538.223	1	78
538.393	1	70
538.563	1	60
538.733	1	69
538.903	1	64
539.073	1	70
539.243	1	80
539.413	1	56
539.584	1	66
539.754	1	61
539.924	1	62
540.094	1	68
540.264	1	78
540.434	1	70
540.604	1	84
540.774	1	68
540.944	1	70
541.114	1	82
541.284	1	62
541.454	1	66
541.624	1	64
541.794	1	67
541.964	1	65
542.134	1	72
542.305	1	76
542.475	1	73
542.645	1	63
542.815	1	62
542.985	1	67
543.155	1	73
543.325	1	78
543.495	1	71
543.665	1	53
543.835	1	64
544.005	1	64
544.175	1	71
544.345	1	68
544.515	1	71
544.685	1	59
544.855	1	67
545.025	1	73
545.195	1	64
545.365	1	84
545.535	1	66
545.705	1	69
545.875	1	68
546.045	1	69
546.216	1	61
546.386	1	64
546.556	1	69
546.726	1	57
546.896	1	67
547.066	1	68
547.236	1	73
547.406	1	65
547.576	1	68
547.746	1	69
547.916	1	75
548.086	1	64
548.256	1	59
548.426	1	65
548.596	1	74
548.766	1	69
548.936	1	67
549.106	1	58
549.276	1	68
549.446	1	76
549.616	1	60
549.786	1	66
549.956	1	57
550.126	1	72
550.296	1	66
550.466	1	65
550.636	1	54
550.806	1	71
550.976	1	63
551.146	1	65
551.316	1	75
551.486	1	62
551.656	1	55
551.826	1	58
551.996	1	59
552.166	1	54
552.336	1	60
552.506	1	63
552.676	1	64
552.846	1	66
553.016	1	60
553.186	1	50
553.356	1	52
553.526	1	58
553.696	1	53
553.866	1	57
554.036	1	68
554.206	1	67
554.376	1	69
554.546	1	71
554.716	1	56
554.886	1	57
555.056	1	50
555.226	1	47
555.396	1	63
555.566	1	53
555.736	1	53
555.906	1	54
556.076	1	50
556.246	1	55
556.416	1	57
556.586	1	59
556.756	1	45
556.926	1	50
557.096	1	53
557.266	1	58
557.436	1	59
557.606	1	48
557.776	1	57
557.946	1	65
558.116	1	51
558.286	1	46
558.456	1	47
558.626	1	46
558.796	1	55
558.966	1	43
559.136	1	52
559.306	1	60
559.476	1	46
559.646	1	58
559.816	1	48
559.986	1	52
560.155	1	59
560.325	1	52
560.495	1	54
560.665	1	52
560.835	1	48
561.005	1	52
561.175	1	43
561.345	1	45
561.515	1	50
561.685	1	58
561.855	1	50
562.025	1	48
562.195	1	38
562.365	1	41
562.535	1	52
562.705	1	53
562.875	1	44
563.045	1	47
563.215	1	42
563.385	1	47
563.555	1	46
563.725	1	46
563.895	1	52
564.064	1	52
564.234	1	39
564.404	1	41
564.574	1	45
564.744	1	57
564.914	1	52
565.084	1	49
565.254	1	47
565.424	1	34
565.594	1	46
565.764	1	55
565.934	1	53
566.104	1	56
566.274	1	42
566.444	1	56
566.614	1	47
566.783	1	43
566.953	1	53
567.123	1	39
567.293	1	30
567.463	1	52
567.633	1	38
567.803	1	47
567.973	1	36
568.143	1	43
568.313	1	46
568.483	1	44
568.653	1	39
568.823	1	42
568.993	1	44
569.162	1	34
569.332	1	46
569.502	1	39
569.672	1	59
569.842	1	42
570.012	1	26
570.182	1	38
570.352	1	47
570.522	1	36
570.692	1	36
570.862	1	28
571.031	1	48
571.201	1	49
571.371	1	21
571.541	1	36
571.711	1	46
571.881	1	31
572.051	1	51
572.221	1	46
572.391	1	49
572.561	1	50
572.731	1	36
572.900	1	51
573.070	1	41
573.240	1	29
573.410	1	47
573.580	1	44
573.750	1	38
573.920	1	34
574.090	1	43
574.260	1	33
574.430	1	41
574.599	1	38
574.769	1	31
574.939	1	35
575.109	1	40
575.279	1	40
575.449	1	40
575.619	1	42
575.789	1	32
575.959	1	29
576.128	1	31
576.298	1	28
576.468	1	26
576.638	1	42
576.808	1	29
576.978	1	39
577.148	1	13
577.318	1	44
577.487	1	26
577.657	1	27
577.827	1	34
577.997	1	33
578.167	1	49
578.337	1	29
578.507	1	36
578.677	1	32
578.846	1	28
579.016	1	35
579.186	1	38
579.356	1	37
579.526	1	21
579.696	1	24
579.866	1	33
580.036	1	36
580.205	1	29
580.375	1	37
580.545	1	33
580.715	1	37
580.885	1	28
581.055	1	33
581.225	1	25
581.394	1	34
581.564	1	32
581.734	1	25
581.904	1	30
582.074	1	22
582.244	1	28
582.414	1	38
582.583	1	24
582.753	1	39
582.923	1	19
583.093	1	29
583.263	1	37
583.433	1	34
583.603	1	33
583.772	1	31
583.942	1	21
584.112	1	36
584.282	1	36
584.452	1	33
584.622	1	29
584.791	1	33
584.961	1	25
585.131	1	34
585.301	1	29
585.471	1	26
585.641	1	39
585.811	1	25
585.980	1	21
586.150	1	42
586.320	1	22
586.490	1	18
586.660	1	18
586.830	1	30
586.999	1	30
587.169	1	33
587.339	1	30
587.509	1	31
587.679	1	31
587.849	1	30
588.018	1	21
588.188	1	35
588.358	1	40
588.528	1	16
588.698	1	27
588.867	1	32
589.037	1	22
589.207	1	36
589.377	1	29
589.547	1	25
589.717	1	26
589.886	1	31
590.056	1	20
590.226	1	10
590.396	1	24
590.566	1	26
590.735	1	23
590.905	1	16
591.075	1	30
591.245	1	5
591.415	1	23
591.585	1	17
591.754	1	22
591.924	1	22
592.094	1	12
592.264	1	16
592.434	1	22
592.603	1	2
592.773	1	18
592.943	1	27
593.113	1	22
593.283	1	25
593.452	1	30
593.622	1	11
593.792	1	19
593.962	1	37
594.132	1	26
594.301	1	11
594.471	1	17
594.641	1	18
594.811	1	16
594.981	1	24
595.150	1	6
595.320	1	28
595.490	1	13
595.660	1	18
595.829	1	13
595.999	1	29
596.169	1	15
596.339	1	17
596.509	1	24
596.678	1	7
596.848	1	18
597.018	1	13
597.188	1	25
597.358	1	23
597.527	1	23
597.697	1	22
597.867	1	14
598.037	1	14
598.206	1	22
598.376	1	20
598.546	1	21
598.716	1	21
598.885	1	28
599.055	1	24
599.225	1	19
599.395	1	14
599.565	1	19
599.734	1	24
599.904	1	18
600.074	1	12
600.244	1	15
600.413	1	20
600.583	1	28
600.753	1	26
600.923	1	30
601.092	1	12
601.262	1	5
601.432	1	21
601.602	1	35
601.771	1	17
601.941	1	21
602.111	1	23
602.281	1	27
602.451	1	18
602.620	1	23
602.790	1	28
602.960	1	5
603.130	1	22
603.299	1	20
603.469	1	17
603.639	1	29
603.809	1	19
603.978	1	15
604.148	1	13
604.318	1	19
604.487	1	16
604.657	1	15
604.827	1	27
604.997	1	23
605.166	1	25
605.336	1	19
605.506	1	8
605.676	1	17
605.845	1	20
606.015	1	19
606.185	1	10
606.355	1	3
606.524	1	8
606.694	1	25
606.864	1	33
607.034	1	14
607.203	1	20
607.373	1	23
607.543	1	15
607.712	1	11
607.882	1	19
608.052	1	14
608.222	1	20
608.391	1	12
608.561	1	19
608.731	1	7
608.901	1	24
609.070	1	18
609.240	1	19
609.410	1	19
609.579	1	9
609.749	1	12
609.919	1	7
610.089	1	25
610.258	1	27
610.428	1	17
610.598	1	4
610.767	1	23
610.937	1	16
611.107	1	20
611.277	1	17
611.446	1	21
611.616	1	30
611.786	1	14
611.955	1	9
612.125	1	12
612.295	1	22
612.465	1	9
612.634	1	19
612.804	1	7
612.974	1	13
613.143	1	-1
613.313	1	12
613.483	1	17
613.652	1	22
613.822	1	16
613.992	1	13
614.162	1	24
614.331	1	20
614.501	1	9
614.671	1	15
614.840	1	18
615.010	1	13
615.180	1	5
615.349	1	12
615.519	1	12
615.689	1	12
615.858	1	10
616.028	1	28
616.198	1	20
616.368	1	24
616.537	1	10
616.707	1	18
616.877	1	7
617.046	1	12
617.216	1	9
617.386	1	18
617.555	1	14
617.725	1	6
617.895	1	23
618.064	1	8
618.234	1	7
618.404	1	11
618.573	1	17
618.743	1	20
618.913	1	8
619.082	1	19
619.252	1	3
619.422	1	20
619.591	1	13
619.761	1	18
619.931	1	12
620.100	1	19
620.270	1	12
620.440	1	21
620.609	1	7
620.779	1	13
620.949	1	13
621.118	1	26
621.288	1	8
621.458	1	15
621.627	1	21
621.797	1	14
621.967	1	12
622.136	1	9
622.306	1	4
622.476	1	17
622.645	1	20
622.815	1	17
622.985	1	4
623.154	1	6
623.324	1	17
623.494	1	6
623.663	1	15
623.833	1	16
624.002	1	19
624.172	1	12
624.342	1	12
624.511	1	-1
624.681	1	17
624.851	1	13
625.020	1	11
625.190	1	13
625.360	1	18
625.529	1	7
625.699	1	20
625.869	1	15
626.038	1	17
626.208	1	11
626.377	1	15
626.547	1	10
626.717	1	13
626.886	1	9
627.056	1	13
627.226	1	17
627.395	1	11
627.565	1	15
627.735	1	17
627.904	1	17
628.074	1	11
628.243	1	16
628.413	1	5
628.583	1	16
628.752	1	8
628.922	1	15
629.091	1	11
629.261	1	14
629.431	1	15
629.600	1	10
629.770	1	10
629.940	1	10
630.109	1	-5
630.279	1	11
630.448	1	15
630.618	1	21
630.788	1	17
630.957	1	23
631.127	1	10
631.297	1	17
631.466	1	9
631.636	1	19
631.805	1	20
631.975	1	9
632.145	1	19
632.314	1	8
632.484	1	21
632.653	1	5
632.823	1	0
632.993	1	9
633.162	1	2
633.332	1	6
633.501	1	6
633.671	1	19
633.841	1	11
634.010	1	7
634.180	1	12
634.349	1	25
634.519	1	4
634.689	1	8
634.858	1	13
635.028	1	7
635.197	1	3
635.367	1	20
635.537	1	13
635.706	1	9
635.876	1	19
636.045	1	13
636.215	1	6
636.384	1	17
636.554	1	12
636.724	1	18
636.893	1	13
637.063	1	7
637.232	1	16
637.402	1	7
637.572	1	19
637.741	1	-1
637.911	1	11
638.080	1	6
638.250	1	14
638.419	1	5
638.589	1	20
638.759	1	16
638.928	1	9
639.098	1	12
639.267	1	13
639.437	1	15
639.606	1	19
639.776	1	4
639.946	1	15
640.115	1	0
640.285	1	14
640.454	1	6
640.624	1	16
640.793	1	9
640.963	1	22
641.132	1	10
641.302	1	20
641.472	1	27
641.641	1	11
641.811	1	9
641.980	1	11
642.150	1	13
642.319	1	28
642.489	1	13
642.659	1	14
642.828	1	24
642.998	1	15
643.167	1	17
643.337	1	10
643.506	1	17
643.676	1	13
643.845	1	11
644.015	1	14
644.184	1	20
644.354	1	15
644.524	1	8
644.693	1	16
644.863	1	6
645.032	1	7
645.202	1	9
645.371	1	11
645.541	1	6
645.710	1	21
645.880	1	13
646.049	1	11
646.219	1	11
646.388	1	4
646.558	1	7
646.728	1	23
646.897	1	-1
647.067	1	18
647.236	1	1
647.406	1	15
647.575	1	15
647.745	1	12
647.914	1	14
648.084	1	9
648.253	1	17
648.423	1	16
648.592	1	12
648.762	1	13
648.931	1	17
649.101	1	-3
649.270	1	20
649.440	1	14
649.610	1	12
649.779	1	22
649.949	1	2
650.118	1	10
650.288	1	32
650.457	1	19
650.627	1	8
650.796	1	21
650.966	1	7
651.135	1	8
651.305	1	7
651.474	1	7
651.644	1	18
651.813	1	11
651.983	1	1
652.152	1	11
652.322	1	10
652.491	1	8
652.661	1	18
652.830	1	16
653.000	1	12
653.169	1	2
653.339	1	6
653.508	1	0
653.678	1	14
653.847	1	17
654.017	1	13
654.186	1	14
654.356	1	10
654.525	1	13
654.695	1	25
654.864	1	11
655.034	1	3
655.203	1	14
655.373	1	10
655.542	1	9
655.712	1	15
655.881	1	11
656.051	1	3
656.220	1	9
656.390	1	8
656.559	1	16
656.729	1	18
656.898	1	7
657.068	1	5
657.237	1	11
657.406	1	6
657.576	1	15
657.745	1	11
657.915	1	14
658.084	1	15
658.254	1	17
658.423	1	19
658.593	1	13
658.762	1	9
658.932	1	12
659.101	1	0
659.271	1	7
659.440	1	7
659.610	1	15
659.779	1	17
659.949	1	10
660.118	1	18
660.288	1	0
660.457	1	12
660.626	1	4
660.796	1	20
660.965	1	3
661.135	1	6
661.304	1	11
661.474	1	12
661.643	1	8
661.813	1	12
661.982	1	5
662.152	1	7
662.321	1	1
662.491	1	-7
662.660	1	14
662.829	1	12
662.999	1	11
663.168	1	3
663.338	1	9
663.507	1	20
663.677	1	16
663.846	1	7
664.016	1	-1
664.185	1	5
664.354	1	3
664.524	1	12
664.693	1	15
664.863	1	2
665.032	1	11
665.202	1	16
665.371	1	24
665.541	1	12
665.710	1	16
665.879	1	10
666.049	1	18
666.218	1	19
666.388	1	8
666.557	1	10
666.727	1	13
666.896	1	7
667.065	1	22
667.235	1	7
667.404	1	3
667.574	1	13
667.743	1	5
667.913	1	14
668.082	1	14
668.251	1	-2
668.421	1	17
668.590	1	8
668.760	1	3
668.929	1	7
669.099	1	10
669.268	1	10
669.437	1	4
669.607	1	1
669.776	1	15
669.946	1	11
670.115	1	5
670.285	1	12
670.454	1	17
670.623	1	11
670.793	1	5
670.962	1	-1
671.132	1	12
671.301	1	10
671.470	1	10
671.640	1	15
671.809	1	17
671.979	1	1
672.148	1	16
672.317	1	15
672.487	1	11
672.656	1	18
672.826	1	10
672.995	1	17
673.164	1	8
673.334	1	9
673.503	1	12
673.673	1	10
673.842	1	9
674.011	1	11
674.181	1	23
674.350	1	1
674.520	1	8
674.689	1	13
674.858	1	7
675.028	1	9
675.197	1	16
675.367	1	15
675.536	1	6
675.705	1	3
675.875	1	14
676.044	1	8
676.214	1	16
676.383	1	9
676.552	1	5
676.722	1	9
676.891	1	12
677.060	1	4
677.230	1	6
677.399	1	17
677.569	1	20
677.738	1	6
677.907	1	22
678.077	1	8
678.246	1	21
678.416	1	1
678.585	1	9
678.754	1	5
678.924	1	4
679.093	1	20
679.262	1	6
679.432	1	6
679.601	1	17
679.771	1	4
679.940	1	7
680.109	1	17
680.279	1	9
680.448	1	14
680.617	1	15
680.787	1	-3
680.956	1	16
681.125	1	4
681.295	1	6
681.464	1	10
681.634	1	7
681.803	1	5
681.972	1	6
682.142	1	5
682.311	1	17
682.480	1	0
682.650	1	4
682.819	1	16
682.988	1	14
683.158	1	7
683.327	1	13
683.496	1	4
683.666	1	17
683.835	1	23
684.004	1	-2
684.174	1	10
684.343	1	5
684.512	1	6
684.682	1	13
684.851	1	9
685.021	1	13
685.190	1	11
685.359	1	17
685.529	1	8
685.698	1	8
685.867	1	4
686.037	1	11
686.206	1	1
686.375	1	9
686.545	1	8
686.714	1	11
686.883	1	14
687.053	1	27
687.222	1	6
687.391	1	6
687.561	1	7
687.730	1	23
687.899	1	13
688.069	1	13
688.238	1	14
688.407	1	19
688.577	1	19
688.746	1	8
