340.368	1	5
340.539	1	3
340.710	1	1
340.881	1	5
341.052	1	12
341.223	1	5
341.394	1	-1
341.565	1	21
341.737	1	11
341.908	1	11
342.079	1	7
342.250	1	5
342.421	1	9
342.592	1	10
342.763	1	11
342.934	1	9
343.105	1	14
343.276	1	-2
343.447	1	5
343.618	1	19
343.789	1	-2
343.960	1	5
344.131	1	-9
344.302	1	8
344.473	1	-1
344.644	1	10
344.815	1	8
344.986	1	1
345.157	1	13
345.328	1	4
345.499	1	-4
345.670	1	0
345.841	1	6
346.012	1	5
346.183	1	9
346.354	1	0
346.526	1	1
346.697	1	13
346.868	1	2
347.039	1	21
347.210	1	9
347.381	1	12
347.552	1	20
347.723	1	9
347.894	1	-2
348.065	1	5
348.236	1	0
348.407	1	3
348.578	1	10
348.749	1	13
348.920	1	6
349.091	1	6
349.262	1	8
349.433	1	4
349.604	1	8
349.775	1	5
349.946	1	12
350.117	1	3
350.288	1	4
350.459	1	13
350.630	1	8
350.801	1	6
350.972	1	-1
351.143	1	18
351.314	1	4
351.485	1	11
351.656	1	11
351.827	1	17
351.998	1	5
352.169	1	12
352.340	1	10
352.511	1	-1
352.682	1	-2
352.853	1	2
353.024	1	24
353.195	1	4
353.366	1	8
353.537	1	4
353.708	1	12
353.879	1	9
354.050	1	1
354.221	1	8
354.392	1	0
354.563	1	22
354.734	1	12
354.905	1	6
355.076	1	16
355.247	1	6
355.418	1	6
355.589	1	9
355.760	1	11
355.931	1	20
356.102	1	11
356.273	1	17
356.444	1	15
356.615	1	14
356.785	1	16
356.956	1	18
357.127	1	15
357.298	1	6
357.469	1	14
357.640	1	18
357.811	1	14
357.982	1	12
358.153	1	4
358.324	1	14
358.495	1	16
358.666	1	10
358.837	1	27
359.008	1	11
359.179	1	19
359.350	1	23
359.521	1	27
359.692	1	11
359.863	1	22
360.034	1	11
360.205	1	21
360.376	1	22
360.547	1	27
360.718	1	15
360.889	1	37
361.060	1	30
361.231	1	30
361.401	1	31
361.572	1	17
361.743	1	21
361.914	1	27
362.085	1	21
362.256	1	35
362.427	1	29
362.598	1	30
362.769	1	38
362.940	1	44
363.111	1	31
363.282	1	39
363.453	1	45
363.624	1	44
363.795	1	37
363.966	1	40
364.137	1	52
364.308	1	56
364.478	1	62
364.649	1	61
364.820	1	59
364.991	1	66
365.162	1	66
365.333	1	61
365.504	1	66
365.675	1	83
365.846	1	63
366.017	1	74
366.188	1	74
366.359	1	72
366.530	1	79
366.701	1	81
366.871	1	74
367.042	1	85
367.213	1	94
367.384	1	82
367.555	1	91
367.726	1	92
367.897	1	74
368.068	1	96
368.239	1	93
368.410	1	89
368.581	1	90
368.752	1	93
368.923	1	81
369.093	1	97
369.264	1	101
369.435	1	90
369.606	1	74
369.777	1	90
369.948	1	77
370.119	1	85
370.290	1	81
370.461	1	82
370.632	1	67
370.803	1	75
370.973	1	70
371.144	1	71
371.315	1	82
371.486	1	75
371.657	1	67
371.828	1	62
371.999	1	49
372.170	1	55
372.341	1	58
372.512	1	53
372.682	1	61
372.853	1	65
373.024	1	63
373.195	1	56
373.366	1	52
373.537	1	50
373.708	1	50
373.879	1	48
374.050	1	55
374.220	1	59
374.391	1	42
374.562	1	54
374.733	1	48
374.904	1	58
375.075	1	32
375.246	1	40
375.417	1	38
375.588	1	34
375.758	1	46
375.929	1	33
376.100	1	33
376.271	1	49
376.442	1	37
376.613	1	41
376.784	1	42
376.955	1	30
377.125	1	22
377.296	1	44
377.467	1	41
377.638	1	30
377.809	1	20
377.980	1	36
378.151	1	28
378.321	1	36
378.492	1	23
378.663	1	26
378.834	1	33
379.005	1	30
379.176	1	33
379.347	1	23
379.518	1	22
379.688	1	37
379.859	1	20
380.030	1	33
380.201	1	26
380.372	1	26
380.543	1	21
380.714	1	19
380.884	1	20
381.055	1	19
381.226	1	15
381.397	1	27
381.568	1	18
381.739	1	9
381.910	1	35
382.080	1	16
382.251	1	14
382.422	1	31
382.593	1	23
382.764	1	7
382.935	1	23
383.105	1	16
383.276	1	25
383.447	1	20
383.618	1	22
383.789	1	5
383.960	1	19
384.130	1	14
384.301	1	18
384.472	1	10
384.643	1	11
384.814	1	18
384.985	1	17
385.156	1	18
385.326	1	9
385.497	1	26
385.668	1	18
385.839	1	19
386.010	1	5
386.180	1	12
386.351	1	20
386.522	1	9
386.693	1	24
386.864	1	8
387.035	1	12
387.205	1	8
387.376	1	16
387.547	1	13
387.718	1	8
387.889	1	9
388.060	1	14
388.230	1	15
388.401	1	16
388.572	1	10
388.743	1	4
388.914	1	21
389.084	1	20
389.255	1	11
389.426	1	13
389.597	1	0
389.768	1	9
389.939	1	18
390.109	1	13
390.280	1	8
390.451	1	21
390.622	1	10
390.793	1	20
390.963	1	4
391.134	1	19
391.305	1	12
391.476	1	13
391.647	1	12
391.817	1	2
391.988	1	8
392.159	1	10
392.330	1	17
392.501	1	18
392.671	1	11
392.842	1	7
393.013	1	20
393.184	1	10
393.355	1	19
393.525	1	3
393.696	1	17
393.867	1	17
394.038	1	15
394.208	1	18
394.379	1	12
394.550	1	25
394.721	1	7
394.892	1	17
395.062	1	4
395.233	1	21
395.404	1	9
395.575	1	11
395.746	1	3
395.916	1	6
396.087	1	20
396.258	1	12
396.429	1	17
396.599	1	11
396.770	1	19
396.941	1	17
397.112	1	7
397.283	1	10
397.453	1	-1
397.624	1	10
397.795	1	11
397.966	1	6
398.136	1	12
398.307	1	12
398.478	1	4
398.649	1	8
398.819	1	7
398.990	1	19
399.161	1	24
399.332	1	13
399.503	1	23
399.673	1	11
399.844	1	7
400.015	1	4
400.186	1	8
400.356	1	6
400.527	1	13
400.698	1	10
400.869	1	7
401.039	1	-2
401.210	1	19
401.381	1	12
401.552	1	18
401.722	1	21
401.893	1	13
402.064	1	10
402.235	1	12
402.405	1	3
402.576	1	18
402.747	1	23
402.918	1	-1
403.088	1	4
403.259	1	16
403.430	1	13
403.601	1	21
403.771	1	-4
403.942	1	4
404.113	1	25
404.284	1	20
404.454	1	15
404.625	1	8
404.796	1	16
404.967	1	16
405.137	1	14
405.308	1	9
405.479	1	14
405.649	1	4
405.820	1	11
405.991	1	15
406.162	1	10
406.332	1	9
406.503	1	9
406.674	1	12
406.845	1	10
407.015	1	20
407.186	1	4
407.357	1	23
407.527	1	1
407.698	1	14
407.869	1	10
408.040	1	22
408.210	1	19
408.381	1	8
408.552	1	-4
408.722	1	17
408.893	1	6
409.064	1	20
409.235	1	11
409.405	1	13
409.576	1	9
409.747	1	8
409.917	1	26
410.088	1	15
410.259	1	11
410.430	1	17
410.600	1	22
410.771	1	15
410.942	1	20
411.112	1	8
411.283	1	10
411.454	1	17
411.625	1	7
411.795	1	11
411.966	1	6
412.137	1	15
412.307	1	10
412.478	1	16
412.649	1	9
412.819	1	16
412.990	1	9
413.161	1	6
413.332	1	13
413.502	1	12
413.673	1	6
413.844	1	23
414.014	1	7
414.185	1	10
414.356	1	19
414.526	1	11
414.697	1	17
414.868	1	8
415.038	1	15
415.209	1	11
415.380	1	16
415.550	1	13
415.721	1	16
415.892	1	18
416.063	1	15
416.233	1	15
416.404	1	6
416.575	1	0
416.745	1	15
416.916	1	10
417.087	1	10
417.257	1	9
417.428	1	25
417.599	1	13
417.769	1	14
417.940	1	4
418.111	1	25
418.281	1	20
418.452	1	15
418.623	1	12
418.793	1	9
418.964	1	24
419.135	1	19
419.305	1	24
419.476	1	16
419.647	1	9
419.817	1	13
419.988	1	23
420.159	1	14
420.329	1	14
420.500	1	15
420.671	1	29
420.841	1	19
421.012	1	14
421.183	1	10
421.353	1	30
421.524	1	12
421.695	1	24
421.865	1	25
422.036	1	32
422.206	1	10
422.377	1	11
422.548	1	9
422.718	1	16
422.889	1	22
423.060	1	18
423.230	1	20
423.401	1	8
423.572	1	12
423.742	1	21
423.913	1	8
424.084	1	17
424.254	1	8
424.425	1	19
424.595	1	27
424.766	1	20
424.937	1	15
425.107	1	16
425.278	1	12
425.449	1	16
425.619	1	18
425.790	1	13
425.961	1	31
426.131	1	-2
426.302	1	12
426.472	1	15
426.643	1	7
426.814	1	8
426.984	1	9
427.155	1	19
427.326	1	16
427.496	1	9
427.667	1	9
427.837	1	15
428.008	1	19
428.179	1	26
428.349	1	14
428.520	1	15
428.691	1	11
428.861	1	19
429.032	1	19
429.202	1	-5
429.373	1	15
429.544	1	20
429.714	1	25
429.885	1	17
430.055	1	17
430.226	1	-4
430.397	1	10
430.567	1	3
430.738	1	18
430.909	1	0
431.079	1	11
431.250	1	12
431.420	1	17
431.591	1	17
431.762	1	18
431.932	1	3
432.103	1	24
432.273	1	26
432.444	1	17
432.615	1	16
432.785	1	10
432.956	1	17
433.126	1	13
433.297	1	24
433.468	1	11
433.638	1	23
433.809	1	-1
433.979	1	14
434.150	1	10
434.320	1	13
434.491	1	18
434.662	1	11
434.832	1	8
435.003	1	23
435.173	1	15
435.344	1	10
435.515	1	14
435.685	1	14
435.856	1	12
436.026	1	4
436.197	1	5
436.368	1	5
436.538	1	9
436.709	1	4
436.879	1	15
437.050	1	8
437.220	1	16
437.391	1	9
437.562	1	18
437.732	1	15
437.903	1	11
438.073	1	11
438.244	1	22
438.414	1	14
438.585	1	10
438.756	1	9
438.926	1	12
439.097	1	9
439.267	1	2
439.438	1	15
439.608	1	10
439.779	1	10
439.949	1	20
440.120	1	14
440.291	1	18
440.461	1	13
440.632	1	5
440.802	1	6
440.973	1	16
441.143	1	7
441.314	1	8
441.485	1	8
441.655	1	16
441.826	1	12
441.996	1	9
442.167	1	6
442.337	1	10
442.508	1	10
442.678	1	10
442.849	1	11
443.019	1	14
443.190	1	7
443.361	1	13
443.531	1	12
443.702	1	14
443.872	1	4
444.043	1	19
444.213	1	-2
444.384	1	19
444.554	1	13
444.725	1	25
444.895	1	-3
445.066	1	14
445.237	1	21
445.407	1	8
445.578	1	-4
445.748	1	5
445.919	1	3
446.089	1	19
446.260	1	22
446.430	1	22
446.601	1	11
446.771	1	6
446.942	1	2
447.112	1	14
447.283	1	14
447.453	1	6
447.624	1	7
447.794	1	7
447.965	1	13
448.135	1	10
448.306	1	8
448.477	1	15
448.647	1	7
448.818	1	19
448.988	1	15
449.159	1	-4
449.329	1	18
449.500	1	18
449.670	1	16
449.841	1	4
450.011	1	9
450.182	1	11
450.352	1	9
450.523	1	4
450.693	1	15
450.864	1	17
451.034	1	11
451.205	1	15
451.375	1	7
451.546	1	6
451.716	1	15
451.887	1	9
452.057	1	11
452.228	1	10
452.398	1	15
452.569	1	5
452.739	1	13
452.910	1	6
453.080	1	4
453.251	1	1
453.421	1	13
453.592	1	3
453.762	1	13
453.933	1	-6
454.103	1	14
454.274	1	6
454.444	1	10
454.615	1	7
454.785	1	14
454.956	1	16
455.126	1	8
455.297	1	4
455.467	1	12
455.638	1	-2
455.808	1	15
455.979	1	9
456.149	1	5
456.320	1	14
456.490	1	-3
456.661	1	5
456.831	1	10
457.001	1	21
457.172	1	18
457.342	1	5
457.513	1	7
457.683	1	3
457.854	1	10
458.024	1	9
458.195	1	7
458.365	1	10
458.536	1	10
458.706	1	18
458.877	1	13
459.047	1	6
459.218	1	12
459.388	1	10
459.559	1	12
459.729	1	-1
459.899	1	6
460.070	1	13
460.240	1	0
460.411	1	8
460.581	1	2
460.752	1	9
460.922	1	7
461.093	1	12
461.263	1	16
461.434	1	7
461.604	1	6
461.775	1	7
461.945	1	17
462.115	1	10
462.286	1	5
462.456	1	3
462.627	1	9
462.797	1	6
462.968	1	15
463.138	1	7
463.309	1	12
463.479	1	4
463.649	1	6
463.820	1	13
463.990	1	4
464.161	1	8
464.331	1	10
464.502	1	7
464.672	1	7
464.843	1	11
465.013	1	5
465.183	1	-2
465.354	1	18
465.524	1	7
465.695	1	13
465.865	1	7
466.036	1	7
466.206	1	11
466.376	1	20
466.547	1	9
466.717	1	-4
466.888	1	4
467.058	1	10
467.229	1	14
467.399	1	3
467.569	1	2
467.740	1	19
467.910	1	9
468.081	1	14
468.251	1	-4
468.422	1	4
468.592	1	7
468.762	1	9
468.933	1	10
469.103	1	2
469.274	1	-7
469.444	1	12
469.614	1	-2
469.785	1	8
469.955	1	6
470.126	1	15
470.296	1	6
470.467	1	8
470.637	1	7
470.807	1	5
470.978	1	-2
471.148	1	11
471.319	1	8
471.489	1	9
471.659	1	9
471.830	1	5
472.000	1	-3
472.171	1	9
472.341	1	8
472.511	1	13
472.682	1	18
472.852	1	5
473.023	1	9
473.193	1	7
473.363	1	8
473.534	1	7
473.704	1	3
473.875	1	1
474.045	1	2
474.215	1	15
474.386	1	16
474.556	1	0
474.727	1	9
474.897	1	6
475.067	1	2
475.238	1	13
475.408	1	12
475.578	1	4
475.749	1	2
475.919	1	12
476.090	1	6
476.260	1	7
476.430	1	-3
476.601	1	5
476.771	1	10
476.942	1	2
477.112	1	5
477.282	1	-4
477.453	1	3
477.623	1	2
477.793	1	9
477.964	1	16
478.134	1	10
478.305	1	8
478.475	1	10
478.645	1	-1
478.816	1	6
478.986	1	8
479.156	1	4
479.327	1	9
479.497	1	1
479.667	1	7
479.838	1	12
480.008	1	11
480.179	1	13
480.349	1	-2
480.519	1	5
480.690	1	7
480.860	1	8
481.030	1	6
481.201	1	7
481.371	1	-3
481.541	1	6
481.712	1	20
481.882	1	9
482.053	1	10
482.223	1	4
482.393	1	7
482.564	1	14
482.734	1	16
482.904	1	8
483.075	1	15
483.245	1	9
483.415	1	11
483.586	1	1
483.756	1	5
483.926	1	1
484.097	1	5
484.267	1	9
484.437	1	14
484.608	1	12
484.778	1	-1
484.948	1	20
485.119	1	12
485.289	1	0
485.459	1	7
485.630	1	4
485.800	1	-8
485.970	1	5
486.141	1	16
486.311	1	15
486.481	1	-9
486.652	1	3
486.822	1	20
486.992	1	15
487.163	1	4
487.333	1	0
487.503	1	2
487.674	1	3
487.844	1	-1
488.014	1	24
488.185	1	11
488.355	1	8
488.525	1	0
488.696	1	18
488.866	1	-1
489.036	1	10
489.207	1	9
489.377	1	8
489.547	1	2
489.718	1	5
489.888	1	18
490.058	1	15
490.228	1	11
490.399	1	17
490.569	1	4
490.739	1	7
490.910	1	17
491.080	1	13
491.250	1	4
491.421	1	13
491.591	1	12
491.761	1	4
491.932	1	16
492.102	1	14
492.272	1	1
492.442	1	14
492.613	1	7
492.783	1	9
492.953	1	13
493.124	1	21
493.294	1	7
493.464	1	1
493.635	1	11
493.805	1	20
493.975	1	22
494.145	1	6
494.316	1	11
494.486	1	9
494.656	1	13
494.827	1	7
494.997	1	3
495.167	1	19
495.337	1	5
495.508	1	9
495.678	1	1
495.848	1	10
496.019	1	8
496.189	1	14
496.359	1	12
496.529	1	15
496.700	1	13
496.870	1	17
497.040	1	10
497.211	1	0
497.381	1	15
497.551	1	13
497.721	1	8
497.892	1	13
498.062	1	4
498.232	1	18
498.403	1	23
498.573	1	6
498.743	1	17
498.913	1	11
499.084	1	9
499.254	1	10
499.424	1	11
499.594	1	15
499.765	1	13
499.935	1	23
500.105	1	28
500.275	1	12
500.446	1	7
500.616	1	0
500.786	1	8
500.956	1	25
501.127	1	12
501.297	1	4
501.467	1	18
501.638	1	19
501.808	1	7
501.978	1	5
502.148	1	5
502.319	1	15
502.489	1	15
502.659	1	21
502.829	1	16
503.000	1	19
503.170	1	13
503.340	1	14
503.510	1	10
503.681	1	21
503.851	1	12
504.021	1	25
504.191	1	7
504.362	1	7
504.532	1	16
504.702	1	12
504.872	1	9
505.042	1	19
505.213	1	9
505.383	1	22
505.553	1	20
505.723	1	24
505.894	1	15
506.064	1	12
506.234	1	23
506.404	1	22
506.575	1	23
506.745	1	14
506.915	1	16
507.085	1	17
507.256	1	14
507.426	1	24
507.596	1	24
507.766	1	20
507.936	1	16
508.107	1	7
508.277	1	33
508.447	1	16
508.617	1	20
508.788	1	27
508.958	1	27
509.128	1	13
509.298	1	17
509.468	1	19
509.639	1	11
509.809	1	9
509.979	1	10
510.149	1	12
510.319	1	20
510.490	1	15
510.660	1	12
510.830	1	11
511.000	1	15
511.171	1	23
511.341	1	30
511.511	1	13
511.681	1	13
511.851	1	23
512.022	1	0
512.192	1	27
512.362	1	22
512.532	1	36
512.702	1	19
512.873	1	11
513.043	1	13
513.213	1	29
513.383	1	22
513.553	1	22
513.724	1	24
513.894	1	11
514.064	1	22
514.234	1	20
514.404	1	30
514.575	1	11
514.745	1	16
514.915	1	16
515.085	1	28
515.255	1	16
515.425	1	30
515.596	1	19
515.766	1	16
515.936	1	25
516.106	1	20
516.276	1	25
516.447	1	37
516.617	1	16
516.787	1	25
516.957	1	14
517.127	1	26
517.297	1	17
517.468	1	27
517.638	1	14
517.808	1	9
517.978	1	23
518.148	1	22
518.319	1	20
518.489	1	19
518.659	1	28
518.829	1	23
518.999	1	30
519.169	1	11
519.340	1	20
519.510	1	14
519.680	1	21
519.850	1	22
520.020	1	19
520.190	1	20
520.361	1	22
520.531	1	26
520.701	1	20
520.871	1	23
521.041	1	31
521.211	1	24
521.382	1	14
521.552	1	17
521.722	1	12
521.892	1	20
522.062	1	21
522.232	1	23
522.402	1	31
522.573	1	23
522.743	1	19
522.913	1	22
523.083	1	23
523.253	1	18
523.423	1	19
523.593	1	30
523.764	1	25
523.934	1	18
524.104	1	23
524.274	1	23
524.444	1	31
524.614	1	19
524.784	1	20
524.955	1	27
525.125	1	13
525.295	1	31
525.465	1	26
525.635	1	22
525.805	1	33
525.975	1	16
526.146	1	26
526.316	1	13
526.486	1	19
526.656	1	30
526.826	1	27
526.996	1	18
527.166	1	16
527.337	1	33
527.507	1	26
527.677	1	23
527.847	1	12
528.017	1	16
528.187	1	40
528.357	1	27
528.527	1	26
528.698	1	43
528.868	1	23
529.038	1	36
529.208	1	35
529.378	1	29
529.548	1	37
529.718	1	24
529.888	1	34
530.058	1	21
530.229	1	33
530.399	1	25
530.569	1	22
530.739	1	26
530.909	1	33
531.079	1	26
531.249	1	23
531.419	1	37
531.589	1	32
531.760	1	25
531.930	1	24
532.100	1	41
532.270	1	24
532.440	1	28
532.610	1	34
532.780	1	23
532.950	1	22
533.120	1	16
533.290	1	21
533.461	1	16
533.631	1	29
533.801	1	19
533.971	1	26
534.141	1	34
534.311	1	17
534.481	1	38
534.651	1	16
534.821	1	22
534.991	1	16
535.162	1	20
535.332	1	23
535.502	1	25
535.672	1	23
535.842	1	19
536.012	1	27
536.182	1	11
536.352	1	17
536.522	1	28
536.692	1	26
536.862	1	22
537.032	1	33
537.203	1	18
537.373	1	24
537.543	1	28
537.713	1	18
537.883	1	22
538.053	1	21
538.223	1	36
538.393	1	28
538.563	1	18
538.733	1	22
538.903	1	23
539.073	1	16
539.243	1	23
539.413	1	26
539.584	1	13
539.754	1	13
539.924	1	24
540.094	1	26
540.264	1	27
540.434	1	27
540.604	1	27
540.774	1	16
540.944	1	15
541.114	1	26
541.284	1	18
541.454	1	19
541.624	1	13
541.794	1	21
541.964	1	17
542.134	1	19
542.305	1	25
542.475	1	27
542.645	1	15
542.815	1	23
542.985	1	12
543.155	1	18
543.325	1	21
543.495	1	28
543.665	1	17
543.835	1	24
544.005	1	22
544.175	1	24
544.345	1	16
544.515	1	19
544.685	1	18
544.855	1	23
545.025	1	24
545.195	1	15
545.365	1	21
545.535	1	15
545.705	1	21
545.875	1	18
546.045	1	25
546.216	1	10
546.386	1	18
546.556	1	11
546.726	1	24
546.896	1	23
547.066	1	18
547.236	1	9
547.406	1	17
547.576	1	15
547.746	1	10
547.916	1	29
548.086	1	25
548.256	1	11
548.426	1	16
548.596	1	22
548.766	1	25
548.936	1	21
549.106	1	15
549.276	1	25
549.446	1	28
549.616	1	18
549.786	1	25
549.956	1	22
550.126	1	24
550.296	1	22
550.466	1	14
550.636	1	15
550.806	1	28
550.976	1	22
551.146	1	18
551.316	1	21
551.486	1	25
551.656	1	11
551.826	1	17
551.996	1	26
552.166	1	17
552.336	1	17
552.506	1	22
552.676	1	23
552.846	1	27
553.016	1	14
553.186	1	11
553.356	1	14
553.526	1	19
553.696	1	18
553.866	1	12
554.036	1	20
554.206	1	25
554.376	1	24
554.546	1	26
554.716	1	11
554.886	1	17
555.056	1	17
555.226	1	14
555.396	1	19
555.566	1	14
555.736	1	14
555.906	1	13
556.076	1	10
556.246	1	7
556.416	1	28
556.586	1	23
556.756	1	7
556.926	1	23
557.096	1	18
557.266	1	31
557.436	1	7
557.606	1	9
557.776	1	32
557.946	1	16
558.116	1	20
558.286	1	4
558.456	1	13
558.626	1	14
558.796	1	25
558.966	1	12
559.136	1	16
559.306	1	23
559.476	1	14
559.646	1	16
559.816	1	10
559.986	1	8
560.155	1	22
560.325	1	20
560.495	1	16
560.665	1	16
560.835	1	9
561.005	1	6
561.175	1	19
561.345	1	19
561.515	1	26
561.685	1	19
561.855	1	4
562.025	1	15
562.195	1	12
562.365	1	13
562.535	1	20
562.705	1	20
562.875	1	9
563.045	1	13
563.215	1	14
563.385	1	11
563.555	1	22
563.725	1	13
563.895	1	23
564.064	1	9
564.234	1	13
564.404	1	7
564.574	1	9
564.744	1	20
564.914	1	20
565.084	1	17
565.254	1	13
565.424	1	16
565.594	1	11
565.764	1	8
565.934	1	27
566.104	1	19
566.274	1	10
566.444	1	18
566.614	1	8
566.783	1	17
566.953	1	25
567.123	1	12
567.293	1	11
567.463	1	20
567.633	1	10
567.803	1	18
567.973	1	15
568.143	1	25
568.313	1	14
568.483	1	25
568.653	1	10
568.823	1	9
568.993	1	9
569.162	1	10
569.332	1	8
569.502	1	20
569.672	1	18
569.842	1	9
570.012	1	-7
570.182	1	18
570.352	1	17
570.522	1	7
570.692	1	12
570.862	1	3
571.031	1	20
571.201	1	17
571.371	1	11
571.541	1	13
571.711	1	8
571.881	1	10
572.051	1	18
572.221	1	15
572.391	1	11
572.561	1	22
572.731	1	4
572.900	1	19
573.070	1	11
573.240	1	4
573.410	1	20
573.580	1	11
573.750	1	13
573.920	1	21
574.090	1	9
574.260	1	7
574.430	1	4
574.599	1	21
574.769	1	9
574.939	1	9
575.109	1	15
575.279	1	5
575.449	1	10
575.619	1	14
575.789	1	11
575.959	1	11
576.128	1	5
576.298	1	7
576.468	1	9
576.638	1	22
576.808	1	5
576.978	1	16
577.148	1	4
577.318	1	19
577.487	1	0
577.657	1	8
577.827	1	1
577.997	1	13
578.167	1	16
578.337	1	14
578.507	1	6
578.677	1	13
578.846	1	4
579.016	1	11
579.186	1	16
579.356	1	14
579.526	1	3
579.696	1	15
579.866	1	9
580.036	1	11
580.205	1	7
580.375	1	12
580.545	1	24
580.715	1	8
580.885	1	14
581.055	1	10
581.225	1	15
581.394	1	8
581.564	1	-3
581.734	1	11
581.904	1	10
582.074	1	16
582.244	1	7
582.414	1	7
582.583	1	13
582.753	1	11
582.923	1	-2
583.093	1	14
583.263	1	13
583.433	1	17
583.603	1	19
583.772	1	11
583.942	1	7
584.112	1	13
584.282	1	9
584.452	1	9
584.622	1	10
584.791	1	10
584.961	1	4
585.131	1	22
585.301	1	0
585.471	1	6
585.641	1	16
585.811	1	12
585.980	1	5
586.150	1	9
586.320	1	15
586.490	1	4
586.660	1	3
586.830	1	6
586.999	1	16
587.169	1	4
587.339	1	9
587.509	1	5
587.679	1	8
587.849	1	6
588.018	1	9
588.188	1	16
588.358	1	26
588.528	1	6
588.698	1	11
588.867	1	13
589.037	1	4
589.207	1	10
589.377	1	11
589.547	1	12
589.717	1	11
589.886	1	15
590.056	1	10
590.226	1	3
590.396	1	14
590.566	1	3
590.735	1	15
590.905	1	5
591.075	1	6
591.245	1	1
591.415	1	3
591.585	1	6
591.754	1	-2
591.924	1	9
592.094	1	16
592.264	1	3
592.434	1	-6
592.603	1	2
592.773	1	9
592.943	1	3
593.113	1	2
593.283	1	7
593.452	1	13
593.622	1	1
593.792	1	6
593.962	1	6
594.132	1	7
594.301	1	1
594.471	1	4
594.641	1	12
594.811	1	6
594.981	1	2
595.150	1	4
595.320	1	16
595.490	1	11
595.660	1	11
595.829	1	6
595.999	1	-1
596.169	1	9
596.339	1	16
596.509	1	9
596.678	1	0
596.848	1	10
597.018	1	8
597.188	1	11
597.358	1	11
597.527	1	10
597.697	1	3
597.867	1	6
598.037	1	4
598.206	1	7
598.376	1	4
598.546	1	2
598.716	1	10
598.885	1	15
599.055	1	12
599.225	1	1
599.395	1	4
599.565	1	2
599.734	1	11
599.904	1	13
600.074	1	6
600.244	1	-2
600.413	1	6
600.583	1	22
600.753	1	11
600.923	1	8
601.092	1	6
601.262	1	-2
601.432	1	2
601.602	1	9
601.771	1	11
601.941	1	6
602.111	1	13
602.281	1	12
602.451	1	5
602.620	1	19
602.790	1	14
602.960	1	-4
603.130	1	6
603.299	1	17
603.469	1	8
603.639	1	22
603.809	1	16
603.978	1	5
604.148	1	9
604.318	1	12
604.487	1	-8
604.657	1	5
604.827	1	11
604.997	1	10
605.166	1	4
605.336	1	6
605.506	1	7
605.676	1	6
605.845	1	10
606.015	1	5
606.185	1	0
606.355	1	-11
606.524	1	0
606.694	1	20
606.864	1	14
607.034	1	8
607.203	1	8
607.373	1	8
607.543	1	14
607.712	1	5
607.882	1	6
608.052	1	4
608.222	1	-4
608.391	1	8
608.561	1	2
608.731	1	-4
608.901	1	15
609.070	1	14
609.240	1	7
609.410	1	3
609.579	1	11
609.749	1	13
609.919	1	-3
610.089	1	13
610.258	1	18
610.428	1	10
610.598	1	0
610.767	1	13
610.937	1	2
611.107	1	16
611.277	1	16
611.446	1	18
611.616	1	8
611.786	1	11
611.955	1	5
612.125	1	4
612.295	1	6
612.465	1	-2
612.634	1	8
612.804	1	4
612.974	1	3
613.143	1	0
613.313	1	13
613.483	1	6
613.652	1	14
613.822	1	8
613.992	1	-1
614.162	1	18
614.331	1	5
614.501	1	0
614.671	1	3
614.840	1	9
615.010	1	14
615.180	1	10
615.349	1	4
615.519	1	-6
615.689	1	5
615.858	1	0
616.028	1	19
616.198	1	15
616.368	1	12
616.537	1	-1
616.707	1	9
616.877	1	13
617.046	1	0
617.216	1	-6
617.386	1	15
617.555	1	17
617.725	1	1
617.895	1	4
618.064	1	3
618.234	1	6
618.404	1	0
618.573	1	6
618.743	1	6
618.913	1	11
619.082	1	10
619.252	1	-1
619.422	1	15
619.591	1	9
619.761	1	2
619.931	1	10
620.100	1	6
620.270	1	10
620.440	1	6
620.609	1	3
620.779	1	17
620.949	1	16
621.118	1	16
621.288	1	11
621.458	1	8
621.627	1	6
621.797	1	8
621.967	1	-1
622.136	1	4
622.306	1	9
622.476	1	8
622.645	1	11
622.815	1	10
622.985	1	4
623.154	1	1
623.324	1	10
623.494	1	-7
623.663	1	1
623.833	1	3
624.002	1	14
624.172	1	1
624.342	1	17
624.511	1	-13
624.681	1	3
624.851	1	-1
625.020	1	1
625.190	1	5
625.360	1	4
625.529	1	8
625.699	1	13
625.869	1	7
626.038	1	8
626.208	1	2
626.377	1	8
626.547	1	5
626.717	1	4
626.886	1	4
627.056	1	1
627.226	1	6
627.395	1	-1
627.565	1	10
627.735	1	11
627.904	1	5
628.074	1	8
628.243	1	18
628.413	1	3
628.583	1	13
628.752	1	9
628.922	1	7
629.091	1	11
629.261	1	11
629.431	1	-4
629.600	1	5
629.770	1	17
629.940	1	13
630.109	1	-8
630.279	1	4
630.448	1	8
630.618	1	12
630.788	1	13
630.957	1	16
631.127	1	6
631.297	1	1
631.466	1	1
631.636	1	-1
631.805	1	13
631.975	1	7
632.145	1	5
632.314	1	8
632.484	1	7
632.653	1	9
632.823	1	-7
632.993	1	0
633.162	1	-1
633.332	1	14
633.501	1	11
633.671	1	18
633.841	1	12
634.010	1	0
634.180	1	2
634.349	1	7
634.519	1	-3
634.689	1	3
634.858	1	4
635.028	1	-3
635.197	1	1
635.367	1	10
635.537	1	8
635.706	1	3
635.876	1	3
636.045	1	6
636.215	1	-2
636.384	1	17
636.554	1	3
636.724	1	14
636.893	1	14
637.063	1	3
637.232	1	12
637.402	1	12
637.572	1	8
637.741	1	9
637.911	1	16
638.080	1	6
638.250	1	-2
638.419	1	0
638.589	1	12
638.759	1	9
638.928	1	9
639.098	1	9
639.267	1	16
639.437	1	6
639.606	1	15
639.776	1	5
639.946	1	6
640.115	1	3
640.285	1	-3
640.454	1	2
640.624	1	9
640.793	1	1
640.963	1	10
641.132	1	2
641.302	1	10
641.472	1	20
641.641	1	1
641.811	1	-2
641.980	1	3
642.150	1	-2
642.319	1	12
642.489	1	16
642.659	1	14
642.828	1	11
642.998	1	8
643.167	1	10
643.337	1	4
643.506	1	1
643.676	1	13
643.845	1	7
644.015	1	6
644.184	1	16
644.354	1	9
644.524	1	1
644.693	1	0
644.863	1	5
645.032	1	8
645.202	1	6
645.371	1	8
645.541	1	3
645.710	1	10
645.880	1	7
646.049	1	8
646.219	1	0
646.388	1	7
646.558	1	-2
646.728	1	4
646.897	1	-14
647.067	1	20
647.236	1	4
647.406	1	10
647.575	1	12
647.745	1	7
647.914	1	7
648.084	1	-2
648.253	1	7
648.423	1	6
648.592	1	5
648.762	1	7
648.931	1	10
649.101	1	3
649.270	1	17
649.440	1	5
649.610	1	6
649.779	1	7
649.949	1	1
650.118	1	2
650.288	1	5
650.457	1	14
650.627	1	4
650.796	1	8
650.966	1	-3
651.135	1	8
651.305	1	9
651.474	1	14
651.644	1	12
651.813	1	10
651.983	1	2
652.152	1	13
652.322	1	7
652.491	1	4
652.661	1	13
652.830	1	3
653.000	1	8
653.169	1	3
653.339	1	3
653.508	1	4
653.678	1	14
653.847	1	4
654.017	1	18
654.186	1	1
654.356	1	14
654.525	1	7
654.695	1	15
654.864	1	1
655.034	1	2
655.203	1	7
655.373	1	18
655.542	1	4
655.712	1	11
655.881	1	8
656.051	1	-10
656.220	1	3
656.390	1	8
656.559	1	6
656.729	1	8
656.898	1	7
657.068	1	8
657.237	1	0
657.406	1	8
657.576	1	16
657.745	1	7
657.915	1	6
658.084	1	2
658.254	1	16
658.423	1	9
658.593	1	11
658.762	1	6
658.932	1	14
659.101	1	2
659.271	1	8
659.440	1	2
659.610	1	9
659.779	1	2
659.949	1	-1
660.118	1	0
660.288	1	-2
660.457	1	12
660.626	1	-6
660.796	1	8
660.965	1	6
661.135	1	14
661.304	1	12
661.474	1	4
661.643	1	6
661.813	1	6
661.982	1	-1
662.152	1	1
662.321	1	1
662.491	1	-4
662.660	1	7
662.829	1	3
662.999	1	17
663.168	1	3
663.338	1	-4
663.507	1	13
663.677	1	7
663.846	1	6
664.016	1	1
664.185	1	2
664.354	1	0
664.524	1	13
664.693	1	-3
664.863	1	0
665.032	1	9
665.202	1	10
665.371	1	9
665.541	1	-1
665.710	1	8
665.879	1	7
666.049	1	6
666.218	1	10
666.388	1	-1
666.557	1	0
666.727	1	11
666.896	1	10
667.065	1	13
667.235	1	-7
667.404	1	6
667.574	1	3
667.743	1	6
667.913	1	13
668.082	1	9
668.251	1	-3
668.421	1	15
668.590	1	-2
668.760	1	8
668.929	1	3
669.099	1	5
669.268	1	-4
669.437	1	-7
669.607	1	-2
669.776	1	11
669.946	1	8
670.115	1	-2
670.285	1	-3
670.454	1	4
670.623	1	3
670.793	1	11
670.962	1	6
671.132	1	8
671.301	1	3
671.470	1	3
671.640	1	9
671.809	1	3
671.979	1	6
672.148	1	12
672.317	1	5
672.487	1	3
672.656	1	11
672.826	1	9
672.995	1	5
673.164	1	1
673.334	1	3
673.503	1	2
673.673	1	8
673.842	1	8
674.011	1	9
674.181	1	6
674.350	1	12
674.520	1	5
674.689	1	2
674.858	1	4
675.028	1	4
675.197	1	3
675.367	1	6
675.536	1	-1
675.705	1	0
675.875	1	11
676.044	1	5
676.214	1	16
676.383	1	-1
676.552	1	4
676.722	1	8
676.891	1	3
677.060	1	-2
677.230	1	9
677.399	1	11
677.569	1	17
677.738	1	3
677.907	1	20
678.077	1	-3
678.246	1	10
678.416	1	1
678.585	1	-4
678.754	1	8
678.924	1	3
679.093	1	8
679.262	1	14
679.432	1	1
679.601	1	6
679.771	1	6
679.940	1	-2
680.109	1	8
680.279	1	7
680.448	1	-1
680.617	1	-6
680.787	1	-4
680.956	1	7
681.125	1	9
681.295	1	2
681.464	1	7
681.634	1	7
681.803	1	-1
681.972	1	5
682.142	1	4
682.311	1	10
682.480	1	-5
682.650	1	-3
682.819	1	-6
682.988	1	3
683.158	1	4
683.327	1	10
683.496	1	4
683.666	1	5
683.835	1	8
684.004	1	-5
684.174	1	7
684.343	1	12
684.512	1	-3
684.682	1	11
684.851	1	6
685.021	1	17
685.190	1	2
685.359	1	6
685.529	1	-3
685.698	1	6
685.867	1	2
686.037	1	11
686.206	1	-2
686.375	1	5
686.545	1	7
686.714	1	6
686.883	1	12
687.053	1	18
687.222	1	7
687.391	1	-1
687.561	1	11
687.730	1	11
687.899	1	5
688.069	1	2
688.238	1	10
688.407	1	4
688.577	1	4
688.746	1	7
