340.368	1	0
340.539	1	9
340.710	1	2
340.881	1	3
341.052	1	5
341.223	1	3
341.394	1	-4
341.565	1	14
341.737	1	6
341.908	1	12
342.079	1	2
342.250	1	7
342.421	1	6
342.592	1	12
342.763	1	5
342.934	1	7
343.105	1	12
343.276	1	5
343.447	1	12
343.618	1	13
343.789	1	7
343.960	1	7
344.131	1	-9
344.302	1	18
344.473	1	-1
344.644	1	3
344.815	1	4
344.986	1	9
345.157	1	13
345.328	1	2
345.499	1	8
345.670	1	4
345.841	1	11
346.012	1	1
346.183	1	7
346.354	1	8
346.526	1	6
346.697	1	16
346.868	1	3
347.039	1	12
347.210	1	-2
347.381	1	21
347.552	1	21
347.723	1	12
347.894	1	-9
348.065	1	0
348.236	1	11
348.407	1	12
348.578	1	9
348.749	1	17
348.920	1	14
349.091	1	13
349.262	1	15
349.433	1	8
349.604	1	11
349.775	1	3
349.946	1	1
350.117	1	13
350.288	1	-5
350.459	1	9
350.630	1	7
350.801	1	0
350.972	1	14
351.143	1	6
351.314	1	3
351.485	1	7
351.656	1	10
351.827	1	15
351.998	1	7
352.169	1	17
352.340	1	18
352.511	1	6
352.682	1	5
352.853	1	5
353.024	1	21
353.195	1	-8
353.366	1	15
353.537	1	4
353.708	1	10
353.879	1	19
354.050	1	11
354.221	1	-2
354.392	1	9
354.563	1	29
354.734	1	16
354.905	1	13
355.076	1	17
355.247	1	10
355.418	1	12
355.589	1	19
355.760	1	19
355.931	1	24
356.102	1	14
356.273	1	16
356.444	1	19
356.615	1	15
356.785	1	23
356.956	1	27
357.127	1	30
357.298	1	3
357.469	1	18
357.640	1	14
357.811	1	28
357.982	1	29
358.153	1	11
358.324	1	30
358.495	1	27
358.666	1	28
358.837	1	43
359.008	1	21
359.179	1	29
359.350	1	32
359.521	1	41
359.692	1	23
359.863	1	28
360.034	1	32
360.205	1	49
360.376	1	35
360.547	1	42
360.718	1	47
360.889	1	39
361.060	1	50
361.231	1	54
361.401	1	56
361.572	1	56
361.743	1	55
361.914	1	63
362.085	1	53
362.256	1	74
362.427	1	57
362.598	1	79
362.769	1	88
362.940	1	90
363.111	1	78
363.282	1	88
363.453	1	90
363.624	1	100
363.795	1	92
363.966	1	101
364.137	1	114
364.308	1	118
364.478	1	134
364.649	1	136
364.820	1	152
364.991	1	149
365.162	1	153
365.333	1	167
365.504	1	158
365.675	1	193
365.846	1	189
366.017	1	210
366.188	1	199
366.359	1	199
366.530	1	229
366.701	1	224
366.871	1	221
367.042	1	237
367.213	1	251
367.384	1	232
367.555	1	270
367.726	1	245
367.897	1	244
368.068	1	259
368.239	1	250
368.410	1	260
368.581	1	239
368.752	1	246
368.923	1	233
369.093	1	245
369.264	1	242
369.435	1	242
369.606	1	234
369.777	1	246
369.948	1	216
370.119	1	210
370.290	1	217
370.461	1	212
370.632	1	200
370.803	1	178
370.973	1	180
371.144	1	185
371.315	1	175
371.486	1	161
371.657	1	169
371.828	1	156
371.999	1	166
372.170	1	154
372.341	1	149
372.512	1	152
372.682	1	140
372.853	1	139
373.024	1	122
373.195	1	131
373.366	1	128
373.537	1	108
373.708	1	124
373.879	1	121
374.050	1	119
374.220	1	120
374.391	1	110
374.562	1	96
374.733	1	103
374.904	1	105
375.075	1	86
375.246	1	89
375.417	1	88
375.588	1	93
375.758	1	102
375.929	1	82
376.100	1	81
376.271	1	82
376.442	1	81
376.613	1	83
376.784	1	81
376.955	1	83
377.125	1	61
377.296	1	78
377.467	1	79
377.638	1	56
377.809	1	58
377.980	1	60
378.151	1	59
378.321	1	75
378.492	1	57
378.663	1	60
378.834	1	61
379.005	1	65
379.176	1	54
379.347	1	52
379.518	1	43
379.688	1	58
379.859	1	54
380.030	1	54
380.201	1	53
380.372	1	57
380.543	1	40
380.714	1	49
380.884	1	44
381.055	1	34
381.226	1	47
381.397	1	45
381.568	1	42
381.739	1	43
381.910	1	48
382.080	1	43
382.251	1	30
382.422	1	46
382.593	1	50
382.764	1	42
382.935	1	39
383.105	1	37
383.276	1	36
383.447	1	36
383.618	1	36
383.789	1	36
383.960	1	41
384.130	1	39
384.301	1	30
384.472	1	33
384.643	1	39
384.814	1	38
384.985	1	34
385.156	1	39
385.326	1	25
385.497	1	46
385.668	1	46
385.839	1	34
386.010	1	35
386.180	1	39
386.351	1	27
386.522	1	34
386.693	1	24
386.864	1	30
387.035	1	30
387.205	1	31
387.376	1	38
387.547	1	40
387.718	1	28
387.889	1	21
388.060	1	29
388.230	1	29
388.401	1	18
388.572	1	31
388.743	1	27
388.914	1	38
389.084	1	36
389.255	1	25
389.426	1	27
389.597	1	31
389.768	1	19
389.939	1	42
390.109	1	26
390.280	1	16
390.451	1	24
390.622	1	23
390.793	1	24
390.963	1	11
391.134	1	32
391.305	1	19
391.476	1	22
391.647	1	20
391.817	1	11
391.988	1	27
392.159	1	10
392.330	1	15
392.501	1	30
392.671	1	26
392.842	1	5
393.013	1	28
393.184	1	21
393.355	1	28
393.525	1	18
393.696	1	24
393.867	1	16
394.038	1	20
394.208	1	21
394.379	1	19
394.550	1	36
394.721	1	12
394.892	1	23
395.062	1	21
395.233	1	27
395.404	1	26
395.575	1	34
395.746	1	7
395.916	1	19
396.087	1	33
396.258	1	21
396.429	1	23
396.599	1	17
396.770	1	15
396.941	1	26
397.112	1	25
397.283	1	22
397.453	1	18
397.624	1	30
397.795	1	19
397.966	1	17
398.136	1	21
398.307	1	18
398.478	1	17
398.649	1	12
398.819	1	24
398.990	1	26
399.161	1	28
399.332	1	18
399.503	1	22
399.673	1	10
399.844	1	17
400.015	1	16
400.186	1	18
400.356	1	6
400.527	1	18
400.698	1	14
400.869	1	19
401.039	1	14
401.210	1	18
401.381	1	13
401.552	1	15
401.722	1	14
401.893	1	16
402.064	1	21
402.235	1	17
402.405	1	14
402.576	1	17
402.747	1	32
402.918	1	12
403.088	1	20
403.259	1	18
403.430	1	14
403.601	1	25
403.771	1	7
403.942	1	17
404.113	1	22
404.284	1	27
404.454	1	13
404.625	1	12
404.796	1	22
404.967	1	22
405.137	1	17
405.308	1	9
405.479	1	20
405.649	1	16
405.820	1	8
405.991	1	19
406.162	1	12
406.332	1	16
406.503	1	15
406.674	1	25
406.845	1	18
407.015	1	17
407.186	1	15
407.357	1	18
407.527	1	12
407.698	1	11
407.869	1	18
408.040	1	24
408.210	1	28
408.381	1	17
408.552	1	14
408.722	1	18
408.893	1	6
409.064	1	24
409.235	1	19
409.405	1	24
409.576	1	13
409.747	1	13
409.917	1	18
410.088	1	26
410.259	1	4
410.430	1	31
410.600	1	15
410.771	1	14
410.942	1	18
411.112	1	15
411.283	1	22
411.454	1	12
411.625	1	14
411.795	1	18
411.966	1	15
412.137	1	17
412.307	1	17
412.478	1	25
412.649	1	13
412.819	1	25
412.990	1	13
413.161	1	18
413.332	1	14
413.502	1	21
413.673	1	14
413.844	1	29
414.014	1	15
414.185	1	8
414.356	1	27
414.526	1	4
414.697	1	18
414.868	1	15
415.038	1	12
415.209	1	7
415.380	1	18
415.550	1	12
415.721	1	20
415.892	1	22
416.063	1	19
416.233	1	20
416.404	1	7
416.575	1	5
416.745	1	20
416.916	1	12
417.087	1	21
417.257	1	10
417.428	1	26
417.599	1	24
417.769	1	12
417.940	1	7
418.111	1	20
418.281	1	20
418.452	1	24
418.623	1	10
418.793	1	13
418.964	1	25
419.135	1	17
419.305	1	10
419.476	1	15
419.647	1	17
419.817	1	21
419.988	1	25
420.159	1	21
420.329	1	17
420.500	1	21
420.671	1	24
420.841	1	19
421.012	1	3
421.183	1	23
421.353	1	18
421.524	1	14
421.695	1	13
421.865	1	26
422.036	1	32
422.206	1	14
422.377	1	17
422.548	1	12
422.718	1	17
422.889	1	19
423.060	1	19
423.230	1	19
423.401	1	12
423.572	1	13
423.742	1	21
423.913	1	14
424.084	1	17
424.254	1	19
424.425	1	17
424.595	1	27
424.766	1	5
424.937	1	14
425.107	1	7
425.278	1	24
425.449	1	25
425.619	1	21
425.790	1	8
425.961	1	29
426.131	1	15
426.302	1	13
426.472	1	21
426.643	1	14
426.814	1	15
426.984	1	19
427.155	1	18
427.326	1	18
427.496	1	11
427.667	1	10
427.837	1	8
428.008	1	21
428.179	1	24
428.349	1	22
428.520	1	17
428.691	1	21
428.861	1	10
429.032	1	18
429.202	1	10
429.373	1	20
429.544	1	14
429.714	1	24
429.885	1	20
430.055	1	20
430.226	1	3
430.397	1	20
430.567	1	8
430.738	1	16
430.909	1	8
431.079	1	17
431.250	1	19
431.420	1	13
431.591	1	18
431.762	1	15
431.932	1	13
432.103	1	17
432.273	1	22
432.444	1	12
432.615	1	12
432.785	1	14
432.956	1	18
433.126	1	11
433.297	1	14
433.468	1	13
433.638	1	15
433.809	1	8
433.979	1	15
434.150	1	17
434.320	1	17
434.491	1	20
434.662	1	20
434.832	1	16
435.003	1	20
435.173	1	14
435.344	1	9
435.515	1	14
435.685	1	12
435.856	1	15
436.026	1	11
436.197	1	12
436.368	1	12
436.538	1	19
436.709	1	13
436.879	1	8
437.050	1	7
437.220	1	17
437.391	1	10
437.562	1	13
437.732	1	20
437.903	1	22
438.073	1	11
438.244	1	29
438.414	1	23
438.585	1	12
438.756	1	14
438.926	1	15
439.097	1	16
439.267	1	9
439.438	1	19
439.608	1	-1
439.779	1	15
439.949	1	14
440.120	1	14
440.291	1	17
440.461	1	14
440.632	1	19
440.802	1	16
440.973	1	22
441.143	1	16
441.314	1	15
441.485	1	15
441.655	1	24
441.826	1	12
441.996	1	18
442.167	1	18
442.337	1	15
442.508	1	14
442.678	1	16
442.849	1	20
443.019	1	18
443.190	1	15
443.361	1	14
443.531	1	16
443.702	1	20
443.872	1	3
444.043	1	23
444.213	1	6
444.384	1	17
444.554	1	21
444.725	1	23
444.895	1	11
445.066	1	6
445.237	1	13
445.407	1	14
445.578	1	8
445.748	1	10
445.919	1	9
446.089	1	15
446.260	1	23
446.430	1	17
446.601	1	9
446.771	1	15
446.942	1	7
447.112	1	18
447.283	1	16
447.453	1	10
447.624	1	2
447.794	1	10
447.965	1	9
448.135	1	15
448.306	1	14
448.477	1	17
448.647	1	10
448.818	1	9
448.988	1	15
449.159	1	4
449.329	1	11
449.500	1	15
449.670	1	14
449.841	1	12
450.011	1	13
450.182	1	15
450.352	1	3
450.523	1	7
450.693	1	15
450.864	1	15
451.034	1	13
451.205	1	15
451.375	1	7
451.546	1	13
451.716	1	9
451.887	1	20
452.057	1	8
452.228	1	8
452.398	1	22
452.569	1	12
452.739	1	14
452.910	1	6
453.080	1	25
453.251	1	7
453.421	1	18
453.592	1	11
453.762	1	23
453.933	1	4
454.103	1	15
454.274	1	12
454.444	1	19
454.615	1	4
454.785	1	13
454.956	1	12
455.126	1	13
455.297	1	11
455.467	1	8
455.638	1	18
455.808	1	14
455.979	1	4
456.149	1	7
456.320	1	19
456.490	1	8
456.661	1	10
456.831	1	9
457.001	1	23
457.172	1	5
457.342	1	6
457.513	1	4
457.683	1	4
457.854	1	3
458.024	1	19
458.195	1	12
458.365	1	1
458.536	1	11
458.706	1	15
458.877	1	14
459.047	1	6
459.218	1	14
459.388	1	13
459.559	1	20
459.729	1	13
459.899	1	5
460.070	1	15
460.240	1	-1
460.411	1	16
460.581	1	5
460.752	1	-2
460.922	1	13
461.093	1	19
461.263	1	24
461.434	1	4
461.604	1	18
461.775	1	14
461.945	1	14
462.115	1	15
462.286	1	17
462.456	1	8
462.627	1	18
462.797	1	6
462.968	1	14
463.138	1	8
463.309	1	11
463.479	1	8
463.649	1	2
463.820	1	16
463.990	1	12
464.161	1	9
464.331	1	15
464.502	1	21
464.672	1	13
464.843	1	20
465.013	1	7
465.183	1	3
465.354	1	12
465.524	1	15
465.695	1	20
465.865	1	13
466.036	1	17
466.206	1	10
466.376	1	20
466.547	1	17
466.717	1	2
466.888	1	7
467.058	1	10
467.229	1	15
467.399	1	2
467.569	1	4
467.740	1	14
467.910	1	20
468.081	1	7
468.251	1	11
468.422	1	15
468.592	1	10
468.762	1	12
468.933	1	17
469.103	1	14
469.274	1	9
469.444	1	11
469.614	1	9
469.785	1	8
469.955	1	1
470.126	1	17
470.296	1	14
470.467	1	15
470.637	1	5
470.807	1	18
470.978	1	-1
471.148	1	9
471.319	1	8
471.489	1	14
471.659	1	-1
471.830	1	8
472.000	1	1
472.171	1	14
472.341	1	14
472.511	1	17
472.682	1	18
472.852	1	15
473.023	1	9
473.193	1	12
473.363	1	10
473.534	1	12
473.704	1	6
473.875	1	9
474.045	1	16
474.215	1	17
474.386	1	11
474.556	1	1
474.727	1	11
474.897	1	9
475.067	1	13
475.238	1	24
475.408	1	6
475.578	1	5
475.749	1	3
475.919	1	14
476.090	1	13
476.260	1	4
476.430	1	-6
476.601	1	11
476.771	1	12
476.942	1	9
477.112	1	28
477.282	1	-3
477.453	1	17
477.623	1	6
477.793	1	8
477.964	1	8
478.134	1	15
478.305	1	7
478.475	1	13
478.645	1	13
478.816	1	18
478.986	1	16
479.156	1	7
479.327	1	17
479.497	1	13
479.667	1	9
479.838	1	25
480.008	1	9
480.179	1	25
480.349	1	12
480.519	1	15
480.690	1	13
480.860	1	17
481.030	1	5
481.201	1	2
481.371	1	6
481.541	1	7
481.712	1	30
481.882	1	6
482.053	1	21
482.223	1	5
482.393	1	14
482.564	1	10
482.734	1	18
482.904	1	5
483.075	1	14
483.245	1	16
483.415	1	11
483.586	1	18
483.756	1	15
483.926	1	17
484.097	1	20
484.267	1	24
484.437	1	21
484.608	1	25
484.778	1	8
484.948	1	14
485.119	1	23
485.289	1	9
485.459	1	16
485.630	1	21
485.800	1	2
485.970	1	14
486.141	1	21
486.311	1	17
486.481	1	6
486.652	1	8
486.822	1	23
486.992	1	19
487.163	1	16
487.333	1	4
487.503	1	24
487.674	1	12
487.844	1	7
488.014	1	17
488.185	1	22
488.355	1	20
488.525	1	16
488.696	1	17
488.866	1	15
489.036	1	17
489.207	1	21
489.377	1	25
489.547	1	19
489.718	1	17
489.888	1	14
490.058	1	23
490.228	1	12
490.399	1	38
490.569	1	21
490.739	1	24
490.910	1	27
491.080	1	22
491.250	1	35
491.421	1	20
491.591	1	23
491.761	1	27
491.932	1	27
492.102	1	26
492.272	1	22
492.442	1	19
492.613	1	19
492.783	1	36
492.953	1	29
493.124	1	33
493.294	1	18
493.464	1	18
493.635	1	30
493.805	1	31
493.975	1	21
494.145	1	26
494.316	1	20
494.486	1	25
494.656	1	35
494.827	1	28
494.997	1	22
495.167	1	34
495.337	1	22
495.508	1	30
495.678	1	23
495.848	1	25
496.019	1	27
496.189	1	16
496.359	1	27
496.529	1	24
496.700	1	25
496.870	1	35
497.040	1	27
497.211	1	21
497.381	1	33
497.551	1	29
497.721	1	17
497.892	1	31
498.062	1	31
498.232	1	28
498.403	1	33
498.573	1	29
498.743	1	26
498.913	1	42
499.084	1	26
499.254	1	17
499.424	1	34
499.594	1	33
499.765	1	33
499.935	1	50
500.105	1	48
500.275	1	43
500.446	1	32
500.616	1	30
500.786	1	27
500.956	1	43
501.127	1	33
501.297	1	39
501.467	1	51
501.638	1	51
501.808	1	34
501.978	1	27
502.148	1	34
502.319	1	41
502.489	1	37
502.659	1	46
502.829	1	28
503.000	1	47
503.170	1	45
503.340	1	34
503.510	1	43
503.681	1	50
503.851	1	41
504.021	1	42
504.191	1	32
504.362	1	35
504.532	1	51
504.702	1	42
504.872	1	39
505.042	1	51
505.213	1	35
505.383	1	50
505.553	1	37
505.723	1	46
505.894	1	37
506.064	1	41
506.234	1	51
506.404	1	43
506.575	1	56
506.745	1	40
506.915	1	45
507.085	1	48
507.256	1	54
507.426	1	55
507.596	1	53
507.766	1	49
507.936	1	51
508.107	1	38
508.277	1	62
508.447	1	49
508.617	1	55
508.788	1	47
508.958	1	56
509.128	1	44
509.298	1	42
509.468	1	43
509.639	1	44
509.809	1	43
509.979	1	48
510.149	1	49
510.319	1	43
510.490	1	48
510.660	1	40
510.830	1	36
511.000	1	48
511.171	1	55
511.341	1	51
511.511	1	43
511.681	1	45
511.851	1	55
512.022	1	37
512.192	1	55
512.362	1	57
512.532	1	64
512.702	1	44
512.873	1	40
513.043	1	43
513.213	1	49
513.383	1	46
513.553	1	54
513.724	1	57
513.894	1	44
514.064	1	45
514.234	1	47
514.404	1	52
514.575	1	46
514.745	1	54
514.915	1	47
515.085	1	58
515.255	1	45
515.425	1	52
515.596	1	51
515.766	1	52
515.936	1	53
516.106	1	52
516.276	1	48
516.447	1	62
516.617	1	51
516.787	1	48
516.957	1	53
517.127	1	63
517.297	1	51
517.468	1	68
517.638	1	59
517.808	1	53
517.978	1	56
518.148	1	64
518.319	1	54
518.489	1	67
518.659	1	54
518.829	1	70
518.999	1	56
519.169	1	51
519.340	1	60
519.510	1	48
519.680	1	55
519.850	1	65
520.020	1	57
520.190	1	59
520.361	1	55
520.531	1	62
520.701	1	58
520.871	1	55
521.041	1	65
521.211	1	54
521.382	1	50
521.552	1	57
521.722	1	57
521.892	1	58
522.062	1	67
522.232	1	61
522.402	1	74
522.573	1	61
522.743	1	61
522.913	1	67
523.083	1	61
523.253	1	72
523.423	1	62
523.593	1	66
523.764	1	59
523.934	1	61
524.104	1	61
524.274	1	64
524.444	1	66
524.614	1	61
524.784	1	50
524.955	1	50
525.125	1	50
525.295	1	67
525.465	1	69
525.635	1	67
525.805	1	60
525.975	1	56
526.146	1	58
526.316	1	55
526.486	1	57
526.656	1	61
526.826	1	66
526.996	1	62
527.166	1	58
527.337	1	66
527.507	1	72
527.677	1	78
527.847	1	46
528.017	1	69
528.187	1	73
528.357	1	62
528.527	1	70
528.698	1	57
528.868	1	53
529.038	1	68
529.208	1	65
529.378	1	67
529.548	1	67
529.718	1	63
529.888	1	68
530.058	1	67
530.229	1	65
530.399	1	69
530.569	1	58
530.739	1	69
530.909	1	64
531.079	1	70
531.249	1	63
531.419	1	68
531.589	1	63
531.760	1	77
531.930	1	57
532.100	1	70
532.270	1	63
532.440	1	60
532.610	1	61
532.780	1	73
532.950	1	70
533.120	1	64
533.290	1	62
533.461	1	62
533.631	1	72
533.801	1	74
533.971	1	57
534.141	1	60
534.311	1	58
534.481	1	76
534.651	1	59
534.821	1	62
534.991	1	51
535.162	1	75
535.332	1	63
535.502	1	61
535.672	1	53
535.842	1	54
536.012	1	55
536.182	1	58
536.352	1	67
536.522	1	60
536.692	1	56
536.862	1	61
537.032	1	61
537.203	1	58
537.373	1	53
537.543	1	64
537.713	1	59
537.883	1	55
538.053	1	54
538.223	1	80
538.393	1	49
538.563	1	59
538.733	1	63
538.903	1	55
539.073	1	52
539.243	1	52
539.413	1	54
539.584	1	55
539.754	1	48
539.924	1	56
540.094	1	61
540.264	1	53
540.434	1	61
540.604	1	65
540.774	1	58
540.944	1	55
541.114	1	58
541.284	1	60
541.454	1	55
541.624	1	57
541.794	1	54
541.964	1	56
542.134	1	52
542.305	1	63
542.475	1	55
542.645	1	57
542.815	1	56
542.985	1	51
543.155	1	53
543.325	1	61
543.495	1	49
543.665	1	48
543.835	1	51
544.005	1	53
544.175	1	50
544.345	1	58
544.515	1	43
544.685	1	43
544.855	1	48
545.025	1	60
545.195	1	59
545.365	1	56
545.535	1	46
545.705	1	58
545.875	1	53
546.045	1	52
546.216	1	62
546.386	1	46
546.556	1	58
546.726	1	56
546.896	1	50
547.066	1	60
547.236	1	46
547.406	1	47
547.576	1	50
547.746	1	51
547.916	1	51
548.086	1	54
548.256	1	49
548.426	1	48
548.596	1	56
548.766	1	60
548.936	1	51
549.106	1	58
549.276	1	58
549.446	1	56
549.616	1	57
549.786	1	58
549.956	1	54
550.126	1	51
550.296	1	53
550.466	1	46
550.636	1	52
550.806	1	69
550.976	1	52
551.146	1	52
551.316	1	57
551.486	1	43
551.656	1	53
551.826	1	43
551.996	1	49
552.166	1	44
552.336	1	57
552.506	1	47
552.676	1	59
552.846	1	47
553.016	1	44
553.186	1	32
553.356	1	52
553.526	1	61
553.696	1	36
553.866	1	53
554.036	1	51
554.206	1	53
554.376	1	54
554.546	1	54
554.716	1	45
554.886	1	46
555.056	1	48
555.226	1	47
555.396	1	49
555.566	1	40
555.736	1	49
555.906	1	48
556.076	1	40
556.246	1	49
556.416	1	51
556.586	1	46
556.756	1	35
556.926	1	44
557.096	1	53
557.266	1	53
557.436	1	42
557.606	1	36
557.776	1	48
557.946	1	46
558.116	1	47
558.286	1	25
558.456	1	32
558.626	1	42
558.796	1	49
558.966	1	34
559.136	1	35
559.306	1	50
559.476	1	38
559.646	1	44
559.816	1	36
559.986	1	44
560.155	1	43
560.325	1	42
560.495	1	51
560.665	1	32
560.835	1	41
561.005	1	35
561.175	1	38
561.345	1	38
561.515	1	39
561.685	1	43
561.855	1	31
562.025	1	38
562.195	1	32
562.365	1	38
562.535	1	35
562.705	1	44
562.875	1	52
563.045	1	46
563.215	1	26
563.385	1	46
563.555	1	46
563.725	1	41
563.895	1	43
564.064	1	42
564.234	1	28
564.404	1	30
564.574	1	42
564.744	1	50
564.914	1	43
565.084	1	45
565.254	1	52
565.424	1	35
565.594	1	39
565.764	1	43
565.934	1	50
566.104	1	31
566.274	1	44
566.444	1	40
566.614	1	33
566.783	1	50
566.953	1	46
567.123	1	29
567.293	1	28
567.463	1	47
567.633	1	46
567.803	1	42
567.973	1	32
568.143	1	41
568.313	1	32
568.483	1	42
568.653	1	31
568.823	1	28
568.993	1	35
569.162	1	28
569.332	1	37
569.502	1	35
569.672	1	36
569.842	1	31
570.012	1	21
570.182	1	33
570.352	1	40
570.522	1	26
570.692	1	32
570.862	1	21
571.031	1	53
571.201	1	45
571.371	1	25
571.541	1	30
571.711	1	27
571.881	1	36
572.051	1	38
572.221	1	39
572.391	1	30
572.561	1	44
572.731	1	31
572.900	1	36
573.070	1	30
573.240	1	25
573.410	1	41
573.580	1	30
573.750	1	35
573.920	1	37
574.090	1	31
574.260	1	38
574.430	1	23
574.599	1	33
574.769	1	25
574.939	1	17
575.109	1	39
575.279	1	25
575.449	1	26
575.619	1	26
575.789	1	33
575.959	1	23
576.128	1	21
576.298	1	21
576.468	1	27
576.638	1	20
576.808	1	31
576.978	1	35
577.148	1	19
577.318	1	30
577.487	1	20
577.657	1	24
577.827	1	32
577.997	1	26
578.167	1	39
578.337	1	21
578.507	1	30
578.677	1	40
578.846	1	17
579.016	1	36
579.186	1	34
579.356	1	28
579.526	1	17
579.696	1	29
579.866	1	26
580.036	1	23
580.205	1	33
580.375	1	26
580.545	1	32
580.715	1	30
580.885	1	18
581.055	1	32
581.225	1	33
581.394	1	28
581.564	1	33
581.734	1	28
581.904	1	28
582.074	1	28
582.244	1	32
582.414	1	28
582.583	1	23
582.753	1	25
582.923	1	21
583.093	1	21
583.263	1	41
583.433	1	32
583.603	1	20
583.772	1	27
583.942	1	27
584.112	1	22
584.282	1	20
584.452	1	21
584.622	1	18
584.791	1	22
584.961	1	16
585.131	1	25
585.301	1	22
585.471	1	23
585.641	1	35
585.811	1	22
585.980	1	22
586.150	1	26
586.320	1	16
586.490	1	17
586.660	1	16
586.830	1	16
586.999	1	22
587.169	1	16
587.339	1	18
587.509	1	19
587.679	1	26
587.849	1	25
588.018	1	16
588.188	1	30
588.358	1	35
588.528	1	7
588.698	1	25
588.867	1	22
589.037	1	23
589.207	1	20
589.377	1	22
589.547	1	36
589.717	1	16
589.886	1	17
590.056	1	23
590.226	1	22
590.396	1	24
590.566	1	14
590.735	1	8
590.905	1	14
591.075	1	22
591.245	1	8
591.415	1	20
591.585	1	13
591.754	1	29
591.924	1	13
592.094	1	17
592.264	1	24
592.434	1	11
592.603	1	7
592.773	1	10
592.943	1	13
593.113	1	13
593.283	1	19
593.452	1	24
593.622	1	18
593.792	1	6
593.962	1	22
594.132	1	14
594.301	1	6
594.471	1	13
594.641	1	17
594.811	1	21
594.981	1	13
595.150	1	13
595.320	1	20
595.490	1	11
595.660	1	22
595.829	1	14
595.999	1	23
596.169	1	8
596.339	1	16
596.509	1	17
596.678	1	17
596.848	1	15
597.018	1	8
597.188	1	16
597.358	1	21
597.527	1	19
597.697	1	2
597.867	1	11
598.037	1	17
598.206	1	19
598.376	1	9
598.546	1	15
598.716	1	15
598.885	1	26
599.055	1	20
599.225	1	14
599.395	1	8
599.565	1	9
599.734	1	20
599.904	1	22
600.074	1	13
600.244	1	9
600.413	1	21
600.583	1	16
600.753	1	20
600.923	1	14
601.092	1	1
601.262	1	10
601.432	1	13
601.602	1	21
601.771	1	19
601.941	1	7
602.111	1	15
602.281	1	22
602.451	1	14
602.620	1	15
602.790	1	20
602.960	1	7
603.130	1	13
603.299	1	21
603.469	1	17
603.639	1	19
603.809	1	11
603.978	1	26
604.148	1	6
604.318	1	15
604.487	1	26
604.657	1	18
604.827	1	20
604.997	1	15
605.166	1	15
605.336	1	21
605.506	1	11
605.676	1	15
605.845	1	20
606.015	1	12
606.185	1	4
606.355	1	1
606.524	1	9
606.694	1	21
606.864	1	22
607.034	1	6
607.203	1	17
607.373	1	11
607.543	1	15
607.712	1	17
607.882	1	21
608.052	1	5
608.222	1	9
608.391	1	18
608.561	1	11
608.731	1	7
608.901	1	21
609.070	1	23
609.240	1	17
609.410	1	18
609.579	1	12
609.749	1	8
609.919	1	8
610.089	1	29
610.258	1	21
610.428	1	16
610.598	1	7
610.767	1	22
610.937	1	16
611.107	1	13
611.277	1	26
611.446	1	11
611.616	1	20
611.786	1	15
611.955	1	13
612.125	1	17
612.295	1	5
612.465	1	12
612.634	1	23
612.804	1	17
612.974	1	11
613.143	1	-3
613.313	1	13
613.483	1	8
613.652	1	21
613.822	1	9
613.992	1	9
614.162	1	19
614.331	1	31
614.501	1	16
614.671	1	16
614.840	1	19
615.010	1	10
615.180	1	17
615.349	1	15
615.519	1	3
615.689	1	8
615.858	1	6
616.028	1	31
616.198	1	21
616.368	1	14
616.537	1	2
616.707	1	19
616.877	1	10
617.046	1	6
617.216	1	4
617.386	1	19
617.555	1	21
617.725	1	6
617.895	1	11
618.064	1	7
618.234	1	0
618.404	1	11
618.573	1	13
618.743	1	7
618.913	1	8
619.082	1	22
619.252	1	13
619.422	1	23
619.591	1	19
619.761	1	3
619.931	1	21
620.100	1	14
620.270	1	8
620.440	1	14
620.609	1	5
620.779	1	10
620.949	1	18
621.118	1	19
621.288	1	19
621.458	1	10
621.627	1	11
621.797	1	6
621.967	1	13
622.136	1	10
622.306	1	10
622.476	1	7
622.645	1	29
622.815	1	17
622.985	1	11
623.154	1	4
623.324	1	10
623.494	1	3
623.663	1	16
623.833	1	7
624.002	1	14
624.172	1	12
624.342	1	26
624.511	1	4
624.681	1	9
624.851	1	4
625.020	1	6
625.190	1	8
625.360	1	8
625.529	1	3
625.699	1	20
625.869	1	16
626.038	1	11
626.208	1	11
626.377	1	20
626.547	1	-3
626.717	1	14
626.886	1	9
627.056	1	9
627.226	1	16
627.395	1	3
627.565	1	18
627.735	1	13
627.904	1	8
628.074	1	14
628.243	1	15
628.413	1	11
628.583	1	23
628.752	1	3
628.922	1	13
629.091	1	8
629.261	1	13
629.431	1	1
629.600	1	10
629.770	1	15
629.940	1	12
630.109	1	5
630.279	1	19
630.448	1	12
630.618	1	15
630.788	1	7
630.957	1	9
631.127	1	11
631.297	1	12
631.466	1	12
631.636	1	-1
631.805	1	11
631.975	1	19
632.145	1	7
632.314	1	11
632.484	1	16
632.653	1	6
632.823	1	4
632.993	1	10
633.162	1	8
633.332	1	15
633.501	1	-1
633.671	1	13
633.841	1	13
634.010	1	5
634.180	1	8
634.349	1	18
634.519	1	4
634.689	1	9
634.858	1	10
635.028	1	6
635.197	1	11
635.367	1	12
635.537	1	11
635.706	1	10
635.876	1	15
636.045	1	-3
636.215	1	14
636.384	1	17
636.554	1	2
636.724	1	12
636.893	1	16
637.063	1	-5
637.232	1	7
637.402	1	11
637.572	1	13
637.741	1	11
637.911	1	20
638.080	1	20
638.250	1	7
638.419	1	3
638.589	1	18
638.759	1	11
638.928	1	11
639.098	1	16
639.267	1	17
639.437	1	9
639.606	1	14
639.776	1	13
639.946	1	8
640.115	1	1
640.285	1	1
640.454	1	3
640.624	1	7
640.793	1	17
640.963	1	18
641.132	1	12
641.302	1	15
641.472	1	21
641.641	1	7
641.811	1	10
641.980	1	13
642.150	1	1
642.319	1	16
642.489	1	17
642.659	1	8
642.828	1	9
642.998	1	8
643.167	1	3
643.337	1	8
643.506	1	7
643.676	1	15
643.845	1	19
644.015	1	2
644.184	1	20
644.354	1	18
644.524	1	4
644.693	1	13
644.863	1	5
645.032	1	1
645.202	1	4
645.371	1	11
645.541	1	7
645.710	1	9
645.880	1	27
646.049	1	19
646.219	1	7
646.388	1	2
646.558	1	-1
646.728	1	9
646.897	1	4
647.067	1	17
647.236	1	-8
647.406	1	16
647.575	1	9
647.745	1	13
647.914	1	12
648.084	1	0
648.253	1	13
648.423	1	23
648.592	1	13
648.762	1	4
648.931	1	7
649.101	1	2
649.270	1	15
649.440	1	9
649.610	1	17
649.779	1	4
649.949	1	8
650.118	1	12
650.288	1	5
650.457	1	13
650.627	1	12
650.796	1	15
650.966	1	15
651.135	1	12
651.305	1	13
651.474	1	6
651.644	1	22
651.813	1	8
651.983	1	6
652.152	1	17
652.322	1	2
652.491	1	11
652.661	1	8
652.830	1	9
653.000	1	12
653.169	1	-3
653.339	1	6
653.508	1	9
653.678	1	18
653.847	1	17
654.017	1	14
654.186	1	12
654.356	1	17
654.525	1	8
654.695	1	16
654.864	1	11
655.034	1	7
655.203	1	7
655.373	1	11
655.542	1	16
655.712	1	10
655.881	1	19
656.051	1	-1
656.220	1	8
656.390	1	3
656.559	1	10
656.729	1	14
656.898	1	17
657.068	1	15
657.237	1	10
657.406	1	6
657.576	1	4
657.745	1	21
657.915	1	19
658.084	1	7
658.254	1	14
658.423	1	11
658.593	1	11
658.762	1	10
658.932	1	11
659.101	1	4
659.271	1	13
659.440	1	8
659.610	1	12
659.779	1	9
659.949	1	9
660.118	1	3
660.288	1	1
660.457	1	14
660.626	1	4
660.796	1	17
660.965	1	12
661.135	1	7
661.304	1	13
661.474	1	10
661.643	1	15
661.813	1	11
661.982	1	2
662.152	1	16
662.321	1	6
662.491	1	2
662.660	1	14
662.829	1	13
662.999	1	10
663.168	1	8
663.338	1	8
663.507	1	13
663.677	1	15
663.846	1	10
664.016	1	1
664.185	1	5
664.354	1	8
664.524	1	21
664.693	1	10
664.863	1	0
665.032	1	17
665.202	1	12
665.371	1	13
665.541	1	7
665.710	1	11
665.879	1	12
666.049	1	11
666.218	1	4
666.388	1	20
666.557	1	9
666.727	1	8
666.896	1	18
667.065	1	14
667.235	1	6
667.404	1	0
667.574	1	7
667.743	1	8
667.913	1	8
668.082	1	14
668.251	1	0
668.421	1	6
668.590	1	6
668.760	1	9
668.929	1	4
669.099	1	9
669.268	1	4
669.437	1	8
669.607	1	-1
669.776	1	0
669.946	1	5
670.115	1	12
670.285	1	5
670.454	1	5
670.623	1	6
670.793	1	7
670.962	1	0
671.132	1	2
671.301	1	13
671.470	1	15
671.640	1	10
671.809	1	6
671.979	1	6
672.148	1	4
672.317	1	10
672.487	1	10
672.656	1	16
672.826	1	1
672.995	1	8
673.164	1	6
673.334	1	9
673.503	1	10
673.673	1	22
673.842	1	12
674.011	1	4
674.181	1	7
674.350	1	6
674.520	1	10
674.689	1	5
674.858	1	8
675.028	1	20
675.197	1	8
675.367	1	7
675.536	1	9
675.705	1	6
675.875	1	9
676.044	1	5
676.214	1	6
676.383	1	7
676.552	1	9
676.722	1	10
676.891	1	3
677.060	1	9
677.230	1	16
677.399	1	24
677.569	1	24
677.738	1	0
677.907	1	16
678.077	1	3
678.246	1	11
678.416	1	11
678.585	1	12
678.754	1	7
678.924	1	3
679.093	1	25
679.262	1	5
679.432	1	-3
679.601	1	11
679.771	1	3
679.940	1	8
680.109	1	9
680.279	1	10
680.448	1	7
680.617	1	19
680.787	1	-6
680.956	1	18
681.125	1	4
681.295	1	12
681.464	1	15
681.634	1	9
681.803	1	2
681.972	1	12
682.142	1	13
682.311	1	19
682.480	1	10
682.650	1	0
682.819	1	10
682.988	1	8
683.158	1	-2
683.327	1	19
683.496	1	0
683.666	1	9
683.835	1	10
684.004	1	8
684.174	1	8
684.343	1	3
684.512	1	13
684.682	1	6
684.851	1	11
685.021	1	23
685.190	1	5
685.359	1	19
685.529	1	8
685.698	1	2
685.867	1	9
686.037	1	14
686.206	1	1
686.375	1	12
686.545	1	18
686.714	1	8
686.883	1	16
687.053	1	23
687.222	1	16
687.391	1	9
687.561	1	16
687.730	1	13
687.899	1	6
688.069	1	12
688.238	1	13
688.407	1	10
688.577	1	10
688.746	1	7
