340.368	1	5
340.539	1	4
340.710	1	-2
340.881	1	-10
341.052	1	5
341.223	1	3
341.394	1	-2
341.565	1	7
341.737	1	14
341.908	1	20
342.079	1	3
342.250	1	5
342.421	1	6
342.592	1	13
342.763	1	3
342.934	1	8
343.105	1	5
343.276	1	7
343.447	1	5
343.618	1	15
343.789	1	10
343.960	1	8
344.131	1	-5
344.302	1	6
344.473	1	10
344.644	1	7
344.815	1	5
344.986	1	3
345.157	1	17
345.328	1	4
345.499	1	6
345.670	1	0
345.841	1	10
346.012	1	3
346.183	1	3
346.354	1	11
346.526	1	12
346.697	1	3
346.868	1	5
347.039	1	11
347.210	1	2
347.381	1	15
347.552	1	13
347.723	1	11
347.894	1	2
348.065	1	2
348.236	1	8
348.407	1	20
348.578	1	9
348.749	1	17
348.920	1	2
349.091	1	14
349.262	1	7
349.433	1	6
349.604	1	2
349.775	1	2
349.946	1	7
350.117	1	7
350.288	1	-2
350.459	1	13
350.630	1	0
350.801	1	4
350.972	1	10
351.143	1	17
351.314	1	10
351.485	1	7
351.656	1	15
351.827	1	15
351.998	1	14
352.169	1	15
352.340	1	21
352.511	1	1
352.682	1	-9
352.853	1	3
353.024	1	19
353.195	1	3
353.366	1	11
353.537	1	8
353.708	1	16
353.879	1	26
354.050	1	-6
354.221	1	3
354.392	1	5
354.563	1	22
354.734	1	12
354.905	1	9
355.076	1	22
355.247	1	15
355.418	1	8
355.589	1	22
355.760	1	18
355.931	1	20
356.102	1	13
356.273	1	13
356.444	1	21
356.615	1	18
356.785	1	15
356.956	1	14
357.127	1	20
357.298	1	7
357.469	1	20
357.640	1	16
357.811	1	18
357.982	1	23
358.153	1	8
358.324	1	28
358.495	1	18
358.666	1	12
358.837	1	33
359.008	1	9
359.179	1	27
359.350	1	28
359.521	1	24
359.692	1	14
359.863	1	23
360.034	1	11
360.205	1	38
360.376	1	31
360.547	1	20
360.718	1	36
360.889	1	32
361.060	1	34
361.231	1	39
361.401	1	30
361.572	1	43
361.743	1	26
361.914	1	45
362.085	1	45
362.256	1	58
362.427	1	49
362.598	1	53
362.769	1	60
362.940	1	51
363.111	1	53
363.282	1	57
363.453	1	62
363.624	1	62
363.795	1	68
363.966	1	65
364.137	1	72
364.308	1	80
364.478	1	85
364.649	1	79
364.820	1	93
364.991	1	93
365.162	1	97
365.333	1	90
365.504	1	91
365.675	1	130
365.846	1	108
366.017	1	122
366.188	1	124
366.359	1	131
366.530	1	130
366.701	1	130
366.871	1	139
367.042	1	150
367.213	1	135
367.384	1	133
367.555	1	144
367.726	1	134
367.897	1	142
368.068	1	156
368.239	1	150
368.410	1	147
368.581	1	146
368.752	1	162
368.923	1	128
369.093	1	140
369.264	1	149
369.435	1	142
369.606	1	142
369.777	1	155
369.948	1	129
370.119	1	127
370.290	1	119
370.461	1	138
370.632	1	124
370.803	1	120
370.973	1	110
371.144	1	110
371.315	1	109
371.486	1	108
371.657	1	110
371.828	1	99
371.999	1	96
372.170	1	92
372.341	1	89
372.512	1	98
372.682	1	92
372.853	1	98
373.024	1	82
373.195	1	95
373.366	1	82
373.537	1	69
373.708	1	81
373.879	1	68
374.050	1	79
374.220	1	72
374.391	1	64
374.562	1	78
374.733	1	68
374.904	1	74
375.075	1	60
375.246	1	61
375.417	1	52
375.588	1	46
375.758	1	65
375.929	1	52
376.100	1	57
376.271	1	61
376.442	1	58
376.613	1	58
376.784	1	58
376.955	1	53
377.125	1	41
377.296	1	50
377.467	1	55
377.638	1	45
377.809	1	34
377.980	1	45
378.151	1	50
378.321	1	53
378.492	1	31
378.663	1	40
378.834	1	36
379.005	1	38
379.176	1	43
379.347	1	36
379.518	1	33
379.688	1	46
379.859	1	35
380.030	1	44
380.201	1	36
380.372	1	39
380.543	1	36
380.714	1	33
380.884	1	32
381.055	1	36
381.226	1	25
381.397	1	33
381.568	1	17
381.739	1	14
381.910	1	36
382.080	1	27
382.251	1	22
382.422	1	37
382.593	1	14
382.764	1	30
382.935	1	23
383.105	1	22
383.276	1	30
383.447	1	29
383.618	1	26
383.789	1	22
383.960	1	31
384.130	1	22
384.301	1	26
384.472	1	21
384.643	1	10
384.814	1	32
384.985	1	13
385.156	1	27
385.326	1	17
385.497	1	30
385.668	1	33
385.839	1	33
386.010	1	17
386.180	1	33
386.351	1	26
386.522	1	20
386.693	1	30
386.864	1	24
387.035	1	23
387.205	1	31
387.376	1	24
387.547	1	23
387.718	1	12
387.889	1	11
388.060	1	23
388.230	1	17
388.401	1	21
388.572	1	9
388.743	1	13
388.914	1	23
389.084	1	23
389.255	1	21
389.426	1	16
389.597	1	16
389.768	1	14
389.939	1	22
390.109	1	17
390.280	1	18
390.451	1	24
390.622	1	15
390.793	1	16
390.963	1	5
391.134	1	27
391.305	1	14
391.476	1	17
391.647	1	11
391.817	1	6
391.988	1	15
392.159	1	14
392.330	1	21
392.501	1	13
392.671	1	26
392.842	1	14
393.013	1	32
393.184	1	16
393.355	1	27
393.525	1	14
393.696	1	16
393.867	1	14
394.038	1	11
394.208	1	16
394.379	1	17
394.550	1	26
394.721	1	13
394.892	1	16
395.062	1	16
395.233	1	28
395.404	1	19
395.575	1	27
395.746	1	14
395.916	1	19
396.087	1	20
396.258	1	22
396.429	1	13
396.599	1	15
396.770	1	23
396.941	1	17
397.112	1	14
397.283	1	9
397.453	1	14
397.624	1	12
397.795	1	10
397.966	1	13
398.136	1	23
398.307	1	17
398.478	1	15
398.649	1	10
398.819	1	15
398.990	1	17
399.161	1	15
399.332	1	18
399.503	1	22
399.673	1	18
399.844	1	7
400.015	1	6
400.186	1	21
400.356	1	11
400.527	1	19
400.698	1	20
400.869	1	7
401.039	1	18
401.210	1	15
401.381	1	18
401.552	1	10
401.722	1	20
401.893	1	21
402.064	1	11
402.235	1	12
402.405	1	8
402.576	1	14
402.747	1	21
402.918	1	0
403.088	1	16
403.259	1	15
403.430	1	17
403.601	1	23
403.771	1	14
403.942	1	10
404.113	1	21
404.284	1	20
404.454	1	11
404.625	1	7
404.796	1	14
404.967	1	17
405.137	1	22
405.308	1	-1
405.479	1	20
405.649	1	18
405.820	1	13
405.991	1	21
406.162	1	5
406.332	1	9
406.503	1	17
406.674	1	12
406.845	1	14
407.015	1	19
407.186	1	11
407.357	1	22
407.527	1	5
407.698	1	24
407.869	1	13
408.040	1	23
408.210	1	20
408.381	1	2
408.552	1	12
408.722	1	23
408.893	1	11
409.064	1	12
409.235	1	4
409.405	1	21
409.576	1	3
409.747	1	24
409.917	1	25
410.088	1	13
410.259	1	19
410.430	1	18
410.600	1	12
410.771	1	12
410.942	1	25
411.112	1	16
411.283	1	11
411.454	1	15
411.625	1	8
411.795	1	22
411.966	1	19
412.137	1	15
412.307	1	15
412.478	1	12
412.649	1	19
412.819	1	22
412.990	1	16
413.161	1	16
413.332	1	12
413.502	1	20
413.673	1	20
413.844	1	32
414.014	1	17
414.185	1	12
414.356	1	22
414.526	1	8
414.697	1	20
414.868	1	15
415.038	1	10
415.209	1	15
415.380	1	18
415.550	1	8
415.721	1	13
415.892	1	21
416.063	1	21
416.233	1	21
416.404	1	17
416.575	1	11
416.745	1	9
416.916	1	5
417.087	1	18
417.257	1	15
417.428	1	10
417.599	1	21
417.769	1	10
417.940	1	11
418.111	1	7
418.281	1	23
418.452	1	8
418.623	1	12
418.793	1	9
418.964	1	28
419.135	1	15
419.305	1	19
419.476	1	15
419.647	1	15
419.817	1	14
419.988	1	30
420.159	1	22
420.329	1	22
420.500	1	14
420.671	1	23
420.841	1	18
421.012	1	7
421.183	1	22
421.353	1	27
421.524	1	21
421.695	1	23
421.865	1	13
422.036	1	16
422.206	1	19
422.377	1	16
422.548	1	14
422.718	1	20
422.889	1	10
423.060	1	20
423.230	1	17
423.401	1	14
423.572	1	15
423.742	1	20
423.913	1	5
424.084	1	14
424.254	1	13
424.425	1	27
424.595	1	20
424.766	1	18
424.937	1	21
425.107	1	18
425.278	1	12
425.449	1	14
425.619	1	14
425.790	1	15
425.961	1	29
426.131	1	11
426.302	1	11
426.472	1	23
426.643	1	9
426.814	1	16
426.984	1	10
427.155	1	8
427.326	1	11
427.496	1	18
427.667	1	9
427.837	1	8
428.008	1	21
428.179	1	31
428.349	1	28
428.520	1	14
428.691	1	18
428.861	1	26
429.032	1	17
429.202	1	3
429.373	1	8
429.544	1	14
429.714	1	24
429.885	1	21
430.055	1	15
430.226	1	5
430.397	1	11
430.567	1	9
430.738	1	21
430.909	1	5
431.079	1	18
431.250	1	20
431.420	1	19
431.591	1	10
431.762	1	10
431.932	1	17
432.103	1	21
432.273	1	29
432.444	1	15
432.615	1	7
432.785	1	5
432.956	1	9
433.126	1	16
433.297	1	5
433.468	1	7
433.638	1	17
433.809	1	10
433.979	1	11
434.150	1	20
434.320	1	10
434.491	1	28
434.662	1	23
434.832	1	18
435.003	1	26
435.173	1	11
435.344	1	11
435.515	1	9
435.685	1	8
435.856	1	16
436.026	1	17
436.197	1	9
436.368	1	16
436.538	1	11
436.709	1	12
436.879	1	13
437.050	1	6
437.220	1	16
437.391	1	20
437.562	1	20
437.732	1	18
437.903	1	18
438.073	1	11
438.244	1	23
438.414	1	24
438.585	1	18
438.756	1	10
438.926	1	11
439.097	1	10
439.267	1	22
439.438	1	15
439.608	1	1
439.779	1	19
439.949	1	20
440.120	1	10
440.291	1	20
440.461	1	19
440.632	1	13
440.802	1	12
440.973	1	14
441.143	1	15
441.314	1	11
441.485	1	10
441.655	1	22
441.826	1	14
441.996	1	11
442.167	1	12
442.337	1	11
442.508	1	14
442.678	1	23
442.849	1	20
443.019	1	19
443.190	1	11
443.361	1	15
443.531	1	12
443.702	1	19
443.872	1	0
444.043	1	22
444.213	1	8
444.384	1	15
444.554	1	17
444.725	1	15
444.895	1	6
445.066	1	17
445.237	1	14
445.407	1	11
445.578	1	4
445.748	1	10
445.919	1	10
446.089	1	24
446.260	1	24
446.430	1	22
446.601	1	18
446.771	1	13
446.942	1	16
447.112	1	12
447.283	1	14
447.453	1	6
447.624	1	6
447.794	1	3
447.965	1	11
448.135	1	26
448.306	1	16
448.477	1	16
448.647	1	8
448.818	1	15
448.988	1	21
449.159	1	14
449.329	1	17
449.500	1	10
449.670	1	15
449.841	1	20
450.011	1	9
450.182	1	10
450.352	1	14
450.523	1	8
450.693	1	19
450.864	1	13
451.034	1	6
451.205	1	18
451.375	1	13
451.546	1	18
451.716	1	17
451.887	1	22
452.057	1	7
452.228	1	9
452.398	1	14
452.569	1	13
452.739	1	12
452.910	1	3
453.080	1	14
453.251	1	7
453.421	1	13
453.592	1	10
453.762	1	11
453.933	1	5
454.103	1	15
454.274	1	8
454.444	1	17
454.615	1	11
454.785	1	14
454.956	1	10
455.126	1	10
455.297	1	14
455.467	1	8
455.638	1	10
455.808	1	16
455.979	1	10
456.149	1	8
456.320	1	13
456.490	1	6
456.661	1	5
456.831	1	8
457.001	1	16
457.172	1	14
457.342	1	10
457.513	1	9
457.683	1	9
457.854	1	7
458.024	1	9
458.195	1	3
458.365	1	3
458.536	1	8
458.706	1	22
458.877	1	14
459.047	1	5
459.218	1	13
459.388	1	11
459.559	1	12
459.729	1	11
459.899	1	14
460.070	1	21
460.240	1	12
460.411	1	21
460.581	1	1
460.752	1	0
460.922	1	5
461.093	1	4
461.263	1	10
461.434	1	-4
461.604	1	10
461.775	1	8
461.945	1	12
462.115	1	3
462.286	1	2
462.456	1	12
462.627	1	9
462.797	1	11
462.968	1	22
463.138	1	9
463.309	1	17
463.479	1	5
463.649	1	7
463.820	1	18
463.990	1	6
464.161	1	4
464.331	1	11
464.502	1	3
464.672	1	10
464.843	1	11
465.013	1	10
465.183	1	0
465.354	1	11
465.524	1	11
465.695	1	9
465.865	1	14
466.036	1	17
466.206	1	0
466.376	1	36
466.547	1	18
466.717	1	-7
466.888	1	8
467.058	1	14
467.229	1	17
467.399	1	8
467.569	1	14
467.740	1	23
467.910	1	15
468.081	1	11
468.251	1	2
468.422	1	17
468.592	1	0
468.762	1	11
468.933	1	16
469.103	1	15
469.274	1	0
469.444	1	17
469.614	1	12
469.785	1	3
469.955	1	7
470.126	1	12
470.296	1	12
470.467	1	11
470.637	1	8
470.807	1	13
470.978	1	3
471.148	1	6
471.319	1	3
471.489	1	19
471.659	1	1
471.830	1	5
472.000	1	-5
472.171	1	19
472.341	1	13
472.511	1	7
472.682	1	20
472.852	1	19
473.023	1	12
473.193	1	17
473.363	1	10
473.534	1	11
473.704	1	9
473.875	1	8
474.045	1	4
474.215	1	4
474.386	1	4
474.556	1	5
474.727	1	4
474.897	1	6
475.067	1	3
475.238	1	8
475.408	1	22
475.578	1	4
475.749	1	2
475.919	1	3
476.090	1	12
476.260	1	4
476.430	1	-10
476.601	1	7
476.771	1	10
476.942	1	8
477.112	1	18
477.282	1	1
477.453	1	2
477.623	1	15
477.793	1	7
477.964	1	15
478.134	1	17
478.305	1	13
478.475	1	10
478.645	1	8
478.816	1	13
478.986	1	8
479.156	1	7
479.327	1	16
479.497	1	7
479.667	1	17
479.838	1	19
480.008	1	21
480.179	1	14
480.349	1	5
480.519	1	9
480.690	1	17
480.860	1	4
481.030	1	4
481.201	1	7
481.371	1	7
481.541	1	-3
481.712	1	11
481.882	1	3
482.053	1	22
482.223	1	13
482.393	1	0
482.564	1	15
482.734	1	10
482.904	1	6
483.075	1	9
483.245	1	8
483.415	1	10
483.586	1	7
483.756	1	9
483.926	1	13
484.097	1	14
484.267	1	13
484.437	1	10
484.608	1	12
484.778	1	7
484.948	1	17
485.119	1	13
485.289	1	3
485.459	1	4
485.630	1	14
485.800	1	1
485.970	1	-7
486.141	1	16
486.311	1	13
486.481	1	-3
486.652	1	8
486.822	1	20
486.992	1	16
487.163	1	6
487.333	1	5
487.503	1	11
487.674	1	6
487.844	1	7
488.014	1	26
488.185	1	17
488.355	1	10
488.525	1	5
488.696	1	15
488.866	1	7
489.036	1	27
489.207	1	18
489.377	1	21
489.547	1	17
489.718	1	7
489.888	1	17
490.058	1	18
490.228	1	15
490.399	1	20
490.569	1	14
490.739	1	9
490.910	1	15
491.080	1	21
491.250	1	31
491.421	1	20
491.591	1	10
491.761	1	18
491.932	1	20
492.102	1	21
492.272	1	10
492.442	1	12
492.613	1	16
492.783	1	24
492.953	1	15
493.124	1	22
493.294	1	9
493.464	1	6
493.635	1	20
493.805	1	19
493.975	1	24
494.145	1	4
494.316	1	10
494.486	1	5
494.656	1	23
494.827	1	20
494.997	1	9
495.167	1	29
495.337	1	11
495.508	1	20
495.678	1	12
495.848	1	14
496.019	1	8
496.189	1	9
496.359	1	19
496.529	1	26
496.700	1	23
496.870	1	23
497.040	1	11
497.211	1	15
497.381	1	18
497.551	1	17
497.721	1	13
497.892	1	18
498.062	1	15
498.232	1	13
498.403	1	20
498.573	1	16
498.743	1	19
498.913	1	17
499.084	1	26
499.254	1	15
499.424	1	19
499.594	1	19
499.765	1	19
499.935	1	28
500.105	1	38
500.275	1	14
500.446	1	16
500.616	1	26
500.786	1	14
500.956	1	28
501.127	1	19
501.297	1	19
501.467	1	24
501.638	1	18
501.808	1	24
501.978	1	18
502.148	1	14
502.319	1	26
502.489	1	29
502.659	1	33
502.829	1	13
503.000	1	31
503.170	1	21
503.340	1	16
503.510	1	21
503.681	1	31
503.851	1	24
504.021	1	25
504.191	1	22
504.362	1	21
504.532	1	24
504.702	1	7
504.872	1	32
505.042	1	26
505.213	1	28
505.383	1	34
505.553	1	31
505.723	1	32
505.894	1	26
506.064	1	21
506.234	1	37
506.404	1	21
506.575	1	45
506.745	1	23
506.915	1	22
507.085	1	39
507.256	1	39
507.426	1	23
507.596	1	37
507.766	1	30
507.936	1	31
508.107	1	23
508.277	1	35
508.447	1	22
508.617	1	32
508.788	1	24
508.958	1	22
509.128	1	34
509.298	1	22
509.468	1	32
509.639	1	30
509.809	1	32
509.979	1	25
510.149	1	25
510.319	1	29
510.490	1	27
510.660	1	36
510.830	1	22
511.000	1	31
511.171	1	35
511.341	1	49
511.511	1	29
511.681	1	35
511.851	1	42
512.022	1	21
512.192	1	35
512.362	1	44
512.532	1	44
512.702	1	31
512.873	1	33
513.043	1	32
513.213	1	39
513.383	1	39
513.553	1	42
513.724	1	31
513.894	1	26
514.064	1	29
514.234	1	34
514.404	1	38
514.575	1	35
514.745	1	27
514.915	1	39
515.085	1	38
515.255	1	24
515.425	1	38
515.596	1	42
515.766	1	32
515.936	1	32
516.106	1	31
516.276	1	38
516.447	1	38
516.617	1	36
516.787	1	25
516.957	1	28
517.127	1	45
517.297	1	41
517.468	1	42
517.638	1	37
517.808	1	30
517.978	1	32
518.148	1	45
518.319	1	36
518.489	1	45
518.659	1	46
518.829	1	38
518.999	1	52
519.169	1	29
519.340	1	44
519.510	1	32
519.680	1	46
519.850	1	42
520.020	1	34
520.190	1	40
520.361	1	38
520.531	1	42
520.701	1	35
520.871	1	41
521.041	1	42
521.211	1	43
521.382	1	36
521.552	1	36
521.722	1	37
521.892	1	40
522.062	1	33
522.232	1	46
522.402	1	51
522.573	1	36
522.743	1	40
522.913	1	33
523.083	1	47
523.253	1	48
523.423	1	41
523.593	1	49
523.764	1	32
523.934	1	41
524.104	1	39
524.274	1	43
524.444	1	32
524.614	1	39
524.784	1	32
524.955	1	46
525.125	1	35
525.295	1	43
525.465	1	44
525.635	1	39
525.805	1	40
525.975	1	44
526.146	1	36
526.316	1	32
526.486	1	43
526.656	1	44
526.826	1	34
526.996	1	47
527.166	1	35
527.337	1	44
527.507	1	52
527.677	1	40
527.847	1	35
528.017	1	38
528.187	1	50
528.357	1	43
528.527	1	43
528.698	1	48
528.868	1	37
529.038	1	38
529.208	1	43
529.378	1	38
529.548	1	53
529.718	1	40
529.888	1	43
530.058	1	34
530.229	1	46
530.399	1	50
530.569	1	33
530.739	1	50
530.909	1	45
531.079	1	35
531.249	1	43
531.419	1	45
531.589	1	35
531.760	1	49
531.930	1	37
532.100	1	52
532.270	1	50
532.440	1	32
532.610	1	48
532.780	1	42
532.950	1	57
533.120	1	38
533.290	1	41
533.461	1	26
533.631	1	44
533.801	1	34
533.971	1	36
534.141	1	41
534.311	1	42
534.481	1	51
534.651	1	20
534.821	1	33
534.991	1	42
535.162	1	51
535.332	1	41
535.502	1	34
535.672	1	37
535.842	1	26
536.012	1	39
536.182	1	41
536.352	1	43
536.522	1	38
536.692	1	38
536.862	1	35
537.032	1	36
537.203	1	37
537.373	1	33
537.543	1	49
537.713	1	29
537.883	1	40
538.053	1	42
538.223	1	43
538.393	1	33
538.563	1	22
538.733	1	48
538.903	1	30
539.073	1	25
539.243	1	51
539.413	1	29
539.584	1	35
539.754	1	30
539.924	1	27
540.094	1	48
540.264	1	42
540.434	1	41
540.604	1	35
540.774	1	32
540.944	1	40
541.114	1	49
541.284	1	32
541.454	1	33
541.624	1	35
541.794	1	32
541.964	1	34
542.134	1	35
542.305	1	43
542.475	1	40
542.645	1	29
542.815	1	32
542.985	1	32
543.155	1	37
543.325	1	42
543.495	1	40
543.665	1	32
543.835	1	37
544.005	1	31
544.175	1	28
544.345	1	43
544.515	1	34
544.685	1	41
544.855	1	31
545.025	1	45
545.195	1	29
545.365	1	38
545.535	1	31
545.705	1	41
545.875	1	38
546.045	1	40
546.216	1	24
546.386	1	32
546.556	1	36
546.726	1	41
546.896	1	44
547.066	1	27
547.236	1	39
547.406	1	29
547.576	1	32
547.746	1	32
547.916	1	42
548.086	1	36
548.256	1	35
548.426	1	29
548.596	1	38
548.766	1	44
548.936	1	33
549.106	1	28
549.276	1	42
549.446	1	38
549.616	1	42
549.786	1	38
549.956	1	37
550.126	1	37
550.296	1	31
550.466	1	34
550.636	1	36
550.806	1	44
550.976	1	41
551.146	1	32
551.316	1	31
551.486	1	34
551.656	1	34
551.826	1	26
551.996	1	35
552.166	1	36
552.336	1	30
552.506	1	32
552.676	1	44
552.846	1	35
553.016	1	27
553.186	1	30
553.356	1	36
553.526	1	30
553.696	1	25
553.866	1	27
554.036	1	39
554.206	1	33
554.376	1	42
554.546	1	39
554.716	1	26
554.886	1	26
555.056	1	29
555.226	1	35
555.396	1	34
555.566	1	31
555.736	1	36
555.906	1	28
556.076	1	32
556.246	1	25
556.416	1	35
556.586	1	30
556.756	1	10
556.926	1	29
557.096	1	34
557.266	1	28
557.436	1	39
557.606	1	21
557.776	1	28
557.946	1	27
558.116	1	32
558.286	1	7
558.456	1	24
558.626	1	36
558.796	1	37
558.966	1	33
559.136	1	28
559.306	1	36
559.476	1	27
559.646	1	30
559.816	1	23
559.986	1	29
560.155	1	33
560.325	1	27
560.495	1	34
560.665	1	25
560.835	1	14
561.005	1	28
561.175	1	23
561.345	1	24
561.515	1	30
561.685	1	28
561.855	1	25
562.025	1	35
562.195	1	14
562.365	1	28
562.535	1	14
562.705	1	31
562.875	1	25
563.045	1	28
563.215	1	25
563.385	1	28
563.555	1	24
563.725	1	22
563.895	1	19
564.064	1	16
564.234	1	16
564.404	1	13
564.574	1	15
564.744	1	24
564.914	1	38
565.084	1	23
565.254	1	34
565.424	1	26
565.594	1	15
565.764	1	28
565.934	1	38
566.104	1	24
566.274	1	34
566.444	1	25
566.614	1	16
566.783	1	24
566.953	1	35
567.123	1	17
567.293	1	20
567.463	1	33
567.633	1	20
567.803	1	22
567.973	1	23
568.143	1	7
568.313	1	20
568.483	1	30
568.653	1	28
568.823	1	15
568.993	1	27
569.162	1	19
569.332	1	9
569.502	1	32
569.672	1	24
569.842	1	20
570.012	1	13
570.182	1	17
570.352	1	25
570.522	1	19
570.692	1	22
570.862	1	7
571.031	1	27
571.201	1	31
571.371	1	17
571.541	1	16
571.711	1	18
571.881	1	14
572.051	1	23
572.221	1	13
572.391	1	27
572.561	1	22
572.731	1	17
572.900	1	26
573.070	1	21
573.240	1	15
573.410	1	20
573.580	1	15
573.750	1	15
573.920	1	22
574.090	1	26
574.260	1	16
574.430	1	22
574.599	1	19
574.769	1	23
574.939	1	10
575.109	1	24
575.279	1	15
575.449	1	14
575.619	1	15
575.789	1	15
575.959	1	16
576.128	1	18
576.298	1	12
576.468	1	16
576.638	1	23
576.808	1	19
576.978	1	19
577.148	1	14
577.318	1	17
577.487	1	4
577.657	1	9
577.827	1	14
577.997	1	17
578.167	1	23
578.337	1	13
578.507	1	23
578.677	1	21
578.846	1	14
579.016	1	12
579.186	1	20
579.356	1	19
579.526	1	6
579.696	1	16
579.866	1	11
580.036	1	18
580.205	1	21
580.375	1	19
580.545	1	16
580.715	1	13
580.885	1	19
581.055	1	17
581.225	1	18
581.394	1	17
581.564	1	11
581.734	1	17
581.904	1	11
582.074	1	16
582.244	1	10
582.414	1	20
582.583	1	14
582.753	1	19
582.923	1	10
583.093	1	18
583.263	1	10
583.433	1	24
583.603	1	20
583.772	1	16
583.942	1	6
584.112	1	17
584.282	1	21
584.452	1	19
584.622	1	12
584.791	1	20
584.961	1	-2
585.131	1	16
585.301	1	11
585.471	1	19
585.641	1	20
585.811	1	19
585.980	1	16
586.150	1	28
586.320	1	2
586.490	1	12
586.660	1	11
586.830	1	14
586.999	1	15
587.169	1	14
587.339	1	10
587.509	1	19
587.679	1	21
587.849	1	22
588.018	1	12
588.188	1	18
588.358	1	27
588.528	1	1
588.698	1	13
588.867	1	13
589.037	1	13
589.207	1	16
589.377	1	17
589.547	1	17
589.717	1	15
589.886	1	15
590.056	1	15
590.226	1	11
590.396	1	20
590.566	1	5
590.735	1	24
590.905	1	-1
591.075	1	13
591.245	1	5
591.415	1	6
591.585	1	7
591.754	1	16
591.924	1	5
592.094	1	14
592.264	1	5
592.434	1	8
592.603	1	-2
592.773	1	6
592.943	1	15
593.113	1	5
593.283	1	17
593.452	1	13
593.622	1	7
593.792	1	2
593.962	1	13
594.132	1	7
594.301	1	5
594.471	1	-5
594.641	1	11
594.811	1	11
594.981	1	14
595.150	1	2
595.320	1	17
595.490	1	7
595.660	1	14
595.829	1	7
595.999	1	15
596.169	1	21
596.339	1	10
596.509	1	13
596.678	1	7
596.848	1	20
597.018	1	-1
597.188	1	16
597.358	1	3
597.527	1	15
597.697	1	2
597.867	1	9
598.037	1	19
598.206	1	8
598.376	1	8
598.546	1	15
598.716	1	21
598.885	1	18
599.055	1	15
599.225	1	8
599.395	1	12
599.565	1	6
599.734	1	7
599.904	1	17
600.074	1	4
600.244	1	13
600.413	1	6
600.583	1	8
600.753	1	10
600.923	1	15
601.092	1	5
601.262	1	-6
601.432	1	2
601.602	1	18
601.771	1	17
601.941	1	7
602.111	1	10
602.281	1	13
602.451	1	7
602.620	1	24
602.790	1	16
602.960	1	3
603.130	1	7
603.299	1	22
603.469	1	11
603.639	1	13
603.809	1	15
603.978	1	13
604.148	1	3
604.318	1	10
604.487	1	10
604.657	1	-2
604.827	1	13
604.997	1	15
605.166	1	17
605.336	1	18
605.506	1	11
605.676	1	3
605.845	1	19
606.015	1	6
606.185	1	1
606.355	1	-2
606.524	1	8
606.694	1	22
606.864	1	21
607.034	1	7
607.203	1	15
607.373	1	7
607.543	1	18
607.712	1	4
607.882	1	14
608.052	1	4
608.222	1	7
608.391	1	9
608.561	1	6
608.731	1	1
608.901	1	18
609.070	1	1
609.240	1	12
609.410	1	12
609.579	1	6
609.749	1	9
609.919	1	8
610.089	1	15
610.258	1	16
610.428	1	11
610.598	1	2
610.767	1	15
610.937	1	6
611.107	1	11
611.277	1	12
611.446	1	14
611.616	1	13
611.786	1	8
611.955	1	-2
612.125	1	10
612.295	1	11
612.465	1	5
612.634	1	14
612.804	1	4
612.974	1	9
613.143	1	4
613.313	1	14
613.483	1	11
613.652	1	23
613.822	1	10
613.992	1	4
614.162	1	15
614.331	1	20
614.501	1	9
614.671	1	14
614.840	1	15
615.010	1	9
615.180	1	4
615.349	1	3
615.519	1	2
615.689	1	4
615.858	1	8
616.028	1	26
616.198	1	20
616.368	1	18
616.537	1	-1
616.707	1	9
616.877	1	9
617.046	1	6
617.216	1	6
617.386	1	15
617.555	1	15
617.725	1	2
617.895	1	17
618.064	1	6
618.234	1	4
618.404	1	-10
618.573	1	11
618.743	1	10
618.913	1	9
619.082	1	18
619.252	1	-2
619.422	1	26
619.591	1	13
619.761	1	9
619.931	1	12
620.100	1	4
620.270	1	5
620.440	1	12
620.609	1	4
620.779	1	19
620.949	1	11
621.118	1	18
621.288	1	11
621.458	1	5
621.627	1	19
621.797	1	1
621.967	1	13
622.136	1	10
622.306	1	11
622.476	1	5
622.645	1	19
622.815	1	12
622.985	1	9
623.154	1	1
623.324	1	12
623.494	1	6
623.663	1	11
623.833	1	8
624.002	1	9
624.172	1	13
624.342	1	9
624.511	1	-2
624.681	1	9
624.851	1	11
625.020	1	4
625.190	1	2
625.360	1	10
625.529	1	4
625.699	1	6
625.869	1	20
626.038	1	13
626.208	1	0
626.377	1	7
626.547	1	3
626.717	1	18
626.886	1	3
627.056	1	7
627.226	1	11
627.395	1	2
627.565	1	12
627.735	1	11
627.904	1	12
628.074	1	3
628.243	1	12
628.413	1	8
628.583	1	11
628.752	1	3
628.922	1	15
629.091	1	8
629.261	1	15
629.431	1	8
629.600	1	11
629.770	1	19
629.940	1	15
630.109	1	5
630.279	1	7
630.448	1	13
630.618	1	19
630.788	1	2
630.957	1	10
631.127	1	11
631.297	1	10
631.466	1	-2
631.636	1	5
631.805	1	6
631.975	1	8
632.145	1	5
632.314	1	5
632.484	1	13
632.653	1	-3
632.823	1	3
632.993	1	9
633.162	1	3
633.332	1	6
633.501	1	6
633.671	1	7
633.841	1	8
634.010	1	7
634.180	1	0
634.349	1	12
634.519	1	5
634.689	1	7
634.858	1	7
635.028	1	6
635.197	1	1
635.367	1	14
635.537	1	9
635.706	1	6
635.876	1	5
636.045	1	1
636.215	1	2
636.384	1	15
636.554	1	-1
636.724	1	8
636.893	1	17
637.063	1	-4
637.232	1	15
637.402	1	15
637.572	1	16
637.741	1	10
637.911	1	6
638.080	1	7
638.250	1	-1
638.419	1	4
638.589	1	9
638.759	1	1
638.928	1	1
639.098	1	4
639.267	1	15
639.437	1	16
639.606	1	10
639.776	1	6
639.946	1	10
640.115	1	1
640.285	1	1
640.454	1	-10
640.624	1	6
640.793	1	5
640.963	1	12
641.132	1	2
641.302	1	11
641.472	1	21
641.641	1	9
641.811	1	8
641.980	1	8
642.150	1	7
642.319	1	10
642.489	1	10
642.659	1	10
642.828	1	17
642.998	1	8
643.167	1	15
643.337	1	9
643.506	1	5
643.676	1	12
643.845	1	19
644.015	1	6
644.184	1	14
644.354	1	16
644.524	1	6
644.693	1	-3
644.863	1	3
645.032	1	3
645.202	1	-3
645.371	1	6
645.541	1	14
645.710	1	15
645.880	1	5
646.049	1	14
646.219	1	16
646.388	1	13
646.558	1	1
646.728	1	5
646.897	1	8
647.067	1	11
647.236	1	2
647.406	1	12
647.575	1	16
647.745	1	2
647.914	1	8
648.084	1	1
648.253	1	19
648.423	1	17
648.592	1	3
648.762	1	8
648.931	1	15
649.101	1	7
649.270	1	16
649.440	1	10
649.610	1	14
649.779	1	14
649.949	1	1
650.118	1	6
650.288	1	8
650.457	1	10
650.627	1	5
650.796	1	14
650.966	1	7
651.135	1	9
651.305	1	10
651.474	1	7
651.644	1	20
651.813	1	2
651.983	1	5
652.152	1	11
652.322	1	7
652.491	1	6
652.661	1	12
652.830	1	3
653.000	1	18
653.169	1	-4
653.339	1	8
653.508	1	10
653.678	1	12
653.847	1	9
654.017	1	9
654.186	1	12
654.356	1	7
654.525	1	15
654.695	1	7
654.864	1	4
655.034	1	1
655.203	1	9
655.373	1	9
655.542	1	2
655.712	1	18
655.881	1	-3
656.051	1	-5
656.220	1	11
656.390	1	9
656.559	1	7
656.729	1	15
656.898	1	-1
657.068	1	13
657.237	1	6
657.406	1	6
657.576	1	12
657.745	1	13
657.915	1	16
658.084	1	11
658.254	1	6
658.423	1	11
658.593	1	6
658.762	1	7
658.932	1	9
659.101	1	3
659.271	1	7
659.440	1	10
659.610	1	10
659.779	1	18
659.949	1	0
660.118	1	12
660.288	1	2
660.457	1	9
660.626	1	6
660.796	1	7
660.965	1	4
661.135	1	17
661.304	1	17
661.474	1	8
661.643	1	13
661.813	1	3
661.982	1	-3
662.152	1	6
662.321	1	8
662.491	1	3
662.660	1	8
662.829	1	13
662.999	1	8
663.168	1	6
663.338	1	7
663.507	1	11
663.677	1	1
663.846	1	6
664.016	1	-3
664.185	1	11
664.354	1	9
664.524	1	18
664.693	1	6
664.863	1	6
665.032	1	11
665.202	1	4
665.371	1	11
665.541	1	11
665.710	1	11
665.879	1	10
666.049	1	12
666.218	1	15
666.388	1	7
666.557	1	5
666.727	1	9
666.896	1	11
667.065	1	8
667.235	1	9
667.404	1	1
667.574	1	8
667.743	1	5
667.913	1	17
668.082	1	12
668.251	1	-2
668.421	1	6
668.590	1	3
668.760	1	2
668.929	1	7
669.099	1	2
669.268	1	8
669.437	1	-3
669.607	1	-1
669.776	1	-4
669.946	1	6
670.115	1	8
670.285	1	8
670.454	1	16
670.623	1	-7
670.793	1	4
670.962	1	-3
671.132	1	-6
671.301	1	5
671.470	1	9
671.640	1	11
671.809	1	9
671.979	1	0
672.148	1	18
672.317	1	13
672.487	1	6
672.656	1	4
672.826	1	9
672.995	1	7
673.164	1	-5
673.334	1	-4
673.503	1	11
673.673	1	12
673.842	1	10
674.011	1	10
674.181	1	6
674.350	1	7
674.520	1	4
674.689	1	0
674.858	1	3
675.028	1	10
675.197	1	14
675.367	1	9
675.536	1	0
675.705	1	1
675.875	1	1
676.044	1	1
676.214	1	2
676.383	1	6
676.552	1	-1
676.722	1	7
676.891	1	9
677.060	1	9
677.230	1	12
677.399	1	19
677.569	1	13
677.738	1	2
677.907	1	18
678.077	1	0
678.246	1	12
678.416	1	0
678.585	1	0
678.754	1	6
678.924	1	7
679.093	1	14
679.262	1	6
679.432	1	-3
679.601	1	22
679.771	1	5
679.940	1	4
680.109	1	5
680.279	1	5
680.448	1	8
680.617	1	9
680.787	1	-3
680.956	1	17
681.125	1	7
681.295	1	4
681.464	1	12
681.634	1	6
681.803	1	-5
681.972	1	7
682.142	1	11
682.311	1	14
682.480	1	1
682.650	1	4
682.819	1	5
682.988	1	13
683.158	1	5
683.327	1	7
683.496	1	7
683.666	1	9
683.835	1	21
684.004	1	-3
684.174	1	8
684.343	1	10
684.512	1	7
684.682	1	14
684.851	1	9
685.021	1	19
685.190	1	8
685.359	1	9
685.529	1	-6
685.698	1	-1
685.867	1	4
686.037	1	9
686.206	1	3
686.375	1	5
686.545	1	6
686.714	1	17
686.883	1	7
687.053	1	20
687.222	1	-3
687.391	1	8
687.561	1	5
687.730	1	8
687.899	1	4
688.069	1	7
688.238	1	19
688.407	1	8
688.577	1	5
688.746	1	12
