340.368	1	11
340.539	1	7
340.710	1	5
340.881	1	-3
341.052	1	10
341.223	1	17
341.394	1	-7
341.565	1	3
341.737	1	12
341.908	1	12
342.079	1	9
342.250	1	15
342.421	1	-6
342.592	1	14
342.763	1	10
342.934	1	5
343.105	1	4
343.276	1	3
343.447	1	2
343.618	1	10
343.789	1	3
343.960	1	6
344.131	1	-6
344.302	1	14
344.473	1	3
344.644	1	5
344.815	1	9
344.986	1	8
345.157	1	15
345.328	1	-3
345.499	1	12
345.670	1	3
345.841	1	6
346.012	1	1
346.183	1	3
346.354	1	1
346.526	1	4
346.697	1	7
346.868	1	-6
347.039	1	4
347.210	1	-5
347.381	1	4
347.552	1	15
347.723	1	14
347.894	1	-1
348.065	1	-2
348.236	1	10
348.407	1	16
348.578	1	13
348.749	1	7
348.920	1	4
349.091	1	7
349.262	1	7
349.433	1	0
349.604	1	-3
349.775	1	7
349.946	1	4
350.117	1	10
350.288	1	2
350.459	1	5
350.630	1	-1
350.801	1	-1
350.972	1	11
351.143	1	1
351.314	1	4
351.485	1	9
351.656	1	13
351.827	1	21
351.998	1	3
352.169	1	12
352.340	1	7
352.511	1	3
352.682	1	-5
352.853	1	-5
353.024	1	19
353.195	1	-6
353.366	1	6
353.537	1	1
353.708	1	8
353.879	1	13
354.050	1	-5
354.221	1	-10
354.392	1	-5
354.563	1	18
354.734	1	8
354.905	1	4
355.076	1	22
355.247	1	4
355.418	1	4
355.589	1	14
355.760	1	8
355.931	1	10
356.102	1	0
356.273	1	15
356.444	1	8
356.615	1	10
356.785	1	9
356.956	1	14
357.127	1	16
357.298	1	-4
357.469	1	13
357.640	1	9
357.811	1	2
357.982	1	18
358.153	1	-2
358.324	1	12
358.495	1	16
358.666	1	12
358.837	1	24
359.008	1	12
359.179	1	15
359.350	1	8
359.521	1	28
359.692	1	1
359.863	1	6
360.034	1	9
360.205	1	19
360.376	1	15
360.547	1	20
360.718	1	13
360.889	1	9
361.060	1	24
361.231	1	20
361.401	1	18
361.572	1	18
361.743	1	12
361.914	1	18
362.085	1	21
362.256	1	33
362.427	1	20
362.598	1	26
362.769	1	34
362.940	1	29
363.111	1	16
363.282	1	22
363.453	1	25
363.624	1	27
363.795	1	29
363.966	1	38
364.137	1	37
364.308	1	34
364.478	1	39
364.649	1	37
364.820	1	52
364.991	1	41
365.162	1	48
365.333	1	46
365.504	1	34
365.675	1	54
365.846	1	48
366.017	1	56
366.188	1	54
366.359	1	41
366.530	1	57
366.701	1	41
366.871	1	55
367.042	1	61
367.213	1	66
367.384	1	53
367.555	1	73
367.726	1	75
367.897	1	61
368.068	1	71
368.239	1	62
368.410	1	57
368.581	1	54
368.752	1	81
368.923	1	50
369.093	1	62
369.264	1	63
369.435	1	65
369.606	1	56
369.777	1	65
369.948	1	59
370.119	1	56
370.290	1	56
370.461	1	59
370.632	1	48
370.803	1	55
370.973	1	55
371.144	1	53
371.315	1	49
371.486	1	54
371.657	1	50
371.828	1	50
371.999	1	39
372.170	1	43
372.341	1	43
372.512	1	40
372.682	1	44
372.853	1	49
373.024	1	27
373.195	1	30
373.366	1	29
373.537	1	33
373.708	1	30
373.879	1	28
374.050	1	44
374.220	1	43
374.391	1	30
374.562	1	43
374.733	1	24
374.904	1	39
375.075	1	25
375.246	1	26
375.417	1	33
375.588	1	26
375.758	1	37
375.929	1	44
376.100	1	29
376.271	1	27
376.442	1	34
376.613	1	32
376.784	1	19
376.955	1	23
377.125	1	12
377.296	1	22
377.467	1	32
377.638	1	13
377.809	1	11
377.980	1	14
378.151	1	13
378.321	1	26
378.492	1	16
378.663	1	17
378.834	1	30
379.005	1	14
379.176	1	15
379.347	1	15
379.518	1	21
379.688	1	26
379.859	1	10
380.030	1	32
380.201	1	5
380.372	1	18
380.543	1	16
380.714	1	7
380.884	1	23
381.055	1	9
381.226	1	16
381.397	1	16
381.568	1	4
381.739	1	7
381.910	1	21
382.080	1	14
382.251	1	8
382.422	1	22
382.593	1	10
382.764	1	16
382.935	1	14
383.105	1	12
383.276	1	11
383.447	1	10
383.618	1	13
383.789	1	10
383.960	1	14
384.130	1	13
384.301	1	6
384.472	1	8
384.643	1	10
384.814	1	19
384.985	1	6
385.156	1	11
385.326	1	-2
385.497	1	23
385.668	1	14
385.839	1	16
386.010	1	9
386.180	1	16
386.351	1	11
386.522	1	18
386.693	1	6
386.864	1	-4
387.035	1	10
387.205	1	8
387.376	1	11
387.547	1	7
387.718	1	10
387.889	1	7
388.060	1	18
388.230	1	7
388.401	1	9
388.572	1	7
388.743	1	6
388.914	1	9
389.084	1	17
389.255	1	12
389.426	1	9
389.597	1	11
389.768	1	5
389.939	1	18
390.109	1	14
390.280	1	5
390.451	1	19
390.622	1	1
390.793	1	11
390.963	1	5
391.134	1	10
391.305	1	3
391.476	1	17
391.647	1	8
391.817	1	5
391.988	1	10
392.159	1	-4
392.330	1	2
392.501	1	6
392.671	1	6
392.842	1	8
393.013	1	8
393.184	1	-1
393.355	1	12
393.525	1	3
393.696	1	10
393.867	1	7
394.038	1	9
394.208	1	3
394.379	1	12
394.550	1	12
394.721	1	8
394.892	1	17
395.062	1	11
395.233	1	11
395.404	1	10
395.575	1	11
395.746	1	1
395.916	1	15
396.087	1	17
396.258	1	18
396.429	1	13
396.599	1	15
396.770	1	6
396.941	1	8
397.112	1	9
397.283	1	14
397.453	1	-4
397.624	1	10
397.795	1	1
397.966	1	14
398.136	1	20
398.307	1	12
398.478	1	13
398.649	1	4
398.819	1	16
398.990	1	14
399.161	1	10
399.332	1	14
399.503	1	19
399.673	1	11
399.844	1	7
400.015	1	16
400.186	1	17
400.356	1	1
400.527	1	17
400.698	1	9
400.869	1	8
401.039	1	3
401.210	1	15
401.381	1	12
401.552	1	5
401.722	1	11
401.893	1	11
402.064	1	6
402.235	1	7
402.405	1	1
402.576	1	15
402.747	1	15
402.918	1	2
403.088	1	17
403.259	1	-6
403.430	1	12
403.601	1	12
403.771	1	1
403.942	1	8
404.113	1	9
404.284	1	24
404.454	1	14
404.625	1	5
404.796	1	14
404.967	1	9
405.137	1	23
405.308	1	-3
405.479	1	12
405.649	1	11
405.820	1	9
405.991	1	11
406.162	1	8
406.332	1	8
406.503	1	3
406.674	1	7
406.845	1	20
407.015	1	22
407.186	1	8
407.357	1	16
407.527	1	7
407.698	1	15
407.869	1	7
408.040	1	22
408.210	1	23
408.381	1	2
408.552	1	11
408.722	1	11
408.893	1	5
409.064	1	16
409.235	1	6
409.405	1	13
409.576	1	10
409.747	1	0
409.917	1	21
410.088	1	15
410.259	1	10
410.430	1	24
410.600	1	9
410.771	1	17
410.942	1	16
411.112	1	2
411.283	1	22
411.454	1	13
411.625	1	12
411.795	1	2
411.966	1	9
412.137	1	-1
412.307	1	19
412.478	1	17
412.649	1	24
412.819	1	10
412.990	1	12
413.161	1	11
413.332	1	9
413.502	1	11
413.673	1	15
413.844	1	17
414.014	1	6
414.185	1	7
414.356	1	20
414.526	1	7
414.697	1	12
414.868	1	11
415.038	1	18
415.209	1	7
415.380	1	15
415.550	1	6
415.721	1	14
415.892	1	8
416.063	1	15
416.233	1	7
416.404	1	11
416.575	1	5
416.745	1	4
416.916	1	12
417.087	1	1
417.257	1	1
417.428	1	16
417.599	1	14
417.769	1	14
417.940	1	10
418.111	1	15
418.281	1	13
418.452	1	12
418.623	1	16
418.793	1	7
418.964	1	14
419.135	1	8
419.305	1	17
419.476	1	17
419.647	1	12
419.817	1	12
419.988	1	23
420.159	1	10
420.329	1	11
420.500	1	9
420.671	1	12
420.841	1	3
421.012	1	12
421.183	1	14
421.353	1	21
421.524	1	13
421.695	1	19
421.865	1	19
422.036	1	25
422.206	1	14
422.377	1	2
422.548	1	14
422.718	1	19
422.889	1	14
423.060	1	12
423.230	1	10
423.401	1	5
423.572	1	10
423.742	1	20
423.913	1	-5
424.084	1	10
424.254	1	14
424.425	1	23
424.595	1	13
424.766	1	18
424.937	1	10
425.107	1	11
425.278	1	6
425.449	1	10
425.619	1	15
425.790	1	15
425.961	1	16
426.131	1	7
426.302	1	7
426.472	1	14
426.643	1	5
426.814	1	5
426.984	1	12
427.155	1	8
427.326	1	19
427.496	1	9
427.667	1	8
427.837	1	10
428.008	1	20
428.179	1	22
428.349	1	19
428.520	1	19
428.691	1	9
428.861	1	20
429.032	1	6
429.202	1	7
429.373	1	15
429.544	1	13
429.714	1	19
429.885	1	19
430.055	1	19
430.226	1	5
430.397	1	1
430.567	1	4
430.738	1	8
430.909	1	10
431.079	1	9
431.250	1	13
431.420	1	11
431.591	1	8
431.762	1	15
431.932	1	10
432.103	1	2
432.273	1	21
432.444	1	9
432.615	1	9
432.785	1	9
432.956	1	8
433.126	1	14
433.297	1	14
433.468	1	7
433.638	1	18
433.809	1	10
433.979	1	13
434.150	1	11
434.320	1	17
434.491	1	26
434.662	1	22
434.832	1	15
435.003	1	23
435.173	1	13
435.344	1	4
435.515	1	1
435.685	1	3
435.856	1	11
436.026	1	10
436.197	1	9
436.368	1	8
436.538	1	13
436.709	1	5
436.879	1	9
437.050	1	9
437.220	1	12
437.391	1	9
437.562	1	9
437.732	1	12
437.903	1	8
438.073	1	1
438.244	1	19
438.414	1	15
438.585	1	9
438.756	1	0
438.926	1	7
439.097	1	5
439.267	1	13
439.438	1	8
439.608	1	8
439.779	1	17
439.949	1	13
440.120	1	12
440.291	1	21
440.461	1	15
440.632	1	5
440.802	1	9
440.973	1	20
441.143	1	10
441.314	1	2
441.485	1	9
441.655	1	18
441.826	1	10
441.996	1	9
442.167	1	15
442.337	1	14
442.508	1	7
442.678	1	15
442.849	1	16
443.019	1	11
443.190	1	11
443.361	1	17
443.531	1	7
443.702	1	13
443.872	1	3
444.043	1	18
444.213	1	3
444.384	1	15
444.554	1	8
444.725	1	14
444.895	1	13
445.066	1	4
445.237	1	18
445.407	1	7
445.578	1	6
445.748	1	9
445.919	1	0
446.089	1	13
446.260	1	15
446.430	1	10
446.601	1	12
446.771	1	11
446.942	1	4
447.112	1	13
447.283	1	15
447.453	1	-8
447.624	1	-1
447.794	1	8
447.965	1	15
448.135	1	8
448.306	1	17
448.477	1	15
448.647	1	18
448.818	1	10
448.988	1	14
449.159	1	5
449.329	1	13
449.500	1	10
449.670	1	12
449.841	1	13
450.011	1	10
450.182	1	15
450.352	1	8
450.523	1	13
450.693	1	7
450.864	1	2
451.034	1	10
451.205	1	6
451.375	1	8
451.546	1	4
451.716	1	8
451.887	1	4
452.057	1	12
452.228	1	3
452.398	1	16
452.569	1	15
452.739	1	17
452.910	1	1
453.080	1	12
453.251	1	3
453.421	1	6
453.592	1	6
453.762	1	8
453.933	1	5
454.103	1	5
454.274	1	3
454.444	1	6
454.615	1	12
454.785	1	8
454.956	1	2
455.126	1	6
455.297	1	10
455.467	1	4
455.638	1	9
455.808	1	16
455.979	1	5
456.149	1	1
456.320	1	12
456.490	1	1
456.661	1	5
456.831	1	6
457.001	1	6
457.172	1	12
457.342	1	10
457.513	1	2
457.683	1	5
457.854	1	4
458.024	1	11
458.195	1	4
458.365	1	4
458.536	1	3
458.706	1	18
458.877	1	14
459.047	1	-4
459.218	1	19
459.388	1	4
459.559	1	5
459.729	1	4
459.899	1	2
460.070	1	7
460.240	1	-1
460.411	1	13
460.581	1	-3
460.752	1	4
460.922	1	7
461.093	1	10
461.263	1	19
461.434	1	1
461.604	1	5
461.775	1	8
461.945	1	9
462.115	1	3
462.286	1	4
462.456	1	0
462.627	1	0
462.797	1	1
462.968	1	10
463.138	1	2
463.309	1	12
463.479	1	2
463.649	1	2
463.820	1	12
463.990	1	7
464.161	1	3
464.331	1	10
464.502	1	10
464.672	1	6
464.843	1	12
465.013	1	12
465.183	1	-2
465.354	1	20
465.524	1	13
465.695	1	2
465.865	1	4
466.036	1	8
466.206	1	9
466.376	1	16
466.547	1	16
466.717	1	2
466.888	1	5
467.058	1	6
467.229	1	18
467.399	1	5
467.569	1	7
467.740	1	21
467.910	1	17
468.081	1	5
468.251	1	0
468.422	1	11
468.592	1	3
468.762	1	9
468.933	1	11
469.103	1	3
469.274	1	-3
469.444	1	5
469.614	1	6
469.785	1	-1
469.955	1	2
470.126	1	2
470.296	1	18
470.467	1	4
470.637	1	-2
470.807	1	6
470.978	1	4
471.148	1	2
471.319	1	12
471.489	1	12
471.659	1	1
471.830	1	2
472.000	1	-12
472.171	1	15
472.341	1	12
472.511	1	13
472.682	1	10
472.852	1	12
473.023	1	8
473.193	1	7
473.363	1	11
473.534	1	14
473.704	1	8
473.875	1	-1
474.045	1	-6
474.215	1	9
474.386	1	5
474.556	1	2
474.727	1	0
474.897	1	-1
475.067	1	4
475.238	1	10
475.408	1	9
475.578	1	-7
475.749	1	7
475.919	1	6
476.090	1	4
476.260	1	2
476.430	1	-6
476.601	1	14
476.771	1	4
476.942	1	-3
477.112	1	14
477.282	1	2
477.453	1	3
477.623	1	1
477.793	1	8
477.964	1	6
478.134	1	12
478.305	1	10
478.475	1	11
478.645	1	1
478.816	1	9
478.986	1	14
479.156	1	-6
479.327	1	12
479.497	1	6
479.667	1	12
479.838	1	9
480.008	1	11
480.179	1	17
480.349	1	15
480.519	1	5
480.690	1	9
480.860	1	5
481.030	1	1
481.201	1	8
481.371	1	-7
481.541	1	3
481.712	1	12
481.882	1	11
482.053	1	12
482.223	1	8
482.393	1	7
482.564	1	8
482.734	1	5
482.904	1	-3
483.075	1	12
483.245	1	7
483.415	1	1
483.586	1	8
483.756	1	15
483.926	1	9
484.097	1	10
484.267	1	11
484.437	1	20
484.608	1	1
484.778	1	3
484.948	1	11
485.119	1	9
485.289	1	2
485.459	1	-2
485.630	1	6
485.800	1	3
485.970	1	5
486.141	1	11
486.311	1	11
486.481	1	1
486.652	1	-3
486.822	1	18
486.992	1	11
487.163	1	-4
487.333	1	0
487.503	1	4
487.674	1	1
487.844	1	7
488.014	1	11
488.185	1	15
488.355	1	10
488.525	1	-2
488.696	1	8
488.866	1	0
489.036	1	8
489.207	1	13
489.377	1	11
489.547	1	6
489.718	1	2
489.888	1	10
490.058	1	13
490.228	1	7
490.399	1	12
490.569	1	-2
490.739	1	1
490.910	1	13
491.080	1	16
491.250	1	11
491.421	1	8
491.591	1	2
491.761	1	11
491.932	1	20
492.102	1	18
492.272	1	-2
492.442	1	7
492.613	1	2
492.783	1	8
492.953	1	9
493.124	1	17
493.294	1	-1
493.464	1	3
493.635	1	7
493.805	1	14
493.975	1	11
494.145	1	2
494.316	1	-2
494.486	1	7
494.656	1	2
494.827	1	8
494.997	1	3
495.167	1	14
495.337	1	11
495.508	1	15
495.678	1	5
495.848	1	3
496.019	1	5
496.189	1	6
496.359	1	11
496.529	1	10
496.700	1	18
496.870	1	9
497.040	1	13
497.211	1	2
497.381	1	15
497.551	1	7
497.721	1	3
497.892	1	10
498.062	1	5
498.232	1	15
498.403	1	7
498.573	1	2
498.743	1	12
498.913	1	11
499.084	1	20
499.254	1	10
499.424	1	7
499.594	1	4
499.765	1	17
499.935	1	18
500.105	1	24
500.275	1	6
500.446	1	2
500.616	1	0
500.786	1	7
500.956	1	18
501.127	1	6
501.297	1	15
501.467	1	22
501.638	1	12
501.808	1	14
501.978	1	8
502.148	1	12
502.319	1	20
502.489	1	-2
502.659	1	15
502.829	1	7
503.000	1	16
503.170	1	7
503.340	1	0
503.510	1	11
503.681	1	12
503.851	1	10
504.021	1	15
504.191	1	0
504.362	1	12
504.532	1	17
504.702	1	3
504.872	1	4
505.042	1	7
505.213	1	11
505.383	1	18
505.553	1	15
505.723	1	18
505.894	1	12
506.064	1	5
506.234	1	21
506.404	1	13
506.575	1	26
506.745	1	7
506.915	1	14
507.085	1	11
507.256	1	21
507.426	1	12
507.596	1	18
507.766	1	9
507.936	1	19
508.107	1	3
508.277	1	13
508.447	1	14
508.617	1	13
508.788	1	12
508.958	1	20
509.128	1	18
509.298	1	7
509.468	1	12
509.639	1	1
509.809	1	10
509.979	1	7
510.149	1	6
510.319	1	16
510.490	1	10
510.660	1	7
510.830	1	4
511.000	1	20
511.171	1	18
511.341	1	17
511.511	1	8
511.681	1	14
511.851	1	27
512.022	1	-1
512.192	1	22
512.362	1	9
512.532	1	20
512.702	1	11
512.873	1	12
513.043	1	18
513.213	1	20
513.383	1	11
513.553	1	11
513.724	1	15
513.894	1	8
514.064	1	14
514.234	1	15
514.404	1	16
514.575	1	16
514.745	1	11
514.915	1	13
515.085	1	19
515.255	1	-1
515.425	1	11
515.596	1	17
515.766	1	12
515.936	1	13
516.106	1	12
516.276	1	14
516.447	1	14
516.617	1	13
516.787	1	8
516.957	1	11
517.127	1	20
517.297	1	4
517.468	1	29
517.638	1	10
517.808	1	21
517.978	1	1
518.148	1	21
518.319	1	18
518.489	1	17
518.659	1	23
518.829	1	17
518.999	1	22
519.169	1	11
519.340	1	14
519.510	1	10
519.680	1	10
519.850	1	12
520.020	1	17
520.190	1	18
520.361	1	13
520.531	1	18
520.701	1	17
520.871	1	13
521.041	1	26
521.211	1	14
521.382	1	16
521.552	1	2
521.722	1	15
521.892	1	17
522.062	1	15
522.232	1	18
522.402	1	23
522.573	1	23
522.743	1	15
522.913	1	19
523.083	1	11
523.253	1	14
523.423	1	11
523.593	1	20
523.764	1	13
523.934	1	14
524.104	1	25
524.274	1	14
524.444	1	19
524.614	1	24
524.784	1	14
524.955	1	16
525.125	1	10
525.295	1	12
525.465	1	17
525.635	1	25
525.805	1	27
525.975	1	15
526.146	1	19
526.316	1	8
526.486	1	14
526.656	1	23
526.826	1	21
526.996	1	10
527.166	1	8
527.337	1	20
527.507	1	24
527.677	1	30
527.847	1	3
528.017	1	11
528.187	1	26
528.357	1	25
528.527	1	16
528.698	1	26
528.868	1	11
529.038	1	14
529.208	1	18
529.378	1	18
529.548	1	25
529.718	1	18
529.888	1	12
530.058	1	14
530.229	1	13
530.399	1	21
530.569	1	12
530.739	1	12
530.909	1	13
531.079	1	10
531.249	1	26
531.419	1	24
531.589	1	17
531.760	1	20
531.930	1	18
532.100	1	31
532.270	1	16
532.440	1	27
532.610	1	18
532.780	1	17
532.950	1	24
533.120	1	21
533.290	1	13
533.461	1	9
533.631	1	15
533.801	1	17
533.971	1	26
534.141	1	17
534.311	1	3
534.481	1	40
534.651	1	4
534.821	1	19
534.991	1	17
535.162	1	20
535.332	1	18
535.502	1	19
535.672	1	15
535.842	1	17
536.012	1	19
536.182	1	9
536.352	1	19
536.522	1	13
536.692	1	16
536.862	1	17
537.032	1	13
537.203	1	8
537.373	1	12
537.543	1	20
537.713	1	17
537.883	1	19
538.053	1	14
538.223	1	27
538.393	1	13
538.563	1	12
538.733	1	10
538.903	1	17
539.073	1	4
539.243	1	12
539.413	1	14
539.584	1	20
539.754	1	9
539.924	1	18
540.094	1	22
540.264	1	25
540.434	1	15
540.604	1	29
540.774	1	15
540.944	1	25
541.114	1	21
541.284	1	5
541.454	1	11
541.624	1	16
541.794	1	12
541.964	1	10
542.134	1	17
542.305	1	22
542.475	1	27
542.645	1	9
542.815	1	13
542.985	1	17
543.155	1	13
543.325	1	13
543.495	1	16
543.665	1	7
543.835	1	15
544.005	1	14
544.175	1	5
544.345	1	18
544.515	1	13
544.685	1	6
544.855	1	9
545.025	1	19
545.195	1	7
545.365	1	14
545.535	1	22
545.705	1	23
545.875	1	11
546.045	1	14
546.216	1	16
546.386	1	13
546.556	1	15
546.726	1	10
546.896	1	17
547.066	1	15
547.236	1	19
547.406	1	16
547.576	1	10
547.746	1	17
547.916	1	12
548.086	1	12
548.256	1	7
548.426	1	18
548.596	1	21
548.766	1	13
548.936	1	10
549.106	1	13
549.276	1	19
549.446	1	13
549.616	1	18
549.786	1	6
549.956	1	13
550.126	1	10
550.296	1	11
550.466	1	7
550.636	1	10
550.806	1	24
550.976	1	6
551.146	1	8
551.316	1	17
551.486	1	11
551.656	1	10
551.826	1	10
551.996	1	14
552.166	1	24
552.336	1	24
552.506	1	15
552.676	1	15
552.846	1	14
553.016	1	8
553.186	1	5
553.356	1	13
553.526	1	20
553.696	1	13
553.866	1	17
554.036	1	21
554.206	1	24
554.376	1	19
554.546	1	14
554.716	1	7
554.886	1	13
555.056	1	16
555.226	1	8
555.396	1	18
555.566	1	15
555.736	1	13
555.906	1	8
556.076	1	8
556.246	1	12
556.416	1	14
556.586	1	9
556.756	1	11
556.926	1	-1
557.096	1	10
557.266	1	16
557.436	1	12
557.606	1	10
557.776	1	17
557.946	1	17
558.116	1	17
558.286	1	2
558.456	1	3
558.626	1	9
558.796	1	17
558.966	1	16
559.136	1	11
559.306	1	9
559.476	1	7
559.646	1	22
559.816	1	11
559.986	1	11
560.155	1	15
560.325	1	9
560.495	1	15
560.665	1	5
560.835	1	15
561.005	1	12
561.175	1	7
561.345	1	10
561.515	1	15
561.685	1	21
561.855	1	13
562.025	1	10
562.195	1	17
562.365	1	9
562.535	1	3
562.705	1	22
562.875	1	11
563.045	1	17
563.215	1	10
563.385	1	17
563.555	1	12
563.725	1	15
563.895	1	21
564.064	1	-7
564.234	1	5
564.404	1	2
564.574	1	7
564.744	1	17
564.914	1	8
565.084	1	10
565.254	1	19
565.424	1	8
565.594	1	9
565.764	1	13
565.934	1	21
566.104	1	14
566.274	1	22
566.444	1	21
566.614	1	12
566.783	1	15
566.953	1	14
567.123	1	6
567.293	1	10
567.463	1	15
567.633	1	18
567.803	1	14
567.973	1	6
568.143	1	11
568.313	1	18
568.483	1	12
568.653	1	12
568.823	1	3
568.993	1	3
569.162	1	3
569.332	1	6
569.502	1	16
569.672	1	14
569.842	1	10
570.012	1	0
570.182	1	10
570.352	1	15
570.522	1	6
570.692	1	12
570.862	1	-4
571.031	1	32
571.201	1	13
571.371	1	3
571.541	1	6
571.711	1	15
571.881	1	6
572.051	1	7
572.221	1	11
572.391	1	-3
572.561	1	16
572.731	1	8
572.900	1	20
573.070	1	9
573.240	1	15
573.410	1	15
573.580	1	12
573.750	1	5
573.920	1	8
574.090	1	24
574.260	1	5
574.430	1	9
574.599	1	14
574.769	1	20
574.939	1	18
575.109	1	10
575.279	1	1
575.449	1	9
575.619	1	4
575.789	1	4
575.959	1	6
576.128	1	2
576.298	1	-4
576.468	1	6
576.638	1	16
576.808	1	7
576.978	1	13
577.148	1	-3
577.318	1	16
577.487	1	-3
577.657	1	7
577.827	1	3
577.997	1	21
578.167	1	19
578.337	1	10
578.507	1	0
578.677	1	12
578.846	1	9
579.016	1	4
579.186	1	13
579.356	1	8
579.526	1	-5
579.696	1	11
579.866	1	4
580.036	1	5
580.205	1	15
580.375	1	18
580.545	1	1
580.715	1	11
580.885	1	1
581.055	1	6
581.225	1	14
581.394	1	8
581.564	1	12
581.734	1	13
581.904	1	12
582.074	1	7
582.244	1	9
582.414	1	8
582.583	1	4
582.753	1	11
582.923	1	0
583.093	1	11
583.263	1	5
583.433	1	18
583.603	1	4
583.772	1	12
583.942	1	7
584.112	1	11
584.282	1	7
584.452	1	6
584.622	1	11
584.791	1	12
584.961	1	8
585.131	1	9
585.301	1	3
585.471	1	1
585.641	1	17
585.811	1	14
585.980	1	4
586.150	1	13
586.320	1	0
586.490	1	6
586.660	1	14
586.830	1	6
586.999	1	10
587.169	1	14
587.339	1	8
587.509	1	8
587.679	1	15
587.849	1	15
588.018	1	0
588.188	1	11
588.358	1	20
588.528	1	-3
588.698	1	15
588.867	1	13
589.037	1	14
589.207	1	5
589.377	1	8
589.547	1	20
589.717	1	10
589.886	1	7
590.056	1	4
590.226	1	-3
590.396	1	12
590.566	1	1
590.735	1	17
590.905	1	2
591.075	1	12
591.245	1	-2
591.415	1	13
591.585	1	-7
591.754	1	7
591.924	1	11
592.094	1	17
592.264	1	-3
592.434	1	4
592.603	1	-6
592.773	1	8
592.943	1	7
593.113	1	9
593.283	1	4
593.452	1	14
593.622	1	8
593.792	1	0
593.962	1	14
594.132	1	12
594.301	1	2
594.471	1	4
594.641	1	10
594.811	1	3
594.981	1	14
595.150	1	-3
595.320	1	10
595.490	1	5
595.660	1	10
595.829	1	-5
595.999	1	15
596.169	1	-5
596.339	1	0
596.509	1	7
596.678	1	-9
596.848	1	10
597.018	1	0
597.188	1	12
597.358	1	6
597.527	1	12
597.697	1	2
597.867	1	3
598.037	1	6
598.206	1	10
598.376	1	-1
598.546	1	8
598.716	1	9
598.885	1	8
599.055	1	16
599.225	1	-2
599.395	1	1
599.565	1	-1
599.734	1	8
599.904	1	8
600.074	1	-4
600.244	1	9
600.413	1	10
600.583	1	3
600.753	1	22
600.923	1	8
601.092	1	-3
601.262	1	4
601.432	1	-7
601.602	1	10
601.771	1	15
601.941	1	1
602.111	1	4
602.281	1	10
602.451	1	12
602.620	1	16
602.790	1	8
602.960	1	-3
603.130	1	7
603.299	1	13
603.469	1	3
603.639	1	8
603.809	1	7
603.978	1	6
604.148	1	7
604.318	1	4
604.487	1	6
604.657	1	8
604.827	1	9
604.997	1	10
605.166	1	4
605.336	1	3
605.506	1	3
605.676	1	6
605.845	1	5
606.015	1	4
606.185	1	1
606.355	1	-5
606.524	1	4
606.694	1	18
606.864	1	24
607.034	1	-11
607.203	1	11
607.373	1	3
607.543	1	-1
607.712	1	-1
607.882	1	15
608.052	1	2
608.222	1	7
608.391	1	1
608.561	1	10
608.731	1	-7
608.901	1	12
609.070	1	14
609.240	1	14
609.410	1	6
609.579	1	-1
609.749	1	4
609.919	1	-8
610.089	1	10
610.258	1	9
610.428	1	17
610.598	1	0
610.767	1	8
610.937	1	-5
611.107	1	18
611.277	1	7
611.446	1	10
611.616	1	17
611.786	1	8
611.955	1	6
612.125	1	-2
612.295	1	8
612.465	1	1
612.634	1	7
612.804	1	5
612.974	1	-2
613.143	1	-6
613.313	1	-1
613.483	1	3
613.652	1	10
613.822	1	6
613.992	1	1
614.162	1	14
614.331	1	15
614.501	1	4
614.671	1	0
614.840	1	9
615.010	1	11
615.180	1	3
615.349	1	6
615.519	1	-3
615.689	1	-5
615.858	1	3
616.028	1	11
616.198	1	19
616.368	1	15
616.537	1	4
616.707	1	4
616.877	1	4
617.046	1	4
617.216	1	7
617.386	1	10
617.555	1	3
617.725	1	8
617.895	1	0
618.064	1	-6
618.234	1	-3
618.404	1	2
618.573	1	12
618.743	1	12
618.913	1	4
619.082	1	16
619.252	1	-6
619.422	1	17
619.591	1	15
619.761	1	2
619.931	1	13
620.100	1	9
620.270	1	8
620.440	1	14
620.609	1	8
620.779	1	8
620.949	1	10
621.118	1	16
621.288	1	10
621.458	1	2
621.627	1	-2
621.797	1	-5
621.967	1	6
622.136	1	-1
622.306	1	0
622.476	1	0
622.645	1	18
622.815	1	14
622.985	1	2
623.154	1	-11
623.324	1	15
623.494	1	1
623.663	1	5
623.833	1	2
624.002	1	13
624.172	1	9
624.342	1	7
624.511	1	-2
624.681	1	13
624.851	1	4
625.020	1	5
625.190	1	1
625.360	1	7
625.529	1	-5
625.699	1	7
625.869	1	19
626.038	1	10
626.208	1	-5
626.377	1	11
626.547	1	2
626.717	1	2
626.886	1	4
627.056	1	8
627.226	1	12
627.395	1	0
627.565	1	0
627.735	1	6
627.904	1	2
628.074	1	12
628.243	1	11
628.413	1	7
628.583	1	14
628.752	1	11
628.922	1	10
629.091	1	13
629.261	1	7
629.431	1	1
629.600	1	0
629.770	1	11
629.940	1	5
630.109	1	-4
630.279	1	8
630.448	1	2
630.618	1	8
630.788	1	13
630.957	1	11
631.127	1	9
631.297	1	6
631.466	1	-1
631.636	1	6
631.805	1	4
631.975	1	3
632.145	1	9
632.314	1	6
632.484	1	12
632.653	1	-4
632.823	1	-7
632.993	1	1
633.162	1	8
633.332	1	10
633.501	1	-2
633.671	1	7
633.841	1	4
634.010	1	1
634.180	1	10
634.349	1	10
634.519	1	1
634.689	1	3
634.858	1	0
635.028	1	1
635.197	1	7
635.367	1	14
635.537	1	9
635.706	1	0
635.876	1	9
636.045	1	-2
636.215	1	6
636.384	1	5
636.554	1	0
636.724	1	4
636.893	1	12
637.063	1	1
637.232	1	3
637.402	1	15
637.572	1	4
637.741	1	12
637.911	1	-2
638.080	1	5
638.250	1	-6
638.419	1	-3
638.589	1	14
638.759	1	6
638.928	1	4
639.098	1	6
639.267	1	13
639.437	1	7
639.606	1	10
639.776	1	7
639.946	1	3
640.115	1	1
640.285	1	7
640.454	1	-6
640.624	1	4
640.793	1	4
640.963	1	10
641.132	1	12
641.302	1	6
641.472	1	15
641.641	1	12
641.811	1	-2
641.980	1	13
642.150	1	7
642.319	1	11
642.489	1	12
642.659	1	13
642.828	1	20
642.998	1	1
643.167	1	0
643.337	1	8
643.506	1	7
643.676	1	3
643.845	1	12
644.015	1	3
644.184	1	12
644.354	1	8
644.524	1	-1
644.693	1	-3
644.863	1	7
645.032	1	10
645.202	1	6
645.371	1	9
645.541	1	7
645.710	1	10
645.880	1	13
646.049	1	5
646.219	1	2
646.388	1	1
646.558	1	-1
646.728	1	6
646.897	1	-3
647.067	1	9
647.236	1	-3
647.406	1	4
647.575	1	15
647.745	1	-11
647.914	1	-5
648.084	1	-1
648.253	1	19
648.423	1	13
648.592	1	1
648.762	1	6
648.931	1	12
649.101	1	5
649.270	1	7
649.440	1	6
649.610	1	4
649.779	1	7
649.949	1	-9
650.118	1	4
650.288	1	10
650.457	1	11
650.627	1	9
650.796	1	9
650.966	1	6
651.135	1	7
651.305	1	4
651.474	1	15
651.644	1	10
651.813	1	5
651.983	1	2
652.152	1	6
652.322	1	1
652.491	1	4
652.661	1	11
652.830	1	1
653.000	1	7
653.169	1	0
653.339	1	-2
653.508	1	1
653.678	1	4
653.847	1	12
654.017	1	8
654.186	1	11
654.356	1	11
654.525	1	11
654.695	1	12
654.864	1	-4
655.034	1	-3
655.203	1	10
655.373	1	7
655.542	1	10
655.712	1	15
655.881	1	0
656.051	1	3
656.220	1	6
656.390	1	5
656.559	1	8
656.729	1	13
656.898	1	11
657.068	1	13
657.237	1	-1
657.406	1	7
657.576	1	12
657.745	1	22
657.915	1	10
658.084	1	-1
658.254	1	14
658.423	1	14
658.593	1	6
658.762	1	1
658.932	1	12
659.101	1	2
659.271	1	4
659.440	1	1
659.610	1	7
659.779	1	9
659.949	1	11
660.118	1	3
660.288	1	5
660.457	1	7
660.626	1	3
660.796	1	9
660.965	1	6
661.135	1	18
661.304	1	11
661.474	1	7
661.643	1	7
661.813	1	5
661.982	1	2
662.152	1	8
662.321	1	-2
662.491	1	-1
662.660	1	7
662.829	1	-4
662.999	1	15
663.168	1	2
663.338	1	12
663.507	1	0
663.677	1	2
663.846	1	-3
664.016	1	-5
664.185	1	8
664.354	1	5
664.524	1	9
664.693	1	2
664.863	1	-8
665.032	1	8
665.202	1	5
665.371	1	14
665.541	1	5
665.710	1	10
665.879	1	8
666.049	1	6
666.218	1	8
666.388	1	3
666.557	1	9
666.727	1	5
666.896	1	11
667.065	1	9
667.235	1	-4
667.404	1	5
667.574	1	-7
667.743	1	0
667.913	1	6
668.082	1	5
668.251	1	-2
668.421	1	10
668.590	1	2
668.760	1	11
668.929	1	0
669.099	1	14
669.268	1	1
669.437	1	0
669.607	1	8
669.776	1	5
669.946	1	11
670.115	1	1
670.285	1	13
670.454	1	13
670.623	1	7
670.793	1	-2
670.962	1	-5
671.132	1	2
671.301	1	9
671.470	1	5
671.640	1	4
671.809	1	-5
671.979	1	6
672.148	1	10
672.317	1	4
672.487	1	0
672.656	1	3
672.826	1	11
672.995	1	-1
673.164	1	0
673.334	1	-2
673.503	1	8
673.673	1	8
673.842	1	5
674.011	1	7
674.181	1	9
674.350	1	5
674.520	1	2
674.689	1	-2
674.858	1	8
675.028	1	7
675.197	1	5
675.367	1	0
675.536	1	2
675.705	1	0
675.875	1	16
676.044	1	2
676.214	1	9
676.383	1	-2
676.552	1	2
676.722	1	4
676.891	1	7
677.060	1	0
677.230	1	8
677.399	1	13
677.569	1	17
677.738	1	4
677.907	1	20
678.077	1	-1
678.246	1	2
678.416	1	4
678.585	1	7
678.754	1	10
678.924	1	1
679.093	1	-2
679.262	1	6
679.432	1	-2
679.601	1	6
679.771	1	0
679.940	1	1
680.109	1	11
680.279	1	1
680.448	1	0
680.617	1	6
680.787	1	-8
680.956	1	5
681.125	1	8
681.295	1	13
681.464	1	11
681.634	1	3
681.803	1	-1
681.972	1	3
682.142	1	4
682.311	1	7
682.480	1	-9
682.650	1	-3
682.819	1	12
682.988	1	9
683.158	1	4
683.327	1	7
683.496	1	-2
683.666	1	9
683.835	1	9
684.004	1	-5
684.174	1	7
684.343	1	6
684.512	1	6
684.682	1	11
684.851	1	6
685.021	1	8
685.190	1	3
685.359	1	-1
685.529	1	4
685.698	1	-2
685.867	1	5
686.037	1	7
686.206	1	-8
686.375	1	4
686.545	1	-4
686.714	1	12
686.883	1	14
687.053	1	20
687.222	1	9
687.391	1	-1
687.561	1	-2
687.730	1	8
687.899	1	6
688.069	1	-1
688.238	1	16
688.407	1	7
688.577	1	8
688.746	1	4
