340.368	1	5
340.539	1	3
340.710	1	7
340.881	1	3
341.052	1	19
341.223	1	9
341.394	1	-6
341.565	1	12
341.737	1	13
341.908	1	17
342.079	1	3
342.250	1	14
342.421	1	-6
342.592	1	12
342.763	1	2
342.934	1	12
343.105	1	9
343.276	1	5
343.447	1	-2
343.618	1	14
343.789	1	7
343.960	1	7
344.131	1	-5
344.302	1	20
344.473	1	-1
344.644	1	17
344.815	1	7
344.986	1	4
345.157	1	10
345.328	1	6
345.499	1	9
345.670	1	3
345.841	1	17
346.012	1	8
346.183	1	8
346.354	1	6
346.526	1	13
346.697	1	12
346.868	1	2
347.039	1	11
347.210	1	7
347.381	1	13
347.552	1	26
347.723	1	14
347.894	1	5
348.065	1	6
348.236	1	13
348.407	1	9
348.578	1	14
348.749	1	19
348.920	1	11
349.091	1	4
349.262	1	5
349.433	1	5
349.604	1	3
349.775	1	6
349.946	1	9
350.117	1	14
350.288	1	4
350.459	1	12
350.630	1	11
350.801	1	12
350.972	1	18
351.143	1	19
351.314	1	17
351.485	1	18
351.656	1	21
351.827	1	17
351.998	1	13
352.169	1	14
352.340	1	24
352.511	1	8
352.682	1	8
352.853	1	6
353.024	1	31
353.195	1	7
353.366	1	20
353.537	1	9
353.708	1	17
353.879	1	27
354.050	1	16
354.221	1	19
354.392	1	15
354.563	1	40
354.734	1	34
354.905	1	24
355.076	1	45
355.247	1	28
355.418	1	33
355.589	1	33
355.760	1	32
355.931	1	33
356.102	1	33
356.273	1	41
356.444	1	45
356.615	1	39
356.785	1	46
356.956	1	42
357.127	1	53
357.298	1	33
357.469	1	42
357.640	1	49
357.811	1	46
357.982	1	53
358.153	1	49
358.324	1	50
358.495	1	56
358.666	1	58
358.837	1	71
359.008	1	57
359.179	1	71
359.350	1	64
359.521	1	80
359.692	1	77
359.863	1	72
360.034	1	81
360.205	1	99
360.376	1	105
360.547	1	105
360.718	1	115
360.889	1	108
361.060	1	136
361.231	1	143
361.401	1	140
361.572	1	168
361.743	1	155
361.914	1	177
362.085	1	205
362.256	1	222
362.427	1	209
362.598	1	242
362.769	1	260
362.940	1	287
363.111	1	306
363.282	1	317
363.453	1	352
363.624	1	400
363.795	1	429
363.966	1	439
364.137	1	482
364.308	1	538
364.478	1	598
364.649	1	630
364.820	1	689
364.991	1	726
365.162	1	795
365.333	1	829
365.504	1	914
365.675	1	971
365.846	1	1047
366.017	1	1131
366.188	1	1204
366.359	1	1296
366.530	1	1339
366.701	1	1410
366.871	1	1484
367.042	1	1542
367.213	1	1595
367.384	1	1636
367.555	1	1695
367.726	1	1723
367.897	1	1748
368.068	1	1767
368.239	1	1800
368.410	1	1768
368.581	1	1734
368.752	1	1732
368.923	1	1684
369.093	1	1683
369.264	1	1647
369.435	1	1610
369.606	1	1523
369.777	1	1512
369.948	1	1440
370.119	1	1386
370.290	1	1356
370.461	1	1261
370.632	1	1242
370.803	1	1159
370.973	1	1117
371.144	1	1053
371.315	1	1030
371.486	1	1000
371.657	1	932
371.828	1	894
371.999	1	860
372.170	1	834
372.341	1	786
372.512	1	754
372.682	1	758
372.853	1	742
373.024	1	698
373.195	1	696
373.366	1	671
373.537	1	653
373.708	1	633
373.879	1	614
374.050	1	606
374.220	1	575
374.391	1	557
374.562	1	565
374.733	1	529
374.904	1	520
375.075	1	510
375.246	1	477
375.417	1	470
375.588	1	452
375.758	1	462
375.929	1	430
376.100	1	398
376.271	1	399
376.442	1	382
376.613	1	376
376.784	1	365
376.955	1	349
377.125	1	337
377.296	1	347
377.467	1	338
377.638	1	309
377.809	1	296
377.980	1	321
378.151	1	304
378.321	1	289
378.492	1	281
378.663	1	276
378.834	1	274
379.005	1	258
379.176	1	252
379.347	1	257
379.518	1	238
379.688	1	265
379.859	1	249
380.030	1	257
380.201	1	238
380.372	1	246
380.543	1	255
380.714	1	238
380.884	1	240
381.055	1	254
381.226	1	237
381.397	1	250
381.568	1	232
381.739	1	228
381.910	1	276
382.080	1	242
382.251	1	252
382.422	1	264
382.593	1	263
382.764	1	285
382.935	1	262
383.105	1	275
383.276	1	298
383.447	1	286
383.618	1	308
383.789	1	319
383.960	1	318
384.130	1	324
384.301	1	336
384.472	1	335
384.643	1	355
384.814	1	345
384.985	1	360
385.156	1	353
385.326	1	340
385.497	1	368
385.668	1	356
385.839	1	361
386.010	1	348
386.180	1	357
386.351	1	356
386.522	1	350
386.693	1	340
386.864	1	332
387.035	1	348
387.205	1	321
387.376	1	321
387.547	1	324
387.718	1	317
387.889	1	311
388.060	1	316
388.230	1	299
388.401	1	312
388.572	1	307
388.743	1	300
388.914	1	302
389.084	1	302
389.255	1	299
389.426	1	296
389.597	1	303
389.768	1	304
389.939	1	300
390.109	1	297
390.280	1	300
390.451	1	309
390.622	1	291
390.793	1	302
390.963	1	285
391.134	1	287
391.305	1	292
391.476	1	289
391.647	1	281
391.817	1	271
391.988	1	284
392.159	1	266
392.330	1	257
392.501	1	265
392.671	1	261
392.842	1	243
393.013	1	254
393.184	1	249
393.355	1	248
393.525	1	251
393.696	1	242
393.867	1	240
394.038	1	224
394.208	1	236
394.379	1	251
394.550	1	246
394.721	1	241
394.892	1	245
395.062	1	250
395.233	1	249
395.404	1	249
395.575	1	259
395.746	1	248
395.916	1	255
396.087	1	281
396.258	1	260
396.429	1	270
396.599	1	270
396.770	1	265
396.941	1	267
397.112	1	280
397.283	1	274
397.453	1	254
397.624	1	253
397.795	1	262
397.966	1	257
398.136	1	270
398.307	1	256
398.478	1	255
398.649	1	252
398.819	1	264
398.990	1	252
399.161	1	257
399.332	1	238
399.503	1	236
399.673	1	225
399.844	1	217
400.015	1	221
400.186	1	216
400.356	1	200
400.527	1	219
400.698	1	211
400.869	1	203
401.039	1	203
401.210	1	214
401.381	1	198
401.552	1	209
401.722	1	192
401.893	1	179
402.064	1	193
402.235	1	182
402.405	1	179
402.576	1	176
402.747	1	190
402.918	1	173
403.088	1	168
403.259	1	183
403.430	1	189
403.601	1	173
403.771	1	170
403.942	1	171
404.113	1	182
404.284	1	193
404.454	1	182
404.625	1	165
404.796	1	184
404.967	1	161
405.137	1	182
405.308	1	162
405.479	1	175
405.649	1	174
405.820	1	171
405.991	1	164
406.162	1	154
406.332	1	177
406.503	1	164
406.674	1	169
406.845	1	175
407.015	1	156
407.186	1	149
407.357	1	156
407.527	1	147
407.698	1	163
407.869	1	146
408.040	1	168
408.210	1	160
408.381	1	142
408.552	1	151
408.722	1	163
408.893	1	144
409.064	1	150
409.235	1	151
409.405	1	138
409.576	1	148
409.747	1	132
409.917	1	155
410.088	1	151
410.259	1	138
410.430	1	144
410.600	1	135
410.771	1	143
410.942	1	153
411.112	1	127
411.283	1	129
411.454	1	134
411.625	1	136
411.795	1	134
411.966	1	123
412.137	1	125
412.307	1	125
412.478	1	128
412.649	1	129
412.819	1	122
412.990	1	117
413.161	1	108
413.332	1	114
413.502	1	110
413.673	1	110
413.844	1	111
414.014	1	110
414.185	1	112
414.356	1	104
414.526	1	99
414.697	1	102
414.868	1	105
415.038	1	105
415.209	1	103
415.380	1	102
415.550	1	111
415.721	1	94
415.892	1	111
416.063	1	112
416.233	1	107
416.404	1	116
416.575	1	106
416.745	1	107
416.916	1	104
417.087	1	113
417.257	1	119
417.428	1	111
417.599	1	107
417.769	1	107
417.940	1	104
418.111	1	113
418.281	1	111
418.452	1	113
418.623	1	103
418.793	1	101
418.964	1	116
419.135	1	100
419.305	1	112
419.476	1	97
419.647	1	89
419.817	1	94
419.988	1	113
420.159	1	93
420.329	1	103
420.500	1	92
420.671	1	96
420.841	1	93
421.012	1	88
421.183	1	83
421.353	1	99
421.524	1	88
421.695	1	78
421.865	1	89
422.036	1	75
422.206	1	80
422.377	1	78
422.548	1	92
422.718	1	83
422.889	1	80
423.060	1	88
423.230	1	77
423.401	1	78
423.572	1	72
423.742	1	86
423.913	1	74
424.084	1	78
424.254	1	78
424.425	1	78
424.595	1	82
424.766	1	71
424.937	1	73
425.107	1	79
425.278	1	81
425.449	1	76
425.619	1	69
425.790	1	72
425.961	1	87
426.131	1	71
426.302	1	75
426.472	1	78
426.643	1	69
426.814	1	71
426.984	1	76
427.155	1	67
427.326	1	83
427.496	1	71
427.667	1	88
427.837	1	66
428.008	1	76
428.179	1	89
428.349	1	77
428.520	1	68
428.691	1	82
428.861	1	72
429.032	1	67
429.202	1	59
429.373	1	77
429.544	1	68
429.714	1	77
429.885	1	73
430.055	1	67
430.226	1	54
430.397	1	55
430.567	1	64
430.738	1	73
430.909	1	59
431.079	1	62
431.250	1	70
431.420	1	59
431.591	1	67
431.762	1	63
431.932	1	57
432.103	1	68
432.273	1	68
432.444	1	58
432.615	1	56
432.785	1	53
432.956	1	54
433.126	1	58
433.297	1	55
433.468	1	68
433.638	1	69
433.809	1	47
433.979	1	68
434.150	1	56
434.320	1	71
434.491	1	62
434.662	1	52
434.832	1	59
435.003	1	61
435.173	1	62
435.344	1	50
435.515	1	43
435.685	1	55
435.856	1	57
436.026	1	56
436.197	1	61
436.368	1	56
436.538	1	52
436.709	1	50
436.879	1	62
437.050	1	47
437.220	1	65
437.391	1	54
437.562	1	70
437.732	1	58
437.903	1	55
438.073	1	54
438.244	1	52
438.414	1	50
438.585	1	59
438.756	1	48
438.926	1	49
439.097	1	50
439.267	1	56
439.438	1	48
439.608	1	42
439.779	1	45
439.949	1	39
440.120	1	41
440.291	1	50
440.461	1	54
440.632	1	58
440.802	1	50
440.973	1	50
441.143	1	60
441.314	1	48
441.485	1	47
441.655	1	60
441.826	1	53
441.996	1	50
442.167	1	53
442.337	1	46
442.508	1	45
442.678	1	53
442.849	1	45
443.019	1	44
443.190	1	59
443.361	1	62
443.531	1	39
443.702	1	51
443.872	1	40
444.043	1	45
444.213	1	39
444.384	1	46
444.554	1	37
444.725	1	52
444.895	1	40
445.066	1	43
445.237	1	43
445.407	1	45
445.578	1	47
445.748	1	42
445.919	1	51
446.089	1	43
446.260	1	56
446.430	1	48
446.601	1	55
446.771	1	43
446.942	1	44
447.112	1	42
447.283	1	52
447.453	1	37
447.624	1	39
447.794	1	41
447.965	1	50
448.135	1	44
448.306	1	49
448.477	1	49
448.647	1	39
448.818	1	32
448.988	1	46
449.159	1	39
449.329	1	58
449.500	1	44
449.670	1	40
449.841	1	42
450.011	1	44
450.182	1	44
450.352	1	40
450.523	1	45
450.693	1	50
450.864	1	38
451.034	1	44
451.205	1	52
451.375	1	39
451.546	1	44
451.716	1	38
451.887	1	56
452.057	1	40
452.228	1	43
452.398	1	49
452.569	1	39
452.739	1	43
452.910	1	45
453.080	1	49
453.251	1	43
453.421	1	45
453.592	1	35
453.762	1	44
453.933	1	38
454.103	1	48
454.274	1	42
454.444	1	49
454.615	1	49
454.785	1	40
454.956	1	49
455.126	1	40
455.297	1	49
455.467	1	47
455.638	1	42
455.808	1	47
455.979	1	43
456.149	1	49
456.320	1	38
456.490	1	41
456.661	1	32
456.831	1	42
457.001	1	50
457.172	1	44
457.342	1	37
457.513	1	34
457.683	1	47
457.854	1	41
458.024	1	47
458.195	1	40
458.365	1	35
458.536	1	42
458.706	1	44
458.877	1	47
459.047	1	32
459.218	1	48
459.388	1	41
459.559	1	36
459.729	1	38
459.899	1	29
460.070	1	54
460.240	1	34
460.411	1	55
460.581	1	36
460.752	1	35
460.922	1	34
461.093	1	34
461.263	1	50
461.434	1	18
461.604	1	39
461.775	1	43
461.945	1	39
462.115	1	40
462.286	1	34
462.456	1	43
462.627	1	35
462.797	1	40
462.968	1	40
463.138	1	36
463.309	1	41
463.479	1	38
463.649	1	31
463.820	1	41
463.990	1	41
464.161	1	37
464.331	1	49
464.502	1	45
464.672	1	46
464.843	1	42
465.013	1	50
465.183	1	27
465.354	1	47
465.524	1	40
465.695	1	41
465.865	1	33
466.036	1	48
466.206	1	35
466.376	1	50
466.547	1	42
466.717	1	25
466.888	1	39
467.058	1	35
467.229	1	47
467.399	1	33
467.569	1	44
467.740	1	45
467.910	1	52
468.081	1	41
468.251	1	29
468.422	1	37
468.592	1	36
468.762	1	49
468.933	1	41
469.103	1	35
469.274	1	39
469.444	1	44
469.614	1	36
469.785	1	32
469.955	1	32
470.126	1	38
470.296	1	44
470.467	1	43
470.637	1	44
470.807	1	45
470.978	1	38
471.148	1	41
471.319	1	44
471.489	1	42
471.659	1	36
471.830	1	47
472.000	1	31
472.171	1	51
472.341	1	49
472.511	1	45
472.682	1	45
472.852	1	45
473.023	1	41
473.193	1	41
473.363	1	49
473.534	1	52
473.704	1	39
473.875	1	36
474.045	1	38
474.215	1	40
474.386	1	44
474.556	1	29
474.727	1	38
474.897	1	42
475.067	1	34
475.238	1	51
475.408	1	46
475.578	1	43
475.749	1	45
475.919	1	44
476.090	1	50
476.260	1	36
476.430	1	38
476.601	1	45
476.771	1	48
476.942	1	44
477.112	1	54
477.282	1	40
477.453	1	45
477.623	1	40
477.793	1	41
477.964	1	52
478.134	1	51
478.305	1	50
478.475	1	37
478.645	1	46
478.816	1	39
478.986	1	50
479.156	1	46
479.327	1	44
479.497	1	40
479.667	1	41
479.838	1	51
480.008	1	54
480.179	1	50
480.349	1	50
480.519	1	53
480.690	1	47
480.860	1	50
481.030	1	43
481.201	1	55
481.371	1	45
481.541	1	39
481.712	1	52
481.882	1	50
482.053	1	56
482.223	1	54
482.393	1	50
482.564	1	55
482.734	1	59
482.904	1	48
483.075	1	65
483.245	1	52
483.415	1	54
483.586	1	47
483.756	1	54
483.926	1	63
484.097	1	49
484.267	1	59
484.437	1	62
484.608	1	64
484.778	1	59
484.948	1	62
485.119	1	57
485.289	1	52
485.459	1	56
485.630	1	66
485.800	1	64
485.970	1	64
486.141	1	65
486.311	1	72
486.481	1	42
486.652	1	52
486.822	1	76
486.992	1	72
487.163	1	68
487.333	1	60
487.503	1	60
487.674	1	65
487.844	1	63
488.014	1	86
488.185	1	75
488.355	1	82
488.525	1	76
488.696	1	91
488.866	1	65
489.036	1	82
489.207	1	90
489.377	1	75
489.547	1	87
489.718	1	72
489.888	1	82
490.058	1	89
490.228	1	79
490.399	1	94
490.569	1	79
490.739	1	91
490.910	1	77
491.080	1	84
491.250	1	85
491.421	1	81
491.591	1	87
491.761	1	80
491.932	1	88
492.102	1	84
492.272	1	79
492.442	1	87
492.613	1	98
492.783	1	87
492.953	1	87
493.124	1	106
493.294	1	92
493.464	1	89
493.635	1	99
493.805	1	97
493.975	1	117
494.145	1	88
494.316	1	93
494.486	1	92
494.656	1	111
494.827	1	96
494.997	1	94
495.167	1	118
495.337	1	103
495.508	1	103
495.678	1	100
495.848	1	99
496.019	1	92
496.189	1	98
496.359	1	92
496.529	1	107
496.700	1	106
496.870	1	113
497.040	1	105
497.211	1	101
497.381	1	108
497.551	1	107
497.721	1	105
497.892	1	115
498.062	1	109
498.232	1	117
498.403	1	114
498.573	1	111
498.743	1	122
498.913	1	126
499.084	1	122
499.254	1	121
499.424	1	125
499.594	1	125
499.765	1	120
499.935	1	133
500.105	1	136
500.275	1	128
500.446	1	134
500.616	1	125
500.786	1	125
500.956	1	156
501.127	1	138
501.297	1	138
501.467	1	150
501.638	1	140
501.808	1	147
501.978	1	139
502.148	1	138
502.319	1	152
502.489	1	160
502.659	1	158
502.829	1	148
503.000	1	168
503.170	1	169
503.340	1	154
503.510	1	161
503.681	1	169
503.851	1	177
504.021	1	168
504.191	1	165
504.362	1	165
504.532	1	191
504.702	1	157
504.872	1	168
505.042	1	160
505.213	1	186
505.383	1	177
505.553	1	160
505.723	1	187
505.894	1	184
506.064	1	187
506.234	1	183
506.404	1	187
506.575	1	190
506.745	1	184
506.915	1	183
507.085	1	188
507.256	1	197
507.426	1	183
507.596	1	193
507.766	1	193
507.936	1	208
508.107	1	184
508.277	1	187
508.447	1	191
508.617	1	196
508.788	1	189
508.958	1	210
509.128	1	190
509.298	1	194
509.468	1	199
509.639	1	193
509.809	1	185
509.979	1	184
510.149	1	194
510.319	1	199
510.490	1	190
510.660	1	195
510.830	1	183
511.000	1	203
511.171	1	190
511.341	1	214
511.511	1	194
511.681	1	201
511.851	1	209
512.022	1	195
512.192	1	213
512.362	1	211
512.532	1	201
512.702	1	202
512.873	1	215
513.043	1	211
513.213	1	219
513.383	1	228
513.553	1	219
513.724	1	214
513.894	1	215
514.064	1	206
514.234	1	227
514.404	1	229
514.575	1	208
514.745	1	217
514.915	1	224
515.085	1	242
515.255	1	224
515.425	1	240
515.596	1	232
515.766	1	243
515.936	1	228
516.106	1	241
516.276	1	227
516.447	1	238
516.617	1	244
516.787	1	235
516.957	1	234
517.127	1	236
517.297	1	242
517.468	1	255
517.638	1	250
517.808	1	251
517.978	1	253
518.148	1	257
518.319	1	253
518.489	1	245
518.659	1	261
518.829	1	266
518.999	1	256
519.169	1	251
519.340	1	257
519.510	1	260
519.680	1	253
519.850	1	261
520.020	1	275
520.190	1	260
520.361	1	257
520.531	1	267
520.701	1	258
520.871	1	264
521.041	1	273
521.211	1	255
521.382	1	247
521.552	1	270
521.722	1	263
521.892	1	264
522.062	1	271
522.232	1	268
522.402	1	273
522.573	1	271
522.743	1	259
522.913	1	277
523.083	1	281
523.253	1	266
523.423	1	264
523.593	1	272
523.764	1	281
523.934	1	272
524.104	1	279
524.274	1	278
524.444	1	286
524.614	1	283
524.784	1	271
524.955	1	277
525.125	1	277
525.295	1	266
525.465	1	283
525.635	1	274
525.805	1	266
525.975	1	266
526.146	1	285
526.316	1	281
526.486	1	282
526.656	1	280
526.826	1	289
526.996	1	288
527.166	1	276
527.337	1	313
527.507	1	312
527.677	1	310
527.847	1	289
528.017	1	291
528.187	1	321
528.357	1	306
528.527	1	297
528.698	1	308
528.868	1	303
529.038	1	300
529.208	1	310
529.378	1	307
529.548	1	325
529.718	1	315
529.888	1	330
530.058	1	320
530.229	1	322
530.399	1	302
530.569	1	316
530.739	1	314
530.909	1	329
531.079	1	328
531.249	1	329
531.419	1	340
531.589	1	328
531.760	1	331
531.930	1	330
532.100	1	330
532.270	1	333
532.440	1	329
532.610	1	329
532.780	1	342
532.950	1	317
533.120	1	321
533.290	1	326
533.461	1	311
533.631	1	331
533.801	1	316
533.971	1	313
534.141	1	308
534.311	1	313
534.481	1	330
534.651	1	313
534.821	1	306
534.991	1	309
535.162	1	306
535.332	1	309
535.502	1	314
535.672	1	306
535.842	1	309
536.012	1	309
536.182	1	299
536.352	1	307
536.522	1	295
536.692	1	310
536.862	1	301
537.032	1	308
537.203	1	309
537.373	1	288
537.543	1	300
537.713	1	289
537.883	1	299
538.053	1	284
538.223	1	298
538.393	1	296
538.563	1	291
538.733	1	296
538.903	1	294
539.073	1	284
539.243	1	293
539.413	1	299
539.584	1	282
539.754	1	291
539.924	1	287
540.094	1	303
540.264	1	290
540.434	1	299
540.604	1	304
540.774	1	286
540.944	1	290
541.114	1	293
541.284	1	279
541.454	1	274
541.624	1	292
541.794	1	283
541.964	1	291
542.134	1	284
542.305	1	305
542.475	1	309
542.645	1	283
542.815	1	290
542.985	1	289
543.155	1	293
543.325	1	301
543.495	1	318
543.665	1	290
543.835	1	296
544.005	1	290
544.175	1	302
544.345	1	304
544.515	1	303
544.685	1	304
544.855	1	296
545.025	1	307
545.195	1	303
545.365	1	307
545.535	1	310
545.705	1	302
545.875	1	308
546.045	1	311
546.216	1	297
546.386	1	296
546.556	1	311
546.726	1	315
546.896	1	310
547.066	1	320
547.236	1	329
547.406	1	311
547.576	1	308
547.746	1	312
547.916	1	332
548.086	1	312
548.256	1	324
548.426	1	309
548.596	1	322
548.766	1	316
548.936	1	310
549.106	1	323
549.276	1	331
549.446	1	319
549.616	1	340
549.786	1	318
549.956	1	319
550.126	1	340
550.296	1	320
550.466	1	318
550.636	1	314
550.806	1	343
550.976	1	318
551.146	1	319
551.316	1	315
551.486	1	340
551.656	1	312
551.826	1	307
551.996	1	318
552.166	1	326
552.336	1	303
552.506	1	307
552.676	1	304
552.846	1	310
553.016	1	320
553.186	1	307
553.356	1	311
553.526	1	307
553.696	1	300
553.866	1	298
554.036	1	307
554.206	1	298
554.376	1	304
554.546	1	306
554.716	1	302
554.886	1	294
555.056	1	305
555.226	1	291
555.396	1	300
555.566	1	300
555.736	1	279
555.906	1	293
556.076	1	293
556.246	1	273
556.416	1	293
556.586	1	282
556.756	1	283
556.926	1	294
557.096	1	289
557.266	1	286
557.436	1	284
557.606	1	278
557.776	1	273
557.946	1	287
558.116	1	291
558.286	1	262
558.456	1	285
558.626	1	284
558.796	1	278
558.966	1	276
559.136	1	273
559.306	1	268
559.476	1	271
559.646	1	293
559.816	1	277
559.986	1	277
560.155	1	285
560.325	1	281
560.495	1	284
560.665	1	283
560.835	1	271
561.005	1	268
561.175	1	272
561.345	1	267
561.515	1	276
561.685	1	263
561.855	1	276
562.025	1	278
562.195	1	282
562.365	1	260
562.535	1	288
562.705	1	285
562.875	1	279
563.045	1	287
563.215	1	276
563.385	1	273
563.555	1	281
563.725	1	256
563.895	1	280
564.064	1	261
564.234	1	261
564.404	1	264
564.574	1	275
564.744	1	286
564.914	1	273
565.084	1	272
565.254	1	277
565.424	1	278
565.594	1	270
565.764	1	264
565.934	1	282
566.104	1	274
566.274	1	259
566.444	1	265
566.614	1	259
566.783	1	251
566.953	1	270
567.123	1	263
567.293	1	245
567.463	1	253
567.633	1	275
567.803	1	272
567.973	1	260
568.143	1	268
568.313	1	269
568.483	1	266
568.653	1	262
568.823	1	254
568.993	1	241
569.162	1	251
569.332	1	265
569.502	1	248
569.672	1	259
569.842	1	265
570.012	1	246
570.182	1	261
570.352	1	261
570.522	1	236
570.692	1	253
570.862	1	250
571.031	1	264
571.201	1	273
571.371	1	245
571.541	1	247
571.711	1	260
571.881	1	244
572.051	1	257
572.221	1	255
572.391	1	250
572.561	1	259
572.731	1	252
572.900	1	239
573.070	1	234
573.240	1	235
573.410	1	252
573.580	1	235
573.750	1	249
573.920	1	247
574.090	1	250
574.260	1	249
574.430	1	248
574.599	1	232
574.769	1	259
574.939	1	236
575.109	1	248
575.279	1	235
575.449	1	234
575.619	1	242
575.789	1	229
575.959	1	250
576.128	1	229
576.298	1	234
576.468	1	237
576.638	1	251
576.808	1	238
576.978	1	239
577.148	1	233
577.318	1	248
577.487	1	234
577.657	1	231
577.827	1	237
577.997	1	242
578.167	1	257
578.337	1	240
578.507	1	234
578.677	1	235
578.846	1	222
579.016	1	236
579.186	1	240
579.356	1	251
579.526	1	226
579.696	1	235
579.866	1	238
580.036	1	229
580.205	1	230
580.375	1	245
580.545	1	239
580.715	1	248
580.885	1	243
581.055	1	222
581.225	1	247
581.394	1	245
581.564	1	232
581.734	1	244
581.904	1	235
582.074	1	245
582.244	1	234
582.414	1	239
582.583	1	231
582.753	1	243
582.923	1	233
583.093	1	239
583.263	1	223
583.433	1	232
583.603	1	251
583.772	1	237
583.942	1	235
584.112	1	238
584.282	1	243
584.452	1	247
584.622	1	229
584.791	1	222
584.961	1	226
585.131	1	240
585.301	1	227
585.471	1	238
585.641	1	232
585.811	1	216
585.980	1	215
586.150	1	217
586.320	1	234
586.490	1	232
586.660	1	223
586.830	1	217
586.999	1	215
587.169	1	220
587.339	1	229
587.509	1	214
587.679	1	220
587.849	1	231
588.018	1	211
588.188	1	220
588.358	1	229
588.528	1	209
588.698	1	221
588.867	1	212
589.037	1	218
589.207	1	227
589.377	1	210
589.547	1	198
589.717	1	216
589.886	1	209
590.056	1	199
590.226	1	203
590.396	1	196
590.566	1	195
590.735	1	198
590.905	1	187
591.075	1	215
591.245	1	193
591.415	1	203
591.585	1	191
591.754	1	196
591.924	1	193
592.094	1	205
592.264	1	200
592.434	1	191
592.603	1	184
592.773	1	182
592.943	1	203
593.113	1	194
593.283	1	188
593.452	1	202
593.622	1	182
593.792	1	194
593.962	1	184
594.132	1	191
594.301	1	180
594.471	1	180
594.641	1	187
594.811	1	185
594.981	1	186
595.150	1	173
595.320	1	205
595.490	1	180
595.660	1	199
595.829	1	167
595.999	1	171
596.169	1	183
596.339	1	190
596.509	1	184
596.678	1	165
596.848	1	184
597.018	1	171
597.188	1	192
597.358	1	190
597.527	1	187
597.697	1	175
597.867	1	180
598.037	1	190
598.206	1	181
598.376	1	180
598.546	1	182
598.716	1	185
598.885	1	187
599.055	1	196
599.225	1	184
599.395	1	180
599.565	1	188
599.734	1	183
599.904	1	189
600.074	1	183
600.244	1	181
600.413	1	183
600.583	1	190
600.753	1	200
600.923	1	188
601.092	1	179
601.262	1	184
601.432	1	181
601.602	1	195
601.771	1	205
601.941	1	195
602.111	1	197
602.281	1	198
602.451	1	191
602.620	1	199
602.790	1	184
602.960	1	182
603.130	1	192
603.299	1	192
603.469	1	192
603.639	1	201
603.809	1	189
603.978	1	192
604.148	1	170
604.318	1	180
604.487	1	191
604.657	1	184
604.827	1	183
604.997	1	203
605.166	1	193
605.336	1	199
605.506	1	176
605.676	1	191
605.845	1	191
606.015	1	197
606.185	1	182
606.355	1	184
606.524	1	192
606.694	1	191
606.864	1	186
607.034	1	189
607.203	1	198
607.373	1	190
607.543	1	190
607.712	1	179
607.882	1	199
608.052	1	181
608.222	1	190
608.391	1	180
608.561	1	186
608.731	1	177
608.901	1	190
609.070	1	180
609.240	1	187
609.410	1	182
609.579	1	179
609.749	1	180
609.919	1	178
610.089	1	196
610.258	1	188
610.428	1	174
610.598	1	164
610.767	1	183
610.937	1	174
611.107	1	178
611.277	1	165
611.446	1	175
611.616	1	184
611.786	1	160
611.955	1	171
612.125	1	169
612.295	1	168
612.465	1	165
612.634	1	169
612.804	1	174
612.974	1	162
613.143	1	147
613.313	1	177
613.483	1	156
613.652	1	171
613.822	1	158
613.992	1	158
614.162	1	167
614.331	1	169
614.501	1	153
614.671	1	171
614.840	1	162
615.010	1	151
615.180	1	148
615.349	1	151
615.519	1	143
615.689	1	144
615.858	1	149
616.028	1	154
616.198	1	154
616.368	1	164
616.537	1	152
616.707	1	144
616.877	1	149
617.046	1	150
617.216	1	150
617.386	1	152
617.555	1	149
617.725	1	153
617.895	1	160
618.064	1	142
618.234	1	144
618.404	1	145
618.573	1	146
618.743	1	140
618.913	1	142
619.082	1	154
619.252	1	147
619.422	1	146
619.591	1	149
619.761	1	157
619.931	1	153
620.100	1	131
620.270	1	135
620.440	1	154
620.609	1	148
620.779	1	146
620.949	1	145
621.118	1	150
621.288	1	129
621.458	1	145
621.627	1	135
621.797	1	144
621.967	1	145
622.136	1	137
622.306	1	129
622.476	1	134
622.645	1	142
622.815	1	139
622.985	1	134
623.154	1	133
623.324	1	136
623.494	1	134
623.663	1	150
623.833	1	141
624.002	1	147
624.172	1	131
624.342	1	137
624.511	1	118
624.681	1	148
624.851	1	135
625.020	1	130
625.190	1	134
625.360	1	153
625.529	1	136
625.699	1	144
625.869	1	147
626.038	1	142
626.208	1	136
626.377	1	133
626.547	1	138
626.717	1	126
626.886	1	123
627.056	1	139
627.226	1	138
627.395	1	129
627.565	1	143
627.735	1	139
627.904	1	137
628.074	1	136
628.243	1	150
628.413	1	128
628.583	1	137
628.752	1	125
628.922	1	142
629.091	1	131
629.261	1	142
629.431	1	123
629.600	1	128
629.770	1	152
629.940	1	138
630.109	1	139
630.279	1	139
630.448	1	138
630.618	1	137
630.788	1	135
630.957	1	122
631.127	1	118
631.297	1	131
631.466	1	121
631.636	1	120
631.805	1	145
631.975	1	122
632.145	1	123
632.314	1	132
632.484	1	140
632.653	1	123
632.823	1	120
632.993	1	126
633.162	1	127
633.332	1	132
633.501	1	122
633.671	1	133
633.841	1	127
634.010	1	123
634.180	1	123
634.349	1	141
634.519	1	110
634.689	1	116
634.858	1	123
635.028	1	115
635.197	1	129
635.367	1	124
635.537	1	126
635.706	1	115
635.876	1	130
636.045	1	114
636.215	1	116
636.384	1	124
636.554	1	115
636.724	1	124
636.893	1	127
637.063	1	113
637.232	1	130
637.402	1	134
637.572	1	112
637.741	1	128
637.911	1	126
638.080	1	120
638.250	1	110
638.419	1	105
638.589	1	120
638.759	1	118
638.928	1	121
639.098	1	116
639.267	1	121
639.437	1	117
639.606	1	123
639.776	1	131
639.946	1	124
640.115	1	108
640.285	1	116
640.454	1	118
640.624	1	119
640.793	1	116
640.963	1	120
641.132	1	107
641.302	1	121
641.472	1	129
641.641	1	113
641.811	1	120
641.980	1	127
642.150	1	116
642.319	1	128
642.489	1	119
642.659	1	109
642.828	1	127
642.998	1	107
643.167	1	109
643.337	1	103
643.506	1	117
643.676	1	115
643.845	1	118
644.015	1	116
644.184	1	114
644.354	1	117
644.524	1	119
644.693	1	102
644.863	1	106
645.032	1	111
645.202	1	110
645.371	1	98
645.541	1	105
645.710	1	117
645.880	1	111
646.049	1	117
646.219	1	107
646.388	1	112
646.558	1	106
646.728	1	116
646.897	1	107
647.067	1	122
647.236	1	102
647.406	1	106
647.575	1	113
647.745	1	107
647.914	1	108
648.084	1	89
648.253	1	116
648.423	1	122
648.592	1	107
648.762	1	110
648.931	1	114
649.101	1	108
649.270	1	122
649.440	1	107
649.610	1	119
649.779	1	102
649.949	1	106
650.118	1	114
650.288	1	119
650.457	1	113
650.627	1	110
650.796	1	120
650.966	1	111
651.135	1	102
651.305	1	101
651.474	1	112
651.644	1	109
651.813	1	122
651.983	1	100
652.152	1	103
652.322	1	104
652.491	1	127
652.661	1	112
652.830	1	98
653.000	1	108
653.169	1	105
653.339	1	104
653.508	1	99
653.678	1	112
653.847	1	96
654.017	1	97
654.186	1	106
654.356	1	101
654.525	1	102
654.695	1	106
654.864	1	103
655.034	1	100
655.203	1	99
655.373	1	95
655.542	1	94
655.712	1	108
655.881	1	99
656.051	1	99
656.220	1	91
656.390	1	96
656.559	1	98
656.729	1	103
656.898	1	108
657.068	1	89
657.237	1	104
657.406	1	97
657.576	1	103
657.745	1	108
657.915	1	105
658.084	1	94
658.254	1	104
658.423	1	91
658.593	1	99
658.762	1	93
658.932	1	91
659.101	1	97
659.271	1	98
659.440	1	87
659.610	1	103
659.779	1	99
659.949	1	98
660.118	1	98
660.288	1	89
660.457	1	79
660.626	1	71
660.796	1	91
660.965	1	96
661.135	1	102
661.304	1	92
661.474	1	90
661.643	1	89
661.813	1	83
661.982	1	78
662.152	1	87
662.321	1	79
662.491	1	76
662.660	1	99
662.829	1	91
662.999	1	88
663.168	1	92
663.338	1	83
663.507	1	94
663.677	1	94
663.846	1	88
664.016	1	95
664.185	1	88
664.354	1	102
664.524	1	83
664.693	1	83
664.863	1	76
665.032	1	97
665.202	1	90
665.371	1	96
665.541	1	90
665.710	1	83
665.879	1	86
666.049	1	92
666.218	1	86
666.388	1	88
666.557	1	79
666.727	1	100
666.896	1	79
667.065	1	90
667.235	1	69
667.404	1	82
667.574	1	81
667.743	1	81
667.913	1	95
668.082	1	85
668.251	1	70
668.421	1	97
668.590	1	88
668.760	1	83
668.929	1	84
669.099	1	88
669.268	1	79
669.437	1	71
669.607	1	70
669.776	1	84
669.946	1	84
670.115	1	74
670.285	1	81
670.454	1	90
670.623	1	78
670.793	1	85
670.962	1	81
671.132	1	79
671.301	1	81
671.470	1	84
671.640	1	100
671.809	1	84
671.979	1	87
672.148	1	84
672.317	1	92
672.487	1	90
672.656	1	86
672.826	1	87
672.995	1	85
673.164	1	79
673.334	1	70
673.503	1	86
673.673	1	88
673.842	1	78
674.011	1	85
674.181	1	75
674.350	1	87
674.520	1	77
674.689	1	82
674.858	1	83
675.028	1	92
675.197	1	80
675.367	1	86
675.536	1	74
675.705	1	83
675.875	1	81
676.044	1	85
676.214	1	94
676.383	1	80
676.552	1	88
676.722	1	94
676.891	1	86
677.060	1	86
677.230	1	97
677.399	1	91
677.569	1	92
677.738	1	84
677.907	1	97
678.077	1	83
678.246	1	74
678.416	1	84
678.585	1	89
678.754	1	87
678.924	1	84
679.093	1	91
679.262	1	80
679.432	1	85
679.601	1	79
679.771	1	81
679.940	1	83
680.109	1	78
680.279	1	72
680.448	1	73
680.617	1	80
680.787	1	70
680.956	1	84
681.125	1	74
681.295	1	82
681.464	1	77
681.634	1	74
681.803	1	80
681.972	1	86
682.142	1	80
682.311	1	86
682.480	1	70
682.650	1	75
682.819	1	72
682.988	1	87
683.158	1	72
683.327	1	84
683.496	1	70
683.666	1	85
683.835	1	78
684.004	1	69
684.174	1	87
684.343	1	81
684.512	1	87
684.682	1	83
684.851	1	77
685.021	1	84
685.190	1	86
685.359	1	79
685.529	1	69
685.698	1	72
685.867	1	76
686.037	1	77
686.206	1	73
686.375	1	76
686.545	1	73
686.714	1	90
686.883	1	81
687.053	1	96
687.222	1	68
687.391	1	80
687.561	1	87
687.730	1	84
687.899	1	82
688.069	1	83
688.238	1	86
688.407	1	87
688.577	1	88
688.746	1	78
