340.368	1	4
340.539	1	0
340.710	1	-5
340.881	1	11
341.052	1	2
341.223	1	15
341.394	1	1
341.565	1	4
341.737	1	9
341.908	1	11
342.079	1	7
342.250	1	10
342.421	1	3
342.592	1	18
342.763	1	9
342.934	1	4
343.105	1	7
343.276	1	6
343.447	1	9
343.618	1	21
343.789	1	7
343.960	1	4
344.131	1	1
344.302	1	21
344.473	1	8
344.644	1	5
344.815	1	8
344.986	1	11
345.157	1	17
345.328	1	1
345.499	1	-2
345.670	1	9
345.841	1	5
346.012	1	6
346.183	1	13
346.354	1	5
346.526	1	16
346.697	1	5
346.868	1	9
347.039	1	19
347.210	1	-2
347.381	1	1
347.552	1	18
347.723	1	14
347.894	1	3
348.065	1	9
348.236	1	10
348.407	1	15
348.578	1	15
348.749	1	13
348.920	1	13
349.091	1	7
349.262	1	9
349.433	1	8
349.604	1	0
349.775	1	5
349.946	1	4
350.117	1	13
350.288	1	4
350.459	1	15
350.630	1	-4
350.801	1	7
350.972	1	9
351.143	1	11
351.314	1	3
351.485	1	15
351.656	1	20
351.827	1	18
351.998	1	4
352.169	1	12
352.340	1	8
352.511	1	0
352.682	1	-1
352.853	1	1
353.024	1	15
353.195	1	-2
353.366	1	12
353.537	1	-2
353.708	1	5
353.879	1	22
354.050	1	-4
354.221	1	-2
354.392	1	-3
354.563	1	19
354.734	1	11
354.905	1	-1
355.076	1	22
355.247	1	12
355.418	1	11
355.589	1	21
355.760	1	7
355.931	1	13
356.102	1	9
356.273	1	23
356.444	1	23
356.615	1	13
356.785	1	20
356.956	1	25
357.127	1	22
357.298	1	-1
357.469	1	16
357.640	1	10
357.811	1	9
357.982	1	24
358.153	1	1
358.324	1	16
358.495	1	5
358.666	1	14
358.837	1	19
359.008	1	10
359.179	1	22
359.350	1	16
359.521	1	28
359.692	1	10
359.863	1	15
360.034	1	9
360.205	1	18
360.376	1	14
360.547	1	18
360.718	1	24
360.889	1	19
361.060	1	32
361.231	1	27
361.401	1	22
361.572	1	25
361.743	1	20
361.914	1	27
362.085	1	20
362.256	1	41
362.427	1	36
362.598	1	42
362.769	1	40
362.940	1	40
363.111	1	33
363.282	1	47
363.453	1	37
363.624	1	42
363.795	1	44
363.966	1	43
364.137	1	47
364.308	1	53
364.478	1	65
364.649	1	63
364.820	1	68
364.991	1	65
365.162	1	78
365.333	1	66
365.504	1	63
365.675	1	74
365.846	1	56
366.017	1	80
366.188	1	67
366.359	1	74
366.530	1	86
366.701	1	81
366.871	1	85
367.042	1	84
367.213	1	85
367.384	1	93
367.555	1	93
367.726	1	90
367.897	1	89
368.068	1	112
368.239	1	100
368.410	1	88
368.581	1	95
368.752	1	105
368.923	1	83
369.093	1	92
369.264	1	92
369.435	1	95
369.606	1	96
369.777	1	88
369.948	1	90
370.119	1	96
370.290	1	85
370.461	1	72
370.632	1	85
370.803	1	80
370.973	1	74
371.144	1	73
371.315	1	74
371.486	1	74
371.657	1	65
371.828	1	55
371.999	1	69
372.170	1	60
372.341	1	59
372.512	1	48
372.682	1	59
372.853	1	64
373.024	1	64
373.195	1	49
373.366	1	64
373.537	1	53
373.708	1	61
373.879	1	47
374.050	1	57
374.220	1	52
374.391	1	41
374.562	1	54
374.733	1	54
374.904	1	39
375.075	1	39
375.246	1	42
375.417	1	38
375.588	1	44
375.758	1	44
375.929	1	41
376.100	1	33
376.271	1	36
376.442	1	38
376.613	1	42
376.784	1	33
376.955	1	36
377.125	1	24
377.296	1	37
377.467	1	40
377.638	1	31
377.809	1	22
377.980	1	32
378.151	1	26
378.321	1	33
378.492	1	23
378.663	1	34
378.834	1	36
379.005	1	35
379.176	1	30
379.347	1	34
379.518	1	23
379.688	1	39
379.859	1	22
380.030	1	34
380.201	1	28
380.372	1	29
380.543	1	29
380.714	1	29
380.884	1	30
381.055	1	25
381.226	1	24
381.397	1	22
381.568	1	15
381.739	1	8
381.910	1	35
382.080	1	16
382.251	1	16
382.422	1	20
382.593	1	18
382.764	1	19
382.935	1	13
383.105	1	12
383.276	1	18
383.447	1	20
383.618	1	23
383.789	1	8
383.960	1	22
384.130	1	25
384.301	1	18
384.472	1	12
384.643	1	10
384.814	1	18
384.985	1	15
385.156	1	22
385.326	1	6
385.497	1	31
385.668	1	22
385.839	1	20
386.010	1	6
386.180	1	13
386.351	1	11
386.522	1	25
386.693	1	22
386.864	1	-3
387.035	1	8
387.205	1	12
387.376	1	24
387.547	1	12
387.718	1	6
387.889	1	16
388.060	1	17
388.230	1	13
388.401	1	19
388.572	1	16
388.743	1	6
388.914	1	18
389.084	1	16
389.255	1	14
389.426	1	5
389.597	1	14
389.768	1	13
389.939	1	19
390.109	1	10
390.280	1	15
390.451	1	23
390.622	1	7
390.793	1	18
390.963	1	0
391.134	1	10
391.305	1	4
391.476	1	12
391.647	1	15
391.817	1	20
391.988	1	21
392.159	1	9
392.330	1	14
392.501	1	5
392.671	1	19
392.842	1	-2
393.013	1	20
393.184	1	10
393.355	1	16
393.525	1	1
393.696	1	20
393.867	1	4
394.038	1	18
394.208	1	13
394.379	1	17
394.550	1	11
394.721	1	16
394.892	1	11
395.062	1	8
395.233	1	8
395.404	1	17
395.575	1	18
395.746	1	5
395.916	1	3
396.087	1	9
396.258	1	13
396.429	1	14
396.599	1	8
396.770	1	12
396.941	1	17
397.112	1	10
397.283	1	21
397.453	1	9
397.624	1	11
397.795	1	5
397.966	1	18
398.136	1	6
398.307	1	12
398.478	1	9
398.649	1	12
398.819	1	15
398.990	1	25
399.161	1	19
399.332	1	19
399.503	1	19
399.673	1	7
399.844	1	9
400.015	1	7
400.186	1	17
400.356	1	5
400.527	1	6
400.698	1	17
400.869	1	14
401.039	1	12
401.210	1	13
401.381	1	7
401.552	1	13
401.722	1	16
401.893	1	4
402.064	1	12
402.235	1	13
402.405	1	16
402.576	1	11
402.747	1	22
402.918	1	6
403.088	1	10
403.259	1	16
403.430	1	13
403.601	1	25
403.771	1	-2
403.942	1	13
404.113	1	30
404.284	1	19
404.454	1	7
404.625	1	5
404.796	1	21
404.967	1	16
405.137	1	25
405.308	1	4
405.479	1	15
405.649	1	8
405.820	1	8
405.991	1	16
406.162	1	3
406.332	1	9
406.503	1	11
406.674	1	5
406.845	1	17
407.015	1	14
407.186	1	0
407.357	1	18
407.527	1	15
407.698	1	7
407.869	1	13
408.040	1	26
408.210	1	15
408.381	1	-2
408.552	1	9
408.722	1	17
408.893	1	9
409.064	1	15
409.235	1	11
409.405	1	19
409.576	1	13
409.747	1	2
409.917	1	22
410.088	1	12
410.259	1	1
410.430	1	19
410.600	1	12
410.771	1	26
410.942	1	23
411.112	1	21
411.283	1	21
411.454	1	6
411.625	1	18
411.795	1	21
411.966	1	12
412.137	1	6
412.307	1	14
412.478	1	20
412.649	1	2
412.819	1	27
412.990	1	13
413.161	1	7
413.332	1	20
413.502	1	14
413.673	1	19
413.844	1	13
414.014	1	7
414.185	1	8
414.356	1	13
414.526	1	9
414.697	1	10
414.868	1	11
415.038	1	14
415.209	1	6
415.380	1	14
415.550	1	12
415.721	1	22
415.892	1	16
416.063	1	13
416.233	1	7
416.404	1	7
416.575	1	6
416.745	1	12
416.916	1	15
417.087	1	9
417.257	1	10
417.428	1	22
417.599	1	17
417.769	1	10
417.940	1	6
418.111	1	16
418.281	1	16
418.452	1	17
418.623	1	9
418.793	1	9
418.964	1	24
419.135	1	7
419.305	1	12
419.476	1	12
419.647	1	13
419.817	1	9
419.988	1	26
420.159	1	13
420.329	1	7
420.500	1	11
420.671	1	18
420.841	1	16
421.012	1	14
421.183	1	16
421.353	1	19
421.524	1	17
421.695	1	7
421.865	1	18
422.036	1	22
422.206	1	18
422.377	1	14
422.548	1	10
422.718	1	19
422.889	1	18
423.060	1	17
423.230	1	14
423.401	1	18
423.572	1	16
423.742	1	22
423.913	1	5
424.084	1	16
424.254	1	11
424.425	1	21
424.595	1	24
424.766	1	8
424.937	1	16
425.107	1	16
425.278	1	13
425.449	1	15
425.619	1	11
425.790	1	18
425.961	1	16
426.131	1	8
426.302	1	15
426.472	1	25
426.643	1	19
426.814	1	10
426.984	1	4
427.155	1	8
427.326	1	21
427.496	1	19
427.667	1	4
427.837	1	14
428.008	1	21
428.179	1	20
428.349	1	13
428.520	1	13
428.691	1	17
428.861	1	14
429.032	1	13
429.202	1	5
429.373	1	15
429.544	1	10
429.714	1	21
429.885	1	11
430.055	1	18
430.226	1	1
430.397	1	6
430.567	1	13
430.738	1	19
430.909	1	6
431.079	1	18
431.250	1	22
431.420	1	17
431.591	1	20
431.762	1	6
431.932	1	12
432.103	1	18
432.273	1	15
432.444	1	10
432.615	1	5
432.785	1	4
432.956	1	12
433.126	1	14
433.297	1	6
433.468	1	20
433.638	1	13
433.809	1	11
433.979	1	20
434.150	1	13
434.320	1	16
434.491	1	18
434.662	1	16
434.832	1	3
435.003	1	22
435.173	1	8
435.344	1	2
435.515	1	12
435.685	1	9
435.856	1	22
436.026	1	3
436.197	1	7
436.368	1	7
436.538	1	3
436.709	1	10
436.879	1	15
437.050	1	10
437.220	1	9
437.391	1	9
437.562	1	19
437.732	1	17
437.903	1	20
438.073	1	-2
438.244	1	22
438.414	1	17
438.585	1	12
438.756	1	7
438.926	1	7
439.097	1	15
439.267	1	10
439.438	1	8
439.608	1	19
439.779	1	16
439.949	1	7
440.120	1	10
440.291	1	13
440.461	1	14
440.632	1	14
440.802	1	10
440.973	1	16
441.143	1	11
441.314	1	10
441.485	1	14
441.655	1	13
441.826	1	16
441.996	1	7
442.167	1	9
442.337	1	16
442.508	1	12
442.678	1	15
442.849	1	22
443.019	1	8
443.190	1	21
443.361	1	15
443.531	1	12
443.702	1	16
443.872	1	-6
444.043	1	15
444.213	1	2
444.384	1	9
444.554	1	21
444.725	1	22
444.895	1	5
445.066	1	1
445.237	1	22
445.407	1	13
445.578	1	6
445.748	1	8
445.919	1	10
446.089	1	10
446.260	1	10
446.430	1	17
446.601	1	10
446.771	1	13
446.942	1	5
447.112	1	21
447.283	1	11
447.453	1	-2
447.624	1	-9
447.794	1	6
447.965	1	11
448.135	1	14
448.306	1	4
448.477	1	13
448.647	1	6
448.818	1	12
448.988	1	18
449.159	1	5
449.329	1	18
449.500	1	5
449.670	1	8
449.841	1	8
450.011	1	6
450.182	1	16
450.352	1	12
450.523	1	12
450.693	1	13
450.864	1	18
451.034	1	7
451.205	1	13
451.375	1	3
451.546	1	4
451.716	1	10
451.887	1	14
452.057	1	13
452.228	1	15
452.398	1	13
452.569	1	8
452.739	1	5
452.910	1	-2
453.080	1	11
453.251	1	1
453.421	1	19
453.592	1	-1
453.762	1	19
453.933	1	-1
454.103	1	14
454.274	1	10
454.444	1	8
454.615	1	11
454.785	1	11
454.956	1	9
455.126	1	14
455.297	1	7
455.467	1	8
455.638	1	8
455.808	1	13
455.979	1	6
456.149	1	-1
456.320	1	6
456.490	1	5
456.661	1	4
456.831	1	8
457.001	1	13
457.172	1	3
457.342	1	11
457.513	1	5
457.683	1	7
457.854	1	18
458.024	1	18
458.195	1	10
458.365	1	7
458.536	1	7
458.706	1	14
458.877	1	18
459.047	1	6
459.218	1	7
459.388	1	13
459.559	1	10
459.729	1	9
459.899	1	12
460.070	1	17
460.240	1	5
460.411	1	18
460.581	1	8
460.752	1	2
460.922	1	7
461.093	1	10
461.263	1	16
461.434	1	-1
461.604	1	7
461.775	1	14
461.945	1	14
462.115	1	6
462.286	1	-1
462.456	1	7
462.627	1	5
462.797	1	-1
462.968	1	17
463.138	1	3
463.309	1	20
463.479	1	9
463.649	1	5
463.820	1	12
463.990	1	5
464.161	1	9
464.331	1	10
464.502	1	8
464.672	1	10
464.843	1	21
465.013	1	2
465.183	1	-4
465.354	1	19
465.524	1	9
465.695	1	3
465.865	1	12
466.036	1	15
466.206	1	8
466.376	1	12
466.547	1	6
466.717	1	1
466.888	1	9
467.058	1	4
467.229	1	16
467.399	1	-2
467.569	1	13
467.740	1	12
467.910	1	18
468.081	1	17
468.251	1	3
468.422	1	6
468.592	1	9
468.762	1	3
468.933	1	8
469.103	1	7
469.274	1	9
469.444	1	13
469.614	1	9
469.785	1	3
469.955	1	5
470.126	1	13
470.296	1	3
470.467	1	2
470.637	1	8
470.807	1	22
470.978	1	1
471.148	1	2
471.319	1	5
471.489	1	10
471.659	1	8
471.830	1	8
472.000	1	-6
472.171	1	7
472.341	1	4
472.511	1	6
472.682	1	15
472.852	1	12
473.023	1	9
473.193	1	6
473.363	1	4
473.534	1	4
473.704	1	8
473.875	1	13
474.045	1	11
474.215	1	2
474.386	1	13
474.556	1	2
474.727	1	-1
474.897	1	3
475.067	1	7
475.238	1	12
475.408	1	10
475.578	1	3
475.749	1	5
475.919	1	9
476.090	1	-2
476.260	1	8
476.430	1	0
476.601	1	6
476.771	1	7
476.942	1	12
477.112	1	9
477.282	1	2
477.453	1	0
477.623	1	9
477.793	1	2
477.964	1	11
478.134	1	14
478.305	1	12
478.475	1	7
478.645	1	11
478.816	1	4
478.986	1	21
479.156	1	5
479.327	1	13
479.497	1	-2
479.667	1	1
479.838	1	17
480.008	1	13
480.179	1	8
480.349	1	11
480.519	1	5
480.690	1	12
480.860	1	7
481.030	1	8
481.201	1	7
481.371	1	-2
481.541	1	4
481.712	1	17
481.882	1	5
482.053	1	13
482.223	1	11
482.393	1	8
482.564	1	15
482.734	1	10
482.904	1	7
483.075	1	8
483.245	1	0
483.415	1	10
483.586	1	10
483.756	1	11
483.926	1	4
484.097	1	11
484.267	1	12
484.437	1	5
484.608	1	6
484.778	1	5
484.948	1	13
485.119	1	18
485.289	1	10
485.459	1	4
485.630	1	10
485.800	1	12
485.970	1	2
486.141	1	17
486.311	1	16
486.481	1	9
486.652	1	-1
486.822	1	14
486.992	1	18
487.163	1	3
487.333	1	3
487.503	1	17
487.674	1	0
487.844	1	-4
488.014	1	13
488.185	1	13
488.355	1	8
488.525	1	11
488.696	1	8
488.866	1	10
489.036	1	5
489.207	1	7
489.377	1	1
489.547	1	11
489.718	1	3
489.888	1	14
490.058	1	20
490.228	1	14
490.399	1	17
490.569	1	5
490.739	1	10
490.910	1	14
491.080	1	8
491.250	1	12
491.421	1	13
491.591	1	3
491.761	1	0
491.932	1	17
492.102	1	9
492.272	1	3
492.442	1	17
492.613	1	15
492.783	1	16
492.953	1	2
493.124	1	14
493.294	1	8
493.464	1	14
493.635	1	14
493.805	1	21
493.975	1	23
494.145	1	5
494.316	1	7
494.486	1	10
494.656	1	7
494.827	1	11
494.997	1	5
495.167	1	25
495.337	1	9
495.508	1	9
495.678	1	13
495.848	1	9
496.019	1	8
496.189	1	10
496.359	1	10
496.529	1	17
496.700	1	16
496.870	1	19
497.040	1	5
497.211	1	14
497.381	1	20
497.551	1	12
497.721	1	11
497.892	1	3
498.062	1	4
498.232	1	5
498.403	1	14
498.573	1	9
498.743	1	14
498.913	1	14
499.084	1	14
499.254	1	10
499.424	1	21
499.594	1	17
499.765	1	15
499.935	1	16
500.105	1	19
500.275	1	12
500.446	1	6
500.616	1	10
500.786	1	13
500.956	1	20
501.127	1	16
501.297	1	15
501.467	1	19
501.638	1	17
501.808	1	14
501.978	1	8
502.148	1	4
502.319	1	16
502.489	1	10
502.659	1	22
502.829	1	15
503.000	1	21
503.170	1	19
503.340	1	10
503.510	1	21
503.681	1	13
503.851	1	21
504.021	1	13
504.191	1	13
504.362	1	7
504.532	1	29
504.702	1	9
504.872	1	15
505.042	1	12
505.213	1	16
505.383	1	25
505.553	1	15
505.723	1	19
505.894	1	18
506.064	1	10
506.234	1	31
506.404	1	10
506.575	1	30
506.745	1	8
506.915	1	17
507.085	1	22
507.256	1	20
507.426	1	25
507.596	1	20
507.766	1	17
507.936	1	30
508.107	1	11
508.277	1	29
508.447	1	17
508.617	1	18
508.788	1	14
508.958	1	18
509.128	1	14
509.298	1	12
509.468	1	22
509.639	1	11
509.809	1	19
509.979	1	19
510.149	1	18
510.319	1	19
510.490	1	18
510.660	1	14
510.830	1	4
511.000	1	16
511.171	1	16
511.341	1	30
511.511	1	12
511.681	1	27
511.851	1	26
512.022	1	12
512.192	1	24
512.362	1	30
512.532	1	27
512.702	1	9
512.873	1	17
513.043	1	26
513.213	1	19
513.383	1	21
513.553	1	31
513.724	1	21
513.894	1	8
514.064	1	27
514.234	1	17
514.404	1	25
514.575	1	10
514.745	1	22
514.915	1	26
515.085	1	25
515.255	1	13
515.425	1	39
515.596	1	16
515.766	1	16
515.936	1	27
516.106	1	26
516.276	1	20
516.447	1	31
516.617	1	30
516.787	1	22
516.957	1	29
517.127	1	27
517.297	1	16
517.468	1	27
517.638	1	23
517.808	1	17
517.978	1	15
518.148	1	31
518.319	1	21
518.489	1	15
518.659	1	30
518.829	1	20
518.999	1	22
519.169	1	10
519.340	1	26
519.510	1	13
519.680	1	32
519.850	1	20
520.020	1	23
520.190	1	32
520.361	1	22
520.531	1	24
520.701	1	29
520.871	1	13
521.041	1	30
521.211	1	38
521.382	1	24
521.552	1	18
521.722	1	31
521.892	1	29
522.062	1	21
522.232	1	26
522.402	1	33
522.573	1	24
522.743	1	23
522.913	1	24
523.083	1	12
523.253	1	28
523.423	1	33
523.593	1	29
523.764	1	20
523.934	1	24
524.104	1	21
524.274	1	27
524.444	1	28
524.614	1	26
524.784	1	24
524.955	1	22
525.125	1	25
525.295	1	33
525.465	1	25
525.635	1	26
525.805	1	27
525.975	1	21
526.146	1	20
526.316	1	19
526.486	1	7
526.656	1	32
526.826	1	32
526.996	1	19
527.166	1	17
527.337	1	24
527.507	1	27
527.677	1	26
527.847	1	10
528.017	1	16
528.187	1	37
528.357	1	29
528.527	1	23
528.698	1	33
528.868	1	23
529.038	1	20
529.208	1	32
529.378	1	29
529.548	1	26
529.718	1	31
529.888	1	29
530.058	1	23
530.229	1	33
530.399	1	37
530.569	1	23
530.739	1	37
530.909	1	39
531.079	1	27
531.249	1	31
531.419	1	29
531.589	1	34
531.760	1	30
531.930	1	24
532.100	1	32
532.270	1	23
532.440	1	36
532.610	1	28
532.780	1	23
532.950	1	38
533.120	1	26
533.290	1	27
533.461	1	25
533.631	1	28
533.801	1	27
533.971	1	26
534.141	1	23
534.311	1	25
534.481	1	38
534.651	1	14
534.821	1	26
534.991	1	20
535.162	1	31
535.332	1	33
535.502	1	21
535.672	1	35
535.842	1	22
536.012	1	19
536.182	1	28
536.352	1	36
536.522	1	21
536.692	1	34
536.862	1	19
537.032	1	26
537.203	1	21
537.373	1	21
537.543	1	31
537.713	1	27
537.883	1	24
538.053	1	31
538.223	1	38
538.393	1	22
538.563	1	19
538.733	1	43
538.903	1	14
539.073	1	11
539.243	1	30
539.413	1	17
539.584	1	19
539.754	1	24
539.924	1	21
540.094	1	28
540.264	1	28
540.434	1	28
540.604	1	32
540.774	1	23
540.944	1	21
541.114	1	28
541.284	1	20
541.454	1	20
541.624	1	23
541.794	1	29
541.964	1	21
542.134	1	26
542.305	1	36
542.475	1	23
542.645	1	17
542.815	1	28
542.985	1	20
543.155	1	22
543.325	1	36
543.495	1	27
543.665	1	15
543.835	1	26
544.005	1	24
544.175	1	17
544.345	1	33
544.515	1	17
544.685	1	13
544.855	1	27
545.025	1	17
545.195	1	20
545.365	1	25
545.535	1	19
545.705	1	11
545.875	1	24
546.045	1	36
546.216	1	22
546.386	1	11
546.556	1	25
546.726	1	18
546.896	1	20
547.066	1	20
547.236	1	29
547.406	1	11
547.576	1	13
547.746	1	22
547.916	1	25
548.086	1	17
548.256	1	15
548.426	1	21
548.596	1	27
548.766	1	12
548.936	1	25
549.106	1	21
549.276	1	22
549.446	1	25
549.616	1	17
549.786	1	22
549.956	1	25
550.126	1	19
550.296	1	26
550.466	1	16
550.636	1	12
550.806	1	23
550.976	1	17
551.146	1	23
551.316	1	20
551.486	1	13
551.656	1	25
551.826	1	21
551.996	1	22
552.166	1	13
552.336	1	30
552.506	1	14
552.676	1	24
552.846	1	25
553.016	1	14
553.186	1	13
553.356	1	25
553.526	1	18
553.696	1	12
553.866	1	21
554.036	1	22
554.206	1	21
554.376	1	33
554.546	1	27
554.716	1	15
554.886	1	14
555.056	1	19
555.226	1	16
555.396	1	21
555.566	1	23
555.736	1	20
555.906	1	20
556.076	1	6
556.246	1	15
556.416	1	22
556.586	1	12
556.756	1	9
556.926	1	16
557.096	1	21
557.266	1	20
557.436	1	9
557.606	1	4
557.776	1	18
557.946	1	21
558.116	1	13
558.286	1	5
558.456	1	12
558.626	1	13
558.796	1	18
558.966	1	20
559.136	1	16
559.306	1	12
559.476	1	11
559.646	1	19
559.816	1	12
559.986	1	23
560.155	1	24
560.325	1	18
560.495	1	13
560.665	1	19
560.835	1	13
561.005	1	17
561.175	1	15
561.345	1	10
561.515	1	12
561.685	1	22
561.855	1	13
562.025	1	21
562.195	1	12
562.365	1	10
562.535	1	2
562.705	1	19
562.875	1	22
563.045	1	23
563.215	1	10
563.385	1	20
563.555	1	20
563.725	1	14
563.895	1	13
564.064	1	10
564.234	1	8
564.404	1	14
564.574	1	10
564.744	1	22
564.914	1	17
565.084	1	16
565.254	1	29
565.424	1	16
565.594	1	15
565.764	1	17
565.934	1	20
566.104	1	25
566.274	1	14
566.444	1	26
566.614	1	14
566.783	1	18
566.953	1	20
567.123	1	10
567.293	1	8
567.463	1	8
567.633	1	16
567.803	1	20
567.973	1	13
568.143	1	14
568.313	1	12
568.483	1	24
568.653	1	11
568.823	1	11
568.993	1	13
569.162	1	13
569.332	1	11
569.502	1	12
569.672	1	24
569.842	1	6
570.012	1	-3
570.182	1	6
570.352	1	21
570.522	1	7
570.692	1	16
570.862	1	-2
571.031	1	28
571.201	1	19
571.371	1	1
571.541	1	19
571.711	1	5
571.881	1	6
572.051	1	20
572.221	1	14
572.391	1	10
572.561	1	22
572.731	1	12
572.900	1	17
573.070	1	24
573.240	1	11
573.410	1	17
573.580	1	12
573.750	1	16
573.920	1	20
574.090	1	17
574.260	1	19
574.430	1	25
574.599	1	18
574.769	1	14
574.939	1	20
575.109	1	10
575.279	1	15
575.449	1	10
575.619	1	8
575.789	1	13
575.959	1	12
576.128	1	10
576.298	1	11
576.468	1	6
576.638	1	17
576.808	1	7
576.978	1	17
577.148	1	13
577.318	1	19
577.487	1	10
577.657	1	18
577.827	1	1
577.997	1	10
578.167	1	20
578.337	1	5
578.507	1	5
578.677	1	16
578.846	1	6
579.016	1	10
579.186	1	19
579.356	1	19
579.526	1	-5
579.696	1	10
579.866	1	14
580.036	1	13
580.205	1	8
580.375	1	6
580.545	1	13
580.715	1	13
580.885	1	15
581.055	1	13
581.225	1	18
581.394	1	10
581.564	1	7
581.734	1	7
581.904	1	12
582.074	1	9
582.244	1	9
582.414	1	16
582.583	1	9
582.753	1	15
582.923	1	6
583.093	1	16
583.263	1	9
583.433	1	19
583.603	1	9
583.772	1	12
583.942	1	1
584.112	1	9
584.282	1	10
584.452	1	7
584.622	1	7
584.791	1	21
584.961	1	2
585.131	1	10
585.301	1	1
585.471	1	8
585.641	1	12
585.811	1	12
585.980	1	3
586.150	1	15
586.320	1	10
586.490	1	11
586.660	1	12
586.830	1	13
586.999	1	16
587.169	1	12
587.339	1	14
587.509	1	12
587.679	1	13
587.849	1	14
588.018	1	13
588.188	1	16
588.358	1	24
588.528	1	1
588.698	1	12
588.867	1	17
589.037	1	14
589.207	1	10
589.377	1	11
589.547	1	6
589.717	1	15
589.886	1	8
590.056	1	9
590.226	1	3
590.396	1	12
590.566	1	9
590.735	1	13
590.905	1	4
591.075	1	14
591.245	1	-1
591.415	1	7
591.585	1	10
591.754	1	15
591.924	1	3
592.094	1	15
592.264	1	10
592.434	1	-2
592.603	1	-6
592.773	1	13
592.943	1	7
593.113	1	4
593.283	1	10
593.452	1	22
593.622	1	6
593.792	1	7
593.962	1	7
594.132	1	4
594.301	1	14
594.471	1	-5
594.641	1	13
594.811	1	5
594.981	1	14
595.150	1	2
595.320	1	12
595.490	1	4
595.660	1	3
595.829	1	-4
595.999	1	0
596.169	1	9
596.339	1	11
596.509	1	12
596.678	1	10
596.848	1	5
597.018	1	1
597.188	1	4
597.358	1	8
597.527	1	3
597.697	1	2
597.867	1	6
598.037	1	6
598.206	1	10
598.376	1	4
598.546	1	8
598.716	1	5
598.885	1	17
599.055	1	7
599.225	1	9
599.395	1	10
599.565	1	14
599.734	1	17
599.904	1	6
600.074	1	-1
600.244	1	3
600.413	1	2
600.583	1	12
600.753	1	10
600.923	1	4
601.092	1	1
601.262	1	3
601.432	1	-6
601.602	1	15
601.771	1	10
601.941	1	7
602.111	1	5
602.281	1	13
602.451	1	1
602.620	1	6
602.790	1	17
602.960	1	-3
603.130	1	13
603.299	1	21
603.469	1	6
603.639	1	4
603.809	1	14
603.978	1	6
604.148	1	6
604.318	1	6
604.487	1	4
604.657	1	2
604.827	1	5
604.997	1	15
605.166	1	7
605.336	1	25
605.506	1	12
605.676	1	7
605.845	1	11
606.015	1	9
606.185	1	2
606.355	1	-2
606.524	1	-1
606.694	1	15
606.864	1	20
607.034	1	11
607.203	1	10
607.373	1	9
607.543	1	4
607.712	1	3
607.882	1	9
608.052	1	4
608.222	1	9
608.391	1	5
608.561	1	9
608.731	1	0
608.901	1	12
609.070	1	13
609.240	1	4
609.410	1	9
609.579	1	9
609.749	1	7
609.919	1	-6
610.089	1	13
610.258	1	17
610.428	1	9
610.598	1	4
610.767	1	10
610.937	1	2
611.107	1	16
611.277	1	13
611.446	1	11
611.616	1	8
611.786	1	3
611.955	1	2
612.125	1	10
612.295	1	5
612.465	1	-5
612.634	1	11
612.804	1	5
612.974	1	2
613.143	1	0
613.313	1	16
613.483	1	4
613.652	1	18
613.822	1	12
613.992	1	5
614.162	1	12
614.331	1	18
614.501	1	5
614.671	1	12
614.840	1	4
615.010	1	10
615.180	1	3
615.349	1	7
615.519	1	-4
615.689	1	10
615.858	1	1
616.028	1	27
616.198	1	13
616.368	1	4
616.537	1	7
616.707	1	2
616.877	1	10
617.046	1	3
617.216	1	7
617.386	1	6
617.555	1	16
617.725	1	10
617.895	1	9
618.064	1	7
618.234	1	4
618.404	1	4
618.573	1	12
618.743	1	3
618.913	1	8
619.082	1	18
619.252	1	2
619.422	1	22
619.591	1	11
619.761	1	7
619.931	1	12
620.100	1	16
620.270	1	6
620.440	1	10
620.609	1	2
620.779	1	10
620.949	1	2
621.118	1	10
621.288	1	1
621.458	1	2
621.627	1	13
621.797	1	8
621.967	1	4
622.136	1	8
622.306	1	9
622.476	1	2
622.645	1	12
622.815	1	-5
622.985	1	-5
623.154	1	-3
623.324	1	11
623.494	1	4
623.663	1	3
623.833	1	7
624.002	1	10
624.172	1	7
624.342	1	15
624.511	1	2
624.681	1	8
624.851	1	8
625.020	1	-3
625.190	1	9
625.360	1	2
625.529	1	6
625.699	1	11
625.869	1	8
626.038	1	7
626.208	1	3
626.377	1	15
626.547	1	-8
626.717	1	9
626.886	1	-2
627.056	1	4
627.226	1	14
627.395	1	9
627.565	1	13
627.735	1	5
627.904	1	4
628.074	1	6
628.243	1	13
628.413	1	3
628.583	1	12
628.752	1	2
628.922	1	10
629.091	1	7
629.261	1	16
629.431	1	3
629.600	1	7
629.770	1	13
629.940	1	-1
630.109	1	7
630.279	1	13
630.448	1	9
630.618	1	16
630.788	1	11
630.957	1	13
631.127	1	6
631.297	1	7
631.466	1	8
631.636	1	-2
631.805	1	7
631.975	1	2
632.145	1	12
632.314	1	3
632.484	1	21
632.653	1	2
632.823	1	1
632.993	1	-1
633.162	1	-2
633.332	1	10
633.501	1	1
633.671	1	15
633.841	1	2
634.010	1	-2
634.180	1	0
634.349	1	20
634.519	1	-4
634.689	1	3
634.858	1	-2
635.028	1	6
635.197	1	15
635.367	1	21
635.537	1	9
635.706	1	6
635.876	1	9
636.045	1	-1
636.215	1	-9
636.384	1	12
636.554	1	3
636.724	1	8
636.893	1	12
637.063	1	-1
637.232	1	11
637.402	1	9
637.572	1	3
637.741	1	6
637.911	1	11
638.080	1	12
638.250	1	3
638.419	1	7
638.589	1	10
638.759	1	1
638.928	1	1
639.098	1	7
639.267	1	16
639.437	1	16
639.606	1	10
639.776	1	11
639.946	1	10
640.115	1	1
640.285	1	3
640.454	1	0
640.624	1	1
640.793	1	-1
640.963	1	13
641.132	1	7
641.302	1	12
641.472	1	18
641.641	1	11
641.811	1	-1
641.980	1	17
642.150	1	0
642.319	1	14
642.489	1	8
642.659	1	7
642.828	1	20
642.998	1	4
643.167	1	17
643.337	1	13
643.506	1	-7
643.676	1	2
643.845	1	18
644.015	1	4
644.184	1	3
644.354	1	11
644.524	1	6
644.693	1	0
644.863	1	9
645.032	1	4
645.202	1	7
645.371	1	9
645.541	1	4
645.710	1	9
645.880	1	8
646.049	1	18
646.219	1	-1
646.388	1	6
646.558	1	-8
646.728	1	10
646.897	1	1
647.067	1	27
647.236	1	-5
647.406	1	19
647.575	1	12
647.745	1	0
647.914	1	7
648.084	1	-2
648.253	1	14
648.423	1	5
648.592	1	14
648.762	1	9
648.931	1	12
649.101	1	8
649.270	1	9
649.440	1	8
649.610	1	8
649.779	1	1
649.949	1	-7
650.118	1	3
650.288	1	8
650.457	1	13
650.627	1	-6
650.796	1	11
650.966	1	-1
651.135	1	-3
651.305	1	6
651.474	1	14
651.644	1	13
651.813	1	1
651.983	1	0
652.152	1	11
652.322	1	10
652.491	1	1
652.661	1	8
652.830	1	11
653.000	1	2
653.169	1	1
653.339	1	4
653.508	1	-5
653.678	1	14
653.847	1	7
654.017	1	22
654.186	1	9
654.356	1	6
654.525	1	4
654.695	1	13
654.864	1	4
655.034	1	2
655.203	1	2
655.373	1	2
655.542	1	14
655.712	1	5
655.881	1	7
656.051	1	7
656.220	1	7
656.390	1	12
656.559	1	12
656.729	1	14
656.898	1	9
657.068	1	0
657.237	1	9
657.406	1	2
657.576	1	2
657.745	1	18
657.915	1	3
658.084	1	5
658.254	1	0
658.423	1	15
658.593	1	6
658.762	1	6
658.932	1	8
659.101	1	10
659.271	1	8
659.440	1	7
659.610	1	4
659.779	1	5
659.949	1	3
660.118	1	12
660.288	1	-10
660.457	1	-1
660.626	1	3
660.796	1	10
660.965	1	7
661.135	1	7
661.304	1	3
661.474	1	7
661.643	1	5
661.813	1	7
661.982	1	-4
662.152	1	10
662.321	1	1
662.491	1	6
662.660	1	20
662.829	1	0
662.999	1	7
663.168	1	5
663.338	1	8
663.507	1	9
663.677	1	10
663.846	1	1
664.016	1	-6
664.185	1	-4
664.354	1	0
664.524	1	12
664.693	1	2
664.863	1	-5
665.032	1	5
665.202	1	13
665.371	1	13
665.541	1	3
665.710	1	11
665.879	1	3
666.049	1	10
666.218	1	5
666.388	1	4
666.557	1	9
666.727	1	6
666.896	1	4
667.065	1	12
667.235	1	-2
667.404	1	3
667.574	1	3
667.743	1	-3
667.913	1	14
668.082	1	6
668.251	1	-5
668.421	1	10
668.590	1	2
668.760	1	1
668.929	1	-2
669.099	1	15
669.268	1	-1
669.437	1	1
669.607	1	-3
669.776	1	1
669.946	1	6
670.115	1	4
670.285	1	6
670.454	1	6
670.623	1	7
670.793	1	0
670.962	1	1
671.132	1	7
671.301	1	3
671.470	1	6
671.640	1	16
671.809	1	13
671.979	1	4
672.148	1	11
672.317	1	6
672.487	1	3
672.656	1	7
672.826	1	6
672.995	1	5
673.164	1	1
673.334	1	-1
673.503	1	6
673.673	1	9
673.842	1	5
674.011	1	15
674.181	1	6
674.350	1	6
674.520	1	9
674.689	1	-5
674.858	1	-3
675.028	1	9
675.197	1	15
675.367	1	9
675.536	1	-2
675.705	1	2
675.875	1	2
676.044	1	0
676.214	1	5
676.383	1	0
676.552	1	0
676.722	1	4
676.891	1	3
677.060	1	11
677.230	1	16
677.399	1	21
677.569	1	20
677.738	1	-2
677.907	1	16
678.077	1	7
678.246	1	8
678.416	1	-5
678.585	1	10
678.754	1	3
678.924	1	2
679.093	1	17
679.262	1	1
679.432	1	3
679.601	1	12
679.771	1	7
679.940	1	3
680.109	1	7
680.279	1	6
680.448	1	3
680.617	1	5
680.787	1	0
680.956	1	9
681.125	1	-6
681.295	1	5
681.464	1	10
681.634	1	10
681.803	1	3
681.972	1	8
682.142	1	15
682.311	1	24
682.480	1	-5
682.650	1	-1
682.819	1	4
682.988	1	0
683.158	1	2
683.327	1	-3
683.496	1	7
683.666	1	7
683.835	1	15
684.004	1	-1
684.174	1	7
684.343	1	5
684.512	1	2
684.682	1	6
684.851	1	3
685.021	1	19
685.190	1	5
685.359	1	9
685.529	1	9
685.698	1	5
685.867	1	7
686.037	1	12
686.206	1	1
686.375	1	11
686.545	1	6
686.714	1	2
686.883	1	16
687.053	1	17
687.222	1	9
687.391	1	0
687.561	1	-3
687.730	1	9
687.899	1	6
688.069	1	9
688.238	1	5
688.407	1	3
688.577	1	-3
688.746	1	-2
