340.368	1	1
340.539	1	-1
340.710	1	0
340.881	1	5
341.052	1	0
341.223	1	3
341.394	1	3
341.565	1	7
341.737	1	4
341.908	1	10
342.079	1	7
342.250	1	18
342.421	1	-7
342.592	1	7
342.763	1	5
342.934	1	-6
343.105	1	-3
343.276	1	6
343.447	1	7
343.618	1	11
343.789	1	-6
343.960	1	5
344.131	1	-5
344.302	1	6
344.473	1	-1
344.644	1	9
344.815	1	4
344.986	1	5
345.157	1	12
345.328	1	2
345.499	1	10
345.670	1	-4
345.841	1	8
346.012	1	3
346.183	1	6
346.354	1	7
346.526	1	14
346.697	1	14
346.868	1	-6
347.039	1	6
347.210	1	6
347.381	1	13
347.552	1	20
347.723	1	9
347.894	1	-7
348.065	1	1
348.236	1	11
348.407	1	13
348.578	1	8
348.749	1	9
348.920	1	6
349.091	1	1
349.262	1	2
349.433	1	-5
349.604	1	3
349.775	1	13
349.946	1	-9
350.117	1	12
350.288	1	3
350.459	1	6
350.630	1	5
350.801	1	-5
350.972	1	15
351.143	1	11
351.314	1	-2
351.485	1	4
351.656	1	13
351.827	1	1
351.998	1	7
352.169	1	2
352.340	1	10
352.511	1	-3
352.682	1	-4
352.853	1	-3
353.024	1	15
353.195	1	-7
353.366	1	8
353.537	1	6
353.708	1	9
353.879	1	19
354.050	1	2
354.221	1	-3
354.392	1	-8
354.563	1	25
354.734	1	-1
354.905	1	-7
355.076	1	15
355.247	1	5
355.418	1	0
355.589	1	12
355.760	1	8
355.931	1	14
356.102	1	1
356.273	1	6
356.444	1	7
356.615	1	16
356.785	1	9
356.956	1	14
357.127	1	13
357.298	1	-1
357.469	1	8
357.640	1	0
357.811	1	2
357.982	1	9
358.153	1	2
358.324	1	0
358.495	1	8
358.666	1	12
358.837	1	13
359.008	1	5
359.179	1	9
359.350	1	2
359.521	1	14
359.692	1	-3
359.863	1	7
360.034	1	3
360.205	1	15
360.376	1	11
360.547	1	17
360.718	1	8
360.889	1	5
361.060	1	18
361.231	1	3
361.401	1	10
361.572	1	13
361.743	1	-5
361.914	1	8
362.085	1	19
362.256	1	18
362.427	1	13
362.598	1	14
362.769	1	21
362.940	1	3
363.111	1	11
363.282	1	9
363.453	1	23
363.624	1	17
363.795	1	12
363.966	1	23
364.137	1	19
364.308	1	17
364.478	1	28
364.649	1	15
364.820	1	18
364.991	1	21
365.162	1	29
365.333	1	21
365.504	1	9
365.675	1	32
365.846	1	7
366.017	1	24
366.188	1	17
366.359	1	31
366.530	1	22
366.701	1	18
366.871	1	34
367.042	1	32
367.213	1	24
367.384	1	24
367.555	1	29
367.726	1	31
367.897	1	21
368.068	1	37
368.239	1	30
368.410	1	30
368.581	1	35
368.752	1	36
368.923	1	22
369.093	1	38
369.264	1	44
369.435	1	33
369.606	1	27
369.777	1	36
369.948	1	30
370.119	1	30
370.290	1	34
370.461	1	32
370.632	1	34
370.803	1	28
370.973	1	38
371.144	1	26
371.315	1	30
371.486	1	28
371.657	1	36
371.828	1	27
371.999	1	12
372.170	1	25
372.341	1	30
372.512	1	13
372.682	1	12
372.853	1	36
373.024	1	20
373.195	1	22
373.366	1	32
373.537	1	9
373.708	1	10
373.879	1	25
374.050	1	22
374.220	1	23
374.391	1	14
374.562	1	29
374.733	1	17
374.904	1	21
375.075	1	10
375.246	1	18
375.417	1	14
375.588	1	8
375.758	1	18
375.929	1	15
376.100	1	13
376.271	1	10
376.442	1	21
376.613	1	10
376.784	1	16
376.955	1	16
377.125	1	4
377.296	1	15
377.467	1	18
377.638	1	6
377.809	1	1
377.980	1	11
378.151	1	-2
378.321	1	22
378.492	1	-7
378.663	1	13
378.834	1	12
379.005	1	16
379.176	1	10
379.347	1	6
379.518	1	4
379.688	1	19
379.859	1	4
380.030	1	13
380.201	1	13
380.372	1	11
380.543	1	10
380.714	1	16
380.884	1	14
381.055	1	-1
381.226	1	10
381.397	1	9
381.568	1	7
381.739	1	-3
381.910	1	18
382.080	1	11
382.251	1	0
382.422	1	16
382.593	1	13
382.764	1	12
382.935	1	2
383.105	1	4
383.276	1	4
383.447	1	4
383.618	1	11
383.789	1	-4
383.960	1	0
384.130	1	5
384.301	1	13
384.472	1	9
384.643	1	13
384.814	1	11
384.985	1	10
385.156	1	7
385.326	1	4
385.497	1	23
385.668	1	11
385.839	1	13
386.010	1	4
386.180	1	4
386.351	1	10
386.522	1	7
386.693	1	5
386.864	1	2
387.035	1	7
387.205	1	10
387.376	1	5
387.547	1	11
387.718	1	-1
387.889	1	5
388.060	1	7
388.230	1	6
388.401	1	2
388.572	1	6
388.743	1	-1
388.914	1	4
389.084	1	14
389.255	1	8
389.426	1	-4
389.597	1	6
389.768	1	2
389.939	1	10
390.109	1	-2
390.280	1	1
390.451	1	20
390.622	1	-3
390.793	1	17
390.963	1	-5
391.134	1	19
391.305	1	3
391.476	1	15
391.647	1	11
391.817	1	-1
391.988	1	-3
392.159	1	8
392.330	1	6
392.501	1	1
392.671	1	10
392.842	1	1
393.013	1	3
393.184	1	8
393.355	1	16
393.525	1	-2
393.696	1	12
393.867	1	5
394.038	1	7
394.208	1	6
394.379	1	14
394.550	1	10
394.721	1	-2
394.892	1	21
395.062	1	-3
395.233	1	15
395.404	1	1
395.575	1	12
395.746	1	7
395.916	1	5
396.087	1	12
396.258	1	11
396.429	1	9
396.599	1	6
396.770	1	14
396.941	1	8
397.112	1	9
397.283	1	9
397.453	1	6
397.624	1	6
397.795	1	4
397.966	1	11
398.136	1	0
398.307	1	8
398.478	1	-1
398.649	1	7
398.819	1	10
398.990	1	12
399.161	1	13
399.332	1	12
399.503	1	12
399.673	1	7
399.844	1	-1
400.015	1	4
400.186	1	4
400.356	1	0
400.527	1	9
400.698	1	15
400.869	1	6
401.039	1	-1
401.210	1	13
401.381	1	4
401.552	1	8
401.722	1	13
401.893	1	8
402.064	1	6
402.235	1	19
402.405	1	6
402.576	1	2
402.747	1	17
402.918	1	2
403.088	1	14
403.259	1	10
403.430	1	4
403.601	1	15
403.771	1	-1
403.942	1	1
404.113	1	16
404.284	1	14
404.454	1	6
404.625	1	-7
404.796	1	21
404.967	1	9
405.137	1	10
405.308	1	-9
405.479	1	9
405.649	1	7
405.820	1	-7
405.991	1	12
406.162	1	7
406.332	1	8
406.503	1	2
406.674	1	0
406.845	1	22
407.015	1	16
407.186	1	-4
407.357	1	15
407.527	1	7
407.698	1	11
407.869	1	0
408.040	1	23
408.210	1	7
408.381	1	5
408.552	1	5
408.722	1	10
408.893	1	2
409.064	1	1
409.235	1	3
409.405	1	7
409.576	1	6
409.747	1	0
409.917	1	15
410.088	1	9
410.259	1	3
410.430	1	13
410.600	1	16
410.771	1	4
410.942	1	6
411.112	1	2
411.283	1	13
411.454	1	4
411.625	1	4
411.795	1	10
411.966	1	7
412.137	1	7
412.307	1	13
412.478	1	8
412.649	1	12
412.819	1	11
412.990	1	11
413.161	1	7
413.332	1	3
413.502	1	8
413.673	1	7
413.844	1	10
414.014	1	12
414.185	1	16
414.356	1	16
414.526	1	1
414.697	1	12
414.868	1	2
415.038	1	5
415.209	1	0
415.380	1	4
415.550	1	8
415.721	1	3
415.892	1	17
416.063	1	14
416.233	1	10
416.404	1	0
416.575	1	0
416.745	1	5
416.916	1	11
417.087	1	11
417.257	1	11
417.428	1	10
417.599	1	8
417.769	1	9
417.940	1	-5
418.111	1	6
418.281	1	17
418.452	1	5
418.623	1	8
418.793	1	8
418.964	1	13
419.135	1	12
419.305	1	15
419.476	1	10
419.647	1	12
419.817	1	11
419.988	1	20
420.159	1	13
420.329	1	9
420.500	1	4
420.671	1	17
420.841	1	6
421.012	1	9
421.183	1	12
421.353	1	10
421.524	1	8
421.695	1	17
421.865	1	19
422.036	1	11
422.206	1	9
422.377	1	7
422.548	1	15
422.718	1	12
422.889	1	0
423.060	1	14
423.230	1	13
423.401	1	8
423.572	1	6
423.742	1	12
423.913	1	5
424.084	1	10
424.254	1	10
424.425	1	15
424.595	1	11
424.766	1	18
424.937	1	-1
425.107	1	7
425.278	1	1
425.449	1	4
425.619	1	10
425.790	1	17
425.961	1	21
426.131	1	-1
426.302	1	-6
426.472	1	12
426.643	1	7
426.814	1	17
426.984	1	-1
427.155	1	0
427.326	1	11
427.496	1	5
427.667	1	6
427.837	1	7
428.008	1	12
428.179	1	13
428.349	1	11
428.520	1	-2
428.691	1	15
428.861	1	17
429.032	1	5
429.202	1	0
429.373	1	21
429.544	1	6
429.714	1	13
429.885	1	14
430.055	1	9
430.226	1	-2
430.397	1	10
430.567	1	-11
430.738	1	17
430.909	1	4
431.079	1	17
431.250	1	15
431.420	1	4
431.591	1	7
431.762	1	13
431.932	1	7
432.103	1	0
432.273	1	15
432.444	1	7
432.615	1	5
432.785	1	-7
432.956	1	18
433.126	1	11
433.297	1	8
433.468	1	7
433.638	1	13
433.809	1	5
433.979	1	5
434.150	1	11
434.320	1	7
434.491	1	16
434.662	1	15
434.832	1	-2
435.003	1	2
435.173	1	16
435.344	1	8
435.515	1	3
435.685	1	0
435.856	1	12
436.026	1	5
436.197	1	5
436.368	1	5
436.538	1	9
436.709	1	1
436.879	1	10
437.050	1	6
437.220	1	16
437.391	1	7
437.562	1	6
437.732	1	15
437.903	1	-1
438.073	1	-1
438.244	1	12
438.414	1	3
438.585	1	7
438.756	1	1
438.926	1	5
439.097	1	7
439.267	1	6
439.438	1	15
439.608	1	-2
439.779	1	10
439.949	1	7
440.120	1	8
440.291	1	16
440.461	1	3
440.632	1	1
440.802	1	1
440.973	1	7
441.143	1	-2
441.314	1	6
441.485	1	7
441.655	1	20
441.826	1	3
441.996	1	6
442.167	1	1
442.337	1	5
442.508	1	7
442.678	1	5
442.849	1	5
443.019	1	4
443.190	1	16
443.361	1	20
443.531	1	7
443.702	1	14
443.872	1	-4
444.043	1	17
444.213	1	-6
444.384	1	8
444.554	1	4
444.725	1	15
444.895	1	-2
445.066	1	1
445.237	1	8
445.407	1	8
445.578	1	0
445.748	1	7
445.919	1	-4
446.089	1	4
446.260	1	17
446.430	1	12
446.601	1	6
446.771	1	10
446.942	1	5
447.112	1	9
447.283	1	10
447.453	1	1
447.624	1	1
447.794	1	-6
447.965	1	7
448.135	1	14
448.306	1	5
448.477	1	-2
448.647	1	4
448.818	1	4
448.988	1	6
449.159	1	1
449.329	1	5
449.500	1	10
449.670	1	5
449.841	1	10
450.011	1	5
450.182	1	10
450.352	1	0
450.523	1	3
450.693	1	15
450.864	1	-4
451.034	1	0
451.205	1	6
451.375	1	12
451.546	1	5
451.716	1	5
451.887	1	5
452.057	1	9
452.228	1	2
452.398	1	19
452.569	1	-4
452.739	1	1
452.910	1	3
453.080	1	8
453.251	1	3
453.421	1	5
453.592	1	8
453.762	1	7
453.933	1	2
454.103	1	10
454.274	1	-4
454.444	1	-3
454.615	1	16
454.785	1	9
454.956	1	8
455.126	1	1
455.297	1	4
455.467	1	8
455.638	1	4
455.808	1	13
455.979	1	9
456.149	1	0
456.320	1	17
456.490	1	3
456.661	1	2
456.831	1	-2
457.001	1	6
457.172	1	10
457.342	1	3
457.513	1	0
457.683	1	-7
457.854	1	3
458.024	1	7
458.195	1	-1
458.365	1	0
458.536	1	14
458.706	1	19
458.877	1	3
459.047	1	-1
459.218	1	4
459.388	1	-10
459.559	1	-3
459.729	1	0
459.899	1	4
460.070	1	14
460.240	1	-1
460.411	1	10
460.581	1	-7
460.752	1	7
460.922	1	-2
461.093	1	8
461.263	1	16
461.434	1	2
461.604	1	3
461.775	1	9
461.945	1	3
462.115	1	10
462.286	1	-1
462.456	1	-6
462.627	1	-7
462.797	1	2
462.968	1	12
463.138	1	-7
463.309	1	7
463.479	1	0
463.649	1	5
463.820	1	6
463.990	1	2
464.161	1	2
464.331	1	8
464.502	1	10
464.672	1	8
464.843	1	16
465.013	1	14
465.183	1	-8
465.354	1	9
465.524	1	8
465.695	1	7
465.865	1	-7
466.036	1	12
466.206	1	-4
466.376	1	10
466.547	1	0
466.717	1	2
466.888	1	0
467.058	1	9
467.229	1	14
467.399	1	-4
467.569	1	1
467.740	1	17
467.910	1	5
468.081	1	12
468.251	1	2
468.422	1	4
468.592	1	5
468.762	1	2
468.933	1	9
469.103	1	3
469.274	1	-3
469.444	1	2
469.614	1	3
469.785	1	1
469.955	1	-11
470.126	1	11
470.296	1	13
470.467	1	3
470.637	1	3
470.807	1	13
470.978	1	-6
471.148	1	-1
471.319	1	6
471.489	1	11
471.659	1	5
471.830	1	-3
472.000	1	-2
472.171	1	9
472.341	1	11
472.511	1	2
472.682	1	11
472.852	1	10
473.023	1	7
473.193	1	0
473.363	1	12
473.534	1	3
473.704	1	2
473.875	1	4
474.045	1	-11
474.215	1	10
474.386	1	2
474.556	1	-2
474.727	1	-4
474.897	1	-2
475.067	1	6
475.238	1	6
475.408	1	7
475.578	1	-1
475.749	1	7
475.919	1	1
476.090	1	6
476.260	1	-2
476.430	1	-6
476.601	1	-1
476.771	1	2
476.942	1	3
477.112	1	16
477.282	1	-2
477.453	1	2
477.623	1	3
477.793	1	-6
477.964	1	6
478.134	1	11
478.305	1	7
478.475	1	11
478.645	1	6
478.816	1	4
478.986	1	11
479.156	1	3
479.327	1	7
479.497	1	2
479.667	1	5
479.838	1	8
480.008	1	7
480.179	1	10
480.349	1	1
480.519	1	6
480.690	1	4
480.860	1	-1
481.030	1	-1
481.201	1	-3
481.371	1	-4
481.541	1	3
481.712	1	11
481.882	1	0
482.053	1	11
482.223	1	6
482.393	1	10
482.564	1	16
482.734	1	7
482.904	1	-3
483.075	1	17
483.245	1	5
483.415	1	2
483.586	1	0
483.756	1	11
483.926	1	0
484.097	1	6
484.267	1	-2
484.437	1	8
484.608	1	5
484.778	1	1
484.948	1	11
485.119	1	13
485.289	1	-9
485.459	1	-2
485.630	1	13
485.800	1	-3
485.970	1	-1
486.141	1	8
486.311	1	13
486.481	1	-5
486.652	1	0
486.822	1	12
486.992	1	8
487.163	1	2
487.333	1	5
487.503	1	-6
487.674	1	-10
487.844	1	-6
488.014	1	9
488.185	1	11
488.355	1	4
488.525	1	-1
488.696	1	3
488.866	1	2
489.036	1	-2
489.207	1	10
489.377	1	1
489.547	1	12
489.718	1	-6
489.888	1	6
490.058	1	6
490.228	1	7
490.399	1	12
490.569	1	-4
490.739	1	9
490.910	1	10
491.080	1	2
491.250	1	8
491.421	1	7
491.591	1	2
491.761	1	4
491.932	1	4
492.102	1	3
492.272	1	-5
492.442	1	10
492.613	1	-3
492.783	1	8
492.953	1	2
493.124	1	4
493.294	1	-1
493.464	1	7
493.635	1	13
493.805	1	6
493.975	1	15
494.145	1	-4
494.316	1	-3
494.486	1	-4
494.656	1	18
494.827	1	-2
494.997	1	3
495.167	1	2
495.337	1	11
495.508	1	3
495.678	1	9
495.848	1	0
496.019	1	8
496.189	1	7
496.359	1	-2
496.529	1	6
496.700	1	4
496.870	1	-3
497.040	1	-5
497.211	1	6
497.381	1	12
497.551	1	7
497.721	1	-8
497.892	1	10
498.062	1	0
498.232	1	10
498.403	1	4
498.573	1	6
498.743	1	16
498.913	1	4
499.084	1	2
499.254	1	4
499.424	1	3
499.594	1	6
499.765	1	12
499.935	1	12
500.105	1	11
500.275	1	2
500.446	1	1
500.616	1	2
500.786	1	-4
500.956	1	12
501.127	1	2
501.297	1	10
501.467	1	15
501.638	1	5
501.808	1	4
501.978	1	-1
502.148	1	-2
502.319	1	4
502.489	1	2
502.659	1	14
502.829	1	-2
503.000	1	9
503.170	1	11
503.340	1	8
503.510	1	3
503.681	1	6
503.851	1	8
504.021	1	11
504.191	1	7
504.362	1	-4
504.532	1	5
504.702	1	-2
504.872	1	5
505.042	1	4
505.213	1	0
505.383	1	17
505.553	1	14
505.723	1	8
505.894	1	14
506.064	1	1
506.234	1	13
506.404	1	3
506.575	1	14
506.745	1	4
506.915	1	12
507.085	1	14
507.256	1	11
507.426	1	4
507.596	1	15
507.766	1	9
507.936	1	11
508.107	1	-3
508.277	1	5
508.447	1	3
508.617	1	12
508.788	1	10
508.958	1	17
509.128	1	9
509.298	1	5
509.468	1	7
509.639	1	-5
509.809	1	-2
509.979	1	4
510.149	1	1
510.319	1	5
510.490	1	6
510.660	1	3
510.830	1	-2
511.000	1	9
511.171	1	6
511.341	1	14
511.511	1	2
511.681	1	15
511.851	1	15
512.022	1	-4
512.192	1	10
512.362	1	9
512.532	1	20
512.702	1	0
512.873	1	4
513.043	1	4
513.213	1	6
513.383	1	6
513.553	1	10
513.724	1	8
513.894	1	8
514.064	1	6
514.234	1	10
514.404	1	14
514.575	1	6
514.745	1	5
514.915	1	1
515.085	1	22
515.255	1	-3
515.425	1	13
515.596	1	9
515.766	1	10
515.936	1	-1
516.106	1	11
516.276	1	3
516.447	1	9
516.617	1	7
516.787	1	8
516.957	1	2
517.127	1	19
517.297	1	3
517.468	1	13
517.638	1	11
517.808	1	-2
517.978	1	4
518.148	1	10
518.319	1	4
518.489	1	18
518.659	1	11
518.829	1	14
518.999	1	17
519.169	1	-3
519.340	1	16
519.510	1	-3
519.680	1	9
519.850	1	1
520.020	1	3
520.190	1	6
520.361	1	4
520.531	1	11
520.701	1	11
520.871	1	9
521.041	1	17
521.211	1	10
521.382	1	-4
521.552	1	9
521.722	1	5
521.892	1	3
522.062	1	13
522.232	1	10
522.402	1	8
522.573	1	8
522.743	1	8
522.913	1	20
523.083	1	1
523.253	1	12
523.423	1	9
523.593	1	22
523.764	1	4
523.934	1	4
524.104	1	15
524.274	1	10
524.444	1	9
524.614	1	20
524.784	1	7
524.955	1	7
525.125	1	2
525.295	1	9
525.465	1	5
525.635	1	14
525.805	1	11
525.975	1	8
526.146	1	8
526.316	1	-4
526.486	1	7
526.656	1	13
526.826	1	6
526.996	1	-1
527.166	1	-1
527.337	1	6
527.507	1	9
527.677	1	11
527.847	1	2
528.017	1	7
528.187	1	20
528.357	1	12
528.527	1	13
528.698	1	17
528.868	1	2
529.038	1	3
529.208	1	13
529.378	1	8
529.548	1	17
529.718	1	15
529.888	1	7
530.058	1	3
530.229	1	18
530.399	1	9
530.569	1	4
530.739	1	11
530.909	1	15
531.079	1	2
531.249	1	10
531.419	1	7
531.589	1	18
531.760	1	15
531.930	1	1
532.100	1	23
532.270	1	17
532.440	1	8
532.610	1	22
532.780	1	19
532.950	1	20
533.120	1	8
533.290	1	12
533.461	1	13
533.631	1	9
533.801	1	7
533.971	1	6
534.141	1	7
534.311	1	8
534.481	1	14
534.651	1	3
534.821	1	4
534.991	1	2
535.162	1	2
535.332	1	11
535.502	1	4
535.672	1	10
535.842	1	-2
536.012	1	12
536.182	1	8
536.352	1	15
536.522	1	1
536.692	1	10
536.862	1	6
537.032	1	15
537.203	1	4
537.373	1	7
537.543	1	8
537.713	1	10
537.883	1	6
538.053	1	8
538.223	1	20
538.393	1	12
538.563	1	0
538.733	1	10
538.903	1	15
539.073	1	-8
539.243	1	13
539.413	1	11
539.584	1	2
539.754	1	10
539.924	1	9
540.094	1	15
540.264	1	18
540.434	1	10
540.604	1	19
540.774	1	3
540.944	1	12
541.114	1	20
541.284	1	5
541.454	1	4
541.624	1	8
541.794	1	3
541.964	1	4
542.134	1	7
542.305	1	22
542.475	1	6
542.645	1	3
542.815	1	7
542.985	1	3
543.155	1	3
543.325	1	7
543.495	1	9
543.665	1	5
543.835	1	8
544.005	1	11
544.175	1	9
544.345	1	6
544.515	1	9
544.685	1	4
544.855	1	15
545.025	1	11
545.195	1	11
545.365	1	18
545.535	1	1
545.705	1	3
545.875	1	2
546.045	1	16
546.216	1	1
546.386	1	5
546.556	1	12
546.726	1	11
546.896	1	14
547.066	1	3
547.236	1	10
547.406	1	6
547.576	1	1
547.746	1	-1
547.916	1	15
548.086	1	7
548.256	1	5
548.426	1	16
548.596	1	21
548.766	1	5
548.936	1	9
549.106	1	-1
549.276	1	14
549.446	1	8
549.616	1	8
549.786	1	11
549.956	1	-4
550.126	1	10
550.296	1	11
550.466	1	10
550.636	1	5
550.806	1	26
550.976	1	12
551.146	1	20
551.316	1	6
551.486	1	0
551.656	1	11
551.826	1	-7
551.996	1	14
552.166	1	16
552.336	1	1
552.506	1	8
552.676	1	8
552.846	1	12
553.016	1	2
553.186	1	-5
553.356	1	3
553.526	1	8
553.696	1	-1
553.866	1	-3
554.036	1	13
554.206	1	10
554.376	1	15
554.546	1	10
554.716	1	12
554.886	1	4
555.056	1	3
555.226	1	7
555.396	1	8
555.566	1	6
555.736	1	1
555.906	1	8
556.076	1	7
556.246	1	6
556.416	1	9
556.586	1	11
556.756	1	-1
556.926	1	-1
557.096	1	12
557.266	1	8
557.436	1	10
557.606	1	-6
557.776	1	0
557.946	1	16
558.116	1	16
558.286	1	-9
558.456	1	9
558.626	1	8
558.796	1	21
558.966	1	2
559.136	1	7
559.306	1	6
559.476	1	5
559.646	1	9
559.816	1	11
559.986	1	5
560.155	1	14
560.325	1	0
560.495	1	12
560.665	1	5
560.835	1	-4
561.005	1	6
561.175	1	3
561.345	1	8
561.515	1	6
561.685	1	10
561.855	1	7
562.025	1	14
562.195	1	5
562.365	1	6
562.535	1	12
562.705	1	14
562.875	1	6
563.045	1	4
563.215	1	-3
563.385	1	15
563.555	1	12
563.725	1	3
563.895	1	12
564.064	1	0
564.234	1	-4
564.404	1	3
564.574	1	6
564.744	1	15
564.914	1	12
565.084	1	9
565.254	1	18
565.424	1	0
565.594	1	-2
565.764	1	3
565.934	1	15
566.104	1	12
566.274	1	11
566.444	1	13
566.614	1	-3
566.783	1	6
566.953	1	9
567.123	1	-1
567.293	1	4
567.463	1	15
567.633	1	6
567.803	1	13
567.973	1	1
568.143	1	2
568.313	1	5
568.483	1	12
568.653	1	7
568.823	1	3
568.993	1	-3
569.162	1	3
569.332	1	5
569.502	1	12
569.672	1	2
569.842	1	3
570.012	1	-9
570.182	1	3
570.352	1	13
570.522	1	1
570.692	1	15
570.862	1	-14
571.031	1	12
571.201	1	11
571.371	1	2
571.541	1	2
571.711	1	6
571.881	1	2
572.051	1	13
572.221	1	5
572.391	1	5
572.561	1	11
572.731	1	12
572.900	1	18
573.070	1	4
573.240	1	7
573.410	1	17
573.580	1	1
573.750	1	8
573.920	1	19
574.090	1	7
574.260	1	14
574.430	1	6
574.599	1	2
574.769	1	10
574.939	1	1
575.109	1	14
575.279	1	11
575.449	1	3
575.619	1	1
575.789	1	6
575.959	1	-1
576.128	1	8
576.298	1	-14
576.468	1	4
576.638	1	10
576.808	1	5
576.978	1	12
577.148	1	-6
577.318	1	9
577.487	1	0
577.657	1	7
577.827	1	4
577.997	1	9
578.167	1	18
578.337	1	2
578.507	1	6
578.677	1	2
578.846	1	5
579.016	1	3
579.186	1	8
579.356	1	11
579.526	1	-4
579.696	1	4
579.866	1	-6
580.036	1	3
580.205	1	-3
580.375	1	8
580.545	1	7
580.715	1	1
580.885	1	3
581.055	1	3
581.225	1	6
581.394	1	3
581.564	1	7
581.734	1	6
581.904	1	5
582.074	1	4
582.244	1	0
582.414	1	6
582.583	1	2
582.753	1	1
582.923	1	-7
583.093	1	4
583.263	1	1
583.433	1	8
583.603	1	-2
583.772	1	15
583.942	1	3
584.112	1	2
584.282	1	8
584.452	1	5
584.622	1	-2
584.791	1	10
584.961	1	2
585.131	1	6
585.301	1	-4
585.471	1	6
585.641	1	8
585.811	1	6
585.980	1	-3
586.150	1	6
586.320	1	11
586.490	1	-1
586.660	1	5
586.830	1	4
586.999	1	1
587.169	1	8
587.339	1	7
587.509	1	11
587.679	1	0
587.849	1	16
588.018	1	0
588.188	1	7
588.358	1	14
588.528	1	6
588.698	1	7
588.867	1	9
589.037	1	-1
589.207	1	3
589.377	1	2
589.547	1	7
589.717	1	0
589.886	1	1
590.056	1	3
590.226	1	0
590.396	1	6
590.566	1	12
590.735	1	1
590.905	1	-1
591.075	1	10
591.245	1	-3
591.415	1	5
591.585	1	5
591.754	1	2
591.924	1	-1
592.094	1	2
592.264	1	13
592.434	1	1
592.603	1	-7
592.773	1	-1
592.943	1	-4
593.113	1	9
593.283	1	4
593.452	1	2
593.622	1	4
593.792	1	-3
593.962	1	7
594.132	1	5
594.301	1	2
594.471	1	-10
594.641	1	13
594.811	1	3
594.981	1	17
595.150	1	-5
595.320	1	9
595.490	1	-7
595.660	1	7
595.829	1	-4
595.999	1	6
596.169	1	-6
596.339	1	6
596.509	1	3
596.678	1	-1
596.848	1	12
597.018	1	1
597.188	1	10
597.358	1	9
597.527	1	4
597.697	1	-3
597.867	1	-6
598.037	1	-3
598.206	1	10
598.376	1	-2
598.546	1	18
598.716	1	9
598.885	1	4
599.055	1	-1
599.225	1	2
599.395	1	-1
599.565	1	1
599.734	1	6
599.904	1	8
600.074	1	6
600.244	1	10
600.413	1	6
600.583	1	7
600.753	1	12
600.923	1	1
601.092	1	0
601.262	1	5
601.432	1	4
601.602	1	12
601.771	1	14
601.941	1	3
602.111	1	-1
602.281	1	12
602.451	1	-4
602.620	1	11
602.790	1	-2
602.960	1	-4
603.130	1	1
603.299	1	12
603.469	1	1
603.639	1	11
603.809	1	4
603.978	1	7
604.148	1	-8
604.318	1	5
604.487	1	2
604.657	1	9
604.827	1	10
604.997	1	5
605.166	1	4
605.336	1	3
605.506	1	0
605.676	1	2
605.845	1	7
606.015	1	0
606.185	1	10
606.355	1	-5
606.524	1	-3
606.694	1	2
606.864	1	6
607.034	1	7
607.203	1	8
607.373	1	6
607.543	1	5
607.712	1	7
607.882	1	7
608.052	1	2
608.222	1	-4
608.391	1	3
608.561	1	-1
608.731	1	-4
608.901	1	7
609.070	1	0
609.240	1	11
609.410	1	4
609.579	1	3
609.749	1	-2
609.919	1	-2
610.089	1	2
610.258	1	18
610.428	1	7
610.598	1	1
610.767	1	0
610.937	1	-2
611.107	1	12
611.277	1	9
611.446	1	11
611.616	1	14
611.786	1	0
611.955	1	1
612.125	1	8
612.295	1	12
612.465	1	0
612.634	1	10
612.804	1	-1
612.974	1	6
613.143	1	5
613.313	1	3
613.483	1	-1
613.652	1	1
613.822	1	4
613.992	1	-7
614.162	1	17
614.331	1	9
614.501	1	-2
614.671	1	6
614.840	1	9
615.010	1	9
615.180	1	3
615.349	1	10
615.519	1	-6
615.689	1	-4
615.858	1	-16
616.028	1	12
616.198	1	16
616.368	1	8
616.537	1	-13
616.707	1	6
616.877	1	7
617.046	1	5
617.216	1	5
617.386	1	7
617.555	1	5
617.725	1	-1
617.895	1	7
618.064	1	-5
618.234	1	9
618.404	1	-1
618.573	1	8
618.743	1	4
618.913	1	0
619.082	1	13
619.252	1	-6
619.422	1	10
619.591	1	13
619.761	1	1
619.931	1	10
620.100	1	2
620.270	1	12
620.440	1	11
620.609	1	-6
620.779	1	1
620.949	1	10
621.118	1	17
621.288	1	0
621.458	1	4
621.627	1	-7
621.797	1	5
621.967	1	4
622.136	1	-3
622.306	1	-1
622.476	1	12
622.645	1	3
622.815	1	12
622.985	1	7
623.154	1	-10
623.324	1	14
623.494	1	-10
623.663	1	5
623.833	1	8
624.002	1	15
624.172	1	5
624.342	1	-1
624.511	1	-2
624.681	1	7
624.851	1	-1
625.020	1	-7
625.190	1	-1
625.360	1	-1
625.529	1	2
625.699	1	8
625.869	1	10
626.038	1	3
626.208	1	-6
626.377	1	8
626.547	1	5
626.717	1	-2
626.886	1	-3
627.056	1	10
627.226	1	10
627.395	1	-4
627.565	1	4
627.735	1	7
627.904	1	3
628.074	1	2
628.243	1	7
628.413	1	4
628.583	1	12
628.752	1	-1
628.922	1	5
629.091	1	11
629.261	1	2
629.431	1	-12
629.600	1	-4
629.770	1	1
629.940	1	11
630.109	1	-3
630.279	1	14
630.448	1	-1
630.618	1	14
630.788	1	-4
630.957	1	17
631.127	1	4
631.297	1	5
631.466	1	0
631.636	1	6
631.805	1	10
631.975	1	11
632.145	1	-1
632.314	1	5
632.484	1	9
632.653	1	-5
632.823	1	-10
632.993	1	-1
633.162	1	0
633.332	1	2
633.501	1	-4
633.671	1	3
633.841	1	9
634.010	1	3
634.180	1	2
634.349	1	18
634.519	1	-3
634.689	1	0
634.858	1	2
635.028	1	-7
635.197	1	-1
635.367	1	15
635.537	1	7
635.706	1	6
635.876	1	9
636.045	1	-1
636.215	1	-10
636.384	1	13
636.554	1	0
636.724	1	3
636.893	1	6
637.063	1	1
637.232	1	4
637.402	1	8
637.572	1	6
637.741	1	8
637.911	1	11
638.080	1	8
638.250	1	-9
638.419	1	3
638.589	1	6
638.759	1	4
638.928	1	1
639.098	1	-1
639.267	1	14
639.437	1	7
639.606	1	16
639.776	1	5
639.946	1	0
640.115	1	1
640.285	1	-3
640.454	1	-7
640.624	1	7
640.793	1	7
640.963	1	6
641.132	1	2
641.302	1	7
641.472	1	12
641.641	1	6
641.811	1	-1
641.980	1	15
642.150	1	-6
642.319	1	10
642.489	1	4
642.659	1	17
642.828	1	3
642.998	1	3
643.167	1	3
643.337	1	4
643.506	1	8
643.676	1	8
643.845	1	10
644.015	1	7
644.184	1	3
644.354	1	15
644.524	1	-3
644.693	1	1
644.863	1	2
645.032	1	1
645.202	1	7
645.371	1	12
645.541	1	9
645.710	1	5
645.880	1	12
646.049	1	0
646.219	1	3
646.388	1	10
646.558	1	-1
646.728	1	4
646.897	1	-17
647.067	1	13
647.236	1	-6
647.406	1	10
647.575	1	14
647.745	1	-7
647.914	1	9
648.084	1	5
648.253	1	12
648.423	1	7
648.592	1	-2
648.762	1	-1
648.931	1	12
649.101	1	1
649.270	1	7
649.440	1	8
649.610	1	11
649.779	1	2
649.949	1	-1
650.118	1	6
650.288	1	9
650.457	1	10
650.627	1	-10
650.796	1	6
650.966	1	0
651.135	1	11
651.305	1	12
651.474	1	2
651.644	1	16
651.813	1	5
651.983	1	-6
652.152	1	9
652.322	1	1
652.491	1	3
652.661	1	10
652.830	1	1
653.000	1	6
653.169	1	-2
653.339	1	3
653.508	1	-1
653.678	1	13
653.847	1	0
654.017	1	12
654.186	1	-1
654.356	1	12
654.525	1	5
654.695	1	18
654.864	1	-2
655.034	1	-5
655.203	1	5
655.373	1	0
655.542	1	1
655.712	1	12
655.881	1	11
656.051	1	-2
656.220	1	8
656.390	1	7
656.559	1	5
656.729	1	2
656.898	1	3
657.068	1	-3
657.237	1	1
657.406	1	-2
657.576	1	12
657.745	1	8
657.915	1	15
658.084	1	1
658.254	1	12
658.423	1	12
658.593	1	2
658.762	1	3
658.932	1	7
659.101	1	0
659.271	1	-3
659.440	1	8
659.610	1	6
659.779	1	21
659.949	1	1
660.118	1	3
660.288	1	-6
660.457	1	10
660.626	1	0
660.796	1	1
660.965	1	7
661.135	1	6
661.304	1	16
661.474	1	5
661.643	1	4
661.813	1	3
661.982	1	0
662.152	1	-1
662.321	1	8
662.491	1	4
662.660	1	3
662.829	1	2
662.999	1	12
663.168	1	2
663.338	1	-3
663.507	1	5
663.677	1	4
663.846	1	0
664.016	1	-7
664.185	1	3
664.354	1	7
664.524	1	9
664.693	1	-1
664.863	1	-5
665.032	1	12
665.202	1	6
665.371	1	9
665.541	1	5
665.710	1	-4
665.879	1	3
666.049	1	4
666.218	1	13
666.388	1	4
666.557	1	2
666.727	1	7
666.896	1	12
667.065	1	3
667.235	1	2
667.404	1	0
667.574	1	-10
667.743	1	2
667.913	1	5
668.082	1	4
668.251	1	-8
668.421	1	10
668.590	1	2
668.760	1	-4
668.929	1	-2
669.099	1	7
669.268	1	0
669.437	1	-3
669.607	1	-4
669.776	1	2
669.946	1	2
670.115	1	5
670.285	1	2
670.454	1	14
670.623	1	-2
670.793	1	4
670.962	1	3
671.132	1	6
671.301	1	6
671.470	1	0
671.640	1	11
671.809	1	4
671.979	1	1
672.148	1	9
672.317	1	12
672.487	1	1
672.656	1	9
672.826	1	8
672.995	1	2
673.164	1	-11
673.334	1	1
673.503	1	8
673.673	1	13
673.842	1	3
674.011	1	11
674.181	1	4
674.350	1	0
674.520	1	4
674.689	1	3
674.858	1	6
675.028	1	1
675.197	1	1
675.367	1	0
675.536	1	-6
675.705	1	-3
675.875	1	8
676.044	1	0
676.214	1	5
676.383	1	6
676.552	1	1
676.722	1	-6
676.891	1	4
677.060	1	-3
677.230	1	9
677.399	1	10
677.569	1	16
677.738	1	-2
677.907	1	13
678.077	1	-4
678.246	1	6
678.416	1	2
678.585	1	-2
678.754	1	6
678.924	1	-2
679.093	1	12
679.262	1	13
679.432	1	-3
679.601	1	15
679.771	1	4
679.940	1	-1
680.109	1	2
680.279	1	-6
680.448	1	-2
680.617	1	9
680.787	1	-14
680.956	1	10
681.125	1	-3
681.295	1	2
681.464	1	9
681.634	1	4
681.803	1	-7
681.972	1	8
682.142	1	-6
682.311	1	10
682.480	1	-3
682.650	1	-2
682.819	1	-2
682.988	1	12
683.158	1	-5
683.327	1	4
683.496	1	1
683.666	1	9
683.835	1	11
684.004	1	-5
684.174	1	3
684.343	1	11
684.512	1	1
684.682	1	10
684.851	1	-1
685.021	1	9
685.190	1	0
685.359	1	15
685.529	1	-5
685.698	1	-6
685.867	1	6
686.037	1	3
686.206	1	-7
686.375	1	10
686.545	1	4
686.714	1	6
686.883	1	8
687.053	1	14
687.222	1	11
687.391	1	0
687.561	1	6
687.730	1	5
687.899	1	0
688.069	1	-5
688.238	1	7
688.407	1	2
688.577	1	1
688.746	1	-10
