340.368	1	4
340.539	1	-1
340.710	1	3
340.881	1	2
341.052	1	1
341.223	1	9
341.394	1	-9
341.565	1	2
341.737	1	6
341.908	1	4
342.079	1	11
342.250	1	3
342.421	1	2
342.592	1	10
342.763	1	-4
342.934	1	2
343.105	1	1
343.276	1	5
343.447	1	8
343.618	1	11
343.789	1	5
343.960	1	4
344.131	1	-14
344.302	1	9
344.473	1	4
344.644	1	-3
344.815	1	8
344.986	1	6
345.157	1	19
345.328	1	8
345.499	1	2
345.670	1	-5
345.841	1	10
346.012	1	-2
346.183	1	7
346.354	1	1
346.526	1	15
346.697	1	2
346.868	1	-2
347.039	1	5
347.210	1	6
347.381	1	9
347.552	1	16
347.723	1	3
347.894	1	5
348.065	1	-1
348.236	1	3
348.407	1	11
348.578	1	9
348.749	1	14
348.920	1	2
349.091	1	8
349.262	1	7
349.433	1	-8
349.604	1	-2
349.775	1	3
349.946	1	-4
350.117	1	4
350.288	1	-9
350.459	1	7
350.630	1	-8
350.801	1	-1
350.972	1	11
351.143	1	10
351.314	1	2
351.485	1	9
351.656	1	11
351.827	1	5
351.998	1	-3
352.169	1	9
352.340	1	7
352.511	1	-4
352.682	1	-5
352.853	1	0
353.024	1	10
353.195	1	-4
353.366	1	1
353.537	1	-4
353.708	1	-4
353.879	1	17
354.050	1	-4
354.221	1	-8
354.392	1	-2
354.563	1	17
354.734	1	-2
354.905	1	7
355.076	1	11
355.247	1	4
355.418	1	9
355.589	1	15
355.760	1	11
355.931	1	8
356.102	1	7
356.273	1	4
356.444	1	4
356.615	1	5
356.785	1	7
356.956	1	3
357.127	1	15
357.298	1	-6
357.469	1	6
357.640	1	10
357.811	1	9
357.982	1	10
358.153	1	-4
358.324	1	6
358.495	1	3
358.666	1	6
358.837	1	6
359.008	1	-1
359.179	1	2
359.350	1	-2
359.521	1	14
359.692	1	2
359.863	1	4
360.034	1	-9
360.205	1	13
360.376	1	13
360.547	1	10
360.718	1	6
360.889	1	5
361.060	1	23
361.231	1	14
361.401	1	2
361.572	1	5
361.743	1	3
361.914	1	13
362.085	1	8
362.256	1	16
362.427	1	10
362.598	1	0
362.769	1	15
362.940	1	14
363.111	1	16
363.282	1	-3
363.453	1	8
363.624	1	19
363.795	1	-1
363.966	1	13
364.137	1	16
364.308	1	14
364.478	1	24
364.649	1	8
364.820	1	14
364.991	1	14
365.162	1	21
365.333	1	12
365.504	1	9
365.675	1	25
365.846	1	3
366.017	1	15
366.188	1	22
366.359	1	12
366.530	1	23
366.701	1	9
366.871	1	15
367.042	1	19
367.213	1	22
367.384	1	9
367.555	1	23
367.726	1	14
367.897	1	20
368.068	1	31
368.239	1	21
368.410	1	18
368.581	1	15
368.752	1	27
368.923	1	21
369.093	1	27
369.264	1	19
369.435	1	26
369.606	1	12
369.777	1	33
369.948	1	15
370.119	1	28
370.290	1	21
370.461	1	21
370.632	1	14
370.803	1	14
370.973	1	18
371.144	1	14
371.315	1	22
371.486	1	18
371.657	1	25
371.828	1	22
371.999	1	11
372.170	1	22
372.341	1	16
372.512	1	5
372.682	1	22
372.853	1	18
373.024	1	11
373.195	1	14
373.366	1	22
373.537	1	7
373.708	1	17
373.879	1	11
374.050	1	12
374.220	1	22
374.391	1	-1
374.562	1	17
374.733	1	18
374.904	1	6
375.075	1	4
375.246	1	7
375.417	1	7
375.588	1	3
375.758	1	16
375.929	1	8
376.100	1	2
376.271	1	11
376.442	1	16
376.613	1	8
376.784	1	5
376.955	1	-3
377.125	1	3
377.296	1	17
377.467	1	16
377.638	1	1
377.809	1	2
377.980	1	3
378.151	1	1
378.321	1	8
378.492	1	-6
378.663	1	13
378.834	1	10
379.005	1	3
379.176	1	10
379.347	1	4
379.518	1	3
379.688	1	7
379.859	1	4
380.030	1	4
380.201	1	11
380.372	1	0
380.543	1	6
380.714	1	15
380.884	1	9
381.055	1	1
381.226	1	6
381.397	1	3
381.568	1	-2
381.739	1	7
381.910	1	8
382.080	1	1
382.251	1	-2
382.422	1	14
382.593	1	9
382.764	1	1
382.935	1	1
383.105	1	-2
383.276	1	8
383.447	1	-5
383.618	1	14
383.789	1	-2
383.960	1	7
384.130	1	-1
384.301	1	-2
384.472	1	-1
384.643	1	12
384.814	1	3
384.985	1	2
385.156	1	1
385.326	1	-1
385.497	1	12
385.668	1	3
385.839	1	5
386.010	1	-5
386.180	1	8
386.351	1	3
386.522	1	15
386.693	1	3
386.864	1	-6
387.035	1	5
387.205	1	6
387.376	1	6
387.547	1	13
387.718	1	6
387.889	1	8
388.060	1	-2
388.230	1	8
388.401	1	13
388.572	1	-1
388.743	1	-6
388.914	1	7
389.084	1	4
389.255	1	8
389.426	1	-7
389.597	1	8
389.768	1	1
389.939	1	13
390.109	1	-3
390.280	1	6
390.451	1	8
390.622	1	-9
390.793	1	6
390.963	1	-9
391.134	1	7
391.305	1	0
391.476	1	6
391.647	1	4
391.817	1	-2
391.988	1	-2
392.159	1	-2
392.330	1	-1
392.501	1	8
392.671	1	3
392.842	1	0
393.013	1	6
393.184	1	4
393.355	1	10
393.525	1	0
393.696	1	13
393.867	1	0
394.038	1	5
394.208	1	-4
394.379	1	10
394.550	1	9
394.721	1	3
394.892	1	3
395.062	1	0
395.233	1	1
395.404	1	9
395.575	1	5
395.746	1	4
395.916	1	-5
396.087	1	6
396.258	1	9
396.429	1	10
396.599	1	13
396.770	1	6
396.941	1	-8
397.112	1	4
397.283	1	9
397.453	1	-1
397.624	1	0
397.795	1	0
397.966	1	2
398.136	1	6
398.307	1	13
398.478	1	-5
398.649	1	-3
398.819	1	4
398.990	1	13
399.161	1	9
399.332	1	5
399.503	1	8
399.673	1	-8
399.844	1	-4
400.015	1	1
400.186	1	0
400.356	1	-1
400.527	1	8
400.698	1	13
400.869	1	2
401.039	1	4
401.210	1	0
401.381	1	-1
401.552	1	6
401.722	1	10
401.893	1	5
402.064	1	3
402.235	1	6
402.405	1	5
402.576	1	6
402.747	1	6
402.918	1	0
403.088	1	4
403.259	1	5
403.430	1	2
403.601	1	6
403.771	1	-7
403.942	1	3
404.113	1	6
404.284	1	10
404.454	1	-3
404.625	1	1
404.796	1	14
404.967	1	0
405.137	1	7
405.308	1	-8
405.479	1	12
405.649	1	8
405.820	1	-2
405.991	1	12
406.162	1	-4
406.332	1	1
406.503	1	4
406.674	1	10
406.845	1	17
407.015	1	7
407.186	1	-8
407.357	1	8
407.527	1	-7
407.698	1	8
407.869	1	-4
408.040	1	17
408.210	1	16
408.381	1	-2
408.552	1	-7
408.722	1	5
408.893	1	-3
409.064	1	8
409.235	1	-1
409.405	1	6
409.576	1	2
409.747	1	0
409.917	1	16
410.088	1	14
410.259	1	0
410.430	1	4
410.600	1	1
410.771	1	9
410.942	1	15
411.112	1	-2
411.283	1	11
411.454	1	7
411.625	1	3
411.795	1	13
411.966	1	2
412.137	1	4
412.307	1	4
412.478	1	0
412.649	1	0
412.819	1	14
412.990	1	3
413.161	1	11
413.332	1	12
413.502	1	5
413.673	1	6
413.844	1	13
414.014	1	1
414.185	1	5
414.356	1	12
414.526	1	-4
414.697	1	4
414.868	1	2
415.038	1	8
415.209	1	2
415.380	1	1
415.550	1	4
415.721	1	7
415.892	1	7
416.063	1	9
416.233	1	10
416.404	1	6
416.575	1	-4
416.745	1	10
416.916	1	0
417.087	1	5
417.257	1	4
417.428	1	9
417.599	1	3
417.769	1	-4
417.940	1	-6
418.111	1	15
418.281	1	15
418.452	1	7
418.623	1	1
418.793	1	6
418.964	1	15
419.135	1	6
419.305	1	9
419.476	1	-2
419.647	1	3
419.817	1	5
419.988	1	18
420.159	1	12
420.329	1	-2
420.500	1	6
420.671	1	4
420.841	1	4
421.012	1	-8
421.183	1	11
421.353	1	7
421.524	1	4
421.695	1	12
421.865	1	7
422.036	1	14
422.206	1	6
422.377	1	-7
422.548	1	5
422.718	1	21
422.889	1	11
423.060	1	14
423.230	1	9
423.401	1	1
423.572	1	2
423.742	1	7
423.913	1	-9
424.084	1	5
424.254	1	3
424.425	1	14
424.595	1	21
424.766	1	12
424.937	1	4
425.107	1	4
425.278	1	4
425.449	1	-6
425.619	1	2
425.790	1	6
425.961	1	14
426.131	1	0
426.302	1	-2
426.472	1	9
426.643	1	-2
426.814	1	6
426.984	1	-3
427.155	1	10
427.326	1	5
427.496	1	3
427.667	1	11
427.837	1	8
428.008	1	12
428.179	1	23
428.349	1	8
428.520	1	3
428.691	1	5
428.861	1	8
429.032	1	2
429.202	1	-3
429.373	1	4
429.544	1	8
429.714	1	14
429.885	1	13
430.055	1	8
430.226	1	-5
430.397	1	-2
430.567	1	-6
430.738	1	4
430.909	1	-4
431.079	1	11
431.250	1	-4
431.420	1	11
431.591	1	9
431.762	1	7
431.932	1	3
432.103	1	11
432.273	1	11
432.444	1	8
432.615	1	-9
432.785	1	4
432.956	1	1
433.126	1	5
433.297	1	1
433.468	1	0
433.638	1	11
433.809	1	-1
433.979	1	10
434.150	1	9
434.320	1	6
434.491	1	6
434.662	1	11
434.832	1	-6
435.003	1	15
435.173	1	9
435.344	1	9
435.515	1	0
435.685	1	-5
435.856	1	13
436.026	1	1
436.197	1	8
436.368	1	1
436.538	1	-1
436.709	1	0
436.879	1	12
437.050	1	5
437.220	1	4
437.391	1	1
437.562	1	1
437.732	1	5
437.903	1	5
438.073	1	-3
438.244	1	7
438.414	1	6
438.585	1	8
438.756	1	17
438.926	1	0
439.097	1	6
439.267	1	-1
439.438	1	8
439.608	1	-4
439.779	1	6
439.949	1	3
440.120	1	-1
440.291	1	0
440.461	1	7
440.632	1	3
440.802	1	3
440.973	1	4
441.143	1	5
441.314	1	5
441.485	1	6
441.655	1	14
441.826	1	4
441.996	1	1
442.167	1	1
442.337	1	7
442.508	1	1
442.678	1	8
442.849	1	6
443.019	1	7
443.190	1	9
443.361	1	13
443.531	1	2
443.702	1	3
443.872	1	-8
444.043	1	9
444.213	1	-7
444.384	1	3
444.554	1	11
444.725	1	15
444.895	1	2
445.066	1	-1
445.237	1	8
445.407	1	7
445.578	1	-2
445.748	1	12
445.919	1	5
446.089	1	7
446.260	1	15
446.430	1	7
446.601	1	3
446.771	1	4
446.942	1	2
447.112	1	14
447.283	1	8
447.453	1	-3
447.624	1	-4
447.794	1	-1
447.965	1	-1
448.135	1	10
448.306	1	1
448.477	1	10
448.647	1	1
448.818	1	2
448.988	1	1
449.159	1	1
449.329	1	12
449.500	1	2
449.670	1	4
449.841	1	4
450.011	1	0
450.182	1	4
450.352	1	-1
450.523	1	2
450.693	1	12
450.864	1	4
451.034	1	4
451.205	1	4
451.375	1	0
451.546	1	4
451.716	1	8
451.887	1	11
452.057	1	0
452.228	1	2
452.398	1	4
452.569	1	3
452.739	1	7
452.910	1	-3
453.080	1	9
453.251	1	4
453.421	1	8
453.592	1	-2
453.762	1	8
453.933	1	-2
454.103	1	9
454.274	1	-5
454.444	1	9
454.615	1	1
454.785	1	3
454.956	1	5
455.126	1	-4
455.297	1	1
455.467	1	-3
455.638	1	-2
455.808	1	2
455.979	1	6
456.149	1	1
456.320	1	15
456.490	1	-5
456.661	1	-6
456.831	1	-4
457.001	1	4
457.172	1	6
457.342	1	6
457.513	1	-4
457.683	1	0
457.854	1	-4
458.024	1	17
458.195	1	8
458.365	1	5
458.536	1	5
458.706	1	8
458.877	1	0
459.047	1	-4
459.218	1	8
459.388	1	-4
459.559	1	1
459.729	1	-5
459.899	1	4
460.070	1	14
460.240	1	-4
460.411	1	13
460.581	1	-2
460.752	1	-7
460.922	1	5
461.093	1	1
461.263	1	17
461.434	1	-2
461.604	1	6
461.775	1	3
461.945	1	9
462.115	1	8
462.286	1	-15
462.456	1	3
462.627	1	-2
462.797	1	7
462.968	1	11
463.138	1	7
463.309	1	6
463.479	1	-3
463.649	1	1
463.820	1	7
463.990	1	6
464.161	1	-1
464.331	1	6
464.502	1	2
464.672	1	5
464.843	1	8
465.013	1	13
465.183	1	-5
465.354	1	8
465.524	1	5
465.695	1	10
465.865	1	1
466.036	1	15
466.206	1	5
466.376	1	11
466.547	1	5
466.717	1	-5
466.888	1	3
467.058	1	1
467.229	1	6
467.399	1	3
467.569	1	7
467.740	1	9
467.910	1	6
468.081	1	10
468.251	1	-10
468.422	1	7
468.592	1	6
468.762	1	8
468.933	1	2
469.103	1	7
469.274	1	-4
469.444	1	2
469.614	1	-4
469.785	1	-1
469.955	1	-2
470.126	1	9
470.296	1	4
470.467	1	3
470.637	1	0
470.807	1	0
470.978	1	-1
471.148	1	0
471.319	1	6
471.489	1	14
471.659	1	3
471.830	1	2
472.000	1	-6
472.171	1	6
472.341	1	6
472.511	1	5
472.682	1	8
472.852	1	7
473.023	1	6
473.193	1	-4
473.363	1	-1
473.534	1	0
473.704	1	-1
473.875	1	8
474.045	1	-5
474.215	1	4
474.386	1	-1
474.556	1	-3
474.727	1	-6
474.897	1	-7
475.067	1	3
475.238	1	7
475.408	1	4
475.578	1	-4
475.749	1	-4
475.919	1	10
476.090	1	5
476.260	1	2
476.430	1	-9
476.601	1	2
476.771	1	-3
476.942	1	5
477.112	1	4
477.282	1	1
477.453	1	-5
477.623	1	2
477.793	1	-5
477.964	1	5
478.134	1	10
478.305	1	7
478.475	1	1
478.645	1	6
478.816	1	1
478.986	1	3
479.156	1	6
479.327	1	9
479.497	1	-3
479.667	1	-2
479.838	1	15
480.008	1	-1
480.179	1	3
480.349	1	-8
480.519	1	7
480.690	1	10
480.860	1	2
481.030	1	1
481.201	1	1
481.371	1	4
481.541	1	-7
481.712	1	16
481.882	1	4
482.053	1	5
482.223	1	3
482.393	1	9
482.564	1	6
482.734	1	1
482.904	1	-1
483.075	1	8
483.245	1	12
483.415	1	12
483.586	1	3
483.756	1	11
483.926	1	13
484.097	1	8
484.267	1	0
484.437	1	0
484.608	1	0
484.778	1	5
484.948	1	3
485.119	1	-2
485.289	1	0
485.459	1	-7
485.630	1	10
485.800	1	-3
485.970	1	-2
486.141	1	-3
486.311	1	4
486.481	1	-6
486.652	1	-15
486.822	1	15
486.992	1	11
487.163	1	-8
487.333	1	-13
487.503	1	5
487.674	1	3
487.844	1	-16
488.014	1	9
488.185	1	5
488.355	1	9
488.525	1	-5
488.696	1	17
488.866	1	-4
489.036	1	2
489.207	1	8
489.377	1	9
489.547	1	0
489.718	1	-3
489.888	1	4
490.058	1	3
490.228	1	1
490.399	1	3
490.569	1	4
490.739	1	-6
490.910	1	8
491.080	1	1
491.250	1	14
491.421	1	10
491.591	1	10
491.761	1	2
491.932	1	13
492.102	1	0
492.272	1	0
492.442	1	8
492.613	1	3
492.783	1	7
492.953	1	7
493.124	1	20
493.294	1	-4
493.464	1	-11
493.635	1	15
493.805	1	5
493.975	1	15
494.145	1	-10
494.316	1	0
494.486	1	-4
494.656	1	7
494.827	1	0
494.997	1	-2
495.167	1	9
495.337	1	-1
495.508	1	4
495.678	1	4
495.848	1	-3
496.019	1	3
496.189	1	4
496.359	1	4
496.529	1	10
496.700	1	-4
496.870	1	5
497.040	1	-6
497.211	1	3
497.381	1	6
497.551	1	6
497.721	1	-6
497.892	1	5
498.062	1	7
498.232	1	8
498.403	1	13
498.573	1	-6
498.743	1	9
498.913	1	2
499.084	1	3
499.254	1	-3
499.424	1	2
499.594	1	6
499.765	1	5
499.935	1	7
500.105	1	7
500.275	1	1
500.446	1	1
500.616	1	-8
500.786	1	1
500.956	1	16
501.127	1	1
501.297	1	6
501.467	1	17
501.638	1	11
501.808	1	0
501.978	1	4
502.148	1	-4
502.319	1	3
502.489	1	2
502.659	1	13
502.829	1	-7
503.000	1	4
503.170	1	3
503.340	1	5
503.510	1	4
503.681	1	7
503.851	1	-2
504.021	1	1
504.191	1	-11
504.362	1	2
504.532	1	6
504.702	1	-17
504.872	1	-4
505.042	1	0
505.213	1	3
505.383	1	4
505.553	1	6
505.723	1	9
505.894	1	0
506.064	1	-7
506.234	1	11
506.404	1	4
506.575	1	15
506.745	1	-6
506.915	1	11
507.085	1	1
507.256	1	10
507.426	1	3
507.596	1	10
507.766	1	3
507.936	1	16
508.107	1	-12
508.277	1	-1
508.447	1	2
508.617	1	11
508.788	1	1
508.958	1	17
509.128	1	2
509.298	1	-6
509.468	1	5
509.639	1	-9
509.809	1	4
509.979	1	6
510.149	1	-5
510.319	1	9
510.490	1	-7
510.660	1	11
510.830	1	-10
511.000	1	-2
511.171	1	14
511.341	1	10
511.511	1	7
511.681	1	8
511.851	1	17
512.022	1	-4
512.192	1	13
512.362	1	14
512.532	1	14
512.702	1	-2
512.873	1	-1
513.043	1	4
513.213	1	9
513.383	1	7
513.553	1	2
513.724	1	-8
513.894	1	3
514.064	1	7
514.234	1	-3
514.404	1	6
514.575	1	-7
514.745	1	0
514.915	1	2
515.085	1	9
515.255	1	-4
515.425	1	11
515.596	1	12
515.766	1	3
515.936	1	-4
516.106	1	-1
516.276	1	3
516.447	1	8
516.617	1	10
516.787	1	-3
516.957	1	8
517.127	1	13
517.297	1	10
517.468	1	5
517.638	1	6
517.808	1	0
517.978	1	1
518.148	1	4
518.319	1	3
518.489	1	8
518.659	1	7
518.829	1	3
518.999	1	9
519.169	1	-3
519.340	1	2
519.510	1	6
519.680	1	8
519.850	1	7
520.020	1	9
520.190	1	8
520.361	1	5
520.531	1	9
520.701	1	6
520.871	1	10
521.041	1	9
521.211	1	3
521.382	1	-3
521.552	1	-2
521.722	1	5
521.892	1	10
522.062	1	6
522.232	1	-6
522.402	1	21
522.573	1	16
522.743	1	9
522.913	1	9
523.083	1	-3
523.253	1	10
523.423	1	0
523.593	1	8
523.764	1	0
523.934	1	6
524.104	1	6
524.274	1	2
524.444	1	4
524.614	1	6
524.784	1	-3
524.955	1	-1
525.125	1	4
525.295	1	8
525.465	1	5
525.635	1	13
525.805	1	7
525.975	1	0
526.146	1	9
526.316	1	-1
526.486	1	8
526.656	1	5
526.826	1	4
526.996	1	4
527.166	1	-4
527.337	1	5
527.507	1	13
527.677	1	22
527.847	1	-11
528.017	1	4
528.187	1	25
528.357	1	10
528.527	1	7
528.698	1	12
528.868	1	1
529.038	1	-2
529.208	1	0
529.378	1	2
529.548	1	14
529.718	1	6
529.888	1	7
530.058	1	12
530.229	1	10
530.399	1	7
530.569	1	1
530.739	1	4
530.909	1	4
531.079	1	-5
531.249	1	6
531.419	1	3
531.589	1	6
531.760	1	13
531.930	1	10
532.100	1	9
532.270	1	8
532.440	1	3
532.610	1	9
532.780	1	6
532.950	1	11
533.120	1	3
533.290	1	0
533.461	1	1
533.631	1	6
533.801	1	8
533.971	1	8
534.141	1	9
534.311	1	6
534.481	1	25
534.651	1	-3
534.821	1	5
534.991	1	0
535.162	1	9
535.332	1	1
535.502	1	4
535.672	1	-1
535.842	1	1
536.012	1	4
536.182	1	7
536.352	1	12
536.522	1	-3
536.692	1	0
536.862	1	-4
537.032	1	9
537.203	1	12
537.373	1	7
537.543	1	4
537.713	1	3
537.883	1	13
538.053	1	2
538.223	1	27
538.393	1	8
538.563	1	0
538.733	1	8
538.903	1	4
539.073	1	-7
539.243	1	8
539.413	1	-6
539.584	1	7
539.754	1	6
539.924	1	10
540.094	1	10
540.264	1	9
540.434	1	6
540.604	1	12
540.774	1	3
540.944	1	7
541.114	1	13
541.284	1	0
541.454	1	8
541.624	1	1
541.794	1	5
541.964	1	-6
542.134	1	1
542.305	1	15
542.475	1	16
542.645	1	6
542.815	1	6
542.985	1	12
543.155	1	12
543.325	1	11
543.495	1	12
543.665	1	2
543.835	1	8
544.005	1	-2
544.175	1	6
544.345	1	5
544.515	1	3
544.685	1	6
544.855	1	9
545.025	1	9
545.195	1	-2
545.365	1	6
545.535	1	-4
545.705	1	6
545.875	1	10
546.045	1	7
546.216	1	-2
546.386	1	6
546.556	1	12
546.726	1	0
546.896	1	2
547.066	1	10
547.236	1	-1
547.406	1	-9
547.576	1	4
547.746	1	4
547.916	1	10
548.086	1	8
548.256	1	0
548.426	1	2
548.596	1	6
548.766	1	6
548.936	1	7
549.106	1	1
549.276	1	7
549.446	1	8
549.616	1	5
549.786	1	1
549.956	1	5
550.126	1	7
550.296	1	11
550.466	1	7
550.636	1	2
550.806	1	14
550.976	1	-2
551.146	1	-4
551.316	1	6
551.486	1	6
551.656	1	7
551.826	1	-1
551.996	1	7
552.166	1	-2
552.336	1	6
552.506	1	1
552.676	1	12
552.846	1	1
553.016	1	4
553.186	1	-1
553.356	1	14
553.526	1	2
553.696	1	-4
553.866	1	2
554.036	1	7
554.206	1	5
554.376	1	14
554.546	1	8
554.716	1	1
554.886	1	-1
555.056	1	11
555.226	1	4
555.396	1	11
555.566	1	4
555.736	1	7
555.906	1	-1
556.076	1	-5
556.246	1	8
556.416	1	13
556.586	1	1
556.756	1	3
556.926	1	5
557.096	1	11
557.266	1	9
557.436	1	-4
557.606	1	-8
557.776	1	-5
557.946	1	6
558.116	1	7
558.286	1	-16
558.456	1	-3
558.626	1	4
558.796	1	11
558.966	1	4
559.136	1	8
559.306	1	0
559.476	1	1
559.646	1	13
559.816	1	2
559.986	1	6
560.155	1	6
560.325	1	2
560.495	1	10
560.665	1	3
560.835	1	0
561.005	1	2
561.175	1	4
561.345	1	-5
561.515	1	2
561.685	1	4
561.855	1	1
562.025	1	-3
562.195	1	11
562.365	1	9
562.535	1	-2
562.705	1	10
562.875	1	7
563.045	1	6
563.215	1	0
563.385	1	2
563.555	1	6
563.725	1	2
563.895	1	9
564.064	1	-6
564.234	1	-1
564.404	1	-4
564.574	1	-1
564.744	1	8
564.914	1	2
565.084	1	4
565.254	1	13
565.424	1	-2
565.594	1	7
565.764	1	2
565.934	1	10
566.104	1	12
566.274	1	6
566.444	1	10
566.614	1	5
566.783	1	2
566.953	1	12
567.123	1	4
567.293	1	-4
567.463	1	2
567.633	1	3
567.803	1	9
567.973	1	-4
568.143	1	6
568.313	1	5
568.483	1	7
568.653	1	-2
568.823	1	5
568.993	1	6
569.162	1	-1
569.332	1	10
569.502	1	6
569.672	1	9
569.842	1	5
570.012	1	-2
570.182	1	-5
570.352	1	5
570.522	1	-6
570.692	1	9
570.862	1	-5
571.031	1	8
571.201	1	14
571.371	1	-6
571.541	1	4
571.711	1	-1
571.881	1	1
572.051	1	1
572.221	1	-2
572.391	1	4
572.561	1	12
572.731	1	5
572.900	1	9
573.070	1	-1
573.240	1	-1
573.410	1	12
573.580	1	8
573.750	1	-1
573.920	1	12
574.090	1	10
574.260	1	7
574.430	1	-1
574.599	1	5
574.769	1	8
574.939	1	4
575.109	1	4
575.279	1	10
575.449	1	1
575.619	1	5
575.789	1	5
575.959	1	6
576.128	1	0
576.298	1	-6
576.468	1	2
576.638	1	-1
576.808	1	1
576.978	1	7
577.148	1	-5
577.318	1	2
577.487	1	-3
577.657	1	1
577.827	1	0
577.997	1	5
578.167	1	9
578.337	1	6
578.507	1	-1
578.677	1	2
578.846	1	0
579.016	1	7
579.186	1	1
579.356	1	9
579.526	1	-6
579.696	1	15
579.866	1	-3
580.036	1	9
580.205	1	-3
580.375	1	10
580.545	1	2
580.715	1	0
580.885	1	-6
581.055	1	9
581.225	1	9
581.394	1	2
581.564	1	9
581.734	1	10
581.904	1	6
582.074	1	4
582.244	1	4
582.414	1	2
582.583	1	0
582.753	1	6
582.923	1	1
583.093	1	5
583.263	1	2
583.433	1	13
583.603	1	2
583.772	1	6
583.942	1	-3
584.112	1	0
584.282	1	-2
584.452	1	3
584.622	1	2
584.791	1	3
584.961	1	7
585.131	1	-2
585.301	1	1
585.471	1	1
585.641	1	-1
585.811	1	-1
585.980	1	-8
586.150	1	2
586.320	1	4
586.490	1	8
586.660	1	7
586.830	1	0
586.999	1	3
587.169	1	5
587.339	1	-2
587.509	1	-1
587.679	1	-3
587.849	1	11
588.018	1	1
588.188	1	3
588.358	1	10
588.528	1	0
588.698	1	7
588.867	1	7
589.037	1	5
589.207	1	2
589.377	1	12
589.547	1	8
589.717	1	10
589.886	1	8
590.056	1	7
590.226	1	0
590.396	1	-2
590.566	1	3
590.735	1	4
590.905	1	3
591.075	1	3
591.245	1	5
591.415	1	8
591.585	1	-4
591.754	1	3
591.924	1	-7
592.094	1	11
592.264	1	-3
592.434	1	-7
592.603	1	-6
592.773	1	-2
592.943	1	0
593.113	1	-3
593.283	1	10
593.452	1	7
593.622	1	7
593.792	1	-5
593.962	1	15
594.132	1	-1
594.301	1	3
594.471	1	1
594.641	1	4
594.811	1	-3
594.981	1	3
595.150	1	-2
595.320	1	5
595.490	1	-1
595.660	1	12
595.829	1	-2
595.999	1	10
596.169	1	0
596.339	1	9
596.509	1	5
596.678	1	-6
596.848	1	3
597.018	1	-3
597.188	1	8
597.358	1	8
597.527	1	6
597.697	1	-3
597.867	1	-5
598.037	1	-4
598.206	1	4
598.376	1	3
598.546	1	3
598.716	1	3
598.885	1	2
599.055	1	10
599.225	1	-5
599.395	1	-6
599.565	1	-4
599.734	1	7
599.904	1	6
600.074	1	-7
600.244	1	4
600.413	1	3
600.583	1	10
600.753	1	4
600.923	1	16
601.092	1	-10
601.262	1	-7
601.432	1	-7
601.602	1	4
601.771	1	8
601.941	1	5
602.111	1	2
602.281	1	8
602.451	1	-7
602.620	1	7
602.790	1	5
602.960	1	1
603.130	1	2
603.299	1	4
603.469	1	-6
603.639	1	10
603.809	1	0
603.978	1	0
604.148	1	-11
604.318	1	9
604.487	1	7
604.657	1	4
604.827	1	5
604.997	1	9
605.166	1	1
605.336	1	10
605.506	1	4
605.676	1	2
605.845	1	5
606.015	1	-2
606.185	1	3
606.355	1	-5
606.524	1	-7
606.694	1	12
606.864	1	8
607.034	1	-4
607.203	1	7
607.373	1	1
607.543	1	5
607.712	1	0
607.882	1	10
608.052	1	-3
608.222	1	-2
608.391	1	9
608.561	1	5
608.731	1	-8
608.901	1	5
609.070	1	2
609.240	1	5
609.410	1	0
609.579	1	-5
609.749	1	1
609.919	1	-4
610.089	1	5
610.258	1	19
610.428	1	11
610.598	1	-3
610.767	1	6
610.937	1	-1
611.107	1	9
611.277	1	4
611.446	1	6
611.616	1	13
611.786	1	1
611.955	1	-3
612.125	1	7
612.295	1	9
612.465	1	-3
612.634	1	8
612.804	1	1
612.974	1	-2
613.143	1	-3
613.313	1	0
613.483	1	6
613.652	1	3
613.822	1	6
613.992	1	2
614.162	1	15
614.331	1	8
614.501	1	3
614.671	1	2
614.840	1	5
615.010	1	3
615.180	1	3
615.349	1	3
615.519	1	-6
615.689	1	-6
615.858	1	1
616.028	1	10
616.198	1	8
616.368	1	3
616.537	1	-5
616.707	1	2
616.877	1	7
617.046	1	-1
617.216	1	7
617.386	1	1
617.555	1	2
617.725	1	6
617.895	1	7
618.064	1	5
618.234	1	-5
618.404	1	-1
618.573	1	5
618.743	1	2
618.913	1	15
619.082	1	5
619.252	1	2
619.422	1	16
619.591	1	10
619.761	1	-9
619.931	1	10
620.100	1	7
620.270	1	5
620.440	1	12
620.609	1	1
620.779	1	13
620.949	1	12
621.118	1	17
621.288	1	-4
621.458	1	-3
621.627	1	-2
621.797	1	7
621.967	1	5
622.136	1	-3
622.306	1	1
622.476	1	2
622.645	1	13
622.815	1	1
622.985	1	2
623.154	1	-5
623.324	1	4
623.494	1	-5
623.663	1	7
623.833	1	0
624.002	1	7
624.172	1	0
624.342	1	3
624.511	1	-7
624.681	1	7
624.851	1	-1
625.020	1	-4
625.190	1	0
625.360	1	1
625.529	1	-5
625.699	1	18
625.869	1	18
626.038	1	0
626.208	1	-8
626.377	1	2
626.547	1	-7
626.717	1	-3
626.886	1	7
627.056	1	6
627.226	1	4
627.395	1	3
627.565	1	4
627.735	1	3
627.904	1	-6
628.074	1	7
628.243	1	7
628.413	1	5
628.583	1	3
628.752	1	-4
628.922	1	3
629.091	1	10
629.261	1	3
629.431	1	-12
629.600	1	-1
629.770	1	8
629.940	1	5
630.109	1	-11
630.279	1	4
630.448	1	-4
630.618	1	6
630.788	1	1
630.957	1	3
631.127	1	9
631.297	1	0
631.466	1	3
631.636	1	-4
631.805	1	8
631.975	1	3
632.145	1	-3
632.314	1	0
632.484	1	13
632.653	1	2
632.823	1	-7
632.993	1	1
633.162	1	-2
633.332	1	2
633.501	1	-6
633.671	1	10
633.841	1	7
634.010	1	4
634.180	1	-1
634.349	1	13
634.519	1	-2
634.689	1	3
634.858	1	6
635.028	1	0
635.197	1	2
635.367	1	-1
635.537	1	11
635.706	1	7
635.876	1	1
636.045	1	-7
636.215	1	-5
636.384	1	12
636.554	1	-2
636.724	1	10
636.893	1	8
637.063	1	0
637.232	1	1
637.402	1	5
637.572	1	6
637.741	1	-2
637.911	1	7
638.080	1	-2
638.250	1	-4
638.419	1	4
638.589	1	3
638.759	1	4
638.928	1	1
639.098	1	-4
639.267	1	15
639.437	1	0
639.606	1	7
639.776	1	-5
639.946	1	16
640.115	1	2
640.285	1	0
640.454	1	0
640.624	1	7
640.793	1	8
640.963	1	7
641.132	1	8
641.302	1	-1
641.472	1	13
641.641	1	-2
641.811	1	6
641.980	1	7
642.150	1	3
642.319	1	12
642.489	1	8
642.659	1	0
642.828	1	11
642.998	1	-5
643.167	1	9
643.337	1	-1
643.506	1	11
643.676	1	3
643.845	1	19
644.015	1	3
644.184	1	4
644.354	1	7
644.524	1	-5
644.693	1	-2
644.863	1	5
645.032	1	4
645.202	1	1
645.371	1	12
645.541	1	4
645.710	1	10
645.880	1	10
646.049	1	16
646.219	1	5
646.388	1	5
646.558	1	-10
646.728	1	1
646.897	1	-8
647.067	1	9
647.236	1	-13
647.406	1	2
647.575	1	9
647.745	1	-3
647.914	1	2
648.084	1	1
648.253	1	12
648.423	1	10
648.592	1	6
648.762	1	1
648.931	1	18
649.101	1	-1
649.270	1	12
649.440	1	10
649.610	1	5
649.779	1	6
649.949	1	-10
650.118	1	4
650.288	1	6
650.457	1	11
650.627	1	-2
650.796	1	12
650.966	1	9
651.135	1	5
651.305	1	6
651.474	1	6
651.644	1	2
651.813	1	7
651.983	1	1
652.152	1	18
652.322	1	2
652.491	1	0
652.661	1	11
652.830	1	5
653.000	1	11
653.169	1	-5
653.339	1	-3
653.508	1	-5
653.678	1	16
653.847	1	4
654.017	1	5
654.186	1	5
654.356	1	4
654.525	1	11
654.695	1	12
654.864	1	-1
655.034	1	-3
655.203	1	9
655.373	1	9
655.542	1	4
655.712	1	14
655.881	1	-1
656.051	1	-9
656.220	1	2
656.390	1	-3
656.559	1	12
656.729	1	1
656.898	1	6
657.068	1	10
657.237	1	5
657.406	1	3
657.576	1	-3
657.745	1	17
657.915	1	10
658.084	1	2
658.254	1	-1
658.423	1	10
658.593	1	16
658.762	1	-2
658.932	1	13
659.101	1	2
659.271	1	0
659.440	1	0
659.610	1	4
659.779	1	5
659.949	1	8
660.118	1	0
660.288	1	-7
660.457	1	-7
660.626	1	4
660.796	1	12
660.965	1	0
661.135	1	-4
661.304	1	10
661.474	1	7
661.643	1	5
661.813	1	0
661.982	1	-4
662.152	1	7
662.321	1	1
662.491	1	8
662.660	1	0
662.829	1	-2
662.999	1	-6
663.168	1	-3
663.338	1	-6
663.507	1	6
663.677	1	3
663.846	1	0
664.016	1	-9
664.185	1	3
664.354	1	3
664.524	1	12
664.693	1	0
664.863	1	-14
665.032	1	8
665.202	1	-3
665.371	1	14
665.541	1	3
665.710	1	14
665.879	1	-2
666.049	1	6
666.218	1	8
666.388	1	5
666.557	1	-4
666.727	1	6
666.896	1	5
667.065	1	9
667.235	1	-2
667.404	1	3
667.574	1	3
667.743	1	-2
667.913	1	11
668.082	1	6
668.251	1	-9
668.421	1	6
668.590	1	-1
668.760	1	9
668.929	1	-1
669.099	1	1
669.268	1	-1
669.437	1	-5
669.607	1	-6
669.776	1	2
669.946	1	-3
670.115	1	-4
670.285	1	6
670.454	1	3
670.623	1	-1
670.793	1	-2
670.962	1	-7
671.132	1	4
671.301	1	-2
671.470	1	9
671.640	1	3
671.809	1	9
671.979	1	-8
672.148	1	6
672.317	1	-1
672.487	1	1
672.656	1	13
672.826	1	5
672.995	1	-5
673.164	1	1
673.334	1	5
673.503	1	6
673.673	1	14
673.842	1	3
674.011	1	3
674.181	1	-6
674.350	1	9
674.520	1	5
674.689	1	-7
674.858	1	0
675.028	1	3
675.197	1	10
675.367	1	2
675.536	1	0
675.705	1	-2
675.875	1	5
676.044	1	0
676.214	1	3
676.383	1	2
676.552	1	-2
676.722	1	-2
676.891	1	-6
677.060	1	6
677.230	1	9
677.399	1	18
677.569	1	13
677.738	1	-7
677.907	1	13
678.077	1	-3
678.246	1	0
678.416	1	-2
678.585	1	4
678.754	1	6
678.924	1	-1
679.093	1	-2
679.262	1	6
679.432	1	-4
679.601	1	0
679.771	1	7
679.940	1	-5
680.109	1	0
680.279	1	6
680.448	1	4
680.617	1	2
680.787	1	-6
680.956	1	3
681.125	1	1
681.295	1	-4
681.464	1	-5
681.634	1	0
681.803	1	-1
681.972	1	-1
682.142	1	4
682.311	1	15
682.480	1	5
682.650	1	-5
682.819	1	-1
682.988	1	7
683.158	1	-1
683.327	1	2
683.496	1	-5
683.666	1	1
683.835	1	1
684.004	1	-5
684.174	1	3
684.343	1	12
684.512	1	3
684.682	1	14
684.851	1	-10
685.021	1	16
685.190	1	-1
685.359	1	7
685.529	1	-3
685.698	1	4
685.867	1	-2
686.037	1	-1
686.206	1	-6
686.375	1	5
686.545	1	2
686.714	1	2
686.883	1	8
687.053	1	13
687.222	1	0
687.391	1	-1
687.561	1	-3
687.730	1	0
687.899	1	-4
688.069	1	4
688.238	1	16
688.407	1	4
688.577	1	3
688.746	1	-2
