340.368	1	7
340.539	1	1
340.710	1	-1
340.881	1	8
341.052	1	2
341.223	1	8
341.394	1	-10
341.565	1	5
341.737	1	9
341.908	1	20
342.079	1	3
342.250	1	4
342.421	1	1
342.592	1	18
342.763	1	0
342.934	1	6
343.105	1	7
343.276	1	2
343.447	1	13
343.618	1	13
343.789	1	8
343.960	1	6
344.131	1	-15
344.302	1	11
344.473	1	2
344.644	1	3
344.815	1	-6
344.986	1	6
345.157	1	14
345.328	1	11
345.499	1	1
345.670	1	8
345.841	1	5
346.012	1	-2
346.183	1	10
346.354	1	7
346.526	1	11
346.697	1	12
346.868	1	7
347.039	1	7
347.210	1	3
347.381	1	11
347.552	1	23
347.723	1	8
347.894	1	0
348.065	1	6
348.236	1	6
348.407	1	17
348.578	1	7
348.749	1	14
348.920	1	9
349.091	1	4
349.262	1	10
349.433	1	0
349.604	1	-3
349.775	1	7
349.946	1	9
350.117	1	15
350.288	1	1
350.459	1	5
350.630	1	-1
350.801	1	7
350.972	1	7
351.143	1	3
351.314	1	1
351.485	1	16
351.656	1	15
351.827	1	18
351.998	1	5
352.169	1	14
352.340	1	7
352.511	1	-2
352.682	1	-3
352.853	1	2
353.024	1	17
353.195	1	0
353.366	1	15
353.537	1	-4
353.708	1	9
353.879	1	18
354.050	1	-1
354.221	1	1
354.392	1	0
354.563	1	15
354.734	1	10
354.905	1	-3
355.076	1	16
355.247	1	3
355.418	1	16
355.589	1	15
355.760	1	9
355.931	1	13
356.102	1	7
356.273	1	13
356.444	1	20
356.615	1	6
356.785	1	16
356.956	1	19
357.127	1	16
357.298	1	3
357.469	1	9
357.640	1	12
357.811	1	7
357.982	1	11
358.153	1	-3
358.324	1	20
358.495	1	8
358.666	1	9
358.837	1	24
359.008	1	16
359.179	1	6
359.350	1	8
359.521	1	22
359.692	1	7
359.863	1	3
360.034	1	8
360.205	1	23
360.376	1	18
360.547	1	28
360.718	1	26
360.889	1	10
361.060	1	21
361.231	1	28
361.401	1	21
361.572	1	29
361.743	1	16
361.914	1	26
362.085	1	35
362.256	1	33
362.427	1	24
362.598	1	35
362.769	1	27
362.940	1	34
363.111	1	31
363.282	1	23
363.453	1	30
363.624	1	37
363.795	1	42
363.966	1	34
364.137	1	40
364.308	1	53
364.478	1	41
364.649	1	43
364.820	1	53
364.991	1	51
365.162	1	59
365.333	1	60
365.504	1	45
365.675	1	57
365.846	1	47
366.017	1	60
366.188	1	63
366.359	1	65
366.530	1	58
366.701	1	65
366.871	1	68
367.042	1	76
367.213	1	86
367.384	1	75
367.555	1	79
367.726	1	73
367.897	1	81
368.068	1	74
368.239	1	72
368.410	1	66
368.581	1	60
368.752	1	81
368.923	1	63
369.093	1	74
369.264	1	74
369.435	1	81
369.606	1	64
369.777	1	74
369.948	1	67
370.119	1	67
370.290	1	78
370.461	1	57
370.632	1	59
370.803	1	57
370.973	1	66
371.144	1	70
371.315	1	63
371.486	1	64
371.657	1	57
371.828	1	47
371.999	1	52
372.170	1	54
372.341	1	51
372.512	1	45
372.682	1	55
372.853	1	58
373.024	1	53
373.195	1	46
373.366	1	58
373.537	1	40
373.708	1	40
373.879	1	43
374.050	1	55
374.220	1	43
374.391	1	37
374.562	1	42
374.733	1	42
374.904	1	36
375.075	1	32
375.246	1	35
375.417	1	34
375.588	1	36
375.758	1	41
375.929	1	35
376.100	1	26
376.271	1	34
376.442	1	33
376.613	1	29
376.784	1	36
376.955	1	33
377.125	1	20
377.296	1	28
377.467	1	33
377.638	1	28
377.809	1	13
377.980	1	24
378.151	1	21
378.321	1	21
378.492	1	25
378.663	1	37
378.834	1	21
379.005	1	23
379.176	1	31
379.347	1	23
379.518	1	6
379.688	1	29
379.859	1	9
380.030	1	24
380.201	1	22
380.372	1	21
380.543	1	14
380.714	1	24
380.884	1	22
381.055	1	10
381.226	1	17
381.397	1	19
381.568	1	14
381.739	1	3
381.910	1	29
382.080	1	19
382.251	1	9
382.422	1	21
382.593	1	17
382.764	1	12
382.935	1	9
383.105	1	12
383.276	1	11
383.447	1	10
383.618	1	14
383.789	1	4
383.960	1	19
384.130	1	18
384.301	1	7
384.472	1	12
384.643	1	5
384.814	1	19
384.985	1	9
385.156	1	9
385.326	1	2
385.497	1	21
385.668	1	16
385.839	1	18
386.010	1	7
386.180	1	9
386.351	1	5
386.522	1	18
386.693	1	18
386.864	1	3
387.035	1	19
387.205	1	15
387.376	1	10
387.547	1	10
387.718	1	16
387.889	1	11
388.060	1	8
388.230	1	17
388.401	1	10
388.572	1	8
388.743	1	11
388.914	1	13
389.084	1	12
389.255	1	12
389.426	1	6
389.597	1	8
389.768	1	12
389.939	1	12
390.109	1	10
390.280	1	13
390.451	1	20
390.622	1	6
390.793	1	12
390.963	1	1
391.134	1	19
391.305	1	4
391.476	1	10
391.647	1	9
391.817	1	3
391.988	1	13
392.159	1	5
392.330	1	11
392.501	1	2
392.671	1	11
392.842	1	-2
393.013	1	15
393.184	1	15
393.355	1	17
393.525	1	-5
393.696	1	11
393.867	1	9
394.038	1	5
394.208	1	8
394.379	1	15
394.550	1	17
394.721	1	0
394.892	1	22
395.062	1	5
395.233	1	12
395.404	1	11
395.575	1	18
395.746	1	1
395.916	1	2
396.087	1	21
396.258	1	13
396.429	1	15
396.599	1	13
396.770	1	12
396.941	1	7
397.112	1	6
397.283	1	17
397.453	1	-3
397.624	1	2
397.795	1	6
397.966	1	7
398.136	1	13
398.307	1	8
398.478	1	14
398.649	1	5
398.819	1	15
398.990	1	15
399.161	1	12
399.332	1	17
399.503	1	22
399.673	1	22
399.844	1	4
400.015	1	6
400.186	1	6
400.356	1	6
400.527	1	18
400.698	1	11
400.869	1	1
401.039	1	5
401.210	1	14
401.381	1	7
401.552	1	9
401.722	1	14
401.893	1	2
402.064	1	16
402.235	1	9
402.405	1	2
402.576	1	16
402.747	1	14
402.918	1	7
403.088	1	16
403.259	1	9
403.430	1	8
403.601	1	16
403.771	1	5
403.942	1	16
404.113	1	14
404.284	1	16
404.454	1	9
404.625	1	5
404.796	1	15
404.967	1	10
405.137	1	25
405.308	1	7
405.479	1	12
405.649	1	10
405.820	1	1
405.991	1	11
406.162	1	13
406.332	1	8
406.503	1	18
406.674	1	16
406.845	1	11
407.015	1	15
407.186	1	5
407.357	1	17
407.527	1	5
407.698	1	15
407.869	1	12
408.040	1	19
408.210	1	12
408.381	1	8
408.552	1	8
408.722	1	11
408.893	1	5
409.064	1	21
409.235	1	9
409.405	1	9
409.576	1	11
409.747	1	12
409.917	1	21
410.088	1	13
410.259	1	20
410.430	1	18
410.600	1	12
410.771	1	9
410.942	1	18
411.112	1	9
411.283	1	10
411.454	1	12
411.625	1	3
411.795	1	15
411.966	1	7
412.137	1	14
412.307	1	18
412.478	1	17
412.649	1	10
412.819	1	10
412.990	1	9
413.161	1	11
413.332	1	14
413.502	1	16
413.673	1	11
413.844	1	21
414.014	1	8
414.185	1	8
414.356	1	14
414.526	1	2
414.697	1	3
414.868	1	2
415.038	1	14
415.209	1	8
415.380	1	8
415.550	1	12
415.721	1	16
415.892	1	20
416.063	1	22
416.233	1	8
416.404	1	3
416.575	1	11
416.745	1	11
416.916	1	14
417.087	1	23
417.257	1	7
417.428	1	25
417.599	1	7
417.769	1	9
417.940	1	0
418.111	1	12
418.281	1	17
418.452	1	24
418.623	1	20
418.793	1	7
418.964	1	22
419.135	1	14
419.305	1	15
419.476	1	16
419.647	1	18
419.817	1	10
419.988	1	20
420.159	1	28
420.329	1	18
420.500	1	15
420.671	1	12
420.841	1	11
421.012	1	3
421.183	1	13
421.353	1	18
421.524	1	16
421.695	1	18
421.865	1	13
422.036	1	20
422.206	1	17
422.377	1	16
422.548	1	20
422.718	1	25
422.889	1	22
423.060	1	17
423.230	1	21
423.401	1	14
423.572	1	12
423.742	1	24
423.913	1	3
424.084	1	18
424.254	1	20
424.425	1	33
424.595	1	17
424.766	1	13
424.937	1	25
425.107	1	14
425.278	1	11
425.449	1	5
425.619	1	11
425.790	1	12
425.961	1	26
426.131	1	1
426.302	1	11
426.472	1	22
426.643	1	8
426.814	1	18
426.984	1	4
427.155	1	15
427.326	1	9
427.496	1	15
427.667	1	14
427.837	1	14
428.008	1	18
428.179	1	17
428.349	1	14
428.520	1	18
428.691	1	17
428.861	1	18
429.032	1	6
429.202	1	0
429.373	1	14
429.544	1	9
429.714	1	18
429.885	1	13
430.055	1	23
430.226	1	5
430.397	1	11
430.567	1	4
430.738	1	17
430.909	1	13
431.079	1	9
431.250	1	14
431.420	1	13
431.591	1	10
431.762	1	15
431.932	1	9
432.103	1	19
432.273	1	26
432.444	1	7
432.615	1	8
432.785	1	8
432.956	1	13
433.126	1	10
433.297	1	14
433.468	1	13
433.638	1	15
433.809	1	9
433.979	1	15
434.150	1	15
434.320	1	16
434.491	1	21
434.662	1	21
434.832	1	4
435.003	1	21
435.173	1	7
435.344	1	2
435.515	1	3
435.685	1	6
435.856	1	16
436.026	1	9
436.197	1	12
436.368	1	3
436.538	1	10
436.709	1	9
436.879	1	4
437.050	1	7
437.220	1	17
437.391	1	11
437.562	1	22
437.732	1	23
437.903	1	14
438.073	1	7
438.244	1	12
438.414	1	15
438.585	1	11
438.756	1	6
438.926	1	11
439.097	1	4
439.267	1	4
439.438	1	10
439.608	1	6
439.779	1	11
439.949	1	15
440.120	1	4
440.291	1	19
440.461	1	13
440.632	1	5
440.802	1	15
440.973	1	17
441.143	1	2
441.314	1	5
441.485	1	7
441.655	1	20
441.826	1	7
441.996	1	10
442.167	1	15
442.337	1	11
442.508	1	16
442.678	1	10
442.849	1	8
443.019	1	12
443.190	1	12
443.361	1	10
443.531	1	7
443.702	1	12
443.872	1	9
444.043	1	5
444.213	1	8
444.384	1	20
444.554	1	17
444.725	1	22
444.895	1	13
445.066	1	8
445.237	1	11
445.407	1	3
445.578	1	15
445.748	1	15
445.919	1	13
446.089	1	13
446.260	1	16
446.430	1	13
446.601	1	14
446.771	1	6
446.942	1	3
447.112	1	10
447.283	1	20
447.453	1	5
447.624	1	2
447.794	1	15
447.965	1	12
448.135	1	10
448.306	1	5
448.477	1	14
448.647	1	13
448.818	1	14
448.988	1	16
449.159	1	5
449.329	1	12
449.500	1	15
449.670	1	14
449.841	1	7
450.011	1	5
450.182	1	7
450.352	1	6
450.523	1	3
450.693	1	9
450.864	1	19
451.034	1	7
451.205	1	15
451.375	1	13
451.546	1	1
451.716	1	6
451.887	1	18
452.057	1	16
452.228	1	13
452.398	1	19
452.569	1	13
452.739	1	13
452.910	1	1
453.080	1	10
453.251	1	0
453.421	1	16
453.592	1	0
453.762	1	2
453.933	1	3
454.103	1	4
454.274	1	3
454.444	1	8
454.615	1	9
454.785	1	4
454.956	1	14
455.126	1	6
455.297	1	12
455.467	1	5
455.638	1	7
455.808	1	18
455.979	1	1
456.149	1	9
456.320	1	9
456.490	1	8
456.661	1	5
456.831	1	-4
457.001	1	18
457.172	1	13
457.342	1	7
457.513	1	10
457.683	1	12
457.854	1	11
458.024	1	8
458.195	1	7
458.365	1	-5
458.536	1	8
458.706	1	19
458.877	1	7
459.047	1	2
459.218	1	15
459.388	1	7
459.559	1	10
459.729	1	-1
459.899	1	9
460.070	1	12
460.240	1	7
460.411	1	22
460.581	1	3
460.752	1	-8
460.922	1	5
461.093	1	14
461.263	1	11
461.434	1	-2
461.604	1	12
461.775	1	6
461.945	1	14
462.115	1	9
462.286	1	2
462.456	1	-1
462.627	1	7
462.797	1	0
462.968	1	14
463.138	1	3
463.309	1	16
463.479	1	3
463.649	1	-1
463.820	1	14
463.990	1	11
464.161	1	8
464.331	1	16
464.502	1	0
464.672	1	16
464.843	1	11
465.013	1	14
465.183	1	-9
465.354	1	15
465.524	1	11
465.695	1	11
465.865	1	10
466.036	1	2
466.206	1	0
466.376	1	14
466.547	1	12
466.717	1	1
466.888	1	13
467.058	1	-3
467.229	1	19
467.399	1	2
467.569	1	5
467.740	1	21
467.910	1	1
468.081	1	9
468.251	1	4
468.422	1	11
468.592	1	2
468.762	1	10
468.933	1	4
469.103	1	11
469.274	1	6
469.444	1	7
469.614	1	10
469.785	1	-5
469.955	1	6
470.126	1	9
470.296	1	11
470.467	1	6
470.637	1	5
470.807	1	16
470.978	1	2
471.148	1	0
471.319	1	8
471.489	1	17
471.659	1	2
471.830	1	10
472.000	1	-9
472.171	1	13
472.341	1	4
472.511	1	13
472.682	1	13
472.852	1	14
473.023	1	11
473.193	1	6
473.363	1	12
473.534	1	3
473.704	1	5
473.875	1	6
474.045	1	2
474.215	1	-1
474.386	1	8
474.556	1	4
474.727	1	6
474.897	1	2
475.067	1	5
475.238	1	4
475.408	1	22
475.578	1	0
475.749	1	0
475.919	1	-1
476.090	1	3
476.260	1	3
476.430	1	-2
476.601	1	8
476.771	1	7
476.942	1	0
477.112	1	21
477.282	1	1
477.453	1	0
477.623	1	-7
477.793	1	3
477.964	1	13
478.134	1	13
478.305	1	14
478.475	1	9
478.645	1	3
478.816	1	5
478.986	1	19
479.156	1	6
479.327	1	3
479.497	1	7
479.667	1	8
479.838	1	17
480.008	1	13
480.179	1	12
480.349	1	13
480.519	1	0
480.690	1	9
480.860	1	8
481.030	1	4
481.201	1	5
481.371	1	-8
481.541	1	5
481.712	1	17
481.882	1	2
482.053	1	13
482.223	1	7
482.393	1	13
482.564	1	8
482.734	1	8
482.904	1	2
483.075	1	9
483.245	1	-2
483.415	1	18
483.586	1	11
483.756	1	11
483.926	1	-2
484.097	1	11
484.267	1	4
484.437	1	9
484.608	1	6
484.778	1	2
484.948	1	15
485.119	1	11
485.289	1	6
485.459	1	-2
485.630	1	9
485.800	1	10
485.970	1	1
486.141	1	-3
486.311	1	9
486.481	1	0
486.652	1	-5
486.822	1	14
486.992	1	12
487.163	1	13
487.333	1	-7
487.503	1	6
487.674	1	1
487.844	1	3
488.014	1	15
488.185	1	1
488.355	1	9
488.525	1	5
488.696	1	17
488.866	1	-4
489.036	1	18
489.207	1	-2
489.377	1	8
489.547	1	11
489.718	1	4
489.888	1	10
490.058	1	14
490.228	1	11
490.399	1	20
490.569	1	5
490.739	1	11
490.910	1	13
491.080	1	4
491.250	1	12
491.421	1	5
491.591	1	5
491.761	1	2
491.932	1	22
492.102	1	3
492.272	1	2
492.442	1	15
492.613	1	12
492.783	1	18
492.953	1	13
493.124	1	12
493.294	1	1
493.464	1	1
493.635	1	11
493.805	1	20
493.975	1	13
494.145	1	4
494.316	1	0
494.486	1	2
494.656	1	17
494.827	1	0
494.997	1	4
495.167	1	18
495.337	1	10
495.508	1	8
495.678	1	12
495.848	1	6
496.019	1	12
496.189	1	13
496.359	1	0
496.529	1	4
496.700	1	10
496.870	1	12
497.040	1	3
497.211	1	9
497.381	1	5
497.551	1	11
497.721	1	0
497.892	1	9
498.062	1	15
498.232	1	14
498.403	1	13
498.573	1	10
498.743	1	10
498.913	1	13
499.084	1	15
499.254	1	-1
499.424	1	13
499.594	1	10
499.765	1	5
499.935	1	19
500.105	1	12
500.275	1	15
500.446	1	6
500.616	1	-1
500.786	1	4
500.956	1	22
501.127	1	16
501.297	1	3
501.467	1	17
501.638	1	12
501.808	1	13
501.978	1	11
502.148	1	16
502.319	1	20
502.489	1	10
502.659	1	22
502.829	1	9
503.000	1	16
503.170	1	14
503.340	1	9
503.510	1	12
503.681	1	15
503.851	1	16
504.021	1	15
504.191	1	15
504.362	1	7
504.532	1	21
504.702	1	12
504.872	1	0
505.042	1	12
505.213	1	0
505.383	1	17
505.553	1	8
505.723	1	20
505.894	1	28
506.064	1	3
506.234	1	19
506.404	1	23
506.575	1	15
506.745	1	12
506.915	1	15
507.085	1	20
507.256	1	10
507.426	1	16
507.596	1	21
507.766	1	21
507.936	1	15
508.107	1	9
508.277	1	26
508.447	1	17
508.617	1	13
508.788	1	16
508.958	1	20
509.128	1	15
509.298	1	7
509.468	1	12
509.639	1	6
509.809	1	20
509.979	1	10
510.149	1	12
510.319	1	21
510.490	1	7
510.660	1	16
510.830	1	2
511.000	1	10
511.171	1	21
511.341	1	23
511.511	1	18
511.681	1	22
511.851	1	21
512.022	1	3
512.192	1	23
512.362	1	22
512.532	1	30
512.702	1	12
512.873	1	9
513.043	1	16
513.213	1	15
513.383	1	24
513.553	1	20
513.724	1	17
513.894	1	12
514.064	1	26
514.234	1	14
514.404	1	23
514.575	1	12
514.745	1	16
514.915	1	7
515.085	1	29
515.255	1	10
515.425	1	17
515.596	1	25
515.766	1	5
515.936	1	12
516.106	1	8
516.276	1	13
516.447	1	29
516.617	1	17
516.787	1	14
516.957	1	19
517.127	1	14
517.297	1	9
517.468	1	25
517.638	1	22
517.808	1	7
517.978	1	15
518.148	1	28
518.319	1	15
518.489	1	21
518.659	1	13
518.829	1	22
518.999	1	25
519.169	1	8
519.340	1	16
519.510	1	9
519.680	1	14
519.850	1	22
520.020	1	27
520.190	1	26
520.361	1	16
520.531	1	27
520.701	1	23
520.871	1	14
521.041	1	32
521.211	1	25
521.382	1	14
521.552	1	17
521.722	1	18
521.892	1	25
522.062	1	14
522.232	1	21
522.402	1	23
522.573	1	16
522.743	1	10
522.913	1	20
523.083	1	16
523.253	1	27
523.423	1	18
523.593	1	28
523.764	1	17
523.934	1	16
524.104	1	24
524.274	1	20
524.444	1	16
524.614	1	24
524.784	1	7
524.955	1	10
525.125	1	15
525.295	1	24
525.465	1	26
525.635	1	19
525.805	1	23
525.975	1	16
526.146	1	21
526.316	1	16
526.486	1	16
526.656	1	17
526.826	1	5
526.996	1	18
527.166	1	13
527.337	1	28
527.507	1	24
527.677	1	22
527.847	1	4
528.017	1	16
528.187	1	28
528.357	1	19
528.527	1	15
528.698	1	20
528.868	1	17
529.038	1	20
529.208	1	21
529.378	1	3
529.548	1	31
529.718	1	19
529.888	1	21
530.058	1	15
530.229	1	27
530.399	1	18
530.569	1	17
530.739	1	19
530.909	1	23
531.079	1	21
531.249	1	20
531.419	1	18
531.589	1	21
531.760	1	29
531.930	1	19
532.100	1	29
532.270	1	16
532.440	1	20
532.610	1	23
532.780	1	19
532.950	1	22
533.120	1	18
533.290	1	17
533.461	1	13
533.631	1	20
533.801	1	25
533.971	1	15
534.141	1	16
534.311	1	14
534.481	1	33
534.651	1	13
534.821	1	16
534.991	1	23
535.162	1	21
535.332	1	20
535.502	1	13
535.672	1	23
535.842	1	16
536.012	1	23
536.182	1	18
536.352	1	24
536.522	1	17
536.692	1	16
536.862	1	20
537.032	1	21
537.203	1	19
537.373	1	13
537.543	1	19
537.713	1	17
537.883	1	15
538.053	1	23
538.223	1	25
538.393	1	19
538.563	1	10
538.733	1	30
538.903	1	13
539.073	1	10
539.243	1	16
539.413	1	10
539.584	1	18
539.754	1	16
539.924	1	17
540.094	1	20
540.264	1	24
540.434	1	18
540.604	1	22
540.774	1	10
540.944	1	15
541.114	1	27
541.284	1	18
541.454	1	12
541.624	1	11
541.794	1	14
541.964	1	15
542.134	1	14
542.305	1	23
542.475	1	25
542.645	1	12
542.815	1	12
542.985	1	20
543.155	1	27
543.325	1	30
543.495	1	31
543.665	1	21
543.835	1	17
544.005	1	15
544.175	1	11
544.345	1	30
544.515	1	15
544.685	1	12
544.855	1	11
545.025	1	22
545.195	1	6
545.365	1	24
545.535	1	15
545.705	1	16
545.875	1	10
546.045	1	18
546.216	1	14
546.386	1	19
546.556	1	13
546.726	1	18
546.896	1	18
547.066	1	15
547.236	1	23
547.406	1	16
547.576	1	12
547.746	1	7
547.916	1	17
548.086	1	16
548.256	1	13
548.426	1	21
548.596	1	23
548.766	1	16
548.936	1	14
549.106	1	13
549.276	1	25
549.446	1	18
549.616	1	20
549.786	1	18
549.956	1	22
550.126	1	13
550.296	1	19
550.466	1	16
550.636	1	15
550.806	1	23
550.976	1	18
551.146	1	15
551.316	1	12
551.486	1	6
551.656	1	13
551.826	1	8
551.996	1	13
552.166	1	14
552.336	1	13
552.506	1	11
552.676	1	11
552.846	1	17
553.016	1	10
553.186	1	5
553.356	1	19
553.526	1	8
553.696	1	1
553.866	1	13
554.036	1	21
554.206	1	20
554.376	1	26
554.546	1	10
554.716	1	12
554.886	1	12
555.056	1	15
555.226	1	11
555.396	1	27
555.566	1	19
555.736	1	17
555.906	1	11
556.076	1	14
556.246	1	16
556.416	1	25
556.586	1	11
556.756	1	15
556.926	1	16
557.096	1	17
557.266	1	16
557.436	1	11
557.606	1	5
557.776	1	16
557.946	1	13
558.116	1	22
558.286	1	-3
558.456	1	10
558.626	1	23
558.796	1	18
558.966	1	6
559.136	1	9
559.306	1	25
559.476	1	11
559.646	1	11
559.816	1	16
559.986	1	23
560.155	1	17
560.325	1	14
560.495	1	14
560.665	1	17
560.835	1	11
561.005	1	15
561.175	1	10
561.345	1	4
561.515	1	10
561.685	1	19
561.855	1	9
562.025	1	16
562.195	1	18
562.365	1	11
562.535	1	4
562.705	1	19
562.875	1	5
563.045	1	17
563.215	1	5
563.385	1	11
563.555	1	21
563.725	1	8
563.895	1	21
564.064	1	1
564.234	1	12
564.404	1	1
564.574	1	15
564.744	1	24
564.914	1	23
565.084	1	12
565.254	1	17
565.424	1	7
565.594	1	8
565.764	1	4
565.934	1	21
566.104	1	17
566.274	1	14
566.444	1	26
566.614	1	6
566.783	1	10
566.953	1	12
567.123	1	7
567.293	1	5
567.463	1	18
567.633	1	12
567.803	1	14
567.973	1	7
568.143	1	12
568.313	1	5
568.483	1	26
568.653	1	9
568.823	1	14
568.993	1	16
569.162	1	0
569.332	1	9
569.502	1	12
569.672	1	10
569.842	1	10
570.012	1	-8
570.182	1	9
570.352	1	16
570.522	1	6
570.692	1	11
570.862	1	4
571.031	1	25
571.201	1	18
571.371	1	12
571.541	1	4
571.711	1	15
571.881	1	2
572.051	1	15
572.221	1	16
572.391	1	9
572.561	1	25
572.731	1	8
572.900	1	14
573.070	1	6
573.240	1	4
573.410	1	13
573.580	1	14
573.750	1	6
573.920	1	19
574.090	1	23
574.260	1	14
574.430	1	6
574.599	1	13
574.769	1	13
574.939	1	10
575.109	1	13
575.279	1	10
575.449	1	8
575.619	1	9
575.789	1	4
575.959	1	12
576.128	1	14
576.298	1	-2
576.468	1	13
576.638	1	15
576.808	1	9
576.978	1	13
577.148	1	1
577.318	1	14
577.487	1	6
577.657	1	4
577.827	1	6
577.997	1	11
578.167	1	22
578.337	1	11
578.507	1	12
578.677	1	11
578.846	1	8
579.016	1	1
579.186	1	24
579.356	1	7
579.526	1	-5
579.696	1	11
579.866	1	8
580.036	1	12
580.205	1	9
580.375	1	8
580.545	1	15
580.715	1	7
580.885	1	8
581.055	1	8
581.225	1	18
581.394	1	7
581.564	1	7
581.734	1	9
581.904	1	6
582.074	1	14
582.244	1	5
582.414	1	9
582.583	1	15
582.753	1	13
582.923	1	3
583.093	1	10
583.263	1	9
583.433	1	11
583.603	1	15
583.772	1	11
583.942	1	-1
584.112	1	12
584.282	1	14
584.452	1	5
584.622	1	11
584.791	1	7
584.961	1	7
585.131	1	7
585.301	1	10
585.471	1	11
585.641	1	19
585.811	1	4
585.980	1	4
586.150	1	14
586.320	1	4
586.490	1	-4
586.660	1	15
586.830	1	11
586.999	1	10
587.169	1	10
587.339	1	11
587.509	1	2
587.679	1	6
587.849	1	12
588.018	1	2
588.188	1	11
588.358	1	19
588.528	1	13
588.698	1	2
588.867	1	8
589.037	1	8
589.207	1	15
589.377	1	5
589.547	1	7
589.717	1	9
589.886	1	13
590.056	1	9
590.226	1	-2
590.396	1	8
590.566	1	3
590.735	1	0
590.905	1	2
591.075	1	16
591.245	1	-2
591.415	1	14
591.585	1	4
591.754	1	5
591.924	1	3
592.094	1	17
592.264	1	13
592.434	1	2
592.603	1	2
592.773	1	10
592.943	1	18
593.113	1	4
593.283	1	14
593.452	1	11
593.622	1	2
593.792	1	12
593.962	1	5
594.132	1	16
594.301	1	2
594.471	1	-3
594.641	1	4
594.811	1	3
594.981	1	4
595.150	1	7
595.320	1	10
595.490	1	2
595.660	1	10
595.829	1	-1
595.999	1	6
596.169	1	6
596.339	1	0
596.509	1	13
596.678	1	-3
596.848	1	8
597.018	1	5
597.188	1	0
597.358	1	10
597.527	1	0
597.697	1	0
597.867	1	-4
598.037	1	10
598.206	1	17
598.376	1	-6
598.546	1	7
598.716	1	15
598.885	1	4
599.055	1	10
599.225	1	2
599.395	1	0
599.565	1	11
599.734	1	6
599.904	1	3
600.074	1	1
600.244	1	9
600.413	1	11
600.583	1	10
600.753	1	19
600.923	1	7
601.092	1	-5
601.262	1	-4
601.432	1	3
601.602	1	8
601.771	1	13
601.941	1	12
602.111	1	5
602.281	1	20
602.451	1	3
602.620	1	10
602.790	1	14
602.960	1	0
603.130	1	9
603.299	1	25
603.469	1	4
603.639	1	15
603.809	1	5
603.978	1	3
604.148	1	-1
604.318	1	8
604.487	1	7
604.657	1	6
604.827	1	10
604.997	1	14
605.166	1	0
605.336	1	11
605.506	1	5
605.676	1	-1
605.845	1	15
606.015	1	3
606.185	1	-1
606.355	1	-5
606.524	1	0
606.694	1	16
606.864	1	18
607.034	1	12
607.203	1	10
607.373	1	-1
607.543	1	2
607.712	1	-2
607.882	1	17
608.052	1	2
608.222	1	13
608.391	1	0
608.561	1	0
608.731	1	-2
608.901	1	6
609.070	1	8
609.240	1	2
609.410	1	15
609.579	1	7
609.749	1	11
609.919	1	-6
610.089	1	17
610.258	1	8
610.428	1	15
610.598	1	-1
610.767	1	14
610.937	1	13
611.107	1	13
611.277	1	1
611.446	1	17
611.616	1	17
611.786	1	7
611.955	1	4
612.125	1	7
612.295	1	7
612.465	1	-2
612.634	1	8
612.804	1	6
612.974	1	4
613.143	1	-6
613.313	1	8
613.483	1	9
613.652	1	9
613.822	1	-2
613.992	1	16
614.162	1	13
614.331	1	17
614.501	1	11
614.671	1	16
614.840	1	3
615.010	1	5
615.180	1	1
615.349	1	10
615.519	1	6
615.689	1	3
615.858	1	2
616.028	1	26
616.198	1	11
616.368	1	16
616.537	1	-1
616.707	1	17
616.877	1	-1
617.046	1	5
617.216	1	0
617.386	1	9
617.555	1	8
617.725	1	5
617.895	1	10
618.064	1	-2
618.234	1	-6
618.404	1	-1
618.573	1	14
618.743	1	12
618.913	1	8
619.082	1	20
619.252	1	0
619.422	1	8
619.591	1	8
619.761	1	-3
619.931	1	9
620.100	1	8
620.270	1	9
620.440	1	16
620.609	1	1
620.779	1	8
620.949	1	13
621.118	1	12
621.288	1	10
621.458	1	0
621.627	1	6
621.797	1	2
621.967	1	4
622.136	1	4
622.306	1	7
622.476	1	11
622.645	1	11
622.815	1	18
622.985	1	2
623.154	1	-11
623.324	1	2
623.494	1	-7
623.663	1	12
623.833	1	-5
624.002	1	14
624.172	1	16
624.342	1	11
624.511	1	-1
624.681	1	9
624.851	1	-1
625.020	1	-2
625.190	1	-4
625.360	1	9
625.529	1	7
625.699	1	4
625.869	1	11
626.038	1	13
626.208	1	8
626.377	1	4
626.547	1	-6
626.717	1	6
626.886	1	-2
627.056	1	-2
627.226	1	17
627.395	1	4
627.565	1	8
627.735	1	9
627.904	1	3
628.074	1	14
628.243	1	7
628.413	1	3
628.583	1	6
628.752	1	-1
628.922	1	6
629.091	1	6
629.261	1	15
629.431	1	5
629.600	1	1
629.770	1	12
629.940	1	7
630.109	1	-5
630.279	1	20
630.448	1	11
630.618	1	6
630.788	1	9
630.957	1	8
631.127	1	9
631.297	1	10
631.466	1	4
631.636	1	0
631.805	1	10
631.975	1	11
632.145	1	14
632.314	1	8
632.484	1	8
632.653	1	0
632.823	1	1
632.993	1	7
633.162	1	0
633.332	1	0
633.501	1	-5
633.671	1	6
633.841	1	9
634.010	1	6
634.180	1	3
634.349	1	11
634.519	1	0
634.689	1	-1
634.858	1	10
635.028	1	-7
635.197	1	14
635.367	1	16
635.537	1	0
635.706	1	-3
635.876	1	11
636.045	1	-6
636.215	1	-1
636.384	1	4
636.554	1	1
636.724	1	4
636.893	1	8
637.063	1	2
637.232	1	12
637.402	1	10
637.572	1	2
637.741	1	3
637.911	1	8
638.080	1	2
638.250	1	2
638.419	1	4
638.589	1	16
638.759	1	7
638.928	1	6
639.098	1	4
639.267	1	14
639.437	1	-1
639.606	1	14
639.776	1	3
639.946	1	13
640.115	1	-1
640.285	1	3
640.454	1	6
640.624	1	5
640.793	1	0
640.963	1	4
641.132	1	6
641.302	1	2
641.472	1	12
641.641	1	5
641.811	1	2
641.980	1	18
642.150	1	5
642.319	1	20
642.489	1	20
642.659	1	11
642.828	1	18
642.998	1	4
643.167	1	6
643.337	1	1
643.506	1	0
643.676	1	8
643.845	1	16
644.015	1	12
644.184	1	5
644.354	1	20
644.524	1	0
644.693	1	4
644.863	1	6
645.032	1	6
645.202	1	-5
645.371	1	6
645.541	1	5
645.710	1	15
645.880	1	11
646.049	1	12
646.219	1	12
646.388	1	6
646.558	1	-4
646.728	1	4
646.897	1	-6
647.067	1	19
647.236	1	-7
647.406	1	16
647.575	1	11
647.745	1	0
647.914	1	-5
648.084	1	-3
648.253	1	15
648.423	1	12
648.592	1	15
648.762	1	6
648.931	1	11
649.101	1	-2
649.270	1	11
649.440	1	3
649.610	1	6
649.779	1	0
649.949	1	5
650.118	1	-2
650.288	1	4
650.457	1	16
650.627	1	14
650.796	1	7
650.966	1	6
651.135	1	3
651.305	1	14
651.474	1	15
651.644	1	18
651.813	1	12
651.983	1	-6
652.152	1	17
652.322	1	4
652.491	1	5
652.661	1	15
652.830	1	5
653.000	1	7
653.169	1	4
653.339	1	9
653.508	1	2
653.678	1	11
653.847	1	5
654.017	1	15
654.186	1	8
654.356	1	12
654.525	1	15
654.695	1	7
654.864	1	-2
655.034	1	1
655.203	1	5
655.373	1	3
655.542	1	9
655.712	1	7
655.881	1	10
656.051	1	3
656.220	1	6
656.390	1	5
656.559	1	15
656.729	1	10
656.898	1	5
657.068	1	4
657.237	1	1
657.406	1	0
657.576	1	5
657.745	1	13
657.915	1	9
658.084	1	6
658.254	1	12
658.423	1	3
658.593	1	1
658.762	1	3
658.932	1	10
659.101	1	9
659.271	1	5
659.440	1	9
659.610	1	14
659.779	1	10
659.949	1	3
660.118	1	5
660.288	1	-3
660.457	1	7
660.626	1	-5
660.796	1	12
660.965	1	5
661.135	1	12
661.304	1	9
661.474	1	-4
661.643	1	3
661.813	1	2
661.982	1	2
662.152	1	2
662.321	1	3
662.491	1	-6
662.660	1	8
662.829	1	11
662.999	1	14
663.168	1	8
663.338	1	-7
663.507	1	12
663.677	1	0
663.846	1	5
664.016	1	-7
664.185	1	2
664.354	1	2
664.524	1	14
664.693	1	4
664.863	1	0
665.032	1	6
665.202	1	7
665.371	1	10
665.541	1	1
665.710	1	8
665.879	1	9
666.049	1	9
666.218	1	12
666.388	1	7
666.557	1	4
666.727	1	10
666.896	1	6
667.065	1	10
667.235	1	-4
667.404	1	5
667.574	1	-1
667.743	1	8
667.913	1	14
668.082	1	5
668.251	1	-4
668.421	1	9
668.590	1	6
668.760	1	5
668.929	1	8
669.099	1	4
669.268	1	0
669.437	1	5
669.607	1	1
669.776	1	6
669.946	1	17
670.115	1	3
670.285	1	3
670.454	1	6
670.623	1	10
670.793	1	1
670.962	1	3
671.132	1	1
671.301	1	2
671.470	1	6
671.640	1	12
671.809	1	8
671.979	1	0
672.148	1	6
672.317	1	8
672.487	1	1
672.656	1	14
672.826	1	5
672.995	1	4
673.164	1	-5
673.334	1	3
673.503	1	16
673.673	1	21
673.842	1	6
674.011	1	12
674.181	1	8
674.350	1	7
674.520	1	3
674.689	1	-4
674.858	1	4
675.028	1	8
675.197	1	9
675.367	1	-4
675.536	1	1
675.705	1	-4
675.875	1	14
676.044	1	7
676.214	1	8
676.383	1	-1
676.552	1	-8
676.722	1	-3
676.891	1	3
677.060	1	15
677.230	1	11
677.399	1	22
677.569	1	19
677.738	1	3
677.907	1	12
678.077	1	0
678.246	1	2
678.416	1	-1
678.585	1	6
678.754	1	10
678.924	1	3
679.093	1	5
679.262	1	11
679.432	1	-6
679.601	1	3
679.771	1	9
679.940	1	-5
680.109	1	3
680.279	1	9
680.448	1	-3
680.617	1	3
680.787	1	0
680.956	1	6
681.125	1	-1
681.295	1	-4
681.464	1	6
681.634	1	15
681.803	1	1
681.972	1	10
682.142	1	7
682.311	1	9
682.480	1	-5
682.650	1	-9
682.819	1	11
682.988	1	-2
683.158	1	7
683.327	1	6
683.496	1	7
683.666	1	14
683.835	1	9
684.004	1	-8
684.174	1	2
684.343	1	9
684.512	1	-1
684.682	1	8
684.851	1	0
685.021	1	24
685.190	1	4
685.359	1	12
685.529	1	4
685.698	1	-2
685.867	1	7
686.037	1	6
686.206	1	-8
686.375	1	7
686.545	1	11
686.714	1	1
686.883	1	16
687.053	1	23
687.222	1	2
687.391	1	4
687.561	1	4
687.730	1	10
687.899	1	-1
688.069	1	13
688.238	1	15
688.407	1	10
688.577	1	3
688.746	1	1
