325.333	1	190
325.504	1	207
325.675	1	208
325.846	1	204
326.017	1	205
326.188	1	212
326.359	1	220
326.531	1	224
326.702	1	222
326.873	1	214
327.044	1	207
327.215	1	234
327.386	1	216
327.557	1	231
327.728	1	241
327.899	1	238
328.070	1	228
328.241	1	232
328.412	1	250
328.583	1	239
328.754	1	244
328.926	1	263
329.097	1	244
329.268	1	261
329.439	1	255
329.610	1	252
329.781	1	256
329.952	1	271
330.123	1	261
330.294	1	270
330.465	1	278
330.636	1	277
330.807	1	282
330.978	1	291
331.149	1	278
331.320	1	299
331.492	1	280
331.663	1	293
331.834	1	280
332.005	1	296
332.176	1	298
332.347	1	329
332.518	1	289
332.689	1	302
332.860	1	297
333.031	1	305
333.202	1	300
333.373	1	304
333.544	1	325
333.715	1	315
333.886	1	318
334.057	1	329
334.228	1	306
334.399	1	317
334.570	1	291
334.741	1	334
334.912	1	315
335.084	1	333
335.255	1	312
335.426	1	311
335.597	1	322
335.768	1	319
335.939	1	317
336.110	1	323
336.281	1	319
336.452	1	327
336.623	1	359
336.794	1	341
336.965	1	319
337.136	1	339
337.307	1	340
337.478	1	338
337.649	1	330
337.820	1	335
337.991	1	342
338.162	1	356
338.333	1	344
338.504	1	341
338.675	1	331
338.846	1	356
339.017	1	340
339.188	1	344
339.359	1	342
339.530	1	352
339.701	1	343
339.872	1	344
340.043	1	338
340.214	1	344
340.385	1	349
340.556	1	332
340.727	1	358
340.898	1	359
341.069	1	354
341.240	1	336
341.411	1	341
341.582	1	362
341.753	1	335
341.924	1	346
342.095	1	333
342.266	1	343
342.437	1	347
342.608	1	343
342.779	1	347
342.950	1	334
343.121	1	337
343.292	1	358
343.463	1	337
343.634	1	347
343.805	1	335
343.976	1	336
344.147	1	357
344.318	1	352
344.489	1	355
344.660	1	332
344.831	1	332
345.002	1	345
345.173	1	333
345.344	1	340
345.515	1	326
345.686	1	320
345.857	1	321
346.028	1	345
346.199	1	334
346.370	1	327
346.541	1	330
346.712	1	341
346.883	1	335
347.054	1	314
347.225	1	310
347.396	1	303
347.567	1	328
347.738	1	314
347.909	1	334
348.080	1	319
348.251	1	310
348.422	1	310
348.593	1	308
348.764	1	306
348.935	1	306
349.106	1	295
349.277	1	319
349.448	1	320
349.619	1	296
349.790	1	302
349.961	1	299
350.132	1	296
350.303	1	306
350.474	1	306
350.645	1	290
350.816	1	288
350.987	1	282
351.157	1	273
351.328	1	259
351.499	1	270
351.670	1	291
351.841	1	273
352.012	1	276
352.183	1	286
352.354	1	282
352.525	1	275
352.696	1	264
352.867	1	263
353.038	1	282
353.209	1	248
353.380	1	256
353.551	1	262
353.722	1	247
353.893	1	252
354.064	1	242
354.235	1	251
354.406	1	254
354.576	1	254
354.747	1	259
354.918	1	247
355.089	1	237
355.260	1	240
355.431	1	223
355.602	1	238
355.773	1	226
355.944	1	230
356.115	1	226
356.286	1	219
356.457	1	224
356.628	1	220
356.799	1	225
356.970	1	217
357.141	1	214
357.311	1	225
357.482	1	215
357.653	1	203
357.824	1	209
357.995	1	204
358.166	1	205
358.337	1	210
358.508	1	210
358.679	1	188
358.850	1	201
359.021	1	194
359.192	1	198
359.363	1	199
359.533	1	204
359.704	1	196
359.875	1	187
360.046	1	191
360.217	1	187
360.388	1	182
360.559	1	167
360.730	1	188
360.901	1	173
361.072	1	175
361.243	1	172
361.414	1	168
361.584	1	175
361.755	1	172
361.926	1	159
362.097	1	168
362.268	1	163
362.439	1	160
362.610	1	160
362.781	1	153
362.952	1	147
363.123	1	144
363.293	1	154
363.464	1	141
363.635	1	150
363.806	1	144
363.977	1	143
364.148	1	128
364.319	1	129
364.490	1	139
364.661	1	133
364.832	1	139
365.002	1	135
365.173	1	123
365.344	1	139
365.515	1	130
365.686	1	114
365.857	1	120
366.028	1	117
366.199	1	114
366.370	1	124
366.540	1	124
366.711	1	111
366.882	1	121
367.053	1	112
367.224	1	107
367.395	1	124
367.566	1	114
367.737	1	113
367.908	1	113
368.078	1	108
368.249	1	97
368.420	1	99
368.591	1	101
368.762	1	98
368.933	1	89
369.104	1	110
369.274	1	104
369.445	1	107
369.616	1	92
369.787	1	105
369.958	1	84
370.129	1	93
370.300	1	95
370.471	1	95
370.641	1	88
370.812	1	104
370.983	1	97
371.154	1	90
371.325	1	88
371.496	1	86
371.667	1	102
371.837	1	88
372.008	1	93
372.179	1	92
372.350	1	86
372.521	1	89
372.692	1	82
372.863	1	87
373.033	1	79
373.204	1	93
373.375	1	80
373.546	1	87
373.717	1	80
373.888	1	82
374.059	1	74
374.229	1	91
374.400	1	78
374.571	1	77
374.742	1	79
374.913	1	72
375.084	1	84
375.254	1	79
375.425	1	84
375.596	1	86
375.767	1	72
375.938	1	68
376.109	1	81
376.279	1	73
376.450	1	86
376.621	1	83
376.792	1	84
376.963	1	87
377.134	1	77
377.304	1	77
377.475	1	77
377.646	1	92
377.817	1	75
377.988	1	88
378.159	1	87
378.329	1	87
378.500	1	78
378.671	1	92
378.842	1	79
379.013	1	88
379.184	1	80
379.354	1	83
379.525	1	80
379.696	1	76
379.867	1	79
380.038	1	83
380.209	1	70
380.379	1	77
380.550	1	89
380.721	1	71
380.892	1	91
381.063	1	89
381.233	1	82
381.404	1	96
381.575	1	91
381.746	1	88
381.917	1	102
382.087	1	107
382.258	1	74
382.429	1	89
382.600	1	78
382.771	1	97
382.941	1	87
383.112	1	108
383.283	1	103
383.454	1	102
383.625	1	102
383.795	1	100
383.966	1	83
384.137	1	105
384.308	1	96
384.479	1	127
384.649	1	107
384.820	1	99
384.991	1	98
385.162	1	99
385.333	1	116
385.503	1	108
385.674	1	111
385.845	1	101
386.016	1	123
386.187	1	112
386.357	1	109
386.528	1	120
386.699	1	110
386.870	1	111
387.041	1	105
387.211	1	112
387.382	1	122
387.553	1	125
387.724	1	121
387.894	1	124
388.065	1	122
388.236	1	122
388.407	1	130
388.578	1	124
388.748	1	141
388.919	1	129
389.090	1	113
389.261	1	123
389.431	1	128
389.602	1	149
389.773	1	128
389.944	1	131
390.114	1	144
390.285	1	130
390.456	1	136
390.627	1	147
390.798	1	144
390.968	1	143
391.139	1	141
391.310	1	157
391.481	1	139
391.651	1	142
391.822	1	147
391.993	1	133
392.164	1	143
392.334	1	160
392.505	1	144
392.676	1	175
392.847	1	167
393.017	1	159
393.188	1	161
393.359	1	161
393.530	1	175
393.700	1	174
393.871	1	161
394.042	1	173
394.213	1	175
394.383	1	162
394.554	1	178
394.725	1	185
394.896	1	187
395.066	1	180
395.237	1	163
395.408	1	187
395.579	1	181
395.749	1	175
395.920	1	200
396.091	1	195
396.262	1	189
396.432	1	188
396.603	1	201
396.774	1	199
396.945	1	200
397.115	1	195
397.286	1	206
397.457	1	206
397.627	1	196
397.798	1	210
397.969	1	195
398.140	1	228
398.310	1	209
398.481	1	190
398.652	1	211
398.823	1	213
398.993	1	220
399.164	1	217
399.335	1	219
399.505	1	235
399.676	1	223
399.847	1	217
400.018	1	227
400.188	1	226
400.359	1	238
400.530	1	232
400.700	1	244
400.871	1	228
401.042	1	235
401.213	1	247
401.383	1	256
401.554	1	242
401.725	1	243
401.895	1	248
402.066	1	250
402.237	1	253
402.408	1	253
402.578	1	250
402.749	1	250
402.920	1	278
403.090	1	274
403.261	1	252
403.432	1	271
403.603	1	281
403.773	1	272
403.944	1	269
404.115	1	281
404.285	1	282
404.456	1	280
404.627	1	298
404.797	1	281
404.968	1	275
405.139	1	288
405.310	1	290
405.480	1	290
405.651	1	301
405.822	1	295
405.992	1	295
406.163	1	309
406.334	1	301
406.504	1	302
406.675	1	300
406.846	1	298
407.016	1	322
407.187	1	295
407.358	1	311
407.528	1	293
407.699	1	318
407.870	1	312
408.041	1	319
408.211	1	309
408.382	1	327
408.553	1	325
408.723	1	326
408.894	1	328
409.065	1	331
409.235	1	329
409.406	1	335
409.577	1	336
409.747	1	326
409.918	1	342
410.089	1	335
410.259	1	352
410.430	1	348
410.601	1	352
410.771	1	335
410.942	1	367
411.113	1	350
411.283	1	355
411.454	1	349
411.625	1	352
411.795	1	359
411.966	1	362
412.137	1	363
412.307	1	358
412.478	1	355
412.649	1	353
412.819	1	368
412.990	1	352
413.161	1	353
413.331	1	378
413.502	1	362
413.672	1	377
413.843	1	366
414.014	1	360
414.184	1	363
414.355	1	369
414.526	1	378
414.696	1	395
414.867	1	355
415.038	1	382
415.208	1	364
415.379	1	387
415.550	1	384
415.720	1	386
415.891	1	409
416.062	1	377
416.232	1	384
416.403	1	395
416.573	1	382
416.744	1	387
416.915	1	404
417.085	1	390
417.256	1	394
417.427	1	380
417.597	1	424
417.768	1	407
417.939	1	386
418.109	1	388
418.280	1	395
418.450	1	413
418.621	1	387
418.792	1	383
418.962	1	384
419.133	1	400
419.304	1	400
419.474	1	405
419.645	1	404
419.815	1	392
419.986	1	396
420.157	1	397
420.327	1	402
420.498	1	391
420.669	1	387
420.839	1	382
421.010	1	403
421.180	1	400
421.351	1	403
421.522	1	396
421.692	1	407
421.863	1	394
422.033	1	383
422.204	1	403
422.375	1	406
422.545	1	406
422.716	1	396
422.886	1	393
423.057	1	388
423.228	1	416
423.398	1	391
423.569	1	398
423.740	1	404
423.910	1	390
424.081	1	398
424.251	1	406
424.422	1	395
424.593	1	394
424.763	1	411
424.934	1	402
425.104	1	403
425.275	1	406
425.445	1	405
425.616	1	402
425.787	1	401
425.957	1	407
426.128	1	402
426.298	1	409
426.469	1	405
426.640	1	399
426.810	1	403
426.981	1	392
427.151	1	395
427.322	1	397
427.493	1	419
427.663	1	408
427.834	1	408
428.004	1	413
428.175	1	412
428.345	1	395
428.516	1	415
428.687	1	409
428.857	1	402
429.028	1	419
429.198	1	411
429.369	1	407
429.540	1	397
429.710	1	403
429.881	1	390
430.051	1	417
430.222	1	394
430.392	1	399
430.563	1	389
430.734	1	402
430.904	1	410
431.075	1	413
431.245	1	404
431.416	1	407
431.586	1	404
431.757	1	398
431.927	1	388
432.098	1	425
432.269	1	410
432.439	1	406
432.610	1	399
432.780	1	396
432.951	1	396
433.121	1	402
433.292	1	400
433.462	1	388
433.633	1	380
433.804	1	394
433.974	1	389
434.145	1	403
434.315	1	387
434.486	1	412
434.656	1	422
434.827	1	393
434.997	1	394
435.168	1	403
435.339	1	381
435.509	1	372
435.680	1	375
435.850	1	393
436.021	1	388
436.191	1	399
436.362	1	379
436.532	1	402
436.703	1	370
436.873	1	378
437.044	1	383
437.214	1	371
437.385	1	386
437.556	1	365
437.726	1	375
437.897	1	363
438.067	1	381
438.238	1	383
438.408	1	384
438.579	1	369
438.749	1	376
438.920	1	359
439.090	1	372
439.261	1	379
439.431	1	382
439.602	1	374
439.772	1	368
439.943	1	372
440.113	1	375
440.284	1	363
440.455	1	378
440.625	1	359
440.796	1	357
440.966	1	366
441.137	1	350
441.307	1	360
441.478	1	360
441.648	1	349
441.819	1	356
441.989	1	344
442.160	1	358
442.330	1	337
442.501	1	360
442.671	1	358
442.842	1	319
443.012	1	352
443.183	1	352
443.353	1	343
443.524	1	345
443.694	1	332
443.865	1	334
444.035	1	335
444.206	1	336
444.376	1	330
444.547	1	326
444.717	1	333
444.888	1	331
445.058	1	349
445.229	1	320
445.399	1	335
445.570	1	333
445.740	1	325
445.911	1	312
446.081	1	328
446.252	1	327
446.422	1	327
446.593	1	326
446.763	1	320
446.934	1	319
447.104	1	319
447.275	1	320
447.445	1	319
447.616	1	304
447.786	1	305
447.957	1	313
448.127	1	299
448.298	1	325
448.468	1	324
448.639	1	310
448.809	1	304
448.979	1	315
449.150	1	303
449.320	1	321
449.491	1	303
449.661	1	294
449.832	1	311
450.002	1	298
450.173	1	313
450.343	1	300
450.514	1	307
450.684	1	297
450.855	1	300
451.025	1	301
451.196	1	293
451.366	1	294
451.537	1	291
451.707	1	275
451.878	1	291
452.048	1	279
452.218	1	281
452.389	1	274
452.559	1	281
452.730	1	280
452.900	1	263
453.071	1	280
453.241	1	282
453.412	1	267
453.582	1	264
453.753	1	263
453.923	1	258
454.093	1	270
454.264	1	259
454.434	1	267
454.605	1	270
454.775	1	247
454.946	1	252
455.116	1	254
455.287	1	266
455.457	1	254
455.628	1	256
455.798	1	231
455.968	1	253
456.139	1	250
456.309	1	243
456.480	1	247
456.650	1	249
456.821	1	240
456.991	1	229
457.161	1	241
457.332	1	231
457.502	1	238
457.673	1	239
457.843	1	238
458.014	1	232
458.184	1	229
458.355	1	223
458.525	1	233
458.695	1	229
458.866	1	227
459.036	1	217
459.207	1	214
459.377	1	225
459.548	1	216
459.718	1	222
459.888	1	215
460.059	1	226
460.229	1	223
460.400	1	189
460.570	1	213
460.740	1	205
460.911	1	203
461.081	1	219
461.252	1	204
461.422	1	212
461.593	1	207
461.763	1	217
461.933	1	215
462.104	1	207
462.274	1	200
462.445	1	215
462.615	1	187
462.785	1	209
462.956	1	192
463.126	1	206
463.297	1	200
463.467	1	203
463.638	1	193
463.808	1	201
463.978	1	197
464.149	1	196
464.319	1	178
464.490	1	201
464.660	1	191
464.830	1	199
465.001	1	181
465.171	1	189
465.342	1	174
465.512	1	174
465.682	1	172
465.853	1	180
466.023	1	165
466.194	1	177
466.364	1	165
466.534	1	171
466.705	1	181
466.875	1	173
467.045	1	164
467.216	1	155
467.386	1	174
467.557	1	173
467.727	1	160
467.897	1	162
468.068	1	162
468.238	1	140
468.409	1	158
468.579	1	156
468.749	1	168
468.920	1	150
469.090	1	143
469.260	1	151
469.431	1	153
469.601	1	149
469.772	1	160
469.942	1	147
470.112	1	136
470.283	1	146
470.453	1	150
470.623	1	140
470.794	1	141
470.964	1	145
471.135	1	147
471.305	1	143
471.475	1	148
471.646	1	128
471.816	1	151
471.986	1	136
472.157	1	139
472.327	1	128
472.497	1	141
472.668	1	140
472.838	1	147
473.009	1	127
473.179	1	133
473.349	1	121
473.520	1	129
473.690	1	125
473.860	1	133
474.031	1	132
474.201	1	123
474.371	1	130
474.542	1	132
474.712	1	125
474.882	1	131
475.053	1	118
475.223	1	106
475.394	1	113
475.564	1	114
475.734	1	123
475.905	1	115
476.075	1	127
476.245	1	115
476.416	1	132
476.586	1	106
476.756	1	114
476.927	1	106
477.097	1	111
477.267	1	102
477.438	1	107
477.608	1	103
477.778	1	118
477.949	1	113
478.119	1	111
478.289	1	94
478.460	1	109
478.630	1	104
478.800	1	107
478.971	1	95
479.141	1	105
479.311	1	111
479.482	1	97
479.652	1	113
479.822	1	112
479.993	1	94
480.163	1	97
480.333	1	102
480.504	1	96
480.674	1	101
480.844	1	95
481.015	1	100
481.185	1	105
481.355	1	93
481.525	1	99
481.696	1	106
481.866	1	92
482.036	1	95
482.207	1	92
482.377	1	102
482.547	1	100
482.718	1	98
482.888	1	95
483.058	1	99
483.229	1	97
483.399	1	94
483.569	1	81
483.740	1	87
483.910	1	95
484.080	1	89
484.250	1	85
484.421	1	102
484.591	1	92
484.761	1	94
484.932	1	90
485.102	1	97
485.272	1	84
485.443	1	81
485.613	1	89
485.783	1	88
485.953	1	92
486.124	1	74
486.294	1	102
486.464	1	83
486.635	1	72
486.805	1	79
486.975	1	74
487.146	1	76
487.316	1	82
487.486	1	73
487.656	1	83
487.827	1	70
487.997	1	78
488.167	1	74
488.338	1	75
488.508	1	72
488.678	1	75
488.848	1	75
489.019	1	80
489.189	1	77
489.359	1	77
489.529	1	75
489.700	1	60
489.870	1	76
490.040	1	77
490.211	1	70
490.381	1	82
490.551	1	65
490.721	1	79
490.892	1	62
491.062	1	72
491.232	1	78
491.402	1	75
491.573	1	75
491.743	1	66
491.913	1	59
492.084	1	71
492.254	1	72
492.424	1	60
492.594	1	61
492.765	1	47
492.935	1	62
493.105	1	65
493.275	1	60
493.446	1	67
493.616	1	61
493.786	1	66
493.956	1	65
494.127	1	63
494.297	1	62
494.467	1	61
494.637	1	69
494.808	1	55
494.978	1	65
495.148	1	56
495.318	1	60
495.489	1	58
495.659	1	58
495.829	1	53
495.999	1	63
496.170	1	51
496.340	1	61
496.510	1	53
496.680	1	61
496.851	1	63
497.021	1	61
497.191	1	56
497.361	1	64
497.532	1	56
497.702	1	61
497.872	1	58
498.042	1	52
498.213	1	51
498.383	1	56
498.553	1	54
498.723	1	66
498.894	1	56
499.064	1	52
499.234	1	48
499.404	1	52
499.574	1	59
499.745	1	51
499.915	1	43
500.085	1	50
500.255	1	44
500.426	1	58
500.596	1	54
500.766	1	54
500.936	1	49
501.106	1	49
501.277	1	51
501.447	1	41
501.617	1	53
501.787	1	41
501.958	1	56
502.128	1	57
502.298	1	42
502.468	1	50
502.638	1	45
502.809	1	49
502.979	1	45
503.149	1	59
503.319	1	42
503.489	1	57
503.660	1	50
503.830	1	49
504.000	1	44
504.170	1	52
504.340	1	46
504.511	1	51
504.681	1	45
504.851	1	50
505.021	1	44
505.192	1	46
505.362	1	42
505.532	1	52
505.702	1	52
505.872	1	43
506.043	1	45
506.213	1	49
506.383	1	50
506.553	1	53
506.723	1	45
506.893	1	32
507.064	1	48
507.234	1	43
507.404	1	44
507.574	1	48
507.744	1	54
507.915	1	47
508.085	1	51
508.255	1	39
508.425	1	41
508.595	1	49
508.766	1	41
508.936	1	51
509.106	1	43
509.276	1	43
509.446	1	45
509.616	1	41
509.787	1	44
509.957	1	34
510.127	1	53
510.297	1	34
510.467	1	51
510.638	1	36
510.808	1	52
510.978	1	40
511.148	1	45
511.318	1	38
511.488	1	45
511.659	1	33
511.829	1	47
511.999	1	44
512.169	1	44
512.339	1	34
512.509	1	42
512.680	1	50
512.850	1	37
513.020	1	38
513.190	1	58
513.360	1	28
513.530	1	32
513.700	1	35
513.871	1	48
514.041	1	38
514.211	1	39
514.381	1	41
514.551	1	24
514.721	1	45
514.892	1	48
515.062	1	40
515.232	1	28
515.402	1	40
515.572	1	35
515.742	1	34
515.912	1	38
516.083	1	42
516.253	1	29
516.423	1	30
516.593	1	34
516.763	1	50
516.933	1	33
517.104	1	34
517.274	1	35
517.444	1	41
517.614	1	25
517.784	1	37
517.954	1	30
518.124	1	41
518.294	1	24
518.465	1	21
518.635	1	36
518.805	1	35
518.975	1	33
519.145	1	40
519.315	1	27
519.485	1	32
519.656	1	19
519.826	1	27
519.996	1	27
520.166	1	42
520.336	1	32
520.506	1	38
520.676	1	38
520.846	1	39
521.017	1	35
521.187	1	41
521.357	1	29
521.527	1	27
521.697	1	30
521.867	1	26
522.037	1	15
522.207	1	38
522.377	1	34
522.548	1	32
522.718	1	28
522.888	1	44
523.058	1	37
523.228	1	33
523.398	1	39
523.568	1	34
523.738	1	35
523.909	1	31
524.079	1	40
524.249	1	26
524.419	1	26
524.589	1	32
524.759	1	33
524.929	1	39
525.099	1	26
525.269	1	30
525.439	1	33
525.610	1	39
525.780	1	24
525.950	1	35
526.120	1	35
526.290	1	37
526.460	1	27
526.630	1	38
526.800	1	43
526.970	1	33
527.140	1	24
527.311	1	35
527.481	1	22
527.651	1	36
527.821	1	24
527.991	1	34
528.161	1	33
528.331	1	30
528.501	1	30
528.671	1	21
528.841	1	33
529.011	1	31
529.181	1	34
529.352	1	41
529.522	1	19
529.692	1	32
529.862	1	35
530.032	1	24
530.202	1	32
530.372	1	24
530.542	1	32
530.712	1	34
530.882	1	24
531.052	1	25
531.222	1	36
531.392	1	35
531.563	1	25
531.733	1	25
531.903	1	35
532.073	1	20
532.243	1	25
532.413	1	30
532.583	1	39
532.753	1	38
532.923	1	26
533.093	1	20
533.263	1	33
533.433	1	30
533.603	1	27
533.773	1	26
533.943	1	31
534.113	1	26
534.284	1	27
534.454	1	36
534.624	1	22
534.794	1	39
534.964	1	28
535.134	1	32
535.304	1	34
535.474	1	33
535.644	1	23
535.814	1	26
535.984	1	26
536.154	1	24
536.324	1	33
536.494	1	25
536.664	1	36
536.834	1	26
537.004	1	27
537.174	1	24
537.344	1	27
537.514	1	24
537.685	1	22
537.855	1	30
538.025	1	34
538.195	1	23
538.365	1	19
538.535	1	20
538.705	1	27
538.875	1	23
539.045	1	17
539.215	1	28
539.385	1	35
539.555	1	37
539.725	1	19
539.895	1	21
540.065	1	35
540.235	1	26
540.405	1	17
540.575	1	26
540.745	1	32
540.915	1	18
541.085	1	31
541.255	1	19
541.425	1	41
541.595	1	28
541.765	1	20
541.935	1	34
542.105	1	24
542.275	1	32
542.445	1	28
542.615	1	29
542.785	1	25
542.955	1	26
543.125	1	26
543.295	1	12
543.465	1	33
543.635	1	22
543.805	1	16
543.975	1	14
544.145	1	30
544.315	1	10
544.485	1	18
544.655	1	34
544.825	1	19
544.995	1	32
545.165	1	23
545.335	1	30
545.505	1	38
545.675	1	31
545.845	1	24
546.015	1	27
546.185	1	26
546.355	1	33
546.525	1	28
546.695	1	28
546.865	1	29
547.035	1	25
547.205	1	31
547.375	1	24
547.545	1	21
547.715	1	16
547.885	1	13
548.055	1	18
548.225	1	26
548.395	1	24
548.565	1	30
548.735	1	21
548.905	1	28
549.075	1	27
549.245	1	12
549.415	1	24
549.585	1	25
549.755	1	15
549.925	1	27
550.095	1	31
550.265	1	13
550.435	1	27
550.605	1	26
550.775	1	25
550.945	1	32
551.115	1	21
551.285	1	15
551.455	1	21
551.625	1	23
551.795	1	16
551.965	1	28
552.135	1	13
552.305	1	26
552.475	1	29
552.645	1	27
552.815	1	23
552.985	1	24
553.155	1	24
553.325	1	11
553.495	1	17
553.665	1	25
553.835	1	22
554.004	1	19
554.174	1	30
554.344	1	21
554.514	1	29
554.684	1	19
554.854	1	17
555.024	1	14
555.194	1	16
555.364	1	15
555.534	1	31
555.704	1	28
555.874	1	18
556.044	1	21
556.214	1	21
556.384	1	18
556.554	1	20
556.724	1	9
556.894	1	13
557.064	1	31
557.234	1	26
557.404	1	27
557.573	1	23
557.743	1	21
557.913	1	28
558.083	1	19
558.253	1	12
558.423	1	29
558.593	1	35
558.763	1	19
558.933	1	20
559.103	1	30
559.273	1	28
559.443	1	7
559.613	1	15
559.783	1	24
559.953	1	13
560.122	1	15
560.292	1	24
560.462	1	25
560.632	1	19
560.802	1	34
560.972	1	26
561.142	1	18
561.312	1	16
561.482	1	13
561.652	1	12
561.822	1	13
561.992	1	14
562.162	1	17
562.331	1	30
562.501	1	14
562.671	1	22
562.841	1	8
563.011	1	33
563.181	1	22
563.351	1	16
563.521	1	12
563.691	1	27
563.861	1	20
564.031	1	19
564.201	1	23
564.370	1	10
564.540	1	26
564.710	1	17
564.880	1	17
565.050	1	16
565.220	1	15
565.390	1	14
565.560	1	22
565.730	1	19
565.900	1	21
566.069	1	13
566.239	1	21
566.409	1	25
566.579	1	13
566.749	1	12
566.919	1	22
567.089	1	20
567.259	1	19
567.429	1	27
567.599	1	22
567.768	1	20
567.938	1	18
568.108	1	13
568.278	1	24
568.448	1	15
568.618	1	16
568.788	1	13
568.958	1	28
569.128	1	13
569.297	1	15
569.467	1	23
569.637	1	16
569.807	1	29
569.977	1	5
570.147	1	15
570.317	1	9
570.487	1	30
570.656	1	20
570.826	1	19
570.996	1	18
571.166	1	23
571.336	1	13
571.506	1	11
571.676	1	25
571.846	1	26
572.015	1	7
572.185	1	25
572.355	1	28
572.525	1	16
572.695	1	23
572.865	1	21
573.035	1	8
573.205	1	19
573.374	1	7
573.544	1	20
573.714	1	10
573.884	1	32
574.054	1	30
574.224	1	18
574.394	1	21
574.563	1	5
574.733	1	17
574.903	1	16
575.073	1	8
575.243	1	12
575.413	1	17
575.583	1	23
575.752	1	22
575.922	1	33
576.092	1	14
576.262	1	26
576.432	1	15
576.602	1	19
576.772	1	15
576.941	1	21
577.111	1	22
577.281	1	24
577.451	1	24
577.621	1	21
577.791	1	15
577.960	1	17
578.130	1	14
578.300	1	18
578.470	1	18
578.640	1	26
578.810	1	24
578.979	1	11
579.149	1	19
579.319	1	24
579.489	1	16
579.659	1	16
579.829	1	15
579.998	1	13
580.168	1	17
580.338	1	18
580.508	1	20
580.678	1	23
580.848	1	24
581.017	1	22
581.187	1	21
581.357	1	26
581.527	1	17
581.697	1	5
581.867	1	28
582.036	1	18
582.206	1	20
582.376	1	23
582.546	1	21
582.716	1	23
582.885	1	28
583.055	1	6
583.225	1	7
583.395	1	26
583.565	1	19
583.735	1	21
583.904	1	27
584.074	1	21
584.244	1	11
584.414	1	39
584.584	1	18
584.753	1	13
584.923	1	10
585.093	1	28
585.263	1	20
585.433	1	18
585.602	1	37
585.772	1	31
585.942	1	19
586.112	1	19
586.282	1	31
586.451	1	30
586.621	1	30
586.791	1	28
586.961	1	31
587.131	1	27
587.300	1	35
587.470	1	12
587.640	1	20
587.810	1	25
587.980	1	16
588.149	1	31
588.319	1	27
588.489	1	15
588.659	1	18
588.829	1	28
588.998	1	21
589.168	1	20
589.338	1	33
589.508	1	25
589.677	1	19
589.847	1	26
590.017	1	23
590.187	1	5
590.357	1	27
590.526	1	23
590.696	1	16
590.866	1	13
591.036	1	35
591.205	1	17
591.375	1	20
591.545	1	22
591.715	1	19
591.885	1	26
592.054	1	29
592.224	1	33
592.394	1	39
592.564	1	35
592.733	1	37
592.903	1	41
593.073	1	36
593.243	1	34
593.412	1	37
593.582	1	30
593.752	1	33
593.922	1	38
594.091	1	31
594.261	1	28
594.431	1	20
594.601	1	28
594.771	1	22
594.940	1	39
595.110	1	37
595.280	1	40
595.450	1	45
595.619	1	41
595.789	1	39
595.959	1	27
596.129	1	36
596.298	1	41
596.468	1	35
596.638	1	41
596.808	1	36
596.977	1	44
597.147	1	43
597.317	1	37
597.487	1	33
597.656	1	31
597.826	1	31
597.996	1	26
598.166	1	48
598.335	1	54
598.505	1	36
598.675	1	42
598.844	1	38
599.014	1	31
599.184	1	40
599.354	1	60
599.523	1	38
599.693	1	38
599.863	1	37
600.033	1	46
600.202	1	46
600.372	1	36
600.542	1	52
600.712	1	41
600.881	1	49
601.051	1	40
601.221	1	49
601.390	1	40
601.560	1	44
601.730	1	46
601.900	1	48
602.069	1	42
602.239	1	51
602.409	1	58
602.578	1	42
602.748	1	35
602.918	1	46
603.088	1	51
603.257	1	58
603.427	1	55
603.597	1	59
603.767	1	57
603.936	1	45
604.106	1	59
604.276	1	56
604.445	1	52
604.615	1	64
604.785	1	58
604.954	1	55
605.124	1	58
605.294	1	59
605.464	1	71
605.633	1	64
605.803	1	62
605.973	1	64
606.142	1	61
606.312	1	49
606.482	1	50
606.652	1	42
606.821	1	64
606.991	1	59
607.161	1	71
607.330	1	69
607.500	1	65
607.670	1	70
607.839	1	66
608.009	1	60
608.179	1	61
608.348	1	80
608.518	1	79
608.688	1	58
608.858	1	64
609.027	1	83
609.197	1	68
609.367	1	64
609.536	1	85
609.706	1	71
609.876	1	68
610.045	1	71
610.215	1	76
610.385	1	89
610.554	1	76
610.724	1	78
610.894	1	80
611.063	1	75
611.233	1	67
611.403	1	81
611.572	1	87
611.742	1	78
611.912	1	79
612.081	1	87
612.251	1	75
612.421	1	81
612.590	1	80
612.760	1	89
612.930	1	78
613.099	1	92
613.269	1	86
613.439	1	91
613.608	1	79
613.778	1	92
613.948	1	84
614.117	1	91
614.287	1	83
614.457	1	86
614.626	1	95
614.796	1	89
614.966	1	102
615.135	1	98
615.305	1	92
615.475	1	96
615.644	1	94
615.814	1	99
615.984	1	102
616.153	1	105
616.323	1	92
616.493	1	96
616.662	1	107
616.832	1	108
617.002	1	105
617.171	1	85
617.341	1	107
617.511	1	103
617.680	1	89
617.850	1	109
618.019	1	112
618.189	1	113
618.359	1	104
618.528	1	109
618.698	1	116
618.868	1	113
619.037	1	110
619.207	1	109
619.377	1	106
619.546	1	107
619.716	1	112
619.885	1	111
620.055	1	115
620.225	1	112
620.394	1	115
620.564	1	118
620.734	1	126
620.903	1	122
621.073	1	122
621.242	1	134
621.412	1	118
621.582	1	120
621.751	1	109
621.921	1	122
622.091	1	116
622.260	1	119
622.430	1	131
622.599	1	115
622.769	1	119
622.939	1	127
623.108	1	127
623.278	1	137
623.448	1	114
623.617	1	120
623.787	1	127
623.956	1	120
624.126	1	139
624.296	1	122
624.465	1	139
624.635	1	125
624.804	1	147
624.974	1	127
625.144	1	147
625.313	1	132
625.483	1	139
625.652	1	138
625.822	1	141
625.992	1	143
626.161	1	133
626.331	1	161
626.501	1	134
626.670	1	152
626.840	1	141
627.009	1	149
627.179	1	157
627.348	1	143
627.518	1	143
627.688	1	142
627.857	1	143
628.027	1	148
628.196	1	145
628.366	1	156
628.536	1	153
628.705	1	164
628.875	1	157
629.044	1	136
629.214	1	134
629.384	1	154
629.553	1	174
629.723	1	161
629.892	1	153
630.062	1	152
630.232	1	157
630.401	1	161
630.571	1	146
630.740	1	156
630.910	1	163
631.079	1	171
631.249	1	168
631.419	1	159
631.588	1	167
631.758	1	165
631.927	1	162
632.097	1	165
632.266	1	169
632.436	1	176
632.606	1	177
632.775	1	158
632.945	1	177
633.114	1	166
633.284	1	162
633.453	1	165
633.623	1	157
633.793	1	154
633.962	1	171
634.132	1	180
634.301	1	169
634.471	1	179
634.640	1	187
634.810	1	186
634.979	1	168
635.149	1	167
635.319	1	191
635.488	1	188
635.658	1	176
635.827	1	195
635.997	1	188
636.166	1	172
636.336	1	183
636.505	1	186
636.675	1	169
636.845	1	189
637.014	1	178
637.184	1	177
637.353	1	183
637.523	1	183
637.692	1	199
637.862	1	180
638.031	1	194
638.201	1	184
638.370	1	199
638.540	1	194
638.710	1	188
638.879	1	184
639.049	1	199
639.218	1	185
639.388	1	200
639.557	1	191
639.727	1	196
639.896	1	194
640.066	1	183
640.235	1	195
640.405	1	208
640.574	1	205
640.744	1	185
640.914	1	192
641.083	1	198
641.253	1	200
641.422	1	206
641.592	1	199
641.761	1	198
641.931	1	194
642.100	1	190
642.270	1	183
642.439	1	202
642.609	1	203
642.778	1	211
642.948	1	196
643.117	1	192
643.287	1	192
643.456	1	188
643.626	1	204
643.795	1	205
643.965	1	212
644.134	1	193
644.304	1	193
644.473	1	204
644.643	1	205
644.812	1	200
644.982	1	195
645.151	1	188
645.321	1	200
645.490	1	195
645.660	1	215
645.829	1	194
645.999	1	205
646.168	1	198
646.338	1	200
646.507	1	203
646.677	1	201
646.846	1	195
647.016	1	208
647.185	1	205
647.355	1	201
647.524	1	198
647.694	1	210
647.863	1	182
648.033	1	199
648.202	1	204
648.372	1	201
648.541	1	197
648.711	1	196
648.880	1	200
649.050	1	197
649.219	1	205
649.389	1	198
649.558	1	203
649.728	1	212
649.897	1	206
650.067	1	182
650.236	1	195
650.406	1	208
650.575	1	195
650.745	1	195
650.914	1	203
651.084	1	197
651.253	1	201
651.423	1	219
651.592	1	194
651.762	1	193
651.931	1	214
652.101	1	200
652.270	1	193
652.440	1	207
652.609	1	196
652.778	1	213
652.948	1	180
653.117	1	199
653.287	1	183
653.456	1	213
653.626	1	190
653.795	1	195
653.965	1	209
654.134	1	186
654.304	1	175
654.473	1	193
654.643	1	193
654.812	1	203
654.982	1	203
655.151	1	199
655.320	1	199
655.490	1	192
655.659	1	195
655.829	1	204
655.998	1	196
656.168	1	182
656.337	1	194
656.507	1	191
656.676	1	179
656.846	1	200
657.015	1	195
657.184	1	205
657.354	1	189
657.523	1	196
657.693	1	187
657.862	1	192
658.032	1	191
658.201	1	200
658.371	1	197
658.540	1	192
658.709	1	198
658.879	1	192
659.048	1	189
659.218	1	170
659.387	1	192
659.557	1	183
659.726	1	192
659.895	1	195
660.065	1	175
660.234	1	195
660.404	1	179
660.573	1	184
660.743	1	175
660.912	1	183
661.081	1	181
661.251	1	191
661.420	1	175
661.590	1	178
661.759	1	193
661.929	1	169
662.098	1	184
662.267	1	172
662.437	1	184
662.606	1	168
662.776	1	182
662.945	1	186
663.115	1	194
663.284	1	168
663.453	1	187
663.623	1	166
663.792	1	160
663.962	1	174
664.131	1	187
664.300	1	163
664.470	1	162
664.639	1	169
664.809	1	166
664.978	1	181
665.148	1	182
665.317	1	175
665.486	1	153
665.656	1	168
665.825	1	191
665.995	1	163
666.164	1	167
666.333	1	150
666.503	1	170
666.672	1	162
666.842	1	163
667.011	1	172
667.180	1	170
667.350	1	171
667.519	1	156
667.689	1	174
667.858	1	172
668.027	1	162
668.197	1	160
668.366	1	151
668.536	1	172
668.705	1	152
668.874	1	149
669.044	1	157
669.213	1	158
669.382	1	168
669.552	1	144
669.721	1	146
669.891	1	160
670.060	1	147
670.229	1	158
670.399	1	164
670.568	1	141
670.738	1	156
670.907	1	144
671.076	1	147
671.246	1	147
671.415	1	143
671.584	1	152
671.754	1	146
671.923	1	152
672.093	1	162
672.262	1	149
672.431	1	135
672.601	1	150
672.770	1	147
672.939	1	144
673.109	1	135
673.278	1	139
673.448	1	140
673.617	1	151
673.786	1	143
