325.333	1	187
325.504	1	186
325.675	1	196
325.846	1	201
326.017	1	198
326.188	1	193
326.359	1	214
326.531	1	195
326.702	1	190
326.873	1	207
327.044	1	210
327.215	1	213
327.386	1	216
327.557	1	235
327.728	1	225
327.899	1	217
328.070	1	229
328.241	1	233
328.412	1	232
328.583	1	226
328.754	1	226
328.926	1	238
329.097	1	253
329.268	1	249
329.439	1	231
329.610	1	243
329.781	1	233
329.952	1	247
330.123	1	251
330.294	1	263
330.465	1	248
330.636	1	242
330.807	1	248
330.978	1	261
331.149	1	277
331.320	1	262
331.492	1	277
331.663	1	278
331.834	1	275
332.005	1	293
332.176	1	296
332.347	1	301
332.518	1	282
332.689	1	291
332.860	1	309
333.031	1	281
333.202	1	298
333.373	1	290
333.544	1	299
333.715	1	293
333.886	1	293
334.057	1	296
334.228	1	300
334.399	1	298
334.570	1	294
334.741	1	319
334.912	1	289
335.084	1	310
335.255	1	308
335.426	1	296
335.597	1	307
335.768	1	311
335.939	1	323
336.110	1	316
336.281	1	313
336.452	1	317
336.623	1	330
336.794	1	335
336.965	1	320
337.136	1	322
337.307	1	314
337.478	1	305
337.649	1	332
337.820	1	332
337.991	1	330
338.162	1	329
338.333	1	311
338.504	1	331
338.675	1	323
338.846	1	329
339.017	1	324
339.188	1	322
339.359	1	322
339.530	1	322
339.701	1	324
339.872	1	324
340.043	1	333
340.214	1	330
340.385	1	324
340.556	1	330
340.727	1	326
340.898	1	345
341.069	1	330
341.240	1	329
341.411	1	338
341.582	1	344
341.753	1	321
341.924	1	335
342.095	1	317
342.266	1	309
342.437	1	319
342.608	1	317
342.779	1	338
342.950	1	306
343.121	1	334
343.292	1	332
343.463	1	341
343.634	1	327
343.805	1	335
343.976	1	322
344.147	1	313
344.318	1	317
344.489	1	327
344.660	1	314
344.831	1	320
345.002	1	341
345.173	1	322
345.344	1	310
345.515	1	318
345.686	1	303
345.857	1	325
346.028	1	324
346.199	1	322
346.370	1	315
346.541	1	299
346.712	1	316
346.883	1	303
347.054	1	304
347.225	1	292
347.396	1	302
347.567	1	321
347.738	1	301
347.909	1	298
348.080	1	304
348.251	1	299
348.422	1	302
348.593	1	291
348.764	1	285
348.935	1	296
349.106	1	279
349.277	1	289
349.448	1	289
349.619	1	295
349.790	1	289
349.961	1	290
350.132	1	286
350.303	1	275
350.474	1	281
350.645	1	284
350.816	1	269
350.987	1	268
351.157	1	257
351.328	1	268
351.499	1	273
351.670	1	264
351.841	1	269
352.012	1	265
352.183	1	263
352.354	1	253
352.525	1	262
352.696	1	260
352.867	1	235
353.038	1	255
353.209	1	237
353.380	1	230
353.551	1	238
353.722	1	238
353.893	1	254
354.064	1	240
354.235	1	233
354.406	1	243
354.576	1	224
354.747	1	232
354.918	1	235
355.089	1	229
355.260	1	238
355.431	1	238
355.602	1	228
355.773	1	210
355.944	1	214
356.115	1	224
356.286	1	208
356.457	1	218
356.628	1	208
356.799	1	206
356.970	1	218
357.141	1	209
357.311	1	207
357.482	1	200
357.653	1	202
357.824	1	207
357.995	1	200
358.166	1	188
358.337	1	200
358.508	1	206
358.679	1	183
358.850	1	197
359.021	1	177
359.192	1	169
359.363	1	186
359.533	1	189
359.704	1	171
359.875	1	191
360.046	1	172
360.217	1	174
360.388	1	190
360.559	1	166
360.730	1	169
360.901	1	174
361.072	1	160
361.243	1	154
361.414	1	160
361.584	1	162
361.755	1	170
361.926	1	151
362.097	1	160
362.268	1	138
362.439	1	148
362.610	1	153
362.781	1	154
362.952	1	137
363.123	1	136
363.293	1	156
363.464	1	144
363.635	1	134
363.806	1	142
363.977	1	134
364.148	1	124
364.319	1	138
364.490	1	116
364.661	1	132
364.832	1	132
365.002	1	116
365.173	1	107
365.344	1	115
365.515	1	122
365.686	1	110
365.857	1	124
366.028	1	116
366.199	1	105
366.370	1	123
366.540	1	114
366.711	1	123
366.882	1	116
367.053	1	109
367.224	1	120
367.395	1	117
367.566	1	113
367.737	1	106
367.908	1	114
368.078	1	106
368.249	1	104
368.420	1	107
368.591	1	103
368.762	1	100
368.933	1	87
369.104	1	97
369.274	1	99
369.445	1	104
369.616	1	99
369.787	1	100
369.958	1	88
370.129	1	78
370.300	1	86
370.471	1	98
370.641	1	84
370.812	1	92
370.983	1	93
371.154	1	96
371.325	1	89
371.496	1	82
371.667	1	92
371.837	1	94
372.008	1	81
372.179	1	86
372.350	1	94
372.521	1	86
372.692	1	83
372.863	1	86
373.033	1	81
373.204	1	92
373.375	1	75
373.546	1	81
373.717	1	89
373.888	1	84
374.059	1	87
374.229	1	82
374.400	1	88
374.571	1	83
374.742	1	78
374.913	1	75
375.084	1	86
375.254	1	80
375.425	1	72
375.596	1	84
375.767	1	69
375.938	1	73
376.109	1	70
376.279	1	82
376.450	1	79
376.621	1	81
376.792	1	77
376.963	1	87
377.134	1	80
377.304	1	84
377.475	1	74
377.646	1	78
377.817	1	82
377.988	1	98
378.159	1	78
378.329	1	99
378.500	1	63
378.671	1	75
378.842	1	88
379.013	1	88
379.184	1	87
379.354	1	91
379.525	1	90
379.696	1	94
379.867	1	90
380.038	1	100
380.209	1	77
380.379	1	88
380.550	1	96
380.721	1	90
380.892	1	88
381.063	1	84
381.233	1	93
381.404	1	95
381.575	1	93
381.746	1	88
381.917	1	104
382.087	1	100
382.258	1	93
382.429	1	106
382.600	1	89
382.771	1	102
382.941	1	105
383.112	1	97
383.283	1	104
383.454	1	103
383.625	1	101
383.795	1	112
383.966	1	84
384.137	1	104
384.308	1	105
384.479	1	117
384.649	1	114
384.820	1	105
384.991	1	102
385.162	1	97
385.333	1	114
385.503	1	117
385.674	1	120
385.845	1	100
386.016	1	122
386.187	1	112
386.357	1	120
386.528	1	113
386.699	1	118
386.870	1	123
387.041	1	116
387.211	1	123
387.382	1	124
387.553	1	128
387.724	1	129
387.894	1	136
388.065	1	125
388.236	1	146
388.407	1	145
388.578	1	129
388.748	1	140
388.919	1	127
389.090	1	134
389.261	1	133
389.431	1	128
389.602	1	148
389.773	1	134
389.944	1	140
390.114	1	139
390.285	1	138
390.456	1	154
390.627	1	155
390.798	1	131
390.968	1	154
391.139	1	155
391.310	1	151
391.481	1	150
391.651	1	159
391.822	1	176
391.993	1	157
392.164	1	167
392.334	1	173
392.505	1	170
392.676	1	160
392.847	1	181
393.017	1	174
393.188	1	181
393.359	1	169
393.530	1	181
393.700	1	181
393.871	1	177
394.042	1	181
394.213	1	187
394.383	1	186
394.554	1	187
394.725	1	184
394.896	1	191
395.066	1	179
395.237	1	174
395.408	1	197
395.579	1	201
395.749	1	199
395.920	1	205
396.091	1	190
396.262	1	198
396.432	1	207
396.603	1	214
396.774	1	201
396.945	1	212
397.115	1	214
397.286	1	215
397.457	1	217
397.627	1	214
397.798	1	219
397.969	1	220
398.140	1	234
398.310	1	218
398.481	1	216
398.652	1	238
398.823	1	229
398.993	1	243
399.164	1	239
399.335	1	236
399.505	1	260
399.676	1	235
399.847	1	232
400.018	1	247
400.188	1	238
400.359	1	248
400.530	1	230
400.700	1	242
400.871	1	254
401.042	1	260
401.213	1	259
401.383	1	279
401.554	1	278
401.725	1	258
401.895	1	259
402.066	1	269
402.237	1	279
402.408	1	264
402.578	1	266
402.749	1	292
402.920	1	281
403.090	1	296
403.261	1	271
403.432	1	289
403.603	1	282
403.773	1	296
403.944	1	297
404.115	1	308
404.285	1	313
404.456	1	304
404.627	1	301
404.797	1	321
404.968	1	305
405.139	1	316
405.310	1	322
405.480	1	333
405.651	1	307
405.822	1	326
405.992	1	318
406.163	1	330
406.334	1	331
406.504	1	335
406.675	1	343
406.846	1	334
407.016	1	333
407.187	1	314
407.358	1	336
407.528	1	303
407.699	1	340
407.870	1	328
408.041	1	343
408.211	1	335
408.382	1	349
408.553	1	345
408.723	1	355
408.894	1	358
409.065	1	357
409.235	1	358
409.406	1	360
409.577	1	344
409.747	1	362
409.918	1	370
410.089	1	372
410.259	1	365
410.430	1	355
410.601	1	367
410.771	1	367
410.942	1	389
411.113	1	384
411.283	1	364
411.454	1	379
411.625	1	389
411.795	1	371
411.966	1	379
412.137	1	380
412.307	1	384
412.478	1	395
412.649	1	392
412.819	1	388
412.990	1	377
413.161	1	380
413.331	1	392
413.502	1	370
413.672	1	383
413.843	1	408
414.014	1	397
414.184	1	396
414.355	1	403
414.526	1	411
414.696	1	420
414.867	1	386
415.038	1	416
415.208	1	415
415.379	1	415
415.550	1	418
415.720	1	418
415.891	1	416
416.062	1	426
416.232	1	402
416.403	1	418
416.573	1	400
416.744	1	423
416.915	1	418
417.085	1	430
417.256	1	440
417.427	1	444
417.597	1	435
417.768	1	417
417.939	1	423
418.109	1	426
418.280	1	428
418.450	1	420
418.621	1	430
418.792	1	412
418.962	1	425
419.133	1	416
419.304	1	435
419.474	1	417
419.645	1	436
419.815	1	436
419.986	1	416
420.157	1	430
420.327	1	438
420.498	1	421
420.669	1	418
420.839	1	416
421.010	1	427
421.180	1	427
421.351	1	421
421.522	1	418
421.692	1	425
421.863	1	424
422.033	1	436
422.204	1	417
422.375	1	434
422.545	1	435
422.716	1	451
422.886	1	440
423.057	1	440
423.228	1	447
423.398	1	426
423.569	1	415
423.740	1	430
423.910	1	440
424.081	1	431
424.251	1	432
424.422	1	428
424.593	1	432
424.763	1	443
424.934	1	457
425.104	1	439
425.275	1	425
425.445	1	420
425.616	1	450
425.787	1	424
425.957	1	423
426.128	1	447
426.298	1	430
426.469	1	433
426.640	1	437
426.810	1	444
426.981	1	422
427.151	1	459
427.322	1	449
427.493	1	457
427.663	1	437
427.834	1	440
428.004	1	421
428.175	1	445
428.345	1	429
428.516	1	425
428.687	1	449
428.857	1	436
429.028	1	425
429.198	1	449
429.369	1	445
429.540	1	452
429.710	1	431
429.881	1	428
430.051	1	441
430.222	1	419
430.392	1	429
430.563	1	435
430.734	1	441
430.904	1	450
431.075	1	440
431.245	1	416
431.416	1	439
431.586	1	426
431.757	1	434
431.927	1	427
432.098	1	417
432.269	1	420
432.439	1	436
432.610	1	431
432.780	1	440
432.951	1	421
433.121	1	412
433.292	1	413
433.462	1	416
433.633	1	427
433.804	1	410
433.974	1	412
434.145	1	413
434.315	1	450
434.486	1	441
434.656	1	423
434.827	1	419
434.997	1	426
435.168	1	418
435.339	1	419
435.509	1	422
435.680	1	411
435.850	1	425
436.021	1	425
436.191	1	433
436.362	1	432
436.532	1	431
436.703	1	419
436.873	1	407
437.044	1	385
437.214	1	416
437.385	1	423
437.556	1	411
437.726	1	396
437.897	1	398
438.067	1	428
438.238	1	401
438.408	1	407
438.579	1	411
438.749	1	416
438.920	1	416
439.090	1	407
439.261	1	397
439.431	1	427
439.602	1	404
439.772	1	407
439.943	1	402
440.113	1	394
440.284	1	382
440.455	1	396
440.625	1	387
440.796	1	376
440.966	1	401
441.137	1	375
441.307	1	384
441.478	1	380
441.648	1	382
441.819	1	382
441.989	1	381
442.160	1	370
442.330	1	372
442.501	1	387
442.671	1	389
442.842	1	376
443.012	1	379
443.183	1	368
443.353	1	384
443.524	1	370
443.694	1	362
443.865	1	372
444.035	1	381
444.206	1	369
444.376	1	351
444.547	1	354
444.717	1	354
444.888	1	357
445.058	1	354
445.229	1	348
445.399	1	357
445.570	1	352
445.740	1	355
445.911	1	351
446.081	1	343
446.252	1	362
446.422	1	346
446.593	1	348
446.763	1	336
446.934	1	342
447.104	1	339
447.275	1	335
447.445	1	350
447.616	1	354
447.786	1	350
447.957	1	334
448.127	1	315
448.298	1	334
448.468	1	338
448.639	1	332
448.809	1	341
448.979	1	340
449.150	1	326
449.320	1	326
449.491	1	316
449.661	1	318
449.832	1	318
450.002	1	342
450.173	1	324
450.343	1	306
450.514	1	324
450.684	1	330
450.855	1	311
451.025	1	318
451.196	1	316
451.366	1	312
451.537	1	307
451.707	1	311
451.878	1	294
452.048	1	304
452.218	1	307
452.389	1	298
452.559	1	303
452.730	1	312
452.900	1	309
453.071	1	295
453.241	1	289
453.412	1	281
453.582	1	304
453.753	1	286
453.923	1	295
454.093	1	293
454.264	1	304
454.434	1	295
454.605	1	286
454.775	1	288
454.946	1	276
455.116	1	273
455.287	1	271
455.457	1	283
455.628	1	276
455.798	1	265
455.968	1	272
456.139	1	257
456.309	1	269
456.480	1	253
456.650	1	271
456.821	1	269
456.991	1	247
457.161	1	271
457.332	1	264
457.502	1	257
457.673	1	250
457.843	1	253
458.014	1	256
458.184	1	249
458.355	1	222
458.525	1	238
458.695	1	255
458.866	1	242
459.036	1	232
459.207	1	242
459.377	1	243
459.548	1	229
459.718	1	239
459.888	1	226
460.059	1	219
460.229	1	237
460.400	1	215
460.570	1	236
460.740	1	220
460.911	1	220
461.081	1	238
461.252	1	232
461.422	1	229
461.593	1	213
461.763	1	233
461.933	1	229
462.104	1	223
462.274	1	219
462.445	1	214
462.615	1	212
462.785	1	206
462.956	1	186
463.126	1	217
463.297	1	202
463.467	1	208
463.638	1	215
463.808	1	216
463.978	1	197
464.149	1	194
464.319	1	204
464.490	1	193
464.660	1	190
464.830	1	206
465.001	1	201
465.171	1	202
465.342	1	187
465.512	1	179
465.682	1	190
465.853	1	185
466.023	1	195
466.194	1	178
466.364	1	186
466.534	1	186
466.705	1	189
466.875	1	187
467.045	1	169
467.216	1	171
467.386	1	171
467.557	1	153
467.727	1	174
467.897	1	168
468.068	1	171
468.238	1	162
468.409	1	162
468.579	1	160
468.749	1	174
468.920	1	162
469.090	1	147
469.260	1	156
469.431	1	161
469.601	1	175
469.772	1	157
469.942	1	162
470.112	1	161
470.283	1	159
470.453	1	154
470.623	1	153
470.794	1	152
470.964	1	171
471.135	1	143
471.305	1	151
471.475	1	154
471.646	1	127
471.816	1	156
471.986	1	157
472.157	1	144
472.327	1	154
472.497	1	142
472.668	1	145
472.838	1	151
473.009	1	152
473.179	1	129
473.349	1	136
473.520	1	132
473.690	1	133
473.860	1	136
474.031	1	134
474.201	1	123
474.371	1	122
474.542	1	138
474.712	1	135
474.882	1	128
475.053	1	136
475.223	1	121
475.394	1	126
475.564	1	107
475.734	1	135
475.905	1	118
476.075	1	141
476.245	1	130
476.416	1	120
476.586	1	118
476.756	1	122
476.927	1	118
477.097	1	127
477.267	1	122
477.438	1	106
477.608	1	126
477.778	1	115
477.949	1	130
478.119	1	115
478.289	1	114
478.460	1	121
478.630	1	111
478.800	1	114
478.971	1	115
479.141	1	109
479.311	1	115
479.482	1	108
479.652	1	109
479.822	1	112
479.993	1	106
480.163	1	117
480.333	1	103
480.504	1	100
480.674	1	102
480.844	1	99
481.015	1	115
481.185	1	95
481.355	1	99
481.525	1	107
481.696	1	117
481.866	1	98
482.036	1	99
482.207	1	103
482.377	1	102
482.547	1	102
482.718	1	102
482.888	1	105
483.058	1	99
483.229	1	119
483.399	1	98
483.569	1	101
483.740	1	80
483.910	1	96
484.080	1	90
484.250	1	100
484.421	1	106
484.591	1	98
484.761	1	90
484.932	1	99
485.102	1	92
485.272	1	94
485.443	1	91
485.613	1	90
485.783	1	94
485.953	1	93
486.124	1	95
486.294	1	86
486.464	1	77
486.635	1	84
486.805	1	85
486.975	1	93
487.146	1	83
487.316	1	91
487.486	1	88
487.656	1	82
487.827	1	80
487.997	1	89
488.167	1	78
488.338	1	73
488.508	1	81
488.678	1	78
488.848	1	70
489.019	1	78
489.189	1	79
489.359	1	78
489.529	1	68
489.700	1	71
489.870	1	71
490.040	1	82
490.211	1	78
490.381	1	75
490.551	1	76
490.721	1	78
490.892	1	77
491.062	1	78
491.232	1	76
491.402	1	57
491.573	1	74
491.743	1	65
491.913	1	75
492.084	1	65
492.254	1	86
492.424	1	79
492.594	1	63
492.765	1	56
492.935	1	69
493.105	1	74
493.275	1	75
493.446	1	72
493.616	1	72
493.786	1	73
493.956	1	76
494.127	1	66
494.297	1	52
494.467	1	71
494.637	1	61
494.808	1	75
494.978	1	61
495.148	1	57
495.318	1	53
495.489	1	64
495.659	1	62
495.829	1	58
495.999	1	83
496.170	1	65
496.340	1	72
496.510	1	62
496.680	1	60
496.851	1	58
497.021	1	59
497.191	1	51
497.361	1	64
497.532	1	50
497.702	1	71
497.872	1	58
498.042	1	55
498.213	1	54
498.383	1	56
498.553	1	61
498.723	1	63
498.894	1	57
499.064	1	55
499.234	1	54
499.404	1	60
499.574	1	58
499.745	1	48
499.915	1	47
500.085	1	48
500.255	1	48
500.426	1	53
500.596	1	64
500.766	1	54
500.936	1	44
501.106	1	49
501.277	1	59
501.447	1	48
501.617	1	61
501.787	1	49
501.958	1	63
502.128	1	57
502.298	1	52
502.468	1	51
502.638	1	53
502.809	1	55
502.979	1	45
503.149	1	70
503.319	1	48
503.489	1	54
503.660	1	51
503.830	1	51
504.000	1	44
504.170	1	55
504.340	1	56
504.511	1	54
504.681	1	46
504.851	1	57
505.021	1	44
505.192	1	56
505.362	1	59
505.532	1	53
505.702	1	53
505.872	1	52
506.043	1	50
506.213	1	48
506.383	1	48
506.553	1	44
506.723	1	43
506.893	1	40
507.064	1	55
507.234	1	49
507.404	1	35
507.574	1	47
507.744	1	56
507.915	1	55
508.085	1	55
508.255	1	49
508.425	1	34
508.595	1	54
508.766	1	52
508.936	1	35
509.106	1	44
509.276	1	51
509.446	1	39
509.616	1	48
509.787	1	48
509.957	1	45
510.127	1	47
510.297	1	36
510.467	1	53
510.638	1	36
510.808	1	44
510.978	1	37
511.148	1	43
511.318	1	40
511.488	1	52
511.659	1	41
511.829	1	44
511.999	1	31
512.169	1	51
512.339	1	40
512.509	1	51
512.680	1	44
512.850	1	40
513.020	1	41
513.190	1	47
513.360	1	39
513.530	1	40
513.700	1	37
513.871	1	47
514.041	1	42
514.211	1	39
514.381	1	49
514.551	1	33
514.721	1	46
514.892	1	51
515.062	1	42
515.232	1	35
515.402	1	42
515.572	1	37
515.742	1	31
515.912	1	47
516.083	1	41
516.253	1	35
516.423	1	39
516.593	1	43
516.763	1	48
516.933	1	39
517.104	1	44
517.274	1	37
517.444	1	50
517.614	1	32
517.784	1	41
517.954	1	24
518.124	1	38
518.294	1	24
518.465	1	37
518.635	1	46
518.805	1	51
518.975	1	26
519.145	1	50
519.315	1	35
519.485	1	39
519.656	1	31
519.826	1	33
519.996	1	33
520.166	1	33
520.336	1	30
520.506	1	33
520.676	1	43
520.846	1	35
521.017	1	39
521.187	1	38
521.357	1	39
521.527	1	32
521.697	1	33
521.867	1	31
522.037	1	19
522.207	1	35
522.377	1	27
522.548	1	30
522.718	1	38
522.888	1	35
523.058	1	50
523.228	1	35
523.398	1	35
523.568	1	29
523.738	1	35
523.909	1	45
524.079	1	43
524.249	1	28
524.419	1	21
524.589	1	34
524.759	1	34
524.929	1	40
525.099	1	26
525.269	1	34
525.439	1	27
525.610	1	49
525.780	1	32
525.950	1	40
526.120	1	44
526.290	1	35
526.460	1	24
526.630	1	31
526.800	1	39
526.970	1	32
527.140	1	33
527.311	1	32
527.481	1	26
527.651	1	36
527.821	1	24
527.991	1	38
528.161	1	31
528.331	1	33
528.501	1	28
528.671	1	28
528.841	1	28
529.011	1	37
529.181	1	29
529.352	1	37
529.522	1	26
529.692	1	45
529.862	1	32
530.032	1	38
530.202	1	33
530.372	1	27
530.542	1	26
530.712	1	19
530.882	1	32
531.052	1	31
531.222	1	35
531.392	1	35
531.563	1	34
531.733	1	34
531.903	1	45
532.073	1	21
532.243	1	36
532.413	1	28
532.583	1	36
532.753	1	37
532.923	1	23
533.093	1	23
533.263	1	30
533.433	1	38
533.603	1	40
533.773	1	22
533.943	1	33
534.113	1	25
534.284	1	19
534.454	1	39
534.624	1	25
534.794	1	23
534.964	1	36
535.134	1	42
535.304	1	32
535.474	1	27
535.644	1	28
535.814	1	27
535.984	1	32
536.154	1	31
536.324	1	30
536.494	1	25
536.664	1	30
536.834	1	34
537.004	1	27
537.174	1	33
537.344	1	31
537.514	1	29
537.685	1	30
537.855	1	36
538.025	1	40
538.195	1	30
538.365	1	21
538.535	1	22
538.705	1	31
538.875	1	28
539.045	1	19
539.215	1	35
539.385	1	27
539.555	1	31
539.725	1	24
539.895	1	26
540.065	1	40
540.235	1	28
540.405	1	26
540.575	1	33
540.745	1	23
540.915	1	26
541.085	1	26
541.255	1	25
541.425	1	39
541.595	1	21
541.765	1	22
541.935	1	26
542.105	1	20
542.275	1	31
542.445	1	28
542.615	1	20
542.785	1	14
542.955	1	38
543.125	1	13
543.295	1	18
543.465	1	35
543.635	1	26
543.805	1	24
543.975	1	24
544.145	1	20
544.315	1	25
544.485	1	20
544.655	1	24
544.825	1	29
544.995	1	41
545.165	1	24
545.335	1	27
545.505	1	27
545.675	1	28
545.845	1	23
546.015	1	30
546.185	1	33
546.355	1	30
546.525	1	29
546.695	1	31
546.865	1	16
547.035	1	27
547.205	1	37
547.375	1	21
547.545	1	22
547.715	1	20
547.885	1	10
548.055	1	26
548.225	1	47
548.395	1	15
548.565	1	33
548.735	1	32
548.905	1	19
549.075	1	25
549.245	1	27
549.415	1	18
549.585	1	20
549.755	1	23
549.925	1	29
550.095	1	31
550.265	1	24
550.435	1	22
550.605	1	28
550.775	1	37
550.945	1	36
551.115	1	19
551.285	1	18
551.455	1	22
551.625	1	27
551.795	1	10
551.965	1	26
552.135	1	20
552.305	1	23
552.475	1	34
552.645	1	26
552.815	1	29
552.985	1	29
553.155	1	27
553.325	1	12
553.495	1	27
553.665	1	25
553.835	1	21
554.004	1	18
554.174	1	24
554.344	1	13
554.514	1	30
554.684	1	20
554.854	1	16
555.024	1	31
555.194	1	28
555.364	1	16
555.534	1	31
555.704	1	32
555.874	1	14
556.044	1	22
556.214	1	24
556.384	1	17
556.554	1	21
556.724	1	20
556.894	1	18
557.064	1	33
557.234	1	26
557.404	1	14
557.573	1	18
557.743	1	37
557.913	1	23
558.083	1	15
558.253	1	15
558.423	1	18
558.593	1	28
558.763	1	23
558.933	1	8
559.103	1	29
559.273	1	26
559.443	1	16
559.613	1	20
559.783	1	27
559.953	1	13
560.122	1	13
560.292	1	27
560.462	1	20
560.632	1	26
560.802	1	34
560.972	1	29
561.142	1	21
561.312	1	20
561.482	1	14
561.652	1	7
561.822	1	24
561.992	1	2
562.162	1	18
562.331	1	32
562.501	1	27
562.671	1	17
562.841	1	23
563.011	1	30
563.181	1	23
563.351	1	31
563.521	1	15
563.691	1	16
563.861	1	25
564.031	1	29
564.201	1	16
564.370	1	30
564.540	1	26
564.710	1	10
564.880	1	20
565.050	1	25
565.220	1	18
565.390	1	17
565.560	1	25
565.730	1	18
565.900	1	26
566.069	1	11
566.239	1	13
566.409	1	24
566.579	1	0
566.749	1	7
566.919	1	26
567.089	1	26
567.259	1	21
567.429	1	26
567.599	1	31
567.768	1	25
567.938	1	19
568.108	1	22
568.278	1	14
568.448	1	18
568.618	1	25
568.788	1	12
568.958	1	19
569.128	1	31
569.297	1	21
569.467	1	21
569.637	1	21
569.807	1	27
569.977	1	11
570.147	1	21
570.317	1	12
570.487	1	18
570.656	1	23
570.826	1	11
570.996	1	11
571.166	1	19
571.336	1	11
571.506	1	19
571.676	1	9
571.846	1	19
572.015	1	13
572.185	1	19
572.355	1	20
572.525	1	27
572.695	1	14
572.865	1	26
573.035	1	20
573.205	1	16
573.374	1	18
573.544	1	18
573.714	1	12
573.884	1	38
574.054	1	22
574.224	1	13
574.394	1	19
574.563	1	9
574.733	1	28
574.903	1	12
575.073	1	13
575.243	1	28
575.413	1	6
575.583	1	16
575.752	1	25
575.922	1	20
576.092	1	19
576.262	1	31
576.432	1	18
576.602	1	18
576.772	1	12
576.941	1	22
577.111	1	30
577.281	1	20
577.451	1	26
577.621	1	27
577.791	1	18
577.960	1	32
578.130	1	19
578.300	1	12
578.470	1	21
578.640	1	33
578.810	1	16
578.979	1	27
579.149	1	37
579.319	1	15
579.489	1	27
579.659	1	14
579.829	1	17
579.998	1	13
580.168	1	6
580.338	1	27
580.508	1	25
580.678	1	21
580.848	1	26
581.017	1	22
581.187	1	23
581.357	1	26
581.527	1	15
581.697	1	3
581.867	1	30
582.036	1	14
582.206	1	29
582.376	1	22
582.546	1	21
582.716	1	28
582.885	1	24
583.055	1	8
583.225	1	17
583.395	1	22
583.565	1	22
583.735	1	34
583.904	1	17
584.074	1	38
584.244	1	17
584.414	1	35
584.584	1	19
584.753	1	22
584.923	1	14
585.093	1	26
585.263	1	19
585.433	1	17
585.602	1	18
585.772	1	32
585.942	1	23
586.112	1	15
586.282	1	26
586.451	1	31
586.621	1	23
586.791	1	36
586.961	1	21
587.131	1	34
587.300	1	24
587.470	1	20
587.640	1	20
587.810	1	30
587.980	1	19
588.149	1	39
588.319	1	25
588.489	1	32
588.659	1	24
588.829	1	32
588.998	1	26
589.168	1	30
589.338	1	26
589.508	1	26
589.677	1	27
589.847	1	25
590.017	1	20
590.187	1	23
590.357	1	32
590.526	1	21
590.696	1	28
590.866	1	11
591.036	1	35
591.205	1	29
591.375	1	28
591.545	1	29
591.715	1	25
591.885	1	22
592.054	1	26
592.224	1	20
592.394	1	35
592.564	1	32
592.733	1	23
592.903	1	31
593.073	1	39
593.243	1	41
593.412	1	29
593.582	1	25
593.752	1	31
593.922	1	33
594.091	1	40
594.261	1	21
594.431	1	26
594.601	1	37
594.771	1	32
594.940	1	39
595.110	1	40
595.280	1	36
595.450	1	35
595.619	1	35
595.789	1	29
595.959	1	35
596.129	1	33
596.298	1	35
596.468	1	33
596.638	1	32
596.808	1	40
596.977	1	39
597.147	1	37
597.317	1	38
597.487	1	33
597.656	1	30
597.826	1	45
597.996	1	40
598.166	1	41
598.335	1	46
598.505	1	48
598.675	1	40
598.844	1	29
599.014	1	32
599.184	1	30
599.354	1	56
599.523	1	40
599.693	1	47
599.863	1	35
600.033	1	33
600.202	1	39
600.372	1	35
600.542	1	48
600.712	1	35
600.881	1	43
601.051	1	38
601.221	1	55
601.390	1	44
601.560	1	49
601.730	1	47
601.900	1	47
602.069	1	45
602.239	1	42
602.409	1	45
602.578	1	54
602.748	1	38
602.918	1	47
603.088	1	41
603.257	1	52
603.427	1	52
603.597	1	56
603.767	1	57
603.936	1	50
604.106	1	54
604.276	1	48
604.445	1	44
604.615	1	62
604.785	1	66
604.954	1	55
605.124	1	69
605.294	1	66
605.464	1	59
605.633	1	59
605.803	1	54
605.973	1	63
606.142	1	62
606.312	1	64
606.482	1	39
606.652	1	54
606.821	1	62
606.991	1	57
607.161	1	62
607.330	1	61
607.500	1	55
607.670	1	61
607.839	1	60
608.009	1	60
608.179	1	66
608.348	1	67
608.518	1	65
608.688	1	72
608.858	1	60
609.027	1	76
609.197	1	65
609.367	1	70
609.536	1	67
609.706	1	74
609.876	1	78
610.045	1	74
610.215	1	82
610.385	1	82
610.554	1	75
610.724	1	69
610.894	1	86
611.063	1	75
611.233	1	68
611.403	1	80
611.572	1	73
611.742	1	82
611.912	1	71
612.081	1	88
612.251	1	74
612.421	1	84
612.590	1	85
612.760	1	83
612.930	1	78
613.099	1	94
613.269	1	74
613.439	1	99
613.608	1	91
613.778	1	82
613.948	1	79
614.117	1	85
614.287	1	81
614.457	1	85
614.626	1	90
614.796	1	84
614.966	1	90
615.135	1	96
615.305	1	95
615.475	1	101
615.644	1	99
615.814	1	102
615.984	1	86
616.153	1	90
616.323	1	74
616.493	1	94
616.662	1	101
616.832	1	95
617.002	1	106
617.171	1	97
617.341	1	107
617.511	1	89
617.680	1	101
617.850	1	103
618.019	1	103
618.189	1	101
618.359	1	101
618.528	1	113
618.698	1	109
618.868	1	107
619.037	1	95
619.207	1	103
619.377	1	103
619.546	1	111
619.716	1	109
619.885	1	125
620.055	1	113
620.225	1	114
620.394	1	97
620.564	1	125
620.734	1	115
620.903	1	119
621.073	1	114
621.242	1	125
621.412	1	109
621.582	1	119
621.751	1	111
621.921	1	122
622.091	1	126
622.260	1	112
622.430	1	126
622.599	1	117
622.769	1	113
622.939	1	117
623.108	1	132
623.278	1	126
623.448	1	108
623.617	1	129
623.787	1	138
623.956	1	119
624.126	1	134
624.296	1	128
624.465	1	146
624.635	1	122
624.804	1	130
624.974	1	127
625.144	1	136
625.313	1	126
625.483	1	139
625.652	1	127
625.822	1	138
625.992	1	142
626.161	1	136
626.331	1	153
626.501	1	136
626.670	1	133
626.840	1	129
627.009	1	137
627.179	1	148
627.348	1	149
627.518	1	127
627.688	1	140
627.857	1	130
628.027	1	155
628.196	1	141
628.366	1	148
628.536	1	155
628.705	1	143
628.875	1	136
629.044	1	148
629.214	1	159
629.384	1	144
629.553	1	163
629.723	1	164
629.892	1	146
630.062	1	155
630.232	1	156
630.401	1	155
630.571	1	165
630.740	1	149
630.910	1	157
631.079	1	185
631.249	1	154
631.419	1	150
631.588	1	160
631.758	1	159
631.927	1	163
632.097	1	150
632.266	1	168
632.436	1	177
632.606	1	161
632.775	1	149
632.945	1	161
633.114	1	165
633.284	1	162
633.453	1	179
633.623	1	162
633.793	1	161
633.962	1	165
634.132	1	148
634.301	1	172
634.471	1	154
634.640	1	156
634.810	1	157
634.979	1	165
635.149	1	179
635.319	1	177
635.488	1	179
635.658	1	166
635.827	1	158
635.997	1	167
636.166	1	184
636.336	1	171
636.505	1	189
636.675	1	171
636.845	1	160
637.014	1	178
637.184	1	164
637.353	1	196
637.523	1	171
637.692	1	195
637.862	1	182
638.031	1	187
638.201	1	183
638.370	1	191
638.540	1	177
638.710	1	179
638.879	1	191
639.049	1	185
639.218	1	191
639.388	1	180
639.557	1	177
639.727	1	193
639.896	1	187
640.066	1	182
640.235	1	180
640.405	1	199
640.574	1	187
640.744	1	187
640.914	1	184
641.083	1	188
641.253	1	193
641.422	1	194
641.592	1	180
641.761	1	190
641.931	1	179
642.100	1	201
642.270	1	185
642.439	1	193
642.609	1	202
642.778	1	197
642.948	1	191
643.117	1	184
643.287	1	194
643.456	1	190
643.626	1	186
643.795	1	187
643.965	1	192
644.134	1	199
644.304	1	183
644.473	1	195
644.643	1	183
644.812	1	191
644.982	1	181
645.151	1	194
645.321	1	207
645.490	1	192
645.660	1	207
645.829	1	197
645.999	1	195
646.168	1	204
646.338	1	177
646.507	1	190
646.677	1	198
646.846	1	187
647.016	1	201
647.185	1	192
647.355	1	205
647.524	1	179
647.694	1	193
647.863	1	195
648.033	1	177
648.202	1	195
648.372	1	202
648.541	1	189
648.711	1	189
648.880	1	201
649.050	1	181
649.219	1	194
649.389	1	197
649.558	1	193
649.728	1	168
649.897	1	194
650.067	1	191
650.236	1	201
650.406	1	181
650.575	1	195
650.745	1	190
650.914	1	200
651.084	1	187
651.253	1	193
651.423	1	187
651.592	1	189
651.762	1	195
651.931	1	198
652.101	1	184
652.270	1	180
652.440	1	194
652.609	1	187
652.778	1	191
652.948	1	186
653.117	1	196
653.287	1	181
653.456	1	185
653.626	1	183
653.795	1	183
653.965	1	198
654.134	1	189
654.304	1	191
654.473	1	188
654.643	1	190
654.812	1	200
654.982	1	201
655.151	1	179
655.320	1	192
655.490	1	181
655.659	1	197
655.829	1	190
655.998	1	187
656.168	1	177
656.337	1	178
656.507	1	184
656.676	1	182
656.846	1	206
657.015	1	176
657.184	1	190
657.354	1	182
657.523	1	169
657.693	1	188
657.862	1	168
658.032	1	192
658.201	1	171
658.371	1	186
658.540	1	183
658.709	1	196
658.879	1	187
659.048	1	183
659.218	1	174
659.387	1	171
659.557	1	190
659.726	1	195
659.895	1	187
660.065	1	165
660.234	1	175
660.404	1	188
660.573	1	178
660.743	1	183
660.912	1	175
661.081	1	178
661.251	1	176
661.420	1	165
661.590	1	158
661.759	1	172
661.929	1	166
662.098	1	170
662.267	1	180
662.437	1	178
662.606	1	172
662.776	1	166
662.945	1	170
663.115	1	180
663.284	1	173
663.453	1	171
663.623	1	172
663.792	1	158
663.962	1	180
664.131	1	174
664.300	1	155
664.470	1	159
664.639	1	180
664.809	1	171
664.978	1	171
665.148	1	159
665.317	1	168
665.486	1	153
665.656	1	178
665.825	1	180
665.995	1	148
666.164	1	162
666.333	1	171
666.503	1	162
666.672	1	144
666.842	1	164
667.011	1	176
667.180	1	172
667.350	1	157
667.519	1	144
667.689	1	144
667.858	1	159
668.027	1	156
668.197	1	147
668.366	1	149
668.536	1	157
668.705	1	153
668.874	1	152
669.044	1	144
669.213	1	153
669.382	1	150
669.552	1	140
669.721	1	153
669.891	1	139
670.060	1	150
670.229	1	154
670.399	1	155
670.568	1	145
670.738	1	152
670.907	1	140
671.076	1	145
671.246	1	138
671.415	1	138
671.584	1	138
671.754	1	130
671.923	1	143
672.093	1	150
672.262	1	151
672.431	1	128
672.601	1	137
672.770	1	145
672.939	1	142
673.109	1	122
673.278	1	128
673.448	1	123
673.617	1	124
673.786	1	127
