325.333	1	192
325.504	1	187
325.675	1	184
325.846	1	196
326.017	1	190
326.188	1	209
326.359	1	202
326.531	1	193
326.702	1	198
326.873	1	205
327.044	1	209
327.215	1	219
327.386	1	211
327.557	1	229
327.728	1	228
327.899	1	216
328.070	1	222
328.241	1	217
328.412	1	224
328.583	1	228
328.754	1	238
328.926	1	242
329.097	1	240
329.268	1	249
329.439	1	227
329.610	1	231
329.781	1	239
329.952	1	249
330.123	1	252
330.294	1	247
330.465	1	249
330.636	1	257
330.807	1	262
330.978	1	265
331.149	1	261
331.320	1	253
331.492	1	253
331.663	1	259
331.834	1	257
332.005	1	281
332.176	1	289
332.347	1	285
332.518	1	287
332.689	1	288
332.860	1	285
333.031	1	278
333.202	1	280
333.373	1	273
333.544	1	293
333.715	1	303
333.886	1	294
334.057	1	293
334.228	1	285
334.399	1	298
334.570	1	275
334.741	1	320
334.912	1	301
335.084	1	306
335.255	1	298
335.426	1	304
335.597	1	315
335.768	1	298
335.939	1	313
336.110	1	310
336.281	1	294
336.452	1	305
336.623	1	312
336.794	1	296
336.965	1	300
337.136	1	303
337.307	1	319
337.478	1	315
337.649	1	313
337.820	1	314
337.991	1	305
338.162	1	323
338.333	1	306
338.504	1	321
338.675	1	307
338.846	1	328
339.017	1	324
339.188	1	319
339.359	1	332
339.530	1	324
339.701	1	316
339.872	1	329
340.043	1	317
340.214	1	318
340.385	1	325
340.556	1	331
340.727	1	317
340.898	1	331
341.069	1	318
341.240	1	309
341.411	1	330
341.582	1	321
341.753	1	321
341.924	1	321
342.095	1	323
342.266	1	311
342.437	1	317
342.608	1	313
342.779	1	334
342.950	1	315
343.121	1	324
343.292	1	335
343.463	1	317
343.634	1	316
343.805	1	313
343.976	1	320
344.147	1	300
344.318	1	319
344.489	1	328
344.660	1	308
344.831	1	313
345.002	1	317
345.173	1	322
345.344	1	310
345.515	1	300
345.686	1	307
345.857	1	312
346.028	1	300
346.199	1	306
346.370	1	305
346.541	1	290
346.712	1	316
346.883	1	301
347.054	1	309
347.225	1	310
347.396	1	293
347.567	1	299
347.738	1	285
347.909	1	295
348.080	1	298
348.251	1	296
348.422	1	296
348.593	1	294
348.764	1	286
348.935	1	278
349.106	1	298
349.277	1	285
349.448	1	282
349.619	1	278
349.790	1	290
349.961	1	285
350.132	1	283
350.303	1	272
350.474	1	265
350.645	1	273
350.816	1	266
350.987	1	276
351.157	1	256
351.328	1	272
351.499	1	267
351.670	1	266
351.841	1	274
352.012	1	254
352.183	1	254
352.354	1	262
352.525	1	241
352.696	1	254
352.867	1	245
353.038	1	253
353.209	1	243
353.380	1	224
353.551	1	239
353.722	1	227
353.893	1	231
354.064	1	222
354.235	1	221
354.406	1	228
354.576	1	230
354.747	1	228
354.918	1	226
355.089	1	222
355.260	1	223
355.431	1	221
355.602	1	217
355.773	1	221
355.944	1	212
356.115	1	213
356.286	1	214
356.457	1	231
356.628	1	211
356.799	1	205
356.970	1	204
357.141	1	203
357.311	1	214
357.482	1	187
357.653	1	184
357.824	1	196
357.995	1	205
358.166	1	199
358.337	1	191
358.508	1	199
358.679	1	181
358.850	1	178
359.021	1	184
359.192	1	190
359.363	1	175
359.533	1	180
359.704	1	182
359.875	1	160
360.046	1	168
360.217	1	174
360.388	1	172
360.559	1	173
360.730	1	172
360.901	1	174
361.072	1	149
361.243	1	150
361.414	1	168
361.584	1	180
361.755	1	160
361.926	1	160
362.097	1	159
362.268	1	152
362.439	1	151
362.610	1	154
362.781	1	156
362.952	1	140
363.123	1	146
363.293	1	133
363.464	1	147
363.635	1	134
363.806	1	139
363.977	1	144
364.148	1	129
364.319	1	121
364.490	1	132
364.661	1	124
364.832	1	139
365.002	1	119
365.173	1	119
365.344	1	126
365.515	1	129
365.686	1	100
365.857	1	106
366.028	1	120
366.199	1	122
366.370	1	111
366.540	1	116
366.711	1	114
366.882	1	114
367.053	1	108
367.224	1	115
367.395	1	105
367.566	1	106
367.737	1	107
367.908	1	117
368.078	1	108
368.249	1	98
368.420	1	111
368.591	1	102
368.762	1	95
368.933	1	92
369.104	1	94
369.274	1	102
369.445	1	102
369.616	1	90
369.787	1	105
369.958	1	96
370.129	1	94
370.300	1	96
370.471	1	97
370.641	1	82
370.812	1	83
370.983	1	88
371.154	1	100
371.325	1	96
371.496	1	87
371.667	1	85
371.837	1	86
372.008	1	82
372.179	1	96
372.350	1	91
372.521	1	107
372.692	1	80
372.863	1	86
373.033	1	84
373.204	1	93
373.375	1	81
373.546	1	84
373.717	1	84
373.888	1	76
374.059	1	82
374.229	1	83
374.400	1	89
374.571	1	84
374.742	1	71
374.913	1	81
375.084	1	97
375.254	1	84
375.425	1	82
375.596	1	86
375.767	1	79
375.938	1	70
376.109	1	81
376.279	1	79
376.450	1	79
376.621	1	84
376.792	1	82
376.963	1	94
377.134	1	80
377.304	1	84
377.475	1	75
377.646	1	79
377.817	1	80
377.988	1	89
378.159	1	88
378.329	1	89
378.500	1	76
378.671	1	86
378.842	1	88
379.013	1	87
379.184	1	87
379.354	1	78
379.525	1	93
379.696	1	84
379.867	1	88
380.038	1	89
380.209	1	82
380.379	1	86
380.550	1	102
380.721	1	92
380.892	1	88
381.063	1	93
381.233	1	107
381.404	1	96
381.575	1	106
381.746	1	92
381.917	1	110
382.087	1	93
382.258	1	90
382.429	1	100
382.600	1	96
382.771	1	97
382.941	1	104
383.112	1	114
383.283	1	111
383.454	1	109
383.625	1	111
383.795	1	110
383.966	1	101
384.137	1	107
384.308	1	116
384.479	1	119
384.649	1	109
384.820	1	119
384.991	1	104
385.162	1	116
385.333	1	113
385.503	1	107
385.674	1	128
385.845	1	119
386.016	1	126
386.187	1	122
386.357	1	126
386.528	1	116
386.699	1	124
386.870	1	124
387.041	1	124
387.211	1	135
387.382	1	128
387.553	1	121
387.724	1	139
387.894	1	140
388.065	1	144
388.236	1	136
388.407	1	139
388.578	1	141
388.748	1	145
388.919	1	130
389.090	1	129
389.261	1	150
389.431	1	148
389.602	1	153
389.773	1	153
389.944	1	163
390.114	1	159
390.285	1	146
390.456	1	163
390.627	1	156
390.798	1	157
390.968	1	162
391.139	1	171
391.310	1	171
391.481	1	156
391.651	1	163
391.822	1	172
391.993	1	165
392.164	1	167
392.334	1	161
392.505	1	167
392.676	1	161
392.847	1	190
393.017	1	181
393.188	1	194
393.359	1	194
393.530	1	196
393.700	1	195
393.871	1	189
394.042	1	194
394.213	1	200
394.383	1	188
394.554	1	188
394.725	1	198
394.896	1	215
395.066	1	207
395.237	1	199
395.408	1	213
395.579	1	210
395.749	1	223
395.920	1	210
396.091	1	221
396.262	1	226
396.432	1	207
396.603	1	225
396.774	1	224
396.945	1	214
397.115	1	233
397.286	1	237
397.457	1	222
397.627	1	240
397.798	1	238
397.969	1	238
398.140	1	227
398.310	1	257
398.481	1	235
398.652	1	250
398.823	1	249
398.993	1	257
399.164	1	260
399.335	1	250
399.505	1	267
399.676	1	260
399.847	1	269
400.018	1	265
400.188	1	269
400.359	1	261
400.530	1	270
400.700	1	267
400.871	1	278
401.042	1	273
401.213	1	288
401.383	1	298
401.554	1	293
401.725	1	290
401.895	1	295
402.066	1	296
402.237	1	295
402.408	1	289
402.578	1	290
402.749	1	295
402.920	1	308
403.090	1	300
403.261	1	293
403.432	1	303
403.603	1	304
403.773	1	316
403.944	1	310
404.115	1	316
404.285	1	312
404.456	1	318
404.627	1	343
404.797	1	326
404.968	1	327
405.139	1	320
405.310	1	341
405.480	1	333
405.651	1	341
405.822	1	341
405.992	1	340
406.163	1	331
406.334	1	332
406.504	1	351
406.675	1	342
406.846	1	344
407.016	1	349
407.187	1	340
407.358	1	347
407.528	1	355
407.699	1	368
407.870	1	369
408.041	1	363
408.211	1	376
408.382	1	368
408.553	1	381
408.723	1	376
408.894	1	387
409.065	1	382
409.235	1	383
409.406	1	396
409.577	1	386
409.747	1	372
409.918	1	399
410.089	1	385
410.259	1	391
410.430	1	398
410.601	1	372
410.771	1	379
410.942	1	393
411.113	1	388
411.283	1	400
411.454	1	401
411.625	1	416
411.795	1	424
411.966	1	396
412.137	1	415
412.307	1	397
412.478	1	407
412.649	1	394
412.819	1	393
412.990	1	398
413.161	1	424
413.331	1	408
413.502	1	417
413.672	1	430
413.843	1	425
414.014	1	415
414.184	1	412
414.355	1	418
414.526	1	416
414.696	1	440
414.867	1	431
415.038	1	443
415.208	1	427
415.379	1	441
415.550	1	445
415.720	1	450
415.891	1	457
416.062	1	433
416.232	1	426
416.403	1	468
416.573	1	423
416.744	1	448
416.915	1	443
417.085	1	470
417.256	1	457
417.427	1	452
417.597	1	439
417.768	1	448
417.939	1	452
418.109	1	445
418.280	1	466
418.450	1	470
418.621	1	461
418.792	1	430
418.962	1	455
419.133	1	455
419.304	1	466
419.474	1	460
419.645	1	452
419.815	1	455
419.986	1	441
420.157	1	464
420.327	1	432
420.498	1	453
420.669	1	454
420.839	1	445
421.010	1	438
421.180	1	469
421.351	1	453
421.522	1	451
421.692	1	458
421.863	1	468
422.033	1	460
422.204	1	459
422.375	1	467
422.545	1	464
422.716	1	475
422.886	1	471
423.057	1	452
423.228	1	494
423.398	1	441
423.569	1	460
423.740	1	444
423.910	1	445
424.081	1	468
424.251	1	477
424.422	1	453
424.593	1	466
424.763	1	450
424.934	1	493
425.104	1	481
425.275	1	467
425.445	1	449
425.616	1	467
425.787	1	463
425.957	1	460
426.128	1	468
426.298	1	476
426.469	1	461
426.640	1	460
426.810	1	470
426.981	1	454
427.151	1	474
427.322	1	486
427.493	1	477
427.663	1	470
427.834	1	482
428.004	1	468
428.175	1	451
428.345	1	468
428.516	1	473
428.687	1	458
428.857	1	479
429.028	1	469
429.198	1	446
429.369	1	471
429.540	1	480
429.710	1	462
429.881	1	456
430.051	1	462
430.222	1	459
430.392	1	459
430.563	1	445
430.734	1	460
430.904	1	470
431.075	1	460
431.245	1	467
431.416	1	457
431.586	1	472
431.757	1	467
431.927	1	464
432.098	1	465
432.269	1	463
432.439	1	466
432.610	1	466
432.780	1	456
432.951	1	467
433.121	1	453
433.292	1	443
433.462	1	458
433.633	1	458
433.804	1	455
433.974	1	438
434.145	1	453
434.315	1	477
434.486	1	464
434.656	1	454
434.827	1	427
434.997	1	450
435.168	1	445
435.339	1	445
435.509	1	448
435.680	1	453
435.850	1	436
436.021	1	454
436.191	1	440
436.362	1	446
436.532	1	453
436.703	1	458
436.873	1	428
437.044	1	451
437.214	1	446
437.385	1	437
437.556	1	425
437.726	1	415
437.897	1	436
438.067	1	434
438.238	1	416
438.408	1	445
438.579	1	416
438.749	1	427
438.920	1	443
439.090	1	445
439.261	1	415
439.431	1	453
439.602	1	401
439.772	1	439
439.943	1	425
440.113	1	417
440.284	1	404
440.455	1	418
440.625	1	396
440.796	1	418
440.966	1	413
441.137	1	417
441.307	1	412
441.478	1	417
441.648	1	409
441.819	1	417
441.989	1	408
442.160	1	415
442.330	1	392
442.501	1	406
442.671	1	405
442.842	1	373
443.012	1	384
443.183	1	389
443.353	1	391
443.524	1	390
443.694	1	397
443.865	1	370
444.035	1	381
444.206	1	380
444.376	1	384
444.547	1	379
444.717	1	375
444.888	1	390
445.058	1	399
445.229	1	392
445.399	1	379
445.570	1	399
445.740	1	377
445.911	1	370
446.081	1	367
446.252	1	366
446.422	1	372
446.593	1	368
446.763	1	373
446.934	1	369
447.104	1	375
447.275	1	359
447.445	1	371
447.616	1	358
447.786	1	367
447.957	1	367
448.127	1	337
448.298	1	336
448.468	1	362
448.639	1	355
448.809	1	338
448.979	1	341
449.150	1	348
449.320	1	351
449.491	1	348
449.661	1	364
449.832	1	344
450.002	1	344
450.173	1	326
450.343	1	330
450.514	1	334
450.684	1	335
450.855	1	329
451.025	1	339
451.196	1	340
451.366	1	329
451.537	1	336
451.707	1	334
451.878	1	320
452.048	1	309
452.218	1	333
452.389	1	323
452.559	1	311
452.730	1	322
452.900	1	325
453.071	1	324
453.241	1	316
453.412	1	320
453.582	1	309
453.753	1	295
453.923	1	303
454.093	1	314
454.264	1	312
454.434	1	321
454.605	1	291
454.775	1	296
454.946	1	315
455.116	1	297
455.287	1	295
455.457	1	305
455.628	1	296
455.798	1	294
455.968	1	294
456.139	1	293
456.309	1	270
456.480	1	286
456.650	1	293
456.821	1	261
456.991	1	277
457.161	1	283
457.332	1	259
457.502	1	267
457.673	1	265
457.843	1	262
458.014	1	269
458.184	1	269
458.355	1	258
458.525	1	272
458.695	1	265
458.866	1	260
459.036	1	257
459.207	1	246
459.377	1	248
459.548	1	246
459.718	1	245
459.888	1	234
460.059	1	249
460.229	1	245
460.400	1	228
460.570	1	240
460.740	1	237
460.911	1	238
461.081	1	243
461.252	1	226
461.422	1	247
461.593	1	226
461.763	1	226
461.933	1	231
462.104	1	231
462.274	1	223
462.445	1	234
462.615	1	221
462.785	1	211
462.956	1	218
463.126	1	233
463.297	1	220
463.467	1	229
463.638	1	216
463.808	1	217
463.978	1	212
464.149	1	224
464.319	1	195
464.490	1	217
464.660	1	202
464.830	1	234
465.001	1	205
465.171	1	220
465.342	1	210
465.512	1	188
465.682	1	206
465.853	1	207
466.023	1	199
466.194	1	193
466.364	1	194
466.534	1	192
466.705	1	200
466.875	1	190
467.045	1	191
467.216	1	187
467.386	1	194
467.557	1	188
467.727	1	187
467.897	1	179
468.068	1	178
468.238	1	191
468.409	1	184
468.579	1	185
468.749	1	191
468.920	1	180
469.090	1	165
469.260	1	181
469.431	1	171
469.601	1	185
469.772	1	164
469.942	1	176
470.112	1	153
470.283	1	163
470.453	1	174
470.623	1	155
470.794	1	155
470.964	1	168
471.135	1	152
471.305	1	157
471.475	1	154
471.646	1	154
471.816	1	163
471.986	1	151
472.157	1	169
472.327	1	169
472.497	1	147
472.668	1	165
472.838	1	145
473.009	1	148
473.179	1	151
473.349	1	153
473.520	1	152
473.690	1	148
473.860	1	156
474.031	1	147
474.201	1	139
474.371	1	142
474.542	1	143
474.712	1	150
474.882	1	155
475.053	1	158
475.223	1	131
475.394	1	133
475.564	1	139
475.734	1	128
475.905	1	138
476.075	1	144
476.245	1	128
476.416	1	125
476.586	1	126
476.756	1	134
476.927	1	137
477.097	1	135
477.267	1	130
477.438	1	122
477.608	1	125
477.778	1	120
477.949	1	130
478.119	1	132
478.289	1	127
478.460	1	132
478.630	1	129
478.800	1	127
478.971	1	120
479.141	1	116
479.311	1	129
479.482	1	116
479.652	1	118
479.822	1	122
479.993	1	116
480.163	1	119
480.333	1	111
480.504	1	114
480.674	1	115
480.844	1	118
481.015	1	97
481.185	1	105
481.355	1	107
481.525	1	111
481.696	1	119
481.866	1	105
482.036	1	100
482.207	1	96
482.377	1	105
482.547	1	103
482.718	1	108
482.888	1	106
483.058	1	109
483.229	1	110
483.399	1	113
483.569	1	106
483.740	1	99
483.910	1	98
484.080	1	91
484.250	1	84
484.421	1	100
484.591	1	100
484.761	1	102
484.932	1	93
485.102	1	100
485.272	1	97
485.443	1	88
485.613	1	103
485.783	1	88
485.953	1	96
486.124	1	99
486.294	1	104
486.464	1	93
486.635	1	81
486.805	1	89
486.975	1	98
487.146	1	95
487.316	1	80
487.486	1	85
487.656	1	95
487.827	1	85
487.997	1	94
488.167	1	86
488.338	1	95
488.508	1	87
488.678	1	84
488.848	1	83
489.019	1	85
489.189	1	83
489.359	1	129
489.529	1	277
489.700	1	116
489.870	1	75
490.040	1	84
490.211	1	91
490.381	1	81
490.551	1	67
490.721	1	85
490.892	1	74
491.062	1	86
491.232	1	78
491.402	1	75
491.573	1	69
491.743	1	68
491.913	1	79
492.084	1	72
492.254	1	87
492.424	1	73
492.594	1	81
492.765	1	70
492.935	1	69
493.105	1	74
493.275	1	81
493.446	1	65
493.616	1	83
493.786	1	70
493.956	1	72
494.127	1	65
494.297	1	68
494.467	1	69
494.637	1	69
494.808	1	76
494.978	1	73
495.148	1	68
495.318	1	53
495.489	1	70
495.659	1	61
495.829	1	64
495.999	1	63
496.170	1	64
496.340	1	61
496.510	1	75
496.680	1	54
496.851	1	63
497.021	1	58
497.191	1	46
497.361	1	68
497.532	1	64
497.702	1	66
497.872	1	70
498.042	1	62
498.213	1	56
498.383	1	56
498.553	1	63
498.723	1	61
498.894	1	55
499.064	1	61
499.234	1	59
499.404	1	63
499.574	1	57
499.745	1	59
499.915	1	62
500.085	1	49
500.255	1	50
500.426	1	58
500.596	1	81
500.766	1	61
500.936	1	61
501.106	1	53
501.277	1	60
501.447	1	46
501.617	1	62
501.787	1	45
501.958	1	60
502.128	1	57
502.298	1	46
502.468	1	63
502.638	1	51
502.809	1	60
502.979	1	51
503.149	1	64
503.319	1	51
503.489	1	54
503.660	1	55
503.830	1	55
504.000	1	49
504.170	1	55
504.340	1	53
504.511	1	56
504.681	1	54
504.851	1	61
505.021	1	58
505.192	1	54
505.362	1	51
505.532	1	59
505.702	1	55
505.872	1	52
506.043	1	50
506.213	1	47
506.383	1	53
506.553	1	50
506.723	1	49
506.893	1	45
507.064	1	54
507.234	1	41
507.404	1	44
507.574	1	47
507.744	1	60
507.915	1	46
508.085	1	58
508.255	1	48
508.425	1	42
508.595	1	50
508.766	1	51
508.936	1	39
509.106	1	54
509.276	1	42
509.446	1	52
509.616	1	53
509.787	1	44
509.957	1	41
510.127	1	42
510.297	1	53
510.467	1	49
510.638	1	44
510.808	1	50
510.978	1	46
511.148	1	39
511.318	1	44
511.488	1	46
511.659	1	40
511.829	1	53
511.999	1	46
512.169	1	50
512.339	1	39
512.509	1	53
512.680	1	47
512.850	1	42
513.020	1	43
513.190	1	51
513.360	1	46
513.530	1	35
513.700	1	40
513.871	1	37
514.041	1	33
514.211	1	37
514.381	1	37
514.551	1	46
514.721	1	45
514.892	1	47
515.062	1	35
515.232	1	34
515.402	1	44
515.572	1	32
515.742	1	40
515.912	1	38
516.083	1	37
516.253	1	29
516.423	1	27
516.593	1	41
516.763	1	48
516.933	1	38
517.104	1	38
517.274	1	45
517.444	1	38
517.614	1	42
517.784	1	38
517.954	1	25
518.124	1	40
518.294	1	30
518.465	1	39
518.635	1	48
518.805	1	45
518.975	1	31
519.145	1	39
519.315	1	33
519.485	1	38
519.656	1	32
519.826	1	41
519.996	1	31
520.166	1	35
520.336	1	38
520.506	1	23
520.676	1	35
520.846	1	28
521.017	1	42
521.187	1	44
521.357	1	41
521.527	1	37
521.697	1	39
521.867	1	36
522.037	1	32
522.207	1	46
522.377	1	42
522.548	1	35
522.718	1	41
522.888	1	44
523.058	1	41
523.228	1	35
523.398	1	43
523.568	1	36
523.738	1	37
523.909	1	40
524.079	1	33
524.249	1	39
524.419	1	40
524.589	1	44
524.759	1	41
524.929	1	38
525.099	1	32
525.269	1	35
525.439	1	26
525.610	1	41
525.780	1	35
525.950	1	36
526.120	1	42
526.290	1	35
526.460	1	38
526.630	1	37
526.800	1	37
526.970	1	18
527.140	1	31
527.311	1	42
527.481	1	19
527.651	1	29
527.821	1	35
527.991	1	33
528.161	1	32
528.331	1	43
528.501	1	25
528.671	1	29
528.841	1	34
529.011	1	27
529.181	1	34
529.352	1	31
529.522	1	27
529.692	1	35
529.862	1	39
530.032	1	28
530.202	1	32
530.372	1	23
530.542	1	30
530.712	1	34
530.882	1	29
531.052	1	41
531.222	1	28
531.392	1	41
531.563	1	29
531.733	1	38
531.903	1	43
532.073	1	24
532.243	1	23
532.413	1	37
532.583	1	37
532.753	1	40
532.923	1	21
533.093	1	36
533.263	1	34
533.433	1	36
533.603	1	30
533.773	1	35
533.943	1	35
534.113	1	42
534.284	1	26
534.454	1	28
534.624	1	26
534.794	1	27
534.964	1	41
535.134	1	31
535.304	1	31
535.474	1	22
535.644	1	24
535.814	1	32
535.984	1	42
536.154	1	20
536.324	1	41
536.494	1	30
536.664	1	22
536.834	1	29
537.004	1	31
537.174	1	33
537.344	1	32
537.514	1	28
537.685	1	36
537.855	1	32
538.025	1	22
538.195	1	22
538.365	1	24
538.535	1	18
538.705	1	33
538.875	1	37
539.045	1	21
539.215	1	27
539.385	1	30
539.555	1	35
539.725	1	31
539.895	1	28
540.065	1	31
540.235	1	14
540.405	1	27
540.575	1	29
540.745	1	24
540.915	1	26
541.085	1	27
541.255	1	32
541.425	1	34
541.595	1	31
541.765	1	26
541.935	1	31
542.105	1	22
542.275	1	30
542.445	1	24
542.615	1	34
542.785	1	25
542.955	1	39
543.125	1	31
543.295	1	22
543.465	1	25
543.635	1	33
543.805	1	29
543.975	1	20
544.145	1	29
544.315	1	30
544.485	1	18
544.655	1	29
544.825	1	27
544.995	1	27
545.165	1	33
545.335	1	30
545.505	1	24
545.675	1	30
545.845	1	16
546.015	1	16
546.185	1	30
546.355	1	31
546.525	1	28
546.695	1	24
546.865	1	33
547.035	1	27
547.205	1	45
547.375	1	24
547.545	1	32
547.715	1	22
547.885	1	18
548.055	1	27
548.225	1	33
548.395	1	24
548.565	1	30
548.735	1	31
548.905	1	21
549.075	1	19
549.245	1	18
549.415	1	19
549.585	1	11
549.755	1	29
549.925	1	34
550.095	1	23
550.265	1	23
550.435	1	14
550.605	1	11
550.775	1	27
550.945	1	26
551.115	1	6
551.285	1	38
551.455	1	10
551.625	1	25
551.795	1	22
551.965	1	16
552.135	1	27
552.305	1	25
552.475	1	28
552.645	1	27
552.815	1	20
552.985	1	23
553.155	1	28
553.325	1	17
553.495	1	23
553.665	1	24
553.835	1	20
554.004	1	17
554.174	1	27
554.344	1	21
554.514	1	23
554.684	1	18
554.854	1	9
555.024	1	24
555.194	1	24
555.364	1	26
555.534	1	31
555.704	1	31
555.874	1	23
556.044	1	31
556.214	1	24
556.384	1	33
556.554	1	24
556.724	1	21
556.894	1	23
557.064	1	28
557.234	1	27
557.404	1	34
557.573	1	29
557.743	1	29
557.913	1	22
558.083	1	19
558.253	1	32
558.423	1	9
558.593	1	32
558.763	1	19
558.933	1	22
559.103	1	28
559.273	1	25
559.443	1	17
559.613	1	23
559.783	1	26
559.953	1	22
560.122	1	22
560.292	1	24
560.462	1	18
560.632	1	28
560.802	1	27
560.972	1	13
561.142	1	28
561.312	1	12
561.482	1	21
561.652	1	10
561.822	1	15
561.992	1	31
562.162	1	21
562.331	1	22
562.501	1	32
562.671	1	35
562.841	1	9
563.011	1	28
563.181	1	32
563.351	1	30
563.521	1	26
563.691	1	28
563.861	1	20
564.031	1	14
564.201	1	20
564.370	1	23
564.540	1	24
564.710	1	8
564.880	1	24
565.050	1	16
565.220	1	19
565.390	1	26
565.560	1	15
565.730	1	14
565.900	1	29
566.069	1	-1
566.239	1	22
566.409	1	26
566.579	1	3
566.749	1	1
566.919	1	18
567.089	1	22
567.259	1	23
567.429	1	26
567.599	1	31
567.768	1	25
567.938	1	18
568.108	1	13
568.278	1	18
568.448	1	19
568.618	1	21
568.788	1	20
568.958	1	19
569.128	1	21
569.297	1	37
569.467	1	23
569.637	1	20
569.807	1	31
569.977	1	17
570.147	1	22
570.317	1	14
570.487	1	31
570.656	1	14
570.826	1	10
570.996	1	13
571.166	1	18
571.336	1	4
571.506	1	24
571.676	1	18
571.846	1	15
572.015	1	17
572.185	1	22
572.355	1	10
572.525	1	25
572.695	1	8
572.865	1	20
573.035	1	23
573.205	1	13
573.374	1	16
573.544	1	20
573.714	1	12
573.884	1	23
574.054	1	33
574.224	1	21
574.394	1	23
574.563	1	25
574.733	1	17
574.903	1	13
575.073	1	15
575.243	1	14
575.413	1	7
575.583	1	14
575.752	1	23
575.922	1	21
576.092	1	12
576.262	1	20
576.432	1	15
576.602	1	24
576.772	1	11
576.941	1	10
577.111	1	21
577.281	1	30
577.451	1	24
577.621	1	23
577.791	1	21
577.960	1	18
578.130	1	10
578.300	1	13
578.470	1	10
578.640	1	31
578.810	1	19
578.979	1	5
579.149	1	23
579.319	1	24
579.489	1	14
579.659	1	25
579.829	1	16
579.998	1	18
580.168	1	13
580.338	1	33
580.508	1	30
580.678	1	18
580.848	1	26
581.017	1	29
581.187	1	29
581.357	1	21
581.527	1	19
581.697	1	8
581.867	1	20
582.036	1	26
582.206	1	21
582.376	1	11
582.546	1	19
582.716	1	32
582.885	1	27
583.055	1	12
583.225	1	17
583.395	1	22
583.565	1	16
583.735	1	29
583.904	1	16
584.074	1	17
584.244	1	15
584.414	1	27
584.584	1	27
584.753	1	7
584.923	1	11
585.093	1	27
585.263	1	12
585.433	1	18
585.602	1	30
585.772	1	24
585.942	1	27
586.112	1	27
586.282	1	29
586.451	1	28
586.621	1	26
586.791	1	27
586.961	1	8
587.131	1	35
587.300	1	29
587.470	1	15
587.640	1	18
587.810	1	29
587.980	1	18
588.149	1	42
588.319	1	35
588.489	1	24
588.659	1	31
588.829	1	33
588.998	1	32
589.168	1	25
589.338	1	19
589.508	1	31
589.677	1	27
589.847	1	19
590.017	1	28
590.187	1	16
590.357	1	35
590.526	1	28
590.696	1	29
590.866	1	23
591.036	1	36
591.205	1	35
591.375	1	19
591.545	1	30
591.715	1	8
591.885	1	36
592.054	1	20
592.224	1	23
592.394	1	38
592.564	1	36
592.733	1	32
592.903	1	35
593.073	1	31
593.243	1	31
593.412	1	25
593.582	1	22
593.752	1	32
593.922	1	39
594.091	1	25
594.261	1	18
594.431	1	31
594.601	1	27
594.771	1	26
594.940	1	36
595.110	1	33
595.280	1	38
595.450	1	42
595.619	1	35
595.789	1	34
595.959	1	23
596.129	1	44
596.298	1	34
596.468	1	39
596.638	1	41
596.808	1	45
596.977	1	34
597.147	1	37
597.317	1	41
597.487	1	34
597.656	1	30
597.826	1	34
597.996	1	35
598.166	1	40
598.335	1	39
598.505	1	39
598.675	1	35
598.844	1	34
599.014	1	34
599.184	1	26
599.354	1	51
599.523	1	48
599.693	1	43
599.863	1	30
600.033	1	37
600.202	1	30
600.372	1	35
600.542	1	62
600.712	1	48
600.881	1	56
601.051	1	37
601.221	1	47
601.390	1	40
601.560	1	46
601.730	1	46
601.900	1	45
602.069	1	46
602.239	1	37
602.409	1	50
602.578	1	42
602.748	1	53
602.918	1	53
603.088	1	46
603.257	1	55
603.427	1	65
603.597	1	48
603.767	1	47
603.936	1	51
604.106	1	51
604.276	1	57
604.445	1	42
604.615	1	58
604.785	1	52
604.954	1	50
605.124	1	60
605.294	1	53
605.464	1	64
605.633	1	67
605.803	1	47
605.973	1	57
606.142	1	59
606.312	1	59
606.482	1	50
606.652	1	58
606.821	1	66
606.991	1	56
607.161	1	51
607.330	1	57
607.500	1	67
607.670	1	63
607.839	1	63
608.009	1	61
608.179	1	58
608.348	1	63
608.518	1	70
608.688	1	57
608.858	1	74
609.027	1	73
609.197	1	58
609.367	1	71
609.536	1	70
609.706	1	78
609.876	1	69
610.045	1	79
610.215	1	84
610.385	1	72
610.554	1	74
610.724	1	77
610.894	1	82
611.063	1	77
611.233	1	77
611.403	1	75
611.572	1	79
611.742	1	79
611.912	1	78
612.081	1	72
612.251	1	78
612.421	1	77
612.590	1	76
612.760	1	81
612.930	1	82
613.099	1	86
613.269	1	79
613.439	1	81
613.608	1	80
613.778	1	90
613.948	1	81
614.117	1	71
614.287	1	75
614.457	1	76
614.626	1	94
614.796	1	83
614.966	1	92
615.135	1	90
615.305	1	93
615.475	1	100
615.644	1	90
615.814	1	105
615.984	1	90
616.153	1	98
616.323	1	84
616.493	1	95
616.662	1	96
616.832	1	89
617.002	1	96
617.171	1	102
617.341	1	104
617.511	1	92
617.680	1	92
617.850	1	97
618.019	1	101
618.189	1	109
618.359	1	89
618.528	1	105
618.698	1	111
618.868	1	87
619.037	1	106
619.207	1	108
619.377	1	106
619.546	1	99
619.716	1	107
619.885	1	101
620.055	1	113
620.225	1	115
620.394	1	109
620.564	1	120
620.734	1	117
620.903	1	118
621.073	1	117
621.242	1	119
621.412	1	105
621.582	1	114
621.751	1	97
621.921	1	112
622.091	1	129
622.260	1	113
622.430	1	115
622.599	1	115
622.769	1	118
622.939	1	110
623.108	1	119
623.278	1	131
623.448	1	130
623.617	1	116
623.787	1	126
623.956	1	123
624.126	1	130
624.296	1	110
624.465	1	150
624.635	1	113
624.804	1	128
624.974	1	123
625.144	1	135
625.313	1	125
625.483	1	131
625.652	1	138
625.822	1	135
625.992	1	137
626.161	1	131
626.331	1	140
626.501	1	127
626.670	1	128
626.840	1	146
627.009	1	142
627.179	1	139
627.348	1	129
627.518	1	135
627.688	1	137
627.857	1	137
628.027	1	139
628.196	1	140
628.366	1	144
628.536	1	149
628.705	1	140
628.875	1	150
629.044	1	136
629.214	1	140
629.384	1	138
629.553	1	143
629.723	1	154
629.892	1	142
630.062	1	150
630.232	1	154
630.401	1	154
630.571	1	152
630.740	1	160
630.910	1	150
631.079	1	168
631.249	1	150
631.419	1	148
631.588	1	150
631.758	1	147
631.927	1	156
632.097	1	167
632.266	1	146
632.436	1	167
632.606	1	159
632.775	1	159
632.945	1	154
633.114	1	152
633.284	1	152
633.453	1	164
633.623	1	168
633.793	1	163
633.962	1	160
634.132	1	136
634.301	1	164
634.471	1	172
634.640	1	159
634.810	1	159
634.979	1	152
635.149	1	176
635.319	1	168
635.488	1	167
635.658	1	182
635.827	1	160
635.997	1	179
636.166	1	169
636.336	1	177
636.505	1	169
636.675	1	177
636.845	1	165
637.014	1	185
637.184	1	171
637.353	1	178
637.523	1	181
637.692	1	174
637.862	1	181
638.031	1	172
638.201	1	181
638.370	1	190
638.540	1	183
638.710	1	182
638.879	1	181
639.049	1	176
639.218	1	187
639.388	1	183
639.557	1	172
639.727	1	187
639.896	1	161
640.066	1	172
640.235	1	182
640.405	1	200
640.574	1	188
640.744	1	170
640.914	1	195
641.083	1	195
641.253	1	195
641.422	1	190
641.592	1	156
641.761	1	177
641.931	1	185
642.100	1	185
642.270	1	174
642.439	1	178
642.609	1	198
642.778	1	177
642.948	1	159
643.117	1	179
643.287	1	191
643.456	1	191
643.626	1	180
643.795	1	187
643.965	1	194
644.134	1	202
644.304	1	186
644.473	1	172
644.643	1	168
644.812	1	174
644.982	1	172
645.151	1	184
645.321	1	198
645.490	1	188
645.660	1	195
645.829	1	178
645.999	1	189
646.168	1	184
646.338	1	195
646.507	1	178
646.677	1	196
646.846	1	188
647.016	1	176
647.185	1	187
647.355	1	180
647.524	1	184
647.694	1	197
647.863	1	168
648.033	1	176
648.202	1	189
648.372	1	184
648.541	1	181
648.711	1	181
648.880	1	198
649.050	1	187
649.219	1	202
649.389	1	184
649.558	1	212
649.728	1	183
649.897	1	178
650.067	1	156
650.236	1	182
650.406	1	178
650.575	1	188
650.745	1	182
650.914	1	181
651.084	1	185
651.253	1	202
651.423	1	193
651.592	1	199
651.762	1	204
651.931	1	197
652.101	1	192
652.270	1	168
652.440	1	189
652.609	1	191
652.778	1	190
652.948	1	188
653.117	1	191
653.287	1	175
653.456	1	169
653.626	1	189
653.795	1	194
653.965	1	198
654.134	1	185
654.304	1	176
654.473	1	170
654.643	1	188
654.812	1	198
654.982	1	186
655.151	1	193
655.320	1	202
655.490	1	180
655.659	1	187
655.829	1	178
655.998	1	178
656.168	1	185
656.337	1	156
656.507	1	179
656.676	1	190
656.846	1	181
657.015	1	183
657.184	1	181
657.354	1	185
657.523	1	176
657.693	1	179
657.862	1	183
658.032	1	188
658.201	1	169
658.371	1	181
658.540	1	166
658.709	1	184
658.879	1	178
659.048	1	178
659.218	1	185
659.387	1	181
659.557	1	173
659.726	1	174
659.895	1	176
660.065	1	181
660.234	1	169
660.404	1	174
660.573	1	180
660.743	1	177
660.912	1	159
661.081	1	165
661.251	1	181
661.420	1	168
661.590	1	164
661.759	1	161
661.929	1	169
662.098	1	164
662.267	1	163
662.437	1	163
662.606	1	182
662.776	1	174
662.945	1	160
663.115	1	181
663.284	1	162
663.453	1	169
663.623	1	159
663.792	1	167
663.962	1	160
664.131	1	166
664.300	1	162
664.470	1	142
664.639	1	169
664.809	1	158
664.978	1	150
665.148	1	174
665.317	1	166
665.486	1	147
665.656	1	169
665.825	1	153
665.995	1	148
666.164	1	159
666.333	1	148
666.503	1	161
666.672	1	148
666.842	1	155
667.011	1	166
667.180	1	158
667.350	1	157
667.519	1	150
667.689	1	150
667.858	1	141
668.027	1	140
668.197	1	145
668.366	1	157
668.536	1	152
668.705	1	141
668.874	1	145
669.044	1	139
669.213	1	151
669.382	1	147
669.552	1	140
669.721	1	147
669.891	1	140
670.060	1	134
670.229	1	147
670.399	1	147
670.568	1	128
670.738	1	147
670.907	1	146
671.076	1	136
671.246	1	139
671.415	1	133
671.584	1	129
671.754	1	140
671.923	1	149
672.093	1	144
672.262	1	147
672.431	1	120
672.601	1	138
672.770	1	135
672.939	1	143
673.109	1	136
673.278	1	131
673.448	1	120
673.617	1	132
673.786	1	129
