325.333	1	54
325.504	1	58
325.675	1	46
325.846	1	56
326.017	1	54
326.188	1	60
326.359	1	67
326.531	1	48
326.702	1	53
326.873	1	52
327.044	1	62
327.215	1	56
327.386	1	59
327.557	1	73
327.728	1	62
327.899	1	61
328.070	1	49
328.241	1	50
328.412	1	54
328.583	1	61
328.754	1	67
328.926	1	70
329.097	1	65
329.268	1	81
329.439	1	59
329.610	1	56
329.781	1	57
329.952	1	53
330.123	1	66
330.294	1	63
330.465	1	61
330.636	1	61
330.807	1	69
330.978	1	68
331.149	1	68
331.320	1	64
331.492	1	66
331.663	1	66
331.834	1	78
332.005	1	75
332.176	1	73
332.347	1	72
332.518	1	75
332.689	1	69
332.860	1	70
333.031	1	76
333.202	1	75
333.373	1	55
333.544	1	83
333.715	1	69
333.886	1	64
334.057	1	78
334.228	1	67
334.399	1	77
334.570	1	72
334.741	1	74
334.912	1	66
335.084	1	76
335.255	1	81
335.426	1	68
335.597	1	74
335.768	1	74
335.939	1	65
336.110	1	62
336.281	1	79
336.452	1	78
336.623	1	85
336.794	1	65
336.965	1	64
337.136	1	75
337.307	1	77
337.478	1	70
337.649	1	79
337.820	1	77
337.991	1	65
338.162	1	65
338.333	1	69
338.504	1	78
338.675	1	73
338.846	1	87
339.017	1	84
339.188	1	74
339.359	1	78
339.530	1	81
339.701	1	72
339.872	1	79
340.043	1	76
340.214	1	73
340.385	1	82
340.556	1	71
340.727	1	93
340.898	1	95
341.069	1	78
341.240	1	63
341.411	1	82
341.582	1	80
341.753	1	80
341.924	1	78
342.095	1	78
342.266	1	69
342.437	1	85
342.608	1	71
342.779	1	92
342.950	1	66
343.121	1	69
343.292	1	84
343.463	1	82
343.634	1	78
343.805	1	56
343.976	1	75
344.147	1	76
344.318	1	78
344.489	1	69
344.660	1	69
344.831	1	74
345.002	1	71
345.173	1	91
345.344	1	82
345.515	1	75
345.686	1	80
345.857	1	77
346.028	1	69
346.199	1	76
346.370	1	65
346.541	1	66
346.712	1	75
346.883	1	75
347.054	1	60
347.225	1	70
347.396	1	66
347.567	1	92
347.738	1	68
347.909	1	68
348.080	1	81
348.251	1	64
348.422	1	70
348.593	1	72
348.764	1	75
348.935	1	66
349.106	1	58
349.277	1	64
349.448	1	71
349.619	1	60
349.790	1	79
349.961	1	69
350.132	1	74
350.303	1	65
350.474	1	56
350.645	1	77
350.816	1	64
350.987	1	66
351.157	1	60
351.328	1	52
351.499	1	66
351.670	1	67
351.841	1	77
352.012	1	76
352.183	1	63
352.354	1	61
352.525	1	62
352.696	1	66
352.867	1	51
353.038	1	81
353.209	1	58
353.380	1	52
353.551	1	56
353.722	1	57
353.893	1	66
354.064	1	61
354.235	1	67
354.406	1	68
354.576	1	58
354.747	1	55
354.918	1	57
355.089	1	59
355.260	1	66
355.431	1	59
355.602	1	54
355.773	1	50
355.944	1	47
356.115	1	50
356.286	1	51
356.457	1	58
356.628	1	43
356.799	1	60
356.970	1	47
357.141	1	55
357.311	1	64
357.482	1	59
357.653	1	48
357.824	1	40
357.995	1	75
358.166	1	49
358.337	1	53
358.508	1	47
358.679	1	46
358.850	1	64
359.021	1	53
359.192	1	48
359.363	1	61
359.533	1	55
359.704	1	46
359.875	1	50
360.046	1	48
360.217	1	48
360.388	1	43
360.559	1	49
360.730	1	50
360.901	1	56
361.072	1	52
361.243	1	57
361.414	1	40
361.584	1	47
361.755	1	60
361.926	1	49
362.097	1	49
362.268	1	47
362.439	1	52
362.610	1	45
362.781	1	45
362.952	1	38
363.123	1	43
363.293	1	46
363.464	1	39
363.635	1	42
363.806	1	39
363.977	1	44
364.148	1	34
364.319	1	39
364.490	1	40
364.661	1	41
364.832	1	39
365.002	1	36
365.173	1	33
365.344	1	46
365.515	1	38
365.686	1	39
365.857	1	40
366.028	1	36
366.199	1	39
366.370	1	36
366.540	1	53
366.711	1	36
366.882	1	35
367.053	1	48
367.224	1	37
367.395	1	44
367.566	1	35
367.737	1	36
367.908	1	36
368.078	1	30
368.249	1	31
368.420	1	37
368.591	1	37
368.762	1	33
368.933	1	46
369.104	1	46
369.274	1	36
369.445	1	35
369.616	1	33
369.787	1	30
369.958	1	20
370.129	1	33
370.300	1	39
370.471	1	45
370.641	1	25
370.812	1	34
370.983	1	37
371.154	1	39
371.325	1	43
371.496	1	38
371.667	1	38
371.837	1	39
372.008	1	38
372.179	1	47
372.350	1	36
372.521	1	53
372.692	1	37
372.863	1	40
373.033	1	34
373.204	1	38
373.375	1	33
373.546	1	39
373.717	1	26
373.888	1	29
374.059	1	31
374.229	1	43
374.400	1	44
374.571	1	30
374.742	1	27
374.913	1	40
375.084	1	38
375.254	1	40
375.425	1	49
375.596	1	42
375.767	1	40
375.938	1	24
376.109	1	28
376.279	1	34
376.450	1	38
376.621	1	35
376.792	1	43
376.963	1	48
377.134	1	31
377.304	1	49
377.475	1	35
377.646	1	42
377.817	1	42
377.988	1	39
378.159	1	31
378.329	1	53
378.500	1	39
378.671	1	42
378.842	1	41
379.013	1	50
379.184	1	40
379.354	1	42
379.525	1	29
379.696	1	43
379.867	1	44
380.038	1	54
380.209	1	34
380.379	1	35
380.550	1	52
380.721	1	48
380.892	1	39
381.063	1	50
381.233	1	50
381.404	1	52
381.575	1	43
381.746	1	39
381.917	1	63
382.087	1	50
382.258	1	48
382.429	1	58
382.600	1	51
382.771	1	52
382.941	1	56
383.112	1	48
383.283	1	43
383.454	1	47
383.625	1	49
383.795	1	52
383.966	1	59
384.137	1	57
384.308	1	61
384.479	1	62
384.649	1	58
384.820	1	69
384.991	1	59
385.162	1	59
385.333	1	58
385.503	1	49
385.674	1	73
385.845	1	67
386.016	1	62
386.187	1	64
386.357	1	67
386.528	1	64
386.699	1	64
386.870	1	73
387.041	1	58
387.211	1	86
387.382	1	60
387.553	1	71
387.724	1	64
387.894	1	71
388.065	1	62
388.236	1	80
388.407	1	90
388.578	1	75
388.748	1	84
388.919	1	74
389.090	1	76
389.261	1	80
389.431	1	72
389.602	1	78
389.773	1	77
389.944	1	73
390.114	1	86
390.285	1	80
390.456	1	85
390.627	1	88
390.798	1	71
390.968	1	83
391.139	1	92
391.310	1	85
391.481	1	88
391.651	1	95
391.822	1	81
391.993	1	84
392.164	1	95
392.334	1	87
392.505	1	83
392.676	1	96
392.847	1	98
393.017	1	103
393.188	1	91
393.359	1	97
393.530	1	100
393.700	1	106
393.871	1	90
394.042	1	108
394.213	1	117
394.383	1	99
394.554	1	99
394.725	1	99
394.896	1	101
395.066	1	89
395.237	1	94
395.408	1	96
395.579	1	111
395.749	1	104
395.920	1	111
396.091	1	114
396.262	1	111
396.432	1	106
396.603	1	124
396.774	1	98
396.945	1	108
397.115	1	113
397.286	1	118
397.457	1	112
397.627	1	103
397.798	1	121
397.969	1	118
398.140	1	124
398.310	1	113
398.481	1	109
398.652	1	111
398.823	1	116
398.993	1	136
399.164	1	133
399.335	1	127
399.505	1	135
399.676	1	130
399.847	1	119
400.018	1	136
400.188	1	134
400.359	1	132
400.530	1	135
400.700	1	145
400.871	1	141
401.042	1	142
401.213	1	152
401.383	1	152
401.554	1	143
401.725	1	139
401.895	1	140
402.066	1	154
402.237	1	152
402.408	1	150
402.578	1	143
402.749	1	154
402.920	1	157
403.090	1	140
403.261	1	149
403.432	1	159
403.603	1	158
403.773	1	151
403.944	1	161
404.115	1	173
404.285	1	162
404.456	1	156
404.627	1	172
404.797	1	166
404.968	1	174
405.139	1	172
405.310	1	173
405.480	1	180
405.651	1	179
405.822	1	180
405.992	1	161
406.163	1	160
406.334	1	164
406.504	1	183
406.675	1	188
406.846	1	184
407.016	1	176
407.187	1	176
407.358	1	187
407.528	1	178
407.699	1	189
407.870	1	183
408.041	1	179
408.211	1	167
408.382	1	199
408.553	1	187
408.723	1	192
408.894	1	182
409.065	1	183
409.235	1	197
409.406	1	194
409.577	1	187
409.747	1	188
409.918	1	199
410.089	1	203
410.259	1	198
410.430	1	204
410.601	1	203
410.771	1	205
410.942	1	203
411.113	1	200
411.283	1	210
411.454	1	198
411.625	1	194
411.795	1	192
411.966	1	212
412.137	1	211
412.307	1	211
412.478	1	216
412.649	1	210
412.819	1	203
412.990	1	212
413.161	1	205
413.331	1	209
413.502	1	212
413.672	1	207
413.843	1	225
414.014	1	213
414.184	1	222
414.355	1	207
414.526	1	220
414.696	1	216
414.867	1	205
415.038	1	217
415.208	1	229
415.379	1	230
415.550	1	225
415.720	1	218
415.891	1	220
416.062	1	224
416.232	1	229
416.403	1	225
416.573	1	215
416.744	1	219
416.915	1	236
417.085	1	228
417.256	1	226
417.427	1	221
417.597	1	218
417.768	1	223
417.939	1	224
418.109	1	238
418.280	1	227
418.450	1	214
418.621	1	220
418.792	1	221
418.962	1	226
419.133	1	232
419.304	1	227
419.474	1	232
419.645	1	233
419.815	1	225
419.986	1	221
420.157	1	234
420.327	1	234
420.498	1	221
420.669	1	230
420.839	1	216
421.010	1	219
421.180	1	227
421.351	1	238
421.522	1	220
421.692	1	221
421.863	1	230
422.033	1	223
422.204	1	214
422.375	1	226
422.545	1	230
422.716	1	239
422.886	1	239
423.057	1	224
423.228	1	244
423.398	1	225
423.569	1	237
423.740	1	215
423.910	1	226
424.081	1	223
424.251	1	238
424.422	1	227
424.593	1	227
424.763	1	218
424.934	1	241
425.104	1	234
425.275	1	233
425.445	1	228
425.616	1	228
425.787	1	236
425.957	1	242
426.128	1	240
426.298	1	225
426.469	1	223
426.640	1	230
426.810	1	230
426.981	1	236
427.151	1	224
427.322	1	238
427.493	1	225
427.663	1	229
427.834	1	227
428.004	1	222
428.175	1	231
428.345	1	228
428.516	1	233
428.687	1	237
428.857	1	232
429.028	1	235
429.198	1	235
429.369	1	233
429.540	1	224
429.710	1	221
429.881	1	226
430.051	1	242
430.222	1	217
430.392	1	229
430.563	1	222
430.734	1	231
430.904	1	242
431.075	1	233
431.245	1	235
431.416	1	242
431.586	1	222
431.757	1	232
431.927	1	232
432.098	1	244
432.269	1	221
432.439	1	224
432.610	1	223
432.780	1	232
432.951	1	225
433.121	1	227
433.292	1	219
433.462	1	219
433.633	1	216
433.804	1	223
433.974	1	229
434.145	1	228
434.315	1	233
434.486	1	241
434.656	1	227
434.827	1	218
434.997	1	224
435.168	1	228
435.339	1	228
435.509	1	242
435.680	1	222
435.850	1	227
436.021	1	233
436.191	1	234
436.362	1	223
436.532	1	237
436.703	1	218
436.873	1	222
437.044	1	214
437.214	1	210
437.385	1	217
437.556	1	215
437.726	1	219
437.897	1	205
438.067	1	209
438.238	1	209
438.408	1	232
438.579	1	223
438.749	1	221
438.920	1	218
439.090	1	221
439.261	1	223
439.431	1	231
439.602	1	230
439.772	1	229
439.943	1	190
440.113	1	214
440.284	1	200
440.455	1	211
440.625	1	190
440.796	1	202
440.966	1	217
441.137	1	219
441.307	1	210
441.478	1	205
441.648	1	204
441.819	1	200
441.989	1	202
442.160	1	196
442.330	1	193
442.501	1	201
442.671	1	218
442.842	1	203
443.012	1	192
443.183	1	198
443.353	1	192
443.524	1	195
443.694	1	195
443.865	1	198
444.035	1	195
444.206	1	196
444.376	1	198
444.547	1	191
444.717	1	206
444.888	1	190
445.058	1	198
445.229	1	195
445.399	1	204
445.570	1	183
445.740	1	185
445.911	1	190
446.081	1	192
446.252	1	198
446.422	1	199
446.593	1	192
446.763	1	185
446.934	1	189
447.104	1	195
447.275	1	184
447.445	1	187
447.616	1	187
447.786	1	183
447.957	1	192
448.127	1	188
448.298	1	182
448.468	1	192
448.639	1	174
448.809	1	172
448.979	1	183
449.150	1	178
449.320	1	183
449.491	1	178
449.661	1	189
449.832	1	178
450.002	1	185
450.173	1	179
450.343	1	175
450.514	1	174
450.684	1	172
450.855	1	181
451.025	1	181
451.196	1	152
451.366	1	172
451.537	1	180
451.707	1	173
451.878	1	167
452.048	1	170
452.218	1	176
452.389	1	150
452.559	1	160
452.730	1	176
452.900	1	168
453.071	1	155
453.241	1	163
453.412	1	168
453.582	1	148
453.753	1	172
453.923	1	171
454.093	1	167
454.264	1	148
454.434	1	154
454.605	1	144
454.775	1	168
454.946	1	172
455.116	1	149
455.287	1	152
455.457	1	160
455.628	1	154
455.798	1	160
455.968	1	164
456.139	1	155
456.309	1	137
456.480	1	153
456.650	1	148
456.821	1	154
456.991	1	146
457.161	1	144
457.332	1	162
457.502	1	147
457.673	1	145
457.843	1	154
458.014	1	143
458.184	1	148
458.355	1	150
458.525	1	137
458.695	1	135
458.866	1	139
459.036	1	140
459.207	1	129
459.377	1	145
459.548	1	138
459.718	1	123
459.888	1	129
460.059	1	131
460.229	1	134
460.400	1	114
460.570	1	131
460.740	1	142
460.911	1	126
461.081	1	148
461.252	1	130
461.422	1	132
461.593	1	132
461.763	1	133
461.933	1	133
462.104	1	134
462.274	1	134
462.445	1	129
462.615	1	123
462.785	1	129
462.956	1	122
463.126	1	133
463.297	1	118
463.467	1	135
463.638	1	124
463.808	1	113
463.978	1	131
464.149	1	134
464.319	1	111
464.490	1	119
464.660	1	110
464.830	1	144
465.001	1	113
465.171	1	125
465.342	1	113
465.512	1	104
465.682	1	119
465.853	1	115
466.023	1	119
466.194	1	109
466.364	1	104
466.534	1	113
466.705	1	123
466.875	1	108
467.045	1	91
467.216	1	114
467.386	1	110
467.557	1	100
467.727	1	112
467.897	1	105
468.068	1	118
468.238	1	91
468.409	1	106
468.579	1	113
468.749	1	115
468.920	1	98
469.090	1	92
469.260	1	112
469.431	1	96
469.601	1	97
469.772	1	103
469.942	1	103
470.112	1	97
470.283	1	100
470.453	1	100
470.623	1	92
470.794	1	101
470.964	1	106
471.135	1	104
471.305	1	101
471.475	1	105
471.646	1	96
471.816	1	103
471.986	1	96
472.157	1	96
472.327	1	109
472.497	1	92
472.668	1	99
472.838	1	89
473.009	1	91
473.179	1	94
473.349	1	86
473.520	1	86
473.690	1	99
473.860	1	91
474.031	1	82
474.201	1	93
474.371	1	113
474.542	1	89
474.712	1	86
474.882	1	93
475.053	1	89
475.223	1	86
475.394	1	89
475.564	1	85
475.734	1	98
475.905	1	88
476.075	1	93
476.245	1	87
476.416	1	83
476.586	1	79
476.756	1	99
476.927	1	90
477.097	1	93
477.267	1	83
477.438	1	90
477.608	1	83
477.778	1	80
477.949	1	97
478.119	1	87
478.289	1	86
478.460	1	85
478.630	1	81
478.800	1	84
478.971	1	81
479.141	1	94
479.311	1	87
479.482	1	84
479.652	1	77
479.822	1	85
479.993	1	78
480.163	1	84
480.333	1	82
480.504	1	82
480.674	1	73
480.844	1	73
481.015	1	78
481.185	1	73
481.355	1	65
481.525	1	75
481.696	1	75
481.866	1	84
482.036	1	74
482.207	1	66
482.377	1	83
482.547	1	79
482.718	1	87
482.888	1	78
483.058	1	68
483.229	1	82
483.399	1	73
483.569	1	67
483.740	1	59
483.910	1	78
484.080	1	67
484.250	1	61
484.421	1	64
484.591	1	70
484.761	1	84
484.932	1	78
485.102	1	76
485.272	1	71
485.443	1	61
485.613	1	83
485.783	1	82
485.953	1	71
486.124	1	75
486.294	1	65
486.464	1	75
486.635	1	63
486.805	1	63
486.975	1	64
487.146	1	69
487.316	1	75
487.486	1	64
487.656	1	74
487.827	1	53
487.997	1	67
488.167	1	60
488.338	1	68
488.508	1	68
488.678	1	71
488.848	1	69
489.019	1	53
489.189	1	62
489.359	1	53
489.529	1	60
489.700	1	62
489.870	1	68
490.040	1	66
490.211	1	68
490.381	1	69
490.551	1	61
490.721	1	56
490.892	1	68
491.062	1	70
491.232	1	69
491.402	1	58
491.573	1	58
491.743	1	51
491.913	1	59
492.084	1	65
492.254	1	65
492.424	1	60
492.594	1	58
492.765	1	52
492.935	1	53
493.105	1	51
493.275	1	69
493.446	1	48
493.616	1	55
493.786	1	57
493.956	1	64
494.127	1	65
494.297	1	55
494.467	1	72
494.637	1	47
494.808	1	56
494.978	1	47
495.148	1	51
495.318	1	52
495.489	1	54
495.659	1	59
495.829	1	45
495.999	1	65
496.170	1	52
496.340	1	52
496.510	1	62
496.680	1	58
496.851	1	54
497.021	1	46
497.191	1	57
497.361	1	52
497.532	1	63
497.702	1	60
497.872	1	58
498.042	1	54
498.213	1	42
498.383	1	48
498.553	1	58
498.723	1	53
498.894	1	47
499.064	1	58
499.234	1	46
499.404	1	47
499.574	1	60
499.745	1	54
499.915	1	49
500.085	1	42
500.255	1	41
500.426	1	50
500.596	1	53
500.766	1	52
500.936	1	62
501.106	1	39
501.277	1	56
501.447	1	45
501.617	1	54
501.787	1	56
501.958	1	56
502.128	1	43
502.298	1	52
502.468	1	45
502.638	1	43
502.809	1	51
502.979	1	44
503.149	1	49
503.319	1	49
503.489	1	50
503.660	1	40
503.830	1	42
504.000	1	39
504.170	1	53
504.340	1	58
504.511	1	50
504.681	1	44
504.851	1	51
505.021	1	41
505.192	1	53
505.362	1	54
505.532	1	52
505.702	1	54
505.872	1	45
506.043	1	39
506.213	1	47
506.383	1	51
506.553	1	47
506.723	1	42
506.893	1	33
507.064	1	50
507.234	1	42
507.404	1	39
507.574	1	45
507.744	1	45
507.915	1	52
508.085	1	48
508.255	1	53
508.425	1	43
508.595	1	44
508.766	1	45
508.936	1	48
509.106	1	41
509.276	1	35
509.446	1	38
509.616	1	38
509.787	1	48
509.957	1	31
510.127	1	42
510.297	1	33
510.467	1	46
510.638	1	37
510.808	1	50
510.978	1	32
511.148	1	48
511.318	1	44
511.488	1	54
511.659	1	45
511.829	1	50
511.999	1	42
512.169	1	47
512.339	1	35
512.509	1	53
512.680	1	41
512.850	1	43
513.020	1	37
513.190	1	48
513.360	1	39
513.530	1	39
513.700	1	47
513.871	1	45
514.041	1	33
514.211	1	39
514.381	1	39
514.551	1	28
514.721	1	43
514.892	1	51
515.062	1	35
515.232	1	31
515.402	1	35
515.572	1	40
515.742	1	32
515.912	1	40
516.083	1	43
516.253	1	37
516.423	1	34
516.593	1	40
516.763	1	47
516.933	1	38
517.104	1	36
517.274	1	37
517.444	1	33
517.614	1	30
517.784	1	32
517.954	1	29
518.124	1	39
518.294	1	30
518.465	1	39
518.635	1	32
518.805	1	51
518.975	1	33
519.145	1	45
519.315	1	32
519.485	1	31
519.656	1	37
519.826	1	35
519.996	1	33
520.166	1	47
520.336	1	36
520.506	1	36
520.676	1	38
520.846	1	35
521.017	1	40
521.187	1	34
521.357	1	35
521.527	1	25
521.697	1	35
521.867	1	32
522.037	1	28
522.207	1	38
522.377	1	30
522.548	1	35
522.718	1	37
522.888	1	37
523.058	1	42
523.228	1	34
523.398	1	31
523.568	1	25
523.738	1	37
523.909	1	38
524.079	1	42
524.249	1	40
524.419	1	28
524.589	1	29
524.759	1	36
524.929	1	41
525.099	1	38
525.269	1	23
525.439	1	31
525.610	1	45
525.780	1	30
525.950	1	33
526.120	1	38
526.290	1	33
526.460	1	35
526.630	1	35
526.800	1	39
526.970	1	30
527.140	1	19
527.311	1	33
527.481	1	20
527.651	1	33
527.821	1	29
527.991	1	36
528.161	1	30
528.331	1	28
528.501	1	26
528.671	1	27
528.841	1	36
529.011	1	34
529.181	1	36
529.352	1	33
529.522	1	33
529.692	1	43
529.862	1	34
530.032	1	25
530.202	1	29
530.372	1	37
530.542	1	33
530.712	1	36
530.882	1	31
531.052	1	34
531.222	1	42
531.392	1	34
531.563	1	33
531.733	1	28
531.903	1	33
532.073	1	23
532.243	1	31
532.413	1	27
532.583	1	42
532.753	1	38
532.923	1	33
533.093	1	32
533.263	1	34
533.433	1	31
533.603	1	27
533.773	1	26
533.943	1	39
534.113	1	36
534.284	1	29
534.454	1	29
534.624	1	37
534.794	1	34
534.964	1	31
535.134	1	34
535.304	1	23
535.474	1	29
535.644	1	16
535.814	1	33
535.984	1	32
536.154	1	34
536.324	1	37
536.494	1	29
536.664	1	31
536.834	1	29
537.004	1	35
537.174	1	24
537.344	1	37
537.514	1	26
537.685	1	26
537.855	1	36
538.025	1	36
538.195	1	31
538.365	1	17
538.535	1	25
538.705	1	27
538.875	1	27
539.045	1	23
539.215	1	44
539.385	1	37
539.555	1	33
539.725	1	17
539.895	1	25
540.065	1	28
540.235	1	9
540.405	1	31
540.575	1	38
540.745	1	20
540.915	1	23
541.085	1	29
541.255	1	21
541.425	1	42
541.595	1	27
541.765	1	30
541.935	1	38
542.105	1	28
542.275	1	28
542.445	1	30
542.615	1	27
542.785	1	27
542.955	1	29
543.125	1	21
543.295	1	23
543.465	1	26
543.635	1	24
543.805	1	20
543.975	1	22
544.145	1	34
544.315	1	24
544.485	1	22
544.655	1	25
544.825	1	28
544.995	1	36
545.165	1	32
545.335	1	32
545.505	1	35
545.675	1	30
545.845	1	18
546.015	1	29
546.185	1	29
546.355	1	46
546.525	1	40
546.695	1	25
546.865	1	26
547.035	1	30
547.205	1	29
547.375	1	24
547.545	1	28
547.715	1	20
547.885	1	17
548.055	1	18
548.225	1	40
548.395	1	34
548.565	1	22
548.735	1	23
548.905	1	32
549.075	1	21
549.245	1	11
549.415	1	32
549.585	1	31
549.755	1	24
549.925	1	36
550.095	1	27
550.265	1	34
550.435	1	21
550.605	1	21
550.775	1	28
550.945	1	33
551.115	1	29
551.285	1	30
551.455	1	23
551.625	1	18
551.795	1	25
551.965	1	18
552.135	1	21
552.305	1	26
552.475	1	26
552.645	1	39
552.815	1	27
552.985	1	29
553.155	1	32
553.325	1	26
553.495	1	28
553.665	1	28
553.835	1	33
554.004	1	32
554.174	1	25
554.344	1	23
554.514	1	28
554.684	1	19
554.854	1	27
555.024	1	31
555.194	1	28
555.364	1	24
555.534	1	36
555.704	1	37
555.874	1	29
556.044	1	22
556.214	1	33
556.384	1	27
556.554	1	27
556.724	1	29
556.894	1	18
557.064	1	36
557.234	1	26
557.404	1	13
557.573	1	27
557.743	1	23
557.913	1	34
558.083	1	19
558.253	1	23
558.423	1	30
558.593	1	34
558.763	1	26
558.933	1	17
559.103	1	45
559.273	1	38
559.443	1	12
559.613	1	28
559.783	1	26
559.953	1	19
560.122	1	26
560.292	1	22
560.462	1	29
560.632	1	24
560.802	1	30
560.972	1	21
561.142	1	27
561.312	1	22
561.482	1	12
561.652	1	32
561.822	1	21
561.992	1	25
562.162	1	20
562.331	1	45
562.501	1	28
562.671	1	26
562.841	1	19
563.011	1	38
563.181	1	26
563.351	1	35
563.521	1	17
563.691	1	32
563.861	1	32
564.031	1	30
564.201	1	19
564.370	1	23
564.540	1	31
564.710	1	19
564.880	1	29
565.050	1	23
565.220	1	30
565.390	1	28
565.560	1	34
565.730	1	26
565.900	1	24
566.069	1	22
566.239	1	39
566.409	1	31
566.579	1	21
566.749	1	20
566.919	1	25
567.089	1	26
567.259	1	15
567.429	1	39
567.599	1	39
567.768	1	29
567.938	1	20
568.108	1	24
568.278	1	34
568.448	1	16
568.618	1	38
568.788	1	25
568.958	1	20
569.128	1	23
569.297	1	38
569.467	1	23
569.637	1	12
569.807	1	40
569.977	1	9
570.147	1	19
570.317	1	15
570.487	1	16
570.656	1	17
570.826	1	14
570.996	1	17
571.166	1	20
571.336	1	17
571.506	1	21
571.676	1	17
571.846	1	23
572.015	1	14
572.185	1	33
572.355	1	22
572.525	1	22
572.695	1	26
572.865	1	21
573.035	1	26
573.205	1	34
573.374	1	25
573.544	1	28
573.714	1	30
573.884	1	32
574.054	1	37
574.224	1	16
574.394	1	24
574.563	1	22
574.733	1	16
574.903	1	27
575.073	1	28
575.243	1	22
575.413	1	9
575.583	1	30
575.752	1	29
575.922	1	31
576.092	1	31
576.262	1	23
576.432	1	22
576.602	1	25
576.772	1	22
576.941	1	27
577.111	1	23
577.281	1	35
577.451	1	24
577.621	1	39
577.791	1	23
577.960	1	38
578.130	1	27
578.300	1	30
578.470	1	16
578.640	1	34
578.810	1	31
578.979	1	18
579.149	1	29
579.319	1	24
579.489	1	28
579.659	1	21
579.829	1	23
579.998	1	19
580.168	1	23
580.338	1	27
580.508	1	45
580.678	1	25
580.848	1	34
581.017	1	26
581.187	1	18
581.357	1	23
581.527	1	17
581.697	1	4
581.867	1	21
582.036	1	20
582.206	1	21
582.376	1	16
582.546	1	30
582.716	1	31
582.885	1	27
583.055	1	32
583.225	1	19
583.395	1	37
583.565	1	22
583.735	1	32
583.904	1	25
584.074	1	36
584.244	1	21
584.414	1	40
584.584	1	39
584.753	1	11
584.923	1	23
585.093	1	41
585.263	1	23
585.433	1	14
585.602	1	27
585.772	1	34
585.942	1	22
586.112	1	8
586.282	1	32
586.451	1	34
586.621	1	18
586.791	1	31
586.961	1	31
587.131	1	17
587.300	1	31
587.470	1	15
587.640	1	20
587.810	1	27
587.980	1	17
588.149	1	38
588.319	1	33
588.489	1	19
588.659	1	25
588.829	1	30
588.998	1	37
589.168	1	32
589.338	1	18
589.508	1	26
589.677	1	29
589.847	1	20
590.017	1	26
590.187	1	15
590.357	1	30
590.526	1	30
590.696	1	20
590.866	1	10
591.036	1	31
591.205	1	26
591.375	1	19
591.545	1	26
591.715	1	11
591.885	1	25
592.054	1	28
592.224	1	29
592.394	1	23
592.564	1	45
592.733	1	29
592.903	1	28
593.073	1	39
593.243	1	35
593.412	1	26
593.582	1	21
593.752	1	32
593.922	1	25
594.091	1	18
594.261	1	23
594.431	1	24
594.601	1	18
594.771	1	20
594.940	1	35
595.110	1	26
595.280	1	30
595.450	1	37
595.619	1	22
595.789	1	31
595.959	1	20
596.129	1	42
596.298	1	24
596.468	1	31
596.638	1	30
596.808	1	39
596.977	1	33
597.147	1	25
597.317	1	26
597.487	1	16
597.656	1	21
597.826	1	27
597.996	1	32
598.166	1	31
598.335	1	32
598.505	1	39
598.675	1	38
598.844	1	29
599.014	1	19
599.184	1	27
599.354	1	35
599.523	1	37
599.693	1	35
599.863	1	21
600.033	1	24
600.202	1	25
600.372	1	30
600.542	1	28
600.712	1	34
600.881	1	34
601.051	1	34
601.221	1	28
601.390	1	31
601.560	1	28
601.730	1	25
601.900	1	34
602.069	1	35
602.239	1	27
602.409	1	32
602.578	1	29
602.748	1	25
602.918	1	32
603.088	1	41
603.257	1	32
603.427	1	29
603.597	1	33
603.767	1	33
603.936	1	36
604.106	1	30
604.276	1	26
604.445	1	21
604.615	1	40
604.785	1	37
604.954	1	32
605.124	1	33
605.294	1	33
605.464	1	37
605.633	1	41
605.803	1	28
605.973	1	42
606.142	1	38
606.312	1	37
606.482	1	19
606.652	1	21
606.821	1	33
606.991	1	38
607.161	1	36
607.330	1	41
607.500	1	40
607.670	1	34
607.839	1	36
608.009	1	25
608.179	1	36
608.348	1	41
608.518	1	36
608.688	1	30
608.858	1	38
609.027	1	47
609.197	1	26
609.367	1	30
609.536	1	39
609.706	1	38
609.876	1	39
610.045	1	38
610.215	1	46
610.385	1	38
610.554	1	42
610.724	1	32
610.894	1	34
611.063	1	35
611.233	1	24
611.403	1	41
611.572	1	37
611.742	1	31
611.912	1	36
612.081	1	32
612.251	1	48
612.421	1	34
612.590	1	31
612.760	1	27
612.930	1	39
613.099	1	41
613.269	1	38
613.439	1	42
613.608	1	41
613.778	1	38
613.948	1	38
614.117	1	26
614.287	1	33
614.457	1	27
614.626	1	36
614.796	1	34
614.966	1	35
615.135	1	39
615.305	1	41
615.475	1	55
615.644	1	36
615.814	1	31
615.984	1	41
616.153	1	34
616.323	1	37
616.493	1	43
616.662	1	46
616.832	1	37
617.002	1	36
617.171	1	36
617.341	1	45
617.511	1	35
617.680	1	42
617.850	1	48
618.019	1	37
618.189	1	43
618.359	1	33
618.528	1	45
618.698	1	36
618.868	1	39
619.037	1	43
619.207	1	38
619.377	1	41
619.546	1	39
619.716	1	41
619.885	1	41
620.055	1	53
620.225	1	47
620.394	1	39
620.564	1	46
620.734	1	39
620.903	1	60
621.073	1	51
621.242	1	58
621.412	1	30
621.582	1	49
621.751	1	43
621.921	1	38
622.091	1	39
622.260	1	35
622.430	1	51
622.599	1	36
622.769	1	39
622.939	1	39
623.108	1	44
623.278	1	44
623.448	1	37
623.617	1	43
623.787	1	53
623.956	1	49
624.126	1	45
624.296	1	34
624.465	1	51
624.635	1	37
624.804	1	53
624.974	1	46
625.144	1	50
625.313	1	42
625.483	1	52
625.652	1	42
625.822	1	39
625.992	1	45
626.161	1	45
626.331	1	64
626.501	1	44
626.670	1	52
626.840	1	43
627.009	1	52
627.179	1	61
627.348	1	51
627.518	1	34
627.688	1	48
627.857	1	48
628.027	1	37
628.196	1	60
628.366	1	47
628.536	1	49
628.705	1	46
628.875	1	45
629.044	1	37
629.214	1	49
629.384	1	40
629.553	1	54
629.723	1	56
629.892	1	47
630.062	1	43
630.232	1	45
630.401	1	52
630.571	1	54
630.740	1	48
630.910	1	55
631.079	1	63
631.249	1	47
631.419	1	43
631.588	1	55
631.758	1	46
631.927	1	57
632.097	1	44
632.266	1	26
632.436	1	59
632.606	1	59
632.775	1	51
632.945	1	43
633.114	1	55
633.284	1	43
633.453	1	53
633.623	1	54
633.793	1	56
633.962	1	47
634.132	1	40
634.301	1	42
634.471	1	53
634.640	1	43
634.810	1	53
634.979	1	48
635.149	1	48
635.319	1	49
635.488	1	48
635.658	1	52
635.827	1	51
635.997	1	57
636.166	1	43
636.336	1	56
636.505	1	43
636.675	1	56
636.845	1	53
637.014	1	53
637.184	1	49
637.353	1	56
637.523	1	52
637.692	1	56
637.862	1	50
638.031	1	59
638.201	1	53
638.370	1	56
638.540	1	50
638.710	1	46
638.879	1	54
639.049	1	50
639.218	1	55
639.388	1	48
639.557	1	37
639.727	1	62
639.896	1	55
640.066	1	60
640.235	1	59
640.405	1	52
640.574	1	57
640.744	1	46
640.914	1	62
641.083	1	45
641.253	1	57
641.422	1	66
641.592	1	58
641.761	1	57
641.931	1	45
642.100	1	50
642.270	1	52
642.439	1	56
642.609	1	60
642.778	1	51
642.948	1	45
643.117	1	44
643.287	1	50
643.456	1	68
643.626	1	54
643.795	1	48
643.965	1	47
644.134	1	45
644.304	1	52
644.473	1	52
644.643	1	54
644.812	1	49
644.982	1	46
645.151	1	51
645.321	1	58
645.490	1	46
645.660	1	57
645.829	1	63
645.999	1	58
646.168	1	50
646.338	1	43
646.507	1	64
646.677	1	55
646.846	1	50
647.016	1	44
647.185	1	41
647.355	1	47
647.524	1	51
647.694	1	61
647.863	1	43
648.033	1	45
648.202	1	59
648.372	1	57
648.541	1	57
648.711	1	53
648.880	1	49
649.050	1	51
649.219	1	58
649.389	1	64
649.558	1	61
649.728	1	55
649.897	1	64
650.067	1	52
650.236	1	48
650.406	1	60
650.575	1	53
650.745	1	46
650.914	1	61
651.084	1	41
651.253	1	62
651.423	1	52
651.592	1	49
651.762	1	61
651.931	1	67
652.101	1	48
652.270	1	33
652.440	1	47
652.609	1	48
652.778	1	62
652.948	1	46
653.117	1	53
653.287	1	45
653.456	1	46
653.626	1	52
653.795	1	46
653.965	1	62
654.134	1	47
654.304	1	41
654.473	1	55
654.643	1	44
654.812	1	59
654.982	1	48
655.151	1	53
655.320	1	66
655.490	1	37
655.659	1	52
655.829	1	56
655.998	1	49
656.168	1	40
656.337	1	49
656.507	1	50
656.676	1	60
656.846	1	54
657.015	1	48
657.184	1	61
657.354	1	53
657.523	1	50
657.693	1	47
657.862	1	52
658.032	1	56
658.201	1	53
658.371	1	61
658.540	1	49
658.709	1	54
658.879	1	54
659.048	1	53
659.218	1	43
659.387	1	49
659.557	1	53
659.726	1	45
659.895	1	50
660.065	1	54
660.234	1	53
660.404	1	51
660.573	1	50
660.743	1	41
660.912	1	41
661.081	1	43
661.251	1	58
661.420	1	47
661.590	1	38
661.759	1	40
661.929	1	45
662.098	1	55
662.267	1	34
662.437	1	48
662.606	1	43
662.776	1	44
662.945	1	47
663.115	1	47
663.284	1	47
663.453	1	56
663.623	1	51
663.792	1	43
663.962	1	51
664.131	1	46
664.300	1	47
664.470	1	37
664.639	1	57
664.809	1	55
664.978	1	60
665.148	1	62
665.317	1	46
665.486	1	45
665.656	1	53
665.825	1	53
665.995	1	34
666.164	1	44
666.333	1	52
666.503	1	60
666.672	1	40
666.842	1	45
667.011	1	57
667.180	1	42
667.350	1	51
667.519	1	37
667.689	1	40
667.858	1	38
668.027	1	55
668.197	1	50
668.366	1	47
668.536	1	64
668.705	1	43
668.874	1	49
669.044	1	41
669.213	1	44
669.382	1	46
669.552	1	37
669.721	1	51
669.891	1	46
670.060	1	39
670.229	1	45
670.399	1	55
670.568	1	47
670.738	1	46
670.907	1	43
671.076	1	38
671.246	1	40
671.415	1	42
671.584	1	44
671.754	1	39
671.923	1	50
672.093	1	45
672.262	1	47
672.431	1	34
672.601	1	55
672.770	1	44
672.939	1	35
673.109	1	40
673.278	1	43
673.448	1	37
673.617	1	38
673.786	1	25
