325.333	1	4
325.504	1	2
325.675	1	-6
325.846	1	4
326.017	1	-2
326.188	1	5
326.359	1	4
326.531	1	-13
326.702	1	-9
326.873	1	-6
327.044	1	-4
327.215	1	4
327.386	1	-5
327.557	1	17
327.728	1	-1
327.899	1	-4
328.070	1	1
328.241	1	-3
328.412	1	-2
328.583	1	6
328.754	1	-6
328.926	1	-1
329.097	1	-3
329.268	1	11
329.439	1	-9
329.610	1	0
329.781	1	-3
329.952	1	-5
330.123	1	4
330.294	1	-2
330.465	1	-7
330.636	1	-2
330.807	1	-10
330.978	1	-1
331.149	1	-1
331.320	1	-1
331.492	1	1
331.663	1	-5
331.834	1	-6
332.005	1	0
332.176	1	2
332.347	1	2
332.518	1	-2
332.689	1	-3
332.860	1	-5
333.031	1	-9
333.202	1	-2
333.373	1	-6
333.544	1	-2
333.715	1	-3
333.886	1	-2
334.057	1	6
334.228	1	-2
334.399	1	3
334.570	1	-4
334.741	1	2
334.912	1	-7
335.084	1	7
335.255	1	-5
335.426	1	3
335.597	1	5
335.768	1	-2
335.939	1	3
336.110	1	5
336.281	1	-2
336.452	1	-4
336.623	1	5
336.794	1	-6
336.965	1	5
337.136	1	-2
337.307	1	10
337.478	1	-8
337.649	1	1
337.820	1	1
337.991	1	-2
338.162	1	-1
338.333	1	-1
338.504	1	4
338.675	1	-4
338.846	1	11
339.017	1	1
339.188	1	-9
339.359	1	4
339.530	1	3
339.701	1	1
339.872	1	4
340.043	1	-2
340.214	1	1
340.385	1	-4
340.556	1	6
340.727	1	4
340.898	1	9
341.069	1	-2
341.240	1	-15
341.411	1	3
341.582	1	5
341.753	1	-2
341.924	1	-1
342.095	1	-7
342.266	1	6
342.437	1	2
342.608	1	-4
342.779	1	10
342.950	1	-2
343.121	1	9
343.292	1	3
343.463	1	4
343.634	1	-6
343.805	1	2
343.976	1	1
344.147	1	-3
344.318	1	5
344.489	1	-4
344.660	1	-4
344.831	1	6
345.002	1	2
345.173	1	12
345.344	1	1
345.515	1	-3
345.686	1	3
345.857	1	7
346.028	1	7
346.199	1	7
346.370	1	-6
346.541	1	3
346.712	1	8
346.883	1	-5
347.054	1	2
347.225	1	-1
347.396	1	-6
347.567	1	7
347.738	1	-4
347.909	1	6
348.080	1	3
348.251	1	0
348.422	1	-3
348.593	1	9
348.764	1	3
348.935	1	-1
349.106	1	2
349.277	1	-3
349.448	1	0
349.619	1	0
349.790	1	10
349.961	1	1
350.132	1	5
350.303	1	3
350.474	1	-3
350.645	1	4
350.816	1	-4
350.987	1	-1
351.157	1	-13
351.328	1	-9
351.499	1	-1
351.670	1	3
351.841	1	11
352.012	1	7
352.183	1	-3
352.354	1	15
352.525	1	-7
352.696	1	3
352.867	1	-7
353.038	1	14
353.209	1	-3
353.380	1	-1
353.551	1	-3
353.722	1	-4
353.893	1	-1
354.064	1	-4
354.235	1	1
354.406	1	7
354.576	1	7
354.747	1	-2
354.918	1	5
355.089	1	-4
355.260	1	1
355.431	1	-2
355.602	1	-5
355.773	1	-16
355.944	1	-8
356.115	1	-3
356.286	1	2
356.457	1	-1
356.628	1	-8
356.799	1	-2
356.970	1	-3
357.141	1	0
357.311	1	6
357.482	1	3
357.653	1	-2
357.824	1	5
357.995	1	6
358.166	1	-7
358.337	1	6
358.508	1	5
358.679	1	-4
358.850	1	9
359.021	1	-3
359.192	1	1
359.363	1	-1
359.533	1	5
359.704	1	-1
359.875	1	-7
360.046	1	3
360.217	1	6
360.388	1	1
360.559	1	5
360.730	1	1
360.901	1	5
361.072	1	-5
361.243	1	9
361.414	1	0
361.584	1	2
361.755	1	4
361.926	1	-10
362.097	1	11
362.268	1	5
362.439	1	9
362.610	1	8
362.781	1	7
362.952	1	-5
363.123	1	-5
363.293	1	-5
363.464	1	-10
363.635	1	0
363.806	1	0
363.977	1	5
364.148	1	1
364.319	1	2
364.490	1	-3
364.661	1	-3
364.832	1	12
365.002	1	-5
365.173	1	-13
365.344	1	3
365.515	1	-5
365.686	1	-5
365.857	1	7
366.028	1	-6
366.199	1	-2
366.370	1	-6
366.540	1	-4
366.711	1	-5
366.882	1	-2
367.053	1	2
367.224	1	6
367.395	1	4
367.566	1	-6
367.737	1	-1
367.908	1	10
368.078	1	-4
368.249	1	4
368.420	1	4
368.591	1	6
368.762	1	-17
368.933	1	1
369.104	1	-4
369.274	1	0
369.445	1	-5
369.616	1	-6
369.787	1	-1
369.958	1	-10
370.129	1	-15
370.300	1	4
370.471	1	4
370.641	1	0
370.812	1	-5
370.983	1	4
371.154	1	5
371.325	1	1
371.496	1	4
371.667	1	-3
371.837	1	1
372.008	1	0
372.179	1	12
372.350	1	1
372.521	1	2
372.692	1	3
372.863	1	-1
373.033	1	4
373.204	1	-1
373.375	1	-3
373.546	1	3
373.717	1	-9
373.888	1	1
374.059	1	1
374.229	1	1
374.400	1	9
374.571	1	-3
374.742	1	-10
374.913	1	-8
375.084	1	-1
375.254	1	-2
375.425	1	-1
375.596	1	15
375.767	1	-2
375.938	1	-10
376.109	1	-8
376.279	1	-2
376.450	1	3
376.621	1	0
376.792	1	-6
376.963	1	5
377.134	1	-9
377.304	1	5
377.475	1	-7
377.646	1	6
377.817	1	-2
377.988	1	3
378.159	1	2
378.329	1	12
378.500	1	-6
378.671	1	0
378.842	1	0
379.013	1	-5
379.184	1	0
379.354	1	0
379.525	1	0
379.696	1	-3
379.867	1	-4
380.038	1	4
380.209	1	-1
380.379	1	-13
380.550	1	1
380.721	1	-7
380.892	1	8
381.063	1	3
381.233	1	1
381.404	1	4
381.575	1	10
381.746	1	0
381.917	1	11
382.087	1	-2
382.258	1	-11
382.429	1	6
382.600	1	2
382.771	1	-3
382.941	1	1
383.112	1	7
383.283	1	7
383.454	1	5
383.625	1	2
383.795	1	-4
383.966	1	-8
384.137	1	0
384.308	1	1
384.479	1	6
384.649	1	7
384.820	1	7
384.991	1	2
385.162	1	-12
385.333	1	-4
385.503	1	3
385.674	1	14
385.845	1	5
386.016	1	4
386.187	1	0
386.357	1	-1
386.528	1	2
386.699	1	9
386.870	1	1
387.041	1	-3
387.211	1	5
387.382	1	6
387.553	1	4
387.724	1	-1
387.894	1	4
388.065	1	3
388.236	1	2
388.407	1	6
388.578	1	-1
388.748	1	5
388.919	1	1
389.090	1	-10
389.261	1	5
389.431	1	-7
389.602	1	5
389.773	1	-7
389.944	1	-3
390.114	1	11
390.285	1	-1
390.456	1	10
390.627	1	2
390.798	1	-12
390.968	1	-3
391.139	1	-2
391.310	1	-3
391.481	1	-5
391.651	1	8
391.822	1	-2
391.993	1	-6
392.164	1	0
392.334	1	1
392.505	1	-8
392.676	1	4
392.847	1	8
393.017	1	6
393.188	1	-1
393.359	1	-1
393.530	1	7
393.700	1	3
393.871	1	-9
394.042	1	1
394.213	1	3
394.383	1	-3
394.554	1	-4
394.725	1	-3
394.896	1	2
395.066	1	-5
395.237	1	-8
395.408	1	-2
395.579	1	-8
395.749	1	2
395.920	1	-6
396.091	1	10
396.262	1	-6
396.432	1	-4
396.603	1	5
396.774	1	-3
396.945	1	-10
397.115	1	-2
397.286	1	-5
397.457	1	-2
397.627	1	9
397.798	1	2
397.969	1	-3
398.140	1	9
398.310	1	5
398.481	1	-1
398.652	1	-7
398.823	1	-6
398.993	1	22
399.164	1	3
399.335	1	-11
399.505	1	11
399.676	1	5
399.847	1	-6
400.018	1	3
400.188	1	3
400.359	1	1
400.530	1	1
400.700	1	1
400.871	1	3
401.042	1	-3
401.213	1	2
401.383	1	8
401.554	1	5
401.725	1	-5
401.895	1	3
402.066	1	1
402.237	1	4
402.408	1	3
402.578	1	-6
402.749	1	-2
402.920	1	11
403.090	1	-4
403.261	1	-13
403.432	1	-7
403.603	1	-2
403.773	1	7
403.944	1	-3
404.115	1	4
404.285	1	7
404.456	1	10
404.627	1	3
404.797	1	-4
404.968	1	-13
405.139	1	6
405.310	1	6
405.480	1	6
405.651	1	9
405.822	1	4
405.992	1	2
406.163	1	-5
406.334	1	0
406.504	1	-3
406.675	1	4
406.846	1	1
407.016	1	3
407.187	1	-7
407.358	1	1
407.528	1	-3
407.699	1	-6
407.870	1	-3
408.041	1	0
408.211	1	-9
408.382	1	7
408.553	1	-4
408.723	1	-4
408.894	1	-5
409.065	1	-2
409.235	1	-1
409.406	1	-3
409.577	1	6
409.747	1	5
409.918	1	17
410.089	1	3
410.259	1	-7
410.430	1	3
410.601	1	4
410.771	1	-3
410.942	1	1
411.113	1	4
411.283	1	4
411.454	1	-10
411.625	1	-9
411.795	1	3
411.966	1	2
412.137	1	-6
412.307	1	-5
412.478	1	4
412.649	1	-1
412.819	1	-6
412.990	1	-10
413.161	1	-10
413.331	1	-2
413.502	1	0
413.672	1	-2
413.843	1	1
414.014	1	-2
414.184	1	1
414.355	1	-2
414.526	1	6
414.696	1	8
414.867	1	-6
415.038	1	16
415.208	1	3
415.379	1	8
415.550	1	9
415.720	1	-4
415.891	1	5
416.062	1	-5
416.232	1	-3
416.403	1	9
416.573	1	-1
416.744	1	-11
416.915	1	6
417.085	1	3
417.256	1	-2
417.427	1	4
417.597	1	11
417.768	1	-2
417.939	1	-2
418.109	1	5
418.280	1	-1
418.450	1	1
418.621	1	7
418.792	1	-1
418.962	1	7
419.133	1	-7
419.304	1	-2
419.474	1	5
419.645	1	4
419.815	1	-1
419.986	1	-10
420.157	1	8
420.327	1	0
420.498	1	3
420.669	1	3
420.839	1	-1
421.010	1	3
421.180	1	7
421.351	1	6
421.522	1	-1
421.692	1	-2
421.863	1	-3
422.033	1	-3
422.204	1	-7
422.375	1	8
422.545	1	6
422.716	1	5
422.886	1	13
423.057	1	-3
423.228	1	15
423.398	1	-5
423.569	1	-3
423.740	1	-11
423.910	1	7
424.081	1	-3
424.251	1	-5
424.422	1	-11
424.593	1	0
424.763	1	-9
424.934	1	11
425.104	1	7
425.275	1	1
425.445	1	-15
425.616	1	7
425.787	1	-9
425.957	1	5
426.128	1	-9
426.298	1	-1
426.469	1	-3
426.640	1	1
426.810	1	-9
426.981	1	-1
427.151	1	0
427.322	1	9
427.493	1	10
427.663	1	2
427.834	1	16
428.004	1	-3
428.175	1	-8
428.345	1	-12
428.516	1	-3
428.687	1	12
428.857	1	9
429.028	1	-3
429.198	1	7
429.369	1	-4
429.540	1	4
429.710	1	0
429.881	1	0
430.051	1	5
430.222	1	-5
430.392	1	-2
430.563	1	-5
430.734	1	6
430.904	1	4
431.075	1	-3
431.245	1	0
431.416	1	4
431.586	1	-3
431.757	1	3
431.927	1	1
432.098	1	13
432.269	1	-6
432.439	1	6
432.610	1	5
432.780	1	5
432.951	1	-10
433.121	1	1
433.292	1	-5
433.462	1	-2
433.633	1	-1
433.804	1	-1
433.974	1	-7
434.145	1	0
434.315	1	0
434.486	1	11
434.656	1	4
434.827	1	2
434.997	1	-3
435.168	1	-2
435.339	1	6
435.509	1	0
435.680	1	-4
435.850	1	2
436.021	1	7
436.191	1	10
436.362	1	0
436.532	1	14
436.703	1	1
436.873	1	1
437.044	1	-6
437.214	1	-5
437.385	1	-8
437.556	1	0
437.726	1	-1
437.897	1	0
438.067	1	-9
438.238	1	-2
438.408	1	2
438.579	1	2
438.749	1	-10
438.920	1	-1
439.090	1	-6
439.261	1	0
439.431	1	-2
439.602	1	-3
439.772	1	5
439.943	1	-3
440.113	1	3
440.284	1	-10
440.455	1	10
440.625	1	-18
440.796	1	1
440.966	1	9
441.137	1	4
441.307	1	-2
441.478	1	4
441.648	1	-2
441.819	1	-3
441.989	1	-3
442.160	1	-2
442.330	1	-8
442.501	1	-5
442.671	1	6
442.842	1	-11
443.012	1	-5
443.183	1	7
443.353	1	-1
443.524	1	3
443.694	1	-9
443.865	1	-3
444.035	1	5
444.206	1	-11
444.376	1	-1
444.547	1	4
444.717	1	-3
444.888	1	7
445.058	1	12
445.229	1	-2
445.399	1	-3
445.570	1	1
445.740	1	-2
445.911	1	-10
446.081	1	4
446.252	1	-2
446.422	1	13
446.593	1	-8
446.763	1	-1
446.934	1	6
447.104	1	3
447.275	1	-7
447.445	1	0
447.616	1	3
447.786	1	-2
447.957	1	7
448.127	1	-10
448.298	1	1
448.468	1	11
448.639	1	4
448.809	1	9
448.979	1	1
449.150	1	-3
449.320	1	11
449.491	1	7
449.661	1	5
449.832	1	7
450.002	1	3
450.173	1	-4
450.343	1	7
450.514	1	5
450.684	1	4
450.855	1	3
451.025	1	8
451.196	1	-2
451.366	1	3
451.537	1	-3
451.707	1	1
451.878	1	-6
452.048	1	4
452.218	1	6
452.389	1	0
452.559	1	-8
452.730	1	-10
452.900	1	13
453.071	1	5
453.241	1	-2
453.412	1	2
453.582	1	3
453.753	1	-8
453.923	1	12
454.093	1	10
454.264	1	7
454.434	1	4
454.605	1	-10
454.775	1	-5
454.946	1	5
455.116	1	-6
455.287	1	-2
455.457	1	-4
455.628	1	-1
455.798	1	-10
455.968	1	0
456.139	1	-2
456.309	1	-3
456.480	1	-5
456.650	1	-2
456.821	1	6
456.991	1	-9
457.161	1	9
457.332	1	1
457.502	1	1
457.673	1	6
457.843	1	1
458.014	1	2
458.184	1	3
458.355	1	0
458.525	1	8
458.695	1	2
458.866	1	0
459.036	1	-6
459.207	1	-5
459.377	1	-1
459.548	1	-3
459.718	1	-2
459.888	1	6
460.059	1	-1
460.229	1	1
460.400	1	-17
460.570	1	7
460.740	1	-3
460.911	1	-5
461.081	1	15
461.252	1	5
461.422	1	2
461.593	1	2
461.763	1	10
461.933	1	-3
462.104	1	0
462.274	1	-1
462.445	1	5
462.615	1	-7
462.785	1	-8
462.956	1	-6
463.126	1	9
463.297	1	4
463.467	1	3
463.638	1	2
463.808	1	-1
463.978	1	2
464.149	1	5
464.319	1	-7
464.490	1	-1
464.660	1	-10
464.830	1	14
465.001	1	2
465.171	1	8
465.342	1	-2
465.512	1	-10
465.682	1	5
465.853	1	2
466.023	1	6
466.194	1	-4
466.364	1	-5
466.534	1	-3
466.705	1	-7
466.875	1	0
467.045	1	-6
467.216	1	-7
467.386	1	5
467.557	1	-1
467.727	1	8
467.897	1	-3
468.068	1	-1
468.238	1	-6
468.409	1	-2
468.579	1	4
468.749	1	4
468.920	1	2
469.090	1	-13
469.260	1	-3
469.431	1	-7
469.601	1	3
469.772	1	-5
469.942	1	0
470.112	1	-1
470.283	1	3
470.453	1	2
470.623	1	-9
470.794	1	1
470.964	1	18
471.135	1	-5
471.305	1	7
471.475	1	5
471.646	1	1
471.816	1	-3
471.986	1	4
472.157	1	-3
472.327	1	5
472.497	1	2
472.668	1	6
472.838	1	2
473.009	1	3
473.179	1	1
473.349	1	0
473.520	1	-9
473.690	1	-4
473.860	1	9
474.031	1	2
474.201	1	-1
474.371	1	8
474.542	1	-1
474.712	1	-2
474.882	1	1
475.053	1	-1
475.223	1	-5
475.394	1	-6
475.564	1	-7
475.734	1	1
475.905	1	-4
476.075	1	2
476.245	1	14
476.416	1	5
476.586	1	-12
476.756	1	7
476.927	1	-3
477.097	1	3
477.267	1	-3
477.438	1	-2
477.608	1	-6
477.778	1	9
477.949	1	10
478.119	1	-2
478.289	1	-3
478.460	1	3
478.630	1	10
478.800	1	-4
478.971	1	-8
479.141	1	3
479.311	1	10
479.482	1	-11
479.652	1	-3
479.822	1	0
479.993	1	-5
480.163	1	-1
480.333	1	-5
480.504	1	-1
480.674	1	0
480.844	1	-5
481.015	1	-4
481.185	1	1
481.355	1	-5
481.525	1	4
481.696	1	7
481.866	1	-4
482.036	1	-3
482.207	1	-12
482.377	1	-1
482.547	1	-5
482.718	1	4
482.888	1	-1
483.058	1	0
483.229	1	10
483.399	1	5
483.569	1	0
483.740	1	-12
483.910	1	-2
484.080	1	-5
484.250	1	-12
484.421	1	1
484.591	1	5
484.761	1	5
484.932	1	11
485.102	1	5
485.272	1	-1
485.443	1	-9
485.613	1	6
485.783	1	1
485.953	1	11
486.124	1	0
486.294	1	4
486.464	1	2
486.635	1	-8
486.805	1	-1
486.975	1	-4
487.146	1	-4
487.316	1	2
487.486	1	7
487.656	1	2
487.827	1	-2
487.997	1	0
488.167	1	1
488.338	1	3
488.508	1	8
488.678	1	0
488.848	1	2
489.019	1	11
489.189	1	-1
489.359	1	6
489.529	1	-12
489.700	1	-1
489.870	1	-2
490.040	1	3
490.211	1	11
490.381	1	11
490.551	1	-1
490.721	1	4
490.892	1	7
491.062	1	-3
491.232	1	7
491.402	1	1
491.573	1	6
491.743	1	-11
491.913	1	5
492.084	1	1
492.254	1	1
492.424	1	-1
492.594	1	8
492.765	1	-4
492.935	1	7
493.105	1	-2
493.275	1	5
493.446	1	-3
493.616	1	7
493.786	1	-3
493.956	1	-2
494.127	1	5
494.297	1	-3
494.467	1	-4
494.637	1	-6
494.808	1	-2
494.978	1	-5
495.148	1	0
495.318	1	-3
495.489	1	-16
495.659	1	0
495.829	1	0
495.999	1	4
496.170	1	-2
496.340	1	-2
496.510	1	0
496.680	1	6
496.851	1	4
497.021	1	2
497.191	1	-14
497.361	1	-5
497.532	1	6
497.702	1	0
497.872	1	12
498.042	1	-8
498.213	1	-7
498.383	1	-7
498.553	1	4
498.723	1	2
498.894	1	-9
499.064	1	-9
499.234	1	-4
499.404	1	-4
499.574	1	5
499.745	1	-3
499.915	1	-2
500.085	1	2
500.255	1	-4
500.426	1	5
500.596	1	-1
500.766	1	0
500.936	1	-5
501.106	1	-5
501.277	1	2
501.447	1	-8
501.617	1	3
501.787	1	-6
501.958	1	11
502.128	1	5
502.298	1	-5
502.468	1	6
502.638	1	2
502.809	1	3
502.979	1	-2
503.149	1	5
503.319	1	-6
503.489	1	6
503.660	1	-7
503.830	1	0
504.000	1	-8
504.170	1	3
504.340	1	-2
504.511	1	4
504.681	1	-1
504.851	1	4
505.021	1	-3
505.192	1	3
505.362	1	5
505.532	1	3
505.702	1	4
505.872	1	5
506.043	1	-2
506.213	1	11
506.383	1	7
506.553	1	4
506.723	1	-1
506.893	1	-9
507.064	1	2
507.234	1	-8
507.404	1	-10
507.574	1	1
507.744	1	4
507.915	1	6
508.085	1	6
508.255	1	-1
508.425	1	-9
508.595	1	0
508.766	1	3
508.936	1	-7
509.106	1	-8
509.276	1	3
509.446	1	-8
509.616	1	2
509.787	1	5
509.957	1	-3
510.127	1	-6
510.297	1	-6
510.467	1	8
510.638	1	-10
510.808	1	6
510.978	1	1
511.148	1	2
511.318	1	-2
511.488	1	13
511.659	1	2
511.829	1	12
511.999	1	4
512.169	1	2
512.339	1	-8
512.509	1	4
512.680	1	8
512.850	1	5
513.020	1	5
513.190	1	10
513.360	1	0
513.530	1	-5
513.700	1	-1
513.871	1	3
514.041	1	-3
514.211	1	-6
514.381	1	-1
514.551	1	-8
514.721	1	0
514.892	1	4
515.062	1	-8
515.232	1	-4
515.402	1	0
515.572	1	3
515.742	1	3
515.912	1	-3
516.083	1	6
516.253	1	-5
516.423	1	4
516.593	1	-6
516.763	1	4
516.933	1	-1
517.104	1	5
517.274	1	7
517.444	1	6
517.614	1	-11
517.784	1	2
517.954	1	-7
518.124	1	10
518.294	1	-6
518.465	1	-5
518.635	1	-4
518.805	1	6
518.975	1	-8
519.145	1	13
519.315	1	-1
519.485	1	-1
519.656	1	-9
519.826	1	6
519.996	1	-3
520.166	1	0
520.336	1	3
520.506	1	-10
520.676	1	-3
520.846	1	0
521.017	1	4
521.187	1	1
521.357	1	3
521.527	1	4
521.697	1	5
521.867	1	-8
522.037	1	-3
522.207	1	8
522.377	1	0
522.548	1	6
522.718	1	-6
522.888	1	7
523.058	1	8
523.228	1	-7
523.398	1	10
523.568	1	1
523.738	1	5
523.909	1	8
524.079	1	11
524.249	1	-3
524.419	1	-1
524.589	1	-1
524.759	1	0
524.929	1	3
525.099	1	-6
525.269	1	-2
525.439	1	2
525.610	1	12
525.780	1	-8
525.950	1	-4
526.120	1	-2
526.290	1	6
526.460	1	3
526.630	1	6
526.800	1	8
526.970	1	-2
527.140	1	-12
527.311	1	-1
527.481	1	-13
527.651	1	3
527.821	1	-5
527.991	1	9
528.161	1	2
528.331	1	12
528.501	1	-11
528.671	1	-14
528.841	1	-6
529.011	1	2
529.181	1	7
529.352	1	-2
529.522	1	7
529.692	1	3
529.862	1	8
530.032	1	4
530.202	1	3
530.372	1	1
530.542	1	-10
530.712	1	-7
530.882	1	-8
531.052	1	4
531.222	1	3
531.392	1	-3
531.563	1	5
531.733	1	-4
531.903	1	9
532.073	1	1
532.243	1	4
532.413	1	2
532.583	1	5
532.753	1	1
532.923	1	0
533.093	1	7
533.263	1	1
533.433	1	4
533.603	1	3
533.773	1	3
533.943	1	11
534.113	1	3
534.284	1	8
534.454	1	-4
534.624	1	5
534.794	1	5
534.964	1	12
535.134	1	7
535.304	1	1
535.474	1	-2
535.644	1	-10
535.814	1	-2
535.984	1	5
536.154	1	-3
536.324	1	3
536.494	1	-7
536.664	1	6
536.834	1	3
537.004	1	5
537.174	1	-5
537.344	1	3
537.514	1	-1
537.685	1	7
537.855	1	4
538.025	1	2
538.195	1	0
538.365	1	-11
538.535	1	-2
538.705	1	0
538.875	1	1
539.045	1	-10
539.215	1	-4
539.385	1	0
539.555	1	7
539.725	1	-5
539.895	1	-2
540.065	1	-1
540.235	1	-1
540.405	1	-2
540.575	1	3
540.745	1	-1
540.915	1	-2
541.085	1	6
541.255	1	-1
541.425	1	2
541.595	1	-4
541.765	1	-5
541.935	1	6
542.105	1	8
542.275	1	-1
542.445	1	4
542.615	1	-4
542.785	1	-3
542.955	1	4
543.125	1	-2
543.295	1	-15
543.465	1	-2
543.635	1	-1
543.805	1	2
543.975	1	1
544.145	1	2
544.315	1	-9
544.485	1	-4
544.655	1	-2
544.825	1	3
544.995	1	16
545.165	1	1
545.335	1	2
545.505	1	9
545.675	1	10
545.845	1	-7
546.015	1	-6
546.185	1	4
546.355	1	13
546.525	1	6
546.695	1	-3
546.865	1	2
547.035	1	-4
547.205	1	8
547.375	1	-1
547.545	1	0
547.715	1	-3
547.885	1	-5
548.055	1	-5
548.225	1	11
548.395	1	-7
548.565	1	7
548.735	1	2
548.905	1	4
549.075	1	0
549.245	1	-1
549.415	1	-1
549.585	1	-1
549.755	1	-5
549.925	1	4
550.095	1	-1
550.265	1	-3
550.435	1	4
550.605	1	-2
550.775	1	8
550.945	1	7
551.115	1	-7
551.285	1	-5
551.455	1	-6
551.625	1	-2
551.795	1	-12
551.965	1	0
552.135	1	1
552.305	1	6
552.475	1	4
552.645	1	8
552.815	1	-2
552.985	1	4
553.155	1	-2
553.325	1	-9
553.495	1	1
553.665	1	3
553.835	1	-3
554.004	1	-9
554.174	1	-3
554.344	1	1
554.514	1	0
554.684	1	-7
554.854	1	-1
555.024	1	0
555.194	1	-7
555.364	1	-3
555.534	1	13
555.704	1	3
555.874	1	-6
556.044	1	4
556.214	1	2
556.384	1	-6
556.554	1	-2
556.724	1	-5
556.894	1	-4
557.064	1	3
557.234	1	-3
557.404	1	3
557.573	1	7
557.743	1	4
557.913	1	3
558.083	1	-2
558.253	1	-5
558.423	1	5
558.593	1	-3
558.763	1	-1
558.933	1	0
559.103	1	-1
559.273	1	-2
559.443	1	-5
559.613	1	8
559.783	1	6
559.953	1	-2
560.122	1	5
560.292	1	11
560.462	1	-8
560.632	1	3
560.802	1	6
560.972	1	-6
561.142	1	0
561.312	1	3
561.482	1	-3
561.652	1	-4
561.822	1	-6
561.992	1	4
562.162	1	-4
562.331	1	9
562.501	1	0
562.671	1	3
562.841	1	-2
563.011	1	8
563.181	1	-1
563.351	1	7
563.521	1	-8
563.691	1	1
563.861	1	2
564.031	1	-2
564.201	1	-2
564.370	1	5
564.540	1	2
564.710	1	-9
564.880	1	0
565.050	1	-4
565.220	1	5
565.390	1	2
565.560	1	2
565.730	1	2
565.900	1	-8
566.069	1	-6
566.239	1	10
566.409	1	-2
566.579	1	-9
566.749	1	-7
566.919	1	-8
567.089	1	4
567.259	1	3
567.429	1	9
567.599	1	8
567.768	1	-1
567.938	1	0
568.108	1	3
568.278	1	1
568.448	1	0
568.618	1	13
568.788	1	-6
568.958	1	-2
569.128	1	-2
569.297	1	4
569.467	1	-6
569.637	1	-8
569.807	1	19
569.977	1	-9
570.147	1	-6
570.317	1	-6
570.487	1	6
570.656	1	-11
570.826	1	-5
570.996	1	2
571.166	1	3
571.336	1	-11
571.506	1	-4
571.676	1	-5
571.846	1	-7
572.015	1	-2
572.185	1	8
572.355	1	10
572.525	1	-1
572.695	1	-6
572.865	1	1
573.035	1	8
573.205	1	3
573.374	1	0
573.544	1	5
573.714	1	-2
573.884	1	5
574.054	1	10
574.224	1	-5
574.394	1	-11
574.563	1	-3
574.733	1	2
574.903	1	-8
575.073	1	-2
575.243	1	-6
575.413	1	-5
575.583	1	-2
575.752	1	4
575.922	1	6
576.092	1	1
576.262	1	0
576.432	1	3
576.602	1	15
576.772	1	-11
576.941	1	-4
577.111	1	-3
577.281	1	6
577.451	1	0
577.621	1	11
577.791	1	7
577.960	1	0
578.130	1	-1
578.300	1	1
578.470	1	-3
578.640	1	-1
578.810	1	-5
578.979	1	-5
579.149	1	5
579.319	1	-3
579.489	1	0
579.659	1	-3
579.829	1	-1
579.998	1	1
580.168	1	-3
580.338	1	8
580.508	1	0
580.678	1	-3
580.848	1	5
581.017	1	8
581.187	1	5
581.357	1	-11
581.527	1	-4
581.697	1	-14
581.867	1	8
582.036	1	-5
582.206	1	-1
582.376	1	2
582.546	1	4
582.716	1	-3
582.885	1	-7
583.055	1	-2
583.225	1	-3
583.395	1	-2
583.565	1	-13
583.735	1	5
583.904	1	8
584.074	1	1
584.244	1	-8
584.414	1	11
584.584	1	3
584.753	1	-6
584.923	1	-7
585.093	1	4
585.263	1	2
585.433	1	-14
585.602	1	11
585.772	1	4
585.942	1	1
586.112	1	-4
586.282	1	4
586.451	1	5
586.621	1	0
586.791	1	7
586.961	1	8
587.131	1	2
587.300	1	0
587.470	1	-12
587.640	1	-1
587.810	1	0
587.980	1	5
588.149	1	8
588.319	1	4
588.489	1	3
588.659	1	3
588.829	1	1
588.998	1	0
589.168	1	1
589.338	1	-8
589.508	1	-6
589.677	1	7
589.847	1	-3
590.017	1	-2
590.187	1	-9
590.357	1	-5
590.526	1	-4
590.696	1	2
590.866	1	-5
591.036	1	6
591.205	1	1
591.375	1	-7
591.545	1	-3
591.715	1	-8
591.885	1	-5
592.054	1	-5
592.224	1	3
592.394	1	-5
592.564	1	3
592.733	1	3
592.903	1	8
593.073	1	0
593.243	1	2
593.412	1	-5
593.582	1	-7
593.752	1	5
593.922	1	9
594.091	1	-12
594.261	1	-7
594.431	1	-5
594.601	1	-1
594.771	1	-14
594.940	1	3
595.110	1	7
595.280	1	4
595.450	1	15
595.619	1	1
595.789	1	-2
595.959	1	-13
596.129	1	2
596.298	1	2
596.468	1	-7
596.638	1	5
596.808	1	8
596.977	1	5
597.147	1	0
597.317	1	6
597.487	1	-6
597.656	1	-17
597.826	1	-6
597.996	1	0
598.166	1	0
598.335	1	-1
598.505	1	10
598.675	1	5
598.844	1	2
599.014	1	2
599.184	1	-3
599.354	1	5
599.523	1	-1
599.693	1	-1
599.863	1	0
600.033	1	-5
600.202	1	5
600.372	1	-1
600.542	1	8
600.712	1	0
600.881	1	3
601.051	1	-1
601.221	1	-3
601.390	1	-3
601.560	1	-13
601.730	1	1
601.900	1	6
602.069	1	6
602.239	1	-4
602.409	1	2
602.578	1	2
602.748	1	-4
602.918	1	-7
603.088	1	-10
603.257	1	6
603.427	1	8
603.597	1	-8
603.767	1	-4
603.936	1	6
604.106	1	5
604.276	1	-10
604.445	1	-7
604.615	1	-5
604.785	1	10
604.954	1	-2
605.124	1	20
605.294	1	0
605.464	1	8
605.633	1	3
605.803	1	3
605.973	1	-4
606.142	1	4
606.312	1	-5
606.482	1	-5
606.652	1	-5
606.821	1	-4
606.991	1	-5
607.161	1	0
607.330	1	2
607.500	1	-1
607.670	1	2
607.839	1	-5
608.009	1	-3
608.179	1	2
608.348	1	-5
608.518	1	0
608.688	1	-6
608.858	1	1
609.027	1	15
609.197	1	-7
609.367	1	-7
609.536	1	2
609.706	1	7
609.876	1	2
610.045	1	9
610.215	1	4
610.385	1	5
610.554	1	4
610.724	1	-5
610.894	1	9
611.063	1	-3
611.233	1	-2
611.403	1	16
611.572	1	-1
611.742	1	3
611.912	1	-13
612.081	1	2
612.251	1	6
612.421	1	2
612.590	1	-9
612.760	1	12
612.930	1	1
613.099	1	7
613.269	1	-6
613.439	1	0
613.608	1	-6
613.778	1	1
613.948	1	-10
614.117	1	4
614.287	1	-1
614.457	1	-2
614.626	1	-2
614.796	1	7
614.966	1	-5
615.135	1	4
615.305	1	10
615.475	1	12
615.644	1	4
615.814	1	3
615.984	1	1
616.153	1	0
616.323	1	-2
616.493	1	7
616.662	1	1
616.832	1	-7
617.002	1	3
617.171	1	2
617.341	1	-7
617.511	1	10
617.680	1	-14
617.850	1	11
618.019	1	3
618.189	1	-2
618.359	1	-2
618.528	1	3
618.698	1	-4
618.868	1	-1
619.037	1	-6
619.207	1	1
619.377	1	-8
619.546	1	-2
619.716	1	8
619.885	1	6
620.055	1	-5
620.225	1	-6
620.394	1	4
620.564	1	7
620.734	1	0
620.903	1	11
621.073	1	2
621.242	1	8
621.412	1	-10
621.582	1	4
621.751	1	-4
621.921	1	0
622.091	1	-1
622.260	1	-3
622.430	1	1
622.599	1	-5
622.769	1	-3
622.939	1	-5
623.108	1	5
623.278	1	9
623.448	1	-11
623.617	1	1
623.787	1	10
623.956	1	-2
624.126	1	7
624.296	1	-6
624.465	1	11
624.635	1	-5
624.804	1	2
624.974	1	-2
625.144	1	3
625.313	1	-2
625.483	1	-4
625.652	1	-4
625.822	1	0
625.992	1	7
626.161	1	-1
626.331	1	9
626.501	1	-9
626.670	1	3
626.840	1	3
627.009	1	4
627.179	1	10
627.348	1	9
627.518	1	-13
627.688	1	-6
627.857	1	-3
628.027	1	0
628.196	1	5
628.366	1	3
628.536	1	2
628.705	1	6
628.875	1	1
629.044	1	1
629.214	1	0
629.384	1	-1
629.553	1	9
629.723	1	-3
629.892	1	-1
630.062	1	6
630.232	1	-5
630.401	1	4
630.571	1	6
630.740	1	-4
630.910	1	4
631.079	1	15
631.249	1	-8
631.419	1	1
631.588	1	4
631.758	1	0
631.927	1	6
632.097	1	-5
632.266	1	-15
632.436	1	9
632.606	1	9
632.775	1	2
632.945	1	-9
633.114	1	0
633.284	1	-6
633.453	1	4
633.623	1	1
633.793	1	-11
633.962	1	7
634.132	1	1
634.301	1	2
634.471	1	-1
634.640	1	-6
634.810	1	1
634.979	1	-7
635.149	1	-8
635.319	1	4
635.488	1	3
635.658	1	-1
635.827	1	8
635.997	1	11
636.166	1	0
636.336	1	-2
636.505	1	-2
636.675	1	2
636.845	1	-7
637.014	1	1
637.184	1	-3
637.353	1	7
637.523	1	-4
637.692	1	-4
637.862	1	3
638.031	1	9
638.201	1	0
638.370	1	1
638.540	1	4
638.710	1	-9
638.879	1	1
639.049	1	1
639.218	1	12
639.388	1	-1
639.557	1	-8
639.727	1	11
639.896	1	-2
640.066	1	-5
640.235	1	-7
640.405	1	10
640.574	1	7
640.744	1	0
640.914	1	0
641.083	1	6
641.253	1	14
641.422	1	-2
641.592	1	-5
641.761	1	5
641.931	1	8
642.100	1	0
642.270	1	-1
642.439	1	11
642.609	1	11
642.778	1	1
642.948	1	8
643.117	1	-3
643.287	1	5
643.456	1	-1
643.626	1	1
643.795	1	-3
643.965	1	-8
644.134	1	8
644.304	1	-6
644.473	1	5
644.643	1	-9
644.812	1	-6
644.982	1	-5
645.151	1	1
645.321	1	-1
645.490	1	-7
645.660	1	10
645.829	1	2
645.999	1	1
646.168	1	-2
646.338	1	-5
646.507	1	7
646.677	1	2
646.846	1	-1
647.016	1	-4
647.185	1	-6
647.355	1	-1
647.524	1	-4
647.694	1	8
647.863	1	2
648.033	1	1
648.202	1	5
648.372	1	0
648.541	1	0
648.711	1	-2
648.880	1	1
649.050	1	-2
649.219	1	-1
649.389	1	2
649.558	1	7
649.728	1	1
649.897	1	5
650.067	1	-10
650.236	1	-1
650.406	1	4
650.575	1	0
650.745	1	-3
650.914	1	-1
651.084	1	-6
651.253	1	3
651.423	1	4
651.592	1	0
651.762	1	2
651.931	1	5
652.101	1	-1
652.270	1	-10
652.440	1	-5
652.609	1	5
652.778	1	6
652.948	1	-11
653.117	1	-5
653.287	1	-6
653.456	1	-3
653.626	1	3
653.795	1	-4
653.965	1	3
654.134	1	-1
654.304	1	-7
654.473	1	2
654.643	1	-6
654.812	1	11
654.982	1	0
655.151	1	-1
655.320	1	8
655.490	1	-5
655.659	1	3
655.829	1	5
655.998	1	6
656.168	1	1
656.337	1	5
656.507	1	2
656.676	1	6
656.846	1	-2
657.015	1	3
657.184	1	-2
657.354	1	2
657.523	1	-10
657.693	1	1
657.862	1	-6
658.032	1	5
658.201	1	3
658.371	1	4
658.540	1	2
658.709	1	0
658.879	1	13
659.048	1	4
659.218	1	2
659.387	1	-5
659.557	1	8
659.726	1	6
659.895	1	-4
660.065	1	-12
660.234	1	3
660.404	1	1
660.573	1	-6
660.743	1	5
660.912	1	3
661.081	1	-16
661.251	1	9
661.420	1	-1
661.590	1	-7
661.759	1	-5
661.929	1	4
662.098	1	2
662.267	1	-8
662.437	1	-7
662.606	1	-1
662.776	1	3
662.945	1	3
663.115	1	-9
663.284	1	-4
663.453	1	6
663.623	1	-13
663.792	1	-3
663.962	1	-1
664.131	1	4
664.300	1	-3
664.470	1	-1
664.639	1	5
664.809	1	7
664.978	1	4
665.148	1	0
665.317	1	-7
665.486	1	-6
665.656	1	12
665.825	1	8
665.995	1	-13
666.164	1	-1
666.333	1	4
666.503	1	-2
666.672	1	-10
666.842	1	-3
667.011	1	4
667.180	1	-3
667.350	1	1
667.519	1	-8
667.689	1	1
667.858	1	-4
668.027	1	11
668.197	1	8
668.366	1	1
668.536	1	5
668.705	1	3
668.874	1	4
669.044	1	-6
669.213	1	-2
669.382	1	6
669.552	1	-2
669.721	1	1
669.891	1	11
670.060	1	-2
670.229	1	2
670.399	1	7
670.568	1	0
670.738	1	5
670.907	1	1
671.076	1	0
671.246	1	-1
671.415	1	-2
671.584	1	4
671.754	1	-6
671.923	1	10
672.093	1	2
672.262	1	11
672.431	1	-2
672.601	1	4
672.770	1	-4
672.939	1	-3
673.109	1	-4
673.278	1	-1
673.448	1	-7
673.617	1	-8
673.786	1	2
