325.333	1	172
325.504	1	192
325.675	1	192
325.846	1	169
326.017	1	190
326.188	1	191
326.359	1	196
326.531	1	187
326.702	1	183
326.873	1	203
327.044	1	206
327.215	1	198
327.386	1	202
327.557	1	235
327.728	1	214
327.899	1	218
328.070	1	215
328.241	1	209
328.412	1	210
328.583	1	227
328.754	1	241
328.926	1	220
329.097	1	228
329.268	1	232
329.439	1	234
329.610	1	237
329.781	1	216
329.952	1	237
330.123	1	228
330.294	1	255
330.465	1	247
330.636	1	253
330.807	1	248
330.978	1	261
331.149	1	257
331.320	1	264
331.492	1	260
331.663	1	257
331.834	1	272
332.005	1	270
332.176	1	269
332.347	1	267
332.518	1	267
332.689	1	271
332.860	1	271
333.031	1	281
333.202	1	278
333.373	1	292
333.544	1	287
333.715	1	297
333.886	1	278
334.057	1	296
334.228	1	290
334.399	1	289
334.570	1	283
334.741	1	300
334.912	1	282
335.084	1	294
335.255	1	288
335.426	1	280
335.597	1	310
335.768	1	289
335.939	1	279
336.110	1	302
336.281	1	300
336.452	1	308
336.623	1	307
336.794	1	303
336.965	1	319
337.136	1	309
337.307	1	305
337.478	1	292
337.649	1	315
337.820	1	315
337.991	1	303
338.162	1	307
338.333	1	302
338.504	1	304
338.675	1	321
338.846	1	310
339.017	1	311
339.188	1	301
339.359	1	300
339.530	1	316
339.701	1	317
339.872	1	308
340.043	1	304
340.214	1	305
340.385	1	310
340.556	1	320
340.727	1	314
340.898	1	320
341.069	1	329
341.240	1	300
341.411	1	313
341.582	1	306
341.753	1	300
341.924	1	319
342.095	1	306
342.266	1	314
342.437	1	296
342.608	1	314
342.779	1	321
342.950	1	309
343.121	1	296
343.292	1	315
343.463	1	320
343.634	1	310
343.805	1	306
343.976	1	300
344.147	1	299
344.318	1	292
344.489	1	300
344.660	1	296
344.831	1	297
345.002	1	301
345.173	1	300
345.344	1	304
345.515	1	305
345.686	1	309
345.857	1	302
346.028	1	293
346.199	1	310
346.370	1	298
346.541	1	288
346.712	1	299
346.883	1	287
347.054	1	299
347.225	1	284
347.396	1	288
347.567	1	294
347.738	1	286
347.909	1	295
348.080	1	283
348.251	1	283
348.422	1	271
348.593	1	295
348.764	1	286
348.935	1	254
349.106	1	273
349.277	1	275
349.448	1	280
349.619	1	266
349.790	1	280
349.961	1	282
350.132	1	264
350.303	1	262
350.474	1	256
350.645	1	251
350.816	1	249
350.987	1	252
351.157	1	243
351.328	1	271
351.499	1	270
351.670	1	253
351.841	1	265
352.012	1	262
352.183	1	250
352.354	1	249
352.525	1	240
352.696	1	246
352.867	1	234
353.038	1	249
353.209	1	237
353.380	1	242
353.551	1	224
353.722	1	235
353.893	1	238
354.064	1	219
354.235	1	216
354.406	1	217
354.576	1	220
354.747	1	229
354.918	1	222
355.089	1	213
355.260	1	203
355.431	1	220
355.602	1	219
355.773	1	202
355.944	1	198
356.115	1	211
356.286	1	202
356.457	1	201
356.628	1	188
356.799	1	193
356.970	1	199
357.141	1	202
357.311	1	206
357.482	1	198
357.653	1	180
357.824	1	190
357.995	1	198
358.166	1	195
358.337	1	194
358.508	1	174
358.679	1	187
358.850	1	195
359.021	1	186
359.192	1	163
359.363	1	186
359.533	1	201
359.704	1	188
359.875	1	163
360.046	1	168
360.217	1	177
360.388	1	162
360.559	1	159
360.730	1	146
360.901	1	165
361.072	1	151
361.243	1	152
361.414	1	148
361.584	1	162
361.755	1	143
361.926	1	140
362.097	1	155
362.268	1	142
362.439	1	150
362.610	1	144
362.781	1	144
362.952	1	128
363.123	1	133
363.293	1	137
363.464	1	124
363.635	1	139
363.806	1	136
363.977	1	135
364.148	1	122
364.319	1	133
364.490	1	124
364.661	1	133
364.832	1	121
365.002	1	120
365.173	1	110
365.344	1	124
365.515	1	122
365.686	1	99
365.857	1	131
366.028	1	113
366.199	1	108
366.370	1	111
366.540	1	119
366.711	1	123
366.882	1	116
367.053	1	114
367.224	1	117
367.395	1	114
367.566	1	108
367.737	1	102
367.908	1	100
368.078	1	105
368.249	1	105
368.420	1	100
368.591	1	111
368.762	1	94
368.933	1	104
369.104	1	103
369.274	1	95
369.445	1	94
369.616	1	82
369.787	1	94
369.958	1	92
370.129	1	98
370.300	1	89
370.471	1	98
370.641	1	84
370.812	1	82
370.983	1	86
371.154	1	97
371.325	1	83
371.496	1	82
371.667	1	82
371.837	1	85
372.008	1	68
372.179	1	90
372.350	1	92
372.521	1	97
372.692	1	85
372.863	1	83
373.033	1	96
373.204	1	75
373.375	1	85
373.546	1	84
373.717	1	77
373.888	1	88
374.059	1	88
374.229	1	76
374.400	1	95
374.571	1	87
374.742	1	74
374.913	1	76
375.084	1	88
375.254	1	82
375.425	1	79
375.596	1	94
375.767	1	74
375.938	1	86
376.109	1	85
376.279	1	85
376.450	1	83
376.621	1	91
376.792	1	82
376.963	1	85
377.134	1	77
377.304	1	76
377.475	1	71
377.646	1	92
377.817	1	62
377.988	1	89
378.159	1	93
378.329	1	92
378.500	1	63
378.671	1	82
378.842	1	83
379.013	1	85
379.184	1	89
379.354	1	95
379.525	1	86
379.696	1	93
379.867	1	87
380.038	1	96
380.209	1	76
380.379	1	90
380.550	1	101
380.721	1	100
380.892	1	102
381.063	1	97
381.233	1	103
381.404	1	106
381.575	1	103
381.746	1	96
381.917	1	98
382.087	1	101
382.258	1	90
382.429	1	96
382.600	1	98
382.771	1	104
382.941	1	96
383.112	1	110
383.283	1	119
383.454	1	109
383.625	1	111
383.795	1	105
383.966	1	119
384.137	1	109
384.308	1	127
384.479	1	129
384.649	1	122
384.820	1	116
384.991	1	106
385.162	1	109
385.333	1	122
385.503	1	117
385.674	1	127
385.845	1	117
386.016	1	132
386.187	1	122
386.357	1	123
386.528	1	132
386.699	1	124
386.870	1	129
387.041	1	117
387.211	1	142
387.382	1	141
387.553	1	132
387.724	1	132
387.894	1	144
388.065	1	139
388.236	1	143
388.407	1	152
388.578	1	155
388.748	1	142
388.919	1	146
389.090	1	153
389.261	1	144
389.431	1	150
389.602	1	158
389.773	1	148
389.944	1	174
390.114	1	164
390.285	1	161
390.456	1	165
390.627	1	168
390.798	1	165
390.968	1	159
391.139	1	161
391.310	1	175
391.481	1	161
391.651	1	174
391.822	1	186
391.993	1	173
392.164	1	175
392.334	1	173
392.505	1	181
392.676	1	174
392.847	1	192
393.017	1	192
393.188	1	196
393.359	1	186
393.530	1	207
393.700	1	204
393.871	1	186
394.042	1	201
394.213	1	219
394.383	1	193
394.554	1	198
394.725	1	212
394.896	1	206
395.066	1	194
395.237	1	203
395.408	1	222
395.579	1	211
395.749	1	228
395.920	1	221
396.091	1	217
396.262	1	224
396.432	1	225
396.603	1	224
396.774	1	225
396.945	1	227
397.115	1	249
397.286	1	241
397.457	1	226
397.627	1	254
397.798	1	238
397.969	1	232
398.140	1	250
398.310	1	261
398.481	1	234
398.652	1	243
398.823	1	255
398.993	1	267
399.164	1	260
399.335	1	254
399.505	1	266
399.676	1	261
399.847	1	265
400.018	1	269
400.188	1	280
400.359	1	270
400.530	1	265
400.700	1	301
400.871	1	279
401.042	1	286
401.213	1	293
401.383	1	300
401.554	1	282
401.725	1	294
401.895	1	291
402.066	1	301
402.237	1	313
402.408	1	296
402.578	1	308
402.749	1	321
402.920	1	328
403.090	1	312
403.261	1	302
403.432	1	323
403.603	1	333
403.773	1	353
403.944	1	334
404.115	1	333
404.285	1	347
404.456	1	337
404.627	1	333
404.797	1	342
404.968	1	337
405.139	1	344
405.310	1	353
405.480	1	354
405.651	1	353
405.822	1	361
405.992	1	353
406.163	1	351
406.334	1	365
406.504	1	353
406.675	1	359
406.846	1	365
407.016	1	369
407.187	1	335
407.358	1	365
407.528	1	353
407.699	1	376
407.870	1	366
408.041	1	382
408.211	1	372
408.382	1	391
408.553	1	384
408.723	1	392
408.894	1	392
409.065	1	383
409.235	1	394
409.406	1	374
409.577	1	397
409.747	1	406
409.918	1	419
410.089	1	393
410.259	1	412
410.430	1	415
410.601	1	416
410.771	1	393
410.942	1	432
411.113	1	420
411.283	1	419
411.454	1	408
411.625	1	431
411.795	1	421
411.966	1	430
412.137	1	405
412.307	1	422
412.478	1	426
412.649	1	422
412.819	1	415
412.990	1	424
413.161	1	416
413.331	1	435
413.502	1	441
413.672	1	427
413.843	1	456
414.014	1	451
414.184	1	445
414.355	1	432
414.526	1	443
414.696	1	464
414.867	1	459
415.038	1	458
415.208	1	451
415.379	1	464
415.550	1	462
415.720	1	460
415.891	1	456
416.062	1	468
416.232	1	451
416.403	1	466
416.573	1	458
416.744	1	448
416.915	1	465
417.085	1	483
417.256	1	459
417.427	1	466
417.597	1	493
417.768	1	478
417.939	1	497
418.109	1	473
418.280	1	478
418.450	1	474
418.621	1	464
418.792	1	463
418.962	1	477
419.133	1	466
419.304	1	468
419.474	1	477
419.645	1	494
419.815	1	478
419.986	1	480
420.157	1	478
420.327	1	464
420.498	1	471
420.669	1	486
420.839	1	478
421.010	1	459
421.180	1	464
421.351	1	472
421.522	1	473
421.692	1	477
421.863	1	485
422.033	1	468
422.204	1	485
422.375	1	481
422.545	1	478
422.716	1	466
422.886	1	483
423.057	1	478
423.228	1	480
423.398	1	457
423.569	1	481
423.740	1	485
423.910	1	482
424.081	1	475
424.251	1	482
424.422	1	474
424.593	1	515
424.763	1	483
424.934	1	483
425.104	1	503
425.275	1	480
425.445	1	483
425.616	1	490
425.787	1	489
425.957	1	492
426.128	1	481
426.298	1	488
426.469	1	470
426.640	1	478
426.810	1	496
426.981	1	478
427.151	1	478
427.322	1	490
427.493	1	502
427.663	1	487
427.834	1	497
428.004	1	470
428.175	1	489
428.345	1	484
428.516	1	486
428.687	1	494
428.857	1	476
429.028	1	479
429.198	1	495
429.369	1	489
429.540	1	477
429.710	1	489
429.881	1	466
430.051	1	480
430.222	1	478
430.392	1	475
430.563	1	485
430.734	1	494
430.904	1	493
431.075	1	488
431.245	1	489
431.416	1	493
431.586	1	477
431.757	1	483
431.927	1	459
432.098	1	502
432.269	1	466
432.439	1	488
432.610	1	476
432.780	1	471
432.951	1	468
433.121	1	478
433.292	1	466
433.462	1	470
433.633	1	480
433.804	1	466
433.974	1	465
434.145	1	466
434.315	1	477
434.486	1	479
434.656	1	472
434.827	1	470
434.997	1	481
435.168	1	465
435.339	1	475
435.509	1	479
435.680	1	462
435.850	1	474
436.021	1	477
436.191	1	463
436.362	1	467
436.532	1	472
436.703	1	463
436.873	1	449
437.044	1	458
437.214	1	453
437.385	1	450
437.556	1	444
437.726	1	450
437.897	1	426
438.067	1	462
438.238	1	447
438.408	1	446
438.579	1	447
438.749	1	460
438.920	1	443
439.090	1	425
439.261	1	433
439.431	1	442
439.602	1	425
439.772	1	434
439.943	1	432
440.113	1	435
440.284	1	428
440.455	1	430
440.625	1	417
440.796	1	422
440.966	1	442
441.137	1	441
441.307	1	420
441.478	1	413
441.648	1	426
441.819	1	418
441.989	1	412
442.160	1	417
442.330	1	408
442.501	1	433
442.671	1	405
442.842	1	402
443.012	1	390
443.183	1	381
443.353	1	408
443.524	1	399
443.694	1	412
443.865	1	395
444.035	1	392
444.206	1	390
444.376	1	402
444.547	1	410
444.717	1	389
444.888	1	397
445.058	1	396
445.229	1	380
445.399	1	389
445.570	1	403
445.740	1	391
445.911	1	389
446.081	1	383
446.252	1	399
446.422	1	378
446.593	1	387
446.763	1	377
446.934	1	374
447.104	1	388
447.275	1	377
447.445	1	376
447.616	1	357
447.786	1	357
447.957	1	362
448.127	1	364
448.298	1	351
448.468	1	367
448.639	1	342
448.809	1	353
448.979	1	372
449.150	1	352
449.320	1	365
449.491	1	353
449.661	1	343
449.832	1	363
450.002	1	357
450.173	1	354
450.343	1	348
450.514	1	337
450.684	1	344
450.855	1	356
451.025	1	353
451.196	1	327
451.366	1	346
451.537	1	352
451.707	1	336
451.878	1	325
452.048	1	338
452.218	1	338
452.389	1	325
452.559	1	322
452.730	1	326
452.900	1	337
453.071	1	324
453.241	1	315
453.412	1	319
453.582	1	318
453.753	1	307
453.923	1	320
454.093	1	315
454.264	1	321
454.434	1	321
454.605	1	320
454.775	1	294
454.946	1	305
455.116	1	310
455.287	1	299
455.457	1	298
455.628	1	315
455.798	1	289
455.968	1	303
456.139	1	297
456.309	1	280
456.480	1	284
456.650	1	304
456.821	1	292
456.991	1	266
457.161	1	293
457.332	1	291
457.502	1	278
457.673	1	282
457.843	1	285
458.014	1	283
458.184	1	286
458.355	1	270
458.525	1	268
458.695	1	287
458.866	1	264
459.036	1	260
459.207	1	255
459.377	1	274
459.548	1	260
459.718	1	253
459.888	1	261
460.059	1	246
460.229	1	255
460.400	1	240
460.570	1	267
460.740	1	244
460.911	1	253
461.081	1	256
461.252	1	243
461.422	1	253
461.593	1	235
461.763	1	258
461.933	1	249
462.104	1	249
462.274	1	228
462.445	1	240
462.615	1	234
462.785	1	228
462.956	1	212
463.126	1	226
463.297	1	229
463.467	1	246
463.638	1	224
463.808	1	234
463.978	1	218
464.149	1	217
464.319	1	207
464.490	1	204
464.660	1	220
464.830	1	225
465.001	1	216
465.171	1	216
465.342	1	214
465.512	1	197
465.682	1	218
465.853	1	206
466.023	1	201
466.194	1	208
466.364	1	183
466.534	1	216
466.705	1	201
466.875	1	199
467.045	1	185
467.216	1	182
467.386	1	197
467.557	1	189
467.727	1	200
467.897	1	189
468.068	1	189
468.238	1	182
468.409	1	177
468.579	1	186
468.749	1	190
468.920	1	191
469.090	1	178
469.260	1	171
469.431	1	182
469.601	1	176
469.772	1	166
469.942	1	166
470.112	1	176
470.283	1	169
470.453	1	165
470.623	1	172
470.794	1	175
470.964	1	180
471.135	1	173
471.305	1	179
471.475	1	180
471.646	1	172
471.816	1	151
471.986	1	147
472.157	1	152
472.327	1	163
472.497	1	158
472.668	1	156
472.838	1	157
473.009	1	163
473.179	1	174
473.349	1	158
473.520	1	140
473.690	1	144
473.860	1	160
474.031	1	148
474.201	1	152
474.371	1	153
474.542	1	149
474.712	1	141
474.882	1	164
475.053	1	137
475.223	1	140
475.394	1	146
475.564	1	130
475.734	1	149
475.905	1	146
476.075	1	131
476.245	1	132
476.416	1	146
476.586	1	128
476.756	1	131
476.927	1	145
477.097	1	139
477.267	1	129
477.438	1	130
477.608	1	125
477.778	1	137
477.949	1	152
478.119	1	130
478.289	1	121
478.460	1	111
478.630	1	134
478.800	1	126
478.971	1	129
479.141	1	114
479.311	1	137
479.482	1	109
479.652	1	115
479.822	1	130
479.993	1	118
480.163	1	121
480.333	1	113
480.504	1	121
480.674	1	124
480.844	1	117
481.015	1	116
481.185	1	117
481.355	1	116
481.525	1	116
481.696	1	114
481.866	1	115
482.036	1	115
482.207	1	103
482.377	1	106
482.547	1	114
482.718	1	111
482.888	1	102
483.058	1	106
483.229	1	121
483.399	1	111
483.569	1	105
483.740	1	98
483.910	1	107
484.080	1	103
484.250	1	106
484.421	1	97
484.591	1	101
484.761	1	107
484.932	1	113
485.102	1	98
485.272	1	99
485.443	1	94
485.613	1	104
485.783	1	104
485.953	1	96
486.124	1	90
486.294	1	99
486.464	1	83
486.635	1	93
486.805	1	98
486.975	1	98
487.146	1	94
487.316	1	87
487.486	1	84
487.656	1	106
487.827	1	92
487.997	1	102
488.167	1	82
488.338	1	88
488.508	1	96
488.678	1	86
488.848	1	91
489.019	1	83
489.189	1	89
489.359	1	85
489.529	1	65
489.700	1	91
489.870	1	82
490.040	1	88
490.211	1	85
490.381	1	89
490.551	1	83
490.721	1	75
490.892	1	82
491.062	1	89
491.232	1	82
491.402	1	75
491.573	1	82
491.743	1	74
491.913	1	75
492.084	1	78
492.254	1	83
492.424	1	79
492.594	1	74
492.765	1	70
492.935	1	73
493.105	1	76
493.275	1	80
493.446	1	72
493.616	1	65
493.786	1	72
493.956	1	73
494.127	1	68
494.297	1	68
494.467	1	67
494.637	1	72
494.808	1	73
494.978	1	73
495.148	1	74
495.318	1	59
495.489	1	64
495.659	1	75
495.829	1	65
495.999	1	80
496.170	1	69
496.340	1	73
496.510	1	66
496.680	1	74
496.851	1	56
497.021	1	69
497.191	1	54
497.361	1	71
497.532	1	64
497.702	1	70
497.872	1	69
498.042	1	77
498.213	1	65
498.383	1	57
498.553	1	61
498.723	1	59
498.894	1	65
499.064	1	58
499.234	1	62
499.404	1	63
499.574	1	68
499.745	1	67
499.915	1	55
500.085	1	55
500.255	1	64
500.426	1	62
500.596	1	71
500.766	1	47
500.936	1	59
501.106	1	63
501.277	1	56
501.447	1	51
501.617	1	62
501.787	1	56
501.958	1	66
502.128	1	55
502.298	1	51
502.468	1	59
502.638	1	64
502.809	1	51
502.979	1	53
503.149	1	58
503.319	1	58
503.489	1	59
503.660	1	57
503.830	1	61
504.000	1	53
504.170	1	55
504.340	1	63
504.511	1	59
504.681	1	57
504.851	1	53
505.021	1	56
505.192	1	55
505.362	1	47
505.532	1	54
505.702	1	55
505.872	1	54
506.043	1	44
506.213	1	60
506.383	1	58
506.553	1	47
506.723	1	55
506.893	1	54
507.064	1	50
507.234	1	55
507.404	1	44
507.574	1	58
507.744	1	60
507.915	1	49
508.085	1	62
508.255	1	54
508.425	1	35
508.595	1	58
508.766	1	51
508.936	1	47
509.106	1	56
509.276	1	36
509.446	1	46
509.616	1	47
509.787	1	47
509.957	1	49
510.127	1	51
510.297	1	59
510.467	1	65
510.638	1	48
510.808	1	47
510.978	1	53
511.148	1	49
511.318	1	38
511.488	1	50
511.659	1	33
511.829	1	53
511.999	1	38
512.169	1	52
512.339	1	46
512.509	1	53
512.680	1	53
512.850	1	34
513.020	1	41
513.190	1	47
513.360	1	41
513.530	1	36
513.700	1	46
513.871	1	47
514.041	1	38
514.211	1	39
514.381	1	48
514.551	1	36
514.721	1	40
514.892	1	47
515.062	1	44
515.232	1	42
515.402	1	43
515.572	1	42
515.742	1	45
515.912	1	51
516.083	1	46
516.253	1	40
516.423	1	43
516.593	1	45
516.763	1	49
516.933	1	40
517.104	1	44
517.274	1	33
517.444	1	47
517.614	1	39
517.784	1	39
517.954	1	38
518.124	1	40
518.294	1	35
518.465	1	41
518.635	1	44
518.805	1	38
518.975	1	32
519.145	1	42
519.315	1	42
519.485	1	36
519.656	1	36
519.826	1	31
519.996	1	23
520.166	1	33
520.336	1	32
520.506	1	29
520.676	1	43
520.846	1	32
521.017	1	36
521.187	1	37
521.357	1	43
521.527	1	34
521.697	1	33
521.867	1	28
522.037	1	34
522.207	1	40
522.377	1	35
522.548	1	32
522.718	1	37
522.888	1	36
523.058	1	42
523.228	1	35
523.398	1	41
523.568	1	23
523.738	1	45
523.909	1	44
524.079	1	42
524.249	1	32
524.419	1	31
524.589	1	39
524.759	1	33
524.929	1	41
525.099	1	39
525.269	1	43
525.439	1	29
525.610	1	44
525.780	1	34
525.950	1	33
526.120	1	42
526.290	1	40
526.460	1	45
526.630	1	32
526.800	1	36
526.970	1	24
527.140	1	24
527.311	1	31
527.481	1	23
527.651	1	46
527.821	1	33
527.991	1	37
528.161	1	40
528.331	1	44
528.501	1	23
528.671	1	33
528.841	1	32
529.011	1	36
529.181	1	35
529.352	1	30
529.522	1	24
529.692	1	39
529.862	1	37
530.032	1	33
530.202	1	30
530.372	1	33
530.542	1	31
530.712	1	28
530.882	1	24
531.052	1	30
531.222	1	35
531.392	1	38
531.563	1	38
531.733	1	21
531.903	1	41
532.073	1	35
532.243	1	36
532.413	1	34
532.583	1	37
532.753	1	38
532.923	1	26
533.093	1	26
533.263	1	27
533.433	1	31
533.603	1	40
533.773	1	34
533.943	1	37
534.113	1	35
534.284	1	33
534.454	1	31
534.624	1	35
534.794	1	30
534.964	1	33
535.134	1	24
535.304	1	27
535.474	1	27
535.644	1	21
535.814	1	32
535.984	1	36
536.154	1	35
536.324	1	36
536.494	1	22
536.664	1	34
536.834	1	32
537.004	1	26
537.174	1	24
537.344	1	41
537.514	1	28
537.685	1	35
537.855	1	28
538.025	1	32
538.195	1	21
538.365	1	21
538.535	1	22
538.705	1	42
538.875	1	30
539.045	1	26
539.215	1	29
539.385	1	28
539.555	1	38
539.725	1	19
539.895	1	26
540.065	1	24
540.235	1	20
540.405	1	25
540.575	1	39
540.745	1	37
540.915	1	28
541.085	1	29
541.255	1	29
541.425	1	35
541.595	1	24
541.765	1	21
541.935	1	26
542.105	1	21
542.275	1	34
542.445	1	28
542.615	1	32
542.785	1	21
542.955	1	32
543.125	1	26
543.295	1	29
543.465	1	21
543.635	1	24
543.805	1	36
543.975	1	25
544.145	1	29
544.315	1	25
544.485	1	26
544.655	1	27
544.825	1	27
544.995	1	36
545.165	1	26
545.335	1	35
545.505	1	33
545.675	1	34
545.845	1	20
546.015	1	29
546.185	1	32
546.355	1	45
546.525	1	27
546.695	1	23
546.865	1	31
547.035	1	27
547.205	1	50
547.375	1	33
547.545	1	25
547.715	1	23
547.885	1	14
548.055	1	27
548.225	1	32
548.395	1	24
548.565	1	39
548.735	1	37
548.905	1	27
549.075	1	33
549.245	1	21
549.415	1	23
549.585	1	19
549.755	1	32
549.925	1	41
550.095	1	17
550.265	1	24
550.435	1	31
550.605	1	17
550.775	1	18
550.945	1	24
551.115	1	8
551.285	1	30
551.455	1	21
551.625	1	30
551.795	1	14
551.965	1	27
552.135	1	28
552.305	1	35
552.475	1	49
552.645	1	20
552.815	1	30
552.985	1	36
553.155	1	19
553.325	1	21
553.495	1	21
553.665	1	16
553.835	1	32
554.004	1	11
554.174	1	22
554.344	1	32
554.514	1	14
554.684	1	25
554.854	1	31
555.024	1	24
555.194	1	26
555.364	1	26
555.534	1	25
555.704	1	33
555.874	1	13
556.044	1	12
556.214	1	25
556.384	1	17
556.554	1	11
556.724	1	24
556.894	1	15
557.064	1	19
557.234	1	27
557.404	1	19
557.573	1	29
557.743	1	27
557.913	1	24
558.083	1	20
558.253	1	27
558.423	1	19
558.593	1	38
558.763	1	28
558.933	1	10
559.103	1	28
559.273	1	19
559.443	1	8
559.613	1	31
559.783	1	18
559.953	1	15
560.122	1	22
560.292	1	13
560.462	1	18
560.632	1	22
560.802	1	26
560.972	1	11
561.142	1	20
561.312	1	18
561.482	1	19
561.652	1	8
561.822	1	12
561.992	1	23
562.162	1	17
562.331	1	30
562.501	1	32
562.671	1	18
562.841	1	15
563.011	1	39
563.181	1	19
563.351	1	29
563.521	1	10
563.691	1	16
563.861	1	37
564.031	1	7
564.201	1	12
564.370	1	23
564.540	1	27
564.710	1	4
564.880	1	23
565.050	1	17
565.220	1	16
565.390	1	17
565.560	1	22
565.730	1	19
565.900	1	19
566.069	1	1
566.239	1	25
566.409	1	21
566.579	1	8
566.749	1	10
566.919	1	9
567.089	1	17
567.259	1	22
567.429	1	22
567.599	1	32
567.768	1	32
567.938	1	18
568.108	1	19
568.278	1	26
568.448	1	11
568.618	1	22
568.788	1	24
568.958	1	19
569.128	1	21
569.297	1	32
569.467	1	19
569.637	1	11
569.807	1	35
569.977	1	9
570.147	1	17
570.317	1	16
570.487	1	22
570.656	1	18
570.826	1	32
570.996	1	14
571.166	1	21
571.336	1	7
571.506	1	21
571.676	1	13
571.846	1	21
572.015	1	7
572.185	1	24
572.355	1	33
572.525	1	24
572.695	1	19
572.865	1	28
573.035	1	12
573.205	1	7
573.374	1	21
573.544	1	12
573.714	1	15
573.884	1	33
574.054	1	24
574.224	1	23
574.394	1	11
574.563	1	16
574.733	1	31
574.903	1	17
575.073	1	13
575.243	1	20
575.413	1	18
575.583	1	25
575.752	1	26
575.922	1	27
576.092	1	14
576.262	1	19
576.432	1	11
576.602	1	21
576.772	1	12
576.941	1	14
577.111	1	26
577.281	1	29
577.451	1	31
577.621	1	17
577.791	1	18
577.960	1	21
578.130	1	10
578.300	1	16
578.470	1	14
578.640	1	21
578.810	1	20
578.979	1	20
579.149	1	23
579.319	1	33
579.489	1	26
579.659	1	29
579.829	1	13
579.998	1	16
580.168	1	15
580.338	1	19
580.508	1	28
580.678	1	12
580.848	1	26
581.017	1	15
581.187	1	21
581.357	1	25
581.527	1	19
581.697	1	5
581.867	1	21
582.036	1	19
582.206	1	18
582.376	1	12
582.546	1	22
582.716	1	24
582.885	1	24
583.055	1	26
583.225	1	24
583.395	1	26
583.565	1	31
583.735	1	18
583.904	1	25
584.074	1	14
584.244	1	10
584.414	1	32
584.584	1	12
584.753	1	15
584.923	1	14
585.093	1	19
585.263	1	25
585.433	1	19
585.602	1	25
585.772	1	19
585.942	1	24
586.112	1	8
586.282	1	27
586.451	1	27
586.621	1	28
586.791	1	33
586.961	1	21
587.131	1	33
587.300	1	31
587.470	1	20
587.640	1	33
587.810	1	18
587.980	1	22
588.149	1	36
588.319	1	21
588.489	1	23
588.659	1	31
588.829	1	24
588.998	1	34
589.168	1	28
589.338	1	22
589.508	1	27
589.677	1	27
589.847	1	21
590.017	1	24
590.187	1	21
590.357	1	34
590.526	1	26
590.696	1	27
590.866	1	16
591.036	1	35
591.205	1	27
591.375	1	18
591.545	1	21
591.715	1	31
591.885	1	32
592.054	1	24
592.224	1	35
592.394	1	35
592.564	1	39
592.733	1	28
592.903	1	26
593.073	1	37
593.243	1	38
593.412	1	32
593.582	1	23
593.752	1	29
593.922	1	38
594.091	1	35
594.261	1	23
594.431	1	34
594.601	1	32
594.771	1	31
594.940	1	36
595.110	1	38
595.280	1	47
595.450	1	42
595.619	1	27
595.789	1	41
595.959	1	38
596.129	1	40
596.298	1	37
596.468	1	27
596.638	1	35
596.808	1	42
596.977	1	32
597.147	1	41
597.317	1	38
597.487	1	32
597.656	1	24
597.826	1	31
597.996	1	39
598.166	1	33
598.335	1	43
598.505	1	47
598.675	1	44
598.844	1	39
599.014	1	36
599.184	1	34
599.354	1	49
599.523	1	33
599.693	1	44
599.863	1	45
600.033	1	43
600.202	1	43
600.372	1	43
600.542	1	48
600.712	1	42
600.881	1	49
601.051	1	39
601.221	1	54
601.390	1	46
601.560	1	43
601.730	1	40
601.900	1	45
602.069	1	55
602.239	1	38
602.409	1	50
602.578	1	41
602.748	1	46
602.918	1	42
603.088	1	47
603.257	1	53
603.427	1	55
603.597	1	39
603.767	1	53
603.936	1	51
604.106	1	54
604.276	1	46
604.445	1	45
604.615	1	65
604.785	1	56
604.954	1	48
605.124	1	68
605.294	1	62
605.464	1	50
605.633	1	61
605.803	1	56
605.973	1	60
606.142	1	57
606.312	1	57
606.482	1	53
606.652	1	60
606.821	1	57
606.991	1	56
607.161	1	59
607.330	1	60
607.500	1	66
607.670	1	60
607.839	1	64
608.009	1	57
608.179	1	60
608.348	1	58
608.518	1	62
608.688	1	63
608.858	1	73
609.027	1	73
609.197	1	54
609.367	1	66
609.536	1	77
609.706	1	63
609.876	1	74
610.045	1	65
610.215	1	70
610.385	1	65
610.554	1	71
610.724	1	64
610.894	1	84
611.063	1	77
611.233	1	68
611.403	1	74
611.572	1	78
611.742	1	70
611.912	1	67
612.081	1	80
612.251	1	70
612.421	1	86
612.590	1	69
612.760	1	92
612.930	1	76
613.099	1	90
613.269	1	75
613.439	1	89
613.608	1	87
613.778	1	94
613.948	1	73
614.117	1	74
614.287	1	71
614.457	1	85
614.626	1	89
614.796	1	86
614.966	1	101
615.135	1	99
615.305	1	84
615.475	1	106
615.644	1	89
615.814	1	86
615.984	1	89
616.153	1	94
616.323	1	82
616.493	1	89
616.662	1	102
616.832	1	84
617.002	1	105
617.171	1	87
617.341	1	102
617.511	1	97
617.680	1	95
617.850	1	96
618.019	1	91
618.189	1	99
618.359	1	93
618.528	1	103
618.698	1	107
618.868	1	101
619.037	1	100
619.207	1	102
619.377	1	91
619.546	1	99
619.716	1	100
619.885	1	103
620.055	1	108
620.225	1	107
620.394	1	103
620.564	1	116
620.734	1	110
620.903	1	122
621.073	1	107
621.242	1	120
621.412	1	104
621.582	1	123
621.751	1	107
621.921	1	108
622.091	1	107
622.260	1	100
622.430	1	118
622.599	1	95
622.769	1	117
622.939	1	119
623.108	1	111
623.278	1	123
623.448	1	115
623.617	1	115
623.787	1	121
623.956	1	116
624.126	1	133
624.296	1	109
624.465	1	126
624.635	1	115
624.804	1	120
624.974	1	122
625.144	1	132
625.313	1	131
625.483	1	128
625.652	1	128
625.822	1	126
625.992	1	129
626.161	1	132
626.331	1	134
626.501	1	127
626.670	1	125
626.840	1	133
627.009	1	123
627.179	1	137
627.348	1	136
627.518	1	141
627.688	1	129
627.857	1	135
628.027	1	145
628.196	1	138
628.366	1	133
628.536	1	144
628.705	1	140
628.875	1	143
629.044	1	141
629.214	1	132
629.384	1	132
629.553	1	141
629.723	1	149
629.892	1	149
630.062	1	146
630.232	1	133
630.401	1	153
630.571	1	143
630.740	1	148
630.910	1	148
631.079	1	152
631.249	1	149
631.419	1	140
631.588	1	137
631.758	1	161
631.927	1	151
632.097	1	157
632.266	1	129
632.436	1	156
632.606	1	164
632.775	1	144
632.945	1	142
633.114	1	177
633.284	1	141
633.453	1	150
633.623	1	155
633.793	1	152
633.962	1	159
634.132	1	150
634.301	1	163
634.471	1	146
634.640	1	145
634.810	1	158
634.979	1	160
635.149	1	162
635.319	1	156
635.488	1	164
635.658	1	163
635.827	1	172
635.997	1	175
636.166	1	162
636.336	1	158
636.505	1	158
636.675	1	161
636.845	1	166
637.014	1	162
637.184	1	166
637.353	1	176
637.523	1	170
637.692	1	171
637.862	1	162
638.031	1	167
638.201	1	165
638.370	1	182
638.540	1	175
638.710	1	157
638.879	1	173
639.049	1	164
639.218	1	180
639.388	1	167
639.557	1	161
639.727	1	192
639.896	1	171
640.066	1	177
640.235	1	165
640.405	1	189
640.574	1	181
640.744	1	181
640.914	1	173
641.083	1	189
641.253	1	176
641.422	1	170
641.592	1	171
641.761	1	179
641.931	1	172
642.100	1	172
642.270	1	184
642.439	1	193
642.609	1	180
642.778	1	177
642.948	1	185
643.117	1	192
643.287	1	178
643.456	1	190
643.626	1	176
643.795	1	176
643.965	1	175
644.134	1	188
644.304	1	165
644.473	1	181
644.643	1	182
644.812	1	179
644.982	1	174
645.151	1	187
645.321	1	187
645.490	1	181
645.660	1	186
645.829	1	181
645.999	1	184
646.168	1	189
646.338	1	156
646.507	1	170
646.677	1	179
646.846	1	163
647.016	1	196
647.185	1	189
647.355	1	189
647.524	1	167
647.694	1	182
647.863	1	185
648.033	1	186
648.202	1	180
648.372	1	193
648.541	1	192
648.711	1	193
648.880	1	192
649.050	1	182
649.219	1	168
649.389	1	182
649.558	1	178
649.728	1	175
649.897	1	199
650.067	1	168
650.236	1	176
650.406	1	178
650.575	1	191
650.745	1	175
650.914	1	173
651.084	1	176
651.253	1	191
651.423	1	184
651.592	1	179
651.762	1	196
651.931	1	163
652.101	1	169
652.270	1	166
652.440	1	182
652.609	1	178
652.778	1	186
652.948	1	183
653.117	1	185
653.287	1	176
653.456	1	159
653.626	1	186
653.795	1	191
653.965	1	189
654.134	1	186
654.304	1	180
654.473	1	177
654.643	1	189
654.812	1	185
654.982	1	177
655.151	1	173
655.320	1	175
655.490	1	176
655.659	1	188
655.829	1	176
655.998	1	168
656.168	1	177
656.337	1	164
656.507	1	177
656.676	1	185
656.846	1	183
657.015	1	169
657.184	1	177
657.354	1	183
657.523	1	169
657.693	1	164
657.862	1	162
658.032	1	158
658.201	1	171
658.371	1	162
658.540	1	172
658.709	1	171
658.879	1	171
659.048	1	164
659.218	1	176
659.387	1	166
659.557	1	177
659.726	1	169
659.895	1	160
660.065	1	165
660.234	1	167
660.404	1	157
660.573	1	173
660.743	1	173
660.912	1	167
661.081	1	148
661.251	1	173
661.420	1	155
661.590	1	159
661.759	1	174
661.929	1	145
662.098	1	163
662.267	1	166
662.437	1	159
662.606	1	154
662.776	1	152
662.945	1	154
663.115	1	153
663.284	1	144
663.453	1	160
663.623	1	158
663.792	1	147
663.962	1	166
664.131	1	138
664.300	1	152
664.470	1	151
664.639	1	156
664.809	1	153
664.978	1	162
665.148	1	158
665.317	1	147
665.486	1	138
665.656	1	174
665.825	1	168
665.995	1	144
666.164	1	150
666.333	1	147
666.503	1	161
666.672	1	133
666.842	1	144
667.011	1	165
667.180	1	135
667.350	1	142
667.519	1	140
667.689	1	141
667.858	1	150
668.027	1	161
668.197	1	152
668.366	1	146
668.536	1	147
668.705	1	132
668.874	1	128
669.044	1	139
669.213	1	141
669.382	1	146
669.552	1	136
669.721	1	150
669.891	1	151
670.060	1	126
670.229	1	124
670.399	1	140
670.568	1	139
670.738	1	134
670.907	1	121
671.076	1	138
671.246	1	136
671.415	1	136
671.584	1	146
671.754	1	131
671.923	1	144
672.093	1	135
672.262	1	150
672.431	1	126
672.601	1	131
672.770	1	125
672.939	1	130
673.109	1	126
673.278	1	135
673.448	1	129
673.617	1	121
673.786	1	114
