325.333	1	28
325.504	1	20
325.675	1	21
325.846	1	15
326.017	1	18
326.188	1	31
326.359	1	40
326.531	1	23
326.702	1	21
326.873	1	25
327.044	1	24
327.215	1	29
327.386	1	21
327.557	1	39
327.728	1	30
327.899	1	24
328.070	1	23
328.241	1	36
328.412	1	33
328.583	1	24
328.754	1	27
328.926	1	31
329.097	1	33
329.268	1	45
329.439	1	33
329.610	1	33
329.781	1	30
329.952	1	35
330.123	1	20
330.294	1	27
330.465	1	28
330.636	1	35
330.807	1	29
330.978	1	28
331.149	1	38
331.320	1	32
331.492	1	27
331.663	1	32
331.834	1	37
332.005	1	36
332.176	1	38
332.347	1	42
332.518	1	33
332.689	1	38
332.860	1	34
333.031	1	33
333.202	1	29
333.373	1	44
333.544	1	41
333.715	1	34
333.886	1	27
334.057	1	40
334.228	1	27
334.399	1	30
334.570	1	21
334.741	1	30
334.912	1	26
335.084	1	35
335.255	1	31
335.426	1	27
335.597	1	39
335.768	1	35
335.939	1	35
336.110	1	33
336.281	1	33
336.452	1	33
336.623	1	43
336.794	1	42
336.965	1	27
337.136	1	36
337.307	1	34
337.478	1	27
337.649	1	45
337.820	1	37
337.991	1	35
338.162	1	35
338.333	1	27
338.504	1	46
338.675	1	30
338.846	1	42
339.017	1	33
339.188	1	39
339.359	1	30
339.530	1	31
339.701	1	41
339.872	1	31
340.043	1	31
340.214	1	39
340.385	1	45
340.556	1	36
340.727	1	35
340.898	1	39
341.069	1	25
341.240	1	31
341.411	1	46
341.582	1	29
341.753	1	28
341.924	1	35
342.095	1	32
342.266	1	39
342.437	1	33
342.608	1	28
342.779	1	44
342.950	1	24
343.121	1	37
343.292	1	30
343.463	1	39
343.634	1	30
343.805	1	29
343.976	1	30
344.147	1	34
344.318	1	30
344.489	1	37
344.660	1	29
344.831	1	30
345.002	1	35
345.173	1	34
345.344	1	36
345.515	1	38
345.686	1	36
345.857	1	46
346.028	1	29
346.199	1	34
346.370	1	28
346.541	1	30
346.712	1	35
346.883	1	23
347.054	1	32
347.225	1	28
347.396	1	20
347.567	1	41
347.738	1	32
347.909	1	41
348.080	1	31
348.251	1	32
348.422	1	26
348.593	1	30
348.764	1	34
348.935	1	24
349.106	1	18
349.277	1	15
349.448	1	30
349.619	1	21
349.790	1	22
349.961	1	37
350.132	1	30
350.303	1	32
350.474	1	26
350.645	1	28
350.816	1	20
350.987	1	27
351.157	1	15
351.328	1	25
351.499	1	19
351.670	1	25
351.841	1	40
352.012	1	32
352.183	1	18
352.354	1	29
352.525	1	27
352.696	1	38
352.867	1	14
353.038	1	43
353.209	1	21
353.380	1	25
353.551	1	29
353.722	1	24
353.893	1	29
354.064	1	20
354.235	1	13
354.406	1	22
354.576	1	23
354.747	1	21
354.918	1	20
355.089	1	13
355.260	1	20
355.431	1	24
355.602	1	23
355.773	1	-4
355.944	1	21
356.115	1	10
356.286	1	15
356.457	1	26
356.628	1	12
356.799	1	26
356.970	1	17
357.141	1	17
357.311	1	17
357.482	1	16
357.653	1	9
357.824	1	10
357.995	1	21
358.166	1	17
358.337	1	19
358.508	1	19
358.679	1	12
358.850	1	17
359.021	1	15
359.192	1	20
359.363	1	30
359.533	1	11
359.704	1	29
359.875	1	16
360.046	1	20
360.217	1	17
360.388	1	34
360.559	1	17
360.730	1	27
360.901	1	19
361.072	1	13
361.243	1	22
361.414	1	8
361.584	1	18
361.755	1	28
361.926	1	14
362.097	1	28
362.268	1	23
362.439	1	7
362.610	1	12
362.781	1	19
362.952	1	5
363.123	1	12
363.293	1	21
363.464	1	8
363.635	1	24
363.806	1	8
363.977	1	11
364.148	1	-2
364.319	1	5
364.490	1	8
364.661	1	14
364.832	1	16
365.002	1	14
365.173	1	5
365.344	1	9
365.515	1	8
365.686	1	7
365.857	1	11
366.028	1	8
366.199	1	3
366.370	1	10
366.540	1	11
366.711	1	7
366.882	1	15
367.053	1	11
367.224	1	16
367.395	1	9
367.566	1	8
367.737	1	3
367.908	1	3
368.078	1	5
368.249	1	13
368.420	1	15
368.591	1	13
368.762	1	8
368.933	1	5
369.104	1	13
369.274	1	-1
369.445	1	8
369.616	1	-2
369.787	1	14
369.958	1	-3
370.129	1	9
370.300	1	11
370.471	1	8
370.641	1	1
370.812	1	5
370.983	1	12
371.154	1	17
371.325	1	7
371.496	1	11
371.667	1	6
371.837	1	3
372.008	1	0
372.179	1	8
372.350	1	3
372.521	1	14
372.692	1	1
372.863	1	8
373.033	1	13
373.204	1	12
373.375	1	6
373.546	1	5
373.717	1	-9
373.888	1	2
374.059	1	1
374.229	1	3
374.400	1	0
374.571	1	7
374.742	1	3
374.913	1	0
375.084	1	3
375.254	1	4
375.425	1	11
375.596	1	9
375.767	1	10
375.938	1	3
376.109	1	-1
376.279	1	3
376.450	1	10
376.621	1	1
376.792	1	7
376.963	1	14
377.134	1	11
377.304	1	6
377.475	1	7
377.646	1	12
377.817	1	-7
377.988	1	7
378.159	1	8
378.329	1	21
378.500	1	-6
378.671	1	7
378.842	1	11
379.013	1	3
379.184	1	4
379.354	1	8
379.525	1	0
379.696	1	3
379.867	1	2
380.038	1	12
380.209	1	-1
380.379	1	0
380.550	1	8
380.721	1	1
380.892	1	11
381.063	1	8
381.233	1	9
381.404	1	11
381.575	1	10
381.746	1	9
381.917	1	18
382.087	1	5
382.258	1	-7
382.429	1	17
382.600	1	8
382.771	1	-1
382.941	1	11
383.112	1	17
383.283	1	10
383.454	1	15
383.625	1	13
383.795	1	13
383.966	1	-3
384.137	1	9
384.308	1	10
384.479	1	19
384.649	1	9
384.820	1	10
384.991	1	6
385.162	1	14
385.333	1	6
385.503	1	7
385.674	1	15
385.845	1	-4
386.016	1	10
386.187	1	7
386.357	1	10
386.528	1	10
386.699	1	15
386.870	1	13
387.041	1	3
387.211	1	7
387.382	1	7
387.553	1	11
387.724	1	3
387.894	1	22
388.065	1	11
388.236	1	13
388.407	1	15
388.578	1	13
388.748	1	15
388.919	1	7
389.090	1	3
389.261	1	17
389.431	1	3
389.602	1	16
389.773	1	10
389.944	1	14
390.114	1	14
390.285	1	5
390.456	1	25
390.627	1	18
390.798	1	9
390.968	1	1
391.139	1	13
391.310	1	9
391.481	1	7
391.651	1	14
391.822	1	13
391.993	1	-1
392.164	1	19
392.334	1	9
392.505	1	13
392.676	1	4
392.847	1	26
393.017	1	15
393.188	1	11
393.359	1	16
393.530	1	15
393.700	1	27
393.871	1	5
394.042	1	13
394.213	1	27
394.383	1	9
394.554	1	14
394.725	1	17
394.896	1	21
395.066	1	6
395.237	1	1
395.408	1	15
395.579	1	22
395.749	1	16
395.920	1	14
396.091	1	27
396.262	1	4
396.432	1	5
396.603	1	33
396.774	1	2
396.945	1	11
397.115	1	23
397.286	1	13
397.457	1	9
397.627	1	17
397.798	1	21
397.969	1	16
398.140	1	27
398.310	1	18
398.481	1	11
398.652	1	11
398.823	1	13
398.993	1	35
399.164	1	14
399.335	1	14
399.505	1	31
399.676	1	26
399.847	1	18
400.018	1	26
400.188	1	29
400.359	1	20
400.530	1	18
400.700	1	31
400.871	1	26
401.042	1	21
401.213	1	29
401.383	1	47
401.554	1	29
401.725	1	33
401.895	1	21
402.066	1	31
402.237	1	21
402.408	1	22
402.578	1	20
402.749	1	17
402.920	1	39
403.090	1	34
403.261	1	19
403.432	1	30
403.603	1	33
403.773	1	34
403.944	1	37
404.115	1	35
404.285	1	39
404.456	1	40
404.627	1	32
404.797	1	35
404.968	1	32
405.139	1	21
405.310	1	33
405.480	1	23
405.651	1	42
405.822	1	32
405.992	1	16
406.163	1	27
406.334	1	34
406.504	1	28
406.675	1	36
406.846	1	32
407.016	1	41
407.187	1	21
407.358	1	24
407.528	1	22
407.699	1	35
407.870	1	25
408.041	1	33
408.211	1	18
408.382	1	31
408.553	1	36
408.723	1	36
408.894	1	34
409.065	1	24
409.235	1	37
409.406	1	39
409.577	1	26
409.747	1	22
409.918	1	47
410.089	1	41
410.259	1	44
410.430	1	41
410.601	1	35
410.771	1	30
410.942	1	33
411.113	1	38
411.283	1	40
411.454	1	24
411.625	1	42
411.795	1	37
411.966	1	39
412.137	1	33
412.307	1	25
412.478	1	44
412.649	1	33
412.819	1	38
412.990	1	30
413.161	1	29
413.331	1	35
413.502	1	42
413.672	1	44
413.843	1	47
414.014	1	44
414.184	1	30
414.355	1	36
414.526	1	30
414.696	1	50
414.867	1	41
415.038	1	54
415.208	1	44
415.379	1	40
415.550	1	42
415.720	1	39
415.891	1	58
416.062	1	41
416.232	1	33
416.403	1	40
416.573	1	41
416.744	1	43
416.915	1	41
417.085	1	49
417.256	1	44
417.427	1	48
417.597	1	48
417.768	1	50
417.939	1	49
418.109	1	33
418.280	1	46
418.450	1	37
418.621	1	41
418.792	1	31
418.962	1	46
419.133	1	41
419.304	1	44
419.474	1	47
419.645	1	49
419.815	1	31
419.986	1	40
420.157	1	48
420.327	1	45
420.498	1	49
420.669	1	47
420.839	1	38
421.010	1	42
421.180	1	40
421.351	1	44
421.522	1	35
421.692	1	40
421.863	1	34
422.033	1	44
422.204	1	45
422.375	1	47
422.545	1	40
422.716	1	42
422.886	1	41
423.057	1	45
423.228	1	48
423.398	1	35
423.569	1	32
423.740	1	34
423.910	1	59
424.081	1	32
424.251	1	44
424.422	1	44
424.593	1	41
424.763	1	42
424.934	1	43
425.104	1	48
425.275	1	38
425.445	1	29
425.616	1	33
425.787	1	49
425.957	1	43
426.128	1	42
426.298	1	42
426.469	1	40
426.640	1	45
426.810	1	45
426.981	1	40
427.151	1	51
427.322	1	43
427.493	1	47
427.663	1	44
427.834	1	55
428.004	1	42
428.175	1	45
428.345	1	37
428.516	1	40
428.687	1	45
428.857	1	59
429.028	1	45
429.198	1	46
429.369	1	44
429.540	1	47
429.710	1	45
429.881	1	41
430.051	1	48
430.222	1	44
430.392	1	47
430.563	1	39
430.734	1	47
430.904	1	58
431.075	1	45
431.245	1	51
431.416	1	53
431.586	1	44
431.757	1	44
431.927	1	46
432.098	1	44
432.269	1	33
432.439	1	43
432.610	1	37
432.780	1	39
432.951	1	42
433.121	1	56
433.292	1	35
433.462	1	34
433.633	1	45
433.804	1	53
433.974	1	42
434.145	1	40
434.315	1	46
434.486	1	54
434.656	1	53
434.827	1	47
434.997	1	41
435.168	1	36
435.339	1	40
435.509	1	46
435.680	1	46
435.850	1	42
436.021	1	47
436.191	1	59
436.362	1	47
436.532	1	53
436.703	1	51
436.873	1	48
437.044	1	39
437.214	1	40
437.385	1	51
437.556	1	40
437.726	1	41
437.897	1	39
438.067	1	49
438.238	1	44
438.408	1	51
438.579	1	40
438.749	1	43
438.920	1	40
439.090	1	58
439.261	1	37
439.431	1	46
439.602	1	54
439.772	1	56
439.943	1	36
440.113	1	44
440.284	1	41
440.455	1	54
440.625	1	33
440.796	1	40
440.966	1	43
441.137	1	47
441.307	1	43
441.478	1	51
441.648	1	45
441.819	1	45
441.989	1	54
442.160	1	43
442.330	1	33
442.501	1	39
442.671	1	46
442.842	1	37
443.012	1	47
443.183	1	36
443.353	1	56
443.524	1	47
443.694	1	41
443.865	1	41
444.035	1	39
444.206	1	35
444.376	1	34
444.547	1	46
444.717	1	40
444.888	1	44
445.058	1	51
445.229	1	37
445.399	1	43
445.570	1	51
445.740	1	38
445.911	1	40
446.081	1	46
446.252	1	43
446.422	1	52
446.593	1	41
446.763	1	38
446.934	1	48
447.104	1	48
447.275	1	49
447.445	1	50
447.616	1	37
447.786	1	38
447.957	1	44
448.127	1	40
448.298	1	48
448.468	1	47
448.639	1	47
448.809	1	36
448.979	1	50
449.150	1	44
449.320	1	46
449.491	1	52
449.661	1	41
449.832	1	39
450.002	1	43
450.173	1	39
450.343	1	49
450.514	1	41
450.684	1	44
450.855	1	38
451.025	1	55
451.196	1	37
451.366	1	43
451.537	1	32
451.707	1	22
451.878	1	31
452.048	1	36
452.218	1	42
452.389	1	38
452.559	1	35
452.730	1	39
452.900	1	51
453.071	1	35
453.241	1	36
453.412	1	37
453.582	1	42
453.753	1	26
453.923	1	47
454.093	1	42
454.264	1	46
454.434	1	39
454.605	1	32
454.775	1	35
454.946	1	35
455.116	1	24
455.287	1	42
455.457	1	34
455.628	1	38
455.798	1	43
455.968	1	44
456.139	1	36
456.309	1	41
456.480	1	33
456.650	1	37
456.821	1	37
456.991	1	25
457.161	1	41
457.332	1	19
457.502	1	34
457.673	1	41
457.843	1	45
458.014	1	33
458.184	1	42
458.355	1	39
458.525	1	41
458.695	1	32
458.866	1	23
459.036	1	33
459.207	1	32
459.377	1	38
459.548	1	39
459.718	1	38
459.888	1	28
460.059	1	28
460.229	1	32
460.400	1	25
460.570	1	29
460.740	1	42
460.911	1	38
461.081	1	45
461.252	1	35
461.422	1	44
461.593	1	22
461.763	1	42
461.933	1	31
462.104	1	37
462.274	1	24
462.445	1	42
462.615	1	29
462.785	1	29
462.956	1	26
463.126	1	42
463.297	1	39
463.467	1	35
463.638	1	40
463.808	1	30
463.978	1	25
464.149	1	31
464.319	1	32
464.490	1	36
464.660	1	22
464.830	1	43
465.001	1	35
465.171	1	29
465.342	1	37
465.512	1	23
465.682	1	33
465.853	1	27
466.023	1	37
466.194	1	31
466.364	1	22
466.534	1	40
466.705	1	41
466.875	1	26
467.045	1	18
467.216	1	20
467.386	1	29
467.557	1	38
467.727	1	37
467.897	1	30
468.068	1	31
468.238	1	27
468.409	1	22
468.579	1	36
468.749	1	24
468.920	1	25
469.090	1	9
469.260	1	21
469.431	1	32
469.601	1	33
469.772	1	21
469.942	1	37
470.112	1	26
470.283	1	17
470.453	1	30
470.623	1	27
470.794	1	20
470.964	1	44
471.135	1	22
471.305	1	30
471.475	1	35
471.646	1	19
471.816	1	30
471.986	1	28
472.157	1	39
472.327	1	32
472.497	1	29
472.668	1	18
472.838	1	24
473.009	1	34
473.179	1	30
473.349	1	21
473.520	1	23
473.690	1	30
473.860	1	31
474.031	1	25
474.201	1	11
474.371	1	33
474.542	1	19
474.712	1	16
474.882	1	32
475.053	1	15
475.223	1	12
475.394	1	21
475.564	1	6
475.734	1	28
475.905	1	27
476.075	1	25
476.245	1	27
476.416	1	22
476.586	1	11
476.756	1	40
476.927	1	18
477.097	1	22
477.267	1	25
477.438	1	18
477.608	1	16
477.778	1	27
477.949	1	29
478.119	1	6
478.289	1	20
478.460	1	30
478.630	1	18
478.800	1	20
478.971	1	17
479.141	1	23
479.311	1	35
479.482	1	18
479.652	1	28
479.822	1	22
479.993	1	20
480.163	1	27
480.333	1	25
480.504	1	23
480.674	1	23
480.844	1	25
481.015	1	27
481.185	1	17
481.355	1	18
481.525	1	34
481.696	1	23
481.866	1	18
482.036	1	20
482.207	1	13
482.377	1	24
482.547	1	29
482.718	1	11
482.888	1	31
483.058	1	36
483.229	1	16
483.399	1	20
483.569	1	20
483.740	1	14
483.910	1	15
484.080	1	20
484.250	1	23
484.421	1	19
484.591	1	20
484.761	1	27
484.932	1	23
485.102	1	27
485.272	1	27
485.443	1	8
485.613	1	23
485.783	1	26
485.953	1	21
486.124	1	10
486.294	1	25
486.464	1	13
486.635	1	12
486.805	1	18
486.975	1	18
487.146	1	19
487.316	1	9
487.486	1	17
487.656	1	20
487.827	1	19
487.997	1	21
488.167	1	0
488.338	1	24
488.508	1	17
488.678	1	12
488.848	1	25
489.019	1	12
489.189	1	10
489.359	1	17
489.529	1	16
489.700	1	19
489.870	1	6
490.040	1	8
490.211	1	22
490.381	1	21
490.551	1	13
490.721	1	16
490.892	1	16
491.062	1	10
491.232	1	14
491.402	1	16
491.573	1	20
491.743	1	5
491.913	1	10
492.084	1	22
492.254	1	12
492.424	1	17
492.594	1	20
492.765	1	16
492.935	1	8
493.105	1	13
493.275	1	20
493.446	1	17
493.616	1	8
493.786	1	22
493.956	1	16
494.127	1	15
494.297	1	12
494.467	1	11
494.637	1	11
494.808	1	9
494.978	1	11
495.148	1	14
495.318	1	9
495.489	1	8
495.659	1	12
495.829	1	17
495.999	1	19
496.170	1	7
496.340	1	24
496.510	1	2
496.680	1	14
496.851	1	3
497.021	1	7
497.191	1	9
497.361	1	23
497.532	1	15
497.702	1	15
497.872	1	20
498.042	1	6
498.213	1	21
498.383	1	0
498.553	1	16
498.723	1	18
498.894	1	7
499.064	1	9
499.234	1	11
499.404	1	13
499.574	1	14
499.745	1	11
499.915	1	14
500.085	1	-1
500.255	1	9
500.426	1	7
500.596	1	8
500.766	1	11
500.936	1	14
501.106	1	7
501.277	1	12
501.447	1	9
501.617	1	16
501.787	1	7
501.958	1	19
502.128	1	3
502.298	1	0
502.468	1	11
502.638	1	5
502.809	1	7
502.979	1	8
503.149	1	24
503.319	1	4
503.489	1	17
503.660	1	9
503.830	1	13
504.000	1	4
504.170	1	14
504.340	1	13
504.511	1	12
504.681	1	15
504.851	1	16
505.021	1	6
505.192	1	10
505.362	1	11
505.532	1	17
505.702	1	14
505.872	1	11
506.043	1	14
506.213	1	11
506.383	1	16
506.553	1	6
506.723	1	2
506.893	1	-1
507.064	1	13
507.234	1	11
507.404	1	-2
507.574	1	4
507.744	1	24
507.915	1	24
508.085	1	19
508.255	1	10
508.425	1	3
508.595	1	12
508.766	1	9
508.936	1	6
509.106	1	12
509.276	1	7
509.446	1	14
509.616	1	11
509.787	1	4
509.957	1	3
510.127	1	23
510.297	1	2
510.467	1	19
510.638	1	18
510.808	1	12
510.978	1	12
511.148	1	3
511.318	1	7
511.488	1	18
511.659	1	4
511.829	1	11
511.999	1	8
512.169	1	15
512.339	1	2
512.509	1	24
512.680	1	5
512.850	1	-1
513.020	1	1
513.190	1	12
513.360	1	6
513.530	1	-6
513.700	1	6
513.871	1	3
514.041	1	0
514.211	1	6
514.381	1	6
514.551	1	11
514.721	1	12
514.892	1	15
515.062	1	4
515.232	1	9
515.402	1	14
515.572	1	6
515.742	1	10
515.912	1	14
516.083	1	7
516.253	1	6
516.423	1	6
516.593	1	10
516.763	1	7
516.933	1	9
517.104	1	9
517.274	1	15
517.444	1	10
517.614	1	9
517.784	1	9
517.954	1	3
518.124	1	6
518.294	1	4
518.465	1	1
518.635	1	-1
518.805	1	14
518.975	1	6
519.145	1	9
519.315	1	-1
519.485	1	8
519.656	1	6
519.826	1	0
519.996	1	5
520.166	1	8
520.336	1	6
520.506	1	-5
520.676	1	6
520.846	1	-2
521.017	1	4
521.187	1	9
521.357	1	2
521.527	1	1
521.697	1	4
521.867	1	6
522.037	1	-4
522.207	1	12
522.377	1	7
522.548	1	7
522.718	1	6
522.888	1	18
523.058	1	12
523.228	1	6
523.398	1	16
523.568	1	10
523.738	1	8
523.909	1	10
524.079	1	11
524.249	1	6
524.419	1	3
524.589	1	13
524.759	1	8
524.929	1	11
525.099	1	-2
525.269	1	4
525.439	1	10
525.610	1	17
525.780	1	-2
525.950	1	9
526.120	1	11
526.290	1	7
526.460	1	6
526.630	1	9
526.800	1	10
526.970	1	1
527.140	1	8
527.311	1	8
527.481	1	0
527.651	1	14
527.821	1	1
527.991	1	17
528.161	1	17
528.331	1	1
528.501	1	-8
528.671	1	0
528.841	1	8
529.011	1	4
529.181	1	7
529.352	1	2
529.522	1	6
529.692	1	17
529.862	1	18
530.032	1	10
530.202	1	6
530.372	1	6
530.542	1	-4
530.712	1	9
530.882	1	2
531.052	1	12
531.222	1	4
531.392	1	10
531.563	1	10
531.733	1	-5
531.903	1	11
532.073	1	0
532.243	1	12
532.413	1	4
532.583	1	11
532.753	1	11
532.923	1	9
533.093	1	10
533.263	1	5
533.433	1	5
533.603	1	11
533.773	1	5
533.943	1	12
534.113	1	5
534.284	1	8
534.454	1	13
534.624	1	13
534.794	1	8
534.964	1	4
535.134	1	15
535.304	1	6
535.474	1	-1
535.644	1	-9
535.814	1	6
535.984	1	13
536.154	1	10
536.324	1	16
536.494	1	-4
536.664	1	7
536.834	1	9
537.004	1	4
537.174	1	7
537.344	1	20
537.514	1	6
537.685	1	7
537.855	1	12
538.025	1	5
538.195	1	8
538.365	1	3
538.535	1	2
538.705	1	2
538.875	1	5
539.045	1	2
539.215	1	12
539.385	1	3
539.555	1	14
539.725	1	2
539.895	1	-7
540.065	1	19
540.235	1	8
540.405	1	0
540.575	1	3
540.745	1	14
540.915	1	7
541.085	1	10
541.255	1	1
541.425	1	9
541.595	1	4
541.765	1	3
541.935	1	9
542.105	1	12
542.275	1	11
542.445	1	9
542.615	1	15
542.785	1	3
542.955	1	9
543.125	1	1
543.295	1	-6
543.465	1	8
543.635	1	1
543.805	1	4
543.975	1	7
544.145	1	11
544.315	1	7
544.485	1	0
544.655	1	10
544.825	1	4
544.995	1	15
545.165	1	8
545.335	1	1
545.505	1	16
545.675	1	4
545.845	1	8
546.015	1	1
546.185	1	6
546.355	1	10
546.525	1	11
546.695	1	5
546.865	1	4
547.035	1	0
547.205	1	24
547.375	1	7
547.545	1	1
547.715	1	0
547.885	1	-1
548.055	1	9
548.225	1	16
548.395	1	8
548.565	1	7
548.735	1	10
548.905	1	6
549.075	1	7
549.245	1	3
549.415	1	2
549.585	1	2
549.755	1	1
549.925	1	11
550.095	1	2
550.265	1	8
550.435	1	8
550.605	1	4
550.775	1	7
550.945	1	3
551.115	1	6
551.285	1	1
551.455	1	4
551.625	1	6
551.795	1	-8
551.965	1	5
552.135	1	-5
552.305	1	8
552.475	1	25
552.645	1	12
552.815	1	8
552.985	1	0
553.155	1	0
553.325	1	7
553.495	1	9
553.665	1	12
553.835	1	6
554.004	1	7
554.174	1	5
554.344	1	2
554.514	1	16
554.684	1	1
554.854	1	5
555.024	1	7
555.194	1	6
555.364	1	2
555.534	1	19
555.704	1	9
555.874	1	4
556.044	1	-4
556.214	1	8
556.384	1	17
556.554	1	4
556.724	1	-2
556.894	1	-5
557.064	1	17
557.234	1	3
557.404	1	0
557.573	1	7
557.743	1	17
557.913	1	7
558.083	1	7
558.253	1	10
558.423	1	3
558.593	1	10
558.763	1	-4
558.933	1	-3
559.103	1	4
559.273	1	12
559.443	1	-1
559.613	1	13
559.783	1	7
559.953	1	1
560.122	1	-2
560.292	1	3
560.462	1	7
560.632	1	0
560.802	1	8
560.972	1	11
561.142	1	10
561.312	1	4
561.482	1	4
561.652	1	-2
561.822	1	0
561.992	1	2
562.162	1	6
562.331	1	9
562.501	1	11
562.671	1	11
562.841	1	-1
563.011	1	16
563.181	1	7
563.351	1	12
563.521	1	-3
563.691	1	7
563.861	1	-11
564.031	1	6
564.201	1	4
564.370	1	0
564.540	1	13
564.710	1	-9
564.880	1	2
565.050	1	1
565.220	1	10
565.390	1	10
565.560	1	6
565.730	1	-7
565.900	1	0
566.069	1	-7
566.239	1	10
566.409	1	6
566.579	1	-10
566.749	1	-4
566.919	1	1
567.089	1	7
567.259	1	6
567.429	1	15
567.599	1	10
567.768	1	13
567.938	1	11
568.108	1	-5
568.278	1	0
568.448	1	8
568.618	1	16
568.788	1	3
568.958	1	2
569.128	1	2
569.297	1	10
569.467	1	6
569.637	1	-7
569.807	1	23
569.977	1	3
570.147	1	9
570.317	1	-2
570.487	1	8
570.656	1	3
570.826	1	9
570.996	1	-2
571.166	1	-1
571.336	1	-9
571.506	1	3
571.676	1	-1
571.846	1	0
572.015	1	3
572.185	1	6
572.355	1	6
572.525	1	7
572.695	1	-2
572.865	1	7
573.035	1	-2
573.205	1	5
573.374	1	-4
573.544	1	8
573.714	1	-2
573.884	1	10
574.054	1	19
574.224	1	6
574.394	1	4
574.563	1	0
574.733	1	12
574.903	1	-3
575.073	1	-3
575.243	1	2
575.413	1	-1
575.583	1	6
575.752	1	2
575.922	1	13
576.092	1	13
576.262	1	9
576.432	1	-2
576.602	1	7
576.772	1	4
576.941	1	2
577.111	1	14
577.281	1	10
577.451	1	12
577.621	1	12
577.791	1	3
577.960	1	7
578.130	1	7
578.300	1	-2
578.470	1	0
578.640	1	9
578.810	1	-1
578.979	1	-1
579.149	1	4
579.319	1	1
579.489	1	3
579.659	1	1
579.829	1	3
579.998	1	-1
580.168	1	1
580.338	1	12
580.508	1	11
580.678	1	-1
580.848	1	8
581.017	1	1
581.187	1	4
581.357	1	7
581.527	1	-7
581.697	1	-8
581.867	1	4
582.036	1	6
582.206	1	1
582.376	1	8
582.546	1	13
582.716	1	15
582.885	1	6
583.055	1	13
583.225	1	-3
583.395	1	8
583.565	1	7
583.735	1	6
583.904	1	10
584.074	1	5
584.244	1	-2
584.414	1	7
584.584	1	4
584.753	1	-6
584.923	1	2
585.093	1	6
585.263	1	-1
585.433	1	-2
585.602	1	7
585.772	1	10
585.942	1	2
586.112	1	-3
586.282	1	12
586.451	1	7
586.621	1	3
586.791	1	14
586.961	1	-3
587.131	1	11
587.300	1	9
587.470	1	5
587.640	1	-4
587.810	1	7
587.980	1	-3
588.149	1	19
588.319	1	8
588.489	1	-4
588.659	1	13
588.829	1	17
588.998	1	13
589.168	1	-2
589.338	1	-2
589.508	1	12
589.677	1	13
589.847	1	-2
590.017	1	1
590.187	1	-1
590.357	1	2
590.526	1	-3
590.696	1	-3
590.866	1	-17
591.036	1	13
591.205	1	13
591.375	1	-4
591.545	1	4
591.715	1	0
591.885	1	13
592.054	1	8
592.224	1	15
592.394	1	11
592.564	1	10
592.733	1	-1
592.903	1	12
593.073	1	17
593.243	1	16
593.412	1	8
593.582	1	2
593.752	1	6
593.922	1	15
594.091	1	-2
594.261	1	-5
594.431	1	3
594.601	1	3
594.771	1	-7
594.940	1	17
595.110	1	17
595.280	1	6
595.450	1	21
595.619	1	10
595.789	1	8
595.959	1	-2
596.129	1	15
596.298	1	6
596.468	1	-2
596.638	1	3
596.808	1	5
596.977	1	8
597.147	1	20
597.317	1	4
597.487	1	7
597.656	1	-9
597.826	1	5
597.996	1	1
598.166	1	14
598.335	1	11
598.505	1	13
598.675	1	9
598.844	1	12
599.014	1	-5
599.184	1	1
599.354	1	17
599.523	1	14
599.693	1	17
599.863	1	6
600.033	1	0
600.202	1	6
600.372	1	7
600.542	1	11
600.712	1	6
600.881	1	20
601.051	1	11
601.221	1	15
601.390	1	1
601.560	1	7
601.730	1	10
601.900	1	8
602.069	1	7
602.239	1	12
602.409	1	11
602.578	1	12
602.748	1	8
602.918	1	18
603.088	1	3
603.257	1	7
603.427	1	17
603.597	1	8
603.767	1	5
603.936	1	16
604.106	1	16
604.276	1	10
604.445	1	2
604.615	1	10
604.785	1	13
604.954	1	15
605.124	1	13
605.294	1	24
605.464	1	11
605.633	1	7
605.803	1	21
605.973	1	10
606.142	1	5
606.312	1	18
606.482	1	0
606.652	1	8
606.821	1	6
606.991	1	7
607.161	1	25
607.330	1	15
607.500	1	13
607.670	1	24
607.839	1	16
608.009	1	10
608.179	1	15
608.348	1	9
608.518	1	16
608.688	1	14
608.858	1	14
609.027	1	20
609.197	1	3
609.367	1	8
609.536	1	5
609.706	1	17
609.876	1	11
610.045	1	22
610.215	1	20
610.385	1	29
610.554	1	14
610.724	1	13
610.894	1	21
611.063	1	17
611.233	1	4
611.403	1	13
611.572	1	13
611.742	1	16
611.912	1	10
612.081	1	17
612.251	1	13
612.421	1	17
612.590	1	12
612.760	1	22
612.930	1	16
613.099	1	28
613.269	1	7
613.439	1	20
613.608	1	17
613.778	1	15
613.948	1	10
614.117	1	13
614.287	1	17
614.457	1	16
614.626	1	21
614.796	1	14
614.966	1	14
615.135	1	19
615.305	1	19
615.475	1	29
615.644	1	18
615.814	1	11
615.984	1	8
616.153	1	9
616.323	1	10
616.493	1	24
616.662	1	26
616.832	1	6
617.002	1	28
617.171	1	17
617.341	1	20
617.511	1	23
617.680	1	10
617.850	1	19
618.019	1	17
618.189	1	19
618.359	1	9
618.528	1	21
618.698	1	28
618.868	1	12
619.037	1	25
619.207	1	24
619.377	1	19
619.546	1	15
619.716	1	18
619.885	1	16
620.055	1	15
620.225	1	19
620.394	1	13
620.564	1	29
620.734	1	16
620.903	1	23
621.073	1	25
621.242	1	30
621.412	1	2
621.582	1	35
621.751	1	3
621.921	1	19
622.091	1	29
622.260	1	18
622.430	1	33
622.599	1	17
622.769	1	17
622.939	1	20
623.108	1	20
623.278	1	15
623.448	1	26
623.617	1	16
623.787	1	25
623.956	1	16
624.126	1	20
624.296	1	10
624.465	1	21
624.635	1	17
624.804	1	22
624.974	1	16
625.144	1	34
625.313	1	17
625.483	1	20
625.652	1	13
625.822	1	17
625.992	1	24
626.161	1	14
626.331	1	30
626.501	1	9
626.670	1	16
626.840	1	25
627.009	1	15
627.179	1	41
627.348	1	33
627.518	1	15
627.688	1	28
627.857	1	18
628.027	1	25
628.196	1	21
628.366	1	31
628.536	1	33
628.705	1	26
628.875	1	26
629.044	1	13
629.214	1	10
629.384	1	20
629.553	1	19
629.723	1	30
629.892	1	25
630.062	1	17
630.232	1	25
630.401	1	35
630.571	1	24
630.740	1	27
630.910	1	34
631.079	1	39
631.249	1	14
631.419	1	22
631.588	1	28
631.758	1	17
631.927	1	31
632.097	1	25
632.266	1	5
632.436	1	34
632.606	1	35
632.775	1	18
632.945	1	24
633.114	1	22
633.284	1	15
633.453	1	31
633.623	1	17
633.793	1	15
633.962	1	31
634.132	1	12
634.301	1	21
634.471	1	21
634.640	1	10
634.810	1	36
634.979	1	22
635.149	1	23
635.319	1	27
635.488	1	21
635.658	1	23
635.827	1	32
635.997	1	27
636.166	1	31
636.336	1	24
636.505	1	16
636.675	1	22
636.845	1	40
637.014	1	21
637.184	1	12
637.353	1	35
637.523	1	17
637.692	1	26
637.862	1	26
638.031	1	27
638.201	1	31
638.370	1	36
638.540	1	29
638.710	1	16
638.879	1	20
639.049	1	21
639.218	1	21
639.388	1	23
639.557	1	21
639.727	1	28
639.896	1	15
640.066	1	22
640.235	1	22
640.405	1	32
640.574	1	26
640.744	1	23
640.914	1	22
641.083	1	39
641.253	1	29
641.422	1	32
641.592	1	14
641.761	1	28
641.931	1	28
642.100	1	18
642.270	1	37
642.439	1	30
642.609	1	20
642.778	1	30
642.948	1	28
643.117	1	31
643.287	1	18
643.456	1	34
643.626	1	27
643.795	1	34
643.965	1	20
644.134	1	34
644.304	1	21
644.473	1	21
644.643	1	28
644.812	1	33
644.982	1	19
645.151	1	17
645.321	1	35
645.490	1	23
645.660	1	27
645.829	1	26
645.999	1	26
646.168	1	22
646.338	1	22
646.507	1	32
646.677	1	26
646.846	1	29
647.016	1	28
647.185	1	24
647.355	1	24
647.524	1	24
647.694	1	38
647.863	1	25
648.033	1	20
648.202	1	37
648.372	1	32
648.541	1	31
648.711	1	30
648.880	1	29
649.050	1	20
649.219	1	17
649.389	1	30
649.558	1	35
649.728	1	16
649.897	1	27
650.067	1	25
650.236	1	15
650.406	1	21
650.575	1	25
650.745	1	28
650.914	1	37
651.084	1	17
651.253	1	27
651.423	1	30
651.592	1	20
651.762	1	28
651.931	1	33
652.101	1	26
652.270	1	21
652.440	1	31
652.609	1	29
652.778	1	32
652.948	1	24
653.117	1	32
653.287	1	20
653.456	1	15
653.626	1	22
653.795	1	25
653.965	1	39
654.134	1	11
654.304	1	22
654.473	1	27
654.643	1	15
654.812	1	31
654.982	1	21
655.151	1	17
655.320	1	36
655.490	1	10
655.659	1	30
655.829	1	28
655.998	1	21
656.168	1	18
656.337	1	21
656.507	1	25
656.676	1	29
656.846	1	35
657.015	1	18
657.184	1	28
657.354	1	20
657.523	1	13
657.693	1	25
657.862	1	15
658.032	1	26
658.201	1	20
658.371	1	24
658.540	1	14
658.709	1	15
658.879	1	26
659.048	1	16
659.218	1	15
659.387	1	21
659.557	1	22
659.726	1	29
659.895	1	30
660.065	1	10
660.234	1	27
660.404	1	24
660.573	1	17
660.743	1	18
660.912	1	21
661.081	1	8
661.251	1	16
661.420	1	29
661.590	1	15
661.759	1	18
661.929	1	15
662.098	1	32
662.267	1	16
662.437	1	13
662.606	1	20
662.776	1	17
662.945	1	8
663.115	1	28
663.284	1	10
663.453	1	27
663.623	1	20
663.792	1	1
663.962	1	26
664.131	1	23
664.300	1	18
664.470	1	17
664.639	1	25
664.809	1	26
664.978	1	21
665.148	1	31
665.317	1	21
665.486	1	5
665.656	1	38
665.825	1	25
665.995	1	7
666.164	1	20
666.333	1	20
666.503	1	14
666.672	1	2
666.842	1	10
667.011	1	23
667.180	1	11
667.350	1	24
667.519	1	15
667.689	1	6
667.858	1	21
668.027	1	18
668.197	1	18
668.366	1	15
668.536	1	24
668.705	1	11
668.874	1	18
669.044	1	6
669.213	1	20
669.382	1	11
669.552	1	14
669.721	1	15
669.891	1	14
670.060	1	5
670.229	1	15
670.399	1	27
670.568	1	17
670.738	1	20
670.907	1	14
671.076	1	22
671.246	1	16
671.415	1	17
671.584	1	25
671.754	1	13
671.923	1	17
672.093	1	24
672.262	1	22
672.431	1	10
672.601	1	21
672.770	1	6
672.939	1	13
673.109	1	3
673.278	1	13
673.448	1	11
673.617	1	12
673.786	1	17
