325.333	1	189
325.504	1	179
325.675	1	183
325.846	1	189
326.017	1	173
326.188	1	206
326.359	1	203
326.531	1	190
326.702	1	204
326.873	1	202
327.044	1	201
327.215	1	205
327.386	1	203
327.557	1	233
327.728	1	200
327.899	1	213
328.070	1	230
328.241	1	229
328.412	1	238
328.583	1	237
328.754	1	232
328.926	1	240
329.097	1	246
329.268	1	236
329.439	1	239
329.610	1	242
329.781	1	242
329.952	1	250
330.123	1	251
330.294	1	263
330.465	1	234
330.636	1	252
330.807	1	249
330.978	1	250
331.149	1	255
331.320	1	263
331.492	1	273
331.663	1	260
331.834	1	288
332.005	1	275
332.176	1	287
332.347	1	295
332.518	1	285
332.689	1	287
332.860	1	294
333.031	1	280
333.202	1	290
333.373	1	277
333.544	1	311
333.715	1	299
333.886	1	292
334.057	1	314
334.228	1	295
334.399	1	313
334.570	1	292
334.741	1	314
334.912	1	315
335.084	1	312
335.255	1	306
335.426	1	306
335.597	1	306
335.768	1	301
335.939	1	306
336.110	1	294
336.281	1	302
336.452	1	315
336.623	1	322
336.794	1	318
336.965	1	314
337.136	1	332
337.307	1	328
337.478	1	305
337.649	1	336
337.820	1	313
337.991	1	335
338.162	1	322
338.333	1	321
338.504	1	327
338.675	1	328
338.846	1	351
339.017	1	326
339.188	1	324
339.359	1	335
339.530	1	313
339.701	1	321
339.872	1	323
340.043	1	335
340.214	1	336
340.385	1	335
340.556	1	325
340.727	1	305
340.898	1	337
341.069	1	315
341.240	1	310
341.411	1	342
341.582	1	330
341.753	1	328
341.924	1	323
342.095	1	319
342.266	1	326
342.437	1	326
342.608	1	319
342.779	1	326
342.950	1	331
343.121	1	331
343.292	1	313
343.463	1	326
343.634	1	336
343.805	1	309
343.976	1	313
344.147	1	321
344.318	1	318
344.489	1	311
344.660	1	310
344.831	1	329
345.002	1	322
345.173	1	310
345.344	1	313
345.515	1	315
345.686	1	309
345.857	1	304
346.028	1	312
346.199	1	326
346.370	1	295
346.541	1	319
346.712	1	311
346.883	1	314
347.054	1	282
347.225	1	292
347.396	1	294
347.567	1	311
347.738	1	309
347.909	1	315
348.080	1	305
348.251	1	298
348.422	1	291
348.593	1	289
348.764	1	304
348.935	1	288
349.106	1	296
349.277	1	285
349.448	1	270
349.619	1	282
349.790	1	292
349.961	1	293
350.132	1	284
350.303	1	274
350.474	1	276
350.645	1	269
350.816	1	257
350.987	1	267
351.157	1	267
351.328	1	257
351.499	1	261
351.670	1	276
351.841	1	275
352.012	1	259
352.183	1	250
352.354	1	266
352.525	1	255
352.696	1	268
352.867	1	246
353.038	1	262
353.209	1	235
353.380	1	239
353.551	1	244
353.722	1	230
353.893	1	248
354.064	1	254
354.235	1	252
354.406	1	245
354.576	1	231
354.747	1	245
354.918	1	244
355.089	1	231
355.260	1	236
355.431	1	223
355.602	1	211
355.773	1	205
355.944	1	217
356.115	1	211
356.286	1	213
356.457	1	214
356.628	1	202
356.799	1	211
356.970	1	211
357.141	1	207
357.311	1	217
357.482	1	193
357.653	1	199
357.824	1	210
357.995	1	211
358.166	1	206
358.337	1	196
358.508	1	193
358.679	1	170
358.850	1	196
359.021	1	186
359.192	1	187
359.363	1	184
359.533	1	185
359.704	1	187
359.875	1	167
360.046	1	168
360.217	1	180
360.388	1	163
360.559	1	176
360.730	1	181
360.901	1	179
361.072	1	159
361.243	1	165
361.414	1	160
361.584	1	170
361.755	1	162
361.926	1	155
362.097	1	168
362.268	1	149
362.439	1	140
362.610	1	146
362.781	1	140
362.952	1	135
363.123	1	150
363.293	1	143
363.464	1	131
363.635	1	141
363.806	1	139
363.977	1	139
364.148	1	124
364.319	1	125
364.490	1	127
364.661	1	127
364.832	1	124
365.002	1	123
365.173	1	119
365.344	1	122
365.515	1	126
365.686	1	108
365.857	1	112
366.028	1	124
366.199	1	113
366.370	1	129
366.540	1	122
366.711	1	110
366.882	1	107
367.053	1	104
367.224	1	113
367.395	1	113
367.566	1	107
367.737	1	99
367.908	1	105
368.078	1	98
368.249	1	107
368.420	1	114
368.591	1	98
368.762	1	83
368.933	1	97
369.104	1	107
369.274	1	89
369.445	1	89
369.616	1	90
369.787	1	96
369.958	1	83
370.129	1	91
370.300	1	100
370.471	1	99
370.641	1	87
370.812	1	83
370.983	1	90
371.154	1	91
371.325	1	99
371.496	1	86
371.667	1	83
371.837	1	82
372.008	1	90
372.179	1	92
372.350	1	84
372.521	1	105
372.692	1	83
372.863	1	92
373.033	1	92
373.204	1	91
373.375	1	86
373.546	1	87
373.717	1	68
373.888	1	76
374.059	1	74
374.229	1	86
374.400	1	95
374.571	1	78
374.742	1	78
374.913	1	82
375.084	1	88
375.254	1	79
375.425	1	80
375.596	1	88
375.767	1	84
375.938	1	69
376.109	1	77
376.279	1	86
376.450	1	84
376.621	1	86
376.792	1	90
376.963	1	78
377.134	1	81
377.304	1	87
377.475	1	85
377.646	1	87
377.817	1	76
377.988	1	87
378.159	1	79
378.329	1	99
378.500	1	74
378.671	1	82
378.842	1	80
379.013	1	77
379.184	1	72
379.354	1	98
379.525	1	87
379.696	1	79
379.867	1	81
380.038	1	88
380.209	1	70
380.379	1	86
380.550	1	87
380.721	1	94
380.892	1	95
381.063	1	83
381.233	1	85
381.404	1	99
381.575	1	83
381.746	1	90
381.917	1	98
382.087	1	92
382.258	1	92
382.429	1	94
382.600	1	114
382.771	1	101
382.941	1	103
383.112	1	100
383.283	1	104
383.454	1	94
383.625	1	100
383.795	1	92
383.966	1	102
384.137	1	112
384.308	1	103
384.479	1	124
384.649	1	106
384.820	1	123
384.991	1	100
385.162	1	103
385.333	1	115
385.503	1	107
385.674	1	118
385.845	1	112
386.016	1	122
386.187	1	109
386.357	1	113
386.528	1	118
386.699	1	122
386.870	1	120
387.041	1	106
387.211	1	142
387.382	1	123
387.553	1	125
387.724	1	120
387.894	1	137
388.065	1	136
388.236	1	142
388.407	1	128
388.578	1	145
388.748	1	141
388.919	1	141
389.090	1	125
389.261	1	128
389.431	1	126
389.602	1	152
389.773	1	150
389.944	1	157
390.114	1	144
390.285	1	147
390.456	1	158
390.627	1	154
390.798	1	143
390.968	1	153
391.139	1	158
391.310	1	144
391.481	1	157
391.651	1	175
391.822	1	164
391.993	1	166
392.164	1	171
392.334	1	168
392.505	1	163
392.676	1	177
392.847	1	170
393.017	1	186
393.188	1	182
393.359	1	182
393.530	1	181
393.700	1	194
393.871	1	183
394.042	1	187
394.213	1	185
394.383	1	194
394.554	1	201
394.725	1	187
394.896	1	199
395.066	1	187
395.237	1	193
395.408	1	202
395.579	1	193
395.749	1	194
395.920	1	211
396.091	1	209
396.262	1	211
396.432	1	213
396.603	1	208
396.774	1	204
396.945	1	210
397.115	1	213
397.286	1	204
397.457	1	222
397.627	1	228
397.798	1	237
397.969	1	225
398.140	1	237
398.310	1	233
398.481	1	230
398.652	1	206
398.823	1	226
398.993	1	259
399.164	1	246
399.335	1	230
399.505	1	249
399.676	1	243
399.847	1	252
400.018	1	241
400.188	1	258
400.359	1	262
400.530	1	241
400.700	1	254
400.871	1	268
401.042	1	250
401.213	1	275
401.383	1	281
401.554	1	262
401.725	1	272
401.895	1	274
402.066	1	276
402.237	1	277
402.408	1	276
402.578	1	278
402.749	1	284
402.920	1	302
403.090	1	299
403.261	1	286
403.432	1	295
403.603	1	303
403.773	1	297
403.944	1	300
404.115	1	316
404.285	1	324
404.456	1	307
404.627	1	315
404.797	1	318
404.968	1	311
405.139	1	307
405.310	1	310
405.480	1	333
405.651	1	326
405.822	1	313
405.992	1	322
406.163	1	308
406.334	1	331
406.504	1	320
406.675	1	331
406.846	1	322
407.016	1	331
407.187	1	308
407.358	1	322
407.528	1	326
407.699	1	330
407.870	1	331
408.041	1	342
408.211	1	330
408.382	1	364
408.553	1	362
408.723	1	339
408.894	1	358
409.065	1	343
409.235	1	356
409.406	1	370
409.577	1	360
409.747	1	364
409.918	1	380
410.089	1	377
410.259	1	376
410.430	1	373
410.601	1	405
410.771	1	366
410.942	1	388
411.113	1	381
411.283	1	390
411.454	1	367
411.625	1	396
411.795	1	386
411.966	1	390
412.137	1	381
412.307	1	397
412.478	1	382
412.649	1	379
412.819	1	383
412.990	1	385
413.161	1	381
413.331	1	382
413.502	1	396
413.672	1	422
413.843	1	404
414.014	1	393
414.184	1	406
414.355	1	387
414.526	1	422
414.696	1	426
414.867	1	395
415.038	1	422
415.208	1	416
415.379	1	412
415.550	1	408
415.720	1	417
415.891	1	425
416.062	1	404
416.232	1	422
416.403	1	436
416.573	1	404
416.744	1	426
416.915	1	423
417.085	1	430
417.256	1	422
417.427	1	428
417.597	1	413
417.768	1	438
417.939	1	416
418.109	1	427
418.280	1	442
418.450	1	429
418.621	1	437
418.792	1	428
418.962	1	437
419.133	1	435
419.304	1	413
419.474	1	427
419.645	1	434
419.815	1	423
419.986	1	432
420.157	1	434
420.327	1	427
420.498	1	447
420.669	1	427
420.839	1	419
421.010	1	438
421.180	1	436
421.351	1	433
421.522	1	432
421.692	1	429
421.863	1	427
422.033	1	437
422.204	1	437
422.375	1	434
422.545	1	442
422.716	1	435
422.886	1	423
423.057	1	431
423.228	1	443
423.398	1	423
423.569	1	430
423.740	1	431
423.910	1	429
424.081	1	434
424.251	1	438
424.422	1	434
424.593	1	437
424.763	1	431
424.934	1	436
425.104	1	464
425.275	1	433
425.445	1	419
425.616	1	452
425.787	1	443
425.957	1	442
426.128	1	427
426.298	1	446
426.469	1	427
426.640	1	438
426.810	1	429
426.981	1	439
427.151	1	438
427.322	1	446
427.493	1	428
427.663	1	442
427.834	1	428
428.004	1	426
428.175	1	431
428.345	1	458
428.516	1	431
428.687	1	450
428.857	1	440
429.028	1	439
429.198	1	465
429.369	1	442
429.540	1	445
429.710	1	450
429.881	1	433
430.051	1	435
430.222	1	438
430.392	1	437
430.563	1	431
430.734	1	466
430.904	1	468
431.075	1	432
431.245	1	450
431.416	1	447
431.586	1	427
431.757	1	433
431.927	1	426
432.098	1	458
432.269	1	414
432.439	1	432
432.610	1	423
432.780	1	435
432.951	1	420
433.121	1	429
433.292	1	425
433.462	1	418
433.633	1	407
433.804	1	433
433.974	1	418
434.145	1	431
434.315	1	439
434.486	1	454
434.656	1	436
434.827	1	422
434.997	1	428
435.168	1	424
435.339	1	422
435.509	1	436
435.680	1	416
435.850	1	422
436.021	1	435
436.191	1	436
436.362	1	419
436.532	1	424
436.703	1	413
436.873	1	403
437.044	1	420
437.214	1	426
437.385	1	419
437.556	1	416
437.726	1	406
437.897	1	414
438.067	1	414
438.238	1	409
438.408	1	409
438.579	1	411
438.749	1	411
438.920	1	405
439.090	1	411
439.261	1	402
439.431	1	393
439.602	1	403
439.772	1	411
439.943	1	392
440.113	1	385
440.284	1	403
440.455	1	409
440.625	1	376
440.796	1	388
440.966	1	395
441.137	1	405
441.307	1	392
441.478	1	379
441.648	1	387
441.819	1	377
441.989	1	390
442.160	1	380
442.330	1	366
442.501	1	372
442.671	1	388
442.842	1	371
443.012	1	372
443.183	1	374
443.353	1	391
443.524	1	369
443.694	1	372
443.865	1	365
444.035	1	371
444.206	1	365
444.376	1	370
444.547	1	358
444.717	1	369
444.888	1	362
445.058	1	374
445.229	1	362
445.399	1	373
445.570	1	360
445.740	1	349
445.911	1	346
446.081	1	350
446.252	1	360
446.422	1	364
446.593	1	334
446.763	1	335
446.934	1	340
447.104	1	359
447.275	1	335
447.445	1	353
447.616	1	339
447.786	1	324
447.957	1	346
448.127	1	322
448.298	1	334
448.468	1	352
448.639	1	345
448.809	1	339
448.979	1	332
449.150	1	332
449.320	1	323
449.491	1	319
449.661	1	318
449.832	1	340
450.002	1	331
450.173	1	316
450.343	1	323
450.514	1	321
450.684	1	319
450.855	1	325
451.025	1	315
451.196	1	317
451.366	1	320
451.537	1	307
451.707	1	302
451.878	1	308
452.048	1	308
452.218	1	316
452.389	1	309
452.559	1	294
452.730	1	302
452.900	1	311
453.071	1	311
453.241	1	289
453.412	1	301
453.582	1	291
453.753	1	281
453.923	1	294
454.093	1	291
454.264	1	297
454.434	1	297
454.605	1	273
454.775	1	290
454.946	1	286
455.116	1	283
455.287	1	290
455.457	1	279
455.628	1	290
455.798	1	275
455.968	1	280
456.139	1	268
456.309	1	282
456.480	1	276
456.650	1	251
456.821	1	269
456.991	1	245
457.161	1	265
457.332	1	249
457.502	1	258
457.673	1	253
457.843	1	249
458.014	1	252
458.184	1	266
458.355	1	235
458.525	1	250
458.695	1	255
458.866	1	249
459.036	1	241
459.207	1	224
459.377	1	252
459.548	1	237
459.718	1	238
459.888	1	228
460.059	1	242
460.229	1	234
460.400	1	228
460.570	1	219
460.740	1	239
460.911	1	219
461.081	1	243
461.252	1	238
461.422	1	226
461.593	1	237
461.763	1	227
461.933	1	215
462.104	1	228
462.274	1	212
462.445	1	212
462.615	1	204
462.785	1	221
462.956	1	201
463.126	1	204
463.297	1	220
463.467	1	202
463.638	1	215
463.808	1	194
463.978	1	208
464.149	1	208
464.319	1	199
464.490	1	201
464.660	1	197
464.830	1	203
465.001	1	192
465.171	1	191
465.342	1	180
465.512	1	198
465.682	1	192
465.853	1	194
466.023	1	167
466.194	1	186
466.364	1	173
466.534	1	182
466.705	1	192
466.875	1	194
467.045	1	173
467.216	1	179
467.386	1	183
467.557	1	167
467.727	1	184
467.897	1	174
468.068	1	173
468.238	1	180
468.409	1	161
468.579	1	169
468.749	1	184
468.920	1	168
469.090	1	157
469.260	1	177
469.431	1	174
469.601	1	169
469.772	1	157
469.942	1	161
470.112	1	166
470.283	1	144
470.453	1	158
470.623	1	152
470.794	1	156
470.964	1	151
471.135	1	150
471.305	1	152
471.475	1	158
471.646	1	164
471.816	1	141
471.986	1	151
472.157	1	146
472.327	1	155
472.497	1	136
472.668	1	154
472.838	1	157
473.009	1	140
473.179	1	142
473.349	1	139
473.520	1	140
473.690	1	148
473.860	1	144
474.031	1	135
474.201	1	138
474.371	1	146
474.542	1	130
474.712	1	136
474.882	1	132
475.053	1	131
475.223	1	123
475.394	1	130
475.564	1	118
475.734	1	120
475.905	1	146
476.075	1	142
476.245	1	122
476.416	1	124
476.586	1	111
476.756	1	130
476.927	1	131
477.097	1	130
477.267	1	124
477.438	1	115
477.608	1	116
477.778	1	119
477.949	1	129
478.119	1	128
478.289	1	120
478.460	1	124
478.630	1	115
478.800	1	130
478.971	1	109
479.141	1	117
479.311	1	120
479.482	1	108
479.652	1	111
479.822	1	108
479.993	1	96
480.163	1	118
480.333	1	109
480.504	1	108
480.674	1	107
480.844	1	104
481.015	1	111
481.185	1	111
481.355	1	108
481.525	1	102
481.696	1	102
481.866	1	112
482.036	1	91
482.207	1	96
482.377	1	109
482.547	1	101
482.718	1	113
482.888	1	115
483.058	1	115
483.229	1	108
483.399	1	99
483.569	1	107
483.740	1	92
483.910	1	99
484.080	1	97
484.250	1	87
484.421	1	98
484.591	1	96
484.761	1	96
484.932	1	98
485.102	1	94
485.272	1	101
485.443	1	88
485.613	1	94
485.783	1	90
485.953	1	94
486.124	1	92
486.294	1	86
486.464	1	93
486.635	1	85
486.805	1	87
486.975	1	92
487.146	1	94
487.316	1	85
487.486	1	88
487.656	1	96
487.827	1	76
487.997	1	86
488.167	1	78
488.338	1	89
488.508	1	91
488.678	1	75
488.848	1	86
489.019	1	79
489.189	1	89
489.359	1	86
489.529	1	70
489.700	1	81
489.870	1	80
490.040	1	72
490.211	1	77
490.381	1	68
490.551	1	70
490.721	1	77
490.892	1	73
491.062	1	80
491.232	1	82
491.402	1	73
491.573	1	79
491.743	1	72
491.913	1	61
492.084	1	71
492.254	1	88
492.424	1	66
492.594	1	76
492.765	1	62
492.935	1	62
493.105	1	69
493.275	1	72
493.446	1	71
493.616	1	68
493.786	1	71
493.956	1	81
494.127	1	67
494.297	1	62
494.467	1	56
494.637	1	57
494.808	1	66
494.978	1	60
495.148	1	66
495.318	1	60
495.489	1	65
495.659	1	68
495.829	1	67
495.999	1	68
496.170	1	67
496.340	1	70
496.510	1	61
496.680	1	64
496.851	1	56
497.021	1	56
497.191	1	54
497.361	1	67
497.532	1	67
497.702	1	54
497.872	1	61
498.042	1	55
498.213	1	65
498.383	1	62
498.553	1	68
498.723	1	64
498.894	1	60
499.064	1	55
499.234	1	52
499.404	1	63
499.574	1	73
499.745	1	56
499.915	1	51
500.085	1	53
500.255	1	47
500.426	1	55
500.596	1	70
500.766	1	49
500.936	1	46
501.106	1	62
501.277	1	65
501.447	1	49
501.617	1	60
501.787	1	40
501.958	1	57
502.128	1	53
502.298	1	42
502.468	1	61
502.638	1	56
502.809	1	50
502.979	1	47
503.149	1	54
503.319	1	39
503.489	1	49
503.660	1	49
503.830	1	49
504.000	1	44
504.170	1	54
504.340	1	54
504.511	1	54
504.681	1	46
504.851	1	58
505.021	1	49
505.192	1	55
505.362	1	49
505.532	1	51
505.702	1	54
505.872	1	57
506.043	1	141
506.213	1	209
506.383	1	72
506.553	1	54
506.723	1	44
506.893	1	47
507.064	1	51
507.234	1	44
507.404	1	39
507.574	1	40
507.744	1	51
507.915	1	54
508.085	1	64
508.255	1	47
508.425	1	43
508.595	1	50
508.766	1	42
508.936	1	37
509.106	1	52
509.276	1	46
509.446	1	41
509.616	1	42
509.787	1	38
509.957	1	40
510.127	1	50
510.297	1	37
510.467	1	51
510.638	1	44
510.808	1	52
510.978	1	48
511.148	1	51
511.318	1	42
511.488	1	46
511.659	1	34
511.829	1	50
511.999	1	46
512.169	1	43
512.339	1	31
512.509	1	51
512.680	1	43
512.850	1	46
513.020	1	42
513.190	1	49
513.360	1	48
513.530	1	45
513.700	1	36
513.871	1	40
514.041	1	40
514.211	1	35
514.381	1	43
514.551	1	36
514.721	1	31
514.892	1	41
515.062	1	33
515.232	1	35
515.402	1	46
515.572	1	25
515.742	1	38
515.912	1	32
516.083	1	40
516.253	1	34
516.423	1	32
516.593	1	40
516.763	1	47
516.933	1	32
517.104	1	37
517.274	1	32
517.444	1	35
517.614	1	31
517.784	1	40
517.954	1	36
518.124	1	44
518.294	1	34
518.465	1	25
518.635	1	38
518.805	1	51
518.975	1	31
519.145	1	44
519.315	1	32
519.485	1	33
519.656	1	32
519.826	1	31
519.996	1	20
520.166	1	33
520.336	1	36
520.506	1	30
520.676	1	29
520.846	1	38
521.017	1	43
521.187	1	37
521.357	1	37
521.527	1	38
521.697	1	36
521.867	1	22
522.037	1	25
522.207	1	42
522.377	1	36
522.548	1	37
522.718	1	32
522.888	1	38
523.058	1	41
523.228	1	38
523.398	1	39
523.568	1	36
523.738	1	35
523.909	1	39
524.079	1	36
524.249	1	29
524.419	1	39
524.589	1	27
524.759	1	35
524.929	1	35
525.099	1	30
525.269	1	34
525.439	1	37
525.610	1	50
525.780	1	29
525.950	1	32
526.120	1	36
526.290	1	37
526.460	1	26
526.630	1	39
526.800	1	33
526.970	1	27
527.140	1	31
527.311	1	44
527.481	1	20
527.651	1	35
527.821	1	29
527.991	1	33
528.161	1	27
528.331	1	33
528.501	1	30
528.671	1	21
528.841	1	22
529.011	1	28
529.181	1	45
529.352	1	22
529.522	1	29
529.692	1	36
529.862	1	31
530.032	1	32
530.202	1	33
530.372	1	34
530.542	1	24
530.712	1	25
530.882	1	29
531.052	1	35
531.222	1	31
531.392	1	35
531.563	1	35
531.733	1	23
531.903	1	36
532.073	1	22
532.243	1	26
532.413	1	33
532.583	1	32
532.753	1	44
532.923	1	25
533.093	1	29
533.263	1	40
533.433	1	35
533.603	1	42
533.773	1	28
533.943	1	32
534.113	1	41
534.284	1	28
534.454	1	30
534.624	1	26
534.794	1	27
534.964	1	34
535.134	1	31
535.304	1	27
535.474	1	29
535.644	1	20
535.814	1	22
535.984	1	45
536.154	1	45
536.324	1	38
536.494	1	17
536.664	1	27
536.834	1	21
537.004	1	30
537.174	1	34
537.344	1	33
537.514	1	24
537.685	1	33
537.855	1	31
538.025	1	33
538.195	1	25
538.365	1	28
538.535	1	29
538.705	1	31
538.875	1	31
539.045	1	14
539.215	1	27
539.385	1	26
539.555	1	27
539.725	1	26
539.895	1	20
540.065	1	30
540.235	1	34
540.405	1	23
540.575	1	23
540.745	1	30
540.915	1	24
541.085	1	24
541.255	1	21
541.425	1	38
541.595	1	31
541.765	1	14
541.935	1	22
542.105	1	25
542.275	1	18
542.445	1	26
542.615	1	37
542.785	1	20
542.955	1	33
543.125	1	26
543.295	1	18
543.465	1	28
543.635	1	21
543.805	1	23
543.975	1	31
544.145	1	33
544.315	1	16
544.485	1	22
544.655	1	26
544.825	1	35
544.995	1	31
545.165	1	25
545.335	1	30
545.505	1	37
545.675	1	25
545.845	1	32
546.015	1	24
546.185	1	30
546.355	1	33
546.525	1	41
546.695	1	27
546.865	1	30
547.035	1	17
547.205	1	38
547.375	1	29
547.545	1	27
547.715	1	21
547.885	1	23
548.055	1	17
548.225	1	37
548.395	1	19
548.565	1	19
548.735	1	29
548.905	1	28
549.075	1	18
549.245	1	21
549.415	1	25
549.585	1	12
549.755	1	27
549.925	1	41
550.095	1	28
550.265	1	17
550.435	1	17
550.605	1	29
550.775	1	20
550.945	1	28
551.115	1	18
551.285	1	16
551.455	1	28
551.625	1	26
551.795	1	6
551.965	1	19
552.135	1	32
552.305	1	26
552.475	1	38
552.645	1	28
552.815	1	24
552.985	1	28
553.155	1	27
553.325	1	20
553.495	1	19
553.665	1	22
553.835	1	28
554.004	1	21
554.174	1	24
554.344	1	24
554.514	1	17
554.684	1	20
554.854	1	22
555.024	1	20
555.194	1	26
555.364	1	18
555.534	1	20
555.704	1	32
555.874	1	10
556.044	1	18
556.214	1	18
556.384	1	16
556.554	1	32
556.724	1	13
556.894	1	23
557.064	1	32
557.234	1	16
557.404	1	26
557.573	1	18
557.743	1	21
557.913	1	30
558.083	1	19
558.253	1	12
558.423	1	22
558.593	1	29
558.763	1	10
558.933	1	21
559.103	1	20
559.273	1	17
559.443	1	17
559.613	1	23
559.783	1	13
559.953	1	20
560.122	1	21
560.292	1	16
560.462	1	21
560.632	1	26
560.802	1	28
560.972	1	24
561.142	1	22
561.312	1	29
561.482	1	23
561.652	1	7
561.822	1	26
561.992	1	20
562.162	1	14
562.331	1	33
562.501	1	19
562.671	1	5
562.841	1	13
563.011	1	26
563.181	1	23
563.351	1	24
563.521	1	3
563.691	1	26
563.861	1	10
564.031	1	16
564.201	1	18
564.370	1	15
564.540	1	20
564.710	1	14
564.880	1	19
565.050	1	6
565.220	1	32
565.390	1	13
565.560	1	14
565.730	1	22
565.900	1	17
566.069	1	4
566.239	1	28
566.409	1	20
566.579	1	3
566.749	1	15
566.919	1	9
567.089	1	24
567.259	1	35
567.429	1	25
567.599	1	31
567.768	1	24
567.938	1	13
568.108	1	20
568.278	1	18
568.448	1	22
568.618	1	22
568.788	1	23
568.958	1	20
569.128	1	18
569.297	1	33
569.467	1	25
569.637	1	19
569.807	1	25
569.977	1	2
570.147	1	25
570.317	1	14
570.487	1	25
570.656	1	30
570.826	1	10
570.996	1	6
571.166	1	19
571.336	1	13
571.506	1	21
571.676	1	21
571.846	1	27
572.015	1	8
572.185	1	29
572.355	1	28
572.525	1	14
572.695	1	11
572.865	1	27
573.035	1	13
573.205	1	16
573.374	1	22
573.544	1	18
573.714	1	25
573.884	1	19
574.054	1	27
574.224	1	24
574.394	1	20
574.563	1	14
574.733	1	29
574.903	1	22
575.073	1	14
575.243	1	28
575.413	1	15
575.583	1	25
575.752	1	26
575.922	1	25
576.092	1	12
576.262	1	20
576.432	1	13
576.602	1	16
576.772	1	11
576.941	1	17
577.111	1	20
577.281	1	25
577.451	1	27
577.621	1	28
577.791	1	24
577.960	1	22
578.130	1	18
578.300	1	19
578.470	1	15
578.640	1	23
578.810	1	15
578.979	1	7
579.149	1	19
579.319	1	15
579.489	1	24
579.659	1	10
579.829	1	23
579.998	1	23
580.168	1	12
580.338	1	21
580.508	1	38
580.678	1	16
580.848	1	24
581.017	1	22
581.187	1	14
581.357	1	23
581.527	1	11
581.697	1	8
581.867	1	18
582.036	1	10
582.206	1	19
582.376	1	21
582.546	1	25
582.716	1	17
582.885	1	27
583.055	1	14
583.225	1	14
583.395	1	22
583.565	1	18
583.735	1	24
583.904	1	20
584.074	1	18
584.244	1	28
584.414	1	28
584.584	1	15
584.753	1	2
584.923	1	11
585.093	1	25
585.263	1	23
585.433	1	18
585.602	1	33
585.772	1	37
585.942	1	25
586.112	1	15
586.282	1	33
586.451	1	33
586.621	1	15
586.791	1	37
586.961	1	18
587.131	1	29
587.300	1	34
587.470	1	9
587.640	1	27
587.810	1	24
587.980	1	16
588.149	1	37
588.319	1	26
588.489	1	15
588.659	1	23
588.829	1	36
588.998	1	27
589.168	1	33
589.338	1	14
589.508	1	15
589.677	1	19
589.847	1	17
590.017	1	13
590.187	1	18
590.357	1	38
590.526	1	23
590.696	1	32
590.866	1	11
591.036	1	42
591.205	1	26
591.375	1	27
591.545	1	28
591.715	1	24
591.885	1	31
592.054	1	24
592.224	1	34
592.394	1	33
592.564	1	35
592.733	1	26
592.903	1	21
593.073	1	39
593.243	1	34
593.412	1	27
593.582	1	26
593.752	1	33
593.922	1	32
594.091	1	36
594.261	1	26
594.431	1	37
594.601	1	30
594.771	1	26
594.940	1	46
595.110	1	43
595.280	1	40
595.450	1	50
595.619	1	31
595.789	1	38
595.959	1	31
596.129	1	41
596.298	1	34
596.468	1	37
596.638	1	18
596.808	1	35
596.977	1	40
597.147	1	40
597.317	1	42
597.487	1	33
597.656	1	19
597.826	1	39
597.996	1	27
598.166	1	37
598.335	1	34
598.505	1	35
598.675	1	39
598.844	1	40
599.014	1	40
599.184	1	33
599.354	1	44
599.523	1	46
599.693	1	43
599.863	1	36
600.033	1	36
600.202	1	41
600.372	1	42
600.542	1	53
600.712	1	42
600.881	1	55
601.051	1	53
601.221	1	45
601.390	1	41
601.560	1	40
601.730	1	42
601.900	1	49
602.069	1	40
602.239	1	48
602.409	1	53
602.578	1	50
602.748	1	50
602.918	1	45
603.088	1	50
603.257	1	57
603.427	1	55
603.597	1	40
603.767	1	58
603.936	1	40
604.106	1	56
604.276	1	58
604.445	1	48
604.615	1	62
604.785	1	59
604.954	1	55
605.124	1	70
605.294	1	52
605.464	1	68
605.633	1	61
605.803	1	54
605.973	1	58
606.142	1	51
606.312	1	56
606.482	1	43
606.652	1	61
606.821	1	64
606.991	1	49
607.161	1	69
607.330	1	62
607.500	1	66
607.670	1	78
607.839	1	72
608.009	1	67
608.179	1	63
608.348	1	72
608.518	1	71
608.688	1	62
608.858	1	67
609.027	1	77
609.197	1	68
609.367	1	67
609.536	1	76
609.706	1	63
609.876	1	71
610.045	1	76
610.215	1	76
610.385	1	81
610.554	1	85
610.724	1	81
610.894	1	79
611.063	1	73
611.233	1	62
611.403	1	82
611.572	1	76
611.742	1	75
611.912	1	80
612.081	1	80
612.251	1	83
612.421	1	82
612.590	1	68
612.760	1	83
612.930	1	82
613.099	1	73
613.269	1	85
613.439	1	81
613.608	1	79
613.778	1	95
613.948	1	83
614.117	1	87
614.287	1	78
614.457	1	83
614.626	1	89
614.796	1	78
614.966	1	87
615.135	1	106
615.305	1	94
615.475	1	104
615.644	1	93
615.814	1	104
615.984	1	98
616.153	1	85
616.323	1	90
616.493	1	84
616.662	1	94
616.832	1	92
617.002	1	108
617.171	1	98
617.341	1	99
617.511	1	100
617.680	1	102
617.850	1	110
618.019	1	99
618.189	1	103
618.359	1	96
618.528	1	100
618.698	1	105
618.868	1	105
619.037	1	111
619.207	1	102
619.377	1	106
619.546	1	94
619.716	1	113
619.885	1	118
620.055	1	114
620.225	1	105
620.394	1	120
620.564	1	133
620.734	1	119
620.903	1	119
621.073	1	120
621.242	1	129
621.412	1	106
621.582	1	121
621.751	1	114
621.921	1	115
622.091	1	116
622.260	1	114
622.430	1	119
622.599	1	121
622.769	1	119
622.939	1	106
623.108	1	120
623.278	1	128
623.448	1	118
623.617	1	121
623.787	1	136
623.956	1	138
624.126	1	136
624.296	1	123
624.465	1	129
624.635	1	112
624.804	1	133
624.974	1	129
625.144	1	127
625.313	1	118
625.483	1	130
625.652	1	126
625.822	1	136
625.992	1	135
626.161	1	147
626.331	1	134
626.501	1	125
626.670	1	135
626.840	1	133
627.009	1	134
627.179	1	156
627.348	1	148
627.518	1	133
627.688	1	141
627.857	1	132
628.027	1	151
628.196	1	146
628.366	1	150
628.536	1	141
628.705	1	147
628.875	1	146
629.044	1	136
629.214	1	135
629.384	1	136
629.553	1	143
629.723	1	141
629.892	1	145
630.062	1	129
630.232	1	141
630.401	1	150
630.571	1	152
630.740	1	149
630.910	1	155
631.079	1	160
631.249	1	157
631.419	1	159
631.588	1	153
631.758	1	162
631.927	1	163
632.097	1	156
632.266	1	147
632.436	1	164
632.606	1	170
632.775	1	157
632.945	1	153
633.114	1	170
633.284	1	162
633.453	1	179
633.623	1	187
633.793	1	156
633.962	1	159
634.132	1	161
634.301	1	169
634.471	1	158
634.640	1	159
634.810	1	162
634.979	1	167
635.149	1	173
635.319	1	170
635.488	1	185
635.658	1	187
635.827	1	163
635.997	1	189
636.166	1	160
636.336	1	166
636.505	1	172
636.675	1	168
636.845	1	181
637.014	1	177
637.184	1	182
637.353	1	173
637.523	1	182
637.692	1	191
637.862	1	189
638.031	1	185
638.201	1	166
638.370	1	181
638.540	1	178
638.710	1	182
638.879	1	194
639.049	1	179
639.218	1	170
639.388	1	186
639.557	1	181
639.727	1	187
639.896	1	191
640.066	1	185
640.235	1	171
640.405	1	190
640.574	1	184
640.744	1	177
640.914	1	192
641.083	1	185
641.253	1	188
641.422	1	189
641.592	1	183
641.761	1	180
641.931	1	176
642.100	1	188
642.270	1	168
642.439	1	190
642.609	1	188
642.778	1	171
642.948	1	180
643.117	1	192
643.287	1	190
643.456	1	196
643.626	1	188
643.795	1	186
643.965	1	178
644.134	1	199
644.304	1	176
644.473	1	200
644.643	1	174
644.812	1	176
644.982	1	185
645.151	1	178
645.321	1	191
645.490	1	183
645.660	1	190
645.829	1	192
645.999	1	186
646.168	1	179
646.338	1	177
646.507	1	203
646.677	1	169
646.846	1	185
647.016	1	192
647.185	1	199
647.355	1	189
647.524	1	184
647.694	1	206
647.863	1	190
648.033	1	190
648.202	1	188
648.372	1	196
648.541	1	191
648.711	1	188
648.880	1	190
649.050	1	188
649.219	1	195
649.389	1	198
649.558	1	197
649.728	1	184
649.897	1	186
650.067	1	177
650.236	1	189
650.406	1	170
650.575	1	190
650.745	1	202
650.914	1	193
651.084	1	187
651.253	1	196
651.423	1	190
651.592	1	186
651.762	1	184
651.931	1	201
652.101	1	185
652.270	1	174
652.440	1	189
652.609	1	177
652.778	1	185
652.948	1	171
653.117	1	197
653.287	1	177
653.456	1	172
653.626	1	197
653.795	1	183
653.965	1	184
654.134	1	198
654.304	1	186
654.473	1	184
654.643	1	192
654.812	1	197
654.982	1	198
655.151	1	188
655.320	1	195
655.490	1	167
655.659	1	192
655.829	1	190
655.998	1	179
656.168	1	188
656.337	1	186
656.507	1	162
656.676	1	188
656.846	1	190
657.015	1	186
657.184	1	194
657.354	1	172
657.523	1	166
657.693	1	166
657.862	1	170
658.032	1	193
658.201	1	186
658.371	1	188
658.540	1	186
658.709	1	178
658.879	1	179
659.048	1	183
659.218	1	171
659.387	1	160
659.557	1	186
659.726	1	181
659.895	1	183
660.065	1	183
660.234	1	165
660.404	1	178
660.573	1	174
660.743	1	175
660.912	1	164
661.081	1	179
661.251	1	187
661.420	1	156
661.590	1	171
661.759	1	160
661.929	1	173
662.098	1	174
662.267	1	179
662.437	1	172
662.606	1	157
662.776	1	177
662.945	1	159
663.115	1	154
663.284	1	154
663.453	1	174
663.623	1	177
663.792	1	159
663.962	1	171
664.131	1	154
664.300	1	166
664.470	1	172
664.639	1	165
664.809	1	167
664.978	1	156
665.148	1	154
665.317	1	149
665.486	1	157
665.656	1	173
665.825	1	160
665.995	1	148
666.164	1	172
666.333	1	166
666.503	1	169
666.672	1	140
666.842	1	162
667.011	1	159
667.180	1	156
667.350	1	152
667.519	1	148
667.689	1	137
667.858	1	165
668.027	1	167
668.197	1	154
668.366	1	148
668.536	1	157
668.705	1	146
668.874	1	151
669.044	1	152
669.213	1	139
669.382	1	140
669.552	1	138
669.721	1	148
669.891	1	153
670.060	1	144
670.229	1	140
670.399	1	150
670.568	1	144
670.738	1	135
670.907	1	132
671.076	1	138
671.246	1	131
671.415	1	142
671.584	1	157
671.754	1	127
671.923	1	149
672.093	1	152
672.262	1	150
672.431	1	132
672.601	1	139
672.770	1	126
672.939	1	141
673.109	1	128
673.278	1	137
673.448	1	122
673.617	1	127
673.786	1	134
