325.333	1	45
325.504	1	32
325.675	1	37
325.846	1	27
326.017	1	30
326.188	1	46
326.359	1	52
326.531	1	41
326.702	1	46
326.873	1	44
327.044	1	48
327.215	1	43
327.386	1	49
327.557	1	64
327.728	1	53
327.899	1	48
328.070	1	42
328.241	1	49
328.412	1	50
328.583	1	56
328.754	1	42
328.926	1	45
329.097	1	58
329.268	1	65
329.439	1	37
329.610	1	48
329.781	1	43
329.952	1	54
330.123	1	56
330.294	1	52
330.465	1	50
330.636	1	62
330.807	1	45
330.978	1	44
331.149	1	56
331.320	1	44
331.492	1	52
331.663	1	50
331.834	1	55
332.005	1	58
332.176	1	57
332.347	1	71
332.518	1	52
332.689	1	60
332.860	1	56
333.031	1	52
333.202	1	65
333.373	1	62
333.544	1	66
333.715	1	57
333.886	1	61
334.057	1	64
334.228	1	54
334.399	1	54
334.570	1	54
334.741	1	57
334.912	1	57
335.084	1	62
335.255	1	59
335.426	1	53
335.597	1	65
335.768	1	54
335.939	1	63
336.110	1	61
336.281	1	58
336.452	1	64
336.623	1	67
336.794	1	57
336.965	1	57
337.136	1	60
337.307	1	59
337.478	1	55
337.649	1	68
337.820	1	72
337.991	1	64
338.162	1	57
338.333	1	59
338.504	1	65
338.675	1	53
338.846	1	82
339.017	1	58
339.188	1	67
339.359	1	54
339.530	1	65
339.701	1	59
339.872	1	64
340.043	1	68
340.214	1	61
340.385	1	63
340.556	1	61
340.727	1	61
340.898	1	68
341.069	1	59
341.240	1	55
341.411	1	61
341.582	1	63
341.753	1	54
341.924	1	62
342.095	1	45
342.266	1	72
342.437	1	66
342.608	1	59
342.779	1	70
342.950	1	59
343.121	1	62
343.292	1	66
343.463	1	62
343.634	1	60
343.805	1	47
343.976	1	57
344.147	1	52
344.318	1	58
344.489	1	67
344.660	1	49
344.831	1	59
345.002	1	62
345.173	1	61
345.344	1	52
345.515	1	53
345.686	1	56
345.857	1	65
346.028	1	62
346.199	1	74
346.370	1	62
346.541	1	59
346.712	1	54
346.883	1	58
347.054	1	56
347.225	1	41
347.396	1	46
347.567	1	67
347.738	1	56
347.909	1	64
348.080	1	65
348.251	1	62
348.422	1	49
348.593	1	59
348.764	1	60
348.935	1	46
349.106	1	55
349.277	1	54
349.448	1	51
349.619	1	54
349.790	1	59
349.961	1	56
350.132	1	61
350.303	1	53
350.474	1	54
350.645	1	52
350.816	1	39
350.987	1	52
351.157	1	44
351.328	1	40
351.499	1	46
351.670	1	56
351.841	1	54
352.012	1	44
352.183	1	42
352.354	1	48
352.525	1	43
352.696	1	43
352.867	1	37
353.038	1	63
353.209	1	45
353.380	1	45
353.551	1	40
353.722	1	36
353.893	1	54
354.064	1	30
354.235	1	40
354.406	1	40
354.576	1	40
354.747	1	49
354.918	1	44
355.089	1	50
355.260	1	50
355.431	1	61
355.602	1	46
355.773	1	33
355.944	1	41
356.115	1	42
356.286	1	39
356.457	1	38
356.628	1	36
356.799	1	44
356.970	1	39
357.141	1	40
357.311	1	36
357.482	1	31
357.653	1	35
357.824	1	39
357.995	1	50
358.166	1	33
358.337	1	40
358.508	1	41
358.679	1	28
358.850	1	46
359.021	1	38
359.192	1	30
359.363	1	44
359.533	1	43
359.704	1	37
359.875	1	24
360.046	1	28
360.217	1	31
360.388	1	42
360.559	1	24
360.730	1	39
360.901	1	32
361.072	1	34
361.243	1	32
361.414	1	31
361.584	1	37
361.755	1	40
361.926	1	19
362.097	1	41
362.268	1	28
362.439	1	31
362.610	1	38
362.781	1	43
362.952	1	26
363.123	1	27
363.293	1	36
363.464	1	16
363.635	1	30
363.806	1	18
363.977	1	31
364.148	1	25
364.319	1	20
364.490	1	31
364.661	1	26
364.832	1	18
365.002	1	36
365.173	1	21
365.344	1	21
365.515	1	20
365.686	1	27
365.857	1	20
366.028	1	15
366.199	1	18
366.370	1	14
366.540	1	22
366.711	1	19
366.882	1	20
367.053	1	18
367.224	1	17
367.395	1	23
367.566	1	16
367.737	1	22
367.908	1	17
368.078	1	13
368.249	1	27
368.420	1	24
368.591	1	20
368.762	1	7
368.933	1	13
369.104	1	20
369.274	1	20
369.445	1	7
369.616	1	9
369.787	1	21
369.958	1	13
370.129	1	18
370.300	1	15
370.471	1	18
370.641	1	14
370.812	1	19
370.983	1	24
371.154	1	28
371.325	1	24
371.496	1	20
371.667	1	15
371.837	1	9
372.008	1	4
372.179	1	19
372.350	1	9
372.521	1	23
372.692	1	14
372.863	1	18
373.033	1	16
373.204	1	23
373.375	1	13
373.546	1	13
373.717	1	2
373.888	1	11
374.059	1	9
374.229	1	10
374.400	1	24
374.571	1	0
374.742	1	19
374.913	1	6
375.084	1	10
375.254	1	26
375.425	1	10
375.596	1	21
375.767	1	19
375.938	1	3
376.109	1	17
376.279	1	11
376.450	1	20
376.621	1	17
376.792	1	10
376.963	1	24
377.134	1	8
377.304	1	18
377.475	1	11
377.646	1	22
377.817	1	12
377.988	1	27
378.159	1	8
378.329	1	26
378.500	1	13
378.671	1	10
378.842	1	19
379.013	1	17
379.184	1	11
379.354	1	19
379.525	1	11
379.696	1	15
379.867	1	12
380.038	1	14
380.209	1	3
380.379	1	11
380.550	1	18
380.721	1	13
380.892	1	13
381.063	1	7
381.233	1	15
381.404	1	22
381.575	1	28
381.746	1	13
381.917	1	19
382.087	1	24
382.258	1	14
382.429	1	22
382.600	1	18
382.771	1	11
382.941	1	18
383.112	1	16
383.283	1	24
383.454	1	24
383.625	1	25
383.795	1	19
383.966	1	23
384.137	1	16
384.308	1	18
384.479	1	27
384.649	1	12
384.820	1	26
384.991	1	11
385.162	1	18
385.333	1	23
385.503	1	8
385.674	1	32
385.845	1	22
386.016	1	15
386.187	1	19
386.357	1	35
386.528	1	22
386.699	1	30
386.870	1	28
387.041	1	11
387.211	1	38
387.382	1	27
387.553	1	21
387.724	1	28
387.894	1	31
388.065	1	21
388.236	1	22
388.407	1	42
388.578	1	26
388.748	1	23
388.919	1	22
389.090	1	21
389.261	1	21
389.431	1	23
389.602	1	37
389.773	1	36
389.944	1	32
390.114	1	34
390.285	1	16
390.456	1	47
390.627	1	34
390.798	1	16
390.968	1	30
391.139	1	30
391.310	1	35
391.481	1	25
391.651	1	37
391.822	1	30
391.993	1	23
392.164	1	34
392.334	1	27
392.505	1	28
392.676	1	28
392.847	1	44
393.017	1	30
393.188	1	37
393.359	1	32
393.530	1	34
393.700	1	45
393.871	1	32
394.042	1	33
394.213	1	35
394.383	1	38
394.554	1	27
394.725	1	34
394.896	1	43
395.066	1	29
395.237	1	29
395.408	1	34
395.579	1	38
395.749	1	39
395.920	1	35
396.091	1	41
396.262	1	39
396.432	1	35
396.603	1	45
396.774	1	28
396.945	1	34
397.115	1	37
397.286	1	39
397.457	1	32
397.627	1	34
397.798	1	38
397.969	1	36
398.140	1	50
398.310	1	49
398.481	1	30
398.652	1	35
398.823	1	36
398.993	1	68
399.164	1	50
399.335	1	40
399.505	1	49
399.676	1	49
399.847	1	46
400.018	1	46
400.188	1	52
400.359	1	40
400.530	1	39
400.700	1	50
400.871	1	49
401.042	1	44
401.213	1	50
401.383	1	62
401.554	1	49
401.725	1	51
401.895	1	54
402.066	1	48
402.237	1	50
402.408	1	50
402.578	1	44
402.749	1	49
402.920	1	54
403.090	1	52
403.261	1	48
403.432	1	62
403.603	1	57
403.773	1	55
403.944	1	61
404.115	1	66
404.285	1	62
404.456	1	43
404.627	1	62
404.797	1	60
404.968	1	51
405.139	1	55
405.310	1	64
405.480	1	54
405.651	1	65
405.822	1	55
405.992	1	50
406.163	1	52
406.334	1	57
406.504	1	54
406.675	1	70
406.846	1	66
407.016	1	76
407.187	1	41
407.358	1	62
407.528	1	55
407.699	1	64
407.870	1	58
408.041	1	63
408.211	1	53
408.382	1	66
408.553	1	72
408.723	1	69
408.894	1	65
409.065	1	62
409.235	1	59
409.406	1	60
409.577	1	70
409.747	1	65
409.918	1	78
410.089	1	71
410.259	1	66
410.430	1	66
410.601	1	73
410.771	1	63
410.942	1	71
411.113	1	68
411.283	1	70
411.454	1	44
411.625	1	76
411.795	1	70
411.966	1	81
412.137	1	70
412.307	1	70
412.478	1	71
412.649	1	73
412.819	1	78
412.990	1	69
413.161	1	63
413.331	1	73
413.502	1	75
413.672	1	64
413.843	1	85
414.014	1	73
414.184	1	71
414.355	1	80
414.526	1	80
414.696	1	78
414.867	1	76
415.038	1	78
415.208	1	80
415.379	1	73
415.550	1	75
415.720	1	65
415.891	1	64
416.062	1	72
416.232	1	84
416.403	1	93
416.573	1	77
416.744	1	78
416.915	1	84
417.085	1	89
417.256	1	72
417.427	1	84
417.597	1	82
417.768	1	80
417.939	1	76
418.109	1	81
418.280	1	81
418.450	1	83
418.621	1	71
418.792	1	80
418.962	1	93
419.133	1	71
419.304	1	78
419.474	1	81
419.645	1	90
419.815	1	91
419.986	1	88
420.157	1	81
420.327	1	86
420.498	1	82
420.669	1	83
420.839	1	85
421.010	1	83
421.180	1	86
421.351	1	84
421.522	1	73
421.692	1	80
421.863	1	81
422.033	1	91
422.204	1	85
422.375	1	82
422.545	1	93
422.716	1	87
422.886	1	76
423.057	1	78
423.228	1	100
423.398	1	82
423.569	1	90
423.740	1	76
423.910	1	80
424.081	1	79
424.251	1	84
424.422	1	75
424.593	1	89
424.763	1	84
424.934	1	95
425.104	1	102
425.275	1	97
425.445	1	82
425.616	1	83
425.787	1	82
425.957	1	86
426.128	1	76
426.298	1	88
426.469	1	93
426.640	1	83
426.810	1	84
426.981	1	73
427.151	1	93
427.322	1	82
427.493	1	88
427.663	1	92
427.834	1	98
428.004	1	89
428.175	1	92
428.345	1	81
428.516	1	88
428.687	1	94
428.857	1	87
429.028	1	87
429.198	1	91
429.369	1	84
429.540	1	96
429.710	1	83
429.881	1	85
430.051	1	87
430.222	1	81
430.392	1	90
430.563	1	87
430.734	1	99
430.904	1	90
431.075	1	91
431.245	1	97
431.416	1	92
431.586	1	81
431.757	1	91
431.927	1	95
432.098	1	100
432.269	1	94
432.439	1	95
432.610	1	86
432.780	1	99
432.951	1	84
433.121	1	99
433.292	1	73
433.462	1	86
433.633	1	77
433.804	1	78
433.974	1	86
434.145	1	88
434.315	1	94
434.486	1	102
434.656	1	92
434.827	1	85
434.997	1	96
435.168	1	89
435.339	1	89
435.509	1	95
435.680	1	90
435.850	1	91
436.021	1	94
436.191	1	98
436.362	1	91
436.532	1	106
436.703	1	79
436.873	1	86
437.044	1	83
437.214	1	84
437.385	1	89
437.556	1	90
437.726	1	88
437.897	1	80
438.067	1	85
438.238	1	83
438.408	1	90
438.579	1	82
438.749	1	91
438.920	1	85
439.090	1	91
439.261	1	102
439.431	1	96
439.602	1	86
439.772	1	92
439.943	1	79
440.113	1	90
440.284	1	70
440.455	1	85
440.625	1	82
440.796	1	87
440.966	1	88
441.137	1	80
441.307	1	78
441.478	1	75
441.648	1	78
441.819	1	90
441.989	1	89
442.160	1	82
442.330	1	77
442.501	1	88
442.671	1	94
442.842	1	74
443.012	1	82
443.183	1	77
443.353	1	83
443.524	1	86
443.694	1	84
443.865	1	81
444.035	1	88
444.206	1	69
444.376	1	83
444.547	1	76
444.717	1	86
444.888	1	66
445.058	1	97
445.229	1	80
445.399	1	85
445.570	1	85
445.740	1	79
445.911	1	88
446.081	1	83
446.252	1	87
446.422	1	93
446.593	1	76
446.763	1	81
446.934	1	82
447.104	1	80
447.275	1	61
447.445	1	92
447.616	1	82
447.786	1	80
447.957	1	88
448.127	1	70
448.298	1	78
448.468	1	82
448.639	1	74
448.809	1	81
448.979	1	72
449.150	1	68
449.320	1	79
449.491	1	77
449.661	1	73
449.832	1	74
450.002	1	82
450.173	1	79
450.343	1	73
450.514	1	74
450.684	1	64
450.855	1	83
451.025	1	81
451.196	1	70
451.366	1	80
451.537	1	70
451.707	1	72
451.878	1	74
452.048	1	79
452.218	1	77
452.389	1	71
452.559	1	63
452.730	1	69
452.900	1	80
453.071	1	70
453.241	1	76
453.412	1	66
453.582	1	78
453.753	1	71
453.923	1	67
454.093	1	75
454.264	1	76
454.434	1	78
454.605	1	62
454.775	1	66
454.946	1	78
455.116	1	62
455.287	1	76
455.457	1	68
455.628	1	79
455.798	1	70
455.968	1	63
456.139	1	68
456.309	1	73
456.480	1	64
456.650	1	66
456.821	1	70
456.991	1	58
457.161	1	76
457.332	1	60
457.502	1	63
457.673	1	56
457.843	1	71
458.014	1	65
458.184	1	62
458.355	1	59
458.525	1	63
458.695	1	68
458.866	1	68
459.036	1	52
459.207	1	61
459.377	1	55
459.548	1	61
459.718	1	61
459.888	1	65
460.059	1	55
460.229	1	52
460.400	1	48
460.570	1	60
460.740	1	53
460.911	1	59
461.081	1	74
461.252	1	66
461.422	1	66
461.593	1	97
461.763	1	309
461.933	1	86
462.104	1	58
462.274	1	65
462.445	1	45
462.615	1	51
462.785	1	53
462.956	1	59
463.126	1	68
463.297	1	58
463.467	1	61
463.638	1	65
463.808	1	60
463.978	1	42
464.149	1	57
464.319	1	44
464.490	1	58
464.660	1	52
464.830	1	65
465.001	1	56
465.171	1	59
465.342	1	61
465.512	1	52
465.682	1	54
465.853	1	48
466.023	1	61
466.194	1	59
466.364	1	38
466.534	1	52
466.705	1	61
466.875	1	54
467.045	1	43
467.216	1	48
467.386	1	57
467.557	1	49
467.727	1	55
467.897	1	47
468.068	1	48
468.238	1	46
468.409	1	39
468.579	1	56
468.749	1	55
468.920	1	57
469.090	1	45
469.260	1	50
469.431	1	42
469.601	1	56
469.772	1	52
469.942	1	48
470.112	1	42
470.283	1	45
470.453	1	46
470.623	1	39
470.794	1	37
470.964	1	51
471.135	1	49
471.305	1	61
471.475	1	52
471.646	1	49
471.816	1	50
471.986	1	45
472.157	1	43
472.327	1	45
472.497	1	44
472.668	1	53
472.838	1	47
473.009	1	49
473.179	1	44
473.349	1	37
473.520	1	33
473.690	1	43
473.860	1	41
474.031	1	48
474.201	1	30
474.371	1	42
474.542	1	53
474.712	1	42
474.882	1	48
475.053	1	50
475.223	1	30
475.394	1	39
475.564	1	22
475.734	1	44
475.905	1	45
476.075	1	52
476.245	1	46
476.416	1	51
476.586	1	32
476.756	1	46
476.927	1	30
477.097	1	43
477.267	1	44
477.438	1	33
477.608	1	36
477.778	1	42
477.949	1	37
478.119	1	41
478.289	1	27
478.460	1	43
478.630	1	49
478.800	1	35
478.971	1	36
479.141	1	46
479.311	1	44
479.482	1	36
479.652	1	33
479.822	1	37
479.993	1	32
480.163	1	26
480.333	1	42
480.504	1	34
480.674	1	35
480.844	1	39
481.015	1	39
481.185	1	29
481.355	1	39
481.525	1	35
481.696	1	40
481.866	1	36
482.036	1	28
482.207	1	20
482.377	1	36
482.547	1	35
482.718	1	45
482.888	1	42
483.058	1	41
483.229	1	38
483.399	1	45
483.569	1	36
483.740	1	27
483.910	1	30
484.080	1	39
484.250	1	31
484.421	1	37
484.591	1	47
484.761	1	40
484.932	1	35
485.102	1	43
485.272	1	37
485.443	1	27
485.613	1	36
485.783	1	30
485.953	1	29
486.124	1	31
486.294	1	34
486.464	1	38
486.635	1	34
486.805	1	36
486.975	1	42
487.146	1	31
487.316	1	28
487.486	1	32
487.656	1	37
487.827	1	25
487.997	1	35
488.167	1	32
488.338	1	30
488.508	1	25
488.678	1	23
488.848	1	33
489.019	1	31
489.189	1	26
489.359	1	31
489.529	1	26
489.700	1	33
489.870	1	24
490.040	1	34
490.211	1	33
490.381	1	29
490.551	1	20
490.721	1	41
490.892	1	30
491.062	1	28
491.232	1	32
491.402	1	16
491.573	1	20
491.743	1	23
491.913	1	21
492.084	1	31
492.254	1	29
492.424	1	18
492.594	1	29
492.765	1	26
492.935	1	15
493.105	1	36
493.275	1	31
493.446	1	21
493.616	1	24
493.786	1	24
493.956	1	33
494.127	1	24
494.297	1	28
494.467	1	23
494.637	1	30
494.808	1	30
494.978	1	23
495.148	1	18
495.318	1	20
495.489	1	22
495.659	1	12
495.829	1	25
495.999	1	24
496.170	1	18
496.340	1	25
496.510	1	21
496.680	1	26
496.851	1	20
497.021	1	16
497.191	1	21
497.361	1	34
497.532	1	25
497.702	1	27
497.872	1	20
498.042	1	27
498.213	1	27
498.383	1	9
498.553	1	32
498.723	1	26
498.894	1	19
499.064	1	15
499.234	1	21
499.404	1	24
499.574	1	18
499.745	1	34
499.915	1	15
500.085	1	11
500.255	1	7
500.426	1	13
500.596	1	21
500.766	1	13
500.936	1	16
501.106	1	18
501.277	1	20
501.447	1	13
501.617	1	20
501.787	1	19
501.958	1	23
502.128	1	24
502.298	1	17
502.468	1	21
502.638	1	27
502.809	1	26
502.979	1	15
503.149	1	38
503.319	1	11
503.489	1	17
503.660	1	21
503.830	1	16
504.000	1	14
504.170	1	22
504.340	1	23
504.511	1	23
504.681	1	18
504.851	1	14
505.021	1	8
505.192	1	21
505.362	1	13
505.532	1	25
505.702	1	24
505.872	1	18
506.043	1	19
506.213	1	29
506.383	1	16
506.553	1	31
506.723	1	14
506.893	1	9
507.064	1	21
507.234	1	8
507.404	1	5
507.574	1	15
507.744	1	20
507.915	1	25
508.085	1	21
508.255	1	25
508.425	1	12
508.595	1	19
508.766	1	20
508.936	1	12
509.106	1	16
509.276	1	19
509.446	1	18
509.616	1	14
509.787	1	16
509.957	1	6
510.127	1	14
510.297	1	8
510.467	1	16
510.638	1	11
510.808	1	9
510.978	1	14
511.148	1	7
511.318	1	17
511.488	1	23
511.659	1	14
511.829	1	27
511.999	1	20
512.169	1	16
512.339	1	10
512.509	1	9
512.680	1	19
512.850	1	5
513.020	1	10
513.190	1	19
513.360	1	16
513.530	1	9
513.700	1	16
513.871	1	17
514.041	1	13
514.211	1	15
514.381	1	19
514.551	1	8
514.721	1	23
514.892	1	15
515.062	1	8
515.232	1	12
515.402	1	24
515.572	1	11
515.742	1	5
515.912	1	19
516.083	1	23
516.253	1	13
516.423	1	14
516.593	1	6
516.763	1	16
516.933	1	14
517.104	1	17
517.274	1	8
517.444	1	13
517.614	1	14
517.784	1	12
517.954	1	3
518.124	1	16
518.294	1	12
518.465	1	9
518.635	1	17
518.805	1	19
518.975	1	-1
519.145	1	6
519.315	1	14
519.485	1	10
519.656	1	4
519.826	1	10
519.996	1	9
520.166	1	17
520.336	1	17
520.506	1	11
520.676	1	13
520.846	1	19
521.017	1	12
521.187	1	16
521.357	1	11
521.527	1	10
521.697	1	7
521.867	1	5
522.037	1	5
522.207	1	30
522.377	1	17
522.548	1	20
522.718	1	21
522.888	1	13
523.058	1	7
523.228	1	22
523.398	1	13
523.568	1	16
523.738	1	25
523.909	1	11
524.079	1	9
524.249	1	19
524.419	1	6
524.589	1	13
524.759	1	8
524.929	1	17
525.099	1	3
525.269	1	12
525.439	1	11
525.610	1	20
525.780	1	1
525.950	1	15
526.120	1	12
526.290	1	10
526.460	1	22
526.630	1	5
526.800	1	23
526.970	1	4
527.140	1	0
527.311	1	0
527.481	1	-1
527.651	1	22
527.821	1	9
527.991	1	19
528.161	1	15
528.331	1	11
528.501	1	3
528.671	1	12
528.841	1	3
529.011	1	9
529.181	1	17
529.352	1	16
529.522	1	12
529.692	1	21
529.862	1	11
530.032	1	15
530.202	1	7
530.372	1	19
530.542	1	2
530.712	1	1
530.882	1	0
531.052	1	19
531.222	1	2
531.392	1	10
531.563	1	3
531.733	1	10
531.903	1	27
532.073	1	3
532.243	1	13
532.413	1	13
532.583	1	15
532.753	1	8
532.923	1	10
533.093	1	14
533.263	1	15
533.433	1	13
533.603	1	10
533.773	1	8
533.943	1	17
534.113	1	10
534.284	1	13
534.454	1	17
534.624	1	11
534.794	1	11
534.964	1	16
535.134	1	20
535.304	1	9
535.474	1	5
535.644	1	-1
535.814	1	11
535.984	1	14
536.154	1	12
536.324	1	10
536.494	1	-2
536.664	1	14
536.834	1	10
537.004	1	14
537.174	1	1
537.344	1	16
537.514	1	17
537.685	1	9
537.855	1	7
538.025	1	14
538.195	1	11
538.365	1	0
538.535	1	-2
538.705	1	11
538.875	1	9
539.045	1	4
539.215	1	9
539.385	1	4
539.555	1	16
539.725	1	6
539.895	1	-5
540.065	1	15
540.235	1	11
540.405	1	15
540.575	1	7
540.745	1	6
540.915	1	3
541.085	1	15
541.255	1	5
541.425	1	15
541.595	1	11
541.765	1	4
541.935	1	11
542.105	1	15
542.275	1	16
542.445	1	6
542.615	1	10
542.785	1	8
542.955	1	14
543.125	1	0
543.295	1	6
543.465	1	10
543.635	1	13
543.805	1	8
543.975	1	3
544.145	1	11
544.315	1	1
544.485	1	6
544.655	1	6
544.825	1	14
544.995	1	15
545.165	1	1
545.335	1	6
545.505	1	19
545.675	1	12
545.845	1	10
546.015	1	20
546.185	1	-3
546.355	1	14
546.525	1	16
546.695	1	10
546.865	1	7
547.035	1	7
547.205	1	27
547.375	1	12
547.545	1	6
547.715	1	6
547.885	1	7
548.055	1	3
548.225	1	17
548.395	1	1
548.565	1	8
548.735	1	13
548.905	1	11
549.075	1	12
549.245	1	-2
549.415	1	9
549.585	1	15
549.755	1	-2
549.925	1	10
550.095	1	12
550.265	1	-2
550.435	1	3
550.605	1	7
550.775	1	14
550.945	1	15
551.115	1	2
551.285	1	9
551.455	1	5
551.625	1	12
551.795	1	-2
551.965	1	6
552.135	1	6
552.305	1	7
552.475	1	21
552.645	1	18
552.815	1	9
552.985	1	15
553.155	1	11
553.325	1	5
553.495	1	15
553.665	1	3
553.835	1	15
554.004	1	4
554.174	1	9
554.344	1	15
554.514	1	11
554.684	1	5
554.854	1	6
555.024	1	5
555.194	1	5
555.364	1	7
555.534	1	11
555.704	1	13
555.874	1	3
556.044	1	13
556.214	1	12
556.384	1	14
556.554	1	0
556.724	1	14
556.894	1	6
557.064	1	14
557.234	1	9
557.404	1	5
557.573	1	9
557.743	1	16
557.913	1	11
558.083	1	5
558.253	1	8
558.423	1	13
558.593	1	14
558.763	1	4
558.933	1	5
559.103	1	13
559.273	1	8
559.443	1	7
559.613	1	4
559.783	1	9
559.953	1	-1
560.122	1	9
560.292	1	-4
560.462	1	-1
560.632	1	13
560.802	1	13
560.972	1	11
561.142	1	7
561.312	1	2
561.482	1	7
561.652	1	0
561.822	1	8
561.992	1	14
562.162	1	5
562.331	1	20
562.501	1	10
562.671	1	6
562.841	1	-7
563.011	1	19
563.181	1	4
563.351	1	20
563.521	1	-2
563.691	1	7
563.861	1	5
564.031	1	2
564.201	1	7
564.370	1	7
564.540	1	17
564.710	1	5
564.880	1	18
565.050	1	5
565.220	1	8
565.390	1	10
565.560	1	15
565.730	1	0
565.900	1	3
566.069	1	-2
566.239	1	12
566.409	1	10
566.579	1	-1
566.749	1	-3
566.919	1	5
567.089	1	12
567.259	1	6
567.429	1	19
567.599	1	13
567.768	1	11
567.938	1	4
568.108	1	9
568.278	1	10
568.448	1	5
568.618	1	6
568.788	1	15
568.958	1	2
569.128	1	11
569.297	1	20
569.467	1	14
569.637	1	5
569.807	1	25
569.977	1	5
570.147	1	7
570.317	1	10
570.487	1	11
570.656	1	0
570.826	1	7
570.996	1	3
571.166	1	0
571.336	1	-10
571.506	1	11
571.676	1	9
571.846	1	6
572.015	1	9
572.185	1	5
572.355	1	7
572.525	1	10
572.695	1	8
572.865	1	10
573.035	1	9
573.205	1	6
573.374	1	1
573.544	1	5
573.714	1	2
573.884	1	8
574.054	1	18
574.224	1	5
574.394	1	12
574.563	1	5
574.733	1	11
574.903	1	5
575.073	1	6
575.243	1	8
575.413	1	-3
575.583	1	6
575.752	1	11
575.922	1	12
576.092	1	4
576.262	1	7
576.432	1	5
576.602	1	13
576.772	1	4
576.941	1	1
577.111	1	12
577.281	1	9
577.451	1	10
577.621	1	20
577.791	1	14
577.960	1	11
578.130	1	0
578.300	1	13
578.470	1	4
578.640	1	13
578.810	1	13
578.979	1	6
579.149	1	9
579.319	1	3
579.489	1	1
579.659	1	-3
579.829	1	7
579.998	1	2
580.168	1	4
580.338	1	11
580.508	1	13
580.678	1	6
580.848	1	12
581.017	1	6
581.187	1	9
581.357	1	2
581.527	1	0
581.697	1	6
581.867	1	4
582.036	1	-1
582.206	1	0
582.376	1	-2
582.546	1	12
582.716	1	14
582.885	1	3
583.055	1	7
583.225	1	1
583.395	1	7
583.565	1	4
583.735	1	12
583.904	1	3
584.074	1	18
584.244	1	-6
584.414	1	12
584.584	1	17
584.753	1	-3
584.923	1	-2
585.093	1	11
585.263	1	4
585.433	1	4
585.602	1	17
585.772	1	7
585.942	1	10
586.112	1	8
586.282	1	16
586.451	1	15
586.621	1	12
586.791	1	11
586.961	1	9
587.131	1	6
587.300	1	12
587.470	1	-1
587.640	1	7
587.810	1	10
587.980	1	9
588.149	1	20
588.319	1	5
588.489	1	3
588.659	1	16
588.829	1	17
588.998	1	17
589.168	1	10
589.338	1	-4
589.508	1	15
589.677	1	4
589.847	1	8
590.017	1	16
590.187	1	-2
590.357	1	11
590.526	1	4
590.696	1	6
590.866	1	-5
591.036	1	19
591.205	1	12
591.375	1	6
591.545	1	10
591.715	1	-1
591.885	1	18
592.054	1	3
592.224	1	15
592.394	1	11
592.564	1	9
592.733	1	13
592.903	1	8
593.073	1	14
593.243	1	19
593.412	1	7
593.582	1	-1
593.752	1	10
593.922	1	17
594.091	1	9
594.261	1	-3
594.431	1	6
594.601	1	11
594.771	1	6
594.940	1	14
595.110	1	14
595.280	1	19
595.450	1	23
595.619	1	14
595.789	1	2
595.959	1	9
596.129	1	14
596.298	1	4
596.468	1	5
596.638	1	9
596.808	1	17
596.977	1	17
597.147	1	26
597.317	1	13
597.487	1	11
597.656	1	-1
597.826	1	13
597.996	1	7
598.166	1	15
598.335	1	12
598.505	1	23
598.675	1	12
598.844	1	23
599.014	1	-2
599.184	1	9
599.354	1	35
599.523	1	14
599.693	1	12
599.863	1	13
600.033	1	8
600.202	1	21
600.372	1	10
600.542	1	15
600.712	1	21
600.881	1	20
601.051	1	20
601.221	1	28
601.390	1	15
601.560	1	12
601.730	1	17
601.900	1	15
602.069	1	17
602.239	1	12
602.409	1	12
602.578	1	16
602.748	1	17
602.918	1	9
603.088	1	10
603.257	1	27
603.427	1	22
603.597	1	12
603.767	1	19
603.936	1	13
604.106	1	22
604.276	1	14
604.445	1	8
604.615	1	20
604.785	1	18
604.954	1	20
605.124	1	31
605.294	1	20
605.464	1	25
605.633	1	27
605.803	1	25
605.973	1	21
606.142	1	20
606.312	1	28
606.482	1	-3
606.652	1	20
606.821	1	17
606.991	1	16
607.161	1	24
607.330	1	25
607.500	1	17
607.670	1	37
607.839	1	19
608.009	1	12
608.179	1	20
608.348	1	8
608.518	1	15
608.688	1	15
608.858	1	23
609.027	1	25
609.197	1	12
609.367	1	25
609.536	1	15
609.706	1	35
609.876	1	17
610.045	1	17
610.215	1	31
610.385	1	21
610.554	1	26
610.724	1	22
610.894	1	24
611.063	1	28
611.233	1	26
611.403	1	28
611.572	1	29
611.742	1	25
611.912	1	12
612.081	1	19
612.251	1	18
612.421	1	18
612.590	1	6
612.760	1	23
612.930	1	19
613.099	1	24
613.269	1	19
613.439	1	21
613.608	1	21
613.778	1	36
613.948	1	18
614.117	1	15
614.287	1	25
614.457	1	25
614.626	1	23
614.796	1	31
614.966	1	31
615.135	1	34
615.305	1	39
615.475	1	40
615.644	1	26
615.814	1	29
615.984	1	27
616.153	1	30
616.323	1	20
616.493	1	28
616.662	1	30
616.832	1	23
617.002	1	35
617.171	1	27
617.341	1	39
617.511	1	32
617.680	1	33
617.850	1	39
618.019	1	32
618.189	1	28
618.359	1	23
618.528	1	30
618.698	1	41
618.868	1	27
619.037	1	24
619.207	1	31
619.377	1	31
619.546	1	25
619.716	1	30
619.885	1	34
620.055	1	30
620.225	1	34
620.394	1	33
620.564	1	42
620.734	1	28
620.903	1	36
621.073	1	35
621.242	1	46
621.412	1	27
621.582	1	41
621.751	1	21
621.921	1	22
622.091	1	30
622.260	1	28
622.430	1	39
622.599	1	35
622.769	1	30
622.939	1	22
623.108	1	31
623.278	1	38
623.448	1	24
623.617	1	33
623.787	1	46
623.956	1	35
624.126	1	38
624.296	1	29
624.465	1	44
624.635	1	26
624.804	1	35
624.974	1	41
625.144	1	40
625.313	1	34
625.483	1	42
625.652	1	39
625.822	1	33
625.992	1	45
626.161	1	41
626.331	1	42
626.501	1	30
626.670	1	44
626.840	1	30
627.009	1	38
627.179	1	44
627.348	1	33
627.518	1	26
627.688	1	37
627.857	1	34
628.027	1	40
628.196	1	35
628.366	1	52
628.536	1	35
628.705	1	41
628.875	1	34
629.044	1	34
629.214	1	26
629.384	1	39
629.553	1	37
629.723	1	43
629.892	1	43
630.062	1	35
630.232	1	36
630.401	1	40
630.571	1	37
630.740	1	46
630.910	1	40
631.079	1	49
631.249	1	34
631.419	1	32
631.588	1	37
631.758	1	44
631.927	1	36
632.097	1	44
632.266	1	30
632.436	1	44
632.606	1	36
632.775	1	35
632.945	1	34
633.114	1	44
633.284	1	30
633.453	1	35
633.623	1	39
633.793	1	38
633.962	1	40
634.132	1	26
634.301	1	43
634.471	1	41
634.640	1	35
634.810	1	40
634.979	1	24
635.149	1	38
635.319	1	41
635.488	1	44
635.658	1	30
635.827	1	50
635.997	1	50
636.166	1	41
636.336	1	40
636.505	1	47
636.675	1	36
636.845	1	44
637.014	1	39
637.184	1	39
637.353	1	54
637.523	1	37
637.692	1	45
637.862	1	32
638.031	1	40
638.201	1	39
638.370	1	43
638.540	1	45
638.710	1	39
638.879	1	46
639.049	1	39
639.218	1	48
639.388	1	40
639.557	1	40
639.727	1	49
639.896	1	43
640.066	1	33
640.235	1	31
640.405	1	42
640.574	1	46
640.744	1	42
640.914	1	38
641.083	1	44
641.253	1	47
641.422	1	53
641.592	1	46
641.761	1	34
641.931	1	43
642.100	1	43
642.270	1	39
642.439	1	42
642.609	1	52
642.778	1	38
642.948	1	42
643.117	1	42
643.287	1	40
643.456	1	41
643.626	1	43
643.795	1	40
643.965	1	46
644.134	1	52
644.304	1	34
644.473	1	44
644.643	1	33
644.812	1	46
644.982	1	32
645.151	1	32
645.321	1	48
645.490	1	47
645.660	1	49
645.829	1	39
645.999	1	48
646.168	1	36
646.338	1	47
646.507	1	46
646.677	1	40
646.846	1	36
647.016	1	37
647.185	1	41
647.355	1	40
647.524	1	44
647.694	1	58
647.863	1	38
648.033	1	46
648.202	1	45
648.372	1	37
648.541	1	40
648.711	1	32
648.880	1	37
649.050	1	43
649.219	1	34
649.389	1	44
649.558	1	47
649.728	1	40
649.897	1	42
650.067	1	26
650.236	1	44
650.406	1	41
650.575	1	35
650.745	1	41
650.914	1	40
651.084	1	25
651.253	1	45
651.423	1	41
651.592	1	50
651.762	1	45
651.931	1	46
652.101	1	41
652.270	1	33
652.440	1	38
652.609	1	48
652.778	1	44
652.948	1	38
653.117	1	47
653.287	1	34
653.456	1	37
653.626	1	37
653.795	1	48
653.965	1	56
654.134	1	36
654.304	1	30
654.473	1	31
654.643	1	41
654.812	1	45
654.982	1	37
655.151	1	48
655.320	1	53
655.490	1	31
655.659	1	38
655.829	1	39
655.998	1	32
656.168	1	39
656.337	1	33
656.507	1	36
656.676	1	46
656.846	1	42
657.015	1	36
657.184	1	43
657.354	1	42
657.523	1	33
657.693	1	33
657.862	1	21
658.032	1	43
658.201	1	43
658.371	1	42
658.540	1	37
658.709	1	40
658.879	1	41
659.048	1	43
659.218	1	37
659.387	1	37
659.557	1	35
659.726	1	45
659.895	1	37
660.065	1	36
660.234	1	30
660.404	1	44
660.573	1	26
660.743	1	32
660.912	1	31
661.081	1	28
661.251	1	46
661.420	1	36
661.590	1	33
661.759	1	42
661.929	1	32
662.098	1	33
662.267	1	34
662.437	1	36
662.606	1	24
662.776	1	26
662.945	1	39
663.115	1	35
663.284	1	35
663.453	1	46
663.623	1	27
663.792	1	37
663.962	1	36
664.131	1	27
664.300	1	34
664.470	1	29
664.639	1	34
664.809	1	30
664.978	1	48
665.148	1	30
665.317	1	31
665.486	1	17
665.656	1	54
665.825	1	30
665.995	1	22
666.164	1	32
666.333	1	34
666.503	1	41
666.672	1	21
666.842	1	36
667.011	1	45
667.180	1	39
667.350	1	38
667.519	1	28
667.689	1	31
667.858	1	28
668.027	1	44
668.197	1	40
668.366	1	44
668.536	1	32
668.705	1	25
668.874	1	28
669.044	1	28
669.213	1	33
669.382	1	39
669.552	1	24
669.721	1	38
669.891	1	31
670.060	1	34
670.229	1	26
670.399	1	36
670.568	1	24
670.738	1	31
670.907	1	26
671.076	1	33
671.246	1	26
671.415	1	25
671.584	1	36
671.754	1	25
671.923	1	36
672.093	1	35
672.262	1	39
672.431	1	24
672.601	1	37
672.770	1	29
672.939	1	27
673.109	1	22
673.278	1	35
673.448	1	28
673.617	1	23
673.786	1	27
