325.333	1	26
325.504	1	24
325.675	1	18
325.846	1	13
326.017	1	33
326.188	1	38
326.359	1	43
326.531	1	23
326.702	1	31
326.873	1	24
327.044	1	26
327.215	1	34
327.386	1	22
327.557	1	40
327.728	1	25
327.899	1	37
328.070	1	25
328.241	1	33
328.412	1	39
328.583	1	37
328.754	1	28
328.926	1	39
329.097	1	25
329.268	1	30
329.439	1	31
329.610	1	30
329.781	1	25
329.952	1	37
330.123	1	32
330.294	1	28
330.465	1	29
330.636	1	34
330.807	1	28
330.978	1	32
331.149	1	28
331.320	1	29
331.492	1	36
331.663	1	34
331.834	1	33
332.005	1	45
332.176	1	39
332.347	1	29
332.518	1	31
332.689	1	38
332.860	1	29
333.031	1	26
333.202	1	34
333.373	1	28
333.544	1	35
333.715	1	40
333.886	1	37
334.057	1	52
334.228	1	24
334.399	1	34
334.570	1	27
334.741	1	41
334.912	1	36
335.084	1	35
335.255	1	36
335.426	1	41
335.597	1	39
335.768	1	39
335.939	1	39
336.110	1	44
336.281	1	33
336.452	1	35
336.623	1	44
336.794	1	34
336.965	1	35
337.136	1	37
337.307	1	48
337.478	1	20
337.649	1	40
337.820	1	40
337.991	1	36
338.162	1	28
338.333	1	33
338.504	1	41
338.675	1	32
338.846	1	48
339.017	1	38
339.188	1	36
339.359	1	28
339.530	1	35
339.701	1	49
339.872	1	40
340.043	1	44
340.214	1	31
340.385	1	35
340.556	1	32
340.727	1	38
340.898	1	41
341.069	1	27
341.240	1	22
341.411	1	41
341.582	1	36
341.753	1	39
341.924	1	44
342.095	1	37
342.266	1	33
342.437	1	40
342.608	1	35
342.779	1	44
342.950	1	34
343.121	1	35
343.292	1	46
343.463	1	37
343.634	1	36
343.805	1	32
343.976	1	40
344.147	1	27
344.318	1	18
344.489	1	39
344.660	1	25
344.831	1	30
345.002	1	38
345.173	1	34
345.344	1	37
345.515	1	23
345.686	1	25
345.857	1	33
346.028	1	32
346.199	1	41
346.370	1	32
346.541	1	29
346.712	1	44
346.883	1	31
347.054	1	31
347.225	1	19
347.396	1	22
347.567	1	50
347.738	1	32
347.909	1	48
348.080	1	31
348.251	1	35
348.422	1	27
348.593	1	35
348.764	1	38
348.935	1	20
349.106	1	27
349.277	1	20
349.448	1	36
349.619	1	17
349.790	1	30
349.961	1	32
350.132	1	28
350.303	1	30
350.474	1	30
350.645	1	29
350.816	1	21
350.987	1	26
351.157	1	26
351.328	1	10
351.499	1	24
351.670	1	28
351.841	1	39
352.012	1	32
352.183	1	15
352.354	1	32
352.525	1	22
352.696	1	33
352.867	1	20
353.038	1	37
353.209	1	24
353.380	1	20
353.551	1	27
353.722	1	20
353.893	1	27
354.064	1	25
354.235	1	27
354.406	1	26
354.576	1	30
354.747	1	16
354.918	1	25
355.089	1	16
355.260	1	25
355.431	1	32
355.602	1	15
355.773	1	8
355.944	1	17
356.115	1	22
356.286	1	16
356.457	1	24
356.628	1	25
356.799	1	17
356.970	1	22
357.141	1	21
357.311	1	25
357.482	1	24
357.653	1	19
357.824	1	32
357.995	1	10
358.166	1	14
358.337	1	18
358.508	1	17
358.679	1	9
358.850	1	17
359.021	1	15
359.192	1	8
359.363	1	22
359.533	1	24
359.704	1	25
359.875	1	8
360.046	1	19
360.217	1	9
360.388	1	19
360.559	1	15
360.730	1	26
360.901	1	20
361.072	1	15
361.243	1	18
361.414	1	20
361.584	1	23
361.755	1	16
361.926	1	7
362.097	1	27
362.268	1	16
362.439	1	9
362.610	1	20
362.781	1	12
362.952	1	9
363.123	1	11
363.293	1	15
363.464	1	12
363.635	1	14
363.806	1	15
363.977	1	15
364.148	1	14
364.319	1	3
364.490	1	9
364.661	1	10
364.832	1	11
365.002	1	15
365.173	1	6
365.344	1	22
365.515	1	11
365.686	1	9
365.857	1	3
366.028	1	2
366.199	1	11
366.370	1	17
366.540	1	15
366.711	1	13
366.882	1	18
367.053	1	7
367.224	1	11
367.395	1	13
367.566	1	12
367.737	1	12
367.908	1	11
368.078	1	14
368.249	1	12
368.420	1	12
368.591	1	19
368.762	1	10
368.933	1	6
369.104	1	16
369.274	1	6
369.445	1	9
369.616	1	2
369.787	1	8
369.958	1	2
370.129	1	0
370.300	1	-9
370.471	1	11
370.641	1	4
370.812	1	-2
370.983	1	8
371.154	1	8
371.325	1	15
371.496	1	3
371.667	1	11
371.837	1	-1
372.008	1	2
372.179	1	13
372.350	1	10
372.521	1	27
372.692	1	-7
372.863	1	11
373.033	1	14
373.204	1	10
373.375	1	14
373.546	1	12
373.717	1	-4
373.888	1	2
374.059	1	13
374.229	1	10
374.400	1	10
374.571	1	8
374.742	1	3
374.913	1	5
375.084	1	10
375.254	1	12
375.425	1	2
375.596	1	13
375.767	1	8
375.938	1	2
376.109	1	4
376.279	1	11
376.450	1	10
376.621	1	7
376.792	1	6
376.963	1	11
377.134	1	-1
377.304	1	16
377.475	1	-3
377.646	1	8
377.817	1	9
377.988	1	10
378.159	1	7
378.329	1	20
378.500	1	-4
378.671	1	9
378.842	1	8
379.013	1	5
379.184	1	4
379.354	1	15
379.525	1	3
379.696	1	13
379.867	1	-4
380.038	1	8
380.209	1	-2
380.379	1	3
380.550	1	8
380.721	1	-5
380.892	1	10
381.063	1	7
381.233	1	5
381.404	1	20
381.575	1	13
381.746	1	0
381.917	1	14
382.087	1	10
382.258	1	-2
382.429	1	23
382.600	1	12
382.771	1	6
382.941	1	17
383.112	1	7
383.283	1	15
383.454	1	5
383.625	1	14
383.795	1	5
383.966	1	5
384.137	1	16
384.308	1	19
384.479	1	19
384.649	1	11
384.820	1	15
384.991	1	3
385.162	1	16
385.333	1	9
385.503	1	4
385.674	1	29
385.845	1	6
386.016	1	17
386.187	1	5
386.357	1	18
386.528	1	6
386.699	1	21
386.870	1	17
387.041	1	3
387.211	1	20
387.382	1	16
387.553	1	28
387.724	1	19
387.894	1	11
388.065	1	15
388.236	1	2
388.407	1	21
388.578	1	7
388.748	1	21
388.919	1	1
389.090	1	19
389.261	1	8
389.431	1	19
389.602	1	37
389.773	1	3
389.944	1	9
390.114	1	21
390.285	1	6
390.456	1	26
390.627	1	11
390.798	1	9
390.968	1	9
391.139	1	18
391.310	1	7
391.481	1	13
391.651	1	19
391.822	1	14
391.993	1	0
392.164	1	18
392.334	1	8
392.505	1	9
392.676	1	22
392.847	1	24
393.017	1	14
393.188	1	24
393.359	1	18
393.530	1	16
393.700	1	15
393.871	1	11
394.042	1	4
394.213	1	17
394.383	1	15
394.554	1	17
394.725	1	10
394.896	1	25
395.066	1	21
395.237	1	16
395.408	1	29
395.579	1	19
395.749	1	20
395.920	1	19
396.091	1	13
396.262	1	11
396.432	1	19
396.603	1	30
396.774	1	13
396.945	1	20
397.115	1	30
397.286	1	8
397.457	1	21
397.627	1	21
397.798	1	26
397.969	1	13
398.140	1	34
398.310	1	29
398.481	1	11
398.652	1	27
398.823	1	21
398.993	1	31
399.164	1	27
399.335	1	26
399.505	1	29
399.676	1	29
399.847	1	24
400.018	1	24
400.188	1	31
400.359	1	25
400.530	1	30
400.700	1	17
400.871	1	41
401.042	1	22
401.213	1	21
401.383	1	40
401.554	1	35
401.725	1	15
401.895	1	30
402.066	1	31
402.237	1	20
402.408	1	25
402.578	1	25
402.749	1	26
402.920	1	34
403.090	1	30
403.261	1	22
403.432	1	29
403.603	1	29
403.773	1	28
403.944	1	34
404.115	1	39
404.285	1	42
404.456	1	30
404.627	1	26
404.797	1	34
404.968	1	39
405.139	1	28
405.310	1	39
405.480	1	31
405.651	1	32
405.822	1	32
405.992	1	27
406.163	1	34
406.334	1	32
406.504	1	36
406.675	1	46
406.846	1	33
407.016	1	35
407.187	1	13
407.358	1	32
407.528	1	30
407.699	1	36
407.870	1	24
408.041	1	36
408.211	1	29
408.382	1	43
408.553	1	40
408.723	1	42
408.894	1	32
409.065	1	30
409.235	1	39
409.406	1	37
409.577	1	35
409.747	1	31
409.918	1	62
410.089	1	42
410.259	1	38
410.430	1	41
410.601	1	42
410.771	1	35
410.942	1	48
411.113	1	43
411.283	1	47
411.454	1	33
411.625	1	44
411.795	1	37
411.966	1	41
412.137	1	44
412.307	1	44
412.478	1	46
412.649	1	36
412.819	1	26
412.990	1	36
413.161	1	29
413.331	1	37
413.502	1	48
413.672	1	35
413.843	1	42
414.014	1	36
414.184	1	39
414.355	1	38
414.526	1	46
414.696	1	54
414.867	1	34
415.038	1	52
415.208	1	41
415.379	1	49
415.550	1	41
415.720	1	27
415.891	1	54
416.062	1	30
416.232	1	34
416.403	1	50
416.573	1	34
416.744	1	38
416.915	1	51
417.085	1	52
417.256	1	42
417.427	1	45
417.597	1	51
417.768	1	44
417.939	1	40
418.109	1	57
418.280	1	42
418.450	1	52
418.621	1	45
418.792	1	41
418.962	1	49
419.133	1	49
419.304	1	45
419.474	1	49
419.645	1	41
419.815	1	46
419.986	1	41
420.157	1	49
420.327	1	40
420.498	1	44
420.669	1	56
420.839	1	41
421.010	1	46
421.180	1	48
421.351	1	46
421.522	1	47
421.692	1	44
421.863	1	50
422.033	1	43
422.204	1	41
422.375	1	48
422.545	1	48
422.716	1	50
422.886	1	56
423.057	1	49
423.228	1	58
423.398	1	53
423.569	1	44
423.740	1	47
423.910	1	52
424.081	1	49
424.251	1	54
424.422	1	38
424.593	1	49
424.763	1	45
424.934	1	57
425.104	1	56
425.275	1	44
425.445	1	32
425.616	1	44
425.787	1	56
425.957	1	49
426.128	1	45
426.298	1	41
426.469	1	43
426.640	1	52
426.810	1	46
426.981	1	53
427.151	1	51
427.322	1	45
427.493	1	53
427.663	1	52
427.834	1	53
428.004	1	34
428.175	1	45
428.345	1	48
428.516	1	38
428.687	1	53
428.857	1	54
429.028	1	54
429.198	1	50
429.369	1	51
429.540	1	54
429.710	1	43
429.881	1	43
430.051	1	49
430.222	1	46
430.392	1	49
430.563	1	44
430.734	1	52
430.904	1	48
431.075	1	62
431.245	1	53
431.416	1	58
431.586	1	51
431.757	1	52
431.927	1	50
432.098	1	50
432.269	1	45
432.439	1	57
432.610	1	45
432.780	1	50
432.951	1	58
433.121	1	59
433.292	1	55
433.462	1	50
433.633	1	53
433.804	1	57
433.974	1	44
434.145	1	52
434.315	1	48
434.486	1	50
434.656	1	56
434.827	1	53
434.997	1	52
435.168	1	54
435.339	1	50
435.509	1	50
435.680	1	57
435.850	1	47
436.021	1	47
436.191	1	61
436.362	1	53
436.532	1	60
436.703	1	55
436.873	1	56
437.044	1	46
437.214	1	51
437.385	1	52
437.556	1	47
437.726	1	47
437.897	1	46
438.067	1	46
438.238	1	46
438.408	1	61
438.579	1	63
438.749	1	52
438.920	1	49
439.090	1	44
439.261	1	50
439.431	1	52
439.602	1	47
439.772	1	65
439.943	1	54
440.113	1	49
440.284	1	52
440.455	1	55
440.625	1	42
440.796	1	53
440.966	1	57
441.137	1	53
441.307	1	56
441.478	1	49
441.648	1	55
441.819	1	62
441.989	1	60
442.160	1	54
442.330	1	38
442.501	1	38
442.671	1	59
442.842	1	42
443.012	1	45
443.183	1	53
443.353	1	57
443.524	1	54
443.694	1	50
443.865	1	31
444.035	1	47
444.206	1	42
444.376	1	51
444.547	1	57
444.717	1	56
444.888	1	53
445.058	1	55
445.229	1	39
445.399	1	47
445.570	1	49
445.740	1	47
445.911	1	49
446.081	1	49
446.252	1	43
446.422	1	59
446.593	1	49
446.763	1	56
446.934	1	51
447.104	1	49
447.275	1	40
447.445	1	55
447.616	1	50
447.786	1	55
447.957	1	52
448.127	1	42
448.298	1	46
448.468	1	52
448.639	1	42
448.809	1	61
448.979	1	44
449.150	1	47
449.320	1	53
449.491	1	59
449.661	1	51
449.832	1	58
450.002	1	55
450.173	1	47
450.343	1	45
450.514	1	53
450.684	1	49
450.855	1	44
451.025	1	64
451.196	1	44
451.366	1	53
451.537	1	49
451.707	1	46
451.878	1	46
452.048	1	46
452.218	1	57
452.389	1	48
452.559	1	43
452.730	1	46
452.900	1	56
453.071	1	41
453.241	1	49
453.412	1	56
453.582	1	44
453.753	1	46
453.923	1	47
454.093	1	55
454.264	1	50
454.434	1	60
454.605	1	36
454.775	1	38
454.946	1	49
455.116	1	40
455.287	1	51
455.457	1	36
455.628	1	45
455.798	1	46
455.968	1	49
456.139	1	55
456.309	1	40
456.480	1	41
456.650	1	31
456.821	1	40
456.991	1	40
457.161	1	54
457.332	1	43
457.502	1	33
457.673	1	49
457.843	1	44
458.014	1	36
458.184	1	45
458.355	1	37
458.525	1	43
458.695	1	40
458.866	1	42
459.036	1	37
459.207	1	41
459.377	1	39
459.548	1	38
459.718	1	35
459.888	1	37
460.059	1	39
460.229	1	29
460.400	1	32
460.570	1	32
460.740	1	40
460.911	1	39
461.081	1	48
461.252	1	41
461.422	1	51
461.593	1	34
461.763	1	46
461.933	1	42
462.104	1	40
462.274	1	34
462.445	1	47
462.615	1	42
462.785	1	36
462.956	1	32
463.126	1	37
463.297	1	38
463.467	1	43
463.638	1	39
463.808	1	34
463.978	1	39
464.149	1	41
464.319	1	23
464.490	1	47
464.660	1	23
464.830	1	46
465.001	1	41
465.171	1	33
465.342	1	31
465.512	1	35
465.682	1	31
465.853	1	38
466.023	1	33
466.194	1	27
466.364	1	38
466.534	1	32
466.705	1	43
466.875	1	30
467.045	1	27
467.216	1	36
467.386	1	33
467.557	1	26
467.727	1	41
467.897	1	26
468.068	1	39
468.238	1	17
468.409	1	33
468.579	1	40
468.749	1	35
468.920	1	30
469.090	1	29
469.260	1	36
469.431	1	41
469.601	1	40
469.772	1	36
469.942	1	33
470.112	1	30
470.283	1	33
470.453	1	36
470.623	1	30
470.794	1	30
470.964	1	38
471.135	1	24
471.305	1	33
471.475	1	38
471.646	1	30
471.816	1	35
471.986	1	32
472.157	1	34
472.327	1	37
472.497	1	28
472.668	1	33
472.838	1	34
473.009	1	34
473.179	1	39
473.349	1	24
473.520	1	30
473.690	1	28
473.860	1	35
474.031	1	21
474.201	1	36
474.371	1	37
474.542	1	32
474.712	1	21
474.882	1	35
475.053	1	19
475.223	1	7
475.394	1	37
475.564	1	8
475.734	1	32
475.905	1	33
476.075	1	28
476.245	1	18
476.416	1	27
476.586	1	18
476.756	1	27
476.927	1	22
477.097	1	36
477.267	1	32
477.438	1	14
477.608	1	30
477.778	1	25
477.949	1	33
478.119	1	25
478.289	1	26
478.460	1	40
478.630	1	37
478.800	1	17
478.971	1	20
479.141	1	30
479.311	1	30
479.482	1	20
479.652	1	30
479.822	1	18
479.993	1	24
480.163	1	32
480.333	1	28
480.504	1	32
480.674	1	25
480.844	1	22
481.015	1	25
481.185	1	25
481.355	1	26
481.525	1	32
481.696	1	33
481.866	1	21
482.036	1	26
482.207	1	26
482.377	1	21
482.547	1	24
482.718	1	29
482.888	1	26
483.058	1	26
483.229	1	30
483.399	1	27
483.569	1	25
483.740	1	24
483.910	1	21
484.080	1	25
484.250	1	23
484.421	1	39
484.591	1	29
484.761	1	26
484.932	1	25
485.102	1	31
485.272	1	27
485.443	1	18
485.613	1	24
485.783	1	27
485.953	1	30
486.124	1	18
486.294	1	29
486.464	1	30
486.635	1	11
486.805	1	26
486.975	1	24
487.146	1	26
487.316	1	17
487.486	1	33
487.656	1	37
487.827	1	8
487.997	1	32
488.167	1	20
488.338	1	16
488.508	1	20
488.678	1	24
488.848	1	24
489.019	1	23
489.189	1	24
489.359	1	22
489.529	1	22
489.700	1	20
489.870	1	19
490.040	1	20
490.211	1	25
490.381	1	30
490.551	1	12
490.721	1	25
490.892	1	26
491.062	1	20
491.232	1	30
491.402	1	22
491.573	1	11
491.743	1	17
491.913	1	13
492.084	1	20
492.254	1	32
492.424	1	19
492.594	1	16
492.765	1	19
492.935	1	10
493.105	1	9
493.275	1	26
493.446	1	14
493.616	1	6
493.786	1	9
493.956	1	19
494.127	1	18
494.297	1	9
494.467	1	11
494.637	1	13
494.808	1	14
494.978	1	13
495.148	1	15
495.318	1	12
495.489	1	12
495.659	1	10
495.829	1	18
495.999	1	23
496.170	1	9
496.340	1	28
496.510	1	19
496.680	1	10
496.851	1	18
497.021	1	5
497.191	1	13
497.361	1	24
497.532	1	24
497.702	1	11
497.872	1	28
498.042	1	32
498.213	1	13
498.383	1	10
498.553	1	16
498.723	1	13
498.894	1	3
499.064	1	13
499.234	1	10
499.404	1	13
499.574	1	14
499.745	1	5
499.915	1	12
500.085	1	3
500.255	1	9
500.426	1	13
500.596	1	26
500.766	1	20
500.936	1	4
501.106	1	15
501.277	1	24
501.447	1	10
501.617	1	14
501.787	1	16
501.958	1	17
502.128	1	12
502.298	1	12
502.468	1	6
502.638	1	14
502.809	1	21
502.979	1	12
503.149	1	22
503.319	1	2
503.489	1	20
503.660	1	18
503.830	1	14
504.000	1	5
504.170	1	25
504.340	1	15
504.511	1	15
504.681	1	14
504.851	1	16
505.021	1	8
505.192	1	14
505.362	1	15
505.532	1	12
505.702	1	12
505.872	1	8
506.043	1	10
506.213	1	17
506.383	1	15
506.553	1	5
506.723	1	13
506.893	1	6
507.064	1	7
507.234	1	9
507.404	1	-6
507.574	1	10
507.744	1	17
507.915	1	16
508.085	1	20
508.255	1	22
508.425	1	4
508.595	1	13
508.766	1	5
508.936	1	9
509.106	1	17
509.276	1	7
509.446	1	19
509.616	1	8
509.787	1	21
509.957	1	11
510.127	1	7
510.297	1	7
510.467	1	15
510.638	1	9
510.808	1	12
510.978	1	10
511.148	1	2
511.318	1	11
511.488	1	22
511.659	1	8
511.829	1	19
511.999	1	10
512.169	1	12
512.339	1	1
512.509	1	24
512.680	1	10
512.850	1	10
513.020	1	-1
513.190	1	20
513.360	1	8
513.530	1	1
513.700	1	8
513.871	1	12
514.041	1	15
514.211	1	10
514.381	1	7
514.551	1	2
514.721	1	18
514.892	1	14
515.062	1	7
515.232	1	6
515.402	1	10
515.572	1	5
515.742	1	17
515.912	1	20
516.083	1	7
516.253	1	6
516.423	1	5
516.593	1	9
516.763	1	12
516.933	1	17
517.104	1	10
517.274	1	7
517.444	1	10
517.614	1	2
517.784	1	12
517.954	1	-3
518.124	1	17
518.294	1	8
518.465	1	11
518.635	1	18
518.805	1	6
518.975	1	-4
519.145	1	18
519.315	1	7
519.485	1	1
519.656	1	6
519.826	1	16
519.996	1	4
520.166	1	7
520.336	1	16
520.506	1	-3
520.676	1	2
520.846	1	6
521.017	1	15
521.187	1	12
521.357	1	8
521.527	1	4
521.697	1	6
521.867	1	13
522.037	1	5
522.207	1	22
522.377	1	5
522.548	1	8
522.718	1	2
522.888	1	13
523.058	1	8
523.228	1	6
523.398	1	15
523.568	1	10
523.738	1	16
523.909	1	15
524.079	1	18
524.249	1	3
524.419	1	0
524.589	1	12
524.759	1	4
524.929	1	11
525.099	1	4
525.269	1	13
525.439	1	3
525.610	1	20
525.780	1	8
525.950	1	13
526.120	1	12
526.290	1	17
526.460	1	6
526.630	1	7
526.800	1	7
526.970	1	3
527.140	1	4
527.311	1	-6
527.481	1	-1
527.651	1	20
527.821	1	4
527.991	1	20
528.161	1	13
528.331	1	9
528.501	1	-2
528.671	1	2
528.841	1	3
529.011	1	10
529.181	1	15
529.352	1	15
529.522	1	7
529.692	1	12
529.862	1	10
530.032	1	8
530.202	1	8
530.372	1	11
530.542	1	4
530.712	1	7
530.882	1	12
531.052	1	14
531.222	1	10
531.392	1	7
531.563	1	13
531.733	1	3
531.903	1	4
532.073	1	6
532.243	1	0
532.413	1	14
532.583	1	15
532.753	1	15
532.923	1	11
533.093	1	4
533.263	1	13
533.433	1	6
533.603	1	9
533.773	1	6
533.943	1	12
534.113	1	10
534.284	1	12
534.454	1	13
534.624	1	8
534.794	1	14
534.964	1	10
535.134	1	11
535.304	1	6
535.474	1	15
535.644	1	-7
535.814	1	13
535.984	1	11
536.154	1	11
536.324	1	12
536.494	1	0
536.664	1	17
536.834	1	9
537.004	1	6
537.174	1	3
537.344	1	18
537.514	1	11
537.685	1	1
537.855	1	20
538.025	1	14
538.195	1	2
538.365	1	6
538.535	1	3
538.705	1	6
538.875	1	2
539.045	1	-5
539.215	1	7
539.385	1	9
539.555	1	5
539.725	1	6
539.895	1	-2
540.065	1	11
540.235	1	10
540.405	1	7
540.575	1	5
540.745	1	9
540.915	1	-1
541.085	1	9
541.255	1	2
541.425	1	5
541.595	1	6
541.765	1	6
541.935	1	-2
542.105	1	10
542.275	1	15
542.445	1	6
542.615	1	8
542.785	1	-11
542.955	1	27
543.125	1	1
543.295	1	-3
543.465	1	3
543.635	1	13
543.805	1	10
543.975	1	4
544.145	1	8
544.315	1	-6
544.485	1	8
544.655	1	11
544.825	1	9
544.995	1	17
545.165	1	6
545.335	1	5
545.505	1	11
545.675	1	13
545.845	1	6
546.015	1	7
546.185	1	12
546.355	1	14
546.525	1	18
546.695	1	16
546.865	1	5
547.035	1	6
547.205	1	6
547.375	1	4
547.545	1	11
547.715	1	11
547.885	1	0
548.055	1	7
548.225	1	5
548.395	1	-1
548.565	1	9
548.735	1	6
548.905	1	5
549.075	1	3
549.245	1	-3
549.415	1	-1
549.585	1	-1
549.755	1	7
549.925	1	12
550.095	1	5
550.265	1	1
550.435	1	4
550.605	1	3
550.775	1	4
550.945	1	8
551.115	1	4
551.285	1	7
551.455	1	0
551.625	1	13
551.795	1	5
551.965	1	4
552.135	1	1
552.305	1	7
552.475	1	13
552.645	1	5
552.815	1	10
552.985	1	18
553.155	1	3
553.325	1	6
553.495	1	7
553.665	1	4
553.835	1	9
554.004	1	-5
554.174	1	3
554.344	1	5
554.514	1	6
554.684	1	-3
554.854	1	13
555.024	1	6
555.194	1	9
555.364	1	8
555.534	1	14
555.704	1	12
555.874	1	7
556.044	1	6
556.214	1	1
556.384	1	13
556.554	1	10
556.724	1	8
556.894	1	9
557.064	1	13
557.234	1	6
557.404	1	4
557.573	1	6
557.743	1	12
557.913	1	9
558.083	1	2
558.253	1	7
558.423	1	-1
558.593	1	10
558.763	1	10
558.933	1	4
559.103	1	9
559.273	1	8
559.443	1	-6
559.613	1	7
559.783	1	7
559.953	1	9
560.122	1	6
560.292	1	5
560.462	1	3
560.632	1	9
560.802	1	19
560.972	1	4
561.142	1	5
561.312	1	-4
561.482	1	2
561.652	1	5
561.822	1	7
561.992	1	7
562.162	1	10
562.331	1	20
562.501	1	6
562.671	1	-4
562.841	1	-4
563.011	1	16
563.181	1	4
563.351	1	17
563.521	1	-8
563.691	1	-1
563.861	1	15
564.031	1	-3
564.201	1	8
564.370	1	0
564.540	1	2
564.710	1	-10
564.880	1	8
565.050	1	5
565.220	1	9
565.390	1	13
565.560	1	19
565.730	1	7
565.900	1	8
566.069	1	-3
566.239	1	15
566.409	1	2
566.579	1	1
566.749	1	-1
566.919	1	7
567.089	1	6
567.259	1	7
567.429	1	18
567.599	1	16
567.768	1	14
567.938	1	0
568.108	1	4
568.278	1	17
568.448	1	6
568.618	1	8
568.788	1	7
568.958	1	2
569.128	1	9
569.297	1	17
569.467	1	14
569.637	1	-3
569.807	1	5
569.977	1	6
570.147	1	9
570.317	1	9
570.487	1	14
570.656	1	4
570.826	1	3
570.996	1	1
571.166	1	2
571.336	1	-2
571.506	1	5
571.676	1	12
571.846	1	0
572.015	1	4
572.185	1	9
572.355	1	5
572.525	1	12
572.695	1	-4
572.865	1	4
573.035	1	3
573.205	1	15
573.374	1	3
573.544	1	-5
573.714	1	3
573.884	1	8
574.054	1	15
574.224	1	18
574.394	1	6
574.563	1	6
574.733	1	12
574.903	1	-1
575.073	1	4
575.243	1	6
575.413	1	-2
575.583	1	8
575.752	1	6
575.922	1	12
576.092	1	8
576.262	1	5
576.432	1	2
576.602	1	5
576.772	1	7
576.941	1	0
577.111	1	13
577.281	1	8
577.451	1	15
577.621	1	17
577.791	1	2
577.960	1	13
578.130	1	4
578.300	1	10
578.470	1	0
578.640	1	13
578.810	1	-1
578.979	1	7
579.149	1	18
579.319	1	-4
579.489	1	10
579.659	1	-1
579.829	1	5
579.998	1	-3
580.168	1	1
580.338	1	20
580.508	1	20
580.678	1	5
580.848	1	7
581.017	1	8
581.187	1	12
581.357	1	-1
581.527	1	-1
581.697	1	-5
581.867	1	0
582.036	1	3
582.206	1	14
582.376	1	5
582.546	1	7
582.716	1	12
582.885	1	13
583.055	1	6
583.225	1	-2
583.395	1	7
583.565	1	0
583.735	1	8
583.904	1	6
584.074	1	10
584.244	1	1
584.414	1	16
584.584	1	7
584.753	1	-11
584.923	1	2
585.093	1	7
585.263	1	-6
585.433	1	5
585.602	1	18
585.772	1	14
585.942	1	13
586.112	1	9
586.282	1	9
586.451	1	19
586.621	1	4
586.791	1	11
586.961	1	8
587.131	1	16
587.300	1	3
587.470	1	-4
587.640	1	9
587.810	1	5
587.980	1	6
588.149	1	21
588.319	1	6
588.489	1	3
588.659	1	3
588.829	1	13
588.998	1	21
589.168	1	4
589.338	1	0
589.508	1	12
589.677	1	2
589.847	1	5
590.017	1	14
590.187	1	9
590.357	1	10
590.526	1	9
590.696	1	-1
590.866	1	-1
591.036	1	1
591.205	1	6
591.375	1	-1
591.545	1	7
591.715	1	4
591.885	1	3
592.054	1	4
592.224	1	12
592.394	1	1
592.564	1	19
592.733	1	4
592.903	1	8
593.073	1	14
593.243	1	8
593.412	1	10
593.582	1	5
593.752	1	5
593.922	1	12
594.091	1	6
594.261	1	2
594.431	1	5
594.601	1	4
594.771	1	-4
594.940	1	9
595.110	1	15
595.280	1	5
595.450	1	23
595.619	1	10
595.789	1	1
595.959	1	3
596.129	1	17
596.298	1	10
596.468	1	12
596.638	1	1
596.808	1	15
596.977	1	18
597.147	1	10
597.317	1	16
597.487	1	2
597.656	1	-5
597.826	1	11
597.996	1	9
598.166	1	17
598.335	1	8
598.505	1	13
598.675	1	-2
598.844	1	11
599.014	1	5
599.184	1	4
599.354	1	12
599.523	1	18
599.693	1	18
599.863	1	4
600.033	1	14
600.202	1	12
600.372	1	10
600.542	1	13
600.712	1	3
600.881	1	14
601.051	1	8
601.221	1	20
601.390	1	10
601.560	1	8
601.730	1	3
601.900	1	18
602.069	1	13
602.239	1	4
602.409	1	9
602.578	1	10
602.748	1	8
602.918	1	16
603.088	1	7
603.257	1	15
603.427	1	14
603.597	1	8
603.767	1	9
603.936	1	18
604.106	1	12
604.276	1	14
604.445	1	-3
604.615	1	19
604.785	1	6
604.954	1	11
605.124	1	11
605.294	1	15
605.464	1	22
605.633	1	16
605.803	1	12
605.973	1	12
606.142	1	23
606.312	1	5
606.482	1	-3
606.652	1	21
606.821	1	6
606.991	1	12
607.161	1	24
607.330	1	15
607.500	1	18
607.670	1	19
607.839	1	5
608.009	1	11
608.179	1	-3
608.348	1	15
608.518	1	17
608.688	1	8
608.858	1	12
609.027	1	19
609.197	1	16
609.367	1	15
609.536	1	10
609.706	1	18
609.876	1	5
610.045	1	20
610.215	1	24
610.385	1	29
610.554	1	28
610.724	1	12
610.894	1	36
611.063	1	27
611.233	1	6
611.403	1	22
611.572	1	23
611.742	1	16
611.912	1	14
612.081	1	19
612.251	1	18
612.421	1	16
612.590	1	11
612.760	1	18
612.930	1	23
613.099	1	22
613.269	1	17
613.439	1	26
613.608	1	17
613.778	1	22
613.948	1	24
614.117	1	11
614.287	1	7
614.457	1	15
614.626	1	13
614.796	1	13
614.966	1	13
615.135	1	22
615.305	1	11
615.475	1	23
615.644	1	20
615.814	1	17
615.984	1	12
616.153	1	14
616.323	1	5
616.493	1	15
616.662	1	22
616.832	1	18
617.002	1	21
617.171	1	7
617.341	1	20
617.511	1	18
617.680	1	15
617.850	1	32
618.019	1	20
618.189	1	20
618.359	1	22
618.528	1	20
618.698	1	25
618.868	1	17
619.037	1	22
619.207	1	29
619.377	1	16
619.546	1	22
619.716	1	19
619.885	1	22
620.055	1	19
620.225	1	20
620.394	1	14
620.564	1	26
620.734	1	16
620.903	1	25
621.073	1	22
621.242	1	26
621.412	1	19
621.582	1	24
621.751	1	25
621.921	1	20
622.091	1	23
622.260	1	21
622.430	1	30
622.599	1	25
622.769	1	20
622.939	1	18
623.108	1	20
623.278	1	7
623.448	1	26
623.617	1	13
623.787	1	21
623.956	1	18
624.126	1	25
624.296	1	24
624.465	1	21
624.635	1	10
624.804	1	28
624.974	1	23
625.144	1	18
625.313	1	24
625.483	1	27
625.652	1	18
625.822	1	36
625.992	1	26
626.161	1	20
626.331	1	38
626.501	1	17
626.670	1	23
626.840	1	25
627.009	1	28
627.179	1	22
627.348	1	35
627.518	1	18
627.688	1	16
627.857	1	30
628.027	1	23
628.196	1	19
628.366	1	34
628.536	1	24
628.705	1	26
628.875	1	18
629.044	1	18
629.214	1	16
629.384	1	19
629.553	1	34
629.723	1	19
629.892	1	24
630.062	1	28
630.232	1	16
630.401	1	32
630.571	1	21
630.740	1	25
630.910	1	28
631.079	1	34
631.249	1	19
631.419	1	25
631.588	1	22
631.758	1	28
631.927	1	31
632.097	1	30
632.266	1	15
632.436	1	35
632.606	1	26
632.775	1	20
632.945	1	24
633.114	1	28
633.284	1	23
633.453	1	22
633.623	1	25
633.793	1	27
633.962	1	19
634.132	1	31
634.301	1	22
634.471	1	16
634.640	1	24
634.810	1	25
634.979	1	25
635.149	1	23
635.319	1	39
635.488	1	26
635.658	1	27
635.827	1	26
635.997	1	31
636.166	1	27
636.336	1	30
636.505	1	24
636.675	1	24
636.845	1	34
637.014	1	29
637.184	1	32
637.353	1	28
637.523	1	26
637.692	1	29
637.862	1	24
638.031	1	24
638.201	1	26
638.370	1	43
638.540	1	29
638.710	1	24
638.879	1	30
639.049	1	23
639.218	1	35
639.388	1	31
639.557	1	21
639.727	1	37
639.896	1	28
640.066	1	28
640.235	1	21
640.405	1	34
640.574	1	25
640.744	1	30
640.914	1	24
641.083	1	23
641.253	1	25
641.422	1	24
641.592	1	13
641.761	1	27
641.931	1	26
642.100	1	10
642.270	1	22
642.439	1	31
642.609	1	27
642.778	1	38
642.948	1	32
643.117	1	27
643.287	1	21
643.456	1	32
643.626	1	27
643.795	1	29
643.965	1	26
644.134	1	34
644.304	1	27
644.473	1	31
644.643	1	21
644.812	1	21
644.982	1	20
645.151	1	31
645.321	1	29
645.490	1	27
645.660	1	35
645.829	1	28
645.999	1	34
646.168	1	23
646.338	1	16
646.507	1	20
646.677	1	19
646.846	1	27
647.016	1	16
647.185	1	21
647.355	1	29
647.524	1	23
647.694	1	36
647.863	1	24
648.033	1	22
648.202	1	33
648.372	1	18
648.541	1	31
648.711	1	13
648.880	1	19
649.050	1	24
649.219	1	29
649.389	1	26
649.558	1	30
649.728	1	40
649.897	1	39
650.067	1	24
650.236	1	26
650.406	1	19
650.575	1	27
650.745	1	28
650.914	1	23
651.084	1	14
651.253	1	35
651.423	1	30
651.592	1	18
651.762	1	26
651.931	1	31
652.101	1	12
652.270	1	17
652.440	1	32
652.609	1	25
652.778	1	40
652.948	1	15
653.117	1	33
653.287	1	22
653.456	1	5
653.626	1	34
653.795	1	33
653.965	1	37
654.134	1	28
654.304	1	22
654.473	1	23
654.643	1	32
654.812	1	38
654.982	1	27
655.151	1	19
655.320	1	41
655.490	1	12
655.659	1	26
655.829	1	27
655.998	1	20
656.168	1	15
656.337	1	28
656.507	1	28
656.676	1	18
656.846	1	37
657.015	1	30
657.184	1	21
657.354	1	27
657.523	1	23
657.693	1	16
657.862	1	27
658.032	1	35
658.201	1	13
658.371	1	21
658.540	1	30
658.709	1	25
658.879	1	22
659.048	1	24
659.218	1	23
659.387	1	14
659.557	1	31
659.726	1	25
659.895	1	10
660.065	1	25
660.234	1	26
660.404	1	22
660.573	1	16
660.743	1	16
660.912	1	13
661.081	1	16
661.251	1	29
661.420	1	14
661.590	1	19
661.759	1	20
661.929	1	15
662.098	1	35
662.267	1	26
662.437	1	16
662.606	1	15
662.776	1	17
662.945	1	17
663.115	1	27
663.284	1	13
663.453	1	17
663.623	1	16
663.792	1	8
663.962	1	16
664.131	1	8
664.300	1	18
664.470	1	15
664.639	1	12
664.809	1	28
664.978	1	27
665.148	1	25
665.317	1	18
665.486	1	-8
665.656	1	41
665.825	1	22
665.995	1	12
666.164	1	25
666.333	1	17
666.503	1	19
666.672	1	15
666.842	1	14
667.011	1	16
667.180	1	21
667.350	1	16
667.519	1	6
667.689	1	6
667.858	1	10
668.027	1	22
668.197	1	26
668.366	1	15
668.536	1	19
668.705	1	13
668.874	1	20
669.044	1	14
669.213	1	26
669.382	1	17
669.552	1	12
669.721	1	23
669.891	1	22
670.060	1	6
670.229	1	24
670.399	1	19
670.568	1	4
670.738	1	19
670.907	1	8
671.076	1	5
671.246	1	20
671.415	1	13
671.584	1	15
671.754	1	18
671.923	1	25
672.093	1	16
672.262	1	36
672.431	1	8
672.601	1	12
672.770	1	13
672.939	1	10
673.109	1	11
673.278	1	20
673.448	1	17
673.617	1	7
673.786	1	9
