325.333	1	27
325.504	1	27
325.675	1	22
325.846	1	22
326.017	1	20
326.188	1	19
326.359	1	30
326.531	1	18
326.702	1	12
326.873	1	16
327.044	1	30
327.215	1	22
327.386	1	24
327.557	1	34
327.728	1	36
327.899	1	29
328.070	1	26
328.241	1	26
328.412	1	31
328.583	1	31
328.754	1	36
328.926	1	39
329.097	1	33
329.268	1	39
329.439	1	32
329.610	1	31
329.781	1	17
329.952	1	21
330.123	1	25
330.294	1	33
330.465	1	28
330.636	1	36
330.807	1	31
330.978	1	26
331.149	1	27
331.320	1	33
331.492	1	24
331.663	1	23
331.834	1	26
332.005	1	37
332.176	1	25
332.347	1	28
332.518	1	31
332.689	1	41
332.860	1	40
333.031	1	33
333.202	1	24
333.373	1	24
333.544	1	30
333.715	1	30
333.886	1	31
334.057	1	36
334.228	1	21
334.399	1	28
334.570	1	23
334.741	1	33
334.912	1	33
335.084	1	37
335.255	1	26
335.426	1	36
335.597	1	37
335.768	1	31
335.939	1	30
336.110	1	35
336.281	1	28
336.452	1	30
336.623	1	41
336.794	1	26
336.965	1	34
337.136	1	30
337.307	1	40
337.478	1	14
337.649	1	34
337.820	1	32
337.991	1	25
338.162	1	28
338.333	1	40
338.504	1	36
338.675	1	26
338.846	1	36
339.017	1	35
339.188	1	34
339.359	1	33
339.530	1	30
339.701	1	39
339.872	1	28
340.043	1	38
340.214	1	37
340.385	1	40
340.556	1	36
340.727	1	37
340.898	1	40
341.069	1	34
341.240	1	30
341.411	1	44
341.582	1	36
341.753	1	34
341.924	1	26
342.095	1	33
342.266	1	41
342.437	1	41
342.608	1	39
342.779	1	44
342.950	1	33
343.121	1	44
343.292	1	43
343.463	1	37
343.634	1	36
343.805	1	31
343.976	1	29
344.147	1	29
344.318	1	35
344.489	1	37
344.660	1	32
344.831	1	28
345.002	1	37
345.173	1	27
345.344	1	42
345.515	1	26
345.686	1	41
345.857	1	33
346.028	1	34
346.199	1	37
346.370	1	29
346.541	1	21
346.712	1	36
346.883	1	29
347.054	1	39
347.225	1	26
347.396	1	27
347.567	1	37
347.738	1	24
347.909	1	43
348.080	1	30
348.251	1	28
348.422	1	28
348.593	1	33
348.764	1	28
348.935	1	23
349.106	1	26
349.277	1	25
349.448	1	25
349.619	1	22
349.790	1	38
349.961	1	34
350.132	1	34
350.303	1	26
350.474	1	20
350.645	1	35
350.816	1	21
350.987	1	30
351.157	1	14
351.328	1	10
351.499	1	16
351.670	1	21
351.841	1	32
352.012	1	20
352.183	1	12
352.354	1	31
352.525	1	23
352.696	1	35
352.867	1	21
353.038	1	36
353.209	1	19
353.380	1	15
353.551	1	18
353.722	1	13
353.893	1	25
354.064	1	16
354.235	1	27
354.406	1	15
354.576	1	24
354.747	1	24
354.918	1	26
355.089	1	32
355.260	1	32
355.431	1	29
355.602	1	16
355.773	1	20
355.944	1	21
356.115	1	12
356.286	1	17
356.457	1	27
356.628	1	16
356.799	1	17
356.970	1	22
357.141	1	18
357.311	1	27
357.482	1	29
357.653	1	6
357.824	1	28
357.995	1	30
358.166	1	13
358.337	1	10
358.508	1	28
358.679	1	13
358.850	1	35
359.021	1	22
359.192	1	9
359.363	1	28
359.533	1	29
359.704	1	16
359.875	1	8
360.046	1	2
360.217	1	21
360.388	1	18
360.559	1	5
360.730	1	21
360.901	1	14
361.072	1	6
361.243	1	16
361.414	1	12
361.584	1	10
361.755	1	19
361.926	1	8
362.097	1	25
362.268	1	17
362.439	1	19
362.610	1	24
362.781	1	22
362.952	1	-2
363.123	1	7
363.293	1	11
363.464	1	5
363.635	1	19
363.806	1	8
363.977	1	11
364.148	1	2
364.319	1	15
364.490	1	19
364.661	1	11
364.832	1	13
365.002	1	12
365.173	1	7
365.344	1	8
365.515	1	8
365.686	1	-5
365.857	1	16
366.028	1	4
366.199	1	6
366.370	1	11
366.540	1	13
366.711	1	9
366.882	1	17
367.053	1	3
367.224	1	9
367.395	1	-1
367.566	1	6
367.737	1	8
367.908	1	8
368.078	1	11
368.249	1	9
368.420	1	14
368.591	1	9
368.762	1	-2
368.933	1	8
369.104	1	11
369.274	1	12
369.445	1	4
369.616	1	5
369.787	1	4
369.958	1	9
370.129	1	7
370.300	1	10
370.471	1	12
370.641	1	1
370.812	1	3
370.983	1	12
371.154	1	9
371.325	1	12
371.496	1	7
371.667	1	4
371.837	1	7
372.008	1	6
372.179	1	9
372.350	1	1
372.521	1	13
372.692	1	2
372.863	1	1
373.033	1	5
373.204	1	13
373.375	1	0
373.546	1	8
373.717	1	-2
373.888	1	-1
374.059	1	4
374.229	1	11
374.400	1	16
374.571	1	0
374.742	1	-6
374.913	1	9
375.084	1	2
375.254	1	5
375.425	1	-2
375.596	1	14
375.767	1	6
375.938	1	5
376.109	1	11
376.279	1	-3
376.450	1	15
376.621	1	4
376.792	1	-3
376.963	1	8
377.134	1	2
377.304	1	12
377.475	1	1
377.646	1	-3
377.817	1	9
377.988	1	3
378.159	1	0
378.329	1	14
378.500	1	-6
378.671	1	5
378.842	1	5
379.013	1	3
379.184	1	-2
379.354	1	4
379.525	1	-5
379.696	1	16
379.867	1	0
380.038	1	11
380.209	1	-1
380.379	1	2
380.550	1	13
380.721	1	-10
380.892	1	1
381.063	1	16
381.233	1	14
381.404	1	12
381.575	1	13
381.746	1	10
381.917	1	17
382.087	1	5
382.258	1	2
382.429	1	16
382.600	1	7
382.771	1	6
382.941	1	11
383.112	1	11
383.283	1	17
383.454	1	18
383.625	1	17
383.795	1	14
383.966	1	3
384.137	1	14
384.308	1	14
384.479	1	21
384.649	1	6
384.820	1	10
384.991	1	1
385.162	1	6
385.333	1	3
385.503	1	10
385.674	1	24
385.845	1	3
386.016	1	8
386.187	1	-12
386.357	1	12
386.528	1	7
386.699	1	14
386.870	1	11
387.041	1	7
387.211	1	14
387.382	1	5
387.553	1	7
387.724	1	11
387.894	1	11
388.065	1	18
388.236	1	9
388.407	1	19
388.578	1	12
388.748	1	16
388.919	1	-1
389.090	1	9
389.261	1	14
389.431	1	1
389.602	1	16
389.773	1	10
389.944	1	10
390.114	1	14
390.285	1	5
390.456	1	20
390.627	1	18
390.798	1	2
390.968	1	0
391.139	1	13
391.310	1	11
391.481	1	-1
391.651	1	12
391.822	1	11
391.993	1	-2
392.164	1	13
392.334	1	14
392.505	1	9
392.676	1	6
392.847	1	15
393.017	1	20
393.188	1	16
393.359	1	6
393.530	1	14
393.700	1	19
393.871	1	17
394.042	1	11
394.213	1	12
394.383	1	12
394.554	1	8
394.725	1	10
394.896	1	3
395.066	1	7
395.237	1	9
395.408	1	9
395.579	1	8
395.749	1	11
395.920	1	14
396.091	1	21
396.262	1	12
396.432	1	12
396.603	1	18
396.774	1	8
396.945	1	10
397.115	1	15
397.286	1	12
397.457	1	17
397.627	1	21
397.798	1	17
397.969	1	9
398.140	1	38
398.310	1	21
398.481	1	9
398.652	1	14
398.823	1	6
398.993	1	32
399.164	1	32
399.335	1	14
399.505	1	18
399.676	1	21
399.847	1	15
400.018	1	12
400.188	1	21
400.359	1	11
400.530	1	14
400.700	1	19
400.871	1	23
401.042	1	16
401.213	1	19
401.383	1	22
401.554	1	22
401.725	1	19
401.895	1	13
402.066	1	18
402.237	1	19
402.408	1	19
402.578	1	14
402.749	1	26
402.920	1	33
403.090	1	14
403.261	1	19
403.432	1	25
403.603	1	37
403.773	1	28
403.944	1	21
404.115	1	36
404.285	1	26
404.456	1	24
404.627	1	28
404.797	1	22
404.968	1	29
405.139	1	23
405.310	1	26
405.480	1	21
405.651	1	29
405.822	1	24
405.992	1	12
406.163	1	22
406.334	1	31
406.504	1	20
406.675	1	43
406.846	1	29
407.016	1	28
407.187	1	13
407.358	1	30
407.528	1	22
407.699	1	32
407.870	1	17
408.041	1	33
408.211	1	17
408.382	1	34
408.553	1	26
408.723	1	28
408.894	1	26
409.065	1	29
409.235	1	33
409.406	1	38
409.577	1	33
409.747	1	29
409.918	1	43
410.089	1	36
410.259	1	31
410.430	1	36
410.601	1	37
410.771	1	39
410.942	1	26
411.113	1	27
411.283	1	27
411.454	1	14
411.625	1	49
411.795	1	38
411.966	1	31
412.137	1	22
412.307	1	36
412.478	1	42
412.649	1	30
412.819	1	28
412.990	1	33
413.161	1	24
413.331	1	21
413.502	1	43
413.672	1	38
413.843	1	42
414.014	1	30
414.184	1	34
414.355	1	33
414.526	1	36
414.696	1	38
414.867	1	31
415.038	1	48
415.208	1	29
415.379	1	38
415.550	1	48
415.720	1	28
415.891	1	39
416.062	1	31
416.232	1	22
416.403	1	49
416.573	1	36
416.744	1	21
416.915	1	36
417.085	1	46
417.256	1	41
417.427	1	35
417.597	1	41
417.768	1	33
417.939	1	44
418.109	1	32
418.280	1	40
418.450	1	31
418.621	1	35
418.792	1	31
418.962	1	49
419.133	1	36
419.304	1	38
419.474	1	40
419.645	1	47
419.815	1	39
419.986	1	39
420.157	1	42
420.327	1	36
420.498	1	52
420.669	1	45
420.839	1	40
421.010	1	39
421.180	1	43
421.351	1	41
421.522	1	41
421.692	1	30
421.863	1	34
422.033	1	46
422.204	1	39
422.375	1	38
422.545	1	43
422.716	1	40
422.886	1	42
423.057	1	46
423.228	1	56
423.398	1	39
423.569	1	39
423.740	1	28
423.910	1	46
424.081	1	34
424.251	1	42
424.422	1	33
424.593	1	39
424.763	1	40
424.934	1	54
425.104	1	41
425.275	1	39
425.445	1	35
425.616	1	37
425.787	1	38
425.957	1	40
426.128	1	33
426.298	1	33
426.469	1	43
426.640	1	41
426.810	1	46
426.981	1	41
427.151	1	50
427.322	1	42
427.493	1	33
427.663	1	31
427.834	1	39
428.004	1	31
428.175	1	46
428.345	1	37
428.516	1	40
428.687	1	46
428.857	1	45
429.028	1	38
429.198	1	40
429.369	1	39
429.540	1	31
429.710	1	32
429.881	1	35
430.051	1	53
430.222	1	47
430.392	1	43
430.563	1	50
430.734	1	45
430.904	1	52
431.075	1	43
431.245	1	41
431.416	1	33
431.586	1	37
431.757	1	43
431.927	1	43
432.098	1	54
432.269	1	39
432.439	1	37
432.610	1	44
432.780	1	54
432.951	1	31
433.121	1	41
433.292	1	33
433.462	1	28
433.633	1	40
433.804	1	37
433.974	1	44
434.145	1	42
434.315	1	40
434.486	1	58
434.656	1	54
434.827	1	38
434.997	1	39
435.168	1	44
435.339	1	36
435.509	1	41
435.680	1	35
435.850	1	30
436.021	1	53
436.191	1	49
436.362	1	37
436.532	1	51
436.703	1	48
436.873	1	54
437.044	1	43
437.214	1	36
437.385	1	29
437.556	1	40
437.726	1	32
437.897	1	27
438.067	1	34
438.238	1	35
438.408	1	45
438.579	1	40
438.749	1	42
438.920	1	40
439.090	1	48
439.261	1	40
439.431	1	46
439.602	1	38
439.772	1	46
439.943	1	37
440.113	1	47
440.284	1	28
440.455	1	55
440.625	1	50
440.796	1	38
440.966	1	34
441.137	1	40
441.307	1	45
441.478	1	39
441.648	1	32
441.819	1	31
441.989	1	40
442.160	1	28
442.330	1	24
442.501	1	38
442.671	1	37
442.842	1	28
443.012	1	39
443.183	1	44
443.353	1	40
443.524	1	34
443.694	1	40
443.865	1	34
444.035	1	50
444.206	1	29
444.376	1	43
444.547	1	42
444.717	1	32
444.888	1	50
445.058	1	49
445.229	1	36
445.399	1	42
445.570	1	44
445.740	1	35
445.911	1	36
446.081	1	43
446.252	1	45
446.422	1	43
446.593	1	33
446.763	1	44
446.934	1	48
447.104	1	31
447.275	1	37
447.445	1	49
447.616	1	44
447.786	1	32
447.957	1	40
448.127	1	35
448.298	1	37
448.468	1	48
448.639	1	34
448.809	1	41
448.979	1	34
449.150	1	30
449.320	1	41
449.491	1	40
449.661	1	39
449.832	1	42
450.002	1	47
450.173	1	37
450.343	1	39
450.514	1	33
450.684	1	24
450.855	1	31
451.025	1	39
451.196	1	31
451.366	1	23
451.537	1	30
451.707	1	43
451.878	1	38
452.048	1	36
452.218	1	35
452.389	1	30
452.559	1	31
452.730	1	31
452.900	1	40
453.071	1	35
453.241	1	35
453.412	1	37
453.582	1	38
453.753	1	43
453.923	1	40
454.093	1	48
454.264	1	39
454.434	1	36
454.605	1	38
454.775	1	25
454.946	1	40
455.116	1	36
455.287	1	45
455.457	1	31
455.628	1	44
455.798	1	29
455.968	1	30
456.139	1	45
456.309	1	23
456.480	1	31
456.650	1	33
456.821	1	38
456.991	1	20
457.161	1	39
457.332	1	36
457.502	1	35
457.673	1	30
457.843	1	40
458.014	1	27
458.184	1	38
458.355	1	27
458.525	1	26
458.695	1	36
458.866	1	32
459.036	1	24
459.207	1	23
459.377	1	30
459.548	1	37
459.718	1	23
459.888	1	34
460.059	1	25
460.229	1	36
460.400	1	15
460.570	1	33
460.740	1	27
460.911	1	38
461.081	1	38
461.252	1	32
461.422	1	43
461.593	1	30
461.763	1	37
461.933	1	30
462.104	1	33
462.274	1	26
462.445	1	34
462.615	1	28
462.785	1	22
462.956	1	24
463.126	1	26
463.297	1	31
463.467	1	29
463.638	1	22
463.808	1	19
463.978	1	30
464.149	1	35
464.319	1	8
464.490	1	24
464.660	1	27
464.830	1	30
465.001	1	32
465.171	1	31
465.342	1	19
465.512	1	26
465.682	1	35
465.853	1	14
466.023	1	24
466.194	1	24
466.364	1	16
466.534	1	25
466.705	1	29
466.875	1	21
467.045	1	20
467.216	1	24
467.386	1	30
467.557	1	33
467.727	1	27
467.897	1	9
468.068	1	21
468.238	1	17
468.409	1	23
468.579	1	22
468.749	1	27
468.920	1	33
469.090	1	11
469.260	1	31
469.431	1	28
469.601	1	34
469.772	1	25
469.942	1	32
470.112	1	23
470.283	1	26
470.453	1	30
470.623	1	16
470.794	1	29
470.964	1	29
471.135	1	14
471.305	1	32
471.475	1	30
471.646	1	19
471.816	1	21
471.986	1	32
472.157	1	30
472.327	1	15
472.497	1	24
472.668	1	25
472.838	1	23
473.009	1	31
473.179	1	21
473.349	1	29
473.520	1	11
473.690	1	23
473.860	1	32
474.031	1	16
474.201	1	8
474.371	1	24
474.542	1	24
474.712	1	13
474.882	1	25
475.053	1	12
475.223	1	12
475.394	1	14
475.564	1	22
475.734	1	14
475.905	1	28
476.075	1	27
476.245	1	14
476.416	1	21
476.586	1	-2
476.756	1	20
476.927	1	20
477.097	1	31
477.267	1	14
477.438	1	14
477.608	1	20
477.778	1	20
477.949	1	28
478.119	1	22
478.289	1	5
478.460	1	26
478.630	1	24
478.800	1	14
478.971	1	13
479.141	1	14
479.311	1	16
479.482	1	13
479.652	1	19
479.822	1	13
479.993	1	13
480.163	1	13
480.333	1	12
480.504	1	14
480.674	1	6
480.844	1	16
481.015	1	12
481.185	1	19
481.355	1	19
481.525	1	24
481.696	1	21
481.866	1	6
482.036	1	21
482.207	1	8
482.377	1	10
482.547	1	11
482.718	1	14
482.888	1	16
483.058	1	15
483.229	1	28
483.399	1	15
483.569	1	14
483.740	1	15
483.910	1	11
484.080	1	3
484.250	1	20
484.421	1	15
484.591	1	16
484.761	1	21
484.932	1	17
485.102	1	21
485.272	1	14
485.443	1	2
485.613	1	19
485.783	1	20
485.953	1	14
486.124	1	19
486.294	1	21
486.464	1	21
486.635	1	9
486.805	1	12
486.975	1	23
487.146	1	5
487.316	1	12
487.486	1	4
487.656	1	19
487.827	1	2
487.997	1	15
488.167	1	2
488.338	1	11
488.508	1	21
488.678	1	21
488.848	1	15
489.019	1	8
489.189	1	19
489.359	1	14
489.529	1	2
489.700	1	12
489.870	1	10
490.040	1	17
490.211	1	16
490.381	1	25
490.551	1	14
490.721	1	14
490.892	1	11
491.062	1	10
491.232	1	22
491.402	1	5
491.573	1	18
491.743	1	2
491.913	1	15
492.084	1	6
492.254	1	14
492.424	1	9
492.594	1	11
492.765	1	6
492.935	1	23
493.105	1	7
493.275	1	18
493.446	1	13
493.616	1	13
493.786	1	9
493.956	1	23
494.127	1	10
494.297	1	12
494.467	1	12
494.637	1	3
494.808	1	11
494.978	1	9
495.148	1	13
495.318	1	5
495.489	1	8
495.659	1	10
495.829	1	8
495.999	1	17
496.170	1	5
496.340	1	17
496.510	1	11
496.680	1	10
496.851	1	12
497.021	1	6
497.191	1	6
497.361	1	14
497.532	1	18
497.702	1	12
497.872	1	8
498.042	1	3
498.213	1	11
498.383	1	-5
498.553	1	13
498.723	1	12
498.894	1	9
499.064	1	4
499.234	1	2
499.404	1	10
499.574	1	4
499.745	1	11
499.915	1	3
500.085	1	7
500.255	1	8
500.426	1	9
500.596	1	22
500.766	1	10
500.936	1	2
501.106	1	11
501.277	1	9
501.447	1	4
501.617	1	21
501.787	1	0
501.958	1	14
502.128	1	10
502.298	1	15
502.468	1	3
502.638	1	9
502.809	1	17
502.979	1	8
503.149	1	19
503.319	1	12
503.489	1	14
503.660	1	4
503.830	1	10
504.000	1	1
504.170	1	19
504.340	1	-3
504.511	1	18
504.681	1	4
504.851	1	5
505.021	1	-3
505.192	1	9
505.362	1	18
505.532	1	13
505.702	1	12
505.872	1	13
506.043	1	1
506.213	1	6
506.383	1	13
506.553	1	13
506.723	1	5
506.893	1	9
507.064	1	11
507.234	1	4
507.404	1	2
507.574	1	10
507.744	1	1
507.915	1	8
508.085	1	11
508.255	1	27
508.425	1	0
508.595	1	11
508.766	1	12
508.936	1	-3
509.106	1	9
509.276	1	10
509.446	1	3
509.616	1	8
509.787	1	14
509.957	1	-4
510.127	1	14
510.297	1	0
510.467	1	17
510.638	1	7
510.808	1	14
510.978	1	2
511.148	1	5
511.318	1	8
511.488	1	19
511.659	1	4
511.829	1	10
511.999	1	7
512.169	1	15
512.339	1	5
512.509	1	10
512.680	1	5
512.850	1	5
513.020	1	5
513.190	1	3
513.360	1	4
513.530	1	9
513.700	1	3
513.871	1	6
514.041	1	-5
514.211	1	1
514.381	1	3
514.551	1	-2
514.721	1	6
514.892	1	6
515.062	1	4
515.232	1	1
515.402	1	7
515.572	1	6
515.742	1	11
515.912	1	13
516.083	1	14
516.253	1	0
516.423	1	6
516.593	1	4
516.763	1	9
516.933	1	7
517.104	1	15
517.274	1	-4
517.444	1	11
517.614	1	-1
517.784	1	11
517.954	1	0
518.124	1	12
518.294	1	5
518.465	1	4
518.635	1	4
518.805	1	11
518.975	1	-4
519.145	1	7
519.315	1	3
519.485	1	2
519.656	1	0
519.826	1	12
519.996	1	-1
520.166	1	7
520.336	1	5
520.506	1	-8
520.676	1	0
520.846	1	9
521.017	1	12
521.187	1	6
521.357	1	12
521.527	1	9
521.697	1	1
521.867	1	-2
522.037	1	-12
522.207	1	20
522.377	1	2
522.548	1	6
522.718	1	5
522.888	1	15
523.058	1	14
523.228	1	9
523.398	1	8
523.568	1	7
523.738	1	21
523.909	1	12
524.079	1	9
524.249	1	8
524.419	1	12
524.589	1	12
524.759	1	-3
524.929	1	14
525.099	1	-2
525.269	1	9
525.439	1	1
525.610	1	14
525.780	1	2
525.950	1	-1
526.120	1	-4
526.290	1	14
526.460	1	10
526.630	1	10
526.800	1	26
526.970	1	-3
527.140	1	8
527.311	1	15
527.481	1	0
527.651	1	16
527.821	1	0
527.991	1	11
528.161	1	14
528.331	1	8
528.501	1	2
528.671	1	-3
528.841	1	9
529.011	1	7
529.181	1	13
529.352	1	4
529.522	1	8
529.692	1	12
529.862	1	7
530.032	1	4
530.202	1	3
530.372	1	11
530.542	1	4
530.712	1	7
530.882	1	6
531.052	1	11
531.222	1	10
531.392	1	10
531.563	1	9
531.733	1	1
531.903	1	15
532.073	1	1
532.243	1	7
532.413	1	7
532.583	1	16
532.753	1	20
532.923	1	4
533.093	1	0
533.263	1	7
533.433	1	12
533.603	1	8
533.773	1	-1
533.943	1	13
534.113	1	7
534.284	1	7
534.454	1	4
534.624	1	2
534.794	1	6
534.964	1	7
535.134	1	5
535.304	1	11
535.474	1	6
535.644	1	-8
535.814	1	-2
535.984	1	11
536.154	1	9
536.324	1	12
536.494	1	0
536.664	1	13
536.834	1	9
537.004	1	1
537.174	1	14
537.344	1	6
537.514	1	1
537.685	1	10
537.855	1	3
538.025	1	11
538.195	1	3
538.365	1	6
538.535	1	-1
538.705	1	8
538.875	1	9
539.045	1	-1
539.215	1	5
539.385	1	3
539.555	1	11
539.725	1	-2
539.895	1	-2
540.065	1	6
540.235	1	-1
540.405	1	7
540.575	1	5
540.745	1	2
540.915	1	2
541.085	1	10
541.255	1	1
541.425	1	10
541.595	1	-1
541.765	1	2
541.935	1	8
542.105	1	5
542.275	1	3
542.445	1	6
542.615	1	12
542.785	1	3
542.955	1	6
543.125	1	-1
543.295	1	-9
543.465	1	3
543.635	1	8
543.805	1	10
543.975	1	-2
544.145	1	9
544.315	1	0
544.485	1	5
544.655	1	16
544.825	1	4
544.995	1	15
545.165	1	8
545.335	1	10
545.505	1	8
545.675	1	7
545.845	1	9
546.015	1	3
546.185	1	5
546.355	1	8
546.525	1	12
546.695	1	-1
546.865	1	3
547.035	1	10
547.205	1	17
547.375	1	-2
547.545	1	-1
547.715	1	-4
547.885	1	-5
548.055	1	11
548.225	1	17
548.395	1	-6
548.565	1	12
548.735	1	5
548.905	1	6
549.075	1	3
549.245	1	2
549.415	1	5
549.585	1	5
549.755	1	3
549.925	1	-3
550.095	1	13
550.265	1	-6
550.435	1	1
550.605	1	5
550.775	1	4
550.945	1	8
551.115	1	-1
551.285	1	1
551.455	1	0
551.625	1	18
551.795	1	0
551.965	1	-4
552.135	1	-6
552.305	1	2
552.475	1	3
552.645	1	9
552.815	1	6
552.985	1	15
553.155	1	10
553.325	1	2
553.495	1	11
553.665	1	2
553.835	1	4
554.004	1	-3
554.174	1	5
554.344	1	3
554.514	1	6
554.684	1	8
554.854	1	4
555.024	1	8
555.194	1	7
555.364	1	-8
555.534	1	16
555.704	1	9
555.874	1	7
556.044	1	2
556.214	1	11
556.384	1	6
556.554	1	7
556.724	1	3
556.894	1	-3
557.064	1	10
557.234	1	7
557.404	1	-6
557.573	1	-3
557.743	1	11
557.913	1	6
558.083	1	-2
558.253	1	8
558.423	1	3
558.593	1	13
558.763	1	-1
558.933	1	9
559.103	1	7
559.273	1	8
559.443	1	6
559.613	1	7
559.783	1	3
559.953	1	-2
560.122	1	0
560.292	1	4
560.462	1	4
560.632	1	2
560.802	1	14
560.972	1	-2
561.142	1	11
561.312	1	4
561.482	1	0
561.652	1	-5
561.822	1	6
561.992	1	1
562.162	1	3
562.331	1	19
562.501	1	7
562.671	1	9
562.841	1	-4
563.011	1	11
563.181	1	5
563.351	1	13
563.521	1	-10
563.691	1	8
563.861	1	5
564.031	1	0
564.201	1	7
564.370	1	2
564.540	1	3
564.710	1	-2
564.880	1	2
565.050	1	2
565.220	1	6
565.390	1	14
565.560	1	6
565.730	1	2
565.900	1	9
566.069	1	-6
566.239	1	5
566.409	1	11
566.579	1	-6
566.749	1	7
566.919	1	0
567.089	1	10
567.259	1	5
567.429	1	8
567.599	1	19
567.768	1	7
567.938	1	5
568.108	1	2
568.278	1	10
568.448	1	11
568.618	1	0
568.788	1	3
568.958	1	4
569.128	1	10
569.297	1	4
569.467	1	9
569.637	1	-1
569.807	1	20
569.977	1	-1
570.147	1	0
570.317	1	4
570.487	1	11
570.656	1	-1
570.826	1	-5
570.996	1	1
571.166	1	-6
571.336	1	-1
571.506	1	0
571.676	1	8
571.846	1	7
572.015	1	-1
572.185	1	7
572.355	1	7
572.525	1	8
572.695	1	10
572.865	1	-1
573.035	1	-3
573.205	1	3
573.374	1	8
573.544	1	3
573.714	1	-4
573.884	1	3
574.054	1	7
574.224	1	2
574.394	1	4
574.563	1	9
574.733	1	8
574.903	1	6
575.073	1	1
575.243	1	-1
575.413	1	-6
575.583	1	9
575.752	1	-1
575.922	1	16
576.092	1	3
576.262	1	-3
576.432	1	14
576.602	1	-2
576.772	1	-2
576.941	1	-2
577.111	1	9
577.281	1	7
577.451	1	8
577.621	1	20
577.791	1	5
577.960	1	9
578.130	1	-7
578.300	1	4
578.470	1	6
578.640	1	2
578.810	1	-8
578.979	1	-2
579.149	1	14
579.319	1	9
579.489	1	-1
579.659	1	7
579.829	1	9
579.998	1	1
580.168	1	1
580.338	1	7
580.508	1	1
580.678	1	4
580.848	1	3
581.017	1	4
581.187	1	14
581.357	1	6
581.527	1	0
581.697	1	-2
581.867	1	7
582.036	1	-2
582.206	1	2
582.376	1	7
582.546	1	11
582.716	1	11
582.885	1	16
583.055	1	4
583.225	1	-8
583.395	1	4
583.565	1	-2
583.735	1	3
583.904	1	10
584.074	1	10
584.244	1	-2
584.414	1	16
584.584	1	6
584.753	1	-15
584.923	1	7
585.093	1	7
585.263	1	0
585.433	1	-3
585.602	1	12
585.772	1	11
585.942	1	-2
586.112	1	9
586.282	1	8
586.451	1	20
586.621	1	9
586.791	1	5
586.961	1	3
587.131	1	17
587.300	1	12
587.470	1	-7
587.640	1	-2
587.810	1	12
587.980	1	5
588.149	1	17
588.319	1	4
588.489	1	2
588.659	1	9
588.829	1	11
588.998	1	12
589.168	1	5
589.338	1	-8
589.508	1	7
589.677	1	14
589.847	1	1
590.017	1	2
590.187	1	1
590.357	1	12
590.526	1	1
590.696	1	9
590.866	1	-10
591.036	1	13
591.205	1	6
591.375	1	-6
591.545	1	9
591.715	1	-2
591.885	1	14
592.054	1	11
592.224	1	6
592.394	1	1
592.564	1	6
592.733	1	6
592.903	1	9
593.073	1	5
593.243	1	14
593.412	1	4
593.582	1	0
593.752	1	10
593.922	1	14
594.091	1	3
594.261	1	3
594.431	1	3
594.601	1	11
594.771	1	4
594.940	1	13
595.110	1	9
595.280	1	6
595.450	1	19
595.619	1	1
595.789	1	7
595.959	1	11
596.129	1	17
596.298	1	13
596.468	1	14
596.638	1	4
596.808	1	14
596.977	1	12
597.147	1	7
597.317	1	8
597.487	1	-3
597.656	1	-5
597.826	1	13
597.996	1	10
598.166	1	19
598.335	1	13
598.505	1	7
598.675	1	7
598.844	1	1
599.014	1	-4
599.184	1	6
599.354	1	17
599.523	1	2
599.693	1	9
599.863	1	15
600.033	1	2
600.202	1	10
600.372	1	4
600.542	1	20
600.712	1	6
600.881	1	5
601.051	1	11
601.221	1	14
601.390	1	11
601.560	1	8
601.730	1	6
601.900	1	1
602.069	1	14
602.239	1	11
602.409	1	22
602.578	1	11
602.748	1	6
602.918	1	1
603.088	1	8
603.257	1	13
603.427	1	18
603.597	1	18
603.767	1	11
603.936	1	12
604.106	1	12
604.276	1	7
604.445	1	1
604.615	1	20
604.785	1	15
604.954	1	6
605.124	1	19
605.294	1	3
605.464	1	22
605.633	1	10
605.803	1	4
605.973	1	21
606.142	1	18
606.312	1	9
606.482	1	-8
606.652	1	7
606.821	1	8
606.991	1	11
607.161	1	22
607.330	1	19
607.500	1	7
607.670	1	17
607.839	1	13
608.009	1	10
608.179	1	9
608.348	1	11
608.518	1	12
608.688	1	3
608.858	1	19
609.027	1	26
609.197	1	7
609.367	1	5
609.536	1	11
609.706	1	14
609.876	1	2
610.045	1	10
610.215	1	22
610.385	1	19
610.554	1	33
610.724	1	13
610.894	1	11
611.063	1	16
611.233	1	13
611.403	1	18
611.572	1	14
611.742	1	13
611.912	1	9
612.081	1	13
612.251	1	14
612.421	1	21
612.590	1	4
612.760	1	21
612.930	1	18
613.099	1	19
613.269	1	3
613.439	1	24
613.608	1	14
613.778	1	19
613.948	1	10
614.117	1	22
614.287	1	-7
614.457	1	10
614.626	1	25
614.796	1	14
614.966	1	11
615.135	1	32
615.305	1	24
615.475	1	21
615.644	1	22
615.814	1	11
615.984	1	19
616.153	1	26
616.323	1	14
616.493	1	14
616.662	1	31
616.832	1	4
617.002	1	16
617.171	1	26
617.341	1	19
617.511	1	16
617.680	1	20
617.850	1	19
618.019	1	17
618.189	1	25
618.359	1	23
618.528	1	15
618.698	1	28
618.868	1	19
619.037	1	13
619.207	1	18
619.377	1	22
619.546	1	13
619.716	1	12
619.885	1	33
620.055	1	15
620.225	1	5
620.394	1	19
620.564	1	27
620.734	1	27
620.903	1	27
621.073	1	4
621.242	1	35
621.412	1	9
621.582	1	22
621.751	1	13
621.921	1	13
622.091	1	19
622.260	1	15
622.430	1	23
622.599	1	16
622.769	1	14
622.939	1	2
623.108	1	21
623.278	1	15
623.448	1	21
623.617	1	28
623.787	1	32
623.956	1	27
624.126	1	21
624.296	1	26
624.465	1	37
624.635	1	18
624.804	1	22
624.974	1	26
625.144	1	25
625.313	1	14
625.483	1	28
625.652	1	23
625.822	1	21
625.992	1	23
626.161	1	9
626.331	1	26
626.501	1	15
626.670	1	26
626.840	1	1
627.009	1	25
627.179	1	32
627.348	1	22
627.518	1	21
627.688	1	25
627.857	1	11
628.027	1	24
628.196	1	32
628.366	1	22
628.536	1	13
628.705	1	41
628.875	1	20
629.044	1	13
629.214	1	11
629.384	1	23
629.553	1	23
629.723	1	22
629.892	1	19
630.062	1	18
630.232	1	26
630.401	1	28
630.571	1	23
630.740	1	22
630.910	1	29
631.079	1	33
631.249	1	21
631.419	1	19
631.588	1	28
631.758	1	22
631.927	1	34
632.097	1	18
632.266	1	13
632.436	1	39
632.606	1	29
632.775	1	25
632.945	1	18
633.114	1	26
633.284	1	21
633.453	1	28
633.623	1	22
633.793	1	26
633.962	1	25
634.132	1	11
634.301	1	23
634.471	1	20
634.640	1	5
634.810	1	33
634.979	1	24
635.149	1	14
635.319	1	36
635.488	1	33
635.658	1	25
635.827	1	23
635.997	1	34
636.166	1	25
636.336	1	23
636.505	1	30
636.675	1	26
636.845	1	25
637.014	1	16
637.184	1	16
637.353	1	34
637.523	1	17
637.692	1	29
637.862	1	23
638.031	1	25
638.201	1	22
638.370	1	22
638.540	1	21
638.710	1	25
638.879	1	21
639.049	1	25
639.218	1	32
639.388	1	27
639.557	1	22
639.727	1	42
639.896	1	20
640.066	1	19
640.235	1	18
640.405	1	27
640.574	1	28
640.744	1	20
640.914	1	14
641.083	1	29
641.253	1	31
641.422	1	18
641.592	1	22
641.761	1	26
641.931	1	24
642.100	1	25
642.270	1	28
642.439	1	34
642.609	1	36
642.778	1	27
642.948	1	29
643.117	1	23
643.287	1	28
643.456	1	22
643.626	1	29
643.795	1	19
643.965	1	20
644.134	1	29
644.304	1	23
644.473	1	28
644.643	1	24
644.812	1	26
644.982	1	18
645.151	1	29
645.321	1	25
645.490	1	24
645.660	1	33
645.829	1	13
645.999	1	28
646.168	1	24
646.338	1	12
646.507	1	20
646.677	1	23
646.846	1	17
647.016	1	21
647.185	1	29
647.355	1	28
647.524	1	6
647.694	1	29
647.863	1	15
648.033	1	20
648.202	1	39
648.372	1	23
648.541	1	34
648.711	1	19
648.880	1	29
649.050	1	17
649.219	1	9
649.389	1	22
649.558	1	30
649.728	1	24
649.897	1	22
650.067	1	19
650.236	1	31
650.406	1	28
650.575	1	14
650.745	1	25
650.914	1	28
651.084	1	13
651.253	1	34
651.423	1	37
651.592	1	33
651.762	1	26
651.931	1	22
652.101	1	26
652.270	1	13
652.440	1	19
652.609	1	33
652.778	1	24
652.948	1	17
653.117	1	27
653.287	1	18
653.456	1	25
653.626	1	26
653.795	1	28
653.965	1	33
654.134	1	33
654.304	1	21
654.473	1	25
654.643	1	20
654.812	1	31
654.982	1	33
655.151	1	17
655.320	1	33
655.490	1	19
655.659	1	22
655.829	1	31
655.998	1	20
656.168	1	19
656.337	1	14
656.507	1	24
656.676	1	34
656.846	1	26
657.015	1	22
657.184	1	17
657.354	1	6
657.523	1	8
657.693	1	18
657.862	1	18
658.032	1	24
658.201	1	29
658.371	1	34
658.540	1	17
658.709	1	26
658.879	1	18
659.048	1	19
659.218	1	22
659.387	1	18
659.557	1	14
659.726	1	29
659.895	1	8
660.065	1	20
660.234	1	33
660.404	1	20
660.573	1	13
660.743	1	20
660.912	1	17
661.081	1	16
661.251	1	22
661.420	1	24
661.590	1	22
661.759	1	15
661.929	1	27
662.098	1	25
662.267	1	4
662.437	1	17
662.606	1	7
662.776	1	18
662.945	1	12
663.115	1	16
663.284	1	11
663.453	1	24
663.623	1	20
663.792	1	10
663.962	1	12
664.131	1	20
664.300	1	6
664.470	1	19
664.639	1	14
664.809	1	28
664.978	1	7
665.148	1	20
665.317	1	19
665.486	1	8
665.656	1	34
665.825	1	28
665.995	1	9
666.164	1	5
666.333	1	30
666.503	1	16
666.672	1	5
666.842	1	18
667.011	1	22
667.180	1	17
667.350	1	16
667.519	1	17
667.689	1	3
667.858	1	15
668.027	1	27
668.197	1	20
668.366	1	12
668.536	1	15
668.705	1	12
668.874	1	20
669.044	1	6
669.213	1	15
669.382	1	14
669.552	1	14
669.721	1	11
669.891	1	13
670.060	1	9
670.229	1	21
670.399	1	26
670.568	1	14
670.738	1	11
670.907	1	11
671.076	1	18
671.246	1	17
671.415	1	1
671.584	1	10
671.754	1	14
671.923	1	20
672.093	1	17
672.262	1	27
672.431	1	12
672.601	1	19
672.770	1	15
672.939	1	11
673.109	1	15
673.278	1	16
673.448	1	10
673.617	1	5
673.786	1	23
