325.333	1	37
325.504	1	20
325.675	1	26
325.846	1	13
326.017	1	23
326.188	1	24
326.359	1	38
326.531	1	26
326.702	1	15
326.873	1	23
327.044	1	28
327.215	1	30
327.386	1	15
327.557	1	46
327.728	1	20
327.899	1	27
328.070	1	31
328.241	1	23
328.412	1	29
328.583	1	32
328.754	1	25
328.926	1	23
329.097	1	34
329.268	1	41
329.439	1	27
329.610	1	27
329.781	1	25
329.952	1	24
330.123	1	34
330.294	1	26
330.465	1	28
330.636	1	34
330.807	1	24
330.978	1	33
331.149	1	45
331.320	1	33
331.492	1	41
331.663	1	36
331.834	1	38
332.005	1	25
332.176	1	35
332.347	1	38
332.518	1	30
332.689	1	38
332.860	1	31
333.031	1	29
333.202	1	39
333.373	1	33
333.544	1	40
333.715	1	26
333.886	1	32
334.057	1	34
334.228	1	22
334.399	1	45
334.570	1	27
334.741	1	46
334.912	1	28
335.084	1	36
335.255	1	36
335.426	1	36
335.597	1	30
335.768	1	30
335.939	1	30
336.110	1	32
336.281	1	35
336.452	1	31
336.623	1	48
336.794	1	32
336.965	1	27
337.136	1	40
337.307	1	43
337.478	1	19
337.649	1	33
337.820	1	38
337.991	1	31
338.162	1	38
338.333	1	34
338.504	1	34
338.675	1	35
338.846	1	48
339.017	1	40
339.188	1	33
339.359	1	28
339.530	1	30
339.701	1	44
339.872	1	39
340.043	1	31
340.214	1	32
340.385	1	38
340.556	1	42
340.727	1	35
340.898	1	38
341.069	1	29
341.240	1	32
341.411	1	35
341.582	1	28
341.753	1	37
341.924	1	35
342.095	1	30
342.266	1	32
342.437	1	32
342.608	1	30
342.779	1	41
342.950	1	35
343.121	1	42
343.292	1	33
343.463	1	49
343.634	1	33
343.805	1	31
343.976	1	39
344.147	1	23
344.318	1	24
344.489	1	37
344.660	1	32
344.831	1	36
345.002	1	39
345.173	1	34
345.344	1	29
345.515	1	26
345.686	1	27
345.857	1	31
346.028	1	32
346.199	1	45
346.370	1	31
346.541	1	20
346.712	1	39
346.883	1	27
347.054	1	21
347.225	1	34
347.396	1	26
347.567	1	33
347.738	1	22
347.909	1	50
348.080	1	29
348.251	1	31
348.422	1	29
348.593	1	30
348.764	1	30
348.935	1	23
349.106	1	26
349.277	1	23
349.448	1	37
349.619	1	31
349.790	1	45
349.961	1	29
350.132	1	29
350.303	1	33
350.474	1	24
350.645	1	30
350.816	1	23
350.987	1	33
351.157	1	16
351.328	1	25
351.499	1	26
351.670	1	26
351.841	1	36
352.012	1	26
352.183	1	18
352.354	1	32
352.525	1	23
352.696	1	34
352.867	1	17
353.038	1	44
353.209	1	21
353.380	1	21
353.551	1	25
353.722	1	25
353.893	1	25
354.064	1	20
354.235	1	19
354.406	1	4
354.576	1	25
354.747	1	20
354.918	1	27
355.089	1	28
355.260	1	28
355.431	1	23
355.602	1	30
355.773	1	23
355.944	1	11
356.115	1	26
356.286	1	25
356.457	1	24
356.628	1	22
356.799	1	22
356.970	1	26
357.141	1	21
357.311	1	29
357.482	1	21
357.653	1	14
357.824	1	28
357.995	1	21
358.166	1	16
358.337	1	24
358.508	1	11
358.679	1	12
358.850	1	38
359.021	1	18
359.192	1	20
359.363	1	30
359.533	1	21
359.704	1	23
359.875	1	17
360.046	1	15
360.217	1	16
360.388	1	20
360.559	1	15
360.730	1	16
360.901	1	11
361.072	1	19
361.243	1	28
361.414	1	15
361.584	1	20
361.755	1	27
361.926	1	9
362.097	1	26
362.268	1	17
362.439	1	18
362.610	1	26
362.781	1	17
362.952	1	3
363.123	1	18
363.293	1	21
363.464	1	12
363.635	1	18
363.806	1	13
363.977	1	13
364.148	1	9
364.319	1	17
364.490	1	20
364.661	1	10
364.832	1	17
365.002	1	16
365.173	1	6
365.344	1	15
365.515	1	14
365.686	1	2
365.857	1	15
366.028	1	13
366.199	1	12
366.370	1	13
366.540	1	16
366.711	1	18
366.882	1	18
367.053	1	11
367.224	1	16
367.395	1	17
367.566	1	12
367.737	1	11
367.908	1	12
368.078	1	10
368.249	1	4
368.420	1	11
368.591	1	13
368.762	1	-3
368.933	1	9
369.104	1	8
369.274	1	7
369.445	1	16
369.616	1	6
369.787	1	8
369.958	1	8
370.129	1	13
370.300	1	4
370.471	1	9
370.641	1	-3
370.812	1	4
370.983	1	11
371.154	1	17
371.325	1	12
371.496	1	13
371.667	1	5
371.837	1	9
372.008	1	5
372.179	1	20
372.350	1	15
372.521	1	19
372.692	1	6
372.863	1	7
373.033	1	11
373.204	1	14
373.375	1	9
373.546	1	11
373.717	1	2
373.888	1	8
374.059	1	10
374.229	1	20
374.400	1	14
374.571	1	11
374.742	1	6
374.913	1	3
375.084	1	10
375.254	1	11
375.425	1	8
375.596	1	27
375.767	1	-1
375.938	1	7
376.109	1	5
376.279	1	9
376.450	1	20
376.621	1	8
376.792	1	10
376.963	1	14
377.134	1	10
377.304	1	14
377.475	1	9
377.646	1	18
377.817	1	0
377.988	1	16
378.159	1	9
378.329	1	18
378.500	1	3
378.671	1	18
378.842	1	12
379.013	1	18
379.184	1	11
379.354	1	15
379.525	1	0
379.696	1	8
379.867	1	14
380.038	1	7
380.209	1	-1
380.379	1	1
380.550	1	11
380.721	1	-4
380.892	1	12
381.063	1	16
381.233	1	16
381.404	1	19
381.575	1	9
381.746	1	10
381.917	1	20
382.087	1	9
382.258	1	0
382.429	1	22
382.600	1	13
382.771	1	15
382.941	1	13
383.112	1	19
383.283	1	13
383.454	1	19
383.625	1	19
383.795	1	13
383.966	1	10
384.137	1	15
384.308	1	20
384.479	1	21
384.649	1	14
384.820	1	18
384.991	1	-2
385.162	1	9
385.333	1	15
385.503	1	1
385.674	1	19
385.845	1	18
386.016	1	19
386.187	1	11
386.357	1	28
386.528	1	11
386.699	1	21
386.870	1	10
387.041	1	9
387.211	1	19
387.382	1	9
387.553	1	11
387.724	1	11
387.894	1	19
388.065	1	16
388.236	1	24
388.407	1	28
388.578	1	20
388.748	1	18
388.919	1	13
389.090	1	7
389.261	1	14
389.431	1	0
389.602	1	27
389.773	1	11
389.944	1	5
390.114	1	26
390.285	1	16
390.456	1	26
390.627	1	23
390.798	1	1
390.968	1	7
391.139	1	20
391.310	1	19
391.481	1	17
391.651	1	20
391.822	1	23
391.993	1	9
392.164	1	28
392.334	1	20
392.505	1	11
392.676	1	22
392.847	1	30
393.017	1	16
393.188	1	17
393.359	1	28
393.530	1	23
393.700	1	19
393.871	1	18
394.042	1	16
394.213	1	27
394.383	1	34
394.554	1	13
394.725	1	24
394.896	1	23
395.066	1	-1
395.237	1	8
395.408	1	27
395.579	1	14
395.749	1	25
395.920	1	23
396.091	1	26
396.262	1	22
396.432	1	22
396.603	1	39
396.774	1	20
396.945	1	19
397.115	1	25
397.286	1	33
397.457	1	18
397.627	1	22
397.798	1	34
397.969	1	15
398.140	1	38
398.310	1	31
398.481	1	13
398.652	1	12
398.823	1	17
398.993	1	43
399.164	1	20
399.335	1	26
399.505	1	42
399.676	1	22
399.847	1	30
400.018	1	22
400.188	1	32
400.359	1	32
400.530	1	25
400.700	1	38
400.871	1	31
401.042	1	36
401.213	1	29
401.383	1	45
401.554	1	38
401.725	1	34
401.895	1	28
402.066	1	37
402.237	1	35
402.408	1	20
402.578	1	21
402.749	1	38
402.920	1	39
403.090	1	28
403.261	1	21
403.432	1	33
403.603	1	32
403.773	1	32
403.944	1	33
404.115	1	34
404.285	1	39
404.456	1	41
404.627	1	39
404.797	1	36
404.968	1	29
405.139	1	29
405.310	1	35
405.480	1	34
405.651	1	46
405.822	1	33
405.992	1	32
406.163	1	30
406.334	1	41
406.504	1	30
406.675	1	43
406.846	1	42
407.016	1	35
407.187	1	21
407.358	1	31
407.528	1	37
407.699	1	46
407.870	1	29
408.041	1	35
408.211	1	29
408.382	1	41
408.553	1	37
408.723	1	36
408.894	1	31
409.065	1	43
409.235	1	44
409.406	1	37
409.577	1	38
409.747	1	31
409.918	1	59
410.089	1	47
410.259	1	46
410.430	1	48
410.601	1	37
410.771	1	40
410.942	1	34
411.113	1	56
411.283	1	46
411.454	1	34
411.625	1	31
411.795	1	41
411.966	1	43
412.137	1	45
412.307	1	39
412.478	1	46
412.649	1	39
412.819	1	33
412.990	1	30
413.161	1	36
413.331	1	46
413.502	1	40
413.672	1	48
413.843	1	42
414.014	1	43
414.184	1	39
414.355	1	45
414.526	1	43
414.696	1	59
414.867	1	46
415.038	1	55
415.208	1	38
415.379	1	55
415.550	1	51
415.720	1	38
415.891	1	53
416.062	1	43
416.232	1	42
416.403	1	57
416.573	1	52
416.744	1	43
416.915	1	57
417.085	1	53
417.256	1	40
417.427	1	51
417.597	1	52
417.768	1	49
417.939	1	41
418.109	1	44
418.280	1	49
418.450	1	49
418.621	1	47
418.792	1	37
418.962	1	49
419.133	1	46
419.304	1	55
419.474	1	41
419.645	1	56
419.815	1	52
419.986	1	48
420.157	1	63
420.327	1	40
420.498	1	55
420.669	1	60
420.839	1	53
421.010	1	50
421.180	1	49
421.351	1	43
421.522	1	47
421.692	1	50
421.863	1	45
422.033	1	49
422.204	1	55
422.375	1	59
422.545	1	46
422.716	1	50
422.886	1	65
423.057	1	47
423.228	1	57
423.398	1	47
423.569	1	52
423.740	1	41
423.910	1	58
424.081	1	57
424.251	1	58
424.422	1	54
424.593	1	49
424.763	1	49
424.934	1	68
425.104	1	59
425.275	1	54
425.445	1	41
425.616	1	57
425.787	1	57
425.957	1	52
426.128	1	56
426.298	1	60
426.469	1	47
426.640	1	52
426.810	1	75
426.981	1	56
427.151	1	61
427.322	1	56
427.493	1	61
427.663	1	52
427.834	1	65
428.004	1	56
428.175	1	55
428.345	1	51
428.516	1	59
428.687	1	66
428.857	1	65
429.028	1	63
429.198	1	62
429.369	1	67
429.540	1	72
429.710	1	54
429.881	1	60
430.051	1	63
430.222	1	59
430.392	1	58
430.563	1	65
430.734	1	60
430.904	1	74
431.075	1	61
431.245	1	71
431.416	1	66
431.586	1	55
431.757	1	57
431.927	1	63
432.098	1	80
432.269	1	69
432.439	1	69
432.610	1	65
432.780	1	71
432.951	1	60
433.121	1	75
433.292	1	58
433.462	1	70
433.633	1	56
433.804	1	68
433.974	1	67
434.145	1	72
434.315	1	69
434.486	1	85
434.656	1	76
434.827	1	69
434.997	1	70
435.168	1	73
435.339	1	73
435.509	1	83
435.680	1	71
435.850	1	85
436.021	1	88
436.191	1	89
436.362	1	78
436.532	1	82
436.703	1	78
436.873	1	78
437.044	1	88
437.214	1	72
437.385	1	73
437.556	1	86
437.726	1	80
437.897	1	79
438.067	1	95
438.238	1	80
438.408	1	91
438.579	1	101
438.749	1	86
438.920	1	91
439.090	1	101
439.261	1	87
439.431	1	96
439.602	1	104
439.772	1	113
439.943	1	96
440.113	1	96
440.284	1	103
440.455	1	103
440.625	1	94
440.796	1	98
440.966	1	114
441.137	1	110
441.307	1	115
441.478	1	122
441.648	1	112
441.819	1	97
441.989	1	121
442.160	1	112
442.330	1	101
442.501	1	116
442.671	1	132
442.842	1	111
443.012	1	129
443.183	1	128
443.353	1	134
443.524	1	133
443.694	1	133
443.865	1	131
444.035	1	134
444.206	1	135
444.376	1	149
444.547	1	145
444.717	1	140
444.888	1	155
445.058	1	174
445.229	1	143
445.399	1	168
445.570	1	160
445.740	1	158
445.911	1	181
446.081	1	167
446.252	1	163
446.422	1	184
446.593	1	168
446.763	1	185
446.934	1	185
447.104	1	201
447.275	1	186
447.445	1	208
447.616	1	208
447.786	1	208
447.957	1	212
448.127	1	207
448.298	1	229
448.468	1	233
448.639	1	221
448.809	1	252
448.979	1	237
449.150	1	252
449.320	1	268
449.491	1	288
449.661	1	267
449.832	1	277
450.002	1	278
450.173	1	281
450.343	1	286
450.514	1	309
450.684	1	318
450.855	1	335
451.025	1	327
451.196	1	330
451.366	1	358
451.537	1	349
451.707	1	361
451.878	1	368
452.048	1	392
452.218	1	382
452.389	1	414
452.559	1	393
452.730	1	413
452.900	1	435
453.071	1	432
453.241	1	416
453.412	1	476
453.582	1	459
453.753	1	454
453.923	1	494
454.093	1	515
454.264	1	501
454.434	1	516
454.605	1	495
454.775	1	524
454.946	1	533
455.116	1	546
455.287	1	531
455.457	1	560
455.628	1	559
455.798	1	584
455.968	1	579
456.139	1	578
456.309	1	595
456.480	1	598
456.650	1	607
456.821	1	607
456.991	1	612
457.161	1	612
457.332	1	627
457.502	1	620
457.673	1	639
457.843	1	660
458.014	1	646
458.184	1	653
458.355	1	626
458.525	1	654
458.695	1	641
458.866	1	646
459.036	1	618
459.207	1	654
459.377	1	669
459.548	1	655
459.718	1	648
459.888	1	656
460.059	1	642
460.229	1	645
460.400	1	621
460.570	1	636
460.740	1	630
460.911	1	629
461.081	1	631
461.252	1	628
461.422	1	635
461.593	1	599
461.763	1	612
461.933	1	625
462.104	1	576
462.274	1	600
462.445	1	595
462.615	1	588
462.785	1	572
462.956	1	559
463.126	1	575
463.297	1	551
463.467	1	549
463.638	1	521
463.808	1	541
463.978	1	533
464.149	1	520
464.319	1	502
464.490	1	508
464.660	1	487
464.830	1	508
465.001	1	497
465.171	1	485
465.342	1	463
465.512	1	468
465.682	1	448
465.853	1	443
466.023	1	442
466.194	1	445
466.364	1	420
466.534	1	437
466.705	1	423
466.875	1	408
467.045	1	414
467.216	1	425
467.386	1	416
467.557	1	388
467.727	1	402
467.897	1	392
468.068	1	393
468.238	1	375
468.409	1	388
468.579	1	384
468.749	1	369
468.920	1	376
469.090	1	366
469.260	1	370
469.431	1	359
469.601	1	366
469.772	1	361
469.942	1	357
470.112	1	345
470.283	1	341
470.453	1	343
470.623	1	336
470.794	1	335
470.964	1	358
471.135	1	325
471.305	1	345
471.475	1	352
471.646	1	317
471.816	1	342
471.986	1	331
472.157	1	339
472.327	1	347
472.497	1	331
472.668	1	330
472.838	1	333
473.009	1	330
473.179	1	335
473.349	1	319
473.520	1	304
473.690	1	316
473.860	1	314
474.031	1	307
474.201	1	324
474.371	1	297
474.542	1	297
474.712	1	296
474.882	1	322
475.053	1	296
475.223	1	286
475.394	1	293
475.564	1	293
475.734	1	302
475.905	1	292
476.075	1	298
476.245	1	290
476.416	1	274
476.586	1	264
476.756	1	293
476.927	1	275
477.097	1	273
477.267	1	263
477.438	1	258
477.608	1	264
477.778	1	265
477.949	1	262
478.119	1	248
478.289	1	243
478.460	1	243
478.630	1	260
478.800	1	236
478.971	1	231
479.141	1	238
479.311	1	256
479.482	1	237
479.652	1	234
479.822	1	232
479.993	1	230
480.163	1	233
480.333	1	220
480.504	1	219
480.674	1	228
480.844	1	227
481.015	1	221
481.185	1	230
481.355	1	211
481.525	1	234
481.696	1	220
481.866	1	203
482.036	1	202
482.207	1	202
482.377	1	206
482.547	1	202
482.718	1	189
482.888	1	213
483.058	1	213
483.229	1	212
483.399	1	221
483.569	1	201
483.740	1	198
483.910	1	194
484.080	1	199
484.250	1	196
484.421	1	206
484.591	1	202
484.761	1	202
484.932	1	210
485.102	1	202
485.272	1	193
485.443	1	191
485.613	1	200
485.783	1	213
485.953	1	209
486.124	1	187
486.294	1	203
486.464	1	196
486.635	1	188
486.805	1	192
486.975	1	197
487.146	1	182
487.316	1	184
487.486	1	191
487.656	1	195
487.827	1	190
487.997	1	198
488.167	1	188
488.338	1	200
488.508	1	201
488.678	1	188
488.848	1	193
489.019	1	205
489.189	1	183
489.359	1	191
489.529	1	194
489.700	1	195
489.870	1	186
490.040	1	207
490.211	1	192
490.381	1	207
490.551	1	192
490.721	1	202
490.892	1	193
491.062	1	195
491.232	1	204
491.402	1	196
491.573	1	198
491.743	1	200
491.913	1	217
492.084	1	200
492.254	1	207
492.424	1	200
492.594	1	204
492.765	1	212
492.935	1	197
493.105	1	212
493.275	1	221
493.446	1	218
493.616	1	203
493.786	1	211
493.956	1	211
494.127	1	210
494.297	1	203
494.467	1	216
494.637	1	209
494.808	1	218
494.978	1	217
495.148	1	202
495.318	1	214
495.489	1	216
495.659	1	203
495.829	1	210
495.999	1	229
496.170	1	217
496.340	1	234
496.510	1	227
496.680	1	235
496.851	1	224
497.021	1	218
497.191	1	232
497.361	1	220
497.532	1	227
497.702	1	235
497.872	1	229
498.042	1	231
498.213	1	223
498.383	1	229
498.553	1	234
498.723	1	249
498.894	1	233
499.064	1	250
499.234	1	231
499.404	1	247
499.574	1	251
499.745	1	244
499.915	1	247
500.085	1	238
500.255	1	248
500.426	1	257
500.596	1	265
500.766	1	244
500.936	1	244
501.106	1	265
501.277	1	264
501.447	1	267
501.617	1	288
501.787	1	264
501.958	1	268
502.128	1	286
502.298	1	273
502.468	1	279
502.638	1	283
502.809	1	289
502.979	1	281
503.149	1	308
503.319	1	288
503.489	1	289
503.660	1	294
503.830	1	293
504.000	1	298
504.170	1	303
504.340	1	305
504.511	1	323
504.681	1	308
504.851	1	322
505.021	1	313
505.192	1	331
505.362	1	324
505.532	1	327
505.702	1	323
505.872	1	338
506.043	1	329
506.213	1	341
506.383	1	346
506.553	1	358
506.723	1	341
506.893	1	328
507.064	1	340
507.234	1	338
507.404	1	350
507.574	1	342
507.744	1	346
507.915	1	376
508.085	1	365
508.255	1	365
508.425	1	362
508.595	1	360
508.766	1	372
508.936	1	363
509.106	1	374
509.276	1	361
509.446	1	379
509.616	1	363
509.787	1	374
509.957	1	374
510.127	1	362
510.297	1	378
510.467	1	390
510.638	1	390
510.808	1	394
510.978	1	391
511.148	1	380
511.318	1	381
511.488	1	392
511.659	1	392
511.829	1	412
511.999	1	405
512.169	1	403
512.339	1	390
512.509	1	425
512.680	1	406
512.850	1	410
513.020	1	418
513.190	1	422
513.360	1	421
513.530	1	425
513.700	1	417
513.871	1	425
514.041	1	444
514.211	1	433
514.381	1	439
514.551	1	441
514.721	1	447
514.892	1	441
515.062	1	444
515.232	1	424
515.402	1	467
515.572	1	455
515.742	1	474
515.912	1	445
516.083	1	452
516.253	1	436
516.423	1	430
516.593	1	441
516.763	1	466
516.933	1	461
517.104	1	466
517.274	1	479
517.444	1	468
517.614	1	465
517.784	1	469
517.954	1	467
518.124	1	488
518.294	1	487
518.465	1	487
518.635	1	467
518.805	1	495
518.975	1	463
519.145	1	485
519.315	1	475
519.485	1	467
519.656	1	485
519.826	1	496
519.996	1	480
520.166	1	490
520.336	1	501
520.506	1	488
520.676	1	480
520.846	1	501
521.017	1	516
521.187	1	495
521.357	1	513
521.527	1	497
521.697	1	517
521.867	1	498
522.037	1	511
522.207	1	542
522.377	1	521
522.548	1	512
522.718	1	521
522.888	1	511
523.058	1	521
523.228	1	520
523.398	1	547
523.568	1	520
523.738	1	529
523.909	1	551
524.079	1	533
524.249	1	534
524.419	1	519
524.589	1	537
524.759	1	543
524.929	1	575
525.099	1	559
525.269	1	555
525.439	1	546
525.610	1	563
525.780	1	540
525.950	1	571
526.120	1	560
526.290	1	563
526.460	1	568
526.630	1	562
526.800	1	583
526.970	1	570
527.140	1	549
527.311	1	577
527.481	1	567
527.651	1	576
527.821	1	571
527.991	1	577
528.161	1	580
528.331	1	584
528.501	1	586
528.671	1	568
528.841	1	592
529.011	1	588
529.181	1	593
529.352	1	586
529.522	1	594
529.692	1	598
529.862	1	604
530.032	1	573
530.202	1	589
530.372	1	611
530.542	1	606
530.712	1	601
530.882	1	597
531.052	1	588
531.222	1	608
531.392	1	613
531.563	1	615
531.733	1	614
531.903	1	619
532.073	1	601
532.243	1	616
532.413	1	611
532.583	1	617
532.753	1	638
532.923	1	620
533.093	1	619
533.263	1	612
533.433	1	612
533.603	1	616
533.773	1	628
533.943	1	647
534.113	1	654
534.284	1	626
534.454	1	646
534.624	1	633
534.794	1	622
534.964	1	646
535.134	1	655
535.304	1	671
535.474	1	661
535.644	1	639
535.814	1	648
535.984	1	668
536.154	1	655
536.324	1	658
536.494	1	647
536.664	1	656
536.834	1	651
537.004	1	654
537.174	1	657
537.344	1	674
537.514	1	662
537.685	1	646
537.855	1	663
538.025	1	678
538.195	1	659
538.365	1	666
538.535	1	672
538.705	1	673
538.875	1	687
539.045	1	685
539.215	1	655
539.385	1	689
539.555	1	686
539.725	1	699
539.895	1	668
540.065	1	675
540.235	1	683
540.405	1	679
540.575	1	682
540.745	1	679
540.915	1	688
541.085	1	697
541.255	1	694
541.425	1	704
541.595	1	725
541.765	1	712
541.935	1	687
542.105	1	722
542.275	1	720
542.445	1	707
542.615	1	723
542.785	1	717
542.955	1	713
543.125	1	718
543.295	1	722
543.465	1	720
543.635	1	715
543.805	1	698
543.975	1	718
544.145	1	732
544.315	1	736
544.485	1	724
544.655	1	743
544.825	1	731
544.995	1	755
545.165	1	748
545.335	1	755
545.505	1	745
545.675	1	739
545.845	1	727
546.015	1	743
546.185	1	768
546.355	1	746
546.525	1	759
546.695	1	763
546.865	1	753
547.035	1	746
547.205	1	773
547.375	1	754
547.545	1	781
547.715	1	762
547.885	1	748
548.055	1	786
548.225	1	778
548.395	1	747
548.565	1	769
548.735	1	780
548.905	1	780
549.075	1	771
549.245	1	783
549.415	1	775
549.585	1	793
549.755	1	774
549.925	1	790
550.095	1	794
550.265	1	779
550.435	1	779
550.605	1	797
550.775	1	797
550.945	1	802
551.115	1	779
551.285	1	788
551.455	1	779
551.625	1	781
551.795	1	781
551.965	1	796
552.135	1	790
552.305	1	820
552.475	1	809
552.645	1	815
552.815	1	809
552.985	1	815
553.155	1	798
553.325	1	800
553.495	1	822
553.665	1	814
553.835	1	826
554.004	1	815
554.174	1	832
554.344	1	794
554.514	1	811
554.684	1	810
554.854	1	822
555.024	1	819
555.194	1	820
555.364	1	833
555.534	1	835
555.704	1	841
555.874	1	838
556.044	1	846
556.214	1	841
556.384	1	844
556.554	1	837
556.724	1	843
556.894	1	844
557.064	1	861
557.234	1	862
557.404	1	845
557.573	1	863
557.743	1	839
557.913	1	857
558.083	1	870
558.253	1	866
558.423	1	865
558.593	1	838
558.763	1	874
558.933	1	854
559.103	1	865
559.273	1	883
559.443	1	873
559.613	1	852
559.783	1	895
559.953	1	879
560.122	1	881
560.292	1	904
560.462	1	872
560.632	1	896
560.802	1	890
560.972	1	907
561.142	1	894
561.312	1	901
561.482	1	893
561.652	1	879
561.822	1	927
561.992	1	901
562.162	1	888
562.331	1	927
562.501	1	910
562.671	1	897
562.841	1	890
563.011	1	920
563.181	1	923
563.351	1	929
563.521	1	919
563.691	1	914
563.861	1	926
564.031	1	931
564.201	1	941
564.370	1	917
564.540	1	937
564.710	1	943
564.880	1	976
565.050	1	926
565.220	1	946
565.390	1	948
565.560	1	948
565.730	1	954
565.900	1	962
566.069	1	961
566.239	1	951
566.409	1	977
566.579	1	944
566.749	1	987
566.919	1	964
567.089	1	991
567.259	1	983
567.429	1	1000
567.599	1	986
567.768	1	995
567.938	1	994
568.108	1	998
568.278	1	985
568.448	1	1010
568.618	1	999
568.788	1	1012
568.958	1	1001
569.128	1	1035
569.297	1	1026
569.467	1	1031
569.637	1	1013
569.807	1	1018
569.977	1	1026
570.147	1	1038
570.317	1	1051
570.487	1	1014
570.656	1	1034
570.826	1	1044
570.996	1	1032
571.166	1	1044
571.336	1	1041
571.506	1	1055
571.676	1	1025
571.846	1	1080
572.015	1	1060
572.185	1	1077
572.355	1	1086
572.525	1	1066
572.695	1	1066
572.865	1	1083
573.035	1	1059
573.205	1	1074
573.374	1	1088
573.544	1	1095
573.714	1	1104
573.884	1	1100
574.054	1	1112
574.224	1	1088
574.394	1	1091
574.563	1	1104
574.733	1	1120
574.903	1	1093
575.073	1	1096
575.243	1	1117
575.413	1	1118
575.583	1	1108
575.752	1	1133
575.922	1	1138
576.092	1	1133
576.262	1	1135
576.432	1	1160
576.602	1	1158
576.772	1	1133
576.941	1	1158
577.111	1	1170
577.281	1	1184
577.451	1	1171
577.621	1	1164
577.791	1	1183
577.960	1	1162
578.130	1	1159
578.300	1	1222
578.470	1	1170
578.640	1	1190
578.810	1	1179
578.979	1	1203
579.149	1	1224
579.319	1	1199
579.489	1	1198
579.659	1	1229
579.829	1	1216
579.998	1	1242
580.168	1	1225
580.338	1	1238
580.508	1	1242
580.678	1	1244
580.848	1	1265
581.017	1	1266
581.187	1	1273
581.357	1	1277
581.527	1	1244
581.697	1	1264
581.867	1	1278
582.036	1	1264
582.206	1	1281
582.376	1	1286
582.546	1	1272
582.716	1	1295
582.885	1	1300
583.055	1	1285
583.225	1	1288
583.395	1	1305
583.565	1	1288
583.735	1	1327
583.904	1	1322
584.074	1	1327
584.244	1	1330
584.414	1	1323
584.584	1	1329
584.753	1	1314
584.923	1	1323
585.093	1	1341
585.263	1	1344
585.433	1	1330
585.602	1	1373
585.772	1	1325
585.942	1	1353
586.112	1	1346
586.282	1	1346
586.451	1	1383
586.621	1	1384
586.791	1	1374
586.961	1	1386
587.131	1	1377
587.300	1	1358
587.470	1	1367
587.640	1	1390
587.810	1	1374
587.980	1	1388
588.149	1	1386
588.319	1	1363
588.489	1	1393
588.659	1	1369
588.829	1	1413
588.998	1	1402
589.168	1	1381
589.338	1	1365
589.508	1	1384
589.677	1	1402
589.847	1	1413
590.017	1	1417
590.187	1	1390
590.357	1	1411
590.526	1	1425
590.696	1	1380
590.866	1	1417
591.036	1	1433
591.205	1	1394
591.375	1	1400
591.545	1	1433
591.715	1	1400
591.885	1	1440
592.054	1	1411
592.224	1	1428
592.394	1	1451
592.564	1	1469
592.733	1	1442
592.903	1	1440
593.073	1	1436
593.243	1	1435
593.412	1	1475
593.582	1	1445
593.752	1	1436
593.922	1	1469
594.091	1	1459
594.261	1	1428
594.431	1	1477
594.601	1	1468
594.771	1	1481
594.940	1	1504
595.110	1	1453
595.280	1	1464
595.450	1	1515
595.619	1	1501
595.789	1	1469
595.959	1	1455
596.129	1	1479
596.298	1	1464
596.468	1	1455
596.638	1	1447
596.808	1	1490
596.977	1	1482
597.147	1	1490
597.317	1	1495
597.487	1	1479
597.656	1	1472
597.826	1	1511
597.996	1	1493
598.166	1	1491
598.335	1	1476
598.505	1	1502
598.675	1	1451
598.844	1	1495
599.014	1	1518
599.184	1	1484
599.354	1	1539
599.523	1	1486
599.693	1	1504
599.863	1	1506
600.033	1	1507
600.202	1	1513
600.372	1	1522
600.542	1	1509
600.712	1	1500
600.881	1	1516
601.051	1	1517
601.221	1	1521
601.390	1	1496
601.560	1	1548
601.730	1	1531
601.900	1	1534
602.069	1	1528
602.239	1	1529
602.409	1	1527
602.578	1	1504
602.748	1	1531
602.918	1	1517
603.088	1	1546
603.257	1	1525
603.427	1	1531
603.597	1	1555
603.767	1	1533
603.936	1	1520
604.106	1	1560
604.276	1	1501
604.445	1	1521
604.615	1	1548
604.785	1	1596
604.954	1	1551
605.124	1	1560
605.294	1	1568
605.464	1	1570
605.633	1	1562
605.803	1	1524
605.973	1	1563
606.142	1	1539
606.312	1	1546
606.482	1	1538
606.652	1	1538
606.821	1	1554
606.991	1	1531
607.161	1	1570
607.330	1	1549
607.500	1	1535
607.670	1	1529
607.839	1	1544
608.009	1	1547
608.179	1	1566
608.348	1	1488
608.518	1	1529
608.688	1	1535
608.858	1	1525
609.027	1	1524
609.197	1	1536
609.367	1	1523
609.536	1	1538
609.706	1	1562
609.876	1	1527
610.045	1	1509
610.215	1	1531
610.385	1	1554
610.554	1	1506
610.724	1	1516
610.894	1	1557
611.063	1	1550
611.233	1	1521
611.403	1	1564
611.572	1	1518
611.742	1	1514
611.912	1	1555
612.081	1	1538
612.251	1	1534
612.421	1	1523
612.590	1	1500
612.760	1	1539
612.930	1	1556
613.099	1	1501
613.269	1	1528
613.439	1	1515
613.608	1	1519
613.778	1	1510
613.948	1	1510
614.117	1	1467
614.287	1	1493
614.457	1	1492
614.626	1	1485
614.796	1	1479
614.966	1	1526
615.135	1	1516
615.305	1	1470
615.475	1	1515
615.644	1	1489
615.814	1	1454
615.984	1	1443
616.153	1	1481
616.323	1	1463
616.493	1	1452
616.662	1	1496
616.832	1	1471
617.002	1	1465
617.171	1	1447
617.341	1	1454
617.511	1	1478
617.680	1	1469
617.850	1	1448
618.019	1	1447
618.189	1	1461
618.359	1	1447
618.528	1	1443
618.698	1	1422
618.868	1	1437
619.037	1	1447
619.207	1	1418
619.377	1	1410
619.546	1	1443
619.716	1	1438
619.885	1	1440
620.055	1	1432
620.225	1	1431
620.394	1	1437
620.564	1	1426
620.734	1	1414
620.903	1	1435
621.073	1	1381
621.242	1	1411
621.412	1	1385
621.582	1	1388
621.751	1	1392
621.921	1	1399
622.091	1	1390
622.260	1	1377
622.430	1	1365
622.599	1	1351
622.769	1	1374
622.939	1	1372
623.108	1	1394
623.278	1	1359
623.448	1	1378
623.617	1	1373
623.787	1	1365
623.956	1	1371
624.126	1	1336
624.296	1	1331
624.465	1	1367
624.635	1	1341
624.804	1	1358
624.974	1	1341
625.144	1	1335
625.313	1	1360
625.483	1	1344
625.652	1	1318
625.822	1	1338
625.992	1	1326
626.161	1	1317
626.331	1	1339
626.501	1	1314
626.670	1	1322
626.840	1	1302
627.009	1	1301
627.179	1	1309
627.348	1	1297
627.518	1	1291
627.688	1	1304
627.857	1	1293
628.027	1	1294
628.196	1	1333
628.366	1	1268
628.536	1	1302
628.705	1	1289
628.875	1	1269
629.044	1	1271
629.214	1	1248
629.384	1	1260
629.553	1	1263
629.723	1	1255
629.892	1	1274
630.062	1	1266
630.232	1	1261
630.401	1	1256
630.571	1	1248
630.740	1	1240
630.910	1	1272
631.079	1	1271
631.249	1	1262
631.419	1	1220
631.588	1	1259
631.758	1	1237
631.927	1	1227
632.097	1	1212
632.266	1	1210
632.436	1	1248
632.606	1	1241
632.775	1	1220
632.945	1	1201
633.114	1	1217
633.284	1	1227
633.453	1	1201
633.623	1	1201
633.793	1	1194
633.962	1	1195
634.132	1	1180
634.301	1	1190
634.471	1	1172
634.640	1	1166
634.810	1	1177
634.979	1	1206
635.149	1	1148
635.319	1	1196
635.488	1	1169
635.658	1	1166
635.827	1	1148
635.997	1	1196
636.166	1	1177
636.336	1	1155
636.505	1	1155
636.675	1	1133
636.845	1	1145
637.014	1	1146
637.184	1	1135
637.353	1	1143
637.523	1	1139
637.692	1	1127
637.862	1	1121
638.031	1	1118
638.201	1	1113
638.370	1	1136
638.540	1	1114
638.710	1	1088
638.879	1	1098
639.049	1	1126
639.218	1	1093
639.388	1	1112
639.557	1	1093
639.727	1	1089
639.896	1	1083
640.066	1	1080
640.235	1	1073
640.405	1	1073
640.574	1	1080
640.744	1	1031
640.914	1	1039
641.083	1	1066
641.253	1	1050
641.422	1	1070
641.592	1	1056
641.761	1	1042
641.931	1	1039
642.100	1	1051
642.270	1	1029
642.439	1	1040
642.609	1	1018
642.778	1	1038
642.948	1	1033
643.117	1	1011
643.287	1	1018
643.456	1	1017
643.626	1	1000
643.795	1	998
643.965	1	991
644.134	1	1003
644.304	1	978
644.473	1	999
644.643	1	1000
644.812	1	1007
644.982	1	959
645.151	1	970
645.321	1	961
645.490	1	958
645.660	1	964
645.829	1	934
645.999	1	946
646.168	1	940
646.338	1	939
646.507	1	970
646.677	1	926
646.846	1	937
647.016	1	940
647.185	1	926
647.355	1	918
647.524	1	910
647.694	1	926
647.863	1	899
648.033	1	903
648.202	1	912
648.372	1	880
648.541	1	891
648.711	1	868
648.880	1	883
649.050	1	883
649.219	1	877
649.389	1	880
649.558	1	889
649.728	1	873
649.897	1	880
650.067	1	838
650.236	1	856
650.406	1	852
650.575	1	855
650.745	1	874
650.914	1	854
651.084	1	842
651.253	1	868
651.423	1	850
651.592	1	837
651.762	1	856
651.931	1	818
652.101	1	827
652.270	1	791
652.440	1	822
652.609	1	823
652.778	1	801
652.948	1	816
653.117	1	803
653.287	1	801
653.456	1	798
653.626	1	806
653.795	1	793
653.965	1	789
654.134	1	777
654.304	1	785
654.473	1	769
654.643	1	770
654.812	1	775
654.982	1	767
655.151	1	745
655.320	1	768
655.490	1	748
655.659	1	742
655.829	1	747
655.998	1	741
656.168	1	739
656.337	1	726
656.507	1	731
656.676	1	734
656.846	1	722
657.015	1	698
657.184	1	699
657.354	1	714
657.523	1	714
657.693	1	712
657.862	1	711
658.032	1	697
658.201	1	709
658.371	1	702
658.540	1	690
658.709	1	675
658.879	1	692
659.048	1	695
659.218	1	680
659.387	1	672
659.557	1	677
659.726	1	689
659.895	1	664
660.065	1	656
660.234	1	647
660.404	1	667
660.573	1	657
660.743	1	662
660.912	1	650
661.081	1	644
661.251	1	645
661.420	1	646
661.590	1	640
661.759	1	650
661.929	1	651
662.098	1	651
662.267	1	619
662.437	1	609
662.606	1	615
662.776	1	633
662.945	1	623
663.115	1	621
663.284	1	595
663.453	1	611
663.623	1	614
663.792	1	589
663.962	1	610
664.131	1	607
664.300	1	593
664.470	1	598
664.639	1	591
664.809	1	584
664.978	1	590
665.148	1	570
665.317	1	571
665.486	1	583
665.656	1	604
665.825	1	570
665.995	1	581
666.164	1	556
666.333	1	562
666.503	1	569
666.672	1	563
666.842	1	566
667.011	1	574
667.180	1	548
667.350	1	541
667.519	1	539
667.689	1	532
667.858	1	545
668.027	1	559
668.197	1	552
668.366	1	529
668.536	1	545
668.705	1	532
668.874	1	535
669.044	1	537
669.213	1	514
669.382	1	505
669.552	1	525
669.721	1	521
669.891	1	514
670.060	1	503
670.229	1	502
670.399	1	515
670.568	1	505
670.738	1	491
670.907	1	497
671.076	1	507
671.246	1	490
671.415	1	487
671.584	1	477
671.754	1	492
671.923	1	491
672.093	1	489
672.262	1	486
672.431	1	472
672.601	1	484
672.770	1	466
672.939	1	492
673.109	1	467
673.278	1	473
673.448	1	464
673.617	1	459
673.786	1	450
