325.333	1	83
325.504	1	85
325.675	1	64
325.846	1	73
326.017	1	85
326.188	1	94
326.359	1	89
326.531	1	81
326.702	1	80
326.873	1	92
327.044	1	81
327.215	1	82
327.386	1	89
327.557	1	99
327.728	1	95
327.899	1	89
328.070	1	90
328.241	1	94
328.412	1	95
328.583	1	88
328.754	1	97
328.926	1	101
329.097	1	99
329.268	1	97
329.439	1	98
329.610	1	99
329.781	1	101
329.952	1	90
330.123	1	99
330.294	1	92
330.465	1	106
330.636	1	108
330.807	1	101
330.978	1	93
331.149	1	110
331.320	1	106
331.492	1	104
331.663	1	104
331.834	1	103
332.005	1	110
332.176	1	108
332.347	1	122
332.518	1	106
332.689	1	107
332.860	1	109
333.031	1	110
333.202	1	117
333.373	1	117
333.544	1	120
333.715	1	111
333.886	1	118
334.057	1	112
334.228	1	125
334.399	1	115
334.570	1	107
334.741	1	118
334.912	1	112
335.084	1	127
335.255	1	113
335.426	1	124
335.597	1	118
335.768	1	112
335.939	1	118
336.110	1	131
336.281	1	122
336.452	1	120
336.623	1	130
336.794	1	125
336.965	1	119
337.136	1	121
337.307	1	133
337.478	1	113
337.649	1	123
337.820	1	121
337.991	1	120
338.162	1	117
338.333	1	124
338.504	1	116
338.675	1	121
338.846	1	130
339.017	1	122
339.188	1	117
339.359	1	118
339.530	1	130
339.701	1	125
339.872	1	128
340.043	1	137
340.214	1	131
340.385	1	134
340.556	1	118
340.727	1	125
340.898	1	136
341.069	1	120
341.240	1	123
341.411	1	136
341.582	1	132
341.753	1	124
341.924	1	125
342.095	1	131
342.266	1	122
342.437	1	124
342.608	1	117
342.779	1	128
342.950	1	118
343.121	1	125
343.292	1	130
343.463	1	131
343.634	1	126
343.805	1	120
343.976	1	124
344.147	1	112
344.318	1	120
344.489	1	128
344.660	1	116
344.831	1	115
345.002	1	140
345.173	1	135
345.344	1	119
345.515	1	119
345.686	1	127
345.857	1	121
346.028	1	117
346.199	1	137
346.370	1	120
346.541	1	109
346.712	1	124
346.883	1	124
347.054	1	118
347.225	1	119
347.396	1	109
347.567	1	121
347.738	1	108
347.909	1	114
348.080	1	122
348.251	1	117
348.422	1	108
348.593	1	114
348.764	1	117
348.935	1	108
349.106	1	105
349.277	1	119
349.448	1	99
349.619	1	107
349.790	1	116
349.961	1	113
350.132	1	113
350.303	1	112
350.474	1	107
350.645	1	100
350.816	1	86
350.987	1	110
351.157	1	98
351.328	1	91
351.499	1	106
351.670	1	114
351.841	1	112
352.012	1	109
352.183	1	96
352.354	1	106
352.525	1	98
352.696	1	92
352.867	1	95
353.038	1	113
353.209	1	101
353.380	1	90
353.551	1	93
353.722	1	94
353.893	1	97
354.064	1	92
354.235	1	86
354.406	1	96
354.576	1	100
354.747	1	104
354.918	1	91
355.089	1	91
355.260	1	89
355.431	1	101
355.602	1	85
355.773	1	63
355.944	1	81
356.115	1	83
356.286	1	89
356.457	1	79
356.628	1	78
356.799	1	85
356.970	1	80
357.141	1	80
357.311	1	87
357.482	1	83
357.653	1	76
357.824	1	75
357.995	1	81
358.166	1	78
358.337	1	71
358.508	1	88
358.679	1	65
358.850	1	83
359.021	1	79
359.192	1	71
359.363	1	78
359.533	1	81
359.704	1	86
359.875	1	67
360.046	1	71
360.217	1	76
360.388	1	77
360.559	1	82
360.730	1	70
360.901	1	80
361.072	1	68
361.243	1	66
361.414	1	63
361.584	1	82
361.755	1	70
361.926	1	56
362.097	1	76
362.268	1	71
362.439	1	61
362.610	1	66
362.781	1	68
362.952	1	58
363.123	1	68
363.293	1	58
363.464	1	64
363.635	1	67
363.806	1	52
363.977	1	59
364.148	1	56
364.319	1	54
364.490	1	56
364.661	1	55
364.832	1	72
365.002	1	61
365.173	1	60
365.344	1	44
365.515	1	61
365.686	1	55
365.857	1	68
366.028	1	60
366.199	1	63
366.370	1	61
366.540	1	47
366.711	1	59
366.882	1	61
367.053	1	57
367.224	1	59
367.395	1	64
367.566	1	59
367.737	1	49
367.908	1	48
368.078	1	54
368.249	1	55
368.420	1	57
368.591	1	62
368.762	1	40
368.933	1	41
369.104	1	52
369.274	1	50
369.445	1	53
369.616	1	33
369.787	1	44
369.958	1	42
370.129	1	42
370.300	1	46
370.471	1	52
370.641	1	38
370.812	1	47
370.983	1	49
371.154	1	65
371.325	1	52
371.496	1	53
371.667	1	49
371.837	1	52
372.008	1	55
372.179	1	56
372.350	1	51
372.521	1	62
372.692	1	52
372.863	1	54
373.033	1	54
373.204	1	46
373.375	1	59
373.546	1	45
373.717	1	41
373.888	1	50
374.059	1	52
374.229	1	56
374.400	1	57
374.571	1	55
374.742	1	44
374.913	1	37
375.084	1	50
375.254	1	49
375.425	1	54
375.596	1	69
375.767	1	46
375.938	1	53
376.109	1	51
376.279	1	62
376.450	1	61
376.621	1	48
376.792	1	49
376.963	1	65
377.134	1	54
377.304	1	64
377.475	1	52
377.646	1	63
377.817	1	60
377.988	1	65
378.159	1	57
378.329	1	70
378.500	1	57
378.671	1	62
378.842	1	61
379.013	1	60
379.184	1	74
379.354	1	55
379.525	1	63
379.696	1	61
379.867	1	60
380.038	1	63
380.209	1	61
380.379	1	59
380.550	1	64
380.721	1	60
380.892	1	73
381.063	1	74
381.233	1	65
381.404	1	87
381.575	1	73
381.746	1	74
381.917	1	79
382.087	1	75
382.258	1	63
382.429	1	79
382.600	1	78
382.771	1	77
382.941	1	77
383.112	1	79
383.283	1	94
383.454	1	82
383.625	1	94
383.795	1	77
383.966	1	87
384.137	1	92
384.308	1	91
384.479	1	78
384.649	1	89
384.820	1	95
384.991	1	88
385.162	1	90
385.333	1	98
385.503	1	95
385.674	1	104
385.845	1	88
386.016	1	96
386.187	1	92
386.357	1	96
386.528	1	101
386.699	1	112
386.870	1	92
387.041	1	95
387.211	1	107
387.382	1	108
387.553	1	119
387.724	1	111
387.894	1	118
388.065	1	102
388.236	1	112
388.407	1	118
388.578	1	113
388.748	1	111
388.919	1	120
389.090	1	113
389.261	1	116
389.431	1	128
389.602	1	137
389.773	1	120
389.944	1	125
390.114	1	134
390.285	1	135
390.456	1	147
390.627	1	138
390.798	1	129
390.968	1	126
391.139	1	141
391.310	1	135
391.481	1	136
391.651	1	146
391.822	1	144
391.993	1	124
392.164	1	138
392.334	1	135
392.505	1	155
392.676	1	132
392.847	1	148
393.017	1	149
393.188	1	144
393.359	1	151
393.530	1	148
393.700	1	160
393.871	1	170
394.042	1	148
394.213	1	179
394.383	1	171
394.554	1	155
394.725	1	161
394.896	1	173
395.066	1	161
395.237	1	156
395.408	1	169
395.579	1	174
395.749	1	189
395.920	1	184
396.091	1	190
396.262	1	187
396.432	1	189
396.603	1	195
396.774	1	182
396.945	1	191
397.115	1	203
397.286	1	190
397.457	1	192
397.627	1	191
397.798	1	196
397.969	1	185
398.140	1	212
398.310	1	211
398.481	1	184
398.652	1	206
398.823	1	212
398.993	1	220
399.164	1	225
399.335	1	211
399.505	1	220
399.676	1	224
399.847	1	230
400.018	1	214
400.188	1	214
400.359	1	233
400.530	1	226
400.700	1	235
400.871	1	250
401.042	1	221
401.213	1	235
401.383	1	250
401.554	1	244
401.725	1	240
401.895	1	223
402.066	1	252
402.237	1	245
402.408	1	231
402.578	1	245
402.749	1	261
402.920	1	265
403.090	1	252
403.261	1	243
403.432	1	268
403.603	1	265
403.773	1	269
403.944	1	269
404.115	1	268
404.285	1	277
404.456	1	277
404.627	1	260
404.797	1	277
404.968	1	278
405.139	1	272
405.310	1	266
405.480	1	293
405.651	1	277
405.822	1	291
405.992	1	288
406.163	1	276
406.334	1	287
406.504	1	292
406.675	1	297
406.846	1	299
407.016	1	303
407.187	1	297
407.358	1	313
407.528	1	292
407.699	1	303
407.870	1	307
408.041	1	308
408.211	1	304
408.382	1	328
408.553	1	308
408.723	1	312
408.894	1	314
409.065	1	318
409.235	1	327
409.406	1	322
409.577	1	337
409.747	1	323
409.918	1	341
410.089	1	328
410.259	1	323
410.430	1	348
410.601	1	341
410.771	1	323
410.942	1	347
411.113	1	345
411.283	1	340
411.454	1	338
411.625	1	359
411.795	1	344
411.966	1	356
412.137	1	355
412.307	1	373
412.478	1	358
412.649	1	351
412.819	1	362
412.990	1	365
413.161	1	352
413.331	1	351
413.502	1	367
413.672	1	367
413.843	1	360
414.014	1	363
414.184	1	366
414.355	1	367
414.526	1	363
414.696	1	396
414.867	1	360
415.038	1	366
415.208	1	370
415.379	1	369
415.550	1	367
415.720	1	372
415.891	1	369
416.062	1	374
416.232	1	370
416.403	1	376
416.573	1	380
416.744	1	383
416.915	1	388
417.085	1	391
417.256	1	381
417.427	1	385
417.597	1	394
417.768	1	392
417.939	1	360
418.109	1	387
418.280	1	396
418.450	1	391
418.621	1	379
418.792	1	364
418.962	1	399
419.133	1	380
419.304	1	392
419.474	1	387
419.645	1	391
419.815	1	361
419.986	1	400
420.157	1	393
420.327	1	375
420.498	1	378
420.669	1	387
420.839	1	385
421.010	1	391
421.180	1	397
421.351	1	403
421.522	1	377
421.692	1	374
421.863	1	358
422.033	1	381
422.204	1	376
422.375	1	395
422.545	1	401
422.716	1	393
422.886	1	381
423.057	1	381
423.228	1	408
423.398	1	380
423.569	1	389
423.740	1	382
423.910	1	394
424.081	1	377
424.251	1	390
424.422	1	374
424.593	1	416
424.763	1	386
424.934	1	387
425.104	1	403
425.275	1	393
425.445	1	379
425.616	1	393
425.787	1	396
425.957	1	406
426.128	1	400
426.298	1	384
426.469	1	389
426.640	1	400
426.810	1	400
426.981	1	400
427.151	1	384
427.322	1	404
427.493	1	396
427.663	1	397
427.834	1	392
428.004	1	381
428.175	1	390
428.345	1	398
428.516	1	392
428.687	1	404
428.857	1	393
429.028	1	396
429.198	1	397
429.369	1	388
429.540	1	394
429.710	1	373
429.881	1	388
430.051	1	380
430.222	1	371
430.392	1	390
430.563	1	391
430.734	1	399
430.904	1	400
431.075	1	397
431.245	1	392
431.416	1	404
431.586	1	385
431.757	1	396
431.927	1	376
432.098	1	392
432.269	1	401
432.439	1	398
432.610	1	372
432.780	1	386
432.951	1	376
433.121	1	391
433.292	1	369
433.462	1	381
433.633	1	365
433.804	1	368
433.974	1	368
434.145	1	377
434.315	1	378
434.486	1	394
434.656	1	377
434.827	1	382
434.997	1	377
435.168	1	380
435.339	1	381
435.509	1	368
435.680	1	380
435.850	1	374
436.021	1	386
436.191	1	389
436.362	1	365
436.532	1	388
436.703	1	368
436.873	1	376
437.044	1	363
437.214	1	356
437.385	1	373
437.556	1	375
437.726	1	355
437.897	1	351
438.067	1	371
438.238	1	348
438.408	1	362
438.579	1	365
438.749	1	367
438.920	1	355
439.090	1	354
439.261	1	374
439.431	1	359
439.602	1	356
439.772	1	368
439.943	1	362
440.113	1	365
440.284	1	349
440.455	1	362
440.625	1	357
440.796	1	337
440.966	1	369
441.137	1	345
441.307	1	347
441.478	1	343
441.648	1	340
441.819	1	336
441.989	1	354
442.160	1	342
442.330	1	339
442.501	1	342
442.671	1	348
442.842	1	328
443.012	1	315
443.183	1	333
443.353	1	329
443.524	1	332
443.694	1	322
443.865	1	319
444.035	1	331
444.206	1	318
444.376	1	336
444.547	1	306
444.717	1	316
444.888	1	332
445.058	1	336
445.229	1	310
445.399	1	318
445.570	1	315
445.740	1	320
445.911	1	310
446.081	1	321
446.252	1	316
446.422	1	308
446.593	1	296
446.763	1	313
446.934	1	306
447.104	1	312
447.275	1	299
447.445	1	307
447.616	1	307
447.786	1	297
447.957	1	304
448.127	1	300
448.298	1	290
448.468	1	305
448.639	1	302
448.809	1	289
448.979	1	282
449.150	1	294
449.320	1	289
449.491	1	316
449.661	1	298
449.832	1	290
450.002	1	294
450.173	1	290
450.343	1	281
450.514	1	281
450.684	1	277
450.855	1	293
451.025	1	289
451.196	1	289
451.366	1	288
451.537	1	286
451.707	1	270
451.878	1	283
452.048	1	282
452.218	1	281
452.389	1	271
452.559	1	258
452.730	1	294
452.900	1	260
453.071	1	261
453.241	1	273
453.412	1	266
453.582	1	250
453.753	1	265
453.923	1	271
454.093	1	267
454.264	1	261
454.434	1	251
454.605	1	249
454.775	1	232
454.946	1	251
455.116	1	241
455.287	1	245
455.457	1	248
455.628	1	246
455.798	1	234
455.968	1	252
456.139	1	240
456.309	1	245
456.480	1	248
456.650	1	240
456.821	1	234
456.991	1	228
457.161	1	237
457.332	1	220
457.502	1	236
457.673	1	247
457.843	1	236
458.014	1	233
458.184	1	223
458.355	1	218
458.525	1	218
458.695	1	219
458.866	1	222
459.036	1	210
459.207	1	217
459.377	1	222
459.548	1	209
459.718	1	226
459.888	1	223
460.059	1	204
460.229	1	223
460.400	1	198
460.570	1	214
460.740	1	216
460.911	1	202
461.081	1	223
461.252	1	196
461.422	1	218
461.593	1	196
461.763	1	215
461.933	1	213
462.104	1	204
462.274	1	203
462.445	1	189
462.615	1	196
462.785	1	187
462.956	1	196
463.126	1	196
463.297	1	199
463.467	1	200
463.638	1	193
463.808	1	195
463.978	1	168
464.149	1	189
464.319	1	166
464.490	1	183
464.660	1	161
464.830	1	180
465.001	1	192
465.171	1	170
465.342	1	181
465.512	1	166
465.682	1	170
465.853	1	172
466.023	1	171
466.194	1	149
466.364	1	164
466.534	1	181
466.705	1	173
466.875	1	166
467.045	1	153
467.216	1	163
467.386	1	174
467.557	1	150
467.727	1	150
467.897	1	156
468.068	1	156
468.238	1	156
468.409	1	155
468.579	1	148
468.749	1	157
468.920	1	153
469.090	1	137
469.260	1	149
469.431	1	150
469.601	1	163
469.772	1	139
469.942	1	152
470.112	1	145
470.283	1	148
470.453	1	150
470.623	1	141
470.794	1	135
470.964	1	145
471.135	1	137
471.305	1	136
471.475	1	152
471.646	1	140
471.816	1	131
471.986	1	136
472.157	1	136
472.327	1	148
472.497	1	131
472.668	1	130
472.838	1	138
473.009	1	125
473.179	1	134
473.349	1	118
473.520	1	119
473.690	1	145
473.860	1	139
474.031	1	136
474.201	1	117
474.371	1	121
474.542	1	126
474.712	1	133
474.882	1	139
475.053	1	122
475.223	1	116
475.394	1	124
475.564	1	107
475.734	1	129
475.905	1	124
476.075	1	128
476.245	1	116
476.416	1	118
476.586	1	115
476.756	1	122
476.927	1	116
477.097	1	128
477.267	1	111
477.438	1	105
477.608	1	109
477.778	1	112
477.949	1	119
478.119	1	113
478.289	1	113
478.460	1	110
478.630	1	119
478.800	1	108
478.971	1	109
479.141	1	117
479.311	1	112
479.482	1	100
479.652	1	113
479.822	1	114
479.993	1	105
480.163	1	107
480.333	1	101
480.504	1	96
480.674	1	105
480.844	1	107
481.015	1	101
481.185	1	104
481.355	1	110
481.525	1	100
481.696	1	117
481.866	1	104
482.036	1	91
482.207	1	86
482.377	1	109
482.547	1	93
482.718	1	92
482.888	1	98
483.058	1	99
483.229	1	93
483.399	1	96
483.569	1	90
483.740	1	82
483.910	1	100
484.080	1	101
484.250	1	84
484.421	1	91
484.591	1	100
484.761	1	91
484.932	1	96
485.102	1	96
485.272	1	89
485.443	1	78
485.613	1	90
485.783	1	94
485.953	1	92
486.124	1	84
486.294	1	82
486.464	1	82
486.635	1	80
486.805	1	78
486.975	1	85
487.146	1	85
487.316	1	73
487.486	1	74
487.656	1	91
487.827	1	72
487.997	1	86
488.167	1	66
488.338	1	86
488.508	1	87
488.678	1	76
488.848	1	74
489.019	1	88
489.189	1	67
489.359	1	78
489.529	1	75
489.700	1	70
489.870	1	73
490.040	1	77
490.211	1	83
490.381	1	88
490.551	1	69
490.721	1	70
490.892	1	72
491.062	1	64
491.232	1	77
491.402	1	79
491.573	1	66
491.743	1	69
491.913	1	72
492.084	1	67
492.254	1	79
492.424	1	81
492.594	1	72
492.765	1	72
492.935	1	70
493.105	1	71
493.275	1	72
493.446	1	67
493.616	1	72
493.786	1	58
493.956	1	65
494.127	1	70
494.297	1	66
494.467	1	65
494.637	1	65
494.808	1	68
494.978	1	63
495.148	1	53
495.318	1	68
495.489	1	61
495.659	1	74
495.829	1	65
495.999	1	71
496.170	1	62
496.340	1	72
496.510	1	67
496.680	1	64
496.851	1	63
497.021	1	59
497.191	1	58
497.361	1	70
497.532	1	65
497.702	1	64
497.872	1	55
498.042	1	57
498.213	1	51
498.383	1	56
498.553	1	71
498.723	1	68
498.894	1	64
499.064	1	60
499.234	1	52
499.404	1	58
499.574	1	64
499.745	1	54
499.915	1	61
500.085	1	44
500.255	1	53
500.426	1	60
500.596	1	60
500.766	1	56
500.936	1	55
501.106	1	49
501.277	1	57
501.447	1	53
501.617	1	60
501.787	1	49
501.958	1	57
502.128	1	57
502.298	1	42
502.468	1	46
502.638	1	59
502.809	1	56
502.979	1	59
503.149	1	64
503.319	1	43
503.489	1	49
503.660	1	44
503.830	1	55
504.000	1	53
504.170	1	62
504.340	1	61
504.511	1	54
504.681	1	50
504.851	1	62
505.021	1	40
505.192	1	49
505.362	1	53
505.532	1	54
505.702	1	51
505.872	1	39
506.043	1	48
506.213	1	50
506.383	1	55
506.553	1	47
506.723	1	45
506.893	1	35
507.064	1	52
507.234	1	44
507.404	1	40
507.574	1	53
507.744	1	50
507.915	1	52
508.085	1	53
508.255	1	61
508.425	1	32
508.595	1	43
508.766	1	60
508.936	1	45
509.106	1	47
509.276	1	50
509.446	1	51
509.616	1	40
509.787	1	51
509.957	1	24
510.127	1	40
510.297	1	42
510.467	1	51
510.638	1	44
510.808	1	53
510.978	1	38
511.148	1	42
511.318	1	42
511.488	1	46
511.659	1	39
511.829	1	44
511.999	1	40
512.169	1	52
512.339	1	32
512.509	1	38
512.680	1	44
512.850	1	42
513.020	1	41
513.190	1	46
513.360	1	42
513.530	1	36
513.700	1	37
513.871	1	44
514.041	1	28
514.211	1	43
514.381	1	43
514.551	1	40
514.721	1	46
514.892	1	42
515.062	1	41
515.232	1	30
515.402	1	51
515.572	1	30
515.742	1	35
515.912	1	41
516.083	1	48
516.253	1	29
516.423	1	46
516.593	1	39
516.763	1	48
516.933	1	35
517.104	1	41
517.274	1	32
517.444	1	37
517.614	1	30
517.784	1	40
517.954	1	28
518.124	1	45
518.294	1	39
518.465	1	36
518.635	1	39
518.805	1	41
518.975	1	28
519.145	1	40
519.315	1	33
519.485	1	34
519.656	1	25
519.826	1	34
519.996	1	39
520.166	1	36
520.336	1	40
520.506	1	24
520.676	1	32
520.846	1	36
521.017	1	49
521.187	1	36
521.357	1	34
521.527	1	33
521.697	1	41
521.867	1	17
522.037	1	27
522.207	1	40
522.377	1	36
522.548	1	27
522.718	1	42
522.888	1	31
523.058	1	39
523.228	1	29
523.398	1	43
523.568	1	31
523.738	1	38
523.909	1	39
524.079	1	33
524.249	1	31
524.419	1	26
524.589	1	40
524.759	1	46
524.929	1	45
525.099	1	31
525.269	1	31
525.439	1	27
525.610	1	50
525.780	1	37
525.950	1	35
526.120	1	42
526.290	1	41
526.460	1	42
526.630	1	35
526.800	1	44
526.970	1	29
527.140	1	12
527.311	1	33
527.481	1	22
527.651	1	38
527.821	1	34
527.991	1	44
528.161	1	31
528.331	1	28
528.501	1	24
528.671	1	26
528.841	1	30
529.011	1	24
529.181	1	32
529.352	1	35
529.522	1	38
529.692	1	32
529.862	1	29
530.032	1	32
530.202	1	20
530.372	1	36
530.542	1	22
530.712	1	29
530.882	1	32
531.052	1	41
531.222	1	41
531.392	1	36
531.563	1	28
531.733	1	27
531.903	1	40
532.073	1	30
532.243	1	30
532.413	1	27
532.583	1	38
532.753	1	39
532.923	1	22
533.093	1	33
533.263	1	27
533.433	1	28
533.603	1	33
533.773	1	24
533.943	1	36
534.113	1	22
534.284	1	30
534.454	1	33
534.624	1	21
534.794	1	21
534.964	1	32
535.134	1	38
535.304	1	29
535.474	1	23
535.644	1	23
535.814	1	37
535.984	1	34
536.154	1	26
536.324	1	37
536.494	1	25
536.664	1	23
536.834	1	37
537.004	1	30
537.174	1	26
537.344	1	34
537.514	1	21
537.685	1	33
537.855	1	31
538.025	1	39
538.195	1	28
538.365	1	22
538.535	1	19
538.705	1	30
538.875	1	38
539.045	1	28
539.215	1	26
539.385	1	24
539.555	1	34
539.725	1	27
539.895	1	18
540.065	1	29
540.235	1	30
540.405	1	33
540.575	1	29
540.745	1	32
540.915	1	20
541.085	1	33
541.255	1	29
541.425	1	34
541.595	1	21
541.765	1	23
541.935	1	31
542.105	1	31
542.275	1	24
542.445	1	32
542.615	1	32
542.785	1	28
542.955	1	32
543.125	1	20
543.295	1	22
543.465	1	19
543.635	1	29
543.805	1	27
543.975	1	11
544.145	1	30
544.315	1	20
544.485	1	29
544.655	1	29
544.825	1	29
544.995	1	41
545.165	1	27
545.335	1	32
545.505	1	32
545.675	1	18
545.845	1	23
546.015	1	24
546.185	1	30
546.355	1	30
546.525	1	34
546.695	1	35
546.865	1	21
547.035	1	26
547.205	1	37
547.375	1	19
547.545	1	23
547.715	1	28
547.885	1	16
548.055	1	28
548.225	1	41
548.395	1	29
548.565	1	33
548.735	1	30
548.905	1	24
549.075	1	25
549.245	1	21
549.415	1	26
549.585	1	15
549.755	1	34
549.925	1	31
550.095	1	19
550.265	1	24
550.435	1	31
550.605	1	19
550.775	1	32
550.945	1	32
551.115	1	9
551.285	1	24
551.455	1	27
551.625	1	24
551.795	1	19
551.965	1	31
552.135	1	29
552.305	1	26
552.475	1	34
552.645	1	32
552.815	1	22
552.985	1	39
553.155	1	28
553.325	1	12
553.495	1	32
553.665	1	23
553.835	1	25
554.004	1	27
554.174	1	24
554.344	1	29
554.514	1	25
554.684	1	15
554.854	1	24
555.024	1	28
555.194	1	27
555.364	1	23
555.534	1	22
555.704	1	31
555.874	1	16
556.044	1	5
556.214	1	28
556.384	1	17
556.554	1	22
556.724	1	24
556.894	1	15
557.064	1	35
557.234	1	25
557.404	1	21
557.573	1	25
557.743	1	26
557.913	1	33
558.083	1	20
558.253	1	21
558.423	1	18
558.593	1	32
558.763	1	34
558.933	1	12
559.103	1	26
559.273	1	28
559.443	1	18
559.613	1	29
559.783	1	22
559.953	1	11
560.122	1	16
560.292	1	28
560.462	1	28
560.632	1	23
560.802	1	31
560.972	1	19
561.142	1	22
561.312	1	27
561.482	1	14
561.652	1	17
561.822	1	26
561.992	1	23
562.162	1	21
562.331	1	37
562.501	1	34
562.671	1	27
562.841	1	16
563.011	1	34
563.181	1	25
563.351	1	28
563.521	1	14
563.691	1	25
563.861	1	15
564.031	1	23
564.201	1	25
564.370	1	12
564.540	1	27
564.710	1	25
564.880	1	28
565.050	1	11
565.220	1	21
565.390	1	31
565.560	1	24
565.730	1	22
565.900	1	28
566.069	1	23
566.239	1	26
566.409	1	24
566.579	1	6
566.749	1	9
566.919	1	21
567.089	1	18
567.259	1	22
567.429	1	32
567.599	1	21
567.768	1	26
567.938	1	25
568.108	1	22
568.278	1	37
568.448	1	29
568.618	1	29
568.788	1	19
568.958	1	22
569.128	1	25
569.297	1	20
569.467	1	17
569.637	1	27
569.807	1	32
569.977	1	14
570.147	1	23
570.317	1	14
570.487	1	18
570.656	1	18
570.826	1	4
570.996	1	13
571.166	1	25
571.336	1	15
571.506	1	27
571.676	1	23
571.846	1	24
572.015	1	12
572.185	1	19
572.355	1	24
572.525	1	14
572.695	1	14
572.865	1	34
573.035	1	20
573.205	1	20
573.374	1	24
573.544	1	27
573.714	1	29
573.884	1	24
574.054	1	27
574.224	1	11
574.394	1	27
574.563	1	8
574.733	1	27
574.903	1	12
575.073	1	17
575.243	1	36
575.413	1	4
575.583	1	35
575.752	1	21
575.922	1	18
576.092	1	22
576.262	1	21
576.432	1	17
576.602	1	32
576.772	1	23
576.941	1	20
577.111	1	32
577.281	1	25
577.451	1	32
577.621	1	26
577.791	1	22
577.960	1	22
578.130	1	8
578.300	1	33
578.470	1	13
578.640	1	24
578.810	1	17
578.979	1	15
579.149	1	11
579.319	1	14
579.489	1	13
579.659	1	23
579.829	1	16
579.998	1	14
580.168	1	21
580.338	1	22
580.508	1	28
580.678	1	16
580.848	1	8
581.017	1	18
581.187	1	17
581.357	1	19
581.527	1	17
581.697	1	13
581.867	1	24
582.036	1	12
582.206	1	23
582.376	1	26
582.546	1	16
582.716	1	32
582.885	1	14
583.055	1	15
583.225	1	18
583.395	1	21
583.565	1	25
583.735	1	36
583.904	1	28
584.074	1	21
584.244	1	15
584.414	1	34
584.584	1	22
584.753	1	4
584.923	1	20
585.093	1	31
585.263	1	15
585.433	1	20
585.602	1	35
585.772	1	17
585.942	1	18
586.112	1	17
586.282	1	29
586.451	1	26
586.621	1	23
586.791	1	22
586.961	1	18
587.131	1	25
587.300	1	21
587.470	1	14
587.640	1	25
587.810	1	19
587.980	1	26
588.149	1	36
588.319	1	21
588.489	1	20
588.659	1	29
588.829	1	25
588.998	1	37
589.168	1	22
589.338	1	15
589.508	1	26
589.677	1	20
589.847	1	8
590.017	1	28
590.187	1	6
590.357	1	21
590.526	1	24
590.696	1	32
590.866	1	7
591.036	1	30
591.205	1	22
591.375	1	17
591.545	1	28
591.715	1	6
591.885	1	33
592.054	1	19
592.224	1	15
592.394	1	23
592.564	1	33
592.733	1	24
592.903	1	31
593.073	1	30
593.243	1	25
593.412	1	28
593.582	1	20
593.752	1	32
593.922	1	29
594.091	1	15
594.261	1	17
594.431	1	24
594.601	1	19
594.771	1	14
594.940	1	42
595.110	1	36
595.280	1	34
595.450	1	31
595.619	1	31
595.789	1	25
595.959	1	20
596.129	1	33
596.298	1	36
596.468	1	30
596.638	1	23
596.808	1	30
596.977	1	27
597.147	1	33
597.317	1	33
597.487	1	23
597.656	1	22
597.826	1	33
597.996	1	26
598.166	1	27
598.335	1	31
598.505	1	38
598.675	1	35
598.844	1	29
599.014	1	31
599.184	1	23
599.354	1	42
599.523	1	24
599.693	1	28
599.863	1	35
600.033	1	27
600.202	1	25
600.372	1	27
600.542	1	27
600.712	1	22
600.881	1	33
601.051	1	31
601.221	1	35
601.390	1	35
601.560	1	34
601.730	1	32
601.900	1	33
602.069	1	32
602.239	1	22
602.409	1	37
602.578	1	31
602.748	1	26
602.918	1	30
603.088	1	31
603.257	1	36
603.427	1	29
603.597	1	28
603.767	1	39
603.936	1	34
604.106	1	34
604.276	1	24
604.445	1	26
604.615	1	38
604.785	1	40
604.954	1	33
605.124	1	44
605.294	1	40
605.464	1	40
605.633	1	41
605.803	1	34
605.973	1	35
606.142	1	35
606.312	1	42
606.482	1	28
606.652	1	37
606.821	1	30
606.991	1	43
607.161	1	51
607.330	1	49
607.500	1	44
607.670	1	40
607.839	1	33
608.009	1	31
608.179	1	44
608.348	1	32
608.518	1	44
608.688	1	30
608.858	1	48
609.027	1	56
609.197	1	34
609.367	1	38
609.536	1	35
609.706	1	45
609.876	1	42
610.045	1	49
610.215	1	49
610.385	1	45
610.554	1	48
610.724	1	41
610.894	1	49
611.063	1	41
611.233	1	31
611.403	1	55
611.572	1	54
611.742	1	46
611.912	1	37
612.081	1	37
612.251	1	41
612.421	1	46
612.590	1	29
612.760	1	52
612.930	1	37
613.099	1	45
613.269	1	43
613.439	1	46
613.608	1	43
613.778	1	44
613.948	1	36
614.117	1	50
614.287	1	41
614.457	1	53
614.626	1	50
614.796	1	44
614.966	1	49
615.135	1	52
615.305	1	55
615.475	1	55
615.644	1	49
615.814	1	48
615.984	1	47
616.153	1	46
616.323	1	41
616.493	1	51
616.662	1	48
616.832	1	36
617.002	1	58
617.171	1	53
617.341	1	52
617.511	1	45
617.680	1	46
617.850	1	54
618.019	1	49
618.189	1	51
618.359	1	53
618.528	1	46
618.698	1	51
618.868	1	50
619.037	1	46
619.207	1	58
619.377	1	55
619.546	1	46
619.716	1	54
619.885	1	55
620.055	1	50
620.225	1	54
620.394	1	48
620.564	1	60
620.734	1	61
620.903	1	70
621.073	1	60
621.242	1	67
621.412	1	48
621.582	1	71
621.751	1	54
621.921	1	55
622.091	1	58
622.260	1	49
622.430	1	60
622.599	1	49
622.769	1	56
622.939	1	60
623.108	1	59
623.278	1	56
623.448	1	59
623.617	1	64
623.787	1	67
623.956	1	61
624.126	1	69
624.296	1	60
624.465	1	65
624.635	1	54
624.804	1	65
624.974	1	55
625.144	1	62
625.313	1	57
625.483	1	67
625.652	1	57
625.822	1	61
625.992	1	66
626.161	1	59
626.331	1	70
626.501	1	54
626.670	1	71
626.840	1	64
627.009	1	60
627.179	1	81
627.348	1	67
627.518	1	57
627.688	1	68
627.857	1	65
628.027	1	64
628.196	1	60
628.366	1	75
628.536	1	66
628.705	1	72
628.875	1	61
629.044	1	61
629.214	1	58
629.384	1	61
629.553	1	77
629.723	1	59
629.892	1	56
630.062	1	64
630.232	1	70
630.401	1	65
630.571	1	64
630.740	1	66
630.910	1	68
631.079	1	76
631.249	1	62
631.419	1	73
631.588	1	55
631.758	1	68
631.927	1	81
632.097	1	72
632.266	1	56
632.436	1	78
632.606	1	65
632.775	1	67
632.945	1	65
633.114	1	69
633.284	1	70
633.453	1	72
633.623	1	73
633.793	1	72
633.962	1	69
634.132	1	68
634.301	1	64
634.471	1	70
634.640	1	65
634.810	1	75
634.979	1	64
635.149	1	79
635.319	1	85
635.488	1	77
635.658	1	74
635.827	1	79
635.997	1	80
636.166	1	76
636.336	1	67
636.505	1	81
636.675	1	77
636.845	1	80
637.014	1	75
637.184	1	77
637.353	1	81
637.523	1	74
637.692	1	72
637.862	1	76
638.031	1	75
638.201	1	79
638.370	1	88
638.540	1	81
638.710	1	69
638.879	1	83
639.049	1	70
639.218	1	75
639.388	1	83
639.557	1	63
639.727	1	82
639.896	1	79
640.066	1	74
640.235	1	67
640.405	1	75
640.574	1	82
640.744	1	69
640.914	1	69
641.083	1	80
641.253	1	77
641.422	1	84
641.592	1	70
641.761	1	81
641.931	1	76
642.100	1	79
642.270	1	71
642.439	1	90
642.609	1	90
642.778	1	74
642.948	1	72
643.117	1	76
643.287	1	81
643.456	1	80
643.626	1	68
643.795	1	78
643.965	1	69
644.134	1	82
644.304	1	64
644.473	1	74
644.643	1	67
644.812	1	78
644.982	1	75
645.151	1	82
645.321	1	90
645.490	1	69
645.660	1	83
645.829	1	81
645.999	1	86
646.168	1	84
646.338	1	65
646.507	1	78
646.677	1	75
646.846	1	81
647.016	1	83
647.185	1	82
647.355	1	93
647.524	1	67
647.694	1	85
647.863	1	77
648.033	1	82
648.202	1	87
648.372	1	79
648.541	1	74
648.711	1	78
648.880	1	79
649.050	1	75
649.219	1	73
649.389	1	84
649.558	1	73
649.728	1	75
649.897	1	84
650.067	1	74
650.236	1	74
650.406	1	84
650.575	1	75
650.745	1	69
650.914	1	83
651.084	1	75
651.253	1	86
651.423	1	85
651.592	1	80
651.762	1	84
651.931	1	82
652.101	1	79
652.270	1	66
652.440	1	87
652.609	1	74
652.778	1	79
652.948	1	70
653.117	1	77
653.287	1	72
653.456	1	73
653.626	1	78
653.795	1	84
653.965	1	85
654.134	1	81
654.304	1	69
654.473	1	81
654.643	1	83
654.812	1	86
654.982	1	82
655.151	1	68
655.320	1	80
655.490	1	66
655.659	1	81
655.829	1	79
655.998	1	79
656.168	1	69
656.337	1	74
656.507	1	72
656.676	1	86
656.846	1	85
657.015	1	74
657.184	1	73
657.354	1	85
657.523	1	72
657.693	1	73
657.862	1	81
658.032	1	75
658.201	1	76
658.371	1	79
658.540	1	80
658.709	1	73
658.879	1	86
659.048	1	67
659.218	1	68
659.387	1	72
659.557	1	76
659.726	1	72
659.895	1	64
660.065	1	72
660.234	1	67
660.404	1	69
660.573	1	65
660.743	1	57
660.912	1	70
661.081	1	63
661.251	1	87
661.420	1	72
661.590	1	65
661.759	1	70
661.929	1	80
662.098	1	78
662.267	1	77
662.437	1	69
662.606	1	67
662.776	1	64
662.945	1	66
663.115	1	73
663.284	1	64
663.453	1	75
663.623	1	70
663.792	1	70
663.962	1	70
664.131	1	74
664.300	1	60
664.470	1	76
664.639	1	65
664.809	1	86
664.978	1	69
665.148	1	72
665.317	1	60
665.486	1	63
665.656	1	88
665.825	1	73
665.995	1	56
666.164	1	66
666.333	1	68
666.503	1	69
666.672	1	55
666.842	1	64
667.011	1	86
667.180	1	64
667.350	1	70
667.519	1	65
667.689	1	58
667.858	1	67
668.027	1	75
668.197	1	67
668.366	1	56
668.536	1	77
668.705	1	77
668.874	1	77
669.044	1	66
669.213	1	76
669.382	1	70
669.552	1	59
669.721	1	67
669.891	1	72
670.060	1	56
670.229	1	59
670.399	1	71
670.568	1	60
670.738	1	66
670.907	1	60
671.076	1	69
671.246	1	56
671.415	1	56
671.584	1	58
671.754	1	52
671.923	1	72
672.093	1	69
672.262	1	81
672.431	1	47
672.601	1	69
672.770	1	67
672.939	1	63
673.109	1	54
673.278	1	64
673.448	1	52
673.617	1	51
673.786	1	49
