325.333	1	92
325.504	1	98
325.675	1	88
325.846	1	85
326.017	1	87
326.188	1	97
326.359	1	100
326.531	1	81
326.702	1	91
326.873	1	92
327.044	1	99
327.215	1	93
327.386	1	93
327.557	1	99
327.728	1	106
327.899	1	103
328.070	1	104
328.241	1	100
328.412	1	114
328.583	1	105
328.754	1	100
328.926	1	112
329.097	1	108
329.268	1	113
329.439	1	103
329.610	1	100
329.781	1	102
329.952	1	102
330.123	1	112
330.294	1	120
330.465	1	119
330.636	1	118
330.807	1	121
330.978	1	117
331.149	1	127
331.320	1	112
331.492	1	115
331.663	1	120
331.834	1	130
332.005	1	129
332.176	1	129
332.347	1	123
332.518	1	128
332.689	1	121
332.860	1	119
333.031	1	124
333.202	1	117
333.373	1	124
333.544	1	137
333.715	1	130
333.886	1	130
334.057	1	138
334.228	1	124
334.399	1	143
334.570	1	126
334.741	1	142
334.912	1	123
335.084	1	136
335.255	1	126
335.426	1	132
335.597	1	137
335.768	1	139
335.939	1	137
336.110	1	133
336.281	1	131
336.452	1	146
336.623	1	143
336.794	1	140
336.965	1	135
337.136	1	141
337.307	1	150
337.478	1	134
337.649	1	137
337.820	1	136
337.991	1	129
338.162	1	141
338.333	1	147
338.504	1	147
338.675	1	131
338.846	1	154
339.017	1	133
339.188	1	137
339.359	1	136
339.530	1	139
339.701	1	138
339.872	1	151
340.043	1	136
340.214	1	143
340.385	1	143
340.556	1	133
340.727	1	142
340.898	1	144
341.069	1	136
341.240	1	134
341.411	1	153
341.582	1	138
341.753	1	138
341.924	1	156
342.095	1	134
342.266	1	147
342.437	1	140
342.608	1	131
342.779	1	145
342.950	1	145
343.121	1	141
343.292	1	137
343.463	1	156
343.634	1	133
343.805	1	145
343.976	1	146
344.147	1	136
344.318	1	146
344.489	1	136
344.660	1	145
344.831	1	134
345.002	1	147
345.173	1	128
345.344	1	134
345.515	1	140
345.686	1	132
345.857	1	141
346.028	1	129
346.199	1	148
346.370	1	127
346.541	1	136
346.712	1	138
346.883	1	139
347.054	1	127
347.225	1	133
347.396	1	121
347.567	1	130
347.738	1	121
347.909	1	130
348.080	1	139
348.251	1	132
348.422	1	124
348.593	1	125
348.764	1	135
348.935	1	125
349.106	1	115
349.277	1	124
349.448	1	120
349.619	1	126
349.790	1	125
349.961	1	133
350.132	1	123
350.303	1	119
350.474	1	120
350.645	1	127
350.816	1	116
350.987	1	121
351.157	1	113
351.328	1	110
351.499	1	115
351.670	1	124
351.841	1	128
352.012	1	119
352.183	1	100
352.354	1	124
352.525	1	110
352.696	1	112
352.867	1	110
353.038	1	119
353.209	1	115
353.380	1	102
353.551	1	100
353.722	1	113
353.893	1	121
354.064	1	111
354.235	1	115
354.406	1	109
354.576	1	96
354.747	1	110
354.918	1	103
355.089	1	107
355.260	1	107
355.431	1	97
355.602	1	99
355.773	1	92
355.944	1	102
356.115	1	94
356.286	1	105
356.457	1	98
356.628	1	87
356.799	1	98
356.970	1	106
357.141	1	92
357.311	1	95
357.482	1	91
357.653	1	93
357.824	1	87
357.995	1	103
358.166	1	89
358.337	1	93
358.508	1	94
358.679	1	85
358.850	1	83
359.021	1	85
359.192	1	80
359.363	1	85
359.533	1	81
359.704	1	81
359.875	1	71
360.046	1	84
360.217	1	74
360.388	1	77
360.559	1	82
360.730	1	78
360.901	1	81
361.072	1	80
361.243	1	83
361.414	1	78
361.584	1	85
361.755	1	81
361.926	1	70
362.097	1	81
362.268	1	70
362.439	1	78
362.610	1	74
362.781	1	85
362.952	1	61
363.123	1	69
363.293	1	66
363.464	1	57
363.635	1	71
363.806	1	61
363.977	1	58
364.148	1	69
364.319	1	60
364.490	1	65
364.661	1	61
364.832	1	84
365.002	1	63
365.173	1	64
365.344	1	61
365.515	1	65
365.686	1	56
365.857	1	69
366.028	1	58
366.199	1	68
366.370	1	63
366.540	1	60
366.711	1	63
366.882	1	55
367.053	1	64
367.224	1	64
367.395	1	64
367.566	1	61
367.737	1	63
367.908	1	54
368.078	1	62
368.249	1	66
368.420	1	63
368.591	1	61
368.762	1	49
368.933	1	59
369.104	1	65
369.274	1	59
369.445	1	52
369.616	1	47
369.787	1	61
369.958	1	48
370.129	1	38
370.300	1	54
370.471	1	59
370.641	1	50
370.812	1	58
370.983	1	59
371.154	1	60
371.325	1	55
371.496	1	58
371.667	1	56
371.837	1	42
372.008	1	56
372.179	1	63
372.350	1	57
372.521	1	64
372.692	1	55
372.863	1	60
373.033	1	66
373.204	1	53
373.375	1	58
373.546	1	70
373.717	1	45
373.888	1	53
374.059	1	56
374.229	1	55
374.400	1	60
374.571	1	54
374.742	1	53
374.913	1	57
375.084	1	52
375.254	1	65
375.425	1	55
375.596	1	62
375.767	1	52
375.938	1	54
376.109	1	66
376.279	1	60
376.450	1	63
376.621	1	61
376.792	1	63
376.963	1	68
377.134	1	62
377.304	1	64
377.475	1	59
377.646	1	64
377.817	1	61
377.988	1	73
378.159	1	72
378.329	1	77
378.500	1	55
378.671	1	64
378.842	1	68
379.013	1	77
379.184	1	63
379.354	1	85
379.525	1	59
379.696	1	63
379.867	1	67
380.038	1	73
380.209	1	57
380.379	1	70
380.550	1	83
380.721	1	68
380.892	1	73
381.063	1	81
381.233	1	80
381.404	1	83
381.575	1	74
381.746	1	78
381.917	1	98
382.087	1	87
382.258	1	68
382.429	1	92
382.600	1	93
382.771	1	80
382.941	1	84
383.112	1	92
383.283	1	84
383.454	1	87
383.625	1	96
383.795	1	89
383.966	1	83
384.137	1	102
384.308	1	91
384.479	1	109
384.649	1	99
384.820	1	105
384.991	1	90
385.162	1	93
385.333	1	105
385.503	1	110
385.674	1	123
385.845	1	110
386.016	1	102
386.187	1	108
386.357	1	121
386.528	1	110
386.699	1	117
386.870	1	111
387.041	1	104
387.211	1	131
387.382	1	105
387.553	1	119
387.724	1	123
387.894	1	136
388.065	1	117
388.236	1	133
388.407	1	135
388.578	1	129
388.748	1	125
388.919	1	125
389.090	1	127
389.261	1	135
389.431	1	130
389.602	1	148
389.773	1	138
389.944	1	146
390.114	1	136
390.285	1	137
390.456	1	153
390.627	1	151
390.798	1	137
390.968	1	141
391.139	1	153
391.310	1	138
391.481	1	144
391.651	1	157
391.822	1	155
391.993	1	150
392.164	1	181
392.334	1	163
392.505	1	160
392.676	1	155
392.847	1	167
393.017	1	175
393.188	1	173
393.359	1	164
393.530	1	178
393.700	1	184
393.871	1	165
394.042	1	185
394.213	1	181
394.383	1	191
394.554	1	189
394.725	1	186
394.896	1	206
395.066	1	155
395.237	1	179
395.408	1	190
395.579	1	178
395.749	1	196
395.920	1	204
396.091	1	206
396.262	1	208
396.432	1	194
396.603	1	210
396.774	1	208
396.945	1	203
397.115	1	210
397.286	1	216
397.457	1	201
397.627	1	214
397.798	1	230
397.969	1	203
398.140	1	246
398.310	1	229
398.481	1	208
398.652	1	225
398.823	1	230
398.993	1	250
399.164	1	233
399.335	1	235
399.505	1	242
399.676	1	244
399.847	1	238
400.018	1	243
400.188	1	246
400.359	1	243
400.530	1	245
400.700	1	262
400.871	1	265
401.042	1	262
401.213	1	260
401.383	1	264
401.554	1	264
401.725	1	248
401.895	1	262
402.066	1	279
402.237	1	277
402.408	1	266
402.578	1	253
402.749	1	268
402.920	1	287
403.090	1	269
403.261	1	280
403.432	1	289
403.603	1	298
403.773	1	299
403.944	1	295
404.115	1	300
404.285	1	320
404.456	1	308
404.627	1	297
404.797	1	308
404.968	1	306
405.139	1	309
405.310	1	327
405.480	1	305
405.651	1	330
405.822	1	300
405.992	1	323
406.163	1	298
406.334	1	313
406.504	1	319
406.675	1	344
406.846	1	328
407.016	1	323
407.187	1	331
407.358	1	329
407.528	1	331
407.699	1	338
407.870	1	346
408.041	1	343
408.211	1	335
408.382	1	347
408.553	1	351
408.723	1	361
408.894	1	368
409.065	1	347
409.235	1	358
409.406	1	355
409.577	1	363
409.747	1	360
409.918	1	393
410.089	1	371
410.259	1	364
410.430	1	385
410.601	1	389
410.771	1	361
410.942	1	384
411.113	1	381
411.283	1	382
411.454	1	362
411.625	1	387
411.795	1	390
411.966	1	403
412.137	1	372
412.307	1	386
412.478	1	385
412.649	1	387
412.819	1	377
412.990	1	381
413.161	1	402
413.331	1	386
413.502	1	384
413.672	1	413
413.843	1	387
414.014	1	399
414.184	1	400
414.355	1	399
414.526	1	412
414.696	1	419
414.867	1	398
415.038	1	409
415.208	1	403
415.379	1	417
415.550	1	421
415.720	1	407
415.891	1	419
416.062	1	398
416.232	1	416
416.403	1	426
416.573	1	411
416.744	1	428
416.915	1	416
417.085	1	429
417.256	1	419
417.427	1	425
417.597	1	424
417.768	1	435
417.939	1	439
418.109	1	423
418.280	1	429
418.450	1	435
418.621	1	433
418.792	1	426
418.962	1	430
419.133	1	422
419.304	1	443
419.474	1	441
419.645	1	439
419.815	1	432
419.986	1	426
420.157	1	432
420.327	1	432
420.498	1	421
420.669	1	427
420.839	1	418
421.010	1	415
421.180	1	420
421.351	1	451
421.522	1	424
421.692	1	428
421.863	1	414
422.033	1	425
422.204	1	421
422.375	1	423
422.545	1	434
422.716	1	432
422.886	1	444
423.057	1	437
423.228	1	445
423.398	1	424
423.569	1	423
423.740	1	436
423.910	1	438
424.081	1	430
424.251	1	434
424.422	1	426
424.593	1	436
424.763	1	424
424.934	1	440
425.104	1	434
425.275	1	459
425.445	1	424
425.616	1	450
425.787	1	427
425.957	1	426
426.128	1	444
426.298	1	437
426.469	1	425
426.640	1	440
426.810	1	433
426.981	1	429
427.151	1	454
427.322	1	428
427.493	1	438
427.663	1	450
427.834	1	439
428.004	1	419
428.175	1	417
428.345	1	422
428.516	1	424
428.687	1	444
428.857	1	437
429.028	1	425
429.198	1	435
429.369	1	457
429.540	1	457
429.710	1	428
429.881	1	430
430.051	1	434
430.222	1	424
430.392	1	421
430.563	1	428
430.734	1	440
430.904	1	450
431.075	1	413
431.245	1	438
431.416	1	438
431.586	1	440
431.757	1	419
431.927	1	427
432.098	1	435
432.269	1	423
432.439	1	428
432.610	1	424
432.780	1	433
432.951	1	423
433.121	1	430
433.292	1	420
433.462	1	421
433.633	1	439
433.804	1	405
433.974	1	418
434.145	1	427
434.315	1	421
434.486	1	415
434.656	1	440
434.827	1	423
434.997	1	426
435.168	1	418
435.339	1	419
435.509	1	423
435.680	1	412
435.850	1	423
436.021	1	417
436.191	1	429
436.362	1	418
436.532	1	432
436.703	1	416
436.873	1	422
437.044	1	412
437.214	1	412
437.385	1	385
437.556	1	401
437.726	1	412
437.897	1	417
438.067	1	399
438.238	1	398
438.408	1	408
438.579	1	403
438.749	1	406
438.920	1	408
439.090	1	392
439.261	1	402
439.431	1	405
439.602	1	391
439.772	1	403
439.943	1	397
440.113	1	399
440.284	1	377
440.455	1	383
440.625	1	371
440.796	1	396
440.966	1	384
441.137	1	380
441.307	1	399
441.478	1	389
441.648	1	386
441.819	1	376
441.989	1	385
442.160	1	375
442.330	1	383
442.501	1	361
442.671	1	378
442.842	1	368
443.012	1	372
443.183	1	376
443.353	1	374
443.524	1	361
443.694	1	366
443.865	1	366
444.035	1	350
444.206	1	364
444.376	1	354
444.547	1	391
444.717	1	357
444.888	1	365
445.058	1	366
445.229	1	337
445.399	1	353
445.570	1	357
445.740	1	344
445.911	1	351
446.081	1	355
446.252	1	349
446.422	1	368
446.593	1	337
446.763	1	351
446.934	1	347
447.104	1	348
447.275	1	344
447.445	1	361
447.616	1	341
447.786	1	344
447.957	1	337
448.127	1	325
448.298	1	328
448.468	1	356
448.639	1	331
448.809	1	334
448.979	1	321
449.150	1	317
449.320	1	340
449.491	1	324
449.661	1	315
449.832	1	295
450.002	1	324
450.173	1	307
450.343	1	305
450.514	1	318
450.684	1	302
450.855	1	316
451.025	1	313
451.196	1	311
451.366	1	309
451.537	1	311
451.707	1	297
451.878	1	294
452.048	1	299
452.218	1	287
452.389	1	294
452.559	1	299
452.730	1	306
452.900	1	313
453.071	1	296
453.241	1	295
453.412	1	301
453.582	1	295
453.753	1	282
453.923	1	300
454.093	1	297
454.264	1	280
454.434	1	301
454.605	1	290
454.775	1	270
454.946	1	274
455.116	1	277
455.287	1	267
455.457	1	269
455.628	1	287
455.798	1	264
455.968	1	262
456.139	1	272
456.309	1	253
456.480	1	267
456.650	1	256
456.821	1	261
456.991	1	238
457.161	1	269
457.332	1	268
457.502	1	266
457.673	1	264
457.843	1	255
458.014	1	251
458.184	1	258
458.355	1	244
458.525	1	252
458.695	1	249
458.866	1	247
459.036	1	231
459.207	1	237
459.377	1	253
459.548	1	243
459.718	1	226
459.888	1	234
460.059	1	233
460.229	1	228
460.400	1	214
460.570	1	238
460.740	1	234
460.911	1	230
461.081	1	240
461.252	1	229
461.422	1	227
461.593	1	216
461.763	1	232
461.933	1	225
462.104	1	219
462.274	1	229
462.445	1	223
462.615	1	211
462.785	1	216
462.956	1	209
463.126	1	227
463.297	1	217
463.467	1	215
463.638	1	204
463.808	1	205
463.978	1	196
464.149	1	216
464.319	1	193
464.490	1	211
464.660	1	200
464.830	1	213
465.001	1	194
465.171	1	191
465.342	1	193
465.512	1	181
465.682	1	193
465.853	1	196
466.023	1	192
466.194	1	174
466.364	1	188
466.534	1	189
466.705	1	184
466.875	1	185
467.045	1	176
467.216	1	179
467.386	1	168
467.557	1	174
467.727	1	184
467.897	1	169
468.068	1	183
468.238	1	174
468.409	1	162
468.579	1	181
468.749	1	168
468.920	1	161
469.090	1	150
469.260	1	172
469.431	1	159
469.601	1	163
469.772	1	159
469.942	1	156
470.112	1	160
470.283	1	158
470.453	1	168
470.623	1	158
470.794	1	169
470.964	1	162
471.135	1	154
471.305	1	175
471.475	1	153
471.646	1	144
471.816	1	166
471.986	1	146
472.157	1	148
472.327	1	148
472.497	1	147
472.668	1	153
472.838	1	142
473.009	1	150
473.179	1	148
473.349	1	140
473.520	1	141
473.690	1	151
473.860	1	156
474.031	1	136
474.201	1	139
474.371	1	148
474.542	1	145
474.712	1	137
474.882	1	140
475.053	1	142
475.223	1	126
475.394	1	139
475.564	1	130
475.734	1	131
475.905	1	132
476.075	1	139
476.245	1	132
476.416	1	139
476.586	1	110
476.756	1	123
476.927	1	128
477.097	1	122
477.267	1	125
477.438	1	110
477.608	1	130
477.778	1	114
477.949	1	140
478.119	1	118
478.289	1	119
478.460	1	124
478.630	1	135
478.800	1	113
478.971	1	109
479.141	1	119
479.311	1	123
479.482	1	113
479.652	1	113
479.822	1	99
479.993	1	103
480.163	1	117
480.333	1	109
480.504	1	112
480.674	1	112
480.844	1	113
481.015	1	117
481.185	1	101
481.355	1	102
481.525	1	106
481.696	1	113
481.866	1	115
482.036	1	113
482.207	1	107
482.377	1	114
482.547	1	101
482.718	1	98
482.888	1	105
483.058	1	99
483.229	1	111
483.399	1	108
483.569	1	98
483.740	1	98
483.910	1	106
484.080	1	104
484.250	1	88
484.421	1	98
484.591	1	110
484.761	1	101
484.932	1	98
485.102	1	104
485.272	1	89
485.443	1	91
485.613	1	102
485.783	1	94
485.953	1	89
486.124	1	93
486.294	1	93
486.464	1	88
486.635	1	85
486.805	1	84
486.975	1	94
487.146	1	95
487.316	1	91
487.486	1	83
487.656	1	93
487.827	1	87
487.997	1	95
488.167	1	94
488.338	1	97
488.508	1	99
488.678	1	85
488.848	1	92
489.019	1	82
489.189	1	93
489.359	1	83
489.529	1	71
489.700	1	76
489.870	1	71
490.040	1	73
490.211	1	79
490.381	1	80
490.551	1	85
490.721	1	82
490.892	1	69
491.062	1	74
491.232	1	91
491.402	1	60
491.573	1	77
491.743	1	67
491.913	1	74
492.084	1	65
492.254	1	74
492.424	1	85
492.594	1	83
492.765	1	72
492.935	1	70
493.105	1	72
493.275	1	82
493.446	1	64
493.616	1	80
493.786	1	73
493.956	1	76
494.127	1	60
494.297	1	70
494.467	1	72
494.637	1	68
494.808	1	69
494.978	1	73
495.148	1	68
495.318	1	55
495.489	1	64
495.659	1	67
495.829	1	66
495.999	1	72
496.170	1	59
496.340	1	73
496.510	1	60
496.680	1	68
496.851	1	66
497.021	1	65
497.191	1	56
497.361	1	66
497.532	1	70
497.702	1	60
497.872	1	67
498.042	1	60
498.213	1	59
498.383	1	50
498.553	1	65
498.723	1	60
498.894	1	63
499.064	1	62
499.234	1	53
499.404	1	65
499.574	1	71
499.745	1	62
499.915	1	60
500.085	1	59
500.255	1	58
500.426	1	56
500.596	1	67
500.766	1	64
500.936	1	62
501.106	1	49
501.277	1	59
501.447	1	54
501.617	1	51
501.787	1	55
501.958	1	62
502.128	1	56
502.298	1	53
502.468	1	54
502.638	1	56
502.809	1	54
502.979	1	45
503.149	1	66
503.319	1	44
503.489	1	53
503.660	1	51
503.830	1	57
504.000	1	53
504.170	1	54
504.340	1	58
504.511	1	54
504.681	1	62
504.851	1	53
505.021	1	59
505.192	1	59
505.362	1	53
505.532	1	50
505.702	1	51
505.872	1	46
506.043	1	50
506.213	1	49
506.383	1	53
506.553	1	40
506.723	1	48
506.893	1	38
507.064	1	55
507.234	1	48
507.404	1	49
507.574	1	54
507.744	1	49
507.915	1	61
508.085	1	74
508.255	1	61
508.425	1	44
508.595	1	56
508.766	1	55
508.936	1	43
509.106	1	52
509.276	1	45
509.446	1	57
509.616	1	42
509.787	1	50
509.957	1	45
510.127	1	40
510.297	1	56
510.467	1	63
510.638	1	45
510.808	1	49
510.978	1	46
511.148	1	38
511.318	1	41
511.488	1	46
511.659	1	44
511.829	1	52
511.999	1	51
512.169	1	54
512.339	1	40
512.509	1	47
512.680	1	45
512.850	1	50
513.020	1	39
513.190	1	55
513.360	1	45
513.530	1	33
513.700	1	50
513.871	1	52
514.041	1	32
514.211	1	40
514.381	1	37
514.551	1	44
514.721	1	49
514.892	1	53
515.062	1	31
515.232	1	35
515.402	1	46
515.572	1	45
515.742	1	48
515.912	1	53
516.083	1	39
516.253	1	29
516.423	1	33
516.593	1	38
516.763	1	49
516.933	1	50
517.104	1	40
517.274	1	36
517.444	1	47
517.614	1	37
517.784	1	42
517.954	1	29
518.124	1	49
518.294	1	29
518.465	1	44
518.635	1	44
518.805	1	40
518.975	1	35
519.145	1	42
519.315	1	40
519.485	1	39
519.656	1	47
519.826	1	32
519.996	1	26
520.166	1	45
520.336	1	38
520.506	1	27
520.676	1	31
520.846	1	32
521.017	1	38
521.187	1	44
521.357	1	46
521.527	1	31
521.697	1	43
521.867	1	27
522.037	1	27
522.207	1	45
522.377	1	40
522.548	1	31
522.718	1	20
522.888	1	39
523.058	1	48
523.228	1	40
523.398	1	38
523.568	1	34
523.738	1	36
523.909	1	38
524.079	1	41
524.249	1	37
524.419	1	30
524.589	1	26
524.759	1	40
524.929	1	34
525.099	1	29
525.269	1	35
525.439	1	25
525.610	1	43
525.780	1	30
525.950	1	36
526.120	1	27
526.290	1	29
526.460	1	33
526.630	1	39
526.800	1	40
526.970	1	34
527.140	1	28
527.311	1	31
527.481	1	18
527.651	1	43
527.821	1	36
527.991	1	41
528.161	1	33
528.331	1	35
528.501	1	24
528.671	1	25
528.841	1	30
529.011	1	38
529.181	1	33
529.352	1	26
529.522	1	34
529.692	1	33
529.862	1	37
530.032	1	37
530.202	1	27
530.372	1	40
530.542	1	34
530.712	1	25
530.882	1	35
531.052	1	41
531.222	1	31
531.392	1	35
531.563	1	26
531.733	1	24
531.903	1	36
532.073	1	30
532.243	1	37
532.413	1	35
532.583	1	33
532.753	1	34
532.923	1	23
533.093	1	36
533.263	1	29
533.433	1	39
533.603	1	26
533.773	1	28
533.943	1	30
534.113	1	36
534.284	1	23
534.454	1	35
534.624	1	34
534.794	1	33
534.964	1	34
535.134	1	31
535.304	1	28
535.474	1	37
535.644	1	23
535.814	1	35
535.984	1	35
536.154	1	18
536.324	1	28
536.494	1	19
536.664	1	24
536.834	1	30
537.004	1	37
537.174	1	30
537.344	1	34
537.514	1	24
537.685	1	33
537.855	1	30
538.025	1	31
538.195	1	25
538.365	1	31
538.535	1	19
538.705	1	33
538.875	1	23
539.045	1	18
539.215	1	37
539.385	1	33
539.555	1	38
539.725	1	24
539.895	1	16
540.065	1	21
540.235	1	24
540.405	1	30
540.575	1	26
540.745	1	40
540.915	1	38
541.085	1	34
541.255	1	28
541.425	1	33
541.595	1	23
541.765	1	20
541.935	1	23
542.105	1	31
542.275	1	32
542.445	1	36
542.615	1	20
542.785	1	28
542.955	1	33
543.125	1	23
543.295	1	29
543.465	1	24
543.635	1	23
543.805	1	28
543.975	1	24
544.145	1	27
544.315	1	24
544.485	1	29
544.655	1	34
544.825	1	36
544.995	1	33
545.165	1	28
545.335	1	22
545.505	1	29
545.675	1	26
545.845	1	29
546.015	1	31
546.185	1	29
546.355	1	47
546.525	1	35
546.695	1	26
546.865	1	40
547.035	1	17
547.205	1	33
547.375	1	30
547.545	1	18
547.715	1	42
547.885	1	18
548.055	1	21
548.225	1	42
548.395	1	24
548.565	1	29
548.735	1	27
548.905	1	26
549.075	1	23
549.245	1	21
549.415	1	28
549.585	1	24
549.755	1	32
549.925	1	29
550.095	1	26
550.265	1	22
550.435	1	23
550.605	1	24
550.775	1	29
550.945	1	37
551.115	1	24
551.285	1	26
551.455	1	25
551.625	1	35
551.795	1	8
551.965	1	22
552.135	1	23
552.305	1	24
552.475	1	33
552.645	1	29
552.815	1	38
552.985	1	33
553.155	1	33
553.325	1	29
553.495	1	29
553.665	1	21
553.835	1	26
554.004	1	17
554.174	1	31
554.344	1	25
554.514	1	26
554.684	1	18
554.854	1	24
555.024	1	33
555.194	1	24
555.364	1	21
555.534	1	37
555.704	1	40
555.874	1	21
556.044	1	18
556.214	1	31
556.384	1	26
556.554	1	29
556.724	1	25
556.894	1	22
557.064	1	27
557.234	1	23
557.404	1	26
557.573	1	42
557.743	1	30
557.913	1	38
558.083	1	19
558.253	1	27
558.423	1	21
558.593	1	27
558.763	1	27
558.933	1	23
559.103	1	35
559.273	1	23
559.443	1	17
559.613	1	26
559.783	1	25
559.953	1	22
560.122	1	21
560.292	1	22
560.462	1	20
560.632	1	27
560.802	1	36
560.972	1	26
561.142	1	26
561.312	1	24
561.482	1	28
561.652	1	11
561.822	1	32
561.992	1	23
562.162	1	9
562.331	1	34
562.501	1	29
562.671	1	16
562.841	1	20
563.011	1	39
563.181	1	27
563.351	1	33
563.521	1	21
563.691	1	17
563.861	1	29
564.031	1	27
564.201	1	19
564.370	1	23
564.540	1	26
564.710	1	16
564.880	1	33
565.050	1	18
565.220	1	37
565.390	1	21
565.560	1	9
565.730	1	24
565.900	1	11
566.069	1	15
566.239	1	29
566.409	1	15
566.579	1	6
566.749	1	19
566.919	1	17
567.089	1	21
567.259	1	29
567.429	1	22
567.599	1	21
567.768	1	30
567.938	1	19
568.108	1	15
568.278	1	19
568.448	1	18
568.618	1	17
568.788	1	14
568.958	1	11
569.128	1	27
569.297	1	32
569.467	1	29
569.637	1	21
569.807	1	33
569.977	1	16
570.147	1	30
570.317	1	21
570.487	1	27
570.656	1	21
570.826	1	19
570.996	1	16
571.166	1	22
571.336	1	17
571.506	1	8
571.676	1	27
571.846	1	17
572.015	1	14
572.185	1	25
572.355	1	24
572.525	1	20
572.695	1	19
572.865	1	24
573.035	1	14
573.205	1	13
573.374	1	9
573.544	1	24
573.714	1	12
573.884	1	21
574.054	1	35
574.224	1	20
574.394	1	9
574.563	1	22
574.733	1	22
574.903	1	17
575.073	1	17
575.243	1	20
575.413	1	13
575.583	1	29
575.752	1	17
575.922	1	33
576.092	1	23
576.262	1	23
576.432	1	24
576.602	1	28
576.772	1	13
576.941	1	29
577.111	1	24
577.281	1	28
577.451	1	25
577.621	1	22
577.791	1	15
577.960	1	16
578.130	1	16
578.300	1	26
578.470	1	13
578.640	1	31
578.810	1	18
578.979	1	9
579.149	1	35
579.319	1	27
579.489	1	17
579.659	1	19
579.829	1	21
579.998	1	14
580.168	1	18
580.338	1	31
580.508	1	25
580.678	1	19
580.848	1	25
581.017	1	15
581.187	1	28
581.357	1	16
581.527	1	10
581.697	1	15
581.867	1	16
582.036	1	9
582.206	1	27
582.376	1	14
582.546	1	17
582.716	1	29
582.885	1	25
583.055	1	21
583.225	1	14
583.395	1	23
583.565	1	12
583.735	1	17
583.904	1	25
584.074	1	30
584.244	1	12
584.414	1	40
584.584	1	30
584.753	1	4
584.923	1	18
585.093	1	21
585.263	1	13
585.433	1	18
585.602	1	26
585.772	1	29
585.942	1	29
586.112	1	20
586.282	1	37
586.451	1	37
586.621	1	26
586.791	1	34
586.961	1	25
587.131	1	22
587.300	1	25
587.470	1	13
587.640	1	14
587.810	1	21
587.980	1	29
588.149	1	26
588.319	1	17
588.489	1	16
588.659	1	20
588.829	1	28
588.998	1	25
589.168	1	24
589.338	1	27
589.508	1	10
589.677	1	25
589.847	1	17
590.017	1	15
590.187	1	19
590.357	1	30
590.526	1	10
590.696	1	23
590.866	1	8
591.036	1	31
591.205	1	29
591.375	1	12
591.545	1	19
591.715	1	23
591.885	1	13
592.054	1	16
592.224	1	30
592.394	1	14
592.564	1	23
592.733	1	21
592.903	1	29
593.073	1	25
593.243	1	28
593.412	1	29
593.582	1	12
593.752	1	28
593.922	1	40
594.091	1	14
594.261	1	22
594.431	1	22
594.601	1	19
594.771	1	20
594.940	1	27
595.110	1	35
595.280	1	38
595.450	1	37
595.619	1	25
595.789	1	30
595.959	1	19
596.129	1	26
596.298	1	28
596.468	1	40
596.638	1	26
596.808	1	25
596.977	1	33
597.147	1	34
597.317	1	33
597.487	1	17
597.656	1	17
597.826	1	35
597.996	1	19
598.166	1	32
598.335	1	25
598.505	1	29
598.675	1	31
598.844	1	39
599.014	1	26
599.184	1	26
599.354	1	44
599.523	1	33
599.693	1	37
599.863	1	32
600.033	1	22
600.202	1	35
600.372	1	35
600.542	1	41
600.712	1	35
600.881	1	40
601.051	1	33
601.221	1	42
601.390	1	27
601.560	1	28
601.730	1	22
601.900	1	35
602.069	1	35
602.239	1	26
602.409	1	35
602.578	1	39
602.748	1	29
602.918	1	29
603.088	1	29
603.257	1	40
603.427	1	28
603.597	1	37
603.767	1	33
603.936	1	45
604.106	1	37
604.276	1	34
604.445	1	22
604.615	1	40
604.785	1	42
604.954	1	37
605.124	1	35
605.294	1	30
605.464	1	41
605.633	1	40
605.803	1	43
605.973	1	36
606.142	1	38
606.312	1	41
606.482	1	26
606.652	1	34
606.821	1	38
606.991	1	34
607.161	1	49
607.330	1	43
607.500	1	42
607.670	1	46
607.839	1	31
608.009	1	30
608.179	1	34
608.348	1	43
608.518	1	45
608.688	1	32
608.858	1	47
609.027	1	48
609.197	1	49
609.367	1	42
609.536	1	53
609.706	1	41
609.876	1	48
610.045	1	50
610.215	1	49
610.385	1	49
610.554	1	55
610.724	1	45
610.894	1	53
611.063	1	53
611.233	1	30
611.403	1	54
611.572	1	42
611.742	1	47
611.912	1	42
612.081	1	43
612.251	1	49
612.421	1	51
612.590	1	41
612.760	1	50
612.930	1	44
613.099	1	52
613.269	1	40
613.439	1	52
613.608	1	47
613.778	1	44
613.948	1	43
614.117	1	52
614.287	1	35
614.457	1	52
614.626	1	51
614.796	1	47
614.966	1	39
615.135	1	61
615.305	1	54
615.475	1	57
615.644	1	46
615.814	1	53
615.984	1	44
616.153	1	50
616.323	1	51
616.493	1	48
616.662	1	58
616.832	1	50
617.002	1	67
617.171	1	46
617.341	1	53
617.511	1	54
617.680	1	45
617.850	1	63
618.019	1	52
618.189	1	57
618.359	1	56
618.528	1	49
618.698	1	78
618.868	1	57
619.037	1	54
619.207	1	71
619.377	1	57
619.546	1	53
619.716	1	54
619.885	1	67
620.055	1	58
620.225	1	60
620.394	1	62
620.564	1	71
620.734	1	59
620.903	1	73
621.073	1	59
621.242	1	71
621.412	1	59
621.582	1	70
621.751	1	62
621.921	1	61
622.091	1	65
622.260	1	60
622.430	1	58
622.599	1	68
622.769	1	67
622.939	1	64
623.108	1	64
623.278	1	57
623.448	1	66
623.617	1	67
623.787	1	69
623.956	1	58
624.126	1	65
624.296	1	61
624.465	1	74
624.635	1	57
624.804	1	70
624.974	1	65
625.144	1	66
625.313	1	60
625.483	1	73
625.652	1	76
625.822	1	78
625.992	1	84
626.161	1	69
626.331	1	80
626.501	1	61
626.670	1	84
626.840	1	62
627.009	1	65
627.179	1	82
627.348	1	85
627.518	1	65
627.688	1	64
627.857	1	58
628.027	1	82
628.196	1	80
628.366	1	74
628.536	1	79
628.705	1	81
628.875	1	68
629.044	1	77
629.214	1	75
629.384	1	79
629.553	1	67
629.723	1	78
629.892	1	83
630.062	1	78
630.232	1	73
630.401	1	78
630.571	1	81
630.740	1	69
630.910	1	81
631.079	1	87
631.249	1	78
631.419	1	67
631.588	1	69
631.758	1	69
631.927	1	82
632.097	1	73
632.266	1	67
632.436	1	82
632.606	1	94
632.775	1	80
632.945	1	75
633.114	1	87
633.284	1	79
633.453	1	83
633.623	1	86
633.793	1	73
633.962	1	84
634.132	1	71
634.301	1	85
634.471	1	71
634.640	1	84
634.810	1	84
634.979	1	74
635.149	1	77
635.319	1	89
635.488	1	92
635.658	1	79
635.827	1	74
635.997	1	89
636.166	1	74
636.336	1	82
636.505	1	78
636.675	1	80
636.845	1	76
637.014	1	84
637.184	1	85
637.353	1	94
637.523	1	85
637.692	1	98
637.862	1	92
638.031	1	93
638.201	1	87
638.370	1	80
638.540	1	77
638.710	1	88
638.879	1	86
639.049	1	94
639.218	1	86
639.388	1	94
639.557	1	85
639.727	1	87
639.896	1	87
640.066	1	86
640.235	1	83
640.405	1	89
640.574	1	93
640.744	1	84
640.914	1	82
641.083	1	99
641.253	1	95
641.422	1	95
641.592	1	82
641.761	1	92
641.931	1	87
642.100	1	82
642.270	1	86
642.439	1	97
642.609	1	90
642.778	1	104
642.948	1	81
643.117	1	94
643.287	1	91
643.456	1	87
643.626	1	98
643.795	1	92
643.965	1	87
644.134	1	92
644.304	1	90
644.473	1	96
644.643	1	85
644.812	1	81
644.982	1	77
645.151	1	78
645.321	1	99
645.490	1	79
645.660	1	98
645.829	1	101
645.999	1	85
646.168	1	87
646.338	1	82
646.507	1	91
646.677	1	88
646.846	1	87
647.016	1	90
647.185	1	86
647.355	1	102
647.524	1	94
647.694	1	97
647.863	1	89
648.033	1	87
648.202	1	94
648.372	1	86
648.541	1	85
648.711	1	82
648.880	1	92
649.050	1	94
649.219	1	79
649.389	1	107
649.558	1	90
649.728	1	91
649.897	1	95
650.067	1	84
650.236	1	93
650.406	1	77
650.575	1	91
650.745	1	102
650.914	1	95
651.084	1	87
651.253	1	96
651.423	1	98
651.592	1	95
651.762	1	84
651.931	1	95
652.101	1	85
652.270	1	85
652.440	1	93
652.609	1	107
652.778	1	101
652.948	1	83
653.117	1	98
653.287	1	81
653.456	1	82
653.626	1	84
653.795	1	93
653.965	1	101
654.134	1	88
654.304	1	81
654.473	1	81
654.643	1	100
654.812	1	82
654.982	1	92
655.151	1	86
655.320	1	92
655.490	1	84
655.659	1	90
655.829	1	87
655.998	1	69
656.168	1	82
656.337	1	83
656.507	1	79
656.676	1	84
656.846	1	100
657.015	1	98
657.184	1	90
657.354	1	81
657.523	1	86
657.693	1	84
657.862	1	73
658.032	1	86
658.201	1	79
658.371	1	94
658.540	1	97
658.709	1	92
658.879	1	99
659.048	1	83
659.218	1	88
659.387	1	83
659.557	1	73
659.726	1	85
659.895	1	87
660.065	1	91
660.234	1	72
660.404	1	86
660.573	1	78
660.743	1	86
660.912	1	68
661.081	1	62
661.251	1	93
661.420	1	87
661.590	1	74
661.759	1	73
661.929	1	75
662.098	1	75
662.267	1	68
662.437	1	76
662.606	1	77
662.776	1	86
662.945	1	68
663.115	1	79
663.284	1	85
663.453	1	80
663.623	1	74
663.792	1	80
663.962	1	73
664.131	1	74
664.300	1	78
664.470	1	77
664.639	1	86
664.809	1	87
664.978	1	91
665.148	1	70
665.317	1	72
665.486	1	67
665.656	1	89
665.825	1	78
665.995	1	63
666.164	1	77
666.333	1	80
666.503	1	88
666.672	1	67
666.842	1	68
667.011	1	76
667.180	1	70
667.350	1	75
667.519	1	72
667.689	1	79
667.858	1	70
668.027	1	78
668.197	1	81
668.366	1	79
668.536	1	82
668.705	1	62
668.874	1	67
669.044	1	56
669.213	1	81
669.382	1	78
669.552	1	70
669.721	1	72
669.891	1	77
670.060	1	69
670.229	1	73
670.399	1	84
670.568	1	69
670.738	1	71
670.907	1	76
671.076	1	70
671.246	1	76
671.415	1	64
671.584	1	69
671.754	1	74
671.923	1	76
672.093	1	69
672.262	1	74
672.431	1	72
672.601	1	71
672.770	1	68
672.939	1	71
673.109	1	52
673.278	1	62
673.448	1	62
673.617	1	59
673.786	1	60
