325.333	1	186
325.504	1	172
325.675	1	190
325.846	1	194
326.017	1	197
326.188	1	191
326.359	1	193
326.531	1	189
326.702	1	185
326.873	1	200
327.044	1	206
327.215	1	205
327.386	1	191
327.557	1	208
327.728	1	206
327.899	1	213
328.070	1	216
328.241	1	223
328.412	1	219
328.583	1	211
328.754	1	235
328.926	1	212
329.097	1	226
329.268	1	228
329.439	1	243
329.610	1	234
329.781	1	228
329.952	1	238
330.123	1	222
330.294	1	251
330.465	1	240
330.636	1	250
330.807	1	239
330.978	1	247
331.149	1	240
331.320	1	266
331.492	1	256
331.663	1	244
331.834	1	257
332.005	1	265
332.176	1	273
332.347	1	249
332.518	1	268
332.689	1	264
332.860	1	274
333.031	1	260
333.202	1	264
333.373	1	283
333.544	1	281
333.715	1	268
333.886	1	284
334.057	1	287
334.228	1	270
334.399	1	311
334.570	1	277
334.741	1	292
334.912	1	277
335.084	1	304
335.255	1	289
335.426	1	290
335.597	1	292
335.768	1	289
335.939	1	291
336.110	1	304
336.281	1	300
336.452	1	303
336.623	1	313
336.794	1	288
336.965	1	304
337.136	1	305
337.307	1	306
337.478	1	299
337.649	1	304
337.820	1	312
337.991	1	316
338.162	1	297
338.333	1	305
338.504	1	308
338.675	1	301
338.846	1	308
339.017	1	301
339.188	1	311
339.359	1	316
339.530	1	295
339.701	1	315
339.872	1	318
340.043	1	301
340.214	1	309
340.385	1	298
340.556	1	325
340.727	1	327
340.898	1	312
341.069	1	303
341.240	1	305
341.411	1	307
341.582	1	321
341.753	1	298
341.924	1	310
342.095	1	293
342.266	1	304
342.437	1	317
342.608	1	309
342.779	1	314
342.950	1	305
343.121	1	306
343.292	1	312
343.463	1	316
343.634	1	308
343.805	1	298
343.976	1	303
344.147	1	302
344.318	1	294
344.489	1	290
344.660	1	293
344.831	1	311
345.002	1	315
345.173	1	307
345.344	1	287
345.515	1	284
345.686	1	299
345.857	1	291
346.028	1	298
346.199	1	303
346.370	1	292
346.541	1	285
346.712	1	305
346.883	1	280
347.054	1	296
347.225	1	289
347.396	1	288
347.567	1	287
347.738	1	284
347.909	1	293
348.080	1	296
348.251	1	274
348.422	1	283
348.593	1	270
348.764	1	276
348.935	1	271
349.106	1	266
349.277	1	262
349.448	1	251
349.619	1	258
349.790	1	270
349.961	1	270
350.132	1	264
350.303	1	265
350.474	1	265
350.645	1	255
350.816	1	232
350.987	1	244
351.157	1	253
351.328	1	249
351.499	1	248
351.670	1	254
351.841	1	265
352.012	1	240
352.183	1	240
352.354	1	243
352.525	1	243
352.696	1	246
352.867	1	225
353.038	1	243
353.209	1	238
353.380	1	229
353.551	1	235
353.722	1	232
353.893	1	224
354.064	1	212
354.235	1	222
354.406	1	228
354.576	1	224
354.747	1	224
354.918	1	216
355.089	1	212
355.260	1	218
355.431	1	219
355.602	1	218
355.773	1	205
355.944	1	198
356.115	1	212
356.286	1	202
356.457	1	214
356.628	1	205
356.799	1	201
356.970	1	194
357.141	1	205
357.311	1	201
357.482	1	188
357.653	1	188
357.824	1	188
357.995	1	199
358.166	1	184
358.337	1	181
358.508	1	190
358.679	1	161
358.850	1	173
359.021	1	181
359.192	1	172
359.363	1	167
359.533	1	175
359.704	1	169
359.875	1	156
360.046	1	160
360.217	1	168
360.388	1	173
360.559	1	173
360.730	1	165
360.901	1	153
361.072	1	140
361.243	1	150
361.414	1	151
361.584	1	151
361.755	1	152
361.926	1	142
362.097	1	157
362.268	1	143
362.439	1	150
362.610	1	144
362.781	1	146
362.952	1	123
363.123	1	128
363.293	1	137
363.464	1	127
363.635	1	136
363.806	1	141
363.977	1	130
364.148	1	114
364.319	1	132
364.490	1	119
364.661	1	121
364.832	1	120
365.002	1	117
365.173	1	128
365.344	1	113
365.515	1	119
365.686	1	107
365.857	1	113
366.028	1	102
366.199	1	117
366.370	1	108
366.540	1	113
366.711	1	105
366.882	1	100
367.053	1	100
367.224	1	102
367.395	1	108
367.566	1	90
367.737	1	93
367.908	1	104
368.078	1	97
368.249	1	105
368.420	1	109
368.591	1	98
368.762	1	88
368.933	1	100
369.104	1	97
369.274	1	98
369.445	1	97
369.616	1	80
369.787	1	95
369.958	1	81
370.129	1	92
370.300	1	89
370.471	1	106
370.641	1	74
370.812	1	95
370.983	1	92
371.154	1	95
371.325	1	90
371.496	1	89
371.667	1	81
371.837	1	85
372.008	1	87
372.179	1	87
372.350	1	85
372.521	1	84
372.692	1	76
372.863	1	88
373.033	1	88
373.204	1	84
373.375	1	84
373.546	1	84
373.717	1	77
373.888	1	87
374.059	1	80
374.229	1	76
374.400	1	89
374.571	1	78
374.742	1	74
374.913	1	80
375.084	1	80
375.254	1	86
375.425	1	86
375.596	1	88
375.767	1	84
375.938	1	90
376.109	1	72
376.279	1	85
376.450	1	77
376.621	1	73
376.792	1	85
376.963	1	97
377.134	1	85
377.304	1	93
377.475	1	78
377.646	1	87
377.817	1	84
377.988	1	80
378.159	1	86
378.329	1	98
378.500	1	78
378.671	1	100
378.842	1	92
379.013	1	89
379.184	1	89
379.354	1	98
379.525	1	80
379.696	1	88
379.867	1	100
380.038	1	88
380.209	1	86
380.379	1	96
380.550	1	97
380.721	1	88
380.892	1	92
381.063	1	99
381.233	1	92
381.404	1	110
381.575	1	101
381.746	1	108
381.917	1	106
382.087	1	96
382.258	1	98
382.429	1	105
382.600	1	101
382.771	1	106
382.941	1	116
383.112	1	112
383.283	1	109
383.454	1	111
383.625	1	116
383.795	1	110
383.966	1	97
384.137	1	114
384.308	1	113
384.479	1	121
384.649	1	123
384.820	1	124
384.991	1	110
385.162	1	116
385.333	1	124
385.503	1	119
385.674	1	136
385.845	1	121
386.016	1	132
386.187	1	131
386.357	1	132
386.528	1	129
386.699	1	141
386.870	1	129
387.041	1	115
387.211	1	143
387.382	1	131
387.553	1	140
387.724	1	131
387.894	1	145
388.065	1	143
388.236	1	135
388.407	1	157
388.578	1	145
388.748	1	144
388.919	1	137
389.090	1	146
389.261	1	154
389.431	1	147
389.602	1	165
389.773	1	165
389.944	1	161
390.114	1	174
390.285	1	153
390.456	1	177
390.627	1	174
390.798	1	166
390.968	1	155
391.139	1	173
391.310	1	179
391.481	1	172
391.651	1	175
391.822	1	177
391.993	1	174
392.164	1	186
392.334	1	168
392.505	1	186
392.676	1	179
392.847	1	200
393.017	1	188
393.188	1	184
393.359	1	203
393.530	1	203
393.700	1	210
393.871	1	214
394.042	1	191
394.213	1	208
394.383	1	199
394.554	1	210
394.725	1	206
394.896	1	218
395.066	1	205
395.237	1	195
395.408	1	215
395.579	1	213
395.749	1	216
395.920	1	241
396.091	1	225
396.262	1	219
396.432	1	216
396.603	1	240
396.774	1	239
396.945	1	222
397.115	1	245
397.286	1	223
397.457	1	238
397.627	1	242
397.798	1	242
397.969	1	250
398.140	1	259
398.310	1	273
398.481	1	248
398.652	1	247
398.823	1	261
398.993	1	255
399.164	1	282
399.335	1	256
399.505	1	263
399.676	1	279
399.847	1	274
400.018	1	277
400.188	1	290
400.359	1	264
400.530	1	280
400.700	1	302
400.871	1	294
401.042	1	284
401.213	1	293
401.383	1	301
401.554	1	312
401.725	1	305
401.895	1	304
402.066	1	299
402.237	1	304
402.408	1	317
402.578	1	320
402.749	1	317
402.920	1	330
403.090	1	314
403.261	1	315
403.432	1	319
403.603	1	333
403.773	1	334
403.944	1	339
404.115	1	323
404.285	1	341
404.456	1	334
404.627	1	334
404.797	1	336
404.968	1	340
405.139	1	345
405.310	1	355
405.480	1	355
405.651	1	369
405.822	1	342
405.992	1	344
406.163	1	369
406.334	1	356
406.504	1	358
406.675	1	379
406.846	1	367
407.016	1	384
407.187	1	363
407.358	1	368
407.528	1	366
407.699	1	383
407.870	1	380
408.041	1	388
408.211	1	377
408.382	1	384
408.553	1	388
408.723	1	385
408.894	1	409
409.065	1	383
409.235	1	393
409.406	1	414
409.577	1	410
409.747	1	394
409.918	1	425
410.089	1	412
410.259	1	417
410.430	1	424
410.601	1	414
410.771	1	413
410.942	1	422
411.113	1	428
411.283	1	427
411.454	1	394
411.625	1	430
411.795	1	405
411.966	1	429
412.137	1	416
412.307	1	420
412.478	1	435
412.649	1	436
412.819	1	427
412.990	1	422
413.161	1	434
413.331	1	427
413.502	1	434
413.672	1	439
413.843	1	446
414.014	1	431
414.184	1	466
414.355	1	454
414.526	1	436
414.696	1	472
414.867	1	455
415.038	1	467
415.208	1	457
415.379	1	448
415.550	1	481
415.720	1	463
415.891	1	467
416.062	1	458
416.232	1	444
416.403	1	470
416.573	1	465
416.744	1	469
416.915	1	479
417.085	1	490
417.256	1	465
417.427	1	482
417.597	1	495
417.768	1	474
417.939	1	489
418.109	1	455
418.280	1	485
418.450	1	488
418.621	1	481
418.792	1	461
418.962	1	485
419.133	1	476
419.304	1	476
419.474	1	499
419.645	1	497
419.815	1	472
419.986	1	483
420.157	1	478
420.327	1	478
420.498	1	490
420.669	1	494
420.839	1	477
421.010	1	491
421.180	1	449
421.351	1	476
421.522	1	484
421.692	1	483
421.863	1	497
422.033	1	493
422.204	1	488
422.375	1	500
422.545	1	496
422.716	1	495
422.886	1	496
423.057	1	493
423.228	1	502
423.398	1	483
423.569	1	479
423.740	1	467
423.910	1	498
424.081	1	463
424.251	1	492
424.422	1	464
424.593	1	478
424.763	1	476
424.934	1	493
425.104	1	499
425.275	1	489
425.445	1	486
425.616	1	496
425.787	1	499
425.957	1	478
426.128	1	483
426.298	1	512
426.469	1	478
426.640	1	489
426.810	1	489
426.981	1	480
427.151	1	490
427.322	1	497
427.493	1	498
427.663	1	494
427.834	1	493
428.004	1	491
428.175	1	488
428.345	1	493
428.516	1	497
428.687	1	479
428.857	1	491
429.028	1	472
429.198	1	492
429.369	1	490
429.540	1	495
429.710	1	480
429.881	1	482
430.051	1	485
430.222	1	514
430.392	1	486
430.563	1	471
430.734	1	479
430.904	1	489
431.075	1	490
431.245	1	489
431.416	1	483
431.586	1	488
431.757	1	470
431.927	1	498
432.098	1	498
432.269	1	487
432.439	1	494
432.610	1	482
432.780	1	475
432.951	1	481
433.121	1	488
433.292	1	472
433.462	1	466
433.633	1	476
433.804	1	465
433.974	1	488
434.145	1	493
434.315	1	465
434.486	1	481
434.656	1	481
434.827	1	463
434.997	1	481
435.168	1	479
435.339	1	502
435.509	1	484
435.680	1	467
435.850	1	475
436.021	1	476
436.191	1	462
436.362	1	479
436.532	1	478
436.703	1	479
436.873	1	458
437.044	1	465
437.214	1	478
437.385	1	463
437.556	1	475
437.726	1	438
437.897	1	451
438.067	1	457
438.238	1	456
438.408	1	454
438.579	1	442
438.749	1	450
438.920	1	463
439.090	1	439
439.261	1	456
439.431	1	457
439.602	1	437
439.772	1	472
439.943	1	443
440.113	1	462
440.284	1	444
440.455	1	433
440.625	1	430
440.796	1	458
440.966	1	440
441.137	1	436
441.307	1	434
441.478	1	435
441.648	1	417
441.819	1	437
441.989	1	429
442.160	1	432
442.330	1	408
442.501	1	422
442.671	1	424
442.842	1	404
443.012	1	407
443.183	1	427
443.353	1	420
443.524	1	417
443.694	1	393
443.865	1	406
444.035	1	413
444.206	1	387
444.376	1	385
444.547	1	416
444.717	1	396
444.888	1	404
445.058	1	413
445.229	1	395
445.399	1	402
445.570	1	388
445.740	1	401
445.911	1	395
446.081	1	397
446.252	1	365
446.422	1	395
446.593	1	393
446.763	1	383
446.934	1	383
447.104	1	386
447.275	1	368
447.445	1	375
447.616	1	380
447.786	1	353
447.957	1	371
448.127	1	371
448.298	1	382
448.468	1	379
448.639	1	378
448.809	1	363
448.979	1	367
449.150	1	355
449.320	1	369
449.491	1	360
449.661	1	363
449.832	1	374
450.002	1	360
450.173	1	348
450.343	1	348
450.514	1	364
450.684	1	353
450.855	1	330
451.025	1	361
451.196	1	355
451.366	1	346
451.537	1	345
451.707	1	335
451.878	1	325
452.048	1	355
452.218	1	344
452.389	1	334
452.559	1	336
452.730	1	336
452.900	1	340
453.071	1	333
453.241	1	323
453.412	1	322
453.582	1	342
453.753	1	325
453.923	1	324
454.093	1	340
454.264	1	317
454.434	1	314
454.605	1	301
454.775	1	308
454.946	1	323
455.116	1	332
455.287	1	317
455.457	1	308
455.628	1	312
455.798	1	310
455.968	1	308
456.139	1	295
456.309	1	302
456.480	1	300
456.650	1	291
456.821	1	283
456.991	1	270
457.161	1	293
457.332	1	298
457.502	1	279
457.673	1	287
457.843	1	292
458.014	1	284
458.184	1	288
458.355	1	279
458.525	1	282
458.695	1	272
458.866	1	281
459.036	1	275
459.207	1	255
459.377	1	267
459.548	1	263
459.718	1	254
459.888	1	260
460.059	1	250
460.229	1	251
460.400	1	232
460.570	1	242
460.740	1	242
460.911	1	260
461.081	1	260
461.252	1	251
461.422	1	268
461.593	1	243
461.763	1	258
461.933	1	261
462.104	1	245
462.274	1	239
462.445	1	231
462.615	1	236
462.785	1	234
462.956	1	224
463.126	1	233
463.297	1	242
463.467	1	240
463.638	1	222
463.808	1	219
463.978	1	220
464.149	1	228
464.319	1	200
464.490	1	230
464.660	1	209
464.830	1	237
465.001	1	217
465.171	1	236
465.342	1	223
465.512	1	215
465.682	1	210
465.853	1	206
466.023	1	212
466.194	1	193
466.364	1	196
466.534	1	216
466.705	1	193
466.875	1	196
467.045	1	186
467.216	1	197
467.386	1	197
467.557	1	199
467.727	1	201
467.897	1	188
468.068	1	194
468.238	1	187
468.409	1	182
468.579	1	202
468.749	1	194
468.920	1	194
469.090	1	177
469.260	1	192
469.431	1	188
469.601	1	189
469.772	1	174
469.942	1	171
470.112	1	177
470.283	1	176
470.453	1	163
470.623	1	174
470.794	1	175
470.964	1	185
471.135	1	163
471.305	1	176
471.475	1	167
471.646	1	158
471.816	1	168
471.986	1	169
472.157	1	160
472.327	1	160
472.497	1	156
472.668	1	167
472.838	1	168
473.009	1	159
473.179	1	168
473.349	1	170
473.520	1	143
473.690	1	163
473.860	1	159
474.031	1	168
474.201	1	143
474.371	1	161
474.542	1	147
474.712	1	141
474.882	1	146
475.053	1	142
475.223	1	130
475.394	1	138
475.564	1	137
475.734	1	159
475.905	1	155
476.075	1	141
476.245	1	137
476.416	1	135
476.586	1	137
476.756	1	153
476.927	1	128
477.097	1	136
477.267	1	126
477.438	1	128
477.608	1	126
477.778	1	131
477.949	1	140
478.119	1	142
478.289	1	128
478.460	1	136
478.630	1	136
478.800	1	136
478.971	1	118
479.141	1	123
479.311	1	122
479.482	1	124
479.652	1	122
479.822	1	124
479.993	1	124
480.163	1	126
480.333	1	114
480.504	1	110
480.674	1	117
480.844	1	112
481.015	1	130
481.185	1	126
481.355	1	110
481.525	1	119
481.696	1	123
481.866	1	103
482.036	1	114
482.207	1	108
482.377	1	112
482.547	1	111
482.718	1	111
482.888	1	106
483.058	1	112
483.229	1	125
483.399	1	123
483.569	1	102
483.740	1	102
483.910	1	110
484.080	1	110
484.250	1	98
484.421	1	101
484.591	1	109
484.761	1	109
484.932	1	118
485.102	1	115
485.272	1	98
485.443	1	98
485.613	1	99
485.783	1	97
485.953	1	102
486.124	1	103
486.294	1	105
486.464	1	97
486.635	1	96
486.805	1	99
486.975	1	97
487.146	1	90
487.316	1	87
487.486	1	83
487.656	1	105
487.827	1	92
487.997	1	90
488.167	1	90
488.338	1	88
488.508	1	94
488.678	1	86
488.848	1	96
489.019	1	81
489.189	1	92
489.359	1	84
489.529	1	80
489.700	1	83
489.870	1	82
490.040	1	79
490.211	1	82
490.381	1	87
490.551	1	84
490.721	1	83
490.892	1	86
491.062	1	87
491.232	1	81
491.402	1	77
491.573	1	75
491.743	1	75
491.913	1	82
492.084	1	82
492.254	1	82
492.424	1	80
492.594	1	77
492.765	1	68
492.935	1	75
493.105	1	68
493.275	1	86
493.446	1	73
493.616	1	74
493.786	1	73
493.956	1	72
494.127	1	69
494.297	1	78
494.467	1	77
494.637	1	67
494.808	1	64
494.978	1	66
495.148	1	69
495.318	1	65
495.489	1	69
495.659	1	71
495.829	1	60
495.999	1	70
496.170	1	73
496.340	1	78
496.510	1	69
496.680	1	63
496.851	1	77
497.021	1	67
497.191	1	69
497.361	1	73
497.532	1	56
497.702	1	67
497.872	1	66
498.042	1	64
498.213	1	59
498.383	1	61
498.553	1	75
498.723	1	61
498.894	1	63
499.064	1	63
499.234	1	59
499.404	1	61
499.574	1	69
499.745	1	67
499.915	1	59
500.085	1	63
500.255	1	51
500.426	1	53
500.596	1	66
500.766	1	70
500.936	1	53
501.106	1	61
501.277	1	65
501.447	1	62
501.617	1	68
501.787	1	61
501.958	1	64
502.128	1	60
502.298	1	51
502.468	1	64
502.638	1	61
502.809	1	57
502.979	1	52
503.149	1	66
503.319	1	61
503.489	1	72
503.660	1	59
503.830	1	48
504.000	1	55
504.170	1	65
504.340	1	52
504.511	1	61
504.681	1	50
504.851	1	55
505.021	1	52
505.192	1	62
505.362	1	55
505.532	1	64
505.702	1	59
505.872	1	63
506.043	1	51
506.213	1	51
506.383	1	58
506.553	1	52
506.723	1	60
506.893	1	55
507.064	1	49
507.234	1	58
507.404	1	51
507.574	1	43
507.744	1	58
507.915	1	60
508.085	1	60
508.255	1	58
508.425	1	37
508.595	1	55
508.766	1	49
508.936	1	46
509.106	1	43
509.276	1	58
509.446	1	45
509.616	1	49
509.787	1	54
509.957	1	36
510.127	1	56
510.297	1	49
510.467	1	54
510.638	1	36
510.808	1	53
510.978	1	44
511.148	1	50
511.318	1	46
511.488	1	58
511.659	1	45
511.829	1	53
511.999	1	45
512.169	1	52
512.339	1	47
512.509	1	47
512.680	1	41
512.850	1	42
513.020	1	42
513.190	1	46
513.360	1	48
513.530	1	33
513.700	1	41
513.871	1	42
514.041	1	47
514.211	1	51
514.381	1	41
514.551	1	30
514.721	1	46
514.892	1	41
515.062	1	36
515.232	1	37
515.402	1	52
515.572	1	44
515.742	1	43
515.912	1	42
516.083	1	44
516.253	1	30
516.423	1	38
516.593	1	34
516.763	1	50
516.933	1	38
517.104	1	40
517.274	1	35
517.444	1	49
517.614	1	39
517.784	1	38
517.954	1	28
518.124	1	42
518.294	1	43
518.465	1	49
518.635	1	31
518.805	1	32
518.975	1	36
519.145	1	40
519.315	1	35
519.485	1	38
519.656	1	34
519.826	1	39
519.996	1	45
520.166	1	47
520.336	1	46
520.506	1	25
520.676	1	34
520.846	1	29
521.017	1	44
521.187	1	34
521.357	1	36
521.527	1	32
521.697	1	41
521.867	1	36
522.037	1	32
522.207	1	54
522.377	1	37
522.548	1	34
522.718	1	40
522.888	1	28
523.058	1	40
523.228	1	30
523.398	1	40
523.568	1	33
523.738	1	47
523.909	1	40
524.079	1	42
524.249	1	28
524.419	1	24
524.589	1	38
524.759	1	31
524.929	1	38
525.099	1	30
525.269	1	37
525.439	1	43
525.610	1	47
525.780	1	26
525.950	1	34
526.120	1	37
526.290	1	27
526.460	1	37
526.630	1	39
526.800	1	40
526.970	1	36
527.140	1	26
527.311	1	34
527.481	1	21
527.651	1	32
527.821	1	36
527.991	1	37
528.161	1	33
528.331	1	47
528.501	1	31
528.671	1	19
528.841	1	29
529.011	1	30
529.181	1	45
529.352	1	31
529.522	1	32
529.692	1	34
529.862	1	32
530.032	1	32
530.202	1	33
530.372	1	38
530.542	1	25
530.712	1	37
530.882	1	27
531.052	1	35
531.222	1	46
531.392	1	32
531.563	1	25
531.733	1	29
531.903	1	35
532.073	1	28
532.243	1	35
532.413	1	35
532.583	1	41
532.753	1	46
532.923	1	31
533.093	1	28
533.263	1	32
533.433	1	34
533.603	1	35
533.773	1	31
533.943	1	42
534.113	1	30
534.284	1	34
534.454	1	27
534.624	1	30
534.794	1	29
534.964	1	38
535.134	1	32
535.304	1	31
535.474	1	24
535.644	1	32
535.814	1	29
535.984	1	41
536.154	1	36
536.324	1	41
536.494	1	28
536.664	1	26
536.834	1	35
537.004	1	23
537.174	1	34
537.344	1	35
537.514	1	35
537.685	1	35
537.855	1	30
538.025	1	31
538.195	1	25
538.365	1	18
538.535	1	21
538.705	1	34
538.875	1	36
539.045	1	26
539.215	1	30
539.385	1	29
539.555	1	40
539.725	1	25
539.895	1	22
540.065	1	30
540.235	1	16
540.405	1	26
540.575	1	30
540.745	1	16
540.915	1	26
541.085	1	33
541.255	1	21
541.425	1	39
541.595	1	28
541.765	1	25
541.935	1	30
542.105	1	36
542.275	1	25
542.445	1	24
542.615	1	29
542.785	1	31
542.955	1	38
543.125	1	19
543.295	1	19
543.465	1	20
543.635	1	35
543.805	1	31
543.975	1	25
544.145	1	37
544.315	1	26
544.485	1	24
544.655	1	30
544.825	1	27
544.995	1	39
545.165	1	23
545.335	1	26
545.505	1	34
545.675	1	31
545.845	1	27
546.015	1	27
546.185	1	32
546.355	1	25
546.525	1	33
546.695	1	24
546.865	1	23
547.035	1	22
547.205	1	43
547.375	1	30
547.545	1	28
547.715	1	29
547.885	1	14
548.055	1	21
548.225	1	35
548.395	1	19
548.565	1	33
548.735	1	25
548.905	1	41
549.075	1	28
549.245	1	29
549.415	1	21
549.585	1	27
549.755	1	23
549.925	1	26
550.095	1	32
550.265	1	17
550.435	1	22
550.605	1	26
550.775	1	28
550.945	1	38
551.115	1	28
551.285	1	29
551.455	1	16
551.625	1	35
551.795	1	12
551.965	1	12
552.135	1	22
552.305	1	25
552.475	1	32
552.645	1	28
552.815	1	32
552.985	1	36
553.155	1	17
553.325	1	20
553.495	1	29
553.665	1	13
553.835	1	39
554.004	1	22
554.174	1	17
554.344	1	26
554.514	1	29
554.684	1	16
554.854	1	34
555.024	1	23
555.194	1	35
555.364	1	20
555.534	1	33
555.704	1	20
555.874	1	18
556.044	1	24
556.214	1	20
556.384	1	26
556.554	1	20
556.724	1	6
556.894	1	18
557.064	1	33
557.234	1	20
557.404	1	18
557.573	1	28
557.743	1	20
557.913	1	23
558.083	1	35
558.253	1	23
558.423	1	17
558.593	1	26
558.763	1	26
558.933	1	22
559.103	1	31
559.273	1	26
559.443	1	25
559.613	1	25
559.783	1	19
559.953	1	17
560.122	1	19
560.292	1	10
560.462	1	29
560.632	1	35
560.802	1	22
560.972	1	21
561.142	1	29
561.312	1	13
561.482	1	14
561.652	1	15
561.822	1	13
561.992	1	24
562.162	1	23
562.331	1	30
562.501	1	30
562.671	1	26
562.841	1	2
563.011	1	28
563.181	1	22
563.351	1	24
563.521	1	10
563.691	1	28
563.861	1	20
564.031	1	12
564.201	1	28
564.370	1	19
564.540	1	27
564.710	1	16
564.880	1	18
565.050	1	22
565.220	1	25
565.390	1	21
565.560	1	23
565.730	1	23
565.900	1	18
566.069	1	9
566.239	1	30
566.409	1	20
566.579	1	9
566.749	1	14
566.919	1	15
567.089	1	24
567.259	1	24
567.429	1	27
567.599	1	38
567.768	1	32
567.938	1	14
568.108	1	25
568.278	1	28
568.448	1	19
568.618	1	14
568.788	1	26
568.958	1	23
569.128	1	25
569.297	1	33
569.467	1	30
569.637	1	17
569.807	1	30
569.977	1	17
570.147	1	23
570.317	1	11
570.487	1	33
570.656	1	24
570.826	1	19
570.996	1	20
571.166	1	21
571.336	1	11
571.506	1	27
571.676	1	7
571.846	1	13
572.015	1	17
572.185	1	20
572.355	1	22
572.525	1	34
572.695	1	18
572.865	1	12
573.035	1	31
573.205	1	5
573.374	1	6
573.544	1	15
573.714	1	18
573.884	1	24
574.054	1	27
574.224	1	17
574.394	1	18
574.563	1	11
574.733	1	20
574.903	1	22
575.073	1	17
575.243	1	19
575.413	1	18
575.583	1	39
575.752	1	17
575.922	1	19
576.092	1	25
576.262	1	19
576.432	1	13
576.602	1	23
576.772	1	9
576.941	1	13
577.111	1	21
577.281	1	21
577.451	1	13
577.621	1	25
577.791	1	19
577.960	1	11
578.130	1	12
578.300	1	17
578.470	1	20
578.640	1	23
578.810	1	13
578.979	1	17
579.149	1	28
579.319	1	20
579.489	1	17
579.659	1	17
579.829	1	17
579.998	1	20
580.168	1	12
580.338	1	27
580.508	1	31
580.678	1	16
580.848	1	39
581.017	1	18
581.187	1	22
581.357	1	12
581.527	1	2
581.697	1	3
581.867	1	25
582.036	1	11
582.206	1	24
582.376	1	24
582.546	1	23
582.716	1	25
582.885	1	24
583.055	1	24
583.225	1	27
583.395	1	17
583.565	1	29
583.735	1	30
583.904	1	20
584.074	1	24
584.244	1	20
584.414	1	27
584.584	1	39
584.753	1	12
584.923	1	18
585.093	1	36
585.263	1	20
585.433	1	23
585.602	1	31
585.772	1	35
585.942	1	22
586.112	1	18
586.282	1	28
586.451	1	38
586.621	1	30
586.791	1	31
586.961	1	24
587.131	1	24
587.300	1	26
587.470	1	22
587.640	1	28
587.810	1	26
587.980	1	25
588.149	1	43
588.319	1	24
588.489	1	30
588.659	1	26
588.829	1	30
588.998	1	38
589.168	1	26
589.338	1	23
589.508	1	21
589.677	1	21
589.847	1	24
590.017	1	26
590.187	1	8
590.357	1	28
590.526	1	18
590.696	1	19
590.866	1	14
591.036	1	29
591.205	1	30
591.375	1	22
591.545	1	36
591.715	1	11
591.885	1	30
592.054	1	22
592.224	1	30
592.394	1	27
592.564	1	27
592.733	1	49
592.903	1	30
593.073	1	42
593.243	1	44
593.412	1	34
593.582	1	27
593.752	1	38
593.922	1	22
594.091	1	25
594.261	1	18
594.431	1	24
594.601	1	24
594.771	1	22
594.940	1	26
595.110	1	33
595.280	1	38
595.450	1	44
595.619	1	34
595.789	1	30
595.959	1	24
596.129	1	31
596.298	1	37
596.468	1	29
596.638	1	39
596.808	1	48
596.977	1	41
597.147	1	48
597.317	1	37
597.487	1	42
597.656	1	30
597.826	1	39
597.996	1	41
598.166	1	45
598.335	1	42
598.505	1	45
598.675	1	32
598.844	1	33
599.014	1	42
599.184	1	34
599.354	1	53
599.523	1	44
599.693	1	47
599.863	1	41
600.033	1	39
600.202	1	34
600.372	1	39
600.542	1	53
600.712	1	38
600.881	1	45
601.051	1	47
601.221	1	46
601.390	1	48
601.560	1	47
601.730	1	48
601.900	1	47
602.069	1	44
602.239	1	42
602.409	1	44
602.578	1	47
602.748	1	43
602.918	1	41
603.088	1	43
603.257	1	56
603.427	1	51
603.597	1	32
603.767	1	54
603.936	1	42
604.106	1	52
604.276	1	39
604.445	1	52
604.615	1	63
604.785	1	56
604.954	1	60
605.124	1	63
605.294	1	53
605.464	1	56
605.633	1	48
605.803	1	53
605.973	1	61
606.142	1	56
606.312	1	61
606.482	1	55
606.652	1	54
606.821	1	60
606.991	1	52
607.161	1	71
607.330	1	60
607.500	1	59
607.670	1	56
607.839	1	63
608.009	1	55
608.179	1	60
608.348	1	59
608.518	1	69
608.688	1	61
608.858	1	73
609.027	1	62
609.197	1	54
609.367	1	61
609.536	1	76
609.706	1	77
609.876	1	57
610.045	1	84
610.215	1	75
610.385	1	78
610.554	1	71
610.724	1	67
610.894	1	82
611.063	1	70
611.233	1	57
611.403	1	67
611.572	1	69
611.742	1	75
611.912	1	73
612.081	1	80
612.251	1	74
612.421	1	90
612.590	1	70
612.760	1	86
612.930	1	76
613.099	1	80
613.269	1	76
613.439	1	85
613.608	1	87
613.778	1	85
613.948	1	80
614.117	1	83
614.287	1	77
614.457	1	74
614.626	1	90
614.796	1	84
614.966	1	89
615.135	1	93
615.305	1	88
615.475	1	98
615.644	1	84
615.814	1	84
615.984	1	95
616.153	1	68
616.323	1	81
616.493	1	94
616.662	1	90
616.832	1	78
617.002	1	106
617.171	1	90
617.341	1	97
617.511	1	96
617.680	1	108
617.850	1	110
618.019	1	89
618.189	1	107
618.359	1	97
618.528	1	101
618.698	1	90
618.868	1	97
619.037	1	92
619.207	1	112
619.377	1	97
619.546	1	105
619.716	1	102
619.885	1	108
620.055	1	107
620.225	1	92
620.394	1	103
620.564	1	114
620.734	1	93
620.903	1	113
621.073	1	112
621.242	1	125
621.412	1	107
621.582	1	107
621.751	1	112
621.921	1	105
622.091	1	107
622.260	1	111
622.430	1	112
622.599	1	116
622.769	1	112
622.939	1	115
623.108	1	119
623.278	1	114
623.448	1	125
623.617	1	115
623.787	1	119
623.956	1	121
624.126	1	125
624.296	1	117
624.465	1	139
624.635	1	115
624.804	1	128
624.974	1	125
625.144	1	126
625.313	1	126
625.483	1	124
625.652	1	117
625.822	1	139
625.992	1	143
626.161	1	135
626.331	1	135
626.501	1	129
626.670	1	135
626.840	1	127
627.009	1	135
627.179	1	142
627.348	1	142
627.518	1	126
627.688	1	132
627.857	1	132
628.027	1	140
628.196	1	132
628.366	1	134
628.536	1	147
628.705	1	148
628.875	1	138
629.044	1	134
629.214	1	131
629.384	1	134
629.553	1	138
629.723	1	145
629.892	1	134
630.062	1	144
630.232	1	142
630.401	1	136
630.571	1	141
630.740	1	136
630.910	1	136
631.079	1	150
631.249	1	143
631.419	1	142
631.588	1	154
631.758	1	148
631.927	1	145
632.097	1	153
632.266	1	133
632.436	1	166
632.606	1	156
632.775	1	151
632.945	1	147
633.114	1	167
633.284	1	141
633.453	1	157
633.623	1	155
633.793	1	154
633.962	1	166
634.132	1	142
634.301	1	148
634.471	1	147
634.640	1	151
634.810	1	150
634.979	1	156
635.149	1	163
635.319	1	157
635.488	1	179
635.658	1	156
635.827	1	162
635.997	1	156
636.166	1	155
636.336	1	170
636.505	1	161
636.675	1	170
636.845	1	177
637.014	1	167
637.184	1	162
637.353	1	174
637.523	1	171
637.692	1	177
637.862	1	149
638.031	1	182
638.201	1	163
638.370	1	173
638.540	1	155
638.710	1	163
638.879	1	181
639.049	1	168
639.218	1	189
639.388	1	172
639.557	1	158
639.727	1	173
639.896	1	170
640.066	1	160
640.235	1	170
640.405	1	176
640.574	1	171
640.744	1	173
640.914	1	191
641.083	1	182
641.253	1	160
641.422	1	183
641.592	1	161
641.761	1	176
641.931	1	159
642.100	1	179
642.270	1	178
642.439	1	193
642.609	1	181
642.778	1	171
642.948	1	179
643.117	1	178
643.287	1	164
643.456	1	182
643.626	1	188
643.795	1	166
643.965	1	169
644.134	1	178
644.304	1	172
644.473	1	180
644.643	1	169
644.812	1	169
644.982	1	179
645.151	1	169
645.321	1	196
645.490	1	171
645.660	1	199
645.829	1	176
645.999	1	167
646.168	1	187
646.338	1	171
646.507	1	192
646.677	1	179
646.846	1	165
647.016	1	189
647.185	1	185
647.355	1	176
647.524	1	175
647.694	1	187
647.863	1	187
648.033	1	173
648.202	1	185
648.372	1	174
648.541	1	177
648.711	1	166
648.880	1	177
649.050	1	177
649.219	1	188
649.389	1	184
649.558	1	178
649.728	1	194
649.897	1	192
650.067	1	169
650.236	1	186
650.406	1	191
650.575	1	169
650.745	1	179
650.914	1	190
651.084	1	176
651.253	1	185
651.423	1	185
651.592	1	186
651.762	1	181
651.931	1	168
652.101	1	186
652.270	1	176
652.440	1	178
652.609	1	182
652.778	1	189
652.948	1	169
653.117	1	191
653.287	1	173
653.456	1	166
653.626	1	188
653.795	1	176
653.965	1	187
654.134	1	187
654.304	1	155
654.473	1	178
654.643	1	176
654.812	1	174
654.982	1	178
655.151	1	175
655.320	1	196
655.490	1	158
655.659	1	174
655.829	1	185
655.998	1	169
656.168	1	161
656.337	1	177
656.507	1	161
656.676	1	182
656.846	1	175
657.015	1	174
657.184	1	162
657.354	1	178
657.523	1	145
657.693	1	166
657.862	1	167
658.032	1	166
658.201	1	178
658.371	1	161
658.540	1	165
658.709	1	175
658.879	1	186
659.048	1	177
659.218	1	161
659.387	1	173
659.557	1	176
659.726	1	171
659.895	1	173
660.065	1	149
660.234	1	162
660.404	1	181
660.573	1	161
660.743	1	154
660.912	1	160
661.081	1	155
661.251	1	162
661.420	1	155
661.590	1	153
661.759	1	174
661.929	1	155
662.098	1	163
662.267	1	157
662.437	1	162
662.606	1	153
662.776	1	162
662.945	1	171
663.115	1	155
663.284	1	176
663.453	1	173
663.623	1	140
663.792	1	152
663.962	1	151
664.131	1	162
664.300	1	156
664.470	1	155
664.639	1	149
664.809	1	153
664.978	1	160
665.148	1	153
665.317	1	149
665.486	1	141
665.656	1	162
665.825	1	143
665.995	1	142
666.164	1	147
666.333	1	148
666.503	1	163
666.672	1	138
666.842	1	148
667.011	1	144
667.180	1	153
667.350	1	141
667.519	1	141
667.689	1	142
667.858	1	144
668.027	1	149
668.197	1	143
668.366	1	136
668.536	1	155
668.705	1	137
668.874	1	144
669.044	1	152
669.213	1	142
669.382	1	136
669.552	1	140
669.721	1	141
669.891	1	134
670.060	1	129
670.229	1	137
670.399	1	142
670.568	1	133
670.738	1	139
670.907	1	134
671.076	1	135
671.246	1	132
671.415	1	131
671.584	1	136
671.754	1	129
671.923	1	134
672.093	1	136
672.262	1	136
672.431	1	125
672.601	1	132
672.770	1	131
672.939	1	130
673.109	1	132
673.278	1	123
673.448	1	134
673.617	1	128
673.786	1	127
