325.333	1	21
325.504	1	20
325.675	1	17
325.846	1	26
326.017	1	21
326.188	1	27
326.359	1	38
326.531	1	22
326.702	1	9
326.873	1	28
327.044	1	17
327.215	1	27
327.386	1	25
327.557	1	37
327.728	1	34
327.899	1	28
328.070	1	32
328.241	1	23
328.412	1	29
328.583	1	28
328.754	1	33
328.926	1	36
329.097	1	24
329.268	1	39
329.439	1	23
329.610	1	26
329.781	1	23
329.952	1	23
330.123	1	28
330.294	1	31
330.465	1	30
330.636	1	37
330.807	1	32
330.978	1	26
331.149	1	24
331.320	1	33
331.492	1	24
331.663	1	26
331.834	1	36
332.005	1	27
332.176	1	38
332.347	1	34
332.518	1	29
332.689	1	36
332.860	1	33
333.031	1	35
333.202	1	43
333.373	1	26
333.544	1	30
333.715	1	31
333.886	1	27
334.057	1	36
334.228	1	33
334.399	1	25
334.570	1	29
334.741	1	36
334.912	1	26
335.084	1	31
335.255	1	32
335.426	1	31
335.597	1	33
335.768	1	38
335.939	1	29
336.110	1	38
336.281	1	27
336.452	1	33
336.623	1	45
336.794	1	31
336.965	1	23
337.136	1	40
337.307	1	41
337.478	1	29
337.649	1	43
337.820	1	40
337.991	1	33
338.162	1	30
338.333	1	37
338.504	1	36
338.675	1	31
338.846	1	39
339.017	1	35
339.188	1	38
339.359	1	36
339.530	1	35
339.701	1	40
339.872	1	40
340.043	1	34
340.214	1	38
340.385	1	39
340.556	1	32
340.727	1	36
340.898	1	41
341.069	1	18
341.240	1	35
341.411	1	40
341.582	1	39
341.753	1	24
341.924	1	34
342.095	1	30
342.266	1	33
342.437	1	26
342.608	1	29
342.779	1	41
342.950	1	32
343.121	1	33
343.292	1	46
343.463	1	36
343.634	1	31
343.805	1	31
343.976	1	34
344.147	1	29
344.318	1	32
344.489	1	27
344.660	1	33
344.831	1	41
345.002	1	36
345.173	1	40
345.344	1	32
345.515	1	36
345.686	1	34
345.857	1	32
346.028	1	32
346.199	1	38
346.370	1	27
346.541	1	41
346.712	1	37
346.883	1	28
347.054	1	26
347.225	1	28
347.396	1	25
347.567	1	38
347.738	1	30
347.909	1	33
348.080	1	40
348.251	1	28
348.422	1	35
348.593	1	22
348.764	1	32
348.935	1	21
349.106	1	26
349.277	1	38
349.448	1	29
349.619	1	23
349.790	1	38
349.961	1	29
350.132	1	32
350.303	1	36
350.474	1	20
350.645	1	29
350.816	1	19
350.987	1	30
351.157	1	11
351.328	1	27
351.499	1	27
351.670	1	28
351.841	1	28
352.012	1	30
352.183	1	21
352.354	1	22
352.525	1	19
352.696	1	25
352.867	1	9
353.038	1	41
353.209	1	23
353.380	1	12
353.551	1	14
353.722	1	24
353.893	1	25
354.064	1	18
354.235	1	22
354.406	1	16
354.576	1	21
354.747	1	31
354.918	1	23
355.089	1	21
355.260	1	24
355.431	1	16
355.602	1	42
355.773	1	13
355.944	1	11
356.115	1	14
356.286	1	31
356.457	1	16
356.628	1	10
356.799	1	12
356.970	1	21
357.141	1	13
357.311	1	18
357.482	1	33
357.653	1	3
357.824	1	18
357.995	1	29
358.166	1	15
358.337	1	16
358.508	1	15
358.679	1	-2
358.850	1	15
359.021	1	17
359.192	1	6
359.363	1	15
359.533	1	23
359.704	1	15
359.875	1	5
360.046	1	15
360.217	1	15
360.388	1	18
360.559	1	20
360.730	1	15
360.901	1	13
361.072	1	15
361.243	1	15
361.414	1	11
361.584	1	20
361.755	1	19
361.926	1	13
362.097	1	20
362.268	1	7
362.439	1	2
362.610	1	24
362.781	1	22
362.952	1	6
363.123	1	13
363.293	1	9
363.464	1	9
363.635	1	11
363.806	1	11
363.977	1	10
364.148	1	7
364.319	1	4
364.490	1	5
364.661	1	-3
364.832	1	8
365.002	1	3
365.173	1	11
365.344	1	12
365.515	1	17
365.686	1	0
365.857	1	10
366.028	1	2
366.199	1	3
366.370	1	4
366.540	1	1
366.711	1	9
366.882	1	9
367.053	1	7
367.224	1	8
367.395	1	14
367.566	1	5
367.737	1	10
367.908	1	10
368.078	1	10
368.249	1	6
368.420	1	13
368.591	1	7
368.762	1	0
368.933	1	7
369.104	1	11
369.274	1	7
369.445	1	8
369.616	1	9
369.787	1	7
369.958	1	3
370.129	1	-1
370.300	1	10
370.471	1	13
370.641	1	-3
370.812	1	9
370.983	1	7
371.154	1	23
371.325	1	12
371.496	1	0
371.667	1	-2
371.837	1	3
372.008	1	4
372.179	1	9
372.350	1	0
372.521	1	13
372.692	1	0
372.863	1	10
373.033	1	2
373.204	1	9
373.375	1	12
373.546	1	4
373.717	1	-6
373.888	1	5
374.059	1	7
374.229	1	5
374.400	1	10
374.571	1	-4
374.742	1	0
374.913	1	-4
375.084	1	11
375.254	1	8
375.425	1	12
375.596	1	12
375.767	1	-4
375.938	1	-2
376.109	1	-7
376.279	1	7
376.450	1	14
376.621	1	10
376.792	1	6
376.963	1	11
377.134	1	1
377.304	1	13
377.475	1	-6
377.646	1	8
377.817	1	3
377.988	1	8
378.159	1	4
378.329	1	16
378.500	1	-5
378.671	1	3
378.842	1	8
379.013	1	3
379.184	1	1
379.354	1	2
379.525	1	-1
379.696	1	0
379.867	1	0
380.038	1	3
380.209	1	-9
380.379	1	-1
380.550	1	8
380.721	1	-2
380.892	1	8
381.063	1	11
381.233	1	3
381.404	1	14
381.575	1	1
381.746	1	4
381.917	1	10
382.087	1	0
382.258	1	2
382.429	1	8
382.600	1	16
382.771	1	11
382.941	1	4
383.112	1	5
383.283	1	14
383.454	1	12
383.625	1	13
383.795	1	7
383.966	1	7
384.137	1	17
384.308	1	3
384.479	1	7
384.649	1	2
384.820	1	15
384.991	1	6
385.162	1	-6
385.333	1	12
385.503	1	7
385.674	1	23
385.845	1	0
386.016	1	25
386.187	1	12
386.357	1	9
386.528	1	16
386.699	1	10
386.870	1	8
387.041	1	-3
387.211	1	12
387.382	1	9
387.553	1	4
387.724	1	3
387.894	1	12
388.065	1	8
388.236	1	5
388.407	1	27
388.578	1	14
388.748	1	17
388.919	1	-2
389.090	1	3
389.261	1	6
389.431	1	8
389.602	1	26
389.773	1	4
389.944	1	10
390.114	1	11
390.285	1	11
390.456	1	23
390.627	1	8
390.798	1	7
390.968	1	1
391.139	1	17
391.310	1	4
391.481	1	2
391.651	1	9
391.822	1	12
391.993	1	8
392.164	1	18
392.334	1	13
392.505	1	15
392.676	1	8
392.847	1	17
393.017	1	12
393.188	1	14
393.359	1	16
393.530	1	16
393.700	1	15
393.871	1	11
394.042	1	10
394.213	1	14
394.383	1	14
394.554	1	3
394.725	1	14
394.896	1	7
395.066	1	5
395.237	1	2
395.408	1	16
395.579	1	9
395.749	1	13
395.920	1	11
396.091	1	25
396.262	1	15
396.432	1	10
396.603	1	18
396.774	1	6
396.945	1	16
397.115	1	17
397.286	1	11
397.457	1	15
397.627	1	19
397.798	1	15
397.969	1	14
398.140	1	16
398.310	1	16
398.481	1	6
398.652	1	8
398.823	1	14
398.993	1	22
399.164	1	22
399.335	1	6
399.505	1	22
399.676	1	13
399.847	1	18
400.018	1	22
400.188	1	25
400.359	1	17
400.530	1	18
400.700	1	26
400.871	1	30
401.042	1	10
401.213	1	24
401.383	1	32
401.554	1	22
401.725	1	18
401.895	1	19
402.066	1	24
402.237	1	15
402.408	1	15
402.578	1	10
402.749	1	22
402.920	1	26
403.090	1	13
403.261	1	8
403.432	1	12
403.603	1	31
403.773	1	20
403.944	1	19
404.115	1	28
404.285	1	34
404.456	1	23
404.627	1	32
404.797	1	27
404.968	1	17
405.139	1	23
405.310	1	38
405.480	1	24
405.651	1	31
405.822	1	30
405.992	1	27
406.163	1	17
406.334	1	23
406.504	1	26
406.675	1	24
406.846	1	36
407.016	1	32
407.187	1	5
407.358	1	24
407.528	1	21
407.699	1	14
407.870	1	26
408.041	1	30
408.211	1	13
408.382	1	36
408.553	1	22
408.723	1	24
408.894	1	20
409.065	1	22
409.235	1	26
409.406	1	26
409.577	1	28
409.747	1	25
409.918	1	37
410.089	1	36
410.259	1	21
410.430	1	35
410.601	1	35
410.771	1	11
410.942	1	36
411.113	1	33
411.283	1	26
411.454	1	11
411.625	1	38
411.795	1	43
411.966	1	34
412.137	1	17
412.307	1	33
412.478	1	29
412.649	1	26
412.819	1	25
412.990	1	19
413.161	1	21
413.331	1	29
413.502	1	34
413.672	1	29
413.843	1	39
414.014	1	30
414.184	1	36
414.355	1	31
414.526	1	39
414.696	1	43
414.867	1	30
415.038	1	37
415.208	1	32
415.379	1	42
415.550	1	39
415.720	1	24
415.891	1	41
416.062	1	38
416.232	1	29
416.403	1	34
416.573	1	32
416.744	1	39
416.915	1	34
417.085	1	36
417.256	1	23
417.427	1	32
417.597	1	45
417.768	1	32
417.939	1	42
418.109	1	33
418.280	1	37
418.450	1	36
418.621	1	29
418.792	1	31
418.962	1	30
419.133	1	24
419.304	1	36
419.474	1	47
419.645	1	41
419.815	1	32
419.986	1	32
420.157	1	38
420.327	1	27
420.498	1	32
420.669	1	38
420.839	1	22
421.010	1	36
421.180	1	36
421.351	1	42
421.522	1	15
421.692	1	27
421.863	1	41
422.033	1	28
422.204	1	39
422.375	1	37
422.545	1	43
422.716	1	38
422.886	1	40
423.057	1	32
423.228	1	50
423.398	1	36
423.569	1	27
423.740	1	33
423.910	1	28
424.081	1	32
424.251	1	39
424.422	1	29
424.593	1	37
424.763	1	32
424.934	1	48
425.104	1	53
425.275	1	38
425.445	1	28
425.616	1	34
425.787	1	30
425.957	1	39
426.128	1	30
426.298	1	43
426.469	1	25
426.640	1	35
426.810	1	41
426.981	1	31
427.151	1	43
427.322	1	33
427.493	1	36
427.663	1	33
427.834	1	51
428.004	1	28
428.175	1	43
428.345	1	22
428.516	1	34
428.687	1	47
428.857	1	39
429.028	1	46
429.198	1	36
429.369	1	43
429.540	1	36
429.710	1	27
429.881	1	39
430.051	1	41
430.222	1	34
430.392	1	36
430.563	1	49
430.734	1	48
430.904	1	36
431.075	1	32
431.245	1	32
431.416	1	44
431.586	1	30
431.757	1	43
431.927	1	45
432.098	1	41
432.269	1	33
432.439	1	48
432.610	1	33
432.780	1	36
432.951	1	32
433.121	1	35
433.292	1	30
433.462	1	35
433.633	1	30
433.804	1	31
433.974	1	33
434.145	1	32
434.315	1	43
434.486	1	42
434.656	1	40
434.827	1	24
434.997	1	39
435.168	1	46
435.339	1	42
435.509	1	39
435.680	1	26
435.850	1	22
436.021	1	48
436.191	1	45
436.362	1	39
436.532	1	32
436.703	1	31
436.873	1	34
437.044	1	36
437.214	1	32
437.385	1	34
437.556	1	35
437.726	1	28
437.897	1	31
438.067	1	38
438.238	1	35
438.408	1	35
438.579	1	37
438.749	1	33
438.920	1	39
439.090	1	40
439.261	1	38
439.431	1	31
439.602	1	39
439.772	1	39
439.943	1	29
440.113	1	44
440.284	1	26
440.455	1	39
440.625	1	28
440.796	1	40
440.966	1	50
441.137	1	36
441.307	1	45
441.478	1	39
441.648	1	34
441.819	1	33
441.989	1	39
442.160	1	27
442.330	1	30
442.501	1	45
442.671	1	33
442.842	1	35
443.012	1	25
443.183	1	41
443.353	1	43
443.524	1	36
443.694	1	36
443.865	1	29
444.035	1	33
444.206	1	28
444.376	1	45
444.547	1	31
444.717	1	34
444.888	1	36
445.058	1	55
445.229	1	37
445.399	1	36
445.570	1	37
445.740	1	25
445.911	1	26
446.081	1	35
446.252	1	28
446.422	1	42
446.593	1	24
446.763	1	35
446.934	1	34
447.104	1	37
447.275	1	30
447.445	1	39
447.616	1	29
447.786	1	28
447.957	1	35
448.127	1	26
448.298	1	39
448.468	1	42
448.639	1	30
448.809	1	39
448.979	1	38
449.150	1	21
449.320	1	37
449.491	1	40
449.661	1	41
449.832	1	38
450.002	1	40
450.173	1	29
450.343	1	29
450.514	1	40
450.684	1	32
450.855	1	26
451.025	1	34
451.196	1	23
451.366	1	43
451.537	1	33
451.707	1	29
451.878	1	22
452.048	1	41
452.218	1	41
452.389	1	34
452.559	1	25
452.730	1	35
452.900	1	41
453.071	1	26
453.241	1	23
453.412	1	23
453.582	1	28
453.753	1	24
453.923	1	31
454.093	1	38
454.264	1	41
454.434	1	33
454.605	1	30
454.775	1	22
454.946	1	45
455.116	1	30
455.287	1	33
455.457	1	25
455.628	1	25
455.798	1	25
455.968	1	35
456.139	1	32
456.309	1	25
456.480	1	34
456.650	1	27
456.821	1	30
456.991	1	20
457.161	1	32
457.332	1	29
457.502	1	27
457.673	1	37
457.843	1	30
458.014	1	22
458.184	1	33
458.355	1	19
458.525	1	31
458.695	1	31
458.866	1	28
459.036	1	22
459.207	1	33
459.377	1	29
459.548	1	33
459.718	1	28
459.888	1	22
460.059	1	19
460.229	1	16
460.400	1	11
460.570	1	25
460.740	1	27
460.911	1	26
461.081	1	41
461.252	1	16
461.422	1	38
461.593	1	26
461.763	1	27
461.933	1	30
462.104	1	21
462.274	1	15
462.445	1	21
462.615	1	16
462.785	1	20
462.956	1	13
463.126	1	25
463.297	1	23
463.467	1	24
463.638	1	12
463.808	1	26
463.978	1	15
464.149	1	31
464.319	1	18
464.490	1	19
464.660	1	12
464.830	1	28
465.001	1	16
465.171	1	17
465.342	1	20
465.512	1	14
465.682	1	26
465.853	1	37
466.023	1	9
466.194	1	19
466.364	1	15
466.534	1	21
466.705	1	32
466.875	1	14
467.045	1	4
467.216	1	20
467.386	1	16
467.557	1	13
467.727	1	31
467.897	1	11
468.068	1	20
468.238	1	18
468.409	1	17
468.579	1	18
468.749	1	33
468.920	1	24
469.090	1	7
469.260	1	25
469.431	1	26
469.601	1	17
469.772	1	19
469.942	1	22
470.112	1	17
470.283	1	19
470.453	1	14
470.623	1	15
470.794	1	15
470.964	1	27
471.135	1	10
471.305	1	24
471.475	1	19
471.646	1	10
471.816	1	19
471.986	1	22
472.157	1	16
472.327	1	19
472.497	1	24
472.668	1	21
472.838	1	18
473.009	1	22
473.179	1	18
473.349	1	17
473.520	1	1
473.690	1	26
473.860	1	23
474.031	1	11
474.201	1	24
474.371	1	20
474.542	1	8
474.712	1	25
474.882	1	17
475.053	1	10
475.223	1	19
475.394	1	7
475.564	1	11
475.734	1	23
475.905	1	20
476.075	1	22
476.245	1	12
476.416	1	14
476.586	1	3
476.756	1	19
476.927	1	14
477.097	1	21
477.267	1	21
477.438	1	6
477.608	1	3
477.778	1	21
477.949	1	24
478.119	1	15
478.289	1	11
478.460	1	18
478.630	1	11
478.800	1	16
478.971	1	9
479.141	1	10
479.311	1	23
479.482	1	1
479.652	1	7
479.822	1	8
479.993	1	8
480.163	1	20
480.333	1	15
480.504	1	9
480.674	1	15
480.844	1	12
481.015	1	15
481.185	1	19
481.355	1	12
481.525	1	16
481.696	1	11
481.866	1	15
482.036	1	6
482.207	1	10
482.377	1	19
482.547	1	6
482.718	1	15
482.888	1	1
483.058	1	11
483.229	1	16
483.399	1	15
483.569	1	15
483.740	1	3
483.910	1	10
484.080	1	12
484.250	1	11
484.421	1	9
484.591	1	27
484.761	1	14
484.932	1	16
485.102	1	19
485.272	1	9
485.443	1	6
485.613	1	18
485.783	1	24
485.953	1	18
486.124	1	13
486.294	1	24
486.464	1	6
486.635	1	8
486.805	1	23
486.975	1	26
487.146	1	6
487.316	1	11
487.486	1	8
487.656	1	24
487.827	1	9
487.997	1	8
488.167	1	7
488.338	1	16
488.508	1	7
488.678	1	15
488.848	1	8
489.019	1	8
489.189	1	9
489.359	1	14
489.529	1	2
489.700	1	9
489.870	1	8
490.040	1	13
490.211	1	4
490.381	1	17
490.551	1	10
490.721	1	17
490.892	1	14
491.062	1	7
491.232	1	19
491.402	1	0
491.573	1	17
491.743	1	11
491.913	1	11
492.084	1	17
492.254	1	19
492.424	1	12
492.594	1	10
492.765	1	1
492.935	1	6
493.105	1	4
493.275	1	14
493.446	1	16
493.616	1	10
493.786	1	12
493.956	1	11
494.127	1	12
494.297	1	1
494.467	1	15
494.637	1	0
494.808	1	3
494.978	1	5
495.148	1	2
495.318	1	1
495.489	1	10
495.659	1	10
495.829	1	2
495.999	1	13
496.170	1	-3
496.340	1	21
496.510	1	7
496.680	1	13
496.851	1	11
497.021	1	11
497.191	1	1
497.361	1	6
497.532	1	9
497.702	1	4
497.872	1	13
498.042	1	14
498.213	1	8
498.383	1	9
498.553	1	6
498.723	1	10
498.894	1	13
499.064	1	3
499.234	1	11
499.404	1	9
499.574	1	16
499.745	1	6
499.915	1	5
500.085	1	4
500.255	1	7
500.426	1	-1
500.596	1	14
500.766	1	7
500.936	1	5
501.106	1	2
501.277	1	5
501.447	1	3
501.617	1	15
501.787	1	-2
501.958	1	17
502.128	1	9
502.298	1	1
502.468	1	12
502.638	1	4
502.809	1	10
502.979	1	7
503.149	1	13
503.319	1	9
503.489	1	14
503.660	1	4
503.830	1	1
504.000	1	-1
504.170	1	12
504.340	1	9
504.511	1	10
504.681	1	12
504.851	1	13
505.021	1	7
505.192	1	18
505.362	1	7
505.532	1	13
505.702	1	9
505.872	1	5
506.043	1	8
506.213	1	10
506.383	1	16
506.553	1	11
506.723	1	7
506.893	1	1
507.064	1	13
507.234	1	10
507.404	1	2
507.574	1	8
507.744	1	12
507.915	1	22
508.085	1	15
508.255	1	15
508.425	1	-4
508.595	1	9
508.766	1	13
508.936	1	0
509.106	1	11
509.276	1	4
509.446	1	2
509.616	1	9
509.787	1	9
509.957	1	6
510.127	1	-2
510.297	1	4
510.467	1	15
510.638	1	4
510.808	1	8
510.978	1	16
511.148	1	6
511.318	1	1
511.488	1	19
511.659	1	11
511.829	1	16
511.999	1	8
512.169	1	15
512.339	1	6
512.509	1	8
512.680	1	14
512.850	1	-1
513.020	1	11
513.190	1	9
513.360	1	6
513.530	1	-2
513.700	1	13
513.871	1	6
514.041	1	5
514.211	1	13
514.381	1	7
514.551	1	5
514.721	1	1
514.892	1	12
515.062	1	5
515.232	1	-2
515.402	1	1
515.572	1	0
515.742	1	5
515.912	1	3
516.083	1	7
516.253	1	7
516.423	1	7
516.593	1	4
516.763	1	7
516.933	1	8
517.104	1	10
517.274	1	-3
517.444	1	0
517.614	1	0
517.784	1	11
517.954	1	-4
518.124	1	22
518.294	1	8
518.465	1	11
518.635	1	3
518.805	1	13
518.975	1	0
519.145	1	-2
519.315	1	1
519.485	1	4
519.656	1	2
519.826	1	-7
519.996	1	4
520.166	1	15
520.336	1	4
520.506	1	1
520.676	1	5
520.846	1	7
521.017	1	14
521.187	1	14
521.357	1	9
521.527	1	11
521.697	1	3
521.867	1	7
522.037	1	-4
522.207	1	7
522.377	1	10
522.548	1	-3
522.718	1	9
522.888	1	14
523.058	1	18
523.228	1	3
523.398	1	0
523.568	1	-2
523.738	1	13
523.909	1	14
524.079	1	15
524.249	1	-2
524.419	1	-1
524.589	1	2
524.759	1	2
524.929	1	8
525.099	1	-2
525.269	1	6
525.439	1	-3
525.610	1	17
525.780	1	5
525.950	1	5
526.120	1	12
526.290	1	13
526.460	1	0
526.630	1	2
526.800	1	15
526.970	1	5
527.140	1	10
527.311	1	7
527.481	1	2
527.651	1	7
527.821	1	-1
527.991	1	5
528.161	1	8
528.331	1	14
528.501	1	-3
528.671	1	11
528.841	1	-4
529.011	1	9
529.181	1	10
529.352	1	9
529.522	1	5
529.692	1	7
529.862	1	9
530.032	1	-2
530.202	1	2
530.372	1	-3
530.542	1	6
530.712	1	3
530.882	1	-1
531.052	1	9
531.222	1	10
531.392	1	2
531.563	1	3
531.733	1	10
531.903	1	11
532.073	1	-2
532.243	1	3
532.413	1	1
532.583	1	17
532.753	1	7
532.923	1	2
533.093	1	10
533.263	1	10
533.433	1	6
533.603	1	6
533.773	1	2
533.943	1	6
534.113	1	11
534.284	1	1
534.454	1	6
534.624	1	3
534.794	1	7
534.964	1	9
535.134	1	8
535.304	1	12
535.474	1	1
535.644	1	1
535.814	1	2
535.984	1	14
536.154	1	13
536.324	1	4
536.494	1	-3
536.664	1	5
536.834	1	6
537.004	1	2
537.174	1	9
537.344	1	5
537.514	1	10
537.685	1	9
537.855	1	9
538.025	1	11
538.195	1	4
538.365	1	4
538.535	1	-2
538.705	1	11
538.875	1	7
539.045	1	-1
539.215	1	13
539.385	1	8
539.555	1	5
539.725	1	-4
539.895	1	3
540.065	1	2
540.235	1	5
540.405	1	7
540.575	1	10
540.745	1	-1
540.915	1	5
541.085	1	1
541.255	1	-2
541.425	1	11
541.595	1	-2
541.765	1	-3
541.935	1	6
542.105	1	8
542.275	1	4
542.445	1	13
542.615	1	3
542.785	1	5
542.955	1	6
543.125	1	0
543.295	1	-3
543.465	1	-1
543.635	1	4
543.805	1	8
543.975	1	8
544.145	1	9
544.315	1	-2
544.485	1	-4
544.655	1	-1
544.825	1	2
544.995	1	9
545.165	1	12
545.335	1	1
545.505	1	13
545.675	1	18
545.845	1	10
546.015	1	5
546.185	1	9
546.355	1	11
546.525	1	9
546.695	1	4
546.865	1	-3
547.035	1	3
547.205	1	11
547.375	1	0
547.545	1	5
547.715	1	-1
547.885	1	-3
548.055	1	2
548.225	1	17
548.395	1	0
548.565	1	9
548.735	1	7
548.905	1	11
549.075	1	1
549.245	1	-6
549.415	1	0
549.585	1	2
549.755	1	5
549.925	1	6
550.095	1	13
550.265	1	0
550.435	1	2
550.605	1	-4
550.775	1	13
550.945	1	3
551.115	1	3
551.285	1	1
551.455	1	-3
551.625	1	10
551.795	1	-9
551.965	1	2
552.135	1	0
552.305	1	12
552.475	1	14
552.645	1	5
552.815	1	9
552.985	1	10
553.155	1	10
553.325	1	6
553.495	1	-2
553.665	1	4
553.835	1	7
554.004	1	-6
554.174	1	0
554.344	1	2
554.514	1	19
554.684	1	-2
554.854	1	-4
555.024	1	1
555.194	1	2
555.364	1	6
555.534	1	12
555.704	1	6
555.874	1	11
556.044	1	0
556.214	1	6
556.384	1	10
556.554	1	-2
556.724	1	-16
556.894	1	3
557.064	1	15
557.234	1	-6
557.404	1	2
557.573	1	4
557.743	1	15
557.913	1	11
558.083	1	-7
558.253	1	6
558.423	1	7
558.593	1	5
558.763	1	2
558.933	1	2
559.103	1	2
559.273	1	6
559.443	1	3
559.613	1	-3
559.783	1	5
559.953	1	0
560.122	1	-4
560.292	1	4
560.462	1	-3
560.632	1	11
560.802	1	14
560.972	1	9
561.142	1	-5
561.312	1	1
561.482	1	3
561.652	1	-2
561.822	1	1
561.992	1	4
562.162	1	4
562.331	1	14
562.501	1	14
562.671	1	12
562.841	1	-5
563.011	1	8
563.181	1	6
563.351	1	8
563.521	1	-5
563.691	1	8
563.861	1	6
564.031	1	-1
564.201	1	-2
564.370	1	2
564.540	1	6
564.710	1	1
564.880	1	7
565.050	1	0
565.220	1	8
565.390	1	5
565.560	1	8
565.730	1	-3
565.900	1	11
566.069	1	-4
566.239	1	14
566.409	1	6
566.579	1	-9
566.749	1	-12
566.919	1	-2
567.089	1	3
567.259	1	9
567.429	1	14
567.599	1	22
567.768	1	8
567.938	1	11
568.108	1	0
568.278	1	5
568.448	1	11
568.618	1	1
568.788	1	0
568.958	1	11
569.128	1	5
569.297	1	16
569.467	1	12
569.637	1	5
569.807	1	16
569.977	1	-4
570.147	1	-6
570.317	1	0
570.487	1	4
570.656	1	-1
570.826	1	-2
570.996	1	0
571.166	1	5
571.336	1	-1
571.506	1	10
571.676	1	0
571.846	1	0
572.015	1	-7
572.185	1	6
572.355	1	-4
572.525	1	6
572.695	1	-8
572.865	1	10
573.035	1	0
573.205	1	8
573.374	1	-3
573.544	1	5
573.714	1	4
573.884	1	6
574.054	1	18
574.224	1	5
574.394	1	6
574.563	1	3
574.733	1	1
574.903	1	-6
575.073	1	-3
575.243	1	2
575.413	1	-8
575.583	1	10
575.752	1	12
575.922	1	12
576.092	1	4
576.262	1	1
576.432	1	0
576.602	1	4
576.772	1	4
576.941	1	0
577.111	1	6
577.281	1	13
577.451	1	6
577.621	1	6
577.791	1	1
577.960	1	17
578.130	1	7
578.300	1	2
578.470	1	2
578.640	1	6
578.810	1	-12
578.979	1	-2
579.149	1	3
579.319	1	-1
579.489	1	4
579.659	1	2
579.829	1	-3
579.998	1	-2
580.168	1	-5
580.338	1	21
580.508	1	5
580.678	1	6
580.848	1	13
581.017	1	-3
581.187	1	7
581.357	1	1
581.527	1	1
581.697	1	-10
581.867	1	4
582.036	1	2
582.206	1	6
582.376	1	8
582.546	1	10
582.716	1	6
582.885	1	12
583.055	1	2
583.225	1	2
583.395	1	13
583.565	1	5
583.735	1	6
583.904	1	9
584.074	1	19
584.244	1	-2
584.414	1	15
584.584	1	1
584.753	1	-7
584.923	1	-3
585.093	1	11
585.263	1	-10
585.433	1	4
585.602	1	13
585.772	1	19
585.942	1	4
586.112	1	-6
586.282	1	5
586.451	1	14
586.621	1	6
586.791	1	7
586.961	1	5
587.131	1	10
587.300	1	7
587.470	1	6
587.640	1	6
587.810	1	1
587.980	1	8
588.149	1	15
588.319	1	10
588.489	1	-2
588.659	1	6
588.829	1	16
588.998	1	17
589.168	1	-5
589.338	1	-1
589.508	1	13
589.677	1	6
589.847	1	-11
590.017	1	5
590.187	1	-2
590.357	1	5
590.526	1	1
590.696	1	2
590.866	1	-15
591.036	1	5
591.205	1	7
591.375	1	-2
591.545	1	10
591.715	1	-8
591.885	1	4
592.054	1	2
592.224	1	-2
592.394	1	11
592.564	1	5
592.733	1	5
592.903	1	10
593.073	1	16
593.243	1	10
593.412	1	4
593.582	1	-1
593.752	1	11
593.922	1	9
594.091	1	2
594.261	1	9
594.431	1	-7
594.601	1	-3
594.771	1	7
594.940	1	16
595.110	1	13
595.280	1	6
595.450	1	18
595.619	1	5
595.789	1	8
595.959	1	9
596.129	1	15
596.298	1	8
596.468	1	4
596.638	1	1
596.808	1	15
596.977	1	10
597.147	1	12
597.317	1	2
597.487	1	1
597.656	1	-7
597.826	1	3
597.996	1	9
598.166	1	8
598.335	1	13
598.505	1	7
598.675	1	5
598.844	1	1
599.014	1	-4
599.184	1	1
599.354	1	17
599.523	1	13
599.693	1	10
599.863	1	7
600.033	1	2
600.202	1	14
600.372	1	5
600.542	1	15
600.712	1	3
600.881	1	15
601.051	1	14
601.221	1	17
601.390	1	4
601.560	1	5
601.730	1	1
601.900	1	7
602.069	1	9
602.239	1	0
602.409	1	13
602.578	1	7
602.748	1	7
602.918	1	-3
603.088	1	7
603.257	1	13
603.427	1	18
603.597	1	4
603.767	1	11
603.936	1	16
604.106	1	15
604.276	1	7
604.445	1	-6
604.615	1	18
604.785	1	23
604.954	1	14
605.124	1	17
605.294	1	7
605.464	1	11
605.633	1	8
605.803	1	15
605.973	1	11
606.142	1	11
606.312	1	9
606.482	1	-2
606.652	1	2
606.821	1	9
606.991	1	2
607.161	1	2
607.330	1	16
607.500	1	20
607.670	1	17
607.839	1	10
608.009	1	9
608.179	1	3
608.348	1	15
608.518	1	9
608.688	1	6
608.858	1	14
609.027	1	18
609.197	1	8
609.367	1	5
609.536	1	14
609.706	1	21
609.876	1	8
610.045	1	11
610.215	1	25
610.385	1	26
610.554	1	20
610.724	1	6
610.894	1	19
611.063	1	10
611.233	1	13
611.403	1	10
611.572	1	22
611.742	1	10
611.912	1	7
612.081	1	4
612.251	1	6
612.421	1	14
612.590	1	2
612.760	1	19
612.930	1	7
613.099	1	20
613.269	1	15
613.439	1	17
613.608	1	5
613.778	1	15
613.948	1	8
614.117	1	11
614.287	1	-1
614.457	1	10
614.626	1	21
614.796	1	6
614.966	1	13
615.135	1	17
615.305	1	16
615.475	1	18
615.644	1	19
615.814	1	26
615.984	1	14
616.153	1	13
616.323	1	13
616.493	1	5
616.662	1	16
616.832	1	14
617.002	1	31
617.171	1	13
617.341	1	25
617.511	1	19
617.680	1	4
617.850	1	29
618.019	1	12
618.189	1	17
618.359	1	27
618.528	1	16
618.698	1	18
618.868	1	21
619.037	1	18
619.207	1	24
619.377	1	12
619.546	1	6
619.716	1	21
619.885	1	19
620.055	1	27
620.225	1	24
620.394	1	15
620.564	1	21
620.734	1	17
620.903	1	25
621.073	1	18
621.242	1	25
621.412	1	13
621.582	1	24
621.751	1	12
621.921	1	15
622.091	1	22
622.260	1	15
622.430	1	11
622.599	1	19
622.769	1	17
622.939	1	21
623.108	1	15
623.278	1	21
623.448	1	25
623.617	1	18
623.787	1	24
623.956	1	20
624.126	1	25
624.296	1	0
624.465	1	31
624.635	1	10
624.804	1	22
624.974	1	18
625.144	1	26
625.313	1	26
625.483	1	15
625.652	1	33
625.822	1	25
625.992	1	30
626.161	1	23
626.331	1	19
626.501	1	14
626.670	1	26
626.840	1	15
627.009	1	17
627.179	1	33
627.348	1	17
627.518	1	10
627.688	1	22
627.857	1	14
628.027	1	24
628.196	1	28
628.366	1	24
628.536	1	20
628.705	1	22
628.875	1	13
629.044	1	14
629.214	1	17
629.384	1	8
629.553	1	20
629.723	1	29
629.892	1	18
630.062	1	19
630.232	1	21
630.401	1	11
630.571	1	26
630.740	1	16
630.910	1	34
631.079	1	32
631.249	1	15
631.419	1	21
631.588	1	23
631.758	1	13
631.927	1	31
632.097	1	21
632.266	1	15
632.436	1	40
632.606	1	35
632.775	1	19
632.945	1	16
633.114	1	30
633.284	1	21
633.453	1	30
633.623	1	20
633.793	1	31
633.962	1	21
634.132	1	12
634.301	1	24
634.471	1	13
634.640	1	20
634.810	1	26
634.979	1	17
635.149	1	22
635.319	1	33
635.488	1	20
635.658	1	23
635.827	1	23
635.997	1	16
636.166	1	31
636.336	1	18
636.505	1	22
636.675	1	22
636.845	1	27
637.014	1	23
637.184	1	15
637.353	1	31
637.523	1	27
637.692	1	18
637.862	1	34
638.031	1	27
638.201	1	14
638.370	1	27
638.540	1	25
638.710	1	15
638.879	1	27
639.049	1	32
639.218	1	13
639.388	1	34
639.557	1	15
639.727	1	34
639.896	1	27
640.066	1	24
640.235	1	23
640.405	1	35
640.574	1	25
640.744	1	25
640.914	1	27
641.083	1	19
641.253	1	26
641.422	1	35
641.592	1	9
641.761	1	27
641.931	1	27
642.100	1	23
642.270	1	23
642.439	1	35
642.609	1	36
642.778	1	31
642.948	1	25
643.117	1	30
643.287	1	24
643.456	1	27
643.626	1	29
643.795	1	29
643.965	1	16
644.134	1	29
644.304	1	13
644.473	1	21
644.643	1	20
644.812	1	15
644.982	1	17
645.151	1	26
645.321	1	24
645.490	1	25
645.660	1	28
645.829	1	13
645.999	1	15
646.168	1	21
646.338	1	13
646.507	1	25
646.677	1	21
646.846	1	20
647.016	1	43
647.185	1	27
647.355	1	28
647.524	1	16
647.694	1	32
647.863	1	16
648.033	1	11
648.202	1	32
648.372	1	16
648.541	1	22
648.711	1	25
648.880	1	16
649.050	1	16
649.219	1	24
649.389	1	26
649.558	1	22
649.728	1	31
649.897	1	29
650.067	1	11
650.236	1	20
650.406	1	26
650.575	1	19
650.745	1	25
650.914	1	35
651.084	1	10
651.253	1	33
651.423	1	26
651.592	1	16
651.762	1	29
651.931	1	36
652.101	1	22
652.270	1	19
652.440	1	29
652.609	1	29
652.778	1	30
652.948	1	24
653.117	1	28
653.287	1	21
653.456	1	17
653.626	1	31
653.795	1	20
653.965	1	28
654.134	1	24
654.304	1	3
654.473	1	20
654.643	1	26
654.812	1	29
654.982	1	25
655.151	1	20
655.320	1	33
655.490	1	11
655.659	1	17
655.829	1	33
655.998	1	20
656.168	1	17
656.337	1	20
656.507	1	29
656.676	1	30
656.846	1	29
657.015	1	22
657.184	1	27
657.354	1	17
657.523	1	6
657.693	1	19
657.862	1	14
658.032	1	22
658.201	1	17
658.371	1	21
658.540	1	14
658.709	1	26
658.879	1	23
659.048	1	17
659.218	1	19
659.387	1	6
659.557	1	17
659.726	1	21
659.895	1	20
660.065	1	24
660.234	1	13
660.404	1	20
660.573	1	22
660.743	1	15
660.912	1	24
661.081	1	16
661.251	1	22
661.420	1	31
661.590	1	20
661.759	1	15
661.929	1	20
662.098	1	20
662.267	1	8
662.437	1	14
662.606	1	24
662.776	1	21
662.945	1	15
663.115	1	21
663.284	1	21
663.453	1	15
663.623	1	20
663.792	1	12
663.962	1	11
664.131	1	9
664.300	1	14
664.470	1	16
664.639	1	24
664.809	1	20
664.978	1	24
665.148	1	17
665.317	1	17
665.486	1	8
665.656	1	27
665.825	1	22
665.995	1	8
666.164	1	10
666.333	1	17
666.503	1	19
666.672	1	12
666.842	1	15
667.011	1	23
667.180	1	16
667.350	1	12
667.519	1	10
667.689	1	11
667.858	1	15
668.027	1	25
668.197	1	26
668.366	1	14
668.536	1	30
668.705	1	9
668.874	1	16
669.044	1	8
669.213	1	8
669.382	1	5
669.552	1	4
669.721	1	6
669.891	1	16
670.060	1	20
670.229	1	16
670.399	1	28
670.568	1	17
670.738	1	16
670.907	1	15
671.076	1	11
671.246	1	12
671.415	1	15
671.584	1	9
671.754	1	11
671.923	1	13
672.093	1	14
672.262	1	27
672.431	1	7
672.601	1	20
672.770	1	13
672.939	1	3
673.109	1	6
673.278	1	19
673.448	1	5
673.617	1	14
673.786	1	3
