325.333	1	18
325.504	1	28
325.675	1	24
325.846	1	18
326.017	1	26
326.188	1	41
326.359	1	37
326.531	1	16
326.702	1	16
326.873	1	34
327.044	1	25
327.215	1	22
327.386	1	15
327.557	1	39
327.728	1	37
327.899	1	27
328.070	1	31
328.241	1	29
328.412	1	26
328.583	1	33
328.754	1	22
328.926	1	30
329.097	1	35
329.268	1	37
329.439	1	20
329.610	1	34
329.781	1	19
329.952	1	32
330.123	1	35
330.294	1	36
330.465	1	19
330.636	1	28
330.807	1	24
330.978	1	34
331.149	1	42
331.320	1	28
331.492	1	38
331.663	1	37
331.834	1	33
332.005	1	44
332.176	1	30
332.347	1	39
332.518	1	25
332.689	1	37
332.860	1	34
333.031	1	32
333.202	1	31
333.373	1	33
333.544	1	46
333.715	1	27
333.886	1	34
334.057	1	30
334.228	1	25
334.399	1	27
334.570	1	27
334.741	1	42
334.912	1	23
335.084	1	46
335.255	1	29
335.426	1	28
335.597	1	40
335.768	1	38
335.939	1	33
336.110	1	32
336.281	1	39
336.452	1	39
336.623	1	47
336.794	1	30
336.965	1	33
337.136	1	36
337.307	1	53
337.478	1	30
337.649	1	39
337.820	1	40
337.991	1	36
338.162	1	44
338.333	1	33
338.504	1	43
338.675	1	29
338.846	1	46
339.017	1	42
339.188	1	32
339.359	1	31
339.530	1	31
339.701	1	40
339.872	1	43
340.043	1	30
340.214	1	29
340.385	1	40
340.556	1	38
340.727	1	30
340.898	1	44
341.069	1	31
341.240	1	20
341.411	1	48
341.582	1	38
341.753	1	34
341.924	1	31
342.095	1	40
342.266	1	37
342.437	1	40
342.608	1	40
342.779	1	49
342.950	1	32
343.121	1	33
343.292	1	31
343.463	1	42
343.634	1	38
343.805	1	25
343.976	1	28
344.147	1	33
344.318	1	35
344.489	1	28
344.660	1	30
344.831	1	32
345.002	1	32
345.173	1	24
345.344	1	30
345.515	1	25
345.686	1	39
345.857	1	43
346.028	1	33
346.199	1	48
346.370	1	42
346.541	1	25
346.712	1	34
346.883	1	31
347.054	1	38
347.225	1	21
347.396	1	20
347.567	1	42
347.738	1	38
347.909	1	45
348.080	1	34
348.251	1	35
348.422	1	33
348.593	1	26
348.764	1	35
348.935	1	27
349.106	1	30
349.277	1	28
349.448	1	23
349.619	1	22
349.790	1	20
349.961	1	41
350.132	1	23
350.303	1	29
350.474	1	27
350.645	1	26
350.816	1	18
350.987	1	32
351.157	1	21
351.328	1	18
351.499	1	26
351.670	1	25
351.841	1	39
352.012	1	22
352.183	1	18
352.354	1	33
352.525	1	26
352.696	1	28
352.867	1	14
353.038	1	43
353.209	1	29
353.380	1	24
353.551	1	19
353.722	1	10
353.893	1	33
354.064	1	11
354.235	1	18
354.406	1	23
354.576	1	28
354.747	1	19
354.918	1	24
355.089	1	25
355.260	1	19
355.431	1	30
355.602	1	25
355.773	1	-4
355.944	1	19
356.115	1	24
356.286	1	9
356.457	1	26
356.628	1	19
356.799	1	17
356.970	1	17
357.141	1	27
357.311	1	15
357.482	1	18
357.653	1	12
357.824	1	12
357.995	1	27
358.166	1	19
358.337	1	5
358.508	1	17
358.679	1	9
358.850	1	31
359.021	1	12
359.192	1	19
359.363	1	19
359.533	1	18
359.704	1	26
359.875	1	7
360.046	1	16
360.217	1	20
360.388	1	21
360.559	1	18
360.730	1	16
360.901	1	14
361.072	1	22
361.243	1	22
361.414	1	14
361.584	1	27
361.755	1	15
361.926	1	11
362.097	1	29
362.268	1	9
362.439	1	17
362.610	1	13
362.781	1	16
362.952	1	6
363.123	1	14
363.293	1	10
363.464	1	8
363.635	1	14
363.806	1	11
363.977	1	14
364.148	1	13
364.319	1	9
364.490	1	14
364.661	1	14
364.832	1	15
365.002	1	11
365.173	1	6
365.344	1	5
365.515	1	9
365.686	1	-10
365.857	1	9
366.028	1	7
366.199	1	2
366.370	1	15
366.540	1	7
366.711	1	12
366.882	1	16
367.053	1	9
367.224	1	12
367.395	1	16
367.566	1	13
367.737	1	13
367.908	1	-3
368.078	1	6
368.249	1	14
368.420	1	13
368.591	1	18
368.762	1	-2
368.933	1	6
369.104	1	10
369.274	1	2
369.445	1	4
369.616	1	-3
369.787	1	6
369.958	1	8
370.129	1	-3
370.300	1	6
370.471	1	7
370.641	1	1
370.812	1	0
370.983	1	4
371.154	1	10
371.325	1	1
371.496	1	4
371.667	1	3
371.837	1	7
372.008	1	-5
372.179	1	10
372.350	1	5
372.521	1	10
372.692	1	3
372.863	1	14
373.033	1	14
373.204	1	4
373.375	1	7
373.546	1	8
373.717	1	-1
373.888	1	8
374.059	1	1
374.229	1	5
374.400	1	10
374.571	1	5
374.742	1	9
374.913	1	2
375.084	1	6
375.254	1	10
375.425	1	8
375.596	1	9
375.767	1	2
375.938	1	0
376.109	1	-6
376.279	1	2
376.450	1	2
376.621	1	1
376.792	1	-5
376.963	1	17
377.134	1	2
377.304	1	8
377.475	1	-2
377.646	1	7
377.817	1	-3
377.988	1	5
378.159	1	6
378.329	1	14
378.500	1	-1
378.671	1	5
378.842	1	10
379.013	1	6
379.184	1	2
379.354	1	13
379.525	1	3
379.696	1	7
379.867	1	1
380.038	1	12
380.209	1	-8
380.379	1	-3
380.550	1	13
380.721	1	0
380.892	1	9
381.063	1	7
381.233	1	11
381.404	1	13
381.575	1	11
381.746	1	-1
381.917	1	9
382.087	1	6
382.258	1	7
382.429	1	11
382.600	1	8
382.771	1	-2
382.941	1	3
383.112	1	7
383.283	1	7
383.454	1	12
383.625	1	14
383.795	1	0
383.966	1	2
384.137	1	4
384.308	1	9
384.479	1	14
384.649	1	6
384.820	1	9
384.991	1	6
385.162	1	13
385.333	1	8
385.503	1	7
385.674	1	17
385.845	1	3
386.016	1	11
386.187	1	9
386.357	1	6
386.528	1	11
386.699	1	7
386.870	1	13
387.041	1	5
387.211	1	15
387.382	1	8
387.553	1	4
387.724	1	11
387.894	1	12
388.065	1	8
388.236	1	13
388.407	1	19
388.578	1	10
388.748	1	16
388.919	1	2
389.090	1	10
389.261	1	14
389.431	1	2
389.602	1	20
389.773	1	11
389.944	1	0
390.114	1	5
390.285	1	6
390.456	1	21
390.627	1	14
390.798	1	12
390.968	1	6
391.139	1	15
391.310	1	8
391.481	1	7
391.651	1	19
391.822	1	7
391.993	1	3
392.164	1	16
392.334	1	21
392.505	1	4
392.676	1	14
392.847	1	22
393.017	1	12
393.188	1	5
393.359	1	16
393.530	1	22
393.700	1	24
393.871	1	7
394.042	1	12
394.213	1	11
394.383	1	12
394.554	1	10
394.725	1	11
394.896	1	8
395.066	1	-4
395.237	1	8
395.408	1	18
395.579	1	15
395.749	1	17
395.920	1	14
396.091	1	18
396.262	1	14
396.432	1	22
396.603	1	18
396.774	1	0
396.945	1	16
397.115	1	18
397.286	1	22
397.457	1	18
397.627	1	12
397.798	1	24
397.969	1	10
398.140	1	24
398.310	1	15
398.481	1	3
398.652	1	5
398.823	1	19
398.993	1	26
399.164	1	21
399.335	1	5
399.505	1	30
399.676	1	22
399.847	1	12
400.018	1	21
400.188	1	22
400.359	1	15
400.530	1	12
400.700	1	8
400.871	1	15
401.042	1	16
401.213	1	24
401.383	1	29
401.554	1	15
401.725	1	21
401.895	1	17
402.066	1	29
402.237	1	25
402.408	1	18
402.578	1	20
402.749	1	22
402.920	1	40
403.090	1	20
403.261	1	2
403.432	1	28
403.603	1	23
403.773	1	26
403.944	1	25
404.115	1	9
404.285	1	28
404.456	1	33
404.627	1	24
404.797	1	39
404.968	1	24
405.139	1	15
405.310	1	35
405.480	1	30
405.651	1	32
405.822	1	28
405.992	1	25
406.163	1	24
406.334	1	29
406.504	1	22
406.675	1	39
406.846	1	29
407.016	1	31
407.187	1	15
407.358	1	41
407.528	1	24
407.699	1	32
407.870	1	29
408.041	1	23
408.211	1	19
408.382	1	30
408.553	1	36
408.723	1	33
408.894	1	29
409.065	1	21
409.235	1	30
409.406	1	31
409.577	1	28
409.747	1	29
409.918	1	40
410.089	1	39
410.259	1	26
410.430	1	34
410.601	1	37
410.771	1	24
410.942	1	27
411.113	1	35
411.283	1	26
411.454	1	11
411.625	1	35
411.795	1	40
411.966	1	29
412.137	1	28
412.307	1	30
412.478	1	26
412.649	1	29
412.819	1	32
412.990	1	22
413.161	1	28
413.331	1	41
413.502	1	42
413.672	1	40
413.843	1	34
414.014	1	23
414.184	1	36
414.355	1	42
414.526	1	38
414.696	1	37
414.867	1	26
415.038	1	45
415.208	1	33
415.379	1	44
415.550	1	40
415.720	1	31
415.891	1	52
416.062	1	31
416.232	1	34
416.403	1	44
416.573	1	30
416.744	1	31
416.915	1	32
417.085	1	43
417.256	1	51
417.427	1	45
417.597	1	47
417.768	1	29
417.939	1	43
418.109	1	32
418.280	1	37
418.450	1	31
418.621	1	33
418.792	1	32
418.962	1	37
419.133	1	32
419.304	1	41
419.474	1	46
419.645	1	46
419.815	1	42
419.986	1	40
420.157	1	34
420.327	1	30
420.498	1	39
420.669	1	40
420.839	1	24
421.010	1	42
421.180	1	47
421.351	1	34
421.522	1	24
421.692	1	36
421.863	1	38
422.033	1	39
422.204	1	35
422.375	1	44
422.545	1	33
422.716	1	30
422.886	1	40
423.057	1	45
423.228	1	49
423.398	1	30
423.569	1	36
423.740	1	39
423.910	1	37
424.081	1	38
424.251	1	36
424.422	1	30
424.593	1	41
424.763	1	26
424.934	1	56
425.104	1	53
425.275	1	32
425.445	1	29
425.616	1	46
425.787	1	41
425.957	1	51
426.128	1	35
426.298	1	42
426.469	1	31
426.640	1	45
426.810	1	43
426.981	1	46
427.151	1	38
427.322	1	41
427.493	1	35
427.663	1	37
427.834	1	47
428.004	1	33
428.175	1	30
428.345	1	32
428.516	1	36
428.687	1	49
428.857	1	47
429.028	1	45
429.198	1	28
429.369	1	36
429.540	1	45
429.710	1	29
429.881	1	17
430.051	1	50
430.222	1	32
430.392	1	34
430.563	1	38
430.734	1	30
430.904	1	45
431.075	1	36
431.245	1	43
431.416	1	50
431.586	1	29
431.757	1	45
431.927	1	44
432.098	1	50
432.269	1	39
432.439	1	40
432.610	1	36
432.780	1	47
432.951	1	25
433.121	1	42
433.292	1	29
433.462	1	43
433.633	1	41
433.804	1	30
433.974	1	35
434.145	1	41
434.315	1	35
434.486	1	43
434.656	1	39
434.827	1	36
434.997	1	40
435.168	1	41
435.339	1	36
435.509	1	48
435.680	1	38
435.850	1	37
436.021	1	46
436.191	1	48
436.362	1	43
436.532	1	50
436.703	1	44
436.873	1	33
437.044	1	41
437.214	1	32
437.385	1	35
437.556	1	33
437.726	1	36
437.897	1	31
438.067	1	31
438.238	1	36
438.408	1	42
438.579	1	43
438.749	1	41
438.920	1	36
439.090	1	35
439.261	1	42
439.431	1	42
439.602	1	38
439.772	1	43
439.943	1	38
440.113	1	41
440.284	1	35
440.455	1	44
440.625	1	36
440.796	1	32
440.966	1	49
441.137	1	40
441.307	1	38
441.478	1	42
441.648	1	27
441.819	1	37
441.989	1	41
442.160	1	40
442.330	1	35
442.501	1	45
442.671	1	34
442.842	1	34
443.012	1	31
443.183	1	31
443.353	1	49
443.524	1	29
443.694	1	28
443.865	1	26
444.035	1	36
444.206	1	31
444.376	1	39
444.547	1	51
444.717	1	34
444.888	1	37
445.058	1	48
445.229	1	31
445.399	1	32
445.570	1	38
445.740	1	36
445.911	1	37
446.081	1	27
446.252	1	31
446.422	1	43
446.593	1	36
446.763	1	34
446.934	1	38
447.104	1	29
447.275	1	36
447.445	1	38
447.616	1	43
447.786	1	39
447.957	1	37
448.127	1	28
448.298	1	30
448.468	1	45
448.639	1	37
448.809	1	36
448.979	1	42
449.150	1	23
449.320	1	35
449.491	1	40
449.661	1	40
449.832	1	34
450.002	1	38
450.173	1	33
450.343	1	36
450.514	1	32
450.684	1	32
450.855	1	43
451.025	1	40
451.196	1	35
451.366	1	43
451.537	1	29
451.707	1	33
451.878	1	32
452.048	1	42
452.218	1	29
452.389	1	36
452.559	1	19
452.730	1	37
452.900	1	47
453.071	1	31
453.241	1	41
453.412	1	36
453.582	1	32
453.753	1	17
453.923	1	42
454.093	1	42
454.264	1	33
454.434	1	26
454.605	1	25
454.775	1	27
454.946	1	39
455.116	1	34
455.287	1	41
455.457	1	37
455.628	1	32
455.798	1	31
455.968	1	32
456.139	1	31
456.309	1	31
456.480	1	29
456.650	1	30
456.821	1	29
456.991	1	22
457.161	1	35
457.332	1	26
457.502	1	39
457.673	1	34
457.843	1	38
458.014	1	24
458.184	1	41
458.355	1	31
458.525	1	27
458.695	1	34
458.866	1	27
459.036	1	29
459.207	1	25
459.377	1	33
459.548	1	25
459.718	1	23
459.888	1	24
460.059	1	28
460.229	1	28
460.400	1	11
460.570	1	31
460.740	1	33
460.911	1	28
461.081	1	43
461.252	1	28
461.422	1	34
461.593	1	25
461.763	1	38
461.933	1	36
462.104	1	26
462.274	1	32
462.445	1	26
462.615	1	22
462.785	1	30
462.956	1	21
463.126	1	34
463.297	1	28
463.467	1	27
463.638	1	26
463.808	1	29
463.978	1	27
464.149	1	30
464.319	1	13
464.490	1	24
464.660	1	27
464.830	1	34
465.001	1	34
465.171	1	29
465.342	1	19
465.512	1	15
465.682	1	29
465.853	1	16
466.023	1	24
466.194	1	24
466.364	1	21
466.534	1	27
466.705	1	24
466.875	1	34
467.045	1	17
467.216	1	15
467.386	1	27
467.557	1	18
467.727	1	28
467.897	1	18
468.068	1	26
468.238	1	22
468.409	1	20
468.579	1	36
468.749	1	16
468.920	1	23
469.090	1	25
469.260	1	24
469.431	1	13
469.601	1	26
469.772	1	25
469.942	1	21
470.112	1	26
470.283	1	20
470.453	1	15
470.623	1	26
470.794	1	10
470.964	1	30
471.135	1	20
471.305	1	18
471.475	1	22
471.646	1	24
471.816	1	18
471.986	1	11
472.157	1	25
472.327	1	18
472.497	1	20
472.668	1	27
472.838	1	22
473.009	1	19
473.179	1	34
473.349	1	10
473.520	1	12
473.690	1	24
473.860	1	12
474.031	1	25
474.201	1	22
474.371	1	27
474.542	1	36
474.712	1	21
474.882	1	22
475.053	1	18
475.223	1	11
475.394	1	20
475.564	1	5
475.734	1	22
475.905	1	25
476.075	1	19
476.245	1	13
476.416	1	19
476.586	1	6
476.756	1	24
476.927	1	18
477.097	1	24
477.267	1	9
477.438	1	7
477.608	1	8
477.778	1	22
477.949	1	20
478.119	1	14
478.289	1	11
478.460	1	21
478.630	1	26
478.800	1	23
478.971	1	9
479.141	1	1
479.311	1	18
479.482	1	4
479.652	1	25
479.822	1	20
479.993	1	20
480.163	1	20
480.333	1	8
480.504	1	23
480.674	1	12
480.844	1	16
481.015	1	12
481.185	1	18
481.355	1	18
481.525	1	13
481.696	1	29
481.866	1	10
482.036	1	10
482.207	1	15
482.377	1	10
482.547	1	10
482.718	1	28
482.888	1	11
483.058	1	16
483.229	1	31
483.399	1	7
483.569	1	16
483.740	1	7
483.910	1	11
484.080	1	13
484.250	1	6
484.421	1	13
484.591	1	18
484.761	1	18
484.932	1	12
485.102	1	24
485.272	1	16
485.443	1	12
485.613	1	16
485.783	1	24
485.953	1	7
486.124	1	11
486.294	1	19
486.464	1	14
486.635	1	14
486.805	1	19
486.975	1	13
487.146	1	5
487.316	1	5
487.486	1	13
487.656	1	33
487.827	1	11
487.997	1	23
488.167	1	15
488.338	1	13
488.508	1	4
488.678	1	20
488.848	1	14
489.019	1	6
489.189	1	6
489.359	1	14
489.529	1	10
489.700	1	19
489.870	1	13
490.040	1	24
490.211	1	10
490.381	1	15
490.551	1	9
490.721	1	8
490.892	1	13
491.062	1	11
491.232	1	23
491.402	1	4
491.573	1	9
491.743	1	3
491.913	1	14
492.084	1	18
492.254	1	13
492.424	1	13
492.594	1	13
492.765	1	6
492.935	1	8
493.105	1	-1
493.275	1	13
493.446	1	12
493.616	1	19
493.786	1	15
493.956	1	4
494.127	1	15
494.297	1	5
494.467	1	4
494.637	1	2
494.808	1	10
494.978	1	5
495.148	1	13
495.318	1	2
495.489	1	13
495.659	1	4
495.829	1	14
495.999	1	21
496.170	1	1
496.340	1	16
496.510	1	8
496.680	1	18
496.851	1	14
497.021	1	5
497.191	1	2
497.361	1	15
497.532	1	8
497.702	1	12
497.872	1	7
498.042	1	3
498.213	1	2
498.383	1	3
498.553	1	14
498.723	1	12
498.894	1	11
499.064	1	5
499.234	1	8
499.404	1	13
499.574	1	16
499.745	1	-3
499.915	1	0
500.085	1	-2
500.255	1	6
500.426	1	7
500.596	1	7
500.766	1	14
500.936	1	15
501.106	1	5
501.277	1	9
501.447	1	8
501.617	1	7
501.787	1	7
501.958	1	4
502.128	1	5
502.298	1	-2
502.468	1	5
502.638	1	7
502.809	1	10
502.979	1	10
503.149	1	21
503.319	1	1
503.489	1	12
503.660	1	-2
503.830	1	0
504.000	1	4
504.170	1	12
504.340	1	9
504.511	1	0
504.681	1	15
504.851	1	14
505.021	1	12
505.192	1	4
505.362	1	5
505.532	1	11
505.702	1	6
505.872	1	5
506.043	1	6
506.213	1	7
506.383	1	12
506.553	1	9
506.723	1	10
506.893	1	4
507.064	1	13
507.234	1	7
507.404	1	1
507.574	1	129
507.744	1	185
507.915	1	41
508.085	1	12
508.255	1	16
508.425	1	-3
508.595	1	17
508.766	1	7
508.936	1	4
509.106	1	8
509.276	1	3
509.446	1	15
509.616	1	2
509.787	1	16
509.957	1	-1
510.127	1	3
510.297	1	4
510.467	1	21
510.638	1	5
510.808	1	9
510.978	1	12
511.148	1	9
511.318	1	10
511.488	1	14
511.659	1	2
511.829	1	10
511.999	1	2
512.169	1	9
512.339	1	-2
512.509	1	9
512.680	1	4
512.850	1	8
513.020	1	8
513.190	1	17
513.360	1	4
513.530	1	5
513.700	1	0
513.871	1	8
514.041	1	1
514.211	1	9
514.381	1	7
514.551	1	-1
514.721	1	4
514.892	1	16
515.062	1	-2
515.232	1	8
515.402	1	7
515.572	1	2
515.742	1	1
515.912	1	14
516.083	1	15
516.253	1	0
516.423	1	6
516.593	1	-1
516.763	1	8
516.933	1	3
517.104	1	4
517.274	1	6
517.444	1	10
517.614	1	1
517.784	1	7
517.954	1	-7
518.124	1	10
518.294	1	4
518.465	1	-1
518.635	1	4
518.805	1	12
518.975	1	-2
519.145	1	18
519.315	1	9
519.485	1	1
519.656	1	7
519.826	1	3
519.996	1	-6
520.166	1	8
520.336	1	14
520.506	1	-7
520.676	1	7
520.846	1	4
521.017	1	8
521.187	1	11
521.357	1	4
521.527	1	3
521.697	1	6
521.867	1	-5
522.037	1	1
522.207	1	20
522.377	1	14
522.548	1	16
522.718	1	0
522.888	1	7
523.058	1	6
523.228	1	9
523.398	1	6
523.568	1	2
523.738	1	14
523.909	1	12
524.079	1	1
524.249	1	6
524.419	1	5
524.589	1	9
524.759	1	10
524.929	1	5
525.099	1	2
525.269	1	6
525.439	1	4
525.610	1	18
525.780	1	0
525.950	1	11
526.120	1	2
526.290	1	4
526.460	1	8
526.630	1	-3
526.800	1	13
526.970	1	-1
527.140	1	3
527.311	1	6
527.481	1	1
527.651	1	13
527.821	1	9
527.991	1	5
528.161	1	18
528.331	1	6
528.501	1	-3
528.671	1	1
528.841	1	1
529.011	1	7
529.181	1	18
529.352	1	1
529.522	1	15
529.692	1	12
529.862	1	4
530.032	1	0
530.202	1	7
530.372	1	7
530.542	1	1
530.712	1	11
530.882	1	11
531.052	1	7
531.222	1	8
531.392	1	3
531.563	1	7
531.733	1	1
531.903	1	3
532.073	1	4
532.243	1	11
532.413	1	11
532.583	1	12
532.753	1	14
532.923	1	0
533.093	1	5
533.263	1	5
533.433	1	3
533.603	1	10
533.773	1	3
533.943	1	15
534.113	1	20
534.284	1	8
534.454	1	7
534.624	1	1
534.794	1	2
534.964	1	11
535.134	1	8
535.304	1	3
535.474	1	6
535.644	1	-5
535.814	1	15
535.984	1	20
536.154	1	-1
536.324	1	3
536.494	1	4
536.664	1	3
536.834	1	9
537.004	1	10
537.174	1	4
537.344	1	13
537.514	1	2
537.685	1	3
537.855	1	5
538.025	1	-5
538.195	1	7
538.365	1	3
538.535	1	-1
538.705	1	5
538.875	1	5
539.045	1	1
539.215	1	6
539.385	1	-3
539.555	1	11
539.725	1	2
539.895	1	-9
540.065	1	8
540.235	1	5
540.405	1	9
540.575	1	9
540.745	1	9
540.915	1	0
541.085	1	4
541.255	1	10
541.425	1	14
541.595	1	4
541.765	1	-1
541.935	1	4
542.105	1	7
542.275	1	5
542.445	1	7
542.615	1	14
542.785	1	4
542.955	1	7
543.125	1	-1
543.295	1	-1
543.465	1	0
543.635	1	1
543.805	1	-2
543.975	1	8
544.145	1	6
544.315	1	-3
544.485	1	2
544.655	1	13
544.825	1	6
544.995	1	14
545.165	1	5
545.335	1	0
545.505	1	0
545.675	1	6
545.845	1	3
546.015	1	11
546.185	1	5
546.355	1	12
546.525	1	5
546.695	1	2
546.865	1	2
547.035	1	1
547.205	1	11
547.375	1	11
547.545	1	3
547.715	1	11
547.885	1	0
548.055	1	12
548.225	1	12
548.395	1	-2
548.565	1	14
548.735	1	7
548.905	1	7
549.075	1	2
549.245	1	0
549.415	1	7
549.585	1	3
549.755	1	-2
549.925	1	13
550.095	1	3
550.265	1	5
550.435	1	-3
550.605	1	10
550.775	1	7
550.945	1	8
551.115	1	1
551.285	1	1
551.455	1	3
551.625	1	-5
551.795	1	-6
551.965	1	8
552.135	1	1
552.305	1	0
552.475	1	14
552.645	1	8
552.815	1	4
552.985	1	18
553.155	1	5
553.325	1	-1
553.495	1	10
553.665	1	2
553.835	1	3
554.004	1	3
554.174	1	1
554.344	1	0
554.514	1	-1
554.684	1	-2
554.854	1	6
555.024	1	7
555.194	1	6
555.364	1	7
555.534	1	14
555.704	1	14
555.874	1	4
556.044	1	-6
556.214	1	8
556.384	1	5
556.554	1	-2
556.724	1	4
556.894	1	0
557.064	1	17
557.234	1	16
557.404	1	7
557.573	1	-2
557.743	1	9
557.913	1	5
558.083	1	4
558.253	1	1
558.423	1	2
558.593	1	7
558.763	1	4
558.933	1	7
559.103	1	6
559.273	1	-3
559.443	1	-7
559.613	1	4
559.783	1	3
559.953	1	-6
560.122	1	1
560.292	1	6
560.462	1	3
560.632	1	-1
560.802	1	12
560.972	1	0
561.142	1	5
561.312	1	-4
561.482	1	0
561.652	1	1
561.822	1	7
561.992	1	11
562.162	1	3
562.331	1	20
562.501	1	6
562.671	1	15
562.841	1	0
563.011	1	13
563.181	1	-2
563.351	1	14
563.521	1	4
563.691	1	7
563.861	1	8
564.031	1	1
564.201	1	3
564.370	1	1
564.540	1	2
564.710	1	-5
564.880	1	6
565.050	1	6
565.220	1	10
565.390	1	14
565.560	1	10
565.730	1	6
565.900	1	-3
566.069	1	-1
566.239	1	10
566.409	1	2
566.579	1	-8
566.749	1	0
566.919	1	-2
567.089	1	6
567.259	1	5
567.429	1	16
567.599	1	6
567.768	1	4
567.938	1	4
568.108	1	0
568.278	1	12
568.448	1	-3
568.618	1	15
568.788	1	2
568.958	1	7
569.128	1	9
569.297	1	8
569.467	1	10
569.637	1	-2
569.807	1	22
569.977	1	-1
570.147	1	-2
570.317	1	-2
570.487	1	9
570.656	1	3
570.826	1	-3
570.996	1	7
571.166	1	5
571.336	1	-11
571.506	1	11
571.676	1	-1
571.846	1	3
572.015	1	6
572.185	1	4
572.355	1	7
572.525	1	4
572.695	1	-1
572.865	1	1
573.035	1	0
573.205	1	10
573.374	1	6
573.544	1	8
573.714	1	3
573.884	1	6
574.054	1	18
574.224	1	5
574.394	1	-2
574.563	1	-4
574.733	1	9
574.903	1	-4
575.073	1	7
575.243	1	11
575.413	1	-6
575.583	1	4
575.752	1	3
575.922	1	2
576.092	1	2
576.262	1	6
576.432	1	5
576.602	1	11
576.772	1	4
576.941	1	-3
577.111	1	11
577.281	1	23
577.451	1	-1
577.621	1	13
577.791	1	-3
577.960	1	-2
578.130	1	1
578.300	1	-5
578.470	1	7
578.640	1	13
578.810	1	6
578.979	1	1
579.149	1	9
579.319	1	6
579.489	1	5
579.659	1	-1
579.829	1	1
579.998	1	-1
580.168	1	0
580.338	1	7
580.508	1	14
580.678	1	2
580.848	1	8
581.017	1	4
581.187	1	7
581.357	1	4
581.527	1	-2
581.697	1	-14
581.867	1	6
582.036	1	5
582.206	1	13
582.376	1	5
582.546	1	7
582.716	1	10
582.885	1	2
583.055	1	5
583.225	1	0
583.395	1	5
583.565	1	1
583.735	1	-5
583.904	1	0
584.074	1	2
584.244	1	0
584.414	1	-4
584.584	1	5
584.753	1	-10
584.923	1	-6
585.093	1	9
585.263	1	1
585.433	1	0
585.602	1	17
585.772	1	6
585.942	1	6
586.112	1	2
586.282	1	11
586.451	1	19
586.621	1	0
586.791	1	18
586.961	1	9
587.131	1	11
587.300	1	6
587.470	1	-4
587.640	1	4
587.810	1	-2
587.980	1	6
588.149	1	9
588.319	1	14
588.489	1	-4
588.659	1	7
588.829	1	11
588.998	1	16
589.168	1	14
589.338	1	3
589.508	1	7
589.677	1	7
589.847	1	2
590.017	1	6
590.187	1	-3
590.357	1	11
590.526	1	-2
590.696	1	2
590.866	1	-18
591.036	1	8
591.205	1	5
591.375	1	3
591.545	1	19
591.715	1	-9
591.885	1	5
592.054	1	-5
592.224	1	7
592.394	1	12
592.564	1	8
592.733	1	6
592.903	1	15
593.073	1	4
593.243	1	11
593.412	1	2
593.582	1	0
593.752	1	7
593.922	1	14
594.091	1	4
594.261	1	9
594.431	1	11
594.601	1	4
594.771	1	-2
594.940	1	12
595.110	1	13
595.280	1	12
595.450	1	24
595.619	1	19
595.789	1	-1
595.959	1	-2
596.129	1	11
596.298	1	5
596.468	1	2
596.638	1	1
596.808	1	14
596.977	1	11
597.147	1	9
597.317	1	10
597.487	1	-2
597.656	1	-5
597.826	1	9
597.996	1	8
598.166	1	11
598.335	1	8
598.505	1	17
598.675	1	6
598.844	1	11
599.014	1	-5
599.184	1	4
599.354	1	14
599.523	1	11
599.693	1	16
599.863	1	3
600.033	1	-3
600.202	1	16
600.372	1	16
600.542	1	18
600.712	1	4
600.881	1	18
601.051	1	8
601.221	1	12
601.390	1	-1
601.560	1	8
601.730	1	3
601.900	1	9
602.069	1	9
602.239	1	6
602.409	1	3
602.578	1	14
602.748	1	-1
602.918	1	15
603.088	1	7
603.257	1	15
603.427	1	9
603.597	1	10
603.767	1	16
603.936	1	4
604.106	1	16
604.276	1	9
604.445	1	0
604.615	1	7
604.785	1	29
604.954	1	13
605.124	1	19
605.294	1	18
605.464	1	13
605.633	1	19
605.803	1	8
605.973	1	8
606.142	1	12
606.312	1	14
606.482	1	4
606.652	1	5
606.821	1	13
606.991	1	17
607.161	1	19
607.330	1	18
607.500	1	13
607.670	1	17
607.839	1	12
608.009	1	4
608.179	1	5
608.348	1	8
608.518	1	27
608.688	1	-4
608.858	1	16
609.027	1	24
609.197	1	13
609.367	1	12
609.536	1	8
609.706	1	17
609.876	1	4
610.045	1	14
610.215	1	18
610.385	1	21
610.554	1	24
610.724	1	4
610.894	1	15
611.063	1	13
611.233	1	9
611.403	1	18
611.572	1	13
611.742	1	15
611.912	1	14
612.081	1	13
612.251	1	11
612.421	1	13
612.590	1	11
612.760	1	16
612.930	1	11
613.099	1	26
613.269	1	4
613.439	1	14
613.608	1	24
613.778	1	21
613.948	1	15
614.117	1	17
614.287	1	-6
614.457	1	6
614.626	1	19
614.796	1	11
614.966	1	12
615.135	1	23
615.305	1	20
615.475	1	24
615.644	1	17
615.814	1	19
615.984	1	21
616.153	1	12
616.323	1	0
616.493	1	23
616.662	1	20
616.832	1	12
617.002	1	22
617.171	1	21
617.341	1	8
617.511	1	10
617.680	1	19
617.850	1	22
618.019	1	13
618.189	1	27
618.359	1	7
618.528	1	13
618.698	1	35
618.868	1	17
619.037	1	10
619.207	1	16
619.377	1	21
619.546	1	8
619.716	1	15
619.885	1	19
620.055	1	22
620.225	1	9
620.394	1	17
620.564	1	31
620.734	1	20
620.903	1	34
621.073	1	18
621.242	1	27
621.412	1	21
621.582	1	17
621.751	1	6
621.921	1	15
622.091	1	16
622.260	1	12
622.430	1	26
622.599	1	23
622.769	1	13
622.939	1	14
623.108	1	19
623.278	1	14
623.448	1	12
623.617	1	16
623.787	1	26
623.956	1	27
624.126	1	19
624.296	1	6
624.465	1	29
624.635	1	7
624.804	1	22
624.974	1	19
625.144	1	19
625.313	1	24
625.483	1	26
625.652	1	18
625.822	1	27
625.992	1	24
626.161	1	19
626.331	1	35
626.501	1	11
626.670	1	25
626.840	1	26
627.009	1	25
627.179	1	29
627.348	1	30
627.518	1	19
627.688	1	13
627.857	1	22
628.027	1	29
628.196	1	22
628.366	1	32
628.536	1	38
628.705	1	21
628.875	1	24
629.044	1	18
629.214	1	23
629.384	1	21
629.553	1	24
629.723	1	23
629.892	1	21
630.062	1	29
630.232	1	8
630.401	1	32
630.571	1	23
630.740	1	18
630.910	1	34
631.079	1	44
631.249	1	30
631.419	1	24
631.588	1	22
631.758	1	21
631.927	1	29
632.097	1	28
632.266	1	19
632.436	1	40
632.606	1	30
632.775	1	23
632.945	1	17
633.114	1	27
633.284	1	20
633.453	1	26
633.623	1	23
633.793	1	29
633.962	1	26
634.132	1	3
634.301	1	24
634.471	1	15
634.640	1	17
634.810	1	22
634.979	1	24
635.149	1	23
635.319	1	22
635.488	1	28
635.658	1	29
635.827	1	18
635.997	1	27
636.166	1	24
636.336	1	13
636.505	1	18
636.675	1	28
636.845	1	22
637.014	1	25
637.184	1	22
637.353	1	42
637.523	1	22
637.692	1	25
637.862	1	28
638.031	1	14
638.201	1	28
638.370	1	29
638.540	1	25
638.710	1	24
638.879	1	31
639.049	1	22
639.218	1	35
639.388	1	27
639.557	1	17
639.727	1	25
639.896	1	33
640.066	1	27
640.235	1	9
640.405	1	26
640.574	1	29
640.744	1	19
640.914	1	12
641.083	1	41
641.253	1	21
641.422	1	29
641.592	1	11
641.761	1	25
641.931	1	31
642.100	1	16
642.270	1	22
642.439	1	34
642.609	1	25
642.778	1	28
642.948	1	24
643.117	1	15
643.287	1	31
643.456	1	29
643.626	1	18
643.795	1	31
643.965	1	22
644.134	1	24
644.304	1	21
644.473	1	28
644.643	1	14
644.812	1	28
644.982	1	26
645.151	1	14
645.321	1	32
645.490	1	14
645.660	1	29
645.829	1	24
645.999	1	21
646.168	1	30
646.338	1	20
646.507	1	22
646.677	1	22
646.846	1	21
647.016	1	20
647.185	1	26
647.355	1	29
647.524	1	16
647.694	1	39
647.863	1	24
648.033	1	25
648.202	1	29
648.372	1	19
648.541	1	35
648.711	1	20
648.880	1	13
649.050	1	30
649.219	1	19
649.389	1	20
649.558	1	36
649.728	1	27
649.897	1	22
650.067	1	21
650.236	1	22
650.406	1	29
650.575	1	19
650.745	1	34
650.914	1	32
651.084	1	11
651.253	1	25
651.423	1	29
651.592	1	16
651.762	1	32
651.931	1	34
652.101	1	26
652.270	1	15
652.440	1	26
652.609	1	24
652.778	1	38
652.948	1	18
653.117	1	24
653.287	1	16
653.456	1	23
653.626	1	27
653.795	1	30
653.965	1	34
654.134	1	26
654.304	1	24
654.473	1	14
654.643	1	28
654.812	1	31
654.982	1	19
655.151	1	25
655.320	1	34
655.490	1	12
655.659	1	40
655.829	1	25
655.998	1	15
656.168	1	15
656.337	1	28
656.507	1	14
656.676	1	26
656.846	1	29
657.015	1	12
657.184	1	16
657.354	1	24
657.523	1	15
657.693	1	23
657.862	1	9
658.032	1	27
658.201	1	22
658.371	1	16
658.540	1	28
658.709	1	19
658.879	1	30
659.048	1	26
659.218	1	13
659.387	1	26
659.557	1	33
659.726	1	16
659.895	1	12
660.065	1	15
660.234	1	7
660.404	1	23
660.573	1	12
660.743	1	13
660.912	1	13
661.081	1	10
661.251	1	22
661.420	1	13
661.590	1	9
661.759	1	11
661.929	1	19
662.098	1	25
662.267	1	11
662.437	1	16
662.606	1	12
662.776	1	20
662.945	1	17
663.115	1	20
663.284	1	21
663.453	1	11
663.623	1	0
663.792	1	16
663.962	1	17
664.131	1	18
664.300	1	17
664.470	1	15
664.639	1	19
664.809	1	10
664.978	1	21
665.148	1	17
665.317	1	16
665.486	1	5
665.656	1	34
665.825	1	21
665.995	1	14
666.164	1	10
666.333	1	18
666.503	1	24
666.672	1	-4
666.842	1	20
667.011	1	16
667.180	1	14
667.350	1	16
667.519	1	21
667.689	1	4
667.858	1	12
668.027	1	27
668.197	1	24
668.366	1	19
668.536	1	15
668.705	1	10
668.874	1	18
669.044	1	12
669.213	1	19
669.382	1	19
669.552	1	8
669.721	1	17
669.891	1	8
670.060	1	18
670.229	1	17
670.399	1	21
670.568	1	9
670.738	1	19
670.907	1	5
671.076	1	16
671.246	1	18
671.415	1	7
671.584	1	22
671.754	1	15
671.923	1	25
672.093	1	17
672.262	1	18
672.431	1	6
672.601	1	11
672.770	1	9
672.939	1	12
673.109	1	10
673.278	1	7
673.448	1	7
673.617	1	11
673.786	1	11
