325.333	1	138
325.504	1	132
325.675	1	127
325.846	1	131
326.017	1	143
326.188	1	143
326.359	1	150
326.531	1	143
326.702	1	137
326.873	1	170
327.044	1	162
327.215	1	136
327.386	1	155
327.557	1	173
327.728	1	153
327.899	1	159
328.070	1	165
328.241	1	170
328.412	1	171
328.583	1	177
328.754	1	164
328.926	1	180
329.097	1	175
329.268	1	186
329.439	1	171
329.610	1	176
329.781	1	174
329.952	1	178
330.123	1	188
330.294	1	191
330.465	1	196
330.636	1	196
330.807	1	196
330.978	1	183
331.149	1	196
331.320	1	204
331.492	1	196
331.663	1	195
331.834	1	202
332.005	1	206
332.176	1	203
332.347	1	214
332.518	1	197
332.689	1	210
332.860	1	196
333.031	1	193
333.202	1	214
333.373	1	203
333.544	1	219
333.715	1	203
333.886	1	199
334.057	1	217
334.228	1	196
334.399	1	215
334.570	1	201
334.741	1	221
334.912	1	226
335.084	1	216
335.255	1	223
335.426	1	207
335.597	1	228
335.768	1	203
335.939	1	211
336.110	1	233
336.281	1	214
336.452	1	236
336.623	1	244
336.794	1	210
336.965	1	216
337.136	1	229
337.307	1	238
337.478	1	210
337.649	1	229
337.820	1	236
337.991	1	238
338.162	1	234
338.333	1	222
338.504	1	223
338.675	1	215
338.846	1	236
339.017	1	222
339.188	1	239
339.359	1	237
339.530	1	240
339.701	1	239
339.872	1	235
340.043	1	232
340.214	1	235
340.385	1	226
340.556	1	250
340.727	1	239
340.898	1	237
341.069	1	227
341.240	1	219
341.411	1	229
341.582	1	232
341.753	1	227
341.924	1	240
342.095	1	232
342.266	1	215
342.437	1	237
342.608	1	226
342.779	1	240
342.950	1	229
343.121	1	229
343.292	1	235
343.463	1	240
343.634	1	220
343.805	1	226
343.976	1	227
344.147	1	215
344.318	1	220
344.489	1	230
344.660	1	234
344.831	1	229
345.002	1	222
345.173	1	217
345.344	1	228
345.515	1	228
345.686	1	236
345.857	1	216
346.028	1	232
346.199	1	225
346.370	1	208
346.541	1	230
346.712	1	223
346.883	1	218
347.054	1	212
347.225	1	213
347.396	1	202
347.567	1	230
347.738	1	206
347.909	1	211
348.080	1	213
348.251	1	201
348.422	1	204
348.593	1	200
348.764	1	206
348.935	1	197
349.106	1	192
349.277	1	205
349.448	1	212
349.619	1	201
349.790	1	196
349.961	1	203
350.132	1	199
350.303	1	209
350.474	1	174
350.645	1	206
350.816	1	180
350.987	1	191
351.157	1	181
351.328	1	190
351.499	1	184
351.670	1	194
351.841	1	202
352.012	1	170
352.183	1	180
352.354	1	195
352.525	1	170
352.696	1	188
352.867	1	171
353.038	1	190
353.209	1	172
353.380	1	177
353.551	1	176
353.722	1	170
353.893	1	164
354.064	1	171
354.235	1	174
354.406	1	163
354.576	1	177
354.747	1	169
354.918	1	161
355.089	1	165
355.260	1	155
355.431	1	170
355.602	1	156
355.773	1	147
355.944	1	160
356.115	1	158
356.286	1	149
356.457	1	139
356.628	1	140
356.799	1	156
356.970	1	132
357.141	1	144
357.311	1	151
357.482	1	152
357.653	1	138
357.824	1	133
357.995	1	149
358.166	1	137
358.337	1	145
358.508	1	139
358.679	1	132
358.850	1	138
359.021	1	136
359.192	1	135
359.363	1	130
359.533	1	135
359.704	1	129
359.875	1	132
360.046	1	132
360.217	1	120
360.388	1	122
360.559	1	114
360.730	1	123
360.901	1	118
361.072	1	108
361.243	1	119
361.414	1	116
361.584	1	122
361.755	1	117
361.926	1	101
362.097	1	136
362.268	1	112
362.439	1	122
362.610	1	112
362.781	1	115
362.952	1	110
363.123	1	108
363.293	1	114
363.464	1	99
363.635	1	111
363.806	1	91
363.977	1	101
364.148	1	90
364.319	1	98
364.490	1	98
364.661	1	103
364.832	1	112
365.002	1	108
365.173	1	89
365.344	1	96
365.515	1	89
365.686	1	92
365.857	1	107
366.028	1	84
366.199	1	97
366.370	1	100
366.540	1	97
366.711	1	99
366.882	1	84
367.053	1	91
367.224	1	89
367.395	1	87
367.566	1	93
367.737	1	81
367.908	1	88
368.078	1	85
368.249	1	78
368.420	1	89
368.591	1	84
368.762	1	68
368.933	1	82
369.104	1	88
369.274	1	84
369.445	1	78
369.616	1	71
369.787	1	84
369.958	1	76
370.129	1	70
370.300	1	71
370.471	1	81
370.641	1	64
370.812	1	80
370.983	1	68
371.154	1	78
371.325	1	74
371.496	1	74
371.667	1	81
371.837	1	67
372.008	1	73
372.179	1	85
372.350	1	74
372.521	1	90
372.692	1	73
372.863	1	74
373.033	1	87
373.204	1	72
373.375	1	69
373.546	1	73
373.717	1	74
373.888	1	73
374.059	1	71
374.229	1	77
374.400	1	88
374.571	1	72
374.742	1	65
374.913	1	71
375.084	1	76
375.254	1	76
375.425	1	80
375.596	1	90
375.767	1	71
375.938	1	65
376.109	1	70
376.279	1	81
376.450	1	78
376.621	1	67
376.792	1	70
376.963	1	90
377.134	1	73
377.304	1	82
377.475	1	74
377.646	1	88
377.817	1	78
377.988	1	81
378.159	1	78
378.329	1	97
378.500	1	78
378.671	1	88
378.842	1	97
379.013	1	86
379.184	1	84
379.354	1	93
379.525	1	84
379.696	1	97
379.867	1	94
380.038	1	98
380.209	1	80
380.379	1	88
380.550	1	103
380.721	1	86
380.892	1	85
381.063	1	89
381.233	1	105
381.404	1	99
381.575	1	110
381.746	1	103
381.917	1	108
382.087	1	88
382.258	1	106
382.429	1	108
382.600	1	111
382.771	1	102
382.941	1	116
383.112	1	101
383.283	1	120
383.454	1	118
383.625	1	115
383.795	1	113
383.966	1	98
384.137	1	121
384.308	1	116
384.479	1	123
384.649	1	134
384.820	1	125
384.991	1	113
385.162	1	109
385.333	1	130
385.503	1	119
385.674	1	135
385.845	1	132
386.016	1	131
386.187	1	126
386.357	1	139
386.528	1	140
386.699	1	137
386.870	1	134
387.041	1	127
387.211	1	148
387.382	1	138
387.553	1	148
387.724	1	146
387.894	1	141
388.065	1	144
388.236	1	152
388.407	1	182
388.578	1	159
388.748	1	158
388.919	1	146
389.090	1	166
389.261	1	165
389.431	1	168
389.602	1	184
389.773	1	179
389.944	1	164
390.114	1	186
390.285	1	158
390.456	1	171
390.627	1	173
390.798	1	180
390.968	1	177
391.139	1	197
391.310	1	196
391.481	1	190
391.651	1	196
391.822	1	195
391.993	1	187
392.164	1	190
392.334	1	187
392.505	1	188
392.676	1	205
392.847	1	206
393.017	1	222
393.188	1	193
393.359	1	202
393.530	1	213
393.700	1	209
393.871	1	206
394.042	1	212
394.213	1	224
394.383	1	212
394.554	1	216
394.725	1	229
394.896	1	213
395.066	1	211
395.237	1	209
395.408	1	222
395.579	1	233
395.749	1	238
395.920	1	228
396.091	1	239
396.262	1	239
396.432	1	243
396.603	1	253
396.774	1	251
396.945	1	256
397.115	1	267
397.286	1	252
397.457	1	266
397.627	1	272
397.798	1	274
397.969	1	256
398.140	1	274
398.310	1	290
398.481	1	265
398.652	1	249
398.823	1	283
398.993	1	282
399.164	1	286
399.335	1	294
399.505	1	293
399.676	1	301
399.847	1	307
400.018	1	299
400.188	1	307
400.359	1	303
400.530	1	305
400.700	1	312
400.871	1	332
401.042	1	301
401.213	1	314
401.383	1	330
401.554	1	332
401.725	1	329
401.895	1	312
402.066	1	336
402.237	1	339
402.408	1	334
402.578	1	338
402.749	1	344
402.920	1	346
403.090	1	348
403.261	1	350
403.432	1	344
403.603	1	372
403.773	1	366
403.944	1	346
404.115	1	351
404.285	1	381
404.456	1	382
404.627	1	376
404.797	1	374
404.968	1	376
405.139	1	380
405.310	1	393
405.480	1	377
405.651	1	376
405.822	1	395
405.992	1	373
406.163	1	386
406.334	1	385
406.504	1	407
406.675	1	396
406.846	1	412
407.016	1	409
407.187	1	396
407.358	1	418
407.528	1	420
407.699	1	413
407.870	1	415
408.041	1	433
408.211	1	417
408.382	1	441
408.553	1	421
408.723	1	434
408.894	1	425
409.065	1	423
409.235	1	430
409.406	1	453
409.577	1	429
409.747	1	441
409.918	1	473
410.089	1	455
410.259	1	444
410.430	1	453
410.601	1	463
410.771	1	458
410.942	1	476
411.113	1	472
411.283	1	467
411.454	1	445
411.625	1	464
411.795	1	460
411.966	1	480
412.137	1	469
412.307	1	472
412.478	1	487
412.649	1	476
412.819	1	478
412.990	1	460
413.161	1	469
413.331	1	484
413.502	1	509
413.672	1	470
413.843	1	497
414.014	1	471
414.184	1	495
414.355	1	487
414.526	1	498
414.696	1	498
414.867	1	516
415.038	1	503
415.208	1	508
415.379	1	515
415.550	1	519
415.720	1	488
415.891	1	512
416.062	1	493
416.232	1	504
416.403	1	534
416.573	1	503
416.744	1	499
416.915	1	506
417.085	1	520
417.256	1	517
417.427	1	514
417.597	1	505
417.768	1	515
417.939	1	531
418.109	1	507
418.280	1	532
418.450	1	529
418.621	1	531
418.792	1	527
418.962	1	515
419.133	1	527
419.304	1	517
419.474	1	538
419.645	1	519
419.815	1	545
419.986	1	505
420.157	1	532
420.327	1	529
420.498	1	547
420.669	1	515
420.839	1	523
421.010	1	523
421.180	1	533
421.351	1	539
421.522	1	520
421.692	1	508
421.863	1	519
422.033	1	529
422.204	1	519
422.375	1	545
422.545	1	540
422.716	1	535
422.886	1	553
423.057	1	529
423.228	1	535
423.398	1	529
423.569	1	527
423.740	1	537
423.910	1	534
424.081	1	523
424.251	1	529
424.422	1	514
424.593	1	535
424.763	1	527
424.934	1	539
425.104	1	563
425.275	1	507
425.445	1	512
425.616	1	533
425.787	1	523
425.957	1	529
426.128	1	544
426.298	1	542
426.469	1	522
426.640	1	543
426.810	1	535
426.981	1	534
427.151	1	526
427.322	1	530
427.493	1	550
427.663	1	545
427.834	1	561
428.004	1	527
428.175	1	534
428.345	1	534
428.516	1	530
428.687	1	541
428.857	1	539
429.028	1	541
429.198	1	550
429.369	1	527
429.540	1	537
429.710	1	530
429.881	1	514
430.051	1	546
430.222	1	533
430.392	1	544
430.563	1	530
430.734	1	543
430.904	1	526
431.075	1	538
431.245	1	541
431.416	1	546
431.586	1	512
431.757	1	532
431.927	1	520
432.098	1	532
432.269	1	529
432.439	1	526
432.610	1	528
432.780	1	504
432.951	1	514
433.121	1	524
433.292	1	516
433.462	1	509
433.633	1	517
433.804	1	517
433.974	1	523
434.145	1	515
434.315	1	510
434.486	1	522
434.656	1	518
434.827	1	513
434.997	1	510
435.168	1	521
435.339	1	522
435.509	1	525
435.680	1	517
435.850	1	504
436.021	1	522
436.191	1	532
436.362	1	511
436.532	1	517
436.703	1	518
436.873	1	497
437.044	1	503
437.214	1	487
437.385	1	498
437.556	1	497
437.726	1	506
437.897	1	494
438.067	1	494
438.238	1	495
438.408	1	501
438.579	1	485
438.749	1	493
438.920	1	469
439.090	1	487
439.261	1	477
439.431	1	493
439.602	1	487
439.772	1	516
439.943	1	472
440.113	1	504
440.284	1	464
440.455	1	496
440.625	1	476
440.796	1	483
440.966	1	485
441.137	1	477
441.307	1	486
441.478	1	480
441.648	1	466
441.819	1	450
441.989	1	478
442.160	1	458
442.330	1	468
442.501	1	454
442.671	1	436
442.842	1	433
443.012	1	467
443.183	1	457
443.353	1	447
443.524	1	442
443.694	1	458
443.865	1	450
444.035	1	440
444.206	1	423
444.376	1	449
444.547	1	442
444.717	1	445
444.888	1	439
445.058	1	462
445.229	1	434
445.399	1	433
445.570	1	425
445.740	1	403
445.911	1	403
446.081	1	417
446.252	1	419
446.422	1	420
446.593	1	412
446.763	1	415
446.934	1	434
447.104	1	409
447.275	1	397
447.445	1	415
447.616	1	426
447.786	1	406
447.957	1	413
448.127	1	391
448.298	1	396
448.468	1	409
448.639	1	408
448.809	1	409
448.979	1	409
449.150	1	405
449.320	1	400
449.491	1	404
449.661	1	406
449.832	1	372
450.002	1	396
450.173	1	385
450.343	1	378
450.514	1	394
450.684	1	383
450.855	1	392
451.025	1	356
451.196	1	365
451.366	1	380
451.537	1	368
451.707	1	374
451.878	1	356
452.048	1	364
452.218	1	373
452.389	1	366
452.559	1	360
452.730	1	385
452.900	1	377
453.071	1	344
453.241	1	354
453.412	1	338
453.582	1	344
453.753	1	356
453.923	1	353
454.093	1	359
454.264	1	342
454.434	1	361
454.605	1	342
454.775	1	340
454.946	1	347
455.116	1	333
455.287	1	360
455.457	1	330
455.628	1	337
455.798	1	337
455.968	1	335
456.139	1	335
456.309	1	324
456.480	1	314
456.650	1	329
456.821	1	321
456.991	1	303
457.161	1	319
457.332	1	309
457.502	1	314
457.673	1	323
457.843	1	309
458.014	1	315
458.184	1	314
458.355	1	282
458.525	1	308
458.695	1	293
458.866	1	297
459.036	1	265
459.207	1	288
459.377	1	284
459.548	1	277
459.718	1	279
459.888	1	269
460.059	1	271
460.229	1	299
460.400	1	259
460.570	1	267
460.740	1	285
460.911	1	279
461.081	1	268
461.252	1	275
461.422	1	274
461.593	1	254
461.763	1	270
461.933	1	267
462.104	1	265
462.274	1	258
462.445	1	262
462.615	1	260
462.785	1	248
462.956	1	257
463.126	1	252
463.297	1	254
463.467	1	250
463.638	1	256
463.808	1	233
463.978	1	254
464.149	1	249
464.319	1	223
464.490	1	242
464.660	1	226
464.830	1	245
465.001	1	238
465.171	1	238
465.342	1	227
465.512	1	234
465.682	1	225
465.853	1	221
466.023	1	215
466.194	1	217
466.364	1	213
466.534	1	230
466.705	1	225
466.875	1	231
467.045	1	201
467.216	1	210
467.386	1	202
467.557	1	206
467.727	1	214
467.897	1	202
468.068	1	205
468.238	1	193
468.409	1	205
468.579	1	202
468.749	1	204
468.920	1	204
469.090	1	194
469.260	1	193
469.431	1	213
469.601	1	217
469.772	1	205
469.942	1	192
470.112	1	195
470.283	1	197
470.453	1	190
470.623	1	189
470.794	1	174
470.964	1	189
471.135	1	179
471.305	1	185
471.475	1	187
471.646	1	183
471.816	1	190
471.986	1	182
472.157	1	182
472.327	1	166
472.497	1	180
472.668	1	188
472.838	1	160
473.009	1	169
473.179	1	180
473.349	1	178
473.520	1	158
473.690	1	169
473.860	1	160
474.031	1	161
474.201	1	158
474.371	1	175
474.542	1	169
474.712	1	160
474.882	1	167
475.053	1	170
475.223	1	152
475.394	1	146
475.564	1	156
475.734	1	176
475.905	1	155
476.075	1	157
476.245	1	144
476.416	1	154
476.586	1	157
476.756	1	165
476.927	1	155
477.097	1	154
477.267	1	149
477.438	1	150
477.608	1	146
477.778	1	151
477.949	1	147
478.119	1	146
478.289	1	148
478.460	1	136
478.630	1	137
478.800	1	136
478.971	1	141
479.141	1	132
479.311	1	153
479.482	1	125
479.652	1	121
479.822	1	147
479.993	1	126
480.163	1	134
480.333	1	136
480.504	1	122
480.674	1	130
480.844	1	130
481.015	1	130
481.185	1	133
481.355	1	116
481.525	1	130
481.696	1	127
481.866	1	125
482.036	1	122
482.207	1	116
482.377	1	113
482.547	1	117
482.718	1	123
482.888	1	106
483.058	1	119
483.229	1	127
483.399	1	117
483.569	1	124
483.740	1	109
483.910	1	107
484.080	1	112
484.250	1	113
484.421	1	122
484.591	1	111
484.761	1	114
484.932	1	121
485.102	1	114
485.272	1	117
485.443	1	108
485.613	1	115
485.783	1	104
485.953	1	112
486.124	1	112
486.294	1	104
486.464	1	103
486.635	1	96
486.805	1	104
486.975	1	108
487.146	1	99
487.316	1	89
487.486	1	87
487.656	1	108
487.827	1	85
487.997	1	103
488.167	1	87
488.338	1	112
488.508	1	96
488.678	1	86
488.848	1	105
489.019	1	84
489.189	1	96
489.359	1	87
489.529	1	100
489.700	1	87
489.870	1	88
490.040	1	92
490.211	1	93
490.381	1	92
490.551	1	93
490.721	1	87
490.892	1	101
491.062	1	87
491.232	1	99
491.402	1	77
491.573	1	88
491.743	1	76
491.913	1	76
492.084	1	82
492.254	1	94
492.424	1	76
492.594	1	75
492.765	1	88
492.935	1	79
493.105	1	89
493.275	1	87
493.446	1	81
493.616	1	82
493.786	1	89
493.956	1	76
494.127	1	82
494.297	1	81
494.467	1	77
494.637	1	69
494.808	1	86
494.978	1	82
495.148	1	77
495.318	1	80
495.489	1	78
495.659	1	63
495.829	1	77
495.999	1	75
496.170	1	70
496.340	1	85
496.510	1	79
496.680	1	78
496.851	1	69
497.021	1	67
497.191	1	62
497.361	1	69
497.532	1	75
497.702	1	62
497.872	1	72
498.042	1	74
498.213	1	65
498.383	1	65
498.553	1	70
498.723	1	68
498.894	1	70
499.064	1	65
499.234	1	67
499.404	1	69
499.574	1	65
499.745	1	57
499.915	1	67
500.085	1	66
500.255	1	58
500.426	1	55
500.596	1	76
500.766	1	66
500.936	1	68
501.106	1	62
501.277	1	62
501.447	1	58
501.617	1	76
501.787	1	47
501.958	1	73
502.128	1	71
502.298	1	58
502.468	1	61
502.638	1	67
502.809	1	60
502.979	1	59
503.149	1	68
503.319	1	63
503.489	1	61
503.660	1	56
503.830	1	58
504.000	1	48
504.170	1	60
504.340	1	63
504.511	1	67
504.681	1	64
504.851	1	50
505.021	1	55
505.192	1	63
505.362	1	50
505.532	1	55
505.702	1	54
505.872	1	53
506.043	1	53
506.213	1	51
506.383	1	74
506.553	1	70
506.723	1	54
506.893	1	57
507.064	1	56
507.234	1	62
507.404	1	44
507.574	1	58
507.744	1	53
507.915	1	58
508.085	1	60
508.255	1	58
508.425	1	56
508.595	1	53
508.766	1	53
508.936	1	45
509.106	1	55
509.276	1	61
509.446	1	46
509.616	1	56
509.787	1	60
509.957	1	53
510.127	1	55
510.297	1	45
510.467	1	72
510.638	1	49
510.808	1	55
510.978	1	48
511.148	1	42
511.318	1	39
511.488	1	53
511.659	1	51
511.829	1	61
511.999	1	46
512.169	1	47
512.339	1	52
512.509	1	48
512.680	1	44
512.850	1	49
513.020	1	52
513.190	1	54
513.360	1	38
513.530	1	53
513.700	1	39
513.871	1	42
514.041	1	40
514.211	1	45
514.381	1	43
514.551	1	44
514.721	1	42
514.892	1	44
515.062	1	47
515.232	1	47
515.402	1	54
515.572	1	36
515.742	1	42
515.912	1	53
516.083	1	44
516.253	1	48
516.423	1	44
516.593	1	47
516.763	1	39
516.933	1	36
517.104	1	45
517.274	1	43
517.444	1	43
517.614	1	37
517.784	1	42
517.954	1	35
518.124	1	45
518.294	1	33
518.465	1	45
518.635	1	40
518.805	1	42
518.975	1	43
519.145	1	40
519.315	1	33
519.485	1	40
519.656	1	38
519.826	1	38
519.996	1	29
520.166	1	44
520.336	1	38
520.506	1	30
520.676	1	46
520.846	1	43
521.017	1	48
521.187	1	54
521.357	1	46
521.527	1	33
521.697	1	37
521.867	1	27
522.037	1	31
522.207	1	48
522.377	1	36
522.548	1	42
522.718	1	22
522.888	1	44
523.058	1	49
523.228	1	35
523.398	1	50
523.568	1	36
523.738	1	39
523.909	1	40
524.079	1	41
524.249	1	29
524.419	1	21
524.589	1	34
524.759	1	34
524.929	1	39
525.099	1	34
525.269	1	36
525.439	1	34
525.610	1	52
525.780	1	36
525.950	1	40
526.120	1	30
526.290	1	35
526.460	1	36
526.630	1	36
526.800	1	40
526.970	1	35
527.140	1	33
527.311	1	26
527.481	1	28
527.651	1	38
527.821	1	36
527.991	1	41
528.161	1	30
528.331	1	37
528.501	1	23
528.671	1	28
528.841	1	37
529.011	1	31
529.181	1	34
529.352	1	41
529.522	1	41
529.692	1	46
529.862	1	42
530.032	1	33
530.202	1	33
530.372	1	28
530.542	1	32
530.712	1	34
530.882	1	31
531.052	1	38
531.222	1	22
531.392	1	33
531.563	1	34
531.733	1	18
531.903	1	36
532.073	1	35
532.243	1	42
532.413	1	36
532.583	1	38
532.753	1	32
532.923	1	27
533.093	1	26
533.263	1	35
533.433	1	33
533.603	1	29
533.773	1	32
533.943	1	41
534.113	1	46
534.284	1	33
534.454	1	41
534.624	1	39
534.794	1	30
534.964	1	36
535.134	1	44
535.304	1	27
535.474	1	25
535.644	1	16
535.814	1	28
535.984	1	41
536.154	1	42
536.324	1	33
536.494	1	24
536.664	1	20
536.834	1	31
537.004	1	29
537.174	1	27
537.344	1	41
537.514	1	36
537.685	1	44
537.855	1	33
538.025	1	23
538.195	1	37
538.365	1	21
538.535	1	19
538.705	1	29
538.875	1	25
539.045	1	22
539.215	1	25
539.385	1	39
539.555	1	32
539.725	1	32
539.895	1	24
540.065	1	32
540.235	1	32
540.405	1	29
540.575	1	31
540.745	1	32
540.915	1	24
541.085	1	31
541.255	1	31
541.425	1	43
541.595	1	31
541.765	1	9
541.935	1	34
542.105	1	28
542.275	1	23
542.445	1	27
542.615	1	25
542.785	1	25
542.955	1	26
543.125	1	21
543.295	1	23
543.465	1	29
543.635	1	26
543.805	1	32
543.975	1	20
544.145	1	31
544.315	1	19
544.485	1	30
544.655	1	29
544.825	1	30
544.995	1	31
545.165	1	29
545.335	1	25
545.505	1	37
545.675	1	34
545.845	1	28
546.015	1	27
546.185	1	37
546.355	1	45
546.525	1	40
546.695	1	28
546.865	1	31
547.035	1	22
547.205	1	39
547.375	1	36
547.545	1	29
547.715	1	20
547.885	1	14
548.055	1	25
548.225	1	37
548.395	1	21
548.565	1	48
548.735	1	29
548.905	1	26
549.075	1	18
549.245	1	23
549.415	1	25
549.585	1	14
549.755	1	27
549.925	1	29
550.095	1	15
550.265	1	23
550.435	1	23
550.605	1	19
550.775	1	32
550.945	1	31
551.115	1	12
551.285	1	19
551.455	1	18
551.625	1	26
551.795	1	18
551.965	1	8
552.135	1	36
552.305	1	24
552.475	1	24
552.645	1	27
552.815	1	33
552.985	1	27
553.155	1	23
553.325	1	22
553.495	1	33
553.665	1	18
553.835	1	31
554.004	1	14
554.174	1	24
554.344	1	39
554.514	1	29
554.684	1	23
554.854	1	35
555.024	1	33
555.194	1	25
555.364	1	27
555.534	1	24
555.704	1	35
555.874	1	23
556.044	1	19
556.214	1	39
556.384	1	17
556.554	1	25
556.724	1	20
556.894	1	11
557.064	1	24
557.234	1	21
557.404	1	30
557.573	1	15
557.743	1	19
557.913	1	29
558.083	1	13
558.253	1	20
558.423	1	26
558.593	1	28
558.763	1	22
558.933	1	25
559.103	1	31
559.273	1	29
559.443	1	22
559.613	1	26
559.783	1	32
559.953	1	20
560.122	1	23
560.292	1	19
560.462	1	16
560.632	1	25
560.802	1	35
560.972	1	18
561.142	1	25
561.312	1	14
561.482	1	14
561.652	1	29
561.822	1	19
561.992	1	12
562.162	1	16
562.331	1	28
562.501	1	24
562.671	1	28
562.841	1	14
563.011	1	20
563.181	1	28
563.351	1	20
563.521	1	16
563.691	1	24
563.861	1	20
564.031	1	24
564.201	1	20
564.370	1	18
564.540	1	27
564.710	1	10
564.880	1	19
565.050	1	27
565.220	1	21
565.390	1	20
565.560	1	26
565.730	1	19
565.900	1	23
566.069	1	14
566.239	1	23
566.409	1	33
566.579	1	12
566.749	1	13
566.919	1	17
567.089	1	28
567.259	1	27
567.429	1	14
567.599	1	35
567.768	1	25
567.938	1	18
568.108	1	22
568.278	1	16
568.448	1	25
568.618	1	25
568.788	1	9
568.958	1	27
569.128	1	27
569.297	1	24
569.467	1	35
569.637	1	18
569.807	1	35
569.977	1	14
570.147	1	27
570.317	1	21
570.487	1	22
570.656	1	22
570.826	1	15
570.996	1	13
571.166	1	27
571.336	1	1
571.506	1	28
571.676	1	14
571.846	1	20
572.015	1	18
572.185	1	17
572.355	1	16
572.525	1	29
572.695	1	19
572.865	1	29
573.035	1	22
573.205	1	11
573.374	1	16
573.544	1	15
573.714	1	16
573.884	1	25
574.054	1	33
574.224	1	21
574.394	1	21
574.563	1	19
574.733	1	13
574.903	1	20
575.073	1	11
575.243	1	20
575.413	1	18
575.583	1	20
575.752	1	19
575.922	1	16
576.092	1	19
576.262	1	24
576.432	1	19
576.602	1	16
576.772	1	22
576.941	1	24
577.111	1	33
577.281	1	36
577.451	1	24
577.621	1	29
577.791	1	22
577.960	1	28
578.130	1	19
578.300	1	24
578.470	1	18
578.640	1	41
578.810	1	22
578.979	1	17
579.149	1	30
579.319	1	16
579.489	1	14
579.659	1	22
579.829	1	17
579.998	1	17
580.168	1	15
580.338	1	24
580.508	1	18
580.678	1	19
580.848	1	25
581.017	1	12
581.187	1	30
581.357	1	17
581.527	1	16
581.697	1	9
581.867	1	18
582.036	1	24
582.206	1	22
582.376	1	26
582.546	1	30
582.716	1	32
582.885	1	23
583.055	1	30
583.225	1	28
583.395	1	26
583.565	1	23
583.735	1	24
583.904	1	42
584.074	1	27
584.244	1	23
584.414	1	33
584.584	1	31
584.753	1	9
584.923	1	14
585.093	1	27
585.263	1	22
585.433	1	14
585.602	1	33
585.772	1	29
585.942	1	12
586.112	1	21
586.282	1	22
586.451	1	24
586.621	1	26
586.791	1	25
586.961	1	16
587.131	1	23
587.300	1	22
587.470	1	3
587.640	1	20
587.810	1	18
587.980	1	22
588.149	1	37
588.319	1	19
588.489	1	18
588.659	1	24
588.829	1	31
588.998	1	36
589.168	1	24
589.338	1	23
589.508	1	29
589.677	1	27
589.847	1	25
590.017	1	25
590.187	1	15
590.357	1	26
590.526	1	24
590.696	1	21
590.866	1	20
591.036	1	39
591.205	1	32
591.375	1	20
591.545	1	32
591.715	1	10
591.885	1	16
592.054	1	16
592.224	1	22
592.394	1	23
592.564	1	28
592.733	1	31
592.903	1	31
593.073	1	36
593.243	1	31
593.412	1	29
593.582	1	18
593.752	1	35
593.922	1	37
594.091	1	34
594.261	1	30
594.431	1	26
594.601	1	28
594.771	1	22
594.940	1	36
595.110	1	27
595.280	1	33
595.450	1	46
595.619	1	39
595.789	1	30
595.959	1	36
596.129	1	37
596.298	1	28
596.468	1	24
596.638	1	30
596.808	1	37
596.977	1	37
597.147	1	39
597.317	1	36
597.487	1	25
597.656	1	25
597.826	1	34
597.996	1	34
598.166	1	36
598.335	1	34
598.505	1	39
598.675	1	33
598.844	1	32
599.014	1	29
599.184	1	33
599.354	1	48
599.523	1	39
599.693	1	36
599.863	1	37
600.033	1	35
600.202	1	30
600.372	1	35
600.542	1	45
600.712	1	41
600.881	1	41
601.051	1	41
601.221	1	48
601.390	1	35
601.560	1	43
601.730	1	34
601.900	1	33
602.069	1	46
602.239	1	33
602.409	1	43
602.578	1	39
602.748	1	34
602.918	1	47
603.088	1	40
603.257	1	40
603.427	1	37
603.597	1	45
603.767	1	44
603.936	1	51
604.106	1	53
604.276	1	50
604.445	1	30
604.615	1	49
604.785	1	55
604.954	1	50
605.124	1	53
605.294	1	46
605.464	1	50
605.633	1	53
605.803	1	51
605.973	1	57
606.142	1	57
606.312	1	57
606.482	1	40
606.652	1	58
606.821	1	48
606.991	1	47
607.161	1	53
607.330	1	46
607.500	1	44
607.670	1	39
607.839	1	50
608.009	1	54
608.179	1	43
608.348	1	52
608.518	1	63
608.688	1	41
608.858	1	47
609.027	1	58
609.197	1	54
609.367	1	50
609.536	1	59
609.706	1	59
609.876	1	57
610.045	1	70
610.215	1	71
610.385	1	67
610.554	1	67
610.724	1	48
610.894	1	57
611.063	1	62
611.233	1	51
611.403	1	71
611.572	1	63
611.742	1	71
611.912	1	48
612.081	1	65
612.251	1	67
612.421	1	65
612.590	1	56
612.760	1	67
612.930	1	75
613.099	1	66
613.269	1	64
613.439	1	68
613.608	1	85
613.778	1	76
613.948	1	64
614.117	1	65
614.287	1	66
614.457	1	59
614.626	1	81
614.796	1	67
614.966	1	68
615.135	1	76
615.305	1	89
615.475	1	75
615.644	1	75
615.814	1	69
615.984	1	72
616.153	1	69
616.323	1	64
616.493	1	73
616.662	1	82
616.832	1	69
617.002	1	78
617.171	1	70
617.341	1	74
617.511	1	84
617.680	1	80
617.850	1	81
618.019	1	74
618.189	1	88
618.359	1	78
618.528	1	68
618.698	1	81
618.868	1	92
619.037	1	79
619.207	1	86
619.377	1	88
619.546	1	84
619.716	1	80
619.885	1	92
620.055	1	88
620.225	1	90
620.394	1	82
620.564	1	112
620.734	1	85
620.903	1	95
621.073	1	90
621.242	1	89
621.412	1	81
621.582	1	99
621.751	1	82
621.921	1	87
622.091	1	89
622.260	1	85
622.430	1	97
622.599	1	87
622.769	1	87
622.939	1	92
623.108	1	91
623.278	1	89
623.448	1	93
623.617	1	91
623.787	1	106
623.956	1	90
624.126	1	101
624.296	1	83
624.465	1	106
624.635	1	97
624.804	1	111
624.974	1	95
625.144	1	101
625.313	1	96
625.483	1	103
625.652	1	88
625.822	1	103
625.992	1	106
626.161	1	111
626.331	1	108
626.501	1	88
626.670	1	107
626.840	1	104
627.009	1	102
627.179	1	116
627.348	1	109
627.518	1	99
627.688	1	108
627.857	1	99
628.027	1	110
628.196	1	100
628.366	1	123
628.536	1	103
628.705	1	113
628.875	1	111
629.044	1	102
629.214	1	107
629.384	1	103
629.553	1	109
629.723	1	113
629.892	1	112
630.062	1	100
630.232	1	111
630.401	1	118
630.571	1	113
630.740	1	112
630.910	1	119
631.079	1	115
631.249	1	113
631.419	1	110
631.588	1	116
631.758	1	115
631.927	1	117
632.097	1	116
632.266	1	108
632.436	1	122
632.606	1	120
632.775	1	108
632.945	1	111
633.114	1	113
633.284	1	124
633.453	1	133
633.623	1	124
633.793	1	115
633.962	1	114
634.132	1	113
634.301	1	119
634.471	1	111
634.640	1	109
634.810	1	121
634.979	1	112
635.149	1	123
635.319	1	132
635.488	1	131
635.658	1	121
635.827	1	126
635.997	1	130
636.166	1	124
636.336	1	121
636.505	1	128
636.675	1	125
636.845	1	128
637.014	1	135
637.184	1	116
637.353	1	141
637.523	1	136
637.692	1	132
637.862	1	130
638.031	1	136
638.201	1	127
638.370	1	134
638.540	1	141
638.710	1	127
638.879	1	141
639.049	1	130
639.218	1	131
639.388	1	140
639.557	1	120
639.727	1	130
639.896	1	133
640.066	1	126
640.235	1	134
640.405	1	136
640.574	1	134
640.744	1	141
640.914	1	126
641.083	1	139
641.253	1	151
641.422	1	129
641.592	1	130
641.761	1	132
641.931	1	138
642.100	1	134
642.270	1	139
642.439	1	146
642.609	1	144
642.778	1	130
642.948	1	129
643.117	1	134
643.287	1	134
643.456	1	145
643.626	1	143
643.795	1	139
643.965	1	133
644.134	1	143
644.304	1	123
644.473	1	127
644.643	1	133
644.812	1	132
644.982	1	119
645.151	1	147
645.321	1	135
645.490	1	134
645.660	1	139
645.829	1	140
645.999	1	139
646.168	1	133
646.338	1	131
646.507	1	148
646.677	1	139
646.846	1	123
647.016	1	147
647.185	1	137
647.355	1	139
647.524	1	126
647.694	1	142
647.863	1	131
648.033	1	132
648.202	1	130
648.372	1	141
648.541	1	137
648.711	1	126
648.880	1	145
649.050	1	127
649.219	1	136
649.389	1	131
649.558	1	137
649.728	1	143
649.897	1	141
650.067	1	122
650.236	1	140
650.406	1	142
650.575	1	132
650.745	1	134
650.914	1	134
651.084	1	119
651.253	1	126
651.423	1	139
651.592	1	143
651.762	1	135
651.931	1	133
652.101	1	136
652.270	1	116
652.440	1	135
652.609	1	136
652.778	1	150
652.948	1	127
653.117	1	126
653.287	1	134
653.456	1	123
653.626	1	143
653.795	1	145
653.965	1	148
654.134	1	146
654.304	1	129
654.473	1	132
654.643	1	132
654.812	1	129
654.982	1	141
655.151	1	125
655.320	1	136
655.490	1	137
655.659	1	135
655.829	1	147
655.998	1	133
656.168	1	137
656.337	1	134
656.507	1	130
656.676	1	131
656.846	1	136
657.015	1	136
657.184	1	122
657.354	1	128
657.523	1	116
657.693	1	124
657.862	1	122
658.032	1	137
658.201	1	128
658.371	1	135
658.540	1	131
658.709	1	134
658.879	1	152
659.048	1	120
659.218	1	121
659.387	1	128
659.557	1	128
659.726	1	128
659.895	1	122
660.065	1	117
660.234	1	119
660.404	1	132
660.573	1	115
660.743	1	136
660.912	1	116
661.081	1	123
661.251	1	144
661.420	1	135
661.590	1	111
661.759	1	122
661.929	1	132
662.098	1	138
662.267	1	126
662.437	1	120
662.606	1	116
662.776	1	124
662.945	1	118
663.115	1	128
663.284	1	117
663.453	1	123
663.623	1	130
663.792	1	116
663.962	1	120
664.131	1	115
664.300	1	114
664.470	1	122
664.639	1	118
664.809	1	120
664.978	1	123
665.148	1	118
665.317	1	117
665.486	1	108
665.656	1	136
665.825	1	130
665.995	1	102
666.164	1	105
666.333	1	116
666.503	1	120
666.672	1	102
666.842	1	116
667.011	1	132
667.180	1	108
667.350	1	113
667.519	1	96
667.689	1	111
667.858	1	112
668.027	1	112
668.197	1	113
668.366	1	109
668.536	1	122
668.705	1	116
668.874	1	111
669.044	1	105
669.213	1	111
669.382	1	101
669.552	1	112
669.721	1	116
669.891	1	106
670.060	1	104
670.229	1	115
670.399	1	115
670.568	1	99
670.738	1	104
670.907	1	97
671.076	1	98
671.246	1	105
671.415	1	103
671.584	1	97
671.754	1	104
671.923	1	107
672.093	1	104
672.262	1	117
672.431	1	102
672.601	1	104
672.770	1	109
672.939	1	99
673.109	1	92
673.278	1	103
673.448	1	96
673.617	1	85
673.786	1	107
