325.333	1	32
325.504	1	22
325.675	1	21
325.846	1	30
326.017	1	18
326.188	1	32
326.359	1	37
326.531	1	26
326.702	1	16
326.873	1	35
327.044	1	28
327.215	1	27
327.386	1	24
327.557	1	39
327.728	1	34
327.899	1	20
328.070	1	28
328.241	1	27
328.412	1	24
328.583	1	28
328.754	1	24
328.926	1	31
329.097	1	34
329.268	1	39
329.439	1	27
329.610	1	28
329.781	1	20
329.952	1	22
330.123	1	27
330.294	1	37
330.465	1	25
330.636	1	45
330.807	1	34
330.978	1	33
331.149	1	48
331.320	1	48
331.492	1	28
331.663	1	26
331.834	1	43
332.005	1	37
332.176	1	29
332.347	1	37
332.518	1	34
332.689	1	36
332.860	1	30
333.031	1	45
333.202	1	31
333.373	1	25
333.544	1	32
333.715	1	28
333.886	1	29
334.057	1	41
334.228	1	25
334.399	1	38
334.570	1	24
334.741	1	28
334.912	1	22
335.084	1	45
335.255	1	30
335.426	1	34
335.597	1	35
335.768	1	35
335.939	1	33
336.110	1	31
336.281	1	36
336.452	1	32
336.623	1	41
336.794	1	39
336.965	1	27
337.136	1	39
337.307	1	48
337.478	1	27
337.649	1	42
337.820	1	37
337.991	1	37
338.162	1	33
338.333	1	38
338.504	1	32
338.675	1	27
338.846	1	50
339.017	1	32
339.188	1	30
339.359	1	31
339.530	1	30
339.701	1	42
339.872	1	45
340.043	1	41
340.214	1	35
340.385	1	32
340.556	1	37
340.727	1	36
340.898	1	35
341.069	1	21
341.240	1	30
341.411	1	47
341.582	1	36
341.753	1	34
341.924	1	35
342.095	1	33
342.266	1	38
342.437	1	36
342.608	1	31
342.779	1	37
342.950	1	30
343.121	1	29
343.292	1	35
343.463	1	30
343.634	1	25
343.805	1	28
343.976	1	34
344.147	1	33
344.318	1	33
344.489	1	34
344.660	1	35
344.831	1	43
345.002	1	30
345.173	1	44
345.344	1	27
345.515	1	35
345.686	1	31
345.857	1	34
346.028	1	31
346.199	1	37
346.370	1	39
346.541	1	39
346.712	1	42
346.883	1	29
347.054	1	29
347.225	1	25
347.396	1	17
347.567	1	36
347.738	1	30
347.909	1	34
348.080	1	43
348.251	1	24
348.422	1	29
348.593	1	36
348.764	1	35
348.935	1	19
349.106	1	29
349.277	1	24
349.448	1	39
349.619	1	21
349.790	1	35
349.961	1	37
350.132	1	36
350.303	1	25
350.474	1	28
350.645	1	26
350.816	1	21
350.987	1	17
351.157	1	23
351.328	1	19
351.499	1	17
351.670	1	20
351.841	1	39
352.012	1	21
352.183	1	17
352.354	1	30
352.525	1	28
352.696	1	32
352.867	1	18
353.038	1	38
353.209	1	23
353.380	1	3
353.551	1	16
353.722	1	23
353.893	1	18
354.064	1	16
354.235	1	20
354.406	1	32
354.576	1	22
354.747	1	17
354.918	1	31
355.089	1	21
355.260	1	30
355.431	1	16
355.602	1	23
355.773	1	21
355.944	1	19
356.115	1	9
356.286	1	20
356.457	1	27
356.628	1	20
356.799	1	26
356.970	1	23
357.141	1	21
357.311	1	21
357.482	1	19
357.653	1	13
357.824	1	9
357.995	1	23
358.166	1	11
358.337	1	13
358.508	1	18
358.679	1	7
358.850	1	32
359.021	1	27
359.192	1	12
359.363	1	25
359.533	1	23
359.704	1	11
359.875	1	18
360.046	1	13
360.217	1	24
360.388	1	34
360.559	1	12
360.730	1	29
360.901	1	15
361.072	1	14
361.243	1	22
361.414	1	9
361.584	1	12
361.755	1	20
361.926	1	2
362.097	1	18
362.268	1	18
362.439	1	14
362.610	1	16
362.781	1	12
362.952	1	12
363.123	1	14
363.293	1	12
363.464	1	5
363.635	1	22
363.806	1	-1
363.977	1	24
364.148	1	7
364.319	1	15
364.490	1	24
364.661	1	19
364.832	1	17
365.002	1	16
365.173	1	3
365.344	1	23
365.515	1	6
365.686	1	14
365.857	1	23
366.028	1	11
366.199	1	9
366.370	1	5
366.540	1	12
366.711	1	12
366.882	1	10
367.053	1	3
367.224	1	7
367.395	1	15
367.566	1	4
367.737	1	-3
367.908	1	12
368.078	1	19
368.249	1	11
368.420	1	19
368.591	1	12
368.762	1	-5
368.933	1	14
369.104	1	8
369.274	1	-1
369.445	1	12
369.616	1	-1
369.787	1	20
369.958	1	5
370.129	1	-1
370.300	1	3
370.471	1	12
370.641	1	5
370.812	1	5
370.983	1	15
371.154	1	10
371.325	1	5
371.496	1	8
371.667	1	7
371.837	1	6
372.008	1	3
372.179	1	10
372.350	1	0
372.521	1	15
372.692	1	7
372.863	1	12
373.033	1	13
373.204	1	3
373.375	1	1
373.546	1	5
373.717	1	-4
373.888	1	3
374.059	1	5
374.229	1	10
374.400	1	18
374.571	1	6
374.742	1	10
374.913	1	2
375.084	1	6
375.254	1	9
375.425	1	19
375.596	1	14
375.767	1	6
375.938	1	7
376.109	1	-1
376.279	1	2
376.450	1	9
376.621	1	11
376.792	1	5
376.963	1	24
377.134	1	11
377.304	1	16
377.475	1	-5
377.646	1	7
377.817	1	5
377.988	1	5
378.159	1	14
378.329	1	18
378.500	1	-4
378.671	1	6
378.842	1	4
379.013	1	0
379.184	1	10
379.354	1	10
379.525	1	6
379.696	1	12
379.867	1	12
380.038	1	14
380.209	1	3
380.379	1	5
380.550	1	24
380.721	1	-2
380.892	1	12
381.063	1	8
381.233	1	11
381.404	1	17
381.575	1	19
381.746	1	7
381.917	1	17
382.087	1	8
382.258	1	-5
382.429	1	16
382.600	1	2
382.771	1	5
382.941	1	16
383.112	1	21
383.283	1	22
383.454	1	11
383.625	1	19
383.795	1	9
383.966	1	4
384.137	1	14
384.308	1	7
384.479	1	14
384.649	1	8
384.820	1	11
384.991	1	1
385.162	1	11
385.333	1	9
385.503	1	4
385.674	1	12
385.845	1	10
386.016	1	11
386.187	1	4
386.357	1	15
386.528	1	13
386.699	1	11
386.870	1	10
387.041	1	4
387.211	1	13
387.382	1	14
387.553	1	8
387.724	1	11
387.894	1	5
388.065	1	14
388.236	1	12
388.407	1	14
388.578	1	13
388.748	1	21
388.919	1	13
389.090	1	15
389.261	1	13
389.431	1	4
389.602	1	24
389.773	1	24
389.944	1	14
390.114	1	17
390.285	1	12
390.456	1	21
390.627	1	22
390.798	1	4
390.968	1	3
391.139	1	11
391.310	1	24
391.481	1	6
391.651	1	19
391.822	1	21
391.993	1	9
392.164	1	18
392.334	1	12
392.505	1	14
392.676	1	13
392.847	1	28
393.017	1	22
393.188	1	7
393.359	1	22
393.530	1	15
393.700	1	15
393.871	1	9
394.042	1	11
394.213	1	19
394.383	1	18
394.554	1	21
394.725	1	20
394.896	1	22
395.066	1	15
395.237	1	5
395.408	1	26
395.579	1	13
395.749	1	19
395.920	1	19
396.091	1	17
396.262	1	11
396.432	1	14
396.603	1	19
396.774	1	17
396.945	1	14
397.115	1	15
397.286	1	30
397.457	1	14
397.627	1	26
397.798	1	32
397.969	1	18
398.140	1	28
398.310	1	25
398.481	1	20
398.652	1	7
398.823	1	23
398.993	1	29
399.164	1	13
399.335	1	16
399.505	1	32
399.676	1	28
399.847	1	21
400.018	1	21
400.188	1	32
400.359	1	23
400.530	1	26
400.700	1	29
400.871	1	33
401.042	1	22
401.213	1	24
401.383	1	44
401.554	1	36
401.725	1	30
401.895	1	25
402.066	1	27
402.237	1	30
402.408	1	16
402.578	1	26
402.749	1	36
402.920	1	33
403.090	1	28
403.261	1	29
403.432	1	29
403.603	1	34
403.773	1	36
403.944	1	37
404.115	1	35
404.285	1	32
404.456	1	42
404.627	1	41
404.797	1	31
404.968	1	30
405.139	1	36
405.310	1	43
405.480	1	35
405.651	1	43
405.822	1	30
405.992	1	32
406.163	1	42
406.334	1	25
406.504	1	41
406.675	1	41
406.846	1	29
407.016	1	38
407.187	1	23
407.358	1	41
407.528	1	23
407.699	1	40
407.870	1	33
408.041	1	41
408.211	1	30
408.382	1	50
408.553	1	40
408.723	1	36
408.894	1	34
409.065	1	35
409.235	1	37
409.406	1	49
409.577	1	45
409.747	1	32
409.918	1	50
410.089	1	42
410.259	1	45
410.430	1	40
410.601	1	51
410.771	1	32
410.942	1	42
411.113	1	45
411.283	1	39
411.454	1	18
411.625	1	45
411.795	1	37
411.966	1	47
412.137	1	49
412.307	1	36
412.478	1	46
412.649	1	37
412.819	1	32
412.990	1	37
413.161	1	41
413.331	1	34
413.502	1	38
413.672	1	44
413.843	1	41
414.014	1	40
414.184	1	49
414.355	1	47
414.526	1	47
414.696	1	59
414.867	1	47
415.038	1	47
415.208	1	34
415.379	1	53
415.550	1	59
415.720	1	36
415.891	1	52
416.062	1	32
416.232	1	35
416.403	1	47
416.573	1	51
416.744	1	41
416.915	1	57
417.085	1	56
417.256	1	43
417.427	1	53
417.597	1	54
417.768	1	47
417.939	1	42
418.109	1	47
418.280	1	51
418.450	1	60
418.621	1	45
418.792	1	45
418.962	1	46
419.133	1	40
419.304	1	47
419.474	1	56
419.645	1	62
419.815	1	45
419.986	1	38
420.157	1	55
420.327	1	31
420.498	1	46
420.669	1	58
420.839	1	42
421.010	1	48
421.180	1	49
421.351	1	54
421.522	1	48
421.692	1	39
421.863	1	38
422.033	1	55
422.204	1	51
422.375	1	38
422.545	1	45
422.716	1	43
422.886	1	46
423.057	1	48
423.228	1	66
423.398	1	53
423.569	1	44
423.740	1	43
423.910	1	54
424.081	1	40
424.251	1	41
424.422	1	46
424.593	1	50
424.763	1	47
424.934	1	60
425.104	1	55
425.275	1	42
425.445	1	42
425.616	1	61
425.787	1	51
425.957	1	56
426.128	1	55
426.298	1	45
426.469	1	52
426.640	1	46
426.810	1	55
426.981	1	49
427.151	1	57
427.322	1	48
427.493	1	64
427.663	1	47
427.834	1	60
428.004	1	48
428.175	1	50
428.345	1	45
428.516	1	54
428.687	1	50
428.857	1	57
429.028	1	52
429.198	1	59
429.369	1	53
429.540	1	49
429.710	1	57
429.881	1	43
430.051	1	58
430.222	1	52
430.392	1	42
430.563	1	51
430.734	1	56
430.904	1	63
431.075	1	59
431.245	1	43
431.416	1	61
431.586	1	52
431.757	1	51
431.927	1	60
432.098	1	68
432.269	1	45
432.439	1	55
432.610	1	58
432.780	1	61
432.951	1	41
433.121	1	55
433.292	1	46
433.462	1	58
433.633	1	41
433.804	1	52
433.974	1	48
434.145	1	47
434.315	1	54
434.486	1	67
434.656	1	60
434.827	1	47
434.997	1	61
435.168	1	53
435.339	1	48
435.509	1	58
435.680	1	55
435.850	1	59
436.021	1	56
436.191	1	67
436.362	1	51
436.532	1	53
436.703	1	49
436.873	1	53
437.044	1	58
437.214	1	46
437.385	1	48
437.556	1	63
437.726	1	56
437.897	1	56
438.067	1	59
438.238	1	51
438.408	1	51
438.579	1	64
438.749	1	63
438.920	1	49
439.090	1	64
439.261	1	53
439.431	1	57
439.602	1	55
439.772	1	63
439.943	1	44
440.113	1	57
440.284	1	45
440.455	1	53
440.625	1	54
440.796	1	54
440.966	1	63
441.137	1	58
441.307	1	55
441.478	1	58
441.648	1	51
441.819	1	56
441.989	1	49
442.160	1	48
442.330	1	44
442.501	1	52
442.671	1	49
442.842	1	44
443.012	1	52
443.183	1	54
443.353	1	54
443.524	1	48
443.694	1	47
443.865	1	45
444.035	1	46
444.206	1	47
444.376	1	55
444.547	1	52
444.717	1	44
444.888	1	57
445.058	1	55
445.229	1	48
445.399	1	42
445.570	1	58
445.740	1	48
445.911	1	48
446.081	1	53
446.252	1	54
446.422	1	45
446.593	1	46
446.763	1	54
446.934	1	44
447.104	1	46
447.275	1	48
447.445	1	60
447.616	1	49
447.786	1	49
447.957	1	50
448.127	1	44
448.298	1	52
448.468	1	59
448.639	1	57
448.809	1	48
448.979	1	49
449.150	1	44
449.320	1	49
449.491	1	54
449.661	1	49
449.832	1	55
450.002	1	52
450.173	1	46
450.343	1	54
450.514	1	55
450.684	1	48
450.855	1	63
451.025	1	58
451.196	1	51
451.366	1	48
451.537	1	48
451.707	1	43
451.878	1	51
452.048	1	49
452.218	1	56
452.389	1	48
452.559	1	49
452.730	1	42
452.900	1	56
453.071	1	57
453.241	1	46
453.412	1	47
453.582	1	47
453.753	1	52
453.923	1	43
454.093	1	55
454.264	1	58
454.434	1	49
454.605	1	39
454.775	1	48
454.946	1	47
455.116	1	50
455.287	1	36
455.457	1	54
455.628	1	41
455.798	1	40
455.968	1	49
456.139	1	49
456.309	1	43
456.480	1	49
456.650	1	48
456.821	1	47
456.991	1	32
457.161	1	51
457.332	1	55
457.502	1	42
457.673	1	50
457.843	1	47
458.014	1	38
458.184	1	49
458.355	1	37
458.525	1	50
458.695	1	43
458.866	1	50
459.036	1	40
459.207	1	47
459.377	1	47
459.548	1	36
459.718	1	48
459.888	1	46
460.059	1	33
460.229	1	46
460.400	1	21
460.570	1	41
460.740	1	38
460.911	1	42
461.081	1	47
461.252	1	47
461.422	1	48
461.593	1	29
461.763	1	60
461.933	1	41
462.104	1	41
462.274	1	34
462.445	1	42
462.615	1	41
462.785	1	32
462.956	1	34
463.126	1	52
463.297	1	38
463.467	1	48
463.638	1	41
463.808	1	34
463.978	1	38
464.149	1	42
464.319	1	41
464.490	1	44
464.660	1	32
464.830	1	52
465.001	1	47
465.171	1	44
465.342	1	36
465.512	1	30
465.682	1	36
465.853	1	39
466.023	1	26
466.194	1	37
466.364	1	30
466.534	1	33
466.705	1	51
466.875	1	39
467.045	1	41
467.216	1	29
467.386	1	32
467.557	1	34
467.727	1	44
467.897	1	32
468.068	1	29
468.238	1	28
468.409	1	38
468.579	1	39
468.749	1	45
468.920	1	39
469.090	1	19
469.260	1	38
469.431	1	29
469.601	1	31
469.772	1	37
469.942	1	34
470.112	1	36
470.283	1	40
470.453	1	41
470.623	1	36
470.794	1	42
470.964	1	47
471.135	1	44
471.305	1	45
471.475	1	42
471.646	1	27
471.816	1	40
471.986	1	33
472.157	1	33
472.327	1	43
472.497	1	28
472.668	1	38
472.838	1	37
473.009	1	32
473.179	1	32
473.349	1	31
473.520	1	27
473.690	1	37
473.860	1	33
474.031	1	28
474.201	1	29
474.371	1	33
474.542	1	37
474.712	1	35
474.882	1	34
475.053	1	22
475.223	1	27
475.394	1	28
475.564	1	26
475.734	1	35
475.905	1	32
476.075	1	39
476.245	1	17
476.416	1	39
476.586	1	18
476.756	1	38
476.927	1	39
477.097	1	39
477.267	1	23
477.438	1	24
477.608	1	17
477.778	1	29
477.949	1	34
478.119	1	27
478.289	1	26
478.460	1	36
478.630	1	41
478.800	1	26
478.971	1	19
479.141	1	24
479.311	1	39
479.482	1	28
479.652	1	25
479.822	1	27
479.993	1	21
480.163	1	37
480.333	1	21
480.504	1	30
480.674	1	25
480.844	1	26
481.015	1	37
481.185	1	32
481.355	1	32
481.525	1	26
481.696	1	29
481.866	1	23
482.036	1	30
482.207	1	17
482.377	1	31
482.547	1	11
482.718	1	28
482.888	1	27
483.058	1	30
483.229	1	37
483.399	1	25
483.569	1	16
483.740	1	16
483.910	1	21
484.080	1	18
484.250	1	20
484.421	1	23
484.591	1	18
484.761	1	25
484.932	1	26
485.102	1	25
485.272	1	27
485.443	1	33
485.613	1	29
485.783	1	24
485.953	1	33
486.124	1	28
486.294	1	35
486.464	1	25
486.635	1	12
486.805	1	32
486.975	1	24
487.146	1	20
487.316	1	33
487.486	1	32
487.656	1	30
487.827	1	27
487.997	1	29
488.167	1	20
488.338	1	26
488.508	1	22
488.678	1	10
488.848	1	22
489.019	1	13
489.189	1	17
489.359	1	29
489.529	1	12
489.700	1	7
489.870	1	19
490.040	1	24
490.211	1	15
490.381	1	31
490.551	1	25
490.721	1	17
490.892	1	28
491.062	1	26
491.232	1	25
491.402	1	21
491.573	1	19
491.743	1	3
491.913	1	28
492.084	1	20
492.254	1	19
492.424	1	35
492.594	1	16
492.765	1	13
492.935	1	24
493.105	1	15
493.275	1	14
493.446	1	26
493.616	1	20
493.786	1	15
493.956	1	27
494.127	1	8
494.297	1	14
494.467	1	15
494.637	1	6
494.808	1	12
494.978	1	14
495.148	1	13
495.318	1	17
495.489	1	6
495.659	1	15
495.829	1	14
495.999	1	18
496.170	1	3
496.340	1	19
496.510	1	17
496.680	1	23
496.851	1	21
497.021	1	7
497.191	1	20
497.361	1	15
497.532	1	19
497.702	1	25
497.872	1	12
498.042	1	7
498.213	1	15
498.383	1	9
498.553	1	23
498.723	1	15
498.894	1	5
499.064	1	15
499.234	1	10
499.404	1	8
499.574	1	21
499.745	1	23
499.915	1	7
500.085	1	15
500.255	1	17
500.426	1	12
500.596	1	11
500.766	1	2
500.936	1	18
501.106	1	9
501.277	1	15
501.447	1	13
501.617	1	20
501.787	1	12
501.958	1	16
502.128	1	25
502.298	1	11
502.468	1	20
502.638	1	31
502.809	1	20
502.979	1	9
503.149	1	23
503.319	1	13
503.489	1	22
503.660	1	13
503.830	1	14
504.000	1	2
504.170	1	11
504.340	1	23
504.511	1	24
504.681	1	23
504.851	1	7
505.021	1	9
505.192	1	22
505.362	1	13
505.532	1	18
505.702	1	10
505.872	1	16
506.043	1	10
506.213	1	2
506.383	1	9
506.553	1	12
506.723	1	8
506.893	1	7
507.064	1	13
507.234	1	18
507.404	1	1
507.574	1	9
507.744	1	16
507.915	1	20
508.085	1	23
508.255	1	17
508.425	1	1
508.595	1	13
508.766	1	10
508.936	1	14
509.106	1	11
509.276	1	15
509.446	1	13
509.616	1	2
509.787	1	20
509.957	1	3
510.127	1	11
510.297	1	4
510.467	1	21
510.638	1	2
510.808	1	9
510.978	1	17
511.148	1	16
511.318	1	6
511.488	1	15
511.659	1	11
511.829	1	16
511.999	1	10
512.169	1	13
512.339	1	1
512.509	1	9
512.680	1	10
512.850	1	14
513.020	1	10
513.190	1	11
513.360	1	12
513.530	1	4
513.700	1	-2
513.871	1	16
514.041	1	13
514.211	1	12
514.381	1	4
514.551	1	4
514.721	1	14
514.892	1	14
515.062	1	8
515.232	1	8
515.402	1	15
515.572	1	10
515.742	1	-2
515.912	1	14
516.083	1	15
516.253	1	8
516.423	1	2
516.593	1	11
516.763	1	22
516.933	1	3
517.104	1	12
517.274	1	9
517.444	1	10
517.614	1	3
517.784	1	5
517.954	1	1
518.124	1	12
518.294	1	2
518.465	1	13
518.635	1	7
518.805	1	20
518.975	1	-1
519.145	1	13
519.315	1	11
519.485	1	11
519.656	1	5
519.826	1	12
519.996	1	-5
520.166	1	13
520.336	1	15
520.506	1	2
520.676	1	15
520.846	1	9
521.017	1	17
521.187	1	6
521.357	1	13
521.527	1	3
521.697	1	1
521.867	1	7
522.037	1	-8
522.207	1	17
522.377	1	9
522.548	1	7
522.718	1	11
522.888	1	10
523.058	1	12
523.228	1	11
523.398	1	13
523.568	1	4
523.738	1	11
523.909	1	13
524.079	1	9
524.249	1	8
524.419	1	8
524.589	1	11
524.759	1	6
524.929	1	9
525.099	1	1
525.269	1	14
525.439	1	9
525.610	1	12
525.780	1	0
525.950	1	8
526.120	1	3
526.290	1	12
526.460	1	10
526.630	1	8
526.800	1	14
526.970	1	6
527.140	1	14
527.311	1	4
527.481	1	1
527.651	1	7
527.821	1	3
527.991	1	16
528.161	1	6
528.331	1	13
528.501	1	1
528.671	1	12
528.841	1	5
529.011	1	8
529.181	1	9
529.352	1	17
529.522	1	15
529.692	1	15
529.862	1	5
530.032	1	15
530.202	1	8
530.372	1	7
530.542	1	3
530.712	1	10
530.882	1	2
531.052	1	11
531.222	1	10
531.392	1	14
531.563	1	16
531.733	1	8
531.903	1	15
532.073	1	3
532.243	1	9
532.413	1	10
532.583	1	15
532.753	1	13
532.923	1	10
533.093	1	7
533.263	1	12
533.433	1	4
533.603	1	7
533.773	1	14
533.943	1	20
534.113	1	16
534.284	1	8
534.454	1	7
534.624	1	11
534.794	1	6
534.964	1	6
535.134	1	11
535.304	1	1
535.474	1	6
535.644	1	-1
535.814	1	9
535.984	1	16
536.154	1	6
536.324	1	18
536.494	1	7
536.664	1	10
536.834	1	11
537.004	1	2
537.174	1	13
537.344	1	17
537.514	1	7
537.685	1	1
537.855	1	7
538.025	1	8
538.195	1	11
538.365	1	1
538.535	1	-2
538.705	1	7
538.875	1	15
539.045	1	-3
539.215	1	7
539.385	1	8
539.555	1	4
539.725	1	4
539.895	1	2
540.065	1	5
540.235	1	7
540.405	1	6
540.575	1	13
540.745	1	6
540.915	1	-2
541.085	1	3
541.255	1	6
541.425	1	19
541.595	1	6
541.765	1	7
541.935	1	9
542.105	1	8
542.275	1	10
542.445	1	10
542.615	1	11
542.785	1	-6
542.955	1	1
543.125	1	-2
543.295	1	0
543.465	1	0
543.635	1	8
543.805	1	8
543.975	1	1
544.145	1	7
544.315	1	-3
544.485	1	-3
544.655	1	5
544.825	1	13
544.995	1	13
545.165	1	7
545.335	1	12
545.505	1	11
545.675	1	8
545.845	1	1
546.015	1	3
546.185	1	10
546.355	1	15
546.525	1	19
546.695	1	11
546.865	1	9
547.035	1	0
547.205	1	18
547.375	1	5
547.545	1	7
547.715	1	5
547.885	1	-1
548.055	1	7
548.225	1	25
548.395	1	6
548.565	1	15
548.735	1	15
548.905	1	4
549.075	1	15
549.245	1	3
549.415	1	7
549.585	1	3
549.755	1	9
549.925	1	14
550.095	1	5
550.265	1	2
550.435	1	8
550.605	1	4
550.775	1	-1
550.945	1	15
551.115	1	-1
551.285	1	11
551.455	1	3
551.625	1	8
551.795	1	-3
551.965	1	7
552.135	1	7
552.305	1	12
552.475	1	14
552.645	1	10
552.815	1	19
552.985	1	20
553.155	1	10
553.325	1	-2
553.495	1	14
553.665	1	3
553.835	1	0
554.004	1	3
554.174	1	1
554.344	1	12
554.514	1	5
554.684	1	1
554.854	1	6
555.024	1	4
555.194	1	7
555.364	1	13
555.534	1	15
555.704	1	19
555.874	1	6
556.044	1	-1
556.214	1	0
556.384	1	8
556.554	1	2
556.724	1	1
556.894	1	2
557.064	1	10
557.234	1	9
557.404	1	-1
557.573	1	1
557.743	1	12
557.913	1	13
558.083	1	2
558.253	1	10
558.423	1	11
558.593	1	19
558.763	1	11
558.933	1	3
559.103	1	7
559.273	1	3
559.443	1	-3
559.613	1	19
559.783	1	8
559.953	1	5
560.122	1	1
560.292	1	10
560.462	1	7
560.632	1	2
560.802	1	7
560.972	1	6
561.142	1	8
561.312	1	2
561.482	1	1
561.652	1	5
561.822	1	0
561.992	1	9
562.162	1	11
562.331	1	18
562.501	1	8
562.671	1	4
562.841	1	6
563.011	1	9
563.181	1	7
563.351	1	18
563.521	1	3
563.691	1	12
563.861	1	6
564.031	1	-1
564.201	1	5
564.370	1	3
564.540	1	10
564.710	1	-1
564.880	1	2
565.050	1	7
565.220	1	18
565.390	1	4
565.560	1	11
565.730	1	5
565.900	1	1
566.069	1	-1
566.239	1	17
566.409	1	15
566.579	1	-4
566.749	1	-5
566.919	1	9
567.089	1	11
567.259	1	4
567.429	1	8
567.599	1	13
567.768	1	10
567.938	1	5
568.108	1	3
568.278	1	18
568.448	1	9
568.618	1	4
568.788	1	5
568.958	1	7
569.128	1	3
569.297	1	12
569.467	1	11
569.637	1	-6
569.807	1	29
569.977	1	-4
570.147	1	3
570.317	1	2
570.487	1	6
570.656	1	-4
570.826	1	-4
570.996	1	-2
571.166	1	5
571.336	1	0
571.506	1	6
571.676	1	6
571.846	1	10
572.015	1	10
572.185	1	9
572.355	1	8
572.525	1	4
572.695	1	10
572.865	1	9
573.035	1	5
573.205	1	7
573.374	1	11
573.544	1	7
573.714	1	4
573.884	1	3
574.054	1	17
574.224	1	12
574.394	1	4
574.563	1	8
574.733	1	11
574.903	1	-3
575.073	1	4
575.243	1	8
575.413	1	-4
575.583	1	9
575.752	1	0
575.922	1	4
576.092	1	10
576.262	1	4
576.432	1	8
576.602	1	15
576.772	1	4
576.941	1	5
577.111	1	10
577.281	1	12
577.451	1	8
577.621	1	4
577.791	1	8
577.960	1	16
578.130	1	8
578.300	1	13
578.470	1	3
578.640	1	19
578.810	1	4
578.979	1	5
579.149	1	12
579.319	1	14
579.489	1	9
579.659	1	3
579.829	1	16
579.998	1	2
580.168	1	-1
580.338	1	13
580.508	1	4
580.678	1	-5
580.848	1	10
581.017	1	10
581.187	1	5
581.357	1	0
581.527	1	-1
581.697	1	-5
581.867	1	-4
582.036	1	-4
582.206	1	5
582.376	1	8
582.546	1	5
582.716	1	18
582.885	1	17
583.055	1	-1
583.225	1	3
583.395	1	3
583.565	1	11
583.735	1	2
583.904	1	6
584.074	1	4
584.244	1	1
584.414	1	8
584.584	1	10
584.753	1	1
584.923	1	5
585.093	1	10
585.263	1	-2
585.433	1	-4
585.602	1	7
585.772	1	6
585.942	1	3
586.112	1	7
586.282	1	12
586.451	1	17
586.621	1	9
586.791	1	15
586.961	1	8
587.131	1	6
587.300	1	12
587.470	1	-2
587.640	1	7
587.810	1	10
587.980	1	1
588.149	1	23
588.319	1	10
588.489	1	4
588.659	1	9
588.829	1	20
588.998	1	19
589.168	1	1
589.338	1	2
589.508	1	9
589.677	1	11
589.847	1	2
590.017	1	8
590.187	1	-1
590.357	1	9
590.526	1	8
590.696	1	7
590.866	1	-8
591.036	1	11
591.205	1	9
591.375	1	0
591.545	1	-1
591.715	1	-1
591.885	1	4
592.054	1	-7
592.224	1	16
592.394	1	11
592.564	1	9
592.733	1	9
592.903	1	9
593.073	1	17
593.243	1	8
593.412	1	10
593.582	1	0
593.752	1	13
593.922	1	17
594.091	1	12
594.261	1	1
594.431	1	13
594.601	1	9
594.771	1	3
594.940	1	16
595.110	1	14
595.280	1	14
595.450	1	23
595.619	1	13
595.789	1	11
595.959	1	1
596.129	1	17
596.298	1	3
596.468	1	4
596.638	1	7
596.808	1	9
596.977	1	11
597.147	1	13
597.317	1	5
597.487	1	-1
597.656	1	4
597.826	1	20
597.996	1	1
598.166	1	11
598.335	1	8
598.505	1	12
598.675	1	3
598.844	1	9
599.014	1	1
599.184	1	5
599.354	1	20
599.523	1	2
599.693	1	17
599.863	1	3
600.033	1	4
600.202	1	11
600.372	1	11
600.542	1	17
600.712	1	8
600.881	1	21
601.051	1	9
601.221	1	22
601.390	1	7
601.560	1	11
601.730	1	4
601.900	1	8
602.069	1	7
602.239	1	1
602.409	1	12
602.578	1	11
602.748	1	5
602.918	1	3
603.088	1	10
603.257	1	8
603.427	1	11
603.597	1	6
603.767	1	17
603.936	1	11
604.106	1	12
604.276	1	6
604.445	1	0
604.615	1	18
604.785	1	24
604.954	1	14
605.124	1	17
605.294	1	22
605.464	1	23
605.633	1	12
605.803	1	22
605.973	1	14
606.142	1	9
606.312	1	23
606.482	1	4
606.652	1	14
606.821	1	22
606.991	1	9
607.161	1	15
607.330	1	25
607.500	1	16
607.670	1	9
607.839	1	21
608.009	1	1
608.179	1	13
608.348	1	14
608.518	1	7
608.688	1	6
608.858	1	22
609.027	1	18
609.197	1	8
609.367	1	19
609.536	1	12
609.706	1	19
609.876	1	17
610.045	1	25
610.215	1	17
610.385	1	20
610.554	1	11
610.724	1	13
610.894	1	21
611.063	1	9
611.233	1	12
611.403	1	19
611.572	1	16
611.742	1	20
611.912	1	16
612.081	1	17
612.251	1	12
612.421	1	12
612.590	1	7
612.760	1	22
612.930	1	11
613.099	1	21
613.269	1	5
613.439	1	27
613.608	1	16
613.778	1	22
613.948	1	20
614.117	1	12
614.287	1	8
614.457	1	18
614.626	1	8
614.796	1	16
614.966	1	30
615.135	1	19
615.305	1	18
615.475	1	34
615.644	1	11
615.814	1	16
615.984	1	14
616.153	1	17
616.323	1	4
616.493	1	17
616.662	1	19
616.832	1	15
617.002	1	24
617.171	1	18
617.341	1	14
617.511	1	14
617.680	1	10
617.850	1	28
618.019	1	14
618.189	1	18
618.359	1	14
618.528	1	13
618.698	1	27
618.868	1	17
619.037	1	13
619.207	1	28
619.377	1	17
619.546	1	18
619.716	1	36
619.885	1	24
620.055	1	9
620.225	1	22
620.394	1	18
620.564	1	28
620.734	1	31
620.903	1	21
621.073	1	19
621.242	1	36
621.412	1	12
621.582	1	17
621.751	1	17
621.921	1	18
622.091	1	20
622.260	1	23
622.430	1	32
622.599	1	5
622.769	1	24
622.939	1	15
623.108	1	25
623.278	1	25
623.448	1	18
623.617	1	18
623.787	1	28
623.956	1	21
624.126	1	31
624.296	1	19
624.465	1	36
624.635	1	16
624.804	1	28
624.974	1	34
625.144	1	27
625.313	1	23
625.483	1	25
625.652	1	22
625.822	1	29
625.992	1	35
626.161	1	16
626.331	1	36
626.501	1	10
626.670	1	15
626.840	1	30
627.009	1	22
627.179	1	32
627.348	1	33
627.518	1	13
627.688	1	27
627.857	1	15
628.027	1	20
628.196	1	23
628.366	1	28
628.536	1	26
628.705	1	20
628.875	1	27
629.044	1	7
629.214	1	27
629.384	1	21
629.553	1	10
629.723	1	27
629.892	1	21
630.062	1	14
630.232	1	25
630.401	1	33
630.571	1	22
630.740	1	26
630.910	1	35
631.079	1	35
631.249	1	33
631.419	1	17
631.588	1	28
631.758	1	25
631.927	1	25
632.097	1	23
632.266	1	16
632.436	1	53
632.606	1	37
632.775	1	29
632.945	1	24
633.114	1	28
633.284	1	23
633.453	1	29
633.623	1	19
633.793	1	27
633.962	1	22
634.132	1	16
634.301	1	29
634.471	1	13
634.640	1	18
634.810	1	23
634.979	1	11
635.149	1	25
635.319	1	23
635.488	1	25
635.658	1	24
635.827	1	20
635.997	1	31
636.166	1	34
636.336	1	25
636.505	1	24
636.675	1	21
636.845	1	31
637.014	1	29
637.184	1	16
637.353	1	27
637.523	1	29
637.692	1	29
637.862	1	31
638.031	1	37
638.201	1	17
638.370	1	36
638.540	1	25
638.710	1	15
638.879	1	30
639.049	1	31
639.218	1	36
639.388	1	36
639.557	1	25
639.727	1	41
639.896	1	24
640.066	1	24
640.235	1	17
640.405	1	37
640.574	1	32
640.744	1	28
640.914	1	25
641.083	1	35
641.253	1	25
641.422	1	24
641.592	1	12
641.761	1	27
641.931	1	35
642.100	1	20
642.270	1	32
642.439	1	30
642.609	1	32
642.778	1	27
642.948	1	25
643.117	1	30
643.287	1	26
643.456	1	32
643.626	1	33
643.795	1	33
643.965	1	31
644.134	1	29
644.304	1	19
644.473	1	24
644.643	1	23
644.812	1	28
644.982	1	27
645.151	1	25
645.321	1	38
645.490	1	17
645.660	1	31
645.829	1	23
645.999	1	18
646.168	1	33
646.338	1	22
646.507	1	29
646.677	1	22
646.846	1	14
647.016	1	31
647.185	1	23
647.355	1	22
647.524	1	28
647.694	1	36
647.863	1	9
648.033	1	29
648.202	1	32
648.372	1	30
648.541	1	31
648.711	1	20
648.880	1	24
649.050	1	11
649.219	1	26
649.389	1	33
649.558	1	25
649.728	1	17
649.897	1	36
650.067	1	12
650.236	1	21
650.406	1	31
650.575	1	21
650.745	1	35
650.914	1	32
651.084	1	14
651.253	1	29
651.423	1	32
651.592	1	28
651.762	1	37
651.931	1	33
652.101	1	19
652.270	1	6
652.440	1	30
652.609	1	18
652.778	1	25
652.948	1	22
653.117	1	21
653.287	1	8
653.456	1	19
653.626	1	25
653.795	1	25
653.965	1	38
654.134	1	26
654.304	1	29
654.473	1	21
654.643	1	32
654.812	1	30
654.982	1	26
655.151	1	22
655.320	1	34
655.490	1	29
655.659	1	30
655.829	1	23
655.998	1	14
656.168	1	13
656.337	1	9
656.507	1	19
656.676	1	26
656.846	1	28
657.015	1	31
657.184	1	15
657.354	1	24
657.523	1	29
657.693	1	6
657.862	1	20
658.032	1	32
658.201	1	22
658.371	1	27
658.540	1	17
658.709	1	17
658.879	1	28
659.048	1	23
659.218	1	27
659.387	1	21
659.557	1	22
659.726	1	24
659.895	1	23
660.065	1	14
660.234	1	19
660.404	1	24
660.573	1	20
660.743	1	19
660.912	1	22
661.081	1	32
661.251	1	16
661.420	1	28
661.590	1	16
661.759	1	19
661.929	1	25
662.098	1	29
662.267	1	3
662.437	1	24
662.606	1	16
662.776	1	29
662.945	1	15
663.115	1	15
663.284	1	11
663.453	1	17
663.623	1	17
663.792	1	10
663.962	1	22
664.131	1	12
664.300	1	11
664.470	1	27
664.639	1	19
664.809	1	20
664.978	1	26
665.148	1	19
665.317	1	16
665.486	1	1
665.656	1	29
665.825	1	25
665.995	1	6
666.164	1	17
666.333	1	14
666.503	1	31
666.672	1	13
666.842	1	21
667.011	1	39
667.180	1	10
667.350	1	26
667.519	1	17
667.689	1	11
667.858	1	7
668.027	1	24
668.197	1	23
668.366	1	13
668.536	1	20
668.705	1	21
668.874	1	17
669.044	1	9
669.213	1	27
669.382	1	14
669.552	1	12
669.721	1	25
669.891	1	16
670.060	1	14
670.229	1	18
670.399	1	26
670.568	1	13
670.738	1	17
670.907	1	16
671.076	1	13
671.246	1	8
671.415	1	7
671.584	1	7
671.754	1	19
671.923	1	23
672.093	1	21
672.262	1	25
672.431	1	5
672.601	1	12
672.770	1	21
672.939	1	20
673.109	1	6
673.278	1	25
673.448	1	7
673.617	1	7
673.786	1	21
