325.333	1	30
325.504	1	29
325.675	1	23
325.846	1	14
326.017	1	28
326.188	1	31
326.359	1	31
326.531	1	23
326.702	1	17
326.873	1	23
327.044	1	24
327.215	1	31
327.386	1	25
327.557	1	40
327.728	1	30
327.899	1	34
328.070	1	18
328.241	1	19
328.412	1	42
328.583	1	29
328.754	1	32
328.926	1	39
329.097	1	30
329.268	1	37
329.439	1	30
329.610	1	23
329.781	1	21
329.952	1	30
330.123	1	31
330.294	1	25
330.465	1	26
330.636	1	33
330.807	1	29
330.978	1	34
331.149	1	22
331.320	1	21
331.492	1	33
331.663	1	23
331.834	1	33
332.005	1	34
332.176	1	27
332.347	1	36
332.518	1	35
332.689	1	34
332.860	1	26
333.031	1	33
333.202	1	40
333.373	1	26
333.544	1	36
333.715	1	35
333.886	1	29
334.057	1	42
334.228	1	29
334.399	1	29
334.570	1	14
334.741	1	39
334.912	1	23
335.084	1	43
335.255	1	32
335.426	1	31
335.597	1	38
335.768	1	33
335.939	1	26
336.110	1	34
336.281	1	34
336.452	1	28
336.623	1	44
336.794	1	33
336.965	1	29
337.136	1	43
337.307	1	37
337.478	1	27
337.649	1	34
337.820	1	33
337.991	1	36
338.162	1	35
338.333	1	38
338.504	1	35
338.675	1	26
338.846	1	49
339.017	1	42
339.188	1	41
339.359	1	34
339.530	1	30
339.701	1	27
339.872	1	43
340.043	1	39
340.214	1	26
340.385	1	31
340.556	1	36
340.727	1	45
340.898	1	39
341.069	1	28
341.240	1	27
341.411	1	43
341.582	1	26
341.753	1	33
341.924	1	38
342.095	1	26
342.266	1	31
342.437	1	43
342.608	1	31
342.779	1	39
342.950	1	25
343.121	1	40
343.292	1	43
343.463	1	42
343.634	1	28
343.805	1	37
343.976	1	24
344.147	1	24
344.318	1	26
344.489	1	35
344.660	1	33
344.831	1	26
345.002	1	38
345.173	1	34
345.344	1	39
345.515	1	38
345.686	1	33
345.857	1	45
346.028	1	34
346.199	1	32
346.370	1	38
346.541	1	26
346.712	1	38
346.883	1	29
347.054	1	40
347.225	1	26
347.396	1	11
347.567	1	37
347.738	1	25
347.909	1	42
348.080	1	34
348.251	1	28
348.422	1	21
348.593	1	35
348.764	1	30
348.935	1	37
349.106	1	25
349.277	1	22
349.448	1	30
349.619	1	30
349.790	1	35
349.961	1	24
350.132	1	22
350.303	1	30
350.474	1	33
350.645	1	22
350.816	1	20
350.987	1	23
351.157	1	17
351.328	1	22
351.499	1	29
351.670	1	30
351.841	1	39
352.012	1	30
352.183	1	20
352.354	1	33
352.525	1	27
352.696	1	26
352.867	1	12
353.038	1	33
353.209	1	31
353.380	1	19
353.551	1	23
353.722	1	15
353.893	1	31
354.064	1	18
354.235	1	11
354.406	1	27
354.576	1	30
354.747	1	18
354.918	1	28
355.089	1	28
355.260	1	26
355.431	1	24
355.602	1	23
355.773	1	26
355.944	1	29
356.115	1	10
356.286	1	23
356.457	1	25
356.628	1	16
356.799	1	31
356.970	1	10
357.141	1	19
357.311	1	22
357.482	1	18
357.653	1	5
357.824	1	13
357.995	1	14
358.166	1	11
358.337	1	11
358.508	1	17
358.679	1	3
358.850	1	16
359.021	1	14
359.192	1	15
359.363	1	13
359.533	1	27
359.704	1	15
359.875	1	5
360.046	1	11
360.217	1	15
360.388	1	16
360.559	1	10
360.730	1	14
360.901	1	15
361.072	1	21
361.243	1	18
361.414	1	13
361.584	1	27
361.755	1	13
361.926	1	7
362.097	1	32
362.268	1	8
362.439	1	16
362.610	1	30
362.781	1	16
362.952	1	5
363.123	1	18
363.293	1	8
363.464	1	7
363.635	1	13
363.806	1	7
363.977	1	21
364.148	1	9
364.319	1	12
364.490	1	20
364.661	1	12
364.832	1	17
365.002	1	7
365.173	1	7
365.344	1	15
365.515	1	14
365.686	1	0
365.857	1	12
366.028	1	12
366.199	1	9
366.370	1	18
366.540	1	4
366.711	1	4
366.882	1	4
367.053	1	-3
367.224	1	11
367.395	1	10
367.566	1	15
367.737	1	12
367.908	1	11
368.078	1	8
368.249	1	1
368.420	1	7
368.591	1	3
368.762	1	-2
368.933	1	10
369.104	1	17
369.274	1	4
369.445	1	4
369.616	1	0
369.787	1	12
369.958	1	1
370.129	1	-3
370.300	1	-1
370.471	1	11
370.641	1	-1
370.812	1	7
370.983	1	7
371.154	1	10
371.325	1	15
371.496	1	7
371.667	1	8
371.837	1	6
372.008	1	8
372.179	1	9
372.350	1	7
372.521	1	4
372.692	1	6
372.863	1	7
373.033	1	9
373.204	1	14
373.375	1	-1
373.546	1	18
373.717	1	1
373.888	1	3
374.059	1	1
374.229	1	3
374.400	1	16
374.571	1	0
374.742	1	2
374.913	1	5
375.084	1	1
375.254	1	3
375.425	1	5
375.596	1	18
375.767	1	1
375.938	1	16
376.109	1	1
376.279	1	0
376.450	1	3
376.621	1	16
376.792	1	1
376.963	1	12
377.134	1	-7
377.304	1	16
377.475	1	3
377.646	1	10
377.817	1	9
377.988	1	13
378.159	1	-6
378.329	1	11
378.500	1	-2
378.671	1	3
378.842	1	5
379.013	1	5
379.184	1	4
379.354	1	13
379.525	1	4
379.696	1	5
379.867	1	14
380.038	1	6
380.209	1	-2
380.379	1	10
380.550	1	11
380.721	1	2
380.892	1	-1
381.063	1	14
381.233	1	11
381.404	1	19
381.575	1	6
381.746	1	6
381.917	1	17
382.087	1	5
382.258	1	-3
382.429	1	6
382.600	1	11
382.771	1	5
382.941	1	13
383.112	1	14
383.283	1	19
383.454	1	14
383.625	1	9
383.795	1	4
383.966	1	7
384.137	1	18
384.308	1	19
384.479	1	16
384.649	1	4
384.820	1	9
384.991	1	3
385.162	1	-7
385.333	1	17
385.503	1	2
385.674	1	11
385.845	1	3
386.016	1	7
386.187	1	15
386.357	1	12
386.528	1	15
386.699	1	10
386.870	1	12
387.041	1	3
387.211	1	14
387.382	1	9
387.553	1	9
387.724	1	10
387.894	1	21
388.065	1	8
388.236	1	12
388.407	1	20
388.578	1	14
388.748	1	19
388.919	1	7
389.090	1	2
389.261	1	10
389.431	1	-1
389.602	1	37
389.773	1	19
389.944	1	11
390.114	1	22
390.285	1	9
390.456	1	23
390.627	1	15
390.798	1	7
390.968	1	2
391.139	1	14
391.310	1	10
391.481	1	12
391.651	1	21
391.822	1	18
391.993	1	6
392.164	1	15
392.334	1	14
392.505	1	14
392.676	1	4
392.847	1	27
393.017	1	11
393.188	1	9
393.359	1	6
393.530	1	12
393.700	1	19
393.871	1	18
394.042	1	14
394.213	1	18
394.383	1	23
394.554	1	2
394.725	1	16
394.896	1	25
395.066	1	7
395.237	1	5
395.408	1	26
395.579	1	12
395.749	1	21
395.920	1	22
396.091	1	13
396.262	1	17
396.432	1	29
396.603	1	22
396.774	1	12
396.945	1	23
397.115	1	25
397.286	1	19
397.457	1	20
397.627	1	26
397.798	1	18
397.969	1	27
398.140	1	38
398.310	1	31
398.481	1	25
398.652	1	26
398.823	1	18
398.993	1	32
399.164	1	33
399.335	1	2
399.505	1	20
399.676	1	25
399.847	1	14
400.018	1	20
400.188	1	34
400.359	1	13
400.530	1	22
400.700	1	20
400.871	1	23
401.042	1	31
401.213	1	11
401.383	1	34
401.554	1	26
401.725	1	17
401.895	1	25
402.066	1	32
402.237	1	18
402.408	1	26
402.578	1	17
402.749	1	28
402.920	1	31
403.090	1	13
403.261	1	20
403.432	1	34
403.603	1	32
403.773	1	30
403.944	1	37
404.115	1	29
404.285	1	40
404.456	1	25
404.627	1	28
404.797	1	38
404.968	1	10
405.139	1	24
405.310	1	39
405.480	1	27
405.651	1	36
405.822	1	30
405.992	1	29
406.163	1	28
406.334	1	28
406.504	1	29
406.675	1	35
406.846	1	25
407.016	1	33
407.187	1	15
407.358	1	32
407.528	1	16
407.699	1	39
407.870	1	32
408.041	1	36
408.211	1	21
408.382	1	37
408.553	1	35
408.723	1	39
408.894	1	41
409.065	1	25
409.235	1	33
409.406	1	34
409.577	1	38
409.747	1	27
409.918	1	43
410.089	1	44
410.259	1	35
410.430	1	35
410.601	1	40
410.771	1	30
410.942	1	31
411.113	1	43
411.283	1	43
411.454	1	26
411.625	1	36
411.795	1	41
411.966	1	41
412.137	1	32
412.307	1	25
412.478	1	38
412.649	1	31
412.819	1	41
412.990	1	25
413.161	1	30
413.331	1	35
413.502	1	42
413.672	1	35
413.843	1	41
414.014	1	33
414.184	1	37
414.355	1	32
414.526	1	45
414.696	1	57
414.867	1	30
415.038	1	45
415.208	1	33
415.379	1	51
415.550	1	49
415.720	1	21
415.891	1	41
416.062	1	32
416.232	1	35
416.403	1	42
416.573	1	33
416.744	1	42
416.915	1	29
417.085	1	56
417.256	1	38
417.427	1	41
417.597	1	45
417.768	1	44
417.939	1	43
418.109	1	42
418.280	1	28
418.450	1	43
418.621	1	39
418.792	1	40
418.962	1	46
419.133	1	51
419.304	1	44
419.474	1	54
419.645	1	49
419.815	1	42
419.986	1	36
420.157	1	45
420.327	1	48
420.498	1	39
420.669	1	48
420.839	1	28
421.010	1	44
421.180	1	42
421.351	1	41
421.522	1	37
421.692	1	40
421.863	1	39
422.033	1	42
422.204	1	39
422.375	1	34
422.545	1	37
422.716	1	42
422.886	1	39
423.057	1	36
423.228	1	48
423.398	1	40
423.569	1	33
423.740	1	44
423.910	1	36
424.081	1	33
424.251	1	35
424.422	1	42
424.593	1	43
424.763	1	34
424.934	1	48
425.104	1	56
425.275	1	44
425.445	1	34
425.616	1	42
425.787	1	50
425.957	1	44
426.128	1	50
426.298	1	41
426.469	1	45
426.640	1	42
426.810	1	41
426.981	1	40
427.151	1	58
427.322	1	41
427.493	1	50
427.663	1	49
427.834	1	57
428.004	1	42
428.175	1	48
428.345	1	44
428.516	1	47
428.687	1	47
428.857	1	42
429.028	1	47
429.198	1	42
429.369	1	49
429.540	1	50
429.710	1	39
429.881	1	49
430.051	1	43
430.222	1	39
430.392	1	41
430.563	1	44
430.734	1	46
430.904	1	48
431.075	1	37
431.245	1	45
431.416	1	51
431.586	1	52
431.757	1	59
431.927	1	44
432.098	1	50
432.269	1	46
432.439	1	41
432.610	1	40
432.780	1	44
432.951	1	37
433.121	1	51
433.292	1	49
433.462	1	36
433.633	1	45
433.804	1	55
433.974	1	42
434.145	1	37
434.315	1	43
434.486	1	52
434.656	1	45
434.827	1	39
434.997	1	42
435.168	1	54
435.339	1	49
435.509	1	38
435.680	1	48
435.850	1	48
436.021	1	42
436.191	1	51
436.362	1	45
436.532	1	56
436.703	1	55
436.873	1	37
437.044	1	49
437.214	1	43
437.385	1	47
437.556	1	45
437.726	1	48
437.897	1	27
438.067	1	40
438.238	1	45
438.408	1	41
438.579	1	49
438.749	1	57
438.920	1	38
439.090	1	44
439.261	1	50
439.431	1	51
439.602	1	39
439.772	1	52
439.943	1	35
440.113	1	52
440.284	1	35
440.455	1	44
440.625	1	40
440.796	1	47
440.966	1	58
441.137	1	49
441.307	1	51
441.478	1	40
441.648	1	37
441.819	1	46
441.989	1	52
442.160	1	45
442.330	1	30
442.501	1	44
442.671	1	38
442.842	1	49
443.012	1	34
443.183	1	44
443.353	1	41
443.524	1	43
443.694	1	42
443.865	1	30
444.035	1	35
444.206	1	40
444.376	1	39
444.547	1	41
444.717	1	50
444.888	1	46
445.058	1	53
445.229	1	44
445.399	1	41
445.570	1	43
445.740	1	36
445.911	1	39
446.081	1	46
446.252	1	39
446.422	1	47
446.593	1	29
446.763	1	44
446.934	1	47
447.104	1	41
447.275	1	46
447.445	1	56
447.616	1	42
447.786	1	37
447.957	1	43
448.127	1	32
448.298	1	37
448.468	1	45
448.639	1	54
448.809	1	44
448.979	1	42
449.150	1	40
449.320	1	48
449.491	1	46
449.661	1	40
449.832	1	47
450.002	1	49
450.173	1	37
450.343	1	48
450.514	1	37
450.684	1	44
450.855	1	42
451.025	1	52
451.196	1	40
451.366	1	43
451.537	1	29
451.707	1	36
451.878	1	41
452.048	1	42
452.218	1	46
452.389	1	47
452.559	1	40
452.730	1	35
452.900	1	43
453.071	1	33
453.241	1	38
453.412	1	46
453.582	1	35
453.753	1	35
453.923	1	37
454.093	1	51
454.264	1	45
454.434	1	43
454.605	1	33
454.775	1	45
454.946	1	43
455.116	1	41
455.287	1	36
455.457	1	38
455.628	1	43
455.798	1	30
455.968	1	43
456.139	1	43
456.309	1	41
456.480	1	36
456.650	1	39
456.821	1	40
456.991	1	33
457.161	1	41
457.332	1	32
457.502	1	39
457.673	1	34
457.843	1	42
458.014	1	37
458.184	1	41
458.355	1	31
458.525	1	37
458.695	1	41
458.866	1	26
459.036	1	23
459.207	1	26
459.377	1	30
459.548	1	40
459.718	1	25
459.888	1	36
460.059	1	33
460.229	1	31
460.400	1	17
460.570	1	34
460.740	1	31
460.911	1	38
461.081	1	40
461.252	1	36
461.422	1	50
461.593	1	31
461.763	1	35
461.933	1	33
462.104	1	34
462.274	1	30
462.445	1	31
462.615	1	27
462.785	1	38
462.956	1	22
463.126	1	39
463.297	1	30
463.467	1	42
463.638	1	30
463.808	1	28
463.978	1	25
464.149	1	38
464.319	1	28
464.490	1	30
464.660	1	29
464.830	1	48
465.001	1	35
465.171	1	32
465.342	1	32
465.512	1	25
465.682	1	34
465.853	1	28
466.023	1	22
466.194	1	26
466.364	1	27
466.534	1	28
466.705	1	42
466.875	1	35
467.045	1	24
467.216	1	22
467.386	1	35
467.557	1	29
467.727	1	28
467.897	1	19
468.068	1	40
468.238	1	37
468.409	1	24
468.579	1	27
468.749	1	27
468.920	1	23
469.090	1	7
469.260	1	38
469.431	1	22
469.601	1	22
469.772	1	35
469.942	1	32
470.112	1	25
470.283	1	28
470.453	1	28
470.623	1	22
470.794	1	23
470.964	1	36
471.135	1	31
471.305	1	35
471.475	1	32
471.646	1	21
471.816	1	38
471.986	1	30
472.157	1	26
472.327	1	32
472.497	1	28
472.668	1	32
472.838	1	30
473.009	1	30
473.179	1	31
473.349	1	14
473.520	1	18
473.690	1	32
473.860	1	28
474.031	1	12
474.201	1	24
474.371	1	38
474.542	1	23
474.712	1	28
474.882	1	23
475.053	1	20
475.223	1	13
475.394	1	21
475.564	1	17
475.734	1	34
475.905	1	34
476.075	1	36
476.245	1	23
476.416	1	24
476.586	1	12
476.756	1	27
476.927	1	37
477.097	1	27
477.267	1	30
477.438	1	13
477.608	1	19
477.778	1	28
477.949	1	19
478.119	1	28
478.289	1	20
478.460	1	13
478.630	1	39
478.800	1	25
478.971	1	20
479.141	1	22
479.311	1	37
479.482	1	20
479.652	1	19
479.822	1	25
479.993	1	25
480.163	1	14
480.333	1	23
480.504	1	28
480.674	1	13
480.844	1	21
481.015	1	20
481.185	1	17
481.355	1	26
481.525	1	17
481.696	1	24
481.866	1	14
482.036	1	13
482.207	1	4
482.377	1	8
482.547	1	23
482.718	1	18
482.888	1	23
483.058	1	27
483.229	1	22
483.399	1	19
483.569	1	22
483.740	1	3
483.910	1	16
484.080	1	18
484.250	1	3
484.421	1	16
484.591	1	23
484.761	1	13
484.932	1	23
485.102	1	22
485.272	1	20
485.443	1	12
485.613	1	24
485.783	1	15
485.953	1	20
486.124	1	17
486.294	1	17
486.464	1	15
486.635	1	7
486.805	1	22
486.975	1	14
487.146	1	15
487.316	1	21
487.486	1	8
487.656	1	19
487.827	1	20
487.997	1	22
488.167	1	13
488.338	1	20
488.508	1	18
488.678	1	15
488.848	1	16
489.019	1	13
489.189	1	18
489.359	1	12
489.529	1	9
489.700	1	7
489.870	1	3
490.040	1	8
490.211	1	16
490.381	1	25
490.551	1	11
490.721	1	16
490.892	1	8
491.062	1	13
491.232	1	21
491.402	1	12
491.573	1	8
491.743	1	12
491.913	1	18
492.084	1	15
492.254	1	20
492.424	1	9
492.594	1	9
492.765	1	8
492.935	1	9
493.105	1	17
493.275	1	18
493.446	1	13
493.616	1	8
493.786	1	11
493.956	1	16
494.127	1	9
494.297	1	6
494.467	1	17
494.637	1	9
494.808	1	12
494.978	1	13
495.148	1	1
495.318	1	9
495.489	1	17
495.659	1	12
495.829	1	10
495.999	1	14
496.170	1	2
496.340	1	12
496.510	1	14
496.680	1	17
496.851	1	9
497.021	1	7
497.191	1	7
497.361	1	17
497.532	1	14
497.702	1	11
497.872	1	11
498.042	1	12
498.213	1	9
498.383	1	9
498.553	1	18
498.723	1	21
498.894	1	9
499.064	1	8
499.234	1	-3
499.404	1	13
499.574	1	14
499.745	1	15
499.915	1	7
500.085	1	4
500.255	1	-2
500.426	1	0
500.596	1	12
500.766	1	14
500.936	1	5
501.106	1	23
501.277	1	14
501.447	1	1
501.617	1	13
501.787	1	3
501.958	1	21
502.128	1	15
502.298	1	3
502.468	1	11
502.638	1	8
502.809	1	18
502.979	1	11
503.149	1	19
503.319	1	11
503.489	1	9
503.660	1	8
503.830	1	11
504.000	1	9
504.170	1	8
504.340	1	14
504.511	1	15
504.681	1	18
504.851	1	10
505.021	1	2
505.192	1	11
505.362	1	10
505.532	1	13
505.702	1	9
505.872	1	6
506.043	1	6
506.213	1	11
506.383	1	6
506.553	1	8
506.723	1	13
506.893	1	-3
507.064	1	14
507.234	1	12
507.404	1	-9
507.574	1	10
507.744	1	14
507.915	1	12
508.085	1	10
508.255	1	13
508.425	1	8
508.595	1	16
508.766	1	9
508.936	1	-1
509.106	1	7
509.276	1	13
509.446	1	15
509.616	1	9
509.787	1	22
509.957	1	-3
510.127	1	5
510.297	1	1
510.467	1	13
510.638	1	12
510.808	1	16
510.978	1	3
511.148	1	14
511.318	1	10
511.488	1	6
511.659	1	9
511.829	1	24
511.999	1	1
512.169	1	9
512.339	1	1
512.509	1	15
512.680	1	7
512.850	1	10
513.020	1	9
513.190	1	11
513.360	1	7
513.530	1	-2
513.700	1	15
513.871	1	13
514.041	1	2
514.211	1	-3
514.381	1	13
514.551	1	2
514.721	1	8
514.892	1	15
515.062	1	4
515.232	1	10
515.402	1	16
515.572	1	7
515.742	1	4
515.912	1	2
516.083	1	3
516.253	1	-3
516.423	1	3
516.593	1	6
516.763	1	18
516.933	1	10
517.104	1	14
517.274	1	3
517.444	1	14
517.614	1	9
517.784	1	16
517.954	1	-5
518.124	1	7
518.294	1	8
518.465	1	-3
518.635	1	2
518.805	1	18
518.975	1	4
519.145	1	3
519.315	1	10
519.485	1	4
519.656	1	6
519.826	1	4
519.996	1	10
520.166	1	9
520.336	1	17
520.506	1	0
520.676	1	8
520.846	1	14
521.017	1	14
521.187	1	12
521.357	1	5
521.527	1	8
521.697	1	6
521.867	1	7
522.037	1	-5
522.207	1	15
522.377	1	0
522.548	1	5
522.718	1	9
522.888	1	12
523.058	1	10
523.228	1	-3
523.398	1	9
523.568	1	5
523.738	1	6
523.909	1	9
524.079	1	12
524.249	1	-1
524.419	1	-1
524.589	1	6
524.759	1	8
524.929	1	9
525.099	1	4
525.269	1	13
525.439	1	-3
525.610	1	22
525.780	1	4
525.950	1	7
526.120	1	-4
526.290	1	16
526.460	1	8
526.630	1	16
526.800	1	8
526.970	1	6
527.140	1	13
527.311	1	5
527.481	1	2
527.651	1	8
527.821	1	-1
527.991	1	1
528.161	1	3
528.331	1	9
528.501	1	-1
528.671	1	-3
528.841	1	12
529.011	1	14
529.181	1	6
529.352	1	4
529.522	1	11
529.692	1	6
529.862	1	8
530.032	1	10
530.202	1	7
530.372	1	2
530.542	1	3
530.712	1	7
530.882	1	-4
531.052	1	9
531.222	1	3
531.392	1	9
531.563	1	4
531.733	1	3
531.903	1	18
532.073	1	5
532.243	1	4
532.413	1	-3
532.583	1	14
532.753	1	7
532.923	1	6
533.093	1	-5
533.263	1	3
533.433	1	9
533.603	1	12
533.773	1	3
533.943	1	10
534.113	1	12
534.284	1	10
534.454	1	9
534.624	1	5
534.794	1	9
534.964	1	8
535.134	1	10
535.304	1	10
535.474	1	6
535.644	1	-3
535.814	1	9
535.984	1	11
536.154	1	9
536.324	1	10
536.494	1	-1
536.664	1	7
536.834	1	11
537.004	1	6
537.174	1	8
537.344	1	11
537.514	1	6
537.685	1	8
537.855	1	14
538.025	1	5
538.195	1	9
538.365	1	-4
538.535	1	0
538.705	1	14
538.875	1	13
539.045	1	6
539.215	1	3
539.385	1	6
539.555	1	10
539.725	1	-4
539.895	1	1
540.065	1	10
540.235	1	14
540.405	1	10
540.575	1	11
540.745	1	4
540.915	1	3
541.085	1	11
541.255	1	-2
541.425	1	14
541.595	1	8
541.765	1	3
541.935	1	3
542.105	1	8
542.275	1	12
542.445	1	5
542.615	1	2
542.785	1	7
542.955	1	9
543.125	1	9
543.295	1	-2
543.465	1	1
543.635	1	-3
543.805	1	4
543.975	1	-2
544.145	1	3
544.315	1	-1
544.485	1	9
544.655	1	11
544.825	1	12
544.995	1	11
545.165	1	7
545.335	1	4
545.505	1	12
545.675	1	9
545.845	1	-2
546.015	1	6
546.185	1	16
546.355	1	25
546.525	1	15
546.695	1	1
546.865	1	14
547.035	1	1
547.205	1	22
547.375	1	-1
547.545	1	2
547.715	1	2
547.885	1	-5
548.055	1	12
548.225	1	15
548.395	1	4
548.565	1	10
548.735	1	10
548.905	1	9
549.075	1	8
549.245	1	0
549.415	1	9
549.585	1	-4
549.755	1	-3
549.925	1	9
550.095	1	18
550.265	1	2
550.435	1	6
550.605	1	2
550.775	1	11
550.945	1	5
551.115	1	2
551.285	1	5
551.455	1	-2
551.625	1	17
551.795	1	-1
551.965	1	4
552.135	1	9
552.305	1	9
552.475	1	16
552.645	1	9
552.815	1	9
552.985	1	16
553.155	1	9
553.325	1	-5
553.495	1	9
553.665	1	9
553.835	1	11
554.004	1	0
554.174	1	4
554.344	1	0
554.514	1	7
554.684	1	1
554.854	1	9
555.024	1	6
555.194	1	8
555.364	1	9
555.534	1	12
555.704	1	4
555.874	1	9
556.044	1	0
556.214	1	14
556.384	1	1
556.554	1	-7
556.724	1	-2
556.894	1	4
557.064	1	15
557.234	1	7
557.404	1	11
557.573	1	7
557.743	1	10
557.913	1	17
558.083	1	6
558.253	1	-1
558.423	1	6
558.593	1	14
558.763	1	14
558.933	1	4
559.103	1	14
559.273	1	13
559.443	1	0
559.613	1	2
559.783	1	9
559.953	1	-2
560.122	1	-10
560.292	1	1
560.462	1	0
560.632	1	1
560.802	1	16
560.972	1	6
561.142	1	12
561.312	1	6
561.482	1	4
561.652	1	-7
561.822	1	-7
561.992	1	9
562.162	1	-5
562.331	1	20
562.501	1	6
562.671	1	10
562.841	1	-5
563.011	1	11
563.181	1	6
563.351	1	13
563.521	1	-10
563.691	1	10
563.861	1	13
564.031	1	-2
564.201	1	7
564.370	1	3
564.540	1	7
564.710	1	-1
564.880	1	3
565.050	1	1
565.220	1	10
565.390	1	5
565.560	1	2
565.730	1	12
565.900	1	10
566.069	1	-7
566.239	1	4
566.409	1	8
566.579	1	-5
566.749	1	-10
566.919	1	7
567.089	1	10
567.259	1	1
567.429	1	13
567.599	1	8
567.768	1	13
567.938	1	13
568.108	1	1
568.278	1	6
568.448	1	6
568.618	1	14
568.788	1	6
568.958	1	4
569.128	1	7
569.297	1	10
569.467	1	3
569.637	1	0
569.807	1	12
569.977	1	2
570.147	1	1
570.317	1	-4
570.487	1	10
570.656	1	-2
570.826	1	13
570.996	1	7
571.166	1	12
571.336	1	-6
571.506	1	0
571.676	1	4
571.846	1	4
572.015	1	-6
572.185	1	9
572.355	1	7
572.525	1	2
572.695	1	8
572.865	1	7
573.035	1	4
573.205	1	-2
573.374	1	-2
573.544	1	10
573.714	1	5
573.884	1	7
574.054	1	19
574.224	1	5
574.394	1	1
574.563	1	-1
574.733	1	1
574.903	1	-6
575.073	1	1
575.243	1	8
575.413	1	5
575.583	1	15
575.752	1	0
575.922	1	7
576.092	1	4
576.262	1	-3
576.432	1	4
576.602	1	6
576.772	1	1
576.941	1	5
577.111	1	0
577.281	1	7
577.451	1	12
577.621	1	6
577.791	1	5
577.960	1	9
578.130	1	-1
578.300	1	5
578.470	1	11
578.640	1	7
578.810	1	10
578.979	1	10
579.149	1	10
579.319	1	12
579.489	1	2
579.659	1	4
579.829	1	-3
579.998	1	4
580.168	1	-5
580.338	1	13
580.508	1	11
580.678	1	2
580.848	1	12
581.017	1	8
581.187	1	9
581.357	1	-1
581.527	1	-1
581.697	1	-5
581.867	1	-7
582.036	1	-13
582.206	1	2
582.376	1	3
582.546	1	5
582.716	1	9
582.885	1	9
583.055	1	11
583.225	1	9
583.395	1	11
583.565	1	4
583.735	1	13
583.904	1	8
584.074	1	10
584.244	1	-4
584.414	1	14
584.584	1	10
584.753	1	-8
584.923	1	0
585.093	1	13
585.263	1	7
585.433	1	-1
585.602	1	17
585.772	1	8
585.942	1	-3
586.112	1	-5
586.282	1	2
586.451	1	15
586.621	1	14
586.791	1	15
586.961	1	6
587.131	1	12
587.300	1	0
587.470	1	-10
587.640	1	4
587.810	1	9
587.980	1	1
588.149	1	24
588.319	1	13
588.489	1	-5
588.659	1	-2
588.829	1	12
588.998	1	20
589.168	1	7
589.338	1	-2
589.508	1	9
589.677	1	1
589.847	1	3
590.017	1	15
590.187	1	5
590.357	1	9
590.526	1	0
590.696	1	-3
590.866	1	-4
591.036	1	13
591.205	1	14
591.375	1	0
591.545	1	13
591.715	1	-3
591.885	1	8
592.054	1	1
592.224	1	7
592.394	1	10
592.564	1	9
592.733	1	5
592.903	1	23
593.073	1	10
593.243	1	14
593.412	1	5
593.582	1	-2
593.752	1	11
593.922	1	11
594.091	1	8
594.261	1	1
594.431	1	-4
594.601	1	11
594.771	1	1
594.940	1	18
595.110	1	13
595.280	1	6
595.450	1	33
595.619	1	10
595.789	1	5
595.959	1	8
596.129	1	12
596.298	1	6
596.468	1	6
596.638	1	7
596.808	1	10
596.977	1	15
597.147	1	8
597.317	1	13
597.487	1	4
597.656	1	-2
597.826	1	12
597.996	1	14
598.166	1	15
598.335	1	9
598.505	1	10
598.675	1	3
598.844	1	3
599.014	1	-4
599.184	1	4
599.354	1	20
599.523	1	14
599.693	1	15
599.863	1	9
600.033	1	5
600.202	1	-1
600.372	1	5
600.542	1	15
600.712	1	4
600.881	1	17
601.051	1	14
601.221	1	20
601.390	1	10
601.560	1	11
601.730	1	-1
601.900	1	9
602.069	1	9
602.239	1	-5
602.409	1	11
602.578	1	11
602.748	1	2
602.918	1	18
603.088	1	5
603.257	1	25
603.427	1	7
603.597	1	9
603.767	1	16
603.936	1	7
604.106	1	12
604.276	1	14
604.445	1	12
604.615	1	18
604.785	1	20
604.954	1	14
605.124	1	23
605.294	1	17
605.464	1	21
605.633	1	11
605.803	1	9
605.973	1	12
606.142	1	9
606.312	1	18
606.482	1	5
606.652	1	9
606.821	1	8
606.991	1	9
607.161	1	16
607.330	1	10
607.500	1	6
607.670	1	7
607.839	1	14
608.009	1	12
608.179	1	8
608.348	1	17
608.518	1	14
608.688	1	4
608.858	1	12
609.027	1	19
609.197	1	4
609.367	1	1
609.536	1	17
609.706	1	13
609.876	1	15
610.045	1	13
610.215	1	16
610.385	1	23
610.554	1	23
610.724	1	14
610.894	1	24
611.063	1	9
611.233	1	6
611.403	1	11
611.572	1	15
611.742	1	12
611.912	1	13
612.081	1	18
612.251	1	20
612.421	1	17
612.590	1	7
612.760	1	6
612.930	1	14
613.099	1	17
613.269	1	-3
613.439	1	24
613.608	1	14
613.778	1	18
613.948	1	6
614.117	1	15
614.287	1	3
614.457	1	14
614.626	1	21
614.796	1	12
614.966	1	18
615.135	1	19
615.305	1	18
615.475	1	21
615.644	1	15
615.814	1	18
615.984	1	14
616.153	1	20
616.323	1	8
616.493	1	11
616.662	1	20
616.832	1	9
617.002	1	18
617.171	1	16
617.341	1	20
617.511	1	22
617.680	1	23
617.850	1	26
618.019	1	25
618.189	1	31
618.359	1	5
618.528	1	14
618.698	1	23
618.868	1	9
619.037	1	12
619.207	1	21
619.377	1	23
619.546	1	24
619.716	1	17
619.885	1	19
620.055	1	24
620.225	1	17
620.394	1	16
620.564	1	34
620.734	1	27
620.903	1	20
621.073	1	31
621.242	1	41
621.412	1	1
621.582	1	28
621.751	1	29
621.921	1	13
622.091	1	20
622.260	1	8
622.430	1	18
622.599	1	20
622.769	1	22
622.939	1	5
623.108	1	20
623.278	1	19
623.448	1	17
623.617	1	9
623.787	1	15
623.956	1	16
624.126	1	24
624.296	1	27
624.465	1	13
624.635	1	14
624.804	1	26
624.974	1	25
625.144	1	26
625.313	1	23
625.483	1	30
625.652	1	21
625.822	1	31
625.992	1	30
626.161	1	20
626.331	1	35
626.501	1	22
626.670	1	20
626.840	1	23
627.009	1	16
627.179	1	22
627.348	1	34
627.518	1	14
627.688	1	17
627.857	1	23
628.027	1	19
628.196	1	29
628.366	1	30
628.536	1	14
628.705	1	25
628.875	1	17
629.044	1	9
629.214	1	16
629.384	1	24
629.553	1	32
629.723	1	17
629.892	1	20
630.062	1	22
630.232	1	25
630.401	1	22
630.571	1	27
630.740	1	22
630.910	1	19
631.079	1	33
631.249	1	18
631.419	1	22
631.588	1	28
631.758	1	31
631.927	1	20
632.097	1	27
632.266	1	20
632.436	1	28
632.606	1	27
632.775	1	22
632.945	1	12
633.114	1	24
633.284	1	19
633.453	1	17
633.623	1	33
633.793	1	11
633.962	1	13
634.132	1	26
634.301	1	23
634.471	1	14
634.640	1	20
634.810	1	31
634.979	1	8
635.149	1	27
635.319	1	36
635.488	1	18
635.658	1	29
635.827	1	30
635.997	1	26
636.166	1	27
636.336	1	23
636.505	1	25
636.675	1	33
636.845	1	26
637.014	1	19
637.184	1	26
637.353	1	39
637.523	1	21
637.692	1	24
637.862	1	25
638.031	1	21
638.201	1	34
638.370	1	37
638.540	1	15
638.710	1	31
638.879	1	26
639.049	1	15
639.218	1	35
639.388	1	29
639.557	1	17
639.727	1	30
639.896	1	33
640.066	1	33
640.235	1	23
640.405	1	36
640.574	1	28
640.744	1	23
640.914	1	17
641.083	1	31
641.253	1	34
641.422	1	22
641.592	1	15
641.761	1	22
641.931	1	14
642.100	1	23
642.270	1	5
642.439	1	28
642.609	1	32
642.778	1	22
642.948	1	29
643.117	1	24
643.287	1	20
643.456	1	22
643.626	1	29
643.795	1	32
643.965	1	22
644.134	1	32
644.304	1	15
644.473	1	30
644.643	1	16
644.812	1	25
644.982	1	18
645.151	1	27
645.321	1	33
645.490	1	28
645.660	1	30
645.829	1	18
645.999	1	24
646.168	1	38
646.338	1	12
646.507	1	17
646.677	1	26
646.846	1	19
647.016	1	26
647.185	1	32
647.355	1	23
647.524	1	22
647.694	1	26
647.863	1	17
648.033	1	18
648.202	1	26
648.372	1	34
648.541	1	20
648.711	1	29
648.880	1	20
649.050	1	20
649.219	1	27
649.389	1	19
649.558	1	21
649.728	1	21
649.897	1	26
650.067	1	18
650.236	1	20
650.406	1	11
650.575	1	30
650.745	1	26
650.914	1	26
651.084	1	26
651.253	1	28
651.423	1	25
651.592	1	18
651.762	1	29
651.931	1	24
652.101	1	23
652.270	1	17
652.440	1	16
652.609	1	30
652.778	1	28
652.948	1	10
653.117	1	24
653.287	1	18
653.456	1	14
653.626	1	35
653.795	1	34
653.965	1	36
654.134	1	24
654.304	1	18
654.473	1	20
654.643	1	26
654.812	1	30
654.982	1	28
655.151	1	22
655.320	1	35
655.490	1	22
655.659	1	32
655.829	1	28
655.998	1	13
656.168	1	20
656.337	1	9
656.507	1	18
656.676	1	33
656.846	1	23
657.015	1	17
657.184	1	28
657.354	1	26
657.523	1	17
657.693	1	13
657.862	1	18
658.032	1	20
658.201	1	14
658.371	1	28
658.540	1	19
658.709	1	22
658.879	1	33
659.048	1	16
659.218	1	18
659.387	1	26
659.557	1	14
659.726	1	16
659.895	1	26
660.065	1	10
660.234	1	15
660.404	1	32
660.573	1	15
660.743	1	13
660.912	1	15
661.081	1	15
661.251	1	25
661.420	1	18
661.590	1	14
661.759	1	13
661.929	1	19
662.098	1	21
662.267	1	18
662.437	1	15
662.606	1	18
662.776	1	18
662.945	1	14
663.115	1	19
663.284	1	7
663.453	1	22
663.623	1	1
663.792	1	13
663.962	1	27
664.131	1	12
664.300	1	12
664.470	1	25
664.639	1	25
664.809	1	21
664.978	1	23
665.148	1	24
665.317	1	8
665.486	1	1
665.656	1	16
665.825	1	31
665.995	1	10
666.164	1	15
666.333	1	25
666.503	1	15
666.672	1	13
666.842	1	11
667.011	1	36
667.180	1	10
667.350	1	17
667.519	1	16
667.689	1	21
667.858	1	11
668.027	1	14
668.197	1	30
668.366	1	7
668.536	1	23
668.705	1	20
668.874	1	16
669.044	1	6
669.213	1	24
669.382	1	10
669.552	1	13
669.721	1	16
669.891	1	24
670.060	1	12
670.229	1	8
670.399	1	22
670.568	1	7
670.738	1	20
670.907	1	24
671.076	1	17
671.246	1	8
671.415	1	13
671.584	1	9
671.754	1	14
671.923	1	30
672.093	1	27
672.262	1	25
672.431	1	16
672.601	1	24
672.770	1	12
672.939	1	22
673.109	1	-2
673.278	1	18
673.448	1	26
673.617	1	16
673.786	1	9
