325.333	1	97
325.504	1	95
325.675	1	87
325.846	1	95
326.017	1	97
326.188	1	96
326.359	1	109
326.531	1	99
326.702	1	104
326.873	1	103
327.044	1	102
327.215	1	106
327.386	1	103
327.557	1	119
327.728	1	117
327.899	1	108
328.070	1	107
328.241	1	107
328.412	1	115
328.583	1	112
328.754	1	122
328.926	1	116
329.097	1	133
329.268	1	140
329.439	1	124
329.610	1	112
329.781	1	119
329.952	1	121
330.123	1	128
330.294	1	126
330.465	1	125
330.636	1	137
330.807	1	130
330.978	1	131
331.149	1	126
331.320	1	130
331.492	1	129
331.663	1	127
331.834	1	138
332.005	1	140
332.176	1	143
332.347	1	141
332.518	1	144
332.689	1	144
332.860	1	133
333.031	1	135
333.202	1	144
333.373	1	140
333.544	1	151
333.715	1	152
333.886	1	140
334.057	1	159
334.228	1	149
334.399	1	149
334.570	1	135
334.741	1	171
334.912	1	141
335.084	1	157
335.255	1	144
335.426	1	153
335.597	1	155
335.768	1	152
335.939	1	148
336.110	1	154
336.281	1	159
336.452	1	154
336.623	1	156
336.794	1	149
336.965	1	169
337.136	1	159
337.307	1	171
337.478	1	153
337.649	1	161
337.820	1	152
337.991	1	161
338.162	1	158
338.333	1	158
338.504	1	173
338.675	1	154
338.846	1	180
339.017	1	153
339.188	1	168
339.359	1	154
339.530	1	161
339.701	1	167
339.872	1	156
340.043	1	159
340.214	1	160
340.385	1	162
340.556	1	163
340.727	1	156
340.898	1	171
341.069	1	159
341.240	1	150
341.411	1	164
341.582	1	154
341.753	1	165
341.924	1	163
342.095	1	158
342.266	1	163
342.437	1	157
342.608	1	155
342.779	1	161
342.950	1	161
343.121	1	175
343.292	1	162
343.463	1	181
343.634	1	158
343.805	1	154
343.976	1	154
344.147	1	143
344.318	1	149
344.489	1	162
344.660	1	145
344.831	1	155
345.002	1	155
345.173	1	161
345.344	1	152
345.515	1	158
345.686	1	161
345.857	1	161
346.028	1	165
346.199	1	163
346.370	1	149
346.541	1	148
346.712	1	150
346.883	1	150
347.054	1	150
347.225	1	141
347.396	1	135
347.567	1	166
347.738	1	154
347.909	1	144
348.080	1	146
348.251	1	142
348.422	1	143
348.593	1	137
348.764	1	155
348.935	1	141
349.106	1	144
349.277	1	137
349.448	1	137
349.619	1	131
349.790	1	152
349.961	1	138
350.132	1	143
350.303	1	131
350.474	1	133
350.645	1	143
350.816	1	128
350.987	1	136
351.157	1	124
351.328	1	128
351.499	1	127
351.670	1	131
351.841	1	148
352.012	1	136
352.183	1	125
352.354	1	136
352.525	1	131
352.696	1	125
352.867	1	117
353.038	1	136
353.209	1	127
353.380	1	117
353.551	1	120
353.722	1	120
353.893	1	116
354.064	1	121
354.235	1	116
354.406	1	123
354.576	1	121
354.747	1	115
354.918	1	112
355.089	1	115
355.260	1	110
355.431	1	111
355.602	1	110
355.773	1	101
355.944	1	109
356.115	1	114
356.286	1	110
356.457	1	105
356.628	1	97
356.799	1	110
356.970	1	97
357.141	1	91
357.311	1	101
357.482	1	100
357.653	1	101
357.824	1	100
357.995	1	104
358.166	1	100
358.337	1	93
358.508	1	104
358.679	1	90
358.850	1	112
359.021	1	100
359.192	1	86
359.363	1	92
359.533	1	96
359.704	1	90
359.875	1	85
360.046	1	97
360.217	1	95
360.388	1	90
360.559	1	87
360.730	1	99
360.901	1	87
361.072	1	73
361.243	1	95
361.414	1	86
361.584	1	81
361.755	1	90
361.926	1	86
362.097	1	94
362.268	1	82
362.439	1	94
362.610	1	83
362.781	1	76
362.952	1	70
363.123	1	73
363.293	1	77
363.464	1	75
363.635	1	85
363.806	1	73
363.977	1	69
364.148	1	65
364.319	1	69
364.490	1	69
364.661	1	77
364.832	1	77
365.002	1	75
365.173	1	59
365.344	1	69
365.515	1	71
365.686	1	58
365.857	1	81
366.028	1	60
366.199	1	68
366.370	1	64
366.540	1	65
366.711	1	60
366.882	1	65
367.053	1	62
367.224	1	69
367.395	1	70
367.566	1	72
367.737	1	63
367.908	1	53
368.078	1	58
368.249	1	78
368.420	1	68
368.591	1	68
368.762	1	58
368.933	1	58
369.104	1	59
369.274	1	59
369.445	1	68
369.616	1	64
369.787	1	67
369.958	1	50
370.129	1	46
370.300	1	59
370.471	1	70
370.641	1	51
370.812	1	48
370.983	1	62
371.154	1	58
371.325	1	63
371.496	1	55
371.667	1	61
371.837	1	70
372.008	1	68
372.179	1	68
372.350	1	52
372.521	1	65
372.692	1	58
372.863	1	69
373.033	1	69
373.204	1	60
373.375	1	61
373.546	1	65
373.717	1	60
373.888	1	63
374.059	1	56
374.229	1	66
374.400	1	70
374.571	1	58
374.742	1	53
374.913	1	55
375.084	1	65
375.254	1	75
375.425	1	59
375.596	1	75
375.767	1	61
375.938	1	58
376.109	1	59
376.279	1	59
376.450	1	61
376.621	1	73
376.792	1	56
376.963	1	70
377.134	1	64
377.304	1	75
377.475	1	64
377.646	1	76
377.817	1	62
377.988	1	69
378.159	1	69
378.329	1	82
378.500	1	63
378.671	1	78
378.842	1	68
379.013	1	82
379.184	1	69
379.354	1	76
379.525	1	71
379.696	1	83
379.867	1	84
380.038	1	79
380.209	1	68
380.379	1	74
380.550	1	84
380.721	1	70
380.892	1	74
381.063	1	83
381.233	1	92
381.404	1	95
381.575	1	82
381.746	1	93
381.917	1	97
382.087	1	89
382.258	1	85
382.429	1	99
382.600	1	91
382.771	1	101
382.941	1	98
383.112	1	96
383.283	1	100
383.454	1	101
383.625	1	98
383.795	1	97
383.966	1	93
384.137	1	99
384.308	1	103
384.479	1	106
384.649	1	102
384.820	1	114
384.991	1	102
385.162	1	113
385.333	1	107
385.503	1	107
385.674	1	122
385.845	1	109
386.016	1	121
386.187	1	105
386.357	1	122
386.528	1	110
386.699	1	126
386.870	1	118
387.041	1	112
387.211	1	118
387.382	1	108
387.553	1	131
387.724	1	124
387.894	1	136
388.065	1	129
388.236	1	133
388.407	1	132
388.578	1	143
388.748	1	127
388.919	1	134
389.090	1	138
389.261	1	141
389.431	1	141
389.602	1	156
389.773	1	147
389.944	1	143
390.114	1	154
390.285	1	139
390.456	1	154
390.627	1	153
390.798	1	141
390.968	1	157
391.139	1	174
391.310	1	160
391.481	1	159
391.651	1	180
391.822	1	169
391.993	1	156
392.164	1	183
392.334	1	190
392.505	1	170
392.676	1	159
392.847	1	188
393.017	1	182
393.188	1	172
393.359	1	185
393.530	1	186
393.700	1	189
393.871	1	188
394.042	1	186
394.213	1	197
394.383	1	204
394.554	1	195
394.725	1	179
394.896	1	201
395.066	1	192
395.237	1	194
395.408	1	194
395.579	1	208
395.749	1	210
395.920	1	234
396.091	1	211
396.262	1	208
396.432	1	224
396.603	1	222
396.774	1	220
396.945	1	213
397.115	1	225
397.286	1	239
397.457	1	239
397.627	1	238
397.798	1	231
397.969	1	237
398.140	1	231
398.310	1	238
398.481	1	235
398.652	1	233
398.823	1	245
398.993	1	265
399.164	1	257
399.335	1	246
399.505	1	259
399.676	1	253
399.847	1	261
400.018	1	273
400.188	1	259
400.359	1	267
400.530	1	265
400.700	1	268
400.871	1	276
401.042	1	266
401.213	1	279
401.383	1	294
401.554	1	287
401.725	1	282
401.895	1	284
402.066	1	303
402.237	1	302
402.408	1	289
402.578	1	293
402.749	1	309
402.920	1	313
403.090	1	298
403.261	1	295
403.432	1	309
403.603	1	323
403.773	1	313
403.944	1	313
404.115	1	333
404.285	1	318
404.456	1	316
404.627	1	321
404.797	1	327
404.968	1	323
405.139	1	345
405.310	1	332
405.480	1	343
405.651	1	346
405.822	1	340
405.992	1	342
406.163	1	325
406.334	1	341
406.504	1	347
406.675	1	353
406.846	1	359
407.016	1	346
407.187	1	340
407.358	1	350
407.528	1	385
407.699	1	377
407.870	1	363
408.041	1	367
408.211	1	362
408.382	1	392
408.553	1	356
408.723	1	364
408.894	1	389
409.065	1	374
409.235	1	374
409.406	1	384
409.577	1	399
409.747	1	388
409.918	1	392
410.089	1	411
410.259	1	397
410.430	1	410
410.601	1	401
410.771	1	384
410.942	1	412
411.113	1	415
411.283	1	405
411.454	1	404
411.625	1	409
411.795	1	410
411.966	1	414
412.137	1	415
412.307	1	409
412.478	1	418
412.649	1	402
412.819	1	423
412.990	1	405
413.161	1	418
413.331	1	410
413.502	1	420
413.672	1	426
413.843	1	423
414.014	1	419
414.184	1	428
414.355	1	438
414.526	1	429
414.696	1	437
414.867	1	433
415.038	1	442
415.208	1	445
415.379	1	446
415.550	1	444
415.720	1	435
415.891	1	451
416.062	1	436
416.232	1	452
416.403	1	470
416.573	1	425
416.744	1	443
416.915	1	448
417.085	1	464
417.256	1	468
417.427	1	460
417.597	1	445
417.768	1	468
417.939	1	459
418.109	1	452
418.280	1	444
418.450	1	438
418.621	1	453
418.792	1	464
418.962	1	453
419.133	1	441
419.304	1	468
419.474	1	467
419.645	1	444
419.815	1	445
419.986	1	453
420.157	1	475
420.327	1	442
420.498	1	467
420.669	1	478
420.839	1	463
421.010	1	449
421.180	1	458
421.351	1	470
421.522	1	468
421.692	1	470
421.863	1	445
422.033	1	440
422.204	1	467
422.375	1	474
422.545	1	460
422.716	1	472
422.886	1	469
423.057	1	479
423.228	1	482
423.398	1	456
423.569	1	471
423.740	1	457
423.910	1	472
424.081	1	474
424.251	1	470
424.422	1	450
424.593	1	469
424.763	1	462
424.934	1	474
425.104	1	480
425.275	1	458
425.445	1	439
425.616	1	458
425.787	1	474
425.957	1	471
426.128	1	455
426.298	1	456
426.469	1	466
426.640	1	439
426.810	1	464
426.981	1	472
427.151	1	473
427.322	1	462
427.493	1	482
427.663	1	471
427.834	1	481
428.004	1	462
428.175	1	473
428.345	1	466
428.516	1	459
428.687	1	487
428.857	1	465
429.028	1	462
429.198	1	452
429.369	1	469
429.540	1	472
429.710	1	466
429.881	1	470
430.051	1	484
430.222	1	480
430.392	1	466
430.563	1	459
430.734	1	461
430.904	1	463
431.075	1	464
431.245	1	471
431.416	1	465
431.586	1	443
431.757	1	452
431.927	1	457
432.098	1	439
432.269	1	473
432.439	1	456
432.610	1	463
432.780	1	469
432.951	1	431
433.121	1	445
433.292	1	438
433.462	1	437
433.633	1	461
433.804	1	472
433.974	1	443
434.145	1	458
434.315	1	470
434.486	1	448
434.656	1	455
434.827	1	459
434.997	1	447
435.168	1	447
435.339	1	456
435.509	1	446
435.680	1	446
435.850	1	436
436.021	1	444
436.191	1	449
436.362	1	446
436.532	1	447
436.703	1	424
436.873	1	435
437.044	1	434
437.214	1	434
437.385	1	450
437.556	1	456
437.726	1	451
437.897	1	413
438.067	1	416
438.238	1	415
438.408	1	439
438.579	1	433
438.749	1	439
438.920	1	434
439.090	1	411
439.261	1	420
439.431	1	419
439.602	1	418
439.772	1	422
439.943	1	418
440.113	1	419
440.284	1	411
440.455	1	427
440.625	1	426
440.796	1	417
440.966	1	421
441.137	1	409
441.307	1	414
441.478	1	404
441.648	1	412
441.819	1	400
441.989	1	397
442.160	1	408
442.330	1	396
442.501	1	401
442.671	1	391
442.842	1	397
443.012	1	397
443.183	1	408
443.353	1	403
443.524	1	380
443.694	1	385
443.865	1	379
444.035	1	400
444.206	1	381
444.376	1	378
444.547	1	387
444.717	1	377
444.888	1	378
445.058	1	401
445.229	1	371
445.399	1	365
445.570	1	379
445.740	1	371
445.911	1	359
446.081	1	373
446.252	1	381
446.422	1	369
446.593	1	361
446.763	1	366
446.934	1	365
447.104	1	348
447.275	1	368
447.445	1	373
447.616	1	353
447.786	1	355
447.957	1	356
448.127	1	348
448.298	1	357
448.468	1	374
448.639	1	357
448.809	1	358
448.979	1	340
449.150	1	346
449.320	1	359
449.491	1	345
449.661	1	344
449.832	1	339
450.002	1	345
450.173	1	346
450.343	1	334
450.514	1	333
450.684	1	330
450.855	1	350
451.025	1	330
451.196	1	335
451.366	1	334
451.537	1	329
451.707	1	320
451.878	1	310
452.048	1	319
452.218	1	340
452.389	1	326
452.559	1	311
452.730	1	315
452.900	1	316
453.071	1	324
453.241	1	280
453.412	1	299
453.582	1	302
453.753	1	312
453.923	1	313
454.093	1	329
454.264	1	308
454.434	1	302
454.605	1	291
454.775	1	297
454.946	1	302
455.116	1	304
455.287	1	291
455.457	1	289
455.628	1	292
455.798	1	280
455.968	1	294
456.139	1	290
456.309	1	292
456.480	1	282
456.650	1	275
456.821	1	268
456.991	1	279
457.161	1	282
457.332	1	288
457.502	1	288
457.673	1	281
457.843	1	264
458.014	1	267
458.184	1	290
458.355	1	252
458.525	1	255
458.695	1	261
458.866	1	260
459.036	1	257
459.207	1	249
459.377	1	271
459.548	1	254
459.718	1	258
459.888	1	244
460.059	1	244
460.229	1	229
460.400	1	231
460.570	1	244
460.740	1	254
460.911	1	229
461.081	1	241
461.252	1	251
461.422	1	243
461.593	1	232
461.763	1	235
461.933	1	229
462.104	1	239
462.274	1	224
462.445	1	232
462.615	1	227
462.785	1	219
462.956	1	224
463.126	1	223
463.297	1	228
463.467	1	234
463.638	1	206
463.808	1	213
463.978	1	206
464.149	1	224
464.319	1	221
464.490	1	213
464.660	1	210
464.830	1	219
465.001	1	204
465.171	1	210
465.342	1	202
465.512	1	185
465.682	1	195
465.853	1	196
466.023	1	199
466.194	1	194
466.364	1	190
466.534	1	199
466.705	1	198
466.875	1	204
467.045	1	184
467.216	1	179
467.386	1	196
467.557	1	186
467.727	1	185
467.897	1	175
468.068	1	193
468.238	1	174
468.409	1	182
468.579	1	179
468.749	1	179
468.920	1	170
469.090	1	162
469.260	1	169
469.431	1	177
469.601	1	166
469.772	1	182
469.942	1	176
470.112	1	174
470.283	1	164
470.453	1	178
470.623	1	164
470.794	1	169
470.964	1	171
471.135	1	170
471.305	1	175
471.475	1	167
471.646	1	156
471.816	1	161
471.986	1	155
472.157	1	173
472.327	1	169
472.497	1	160
472.668	1	172
472.838	1	171
473.009	1	162
473.179	1	164
473.349	1	142
473.520	1	138
473.690	1	153
473.860	1	156
474.031	1	141
474.201	1	147
474.371	1	144
474.542	1	143
474.712	1	138
474.882	1	153
475.053	1	148
475.223	1	139
475.394	1	139
475.564	1	134
475.734	1	133
475.905	1	132
476.075	1	141
476.245	1	133
476.416	1	135
476.586	1	122
476.756	1	142
476.927	1	132
477.097	1	129
477.267	1	133
477.438	1	134
477.608	1	128
477.778	1	123
477.949	1	131
478.119	1	111
478.289	1	131
478.460	1	130
478.630	1	126
478.800	1	133
478.971	1	117
479.141	1	124
479.311	1	123
479.482	1	119
479.652	1	128
479.822	1	110
479.993	1	107
480.163	1	116
480.333	1	126
480.504	1	122
480.674	1	122
480.844	1	111
481.015	1	110
481.185	1	119
481.355	1	121
481.525	1	121
481.696	1	123
481.866	1	102
482.036	1	126
482.207	1	104
482.377	1	104
482.547	1	108
482.718	1	124
482.888	1	110
483.058	1	114
483.229	1	115
483.399	1	116
483.569	1	97
483.740	1	97
483.910	1	98
484.080	1	98
484.250	1	103
484.421	1	112
484.591	1	98
484.761	1	98
484.932	1	93
485.102	1	108
485.272	1	113
485.443	1	94
485.613	1	105
485.783	1	93
485.953	1	106
486.124	1	100
486.294	1	95
486.464	1	97
486.635	1	82
486.805	1	88
486.975	1	103
487.146	1	94
487.316	1	96
487.486	1	89
487.656	1	107
487.827	1	77
487.997	1	109
488.167	1	85
488.338	1	95
488.508	1	91
488.678	1	81
488.848	1	84
489.019	1	88
489.189	1	86
489.359	1	80
489.529	1	81
489.700	1	98
489.870	1	81
490.040	1	81
490.211	1	95
490.381	1	97
490.551	1	78
490.721	1	91
490.892	1	89
491.062	1	78
491.232	1	84
491.402	1	77
491.573	1	80
491.743	1	71
491.913	1	80
492.084	1	86
492.254	1	88
492.424	1	81
492.594	1	80
492.765	1	72
492.935	1	74
493.105	1	73
493.275	1	83
493.446	1	81
493.616	1	72
493.786	1	67
493.956	1	83
494.127	1	69
494.297	1	63
494.467	1	70
494.637	1	66
494.808	1	71
494.978	1	66
495.148	1	66
495.318	1	71
495.489	1	75
495.659	1	66
495.829	1	56
495.999	1	74
496.170	1	60
496.340	1	67
496.510	1	72
496.680	1	73
496.851	1	73
497.021	1	69
497.191	1	62
497.361	1	68
497.532	1	62
497.702	1	62
497.872	1	67
498.042	1	62
498.213	1	64
498.383	1	60
498.553	1	64
498.723	1	63
498.894	1	65
499.064	1	61
499.234	1	48
499.404	1	58
499.574	1	61
499.745	1	53
499.915	1	62
500.085	1	60
500.255	1	56
500.426	1	55
500.596	1	60
500.766	1	64
500.936	1	56
501.106	1	59
501.277	1	65
501.447	1	53
501.617	1	62
501.787	1	51
501.958	1	71
502.128	1	68
502.298	1	51
502.468	1	64
502.638	1	58
502.809	1	57
502.979	1	56
503.149	1	64
503.319	1	62
503.489	1	59
503.660	1	51
503.830	1	51
504.000	1	55
504.170	1	70
504.340	1	59
504.511	1	57
504.681	1	51
504.851	1	51
505.021	1	45
505.192	1	49
505.362	1	58
505.532	1	51
505.702	1	63
505.872	1	55
506.043	1	50
506.213	1	54
506.383	1	55
506.553	1	48
506.723	1	45
506.893	1	44
507.064	1	61
507.234	1	55
507.404	1	39
507.574	1	54
507.744	1	53
507.915	1	55
508.085	1	65
508.255	1	54
508.425	1	44
508.595	1	55
508.766	1	44
508.936	1	53
509.106	1	53
509.276	1	53
509.446	1	46
509.616	1	42
509.787	1	49
509.957	1	40
510.127	1	45
510.297	1	40
510.467	1	58
510.638	1	38
510.808	1	44
510.978	1	41
511.148	1	48
511.318	1	49
511.488	1	64
511.659	1	48
511.829	1	54
511.999	1	47
512.169	1	47
512.339	1	29
512.509	1	49
512.680	1	42
512.850	1	41
513.020	1	39
513.190	1	58
513.360	1	52
513.530	1	37
513.700	1	43
513.871	1	51
514.041	1	36
514.211	1	47
514.381	1	44
514.551	1	46
514.721	1	42
514.892	1	50
515.062	1	37
515.232	1	35
515.402	1	47
515.572	1	38
515.742	1	39
515.912	1	49
516.083	1	50
516.253	1	35
516.423	1	39
516.593	1	34
516.763	1	47
516.933	1	38
517.104	1	45
517.274	1	50
517.444	1	44
517.614	1	41
517.784	1	38
517.954	1	26
518.124	1	40
518.294	1	47
518.465	1	37
518.635	1	40
518.805	1	41
518.975	1	28
519.145	1	44
519.315	1	30
519.485	1	31
519.656	1	35
519.826	1	41
519.996	1	34
520.166	1	37
520.336	1	34
520.506	1	41
520.676	1	39
520.846	1	34
521.017	1	45
521.187	1	51
521.357	1	38
521.527	1	32
521.697	1	40
521.867	1	23
522.037	1	31
522.207	1	34
522.377	1	43
522.548	1	36
522.718	1	45
522.888	1	49
523.058	1	39
523.228	1	35
523.398	1	34
523.568	1	38
523.738	1	37
523.909	1	46
524.079	1	35
524.249	1	34
524.419	1	33
524.589	1	45
524.759	1	39
524.929	1	33
525.099	1	39
525.269	1	38
525.439	1	27
525.610	1	44
525.780	1	28
525.950	1	43
526.120	1	33
526.290	1	38
526.460	1	47
526.630	1	37
526.800	1	38
526.970	1	42
527.140	1	32
527.311	1	29
527.481	1	24
527.651	1	33
527.821	1	33
527.991	1	36
528.161	1	34
528.331	1	51
528.501	1	22
528.671	1	29
528.841	1	29
529.011	1	25
529.181	1	36
529.352	1	37
529.522	1	26
529.692	1	35
529.862	1	33
530.032	1	35
530.202	1	37
530.372	1	37
530.542	1	29
530.712	1	25
530.882	1	32
531.052	1	38
531.222	1	34
531.392	1	28
531.563	1	40
531.733	1	28
531.903	1	35
532.073	1	30
532.243	1	37
532.413	1	31
532.583	1	30
532.753	1	39
532.923	1	24
533.093	1	30
533.263	1	30
533.433	1	35
533.603	1	37
533.773	1	35
533.943	1	36
534.113	1	37
534.284	1	26
534.454	1	32
534.624	1	29
534.794	1	33
534.964	1	36
535.134	1	41
535.304	1	31
535.474	1	31
535.644	1	24
535.814	1	30
535.984	1	30
536.154	1	35
536.324	1	43
536.494	1	32
536.664	1	27
536.834	1	33
537.004	1	26
537.174	1	34
537.344	1	30
537.514	1	28
537.685	1	28
537.855	1	39
538.025	1	32
538.195	1	28
538.365	1	27
538.535	1	26
538.705	1	24
538.875	1	30
539.045	1	15
539.215	1	39
539.385	1	34
539.555	1	21
539.725	1	32
539.895	1	22
540.065	1	24
540.235	1	30
540.405	1	20
540.575	1	37
540.745	1	39
540.915	1	23
541.085	1	27
541.255	1	33
541.425	1	30
541.595	1	27
541.765	1	18
541.935	1	26
542.105	1	32
542.275	1	36
542.445	1	34
542.615	1	21
542.785	1	31
542.955	1	31
543.125	1	17
543.295	1	29
543.465	1	21
543.635	1	24
543.805	1	27
543.975	1	30
544.145	1	28
544.315	1	19
544.485	1	26
544.655	1	32
544.825	1	27
544.995	1	38
545.165	1	31
545.335	1	33
545.505	1	31
545.675	1	37
545.845	1	22
546.015	1	26
546.185	1	30
546.355	1	39
546.525	1	31
546.695	1	28
546.865	1	28
547.035	1	29
547.205	1	33
547.375	1	23
547.545	1	35
547.715	1	29
547.885	1	25
548.055	1	13
548.225	1	38
548.395	1	13
548.565	1	30
548.735	1	25
548.905	1	26
549.075	1	31
549.245	1	29
549.415	1	23
549.585	1	13
549.755	1	22
549.925	1	36
550.095	1	26
550.265	1	27
550.435	1	16
550.605	1	38
550.775	1	36
550.945	1	28
551.115	1	23
551.285	1	24
551.455	1	26
551.625	1	28
551.795	1	21
551.965	1	29
552.135	1	28
552.305	1	29
552.475	1	27
552.645	1	29
552.815	1	33
552.985	1	25
553.155	1	35
553.325	1	26
553.495	1	27
553.665	1	22
553.835	1	26
554.004	1	17
554.174	1	35
554.344	1	21
554.514	1	13
554.684	1	19
554.854	1	40
555.024	1	14
555.194	1	26
555.364	1	19
555.534	1	26
555.704	1	32
555.874	1	19
556.044	1	14
556.214	1	24
556.384	1	32
556.554	1	22
556.724	1	28
556.894	1	30
557.064	1	31
557.234	1	22
557.404	1	13
557.573	1	25
557.743	1	19
557.913	1	32
558.083	1	22
558.253	1	16
558.423	1	24
558.593	1	40
558.763	1	9
558.933	1	27
559.103	1	25
559.273	1	30
559.443	1	9
559.613	1	21
559.783	1	22
559.953	1	10
560.122	1	10
560.292	1	22
560.462	1	10
560.632	1	20
560.802	1	30
560.972	1	25
561.142	1	25
561.312	1	32
561.482	1	32
561.652	1	16
561.822	1	24
561.992	1	22
562.162	1	26
562.331	1	36
562.501	1	37
562.671	1	22
562.841	1	24
563.011	1	35
563.181	1	10
563.351	1	32
563.521	1	11
563.691	1	24
563.861	1	21
564.031	1	10
564.201	1	23
564.370	1	15
564.540	1	23
564.710	1	24
564.880	1	18
565.050	1	12
565.220	1	23
565.390	1	16
565.560	1	30
565.730	1	19
565.900	1	13
566.069	1	21
566.239	1	28
566.409	1	23
566.579	1	17
566.749	1	19
566.919	1	16
567.089	1	20
567.259	1	26
567.429	1	34
567.599	1	36
567.768	1	31
567.938	1	31
568.108	1	32
568.278	1	19
568.448	1	23
568.618	1	24
568.788	1	14
568.958	1	24
569.128	1	21
569.297	1	26
569.467	1	31
569.637	1	8
569.807	1	22
569.977	1	8
570.147	1	11
570.317	1	10
570.487	1	22
570.656	1	20
570.826	1	8
570.996	1	15
571.166	1	27
571.336	1	1
571.506	1	18
571.676	1	19
571.846	1	11
572.015	1	15
572.185	1	20
572.355	1	25
572.525	1	26
572.695	1	18
572.865	1	32
573.035	1	25
573.205	1	16
573.374	1	15
573.544	1	29
573.714	1	10
573.884	1	21
574.054	1	40
574.224	1	19
574.394	1	22
574.563	1	20
574.733	1	20
574.903	1	16
575.073	1	19
575.243	1	15
575.413	1	13
575.583	1	26
575.752	1	8
575.922	1	36
576.092	1	17
576.262	1	23
576.432	1	23
576.602	1	18
576.772	1	23
576.941	1	20
577.111	1	24
577.281	1	34
577.451	1	27
577.621	1	19
577.791	1	26
577.960	1	22
578.130	1	15
578.300	1	23
578.470	1	10
578.640	1	19
578.810	1	22
578.979	1	18
579.149	1	26
579.319	1	25
579.489	1	29
579.659	1	22
579.829	1	20
579.998	1	15
580.168	1	16
580.338	1	33
580.508	1	21
580.678	1	25
580.848	1	21
581.017	1	29
581.187	1	29
581.357	1	10
581.527	1	26
581.697	1	12
581.867	1	20
582.036	1	17
582.206	1	23
582.376	1	18
582.546	1	21
582.716	1	28
582.885	1	20
583.055	1	22
583.225	1	19
583.395	1	29
583.565	1	9
583.735	1	25
583.904	1	33
584.074	1	28
584.244	1	17
584.414	1	25
584.584	1	24
584.753	1	13
584.923	1	13
585.093	1	38
585.263	1	23
585.433	1	11
585.602	1	39
585.772	1	35
585.942	1	16
586.112	1	16
586.282	1	24
586.451	1	23
586.621	1	26
586.791	1	17
586.961	1	19
587.131	1	30
587.300	1	26
587.470	1	10
587.640	1	21
587.810	1	25
587.980	1	16
588.149	1	46
588.319	1	19
588.489	1	15
588.659	1	29
588.829	1	23
588.998	1	16
589.168	1	30
589.338	1	13
589.508	1	24
589.677	1	26
589.847	1	10
590.017	1	25
590.187	1	27
590.357	1	24
590.526	1	14
590.696	1	21
590.866	1	6
591.036	1	32
591.205	1	31
591.375	1	23
591.545	1	28
591.715	1	17
591.885	1	26
592.054	1	20
592.224	1	22
592.394	1	30
592.564	1	34
592.733	1	27
592.903	1	32
593.073	1	36
593.243	1	25
593.412	1	29
593.582	1	14
593.752	1	32
593.922	1	34
594.091	1	8
594.261	1	22
594.431	1	21
594.601	1	21
594.771	1	23
594.940	1	34
595.110	1	30
595.280	1	31
595.450	1	43
595.619	1	21
595.789	1	20
595.959	1	29
596.129	1	45
596.298	1	21
596.468	1	26
596.638	1	24
596.808	1	32
596.977	1	28
597.147	1	31
597.317	1	25
597.487	1	33
597.656	1	22
597.826	1	38
597.996	1	36
598.166	1	28
598.335	1	37
598.505	1	46
598.675	1	32
598.844	1	33
599.014	1	32
599.184	1	38
599.354	1	45
599.523	1	33
599.693	1	39
599.863	1	30
600.033	1	30
600.202	1	33
600.372	1	31
600.542	1	36
600.712	1	34
600.881	1	38
601.051	1	35
601.221	1	21
601.390	1	25
601.560	1	40
601.730	1	23
601.900	1	35
602.069	1	39
602.239	1	38
602.409	1	31
602.578	1	30
602.748	1	27
602.918	1	34
603.088	1	35
603.257	1	47
603.427	1	35
603.597	1	36
603.767	1	29
603.936	1	33
604.106	1	46
604.276	1	33
604.445	1	29
604.615	1	44
604.785	1	45
604.954	1	48
605.124	1	36
605.294	1	40
605.464	1	45
605.633	1	39
605.803	1	41
605.973	1	44
606.142	1	44
606.312	1	33
606.482	1	31
606.652	1	34
606.821	1	37
606.991	1	34
607.161	1	35
607.330	1	48
607.500	1	47
607.670	1	48
607.839	1	42
608.009	1	42
608.179	1	40
608.348	1	45
608.518	1	46
608.688	1	35
608.858	1	39
609.027	1	48
609.197	1	45
609.367	1	47
609.536	1	57
609.706	1	52
609.876	1	46
610.045	1	51
610.215	1	54
610.385	1	55
610.554	1	51
610.724	1	45
610.894	1	50
611.063	1	51
611.233	1	43
611.403	1	52
611.572	1	47
611.742	1	43
611.912	1	54
612.081	1	64
612.251	1	53
612.421	1	57
612.590	1	46
612.760	1	62
612.930	1	57
613.099	1	62
613.269	1	53
613.439	1	60
613.608	1	49
613.778	1	55
613.948	1	48
614.117	1	59
614.287	1	51
614.457	1	51
614.626	1	60
614.796	1	51
614.966	1	57
615.135	1	64
615.305	1	60
615.475	1	63
615.644	1	63
615.814	1	53
615.984	1	52
616.153	1	50
616.323	1	54
616.493	1	59
616.662	1	65
616.832	1	52
617.002	1	62
617.171	1	58
617.341	1	66
617.511	1	62
617.680	1	46
617.850	1	70
618.019	1	59
618.189	1	56
618.359	1	56
618.528	1	61
618.698	1	67
618.868	1	69
619.037	1	73
619.207	1	70
619.377	1	52
619.546	1	54
619.716	1	56
619.885	1	72
620.055	1	70
620.225	1	61
620.394	1	55
620.564	1	77
620.734	1	70
620.903	1	80
621.073	1	67
621.242	1	68
621.412	1	58
621.582	1	60
621.751	1	65
621.921	1	71
622.091	1	63
622.260	1	58
622.430	1	64
622.599	1	65
622.769	1	68
622.939	1	68
623.108	1	71
623.278	1	74
623.448	1	65
623.617	1	75
623.787	1	79
623.956	1	65
624.126	1	79
624.296	1	61
624.465	1	75
624.635	1	76
624.804	1	77
624.974	1	69
625.144	1	80
625.313	1	63
625.483	1	76
625.652	1	63
625.822	1	74
625.992	1	79
626.161	1	71
626.331	1	84
626.501	1	73
626.670	1	74
626.840	1	83
627.009	1	87
627.179	1	84
627.348	1	85
627.518	1	65
627.688	1	70
627.857	1	64
628.027	1	78
628.196	1	74
628.366	1	80
628.536	1	84
628.705	1	92
628.875	1	79
629.044	1	72
629.214	1	78
629.384	1	73
629.553	1	86
629.723	1	86
629.892	1	79
630.062	1	73
630.232	1	75
630.401	1	95
630.571	1	86
630.740	1	88
630.910	1	103
631.079	1	99
631.249	1	82
631.419	1	86
631.588	1	84
631.758	1	84
631.927	1	83
632.097	1	71
632.266	1	82
632.436	1	108
632.606	1	91
632.775	1	90
632.945	1	74
633.114	1	85
633.284	1	88
633.453	1	82
633.623	1	94
633.793	1	96
633.962	1	90
634.132	1	78
634.301	1	84
634.471	1	79
634.640	1	80
634.810	1	86
634.979	1	82
635.149	1	94
635.319	1	90
635.488	1	89
635.658	1	98
635.827	1	87
635.997	1	109
636.166	1	87
636.336	1	100
636.505	1	91
636.675	1	90
636.845	1	84
637.014	1	92
637.184	1	90
637.353	1	98
637.523	1	100
637.692	1	80
637.862	1	98
638.031	1	96
638.201	1	91
638.370	1	89
638.540	1	101
638.710	1	87
638.879	1	81
639.049	1	99
639.218	1	102
639.388	1	98
639.557	1	78
639.727	1	98
639.896	1	96
640.066	1	92
640.235	1	91
640.405	1	105
640.574	1	93
640.744	1	98
640.914	1	93
641.083	1	99
641.253	1	101
641.422	1	96
641.592	1	86
641.761	1	97
641.931	1	103
642.100	1	103
642.270	1	96
642.439	1	97
642.609	1	106
642.778	1	90
642.948	1	94
643.117	1	101
643.287	1	99
643.456	1	93
643.626	1	89
643.795	1	103
643.965	1	102
644.134	1	99
644.304	1	88
644.473	1	103
644.643	1	89
644.812	1	95
644.982	1	86
645.151	1	96
645.321	1	101
645.490	1	93
645.660	1	98
645.829	1	96
645.999	1	106
646.168	1	101
646.338	1	91
646.507	1	109
646.677	1	90
646.846	1	96
647.016	1	103
647.185	1	99
647.355	1	97
647.524	1	99
647.694	1	103
647.863	1	92
648.033	1	103
648.202	1	97
648.372	1	77
648.541	1	96
648.711	1	94
648.880	1	98
649.050	1	99
649.219	1	101
649.389	1	100
649.558	1	99
649.728	1	95
649.897	1	104
650.067	1	87
650.236	1	95
650.406	1	94
650.575	1	93
650.745	1	107
650.914	1	102
651.084	1	86
651.253	1	111
651.423	1	109
651.592	1	100
651.762	1	96
651.931	1	99
652.101	1	104
652.270	1	92
652.440	1	100
652.609	1	106
652.778	1	106
652.948	1	91
653.117	1	102
653.287	1	99
653.456	1	95
653.626	1	90
653.795	1	93
653.965	1	107
654.134	1	99
654.304	1	93
654.473	1	95
654.643	1	96
654.812	1	90
654.982	1	100
655.151	1	101
655.320	1	96
655.490	1	97
655.659	1	100
655.829	1	99
655.998	1	86
656.168	1	91
656.337	1	87
656.507	1	89
656.676	1	100
656.846	1	107
657.015	1	89
657.184	1	101
657.354	1	92
657.523	1	91
657.693	1	88
657.862	1	75
658.032	1	102
658.201	1	85
658.371	1	95
658.540	1	91
658.709	1	94
658.879	1	101
659.048	1	90
659.218	1	76
659.387	1	89
659.557	1	94
659.726	1	96
659.895	1	94
660.065	1	84
660.234	1	89
660.404	1	91
660.573	1	81
660.743	1	92
660.912	1	86
661.081	1	81
661.251	1	100
661.420	1	97
661.590	1	87
661.759	1	84
661.929	1	85
662.098	1	92
662.267	1	95
662.437	1	85
662.606	1	99
662.776	1	90
662.945	1	88
663.115	1	96
663.284	1	84
663.453	1	93
663.623	1	83
663.792	1	93
663.962	1	92
664.131	1	84
664.300	1	87
664.470	1	89
664.639	1	86
664.809	1	81
664.978	1	88
665.148	1	91
665.317	1	76
665.486	1	71
665.656	1	107
665.825	1	88
665.995	1	74
666.164	1	78
666.333	1	77
666.503	1	88
666.672	1	69
666.842	1	82
667.011	1	82
667.180	1	78
667.350	1	84
667.519	1	80
667.689	1	83
667.858	1	80
668.027	1	85
668.197	1	93
668.366	1	77
668.536	1	83
668.705	1	74
668.874	1	77
669.044	1	79
669.213	1	81
669.382	1	82
669.552	1	82
669.721	1	84
669.891	1	75
670.060	1	67
670.229	1	68
670.399	1	77
670.568	1	76
670.738	1	83
670.907	1	61
671.076	1	70
671.246	1	78
671.415	1	68
671.584	1	77
671.754	1	67
671.923	1	86
672.093	1	78
672.262	1	93
672.431	1	65
672.601	1	73
672.770	1	70
672.939	1	72
673.109	1	69
673.278	1	78
673.448	1	71
673.617	1	75
673.786	1	62
