325.333	1	178
325.504	1	209
325.675	1	193
325.846	1	190
326.017	1	199
326.188	1	203
326.359	1	210
326.531	1	202
326.702	1	207
326.873	1	208
327.044	1	204
327.215	1	224
327.386	1	218
327.557	1	242
327.728	1	245
327.899	1	225
328.070	1	236
328.241	1	241
328.412	1	239
328.583	1	244
328.754	1	243
328.926	1	250
329.097	1	253
329.268	1	257
329.439	1	252
329.610	1	238
329.781	1	251
329.952	1	250
330.123	1	258
330.294	1	262
330.465	1	261
330.636	1	276
330.807	1	265
330.978	1	277
331.149	1	283
331.320	1	275
331.492	1	275
331.663	1	285
331.834	1	298
332.005	1	293
332.176	1	287
332.347	1	305
332.518	1	297
332.689	1	284
332.860	1	294
333.031	1	310
333.202	1	315
333.373	1	299
333.544	1	314
333.715	1	290
333.886	1	311
334.057	1	321
334.228	1	320
334.399	1	317
334.570	1	306
334.741	1	331
334.912	1	323
335.084	1	329
335.255	1	330
335.426	1	307
335.597	1	330
335.768	1	310
335.939	1	309
336.110	1	330
336.281	1	321
336.452	1	329
336.623	1	337
336.794	1	325
336.965	1	333
337.136	1	343
337.307	1	318
337.478	1	314
337.649	1	356
337.820	1	333
337.991	1	338
338.162	1	327
338.333	1	331
338.504	1	349
338.675	1	332
338.846	1	338
339.017	1	340
339.188	1	333
339.359	1	326
339.530	1	330
339.701	1	327
339.872	1	344
340.043	1	339
340.214	1	336
340.385	1	340
340.556	1	337
340.727	1	347
340.898	1	338
341.069	1	331
341.240	1	324
341.411	1	346
341.582	1	338
341.753	1	332
341.924	1	335
342.095	1	347
342.266	1	337
342.437	1	336
342.608	1	345
342.779	1	333
342.950	1	323
343.121	1	347
343.292	1	339
343.463	1	342
343.634	1	334
343.805	1	350
343.976	1	324
344.147	1	338
344.318	1	345
344.489	1	326
344.660	1	337
344.831	1	332
345.002	1	334
345.173	1	322
345.344	1	335
345.515	1	325
345.686	1	317
345.857	1	335
346.028	1	314
346.199	1	319
346.370	1	306
346.541	1	319
346.712	1	332
346.883	1	320
347.054	1	312
347.225	1	312
347.396	1	302
347.567	1	316
347.738	1	298
347.909	1	324
348.080	1	328
348.251	1	317
348.422	1	304
348.593	1	304
348.764	1	308
348.935	1	295
349.106	1	302
349.277	1	291
349.448	1	319
349.619	1	289
349.790	1	298
349.961	1	287
350.132	1	294
350.303	1	291
350.474	1	294
350.645	1	286
350.816	1	274
350.987	1	275
351.157	1	276
351.328	1	287
351.499	1	266
351.670	1	273
351.841	1	281
352.012	1	280
352.183	1	257
352.354	1	276
352.525	1	278
352.696	1	261
352.867	1	261
353.038	1	279
353.209	1	251
353.380	1	239
353.551	1	243
353.722	1	243
353.893	1	245
354.064	1	250
354.235	1	245
354.406	1	240
354.576	1	238
354.747	1	236
354.918	1	237
355.089	1	231
355.260	1	230
355.431	1	234
355.602	1	236
355.773	1	209
355.944	1	223
356.115	1	230
356.286	1	219
356.457	1	231
356.628	1	224
356.799	1	235
356.970	1	222
357.141	1	210
357.311	1	208
357.482	1	211
357.653	1	193
357.824	1	213
357.995	1	210
358.166	1	209
358.337	1	196
358.508	1	207
358.679	1	193
358.850	1	198
359.021	1	193
359.192	1	187
359.363	1	199
359.533	1	193
359.704	1	193
359.875	1	187
360.046	1	193
360.217	1	172
360.388	1	172
360.559	1	179
360.730	1	188
360.901	1	176
361.072	1	165
361.243	1	183
361.414	1	164
361.584	1	158
361.755	1	170
361.926	1	155
362.097	1	166
362.268	1	148
362.439	1	164
362.610	1	162
362.781	1	151
362.952	1	152
363.123	1	154
363.293	1	142
363.464	1	149
363.635	1	145
363.806	1	133
363.977	1	144
364.148	1	129
364.319	1	139
364.490	1	133
364.661	1	136
364.832	1	127
365.002	1	125
365.173	1	132
365.344	1	135
365.515	1	124
365.686	1	114
365.857	1	126
366.028	1	121
366.199	1	116
366.370	1	126
366.540	1	108
366.711	1	107
366.882	1	115
367.053	1	112
367.224	1	103
367.395	1	123
367.566	1	106
367.737	1	117
367.908	1	108
368.078	1	102
368.249	1	105
368.420	1	110
368.591	1	110
368.762	1	101
368.933	1	99
369.104	1	100
369.274	1	87
369.445	1	93
369.616	1	95
369.787	1	96
369.958	1	87
370.129	1	90
370.300	1	101
370.471	1	97
370.641	1	91
370.812	1	87
370.983	1	99
371.154	1	96
371.325	1	90
371.496	1	87
371.667	1	80
371.837	1	85
372.008	1	74
372.179	1	92
372.350	1	93
372.521	1	94
372.692	1	81
372.863	1	86
373.033	1	88
373.204	1	81
373.375	1	89
373.546	1	90
373.717	1	63
373.888	1	91
374.059	1	85
374.229	1	87
374.400	1	93
374.571	1	82
374.742	1	80
374.913	1	72
375.084	1	88
375.254	1	76
375.425	1	78
375.596	1	88
375.767	1	87
375.938	1	75
376.109	1	72
376.279	1	76
376.450	1	73
376.621	1	73
376.792	1	77
376.963	1	93
377.134	1	79
377.304	1	84
377.475	1	74
377.646	1	90
377.817	1	73
377.988	1	88
378.159	1	75
378.329	1	96
378.500	1	71
378.671	1	87
378.842	1	81
379.013	1	97
379.184	1	84
379.354	1	79
379.525	1	79
379.696	1	88
379.867	1	89
380.038	1	82
380.209	1	79
380.379	1	81
380.550	1	85
380.721	1	82
380.892	1	94
381.063	1	86
381.233	1	90
381.404	1	99
381.575	1	89
381.746	1	92
381.917	1	91
382.087	1	103
382.258	1	91
382.429	1	92
382.600	1	90
382.771	1	89
382.941	1	102
383.112	1	97
383.283	1	104
383.454	1	93
383.625	1	115
383.795	1	89
383.966	1	84
384.137	1	106
384.308	1	104
384.479	1	117
384.649	1	105
384.820	1	111
384.991	1	98
385.162	1	104
385.333	1	110
385.503	1	117
385.674	1	112
385.845	1	114
386.016	1	123
386.187	1	108
386.357	1	125
386.528	1	115
386.699	1	122
386.870	1	118
387.041	1	110
387.211	1	121
387.382	1	115
387.553	1	120
387.724	1	112
387.894	1	133
388.065	1	131
388.236	1	124
388.407	1	140
388.578	1	127
388.748	1	135
388.919	1	127
389.090	1	130
389.261	1	132
389.431	1	130
389.602	1	150
389.773	1	131
389.944	1	142
390.114	1	140
390.285	1	127
390.456	1	146
390.627	1	151
390.798	1	143
390.968	1	138
391.139	1	156
391.310	1	143
391.481	1	154
391.651	1	161
391.822	1	158
391.993	1	165
392.164	1	146
392.334	1	152
392.505	1	161
392.676	1	152
392.847	1	157
393.017	1	153
393.188	1	171
393.359	1	155
393.530	1	174
393.700	1	183
393.871	1	159
394.042	1	179
394.213	1	184
394.383	1	166
394.554	1	171
394.725	1	181
394.896	1	191
395.066	1	170
395.237	1	185
395.408	1	188
395.579	1	171
395.749	1	180
395.920	1	188
396.091	1	201
396.262	1	190
396.432	1	195
396.603	1	206
396.774	1	200
396.945	1	198
397.115	1	195
397.286	1	202
397.457	1	202
397.627	1	197
397.798	1	205
397.969	1	212
398.140	1	232
398.310	1	219
398.481	1	213
398.652	1	209
398.823	1	210
398.993	1	242
399.164	1	236
399.335	1	225
399.505	1	236
399.676	1	234
399.847	1	237
400.018	1	235
400.188	1	234
400.359	1	239
400.530	1	230
400.700	1	249
400.871	1	260
401.042	1	254
401.213	1	262
401.383	1	265
401.554	1	259
401.725	1	273
401.895	1	250
402.066	1	262
402.237	1	255
402.408	1	272
402.578	1	256
402.749	1	277
402.920	1	277
403.090	1	262
403.261	1	263
403.432	1	269
403.603	1	275
403.773	1	286
403.944	1	289
404.115	1	273
404.285	1	281
404.456	1	282
404.627	1	295
404.797	1	291
404.968	1	290
405.139	1	291
405.310	1	302
405.480	1	305
405.651	1	309
405.822	1	304
405.992	1	292
406.163	1	307
406.334	1	299
406.504	1	320
406.675	1	324
406.846	1	309
407.016	1	318
407.187	1	306
407.358	1	319
407.528	1	322
407.699	1	337
407.870	1	309
408.041	1	325
408.211	1	311
408.382	1	334
408.553	1	325
408.723	1	336
408.894	1	327
409.065	1	340
409.235	1	336
409.406	1	335
409.577	1	344
409.747	1	329
409.918	1	367
410.089	1	353
410.259	1	335
410.430	1	356
410.601	1	361
410.771	1	351
410.942	1	363
411.113	1	364
411.283	1	368
411.454	1	344
411.625	1	373
411.795	1	365
411.966	1	366
412.137	1	351
412.307	1	359
412.478	1	371
412.649	1	369
412.819	1	361
412.990	1	367
413.161	1	359
413.331	1	350
413.502	1	385
413.672	1	366
413.843	1	372
414.014	1	369
414.184	1	377
414.355	1	385
414.526	1	378
414.696	1	381
414.867	1	385
415.038	1	399
415.208	1	394
415.379	1	377
415.550	1	414
415.720	1	380
415.891	1	398
416.062	1	405
416.232	1	379
416.403	1	403
416.573	1	402
416.744	1	401
416.915	1	417
417.085	1	418
417.256	1	396
417.427	1	404
417.597	1	418
417.768	1	389
417.939	1	408
418.109	1	410
418.280	1	402
418.450	1	409
418.621	1	411
418.792	1	400
418.962	1	413
419.133	1	423
419.304	1	428
419.474	1	414
419.645	1	410
419.815	1	404
419.986	1	403
420.157	1	408
420.327	1	399
420.498	1	392
420.669	1	419
420.839	1	415
421.010	1	408
421.180	1	420
421.351	1	400
421.522	1	405
421.692	1	390
421.863	1	381
422.033	1	405
422.204	1	404
422.375	1	411
422.545	1	415
422.716	1	422
422.886	1	428
423.057	1	400
423.228	1	430
423.398	1	410
423.569	1	412
423.740	1	392
423.910	1	423
424.081	1	411
424.251	1	397
424.422	1	406
424.593	1	436
424.763	1	415
424.934	1	418
425.104	1	418
425.275	1	401
425.445	1	405
425.616	1	424
425.787	1	420
425.957	1	406
426.128	1	401
426.298	1	407
426.469	1	410
426.640	1	416
426.810	1	432
426.981	1	419
427.151	1	427
427.322	1	412
427.493	1	414
427.663	1	408
427.834	1	437
428.004	1	402
428.175	1	419
428.345	1	409
428.516	1	421
428.687	1	433
428.857	1	410
429.028	1	420
429.198	1	437
429.369	1	422
429.540	1	422
429.710	1	406
429.881	1	411
430.051	1	408
430.222	1	417
430.392	1	413
430.563	1	443
430.734	1	416
430.904	1	416
431.075	1	410
431.245	1	413
431.416	1	412
431.586	1	404
431.757	1	407
431.927	1	399
432.098	1	422
432.269	1	415
432.439	1	400
432.610	1	411
432.780	1	419
432.951	1	402
433.121	1	417
433.292	1	397
433.462	1	389
433.633	1	385
433.804	1	398
433.974	1	385
434.145	1	392
434.315	1	434
434.486	1	414
434.656	1	408
434.827	1	396
434.997	1	413
435.168	1	406
435.339	1	408
435.509	1	411
435.680	1	403
435.850	1	391
436.021	1	415
436.191	1	410
436.362	1	394
436.532	1	409
436.703	1	392
436.873	1	384
437.044	1	395
437.214	1	393
437.385	1	381
437.556	1	383
437.726	1	384
437.897	1	385
438.067	1	398
438.238	1	389
438.408	1	383
438.579	1	379
438.749	1	371
438.920	1	389
439.090	1	401
439.261	1	354
439.431	1	384
439.602	1	365
439.772	1	375
439.943	1	378
440.113	1	386
440.284	1	360
440.455	1	350
440.625	1	359
440.796	1	372
440.966	1	387
441.137	1	368
441.307	1	390
441.478	1	361
441.648	1	352
441.819	1	369
441.989	1	361
442.160	1	350
442.330	1	354
442.501	1	359
442.671	1	367
442.842	1	365
443.012	1	340
443.183	1	359
443.353	1	351
443.524	1	341
443.694	1	352
443.865	1	343
444.035	1	354
444.206	1	348
444.376	1	333
444.547	1	336
444.717	1	345
444.888	1	354
445.058	1	332
445.229	1	344
445.399	1	325
445.570	1	345
445.740	1	335
445.911	1	333
446.081	1	337
446.252	1	320
446.422	1	336
446.593	1	333
446.763	1	326
446.934	1	324
447.104	1	321
447.275	1	318
447.445	1	331
447.616	1	302
447.786	1	319
447.957	1	324
448.127	1	319
448.298	1	313
448.468	1	321
448.639	1	305
448.809	1	330
448.979	1	312
449.150	1	301
449.320	1	324
449.491	1	317
449.661	1	294
449.832	1	315
450.002	1	313
450.173	1	297
450.343	1	303
450.514	1	283
450.684	1	294
450.855	1	291
451.025	1	295
451.196	1	297
451.366	1	305
451.537	1	301
451.707	1	295
451.878	1	297
452.048	1	284
452.218	1	283
452.389	1	289
452.559	1	287
452.730	1	286
452.900	1	289
453.071	1	292
453.241	1	291
453.412	1	280
453.582	1	279
453.753	1	269
453.923	1	277
454.093	1	278
454.264	1	263
454.434	1	275
454.605	1	263
454.775	1	273
454.946	1	272
455.116	1	259
455.287	1	256
455.457	1	252
455.628	1	273
455.798	1	266
455.968	1	240
456.139	1	255
456.309	1	258
456.480	1	246
456.650	1	257
456.821	1	242
456.991	1	236
457.161	1	245
457.332	1	235
457.502	1	239
457.673	1	242
457.843	1	245
458.014	1	242
458.184	1	234
458.355	1	227
458.525	1	230
458.695	1	223
458.866	1	237
459.036	1	242
459.207	1	220
459.377	1	241
459.548	1	228
459.718	1	235
459.888	1	217
460.059	1	212
460.229	1	218
460.400	1	208
460.570	1	231
460.740	1	222
460.911	1	212
461.081	1	234
461.252	1	219
461.422	1	227
461.593	1	199
461.763	1	221
461.933	1	199
462.104	1	215
462.274	1	195
462.445	1	208
462.615	1	188
462.785	1	205
462.956	1	200
463.126	1	203
463.297	1	197
463.467	1	203
463.638	1	201
463.808	1	181
463.978	1	193
464.149	1	190
464.319	1	192
464.490	1	194
464.660	1	175
464.830	1	193
465.001	1	190
465.171	1	188
465.342	1	178
465.512	1	156
465.682	1	183
465.853	1	175
466.023	1	170
466.194	1	182
466.364	1	172
466.534	1	181
466.705	1	178
466.875	1	173
467.045	1	150
467.216	1	161
467.386	1	162
467.557	1	172
467.727	1	168
467.897	1	156
468.068	1	162
468.238	1	141
468.409	1	157
468.579	1	173
468.749	1	150
468.920	1	167
469.090	1	143
469.260	1	161
469.431	1	155
469.601	1	170
469.772	1	153
469.942	1	154
470.112	1	150
470.283	1	146
470.453	1	144
470.623	1	144
470.794	1	138
470.964	1	161
471.135	1	128
471.305	1	142
471.475	1	149
471.646	1	139
471.816	1	144
471.986	1	133
472.157	1	140
472.327	1	131
472.497	1	152
472.668	1	138
472.838	1	129
473.009	1	139
473.179	1	127
473.349	1	129
473.520	1	119
473.690	1	129
473.860	1	133
474.031	1	131
474.201	1	139
474.371	1	131
474.542	1	130
474.712	1	118
474.882	1	134
475.053	1	120
475.223	1	115
475.394	1	123
475.564	1	108
475.734	1	117
475.905	1	123
476.075	1	131
476.245	1	114
476.416	1	122
476.586	1	123
476.756	1	130
476.927	1	121
477.097	1	116
477.267	1	101
477.438	1	99
477.608	1	120
477.778	1	107
477.949	1	123
478.119	1	118
478.289	1	118
478.460	1	109
478.630	1	109
478.800	1	120
478.971	1	89
479.141	1	111
479.311	1	113
479.482	1	95
479.652	1	104
479.822	1	103
479.993	1	94
480.163	1	103
480.333	1	100
480.504	1	106
480.674	1	103
480.844	1	97
481.015	1	102
481.185	1	98
481.355	1	89
481.525	1	114
481.696	1	108
481.866	1	93
482.036	1	100
482.207	1	91
482.377	1	93
482.547	1	93
482.718	1	90
482.888	1	97
483.058	1	101
483.229	1	98
483.399	1	90
483.569	1	99
483.740	1	87
483.910	1	92
484.080	1	95
484.250	1	79
484.421	1	80
484.591	1	90
484.761	1	96
484.932	1	95
485.102	1	90
485.272	1	89
485.443	1	91
485.613	1	85
485.783	1	83
485.953	1	83
486.124	1	84
486.294	1	81
486.464	1	77
486.635	1	76
486.805	1	79
486.975	1	84
487.146	1	88
487.316	1	68
487.486	1	76
487.656	1	96
487.827	1	70
487.997	1	81
488.167	1	73
488.338	1	67
488.508	1	76
488.678	1	78
488.848	1	72
489.019	1	73
489.189	1	71
489.359	1	68
489.529	1	62
489.700	1	72
489.870	1	73
490.040	1	75
490.211	1	76
490.381	1	79
490.551	1	72
490.721	1	76
490.892	1	76
491.062	1	74
491.232	1	77
491.402	1	58
491.573	1	71
491.743	1	63
491.913	1	73
492.084	1	72
492.254	1	73
492.424	1	71
492.594	1	73
492.765	1	56
492.935	1	73
493.105	1	58
493.275	1	74
493.446	1	60
493.616	1	65
493.786	1	56
493.956	1	64
494.127	1	76
494.297	1	56
494.467	1	67
494.637	1	64
494.808	1	58
494.978	1	56
495.148	1	44
495.318	1	53
495.489	1	63
495.659	1	60
495.829	1	54
495.999	1	68
496.170	1	54
496.340	1	70
496.510	1	59
496.680	1	57
496.851	1	60
497.021	1	61
497.191	1	58
497.361	1	58
497.532	1	55
497.702	1	63
497.872	1	60
498.042	1	51
498.213	1	55
498.383	1	47
498.553	1	61
498.723	1	65
498.894	1	49
499.064	1	49
499.234	1	50
499.404	1	47
499.574	1	57
499.745	1	52
499.915	1	42
500.085	1	41
500.255	1	54
500.426	1	51
500.596	1	69
500.766	1	49
500.936	1	52
501.106	1	50
501.277	1	55
501.447	1	47
501.617	1	53
501.787	1	41
501.958	1	57
502.128	1	47
502.298	1	42
502.468	1	45
502.638	1	44
502.809	1	52
502.979	1	49
503.149	1	63
503.319	1	45
503.489	1	59
503.660	1	50
503.830	1	51
504.000	1	49
504.170	1	56
504.340	1	53
504.511	1	47
504.681	1	47
504.851	1	55
505.021	1	44
505.192	1	60
505.362	1	43
505.532	1	44
505.702	1	48
505.872	1	53
506.043	1	43
506.213	1	50
506.383	1	56
506.553	1	57
506.723	1	48
506.893	1	48
507.064	1	46
507.234	1	36
507.404	1	36
507.574	1	43
507.744	1	47
507.915	1	47
508.085	1	56
508.255	1	52
508.425	1	30
508.595	1	52
508.766	1	58
508.936	1	51
509.106	1	40
509.276	1	49
509.446	1	50
509.616	1	45
509.787	1	44
509.957	1	31
510.127	1	41
510.297	1	39
510.467	1	45
510.638	1	37
510.808	1	44
510.978	1	40
511.148	1	41
511.318	1	42
511.488	1	43
511.659	1	35
511.829	1	46
511.999	1	40
512.169	1	40
512.339	1	40
512.509	1	49
512.680	1	38
512.850	1	40
513.020	1	40
513.190	1	50
513.360	1	40
513.530	1	36
513.700	1	43
513.871	1	42
514.041	1	31
514.211	1	50
514.381	1	37
514.551	1	29
514.721	1	40
514.892	1	44
515.062	1	43
515.232	1	32
515.402	1	42
515.572	1	35
515.742	1	29
515.912	1	40
516.083	1	45
516.253	1	38
516.423	1	28
516.593	1	36
516.763	1	40
516.933	1	30
517.104	1	40
517.274	1	32
517.444	1	47
517.614	1	35
517.784	1	34
517.954	1	22
518.124	1	51
518.294	1	39
518.465	1	31
518.635	1	35
518.805	1	51
518.975	1	26
519.145	1	39
519.315	1	29
519.485	1	23
519.656	1	28
519.826	1	28
519.996	1	28
520.166	1	40
520.336	1	34
520.506	1	25
520.676	1	35
520.846	1	27
521.017	1	36
521.187	1	47
521.357	1	38
521.527	1	28
521.697	1	30
521.867	1	24
522.037	1	29
522.207	1	43
522.377	1	32
522.548	1	34
522.718	1	33
522.888	1	45
523.058	1	33
523.228	1	28
523.398	1	35
523.568	1	30
523.738	1	36
523.909	1	35
524.079	1	40
524.249	1	28
524.419	1	28
524.589	1	29
524.759	1	39
524.929	1	38
525.099	1	29
525.269	1	38
525.439	1	29
525.610	1	46
525.780	1	32
525.950	1	33
526.120	1	32
526.290	1	29
526.460	1	35
526.630	1	36
526.800	1	33
526.970	1	34
527.140	1	33
527.311	1	32
527.481	1	17
527.651	1	35
527.821	1	23
527.991	1	44
528.161	1	35
528.331	1	40
528.501	1	29
528.671	1	31
528.841	1	36
529.011	1	28
529.181	1	25
529.352	1	31
529.522	1	28
529.692	1	38
529.862	1	38
530.032	1	28
530.202	1	30
530.372	1	29
530.542	1	23
530.712	1	29
530.882	1	18
531.052	1	36
531.222	1	34
531.392	1	32
531.563	1	30
531.733	1	23
531.903	1	25
532.073	1	36
532.243	1	30
532.413	1	28
532.583	1	42
532.753	1	33
532.923	1	27
533.093	1	26
533.263	1	36
533.433	1	36
533.603	1	32
533.773	1	19
533.943	1	27
534.113	1	23
534.284	1	35
534.454	1	24
534.624	1	25
534.794	1	29
534.964	1	34
535.134	1	34
535.304	1	28
535.474	1	23
535.644	1	15
535.814	1	36
535.984	1	36
536.154	1	31
536.324	1	33
536.494	1	21
536.664	1	30
536.834	1	27
537.004	1	23
537.174	1	31
537.344	1	27
537.514	1	34
537.685	1	28
537.855	1	34
538.025	1	31
538.195	1	24
538.365	1	23
538.535	1	27
538.705	1	26
538.875	1	27
539.045	1	13
539.215	1	33
539.385	1	21
539.555	1	19
539.725	1	29
539.895	1	6
540.065	1	26
540.235	1	26
540.405	1	22
540.575	1	35
540.745	1	35
540.915	1	25
541.085	1	26
541.255	1	23
541.425	1	32
541.595	1	20
541.765	1	17
541.935	1	25
542.105	1	28
542.275	1	34
542.445	1	22
542.615	1	22
542.785	1	33
542.955	1	40
543.125	1	14
543.295	1	17
543.465	1	26
543.635	1	15
543.805	1	23
543.975	1	23
544.145	1	17
544.315	1	23
544.485	1	16
544.655	1	19
544.825	1	25
544.995	1	40
545.165	1	26
545.335	1	25
545.505	1	27
545.675	1	25
545.845	1	28
546.015	1	27
546.185	1	29
546.355	1	30
546.525	1	32
546.695	1	19
546.865	1	13
547.035	1	27
547.205	1	28
547.375	1	17
547.545	1	25
547.715	1	23
547.885	1	12
548.055	1	22
548.225	1	25
548.395	1	24
548.565	1	29
548.735	1	26
548.905	1	28
549.075	1	23
549.245	1	26
549.415	1	22
549.585	1	20
549.755	1	25
549.925	1	32
550.095	1	29
550.265	1	19
550.435	1	11
550.605	1	20
550.775	1	32
550.945	1	32
551.115	1	27
551.285	1	15
551.455	1	23
551.625	1	14
551.795	1	11
551.965	1	22
552.135	1	14
552.305	1	23
552.475	1	26
552.645	1	25
552.815	1	25
552.985	1	26
553.155	1	27
553.325	1	24
553.495	1	18
553.665	1	23
553.835	1	27
554.004	1	17
554.174	1	18
554.344	1	30
554.514	1	19
554.684	1	11
554.854	1	21
555.024	1	15
555.194	1	17
555.364	1	27
555.534	1	27
555.704	1	21
555.874	1	20
556.044	1	30
556.214	1	22
556.384	1	26
556.554	1	12
556.724	1	11
556.894	1	27
557.064	1	11
557.234	1	16
557.404	1	31
557.573	1	23
557.743	1	24
557.913	1	34
558.083	1	21
558.253	1	17
558.423	1	22
558.593	1	27
558.763	1	22
558.933	1	19
559.103	1	30
559.273	1	22
559.443	1	3
559.613	1	21
559.783	1	32
559.953	1	18
560.122	1	16
560.292	1	25
560.462	1	10
560.632	1	19
560.802	1	33
560.972	1	26
561.142	1	21
561.312	1	21
561.482	1	18
561.652	1	8
561.822	1	31
561.992	1	20
562.162	1	20
562.331	1	27
562.501	1	22
562.671	1	35
562.841	1	16
563.011	1	26
563.181	1	20
563.351	1	27
563.521	1	7
563.691	1	13
563.861	1	24
564.031	1	12
564.201	1	23
564.370	1	22
564.540	1	16
564.710	1	20
564.880	1	24
565.050	1	9
565.220	1	18
565.390	1	28
565.560	1	16
565.730	1	26
565.900	1	22
566.069	1	8
566.239	1	23
566.409	1	23
566.579	1	7
566.749	1	6
566.919	1	20
567.089	1	20
567.259	1	16
567.429	1	32
567.599	1	23
567.768	1	16
567.938	1	12
568.108	1	20
568.278	1	17
568.448	1	20
568.618	1	28
568.788	1	14
568.958	1	18
569.128	1	25
569.297	1	24
569.467	1	23
569.637	1	20
569.807	1	27
569.977	1	12
570.147	1	17
570.317	1	7
570.487	1	29
570.656	1	25
570.826	1	6
570.996	1	25
571.166	1	21
571.336	1	12
571.506	1	29
571.676	1	10
571.846	1	35
572.015	1	10
572.185	1	15
572.355	1	24
572.525	1	14
572.695	1	7
572.865	1	29
573.035	1	13
573.205	1	10
573.374	1	26
573.544	1	11
573.714	1	21
573.884	1	21
574.054	1	23
574.224	1	24
574.394	1	10
574.563	1	16
574.733	1	21
574.903	1	20
575.073	1	16
575.243	1	20
575.413	1	18
575.583	1	14
575.752	1	16
575.922	1	26
576.092	1	11
576.262	1	16
576.432	1	19
576.602	1	18
576.772	1	5
576.941	1	14
577.111	1	17
577.281	1	33
577.451	1	25
577.621	1	24
577.791	1	21
577.960	1	17
578.130	1	12
578.300	1	19
578.470	1	23
578.640	1	26
578.810	1	10
578.979	1	15
579.149	1	20
579.319	1	15
579.489	1	19
579.659	1	17
579.829	1	17
579.998	1	19
580.168	1	13
580.338	1	24
580.508	1	34
580.678	1	13
580.848	1	24
581.017	1	29
581.187	1	14
581.357	1	24
581.527	1	18
581.697	1	1
581.867	1	17
582.036	1	17
582.206	1	14
582.376	1	17
582.546	1	23
582.716	1	30
582.885	1	26
583.055	1	25
583.225	1	25
583.395	1	31
583.565	1	21
583.735	1	23
583.904	1	22
584.074	1	19
584.244	1	24
584.414	1	24
584.584	1	12
584.753	1	16
584.923	1	9
585.093	1	21
585.263	1	22
585.433	1	9
585.602	1	28
585.772	1	31
585.942	1	18
586.112	1	24
586.282	1	35
586.451	1	25
586.621	1	28
586.791	1	31
586.961	1	11
587.131	1	29
587.300	1	21
587.470	1	12
587.640	1	19
587.810	1	14
587.980	1	30
588.149	1	40
588.319	1	30
588.489	1	25
588.659	1	25
588.829	1	22
588.998	1	29
589.168	1	42
589.338	1	16
589.508	1	23
589.677	1	32
589.847	1	28
590.017	1	29
590.187	1	20
590.357	1	24
590.526	1	19
590.696	1	24
590.866	1	12
591.036	1	37
591.205	1	35
591.375	1	13
591.545	1	33
591.715	1	20
591.885	1	20
592.054	1	31
592.224	1	25
592.394	1	27
592.564	1	30
592.733	1	28
592.903	1	33
593.073	1	29
593.243	1	35
593.412	1	39
593.582	1	32
593.752	1	31
593.922	1	38
594.091	1	27
594.261	1	27
594.431	1	23
594.601	1	43
594.771	1	22
594.940	1	41
595.110	1	40
595.280	1	36
595.450	1	51
595.619	1	34
595.789	1	32
595.959	1	37
596.129	1	40
596.298	1	39
596.468	1	38
596.638	1	38
596.808	1	35
596.977	1	47
597.147	1	42
597.317	1	38
597.487	1	32
597.656	1	28
597.826	1	45
597.996	1	40
598.166	1	30
598.335	1	43
598.505	1	46
598.675	1	34
598.844	1	45
599.014	1	36
599.184	1	35
599.354	1	48
599.523	1	44
599.693	1	40
599.863	1	40
600.033	1	42
600.202	1	43
600.372	1	44
600.542	1	52
600.712	1	52
600.881	1	46
601.051	1	45
601.221	1	50
601.390	1	43
601.560	1	43
601.730	1	47
601.900	1	46
602.069	1	43
602.239	1	38
602.409	1	56
602.578	1	59
602.748	1	47
602.918	1	53
603.088	1	49
603.257	1	52
603.427	1	63
603.597	1	49
603.767	1	58
603.936	1	49
604.106	1	63
604.276	1	45
604.445	1	56
604.615	1	63
604.785	1	64
604.954	1	55
605.124	1	61
605.294	1	59
605.464	1	55
605.633	1	60
605.803	1	49
605.973	1	57
606.142	1	62
606.312	1	65
606.482	1	61
606.652	1	54
606.821	1	69
606.991	1	57
607.161	1	60
607.330	1	62
607.500	1	67
607.670	1	72
607.839	1	62
608.009	1	59
608.179	1	64
608.348	1	68
608.518	1	69
608.688	1	58
608.858	1	66
609.027	1	76
609.197	1	67
609.367	1	66
609.536	1	75
609.706	1	79
609.876	1	68
610.045	1	73
610.215	1	80
610.385	1	78
610.554	1	78
610.724	1	69
610.894	1	81
611.063	1	68
611.233	1	66
611.403	1	81
611.572	1	74
611.742	1	82
611.912	1	73
612.081	1	79
612.251	1	73
612.421	1	85
612.590	1	81
612.760	1	88
612.930	1	80
613.099	1	94
613.269	1	76
613.439	1	87
613.608	1	97
613.778	1	106
613.948	1	76
614.117	1	85
614.287	1	85
614.457	1	87
614.626	1	96
614.796	1	94
614.966	1	101
615.135	1	108
615.305	1	103
615.475	1	99
615.644	1	99
615.814	1	91
615.984	1	105
616.153	1	98
616.323	1	94
616.493	1	102
616.662	1	107
616.832	1	92
617.002	1	103
617.171	1	105
617.341	1	103
617.511	1	102
617.680	1	92
617.850	1	119
618.019	1	107
618.189	1	107
618.359	1	99
618.528	1	99
618.698	1	106
618.868	1	106
619.037	1	99
619.207	1	110
619.377	1	122
619.546	1	105
619.716	1	106
619.885	1	110
620.055	1	100
620.225	1	123
620.394	1	122
620.564	1	109
620.734	1	118
620.903	1	128
621.073	1	130
621.242	1	122
621.412	1	122
621.582	1	122
621.751	1	126
621.921	1	123
622.091	1	126
622.260	1	112
622.430	1	125
622.599	1	129
622.769	1	135
622.939	1	116
623.108	1	127
623.278	1	132
623.448	1	136
623.617	1	121
623.787	1	145
623.956	1	123
624.126	1	138
624.296	1	118
624.465	1	138
624.635	1	110
624.804	1	139
624.974	1	129
625.144	1	138
625.313	1	138
625.483	1	130
625.652	1	147
625.822	1	131
625.992	1	141
626.161	1	150
626.331	1	149
626.501	1	132
626.670	1	151
626.840	1	144
627.009	1	132
627.179	1	149
627.348	1	162
627.518	1	129
627.688	1	150
627.857	1	144
628.027	1	150
628.196	1	152
628.366	1	150
628.536	1	158
628.705	1	145
628.875	1	153
629.044	1	150
629.214	1	146
629.384	1	148
629.553	1	160
629.723	1	172
629.892	1	152
630.062	1	152
630.232	1	158
630.401	1	170
630.571	1	150
630.740	1	152
630.910	1	172
631.079	1	176
631.249	1	154
631.419	1	155
631.588	1	155
631.758	1	163
631.927	1	174
632.097	1	165
632.266	1	149
632.436	1	184
632.606	1	177
632.775	1	172
632.945	1	154
633.114	1	159
633.284	1	173
633.453	1	167
633.623	1	173
633.793	1	182
633.962	1	174
634.132	1	162
634.301	1	175
634.471	1	165
634.640	1	156
634.810	1	176
634.979	1	163
635.149	1	177
635.319	1	179
635.488	1	172
635.658	1	193
635.827	1	162
635.997	1	201
636.166	1	181
636.336	1	168
636.505	1	180
636.675	1	184
636.845	1	182
637.014	1	179
637.184	1	172
637.353	1	206
637.523	1	189
637.692	1	188
637.862	1	179
638.031	1	178
638.201	1	165
638.370	1	190
638.540	1	185
638.710	1	183
638.879	1	195
639.049	1	180
639.218	1	203
639.388	1	199
639.557	1	177
639.727	1	190
639.896	1	174
640.066	1	185
640.235	1	184
640.405	1	216
640.574	1	198
640.744	1	176
640.914	1	175
641.083	1	204
641.253	1	193
641.422	1	186
641.592	1	181
641.761	1	206
641.931	1	199
642.100	1	194
642.270	1	188
642.439	1	209
642.609	1	209
642.778	1	180
642.948	1	187
643.117	1	187
643.287	1	192
643.456	1	198
643.626	1	194
643.795	1	190
643.965	1	204
644.134	1	207
644.304	1	196
644.473	1	193
644.643	1	180
644.812	1	196
644.982	1	194
645.151	1	198
645.321	1	189
645.490	1	188
645.660	1	204
645.829	1	204
645.999	1	200
646.168	1	204
646.338	1	198
646.507	1	195
646.677	1	200
646.846	1	179
647.016	1	207
647.185	1	199
647.355	1	204
647.524	1	192
647.694	1	202
647.863	1	195
648.033	1	189
648.202	1	203
648.372	1	205
648.541	1	201
648.711	1	195
648.880	1	200
649.050	1	188
649.219	1	187
649.389	1	196
649.558	1	205
649.728	1	211
649.897	1	201
650.067	1	183
650.236	1	194
650.406	1	189
650.575	1	208
650.745	1	194
650.914	1	201
651.084	1	181
651.253	1	195
651.423	1	194
651.592	1	193
651.762	1	198
651.931	1	203
652.101	1	206
652.270	1	186
652.440	1	204
652.609	1	196
652.778	1	209
652.948	1	182
653.117	1	187
653.287	1	178
653.456	1	188
653.626	1	203
653.795	1	187
653.965	1	207
654.134	1	200
654.304	1	190
654.473	1	193
654.643	1	193
654.812	1	201
654.982	1	193
655.151	1	193
655.320	1	203
655.490	1	191
655.659	1	184
655.829	1	187
655.998	1	189
656.168	1	170
656.337	1	189
656.507	1	185
656.676	1	200
656.846	1	190
657.015	1	199
657.184	1	188
657.354	1	189
657.523	1	192
657.693	1	190
657.862	1	180
658.032	1	176
658.201	1	188
658.371	1	205
658.540	1	192
658.709	1	185
658.879	1	194
659.048	1	180
659.218	1	177
659.387	1	188
659.557	1	186
659.726	1	182
659.895	1	179
660.065	1	194
660.234	1	168
660.404	1	180
660.573	1	189
660.743	1	187
660.912	1	170
661.081	1	176
661.251	1	186
661.420	1	193
661.590	1	165
661.759	1	182
661.929	1	175
662.098	1	193
662.267	1	166
662.437	1	175
662.606	1	160
662.776	1	163
662.945	1	167
663.115	1	174
663.284	1	177
663.453	1	178
663.623	1	157
663.792	1	156
663.962	1	179
664.131	1	175
664.300	1	175
664.470	1	170
664.639	1	173
664.809	1	177
664.978	1	173
665.148	1	173
665.317	1	145
665.486	1	156
665.656	1	192
665.825	1	162
665.995	1	165
666.164	1	166
666.333	1	180
666.503	1	160
666.672	1	165
666.842	1	149
667.011	1	165
667.180	1	158
667.350	1	176
667.519	1	148
667.689	1	156
667.858	1	157
668.027	1	165
668.197	1	170
668.366	1	151
668.536	1	177
668.705	1	151
668.874	1	153
669.044	1	164
669.213	1	155
669.382	1	157
669.552	1	154
669.721	1	150
669.891	1	150
670.060	1	148
670.229	1	154
670.399	1	152
670.568	1	155
670.738	1	148
670.907	1	148
671.076	1	149
671.246	1	156
671.415	1	137
671.584	1	132
671.754	1	151
671.923	1	146
672.093	1	143
672.262	1	150
672.431	1	130
672.601	1	141
672.770	1	137
672.939	1	134
673.109	1	126
673.278	1	156
673.448	1	132
673.617	1	129
673.786	1	131
