325.333	1	0
325.504	1	9
325.675	1	-3
325.846	1	-3
326.017	1	1
326.188	1	4
326.359	1	9
326.531	1	-8
326.702	1	0
326.873	1	5
327.044	1	2
327.215	1	-6
327.386	1	-9
327.557	1	4
327.728	1	-4
327.899	1	0
328.070	1	-6
328.241	1	-8
328.412	1	6
328.583	1	5
328.754	1	1
328.926	1	0
329.097	1	-6
329.268	1	5
329.439	1	-4
329.610	1	-1
329.781	1	-5
329.952	1	6
330.123	1	-3
330.294	1	2
330.465	1	-11
330.636	1	6
330.807	1	-8
330.978	1	1
331.149	1	2
331.320	1	3
331.492	1	-5
331.663	1	5
331.834	1	-3
332.005	1	4
332.176	1	0
332.347	1	-3
332.518	1	-9
332.689	1	-6
332.860	1	-5
333.031	1	5
333.202	1	2
333.373	1	-9
333.544	1	-6
333.715	1	-6
333.886	1	-5
334.057	1	6
334.228	1	-4
334.399	1	-5
334.570	1	-11
334.741	1	1
334.912	1	-7
335.084	1	-2
335.255	1	8
335.426	1	-10
335.597	1	0
335.768	1	-7
335.939	1	-4
336.110	1	6
336.281	1	-4
336.452	1	2
336.623	1	5
336.794	1	0
336.965	1	-5
337.136	1	2
337.307	1	5
337.478	1	-9
337.649	1	-1
337.820	1	8
337.991	1	1
338.162	1	1
338.333	1	-7
338.504	1	0
338.675	1	-15
338.846	1	9
339.017	1	3
339.188	1	-1
339.359	1	-2
339.530	1	-9
339.701	1	0
339.872	1	3
340.043	1	-1
340.214	1	-5
340.385	1	2
340.556	1	4
340.727	1	2
340.898	1	8
341.069	1	-2
341.240	1	-7
341.411	1	6
341.582	1	-5
341.753	1	-4
341.924	1	-2
342.095	1	1
342.266	1	-4
342.437	1	5
342.608	1	8
342.779	1	16
342.950	1	-9
343.121	1	6
343.292	1	12
343.463	1	0
343.634	1	1
343.805	1	-4
343.976	1	-4
344.147	1	2
344.318	1	0
344.489	1	0
344.660	1	-7
344.831	1	8
345.002	1	5
345.173	1	9
345.344	1	-4
345.515	1	-4
345.686	1	7
345.857	1	-6
346.028	1	-5
346.199	1	5
346.370	1	1
346.541	1	-2
346.712	1	-1
346.883	1	-3
347.054	1	-8
347.225	1	-6
347.396	1	-9
347.567	1	8
347.738	1	-5
347.909	1	13
348.080	1	7
348.251	1	-1
348.422	1	5
348.593	1	-11
348.764	1	-1
348.935	1	-7
349.106	1	8
349.277	1	0
349.448	1	1
349.619	1	-3
349.790	1	2
349.961	1	-2
350.132	1	0
350.303	1	0
350.474	1	-13
350.645	1	12
350.816	1	-6
350.987	1	6
351.157	1	-8
351.328	1	-10
351.499	1	-3
351.670	1	6
351.841	1	14
352.012	1	5
352.183	1	-11
352.354	1	7
352.525	1	1
352.696	1	11
352.867	1	-13
353.038	1	6
353.209	1	-2
353.380	1	-5
353.551	1	0
353.722	1	-2
353.893	1	-1
354.064	1	-8
354.235	1	2
354.406	1	-2
354.576	1	0
354.747	1	-2
354.918	1	2
355.089	1	3
355.260	1	2
355.431	1	7
355.602	1	2
355.773	1	-4
355.944	1	-4
356.115	1	1
356.286	1	-7
356.457	1	6
356.628	1	-4
356.799	1	-4
356.970	1	-9
357.141	1	2
357.311	1	5
357.482	1	5
357.653	1	-9
357.824	1	2
357.995	1	6
358.166	1	-14
358.337	1	-1
358.508	1	-2
358.679	1	-3
358.850	1	6
359.021	1	3
359.192	1	-3
359.363	1	9
359.533	1	6
359.704	1	15
359.875	1	-5
360.046	1	5
360.217	1	-6
360.388	1	-1
360.559	1	-5
360.730	1	6
360.901	1	3
361.072	1	-9
361.243	1	2
361.414	1	8
361.584	1	1
361.755	1	14
361.926	1	-12
362.097	1	0
362.268	1	5
362.439	1	7
362.610	1	10
362.781	1	-3
362.952	1	3
363.123	1	6
363.293	1	5
363.464	1	-7
363.635	1	2
363.806	1	6
363.977	1	2
364.148	1	-2
364.319	1	10
364.490	1	0
364.661	1	7
364.832	1	7
365.002	1	2
365.173	1	-1
365.344	1	1
365.515	1	6
365.686	1	-5
365.857	1	1
366.028	1	2
366.199	1	2
366.370	1	5
366.540	1	-5
366.711	1	3
366.882	1	5
367.053	1	1
367.224	1	0
367.395	1	8
367.566	1	-2
367.737	1	1
367.908	1	-1
368.078	1	4
368.249	1	3
368.420	1	12
368.591	1	0
368.762	1	-10
368.933	1	-1
369.104	1	4
369.274	1	1
369.445	1	-8
369.616	1	-10
369.787	1	2
369.958	1	1
370.129	1	-12
370.300	1	-2
370.471	1	-3
370.641	1	-10
370.812	1	-6
370.983	1	2
371.154	1	4
371.325	1	2
371.496	1	-6
371.667	1	-6
371.837	1	-1
372.008	1	-4
372.179	1	4
372.350	1	-5
372.521	1	8
372.692	1	0
372.863	1	5
373.033	1	10
373.204	1	1
373.375	1	-8
373.546	1	7
373.717	1	-19
373.888	1	1
374.059	1	4
374.229	1	3
374.400	1	4
374.571	1	-9
374.742	1	-6
374.913	1	-6
375.084	1	-6
375.254	1	-4
375.425	1	7
375.596	1	2
375.767	1	4
375.938	1	0
376.109	1	-14
376.279	1	0
376.450	1	3
376.621	1	-1
376.792	1	-6
376.963	1	10
377.134	1	-6
377.304	1	5
377.475	1	-1
377.646	1	10
377.817	1	-8
377.988	1	7
378.159	1	-4
378.329	1	10
378.500	1	-6
378.671	1	-4
378.842	1	0
379.013	1	1
379.184	1	-9
379.354	1	11
379.525	1	-3
379.696	1	4
379.867	1	3
380.038	1	-3
380.209	1	-10
380.379	1	-10
380.550	1	10
380.721	1	0
380.892	1	4
381.063	1	1
381.233	1	3
381.404	1	7
381.575	1	8
381.746	1	-4
381.917	1	2
382.087	1	3
382.258	1	-7
382.429	1	8
382.600	1	-2
382.771	1	3
382.941	1	1
383.112	1	5
383.283	1	-1
383.454	1	2
383.625	1	4
383.795	1	-3
383.966	1	-2
384.137	1	0
384.308	1	5
384.479	1	10
384.649	1	3
384.820	1	-2
384.991	1	-3
385.162	1	-2
385.333	1	0
385.503	1	-5
385.674	1	5
385.845	1	-7
386.016	1	1
386.187	1	3
386.357	1	4
386.528	1	5
386.699	1	1
386.870	1	-3
387.041	1	-15
387.211	1	0
387.382	1	8
387.553	1	3
387.724	1	-2
387.894	1	9
388.065	1	5
388.236	1	9
388.407	1	7
388.578	1	1
388.748	1	4
388.919	1	-11
389.090	1	0
389.261	1	-7
389.431	1	-6
389.602	1	7
389.773	1	1
389.944	1	1
390.114	1	2
390.285	1	-10
390.456	1	12
390.627	1	-1
390.798	1	-4
390.968	1	-13
391.139	1	3
391.310	1	-8
391.481	1	-8
391.651	1	4
391.822	1	7
391.993	1	-8
392.164	1	-8
392.334	1	3
392.505	1	-3
392.676	1	-3
392.847	1	2
393.017	1	6
393.188	1	-2
393.359	1	2
393.530	1	-1
393.700	1	4
393.871	1	-7
394.042	1	-5
394.213	1	1
394.383	1	-6
394.554	1	-11
394.725	1	-4
394.896	1	8
395.066	1	-13
395.237	1	-6
395.408	1	2
395.579	1	-12
395.749	1	-3
395.920	1	4
396.091	1	10
396.262	1	-4
396.432	1	1
396.603	1	10
396.774	1	-8
396.945	1	-7
397.115	1	1
397.286	1	0
397.457	1	-6
397.627	1	-4
397.798	1	-4
397.969	1	-5
398.140	1	16
398.310	1	-2
398.481	1	-11
398.652	1	-13
398.823	1	-8
398.993	1	7
399.164	1	-3
399.335	1	6
399.505	1	2
399.676	1	0
399.847	1	1
400.018	1	1
400.188	1	4
400.359	1	-6
400.530	1	-2
400.700	1	1
400.871	1	1
401.042	1	3
401.213	1	3
401.383	1	10
401.554	1	0
401.725	1	0
401.895	1	4
402.066	1	3
402.237	1	0
402.408	1	-1
402.578	1	-9
402.749	1	2
402.920	1	8
403.090	1	-3
403.261	1	-8
403.432	1	-2
403.603	1	2
403.773	1	3
403.944	1	-1
404.115	1	6
404.285	1	15
404.456	1	5
404.627	1	7
404.797	1	2
404.968	1	-2
405.139	1	2
405.310	1	1
405.480	1	10
405.651	1	10
405.822	1	-4
405.992	1	-1
406.163	1	-7
406.334	1	-8
406.504	1	5
406.675	1	3
406.846	1	1
407.016	1	8
407.187	1	-8
407.358	1	2
407.528	1	-14
407.699	1	-2
407.870	1	-5
408.041	1	-7
408.211	1	-12
408.382	1	11
408.553	1	2
408.723	1	-7
408.894	1	-6
409.065	1	-9
409.235	1	-4
409.406	1	-2
409.577	1	-2
409.747	1	-4
409.918	1	10
410.089	1	5
410.259	1	0
410.430	1	4
410.601	1	2
410.771	1	-6
410.942	1	2
411.113	1	7
411.283	1	-2
411.454	1	-12
411.625	1	5
411.795	1	3
411.966	1	10
412.137	1	-8
412.307	1	-3
412.478	1	8
412.649	1	-12
412.819	1	-1
412.990	1	-14
413.161	1	-10
413.331	1	-2
413.502	1	5
413.672	1	-2
413.843	1	7
414.014	1	-6
414.184	1	-1
414.355	1	-1
414.526	1	-7
414.696	1	10
414.867	1	-2
415.038	1	1
415.208	1	1
415.379	1	8
415.550	1	9
415.720	1	-8
415.891	1	-6
416.062	1	-9
416.232	1	-10
416.403	1	0
416.573	1	-4
416.744	1	-7
416.915	1	-2
417.085	1	10
417.256	1	2
417.427	1	5
417.597	1	1
417.768	1	-1
417.939	1	1
418.109	1	0
418.280	1	1
418.450	1	-11
418.621	1	-8
418.792	1	-16
418.962	1	6
419.133	1	1
419.304	1	1
419.474	1	5
419.645	1	4
419.815	1	0
419.986	1	6
420.157	1	11
420.327	1	1
420.498	1	-8
420.669	1	-6
420.839	1	-13
421.010	1	1
421.180	1	-2
421.351	1	2
421.522	1	-6
421.692	1	1
421.863	1	-8
422.033	1	-5
422.204	1	-5
422.375	1	2
422.545	1	3
422.716	1	1
422.886	1	7
423.057	1	-1
423.228	1	12
423.398	1	-5
423.569	1	-2
423.740	1	2
423.910	1	3
424.081	1	-6
424.251	1	-1
424.422	1	-8
424.593	1	-6
424.763	1	-13
424.934	1	5
425.104	1	12
425.275	1	-11
425.445	1	-17
425.616	1	-4
425.787	1	3
425.957	1	2
426.128	1	10
426.298	1	-13
426.469	1	-12
426.640	1	-4
426.810	1	-4
426.981	1	-6
427.151	1	1
427.322	1	3
427.493	1	4
427.663	1	1
427.834	1	7
428.004	1	-9
428.175	1	0
428.345	1	-14
428.516	1	5
428.687	1	2
428.857	1	12
429.028	1	9
429.198	1	10
429.369	1	4
429.540	1	4
429.710	1	-2
429.881	1	-11
430.051	1	-1
430.222	1	-3
430.392	1	-2
430.563	1	8
430.734	1	13
430.904	1	3
431.075	1	0
431.245	1	-5
431.416	1	12
431.586	1	-8
431.757	1	1
431.927	1	5
432.098	1	3
432.269	1	-2
432.439	1	6
432.610	1	0
432.780	1	2
432.951	1	-16
433.121	1	3
433.292	1	-10
433.462	1	-8
433.633	1	2
433.804	1	4
433.974	1	6
434.145	1	-6
434.315	1	2
434.486	1	7
434.656	1	11
434.827	1	-6
434.997	1	3
435.168	1	1
435.339	1	4
435.509	1	-5
435.680	1	1
435.850	1	0
436.021	1	7
436.191	1	4
436.362	1	-2
436.532	1	-2
436.703	1	-2
436.873	1	-2
437.044	1	-6
437.214	1	-6
437.385	1	-4
437.556	1	-2
437.726	1	-9
437.897	1	-4
438.067	1	0
438.238	1	-3
438.408	1	-2
438.579	1	-5
438.749	1	-1
438.920	1	-4
439.090	1	1
439.261	1	3
439.431	1	1
439.602	1	-5
439.772	1	10
439.943	1	-10
440.113	1	5
440.284	1	-15
440.455	1	5
440.625	1	-9
440.796	1	0
440.966	1	6
441.137	1	9
441.307	1	-1
441.478	1	4
441.648	1	4
441.819	1	2
441.989	1	-3
442.160	1	-4
442.330	1	-8
442.501	1	-5
442.671	1	2
442.842	1	-10
443.012	1	-1
443.183	1	-1
443.353	1	12
443.524	1	-11
443.694	1	-6
443.865	1	-3
444.035	1	-2
444.206	1	-3
444.376	1	-5
444.547	1	3
444.717	1	-8
444.888	1	6
445.058	1	6
445.229	1	1
445.399	1	-5
445.570	1	1
445.740	1	-5
445.911	1	-3
446.081	1	-1
446.252	1	0
446.422	1	2
446.593	1	-8
446.763	1	6
446.934	1	-5
447.104	1	0
447.275	1	-2
447.445	1	5
447.616	1	-3
447.786	1	2
447.957	1	4
448.127	1	-6
448.298	1	6
448.468	1	12
448.639	1	8
448.809	1	1
448.979	1	-2
449.150	1	2
449.320	1	3
449.491	1	9
449.661	1	-7
449.832	1	0
450.002	1	3
450.173	1	-4
450.343	1	-1
450.514	1	-1
450.684	1	6
450.855	1	5
451.025	1	2
451.196	1	3
451.366	1	2
451.537	1	-5
451.707	1	0
451.878	1	-6
452.048	1	8
452.218	1	7
452.389	1	-6
452.559	1	-2
452.730	1	1
452.900	1	4
453.071	1	-10
453.241	1	3
453.412	1	-2
453.582	1	5
453.753	1	1
453.923	1	6
454.093	1	5
454.264	1	3
454.434	1	6
454.605	1	-3
454.775	1	-9
454.946	1	5
455.116	1	-3
455.287	1	1
455.457	1	4
455.628	1	10
455.798	1	8
455.968	1	7
456.139	1	-1
456.309	1	8
456.480	1	0
456.650	1	-1
456.821	1	-2
456.991	1	-8
457.161	1	6
457.332	1	-8
457.502	1	-5
457.673	1	3
457.843	1	2
458.014	1	-5
458.184	1	4
458.355	1	-10
458.525	1	3
458.695	1	-5
458.866	1	-9
459.036	1	-4
459.207	1	6
459.377	1	10
459.548	1	-5
459.718	1	-5
459.888	1	2
460.059	1	-5
460.229	1	-3
460.400	1	-14
460.570	1	-1
460.740	1	0
460.911	1	1
461.081	1	8
461.252	1	0
461.422	1	-1
461.593	1	-2
461.763	1	3
461.933	1	-2
462.104	1	-2
462.274	1	1
462.445	1	12
462.615	1	2
462.785	1	-2
462.956	1	-10
463.126	1	3
463.297	1	1
463.467	1	11
463.638	1	-1
463.808	1	-5
463.978	1	1
464.149	1	5
464.319	1	-2
464.490	1	7
464.660	1	-8
464.830	1	5
465.001	1	-1
465.171	1	1
465.342	1	-4
465.512	1	-11
465.682	1	6
465.853	1	3
466.023	1	11
466.194	1	0
466.364	1	-7
466.534	1	-2
466.705	1	1
466.875	1	-5
467.045	1	-8
467.216	1	-11
467.386	1	-6
467.557	1	-4
467.727	1	10
467.897	1	-2
468.068	1	1
468.238	1	-6
468.409	1	-3
468.579	1	5
468.749	1	-3
468.920	1	14
469.090	1	-14
469.260	1	8
469.431	1	1
469.601	1	0
469.772	1	1
469.942	1	-5
470.112	1	0
470.283	1	3
470.453	1	4
470.623	1	-1
470.794	1	5
470.964	1	9
471.135	1	-7
471.305	1	10
471.475	1	12
471.646	1	-4
471.816	1	3
471.986	1	-3
472.157	1	-1
472.327	1	3
472.497	1	2
472.668	1	8
472.838	1	4
473.009	1	0
473.179	1	2
473.349	1	-5
473.520	1	-11
473.690	1	7
473.860	1	4
474.031	1	-2
474.201	1	-2
474.371	1	-2
474.542	1	9
474.712	1	-2
474.882	1	6
475.053	1	0
475.223	1	-3
475.394	1	-9
475.564	1	-8
475.734	1	-1
475.905	1	-2
476.075	1	2
476.245	1	-1
476.416	1	10
476.586	1	-3
476.756	1	1
476.927	1	1
477.097	1	-1
477.267	1	-3
477.438	1	4
477.608	1	-6
477.778	1	7
477.949	1	11
478.119	1	0
478.289	1	5
478.460	1	7
478.630	1	8
478.800	1	-3
478.971	1	-11
479.141	1	-3
479.311	1	9
479.482	1	-7
479.652	1	-4
479.822	1	1
479.993	1	1
480.163	1	8
480.333	1	-2
480.504	1	-2
480.674	1	-1
480.844	1	-5
481.015	1	2
481.185	1	-4
481.355	1	-3
481.525	1	0
481.696	1	2
481.866	1	-3
482.036	1	-1
482.207	1	-14
482.377	1	-3
482.547	1	-14
482.718	1	1
482.888	1	-1
483.058	1	-5
483.229	1	8
483.399	1	2
483.569	1	6
483.740	1	-12
483.910	1	-1
484.080	1	-10
484.250	1	-8
484.421	1	-5
484.591	1	10
484.761	1	6
484.932	1	13
485.102	1	3
485.272	1	4
485.443	1	0
485.613	1	-3
485.783	1	-7
485.953	1	-2
486.124	1	8
486.294	1	1
486.464	1	5
486.635	1	-4
486.805	1	-4
486.975	1	1
487.146	1	5
487.316	1	-3
487.486	1	-8
487.656	1	11
487.827	1	-4
487.997	1	2
488.167	1	-7
488.338	1	8
488.508	1	6
488.678	1	1
488.848	1	8
489.019	1	-1
489.189	1	5
489.359	1	-5
489.529	1	6
489.700	1	-8
489.870	1	-5
490.040	1	-1
490.211	1	3
490.381	1	2
490.551	1	-4
490.721	1	1
490.892	1	1
491.062	1	1
491.232	1	5
491.402	1	-8
491.573	1	-3
491.743	1	-5
491.913	1	0
492.084	1	-1
492.254	1	3
492.424	1	3
492.594	1	1
492.765	1	1
492.935	1	-7
493.105	1	4
493.275	1	-1
493.446	1	-3
493.616	1	-4
493.786	1	11
493.956	1	0
494.127	1	-5
494.297	1	-5
494.467	1	-1
494.637	1	-6
494.808	1	0
494.978	1	-1
495.148	1	-10
495.318	1	-7
495.489	1	-12
495.659	1	7
495.829	1	-7
495.999	1	1
496.170	1	-7
496.340	1	5
496.510	1	-1
496.680	1	4
496.851	1	-1
497.021	1	-4
497.191	1	-3
497.361	1	3
497.532	1	4
497.702	1	-2
497.872	1	2
498.042	1	-6
498.213	1	-7
498.383	1	-4
498.553	1	3
498.723	1	6
498.894	1	1
499.064	1	3
499.234	1	-8
499.404	1	-6
499.574	1	6
499.745	1	0
499.915	1	-1
500.085	1	-6
500.255	1	-3
500.426	1	-1
500.596	1	8
500.766	1	-4
500.936	1	2
501.106	1	-4
501.277	1	1
501.447	1	-3
501.617	1	3
501.787	1	-2
501.958	1	6
502.128	1	4
502.298	1	-9
502.468	1	-2
502.638	1	-5
502.809	1	7
502.979	1	0
503.149	1	5
503.319	1	-12
503.489	1	1
503.660	1	-2
503.830	1	-7
504.000	1	-9
504.170	1	-2
504.340	1	-4
504.511	1	3
504.681	1	3
504.851	1	6
505.021	1	-8
505.192	1	0
505.362	1	0
505.532	1	5
505.702	1	0
505.872	1	-2
506.043	1	-1
506.213	1	5
506.383	1	8
506.553	1	11
506.723	1	-8
506.893	1	6
507.064	1	13
507.234	1	-9
507.404	1	-7
507.574	1	4
507.744	1	11
507.915	1	10
508.085	1	4
508.255	1	10
508.425	1	-4
508.595	1	10
508.766	1	1
508.936	1	-6
509.106	1	-2
509.276	1	5
509.446	1	-2
509.616	1	-3
509.787	1	2
509.957	1	1
510.127	1	1
510.297	1	1
510.467	1	15
510.638	1	3
510.808	1	8
510.978	1	-2
511.148	1	-1
511.318	1	-5
511.488	1	6
511.659	1	-3
511.829	1	4
511.999	1	0
512.169	1	0
512.339	1	-5
512.509	1	8
512.680	1	10
512.850	1	-1
513.020	1	-4
513.190	1	0
513.360	1	-8
513.530	1	-4
513.700	1	3
513.871	1	8
514.041	1	-5
514.211	1	1
514.381	1	0
514.551	1	-11
514.721	1	0
514.892	1	-1
515.062	1	-11
515.232	1	2
515.402	1	3
515.572	1	2
515.742	1	-1
515.912	1	6
516.083	1	5
516.253	1	-7
516.423	1	2
516.593	1	-1
516.763	1	13
516.933	1	-5
517.104	1	-12
517.274	1	-10
517.444	1	3
517.614	1	-8
517.784	1	6
517.954	1	-11
518.124	1	4
518.294	1	1
518.465	1	-3
518.635	1	12
518.805	1	-2
518.975	1	-5
519.145	1	2
519.315	1	-1
519.485	1	0
519.656	1	-3
519.826	1	-6
519.996	1	-11
520.166	1	1
520.336	1	5
520.506	1	-9
520.676	1	-1
520.846	1	1
521.017	1	4
521.187	1	6
521.357	1	2
521.527	1	-9
521.697	1	-8
521.867	1	-8
522.037	1	-14
522.207	1	13
522.377	1	1
522.548	1	1
522.718	1	-10
522.888	1	1
523.058	1	2
523.228	1	1
523.398	1	3
523.568	1	0
523.738	1	4
523.909	1	4
524.079	1	4
524.249	1	-6
524.419	1	-6
524.589	1	-2
524.759	1	-2
524.929	1	0
525.099	1	-12
525.269	1	2
525.439	1	-17
525.610	1	18
525.780	1	-9
525.950	1	2
526.120	1	-3
526.290	1	8
526.460	1	-6
526.630	1	0
526.800	1	-3
526.970	1	-14
527.140	1	-8
527.311	1	2
527.481	1	-14
527.651	1	6
527.821	1	3
527.991	1	-2
528.161	1	2
528.331	1	-6
528.501	1	-9
528.671	1	-11
528.841	1	-6
529.011	1	8
529.181	1	6
529.352	1	6
529.522	1	9
529.692	1	2
529.862	1	9
530.032	1	-7
530.202	1	-3
530.372	1	-7
530.542	1	-4
530.712	1	-2
530.882	1	-6
531.052	1	3
531.222	1	-2
531.392	1	6
531.563	1	2
531.733	1	-11
531.903	1	6
532.073	1	-5
532.243	1	0
532.413	1	-10
532.583	1	8
532.753	1	5
532.923	1	-4
533.093	1	4
533.263	1	9
533.433	1	7
533.603	1	5
533.773	1	-5
533.943	1	13
534.113	1	7
534.284	1	-1
534.454	1	5
534.624	1	-6
534.794	1	12
534.964	1	3
535.134	1	0
535.304	1	-3
535.474	1	-6
535.644	1	-8
535.814	1	0
535.984	1	8
536.154	1	-7
536.324	1	7
536.494	1	-7
536.664	1	10
536.834	1	1
537.004	1	4
537.174	1	-3
537.344	1	2
537.514	1	-3
537.685	1	2
537.855	1	2
538.025	1	7
538.195	1	-4
538.365	1	-2
538.535	1	-2
538.705	1	6
538.875	1	9
539.045	1	-13
539.215	1	-8
539.385	1	1
539.555	1	12
539.725	1	-1
539.895	1	-4
540.065	1	2
540.235	1	3
540.405	1	3
540.575	1	-4
540.745	1	-3
540.915	1	1
541.085	1	-5
541.255	1	-3
541.425	1	-3
541.595	1	4
541.765	1	-4
541.935	1	4
542.105	1	-8
542.275	1	10
542.445	1	0
542.615	1	-1
542.785	1	-7
542.955	1	4
543.125	1	-8
543.295	1	-10
543.465	1	1
543.635	1	-2
543.805	1	-6
543.975	1	1
544.145	1	0
544.315	1	-5
544.485	1	-6
544.655	1	12
544.825	1	3
544.995	1	6
545.165	1	3
545.335	1	-5
545.505	1	0
545.675	1	6
545.845	1	1
546.015	1	5
546.185	1	8
546.355	1	1
546.525	1	12
546.695	1	-7
546.865	1	4
547.035	1	-6
547.205	1	16
547.375	1	-1
547.545	1	-3
547.715	1	-4
547.885	1	-12
548.055	1	1
548.225	1	13
548.395	1	-5
548.565	1	13
548.735	1	3
548.905	1	12
549.075	1	2
549.245	1	-9
549.415	1	-8
549.585	1	-13
549.755	1	-8
549.925	1	2
550.095	1	-7
550.265	1	-2
550.435	1	9
550.605	1	4
550.775	1	4
550.945	1	6
551.115	1	5
551.285	1	1
551.455	1	-5
551.625	1	-1
551.795	1	-11
551.965	1	0
552.135	1	-1
552.305	1	7
552.475	1	3
552.645	1	1
552.815	1	3
552.985	1	9
553.155	1	9
553.325	1	-5
553.495	1	2
553.665	1	-5
553.835	1	9
554.004	1	-7
554.174	1	-7
554.344	1	-7
554.514	1	-2
554.684	1	-1
554.854	1	-2
555.024	1	3
555.194	1	-4
555.364	1	-4
555.534	1	12
555.704	1	10
555.874	1	-2
556.044	1	-1
556.214	1	-7
556.384	1	-1
556.554	1	-3
556.724	1	-10
556.894	1	-2
557.064	1	7
557.234	1	6
557.404	1	3
557.573	1	-2
557.743	1	-3
557.913	1	5
558.083	1	-1
558.253	1	1
558.423	1	-5
558.593	1	1
558.763	1	1
558.933	1	-8
559.103	1	2
559.273	1	-11
559.443	1	-7
559.613	1	1
559.783	1	-9
559.953	1	1
560.122	1	-5
560.292	1	0
560.462	1	3
560.632	1	-3
560.802	1	6
560.972	1	3
561.142	1	-4
561.312	1	-2
561.482	1	-4
561.652	1	-6
561.822	1	-3
561.992	1	-2
562.162	1	-4
562.331	1	4
562.501	1	12
562.671	1	3
562.841	1	-11
563.011	1	7
563.181	1	-14
563.351	1	4
563.521	1	-10
563.691	1	-5
563.861	1	6
564.031	1	-3
564.201	1	2
564.370	1	-8
564.540	1	4
564.710	1	-9
564.880	1	-7
565.050	1	-4
565.220	1	8
565.390	1	-3
565.560	1	4
565.730	1	-6
565.900	1	-1
566.069	1	-13
566.239	1	6
566.409	1	3
566.579	1	-18
566.749	1	-6
566.919	1	-7
567.089	1	12
567.259	1	-4
567.429	1	9
567.599	1	1
567.768	1	-1
567.938	1	-4
568.108	1	-1
568.278	1	5
568.448	1	-3
568.618	1	8
568.788	1	-4
568.958	1	7
569.128	1	2
569.297	1	7
569.467	1	-2
569.637	1	-14
569.807	1	8
569.977	1	-6
570.147	1	4
570.317	1	-9
570.487	1	4
570.656	1	-1
570.826	1	-8
570.996	1	-5
571.166	1	-3
571.336	1	-5
571.506	1	5
571.676	1	-1
571.846	1	-1
572.015	1	-10
572.185	1	5
572.355	1	4
572.525	1	0
572.695	1	2
572.865	1	3
573.035	1	-13
573.205	1	0
573.374	1	3
573.544	1	-7
573.714	1	-3
573.884	1	2
574.054	1	13
574.224	1	-1
574.394	1	-4
574.563	1	2
574.733	1	5
574.903	1	-7
575.073	1	-8
575.243	1	-6
575.413	1	-2
575.583	1	9
575.752	1	8
575.922	1	9
576.092	1	-4
576.262	1	-2
576.432	1	-4
576.602	1	7
576.772	1	-3
576.941	1	-2
577.111	1	7
577.281	1	5
577.451	1	2
577.621	1	6
577.791	1	6
577.960	1	-2
578.130	1	-9
578.300	1	12
578.470	1	-1
578.640	1	1
578.810	1	-11
578.979	1	3
579.149	1	5
579.319	1	-6
579.489	1	2
579.659	1	-3
579.829	1	-6
579.998	1	-3
580.168	1	-9
580.338	1	9
580.508	1	6
580.678	1	0
580.848	1	7
581.017	1	9
581.187	1	7
581.357	1	-13
581.527	1	-1
581.697	1	-15
581.867	1	-1
582.036	1	-8
582.206	1	-7
582.376	1	-5
582.546	1	0
582.716	1	-2
582.885	1	7
583.055	1	0
583.225	1	-5
583.395	1	-2
583.565	1	-2
583.735	1	2
583.904	1	2
584.074	1	5
584.244	1	-2
584.414	1	10
584.584	1	-8
584.753	1	-10
584.923	1	-3
585.093	1	9
585.263	1	-3
585.433	1	-6
585.602	1	4
585.772	1	0
585.942	1	1
586.112	1	-6
586.282	1	-3
586.451	1	7
586.621	1	-3
586.791	1	9
586.961	1	-3
587.131	1	-6
587.300	1	-6
587.470	1	-12
587.640	1	-2
587.810	1	6
587.980	1	4
588.149	1	11
588.319	1	4
588.489	1	-5
588.659	1	6
588.829	1	5
588.998	1	12
589.168	1	-13
589.338	1	-5
589.508	1	1
589.677	1	0
589.847	1	-4
590.017	1	-1
590.187	1	-7
590.357	1	-3
590.526	1	-8
590.696	1	-7
590.866	1	-19
591.036	1	11
591.205	1	2
591.375	1	-7
591.545	1	-6
591.715	1	-17
591.885	1	-4
592.054	1	-11
592.224	1	-1
592.394	1	0
592.564	1	-3
592.733	1	0
592.903	1	8
593.073	1	11
593.243	1	1
593.412	1	-3
593.582	1	-4
593.752	1	1
593.922	1	9
594.091	1	-9
594.261	1	-8
594.431	1	-7
594.601	1	2
594.771	1	-5
594.940	1	6
595.110	1	2
595.280	1	7
595.450	1	6
595.619	1	-6
595.789	1	2
595.959	1	-2
596.129	1	1
596.298	1	-8
596.468	1	-6
596.638	1	0
596.808	1	0
596.977	1	7
597.147	1	4
597.317	1	3
597.487	1	-8
597.656	1	-10
597.826	1	1
597.996	1	1
598.166	1	-3
598.335	1	0
598.505	1	2
598.675	1	-12
598.844	1	0
599.014	1	-4
599.184	1	-7
599.354	1	2
599.523	1	5
599.693	1	10
599.863	1	-1
600.033	1	-8
600.202	1	12
600.372	1	1
600.542	1	3
600.712	1	-5
600.881	1	2
601.051	1	2
601.221	1	10
601.390	1	-10
601.560	1	2
601.730	1	-6
601.900	1	1
602.069	1	0
602.239	1	-7
602.409	1	4
602.578	1	-4
602.748	1	-1
602.918	1	6
603.088	1	-1
603.257	1	3
603.427	1	1
603.597	1	-10
603.767	1	-2
603.936	1	1
604.106	1	2
604.276	1	-6
604.445	1	-13
604.615	1	2
604.785	1	1
604.954	1	4
605.124	1	10
605.294	1	1
605.464	1	-3
605.633	1	2
605.803	1	-7
605.973	1	2
606.142	1	-1
606.312	1	-2
606.482	1	-10
606.652	1	1
606.821	1	0
606.991	1	-2
607.161	1	1
607.330	1	10
607.500	1	11
607.670	1	1
607.839	1	-1
608.009	1	-3
608.179	1	-7
608.348	1	1
608.518	1	5
608.688	1	-10
608.858	1	-1
609.027	1	8
609.197	1	-2
609.367	1	-3
609.536	1	-4
609.706	1	3
609.876	1	-5
610.045	1	0
610.215	1	3
610.385	1	12
610.554	1	2
610.724	1	-1
610.894	1	-2
611.063	1	10
611.233	1	-6
611.403	1	4
611.572	1	8
611.742	1	-2
611.912	1	-11
612.081	1	-1
612.251	1	-2
612.421	1	3
612.590	1	-10
612.760	1	5
612.930	1	3
613.099	1	11
613.269	1	-10
613.439	1	-3
613.608	1	0
613.778	1	6
613.948	1	-4
614.117	1	1
614.287	1	-1
614.457	1	-3
614.626	1	2
614.796	1	-7
614.966	1	2
615.135	1	7
615.305	1	1
615.475	1	8
615.644	1	-3
615.814	1	-2
615.984	1	5
616.153	1	2
616.323	1	-9
616.493	1	2
616.662	1	2
616.832	1	-2
617.002	1	2
617.171	1	-2
617.341	1	3
617.511	1	-6
617.680	1	3
617.850	1	4
618.019	1	-7
618.189	1	11
618.359	1	-3
618.528	1	3
618.698	1	-1
618.868	1	-12
619.037	1	-9
619.207	1	4
619.377	1	2
619.546	1	3
619.716	1	1
619.885	1	3
620.055	1	0
620.225	1	-6
620.394	1	0
620.564	1	8
620.734	1	3
620.903	1	16
621.073	1	-1
621.242	1	13
621.412	1	-3
621.582	1	2
621.751	1	-8
621.921	1	-3
622.091	1	7
622.260	1	-5
622.430	1	-3
622.599	1	2
622.769	1	-9
622.939	1	-14
623.108	1	5
623.278	1	10
623.448	1	-4
623.617	1	0
623.787	1	6
623.956	1	0
624.126	1	13
624.296	1	-5
624.465	1	5
624.635	1	-1
624.804	1	9
624.974	1	-7
625.144	1	6
625.313	1	-2
625.483	1	0
625.652	1	-4
625.822	1	5
625.992	1	9
626.161	1	5
626.331	1	4
626.501	1	-6
626.670	1	12
626.840	1	3
627.009	1	1
627.179	1	-1
627.348	1	13
627.518	1	-9
627.688	1	2
627.857	1	-2
628.027	1	4
628.196	1	1
628.366	1	10
628.536	1	2
628.705	1	5
628.875	1	-13
629.044	1	-6
629.214	1	-6
629.384	1	-10
629.553	1	-1
629.723	1	4
629.892	1	3
630.062	1	-9
630.232	1	-2
630.401	1	4
630.571	1	3
630.740	1	-2
630.910	1	7
631.079	1	11
631.249	1	-8
631.419	1	-5
631.588	1	-1
631.758	1	-3
631.927	1	6
632.097	1	-2
632.266	1	-12
632.436	1	6
632.606	1	0
632.775	1	-2
632.945	1	-10
633.114	1	8
633.284	1	-18
633.453	1	-2
633.623	1	10
633.793	1	2
633.962	1	-3
634.132	1	-5
634.301	1	-2
634.471	1	-9
634.640	1	-7
634.810	1	3
634.979	1	-3
635.149	1	6
635.319	1	5
635.488	1	2
635.658	1	2
635.827	1	0
635.997	1	5
636.166	1	-3
636.336	1	0
636.505	1	4
636.675	1	-4
636.845	1	-1
637.014	1	0
637.184	1	2
637.353	1	8
637.523	1	0
637.692	1	-1
637.862	1	-8
638.031	1	-3
638.201	1	0
638.370	1	8
638.540	1	0
638.710	1	0
638.879	1	-3
639.049	1	7
639.218	1	-2
639.388	1	8
639.557	1	0
639.727	1	8
639.896	1	3
640.066	1	-1
640.235	1	-2
640.405	1	3
640.574	1	8
640.744	1	-5
640.914	1	0
641.083	1	9
641.253	1	0
641.422	1	3
641.592	1	-2
641.761	1	2
641.931	1	-7
642.100	1	-1
642.270	1	4
642.439	1	7
642.609	1	9
642.778	1	-7
642.948	1	7
643.117	1	-1
643.287	1	-3
643.456	1	1
643.626	1	8
643.795	1	1
643.965	1	-2
644.134	1	6
644.304	1	-10
644.473	1	1
644.643	1	-7
644.812	1	-1
644.982	1	4
645.151	1	1
645.321	1	7
645.490	1	4
645.660	1	13
645.829	1	9
645.999	1	5
646.168	1	0
646.338	1	-10
646.507	1	-3
646.677	1	5
646.846	1	-3
647.016	1	11
647.185	1	5
647.355	1	3
647.524	1	-6
647.694	1	8
647.863	1	-7
648.033	1	-3
648.202	1	2
648.372	1	1
648.541	1	6
648.711	1	2
648.880	1	-5
649.050	1	-9
649.219	1	1
649.389	1	1
649.558	1	5
649.728	1	3
649.897	1	8
650.067	1	-7
650.236	1	-4
650.406	1	5
650.575	1	5
650.745	1	-5
650.914	1	4
651.084	1	-8
651.253	1	3
651.423	1	7
651.592	1	-3
651.762	1	1
651.931	1	2
652.101	1	-3
652.270	1	-10
652.440	1	-2
652.609	1	6
652.778	1	1
652.948	1	-1
653.117	1	2
653.287	1	-8
653.456	1	-9
653.626	1	5
653.795	1	-1
653.965	1	10
654.134	1	-5
654.304	1	-6
654.473	1	-5
654.643	1	-2
654.812	1	0
654.982	1	1
655.151	1	0
655.320	1	9
655.490	1	-7
655.659	1	5
655.829	1	8
655.998	1	3
656.168	1	1
656.337	1	-11
656.507	1	-2
656.676	1	9
656.846	1	7
657.015	1	-3
657.184	1	-6
657.354	1	-6
657.523	1	0
657.693	1	-3
657.862	1	-1
658.032	1	4
658.201	1	2
658.371	1	3
658.540	1	2
658.709	1	5
658.879	1	12
659.048	1	1
659.218	1	-4
659.387	1	-5
659.557	1	-3
659.726	1	2
659.895	1	8
660.065	1	-2
660.234	1	-8
660.404	1	-4
660.573	1	1
660.743	1	1
660.912	1	3
661.081	1	-11
661.251	1	10
661.420	1	0
661.590	1	-12
661.759	1	-10
661.929	1	-2
662.098	1	3
662.267	1	2
662.437	1	-10
662.606	1	-2
662.776	1	-5
662.945	1	1
663.115	1	0
663.284	1	-1
663.453	1	0
663.623	1	-6
663.792	1	-3
663.962	1	1
664.131	1	-4
664.300	1	-2
664.470	1	0
664.639	1	1
664.809	1	10
664.978	1	-2
665.148	1	1
665.317	1	-5
665.486	1	-10
665.656	1	12
665.825	1	0
665.995	1	-6
666.164	1	-3
666.333	1	5
666.503	1	3
666.672	1	-9
666.842	1	4
667.011	1	2
667.180	1	-4
667.350	1	-4
667.519	1	-5
667.689	1	-11
667.858	1	-8
668.027	1	9
668.197	1	2
668.366	1	1
668.536	1	3
668.705	1	4
668.874	1	-4
669.044	1	-5
669.213	1	-5
669.382	1	1
669.552	1	-8
669.721	1	1
669.891	1	-7
670.060	1	-2
670.229	1	6
670.399	1	4
670.568	1	-3
670.738	1	-3
670.907	1	8
671.076	1	-3
671.246	1	-4
671.415	1	6
671.584	1	-2
671.754	1	-4
671.923	1	1
672.093	1	5
672.262	1	9
672.431	1	-8
672.601	1	11
672.770	1	-3
672.939	1	5
673.109	1	-5
673.278	1	-3
673.448	1	-6
673.617	1	-9
673.786	1	-2
