325.333	1	29
325.504	1	24
325.675	1	25
325.846	1	30
326.017	1	17
326.188	1	27
326.359	1	40
326.531	1	23
326.702	1	14
326.873	1	29
327.044	1	24
327.215	1	27
327.386	1	22
327.557	1	46
327.728	1	34
327.899	1	24
328.070	1	34
328.241	1	26
328.412	1	36
328.583	1	28
328.754	1	39
328.926	1	41
329.097	1	30
329.268	1	38
329.439	1	32
329.610	1	24
329.781	1	29
329.952	1	25
330.123	1	25
330.294	1	34
330.465	1	24
330.636	1	34
330.807	1	18
330.978	1	38
331.149	1	25
331.320	1	25
331.492	1	24
331.663	1	24
331.834	1	32
332.005	1	35
332.176	1	31
332.347	1	38
332.518	1	33
332.689	1	31
332.860	1	42
333.031	1	25
333.202	1	31
333.373	1	30
333.544	1	31
333.715	1	27
333.886	1	34
334.057	1	39
334.228	1	27
334.399	1	33
334.570	1	22
334.741	1	46
334.912	1	33
335.084	1	33
335.255	1	34
335.426	1	18
335.597	1	31
335.768	1	30
335.939	1	37
336.110	1	40
336.281	1	35
336.452	1	30
336.623	1	48
336.794	1	34
336.965	1	27
337.136	1	35
337.307	1	45
337.478	1	27
337.649	1	38
337.820	1	42
337.991	1	40
338.162	1	38
338.333	1	29
338.504	1	38
338.675	1	30
338.846	1	46
339.017	1	31
339.188	1	42
339.359	1	37
339.530	1	41
339.701	1	34
339.872	1	34
340.043	1	35
340.214	1	34
340.385	1	31
340.556	1	39
340.727	1	25
340.898	1	43
341.069	1	27
341.240	1	29
341.411	1	37
341.582	1	43
341.753	1	42
341.924	1	44
342.095	1	31
342.266	1	41
342.437	1	36
342.608	1	29
342.779	1	46
342.950	1	33
343.121	1	36
343.292	1	36
343.463	1	39
343.634	1	31
343.805	1	32
343.976	1	34
344.147	1	24
344.318	1	26
344.489	1	34
344.660	1	26
344.831	1	43
345.002	1	34
345.173	1	32
345.344	1	33
345.515	1	37
345.686	1	34
345.857	1	20
346.028	1	29
346.199	1	43
346.370	1	19
346.541	1	35
346.712	1	31
346.883	1	19
347.054	1	31
347.225	1	26
347.396	1	25
347.567	1	33
347.738	1	34
347.909	1	46
348.080	1	33
348.251	1	27
348.422	1	25
348.593	1	22
348.764	1	28
348.935	1	31
349.106	1	35
349.277	1	28
349.448	1	32
349.619	1	20
349.790	1	36
349.961	1	35
350.132	1	32
350.303	1	35
350.474	1	25
350.645	1	38
350.816	1	23
350.987	1	23
351.157	1	18
351.328	1	18
351.499	1	28
351.670	1	25
351.841	1	38
352.012	1	27
352.183	1	20
352.354	1	34
352.525	1	25
352.696	1	28
352.867	1	5
353.038	1	33
353.209	1	23
353.380	1	18
353.551	1	21
353.722	1	18
353.893	1	29
354.064	1	16
354.235	1	27
354.406	1	26
354.576	1	17
354.747	1	22
354.918	1	36
355.089	1	11
355.260	1	33
355.431	1	29
355.602	1	21
355.773	1	18
355.944	1	17
356.115	1	13
356.286	1	12
356.457	1	19
356.628	1	14
356.799	1	13
356.970	1	18
357.141	1	20
357.311	1	23
357.482	1	22
357.653	1	8
357.824	1	10
357.995	1	15
358.166	1	17
358.337	1	15
358.508	1	23
358.679	1	6
358.850	1	27
359.021	1	12
359.192	1	10
359.363	1	15
359.533	1	22
359.704	1	14
359.875	1	9
360.046	1	12
360.217	1	23
360.388	1	17
360.559	1	25
360.730	1	28
360.901	1	24
361.072	1	19
361.243	1	28
361.414	1	10
361.584	1	27
361.755	1	21
361.926	1	11
362.097	1	26
362.268	1	9
362.439	1	12
362.610	1	12
362.781	1	13
362.952	1	3
363.123	1	14
363.293	1	20
363.464	1	13
363.635	1	15
363.806	1	7
363.977	1	13
364.148	1	1
364.319	1	9
364.490	1	1
364.661	1	4
364.832	1	12
365.002	1	22
365.173	1	4
365.344	1	16
365.515	1	2
365.686	1	3
365.857	1	19
366.028	1	12
366.199	1	10
366.370	1	2
366.540	1	14
366.711	1	13
366.882	1	14
367.053	1	7
367.224	1	5
367.395	1	4
367.566	1	12
367.737	1	5
367.908	1	-3
368.078	1	6
368.249	1	17
368.420	1	13
368.591	1	8
368.762	1	-1
368.933	1	6
369.104	1	14
369.274	1	15
369.445	1	6
369.616	1	-1
369.787	1	4
369.958	1	5
370.129	1	-5
370.300	1	5
370.471	1	19
370.641	1	3
370.812	1	2
370.983	1	4
371.154	1	18
371.325	1	-1
371.496	1	7
371.667	1	10
371.837	1	0
372.008	1	5
372.179	1	9
372.350	1	2
372.521	1	4
372.692	1	-3
372.863	1	4
373.033	1	4
373.204	1	9
373.375	1	9
373.546	1	7
373.717	1	2
373.888	1	0
374.059	1	2
374.229	1	8
374.400	1	11
374.571	1	6
374.742	1	6
374.913	1	-3
375.084	1	4
375.254	1	0
375.425	1	5
375.596	1	14
375.767	1	7
375.938	1	-3
376.109	1	-1
376.279	1	-4
376.450	1	1
376.621	1	-2
376.792	1	2
376.963	1	11
377.134	1	2
377.304	1	13
377.475	1	1
377.646	1	1
377.817	1	-2
377.988	1	13
378.159	1	6
378.329	1	11
378.500	1	3
378.671	1	4
378.842	1	8
379.013	1	5
379.184	1	-3
379.354	1	3
379.525	1	-7
379.696	1	6
379.867	1	2
380.038	1	9
380.209	1	-4
380.379	1	-9
380.550	1	17
380.721	1	0
380.892	1	16
381.063	1	5
381.233	1	13
381.404	1	14
381.575	1	9
381.746	1	4
381.917	1	15
382.087	1	7
382.258	1	-6
382.429	1	16
382.600	1	6
382.771	1	13
382.941	1	12
383.112	1	13
383.283	1	14
383.454	1	13
383.625	1	6
383.795	1	3
383.966	1	7
384.137	1	9
384.308	1	5
384.479	1	14
384.649	1	8
384.820	1	9
384.991	1	3
385.162	1	5
385.333	1	15
385.503	1	-9
385.674	1	17
385.845	1	-2
386.016	1	7
386.187	1	-1
386.357	1	9
386.528	1	11
386.699	1	6
386.870	1	14
387.041	1	3
387.211	1	10
387.382	1	-2
387.553	1	6
387.724	1	8
387.894	1	15
388.065	1	8
388.236	1	4
388.407	1	24
388.578	1	19
388.748	1	15
388.919	1	-3
389.090	1	7
389.261	1	9
389.431	1	0
389.602	1	10
389.773	1	10
389.944	1	7
390.114	1	17
390.285	1	6
390.456	1	15
390.627	1	5
390.798	1	0
390.968	1	13
391.139	1	9
391.310	1	11
391.481	1	8
391.651	1	26
391.822	1	15
391.993	1	-5
392.164	1	8
392.334	1	13
392.505	1	11
392.676	1	6
392.847	1	28
393.017	1	10
393.188	1	10
393.359	1	15
393.530	1	22
393.700	1	10
393.871	1	8
394.042	1	16
394.213	1	16
394.383	1	7
394.554	1	6
394.725	1	7
394.896	1	15
395.066	1	0
395.237	1	7
395.408	1	16
395.579	1	6
395.749	1	9
395.920	1	15
396.091	1	14
396.262	1	4
396.432	1	10
396.603	1	21
396.774	1	9
396.945	1	3
397.115	1	15
397.286	1	12
397.457	1	11
397.627	1	15
397.798	1	10
397.969	1	7
398.140	1	22
398.310	1	20
398.481	1	6
398.652	1	9
398.823	1	14
398.993	1	32
399.164	1	20
399.335	1	14
399.505	1	13
399.676	1	12
399.847	1	11
400.018	1	19
400.188	1	13
400.359	1	33
400.530	1	14
400.700	1	15
400.871	1	31
401.042	1	15
401.213	1	21
401.383	1	30
401.554	1	16
401.725	1	15
401.895	1	19
402.066	1	26
402.237	1	16
402.408	1	23
402.578	1	13
402.749	1	24
402.920	1	37
403.090	1	12
403.261	1	18
403.432	1	22
403.603	1	17
403.773	1	26
403.944	1	24
404.115	1	28
404.285	1	34
404.456	1	43
404.627	1	38
404.797	1	33
404.968	1	18
405.139	1	21
405.310	1	33
405.480	1	25
405.651	1	34
405.822	1	27
405.992	1	27
406.163	1	20
406.334	1	19
406.504	1	35
406.675	1	39
406.846	1	29
407.016	1	32
407.187	1	14
407.358	1	28
407.528	1	12
407.699	1	34
407.870	1	24
408.041	1	28
408.211	1	16
408.382	1	33
408.553	1	22
408.723	1	31
408.894	1	23
409.065	1	27
409.235	1	28
409.406	1	32
409.577	1	37
409.747	1	21
409.918	1	47
410.089	1	24
410.259	1	32
410.430	1	27
410.601	1	30
410.771	1	19
410.942	1	39
411.113	1	34
411.283	1	36
411.454	1	26
411.625	1	40
411.795	1	32
411.966	1	35
412.137	1	32
412.307	1	35
412.478	1	32
412.649	1	22
412.819	1	24
412.990	1	30
413.161	1	32
413.331	1	34
413.502	1	32
413.672	1	36
413.843	1	40
414.014	1	29
414.184	1	31
414.355	1	29
414.526	1	40
414.696	1	48
414.867	1	40
415.038	1	38
415.208	1	35
415.379	1	36
415.550	1	43
415.720	1	28
415.891	1	29
416.062	1	33
416.232	1	22
416.403	1	34
416.573	1	31
416.744	1	33
416.915	1	40
417.085	1	47
417.256	1	28
417.427	1	31
417.597	1	46
417.768	1	37
417.939	1	41
418.109	1	47
418.280	1	46
418.450	1	26
418.621	1	36
418.792	1	36
418.962	1	45
419.133	1	29
419.304	1	40
419.474	1	47
419.645	1	35
419.815	1	40
419.986	1	37
420.157	1	48
420.327	1	32
420.498	1	37
420.669	1	43
420.839	1	24
421.010	1	32
421.180	1	39
421.351	1	43
421.522	1	28
421.692	1	34
421.863	1	44
422.033	1	31
422.204	1	41
422.375	1	45
422.545	1	42
422.716	1	38
422.886	1	38
423.057	1	41
423.228	1	45
423.398	1	40
423.569	1	35
423.740	1	34
423.910	1	41
424.081	1	43
424.251	1	42
424.422	1	34
424.593	1	37
424.763	1	41
424.934	1	51
425.104	1	52
425.275	1	31
425.445	1	41
425.616	1	34
425.787	1	29
425.957	1	46
426.128	1	37
426.298	1	41
426.469	1	28
426.640	1	42
426.810	1	43
426.981	1	31
427.151	1	35
427.322	1	47
427.493	1	48
427.663	1	46
427.834	1	44
428.004	1	29
428.175	1	30
428.345	1	29
428.516	1	37
428.687	1	47
428.857	1	42
429.028	1	42
429.198	1	44
429.369	1	35
429.540	1	31
429.710	1	37
429.881	1	39
430.051	1	42
430.222	1	27
430.392	1	48
430.563	1	41
430.734	1	42
430.904	1	52
431.075	1	50
431.245	1	34
431.416	1	46
431.586	1	34
431.757	1	41
431.927	1	37
432.098	1	58
432.269	1	39
432.439	1	50
432.610	1	35
432.780	1	46
432.951	1	35
433.121	1	39
433.292	1	39
433.462	1	27
433.633	1	36
433.804	1	38
433.974	1	33
434.145	1	36
434.315	1	51
434.486	1	44
434.656	1	51
434.827	1	38
434.997	1	44
435.168	1	40
435.339	1	35
435.509	1	43
435.680	1	39
435.850	1	40
436.021	1	49
436.191	1	49
436.362	1	30
436.532	1	51
436.703	1	37
436.873	1	37
437.044	1	33
437.214	1	34
437.385	1	44
437.556	1	38
437.726	1	44
437.897	1	34
438.067	1	29
438.238	1	35
438.408	1	36
438.579	1	37
438.749	1	29
438.920	1	35
439.090	1	47
439.261	1	45
439.431	1	51
439.602	1	44
439.772	1	45
439.943	1	27
440.113	1	43
440.284	1	33
440.455	1	43
440.625	1	35
440.796	1	37
440.966	1	53
441.137	1	49
441.307	1	38
441.478	1	42
441.648	1	33
441.819	1	37
441.989	1	38
442.160	1	34
442.330	1	20
442.501	1	33
442.671	1	40
442.842	1	37
443.012	1	25
443.183	1	38
443.353	1	40
443.524	1	33
443.694	1	46
443.865	1	33
444.035	1	35
444.206	1	31
444.376	1	43
444.547	1	30
444.717	1	37
444.888	1	32
445.058	1	49
445.229	1	39
445.399	1	39
445.570	1	45
445.740	1	33
445.911	1	38
446.081	1	31
446.252	1	29
446.422	1	43
446.593	1	31
446.763	1	37
446.934	1	32
447.104	1	27
447.275	1	34
447.445	1	48
447.616	1	43
447.786	1	41
447.957	1	45
448.127	1	30
448.298	1	29
448.468	1	45
448.639	1	38
448.809	1	35
448.979	1	33
449.150	1	28
449.320	1	47
449.491	1	50
449.661	1	40
449.832	1	38
450.002	1	34
450.173	1	38
450.343	1	33
450.514	1	35
450.684	1	38
450.855	1	36
451.025	1	43
451.196	1	45
451.366	1	31
451.537	1	32
451.707	1	36
451.878	1	32
452.048	1	36
452.218	1	38
452.389	1	40
452.559	1	17
452.730	1	38
452.900	1	48
453.071	1	37
453.241	1	27
453.412	1	42
453.582	1	34
453.753	1	26
453.923	1	43
454.093	1	41
454.264	1	37
454.434	1	42
454.605	1	25
454.775	1	30
454.946	1	40
455.116	1	25
455.287	1	42
455.457	1	32
455.628	1	35
455.798	1	30
455.968	1	34
456.139	1	28
456.309	1	33
456.480	1	43
456.650	1	28
456.821	1	31
456.991	1	18
457.161	1	38
457.332	1	34
457.502	1	31
457.673	1	40
457.843	1	35
458.014	1	29
458.184	1	36
458.355	1	19
458.525	1	27
458.695	1	25
458.866	1	31
459.036	1	20
459.207	1	29
459.377	1	36
459.548	1	34
459.718	1	27
459.888	1	35
460.059	1	31
460.229	1	23
460.400	1	16
460.570	1	29
460.740	1	27
460.911	1	27
461.081	1	33
461.252	1	28
461.422	1	33
461.593	1	24
461.763	1	39
461.933	1	40
462.104	1	29
462.274	1	27
462.445	1	34
462.615	1	20
462.785	1	28
462.956	1	16
463.126	1	25
463.297	1	27
463.467	1	49
463.638	1	11
463.808	1	33
463.978	1	30
464.149	1	24
464.319	1	21
464.490	1	31
464.660	1	19
464.830	1	37
465.001	1	26
465.171	1	28
465.342	1	26
465.512	1	20
465.682	1	26
465.853	1	30
466.023	1	26
466.194	1	18
466.364	1	17
466.534	1	30
466.705	1	21
466.875	1	32
467.045	1	17
467.216	1	10
467.386	1	22
467.557	1	20
467.727	1	29
467.897	1	25
468.068	1	26
468.238	1	20
468.409	1	24
468.579	1	28
468.749	1	36
468.920	1	25
469.090	1	9
469.260	1	20
469.431	1	24
469.601	1	35
469.772	1	22
469.942	1	23
470.112	1	32
470.283	1	21
470.453	1	32
470.623	1	23
470.794	1	20
470.964	1	38
471.135	1	28
471.305	1	20
471.475	1	41
471.646	1	23
471.816	1	27
471.986	1	23
472.157	1	21
472.327	1	32
472.497	1	19
472.668	1	18
472.838	1	22
473.009	1	16
473.179	1	33
473.349	1	6
473.520	1	8
473.690	1	25
473.860	1	21
474.031	1	12
474.201	1	21
474.371	1	24
474.542	1	22
474.712	1	29
474.882	1	16
475.053	1	16
475.223	1	15
475.394	1	12
475.564	1	7
475.734	1	24
475.905	1	17
476.075	1	32
476.245	1	23
476.416	1	21
476.586	1	6
476.756	1	26
476.927	1	23
477.097	1	19
477.267	1	16
477.438	1	13
477.608	1	16
477.778	1	21
477.949	1	28
478.119	1	11
478.289	1	14
478.460	1	20
478.630	1	19
478.800	1	13
478.971	1	13
479.141	1	12
479.311	1	25
479.482	1	9
479.652	1	16
479.822	1	15
479.993	1	10
480.163	1	12
480.333	1	12
480.504	1	14
480.674	1	14
480.844	1	10
481.015	1	20
481.185	1	16
481.355	1	9
481.525	1	22
481.696	1	16
481.866	1	12
482.036	1	5
482.207	1	4
482.377	1	11
482.547	1	2
482.718	1	13
482.888	1	18
483.058	1	14
483.229	1	18
483.399	1	22
483.569	1	11
483.740	1	2
483.910	1	8
484.080	1	20
484.250	1	14
484.421	1	21
484.591	1	31
484.761	1	17
484.932	1	23
485.102	1	28
485.272	1	12
485.443	1	9
485.613	1	25
485.783	1	12
485.953	1	25
486.124	1	4
486.294	1	17
486.464	1	4
486.635	1	5
486.805	1	9
486.975	1	14
487.146	1	15
487.316	1	6
487.486	1	9
487.656	1	15
487.827	1	6
487.997	1	20
488.167	1	4
488.338	1	15
488.508	1	14
488.678	1	6
488.848	1	15
489.019	1	11
489.189	1	11
489.359	1	12
489.529	1	10
489.700	1	7
489.870	1	-5
490.040	1	9
490.211	1	15
490.381	1	17
490.551	1	14
490.721	1	20
490.892	1	11
491.062	1	10
491.232	1	11
491.402	1	10
491.573	1	16
491.743	1	-5
491.913	1	19
492.084	1	16
492.254	1	14
492.424	1	5
492.594	1	10
492.765	1	14
492.935	1	5
493.105	1	4
493.275	1	22
493.446	1	8
493.616	1	2
493.786	1	9
493.956	1	6
494.127	1	17
494.297	1	10
494.467	1	14
494.637	1	11
494.808	1	13
494.978	1	12
495.148	1	11
495.318	1	3
495.489	1	6
495.659	1	17
495.829	1	5
495.999	1	22
496.170	1	3
496.340	1	16
496.510	1	13
496.680	1	8
496.851	1	8
497.021	1	9
497.191	1	9
497.361	1	11
497.532	1	12
497.702	1	5
497.872	1	15
498.042	1	15
498.213	1	6
498.383	1	-3
498.553	1	10
498.723	1	10
498.894	1	14
499.064	1	17
499.234	1	8
499.404	1	13
499.574	1	13
499.745	1	2
499.915	1	7
500.085	1	7
500.255	1	0
500.426	1	-1
500.596	1	17
500.766	1	6
500.936	1	3
501.106	1	15
501.277	1	10
501.447	1	5
501.617	1	7
501.787	1	2
501.958	1	12
502.128	1	6
502.298	1	9
502.468	1	15
502.638	1	3
502.809	1	15
502.979	1	3
503.149	1	17
503.319	1	7
503.489	1	9
503.660	1	-1
503.830	1	14
504.000	1	8
504.170	1	10
504.340	1	11
504.511	1	10
504.681	1	7
504.851	1	10
505.021	1	18
505.192	1	10
505.362	1	14
505.532	1	17
505.702	1	7
505.872	1	3
506.043	1	7
506.213	1	8
506.383	1	7
506.553	1	15
506.723	1	2
506.893	1	-2
507.064	1	15
507.234	1	11
507.404	1	-2
507.574	1	11
507.744	1	7
507.915	1	19
508.085	1	13
508.255	1	20
508.425	1	4
508.595	1	15
508.766	1	10
508.936	1	5
509.106	1	8
509.276	1	5
509.446	1	-6
509.616	1	2
509.787	1	15
509.957	1	6
510.127	1	6
510.297	1	7
510.467	1	12
510.638	1	11
510.808	1	5
510.978	1	9
511.148	1	10
511.318	1	3
511.488	1	15
511.659	1	9
511.829	1	10
511.999	1	13
512.169	1	11
512.339	1	4
512.509	1	11
512.680	1	3
512.850	1	14
513.020	1	6
513.190	1	15
513.360	1	5
513.530	1	2
513.700	1	7
513.871	1	9
514.041	1	-5
514.211	1	8
514.381	1	7
514.551	1	-3
514.721	1	9
514.892	1	15
515.062	1	14
515.232	1	5
515.402	1	12
515.572	1	2
515.742	1	12
515.912	1	9
516.083	1	14
516.253	1	-3
516.423	1	0
516.593	1	8
516.763	1	12
516.933	1	-1
517.104	1	9
517.274	1	-2
517.444	1	12
517.614	1	-5
517.784	1	2
517.954	1	-8
518.124	1	8
518.294	1	-2
518.465	1	-5
518.635	1	9
518.805	1	7
518.975	1	-10
519.145	1	12
519.315	1	8
519.485	1	1
519.656	1	8
519.826	1	1
519.996	1	-6
520.166	1	11
520.336	1	13
520.506	1	1
520.676	1	2
520.846	1	4
521.017	1	22
521.187	1	12
521.357	1	9
521.527	1	8
521.697	1	6
521.867	1	7
522.037	1	-8
522.207	1	13
522.377	1	7
522.548	1	4
522.718	1	3
522.888	1	11
523.058	1	9
523.228	1	10
523.398	1	-1
523.568	1	1
523.738	1	10
523.909	1	11
524.079	1	19
524.249	1	11
524.419	1	3
524.589	1	4
524.759	1	6
524.929	1	14
525.099	1	2
525.269	1	6
525.439	1	3
525.610	1	18
525.780	1	-6
525.950	1	14
526.120	1	4
526.290	1	14
526.460	1	-1
526.630	1	5
526.800	1	9
526.970	1	6
527.140	1	-2
527.311	1	7
527.481	1	-5
527.651	1	8
527.821	1	2
527.991	1	3
528.161	1	8
528.331	1	9
528.501	1	-6
528.671	1	5
528.841	1	-10
529.011	1	9
529.181	1	10
529.352	1	5
529.522	1	12
529.692	1	11
529.862	1	-1
530.032	1	4
530.202	1	-1
530.372	1	6
530.542	1	7
530.712	1	-4
530.882	1	-8
531.052	1	7
531.222	1	13
531.392	1	9
531.563	1	7
531.733	1	-6
531.903	1	8
532.073	1	5
532.243	1	5
532.413	1	3
532.583	1	13
532.753	1	15
532.923	1	-6
533.093	1	13
533.263	1	4
533.433	1	9
533.603	1	9
533.773	1	6
533.943	1	19
534.113	1	9
534.284	1	13
534.454	1	8
534.624	1	7
534.794	1	6
534.964	1	11
535.134	1	4
535.304	1	2
535.474	1	-4
535.644	1	-9
535.814	1	2
535.984	1	17
536.154	1	7
536.324	1	6
536.494	1	-4
536.664	1	17
536.834	1	8
537.004	1	8
537.174	1	3
537.344	1	9
537.514	1	-5
537.685	1	0
537.855	1	3
538.025	1	10
538.195	1	-1
538.365	1	1
538.535	1	1
538.705	1	6
538.875	1	3
539.045	1	-5
539.215	1	5
539.385	1	6
539.555	1	9
539.725	1	0
539.895	1	2
540.065	1	6
540.235	1	-1
540.405	1	3
540.575	1	9
540.745	1	-2
540.915	1	2
541.085	1	11
541.255	1	4
541.425	1	9
541.595	1	9
541.765	1	3
541.935	1	-5
542.105	1	3
542.275	1	3
542.445	1	-1
542.615	1	12
542.785	1	10
542.955	1	19
543.125	1	-9
543.295	1	-10
543.465	1	8
543.635	1	6
543.805	1	10
543.975	1	2
544.145	1	5
544.315	1	4
544.485	1	16
544.655	1	13
544.825	1	12
544.995	1	14
545.165	1	2
545.335	1	3
545.505	1	5
545.675	1	17
545.845	1	5
546.015	1	2
546.185	1	11
546.355	1	13
546.525	1	14
546.695	1	8
546.865	1	5
547.035	1	4
547.205	1	15
547.375	1	-1
547.545	1	7
547.715	1	4
547.885	1	-7
548.055	1	8
548.225	1	19
548.395	1	2
548.565	1	13
548.735	1	5
548.905	1	14
549.075	1	4
549.245	1	-3
549.415	1	4
549.585	1	7
549.755	1	-1
549.925	1	11
550.095	1	0
550.265	1	0
550.435	1	-1
550.605	1	9
550.775	1	13
550.945	1	7
551.115	1	6
551.285	1	5
551.455	1	3
551.625	1	8
551.795	1	-11
551.965	1	3
552.135	1	-1
552.305	1	4
552.475	1	19
552.645	1	21
552.815	1	4
552.985	1	10
553.155	1	15
553.325	1	5
553.495	1	1
553.665	1	8
553.835	1	9
554.004	1	-2
554.174	1	-5
554.344	1	8
554.514	1	3
554.684	1	-8
554.854	1	3
555.024	1	7
555.194	1	9
555.364	1	1
555.534	1	15
555.704	1	10
555.874	1	-1
556.044	1	4
556.214	1	5
556.384	1	5
556.554	1	4
556.724	1	4
556.894	1	2
557.064	1	11
557.234	1	9
557.404	1	4
557.573	1	9
557.743	1	5
557.913	1	8
558.083	1	2
558.253	1	7
558.423	1	2
558.593	1	3
558.763	1	21
558.933	1	9
559.103	1	11
559.273	1	-2
559.443	1	-3
559.613	1	1
559.783	1	13
559.953	1	-7
560.122	1	7
560.292	1	-9
560.462	1	13
560.632	1	7
560.802	1	12
560.972	1	5
561.142	1	5
561.312	1	8
561.482	1	-6
561.652	1	2
561.822	1	9
561.992	1	5
562.162	1	3
562.331	1	19
562.501	1	2
562.671	1	9
562.841	1	-6
563.011	1	15
563.181	1	2
563.351	1	16
563.521	1	4
563.691	1	6
563.861	1	10
564.031	1	3
564.201	1	6
564.370	1	12
564.540	1	14
564.710	1	-3
564.880	1	15
565.050	1	0
565.220	1	5
565.390	1	7
565.560	1	5
565.730	1	3
565.900	1	5
566.069	1	-10
566.239	1	1
566.409	1	8
566.579	1	-4
566.749	1	0
566.919	1	10
567.089	1	3
567.259	1	7
567.429	1	16
567.599	1	12
567.768	1	6
567.938	1	3
568.108	1	-1
568.278	1	16
568.448	1	-1
568.618	1	8
568.788	1	-6
568.958	1	0
569.128	1	3
569.297	1	11
569.467	1	7
569.637	1	-6
569.807	1	18
569.977	1	-3
570.147	1	7
570.317	1	13
570.487	1	5
570.656	1	-5
570.826	1	0
570.996	1	1
571.166	1	3
571.336	1	-3
571.506	1	6
571.676	1	-2
571.846	1	8
572.015	1	-6
572.185	1	-1
572.355	1	4
572.525	1	1
572.695	1	4
572.865	1	11
573.035	1	1
573.205	1	12
573.374	1	1
573.544	1	0
573.714	1	5
573.884	1	-3
574.054	1	19
574.224	1	4
574.394	1	-4
574.563	1	-1
574.733	1	5
574.903	1	3
575.073	1	-6
575.243	1	10
575.413	1	-5
575.583	1	15
575.752	1	6
575.922	1	4
576.092	1	5
576.262	1	-9
576.432	1	3
576.602	1	2
576.772	1	6
576.941	1	-8
577.111	1	13
577.281	1	10
577.451	1	3
577.621	1	9
577.791	1	5
577.960	1	1
578.130	1	6
578.300	1	0
578.470	1	-1
578.640	1	10
578.810	1	0
578.979	1	6
579.149	1	11
579.319	1	-5
579.489	1	2
579.659	1	1
579.829	1	-1
579.998	1	-9
580.168	1	-2
580.338	1	13
580.508	1	13
580.678	1	-2
580.848	1	7
581.017	1	9
581.187	1	8
581.357	1	0
581.527	1	6
581.697	1	-4
581.867	1	12
582.036	1	2
582.206	1	-3
582.376	1	8
582.546	1	6
582.716	1	6
582.885	1	13
583.055	1	10
583.225	1	-4
583.395	1	3
583.565	1	-3
583.735	1	-3
583.904	1	4
584.074	1	13
584.244	1	-4
584.414	1	8
584.584	1	8
584.753	1	-11
584.923	1	0
585.093	1	18
585.263	1	2
585.433	1	2
585.602	1	8
585.772	1	7
585.942	1	3
586.112	1	-2
586.282	1	16
586.451	1	12
586.621	1	9
586.791	1	3
586.961	1	0
587.131	1	11
587.300	1	6
587.470	1	1
587.640	1	-1
587.810	1	8
587.980	1	1
588.149	1	15
588.319	1	11
588.489	1	0
588.659	1	5
588.829	1	19
588.998	1	8
589.168	1	7
589.338	1	7
589.508	1	0
589.677	1	9
589.847	1	-9
590.017	1	8
590.187	1	3
590.357	1	5
590.526	1	3
590.696	1	1
590.866	1	-7
591.036	1	15
591.205	1	10
591.375	1	-3
591.545	1	12
591.715	1	-11
591.885	1	0
592.054	1	1
592.224	1	8
592.394	1	11
592.564	1	11
592.733	1	3
592.903	1	5
593.073	1	15
593.243	1	5
593.412	1	5
593.582	1	4
593.752	1	11
593.922	1	19
594.091	1	0
594.261	1	-3
594.431	1	-7
594.601	1	5
594.771	1	2
594.940	1	12
595.110	1	9
595.280	1	18
595.450	1	18
595.619	1	7
595.789	1	12
595.959	1	9
596.129	1	17
596.298	1	7
596.468	1	4
596.638	1	10
596.808	1	11
596.977	1	12
597.147	1	6
597.317	1	15
597.487	1	-2
597.656	1	-14
597.826	1	5
597.996	1	9
598.166	1	13
598.335	1	5
598.505	1	20
598.675	1	7
598.844	1	7
599.014	1	0
599.184	1	4
599.354	1	19
599.523	1	5
599.693	1	6
599.863	1	3
600.033	1	6
600.202	1	9
600.372	1	14
600.542	1	16
600.712	1	7
600.881	1	10
601.051	1	12
601.221	1	9
601.390	1	2
601.560	1	5
601.730	1	4
601.900	1	8
602.069	1	3
602.239	1	-1
602.409	1	14
602.578	1	9
602.748	1	-1
602.918	1	10
603.088	1	11
603.257	1	13
603.427	1	9
603.597	1	6
603.767	1	17
603.936	1	10
604.106	1	12
604.276	1	6
604.445	1	7
604.615	1	11
604.785	1	18
604.954	1	9
605.124	1	23
605.294	1	11
605.464	1	7
605.633	1	-2
605.803	1	13
605.973	1	11
606.142	1	21
606.312	1	12
606.482	1	7
606.652	1	15
606.821	1	13
606.991	1	7
607.161	1	12
607.330	1	20
607.500	1	16
607.670	1	17
607.839	1	11
608.009	1	12
608.179	1	14
608.348	1	9
608.518	1	15
608.688	1	2
608.858	1	12
609.027	1	16
609.197	1	6
609.367	1	7
609.536	1	18
609.706	1	20
609.876	1	20
610.045	1	17
610.215	1	29
610.385	1	13
610.554	1	16
610.724	1	5
610.894	1	24
611.063	1	9
611.233	1	6
611.403	1	23
611.572	1	17
611.742	1	15
611.912	1	20
612.081	1	19
612.251	1	22
612.421	1	18
612.590	1	-4
612.760	1	19
612.930	1	3
613.099	1	14
613.269	1	13
613.439	1	25
613.608	1	11
613.778	1	25
613.948	1	10
614.117	1	15
614.287	1	1
614.457	1	12
614.626	1	21
614.796	1	3
614.966	1	16
615.135	1	22
615.305	1	23
615.475	1	20
615.644	1	19
615.814	1	6
615.984	1	20
616.153	1	15
616.323	1	6
616.493	1	5
616.662	1	12
616.832	1	16
617.002	1	14
617.171	1	16
617.341	1	14
617.511	1	23
617.680	1	5
617.850	1	28
618.019	1	22
618.189	1	20
618.359	1	10
618.528	1	23
618.698	1	23
618.868	1	14
619.037	1	28
619.207	1	17
619.377	1	17
619.546	1	14
619.716	1	14
619.885	1	27
620.055	1	11
620.225	1	20
620.394	1	26
620.564	1	25
620.734	1	14
620.903	1	31
621.073	1	18
621.242	1	24
621.412	1	15
621.582	1	19
621.751	1	13
621.921	1	15
622.091	1	18
622.260	1	10
622.430	1	12
622.599	1	13
622.769	1	17
622.939	1	10
623.108	1	16
623.278	1	17
623.448	1	15
623.617	1	19
623.787	1	26
623.956	1	13
624.126	1	21
624.296	1	8
624.465	1	16
624.635	1	5
624.804	1	24
624.974	1	19
625.144	1	19
625.313	1	10
625.483	1	24
625.652	1	12
625.822	1	19
625.992	1	21
626.161	1	17
626.331	1	30
626.501	1	15
626.670	1	25
626.840	1	14
627.009	1	35
627.179	1	44
627.348	1	19
627.518	1	18
627.688	1	22
627.857	1	18
628.027	1	19
628.196	1	20
628.366	1	37
628.536	1	18
628.705	1	30
628.875	1	24
629.044	1	5
629.214	1	11
629.384	1	19
629.553	1	21
629.723	1	21
629.892	1	31
630.062	1	15
630.232	1	20
630.401	1	38
630.571	1	15
630.740	1	32
630.910	1	26
631.079	1	28
631.249	1	12
631.419	1	25
631.588	1	17
631.758	1	22
631.927	1	26
632.097	1	9
632.266	1	11
632.436	1	32
632.606	1	16
632.775	1	25
632.945	1	15
633.114	1	22
633.284	1	21
633.453	1	23
633.623	1	13
633.793	1	29
633.962	1	23
634.132	1	19
634.301	1	22
634.471	1	20
634.640	1	13
634.810	1	30
634.979	1	24
635.149	1	17
635.319	1	23
635.488	1	26
635.658	1	17
635.827	1	16
635.997	1	34
636.166	1	16
636.336	1	30
636.505	1	28
636.675	1	30
636.845	1	29
637.014	1	26
637.184	1	24
637.353	1	30
637.523	1	24
637.692	1	28
637.862	1	28
638.031	1	33
638.201	1	28
638.370	1	23
638.540	1	28
638.710	1	23
638.879	1	26
639.049	1	28
639.218	1	30
639.388	1	28
639.557	1	24
639.727	1	33
639.896	1	30
640.066	1	24
640.235	1	14
640.405	1	35
640.574	1	30
640.744	1	19
640.914	1	26
641.083	1	27
641.253	1	21
641.422	1	38
641.592	1	7
641.761	1	24
641.931	1	26
642.100	1	29
642.270	1	24
642.439	1	32
642.609	1	32
642.778	1	24
642.948	1	20
643.117	1	25
643.287	1	24
643.456	1	20
643.626	1	32
643.795	1	27
643.965	1	22
644.134	1	35
644.304	1	17
644.473	1	27
644.643	1	14
644.812	1	16
644.982	1	19
645.151	1	19
645.321	1	27
645.490	1	27
645.660	1	29
645.829	1	25
645.999	1	34
646.168	1	28
646.338	1	16
646.507	1	26
646.677	1	22
646.846	1	20
647.016	1	27
647.185	1	17
647.355	1	20
647.524	1	19
647.694	1	25
647.863	1	18
648.033	1	21
648.202	1	24
648.372	1	26
648.541	1	29
648.711	1	23
648.880	1	24
649.050	1	14
649.219	1	26
649.389	1	27
649.558	1	31
649.728	1	32
649.897	1	32
650.067	1	27
650.236	1	28
650.406	1	29
650.575	1	23
650.745	1	19
650.914	1	32
651.084	1	18
651.253	1	29
651.423	1	29
651.592	1	23
651.762	1	29
651.931	1	24
652.101	1	20
652.270	1	21
652.440	1	22
652.609	1	22
652.778	1	29
652.948	1	32
653.117	1	17
653.287	1	23
653.456	1	25
653.626	1	27
653.795	1	26
653.965	1	41
654.134	1	28
654.304	1	26
654.473	1	26
654.643	1	26
654.812	1	32
654.982	1	29
655.151	1	28
655.320	1	27
655.490	1	14
655.659	1	34
655.829	1	21
655.998	1	14
656.168	1	14
656.337	1	18
656.507	1	19
656.676	1	27
656.846	1	24
657.015	1	30
657.184	1	13
657.354	1	14
657.523	1	24
657.693	1	18
657.862	1	16
658.032	1	34
658.201	1	21
658.371	1	26
658.540	1	27
658.709	1	18
658.879	1	27
659.048	1	22
659.218	1	15
659.387	1	11
659.557	1	28
659.726	1	12
659.895	1	23
660.065	1	22
660.234	1	16
660.404	1	24
660.573	1	20
660.743	1	4
660.912	1	16
661.081	1	18
661.251	1	26
661.420	1	15
661.590	1	19
661.759	1	10
661.929	1	16
662.098	1	26
662.267	1	13
662.437	1	12
662.606	1	9
662.776	1	13
662.945	1	12
663.115	1	23
663.284	1	14
663.453	1	15
663.623	1	18
663.792	1	-1
663.962	1	12
664.131	1	16
664.300	1	11
664.470	1	19
664.639	1	16
664.809	1	21
664.978	1	12
665.148	1	18
665.317	1	15
665.486	1	11
665.656	1	26
665.825	1	27
665.995	1	1
666.164	1	7
666.333	1	17
666.503	1	15
666.672	1	5
666.842	1	17
667.011	1	23
667.180	1	12
667.350	1	13
667.519	1	16
667.689	1	9
667.858	1	12
668.027	1	7
668.197	1	20
668.366	1	3
668.536	1	18
668.705	1	10
668.874	1	17
669.044	1	11
669.213	1	16
669.382	1	8
669.552	1	5
669.721	1	10
669.891	1	25
670.060	1	16
670.229	1	18
670.399	1	23
670.568	1	12
670.738	1	3
670.907	1	10
671.076	1	16
671.246	1	20
671.415	1	7
671.584	1	16
671.754	1	20
671.923	1	23
672.093	1	19
672.262	1	33
672.431	1	1
672.601	1	18
672.770	1	16
672.939	1	6
673.109	1	9
673.278	1	13
673.448	1	19
673.617	1	14
673.786	1	3
