325.333	1	159
325.504	1	169
325.675	1	168
325.846	1	189
326.017	1	178
326.188	1	175
326.359	1	192
326.531	1	172
326.702	1	183
326.873	1	185
327.044	1	182
327.215	1	194
327.386	1	184
327.557	1	197
327.728	1	207
327.899	1	211
328.070	1	205
328.241	1	201
328.412	1	213
328.583	1	221
328.754	1	196
328.926	1	214
329.097	1	217
329.268	1	234
329.439	1	210
329.610	1	220
329.781	1	214
329.952	1	233
330.123	1	215
330.294	1	233
330.465	1	221
330.636	1	238
330.807	1	227
330.978	1	245
331.149	1	254
331.320	1	248
331.492	1	248
331.663	1	235
331.834	1	238
332.005	1	260
332.176	1	252
332.347	1	235
332.518	1	242
332.689	1	243
332.860	1	261
333.031	1	268
333.202	1	263
333.373	1	254
333.544	1	264
333.715	1	265
333.886	1	259
334.057	1	273
334.228	1	268
334.399	1	264
334.570	1	252
334.741	1	286
334.912	1	274
335.084	1	286
335.255	1	280
335.426	1	277
335.597	1	280
335.768	1	271
335.939	1	277
336.110	1	273
336.281	1	268
336.452	1	283
336.623	1	283
336.794	1	281
336.965	1	275
337.136	1	278
337.307	1	289
337.478	1	292
337.649	1	290
337.820	1	300
337.991	1	296
338.162	1	291
338.333	1	283
338.504	1	297
338.675	1	276
338.846	1	300
339.017	1	294
339.188	1	293
339.359	1	290
339.530	1	301
339.701	1	293
339.872	1	291
340.043	1	294
340.214	1	290
340.385	1	281
340.556	1	302
340.727	1	290
340.898	1	298
341.069	1	280
341.240	1	288
341.411	1	307
341.582	1	290
341.753	1	275
341.924	1	292
342.095	1	273
342.266	1	286
342.437	1	286
342.608	1	282
342.779	1	291
342.950	1	305
343.121	1	291
343.292	1	291
343.463	1	296
343.634	1	295
343.805	1	294
343.976	1	293
344.147	1	299
344.318	1	289
344.489	1	298
344.660	1	282
344.831	1	294
345.002	1	294
345.173	1	293
345.344	1	271
345.515	1	281
345.686	1	278
345.857	1	287
346.028	1	290
346.199	1	268
346.370	1	289
346.541	1	281
346.712	1	279
346.883	1	263
347.054	1	277
347.225	1	255
347.396	1	264
347.567	1	271
347.738	1	269
347.909	1	273
348.080	1	271
348.251	1	262
348.422	1	261
348.593	1	271
348.764	1	268
348.935	1	251
349.106	1	261
349.277	1	253
349.448	1	251
349.619	1	252
349.790	1	270
349.961	1	247
350.132	1	258
350.303	1	248
350.474	1	241
350.645	1	254
350.816	1	244
350.987	1	247
351.157	1	222
351.328	1	234
351.499	1	241
351.670	1	242
351.841	1	242
352.012	1	229
352.183	1	234
352.354	1	251
352.525	1	231
352.696	1	224
352.867	1	218
353.038	1	247
353.209	1	218
353.380	1	222
353.551	1	217
353.722	1	211
353.893	1	231
354.064	1	209
354.235	1	224
354.406	1	210
354.576	1	208
354.747	1	214
354.918	1	208
355.089	1	202
355.260	1	203
355.431	1	202
355.602	1	204
355.773	1	192
355.944	1	194
356.115	1	184
356.286	1	188
356.457	1	193
356.628	1	191
356.799	1	198
356.970	1	176
357.141	1	179
357.311	1	204
357.482	1	196
357.653	1	171
357.824	1	184
357.995	1	167
358.166	1	176
358.337	1	156
358.508	1	170
358.679	1	151
358.850	1	185
359.021	1	166
359.192	1	160
359.363	1	158
359.533	1	176
359.704	1	150
359.875	1	154
360.046	1	160
360.217	1	143
360.388	1	163
360.559	1	152
360.730	1	161
360.901	1	157
361.072	1	152
361.243	1	142
361.414	1	143
361.584	1	149
361.755	1	133
361.926	1	129
362.097	1	146
362.268	1	134
362.439	1	132
362.610	1	140
362.781	1	132
362.952	1	125
363.123	1	131
363.293	1	137
363.464	1	130
363.635	1	129
363.806	1	126
363.977	1	120
364.148	1	121
364.319	1	113
364.490	1	113
364.661	1	111
364.832	1	121
365.002	1	105
365.173	1	110
365.344	1	119
365.515	1	108
365.686	1	97
365.857	1	118
366.028	1	107
366.199	1	119
366.370	1	118
366.540	1	114
366.711	1	102
366.882	1	103
367.053	1	103
367.224	1	107
367.395	1	105
367.566	1	118
367.737	1	104
367.908	1	97
368.078	1	94
368.249	1	98
368.420	1	98
368.591	1	103
368.762	1	90
368.933	1	90
369.104	1	98
369.274	1	97
369.445	1	97
369.616	1	88
369.787	1	93
369.958	1	80
370.129	1	93
370.300	1	84
370.471	1	83
370.641	1	82
370.812	1	92
370.983	1	88
371.154	1	95
371.325	1	85
371.496	1	86
371.667	1	80
371.837	1	75
372.008	1	74
372.179	1	81
372.350	1	77
372.521	1	97
372.692	1	72
372.863	1	78
373.033	1	87
373.204	1	70
373.375	1	82
373.546	1	89
373.717	1	68
373.888	1	76
374.059	1	78
374.229	1	77
374.400	1	82
374.571	1	79
374.742	1	74
374.913	1	75
375.084	1	81
375.254	1	81
375.425	1	79
375.596	1	84
375.767	1	83
375.938	1	80
376.109	1	74
376.279	1	72
376.450	1	69
376.621	1	70
376.792	1	73
376.963	1	93
377.134	1	87
377.304	1	85
377.475	1	76
377.646	1	86
377.817	1	76
377.988	1	90
378.159	1	82
378.329	1	96
378.500	1	75
378.671	1	84
378.842	1	86
379.013	1	89
379.184	1	92
379.354	1	109
379.525	1	92
379.696	1	98
379.867	1	85
380.038	1	93
380.209	1	81
380.379	1	89
380.550	1	105
380.721	1	97
380.892	1	89
381.063	1	98
381.233	1	99
381.404	1	99
381.575	1	91
381.746	1	103
381.917	1	117
382.087	1	103
382.258	1	93
382.429	1	106
382.600	1	98
382.771	1	99
382.941	1	114
383.112	1	118
383.283	1	103
383.454	1	117
383.625	1	100
383.795	1	106
383.966	1	100
384.137	1	117
384.308	1	127
384.479	1	117
384.649	1	113
384.820	1	121
384.991	1	100
385.162	1	107
385.333	1	116
385.503	1	124
385.674	1	130
385.845	1	116
386.016	1	123
386.187	1	113
386.357	1	141
386.528	1	139
386.699	1	129
386.870	1	144
387.041	1	130
387.211	1	116
387.382	1	135
387.553	1	146
387.724	1	153
387.894	1	144
388.065	1	137
388.236	1	146
388.407	1	145
388.578	1	144
388.748	1	139
388.919	1	135
389.090	1	143
389.261	1	153
389.431	1	138
389.602	1	167
389.773	1	162
389.944	1	163
390.114	1	167
390.285	1	161
390.456	1	178
390.627	1	174
390.798	1	178
390.968	1	177
391.139	1	188
391.310	1	189
391.481	1	176
391.651	1	176
391.822	1	183
391.993	1	158
392.164	1	183
392.334	1	186
392.505	1	184
392.676	1	192
392.847	1	199
393.017	1	197
393.188	1	168
393.359	1	187
393.530	1	208
393.700	1	207
393.871	1	199
394.042	1	200
394.213	1	213
394.383	1	213
394.554	1	195
394.725	1	203
394.896	1	222
395.066	1	206
395.237	1	209
395.408	1	218
395.579	1	209
395.749	1	238
395.920	1	217
396.091	1	230
396.262	1	235
396.432	1	234
396.603	1	228
396.774	1	241
396.945	1	232
397.115	1	241
397.286	1	243
397.457	1	230
397.627	1	250
397.798	1	255
397.969	1	239
398.140	1	269
398.310	1	256
398.481	1	245
398.652	1	256
398.823	1	265
398.993	1	270
399.164	1	276
399.335	1	254
399.505	1	269
399.676	1	277
399.847	1	270
400.018	1	270
400.188	1	287
400.359	1	288
400.530	1	271
400.700	1	294
400.871	1	287
401.042	1	303
401.213	1	291
401.383	1	305
401.554	1	304
401.725	1	310
401.895	1	316
402.066	1	309
402.237	1	315
402.408	1	306
402.578	1	316
402.749	1	330
402.920	1	336
403.090	1	323
403.261	1	297
403.432	1	324
403.603	1	326
403.773	1	341
403.944	1	337
404.115	1	335
404.285	1	345
404.456	1	350
404.627	1	362
404.797	1	338
404.968	1	337
405.139	1	354
405.310	1	353
405.480	1	356
405.651	1	369
405.822	1	357
405.992	1	359
406.163	1	360
406.334	1	366
406.504	1	363
406.675	1	369
406.846	1	380
407.016	1	371
407.187	1	342
407.358	1	387
407.528	1	371
407.699	1	397
407.870	1	370
408.041	1	386
408.211	1	393
408.382	1	394
408.553	1	395
408.723	1	413
408.894	1	394
409.065	1	385
409.235	1	404
409.406	1	414
409.577	1	422
409.747	1	410
409.918	1	441
410.089	1	437
410.259	1	414
410.430	1	418
410.601	1	430
410.771	1	413
410.942	1	417
411.113	1	432
411.283	1	448
411.454	1	427
411.625	1	434
411.795	1	434
411.966	1	435
412.137	1	441
412.307	1	432
412.478	1	443
412.649	1	434
412.819	1	425
412.990	1	438
413.161	1	457
413.331	1	444
413.502	1	452
413.672	1	443
413.843	1	454
414.014	1	455
414.184	1	471
414.355	1	462
414.526	1	478
414.696	1	455
414.867	1	467
415.038	1	466
415.208	1	462
415.379	1	474
415.550	1	484
415.720	1	464
415.891	1	481
416.062	1	483
416.232	1	462
416.403	1	500
416.573	1	472
416.744	1	472
416.915	1	488
417.085	1	511
417.256	1	479
417.427	1	502
417.597	1	502
417.768	1	491
417.939	1	488
418.109	1	476
418.280	1	492
418.450	1	491
418.621	1	500
418.792	1	475
418.962	1	490
419.133	1	490
419.304	1	494
419.474	1	473
419.645	1	491
419.815	1	477
419.986	1	486
420.157	1	502
420.327	1	486
420.498	1	507
420.669	1	498
420.839	1	477
421.010	1	482
421.180	1	499
421.351	1	492
421.522	1	501
421.692	1	496
421.863	1	474
422.033	1	478
422.204	1	499
422.375	1	488
422.545	1	495
422.716	1	507
422.886	1	501
423.057	1	498
423.228	1	497
423.398	1	483
423.569	1	504
423.740	1	484
423.910	1	510
424.081	1	490
424.251	1	479
424.422	1	490
424.593	1	488
424.763	1	499
424.934	1	506
425.104	1	498
425.275	1	520
425.445	1	476
425.616	1	516
425.787	1	478
425.957	1	512
426.128	1	510
426.298	1	522
426.469	1	511
426.640	1	496
426.810	1	509
426.981	1	490
427.151	1	491
427.322	1	505
427.493	1	505
427.663	1	510
427.834	1	510
428.004	1	489
428.175	1	513
428.345	1	497
428.516	1	496
428.687	1	492
428.857	1	507
429.028	1	503
429.198	1	495
429.369	1	487
429.540	1	519
429.710	1	500
429.881	1	497
430.051	1	500
430.222	1	498
430.392	1	503
430.563	1	495
430.734	1	508
430.904	1	495
431.075	1	503
431.245	1	490
431.416	1	492
431.586	1	485
431.757	1	503
431.927	1	492
432.098	1	511
432.269	1	467
432.439	1	505
432.610	1	501
432.780	1	515
432.951	1	499
433.121	1	489
433.292	1	470
433.462	1	492
433.633	1	487
433.804	1	487
433.974	1	503
434.145	1	489
434.315	1	487
434.486	1	499
434.656	1	489
434.827	1	480
434.997	1	494
435.168	1	499
435.339	1	492
435.509	1	490
435.680	1	484
435.850	1	490
436.021	1	484
436.191	1	501
436.362	1	465
436.532	1	487
436.703	1	469
436.873	1	465
437.044	1	475
437.214	1	465
437.385	1	493
437.556	1	471
437.726	1	474
437.897	1	452
438.067	1	486
438.238	1	469
438.408	1	472
438.579	1	465
438.749	1	470
438.920	1	466
439.090	1	465
439.261	1	447
439.431	1	485
439.602	1	460
439.772	1	474
439.943	1	437
440.113	1	449
440.284	1	434
440.455	1	460
440.625	1	434
440.796	1	440
440.966	1	456
441.137	1	451
441.307	1	450
441.478	1	456
441.648	1	436
441.819	1	434
441.989	1	443
442.160	1	440
442.330	1	410
442.501	1	435
442.671	1	411
442.842	1	419
443.012	1	431
443.183	1	420
443.353	1	435
443.524	1	420
443.694	1	393
443.865	1	420
444.035	1	400
444.206	1	407
444.376	1	413
444.547	1	409
444.717	1	414
444.888	1	409
445.058	1	416
445.229	1	389
445.399	1	394
445.570	1	417
445.740	1	387
445.911	1	411
446.081	1	399
446.252	1	391
446.422	1	401
446.593	1	385
446.763	1	405
446.934	1	385
447.104	1	382
447.275	1	385
447.445	1	399
447.616	1	370
447.786	1	380
447.957	1	373
448.127	1	372
448.298	1	381
448.468	1	398
448.639	1	389
448.809	1	376
448.979	1	370
449.150	1	363
449.320	1	366
449.491	1	369
449.661	1	368
449.832	1	388
450.002	1	360
450.173	1	370
450.343	1	357
450.514	1	362
450.684	1	361
450.855	1	354
451.025	1	359
451.196	1	361
451.366	1	351
451.537	1	358
451.707	1	343
451.878	1	345
452.048	1	345
452.218	1	354
452.389	1	358
452.559	1	359
452.730	1	346
452.900	1	341
453.071	1	346
453.241	1	320
453.412	1	341
453.582	1	346
453.753	1	326
453.923	1	332
454.093	1	330
454.264	1	330
454.434	1	316
454.605	1	297
454.775	1	307
454.946	1	335
455.116	1	319
455.287	1	325
455.457	1	314
455.628	1	308
455.798	1	311
455.968	1	303
456.139	1	318
456.309	1	290
456.480	1	301
456.650	1	306
456.821	1	310
456.991	1	288
457.161	1	310
457.332	1	283
457.502	1	299
457.673	1	308
457.843	1	292
458.014	1	292
458.184	1	284
458.355	1	270
458.525	1	280
458.695	1	277
458.866	1	265
459.036	1	279
459.207	1	272
459.377	1	277
459.548	1	279
459.718	1	262
459.888	1	260
460.059	1	272
460.229	1	276
460.400	1	258
460.570	1	253
460.740	1	238
460.911	1	263
461.081	1	293
461.252	1	251
461.422	1	273
461.593	1	251
461.763	1	271
461.933	1	240
462.104	1	252
462.274	1	240
462.445	1	257
462.615	1	234
462.785	1	245
462.956	1	223
463.126	1	238
463.297	1	238
463.467	1	251
463.638	1	234
463.808	1	221
463.978	1	227
464.149	1	228
464.319	1	209
464.490	1	237
464.660	1	220
464.830	1	241
465.001	1	215
465.171	1	219
465.342	1	211
465.512	1	206
465.682	1	215
465.853	1	201
466.023	1	202
466.194	1	213
466.364	1	208
466.534	1	213
466.705	1	219
466.875	1	205
467.045	1	192
467.216	1	208
467.386	1	213
467.557	1	192
467.727	1	205
467.897	1	208
468.068	1	198
468.238	1	188
468.409	1	195
468.579	1	188
468.749	1	193
468.920	1	202
469.090	1	175
469.260	1	203
469.431	1	190
469.601	1	188
469.772	1	201
469.942	1	176
470.112	1	180
470.283	1	190
470.453	1	163
470.623	1	176
470.794	1	166
470.964	1	182
471.135	1	161
471.305	1	177
471.475	1	178
471.646	1	175
471.816	1	183
471.986	1	171
472.157	1	166
472.327	1	174
472.497	1	150
472.668	1	170
472.838	1	168
473.009	1	162
473.179	1	165
473.349	1	157
473.520	1	147
473.690	1	166
473.860	1	172
474.031	1	151
474.201	1	152
474.371	1	158
474.542	1	149
474.712	1	161
474.882	1	142
475.053	1	145
475.223	1	137
475.394	1	147
475.564	1	146
475.734	1	148
475.905	1	165
476.075	1	153
476.245	1	131
476.416	1	147
476.586	1	124
476.756	1	139
476.927	1	142
477.097	1	135
477.267	1	135
477.438	1	127
477.608	1	132
477.778	1	147
477.949	1	140
478.119	1	145
478.289	1	132
478.460	1	122
478.630	1	129
478.800	1	118
478.971	1	116
479.141	1	126
479.311	1	133
479.482	1	123
479.652	1	121
479.822	1	136
479.993	1	117
480.163	1	123
480.333	1	119
480.504	1	129
480.674	1	115
480.844	1	125
481.015	1	114
481.185	1	114
481.355	1	126
481.525	1	118
481.696	1	129
481.866	1	118
482.036	1	111
482.207	1	110
482.377	1	117
482.547	1	112
482.718	1	123
482.888	1	112
483.058	1	118
483.229	1	110
483.399	1	112
483.569	1	108
483.740	1	98
483.910	1	110
484.080	1	91
484.250	1	99
484.421	1	107
484.591	1	115
484.761	1	113
484.932	1	110
485.102	1	118
485.272	1	115
485.443	1	95
485.613	1	102
485.783	1	103
485.953	1	102
486.124	1	100
486.294	1	91
486.464	1	98
486.635	1	101
486.805	1	96
486.975	1	95
487.146	1	93
487.316	1	86
487.486	1	81
487.656	1	107
487.827	1	96
487.997	1	103
488.167	1	78
488.338	1	98
488.508	1	98
488.678	1	85
488.848	1	86
489.019	1	89
489.189	1	95
489.359	1	90
489.529	1	85
489.700	1	84
489.870	1	84
490.040	1	86
490.211	1	90
490.381	1	90
490.551	1	66
490.721	1	78
490.892	1	81
491.062	1	89
491.232	1	87
491.402	1	71
491.573	1	82
491.743	1	75
491.913	1	92
492.084	1	153
492.254	1	100
492.424	1	85
492.594	1	80
492.765	1	85
492.935	1	67
493.105	1	74
493.275	1	85
493.446	1	66
493.616	1	80
493.786	1	68
493.956	1	73
494.127	1	73
494.297	1	64
494.467	1	80
494.637	1	72
494.808	1	78
494.978	1	65
495.148	1	70
495.318	1	59
495.489	1	65
495.659	1	68
495.829	1	67
495.999	1	74
496.170	1	66
496.340	1	77
496.510	1	57
496.680	1	70
496.851	1	66
497.021	1	64
497.191	1	61
497.361	1	60
497.532	1	69
497.702	1	70
497.872	1	70
498.042	1	68
498.213	1	62
498.383	1	58
498.553	1	64
498.723	1	73
498.894	1	69
499.064	1	58
499.234	1	53
499.404	1	57
499.574	1	69
499.745	1	61
499.915	1	65
500.085	1	56
500.255	1	68
500.426	1	68
500.596	1	70
500.766	1	47
500.936	1	57
501.106	1	56
501.277	1	66
501.447	1	59
501.617	1	70
501.787	1	52
501.958	1	63
502.128	1	63
502.298	1	44
502.468	1	67
502.638	1	57
502.809	1	53
502.979	1	58
503.149	1	70
503.319	1	61
503.489	1	64
503.660	1	61
503.830	1	60
504.000	1	63
504.170	1	55
504.340	1	53
504.511	1	60
504.681	1	56
504.851	1	59
505.021	1	43
505.192	1	50
505.362	1	52
505.532	1	54
505.702	1	58
505.872	1	52
506.043	1	49
506.213	1	47
506.383	1	55
506.553	1	48
506.723	1	52
506.893	1	44
507.064	1	47
507.234	1	61
507.404	1	49
507.574	1	42
507.744	1	60
507.915	1	54
508.085	1	66
508.255	1	53
508.425	1	53
508.595	1	66
508.766	1	47
508.936	1	51
509.106	1	53
509.276	1	46
509.446	1	53
509.616	1	36
509.787	1	55
509.957	1	51
510.127	1	42
510.297	1	44
510.467	1	51
510.638	1	52
510.808	1	49
510.978	1	42
511.148	1	54
511.318	1	51
511.488	1	56
511.659	1	51
511.829	1	55
511.999	1	46
512.169	1	54
512.339	1	39
512.509	1	43
512.680	1	47
512.850	1	40
513.020	1	39
513.190	1	43
513.360	1	46
513.530	1	44
513.700	1	47
513.871	1	49
514.041	1	37
514.211	1	44
514.381	1	37
514.551	1	31
514.721	1	44
514.892	1	47
515.062	1	43
515.232	1	35
515.402	1	50
515.572	1	40
515.742	1	42
515.912	1	44
516.083	1	49
516.253	1	35
516.423	1	41
516.593	1	43
516.763	1	44
516.933	1	38
517.104	1	38
517.274	1	52
517.444	1	50
517.614	1	40
517.784	1	53
517.954	1	29
518.124	1	44
518.294	1	41
518.465	1	37
518.635	1	39
518.805	1	42
518.975	1	35
519.145	1	42
519.315	1	37
519.485	1	34
519.656	1	38
519.826	1	30
519.996	1	39
520.166	1	49
520.336	1	45
520.506	1	31
520.676	1	34
520.846	1	35
521.017	1	53
521.187	1	52
521.357	1	36
521.527	1	33
521.697	1	38
521.867	1	29
522.037	1	25
522.207	1	48
522.377	1	33
522.548	1	43
522.718	1	23
522.888	1	40
523.058	1	44
523.228	1	34
523.398	1	34
523.568	1	36
523.738	1	41
523.909	1	69
524.079	1	176
524.249	1	106
524.419	1	31
524.589	1	41
524.759	1	28
524.929	1	39
525.099	1	30
525.269	1	38
525.439	1	35
525.610	1	49
525.780	1	33
525.950	1	43
526.120	1	38
526.290	1	35
526.460	1	37
526.630	1	44
526.800	1	41
526.970	1	31
527.140	1	28
527.311	1	39
527.481	1	21
527.651	1	41
527.821	1	30
527.991	1	47
528.161	1	27
528.331	1	30
528.501	1	32
528.671	1	27
528.841	1	31
529.011	1	33
529.181	1	29
529.352	1	35
529.522	1	43
529.692	1	35
529.862	1	36
530.032	1	30
530.202	1	29
530.372	1	42
530.542	1	17
530.712	1	33
530.882	1	35
531.052	1	30
531.222	1	40
531.392	1	37
531.563	1	35
531.733	1	28
531.903	1	34
532.073	1	23
532.243	1	30
532.413	1	33
532.583	1	42
532.753	1	42
532.923	1	27
533.093	1	28
533.263	1	33
533.433	1	37
533.603	1	31
533.773	1	29
533.943	1	39
534.113	1	24
534.284	1	39
534.454	1	36
534.624	1	39
534.794	1	20
534.964	1	24
535.134	1	37
535.304	1	29
535.474	1	21
535.644	1	21
535.814	1	37
535.984	1	40
536.154	1	36
536.324	1	31
536.494	1	25
536.664	1	26
536.834	1	28
537.004	1	34
537.174	1	25
537.344	1	33
537.514	1	29
537.685	1	40
537.855	1	36
538.025	1	35
538.195	1	22
538.365	1	17
538.535	1	27
538.705	1	33
538.875	1	33
539.045	1	19
539.215	1	36
539.385	1	35
539.555	1	34
539.725	1	21
539.895	1	15
540.065	1	28
540.235	1	24
540.405	1	24
540.575	1	33
540.745	1	38
540.915	1	29
541.085	1	33
541.255	1	29
541.425	1	28
541.595	1	29
541.765	1	12
541.935	1	27
542.105	1	34
542.275	1	33
542.445	1	28
542.615	1	30
542.785	1	22
542.955	1	26
543.125	1	23
543.295	1	15
543.465	1	17
543.635	1	30
543.805	1	26
543.975	1	20
544.145	1	31
544.315	1	16
544.485	1	27
544.655	1	26
544.825	1	29
544.995	1	38
545.165	1	28
545.335	1	25
545.505	1	36
545.675	1	26
545.845	1	25
546.015	1	21
546.185	1	27
546.355	1	34
546.525	1	40
546.695	1	26
546.865	1	28
547.035	1	27
547.205	1	33
547.375	1	37
547.545	1	35
547.715	1	18
547.885	1	12
548.055	1	30
548.225	1	28
548.395	1	25
548.565	1	33
548.735	1	24
548.905	1	23
549.075	1	35
549.245	1	23
549.415	1	19
549.585	1	22
549.755	1	24
549.925	1	34
550.095	1	20
550.265	1	30
550.435	1	21
550.605	1	28
550.775	1	36
550.945	1	32
551.115	1	27
551.285	1	29
551.455	1	16
551.625	1	24
551.795	1	15
551.965	1	17
552.135	1	30
552.305	1	26
552.475	1	35
552.645	1	22
552.815	1	20
552.985	1	31
553.155	1	20
553.325	1	28
553.495	1	36
553.665	1	20
553.835	1	22
554.004	1	18
554.174	1	11
554.344	1	14
554.514	1	27
554.684	1	7
554.854	1	30
555.024	1	31
555.194	1	32
555.364	1	23
555.534	1	45
555.704	1	29
555.874	1	22
556.044	1	22
556.214	1	20
556.384	1	36
556.554	1	14
556.724	1	14
556.894	1	8
557.064	1	34
557.234	1	24
557.404	1	24
557.573	1	24
557.743	1	30
557.913	1	33
558.083	1	24
558.253	1	19
558.423	1	18
558.593	1	37
558.763	1	22
558.933	1	20
559.103	1	31
559.273	1	35
559.443	1	11
559.613	1	26
559.783	1	26
559.953	1	11
560.122	1	19
560.292	1	23
560.462	1	19
560.632	1	21
560.802	1	35
560.972	1	40
561.142	1	10
561.312	1	24
561.482	1	26
561.652	1	12
561.822	1	23
561.992	1	24
562.162	1	17
562.331	1	38
562.501	1	32
562.671	1	23
562.841	1	25
563.011	1	28
563.181	1	14
563.351	1	34
563.521	1	17
563.691	1	17
563.861	1	27
564.031	1	23
564.201	1	16
564.370	1	18
564.540	1	29
564.710	1	22
564.880	1	28
565.050	1	14
565.220	1	33
565.390	1	21
565.560	1	12
565.730	1	26
565.900	1	12
566.069	1	17
566.239	1	28
566.409	1	22
566.579	1	19
566.749	1	15
566.919	1	22
567.089	1	22
567.259	1	22
567.429	1	34
567.599	1	17
567.768	1	36
567.938	1	24
568.108	1	8
568.278	1	31
568.448	1	19
568.618	1	16
568.788	1	16
568.958	1	23
569.128	1	15
569.297	1	27
569.467	1	20
569.637	1	10
569.807	1	28
569.977	1	9
570.147	1	17
570.317	1	5
570.487	1	23
570.656	1	12
570.826	1	12
570.996	1	11
571.166	1	13
571.336	1	14
571.506	1	23
571.676	1	12
571.846	1	30
572.015	1	22
572.185	1	19
572.355	1	18
572.525	1	18
572.695	1	17
572.865	1	25
573.035	1	23
573.205	1	14
573.374	1	19
573.544	1	17
573.714	1	21
573.884	1	26
574.054	1	28
574.224	1	25
574.394	1	19
574.563	1	13
574.733	1	27
574.903	1	21
575.073	1	15
575.243	1	31
575.413	1	12
575.583	1	17
575.752	1	23
575.922	1	23
576.092	1	29
576.262	1	25
576.432	1	9
576.602	1	25
576.772	1	19
576.941	1	24
577.111	1	31
577.281	1	31
577.451	1	20
577.621	1	26
577.791	1	24
577.960	1	14
578.130	1	7
578.300	1	18
578.470	1	12
578.640	1	22
578.810	1	10
578.979	1	23
579.149	1	18
579.319	1	23
579.489	1	23
579.659	1	21
579.829	1	30
579.998	1	17
580.168	1	16
580.338	1	31
580.508	1	19
580.678	1	25
580.848	1	32
581.017	1	19
581.187	1	28
581.357	1	21
581.527	1	8
581.697	1	13
581.867	1	12
582.036	1	11
582.206	1	27
582.376	1	22
582.546	1	12
582.716	1	26
582.885	1	34
583.055	1	22
583.225	1	11
583.395	1	30
583.565	1	15
583.735	1	24
583.904	1	26
584.074	1	23
584.244	1	23
584.414	1	32
584.584	1	16
584.753	1	20
584.923	1	15
585.093	1	20
585.263	1	22
585.433	1	23
585.602	1	24
585.772	1	31
585.942	1	29
586.112	1	15
586.282	1	25
586.451	1	29
586.621	1	25
586.791	1	25
586.961	1	30
587.131	1	33
587.300	1	21
587.470	1	23
587.640	1	24
587.810	1	23
587.980	1	24
588.149	1	31
588.319	1	40
588.489	1	26
588.659	1	18
588.829	1	37
588.998	1	37
589.168	1	10
589.338	1	18
589.508	1	26
589.677	1	16
589.847	1	28
590.017	1	37
590.187	1	17
590.357	1	29
590.526	1	22
590.696	1	22
590.866	1	25
591.036	1	42
591.205	1	36
591.375	1	13
591.545	1	25
591.715	1	9
591.885	1	20
592.054	1	31
592.224	1	26
592.394	1	34
592.564	1	26
592.733	1	29
592.903	1	33
593.073	1	34
593.243	1	35
593.412	1	38
593.582	1	21
593.752	1	31
593.922	1	38
594.091	1	25
594.261	1	17
594.431	1	32
594.601	1	26
594.771	1	34
594.940	1	32
595.110	1	43
595.280	1	42
595.450	1	45
595.619	1	39
595.789	1	30
595.959	1	32
596.129	1	45
596.298	1	30
596.468	1	27
596.638	1	33
596.808	1	40
596.977	1	37
597.147	1	42
597.317	1	40
597.487	1	21
597.656	1	19
597.826	1	41
597.996	1	37
598.166	1	46
598.335	1	33
598.505	1	45
598.675	1	39
598.844	1	32
599.014	1	36
599.184	1	33
599.354	1	47
599.523	1	39
599.693	1	52
599.863	1	29
600.033	1	46
600.202	1	42
600.372	1	46
600.542	1	48
600.712	1	37
600.881	1	46
601.051	1	40
601.221	1	41
601.390	1	35
601.560	1	44
601.730	1	39
601.900	1	47
602.069	1	44
602.239	1	40
602.409	1	38
602.578	1	46
602.748	1	45
602.918	1	47
603.088	1	55
603.257	1	56
603.427	1	51
603.597	1	51
603.767	1	54
603.936	1	52
604.106	1	50
604.276	1	41
604.445	1	40
604.615	1	54
604.785	1	64
604.954	1	50
605.124	1	60
605.294	1	53
605.464	1	63
605.633	1	55
605.803	1	56
605.973	1	55
606.142	1	55
606.312	1	56
606.482	1	38
606.652	1	49
606.821	1	61
606.991	1	52
607.161	1	54
607.330	1	68
607.500	1	72
607.670	1	58
607.839	1	62
608.009	1	57
608.179	1	65
608.348	1	67
608.518	1	60
608.688	1	54
608.858	1	55
609.027	1	77
609.197	1	52
609.367	1	63
609.536	1	70
609.706	1	72
609.876	1	59
610.045	1	63
610.215	1	76
610.385	1	73
610.554	1	66
610.724	1	66
610.894	1	69
611.063	1	75
611.233	1	69
611.403	1	82
611.572	1	73
611.742	1	68
611.912	1	66
612.081	1	71
612.251	1	73
612.421	1	79
612.590	1	80
612.760	1	78
612.930	1	78
613.099	1	87
613.269	1	81
613.439	1	72
613.608	1	86
613.778	1	77
613.948	1	72
614.117	1	81
614.287	1	73
614.457	1	70
614.626	1	88
614.796	1	70
614.966	1	89
615.135	1	97
615.305	1	84
615.475	1	97
615.644	1	81
615.814	1	88
615.984	1	80
616.153	1	77
616.323	1	84
616.493	1	90
616.662	1	97
616.832	1	93
617.002	1	91
617.171	1	89
617.341	1	105
617.511	1	97
617.680	1	92
617.850	1	104
618.019	1	92
618.189	1	99
618.359	1	86
618.528	1	91
618.698	1	97
618.868	1	107
619.037	1	99
619.207	1	102
619.377	1	93
619.546	1	94
619.716	1	89
619.885	1	106
620.055	1	97
620.225	1	106
620.394	1	102
620.564	1	111
620.734	1	106
620.903	1	105
621.073	1	122
621.242	1	111
621.412	1	97
621.582	1	108
621.751	1	96
621.921	1	98
622.091	1	114
622.260	1	103
622.430	1	119
622.599	1	109
622.769	1	120
622.939	1	101
623.108	1	110
623.278	1	117
623.448	1	96
623.617	1	123
623.787	1	125
623.956	1	114
624.126	1	111
624.296	1	106
624.465	1	127
624.635	1	110
624.804	1	120
624.974	1	117
625.144	1	108
625.313	1	123
625.483	1	127
625.652	1	113
625.822	1	121
625.992	1	127
626.161	1	113
626.331	1	121
626.501	1	110
626.670	1	118
626.840	1	127
627.009	1	121
627.179	1	149
627.348	1	141
627.518	1	121
627.688	1	123
627.857	1	119
628.027	1	143
628.196	1	135
628.366	1	137
628.536	1	139
628.705	1	123
628.875	1	135
629.044	1	129
629.214	1	129
629.384	1	128
629.553	1	143
629.723	1	146
629.892	1	132
630.062	1	122
630.232	1	134
630.401	1	140
630.571	1	128
630.740	1	142
630.910	1	143
631.079	1	149
631.249	1	129
631.419	1	139
631.588	1	145
631.758	1	138
631.927	1	149
632.097	1	131
632.266	1	130
632.436	1	140
632.606	1	150
632.775	1	139
632.945	1	132
633.114	1	143
633.284	1	138
633.453	1	147
633.623	1	152
633.793	1	141
633.962	1	151
634.132	1	146
634.301	1	151
634.471	1	165
634.640	1	147
634.810	1	143
634.979	1	143
635.149	1	155
635.319	1	155
635.488	1	149
635.658	1	144
635.827	1	161
635.997	1	153
636.166	1	154
636.336	1	162
636.505	1	160
636.675	1	154
636.845	1	148
637.014	1	155
637.184	1	171
637.353	1	164
637.523	1	152
637.692	1	155
637.862	1	155
638.031	1	154
638.201	1	157
638.370	1	163
638.540	1	166
638.710	1	159
638.879	1	172
639.049	1	155
639.218	1	162
639.388	1	157
639.557	1	155
639.727	1	166
639.896	1	174
640.066	1	173
640.235	1	169
640.405	1	172
640.574	1	177
640.744	1	152
640.914	1	161
641.083	1	165
641.253	1	156
641.422	1	167
641.592	1	151
641.761	1	165
641.931	1	166
642.100	1	185
642.270	1	157
642.439	1	180
642.609	1	165
642.778	1	181
642.948	1	177
643.117	1	164
643.287	1	169
643.456	1	177
643.626	1	159
643.795	1	156
643.965	1	175
644.134	1	181
644.304	1	174
644.473	1	153
644.643	1	156
644.812	1	172
644.982	1	160
645.151	1	160
645.321	1	176
645.490	1	159
645.660	1	170
645.829	1	161
645.999	1	180
646.168	1	176
646.338	1	175
646.507	1	172
646.677	1	169
646.846	1	170
647.016	1	163
647.185	1	156
647.355	1	166
647.524	1	166
647.694	1	172
647.863	1	152
648.033	1	173
648.202	1	166
648.372	1	152
648.541	1	168
648.711	1	176
648.880	1	173
649.050	1	172
649.219	1	159
649.389	1	169
649.558	1	178
649.728	1	169
649.897	1	169
650.067	1	162
650.236	1	164
650.406	1	174
650.575	1	168
650.745	1	163
650.914	1	175
651.084	1	155
651.253	1	155
651.423	1	164
651.592	1	159
651.762	1	186
651.931	1	165
652.101	1	174
652.270	1	164
652.440	1	178
652.609	1	169
652.778	1	184
652.948	1	181
653.117	1	187
653.287	1	150
653.456	1	151
653.626	1	178
653.795	1	177
653.965	1	178
654.134	1	171
654.304	1	166
654.473	1	159
654.643	1	159
654.812	1	180
654.982	1	166
655.151	1	165
655.320	1	189
655.490	1	172
655.659	1	162
655.829	1	182
655.998	1	149
656.168	1	141
656.337	1	162
656.507	1	154
656.676	1	163
656.846	1	167
657.015	1	156
657.184	1	165
657.354	1	161
657.523	1	169
657.693	1	170
657.862	1	160
658.032	1	159
658.201	1	173
658.371	1	167
658.540	1	169
658.709	1	161
658.879	1	152
659.048	1	163
659.218	1	164
659.387	1	163
659.557	1	168
659.726	1	173
659.895	1	148
660.065	1	157
660.234	1	172
660.404	1	157
660.573	1	148
660.743	1	145
660.912	1	149
661.081	1	156
661.251	1	166
661.420	1	161
661.590	1	138
661.759	1	151
661.929	1	159
662.098	1	162
662.267	1	142
662.437	1	153
662.606	1	148
662.776	1	137
662.945	1	150
663.115	1	157
663.284	1	142
663.453	1	158
663.623	1	163
663.792	1	152
663.962	1	142
664.131	1	142
664.300	1	153
664.470	1	152
664.639	1	157
664.809	1	143
664.978	1	159
665.148	1	153
665.317	1	125
665.486	1	145
665.656	1	163
665.825	1	148
665.995	1	143
666.164	1	144
666.333	1	145
666.503	1	149
666.672	1	120
666.842	1	134
667.011	1	134
667.180	1	130
667.350	1	142
667.519	1	126
667.689	1	142
667.858	1	135
668.027	1	154
668.197	1	153
668.366	1	139
668.536	1	141
668.705	1	129
668.874	1	131
669.044	1	126
669.213	1	138
669.382	1	129
669.552	1	129
669.721	1	138
669.891	1	138
670.060	1	119
670.229	1	134
670.399	1	135
670.568	1	137
670.738	1	130
670.907	1	125
671.076	1	130
671.246	1	132
671.415	1	118
671.584	1	124
671.754	1	130
671.923	1	133
672.093	1	131
672.262	1	145
672.431	1	115
672.601	1	134
672.770	1	113
672.939	1	122
673.109	1	113
673.278	1	114
673.448	1	121
673.617	1	114
673.786	1	117
