325.333	1	183
325.504	1	198
325.675	1	201
325.846	1	201
326.017	1	190
326.188	1	220
326.359	1	223
326.531	1	215
326.702	1	222
326.873	1	209
327.044	1	215
327.215	1	214
327.386	1	217
327.557	1	241
327.728	1	226
327.899	1	237
328.070	1	246
328.241	1	240
328.412	1	239
328.583	1	238
328.754	1	263
328.926	1	239
329.097	1	259
329.268	1	270
329.439	1	254
329.610	1	252
329.781	1	257
329.952	1	269
330.123	1	260
330.294	1	272
330.465	1	266
330.636	1	277
330.807	1	273
330.978	1	267
331.149	1	276
331.320	1	296
331.492	1	283
331.663	1	280
331.834	1	309
332.005	1	299
332.176	1	288
332.347	1	298
332.518	1	288
332.689	1	307
332.860	1	317
333.031	1	300
333.202	1	294
333.373	1	306
333.544	1	314
333.715	1	323
333.886	1	315
334.057	1	315
334.228	1	309
334.399	1	329
334.570	1	313
334.741	1	321
334.912	1	331
335.084	1	307
335.255	1	321
335.426	1	332
335.597	1	317
335.768	1	325
335.939	1	329
336.110	1	341
336.281	1	334
336.452	1	328
336.623	1	346
336.794	1	339
336.965	1	327
337.136	1	338
337.307	1	338
337.478	1	344
337.649	1	333
337.820	1	342
337.991	1	337
338.162	1	335
338.333	1	355
338.504	1	343
338.675	1	335
338.846	1	358
339.017	1	354
339.188	1	337
339.359	1	337
339.530	1	348
339.701	1	341
339.872	1	355
340.043	1	350
340.214	1	338
340.385	1	340
340.556	1	352
340.727	1	351
340.898	1	339
341.069	1	316
341.240	1	326
341.411	1	346
341.582	1	354
341.753	1	340
341.924	1	339
342.095	1	347
342.266	1	345
342.437	1	318
342.608	1	337
342.779	1	348
342.950	1	326
343.121	1	334
343.292	1	353
343.463	1	341
343.634	1	350
343.805	1	341
343.976	1	329
344.147	1	333
344.318	1	341
344.489	1	345
344.660	1	321
344.831	1	349
345.002	1	336
345.173	1	339
345.344	1	331
345.515	1	319
345.686	1	324
345.857	1	330
346.028	1	347
346.199	1	340
346.370	1	343
346.541	1	329
346.712	1	323
346.883	1	323
347.054	1	317
347.225	1	306
347.396	1	314
347.567	1	335
347.738	1	324
347.909	1	322
348.080	1	333
348.251	1	337
348.422	1	314
348.593	1	303
348.764	1	298
348.935	1	291
349.106	1	301
349.277	1	308
349.448	1	317
349.619	1	290
349.790	1	304
349.961	1	295
350.132	1	296
350.303	1	284
350.474	1	295
350.645	1	299
350.816	1	283
350.987	1	292
351.157	1	272
351.328	1	282
351.499	1	276
351.670	1	282
351.841	1	302
352.012	1	295
352.183	1	272
352.354	1	279
352.525	1	285
352.696	1	286
352.867	1	263
353.038	1	272
353.209	1	263
353.380	1	257
353.551	1	253
353.722	1	267
353.893	1	261
354.064	1	233
354.235	1	244
354.406	1	244
354.576	1	249
354.747	1	238
354.918	1	247
355.089	1	230
355.260	1	240
355.431	1	244
355.602	1	237
355.773	1	218
355.944	1	230
356.115	1	234
356.286	1	227
356.457	1	207
356.628	1	220
356.799	1	222
356.970	1	220
357.141	1	221
357.311	1	207
357.482	1	221
357.653	1	206
357.824	1	204
357.995	1	217
358.166	1	208
358.337	1	203
358.508	1	206
358.679	1	191
358.850	1	209
359.021	1	193
359.192	1	178
359.363	1	186
359.533	1	184
359.704	1	192
359.875	1	183
360.046	1	184
360.217	1	173
360.388	1	170
360.559	1	189
360.730	1	176
360.901	1	174
361.072	1	166
361.243	1	168
361.414	1	161
361.584	1	171
361.755	1	186
361.926	1	158
362.097	1	167
362.268	1	151
362.439	1	155
362.610	1	164
362.781	1	156
362.952	1	141
363.123	1	146
363.293	1	145
363.464	1	147
363.635	1	153
363.806	1	147
363.977	1	148
364.148	1	136
364.319	1	119
364.490	1	127
364.661	1	139
364.832	1	123
365.002	1	142
365.173	1	118
365.344	1	131
365.515	1	126
365.686	1	114
365.857	1	133
366.028	1	123
366.199	1	119
366.370	1	102
366.540	1	116
366.711	1	104
366.882	1	131
367.053	1	104
367.224	1	118
367.395	1	109
367.566	1	117
367.737	1	118
367.908	1	119
368.078	1	100
368.249	1	113
368.420	1	106
368.591	1	101
368.762	1	102
368.933	1	108
369.104	1	104
369.274	1	100
369.445	1	98
369.616	1	94
369.787	1	92
369.958	1	85
370.129	1	95
370.300	1	100
370.471	1	106
370.641	1	85
370.812	1	91
370.983	1	94
371.154	1	90
371.325	1	98
371.496	1	93
371.667	1	98
371.837	1	85
372.008	1	84
372.179	1	104
372.350	1	95
372.521	1	101
372.692	1	86
372.863	1	95
373.033	1	86
373.204	1	89
373.375	1	80
373.546	1	83
373.717	1	76
373.888	1	82
374.059	1	83
374.229	1	77
374.400	1	93
374.571	1	80
374.742	1	74
374.913	1	87
375.084	1	78
375.254	1	92
375.425	1	78
375.596	1	88
375.767	1	90
375.938	1	70
376.109	1	76
376.279	1	81
376.450	1	84
376.621	1	74
376.792	1	85
376.963	1	96
377.134	1	85
377.304	1	88
377.475	1	64
377.646	1	87
377.817	1	76
377.988	1	86
378.159	1	83
378.329	1	92
378.500	1	80
378.671	1	81
378.842	1	84
379.013	1	81
379.184	1	74
379.354	1	83
379.525	1	87
379.696	1	84
379.867	1	86
380.038	1	94
380.209	1	59
380.379	1	80
380.550	1	92
380.721	1	76
380.892	1	102
381.063	1	83
381.233	1	89
381.404	1	107
381.575	1	95
381.746	1	87
381.917	1	95
382.087	1	93
382.258	1	93
382.429	1	99
382.600	1	94
382.771	1	91
382.941	1	113
383.112	1	110
383.283	1	105
383.454	1	99
383.625	1	105
383.795	1	97
383.966	1	101
384.137	1	111
384.308	1	99
384.479	1	104
384.649	1	102
384.820	1	110
384.991	1	96
385.162	1	101
385.333	1	111
385.503	1	107
385.674	1	115
385.845	1	104
386.016	1	112
386.187	1	103
386.357	1	124
386.528	1	116
386.699	1	113
386.870	1	119
387.041	1	116
387.211	1	122
387.382	1	102
387.553	1	120
387.724	1	124
387.894	1	126
388.065	1	127
388.236	1	124
388.407	1	130
388.578	1	143
388.748	1	131
388.919	1	128
389.090	1	132
389.261	1	136
389.431	1	130
389.602	1	148
389.773	1	138
389.944	1	142
390.114	1	142
390.285	1	138
390.456	1	159
390.627	1	138
390.798	1	137
390.968	1	139
391.139	1	151
391.310	1	148
391.481	1	159
391.651	1	153
391.822	1	156
391.993	1	137
392.164	1	169
392.334	1	153
392.505	1	147
392.676	1	169
392.847	1	158
393.017	1	183
393.188	1	166
393.359	1	167
393.530	1	165
393.700	1	170
393.871	1	160
394.042	1	175
394.213	1	190
394.383	1	180
394.554	1	176
394.725	1	181
394.896	1	176
395.066	1	186
395.237	1	170
395.408	1	204
395.579	1	187
395.749	1	184
395.920	1	190
396.091	1	193
396.262	1	191
396.432	1	185
396.603	1	200
396.774	1	193
396.945	1	193
397.115	1	208
397.286	1	213
397.457	1	200
397.627	1	208
397.798	1	212
397.969	1	208
398.140	1	236
398.310	1	222
398.481	1	208
398.652	1	213
398.823	1	229
398.993	1	232
399.164	1	226
399.335	1	230
399.505	1	231
399.676	1	231
399.847	1	245
400.018	1	246
400.188	1	236
400.359	1	240
400.530	1	244
400.700	1	234
400.871	1	245
401.042	1	253
401.213	1	251
401.383	1	258
401.554	1	253
401.725	1	260
401.895	1	262
402.066	1	266
402.237	1	265
402.408	1	256
402.578	1	265
402.749	1	269
402.920	1	288
403.090	1	268
403.261	1	250
403.432	1	280
403.603	1	270
403.773	1	286
403.944	1	283
404.115	1	299
404.285	1	293
404.456	1	310
404.627	1	289
404.797	1	296
404.968	1	291
405.139	1	286
405.310	1	284
405.480	1	305
405.651	1	296
405.822	1	292
405.992	1	301
406.163	1	296
406.334	1	306
406.504	1	322
406.675	1	315
406.846	1	290
407.016	1	312
407.187	1	297
407.358	1	335
407.528	1	317
407.699	1	330
407.870	1	311
408.041	1	337
408.211	1	323
408.382	1	349
408.553	1	320
408.723	1	343
408.894	1	330
409.065	1	327
409.235	1	356
409.406	1	330
409.577	1	340
409.747	1	345
409.918	1	353
410.089	1	354
410.259	1	360
410.430	1	339
410.601	1	358
410.771	1	335
410.942	1	373
411.113	1	360
411.283	1	365
411.454	1	350
411.625	1	368
411.795	1	377
411.966	1	368
412.137	1	368
412.307	1	346
412.478	1	366
412.649	1	365
412.819	1	360
412.990	1	353
413.161	1	371
413.331	1	370
413.502	1	377
413.672	1	381
413.843	1	370
414.014	1	385
414.184	1	380
414.355	1	383
414.526	1	368
414.696	1	390
414.867	1	376
415.038	1	391
415.208	1	378
415.379	1	389
415.550	1	407
415.720	1	401
415.891	1	408
416.062	1	383
416.232	1	392
416.403	1	394
416.573	1	382
416.744	1	385
416.915	1	394
417.085	1	397
417.256	1	394
417.427	1	412
417.597	1	403
417.768	1	402
417.939	1	409
418.109	1	396
418.280	1	404
418.450	1	407
418.621	1	401
418.792	1	397
418.962	1	416
419.133	1	393
419.304	1	410
419.474	1	402
419.645	1	406
419.815	1	413
419.986	1	410
420.157	1	414
420.327	1	410
420.498	1	399
420.669	1	419
420.839	1	400
421.010	1	405
421.180	1	394
421.351	1	404
421.522	1	409
421.692	1	416
421.863	1	419
422.033	1	408
422.204	1	405
422.375	1	406
422.545	1	425
422.716	1	416
422.886	1	409
423.057	1	407
423.228	1	421
423.398	1	405
423.569	1	409
423.740	1	397
423.910	1	405
424.081	1	421
424.251	1	403
424.422	1	414
424.593	1	426
424.763	1	414
424.934	1	410
425.104	1	430
425.275	1	405
425.445	1	387
425.616	1	402
425.787	1	418
425.957	1	417
426.128	1	403
426.298	1	416
426.469	1	394
426.640	1	419
426.810	1	415
426.981	1	412
427.151	1	423
427.322	1	418
427.493	1	437
427.663	1	420
427.834	1	421
428.004	1	407
428.175	1	404
428.345	1	410
428.516	1	417
428.687	1	423
428.857	1	425
429.028	1	420
429.198	1	414
429.369	1	407
429.540	1	406
429.710	1	410
429.881	1	409
430.051	1	411
430.222	1	406
430.392	1	412
430.563	1	418
430.734	1	403
430.904	1	421
431.075	1	407
431.245	1	416
431.416	1	422
431.586	1	400
431.757	1	408
431.927	1	415
432.098	1	424
432.269	1	402
432.439	1	400
432.610	1	406
432.780	1	423
432.951	1	391
433.121	1	404
433.292	1	403
433.462	1	390
433.633	1	399
433.804	1	405
433.974	1	393
434.145	1	409
434.315	1	385
434.486	1	395
434.656	1	408
434.827	1	398
434.997	1	398
435.168	1	400
435.339	1	390
435.509	1	396
435.680	1	410
435.850	1	409
436.021	1	410
436.191	1	405
436.362	1	388
436.532	1	414
436.703	1	404
436.873	1	407
437.044	1	382
437.214	1	385
437.385	1	400
437.556	1	404
437.726	1	382
437.897	1	376
438.067	1	387
438.238	1	382
438.408	1	380
438.579	1	368
438.749	1	370
438.920	1	365
439.090	1	389
439.261	1	374
439.431	1	386
439.602	1	380
439.772	1	394
439.943	1	384
440.113	1	377
440.284	1	358
440.455	1	383
440.625	1	371
440.796	1	375
440.966	1	380
441.137	1	357
441.307	1	370
441.478	1	375
441.648	1	354
441.819	1	343
441.989	1	368
442.160	1	366
442.330	1	354
442.501	1	349
442.671	1	363
442.842	1	333
443.012	1	356
443.183	1	350
443.353	1	354
443.524	1	341
443.694	1	364
443.865	1	340
444.035	1	347
444.206	1	349
444.376	1	346
444.547	1	332
444.717	1	342
444.888	1	335
445.058	1	346
445.229	1	356
445.399	1	339
445.570	1	326
445.740	1	330
445.911	1	323
446.081	1	327
446.252	1	312
446.422	1	331
446.593	1	328
446.763	1	330
446.934	1	320
447.104	1	328
447.275	1	325
447.445	1	328
447.616	1	314
447.786	1	319
447.957	1	342
448.127	1	313
448.298	1	317
448.468	1	318
448.639	1	326
448.809	1	310
448.979	1	312
449.150	1	320
449.320	1	312
449.491	1	315
449.661	1	298
449.832	1	298
450.002	1	315
450.173	1	315
450.343	1	299
450.514	1	298
450.684	1	308
450.855	1	298
451.025	1	301
451.196	1	294
451.366	1	293
451.537	1	285
451.707	1	279
451.878	1	287
452.048	1	286
452.218	1	285
452.389	1	285
452.559	1	284
452.730	1	287
452.900	1	307
453.071	1	268
453.241	1	273
453.412	1	275
453.582	1	269
453.753	1	257
453.923	1	270
454.093	1	266
454.264	1	275
454.434	1	260
454.605	1	254
454.775	1	269
454.946	1	275
455.116	1	258
455.287	1	258
455.457	1	260
455.628	1	261
455.798	1	266
455.968	1	254
456.139	1	248
456.309	1	240
456.480	1	254
456.650	1	241
456.821	1	236
456.991	1	239
457.161	1	254
457.332	1	229
457.502	1	239
457.673	1	246
457.843	1	244
458.014	1	220
458.184	1	234
458.355	1	220
458.525	1	236
458.695	1	232
458.866	1	218
459.036	1	222
459.207	1	230
459.377	1	223
459.548	1	219
459.718	1	225
459.888	1	217
460.059	1	222
460.229	1	231
460.400	1	211
460.570	1	218
460.740	1	211
460.911	1	215
461.081	1	217
461.252	1	211
461.422	1	222
461.593	1	214
461.763	1	218
461.933	1	219
462.104	1	201
462.274	1	203
462.445	1	222
462.615	1	194
462.785	1	203
462.956	1	182
463.126	1	216
463.297	1	196
463.467	1	204
463.638	1	197
463.808	1	202
463.978	1	194
464.149	1	179
464.319	1	191
464.490	1	195
464.660	1	190
464.830	1	210
465.001	1	188
465.171	1	184
465.342	1	178
465.512	1	166
465.682	1	183
465.853	1	180
466.023	1	166
466.194	1	170
466.364	1	168
466.534	1	163
466.705	1	157
466.875	1	161
467.045	1	160
467.216	1	170
467.386	1	169
467.557	1	182
467.727	1	170
467.897	1	160
468.068	1	154
468.238	1	140
468.409	1	163
468.579	1	161
468.749	1	153
468.920	1	152
469.090	1	130
469.260	1	145
469.431	1	159
469.601	1	156
469.772	1	139
469.942	1	139
470.112	1	147
470.283	1	152
470.453	1	146
470.623	1	135
470.794	1	141
470.964	1	150
471.135	1	140
471.305	1	152
471.475	1	151
471.646	1	133
471.816	1	144
471.986	1	149
472.157	1	137
472.327	1	129
472.497	1	135
472.668	1	140
472.838	1	143
473.009	1	142
473.179	1	140
473.349	1	136
473.520	1	120
473.690	1	124
473.860	1	138
474.031	1	123
474.201	1	132
474.371	1	132
474.542	1	133
474.712	1	124
474.882	1	116
475.053	1	126
475.223	1	124
475.394	1	111
475.564	1	116
475.734	1	120
475.905	1	129
476.075	1	131
476.245	1	124
476.416	1	120
476.586	1	104
476.756	1	129
476.927	1	121
477.097	1	115
477.267	1	118
477.438	1	108
477.608	1	109
477.778	1	109
477.949	1	124
478.119	1	110
478.289	1	106
478.460	1	120
478.630	1	122
478.800	1	102
478.971	1	103
479.141	1	113
479.311	1	121
479.482	1	98
479.652	1	103
479.822	1	102
479.993	1	114
480.163	1	103
480.333	1	103
480.504	1	104
480.674	1	102
480.844	1	98
481.015	1	102
481.185	1	107
481.355	1	98
481.525	1	94
481.696	1	95
481.866	1	104
482.036	1	86
482.207	1	94
482.377	1	92
482.547	1	87
482.718	1	88
482.888	1	96
483.058	1	104
483.229	1	104
483.399	1	98
483.569	1	90
483.740	1	87
483.910	1	83
484.080	1	95
484.250	1	90
484.421	1	77
484.591	1	93
484.761	1	95
484.932	1	92
485.102	1	89
485.272	1	82
485.443	1	86
485.613	1	89
485.783	1	84
485.953	1	92
486.124	1	73
486.294	1	91
486.464	1	95
486.635	1	79
486.805	1	90
486.975	1	82
487.146	1	76
487.316	1	76
487.486	1	72
487.656	1	78
487.827	1	69
487.997	1	74
488.167	1	78
488.338	1	88
488.508	1	77
488.678	1	73
488.848	1	82
489.019	1	61
489.189	1	88
489.359	1	80
489.529	1	72
489.700	1	74
489.870	1	68
490.040	1	74
490.211	1	68
490.381	1	78
490.551	1	66
490.721	1	74
490.892	1	66
491.062	1	80
491.232	1	74
491.402	1	61
491.573	1	62
491.743	1	55
491.913	1	66
492.084	1	70
492.254	1	75
492.424	1	64
492.594	1	68
492.765	1	72
492.935	1	69
493.105	1	72
493.275	1	63
493.446	1	63
493.616	1	70
493.786	1	69
493.956	1	55
494.127	1	59
494.297	1	56
494.467	1	59
494.637	1	62
494.808	1	65
494.978	1	58
495.148	1	59
495.318	1	50
495.489	1	55
495.659	1	61
495.829	1	52
495.999	1	68
496.170	1	55
496.340	1	66
496.510	1	65
496.680	1	49
496.851	1	70
497.021	1	51
497.191	1	60
497.361	1	61
497.532	1	54
497.702	1	61
497.872	1	63
498.042	1	52
498.213	1	51
498.383	1	47
498.553	1	54
498.723	1	64
498.894	1	55
499.064	1	46
499.234	1	49
499.404	1	52
499.574	1	52
499.745	1	61
499.915	1	41
500.085	1	54
500.255	1	46
500.426	1	54
500.596	1	58
500.766	1	57
500.936	1	57
501.106	1	47
501.277	1	58
501.447	1	54
501.617	1	49
501.787	1	50
501.958	1	62
502.128	1	54
502.298	1	43
502.468	1	52
502.638	1	49
502.809	1	48
502.979	1	42
503.149	1	57
503.319	1	50
503.489	1	52
503.660	1	43
503.830	1	55
504.000	1	38
504.170	1	54
504.340	1	52
504.511	1	52
504.681	1	53
504.851	1	54
505.021	1	42
505.192	1	47
505.362	1	43
505.532	1	56
505.702	1	51
505.872	1	38
506.043	1	47
506.213	1	50
506.383	1	50
506.553	1	52
506.723	1	39
506.893	1	43
507.064	1	42
507.234	1	47
507.404	1	42
507.574	1	44
507.744	1	50
507.915	1	59
508.085	1	56
508.255	1	53
508.425	1	31
508.595	1	49
508.766	1	41
508.936	1	46
509.106	1	50
509.276	1	47
509.446	1	38
509.616	1	35
509.787	1	38
509.957	1	45
510.127	1	42
510.297	1	39
510.467	1	52
510.638	1	41
510.808	1	44
510.978	1	44
511.148	1	39
511.318	1	51
511.488	1	38
511.659	1	35
511.829	1	48
511.999	1	40
512.169	1	50
512.339	1	41
512.509	1	47
512.680	1	52
512.850	1	44
513.020	1	35
513.190	1	39
513.360	1	35
513.530	1	35
513.700	1	31
513.871	1	41
514.041	1	32
514.211	1	46
514.381	1	46
514.551	1	31
514.721	1	41
514.892	1	33
515.062	1	38
515.232	1	41
515.402	1	45
515.572	1	37
515.742	1	42
515.912	1	53
516.083	1	43
516.253	1	29
516.423	1	32
516.593	1	39
516.763	1	42
516.933	1	31
517.104	1	39
517.274	1	39
517.444	1	44
517.614	1	30
517.784	1	40
517.954	1	20
518.124	1	36
518.294	1	33
518.465	1	41
518.635	1	37
518.805	1	29
518.975	1	30
519.145	1	40
519.315	1	29
519.485	1	32
519.656	1	43
519.826	1	37
519.996	1	19
520.166	1	34
520.336	1	30
520.506	1	29
520.676	1	34
520.846	1	32
521.017	1	37
521.187	1	43
521.357	1	28
521.527	1	31
521.697	1	35
521.867	1	23
522.037	1	21
522.207	1	41
522.377	1	29
522.548	1	30
522.718	1	26
522.888	1	44
523.058	1	44
523.228	1	30
523.398	1	34
523.568	1	33
523.738	1	31
523.909	1	27
524.079	1	39
524.249	1	23
524.419	1	30
524.589	1	27
524.759	1	43
524.929	1	32
525.099	1	31
525.269	1	33
525.439	1	20
525.610	1	33
525.780	1	30
525.950	1	38
526.120	1	35
526.290	1	38
526.460	1	22
526.630	1	32
526.800	1	37
526.970	1	23
527.140	1	32
527.311	1	34
527.481	1	24
527.651	1	34
527.821	1	30
527.991	1	33
528.161	1	25
528.331	1	28
528.501	1	17
528.671	1	33
528.841	1	28
529.011	1	26
529.181	1	33
529.352	1	33
529.522	1	38
529.692	1	40
529.862	1	40
530.032	1	35
530.202	1	29
530.372	1	37
530.542	1	27
530.712	1	29
530.882	1	12
531.052	1	32
531.222	1	34
531.392	1	25
531.563	1	29
531.733	1	20
531.903	1	37
532.073	1	26
532.243	1	41
532.413	1	29
532.583	1	29
532.753	1	35
532.923	1	32
533.093	1	28
533.263	1	35
533.433	1	33
533.603	1	32
533.773	1	31
533.943	1	48
534.113	1	18
534.284	1	20
534.454	1	28
534.624	1	26
534.794	1	29
534.964	1	33
535.134	1	28
535.304	1	30
535.474	1	32
535.644	1	20
535.814	1	36
535.984	1	37
536.154	1	30
536.324	1	26
536.494	1	27
536.664	1	31
536.834	1	33
537.004	1	27
537.174	1	36
537.344	1	38
537.514	1	21
537.685	1	30
537.855	1	31
538.025	1	41
538.195	1	31
538.365	1	26
538.535	1	21
538.705	1	29
538.875	1	25
539.045	1	29
539.215	1	27
539.385	1	28
539.555	1	29
539.725	1	23
539.895	1	25
540.065	1	36
540.235	1	16
540.405	1	31
540.575	1	23
540.745	1	22
540.915	1	25
541.085	1	20
541.255	1	13
541.425	1	24
541.595	1	19
541.765	1	15
541.935	1	22
542.105	1	32
542.275	1	23
542.445	1	33
542.615	1	22
542.785	1	12
542.955	1	21
543.125	1	11
543.295	1	10
543.465	1	7
543.635	1	19
543.805	1	19
543.975	1	20
544.145	1	28
544.315	1	6
544.485	1	27
544.655	1	17
544.825	1	24
544.995	1	42
545.165	1	26
545.335	1	21
545.505	1	30
545.675	1	33
545.845	1	31
546.015	1	26
546.185	1	25
546.355	1	33
546.525	1	29
546.695	1	26
546.865	1	25
547.035	1	24
547.205	1	39
547.375	1	29
547.545	1	26
547.715	1	21
547.885	1	11
548.055	1	27
548.225	1	34
548.395	1	29
548.565	1	22
548.735	1	35
548.905	1	22
549.075	1	11
549.245	1	14
549.415	1	12
549.585	1	23
549.755	1	17
549.925	1	35
550.095	1	28
550.265	1	21
550.435	1	25
550.605	1	23
550.775	1	24
550.945	1	33
551.115	1	15
551.285	1	18
551.455	1	21
551.625	1	18
551.795	1	24
551.965	1	17
552.135	1	26
552.305	1	27
552.475	1	42
552.645	1	25
552.815	1	27
552.985	1	17
553.155	1	29
553.325	1	25
553.495	1	20
553.665	1	29
553.835	1	28
554.004	1	12
554.174	1	21
554.344	1	20
554.514	1	19
554.684	1	13
554.854	1	26
555.024	1	19
555.194	1	23
555.364	1	18
555.534	1	29
555.704	1	31
555.874	1	13
556.044	1	18
556.214	1	24
556.384	1	31
556.554	1	26
556.724	1	21
556.894	1	23
557.064	1	27
557.234	1	24
557.404	1	23
557.573	1	28
557.743	1	26
557.913	1	28
558.083	1	14
558.253	1	25
558.423	1	18
558.593	1	23
558.763	1	26
558.933	1	18
559.103	1	27
559.273	1	25
559.443	1	6
559.613	1	24
559.783	1	26
559.953	1	9
560.122	1	20
560.292	1	25
560.462	1	10
560.632	1	22
560.802	1	28
560.972	1	17
561.142	1	16
561.312	1	23
561.482	1	14
561.652	1	15
561.822	1	24
561.992	1	19
562.162	1	21
562.331	1	33
562.501	1	24
562.671	1	25
562.841	1	8
563.011	1	30
563.181	1	28
563.351	1	24
563.521	1	13
563.691	1	22
563.861	1	23
564.031	1	19
564.201	1	29
564.370	1	11
564.540	1	28
564.710	1	15
564.880	1	20
565.050	1	14
565.220	1	28
565.390	1	18
565.560	1	12
565.730	1	25
565.900	1	14
566.069	1	8
566.239	1	27
566.409	1	12
566.579	1	5
566.749	1	10
566.919	1	13
567.089	1	9
567.259	1	19
567.429	1	30
567.599	1	29
567.768	1	21
567.938	1	22
568.108	1	17
568.278	1	22
568.448	1	27
568.618	1	23
568.788	1	18
568.958	1	22
569.128	1	16
569.297	1	32
569.467	1	19
569.637	1	17
569.807	1	40
569.977	1	14
570.147	1	18
570.317	1	16
570.487	1	22
570.656	1	13
570.826	1	16
570.996	1	14
571.166	1	22
571.336	1	10
571.506	1	20
571.676	1	34
571.846	1	9
572.015	1	5
572.185	1	14
572.355	1	20
572.525	1	21
572.695	1	12
572.865	1	21
573.035	1	13
573.205	1	20
573.374	1	15
573.544	1	14
573.714	1	18
573.884	1	6
574.054	1	25
574.224	1	18
574.394	1	23
574.563	1	17
574.733	1	28
574.903	1	17
575.073	1	9
575.243	1	15
575.413	1	14
575.583	1	23
575.752	1	25
575.922	1	28
576.092	1	13
576.262	1	22
576.432	1	20
576.602	1	23
576.772	1	22
576.941	1	13
577.111	1	17
577.281	1	29
577.451	1	19
577.621	1	14
577.791	1	27
577.960	1	17
578.130	1	16
578.300	1	11
578.470	1	14
578.640	1	23
578.810	1	10
578.979	1	13
579.149	1	17
579.319	1	18
579.489	1	19
579.659	1	19
579.829	1	12
579.998	1	9
580.168	1	21
580.338	1	14
580.508	1	27
580.678	1	13
580.848	1	20
581.017	1	16
581.187	1	14
581.357	1	14
581.527	1	1
581.697	1	6
581.867	1	14
582.036	1	17
582.206	1	22
582.376	1	23
582.546	1	12
582.716	1	25
582.885	1	30
583.055	1	17
583.225	1	20
583.395	1	28
583.565	1	17
583.735	1	31
583.904	1	27
584.074	1	25
584.244	1	20
584.414	1	25
584.584	1	22
584.753	1	15
584.923	1	15
585.093	1	23
585.263	1	17
585.433	1	15
585.602	1	22
585.772	1	28
585.942	1	24
586.112	1	7
586.282	1	29
586.451	1	32
586.621	1	23
586.791	1	37
586.961	1	19
587.131	1	32
587.300	1	22
587.470	1	1
587.640	1	21
587.810	1	20
587.980	1	13
588.149	1	40
588.319	1	23
588.489	1	9
588.659	1	32
588.829	1	29
588.998	1	27
589.168	1	24
589.338	1	27
589.508	1	18
589.677	1	29
589.847	1	14
590.017	1	34
590.187	1	23
590.357	1	28
590.526	1	30
590.696	1	21
590.866	1	18
591.036	1	38
591.205	1	34
591.375	1	23
591.545	1	30
591.715	1	12
591.885	1	27
592.054	1	25
592.224	1	38
592.394	1	31
592.564	1	30
592.733	1	28
592.903	1	40
593.073	1	34
593.243	1	39
593.412	1	33
593.582	1	22
593.752	1	43
593.922	1	45
594.091	1	27
594.261	1	31
594.431	1	36
594.601	1	31
594.771	1	18
594.940	1	40
595.110	1	35
595.280	1	36
595.450	1	45
595.619	1	35
595.789	1	38
595.959	1	32
596.129	1	34
596.298	1	33
596.468	1	29
596.638	1	37
596.808	1	39
596.977	1	38
597.147	1	41
597.317	1	46
597.487	1	32
597.656	1	34
597.826	1	38
597.996	1	32
598.166	1	49
598.335	1	43
598.505	1	43
598.675	1	36
598.844	1	45
599.014	1	41
599.184	1	41
599.354	1	52
599.523	1	40
599.693	1	54
599.863	1	42
600.033	1	33
600.202	1	35
600.372	1	47
600.542	1	49
600.712	1	43
600.881	1	51
601.051	1	43
601.221	1	42
601.390	1	63
601.560	1	41
601.730	1	37
601.900	1	42
602.069	1	50
602.239	1	46
602.409	1	52
602.578	1	50
602.748	1	52
602.918	1	44
603.088	1	49
603.257	1	51
603.427	1	58
603.597	1	58
603.767	1	48
603.936	1	53
604.106	1	58
604.276	1	56
604.445	1	37
604.615	1	64
604.785	1	58
604.954	1	53
605.124	1	72
605.294	1	60
605.464	1	55
605.633	1	62
605.803	1	66
605.973	1	61
606.142	1	62
606.312	1	61
606.482	1	52
606.652	1	65
606.821	1	67
606.991	1	53
607.161	1	65
607.330	1	53
607.500	1	78
607.670	1	67
607.839	1	68
608.009	1	66
608.179	1	54
608.348	1	69
608.518	1	66
608.688	1	56
608.858	1	64
609.027	1	74
609.197	1	64
609.367	1	72
609.536	1	83
609.706	1	84
609.876	1	74
610.045	1	79
610.215	1	74
610.385	1	70
610.554	1	81
610.724	1	81
610.894	1	78
611.063	1	77
611.233	1	69
611.403	1	83
611.572	1	87
611.742	1	84
611.912	1	80
612.081	1	90
612.251	1	83
612.421	1	81
612.590	1	78
612.760	1	87
612.930	1	85
613.099	1	96
613.269	1	78
613.439	1	97
613.608	1	90
613.778	1	93
613.948	1	83
614.117	1	91
614.287	1	72
614.457	1	84
614.626	1	97
614.796	1	77
614.966	1	99
615.135	1	108
615.305	1	102
615.475	1	103
615.644	1	94
615.814	1	95
615.984	1	89
616.153	1	107
616.323	1	90
616.493	1	88
616.662	1	103
616.832	1	100
617.002	1	109
617.171	1	90
617.341	1	109
617.511	1	101
617.680	1	104
617.850	1	110
618.019	1	113
618.189	1	114
618.359	1	108
618.528	1	99
618.698	1	113
618.868	1	106
619.037	1	112
619.207	1	117
619.377	1	113
619.546	1	109
619.716	1	117
619.885	1	109
620.055	1	124
620.225	1	112
620.394	1	110
620.564	1	125
620.734	1	119
620.903	1	131
621.073	1	120
621.242	1	131
621.412	1	125
621.582	1	132
621.751	1	121
621.921	1	120
622.091	1	128
622.260	1	124
622.430	1	130
622.599	1	125
622.769	1	128
622.939	1	113
623.108	1	122
623.278	1	119
623.448	1	129
623.617	1	124
623.787	1	138
623.956	1	128
624.126	1	144
624.296	1	122
624.465	1	146
624.635	1	131
624.804	1	132
624.974	1	129
625.144	1	151
625.313	1	124
625.483	1	145
625.652	1	128
625.822	1	155
625.992	1	134
626.161	1	134
626.331	1	157
626.501	1	133
626.670	1	147
626.840	1	147
627.009	1	163
627.179	1	159
627.348	1	147
627.518	1	140
627.688	1	151
627.857	1	134
628.027	1	145
628.196	1	156
628.366	1	163
628.536	1	154
628.705	1	160
628.875	1	149
629.044	1	143
629.214	1	152
629.384	1	140
629.553	1	154
629.723	1	153
629.892	1	152
630.062	1	157
630.232	1	147
630.401	1	164
630.571	1	165
630.740	1	161
630.910	1	167
631.079	1	173
631.249	1	174
631.419	1	155
631.588	1	162
631.758	1	160
631.927	1	176
632.097	1	166
632.266	1	164
632.436	1	179
632.606	1	174
632.775	1	160
632.945	1	158
633.114	1	182
633.284	1	162
633.453	1	173
633.623	1	172
633.793	1	175
633.962	1	176
634.132	1	176
634.301	1	186
634.471	1	161
634.640	1	172
634.810	1	190
634.979	1	168
635.149	1	174
635.319	1	190
635.488	1	183
635.658	1	193
635.827	1	182
635.997	1	196
636.166	1	190
636.336	1	167
636.505	1	178
636.675	1	191
636.845	1	182
637.014	1	183
637.184	1	173
637.353	1	200
637.523	1	197
637.692	1	181
637.862	1	197
638.031	1	187
638.201	1	187
638.370	1	198
638.540	1	186
638.710	1	181
638.879	1	194
639.049	1	190
639.218	1	185
639.388	1	198
639.557	1	181
639.727	1	187
639.896	1	194
640.066	1	203
640.235	1	178
640.405	1	186
640.574	1	208
640.744	1	199
640.914	1	194
641.083	1	213
641.253	1	189
641.422	1	197
641.592	1	191
641.761	1	190
641.931	1	201
642.100	1	200
642.270	1	169
642.439	1	205
642.609	1	202
642.778	1	204
642.948	1	194
643.117	1	199
643.287	1	191
643.456	1	195
643.626	1	190
643.795	1	192
643.965	1	198
644.134	1	201
644.304	1	198
644.473	1	197
644.643	1	186
644.812	1	193
644.982	1	208
645.151	1	189
645.321	1	198
645.490	1	199
645.660	1	209
645.829	1	198
645.999	1	198
646.168	1	205
646.338	1	180
646.507	1	202
646.677	1	200
646.846	1	199
647.016	1	200
647.185	1	198
647.355	1	209
647.524	1	198
647.694	1	205
647.863	1	198
648.033	1	200
648.202	1	199
648.372	1	198
648.541	1	209
648.711	1	186
648.880	1	214
649.050	1	203
649.219	1	204
649.389	1	201
649.558	1	197
649.728	1	200
649.897	1	205
650.067	1	192
650.236	1	207
650.406	1	192
650.575	1	188
650.745	1	206
650.914	1	211
651.084	1	194
651.253	1	194
651.423	1	208
651.592	1	193
651.762	1	209
651.931	1	212
652.101	1	202
652.270	1	187
652.440	1	207
652.609	1	210
652.778	1	205
652.948	1	192
653.117	1	197
653.287	1	206
653.456	1	207
653.626	1	197
653.795	1	204
653.965	1	208
654.134	1	193
654.304	1	203
654.473	1	194
654.643	1	204
654.812	1	201
654.982	1	201
655.151	1	203
655.320	1	201
655.490	1	190
655.659	1	197
655.829	1	185
655.998	1	204
656.168	1	194
656.337	1	205
656.507	1	190
656.676	1	200
656.846	1	193
657.015	1	177
657.184	1	202
657.354	1	200
657.523	1	174
657.693	1	196
657.862	1	186
658.032	1	193
658.201	1	192
658.371	1	192
658.540	1	188
658.709	1	192
658.879	1	178
659.048	1	189
659.218	1	188
659.387	1	196
659.557	1	176
659.726	1	177
659.895	1	190
660.065	1	188
660.234	1	190
660.404	1	194
660.573	1	193
660.743	1	185
660.912	1	184
661.081	1	178
661.251	1	176
661.420	1	173
661.590	1	172
661.759	1	166
661.929	1	180
662.098	1	179
662.267	1	182
662.437	1	174
662.606	1	172
662.776	1	175
662.945	1	181
663.115	1	187
663.284	1	164
663.453	1	181
663.623	1	153
663.792	1	166
663.962	1	173
664.131	1	188
664.300	1	177
664.470	1	182
664.639	1	176
664.809	1	174
664.978	1	187
665.148	1	174
665.317	1	170
665.486	1	148
665.656	1	182
665.825	1	173
665.995	1	155
666.164	1	168
666.333	1	162
666.503	1	177
666.672	1	154
666.842	1	155
667.011	1	167
667.180	1	158
667.350	1	162
667.519	1	148
667.689	1	170
667.858	1	168
668.027	1	173
668.197	1	159
668.366	1	158
668.536	1	162
668.705	1	154
668.874	1	149
669.044	1	152
669.213	1	151
669.382	1	144
669.552	1	157
669.721	1	132
669.891	1	156
670.060	1	153
670.229	1	148
670.399	1	166
670.568	1	136
670.738	1	146
670.907	1	155
671.076	1	157
671.246	1	150
671.415	1	159
671.584	1	142
671.754	1	140
671.923	1	156
672.093	1	144
672.262	1	159
672.431	1	145
672.601	1	144
672.770	1	136
672.939	1	145
673.109	1	136
673.278	1	135
673.448	1	148
673.617	1	137
673.786	1	133
