325.333	1	153
325.504	1	162
325.675	1	164
325.846	1	160
326.017	1	163
326.188	1	179
326.359	1	191
326.531	1	172
326.702	1	178
326.873	1	176
327.044	1	178
327.215	1	190
327.386	1	187
327.557	1	199
327.728	1	190
327.899	1	196
328.070	1	203
328.241	1	187
328.412	1	209
328.583	1	208
328.754	1	208
328.926	1	210
329.097	1	205
329.268	1	219
329.439	1	204
329.610	1	208
329.781	1	218
329.952	1	222
330.123	1	230
330.294	1	231
330.465	1	227
330.636	1	234
330.807	1	221
330.978	1	236
331.149	1	232
331.320	1	234
331.492	1	224
331.663	1	244
331.834	1	243
332.005	1	255
332.176	1	254
332.347	1	263
332.518	1	258
332.689	1	252
332.860	1	244
333.031	1	259
333.202	1	240
333.373	1	247
333.544	1	249
333.715	1	251
333.886	1	242
334.057	1	267
334.228	1	246
334.399	1	268
334.570	1	244
334.741	1	275
334.912	1	252
335.084	1	274
335.255	1	254
335.426	1	272
335.597	1	267
335.768	1	266
335.939	1	277
336.110	1	268
336.281	1	261
336.452	1	280
336.623	1	284
336.794	1	271
336.965	1	282
337.136	1	278
337.307	1	289
337.478	1	261
337.649	1	290
337.820	1	294
337.991	1	274
338.162	1	280
338.333	1	293
338.504	1	302
338.675	1	287
338.846	1	296
339.017	1	286
339.188	1	292
339.359	1	295
339.530	1	288
339.701	1	296
339.872	1	302
340.043	1	287
340.214	1	286
340.385	1	273
340.556	1	288
340.727	1	304
340.898	1	287
341.069	1	279
341.240	1	279
341.411	1	297
341.582	1	283
341.753	1	285
341.924	1	300
342.095	1	285
342.266	1	280
342.437	1	289
342.608	1	276
342.779	1	289
342.950	1	284
343.121	1	296
343.292	1	284
343.463	1	302
343.634	1	285
343.805	1	277
343.976	1	270
344.147	1	280
344.318	1	280
344.489	1	281
344.660	1	261
344.831	1	271
345.002	1	287
345.173	1	268
345.344	1	270
345.515	1	264
345.686	1	273
345.857	1	267
346.028	1	263
346.199	1	271
346.370	1	272
346.541	1	267
346.712	1	266
346.883	1	260
347.054	1	268
347.225	1	278
347.396	1	275
347.567	1	280
347.738	1	262
347.909	1	274
348.080	1	255
348.251	1	253
348.422	1	261
348.593	1	258
348.764	1	256
348.935	1	254
349.106	1	242
349.277	1	244
349.448	1	245
349.619	1	238
349.790	1	250
349.961	1	247
350.132	1	247
350.303	1	244
350.474	1	232
350.645	1	251
350.816	1	234
350.987	1	228
351.157	1	234
351.328	1	222
351.499	1	228
351.670	1	235
351.841	1	250
352.012	1	229
352.183	1	225
352.354	1	244
352.525	1	212
352.696	1	231
352.867	1	204
353.038	1	230
353.209	1	211
353.380	1	216
353.551	1	226
353.722	1	198
353.893	1	223
354.064	1	210
354.235	1	215
354.406	1	221
354.576	1	199
354.747	1	204
354.918	1	199
355.089	1	202
355.260	1	202
355.431	1	184
355.602	1	189
355.773	1	189
355.944	1	203
356.115	1	181
356.286	1	194
356.457	1	201
356.628	1	179
356.799	1	179
356.970	1	178
357.141	1	188
357.311	1	174
357.482	1	185
357.653	1	174
357.824	1	175
357.995	1	184
358.166	1	165
358.337	1	179
358.508	1	171
358.679	1	157
358.850	1	163
359.021	1	147
359.192	1	166
359.363	1	178
359.533	1	165
359.704	1	162
359.875	1	161
360.046	1	165
360.217	1	162
360.388	1	148
360.559	1	142
360.730	1	142
360.901	1	143
361.072	1	143
361.243	1	149
361.414	1	134
361.584	1	158
361.755	1	141
361.926	1	126
362.097	1	135
362.268	1	121
362.439	1	133
362.610	1	144
362.781	1	135
362.952	1	127
363.123	1	117
363.293	1	118
363.464	1	128
363.635	1	131
363.806	1	114
363.977	1	116
364.148	1	117
364.319	1	114
364.490	1	107
364.661	1	118
364.832	1	113
365.002	1	114
365.173	1	113
365.344	1	111
365.515	1	111
365.686	1	99
365.857	1	112
366.028	1	100
366.199	1	108
366.370	1	113
366.540	1	98
366.711	1	101
366.882	1	111
367.053	1	105
367.224	1	99
367.395	1	103
367.566	1	87
367.737	1	104
367.908	1	102
368.078	1	106
368.249	1	106
368.420	1	109
368.591	1	95
368.762	1	88
368.933	1	92
369.104	1	95
369.274	1	95
369.445	1	94
369.616	1	77
369.787	1	97
369.958	1	90
370.129	1	80
370.300	1	88
370.471	1	92
370.641	1	82
370.812	1	90
370.983	1	92
371.154	1	96
371.325	1	87
371.496	1	90
371.667	1	82
371.837	1	84
372.008	1	94
372.179	1	77
372.350	1	81
372.521	1	96
372.692	1	66
372.863	1	80
373.033	1	85
373.204	1	83
373.375	1	78
373.546	1	102
373.717	1	71
373.888	1	90
374.059	1	73
374.229	1	84
374.400	1	83
374.571	1	74
374.742	1	75
374.913	1	81
375.084	1	81
375.254	1	82
375.425	1	82
375.596	1	88
375.767	1	79
375.938	1	85
376.109	1	68
376.279	1	69
376.450	1	86
376.621	1	84
376.792	1	80
376.963	1	87
377.134	1	87
377.304	1	92
377.475	1	75
377.646	1	87
377.817	1	78
377.988	1	90
378.159	1	90
378.329	1	99
378.500	1	82
378.671	1	90
378.842	1	91
379.013	1	89
379.184	1	86
379.354	1	95
379.525	1	90
379.696	1	86
379.867	1	89
380.038	1	92
380.209	1	79
380.379	1	100
380.550	1	99
380.721	1	90
380.892	1	85
381.063	1	106
381.233	1	99
381.404	1	101
381.575	1	104
381.746	1	96
381.917	1	111
382.087	1	99
382.258	1	106
382.429	1	108
382.600	1	104
382.771	1	103
382.941	1	109
383.112	1	111
383.283	1	117
383.454	1	108
383.625	1	115
383.795	1	114
383.966	1	104
384.137	1	109
384.308	1	120
384.479	1	128
384.649	1	111
384.820	1	124
384.991	1	112
385.162	1	124
385.333	1	125
385.503	1	126
385.674	1	126
385.845	1	117
386.016	1	118
386.187	1	122
386.357	1	126
386.528	1	124
386.699	1	136
386.870	1	143
387.041	1	115
387.211	1	159
387.382	1	132
387.553	1	143
387.724	1	143
387.894	1	147
388.065	1	146
388.236	1	158
388.407	1	171
388.578	1	156
388.748	1	153
388.919	1	136
389.090	1	167
389.261	1	168
389.431	1	138
389.602	1	171
389.773	1	172
389.944	1	164
390.114	1	166
390.285	1	164
390.456	1	185
390.627	1	182
390.798	1	172
390.968	1	174
391.139	1	172
391.310	1	163
391.481	1	188
391.651	1	196
391.822	1	183
391.993	1	175
392.164	1	184
392.334	1	194
392.505	1	187
392.676	1	193
392.847	1	193
393.017	1	193
393.188	1	196
393.359	1	206
393.530	1	212
393.700	1	205
393.871	1	195
394.042	1	212
394.213	1	218
394.383	1	214
394.554	1	218
394.725	1	223
394.896	1	224
395.066	1	197
395.237	1	228
395.408	1	226
395.579	1	235
395.749	1	231
395.920	1	235
396.091	1	233
396.262	1	243
396.432	1	237
396.603	1	254
396.774	1	230
396.945	1	240
397.115	1	255
397.286	1	244
397.457	1	254
397.627	1	252
397.798	1	260
397.969	1	252
398.140	1	261
398.310	1	261
398.481	1	261
398.652	1	259
398.823	1	259
398.993	1	288
399.164	1	271
399.335	1	265
399.505	1	286
399.676	1	276
399.847	1	284
400.018	1	296
400.188	1	285
400.359	1	291
400.530	1	288
400.700	1	297
400.871	1	319
401.042	1	298
401.213	1	309
401.383	1	312
401.554	1	313
401.725	1	301
401.895	1	305
402.066	1	322
402.237	1	328
402.408	1	333
402.578	1	335
402.749	1	336
402.920	1	343
403.090	1	335
403.261	1	322
403.432	1	335
403.603	1	331
403.773	1	348
403.944	1	354
404.115	1	344
404.285	1	352
404.456	1	355
404.627	1	366
404.797	1	345
404.968	1	361
405.139	1	369
405.310	1	375
405.480	1	376
405.651	1	370
405.822	1	378
405.992	1	382
406.163	1	379
406.334	1	371
406.504	1	373
406.675	1	388
406.846	1	375
407.016	1	367
407.187	1	390
407.358	1	388
407.528	1	379
407.699	1	397
407.870	1	401
408.041	1	406
408.211	1	387
408.382	1	426
408.553	1	418
408.723	1	408
408.894	1	411
409.065	1	404
409.235	1	433
409.406	1	420
409.577	1	419
409.747	1	409
409.918	1	453
410.089	1	427
410.259	1	446
410.430	1	426
410.601	1	436
410.771	1	434
410.942	1	462
411.113	1	448
411.283	1	447
411.454	1	430
411.625	1	452
411.795	1	449
411.966	1	454
412.137	1	460
412.307	1	462
412.478	1	477
412.649	1	457
412.819	1	452
412.990	1	429
413.161	1	446
413.331	1	453
413.502	1	469
413.672	1	457
413.843	1	477
414.014	1	471
414.184	1	483
414.355	1	467
414.526	1	491
414.696	1	470
414.867	1	477
415.038	1	487
415.208	1	478
415.379	1	505
415.550	1	473
415.720	1	463
415.891	1	486
416.062	1	470
416.232	1	495
416.403	1	505
416.573	1	480
416.744	1	492
416.915	1	500
417.085	1	526
417.256	1	507
417.427	1	507
417.597	1	505
417.768	1	513
417.939	1	510
418.109	1	495
418.280	1	506
418.450	1	523
418.621	1	496
418.792	1	514
418.962	1	498
419.133	1	510
419.304	1	511
419.474	1	514
419.645	1	505
419.815	1	510
419.986	1	487
420.157	1	517
420.327	1	505
420.498	1	508
420.669	1	497
420.839	1	501
421.010	1	501
421.180	1	493
421.351	1	503
421.522	1	500
421.692	1	502
421.863	1	506
422.033	1	510
422.204	1	503
422.375	1	505
422.545	1	517
422.716	1	489
422.886	1	510
423.057	1	503
423.228	1	525
423.398	1	513
423.569	1	515
423.740	1	501
423.910	1	507
424.081	1	518
424.251	1	497
424.422	1	516
424.593	1	514
424.763	1	504
424.934	1	511
425.104	1	509
425.275	1	509
425.445	1	507
425.616	1	514
425.787	1	513
425.957	1	517
426.128	1	525
426.298	1	517
426.469	1	496
426.640	1	516
426.810	1	531
426.981	1	514
427.151	1	520
427.322	1	517
427.493	1	512
427.663	1	529
427.834	1	510
428.004	1	512
428.175	1	520
428.345	1	515
428.516	1	504
428.687	1	523
428.857	1	532
429.028	1	512
429.198	1	506
429.369	1	510
429.540	1	505
429.710	1	513
429.881	1	494
430.051	1	514
430.222	1	497
430.392	1	511
430.563	1	523
430.734	1	526
430.904	1	508
431.075	1	511
431.245	1	511
431.416	1	516
431.586	1	513
431.757	1	504
431.927	1	520
432.098	1	518
432.269	1	484
432.439	1	516
432.610	1	514
432.780	1	504
432.951	1	494
433.121	1	515
433.292	1	485
433.462	1	497
433.633	1	486
433.804	1	499
433.974	1	493
434.145	1	491
434.315	1	495
434.486	1	508
434.656	1	498
434.827	1	495
434.997	1	508
435.168	1	515
435.339	1	499
435.509	1	512
435.680	1	504
435.850	1	492
436.021	1	503
436.191	1	507
436.362	1	485
436.532	1	505
436.703	1	505
436.873	1	498
437.044	1	487
437.214	1	502
437.385	1	475
437.556	1	489
437.726	1	472
437.897	1	484
438.067	1	469
438.238	1	477
438.408	1	479
438.579	1	476
438.749	1	479
438.920	1	470
439.090	1	464
439.261	1	459
439.431	1	471
439.602	1	462
439.772	1	473
439.943	1	460
440.113	1	470
440.284	1	458
440.455	1	471
440.625	1	456
440.796	1	462
440.966	1	474
441.137	1	467
441.307	1	444
441.478	1	451
441.648	1	457
441.819	1	459
441.989	1	445
442.160	1	447
442.330	1	449
442.501	1	459
442.671	1	456
442.842	1	446
443.012	1	443
443.183	1	441
443.353	1	445
443.524	1	420
443.694	1	432
443.865	1	422
444.035	1	418
444.206	1	417
444.376	1	432
444.547	1	416
444.717	1	438
444.888	1	412
445.058	1	426
445.229	1	415
445.399	1	421
445.570	1	421
445.740	1	416
445.911	1	399
446.081	1	426
446.252	1	406
446.422	1	408
446.593	1	414
446.763	1	402
446.934	1	404
447.104	1	391
447.275	1	393
447.445	1	413
447.616	1	395
447.786	1	392
447.957	1	398
448.127	1	387
448.298	1	385
448.468	1	389
448.639	1	394
448.809	1	390
448.979	1	390
449.150	1	373
449.320	1	378
449.491	1	388
449.661	1	384
449.832	1	379
450.002	1	386
450.173	1	386
450.343	1	380
450.514	1	377
450.684	1	381
450.855	1	372
451.025	1	360
451.196	1	354
451.366	1	362
451.537	1	355
451.707	1	345
451.878	1	362
452.048	1	361
452.218	1	349
452.389	1	351
452.559	1	333
452.730	1	352
452.900	1	348
453.071	1	333
453.241	1	345
453.412	1	352
453.582	1	340
453.753	1	340
453.923	1	344
454.093	1	357
454.264	1	337
454.434	1	339
454.605	1	325
454.775	1	334
454.946	1	319
455.116	1	320
455.287	1	322
455.457	1	326
455.628	1	324
455.798	1	326
455.968	1	321
456.139	1	307
456.309	1	303
456.480	1	308
456.650	1	308
456.821	1	311
456.991	1	301
457.161	1	291
457.332	1	298
457.502	1	292
457.673	1	292
457.843	1	304
458.014	1	288
458.184	1	291
458.355	1	294
458.525	1	283
458.695	1	288
458.866	1	275
459.036	1	276
459.207	1	282
459.377	1	279
459.548	1	266
459.718	1	268
459.888	1	266
460.059	1	273
460.229	1	268
460.400	1	246
460.570	1	256
460.740	1	258
460.911	1	260
461.081	1	269
461.252	1	264
461.422	1	278
461.593	1	247
461.763	1	259
461.933	1	268
462.104	1	257
462.274	1	245
462.445	1	249
462.615	1	248
462.785	1	248
462.956	1	246
463.126	1	252
463.297	1	242
463.467	1	232
463.638	1	232
463.808	1	221
463.978	1	247
464.149	1	239
464.319	1	224
464.490	1	230
464.660	1	224
464.830	1	235
465.001	1	219
465.171	1	232
465.342	1	233
465.512	1	238
465.682	1	234
465.853	1	218
466.023	1	198
466.194	1	214
466.364	1	212
466.534	1	227
466.705	1	222
466.875	1	200
467.045	1	195
467.216	1	201
467.386	1	210
467.557	1	206
467.727	1	210
467.897	1	202
468.068	1	202
468.238	1	198
468.409	1	191
468.579	1	212
468.749	1	192
468.920	1	199
469.090	1	182
469.260	1	198
469.431	1	183
469.601	1	190
469.772	1	185
469.942	1	186
470.112	1	179
470.283	1	197
470.453	1	184
470.623	1	185
470.794	1	173
470.964	1	194
471.135	1	165
471.305	1	194
471.475	1	186
471.646	1	167
471.816	1	169
471.986	1	180
472.157	1	169
472.327	1	156
472.497	1	175
472.668	1	176
472.838	1	167
473.009	1	163
473.179	1	165
473.349	1	168
473.520	1	163
473.690	1	172
473.860	1	163
474.031	1	162
474.201	1	152
474.371	1	167
474.542	1	150
474.712	1	152
474.882	1	152
475.053	1	151
475.223	1	143
475.394	1	147
475.564	1	145
475.734	1	158
475.905	1	153
476.075	1	149
476.245	1	156
476.416	1	156
476.586	1	122
476.756	1	144
476.927	1	135
477.097	1	142
477.267	1	148
477.438	1	145
477.608	1	133
477.778	1	135
477.949	1	131
478.119	1	133
478.289	1	140
478.460	1	129
478.630	1	136
478.800	1	134
478.971	1	137
479.141	1	124
479.311	1	140
479.482	1	134
479.652	1	136
479.822	1	122
479.993	1	123
480.163	1	134
480.333	1	120
480.504	1	121
480.674	1	119
480.844	1	129
481.015	1	114
481.185	1	124
481.355	1	120
481.525	1	119
481.696	1	117
481.866	1	122
482.036	1	115
482.207	1	108
482.377	1	121
482.547	1	111
482.718	1	111
482.888	1	113
483.058	1	123
483.229	1	121
483.399	1	118
483.569	1	106
483.740	1	109
483.910	1	105
484.080	1	112
484.250	1	103
484.421	1	111
484.591	1	114
484.761	1	110
484.932	1	112
485.102	1	112
485.272	1	91
485.443	1	103
485.613	1	108
485.783	1	103
485.953	1	110
486.124	1	105
486.294	1	104
486.464	1	105
486.635	1	90
486.805	1	106
486.975	1	105
487.146	1	93
487.316	1	91
487.486	1	93
487.656	1	114
487.827	1	81
487.997	1	99
488.167	1	87
488.338	1	100
488.508	1	100
488.678	1	98
488.848	1	92
489.019	1	92
489.189	1	93
489.359	1	90
489.529	1	80
489.700	1	81
489.870	1	88
490.040	1	82
490.211	1	94
490.381	1	93
490.551	1	83
490.721	1	88
490.892	1	84
491.062	1	94
491.232	1	93
491.402	1	75
491.573	1	78
491.743	1	79
491.913	1	87
492.084	1	80
492.254	1	96
492.424	1	76
492.594	1	86
492.765	1	80
492.935	1	67
493.105	1	71
493.275	1	84
493.446	1	82
493.616	1	74
493.786	1	73
493.956	1	68
494.127	1	82
494.297	1	71
494.467	1	67
494.637	1	74
494.808	1	77
494.978	1	68
495.148	1	66
495.318	1	62
495.489	1	67
495.659	1	68
495.829	1	61
495.999	1	88
496.170	1	58
496.340	1	76
496.510	1	67
496.680	1	63
496.851	1	69
497.021	1	57
497.191	1	70
497.361	1	68
497.532	1	72
497.702	1	63
497.872	1	75
498.042	1	79
498.213	1	60
498.383	1	60
498.553	1	68
498.723	1	72
498.894	1	66
499.064	1	70
499.234	1	73
499.404	1	63
499.574	1	68
499.745	1	61
499.915	1	75
500.085	1	60
500.255	1	65
500.426	1	55
500.596	1	67
500.766	1	56
500.936	1	68
501.106	1	56
501.277	1	65
501.447	1	56
501.617	1	64
501.787	1	49
501.958	1	65
502.128	1	63
502.298	1	56
502.468	1	60
502.638	1	72
502.809	1	61
502.979	1	58
503.149	1	69
503.319	1	57
503.489	1	59
503.660	1	54
503.830	1	48
504.000	1	47
504.170	1	70
504.340	1	58
504.511	1	52
504.681	1	60
504.851	1	66
505.021	1	46
505.192	1	51
505.362	1	63
505.532	1	64
505.702	1	57
505.872	1	59
506.043	1	50
506.213	1	67
506.383	1	52
506.553	1	60
506.723	1	56
506.893	1	48
507.064	1	47
507.234	1	52
507.404	1	55
507.574	1	47
507.744	1	44
507.915	1	41
508.085	1	55
508.255	1	61
508.425	1	43
508.595	1	54
508.766	1	56
508.936	1	47
509.106	1	46
509.276	1	45
509.446	1	39
509.616	1	58
509.787	1	48
509.957	1	48
510.127	1	45
510.297	1	53
510.467	1	52
510.638	1	49
510.808	1	66
510.978	1	51
511.148	1	46
511.318	1	52
511.488	1	55
511.659	1	48
511.829	1	48
511.999	1	49
512.169	1	43
512.339	1	43
512.509	1	48
512.680	1	54
512.850	1	52
513.020	1	48
513.190	1	57
513.360	1	39
513.530	1	38
513.700	1	44
513.871	1	41
514.041	1	35
514.211	1	42
514.381	1	58
514.551	1	33
514.721	1	49
514.892	1	49
515.062	1	40
515.232	1	35
515.402	1	53
515.572	1	32
515.742	1	39
515.912	1	49
516.083	1	45
516.253	1	44
516.423	1	35
516.593	1	41
516.763	1	43
516.933	1	47
517.104	1	46
517.274	1	32
517.444	1	36
517.614	1	41
517.784	1	42
517.954	1	31
518.124	1	51
518.294	1	37
518.465	1	36
518.635	1	48
518.805	1	47
518.975	1	33
519.145	1	40
519.315	1	38
519.485	1	44
519.656	1	25
519.826	1	37
519.996	1	42
520.166	1	36
520.336	1	40
520.506	1	32
520.676	1	44
520.846	1	40
521.017	1	32
521.187	1	45
521.357	1	42
521.527	1	33
521.697	1	40
521.867	1	35
522.037	1	23
522.207	1	47
522.377	1	36
522.548	1	41
522.718	1	27
522.888	1	39
523.058	1	51
523.228	1	41
523.398	1	31
523.568	1	34
523.738	1	31
523.909	1	44
524.079	1	42
524.249	1	37
524.419	1	30
524.589	1	41
524.759	1	37
524.929	1	46
525.099	1	41
525.269	1	37
525.439	1	34
525.610	1	45
525.780	1	25
525.950	1	30
526.120	1	29
526.290	1	35
526.460	1	37
526.630	1	45
526.800	1	42
526.970	1	26
527.140	1	25
527.311	1	34
527.481	1	32
527.651	1	41
527.821	1	29
527.991	1	39
528.161	1	32
528.331	1	27
528.501	1	35
528.671	1	36
528.841	1	34
529.011	1	30
529.181	1	32
529.352	1	29
529.522	1	31
529.692	1	31
529.862	1	35
530.032	1	28
530.202	1	36
530.372	1	34
530.542	1	31
530.712	1	38
530.882	1	29
531.052	1	48
531.222	1	31
531.392	1	33
531.563	1	32
531.733	1	26
531.903	1	42
532.073	1	32
532.243	1	32
532.413	1	35
532.583	1	37
532.753	1	43
532.923	1	27
533.093	1	21
533.263	1	33
533.433	1	41
533.603	1	36
533.773	1	33
533.943	1	50
534.113	1	30
534.284	1	27
534.454	1	35
534.624	1	32
534.794	1	34
534.964	1	35
535.134	1	30
535.304	1	35
535.474	1	30
535.644	1	17
535.814	1	33
535.984	1	30
536.154	1	27
536.324	1	40
536.494	1	24
536.664	1	38
536.834	1	36
537.004	1	41
537.174	1	27
537.344	1	36
537.514	1	28
537.685	1	30
537.855	1	32
538.025	1	29
538.195	1	37
538.365	1	30
538.535	1	34
538.705	1	38
538.875	1	28
539.045	1	24
539.215	1	28
539.385	1	27
539.555	1	44
539.725	1	21
539.895	1	22
540.065	1	38
540.235	1	26
540.405	1	28
540.575	1	30
540.745	1	33
540.915	1	25
541.085	1	32
541.255	1	23
541.425	1	27
541.595	1	27
541.765	1	23
541.935	1	20
542.105	1	35
542.275	1	29
542.445	1	18
542.615	1	31
542.785	1	26
542.955	1	34
543.125	1	22
543.295	1	22
543.465	1	29
543.635	1	24
543.805	1	24
543.975	1	26
544.145	1	24
544.315	1	23
544.485	1	27
544.655	1	37
544.825	1	31
544.995	1	38
545.165	1	28
545.335	1	30
545.505	1	30
545.675	1	42
545.845	1	22
546.015	1	28
546.185	1	30
546.355	1	37
546.525	1	30
546.695	1	23
546.865	1	27
547.035	1	25
547.205	1	40
547.375	1	34
547.545	1	22
547.715	1	27
547.885	1	21
548.055	1	32
548.225	1	39
548.395	1	26
548.565	1	27
548.735	1	34
548.905	1	18
549.075	1	26
549.245	1	12
549.415	1	12
549.585	1	31
549.755	1	23
549.925	1	25
550.095	1	36
550.265	1	20
550.435	1	19
550.605	1	26
550.775	1	23
550.945	1	27
551.115	1	18
551.285	1	11
551.455	1	26
551.625	1	29
551.795	1	19
551.965	1	23
552.135	1	25
552.305	1	35
552.475	1	36
552.645	1	29
552.815	1	25
552.985	1	37
553.155	1	24
553.325	1	18
553.495	1	28
553.665	1	31
553.835	1	17
554.004	1	21
554.174	1	23
554.344	1	24
554.514	1	27
554.684	1	17
554.854	1	22
555.024	1	34
555.194	1	32
555.364	1	34
555.534	1	31
555.704	1	29
555.874	1	21
556.044	1	22
556.214	1	34
556.384	1	23
556.554	1	18
556.724	1	19
556.894	1	14
557.064	1	31
557.234	1	25
557.404	1	17
557.573	1	31
557.743	1	25
557.913	1	20
558.083	1	21
558.253	1	25
558.423	1	21
558.593	1	31
558.763	1	31
558.933	1	25
559.103	1	24
559.273	1	28
559.443	1	20
559.613	1	28
559.783	1	24
559.953	1	21
560.122	1	12
560.292	1	16
560.462	1	18
560.632	1	30
560.802	1	31
560.972	1	22
561.142	1	27
561.312	1	18
561.482	1	21
561.652	1	14
561.822	1	19
561.992	1	29
562.162	1	26
562.331	1	31
562.501	1	30
562.671	1	20
562.841	1	11
563.011	1	31
563.181	1	19
563.351	1	26
563.521	1	20
563.691	1	22
563.861	1	21
564.031	1	28
564.201	1	29
564.370	1	9
564.540	1	26
564.710	1	10
564.880	1	20
565.050	1	19
565.220	1	25
565.390	1	17
565.560	1	34
565.730	1	24
565.900	1	21
566.069	1	10
566.239	1	27
566.409	1	28
566.579	1	12
566.749	1	15
566.919	1	19
567.089	1	22
567.259	1	16
567.429	1	36
567.599	1	23
567.768	1	26
567.938	1	29
568.108	1	15
568.278	1	33
568.448	1	25
568.618	1	21
568.788	1	21
568.958	1	22
569.128	1	20
569.297	1	38
569.467	1	18
569.637	1	19
569.807	1	35
569.977	1	21
570.147	1	11
570.317	1	21
570.487	1	33
570.656	1	13
570.826	1	18
570.996	1	19
571.166	1	12
571.336	1	8
571.506	1	26
571.676	1	14
571.846	1	17
572.015	1	13
572.185	1	22
572.355	1	30
572.525	1	18
572.695	1	12
572.865	1	34
573.035	1	13
573.205	1	21
573.374	1	17
573.544	1	18
573.714	1	17
573.884	1	16
574.054	1	30
574.224	1	22
574.394	1	21
574.563	1	16
574.733	1	29
574.903	1	15
575.073	1	12
575.243	1	24
575.413	1	-7
575.583	1	16
575.752	1	28
575.922	1	24
576.092	1	16
576.262	1	16
576.432	1	20
576.602	1	19
576.772	1	13
576.941	1	29
577.111	1	27
577.281	1	18
577.451	1	20
577.621	1	31
577.791	1	18
577.960	1	21
578.130	1	21
578.300	1	25
578.470	1	13
578.640	1	27
578.810	1	18
578.979	1	9
579.149	1	33
579.319	1	21
579.489	1	17
579.659	1	20
579.829	1	21
579.998	1	17
580.168	1	31
580.338	1	36
580.508	1	17
580.678	1	13
580.848	1	34
581.017	1	19
581.187	1	19
581.357	1	25
581.527	1	17
581.697	1	7
581.867	1	19
582.036	1	26
582.206	1	22
582.376	1	11
582.546	1	25
582.716	1	26
582.885	1	25
583.055	1	24
583.225	1	16
583.395	1	21
583.565	1	26
583.735	1	20
583.904	1	25
584.074	1	23
584.244	1	3
584.414	1	29
584.584	1	18
584.753	1	11
584.923	1	21
585.093	1	22
585.263	1	18
585.433	1	15
585.602	1	30
585.772	1	35
585.942	1	30
586.112	1	22
586.282	1	22
586.451	1	27
586.621	1	26
586.791	1	26
586.961	1	17
587.131	1	23
587.300	1	38
587.470	1	12
587.640	1	19
587.810	1	31
587.980	1	30
588.149	1	37
588.319	1	30
588.489	1	21
588.659	1	31
588.829	1	34
588.998	1	29
589.168	1	26
589.338	1	29
589.508	1	22
589.677	1	31
589.847	1	20
590.017	1	23
590.187	1	20
590.357	1	27
590.526	1	22
590.696	1	27
590.866	1	22
591.036	1	39
591.205	1	34
591.375	1	26
591.545	1	38
591.715	1	20
591.885	1	29
592.054	1	26
592.224	1	27
592.394	1	31
592.564	1	33
592.733	1	24
592.903	1	42
593.073	1	33
593.243	1	37
593.412	1	31
593.582	1	22
593.752	1	35
593.922	1	34
594.091	1	18
594.261	1	27
594.431	1	28
594.601	1	21
594.771	1	26
594.940	1	43
595.110	1	39
595.280	1	38
595.450	1	44
595.619	1	33
595.789	1	36
595.959	1	35
596.129	1	44
596.298	1	34
596.468	1	33
596.638	1	32
596.808	1	37
596.977	1	40
597.147	1	39
597.317	1	23
597.487	1	33
597.656	1	19
597.826	1	39
597.996	1	37
598.166	1	39
598.335	1	43
598.505	1	43
598.675	1	44
598.844	1	34
599.014	1	33
599.184	1	32
599.354	1	46
599.523	1	45
599.693	1	41
599.863	1	28
600.033	1	36
600.202	1	39
600.372	1	44
600.542	1	42
600.712	1	37
600.881	1	48
601.051	1	44
601.221	1	50
601.390	1	41
601.560	1	39
601.730	1	42
601.900	1	41
602.069	1	47
602.239	1	31
602.409	1	46
602.578	1	51
602.748	1	45
602.918	1	46
603.088	1	45
603.257	1	52
603.427	1	50
603.597	1	45
603.767	1	55
603.936	1	48
604.106	1	53
604.276	1	55
604.445	1	51
604.615	1	51
604.785	1	69
604.954	1	51
605.124	1	57
605.294	1	58
605.464	1	58
605.633	1	58
605.803	1	52
605.973	1	61
606.142	1	56
606.312	1	64
606.482	1	44
606.652	1	57
606.821	1	62
606.991	1	48
607.161	1	55
607.330	1	57
607.500	1	61
607.670	1	54
607.839	1	65
608.009	1	60
608.179	1	52
608.348	1	60
608.518	1	64
608.688	1	45
608.858	1	64
609.027	1	77
609.197	1	47
609.367	1	58
609.536	1	76
609.706	1	61
609.876	1	71
610.045	1	74
610.215	1	70
610.385	1	67
610.554	1	76
610.724	1	63
610.894	1	73
611.063	1	67
611.233	1	58
611.403	1	75
611.572	1	74
611.742	1	66
611.912	1	70
612.081	1	76
612.251	1	72
612.421	1	70
612.590	1	68
612.760	1	75
612.930	1	71
613.099	1	72
613.269	1	74
613.439	1	85
613.608	1	67
613.778	1	79
613.948	1	72
614.117	1	76
614.287	1	79
614.457	1	77
614.626	1	88
614.796	1	70
614.966	1	83
615.135	1	84
615.305	1	88
615.475	1	83
615.644	1	81
615.814	1	73
615.984	1	82
616.153	1	85
616.323	1	85
616.493	1	80
616.662	1	86
616.832	1	87
617.002	1	98
617.171	1	85
617.341	1	90
617.511	1	92
617.680	1	88
617.850	1	101
618.019	1	86
618.189	1	109
618.359	1	92
618.528	1	95
618.698	1	103
618.868	1	98
619.037	1	89
619.207	1	97
619.377	1	99
619.546	1	102
619.716	1	95
619.885	1	104
620.055	1	109
620.225	1	100
620.394	1	105
620.564	1	94
620.734	1	104
620.903	1	116
621.073	1	105
621.242	1	114
621.412	1	103
621.582	1	103
621.751	1	103
621.921	1	101
622.091	1	108
622.260	1	104
622.430	1	115
622.599	1	99
622.769	1	106
622.939	1	96
623.108	1	115
623.278	1	109
623.448	1	117
623.617	1	104
623.787	1	107
623.956	1	115
624.126	1	122
624.296	1	107
624.465	1	117
624.635	1	103
624.804	1	119
624.974	1	124
625.144	1	129
625.313	1	104
625.483	1	120
625.652	1	110
625.822	1	117
625.992	1	123
626.161	1	116
626.331	1	142
626.501	1	114
626.670	1	133
626.840	1	121
627.009	1	124
627.179	1	134
627.348	1	129
627.518	1	108
627.688	1	116
627.857	1	125
628.027	1	128
628.196	1	126
628.366	1	125
628.536	1	129
628.705	1	120
628.875	1	131
629.044	1	133
629.214	1	120
629.384	1	126
629.553	1	136
629.723	1	120
629.892	1	133
630.062	1	133
630.232	1	126
630.401	1	147
630.571	1	137
630.740	1	131
630.910	1	151
631.079	1	142
631.249	1	141
631.419	1	141
631.588	1	129
631.758	1	142
631.927	1	151
632.097	1	135
632.266	1	132
632.436	1	137
632.606	1	145
632.775	1	142
632.945	1	133
633.114	1	146
633.284	1	132
633.453	1	136
633.623	1	155
633.793	1	150
633.962	1	142
634.132	1	139
634.301	1	146
634.471	1	143
634.640	1	137
634.810	1	151
634.979	1	149
635.149	1	152
635.319	1	145
635.488	1	153
635.658	1	160
635.827	1	158
635.997	1	167
636.166	1	148
636.336	1	144
636.505	1	155
636.675	1	134
636.845	1	158
637.014	1	147
637.184	1	165
637.353	1	156
637.523	1	150
637.692	1	156
637.862	1	161
638.031	1	157
638.201	1	149
638.370	1	172
638.540	1	142
638.710	1	161
638.879	1	167
639.049	1	167
639.218	1	168
639.388	1	159
639.557	1	144
639.727	1	172
639.896	1	169
640.066	1	151
640.235	1	162
640.405	1	173
640.574	1	174
640.744	1	161
640.914	1	157
641.083	1	172
641.253	1	170
641.422	1	159
641.592	1	171
641.761	1	160
641.931	1	161
642.100	1	174
642.270	1	164
642.439	1	166
642.609	1	183
642.778	1	174
642.948	1	157
643.117	1	159
643.287	1	156
643.456	1	158
643.626	1	181
643.795	1	157
643.965	1	156
644.134	1	163
644.304	1	171
644.473	1	161
644.643	1	155
644.812	1	162
644.982	1	162
645.151	1	154
645.321	1	165
645.490	1	181
645.660	1	180
645.829	1	162
645.999	1	156
646.168	1	159
646.338	1	168
646.507	1	161
646.677	1	168
646.846	1	168
647.016	1	172
647.185	1	155
647.355	1	172
647.524	1	175
647.694	1	175
647.863	1	161
648.033	1	173
648.202	1	187
648.372	1	152
648.541	1	170
648.711	1	160
648.880	1	176
649.050	1	167
649.219	1	176
649.389	1	180
649.558	1	180
649.728	1	161
649.897	1	177
650.067	1	150
650.236	1	156
650.406	1	175
650.575	1	158
650.745	1	157
650.914	1	175
651.084	1	154
651.253	1	174
651.423	1	167
651.592	1	165
651.762	1	176
651.931	1	164
652.101	1	170
652.270	1	174
652.440	1	168
652.609	1	173
652.778	1	163
652.948	1	170
653.117	1	158
653.287	1	164
653.456	1	161
653.626	1	175
653.795	1	158
653.965	1	161
654.134	1	154
654.304	1	160
654.473	1	162
654.643	1	153
654.812	1	173
654.982	1	161
655.151	1	162
655.320	1	189
655.490	1	156
655.659	1	171
655.829	1	160
655.998	1	157
656.168	1	164
656.337	1	155
656.507	1	159
656.676	1	165
656.846	1	163
657.015	1	166
657.184	1	154
657.354	1	166
657.523	1	156
657.693	1	164
657.862	1	152
658.032	1	168
658.201	1	149
658.371	1	163
658.540	1	150
658.709	1	162
658.879	1	178
659.048	1	154
659.218	1	152
659.387	1	147
659.557	1	170
659.726	1	156
659.895	1	163
660.065	1	161
660.234	1	159
660.404	1	175
660.573	1	148
660.743	1	147
660.912	1	144
661.081	1	145
661.251	1	159
661.420	1	140
661.590	1	148
661.759	1	148
661.929	1	140
662.098	1	154
662.267	1	158
662.437	1	137
662.606	1	138
662.776	1	144
662.945	1	140
663.115	1	146
663.284	1	141
663.453	1	149
663.623	1	147
663.792	1	145
663.962	1	147
664.131	1	137
664.300	1	144
664.470	1	142
664.639	1	151
664.809	1	145
664.978	1	149
665.148	1	140
665.317	1	137
665.486	1	135
665.656	1	144
665.825	1	143
665.995	1	130
666.164	1	135
666.333	1	135
666.503	1	155
666.672	1	129
666.842	1	129
667.011	1	152
667.180	1	131
667.350	1	132
667.519	1	129
667.689	1	125
667.858	1	124
668.027	1	147
668.197	1	130
668.366	1	131
668.536	1	138
668.705	1	138
668.874	1	129
669.044	1	134
669.213	1	140
669.382	1	133
669.552	1	132
669.721	1	132
669.891	1	119
670.060	1	127
670.229	1	119
670.399	1	140
670.568	1	120
670.738	1	140
670.907	1	125
671.076	1	123
671.246	1	128
671.415	1	117
671.584	1	125
671.754	1	125
671.923	1	137
672.093	1	127
672.262	1	123
672.431	1	118
672.601	1	129
672.770	1	116
672.939	1	115
673.109	1	104
673.278	1	117
673.448	1	117
673.617	1	128
673.786	1	102
