325.333	1	193
325.504	1	193
325.675	1	178
325.846	1	202
326.017	1	186
326.188	1	196
326.359	1	223
326.531	1	206
326.702	1	211
326.873	1	211
327.044	1	210
327.215	1	207
327.386	1	207
327.557	1	229
327.728	1	229
327.899	1	220
328.070	1	226
328.241	1	226
328.412	1	223
328.583	1	229
328.754	1	238
328.926	1	239
329.097	1	234
329.268	1	247
329.439	1	232
329.610	1	259
329.781	1	243
329.952	1	238
330.123	1	236
330.294	1	257
330.465	1	254
330.636	1	265
330.807	1	261
330.978	1	261
331.149	1	252
331.320	1	255
331.492	1	278
331.663	1	279
331.834	1	270
332.005	1	292
332.176	1	281
332.347	1	287
332.518	1	271
332.689	1	287
332.860	1	283
333.031	1	275
333.202	1	286
333.373	1	285
333.544	1	287
333.715	1	298
333.886	1	302
334.057	1	295
334.228	1	285
334.399	1	299
334.570	1	298
334.741	1	305
334.912	1	291
335.084	1	315
335.255	1	303
335.426	1	317
335.597	1	303
335.768	1	304
335.939	1	328
336.110	1	315
336.281	1	315
336.452	1	315
336.623	1	329
336.794	1	320
336.965	1	320
337.136	1	312
337.307	1	320
337.478	1	304
337.649	1	317
337.820	1	330
337.991	1	313
338.162	1	320
338.333	1	314
338.504	1	328
338.675	1	318
338.846	1	329
339.017	1	330
339.188	1	336
339.359	1	317
339.530	1	313
339.701	1	333
339.872	1	324
340.043	1	324
340.214	1	335
340.385	1	339
340.556	1	314
340.727	1	326
340.898	1	330
341.069	1	316
341.240	1	325
341.411	1	327
341.582	1	322
341.753	1	315
341.924	1	312
342.095	1	312
342.266	1	330
342.437	1	329
342.608	1	321
342.779	1	333
342.950	1	309
343.121	1	319
343.292	1	331
343.463	1	338
343.634	1	316
343.805	1	326
343.976	1	315
344.147	1	315
344.318	1	316
344.489	1	318
344.660	1	323
344.831	1	316
345.002	1	314
345.173	1	320
345.344	1	322
345.515	1	329
345.686	1	318
345.857	1	305
346.028	1	313
346.199	1	312
346.370	1	302
346.541	1	296
346.712	1	299
346.883	1	295
347.054	1	303
347.225	1	292
347.396	1	284
347.567	1	306
347.738	1	303
347.909	1	327
348.080	1	306
348.251	1	298
348.422	1	282
348.593	1	296
348.764	1	299
348.935	1	278
349.106	1	298
349.277	1	290
349.448	1	292
349.619	1	263
349.790	1	280
349.961	1	285
350.132	1	277
350.303	1	284
350.474	1	274
350.645	1	274
350.816	1	260
350.987	1	252
351.157	1	265
351.328	1	259
351.499	1	262
351.670	1	268
351.841	1	276
352.012	1	261
352.183	1	261
352.354	1	269
352.525	1	247
352.696	1	259
352.867	1	238
353.038	1	255
353.209	1	245
353.380	1	232
353.551	1	237
353.722	1	240
353.893	1	250
354.064	1	250
354.235	1	227
354.406	1	250
354.576	1	218
354.747	1	226
354.918	1	236
355.089	1	237
355.260	1	233
355.431	1	229
355.602	1	213
355.773	1	216
355.944	1	216
356.115	1	202
356.286	1	215
356.457	1	206
356.628	1	197
356.799	1	222
356.970	1	203
357.141	1	207
357.311	1	210
357.482	1	191
357.653	1	197
357.824	1	199
357.995	1	199
358.166	1	190
358.337	1	197
358.508	1	203
358.679	1	191
358.850	1	193
359.021	1	173
359.192	1	177
359.363	1	183
359.533	1	190
359.704	1	174
359.875	1	195
360.046	1	326
360.217	1	386
360.388	1	199
360.559	1	157
360.730	1	176
360.901	1	174
361.072	1	152
361.243	1	170
361.414	1	167
361.584	1	168
361.755	1	169
361.926	1	160
362.097	1	171
362.268	1	163
362.439	1	145
362.610	1	151
362.781	1	156
362.952	1	148
363.123	1	130
363.293	1	138
363.464	1	133
363.635	1	136
363.806	1	127
363.977	1	131
364.148	1	128
364.319	1	136
364.490	1	128
364.661	1	136
364.832	1	133
365.002	1	132
365.173	1	117
365.344	1	124
365.515	1	120
365.686	1	108
365.857	1	123
366.028	1	123
366.199	1	121
366.370	1	113
366.540	1	115
366.711	1	111
366.882	1	117
367.053	1	112
367.224	1	113
367.395	1	102
367.566	1	113
367.737	1	114
367.908	1	114
368.078	1	102
368.249	1	108
368.420	1	114
368.591	1	101
368.762	1	106
368.933	1	98
369.104	1	106
369.274	1	100
369.445	1	99
369.616	1	98
369.787	1	93
369.958	1	81
370.129	1	84
370.300	1	90
370.471	1	101
370.641	1	82
370.812	1	86
370.983	1	87
371.154	1	101
371.325	1	93
371.496	1	97
371.667	1	88
371.837	1	85
372.008	1	89
372.179	1	90
372.350	1	84
372.521	1	87
372.692	1	82
372.863	1	92
373.033	1	76
373.204	1	85
373.375	1	87
373.546	1	92
373.717	1	76
373.888	1	80
374.059	1	86
374.229	1	86
374.400	1	82
374.571	1	81
374.742	1	78
374.913	1	77
375.084	1	83
375.254	1	90
375.425	1	77
375.596	1	94
375.767	1	77
375.938	1	79
376.109	1	79
376.279	1	79
376.450	1	87
376.621	1	83
376.792	1	87
376.963	1	82
377.134	1	71
377.304	1	91
377.475	1	74
377.646	1	92
377.817	1	74
377.988	1	87
378.159	1	88
378.329	1	93
378.500	1	78
378.671	1	82
378.842	1	79
379.013	1	85
379.184	1	81
379.354	1	84
379.525	1	81
379.696	1	82
379.867	1	85
380.038	1	94
380.209	1	80
380.379	1	88
380.550	1	90
380.721	1	97
380.892	1	96
381.063	1	91
381.233	1	94
381.404	1	107
381.575	1	95
381.746	1	104
381.917	1	93
382.087	1	96
382.258	1	93
382.429	1	106
382.600	1	97
382.771	1	102
382.941	1	102
383.112	1	106
383.283	1	105
383.454	1	99
383.625	1	107
383.795	1	108
383.966	1	96
384.137	1	116
384.308	1	101
384.479	1	110
384.649	1	120
384.820	1	110
384.991	1	102
385.162	1	102
385.333	1	120
385.503	1	112
385.674	1	122
385.845	1	123
386.016	1	126
386.187	1	118
386.357	1	121
386.528	1	129
386.699	1	121
386.870	1	126
387.041	1	118
387.211	1	130
387.382	1	127
387.553	1	126
387.724	1	132
387.894	1	135
388.065	1	142
388.236	1	135
388.407	1	146
388.578	1	136
388.748	1	134
388.919	1	135
389.090	1	133
389.261	1	147
389.431	1	135
389.602	1	153
389.773	1	150
389.944	1	161
390.114	1	145
390.285	1	156
390.456	1	166
390.627	1	142
390.798	1	152
390.968	1	158
391.139	1	156
391.310	1	182
391.481	1	159
391.651	1	180
391.822	1	178
391.993	1	152
392.164	1	175
392.334	1	175
392.505	1	187
392.676	1	165
392.847	1	185
393.017	1	188
393.188	1	175
393.359	1	182
393.530	1	184
393.700	1	187
393.871	1	188
394.042	1	189
394.213	1	200
394.383	1	198
394.554	1	200
394.725	1	199
394.896	1	208
395.066	1	191
395.237	1	196
395.408	1	193
395.579	1	208
395.749	1	214
395.920	1	208
396.091	1	216
396.262	1	212
396.432	1	215
396.603	1	220
396.774	1	203
396.945	1	220
397.115	1	233
397.286	1	229
397.457	1	220
397.627	1	232
397.798	1	235
397.969	1	240
398.140	1	248
398.310	1	241
398.481	1	227
398.652	1	230
398.823	1	244
398.993	1	264
399.164	1	257
399.335	1	251
399.505	1	259
399.676	1	266
399.847	1	248
400.018	1	252
400.188	1	262
400.359	1	261
400.530	1	265
400.700	1	276
400.871	1	284
401.042	1	283
401.213	1	273
401.383	1	289
401.554	1	271
401.725	1	281
401.895	1	265
402.066	1	296
402.237	1	292
402.408	1	292
402.578	1	286
402.749	1	298
402.920	1	302
403.090	1	302
403.261	1	299
403.432	1	318
403.603	1	324
403.773	1	314
403.944	1	313
404.115	1	311
404.285	1	330
404.456	1	306
404.627	1	328
404.797	1	338
404.968	1	320
405.139	1	310
405.310	1	331
405.480	1	325
405.651	1	344
405.822	1	335
405.992	1	332
406.163	1	329
406.334	1	324
406.504	1	338
406.675	1	343
406.846	1	331
407.016	1	356
407.187	1	314
407.358	1	361
407.528	1	334
407.699	1	359
407.870	1	343
408.041	1	372
408.211	1	365
408.382	1	376
408.553	1	367
408.723	1	371
408.894	1	366
409.065	1	377
409.235	1	385
409.406	1	380
409.577	1	368
409.747	1	388
409.918	1	392
410.089	1	389
410.259	1	384
410.430	1	383
410.601	1	388
410.771	1	388
410.942	1	398
411.113	1	407
411.283	1	394
411.454	1	389
411.625	1	410
411.795	1	405
411.966	1	404
412.137	1	424
412.307	1	400
412.478	1	416
412.649	1	417
412.819	1	395
412.990	1	402
413.161	1	397
413.331	1	408
413.502	1	412
413.672	1	420
413.843	1	417
414.014	1	415
414.184	1	416
414.355	1	441
414.526	1	428
414.696	1	435
414.867	1	420
415.038	1	445
415.208	1	411
415.379	1	435
415.550	1	439
415.720	1	411
415.891	1	441
416.062	1	427
416.232	1	435
416.403	1	444
416.573	1	441
416.744	1	437
416.915	1	453
417.085	1	448
417.256	1	449
417.427	1	444
417.597	1	440
417.768	1	438
417.939	1	443
418.109	1	438
418.280	1	459
418.450	1	438
418.621	1	456
418.792	1	449
418.962	1	455
419.133	1	445
419.304	1	459
419.474	1	440
419.645	1	471
419.815	1	430
419.986	1	442
420.157	1	463
420.327	1	441
420.498	1	439
420.669	1	452
420.839	1	427
421.010	1	470
421.180	1	447
421.351	1	448
421.522	1	447
421.692	1	453
421.863	1	447
422.033	1	441
422.204	1	445
422.375	1	449
422.545	1	470
422.716	1	453
422.886	1	457
423.057	1	460
423.228	1	477
423.398	1	459
423.569	1	455
423.740	1	432
423.910	1	450
424.081	1	448
424.251	1	461
424.422	1	448
424.593	1	447
424.763	1	460
424.934	1	457
425.104	1	453
425.275	1	463
425.445	1	448
425.616	1	457
425.787	1	451
425.957	1	465
426.128	1	454
426.298	1	465
426.469	1	452
426.640	1	436
426.810	1	465
426.981	1	466
427.151	1	470
427.322	1	449
427.493	1	472
427.663	1	475
427.834	1	472
428.004	1	459
428.175	1	483
428.345	1	460
428.516	1	467
428.687	1	478
428.857	1	445
429.028	1	461
429.198	1	474
429.369	1	471
429.540	1	453
429.710	1	445
429.881	1	450
430.051	1	451
430.222	1	438
430.392	1	468
430.563	1	460
430.734	1	460
430.904	1	465
431.075	1	460
431.245	1	456
431.416	1	476
431.586	1	425
431.757	1	466
431.927	1	463
432.098	1	449
432.269	1	459
432.439	1	474
432.610	1	436
432.780	1	471
432.951	1	442
433.121	1	441
433.292	1	458
433.462	1	450
433.633	1	442
433.804	1	439
433.974	1	463
434.145	1	462
434.315	1	450
434.486	1	448
434.656	1	465
434.827	1	451
434.997	1	438
435.168	1	441
435.339	1	443
435.509	1	452
435.680	1	434
435.850	1	440
436.021	1	446
436.191	1	437
436.362	1	427
436.532	1	456
436.703	1	438
436.873	1	449
437.044	1	429
437.214	1	422
437.385	1	436
437.556	1	428
437.726	1	429
437.897	1	426
438.067	1	431
438.238	1	427
438.408	1	426
438.579	1	432
438.749	1	407
438.920	1	427
439.090	1	426
439.261	1	428
439.431	1	428
439.602	1	415
439.772	1	416
439.943	1	411
440.113	1	429
440.284	1	415
440.455	1	414
440.625	1	415
440.796	1	436
440.966	1	415
441.137	1	418
441.307	1	404
441.478	1	411
441.648	1	393
441.819	1	403
441.989	1	402
442.160	1	386
442.330	1	398
442.501	1	385
442.671	1	405
442.842	1	394
443.012	1	398
443.183	1	386
443.353	1	382
443.524	1	379
443.694	1	389
443.865	1	392
444.035	1	378
444.206	1	380
444.376	1	386
444.547	1	383
444.717	1	400
444.888	1	385
445.058	1	401
445.229	1	370
445.399	1	376
445.570	1	383
445.740	1	367
445.911	1	365
446.081	1	348
446.252	1	360
446.422	1	373
446.593	1	357
446.763	1	363
446.934	1	376
447.104	1	363
447.275	1	353
447.445	1	358
447.616	1	354
447.786	1	350
447.957	1	368
448.127	1	342
448.298	1	347
448.468	1	354
448.639	1	337
448.809	1	348
448.979	1	335
449.150	1	341
449.320	1	358
449.491	1	349
449.661	1	348
449.832	1	317
450.002	1	344
450.173	1	332
450.343	1	338
450.514	1	330
450.684	1	323
450.855	1	330
451.025	1	340
451.196	1	342
451.366	1	340
451.537	1	323
451.707	1	308
451.878	1	311
452.048	1	333
452.218	1	327
452.389	1	311
452.559	1	310
452.730	1	310
452.900	1	334
453.071	1	299
453.241	1	309
453.412	1	308
453.582	1	312
453.753	1	311
453.923	1	321
454.093	1	319
454.264	1	312
454.434	1	307
454.605	1	288
454.775	1	298
454.946	1	301
455.116	1	297
455.287	1	285
455.457	1	284
455.628	1	295
455.798	1	275
455.968	1	301
456.139	1	274
456.309	1	272
456.480	1	287
456.650	1	273
456.821	1	282
456.991	1	268
457.161	1	265
457.332	1	268
457.502	1	257
457.673	1	278
457.843	1	266
458.014	1	258
458.184	1	268
458.355	1	266
458.525	1	246
458.695	1	244
458.866	1	248
459.036	1	260
459.207	1	244
459.377	1	255
459.548	1	251
459.718	1	241
459.888	1	240
460.059	1	243
460.229	1	249
460.400	1	233
460.570	1	231
460.740	1	246
460.911	1	238
461.081	1	242
461.252	1	229
461.422	1	248
461.593	1	228
461.763	1	232
461.933	1	226
462.104	1	219
462.274	1	226
462.445	1	242
462.615	1	216
462.785	1	205
462.956	1	211
463.126	1	217
463.297	1	209
463.467	1	219
463.638	1	206
463.808	1	203
463.978	1	217
464.149	1	217
464.319	1	206
464.490	1	211
464.660	1	215
464.830	1	219
465.001	1	205
465.171	1	204
465.342	1	209
465.512	1	192
465.682	1	202
465.853	1	196
466.023	1	178
466.194	1	191
466.364	1	194
466.534	1	199
466.705	1	196
466.875	1	189
467.045	1	179
467.216	1	177
467.386	1	186
467.557	1	180
467.727	1	185
467.897	1	177
468.068	1	188
468.238	1	168
468.409	1	182
468.579	1	182
468.749	1	184
468.920	1	164
469.090	1	165
469.260	1	173
469.431	1	166
469.601	1	175
469.772	1	168
469.942	1	165
470.112	1	161
470.283	1	168
470.453	1	161
470.623	1	160
470.794	1	160
470.964	1	167
471.135	1	148
471.305	1	173
471.475	1	166
471.646	1	168
471.816	1	165
471.986	1	158
472.157	1	167
472.327	1	151
472.497	1	152
472.668	1	163
472.838	1	140
473.009	1	164
473.179	1	149
473.349	1	145
473.520	1	130
473.690	1	148
473.860	1	148
474.031	1	138
474.201	1	150
474.371	1	141
474.542	1	147
474.712	1	144
474.882	1	146
475.053	1	142
475.223	1	117
475.394	1	134
475.564	1	117
475.734	1	135
475.905	1	137
476.075	1	153
476.245	1	135
476.416	1	137
476.586	1	117
476.756	1	141
476.927	1	135
477.097	1	135
477.267	1	130
477.438	1	125
477.608	1	130
477.778	1	132
477.949	1	122
478.119	1	119
478.289	1	121
478.460	1	123
478.630	1	128
478.800	1	119
478.971	1	118
479.141	1	111
479.311	1	122
479.482	1	106
479.652	1	122
479.822	1	109
479.993	1	113
480.163	1	121
480.333	1	108
480.504	1	127
480.674	1	111
480.844	1	118
481.015	1	103
481.185	1	112
481.355	1	120
481.525	1	100
481.696	1	116
481.866	1	99
482.036	1	98
482.207	1	101
482.377	1	102
482.547	1	108
482.718	1	107
482.888	1	101
483.058	1	99
483.229	1	108
483.399	1	102
483.569	1	97
483.740	1	93
483.910	1	98
484.080	1	96
484.250	1	97
484.421	1	105
484.591	1	99
484.761	1	96
484.932	1	105
485.102	1	106
485.272	1	86
485.443	1	88
485.613	1	95
485.783	1	86
485.953	1	100
486.124	1	90
486.294	1	92
486.464	1	96
486.635	1	90
486.805	1	96
486.975	1	92
487.146	1	90
487.316	1	86
487.486	1	82
487.656	1	94
487.827	1	83
487.997	1	90
488.167	1	82
488.338	1	90
488.508	1	89
488.678	1	74
488.848	1	84
489.019	1	85
489.189	1	81
489.359	1	76
489.529	1	82
489.700	1	69
489.870	1	66
490.040	1	86
490.211	1	80
490.381	1	76
490.551	1	68
490.721	1	91
490.892	1	82
491.062	1	88
491.232	1	76
491.402	1	70
491.573	1	77
491.743	1	77
491.913	1	94
492.084	1	77
492.254	1	83
492.424	1	75
492.594	1	70
492.765	1	63
492.935	1	87
493.105	1	77
493.275	1	78
493.446	1	75
493.616	1	64
493.786	1	76
493.956	1	74
494.127	1	69
494.297	1	68
494.467	1	63
494.637	1	57
494.808	1	67
494.978	1	63
495.148	1	62
495.318	1	66
495.489	1	60
495.659	1	58
495.829	1	66
495.999	1	87
496.170	1	51
496.340	1	64
496.510	1	58
496.680	1	58
496.851	1	63
497.021	1	59
497.191	1	54
497.361	1	66
497.532	1	55
497.702	1	61
497.872	1	67
498.042	1	72
498.213	1	53
498.383	1	72
498.553	1	62
498.723	1	67
498.894	1	58
499.064	1	57
499.234	1	51
499.404	1	59
499.574	1	68
499.745	1	53
499.915	1	48
500.085	1	55
500.255	1	61
500.426	1	55
500.596	1	69
500.766	1	52
500.936	1	56
501.106	1	48
501.277	1	60
501.447	1	56
501.617	1	52
501.787	1	49
501.958	1	54
502.128	1	56
502.298	1	52
502.468	1	56
502.638	1	56
502.809	1	62
502.979	1	52
503.149	1	56
503.319	1	53
503.489	1	62
503.660	1	48
503.830	1	49
504.000	1	48
504.170	1	54
504.340	1	56
504.511	1	56
504.681	1	62
504.851	1	58
505.021	1	42
505.192	1	59
505.362	1	51
505.532	1	51
505.702	1	56
505.872	1	44
506.043	1	48
506.213	1	58
506.383	1	50
506.553	1	50
506.723	1	42
506.893	1	52
507.064	1	55
507.234	1	52
507.404	1	52
507.574	1	45
507.744	1	58
507.915	1	53
508.085	1	49
508.255	1	60
508.425	1	33
508.595	1	45
508.766	1	48
508.936	1	50
509.106	1	53
509.276	1	49
509.446	1	46
509.616	1	34
509.787	1	48
509.957	1	39
510.127	1	38
510.297	1	44
510.467	1	60
510.638	1	44
510.808	1	49
510.978	1	43
511.148	1	45
511.318	1	38
511.488	1	48
511.659	1	37
511.829	1	66
511.999	1	34
512.169	1	51
512.339	1	37
512.509	1	44
512.680	1	44
512.850	1	43
513.020	1	42
513.190	1	54
513.360	1	32
513.530	1	29
513.700	1	37
513.871	1	40
514.041	1	38
514.211	1	43
514.381	1	51
514.551	1	40
514.721	1	47
514.892	1	39
515.062	1	40
515.232	1	39
515.402	1	46
515.572	1	42
515.742	1	37
515.912	1	41
516.083	1	48
516.253	1	45
516.423	1	34
516.593	1	27
516.763	1	51
516.933	1	40
517.104	1	45
517.274	1	29
517.444	1	38
517.614	1	33
517.784	1	46
517.954	1	29
518.124	1	53
518.294	1	32
518.465	1	35
518.635	1	35
518.805	1	38
518.975	1	32
519.145	1	43
519.315	1	40
519.485	1	35
519.656	1	36
519.826	1	31
519.996	1	32
520.166	1	35
520.336	1	33
520.506	1	37
520.676	1	24
520.846	1	42
521.017	1	37
521.187	1	37
521.357	1	38
521.527	1	27
521.697	1	33
521.867	1	30
522.037	1	28
522.207	1	47
522.377	1	36
522.548	1	33
522.718	1	41
522.888	1	35
523.058	1	43
523.228	1	38
523.398	1	41
523.568	1	44
523.738	1	42
523.909	1	48
524.079	1	42
524.249	1	36
524.419	1	21
524.589	1	43
524.759	1	31
524.929	1	30
525.099	1	39
525.269	1	38
525.439	1	36
525.610	1	48
525.780	1	29
525.950	1	35
526.120	1	36
526.290	1	27
526.460	1	32
526.630	1	36
526.800	1	37
526.970	1	30
527.140	1	28
527.311	1	31
527.481	1	24
527.651	1	43
527.821	1	36
527.991	1	39
528.161	1	33
528.331	1	43
528.501	1	26
528.671	1	30
528.841	1	36
529.011	1	36
529.181	1	28
529.352	1	34
529.522	1	24
529.692	1	38
529.862	1	37
530.032	1	33
530.202	1	37
530.372	1	33
530.542	1	24
530.712	1	29
530.882	1	38
531.052	1	36
531.222	1	36
531.392	1	40
531.563	1	32
531.733	1	27
531.903	1	35
532.073	1	30
532.243	1	34
532.413	1	35
532.583	1	38
532.753	1	40
532.923	1	26
533.093	1	30
533.263	1	30
533.433	1	32
533.603	1	37
533.773	1	35
533.943	1	37
534.113	1	36
534.284	1	36
534.454	1	38
534.624	1	27
534.794	1	27
534.964	1	31
535.134	1	30
535.304	1	26
535.474	1	35
535.644	1	23
535.814	1	31
535.984	1	36
536.154	1	35
536.324	1	37
536.494	1	27
536.664	1	30
536.834	1	26
537.004	1	33
537.174	1	20
537.344	1	31
537.514	1	34
537.685	1	27
537.855	1	32
538.025	1	28
538.195	1	31
538.365	1	23
538.535	1	27
538.705	1	20
538.875	1	31
539.045	1	25
539.215	1	13
539.385	1	31
539.555	1	28
539.725	1	17
539.895	1	20
540.065	1	30
540.235	1	17
540.405	1	25
540.575	1	20
540.745	1	24
540.915	1	19
541.085	1	17
541.255	1	19
541.425	1	38
541.595	1	25
541.765	1	22
541.935	1	22
542.105	1	29
542.275	1	34
542.445	1	33
542.615	1	28
542.785	1	28
542.955	1	29
543.125	1	23
543.295	1	23
543.465	1	26
543.635	1	23
543.805	1	28
543.975	1	26
544.145	1	39
544.315	1	25
544.485	1	28
544.655	1	29
544.825	1	32
544.995	1	38
545.165	1	34
545.335	1	25
545.505	1	31
545.675	1	30
545.845	1	24
546.015	1	32
546.185	1	27
546.355	1	40
546.525	1	26
546.695	1	27
546.865	1	22
547.035	1	20
547.205	1	41
547.375	1	36
547.545	1	22
547.715	1	18
547.885	1	11
548.055	1	25
548.225	1	25
548.395	1	22
548.565	1	32
548.735	1	27
548.905	1	37
549.075	1	25
549.245	1	12
549.415	1	27
549.585	1	25
549.755	1	25
549.925	1	35
550.095	1	25
550.265	1	23
550.435	1	23
550.605	1	31
550.775	1	30
550.945	1	30
551.115	1	25
551.285	1	20
551.455	1	22
551.625	1	28
551.795	1	11
551.965	1	18
552.135	1	26
552.305	1	21
552.475	1	31
552.645	1	21
552.815	1	21
552.985	1	37
553.155	1	26
553.325	1	13
553.495	1	28
553.665	1	29
553.835	1	19
554.004	1	29
554.174	1	29
554.344	1	24
554.514	1	22
554.684	1	23
554.854	1	34
555.024	1	27
555.194	1	22
555.364	1	16
555.534	1	33
555.704	1	35
555.874	1	14
556.044	1	30
556.214	1	32
556.384	1	19
556.554	1	21
556.724	1	22
556.894	1	15
557.064	1	27
557.234	1	21
557.404	1	11
557.573	1	21
557.743	1	24
557.913	1	27
558.083	1	15
558.253	1	21
558.423	1	22
558.593	1	20
558.763	1	30
558.933	1	23
559.103	1	20
559.273	1	24
559.443	1	23
559.613	1	23
559.783	1	28
559.953	1	21
560.122	1	17
560.292	1	25
560.462	1	24
560.632	1	17
560.802	1	35
560.972	1	21
561.142	1	26
561.312	1	23
561.482	1	7
561.652	1	17
561.822	1	35
561.992	1	12
562.162	1	28
562.331	1	28
562.501	1	22
562.671	1	32
562.841	1	12
563.011	1	18
563.181	1	28
563.351	1	27
563.521	1	6
563.691	1	14
563.861	1	23
564.031	1	16
564.201	1	28
564.370	1	20
564.540	1	26
564.710	1	17
564.880	1	29
565.050	1	25
565.220	1	32
565.390	1	19
565.560	1	21
565.730	1	21
565.900	1	21
566.069	1	8
566.239	1	35
566.409	1	24
566.579	1	11
566.749	1	23
566.919	1	14
567.089	1	34
567.259	1	26
567.429	1	27
567.599	1	25
567.768	1	30
567.938	1	10
568.108	1	21
568.278	1	32
568.448	1	17
568.618	1	39
568.788	1	12
568.958	1	18
569.128	1	23
569.297	1	29
569.467	1	19
569.637	1	7
569.807	1	25
569.977	1	7
570.147	1	24
570.317	1	9
570.487	1	19
570.656	1	30
570.826	1	12
570.996	1	24
571.166	1	27
571.336	1	4
571.506	1	26
571.676	1	23
571.846	1	17
572.015	1	13
572.185	1	18
572.355	1	26
572.525	1	15
572.695	1	14
572.865	1	31
573.035	1	14
573.205	1	16
573.374	1	25
573.544	1	11
573.714	1	15
573.884	1	26
574.054	1	25
574.224	1	19
574.394	1	15
574.563	1	17
574.733	1	19
574.903	1	5
575.073	1	11
575.243	1	20
575.413	1	9
575.583	1	32
575.752	1	17
575.922	1	22
576.092	1	22
576.262	1	21
576.432	1	23
576.602	1	27
576.772	1	18
576.941	1	16
577.111	1	36
577.281	1	36
577.451	1	20
577.621	1	22
577.791	1	23
577.960	1	9
578.130	1	13
578.300	1	23
578.470	1	13
578.640	1	25
578.810	1	26
578.979	1	11
579.149	1	26
579.319	1	27
579.489	1	21
579.659	1	20
579.829	1	25
579.998	1	13
580.168	1	18
580.338	1	25
580.508	1	13
580.678	1	9
580.848	1	16
581.017	1	19
581.187	1	27
581.357	1	20
581.527	1	25
581.697	1	9
581.867	1	26
582.036	1	18
582.206	1	9
582.376	1	19
582.546	1	31
582.716	1	21
582.885	1	36
583.055	1	30
583.225	1	16
583.395	1	26
583.565	1	29
583.735	1	22
583.904	1	32
584.074	1	24
584.244	1	14
584.414	1	32
584.584	1	30
584.753	1	2
584.923	1	27
585.093	1	33
585.263	1	19
585.433	1	18
585.602	1	34
585.772	1	23
585.942	1	22
586.112	1	22
586.282	1	18
586.451	1	33
586.621	1	28
586.791	1	20
586.961	1	28
587.131	1	29
587.300	1	23
587.470	1	23
587.640	1	18
587.810	1	21
587.980	1	22
588.149	1	34
588.319	1	28
588.489	1	23
588.659	1	25
588.829	1	36
588.998	1	40
589.168	1	30
589.338	1	11
589.508	1	29
589.677	1	26
589.847	1	22
590.017	1	22
590.187	1	22
590.357	1	27
590.526	1	27
590.696	1	26
590.866	1	11
591.036	1	38
591.205	1	38
591.375	1	26
591.545	1	35
591.715	1	13
591.885	1	31
592.054	1	23
592.224	1	37
592.394	1	23
592.564	1	33
592.733	1	35
592.903	1	33
593.073	1	33
593.243	1	29
593.412	1	24
593.582	1	22
593.752	1	32
593.922	1	40
594.091	1	28
594.261	1	28
594.431	1	33
594.601	1	40
594.771	1	27
594.940	1	41
595.110	1	43
595.280	1	35
595.450	1	49
595.619	1	32
595.789	1	38
595.959	1	41
596.129	1	42
596.298	1	37
596.468	1	31
596.638	1	37
596.808	1	49
596.977	1	34
597.147	1	41
597.317	1	37
597.487	1	35
597.656	1	28
597.826	1	38
597.996	1	39
598.166	1	49
598.335	1	42
598.505	1	42
598.675	1	39
598.844	1	40
599.014	1	40
599.184	1	39
599.354	1	48
599.523	1	46
599.693	1	42
599.863	1	44
600.033	1	40
600.202	1	39
600.372	1	42
600.542	1	53
600.712	1	42
600.881	1	56
601.051	1	43
601.221	1	48
601.390	1	36
601.560	1	46
601.730	1	35
601.900	1	38
602.069	1	45
602.239	1	50
602.409	1	47
602.578	1	45
602.748	1	46
602.918	1	60
603.088	1	49
603.257	1	52
603.427	1	49
603.597	1	59
603.767	1	57
603.936	1	55
604.106	1	58
604.276	1	53
604.445	1	53
604.615	1	55
604.785	1	57
604.954	1	50
605.124	1	59
605.294	1	56
605.464	1	60
605.633	1	46
605.803	1	59
605.973	1	69
606.142	1	63
606.312	1	61
606.482	1	43
606.652	1	59
606.821	1	61
606.991	1	49
607.161	1	61
607.330	1	60
607.500	1	64
607.670	1	57
607.839	1	65
608.009	1	67
608.179	1	66
608.348	1	60
608.518	1	73
608.688	1	60
608.858	1	67
609.027	1	73
609.197	1	71
609.367	1	63
609.536	1	67
609.706	1	79
609.876	1	77
610.045	1	76
610.215	1	73
610.385	1	79
610.554	1	72
610.724	1	73
610.894	1	67
611.063	1	68
611.233	1	69
611.403	1	78
611.572	1	81
611.742	1	74
611.912	1	76
612.081	1	67
612.251	1	79
612.421	1	80
612.590	1	67
612.760	1	84
612.930	1	79
613.099	1	89
613.269	1	72
613.439	1	83
613.608	1	78
613.778	1	94
613.948	1	80
614.117	1	83
614.287	1	86
614.457	1	81
614.626	1	95
614.796	1	76
614.966	1	96
615.135	1	102
615.305	1	93
615.475	1	100
615.644	1	95
615.814	1	88
615.984	1	89
616.153	1	86
616.323	1	96
616.493	1	94
616.662	1	97
616.832	1	98
617.002	1	106
617.171	1	96
617.341	1	95
617.511	1	85
617.680	1	94
617.850	1	107
618.019	1	97
618.189	1	100
618.359	1	102
618.528	1	101
618.698	1	110
618.868	1	102
619.037	1	97
619.207	1	109
619.377	1	109
619.546	1	101
619.716	1	111
619.885	1	109
620.055	1	109
620.225	1	112
620.394	1	120
620.564	1	123
620.734	1	113
620.903	1	121
621.073	1	111
621.242	1	121
621.412	1	111
621.582	1	119
621.751	1	105
621.921	1	116
622.091	1	117
622.260	1	121
622.430	1	126
622.599	1	116
622.769	1	132
622.939	1	117
623.108	1	126
623.278	1	112
623.448	1	132
623.617	1	114
623.787	1	132
623.956	1	126
624.126	1	135
624.296	1	115
624.465	1	140
624.635	1	124
624.804	1	140
624.974	1	128
625.144	1	136
625.313	1	131
625.483	1	125
625.652	1	126
625.822	1	139
625.992	1	140
626.161	1	131
626.331	1	149
626.501	1	140
626.670	1	141
626.840	1	131
627.009	1	132
627.179	1	145
627.348	1	143
627.518	1	134
627.688	1	145
627.857	1	136
628.027	1	145
628.196	1	130
628.366	1	165
628.536	1	163
628.705	1	155
628.875	1	138
629.044	1	146
629.214	1	143
629.384	1	133
629.553	1	164
629.723	1	154
629.892	1	147
630.062	1	149
630.232	1	152
630.401	1	160
630.571	1	152
630.740	1	139
630.910	1	159
631.079	1	156
631.249	1	147
631.419	1	156
631.588	1	154
631.758	1	159
631.927	1	172
632.097	1	168
632.266	1	153
632.436	1	170
632.606	1	164
632.775	1	160
632.945	1	176
633.114	1	182
633.284	1	159
633.453	1	168
633.623	1	167
633.793	1	165
633.962	1	154
634.132	1	161
634.301	1	165
634.471	1	166
634.640	1	170
634.810	1	174
634.979	1	167
635.149	1	179
635.319	1	185
635.488	1	179
635.658	1	186
635.827	1	185
635.997	1	181
636.166	1	173
636.336	1	166
636.505	1	183
636.675	1	179
636.845	1	184
637.014	1	179
637.184	1	156
637.353	1	179
637.523	1	175
637.692	1	173
637.862	1	169
638.031	1	171
638.201	1	171
638.370	1	185
638.540	1	180
638.710	1	172
638.879	1	190
639.049	1	177
639.218	1	183
639.388	1	194
639.557	1	174
639.727	1	195
639.896	1	191
640.066	1	172
640.235	1	175
640.405	1	182
640.574	1	198
640.744	1	176
640.914	1	189
641.083	1	186
641.253	1	186
641.422	1	187
641.592	1	182
641.761	1	188
641.931	1	189
642.100	1	182
642.270	1	195
642.439	1	191
642.609	1	181
642.778	1	188
642.948	1	191
643.117	1	189
643.287	1	191
643.456	1	183
643.626	1	186
643.795	1	178
643.965	1	183
644.134	1	182
644.304	1	191
644.473	1	190
644.643	1	185
644.812	1	193
644.982	1	196
645.151	1	183
645.321	1	192
645.490	1	183
645.660	1	203
645.829	1	194
645.999	1	193
646.168	1	199
646.338	1	179
646.507	1	208
646.677	1	186
646.846	1	191
647.016	1	187
647.185	1	180
647.355	1	200
647.524	1	191
647.694	1	214
647.863	1	180
648.033	1	192
648.202	1	196
648.372	1	187
648.541	1	188
648.711	1	189
648.880	1	190
649.050	1	194
649.219	1	186
649.389	1	191
649.558	1	194
649.728	1	199
649.897	1	187
650.067	1	193
650.236	1	181
650.406	1	188
650.575	1	186
650.745	1	184
650.914	1	196
651.084	1	204
651.253	1	193
651.423	1	187
651.592	1	187
651.762	1	207
651.931	1	198
652.101	1	194
652.270	1	171
652.440	1	185
652.609	1	187
652.778	1	200
652.948	1	176
653.117	1	183
653.287	1	179
653.456	1	175
653.626	1	178
653.795	1	190
653.965	1	193
654.134	1	185
654.304	1	190
654.473	1	184
654.643	1	194
654.812	1	194
654.982	1	189
655.151	1	170
655.320	1	202
655.490	1	179
655.659	1	207
655.829	1	189
655.998	1	191
656.168	1	168
656.337	1	195
656.507	1	191
656.676	1	184
656.846	1	180
657.015	1	175
657.184	1	195
657.354	1	177
657.523	1	174
657.693	1	182
657.862	1	170
658.032	1	169
658.201	1	171
658.371	1	196
658.540	1	175
658.709	1	189
658.879	1	194
659.048	1	181
659.218	1	179
659.387	1	181
659.557	1	179
659.726	1	180
659.895	1	175
660.065	1	165
660.234	1	175
660.404	1	183
660.573	1	181
660.743	1	169
660.912	1	167
661.081	1	168
661.251	1	186
661.420	1	164
661.590	1	157
661.759	1	166
661.929	1	173
662.098	1	179
662.267	1	170
662.437	1	159
662.606	1	165
662.776	1	159
662.945	1	159
663.115	1	169
663.284	1	176
663.453	1	165
663.623	1	166
663.792	1	157
663.962	1	160
664.131	1	161
664.300	1	166
664.470	1	170
664.639	1	168
664.809	1	160
664.978	1	161
665.148	1	169
665.317	1	148
665.486	1	140
665.656	1	174
665.825	1	177
665.995	1	142
666.164	1	168
666.333	1	155
666.503	1	159
666.672	1	158
666.842	1	162
667.011	1	166
667.180	1	154
667.350	1	162
667.519	1	147
667.689	1	137
667.858	1	161
668.027	1	163
668.197	1	158
668.366	1	148
668.536	1	154
668.705	1	149
668.874	1	148
669.044	1	139
669.213	1	159
669.382	1	132
669.552	1	128
669.721	1	143
669.891	1	163
670.060	1	147
670.229	1	150
670.399	1	147
670.568	1	145
670.738	1	136
670.907	1	150
671.076	1	139
671.246	1	149
671.415	1	134
671.584	1	131
671.754	1	135
671.923	1	142
672.093	1	137
672.262	1	145
672.431	1	137
672.601	1	134
672.770	1	138
672.939	1	130
673.109	1	133
673.278	1	137
673.448	1	131
673.617	1	136
673.786	1	124
