325.333	1	43
325.504	1	37
325.675	1	30
325.846	1	38
326.017	1	36
326.188	1	38
326.359	1	52
326.531	1	38
326.702	1	26
326.873	1	46
327.044	1	47
327.215	1	42
327.386	1	44
327.557	1	51
327.728	1	30
327.899	1	44
328.070	1	51
328.241	1	40
328.412	1	46
328.583	1	48
328.754	1	54
328.926	1	48
329.097	1	53
329.268	1	56
329.439	1	40
329.610	1	40
329.781	1	34
329.952	1	52
330.123	1	49
330.294	1	49
330.465	1	41
330.636	1	50
330.807	1	44
330.978	1	52
331.149	1	55
331.320	1	54
331.492	1	46
331.663	1	59
331.834	1	48
332.005	1	54
332.176	1	53
332.347	1	56
332.518	1	46
332.689	1	58
332.860	1	45
333.031	1	43
333.202	1	69
333.373	1	47
333.544	1	54
333.715	1	52
333.886	1	46
334.057	1	53
334.228	1	44
334.399	1	52
334.570	1	52
334.741	1	66
334.912	1	55
335.084	1	62
335.255	1	53
335.426	1	51
335.597	1	57
335.768	1	64
335.939	1	51
336.110	1	56
336.281	1	50
336.452	1	63
336.623	1	67
336.794	1	63
336.965	1	49
337.136	1	48
337.307	1	55
337.478	1	55
337.649	1	65
337.820	1	61
337.991	1	52
338.162	1	56
338.333	1	58
338.504	1	66
338.675	1	53
338.846	1	64
339.017	1	57
339.188	1	62
339.359	1	61
339.530	1	51
339.701	1	59
339.872	1	64
340.043	1	62
340.214	1	55
340.385	1	55
340.556	1	54
340.727	1	63
340.898	1	64
341.069	1	62
341.240	1	51
341.411	1	60
341.582	1	51
341.753	1	56
341.924	1	67
342.095	1	57
342.266	1	52
342.437	1	45
342.608	1	52
342.779	1	55
342.950	1	51
343.121	1	66
343.292	1	52
343.463	1	53
343.634	1	60
343.805	1	58
343.976	1	58
344.147	1	44
344.318	1	51
344.489	1	60
344.660	1	53
344.831	1	54
345.002	1	61
345.173	1	60
345.344	1	45
345.515	1	61
345.686	1	58
345.857	1	53
346.028	1	52
346.199	1	52
346.370	1	53
346.541	1	56
346.712	1	53
346.883	1	55
347.054	1	53
347.225	1	52
347.396	1	43
347.567	1	55
347.738	1	47
347.909	1	54
348.080	1	43
348.251	1	54
348.422	1	49
348.593	1	56
348.764	1	54
348.935	1	44
349.106	1	42
349.277	1	48
349.448	1	50
349.619	1	44
349.790	1	52
349.961	1	49
350.132	1	50
350.303	1	49
350.474	1	45
350.645	1	48
350.816	1	39
350.987	1	49
351.157	1	39
351.328	1	40
351.499	1	36
351.670	1	42
351.841	1	66
352.012	1	44
352.183	1	40
352.354	1	52
352.525	1	40
352.696	1	56
352.867	1	30
353.038	1	53
353.209	1	35
353.380	1	39
353.551	1	41
353.722	1	33
353.893	1	43
354.064	1	40
354.235	1	40
354.406	1	40
354.576	1	47
354.747	1	37
354.918	1	45
355.089	1	37
355.260	1	43
355.431	1	37
355.602	1	55
355.773	1	40
355.944	1	27
356.115	1	26
356.286	1	38
356.457	1	35
356.628	1	34
356.799	1	35
356.970	1	39
357.141	1	35
357.311	1	39
357.482	1	35
357.653	1	24
357.824	1	44
357.995	1	33
358.166	1	33
358.337	1	29
358.508	1	33
358.679	1	22
358.850	1	45
359.021	1	38
359.192	1	35
359.363	1	35
359.533	1	35
359.704	1	36
359.875	1	16
360.046	1	38
360.217	1	42
360.388	1	33
360.559	1	29
360.730	1	32
360.901	1	31
361.072	1	22
361.243	1	26
361.414	1	25
361.584	1	33
361.755	1	41
361.926	1	23
362.097	1	37
362.268	1	28
362.439	1	33
362.610	1	33
362.781	1	29
362.952	1	19
363.123	1	28
363.293	1	28
363.464	1	25
363.635	1	29
363.806	1	21
363.977	1	20
364.148	1	20
364.319	1	37
364.490	1	24
364.661	1	37
364.832	1	31
365.002	1	32
365.173	1	19
365.344	1	14
365.515	1	31
365.686	1	23
365.857	1	22
366.028	1	28
366.199	1	22
366.370	1	6
366.540	1	23
366.711	1	25
366.882	1	18
367.053	1	35
367.224	1	27
367.395	1	13
367.566	1	20
367.737	1	11
367.908	1	14
368.078	1	19
368.249	1	23
368.420	1	27
368.591	1	21
368.762	1	7
368.933	1	19
369.104	1	23
369.274	1	16
369.445	1	6
369.616	1	11
369.787	1	3
369.958	1	12
370.129	1	7
370.300	1	20
370.471	1	12
370.641	1	6
370.812	1	15
370.983	1	17
371.154	1	19
371.325	1	17
371.496	1	11
371.667	1	11
371.837	1	15
372.008	1	12
372.179	1	13
372.350	1	7
372.521	1	20
372.692	1	16
372.863	1	6
373.033	1	23
373.204	1	18
373.375	1	6
373.546	1	14
373.717	1	-4
373.888	1	18
374.059	1	16
374.229	1	16
374.400	1	18
374.571	1	17
374.742	1	17
374.913	1	13
375.084	1	8
375.254	1	19
375.425	1	11
375.596	1	18
375.767	1	11
375.938	1	21
376.109	1	8
376.279	1	2
376.450	1	23
376.621	1	8
376.792	1	10
376.963	1	11
377.134	1	10
377.304	1	20
377.475	1	4
377.646	1	17
377.817	1	10
377.988	1	26
378.159	1	6
378.329	1	29
378.500	1	10
378.671	1	12
378.842	1	3
379.013	1	15
379.184	1	7
379.354	1	18
379.525	1	12
379.696	1	15
379.867	1	16
380.038	1	23
380.209	1	7
380.379	1	10
380.550	1	16
380.721	1	4
380.892	1	10
381.063	1	22
381.233	1	22
381.404	1	26
381.575	1	11
381.746	1	17
381.917	1	26
382.087	1	17
382.258	1	5
382.429	1	22
382.600	1	15
382.771	1	22
382.941	1	16
383.112	1	30
383.283	1	23
383.454	1	21
383.625	1	21
383.795	1	19
383.966	1	11
384.137	1	14
384.308	1	8
384.479	1	23
384.649	1	15
384.820	1	22
384.991	1	14
385.162	1	12
385.333	1	22
385.503	1	10
385.674	1	25
385.845	1	11
386.016	1	27
386.187	1	12
386.357	1	18
386.528	1	21
386.699	1	26
386.870	1	23
387.041	1	9
387.211	1	36
387.382	1	12
387.553	1	11
387.724	1	25
387.894	1	22
388.065	1	22
388.236	1	28
388.407	1	35
388.578	1	17
388.748	1	27
388.919	1	20
389.090	1	17
389.261	1	22
389.431	1	28
389.602	1	29
389.773	1	31
389.944	1	39
390.114	1	35
390.285	1	22
390.456	1	45
390.627	1	28
390.798	1	33
390.968	1	17
391.139	1	39
391.310	1	25
391.481	1	26
391.651	1	33
391.822	1	30
391.993	1	24
392.164	1	27
392.334	1	28
392.505	1	27
392.676	1	29
392.847	1	32
393.017	1	39
393.188	1	31
393.359	1	32
393.530	1	37
393.700	1	42
393.871	1	33
394.042	1	33
394.213	1	42
394.383	1	29
394.554	1	27
394.725	1	28
394.896	1	29
395.066	1	20
395.237	1	24
395.408	1	32
395.579	1	34
395.749	1	27
395.920	1	33
396.091	1	29
396.262	1	33
396.432	1	28
396.603	1	49
396.774	1	19
396.945	1	26
397.115	1	32
397.286	1	40
397.457	1	33
397.627	1	47
397.798	1	38
397.969	1	38
398.140	1	48
398.310	1	44
398.481	1	31
398.652	1	33
398.823	1	40
398.993	1	53
399.164	1	52
399.335	1	32
399.505	1	53
399.676	1	44
399.847	1	36
400.018	1	44
400.188	1	48
400.359	1	43
400.530	1	39
400.700	1	52
400.871	1	51
401.042	1	36
401.213	1	49
401.383	1	50
401.554	1	49
401.725	1	47
401.895	1	41
402.066	1	52
402.237	1	37
402.408	1	36
402.578	1	39
402.749	1	53
402.920	1	58
403.090	1	50
403.261	1	41
403.432	1	51
403.603	1	54
403.773	1	58
403.944	1	55
404.115	1	51
404.285	1	67
404.456	1	60
404.627	1	53
404.797	1	55
404.968	1	52
405.139	1	48
405.310	1	53
405.480	1	56
405.651	1	53
405.822	1	59
405.992	1	59
406.163	1	47
406.334	1	52
406.504	1	49
406.675	1	51
406.846	1	60
407.016	1	51
407.187	1	47
407.358	1	64
407.528	1	52
407.699	1	59
407.870	1	66
408.041	1	55
408.211	1	54
408.382	1	64
408.553	1	58
408.723	1	67
408.894	1	64
409.065	1	53
409.235	1	63
409.406	1	64
409.577	1	74
409.747	1	62
409.918	1	71
410.089	1	72
410.259	1	66
410.430	1	70
410.601	1	81
410.771	1	59
410.942	1	74
411.113	1	61
411.283	1	71
411.454	1	49
411.625	1	71
411.795	1	62
411.966	1	71
412.137	1	51
412.307	1	64
412.478	1	65
412.649	1	66
412.819	1	52
412.990	1	54
413.161	1	67
413.331	1	69
413.502	1	61
413.672	1	67
413.843	1	70
414.014	1	61
414.184	1	68
414.355	1	69
414.526	1	69
414.696	1	73
414.867	1	72
415.038	1	73
415.208	1	70
415.379	1	86
415.550	1	84
415.720	1	65
415.891	1	70
416.062	1	69
416.232	1	70
416.403	1	85
416.573	1	68
416.744	1	67
416.915	1	75
417.085	1	76
417.256	1	70
417.427	1	77
417.597	1	72
417.768	1	81
417.939	1	71
418.109	1	67
418.280	1	80
418.450	1	77
418.621	1	66
418.792	1	67
418.962	1	77
419.133	1	70
419.304	1	76
419.474	1	75
419.645	1	88
419.815	1	73
419.986	1	79
420.157	1	87
420.327	1	67
420.498	1	71
420.669	1	85
420.839	1	83
421.010	1	72
421.180	1	75
421.351	1	87
421.522	1	80
421.692	1	66
421.863	1	71
422.033	1	79
422.204	1	66
422.375	1	86
422.545	1	66
422.716	1	77
422.886	1	72
423.057	1	72
423.228	1	88
423.398	1	68
423.569	1	78
423.740	1	68
423.910	1	85
424.081	1	70
424.251	1	77
424.422	1	72
424.593	1	78
424.763	1	80
424.934	1	88
425.104	1	88
425.275	1	83
425.445	1	70
425.616	1	64
425.787	1	85
425.957	1	69
426.128	1	84
426.298	1	81
426.469	1	72
426.640	1	85
426.810	1	75
426.981	1	82
427.151	1	73
427.322	1	80
427.493	1	89
427.663	1	82
427.834	1	90
428.004	1	76
428.175	1	92
428.345	1	82
428.516	1	81
428.687	1	92
428.857	1	93
429.028	1	81
429.198	1	87
429.369	1	77
429.540	1	84
429.710	1	77
429.881	1	76
430.051	1	94
430.222	1	71
430.392	1	85
430.563	1	81
430.734	1	82
430.904	1	102
431.075	1	81
431.245	1	77
431.416	1	88
431.586	1	70
431.757	1	82
431.927	1	75
432.098	1	84
432.269	1	83
432.439	1	87
432.610	1	82
432.780	1	82
432.951	1	70
433.121	1	78
433.292	1	75
433.462	1	76
433.633	1	78
433.804	1	84
433.974	1	84
434.145	1	78
434.315	1	88
434.486	1	97
434.656	1	77
434.827	1	85
434.997	1	83
435.168	1	84
435.339	1	90
435.509	1	76
435.680	1	75
435.850	1	85
436.021	1	76
436.191	1	83
436.362	1	85
436.532	1	91
436.703	1	84
436.873	1	89
437.044	1	83
437.214	1	73
437.385	1	79
437.556	1	75
437.726	1	75
437.897	1	63
438.067	1	83
438.238	1	67
438.408	1	95
438.579	1	91
438.749	1	84
438.920	1	82
439.090	1	67
439.261	1	74
439.431	1	95
439.602	1	77
439.772	1	87
439.943	1	82
440.113	1	87
440.284	1	77
440.455	1	81
440.625	1	70
440.796	1	72
440.966	1	80
441.137	1	80
441.307	1	85
441.478	1	86
441.648	1	58
441.819	1	73
441.989	1	77
442.160	1	74
442.330	1	62
442.501	1	79
442.671	1	79
442.842	1	72
443.012	1	71
443.183	1	82
443.353	1	76
443.524	1	75
443.694	1	84
443.865	1	79
444.035	1	71
444.206	1	66
444.376	1	78
444.547	1	70
444.717	1	82
444.888	1	64
445.058	1	83
445.229	1	73
445.399	1	65
445.570	1	76
445.740	1	71
445.911	1	75
446.081	1	75
446.252	1	73
446.422	1	85
446.593	1	68
446.763	1	72
446.934	1	78
447.104	1	69
447.275	1	76
447.445	1	79
447.616	1	75
447.786	1	76
447.957	1	75
448.127	1	54
448.298	1	77
448.468	1	82
448.639	1	81
448.809	1	80
448.979	1	71
449.150	1	77
449.320	1	73
449.491	1	86
449.661	1	71
449.832	1	76
450.002	1	65
450.173	1	69
450.343	1	69
450.514	1	62
450.684	1	65
450.855	1	73
451.025	1	82
451.196	1	73
451.366	1	70
451.537	1	66
451.707	1	70
451.878	1	62
452.048	1	62
452.218	1	69
452.389	1	69
452.559	1	65
452.730	1	77
452.900	1	73
453.071	1	72
453.241	1	65
453.412	1	68
453.582	1	70
453.753	1	59
453.923	1	72
454.093	1	70
454.264	1	79
454.434	1	69
454.605	1	71
454.775	1	60
454.946	1	75
455.116	1	63
455.287	1	65
455.457	1	65
455.628	1	62
455.798	1	58
455.968	1	65
456.139	1	75
456.309	1	61
456.480	1	67
456.650	1	66
456.821	1	75
456.991	1	57
457.161	1	63
457.332	1	49
457.502	1	55
457.673	1	68
457.843	1	57
458.014	1	60
458.184	1	64
458.355	1	47
458.525	1	68
458.695	1	57
458.866	1	59
459.036	1	50
459.207	1	63
459.377	1	75
459.548	1	56
459.718	1	59
459.888	1	49
460.059	1	57
460.229	1	54
460.400	1	43
460.570	1	65
460.740	1	60
460.911	1	67
461.081	1	65
461.252	1	59
461.422	1	62
461.593	1	49
461.763	1	65
461.933	1	58
462.104	1	65
462.274	1	50
462.445	1	51
462.615	1	53
462.785	1	49
462.956	1	48
463.126	1	50
463.297	1	48
463.467	1	66
463.638	1	53
463.808	1	53
463.978	1	49
464.149	1	53
464.319	1	50
464.490	1	54
464.660	1	56
464.830	1	57
465.001	1	56
465.171	1	43
465.342	1	49
465.512	1	49
465.682	1	54
465.853	1	58
466.023	1	50
466.194	1	47
466.364	1	42
466.534	1	59
466.705	1	55
466.875	1	43
467.045	1	49
467.216	1	45
467.386	1	46
467.557	1	48
467.727	1	56
467.897	1	49
468.068	1	44
468.238	1	31
468.409	1	48
468.579	1	53
468.749	1	50
468.920	1	57
469.090	1	34
469.260	1	48
469.431	1	44
469.601	1	55
469.772	1	45
469.942	1	50
470.112	1	40
470.283	1	50
470.453	1	35
470.623	1	46
470.794	1	51
470.964	1	61
471.135	1	40
471.305	1	47
471.475	1	52
471.646	1	40
471.816	1	41
471.986	1	43
472.157	1	43
472.327	1	41
472.497	1	50
472.668	1	46
472.838	1	51
473.009	1	47
473.179	1	50
473.349	1	35
473.520	1	16
473.690	1	45
473.860	1	40
474.031	1	34
474.201	1	39
474.371	1	43
474.542	1	45
474.712	1	47
474.882	1	34
475.053	1	32
475.223	1	40
475.394	1	32
475.564	1	32
475.734	1	46
475.905	1	38
476.075	1	45
476.245	1	43
476.416	1	38
476.586	1	40
476.756	1	36
476.927	1	41
477.097	1	40
477.267	1	43
477.438	1	38
477.608	1	31
477.778	1	32
477.949	1	48
478.119	1	42
478.289	1	38
478.460	1	41
478.630	1	46
478.800	1	35
478.971	1	30
479.141	1	42
479.311	1	41
479.482	1	32
479.652	1	42
479.822	1	42
479.993	1	25
480.163	1	35
480.333	1	38
480.504	1	34
480.674	1	34
480.844	1	36
481.015	1	32
481.185	1	36
481.355	1	42
481.525	1	36
481.696	1	42
481.866	1	36
482.036	1	24
482.207	1	21
482.377	1	35
482.547	1	43
482.718	1	44
482.888	1	35
483.058	1	39
483.229	1	34
483.399	1	36
483.569	1	36
483.740	1	29
483.910	1	23
484.080	1	30
484.250	1	38
484.421	1	34
484.591	1	33
484.761	1	48
484.932	1	42
485.102	1	37
485.272	1	34
485.443	1	26
485.613	1	39
485.783	1	23
485.953	1	36
486.124	1	38
486.294	1	28
486.464	1	27
486.635	1	21
486.805	1	33
486.975	1	25
487.146	1	26
487.316	1	23
487.486	1	24
487.656	1	39
487.827	1	24
487.997	1	31
488.167	1	24
488.338	1	35
488.508	1	30
488.678	1	21
488.848	1	23
489.019	1	33
489.189	1	30
489.359	1	29
489.529	1	24
489.700	1	23
489.870	1	22
490.040	1	25
490.211	1	35
490.381	1	32
490.551	1	28
490.721	1	26
490.892	1	34
491.062	1	27
491.232	1	31
491.402	1	26
491.573	1	29
491.743	1	23
491.913	1	25
492.084	1	22
492.254	1	28
492.424	1	33
492.594	1	15
492.765	1	26
492.935	1	22
493.105	1	22
493.275	1	41
493.446	1	21
493.616	1	22
493.786	1	18
493.956	1	32
494.127	1	23
494.297	1	17
494.467	1	23
494.637	1	24
494.808	1	15
494.978	1	24
495.148	1	18
495.318	1	19
495.489	1	20
495.659	1	17
495.829	1	22
495.999	1	36
496.170	1	13
496.340	1	35
496.510	1	23
496.680	1	24
496.851	1	24
497.021	1	26
497.191	1	23
497.361	1	26
497.532	1	25
497.702	1	29
497.872	1	27
498.042	1	21
498.213	1	19
498.383	1	22
498.553	1	25
498.723	1	31
498.894	1	25
499.064	1	27
499.234	1	19
499.404	1	22
499.574	1	29
499.745	1	28
499.915	1	16
500.085	1	25
500.255	1	17
500.426	1	14
500.596	1	27
500.766	1	2
500.936	1	21
501.106	1	21
501.277	1	20
501.447	1	21
501.617	1	26
501.787	1	17
501.958	1	31
502.128	1	25
502.298	1	14
502.468	1	17
502.638	1	21
502.809	1	21
502.979	1	12
503.149	1	37
503.319	1	13
503.489	1	15
503.660	1	11
503.830	1	19
504.000	1	12
504.170	1	22
504.340	1	24
504.511	1	13
504.681	1	29
504.851	1	33
505.021	1	15
505.192	1	18
505.362	1	21
505.532	1	25
505.702	1	13
505.872	1	21
506.043	1	14
506.213	1	13
506.383	1	25
506.553	1	19
506.723	1	16
506.893	1	14
507.064	1	19
507.234	1	6
507.404	1	7
507.574	1	10
507.744	1	18
507.915	1	24
508.085	1	22
508.255	1	24
508.425	1	5
508.595	1	11
508.766	1	16
508.936	1	15
509.106	1	11
509.276	1	17
509.446	1	17
509.616	1	14
509.787	1	8
509.957	1	7
510.127	1	13
510.297	1	12
510.467	1	14
510.638	1	-1
510.808	1	20
510.978	1	12
511.148	1	10
511.318	1	23
511.488	1	22
511.659	1	3
511.829	1	29
511.999	1	15
512.169	1	31
512.339	1	22
512.509	1	25
512.680	1	27
512.850	1	13
513.020	1	5
513.190	1	27
513.360	1	15
513.530	1	12
513.700	1	2
513.871	1	19
514.041	1	11
514.211	1	4
514.381	1	11
514.551	1	9
514.721	1	16
514.892	1	14
515.062	1	13
515.232	1	11
515.402	1	18
515.572	1	8
515.742	1	13
515.912	1	12
516.083	1	12
516.253	1	11
516.423	1	11
516.593	1	15
516.763	1	21
516.933	1	12
517.104	1	12
517.274	1	11
517.444	1	18
517.614	1	17
517.784	1	11
517.954	1	-3
518.124	1	24
518.294	1	18
518.465	1	10
518.635	1	15
518.805	1	23
518.975	1	7
519.145	1	25
519.315	1	11
519.485	1	12
519.656	1	4
519.826	1	10
519.996	1	7
520.166	1	16
520.336	1	13
520.506	1	10
520.676	1	12
520.846	1	18
521.017	1	18
521.187	1	17
521.357	1	10
521.527	1	12
521.697	1	7
521.867	1	1
522.037	1	-6
522.207	1	11
522.377	1	10
522.548	1	13
522.718	1	5
522.888	1	12
523.058	1	15
523.228	1	16
523.398	1	18
523.568	1	11
523.738	1	12
523.909	1	20
524.079	1	16
524.249	1	6
524.419	1	5
524.589	1	14
524.759	1	6
524.929	1	12
525.099	1	7
525.269	1	9
525.439	1	6
525.610	1	16
525.780	1	4
525.950	1	14
526.120	1	12
526.290	1	19
526.460	1	12
526.630	1	8
526.800	1	16
526.970	1	13
527.140	1	12
527.311	1	-1
527.481	1	9
527.651	1	18
527.821	1	13
527.991	1	15
528.161	1	9
528.331	1	10
528.501	1	-1
528.671	1	11
528.841	1	8
529.011	1	9
529.181	1	21
529.352	1	20
529.522	1	6
529.692	1	16
529.862	1	10
530.032	1	9
530.202	1	15
530.372	1	20
530.542	1	6
530.712	1	2
530.882	1	0
531.052	1	29
531.222	1	17
531.392	1	17
531.563	1	15
531.733	1	4
531.903	1	9
532.073	1	5
532.243	1	14
532.413	1	24
532.583	1	20
532.753	1	11
532.923	1	17
533.093	1	9
533.263	1	7
533.433	1	14
533.603	1	20
533.773	1	6
533.943	1	16
534.113	1	17
534.284	1	12
534.454	1	7
534.624	1	12
534.794	1	11
534.964	1	18
535.134	1	8
535.304	1	5
535.474	1	10
535.644	1	-3
535.814	1	11
535.984	1	8
536.154	1	15
536.324	1	16
536.494	1	-2
536.664	1	17
536.834	1	18
537.004	1	0
537.174	1	3
537.344	1	15
537.514	1	6
537.685	1	1
537.855	1	6
538.025	1	17
538.195	1	12
538.365	1	6
538.535	1	4
538.705	1	9
538.875	1	15
539.045	1	-1
539.215	1	6
539.385	1	15
539.555	1	-2
539.725	1	12
539.895	1	-3
540.065	1	11
540.235	1	16
540.405	1	2
540.575	1	12
540.745	1	7
540.915	1	9
541.085	1	14
541.255	1	16
541.425	1	16
541.595	1	7
541.765	1	1
541.935	1	6
542.105	1	15
542.275	1	15
542.445	1	8
542.615	1	11
542.785	1	5
542.955	1	20
543.125	1	4
543.295	1	-2
543.465	1	8
543.635	1	7
543.805	1	7
543.975	1	1
544.145	1	14
544.315	1	-6
544.485	1	4
544.655	1	15
544.825	1	20
544.995	1	30
545.165	1	6
545.335	1	5
545.505	1	6
545.675	1	19
545.845	1	11
546.015	1	14
546.185	1	8
546.355	1	18
546.525	1	9
546.695	1	16
546.865	1	5
547.035	1	3
547.205	1	14
547.375	1	9
547.545	1	9
547.715	1	5
547.885	1	4
548.055	1	7
548.225	1	14
548.395	1	-7
548.565	1	14
548.735	1	16
548.905	1	10
549.075	1	3
549.245	1	5
549.415	1	2
549.585	1	7
549.755	1	8
549.925	1	15
550.095	1	2
550.265	1	16
550.435	1	3
550.605	1	7
550.775	1	4
550.945	1	10
551.115	1	4
551.285	1	14
551.455	1	3
551.625	1	14
551.795	1	4
551.965	1	15
552.135	1	12
552.305	1	5
552.475	1	11
552.645	1	20
552.815	1	5
552.985	1	11
553.155	1	10
553.325	1	7
553.495	1	22
553.665	1	7
553.835	1	11
554.004	1	-2
554.174	1	4
554.344	1	12
554.514	1	11
554.684	1	2
554.854	1	5
555.024	1	5
555.194	1	11
555.364	1	16
555.534	1	11
555.704	1	17
555.874	1	-1
556.044	1	2
556.214	1	3
556.384	1	4
556.554	1	15
556.724	1	3
556.894	1	8
557.064	1	11
557.234	1	20
557.404	1	13
557.573	1	14
557.743	1	8
557.913	1	14
558.083	1	4
558.253	1	17
558.423	1	9
558.593	1	14
558.763	1	4
558.933	1	10
559.103	1	20
559.273	1	0
559.443	1	1
559.613	1	9
559.783	1	5
559.953	1	-2
560.122	1	10
560.292	1	2
560.462	1	1
560.632	1	6
560.802	1	10
560.972	1	11
561.142	1	16
561.312	1	4
561.482	1	2
561.652	1	5
561.822	1	4
561.992	1	12
562.162	1	-1
562.331	1	15
562.501	1	14
562.671	1	9
562.841	1	2
563.011	1	19
563.181	1	10
563.351	1	16
563.521	1	5
563.691	1	9
563.861	1	8
564.031	1	5
564.201	1	13
564.370	1	10
564.540	1	9
564.710	1	-1
564.880	1	7
565.050	1	1
565.220	1	13
565.390	1	9
565.560	1	3
565.730	1	13
565.900	1	8
566.069	1	-2
566.239	1	15
566.409	1	9
566.579	1	-4
566.749	1	2
566.919	1	4
567.089	1	13
567.259	1	7
567.429	1	11
567.599	1	17
567.768	1	17
567.938	1	7
568.108	1	3
568.278	1	8
568.448	1	11
568.618	1	11
568.788	1	12
568.958	1	8
569.128	1	18
569.297	1	16
569.467	1	18
569.637	1	1
569.807	1	21
569.977	1	-6
570.147	1	14
570.317	1	3
570.487	1	16
570.656	1	-2
570.826	1	-10
570.996	1	7
571.166	1	7
571.336	1	2
571.506	1	9
571.676	1	10
571.846	1	9
572.015	1	-1
572.185	1	6
572.355	1	15
572.525	1	9
572.695	1	4
572.865	1	6
573.035	1	9
573.205	1	3
573.374	1	5
573.544	1	4
573.714	1	6
573.884	1	10
574.054	1	10
574.224	1	9
574.394	1	3
574.563	1	2
574.733	1	14
574.903	1	1
575.073	1	4
575.243	1	15
575.413	1	-1
575.583	1	5
575.752	1	5
575.922	1	15
576.092	1	2
576.262	1	5
576.432	1	2
576.602	1	0
576.772	1	8
576.941	1	1
577.111	1	11
577.281	1	15
577.451	1	8
577.621	1	21
577.791	1	7
577.960	1	4
578.130	1	-3
578.300	1	7
578.470	1	6
578.640	1	5
578.810	1	9
578.979	1	12
579.149	1	12
579.319	1	1
579.489	1	14
579.659	1	11
579.829	1	10
579.998	1	12
580.168	1	11
580.338	1	13
580.508	1	12
580.678	1	4
580.848	1	10
581.017	1	-1
581.187	1	8
581.357	1	11
581.527	1	4
581.697	1	5
581.867	1	7
582.036	1	11
582.206	1	6
582.376	1	0
582.546	1	10
582.716	1	6
582.885	1	7
583.055	1	8
583.225	1	4
583.395	1	9
583.565	1	-1
583.735	1	6
583.904	1	6
584.074	1	18
584.244	1	1
584.414	1	8
584.584	1	10
584.753	1	-9
584.923	1	-4
585.093	1	11
585.263	1	8
585.433	1	8
585.602	1	15
585.772	1	12
585.942	1	4
586.112	1	4
586.282	1	12
586.451	1	11
586.621	1	12
586.791	1	11
586.961	1	12
587.131	1	16
587.300	1	9
587.470	1	0
587.640	1	8
587.810	1	7
587.980	1	9
588.149	1	9
588.319	1	6
588.489	1	4
588.659	1	11
588.829	1	13
588.998	1	21
589.168	1	12
589.338	1	1
589.508	1	8
589.677	1	11
589.847	1	-3
590.017	1	18
590.187	1	-2
590.357	1	16
590.526	1	-3
590.696	1	9
590.866	1	-3
591.036	1	16
591.205	1	12
591.375	1	14
591.545	1	18
591.715	1	-6
591.885	1	19
592.054	1	11
592.224	1	7
592.394	1	7
592.564	1	13
592.733	1	3
592.903	1	6
593.073	1	12
593.243	1	16
593.412	1	14
593.582	1	-1
593.752	1	7
593.922	1	17
594.091	1	8
594.261	1	5
594.431	1	0
594.601	1	11
594.771	1	8
594.940	1	9
595.110	1	8
595.280	1	17
595.450	1	22
595.619	1	5
595.789	1	15
595.959	1	16
596.129	1	28
596.298	1	14
596.468	1	8
596.638	1	15
596.808	1	14
596.977	1	10
597.147	1	16
597.317	1	11
597.487	1	1
597.656	1	-3
597.826	1	25
597.996	1	20
598.166	1	22
598.335	1	14
598.505	1	23
598.675	1	12
598.844	1	14
599.014	1	6
599.184	1	4
599.354	1	34
599.523	1	29
599.693	1	19
599.863	1	12
600.033	1	16
600.202	1	5
600.372	1	18
600.542	1	13
600.712	1	7
600.881	1	20
601.051	1	13
601.221	1	29
601.390	1	6
601.560	1	5
601.730	1	9
601.900	1	14
602.069	1	23
602.239	1	1
602.409	1	19
602.578	1	20
602.748	1	3
602.918	1	12
603.088	1	4
603.257	1	14
603.427	1	13
603.597	1	16
603.767	1	21
603.936	1	14
604.106	1	21
604.276	1	14
604.445	1	15
604.615	1	21
604.785	1	19
604.954	1	21
605.124	1	21
605.294	1	12
605.464	1	21
605.633	1	22
605.803	1	14
605.973	1	13
606.142	1	18
606.312	1	14
606.482	1	5
606.652	1	13
606.821	1	9
606.991	1	6
607.161	1	14
607.330	1	21
607.500	1	20
607.670	1	24
607.839	1	16
608.009	1	10
608.179	1	21
608.348	1	20
608.518	1	12
608.688	1	20
608.858	1	15
609.027	1	28
609.197	1	20
609.367	1	13
609.536	1	17
609.706	1	29
609.876	1	18
610.045	1	17
610.215	1	26
610.385	1	22
610.554	1	25
610.724	1	9
610.894	1	20
611.063	1	16
611.233	1	21
611.403	1	28
611.572	1	31
611.742	1	22
611.912	1	22
612.081	1	23
612.251	1	12
612.421	1	23
612.590	1	17
612.760	1	13
612.930	1	30
613.099	1	23
613.269	1	14
613.439	1	34
613.608	1	12
613.778	1	27
613.948	1	26
614.117	1	22
614.287	1	22
614.457	1	25
614.626	1	33
614.796	1	33
614.966	1	38
615.135	1	39
615.305	1	20
615.475	1	40
615.644	1	16
615.814	1	26
615.984	1	22
616.153	1	17
616.323	1	22
616.493	1	26
616.662	1	31
616.832	1	31
617.002	1	31
617.171	1	33
617.341	1	30
617.511	1	27
617.680	1	29
617.850	1	30
618.019	1	32
618.189	1	34
618.359	1	31
618.528	1	21
618.698	1	29
618.868	1	26
619.037	1	25
619.207	1	25
619.377	1	30
619.546	1	25
619.716	1	33
619.885	1	37
620.055	1	22
620.225	1	30
620.394	1	31
620.564	1	47
620.734	1	18
620.903	1	37
621.073	1	31
621.242	1	40
621.412	1	19
621.582	1	32
621.751	1	25
621.921	1	23
622.091	1	32
622.260	1	29
622.430	1	34
622.599	1	24
622.769	1	27
622.939	1	24
623.108	1	34
623.278	1	35
623.448	1	28
623.617	1	32
623.787	1	39
623.956	1	25
624.126	1	44
624.296	1	24
624.465	1	29
624.635	1	23
624.804	1	27
624.974	1	34
625.144	1	41
625.313	1	38
625.483	1	36
625.652	1	36
625.822	1	35
625.992	1	34
626.161	1	45
626.331	1	40
626.501	1	29
626.670	1	34
626.840	1	37
627.009	1	34
627.179	1	42
627.348	1	34
627.518	1	32
627.688	1	35
627.857	1	23
628.027	1	50
628.196	1	30
628.366	1	34
628.536	1	34
628.705	1	49
628.875	1	36
629.044	1	24
629.214	1	32
629.384	1	36
629.553	1	40
629.723	1	35
629.892	1	39
630.062	1	39
630.232	1	28
630.401	1	46
630.571	1	31
630.740	1	36
630.910	1	40
631.079	1	40
631.249	1	30
631.419	1	32
631.588	1	33
631.758	1	30
631.927	1	38
632.097	1	35
632.266	1	23
632.436	1	38
632.606	1	43
632.775	1	28
632.945	1	34
633.114	1	31
633.284	1	38
633.453	1	49
633.623	1	42
633.793	1	28
633.962	1	41
634.132	1	30
634.301	1	34
634.471	1	37
634.640	1	29
634.810	1	33
634.979	1	43
635.149	1	32
635.319	1	47
635.488	1	39
635.658	1	28
635.827	1	45
635.997	1	44
636.166	1	30
636.336	1	42
636.505	1	37
636.675	1	47
636.845	1	41
637.014	1	33
637.184	1	32
637.353	1	46
637.523	1	37
637.692	1	40
637.862	1	32
638.031	1	35
638.201	1	39
638.370	1	43
638.540	1	38
638.710	1	30
638.879	1	39
639.049	1	47
639.218	1	45
639.388	1	42
639.557	1	40
639.727	1	44
639.896	1	38
640.066	1	36
640.235	1	39
640.405	1	37
640.574	1	42
640.744	1	31
640.914	1	43
641.083	1	39
641.253	1	36
641.422	1	39
641.592	1	40
641.761	1	29
641.931	1	36
642.100	1	39
642.270	1	40
642.439	1	41
642.609	1	49
642.778	1	44
642.948	1	43
643.117	1	39
643.287	1	40
643.456	1	35
643.626	1	39
643.795	1	34
643.965	1	43
644.134	1	51
644.304	1	30
644.473	1	39
644.643	1	32
644.812	1	43
644.982	1	29
645.151	1	30
645.321	1	45
645.490	1	29
645.660	1	45
645.829	1	34
645.999	1	45
646.168	1	50
646.338	1	31
646.507	1	37
646.677	1	27
646.846	1	31
647.016	1	36
647.185	1	27
647.355	1	36
647.524	1	34
647.694	1	43
647.863	1	33
648.033	1	36
648.202	1	41
648.372	1	47
648.541	1	39
648.711	1	25
648.880	1	32
649.050	1	35
649.219	1	32
649.389	1	38
649.558	1	31
649.728	1	43
649.897	1	43
650.067	1	31
650.236	1	43
650.406	1	21
650.575	1	31
650.745	1	40
650.914	1	48
651.084	1	24
651.253	1	41
651.423	1	45
651.592	1	36
651.762	1	45
651.931	1	47
652.101	1	44
652.270	1	25
652.440	1	37
652.609	1	46
652.778	1	47
652.948	1	26
653.117	1	42
653.287	1	25
653.456	1	27
653.626	1	34
653.795	1	43
653.965	1	44
654.134	1	28
654.304	1	33
654.473	1	43
654.643	1	40
654.812	1	40
654.982	1	39
655.151	1	36
655.320	1	46
655.490	1	29
655.659	1	40
655.829	1	38
655.998	1	35
656.168	1	24
656.337	1	31
656.507	1	25
656.676	1	40
656.846	1	39
657.015	1	43
657.184	1	43
657.354	1	33
657.523	1	30
657.693	1	28
657.862	1	27
658.032	1	32
658.201	1	34
658.371	1	43
658.540	1	34
658.709	1	32
658.879	1	42
659.048	1	33
659.218	1	36
659.387	1	32
659.557	1	39
659.726	1	39
659.895	1	30
660.065	1	36
660.234	1	21
660.404	1	26
660.573	1	24
660.743	1	44
660.912	1	38
661.081	1	25
661.251	1	32
661.420	1	32
661.590	1	33
661.759	1	30
661.929	1	30
662.098	1	40
662.267	1	26
662.437	1	32
662.606	1	25
662.776	1	30
662.945	1	27
663.115	1	25
663.284	1	26
663.453	1	43
663.623	1	29
663.792	1	14
663.962	1	36
664.131	1	31
664.300	1	25
664.470	1	32
664.639	1	30
664.809	1	37
664.978	1	36
665.148	1	41
665.317	1	24
665.486	1	23
665.656	1	47
665.825	1	43
665.995	1	21
666.164	1	28
666.333	1	27
666.503	1	35
666.672	1	27
666.842	1	24
667.011	1	41
667.180	1	30
667.350	1	37
667.519	1	25
667.689	1	39
667.858	1	15
668.027	1	35
668.197	1	35
668.366	1	28
668.536	1	36
668.705	1	28
668.874	1	33
669.044	1	22
669.213	1	31
669.382	1	32
669.552	1	27
669.721	1	28
669.891	1	30
670.060	1	30
670.229	1	24
670.399	1	39
670.568	1	22
670.738	1	27
670.907	1	25
671.076	1	28
671.246	1	31
671.415	1	28
671.584	1	23
671.754	1	22
671.923	1	29
672.093	1	35
672.262	1	31
672.431	1	25
672.601	1	37
672.770	1	28
672.939	1	22
673.109	1	18
673.278	1	30
673.448	1	31
673.617	1	27
673.786	1	16
