325.333	1	26
325.504	1	30
325.675	1	31
325.846	1	18
326.017	1	13
326.188	1	37
326.359	1	33
326.531	1	20
326.702	1	21
326.873	1	27
327.044	1	20
327.215	1	33
327.386	1	22
327.557	1	38
327.728	1	27
327.899	1	27
328.070	1	25
328.241	1	35
328.412	1	32
328.583	1	33
328.754	1	29
328.926	1	31
329.097	1	28
329.268	1	40
329.439	1	23
329.610	1	26
329.781	1	24
329.952	1	35
330.123	1	25
330.294	1	39
330.465	1	27
330.636	1	36
330.807	1	38
330.978	1	27
331.149	1	39
331.320	1	32
331.492	1	29
331.663	1	34
331.834	1	42
332.005	1	37
332.176	1	33
332.347	1	22
332.518	1	33
332.689	1	31
332.860	1	29
333.031	1	34
333.202	1	30
333.373	1	35
333.544	1	35
333.715	1	25
333.886	1	37
334.057	1	40
334.228	1	27
334.399	1	31
334.570	1	29
334.741	1	34
334.912	1	33
335.084	1	39
335.255	1	36
335.426	1	35
335.597	1	33
335.768	1	33
335.939	1	32
336.110	1	31
336.281	1	29
336.452	1	30
336.623	1	44
336.794	1	39
336.965	1	25
337.136	1	38
337.307	1	39
337.478	1	26
337.649	1	38
337.820	1	35
337.991	1	43
338.162	1	40
338.333	1	28
338.504	1	36
338.675	1	35
338.846	1	41
339.017	1	31
339.188	1	29
339.359	1	34
339.530	1	32
339.701	1	42
339.872	1	45
340.043	1	33
340.214	1	38
340.385	1	39
340.556	1	47
340.727	1	32
340.898	1	41
341.069	1	30
341.240	1	30
341.411	1	45
341.582	1	48
341.753	1	26
341.924	1	38
342.095	1	32
342.266	1	32
342.437	1	40
342.608	1	27
342.779	1	32
342.950	1	36
343.121	1	43
343.292	1	39
343.463	1	38
343.634	1	31
343.805	1	32
343.976	1	40
344.147	1	29
344.318	1	30
344.489	1	36
344.660	1	36
344.831	1	41
345.002	1	33
345.173	1	34
345.344	1	40
345.515	1	39
345.686	1	29
345.857	1	36
346.028	1	33
346.199	1	34
346.370	1	30
346.541	1	29
346.712	1	24
346.883	1	26
347.054	1	29
347.225	1	22
347.396	1	20
347.567	1	40
347.738	1	30
347.909	1	40
348.080	1	25
348.251	1	25
348.422	1	37
348.593	1	35
348.764	1	34
348.935	1	28
349.106	1	28
349.277	1	26
349.448	1	17
349.619	1	26
349.790	1	27
349.961	1	24
350.132	1	32
350.303	1	18
350.474	1	35
350.645	1	29
350.816	1	16
350.987	1	28
351.157	1	24
351.328	1	24
351.499	1	22
351.670	1	39
351.841	1	32
352.012	1	22
352.183	1	24
352.354	1	30
352.525	1	32
352.696	1	31
352.867	1	15
353.038	1	45
353.209	1	31
353.380	1	17
353.551	1	24
353.722	1	17
353.893	1	29
354.064	1	21
354.235	1	31
354.406	1	26
354.576	1	33
354.747	1	29
354.918	1	32
355.089	1	14
355.260	1	30
355.431	1	28
355.602	1	21
355.773	1	11
355.944	1	21
356.115	1	15
356.286	1	18
356.457	1	26
356.628	1	17
356.799	1	12
356.970	1	14
357.141	1	9
357.311	1	11
357.482	1	17
357.653	1	15
357.824	1	15
357.995	1	19
358.166	1	6
358.337	1	17
358.508	1	23
358.679	1	15
358.850	1	19
359.021	1	18
359.192	1	14
359.363	1	14
359.533	1	16
359.704	1	11
359.875	1	8
360.046	1	16
360.217	1	18
360.388	1	18
360.559	1	19
360.730	1	20
360.901	1	17
361.072	1	9
361.243	1	27
361.414	1	17
361.584	1	25
361.755	1	26
361.926	1	7
362.097	1	18
362.268	1	17
362.439	1	18
362.610	1	19
362.781	1	11
362.952	1	4
363.123	1	20
363.293	1	10
363.464	1	10
363.635	1	14
363.806	1	14
363.977	1	12
364.148	1	9
364.319	1	9
364.490	1	10
364.661	1	9
364.832	1	19
365.002	1	13
365.173	1	6
365.344	1	18
365.515	1	14
365.686	1	-4
365.857	1	10
366.028	1	5
366.199	1	9
366.370	1	6
366.540	1	12
366.711	1	6
366.882	1	14
367.053	1	7
367.224	1	4
367.395	1	0
367.566	1	6
367.737	1	11
367.908	1	9
368.078	1	5
368.249	1	12
368.420	1	23
368.591	1	13
368.762	1	0
368.933	1	5
369.104	1	9
369.274	1	5
369.445	1	8
369.616	1	2
369.787	1	15
369.958	1	1
370.129	1	4
370.300	1	2
370.471	1	14
370.641	1	0
370.812	1	8
370.983	1	10
371.154	1	15
371.325	1	9
371.496	1	10
371.667	1	10
371.837	1	11
372.008	1	-3
372.179	1	12
372.350	1	8
372.521	1	11
372.692	1	9
372.863	1	4
373.033	1	8
373.204	1	11
373.375	1	-1
373.546	1	9
373.717	1	-8
373.888	1	10
374.059	1	11
374.229	1	10
374.400	1	21
374.571	1	9
374.742	1	6
374.913	1	-4
375.084	1	7
375.254	1	13
375.425	1	5
375.596	1	15
375.767	1	11
375.938	1	9
376.109	1	6
376.279	1	6
376.450	1	18
376.621	1	6
376.792	1	4
376.963	1	13
377.134	1	3
377.304	1	5
377.475	1	-4
377.646	1	24
377.817	1	-2
377.988	1	16
378.159	1	7
378.329	1	12
378.500	1	-12
378.671	1	16
378.842	1	7
379.013	1	3
379.184	1	-1
379.354	1	9
379.525	1	4
379.696	1	3
379.867	1	8
380.038	1	10
380.209	1	-6
380.379	1	0
380.550	1	13
380.721	1	-1
380.892	1	4
381.063	1	11
381.233	1	4
381.404	1	12
381.575	1	15
381.746	1	4
381.917	1	21
382.087	1	4
382.258	1	6
382.429	1	17
382.600	1	14
382.771	1	16
382.941	1	9
383.112	1	9
383.283	1	11
383.454	1	7
383.625	1	16
383.795	1	19
383.966	1	0
384.137	1	11
384.308	1	5
384.479	1	16
384.649	1	3
384.820	1	15
384.991	1	3
385.162	1	-3
385.333	1	2
385.503	1	12
385.674	1	20
385.845	1	7
386.016	1	19
386.187	1	4
386.357	1	17
386.528	1	11
386.699	1	3
386.870	1	8
387.041	1	4
387.211	1	15
387.382	1	9
387.553	1	13
387.724	1	11
387.894	1	17
388.065	1	19
388.236	1	14
388.407	1	27
388.578	1	10
388.748	1	8
388.919	1	14
389.090	1	4
389.261	1	9
389.431	1	2
389.602	1	23
389.773	1	20
389.944	1	13
390.114	1	18
390.285	1	16
390.456	1	19
390.627	1	19
390.798	1	8
390.968	1	13
391.139	1	19
391.310	1	8
391.481	1	9
391.651	1	19
391.822	1	3
391.993	1	7
392.164	1	15
392.334	1	13
392.505	1	12
392.676	1	11
392.847	1	21
393.017	1	25
393.188	1	13
393.359	1	23
393.530	1	27
393.700	1	20
393.871	1	21
394.042	1	16
394.213	1	22
394.383	1	14
394.554	1	21
394.725	1	22
394.896	1	23
395.066	1	10
395.237	1	13
395.408	1	21
395.579	1	11
395.749	1	30
395.920	1	6
396.091	1	24
396.262	1	19
396.432	1	16
396.603	1	18
396.774	1	17
396.945	1	9
397.115	1	22
397.286	1	24
397.457	1	17
397.627	1	20
397.798	1	31
397.969	1	17
398.140	1	42
398.310	1	22
398.481	1	18
398.652	1	16
398.823	1	20
398.993	1	42
399.164	1	23
399.335	1	13
399.505	1	29
399.676	1	20
399.847	1	16
400.018	1	34
400.188	1	26
400.359	1	19
400.530	1	28
400.700	1	36
400.871	1	22
401.042	1	25
401.213	1	20
401.383	1	38
401.554	1	33
401.725	1	21
401.895	1	20
402.066	1	38
402.237	1	31
402.408	1	32
402.578	1	22
402.749	1	28
402.920	1	31
403.090	1	35
403.261	1	22
403.432	1	25
403.603	1	28
403.773	1	35
403.944	1	26
404.115	1	31
404.285	1	38
404.456	1	48
404.627	1	34
404.797	1	19
404.968	1	29
405.139	1	33
405.310	1	32
405.480	1	24
405.651	1	41
405.822	1	31
405.992	1	32
406.163	1	35
406.334	1	31
406.504	1	34
406.675	1	33
406.846	1	44
407.016	1	43
407.187	1	31
407.358	1	41
407.528	1	32
407.699	1	39
407.870	1	30
408.041	1	31
408.211	1	30
408.382	1	34
408.553	1	31
408.723	1	38
408.894	1	33
409.065	1	25
409.235	1	28
409.406	1	36
409.577	1	37
409.747	1	28
409.918	1	46
410.089	1	44
410.259	1	37
410.430	1	37
410.601	1	38
410.771	1	26
410.942	1	45
411.113	1	48
411.283	1	42
411.454	1	31
411.625	1	44
411.795	1	37
411.966	1	37
412.137	1	36
412.307	1	47
412.478	1	41
412.649	1	37
412.819	1	27
412.990	1	40
413.161	1	35
413.331	1	43
413.502	1	50
413.672	1	45
413.843	1	45
414.014	1	36
414.184	1	40
414.355	1	54
414.526	1	40
414.696	1	50
414.867	1	37
415.038	1	52
415.208	1	39
415.379	1	46
415.550	1	46
415.720	1	46
415.891	1	51
416.062	1	47
416.232	1	34
416.403	1	50
416.573	1	24
416.744	1	47
416.915	1	48
417.085	1	53
417.256	1	46
417.427	1	51
417.597	1	45
417.768	1	43
417.939	1	52
418.109	1	42
418.280	1	44
418.450	1	41
418.621	1	42
418.792	1	38
418.962	1	54
419.133	1	48
419.304	1	47
419.474	1	52
419.645	1	56
419.815	1	38
419.986	1	49
420.157	1	54
420.327	1	51
420.498	1	44
420.669	1	51
420.839	1	34
421.010	1	46
421.180	1	47
421.351	1	53
421.522	1	44
421.692	1	38
421.863	1	40
422.033	1	50
422.204	1	44
422.375	1	45
422.545	1	48
422.716	1	45
422.886	1	48
423.057	1	53
423.228	1	58
423.398	1	46
423.569	1	39
423.740	1	38
423.910	1	54
424.081	1	51
424.251	1	50
424.422	1	42
424.593	1	47
424.763	1	42
424.934	1	46
425.104	1	62
425.275	1	40
425.445	1	34
425.616	1	55
425.787	1	55
425.957	1	48
426.128	1	51
426.298	1	48
426.469	1	46
426.640	1	53
426.810	1	53
426.981	1	39
427.151	1	51
427.322	1	45
427.493	1	60
427.663	1	48
427.834	1	55
428.004	1	40
428.175	1	46
428.345	1	46
428.516	1	42
428.687	1	62
428.857	1	60
429.028	1	51
429.198	1	48
429.369	1	55
429.540	1	47
429.710	1	44
429.881	1	46
430.051	1	42
430.222	1	48
430.392	1	56
430.563	1	44
430.734	1	53
430.904	1	63
431.075	1	49
431.245	1	51
431.416	1	53
431.586	1	42
431.757	1	44
431.927	1	51
432.098	1	65
432.269	1	46
432.439	1	55
432.610	1	57
432.780	1	67
432.951	1	54
433.121	1	54
433.292	1	39
433.462	1	51
433.633	1	55
433.804	1	51
433.974	1	48
434.145	1	45
434.315	1	54
434.486	1	58
434.656	1	65
434.827	1	39
434.997	1	50
435.168	1	58
435.339	1	44
435.509	1	50
435.680	1	48
435.850	1	52
436.021	1	51
436.191	1	61
436.362	1	48
436.532	1	66
436.703	1	48
436.873	1	41
437.044	1	43
437.214	1	51
437.385	1	45
437.556	1	40
437.726	1	55
437.897	1	59
438.067	1	52
438.238	1	44
438.408	1	60
438.579	1	47
438.749	1	45
438.920	1	50
439.090	1	42
439.261	1	57
439.431	1	58
439.602	1	48
439.772	1	66
439.943	1	62
440.113	1	53
440.284	1	44
440.455	1	59
440.625	1	42
440.796	1	46
440.966	1	60
441.137	1	51
441.307	1	54
441.478	1	49
441.648	1	58
441.819	1	54
441.989	1	51
442.160	1	44
442.330	1	47
442.501	1	49
442.671	1	51
442.842	1	44
443.012	1	60
443.183	1	43
443.353	1	42
443.524	1	43
443.694	1	37
443.865	1	46
444.035	1	59
444.206	1	52
444.376	1	56
444.547	1	53
444.717	1	56
444.888	1	48
445.058	1	61
445.229	1	45
445.399	1	47
445.570	1	53
445.740	1	40
445.911	1	39
446.081	1	48
446.252	1	53
446.422	1	55
446.593	1	33
446.763	1	56
446.934	1	51
447.104	1	48
447.275	1	49
447.445	1	58
447.616	1	49
447.786	1	49
447.957	1	43
448.127	1	41
448.298	1	46
448.468	1	61
448.639	1	43
448.809	1	36
448.979	1	45
449.150	1	41
449.320	1	46
449.491	1	61
449.661	1	48
449.832	1	50
450.002	1	50
450.173	1	47
450.343	1	45
450.514	1	45
450.684	1	53
450.855	1	53
451.025	1	52
451.196	1	57
451.366	1	47
451.537	1	39
451.707	1	52
451.878	1	42
452.048	1	44
452.218	1	52
452.389	1	43
452.559	1	44
452.730	1	37
452.900	1	55
453.071	1	48
453.241	1	44
453.412	1	47
453.582	1	35
453.753	1	46
453.923	1	48
454.093	1	64
454.264	1	52
454.434	1	44
454.605	1	37
454.775	1	47
454.946	1	52
455.116	1	39
455.287	1	30
455.457	1	35
455.628	1	54
455.798	1	36
455.968	1	43
456.139	1	52
456.309	1	50
456.480	1	44
456.650	1	49
456.821	1	41
456.991	1	26
457.161	1	52
457.332	1	46
457.502	1	46
457.673	1	44
457.843	1	48
458.014	1	32
458.184	1	37
458.355	1	35
458.525	1	35
458.695	1	42
458.866	1	39
459.036	1	36
459.207	1	39
459.377	1	44
459.548	1	42
459.718	1	40
459.888	1	35
460.059	1	31
460.229	1	38
460.400	1	20
460.570	1	43
460.740	1	49
460.911	1	29
461.081	1	60
461.252	1	33
461.422	1	46
461.593	1	30
461.763	1	46
461.933	1	43
462.104	1	38
462.274	1	41
462.445	1	37
462.615	1	39
462.785	1	35
462.956	1	36
463.126	1	36
463.297	1	50
463.467	1	45
463.638	1	40
463.808	1	30
463.978	1	34
464.149	1	28
464.319	1	33
464.490	1	46
464.660	1	26
464.830	1	55
465.001	1	31
465.171	1	31
465.342	1	40
465.512	1	26
465.682	1	30
465.853	1	40
466.023	1	37
466.194	1	26
466.364	1	33
466.534	1	36
466.705	1	44
466.875	1	33
467.045	1	29
467.216	1	28
467.386	1	43
467.557	1	36
467.727	1	35
467.897	1	23
468.068	1	42
468.238	1	31
468.409	1	26
468.579	1	34
468.749	1	35
468.920	1	29
469.090	1	17
469.260	1	37
469.431	1	32
469.601	1	35
469.772	1	25
469.942	1	35
470.112	1	24
470.283	1	30
470.453	1	26
470.623	1	27
470.794	1	32
470.964	1	47
471.135	1	26
471.305	1	34
471.475	1	37
471.646	1	29
471.816	1	34
471.986	1	37
472.157	1	25
472.327	1	31
472.497	1	32
472.668	1	33
472.838	1	23
473.009	1	31
473.179	1	40
473.349	1	37
473.520	1	17
473.690	1	31
473.860	1	41
474.031	1	32
474.201	1	22
474.371	1	30
474.542	1	29
474.712	1	28
474.882	1	37
475.053	1	31
475.223	1	25
475.394	1	31
475.564	1	20
475.734	1	29
475.905	1	29
476.075	1	33
476.245	1	29
476.416	1	30
476.586	1	29
476.756	1	42
476.927	1	20
477.097	1	33
477.267	1	24
477.438	1	27
477.608	1	28
477.778	1	26
477.949	1	29
478.119	1	26
478.289	1	19
478.460	1	30
478.630	1	33
478.800	1	33
478.971	1	18
479.141	1	29
479.311	1	35
479.482	1	19
479.652	1	27
479.822	1	32
479.993	1	21
480.163	1	26
480.333	1	16
480.504	1	29
480.674	1	33
480.844	1	23
481.015	1	29
481.185	1	35
481.355	1	25
481.525	1	22
481.696	1	24
481.866	1	23
482.036	1	14
482.207	1	12
482.377	1	27
482.547	1	11
482.718	1	21
482.888	1	15
483.058	1	22
483.229	1	17
483.399	1	24
483.569	1	2
483.740	1	15
483.910	1	26
484.080	1	16
484.250	1	26
484.421	1	24
484.591	1	16
484.761	1	24
484.932	1	14
485.102	1	19
485.272	1	25
485.443	1	18
485.613	1	23
485.783	1	19
485.953	1	28
486.124	1	23
486.294	1	22
486.464	1	29
486.635	1	21
486.805	1	20
486.975	1	25
487.146	1	24
487.316	1	20
487.486	1	22
487.656	1	31
487.827	1	22
487.997	1	25
488.167	1	18
488.338	1	27
488.508	1	8
488.678	1	19
488.848	1	16
489.019	1	18
489.189	1	9
489.359	1	21
489.529	1	15
489.700	1	10
489.870	1	20
490.040	1	14
490.211	1	16
490.381	1	36
490.551	1	11
490.721	1	22
490.892	1	23
491.062	1	19
491.232	1	24
491.402	1	14
491.573	1	17
491.743	1	10
491.913	1	15
492.084	1	19
492.254	1	23
492.424	1	7
492.594	1	21
492.765	1	15
492.935	1	17
493.105	1	9
493.275	1	10
493.446	1	5
493.616	1	17
493.786	1	12
493.956	1	16
494.127	1	11
494.297	1	10
494.467	1	15
494.637	1	10
494.808	1	12
494.978	1	15
495.148	1	11
495.318	1	14
495.489	1	18
495.659	1	19
495.829	1	6
495.999	1	25
496.170	1	9
496.340	1	11
496.510	1	23
496.680	1	15
496.851	1	19
497.021	1	22
497.191	1	2
497.361	1	13
497.532	1	15
497.702	1	14
497.872	1	17
498.042	1	22
498.213	1	13
498.383	1	11
498.553	1	23
498.723	1	10
498.894	1	7
499.064	1	5
499.234	1	9
499.404	1	15
499.574	1	19
499.745	1	9
499.915	1	17
500.085	1	17
500.255	1	13
500.426	1	5
500.596	1	27
500.766	1	10
500.936	1	15
501.106	1	14
501.277	1	22
501.447	1	15
501.617	1	17
501.787	1	1
501.958	1	16
502.128	1	20
502.298	1	15
502.468	1	14
502.638	1	7
502.809	1	18
502.979	1	1
503.149	1	25
503.319	1	8
503.489	1	16
503.660	1	8
503.830	1	12
504.000	1	13
504.170	1	20
504.340	1	18
504.511	1	9
504.681	1	15
504.851	1	16
505.021	1	6
505.192	1	16
505.362	1	15
505.532	1	15
505.702	1	19
505.872	1	16
506.043	1	3
506.213	1	11
506.383	1	2
506.553	1	16
506.723	1	1
506.893	1	8
507.064	1	8
507.234	1	4
507.404	1	7
507.574	1	12
507.744	1	13
507.915	1	15
508.085	1	15
508.255	1	19
508.425	1	0
508.595	1	24
508.766	1	15
508.936	1	11
509.106	1	21
509.276	1	10
509.446	1	10
509.616	1	2
509.787	1	12
509.957	1	7
510.127	1	13
510.297	1	5
510.467	1	23
510.638	1	-2
510.808	1	14
510.978	1	4
511.148	1	12
511.318	1	13
511.488	1	14
511.659	1	4
511.829	1	26
511.999	1	19
512.169	1	14
512.339	1	14
512.509	1	10
512.680	1	6
512.850	1	18
513.020	1	6
513.190	1	17
513.360	1	13
513.530	1	1
513.700	1	14
513.871	1	14
514.041	1	4
514.211	1	8
514.381	1	4
514.551	1	-1
514.721	1	16
514.892	1	4
515.062	1	7
515.232	1	1
515.402	1	13
515.572	1	12
515.742	1	4
515.912	1	9
516.083	1	12
516.253	1	1
516.423	1	12
516.593	1	10
516.763	1	24
516.933	1	7
517.104	1	13
517.274	1	13
517.444	1	9
517.614	1	2
517.784	1	10
517.954	1	-6
518.124	1	15
518.294	1	7
518.465	1	10
518.635	1	7
518.805	1	12
518.975	1	2
519.145	1	11
519.315	1	2
519.485	1	-2
519.656	1	2
519.826	1	3
519.996	1	9
520.166	1	14
520.336	1	15
520.506	1	2
520.676	1	15
520.846	1	13
521.017	1	12
521.187	1	10
521.357	1	13
521.527	1	12
521.697	1	-4
521.867	1	0
522.037	1	4
522.207	1	18
522.377	1	8
522.548	1	13
522.718	1	8
522.888	1	19
523.058	1	5
523.228	1	6
523.398	1	7
523.568	1	10
523.738	1	18
523.909	1	18
524.079	1	12
524.249	1	4
524.419	1	-3
524.589	1	10
524.759	1	6
524.929	1	13
525.099	1	4
525.269	1	9
525.439	1	8
525.610	1	22
525.780	1	10
525.950	1	3
526.120	1	1
526.290	1	11
526.460	1	8
526.630	1	9
526.800	1	8
526.970	1	14
527.140	1	10
527.311	1	-2
527.481	1	1
527.651	1	17
527.821	1	1
527.991	1	10
528.161	1	4
528.331	1	9
528.501	1	3
528.671	1	3
528.841	1	3
529.011	1	11
529.181	1	8
529.352	1	9
529.522	1	8
529.692	1	8
529.862	1	13
530.032	1	9
530.202	1	3
530.372	1	14
530.542	1	1
530.712	1	16
530.882	1	1
531.052	1	10
531.222	1	8
531.392	1	15
531.563	1	17
531.733	1	7
531.903	1	11
532.073	1	6
532.243	1	6
532.413	1	8
532.583	1	8
532.753	1	7
532.923	1	10
533.093	1	2
533.263	1	19
533.433	1	2
533.603	1	6
533.773	1	4
533.943	1	16
534.113	1	15
534.284	1	5
534.454	1	7
534.624	1	2
534.794	1	9
534.964	1	10
535.134	1	8
535.304	1	3
535.474	1	10
535.644	1	4
535.814	1	3
535.984	1	13
536.154	1	5
536.324	1	14
536.494	1	9
536.664	1	8
536.834	1	14
537.004	1	3
537.174	1	15
537.344	1	4
537.514	1	7
537.685	1	10
537.855	1	2
538.025	1	11
538.195	1	11
538.365	1	3
538.535	1	4
538.705	1	12
538.875	1	10
539.045	1	11
539.215	1	9
539.385	1	4
539.555	1	9
539.725	1	13
539.895	1	4
540.065	1	9
540.235	1	6
540.405	1	5
540.575	1	19
540.745	1	6
540.915	1	3
541.085	1	9
541.255	1	5
541.425	1	25
541.595	1	3
541.765	1	11
541.935	1	11
542.105	1	8
542.275	1	8
542.445	1	4
542.615	1	8
542.785	1	7
542.955	1	11
543.125	1	2
543.295	1	0
543.465	1	5
543.635	1	9
543.805	1	10
543.975	1	0
544.145	1	-1
544.315	1	5
544.485	1	0
544.655	1	3
544.825	1	7
544.995	1	13
545.165	1	5
545.335	1	15
545.505	1	6
545.675	1	20
545.845	1	9
546.015	1	6
546.185	1	3
546.355	1	17
546.525	1	8
546.695	1	2
546.865	1	-2
547.035	1	3
547.205	1	7
547.375	1	11
547.545	1	2
547.715	1	8
547.885	1	1
548.055	1	12
548.225	1	17
548.395	1	6
548.565	1	10
548.735	1	18
548.905	1	8
549.075	1	10
549.245	1	6
549.415	1	14
549.585	1	7
549.755	1	5
549.925	1	4
550.095	1	5
550.265	1	-2
550.435	1	6
550.605	1	5
550.775	1	7
550.945	1	6
551.115	1	2
551.285	1	6
551.455	1	8
551.625	1	9
551.795	1	-5
551.965	1	5
552.135	1	2
552.305	1	6
552.475	1	11
552.645	1	2
552.815	1	1
552.985	1	15
553.155	1	-4
553.325	1	-3
553.495	1	1
553.665	1	13
553.835	1	9
554.004	1	-2
554.174	1	12
554.344	1	10
554.514	1	12
554.684	1	2
554.854	1	10
555.024	1	-1
555.194	1	-1
555.364	1	7
555.534	1	12
555.704	1	10
555.874	1	4
556.044	1	7
556.214	1	7
556.384	1	21
556.554	1	0
556.724	1	2
556.894	1	5
557.064	1	11
557.234	1	8
557.404	1	8
557.573	1	1
557.743	1	14
557.913	1	15
558.083	1	-3
558.253	1	4
558.423	1	16
558.593	1	11
558.763	1	0
558.933	1	7
559.103	1	10
559.273	1	13
559.443	1	-5
559.613	1	7
559.783	1	5
559.953	1	2
560.122	1	3
560.292	1	7
560.462	1	7
560.632	1	11
560.802	1	17
560.972	1	6
561.142	1	-3
561.312	1	-4
561.482	1	17
561.652	1	-2
561.822	1	12
561.992	1	14
562.162	1	5
562.331	1	12
562.501	1	18
562.671	1	14
562.841	1	8
563.011	1	8
563.181	1	2
563.351	1	19
563.521	1	-6
563.691	1	-1
563.861	1	-3
564.031	1	7
564.201	1	8
564.370	1	4
564.540	1	11
564.710	1	6
564.880	1	12
565.050	1	1
565.220	1	18
565.390	1	10
565.560	1	7
565.730	1	0
565.900	1	7
566.069	1	-5
566.239	1	6
566.409	1	12
566.579	1	-4
566.749	1	-11
566.919	1	-2
567.089	1	0
567.259	1	4
567.429	1	15
567.599	1	11
567.768	1	12
567.938	1	9
568.108	1	-6
568.278	1	11
568.448	1	9
568.618	1	11
568.788	1	4
568.958	1	8
569.128	1	9
569.297	1	6
569.467	1	9
569.637	1	4
569.807	1	14
569.977	1	-4
570.147	1	12
570.317	1	2
570.487	1	21
570.656	1	-5
570.826	1	0
570.996	1	7
571.166	1	5
571.336	1	0
571.506	1	12
571.676	1	5
571.846	1	4
572.015	1	5
572.185	1	9
572.355	1	10
572.525	1	12
572.695	1	0
572.865	1	9
573.035	1	2
573.205	1	5
573.374	1	5
573.544	1	4
573.714	1	4
573.884	1	4
574.054	1	15
574.224	1	11
574.394	1	5
574.563	1	19
574.733	1	6
574.903	1	-9
575.073	1	1
575.243	1	7
575.413	1	-4
575.583	1	10
575.752	1	8
575.922	1	12
576.092	1	1
576.262	1	6
576.432	1	1
576.602	1	7
576.772	1	-1
576.941	1	2
577.111	1	4
577.281	1	10
577.451	1	2
577.621	1	12
577.791	1	5
577.960	1	4
578.130	1	-5
578.300	1	2
578.470	1	-3
578.640	1	10
578.810	1	0
578.979	1	6
579.149	1	10
579.319	1	5
579.489	1	4
579.659	1	-6
579.829	1	10
579.998	1	-6
580.168	1	-1
580.338	1	12
580.508	1	11
580.678	1	4
580.848	1	11
581.017	1	6
581.187	1	11
581.357	1	6
581.527	1	5
581.697	1	-8
581.867	1	17
582.036	1	-5
582.206	1	7
582.376	1	-1
582.546	1	9
582.716	1	-2
582.885	1	11
583.055	1	8
583.225	1	6
583.395	1	12
583.565	1	7
583.735	1	3
583.904	1	8
584.074	1	7
584.244	1	-3
584.414	1	13
584.584	1	3
584.753	1	-2
584.923	1	1
585.093	1	9
585.263	1	11
585.433	1	-8
585.602	1	16
585.772	1	6
585.942	1	17
586.112	1	4
586.282	1	9
586.451	1	15
586.621	1	13
586.791	1	12
586.961	1	8
587.131	1	2
587.300	1	15
587.470	1	-4
587.640	1	7
587.810	1	9
587.980	1	8
588.149	1	17
588.319	1	19
588.489	1	4
588.659	1	15
588.829	1	12
588.998	1	8
589.168	1	1
589.338	1	5
589.508	1	9
589.677	1	13
589.847	1	-4
590.017	1	10
590.187	1	-2
590.357	1	9
590.526	1	-1
590.696	1	5
590.866	1	-2
591.036	1	8
591.205	1	16
591.375	1	-4
591.545	1	6
591.715	1	-3
591.885	1	5
592.054	1	1
592.224	1	5
592.394	1	9
592.564	1	5
592.733	1	13
592.903	1	9
593.073	1	13
593.243	1	15
593.412	1	5
593.582	1	3
593.752	1	5
593.922	1	17
594.091	1	5
594.261	1	-8
594.431	1	3
594.601	1	4
594.771	1	4
594.940	1	3
595.110	1	26
595.280	1	12
595.450	1	27
595.619	1	-9
595.789	1	10
595.959	1	5
596.129	1	17
596.298	1	7
596.468	1	4
596.638	1	8
596.808	1	11
596.977	1	10
597.147	1	14
597.317	1	11
597.487	1	-2
597.656	1	1
597.826	1	14
597.996	1	7
598.166	1	12
598.335	1	11
598.505	1	13
598.675	1	7
598.844	1	17
599.014	1	0
599.184	1	0
599.354	1	19
599.523	1	16
599.693	1	12
599.863	1	-4
600.033	1	7
600.202	1	20
600.372	1	9
600.542	1	19
600.712	1	6
600.881	1	15
601.051	1	8
601.221	1	12
601.390	1	6
601.560	1	9
601.730	1	7
601.900	1	5
602.069	1	11
602.239	1	1
602.409	1	15
602.578	1	3
602.748	1	10
602.918	1	6
603.088	1	-1
603.257	1	12
603.427	1	9
603.597	1	-3
603.767	1	11
603.936	1	19
604.106	1	13
604.276	1	10
604.445	1	1
604.615	1	9
604.785	1	13
604.954	1	9
605.124	1	26
605.294	1	6
605.464	1	13
605.633	1	19
605.803	1	6
605.973	1	13
606.142	1	7
606.312	1	19
606.482	1	-5
606.652	1	11
606.821	1	18
606.991	1	11
607.161	1	10
607.330	1	18
607.500	1	10
607.670	1	17
607.839	1	8
608.009	1	12
608.179	1	3
608.348	1	17
608.518	1	13
608.688	1	12
608.858	1	11
609.027	1	30
609.197	1	16
609.367	1	6
609.536	1	24
609.706	1	13
609.876	1	11
610.045	1	17
610.215	1	22
610.385	1	30
610.554	1	10
610.724	1	20
610.894	1	26
611.063	1	14
611.233	1	18
611.403	1	27
611.572	1	16
611.742	1	20
611.912	1	15
612.081	1	15
612.251	1	7
612.421	1	20
612.590	1	7
612.760	1	27
612.930	1	10
613.099	1	21
613.269	1	21
613.439	1	21
613.608	1	9
613.778	1	39
613.948	1	9
614.117	1	8
614.287	1	16
614.457	1	11
614.626	1	16
614.796	1	15
614.966	1	16
615.135	1	21
615.305	1	15
615.475	1	16
615.644	1	19
615.814	1	14
615.984	1	13
616.153	1	14
616.323	1	10
616.493	1	15
616.662	1	23
616.832	1	6
617.002	1	18
617.171	1	12
617.341	1	20
617.511	1	22
617.680	1	13
617.850	1	24
618.019	1	22
618.189	1	32
618.359	1	14
618.528	1	21
618.698	1	30
618.868	1	19
619.037	1	19
619.207	1	18
619.377	1	12
619.546	1	20
619.716	1	23
619.885	1	22
620.055	1	29
620.225	1	25
620.394	1	27
620.564	1	24
620.734	1	31
620.903	1	35
621.073	1	15
621.242	1	32
621.412	1	14
621.582	1	20
621.751	1	22
621.921	1	12
622.091	1	18
622.260	1	17
622.430	1	22
622.599	1	17
622.769	1	24
622.939	1	10
623.108	1	18
623.278	1	25
623.448	1	17
623.617	1	14
623.787	1	25
623.956	1	28
624.126	1	30
624.296	1	13
624.465	1	30
624.635	1	30
624.804	1	24
624.974	1	23
625.144	1	26
625.313	1	10
625.483	1	28
625.652	1	22
625.822	1	27
625.992	1	34
626.161	1	27
626.331	1	39
626.501	1	24
626.670	1	26
626.840	1	15
627.009	1	25
627.179	1	37
627.348	1	24
627.518	1	20
627.688	1	23
627.857	1	19
628.027	1	35
628.196	1	25
628.366	1	22
628.536	1	33
628.705	1	28
628.875	1	15
629.044	1	22
629.214	1	32
629.384	1	16
629.553	1	19
629.723	1	24
629.892	1	22
630.062	1	8
630.232	1	21
630.401	1	35
630.571	1	12
630.740	1	31
630.910	1	32
631.079	1	39
631.249	1	26
631.419	1	22
631.588	1	27
631.758	1	29
631.927	1	27
632.097	1	30
632.266	1	10
632.436	1	31
632.606	1	37
632.775	1	30
632.945	1	10
633.114	1	32
633.284	1	26
633.453	1	27
633.623	1	23
633.793	1	22
633.962	1	30
634.132	1	15
634.301	1	27
634.471	1	22
634.640	1	26
634.810	1	25
634.979	1	23
635.149	1	24
635.319	1	36
635.488	1	28
635.658	1	28
635.827	1	26
635.997	1	32
636.166	1	36
636.336	1	23
636.505	1	29
636.675	1	19
636.845	1	37
637.014	1	20
637.184	1	22
637.353	1	35
637.523	1	12
637.692	1	30
637.862	1	27
638.031	1	26
638.201	1	23
638.370	1	37
638.540	1	29
638.710	1	28
638.879	1	34
639.049	1	28
639.218	1	30
639.388	1	36
639.557	1	20
639.727	1	37
639.896	1	16
640.066	1	30
640.235	1	26
640.405	1	38
640.574	1	28
640.744	1	35
640.914	1	21
641.083	1	40
641.253	1	34
641.422	1	17
641.592	1	21
641.761	1	28
641.931	1	25
642.100	1	32
642.270	1	19
642.439	1	33
642.609	1	39
642.778	1	17
642.948	1	32
643.117	1	23
643.287	1	21
643.456	1	24
643.626	1	27
643.795	1	35
643.965	1	27
644.134	1	34
644.304	1	23
644.473	1	31
644.643	1	17
644.812	1	24
644.982	1	27
645.151	1	22
645.321	1	27
645.490	1	25
645.660	1	34
645.829	1	26
645.999	1	34
646.168	1	34
646.338	1	27
646.507	1	27
646.677	1	29
646.846	1	17
647.016	1	31
647.185	1	27
647.355	1	27
647.524	1	14
647.694	1	31
647.863	1	25
648.033	1	29
648.202	1	41
648.372	1	32
648.541	1	21
648.711	1	22
648.880	1	21
649.050	1	5
649.219	1	33
649.389	1	21
649.558	1	32
649.728	1	27
649.897	1	29
650.067	1	17
650.236	1	17
650.406	1	28
650.575	1	27
650.745	1	16
650.914	1	29
651.084	1	17
651.253	1	25
651.423	1	30
651.592	1	19
651.762	1	32
651.931	1	40
652.101	1	32
652.270	1	15
652.440	1	20
652.609	1	31
652.778	1	30
652.948	1	27
653.117	1	35
653.287	1	28
653.456	1	23
653.626	1	30
653.795	1	23
653.965	1	34
654.134	1	36
654.304	1	20
654.473	1	22
654.643	1	30
654.812	1	29
654.982	1	26
655.151	1	24
655.320	1	43
655.490	1	24
655.659	1	38
655.829	1	32
655.998	1	21
656.168	1	14
656.337	1	11
656.507	1	20
656.676	1	20
656.846	1	33
657.015	1	25
657.184	1	28
657.354	1	24
657.523	1	26
657.693	1	28
657.862	1	14
658.032	1	26
658.201	1	22
658.371	1	20
658.540	1	27
658.709	1	19
658.879	1	29
659.048	1	23
659.218	1	18
659.387	1	20
659.557	1	26
659.726	1	19
659.895	1	25
660.065	1	22
660.234	1	14
660.404	1	23
660.573	1	22
660.743	1	20
660.912	1	15
661.081	1	18
661.251	1	20
661.420	1	23
661.590	1	14
661.759	1	24
661.929	1	11
662.098	1	24
662.267	1	23
662.437	1	13
662.606	1	17
662.776	1	14
662.945	1	9
663.115	1	16
663.284	1	16
663.453	1	15
663.623	1	15
663.792	1	4
663.962	1	17
664.131	1	22
664.300	1	16
664.470	1	16
664.639	1	21
664.809	1	19
664.978	1	11
665.148	1	15
665.317	1	9
665.486	1	8
665.656	1	35
665.825	1	27
665.995	1	4
666.164	1	30
666.333	1	17
666.503	1	24
666.672	1	19
666.842	1	14
667.011	1	16
667.180	1	29
667.350	1	16
667.519	1	9
667.689	1	9
667.858	1	16
668.027	1	31
668.197	1	24
668.366	1	10
668.536	1	26
668.705	1	18
668.874	1	15
669.044	1	6
669.213	1	22
669.382	1	9
669.552	1	15
669.721	1	18
669.891	1	22
670.060	1	18
670.229	1	21
670.399	1	29
670.568	1	11
670.738	1	17
670.907	1	7
671.076	1	16
671.246	1	25
671.415	1	13
671.584	1	8
671.754	1	20
671.923	1	18
672.093	1	23
672.262	1	24
672.431	1	6
672.601	1	16
672.770	1	4
672.939	1	9
673.109	1	1
673.278	1	8
673.448	1	11
673.617	1	16
673.786	1	19
