325.333	1	25
325.504	1	24
325.675	1	17
325.846	1	29
326.017	1	23
326.188	1	31
326.359	1	42
326.531	1	26
326.702	1	26
326.873	1	29
327.044	1	18
327.215	1	38
327.386	1	20
327.557	1	40
327.728	1	37
327.899	1	25
328.070	1	30
328.241	1	37
328.412	1	26
328.583	1	36
328.754	1	26
328.926	1	34
329.097	1	37
329.268	1	44
329.439	1	21
329.610	1	35
329.781	1	30
329.952	1	27
330.123	1	32
330.294	1	39
330.465	1	30
330.636	1	40
330.807	1	34
330.978	1	36
331.149	1	35
331.320	1	42
331.492	1	32
331.663	1	39
331.834	1	36
332.005	1	40
332.176	1	30
332.347	1	41
332.518	1	26
332.689	1	34
332.860	1	23
333.031	1	41
333.202	1	43
333.373	1	27
333.544	1	32
333.715	1	31
333.886	1	41
334.057	1	39
334.228	1	35
334.399	1	43
334.570	1	23
334.741	1	40
334.912	1	34
335.084	1	52
335.255	1	40
335.426	1	36
335.597	1	39
335.768	1	38
335.939	1	37
336.110	1	35
336.281	1	28
336.452	1	46
336.623	1	47
336.794	1	33
336.965	1	39
337.136	1	35
337.307	1	46
337.478	1	27
337.649	1	39
337.820	1	37
337.991	1	33
338.162	1	35
338.333	1	39
338.504	1	51
338.675	1	34
338.846	1	46
339.017	1	34
339.188	1	42
339.359	1	37
339.530	1	37
339.701	1	38
339.872	1	44
340.043	1	35
340.214	1	31
340.385	1	38
340.556	1	40
340.727	1	40
340.898	1	55
341.069	1	31
341.240	1	24
341.411	1	34
341.582	1	44
341.753	1	35
341.924	1	37
342.095	1	39
342.266	1	40
342.437	1	43
342.608	1	39
342.779	1	37
342.950	1	29
343.121	1	38
343.292	1	39
343.463	1	35
343.634	1	44
343.805	1	27
343.976	1	43
344.147	1	38
344.318	1	36
344.489	1	41
344.660	1	36
344.831	1	30
345.002	1	36
345.173	1	30
345.344	1	34
345.515	1	41
345.686	1	40
345.857	1	34
346.028	1	38
346.199	1	51
346.370	1	35
346.541	1	36
346.712	1	34
346.883	1	26
347.054	1	26
347.225	1	34
347.396	1	20
347.567	1	48
347.738	1	31
347.909	1	49
348.080	1	36
348.251	1	28
348.422	1	33
348.593	1	28
348.764	1	38
348.935	1	30
349.106	1	32
349.277	1	20
349.448	1	28
349.619	1	36
349.790	1	38
349.961	1	29
350.132	1	41
350.303	1	36
350.474	1	36
350.645	1	39
350.816	1	22
350.987	1	26
351.157	1	24
351.328	1	22
351.499	1	26
351.670	1	30
351.841	1	44
352.012	1	25
352.183	1	25
352.354	1	41
352.525	1	21
352.696	1	32
352.867	1	5
353.038	1	41
353.209	1	25
353.380	1	14
353.551	1	26
353.722	1	28
353.893	1	25
354.064	1	27
354.235	1	29
354.406	1	19
354.576	1	27
354.747	1	24
354.918	1	19
355.089	1	32
355.260	1	30
355.431	1	22
355.602	1	24
355.773	1	22
355.944	1	22
356.115	1	30
356.286	1	23
356.457	1	23
356.628	1	22
356.799	1	25
356.970	1	20
357.141	1	16
357.311	1	35
357.482	1	32
357.653	1	19
357.824	1	30
357.995	1	27
358.166	1	13
358.337	1	23
358.508	1	20
358.679	1	11
358.850	1	25
359.021	1	23
359.192	1	19
359.363	1	25
359.533	1	28
359.704	1	31
359.875	1	19
360.046	1	11
360.217	1	26
360.388	1	24
360.559	1	20
360.730	1	27
360.901	1	13
361.072	1	24
361.243	1	23
361.414	1	17
361.584	1	24
361.755	1	26
361.926	1	10
362.097	1	16
362.268	1	21
362.439	1	15
362.610	1	16
362.781	1	19
362.952	1	11
363.123	1	19
363.293	1	25
363.464	1	13
363.635	1	16
363.806	1	16
363.977	1	18
364.148	1	12
364.319	1	12
364.490	1	12
364.661	1	16
364.832	1	24
365.002	1	17
365.173	1	8
365.344	1	14
365.515	1	16
365.686	1	9
365.857	1	13
366.028	1	9
366.199	1	19
366.370	1	9
366.540	1	15
366.711	1	10
366.882	1	9
367.053	1	11
367.224	1	10
367.395	1	7
367.566	1	16
367.737	1	13
367.908	1	12
368.078	1	8
368.249	1	14
368.420	1	14
368.591	1	14
368.762	1	11
368.933	1	11
369.104	1	15
369.274	1	13
369.445	1	1
369.616	1	5
369.787	1	27
369.958	1	12
370.129	1	3
370.300	1	19
370.471	1	14
370.641	1	-1
370.812	1	5
370.983	1	11
371.154	1	24
371.325	1	16
371.496	1	8
371.667	1	9
371.837	1	12
372.008	1	2
372.179	1	16
372.350	1	2
372.521	1	26
372.692	1	-1
372.863	1	15
373.033	1	4
373.204	1	5
373.375	1	8
373.546	1	18
373.717	1	5
373.888	1	10
374.059	1	12
374.229	1	16
374.400	1	20
374.571	1	17
374.742	1	13
374.913	1	5
375.084	1	6
375.254	1	17
375.425	1	11
375.596	1	18
375.767	1	12
375.938	1	11
376.109	1	15
376.279	1	5
376.450	1	14
376.621	1	3
376.792	1	5
376.963	1	16
377.134	1	5
377.304	1	16
377.475	1	5
377.646	1	11
377.817	1	9
377.988	1	15
378.159	1	15
378.329	1	15
378.500	1	3
378.671	1	13
378.842	1	3
379.013	1	14
379.184	1	3
379.354	1	18
379.525	1	4
379.696	1	0
379.867	1	12
380.038	1	15
380.209	1	2
380.379	1	8
380.550	1	17
380.721	1	1
380.892	1	12
381.063	1	21
381.233	1	18
381.404	1	14
381.575	1	16
381.746	1	5
381.917	1	24
382.087	1	8
382.258	1	8
382.429	1	17
382.600	1	22
382.771	1	15
382.941	1	20
383.112	1	19
383.283	1	17
383.454	1	16
383.625	1	13
383.795	1	21
383.966	1	7
384.137	1	14
384.308	1	15
384.479	1	23
384.649	1	7
384.820	1	18
384.991	1	5
385.162	1	18
385.333	1	19
385.503	1	11
385.674	1	27
385.845	1	9
386.016	1	14
386.187	1	5
386.357	1	16
386.528	1	19
386.699	1	23
386.870	1	11
387.041	1	8
387.211	1	14
387.382	1	12
387.553	1	25
387.724	1	17
387.894	1	16
388.065	1	16
388.236	1	19
388.407	1	29
388.578	1	15
388.748	1	16
388.919	1	8
389.090	1	16
389.261	1	20
389.431	1	10
389.602	1	23
389.773	1	13
389.944	1	15
390.114	1	28
390.285	1	6
390.456	1	26
390.627	1	19
390.798	1	11
390.968	1	2
391.139	1	18
391.310	1	4
391.481	1	18
391.651	1	26
391.822	1	19
391.993	1	17
392.164	1	17
392.334	1	22
392.505	1	21
392.676	1	27
392.847	1	33
393.017	1	28
393.188	1	21
393.359	1	19
393.530	1	37
393.700	1	34
393.871	1	15
394.042	1	17
394.213	1	39
394.383	1	18
394.554	1	16
394.725	1	12
394.896	1	17
395.066	1	14
395.237	1	7
395.408	1	25
395.579	1	24
395.749	1	20
395.920	1	21
396.091	1	35
396.262	1	17
396.432	1	29
396.603	1	24
396.774	1	16
396.945	1	16
397.115	1	22
397.286	1	30
397.457	1	34
397.627	1	27
397.798	1	27
397.969	1	22
398.140	1	31
398.310	1	28
398.481	1	10
398.652	1	25
398.823	1	21
398.993	1	47
399.164	1	33
399.335	1	29
399.505	1	24
399.676	1	27
399.847	1	24
400.018	1	15
400.188	1	40
400.359	1	33
400.530	1	25
400.700	1	37
400.871	1	37
401.042	1	38
401.213	1	25
401.383	1	35
401.554	1	29
401.725	1	34
401.895	1	29
402.066	1	42
402.237	1	27
402.408	1	21
402.578	1	28
402.749	1	43
402.920	1	42
403.090	1	36
403.261	1	27
403.432	1	20
403.603	1	31
403.773	1	33
403.944	1	41
404.115	1	29
404.285	1	40
404.456	1	35
404.627	1	47
404.797	1	35
404.968	1	35
405.139	1	28
405.310	1	46
405.480	1	25
405.651	1	40
405.822	1	37
405.992	1	42
406.163	1	29
406.334	1	27
406.504	1	35
406.675	1	34
406.846	1	47
407.016	1	45
407.187	1	17
407.358	1	45
407.528	1	25
407.699	1	44
407.870	1	42
408.041	1	41
408.211	1	23
408.382	1	43
408.553	1	37
408.723	1	39
408.894	1	46
409.065	1	43
409.235	1	35
409.406	1	34
409.577	1	44
409.747	1	37
409.918	1	50
410.089	1	52
410.259	1	46
410.430	1	36
410.601	1	49
410.771	1	41
410.942	1	48
411.113	1	43
411.283	1	46
411.454	1	31
411.625	1	45
411.795	1	47
411.966	1	49
412.137	1	46
412.307	1	43
412.478	1	42
412.649	1	44
412.819	1	25
412.990	1	40
413.161	1	33
413.331	1	40
413.502	1	50
413.672	1	41
413.843	1	42
414.014	1	46
414.184	1	51
414.355	1	51
414.526	1	45
414.696	1	53
414.867	1	41
415.038	1	45
415.208	1	56
415.379	1	55
415.550	1	51
415.720	1	51
415.891	1	59
416.062	1	48
416.232	1	45
416.403	1	56
416.573	1	50
416.744	1	46
416.915	1	53
417.085	1	66
417.256	1	40
417.427	1	46
417.597	1	60
417.768	1	53
417.939	1	49
418.109	1	44
418.280	1	49
418.450	1	45
418.621	1	51
418.792	1	47
418.962	1	50
419.133	1	47
419.304	1	57
419.474	1	52
419.645	1	54
419.815	1	51
419.986	1	51
420.157	1	58
420.327	1	47
420.498	1	55
420.669	1	45
420.839	1	42
421.010	1	52
421.180	1	56
421.351	1	56
421.522	1	41
421.692	1	50
421.863	1	55
422.033	1	64
422.204	1	40
422.375	1	43
422.545	1	61
422.716	1	54
422.886	1	56
423.057	1	48
423.228	1	63
423.398	1	62
423.569	1	52
423.740	1	38
423.910	1	56
424.081	1	53
424.251	1	54
424.422	1	38
424.593	1	51
424.763	1	49
424.934	1	65
425.104	1	67
425.275	1	50
425.445	1	42
425.616	1	54
425.787	1	51
425.957	1	54
426.128	1	54
426.298	1	51
426.469	1	52
426.640	1	51
426.810	1	57
426.981	1	51
427.151	1	58
427.322	1	55
427.493	1	66
427.663	1	64
427.834	1	70
428.004	1	53
428.175	1	53
428.345	1	55
428.516	1	56
428.687	1	72
428.857	1	66
429.028	1	71
429.198	1	61
429.369	1	59
429.540	1	66
429.710	1	53
429.881	1	56
430.051	1	59
430.222	1	61
430.392	1	59
430.563	1	61
430.734	1	67
430.904	1	71
431.075	1	70
431.245	1	62
431.416	1	69
431.586	1	63
431.757	1	71
431.927	1	61
432.098	1	77
432.269	1	73
432.439	1	77
432.610	1	64
432.780	1	67
432.951	1	65
433.121	1	70
433.292	1	64
433.462	1	50
433.633	1	66
433.804	1	70
433.974	1	71
434.145	1	76
434.315	1	74
434.486	1	85
434.656	1	81
434.827	1	79
434.997	1	79
435.168	1	71
435.339	1	87
435.509	1	78
435.680	1	85
435.850	1	80
436.021	1	89
436.191	1	88
436.362	1	74
436.532	1	97
436.703	1	85
436.873	1	78
437.044	1	84
437.214	1	82
437.385	1	80
437.556	1	86
437.726	1	100
437.897	1	95
438.067	1	89
438.238	1	94
438.408	1	98
438.579	1	100
438.749	1	90
438.920	1	90
439.090	1	106
439.261	1	94
439.431	1	114
439.602	1	106
439.772	1	113
439.943	1	102
440.113	1	110
440.284	1	102
440.455	1	118
440.625	1	103
440.796	1	116
440.966	1	121
441.137	1	122
441.307	1	124
441.478	1	114
441.648	1	118
441.819	1	117
441.989	1	122
442.160	1	127
442.330	1	126
442.501	1	128
442.671	1	145
442.842	1	127
443.012	1	141
443.183	1	138
443.353	1	147
443.524	1	135
443.694	1	139
443.865	1	144
444.035	1	156
444.206	1	149
444.376	1	156
444.547	1	166
444.717	1	167
444.888	1	166
445.058	1	173
445.229	1	163
445.399	1	169
445.570	1	187
445.740	1	185
445.911	1	180
446.081	1	195
446.252	1	188
446.422	1	222
446.593	1	202
446.763	1	222
446.934	1	211
447.104	1	207
447.275	1	203
447.445	1	211
447.616	1	231
447.786	1	246
447.957	1	242
448.127	1	248
448.298	1	245
448.468	1	280
448.639	1	272
448.809	1	267
448.979	1	276
449.150	1	296
449.320	1	287
449.491	1	300
449.661	1	318
449.832	1	325
450.002	1	339
450.173	1	346
450.343	1	337
450.514	1	348
450.684	1	373
450.855	1	386
451.025	1	391
451.196	1	389
451.366	1	380
451.537	1	409
451.707	1	419
451.878	1	421
452.048	1	439
452.218	1	459
452.389	1	463
452.559	1	466
452.730	1	491
452.900	1	511
453.071	1	510
453.241	1	520
453.412	1	537
453.582	1	525
453.753	1	550
453.923	1	576
454.093	1	572
454.264	1	616
454.434	1	602
454.605	1	614
454.775	1	611
454.946	1	635
455.116	1	620
455.287	1	647
455.457	1	658
455.628	1	660
455.798	1	681
455.968	1	676
456.139	1	685
456.309	1	694
456.480	1	722
456.650	1	715
456.821	1	723
456.991	1	709
457.161	1	765
457.332	1	730
457.502	1	753
457.673	1	775
457.843	1	760
458.014	1	775
458.184	1	775
458.355	1	766
458.525	1	765
458.695	1	765
458.866	1	769
459.036	1	779
459.207	1	779
459.377	1	769
459.548	1	780
459.718	1	754
459.888	1	787
460.059	1	759
460.229	1	765
460.400	1	763
460.570	1	749
460.740	1	763
460.911	1	742
461.081	1	754
461.252	1	732
461.422	1	745
461.593	1	736
461.763	1	742
461.933	1	686
462.104	1	709
462.274	1	708
462.445	1	696
462.615	1	684
462.785	1	679
462.956	1	650
463.126	1	658
463.297	1	667
463.467	1	645
463.638	1	620
463.808	1	637
463.978	1	611
464.149	1	587
464.319	1	605
464.490	1	603
464.660	1	588
464.830	1	580
465.001	1	570
465.171	1	554
465.342	1	545
465.512	1	540
465.682	1	537
465.853	1	532
466.023	1	535
466.194	1	526
466.364	1	512
466.534	1	515
466.705	1	514
466.875	1	485
467.045	1	477
467.216	1	465
467.386	1	485
467.557	1	457
467.727	1	476
467.897	1	461
468.068	1	470
468.238	1	446
468.409	1	448
468.579	1	440
468.749	1	444
468.920	1	434
469.090	1	414
469.260	1	451
469.431	1	412
469.601	1	437
469.772	1	413
469.942	1	411
470.112	1	398
470.283	1	427
470.453	1	403
470.623	1	403
470.794	1	404
470.964	1	407
471.135	1	378
471.305	1	395
471.475	1	405
471.646	1	388
471.816	1	395
471.986	1	400
472.157	1	387
472.327	1	388
472.497	1	381
472.668	1	385
472.838	1	376
473.009	1	375
473.179	1	383
473.349	1	365
473.520	1	371
473.690	1	377
473.860	1	375
474.031	1	363
474.201	1	361
474.371	1	364
474.542	1	376
474.712	1	342
474.882	1	360
475.053	1	348
475.223	1	355
475.394	1	338
475.564	1	335
475.734	1	337
475.905	1	324
476.075	1	350
476.245	1	328
476.416	1	333
476.586	1	308
476.756	1	335
476.927	1	322
477.097	1	310
477.267	1	316
477.438	1	307
477.608	1	306
477.778	1	313
477.949	1	305
478.119	1	299
478.289	1	293
478.460	1	308
478.630	1	293
478.800	1	288
478.971	1	274
479.141	1	293
479.311	1	287
479.482	1	288
479.652	1	269
479.822	1	272
479.993	1	270
480.163	1	262
480.333	1	253
480.504	1	273
480.674	1	266
480.844	1	266
481.015	1	261
481.185	1	271
481.355	1	251
481.525	1	255
481.696	1	253
481.866	1	231
482.036	1	236
482.207	1	249
482.377	1	253
482.547	1	248
482.718	1	253
482.888	1	245
483.058	1	233
483.229	1	252
483.399	1	240
483.569	1	241
483.740	1	230
483.910	1	236
484.080	1	231
484.250	1	229
484.421	1	236
484.591	1	240
484.761	1	233
484.932	1	236
485.102	1	245
485.272	1	237
485.443	1	214
485.613	1	231
485.783	1	218
485.953	1	233
486.124	1	222
486.294	1	237
486.464	1	230
486.635	1	226
486.805	1	211
486.975	1	243
487.146	1	237
487.316	1	219
487.486	1	223
487.656	1	234
487.827	1	224
487.997	1	226
488.167	1	214
488.338	1	228
488.508	1	234
488.678	1	228
488.848	1	204
489.019	1	226
489.189	1	218
489.359	1	228
489.529	1	222
489.700	1	230
489.870	1	213
490.040	1	228
490.211	1	237
490.381	1	234
490.551	1	222
490.721	1	223
490.892	1	230
491.062	1	232
491.232	1	223
491.402	1	225
491.573	1	235
491.743	1	227
491.913	1	229
492.084	1	244
492.254	1	242
492.424	1	233
492.594	1	250
492.765	1	237
492.935	1	248
493.105	1	237
493.275	1	248
493.446	1	247
493.616	1	245
493.786	1	247
493.956	1	261
494.127	1	260
494.297	1	247
494.467	1	252
494.637	1	252
494.808	1	239
494.978	1	243
495.148	1	240
495.318	1	257
495.489	1	249
495.659	1	259
495.829	1	272
495.999	1	259
496.170	1	242
496.340	1	256
496.510	1	271
496.680	1	268
496.851	1	263
497.021	1	256
497.191	1	280
497.361	1	269
497.532	1	263
497.702	1	274
497.872	1	286
498.042	1	274
498.213	1	262
498.383	1	287
498.553	1	266
498.723	1	301
498.894	1	283
499.064	1	274
499.234	1	291
499.404	1	295
499.574	1	297
499.745	1	292
499.915	1	311
500.085	1	286
500.255	1	306
500.426	1	303
500.596	1	309
500.766	1	304
500.936	1	300
501.106	1	307
501.277	1	310
501.447	1	329
501.617	1	326
501.787	1	315
501.958	1	332
502.128	1	342
502.298	1	335
502.468	1	340
502.638	1	332
502.809	1	348
502.979	1	336
503.149	1	364
503.319	1	348
503.489	1	357
503.660	1	356
503.830	1	360
504.000	1	346
504.170	1	373
504.340	1	371
504.511	1	364
504.681	1	366
504.851	1	373
505.021	1	381
505.192	1	375
505.362	1	392
505.532	1	389
505.702	1	392
505.872	1	391
506.043	1	380
506.213	1	403
506.383	1	410
506.553	1	402
506.723	1	405
506.893	1	402
507.064	1	416
507.234	1	425
507.404	1	407
507.574	1	435
507.744	1	433
507.915	1	413
508.085	1	420
508.255	1	429
508.425	1	417
508.595	1	439
508.766	1	441
508.936	1	430
509.106	1	440
509.276	1	465
509.446	1	445
509.616	1	448
509.787	1	447
509.957	1	448
510.127	1	452
510.297	1	454
510.467	1	473
510.638	1	451
510.808	1	459
510.978	1	470
511.148	1	457
511.318	1	451
511.488	1	459
511.659	1	480
511.829	1	484
511.999	1	470
512.169	1	464
512.339	1	480
512.509	1	505
512.680	1	505
512.850	1	495
513.020	1	502
513.190	1	515
513.360	1	494
513.530	1	506
513.700	1	500
513.871	1	518
514.041	1	492
514.211	1	507
514.381	1	522
514.551	1	503
514.721	1	521
514.892	1	535
515.062	1	535
515.232	1	536
515.402	1	543
515.572	1	533
515.742	1	551
515.912	1	553
516.083	1	541
516.253	1	529
516.423	1	551
516.593	1	548
516.763	1	568
516.933	1	556
517.104	1	558
517.274	1	568
517.444	1	555
517.614	1	561
517.784	1	556
517.954	1	555
518.124	1	573
518.294	1	553
518.465	1	565
518.635	1	579
518.805	1	586
518.975	1	573
519.145	1	570
519.315	1	577
519.485	1	566
519.656	1	581
519.826	1	572
519.996	1	596
520.166	1	613
520.336	1	585
520.506	1	586
520.676	1	586
520.846	1	583
521.017	1	599
521.187	1	617
521.357	1	602
521.527	1	611
521.697	1	614
521.867	1	591
522.037	1	593
522.207	1	626
522.377	1	637
522.548	1	623
522.718	1	626
522.888	1	610
523.058	1	615
523.228	1	619
523.398	1	626
523.568	1	638
523.738	1	651
523.909	1	657
524.079	1	649
524.249	1	639
524.419	1	654
524.589	1	643
524.759	1	652
524.929	1	657
525.099	1	654
525.269	1	682
525.439	1	670
525.610	1	668
525.780	1	653
525.950	1	689
526.120	1	659
526.290	1	688
526.460	1	687
526.630	1	682
526.800	1	678
526.970	1	687
527.140	1	694
527.311	1	701
527.481	1	659
527.651	1	713
527.821	1	668
527.991	1	690
528.161	1	688
528.331	1	717
528.501	1	703
528.671	1	693
528.841	1	696
529.011	1	686
529.181	1	715
529.352	1	718
529.522	1	710
529.692	1	702
529.862	1	703
530.032	1	688
530.202	1	726
530.372	1	705
530.542	1	714
530.712	1	732
530.882	1	713
531.052	1	702
531.222	1	722
531.392	1	718
531.563	1	731
531.733	1	738
531.903	1	749
532.073	1	738
532.243	1	729
532.413	1	737
532.583	1	757
532.753	1	783
532.923	1	740
533.093	1	745
533.263	1	748
533.433	1	750
533.603	1	756
533.773	1	737
533.943	1	776
534.113	1	777
534.284	1	765
534.454	1	751
534.624	1	762
534.794	1	782
534.964	1	790
535.134	1	781
535.304	1	804
535.474	1	778
535.644	1	768
535.814	1	796
535.984	1	806
536.154	1	793
536.324	1	791
536.494	1	816
536.664	1	790
536.834	1	823
537.004	1	807
537.174	1	782
537.344	1	808
537.514	1	799
537.685	1	786
537.855	1	809
538.025	1	800
538.195	1	801
538.365	1	794
538.535	1	787
538.705	1	826
538.875	1	823
539.045	1	827
539.215	1	851
539.385	1	837
539.555	1	830
539.725	1	835
539.895	1	810
540.065	1	821
540.235	1	824
540.405	1	829
540.575	1	844
540.745	1	825
540.915	1	821
541.085	1	845
541.255	1	831
541.425	1	843
541.595	1	855
541.765	1	848
541.935	1	840
542.105	1	845
542.275	1	840
542.445	1	865
542.615	1	864
542.785	1	846
542.955	1	844
543.125	1	842
543.295	1	846
543.465	1	865
543.635	1	882
543.805	1	852
543.975	1	874
544.145	1	892
544.315	1	880
544.485	1	888
544.655	1	896
544.825	1	892
544.995	1	893
545.165	1	887
545.335	1	898
545.505	1	889
545.675	1	896
545.845	1	887
546.015	1	886
546.185	1	909
546.355	1	922
546.525	1	906
546.695	1	904
546.865	1	920
547.035	1	908
547.205	1	908
547.375	1	917
547.545	1	911
547.715	1	904
547.885	1	921
548.055	1	916
548.225	1	917
548.395	1	893
548.565	1	933
548.735	1	919
548.905	1	926
549.075	1	926
549.245	1	902
549.415	1	931
549.585	1	931
549.755	1	928
549.925	1	947
550.095	1	945
550.265	1	939
550.435	1	956
550.605	1	949
550.775	1	958
550.945	1	954
551.115	1	956
551.285	1	949
551.455	1	943
551.625	1	949
551.795	1	937
551.965	1	958
552.135	1	925
552.305	1	965
552.475	1	973
552.645	1	957
552.815	1	952
552.985	1	966
553.155	1	967
553.325	1	972
553.495	1	966
553.665	1	959
553.835	1	974
554.004	1	971
554.174	1	976
554.344	1	968
554.514	1	979
554.684	1	1009
554.854	1	1003
555.024	1	975
555.194	1	987
555.364	1	999
555.534	1	1029
555.704	1	1016
555.874	1	1012
556.044	1	984
556.214	1	1010
556.384	1	1031
556.554	1	1011
556.724	1	979
556.894	1	1027
557.064	1	1023
557.234	1	1025
557.404	1	1023
557.573	1	1030
557.743	1	1025
557.913	1	1045
558.083	1	1018
558.253	1	1043
558.423	1	1016
558.593	1	1034
558.763	1	1035
558.933	1	1031
559.103	1	1043
559.273	1	1034
559.443	1	1029
559.613	1	1046
559.783	1	1055
559.953	1	1047
560.122	1	1069
560.292	1	1048
560.462	1	1083
560.632	1	1062
560.802	1	1069
560.972	1	1067
561.142	1	1092
561.312	1	1115
561.482	1	1078
561.652	1	1063
561.822	1	1096
561.992	1	1065
562.162	1	1099
562.331	1	1115
562.501	1	1124
562.671	1	1119
562.841	1	1110
563.011	1	1113
563.181	1	1111
563.351	1	1147
563.521	1	1100
563.691	1	1113
563.861	1	1114
564.031	1	1115
564.201	1	1122
564.370	1	1134
564.540	1	1120
564.710	1	1109
564.880	1	1146
565.050	1	1118
565.220	1	1144
565.390	1	1147
565.560	1	1147
565.730	1	1140
565.900	1	1135
566.069	1	1133
566.239	1	1168
566.409	1	1138
566.579	1	1149
566.749	1	1148
566.919	1	1179
567.089	1	1149
567.259	1	1175
567.429	1	1204
567.599	1	1189
567.768	1	1199
567.938	1	1192
568.108	1	1199
568.278	1	1200
568.448	1	1202
568.618	1	1209
568.788	1	1199
568.958	1	1221
569.128	1	1223
569.297	1	1218
569.467	1	1242
569.637	1	1202
569.807	1	1244
569.977	1	1227
570.147	1	1272
570.317	1	1216
570.487	1	1248
570.656	1	1238
570.826	1	1239
570.996	1	1257
571.166	1	1272
571.336	1	1282
571.506	1	1247
571.676	1	1282
571.846	1	1263
572.015	1	1236
572.185	1	1266
572.355	1	1303
572.525	1	1286
572.695	1	1270
572.865	1	1287
573.035	1	1314
573.205	1	1278
573.374	1	1308
573.544	1	1330
573.714	1	1316
573.884	1	1331
574.054	1	1347
574.224	1	1317
574.394	1	1331
574.563	1	1357
574.733	1	1337
574.903	1	1347
575.073	1	1348
575.243	1	1366
575.413	1	1350
575.583	1	1380
575.752	1	1352
575.922	1	1357
576.092	1	1375
576.262	1	1392
576.432	1	1375
576.602	1	1393
576.772	1	1399
576.941	1	1406
577.111	1	1425
577.281	1	1423
577.451	1	1381
577.621	1	1444
577.791	1	1433
577.960	1	1417
578.130	1	1431
578.300	1	1450
578.470	1	1436
578.640	1	1455
578.810	1	1405
578.979	1	1438
579.149	1	1449
579.319	1	1463
579.489	1	1476
579.659	1	1472
579.829	1	1474
579.998	1	1484
580.168	1	1455
580.338	1	1483
580.508	1	1513
580.678	1	1488
580.848	1	1523
581.017	1	1499
581.187	1	1523
581.357	1	1547
581.527	1	1517
581.697	1	1524
581.867	1	1548
582.036	1	1541
582.206	1	1541
582.376	1	1560
582.546	1	1527
582.716	1	1578
582.885	1	1587
583.055	1	1566
583.225	1	1580
583.395	1	1575
583.565	1	1561
583.735	1	1624
583.904	1	1604
584.074	1	1569
584.244	1	1604
584.414	1	1605
584.584	1	1586
584.753	1	1611
584.923	1	1597
585.093	1	1619
585.263	1	1595
585.433	1	1606
585.602	1	1621
585.772	1	1643
585.942	1	1604
586.112	1	1601
586.282	1	1656
586.451	1	1626
586.621	1	1637
586.791	1	1624
586.961	1	1648
587.131	1	1639
587.300	1	1652
587.470	1	1650
587.640	1	1632
587.810	1	1670
587.980	1	1673
588.149	1	1700
588.319	1	1643
588.489	1	1665
588.659	1	1664
588.829	1	1655
588.998	1	1674
589.168	1	1680
589.338	1	1656
589.508	1	1691
589.677	1	1686
589.847	1	1677
590.017	1	1657
590.187	1	1673
590.357	1	1718
590.526	1	1699
590.696	1	1709
590.866	1	1694
591.036	1	1722
591.205	1	1715
591.375	1	1731
591.545	1	1704
591.715	1	1731
591.885	1	1717
592.054	1	1711
592.224	1	1719
592.394	1	1721
592.564	1	1711
592.733	1	1747
592.903	1	1728
593.073	1	1726
593.243	1	1772
593.412	1	1756
593.582	1	1730
593.752	1	1736
593.922	1	1787
594.091	1	1745
594.261	1	1741
594.431	1	1753
594.601	1	1751
594.771	1	1743
594.940	1	1769
595.110	1	1759
595.280	1	1779
595.450	1	1812
595.619	1	1734
595.789	1	1786
595.959	1	1751
596.129	1	1784
596.298	1	1769
596.468	1	1776
596.638	1	1777
596.808	1	1772
596.977	1	1770
597.147	1	1789
597.317	1	1773
597.487	1	1795
597.656	1	1799
597.826	1	1791
597.996	1	1795
598.166	1	1814
598.335	1	1781
598.505	1	1792
598.675	1	1804
598.844	1	1817
599.014	1	1778
599.184	1	1802
599.354	1	1813
599.523	1	1795
599.693	1	1821
599.863	1	1803
600.033	1	1799
600.202	1	1816
600.372	1	1818
600.542	1	1825
600.712	1	1861
600.881	1	1845
601.051	1	1859
601.221	1	1839
601.390	1	1818
601.560	1	1822
601.730	1	1828
601.900	1	1829
602.069	1	1839
602.239	1	1815
602.409	1	1830
602.578	1	1834
602.748	1	1846
602.918	1	1844
603.088	1	1844
603.257	1	1835
603.427	1	1853
603.597	1	1849
603.767	1	1885
603.936	1	1833
604.106	1	1855
604.276	1	1848
604.445	1	1851
604.615	1	1868
604.785	1	1900
604.954	1	1848
605.124	1	1888
605.294	1	1851
605.464	1	1858
605.633	1	1861
605.803	1	1850
605.973	1	1860
606.142	1	1854
606.312	1	1871
606.482	1	1859
606.652	1	1852
606.821	1	1852
606.991	1	1861
607.161	1	1864
607.330	1	1854
607.500	1	1880
607.670	1	1856
607.839	1	1836
608.009	1	1831
608.179	1	1883
608.348	1	1867
608.518	1	1857
608.688	1	1838
608.858	1	1880
609.027	1	1861
609.197	1	1850
609.367	1	1844
609.536	1	1855
609.706	1	1849
609.876	1	1837
610.045	1	1841
610.215	1	1875
610.385	1	1846
610.554	1	1839
610.724	1	1828
610.894	1	1852
611.063	1	1871
611.233	1	1837
611.403	1	1834
611.572	1	1851
611.742	1	1854
611.912	1	1821
612.081	1	1809
612.251	1	1841
612.421	1	1839
612.590	1	1824
612.760	1	1810
612.930	1	1816
613.099	1	1822
613.269	1	1793
613.439	1	1802
613.608	1	1848
613.778	1	1810
613.948	1	1810
614.117	1	1829
614.287	1	1789
614.457	1	1799
614.626	1	1812
614.796	1	1767
614.966	1	1824
615.135	1	1779
615.305	1	1777
615.475	1	1791
615.644	1	1786
615.814	1	1764
615.984	1	1796
616.153	1	1766
616.323	1	1771
616.493	1	1763
616.662	1	1784
616.832	1	1778
617.002	1	1774
617.171	1	1774
617.341	1	1762
617.511	1	1745
617.680	1	1746
617.850	1	1756
618.019	1	1692
618.189	1	1743
618.359	1	1735
618.528	1	1733
618.698	1	1745
618.868	1	1724
619.037	1	1695
619.207	1	1704
619.377	1	1729
619.546	1	1693
619.716	1	1763
619.885	1	1715
620.055	1	1729
620.225	1	1733
620.394	1	1722
620.564	1	1731
620.734	1	1692
620.903	1	1702
621.073	1	1688
621.242	1	1705
621.412	1	1693
621.582	1	1709
621.751	1	1666
621.921	1	1665
622.091	1	1656
622.260	1	1643
622.430	1	1638
622.599	1	1673
622.769	1	1657
622.939	1	1642
623.108	1	1642
623.278	1	1644
623.448	1	1647
623.617	1	1654
623.787	1	1640
623.956	1	1624
624.126	1	1644
624.296	1	1627
624.465	1	1633
624.635	1	1610
624.804	1	1635
624.974	1	1635
625.144	1	1583
625.313	1	1613
625.483	1	1621
625.652	1	1586
625.822	1	1590
625.992	1	1599
626.161	1	1619
626.331	1	1605
626.501	1	1593
626.670	1	1586
626.840	1	1573
627.009	1	1565
627.179	1	1599
627.348	1	1572
627.518	1	1556
627.688	1	1541
627.857	1	1539
628.027	1	1550
628.196	1	1581
628.366	1	1584
628.536	1	1537
628.705	1	1580
628.875	1	1561
629.044	1	1489
629.214	1	1541
629.384	1	1525
629.553	1	1508
629.723	1	1500
629.892	1	1523
630.062	1	1514
630.232	1	1540
630.401	1	1488
630.571	1	1512
630.740	1	1514
630.910	1	1509
631.079	1	1510
631.249	1	1494
631.419	1	1489
631.588	1	1491
631.758	1	1489
631.927	1	1479
632.097	1	1486
632.266	1	1459
632.436	1	1503
632.606	1	1487
632.775	1	1477
632.945	1	1461
633.114	1	1483
633.284	1	1438
633.453	1	1472
633.623	1	1436
633.793	1	1477
633.962	1	1427
634.132	1	1440
634.301	1	1440
634.471	1	1410
634.640	1	1417
634.810	1	1420
634.979	1	1391
635.149	1	1403
635.319	1	1411
635.488	1	1440
635.658	1	1394
635.827	1	1409
635.997	1	1389
636.166	1	1404
636.336	1	1396
636.505	1	1371
636.675	1	1386
636.845	1	1379
637.014	1	1387
637.184	1	1373
637.353	1	1343
637.523	1	1377
637.692	1	1388
637.862	1	1375
638.031	1	1359
638.201	1	1390
638.370	1	1350
638.540	1	1341
638.710	1	1362
638.879	1	1334
639.049	1	1348
639.218	1	1346
639.388	1	1320
639.557	1	1313
639.727	1	1333
639.896	1	1306
640.066	1	1323
640.235	1	1283
640.405	1	1307
640.574	1	1307
640.744	1	1283
640.914	1	1295
641.083	1	1289
641.253	1	1265
641.422	1	1228
641.592	1	1242
641.761	1	1264
641.931	1	1226
642.100	1	1268
642.270	1	1228
642.439	1	1257
642.609	1	1233
642.778	1	1233
642.948	1	1231
643.117	1	1215
643.287	1	1219
643.456	1	1217
643.626	1	1183
643.795	1	1209
643.965	1	1184
644.134	1	1186
644.304	1	1206
644.473	1	1213
644.643	1	1160
644.812	1	1178
644.982	1	1172
645.151	1	1190
645.321	1	1171
645.490	1	1161
645.660	1	1169
645.829	1	1148
645.999	1	1149
646.168	1	1144
646.338	1	1158
646.507	1	1154
646.677	1	1130
646.846	1	1125
647.016	1	1119
647.185	1	1131
647.355	1	1128
647.524	1	1118
647.694	1	1120
647.863	1	1093
648.033	1	1080
648.202	1	1090
648.372	1	1083
648.541	1	1087
648.711	1	1075
648.880	1	1083
649.050	1	1084
649.219	1	1074
649.389	1	1039
649.558	1	1061
649.728	1	1041
649.897	1	1064
650.067	1	1047
650.236	1	1033
650.406	1	1042
650.575	1	1052
650.745	1	1020
650.914	1	1039
651.084	1	1002
651.253	1	1010
651.423	1	1005
651.592	1	989
651.762	1	991
651.931	1	991
652.101	1	966
652.270	1	969
652.440	1	981
652.609	1	986
652.778	1	1001
652.948	1	965
653.117	1	967
653.287	1	913
653.456	1	945
653.626	1	947
653.795	1	942
653.965	1	956
654.134	1	907
654.304	1	912
654.473	1	925
654.643	1	933
654.812	1	921
654.982	1	920
655.151	1	927
655.320	1	918
655.490	1	920
655.659	1	891
655.829	1	897
655.998	1	884
656.168	1	909
656.337	1	891
656.507	1	884
656.676	1	890
656.846	1	882
657.015	1	876
657.184	1	849
657.354	1	852
657.523	1	832
657.693	1	855
657.862	1	842
658.032	1	862
658.201	1	866
658.371	1	857
658.540	1	853
658.709	1	854
658.879	1	830
659.048	1	835
659.218	1	820
659.387	1	816
659.557	1	815
659.726	1	826
659.895	1	792
660.065	1	802
660.234	1	790
660.404	1	801
660.573	1	784
660.743	1	821
660.912	1	805
661.081	1	765
661.251	1	787
661.420	1	775
661.590	1	753
661.759	1	766
661.929	1	750
662.098	1	789
662.267	1	768
662.437	1	757
662.606	1	736
662.776	1	750
662.945	1	747
663.115	1	730
663.284	1	746
663.453	1	748
663.623	1	721
663.792	1	734
663.962	1	733
664.131	1	708
664.300	1	730
664.470	1	727
664.639	1	696
664.809	1	717
664.978	1	710
665.148	1	693
665.317	1	734
665.486	1	687
665.656	1	699
665.825	1	697
665.995	1	683
666.164	1	691
666.333	1	670
666.503	1	673
666.672	1	673
666.842	1	661
667.011	1	674
667.180	1	674
667.350	1	685
667.519	1	681
667.689	1	672
667.858	1	671
668.027	1	657
668.197	1	632
668.366	1	655
668.536	1	672
668.705	1	624
668.874	1	643
669.044	1	612
669.213	1	652
669.382	1	619
669.552	1	629
669.721	1	616
669.891	1	619
670.060	1	627
670.229	1	627
670.399	1	593
670.568	1	585
670.738	1	600
670.907	1	619
671.076	1	596
671.246	1	589
671.415	1	584
671.584	1	579
671.754	1	586
671.923	1	582
672.093	1	589
672.262	1	587
672.431	1	566
672.601	1	579
672.770	1	582
672.939	1	572
673.109	1	549
673.278	1	567
673.448	1	561
673.617	1	540
673.786	1	542
