340.368	1	1
340.539	1	1
340.710	1	9
340.881	1	-6
341.052	1	-3
341.223	1	12
341.394	1	0
341.565	1	11
341.737	1	4
341.908	1	-2
342.079	1	6
342.250	1	5
342.421	1	14
342.592	1	5
342.763	1	1
342.934	1	9
343.105	1	3
343.276	1	-3
343.447	1	9
343.618	1	2
343.789	1	16
343.960	1	7
344.131	1	4
344.302	1	3
344.473	1	-7
344.644	1	-2
344.815	1	10
344.986	1	3
345.157	1	-8
345.328	1	11
345.499	1	11
345.670	1	4
345.841	1	-2
346.012	1	13
346.183	1	3
346.354	1	8
346.526	1	-1
346.697	1	15
346.868	1	3
347.039	1	9
347.210	1	1
347.381	1	6
347.552	1	8
347.723	1	3
347.894	1	3
348.065	1	-4
348.236	1	15
348.407	1	-5
348.578	1	13
348.749	1	4
348.920	1	7
349.091	1	9
349.262	1	3
349.433	1	4
349.604	1	1
349.775	1	6
349.946	1	5
350.117	1	11
350.288	1	9
350.459	1	18
350.630	1	7
350.801	1	6
350.972	1	8
351.143	1	7
351.314	1	14
351.485	1	0
351.656	1	2
351.827	1	1
351.998	1	17
352.169	1	10
352.340	1	6
352.511	1	3
352.682	1	13
352.853	1	5
353.024	1	13
353.195	1	-4
353.366	1	13
353.537	1	13
353.708	1	18
353.879	1	10
354.050	1	10
354.221	1	0
354.392	1	8
354.563	1	7
354.734	1	21
354.905	1	10
355.076	1	9
355.247	1	14
355.418	1	-1
355.589	1	6
355.760	1	12
355.931	1	14
356.102	1	23
356.273	1	17
356.444	1	15
356.615	1	5
356.785	1	3
356.956	1	18
357.127	1	17
357.298	1	13
357.469	1	17
357.640	1	10
357.811	1	11
357.982	1	7
358.153	1	21
358.324	1	21
358.495	1	23
358.666	1	10
358.837	1	24
359.008	1	24
359.179	1	26
359.350	1	19
359.521	1	22
359.692	1	3
359.863	1	22
360.034	1	22
360.205	1	18
360.376	1	40
360.547	1	26
360.718	1	23
360.889	1	32
361.060	1	33
361.231	1	33
361.401	1	29
361.572	1	40
361.743	1	37
361.914	1	37
362.085	1	41
362.256	1	44
362.427	1	39
362.598	1	32
362.769	1	36
362.940	1	44
363.111	1	58
363.282	1	40
363.453	1	56
363.624	1	51
363.795	1	46
363.966	1	53
364.137	1	52
364.308	1	75
364.478	1	60
364.649	1	52
364.820	1	66
364.991	1	71
365.162	1	60
365.333	1	84
365.504	1	74
365.675	1	71
365.846	1	86
366.017	1	86
366.188	1	98
366.359	1	99
366.530	1	86
366.701	1	93
366.871	1	83
367.042	1	97
367.213	1	102
367.384	1	105
367.555	1	96
367.726	1	104
367.897	1	112
368.068	1	108
368.239	1	99
368.410	1	115
368.581	1	108
368.752	1	107
368.923	1	113
369.093	1	103
369.264	1	108
369.435	1	101
369.606	1	107
369.777	1	93
369.948	1	99
370.119	1	103
370.290	1	96
370.461	1	92
370.632	1	96
370.803	1	89
370.973	1	89
371.144	1	95
371.315	1	101
371.486	1	75
371.657	1	96
371.828	1	89
371.999	1	85
372.170	1	74
372.341	1	68
372.512	1	69
372.682	1	64
372.853	1	70
373.024	1	66
373.195	1	74
373.366	1	63
373.537	1	61
373.708	1	74
373.879	1	64
374.050	1	66
374.220	1	55
374.391	1	62
374.562	1	61
374.733	1	50
374.904	1	46
375.075	1	49
375.246	1	55
375.417	1	52
375.588	1	49
375.758	1	45
375.929	1	41
376.100	1	45
376.271	1	50
376.442	1	50
376.613	1	47
376.784	1	34
376.955	1	43
377.125	1	49
377.296	1	50
377.467	1	42
377.638	1	45
377.809	1	44
377.980	1	49
378.151	1	40
378.321	1	45
378.492	1	35
378.663	1	47
378.834	1	46
379.005	1	47
379.176	1	34
379.347	1	33
379.518	1	40
379.688	1	29
379.859	1	42
380.030	1	37
380.201	1	32
380.372	1	41
380.543	1	37
380.714	1	42
380.884	1	37
381.055	1	30
381.226	1	26
381.397	1	37
381.568	1	43
381.739	1	31
381.910	1	39
382.080	1	32
382.251	1	43
382.422	1	26
382.593	1	36
382.764	1	35
382.935	1	28
383.105	1	32
383.276	1	38
383.447	1	32
383.618	1	28
383.789	1	36
383.960	1	36
384.130	1	42
384.301	1	36
384.472	1	19
384.643	1	35
384.814	1	43
384.985	1	40
385.156	1	34
385.326	1	35
385.497	1	27
385.668	1	34
385.839	1	23
386.010	1	37
386.180	1	39
386.351	1	33
386.522	1	37
386.693	1	42
386.864	1	35
387.035	1	37
387.205	1	38
387.376	1	33
387.547	1	36
387.718	1	36
387.889	1	32
388.060	1	39
388.230	1	42
388.401	1	36
388.572	1	34
388.743	1	32
388.914	1	29
389.084	1	31
389.255	1	31
389.426	1	31
389.597	1	19
389.768	1	27
389.939	1	31
390.109	1	32
390.280	1	32
390.451	1	33
390.622	1	33
390.793	1	36
390.963	1	26
391.134	1	18
391.305	1	25
391.476	1	29
391.647	1	19
391.817	1	30
391.988	1	41
392.159	1	32
392.330	1	18
392.501	1	18
392.671	1	38
392.842	1	32
393.013	1	18
393.184	1	28
393.355	1	24
393.525	1	26
393.696	1	19
393.867	1	29
394.038	1	28
394.208	1	36
394.379	1	26
394.550	1	22
394.721	1	39
394.892	1	17
395.062	1	31
395.233	1	38
395.404	1	18
395.575	1	24
395.746	1	31
395.916	1	29
396.087	1	17
396.258	1	24
396.429	1	12
396.599	1	22
396.770	1	19
396.941	1	15
397.112	1	24
397.283	1	29
397.453	1	20
397.624	1	20
397.795	1	18
397.966	1	16
398.136	1	26
398.307	1	23
398.478	1	24
398.649	1	23
398.819	1	16
398.990	1	23
399.161	1	15
399.332	1	13
399.503	1	23
399.673	1	19
399.844	1	16
400.015	1	22
400.186	1	25
400.356	1	15
400.527	1	12
400.698	1	25
400.869	1	17
401.039	1	12
401.210	1	16
401.381	1	21
401.552	1	14
401.722	1	12
401.893	1	23
402.064	1	12
402.235	1	18
402.405	1	17
402.576	1	31
402.747	1	13
402.918	1	13
403.088	1	11
403.259	1	14
403.430	1	25
403.601	1	16
403.771	1	15
403.942	1	9
404.113	1	10
404.284	1	7
404.454	1	16
404.625	1	21
404.796	1	1
404.967	1	11
405.137	1	11
405.308	1	14
405.479	1	0
405.649	1	14
405.820	1	10
405.991	1	14
406.162	1	4
406.332	1	14
406.503	1	20
406.674	1	21
406.845	1	6
407.015	1	17
407.186	1	16
407.357	1	13
407.527	1	12
407.698	1	18
407.869	1	13
408.040	1	10
408.210	1	13
408.381	1	16
408.552	1	16
408.722	1	23
408.893	1	19
409.064	1	12
409.235	1	8
409.405	1	19
409.576	1	18
409.747	1	7
409.917	1	13
410.088	1	19
410.259	1	11
410.430	1	21
410.600	1	12
410.771	1	18
410.942	1	10
411.112	1	17
411.283	1	5
411.454	1	12
411.625	1	9
411.795	1	8
411.966	1	4
412.137	1	3
412.307	1	18
412.478	1	12
412.649	1	11
412.819	1	20
412.990	1	13
413.161	1	9
413.332	1	8
413.502	1	3
413.673	1	23
413.844	1	5
414.014	1	16
414.185	1	6
414.356	1	19
414.526	1	8
414.697	1	15
414.868	1	0
415.038	1	12
415.209	1	7
415.380	1	6
415.550	1	14
415.721	1	15
415.892	1	12
416.063	1	16
416.233	1	6
416.404	1	7
416.575	1	11
416.745	1	16
416.916	1	4
417.087	1	16
417.257	1	2
417.428	1	8
417.599	1	7
417.769	1	9
417.940	1	4
418.111	1	11
418.281	1	19
418.452	1	2
418.623	1	10
418.793	1	13
418.964	1	0
419.135	1	7
419.305	1	11
419.476	1	20
419.647	1	10
419.817	1	1
419.988	1	15
420.159	1	3
420.329	1	11
420.500	1	5
420.671	1	8
420.841	1	8
421.012	1	8
421.183	1	4
421.353	1	4
421.524	1	2
421.695	1	1
421.865	1	2
422.036	1	4
422.206	1	8
422.377	1	8
422.548	1	1
422.718	1	8
422.889	1	13
423.060	1	11
423.230	1	9
423.401	1	4
423.572	1	7
423.742	1	4
423.913	1	6
424.084	1	3
424.254	1	6
424.425	1	2
424.595	1	14
424.766	1	8
424.937	1	4
425.107	1	7
425.278	1	11
425.449	1	10
425.619	1	3
425.790	1	8
425.961	1	4
426.131	1	-1
426.302	1	3
426.472	1	18
426.643	1	-12
426.814	1	-9
426.984	1	8
427.155	1	21
427.326	1	2
427.496	1	15
427.667	1	18
427.837	1	17
428.008	1	13
428.179	1	11
428.349	1	17
428.520	1	10
428.691	1	10
428.861	1	2
429.032	1	17
429.202	1	6
429.373	1	18
429.544	1	-5
429.714	1	5
429.885	1	2
430.055	1	14
430.226	1	4
430.397	1	10
430.567	1	2
430.738	1	7
430.909	1	4
431.079	1	8
431.250	1	15
431.420	1	7
431.591	1	13
431.762	1	11
431.932	1	23
432.103	1	5
432.273	1	7
432.444	1	10
432.615	1	2
432.785	1	11
432.956	1	-4
433.126	1	5
433.297	1	13
433.468	1	6
433.638	1	4
433.809	1	2
433.979	1	3
434.150	1	8
434.320	1	-8
434.491	1	5
434.662	1	8
434.832	1	10
435.003	1	5
435.173	1	9
435.344	1	10
435.515	1	0
435.685	1	2
435.856	1	4
436.026	1	2
436.197	1	-1
436.368	1	8
436.538	1	7
436.709	1	15
436.879	1	7
437.050	1	7
437.220	1	10
437.391	1	8
437.562	1	-3
437.732	1	-2
437.903	1	-6
438.073	1	17
438.244	1	1
438.414	1	-4
438.585	1	9
438.756	1	-4
438.926	1	5
439.097	1	12
439.267	1	7
439.438	1	-2
439.608	1	1
439.779	1	6
439.949	1	12
440.120	1	3
440.291	1	1
440.461	1	14
440.632	1	7
440.802	1	-12
440.973	1	2
441.143	1	6
441.314	1	-7
441.485	1	3
441.655	1	2
441.826	1	8
441.996	1	3
442.167	1	1
442.337	1	12
442.508	1	5
442.678	1	-2
442.849	1	6
443.019	1	2
443.190	1	-1
443.361	1	0
443.531	1	13
443.702	1	0
443.872	1	14
444.043	1	0
444.213	1	-7
444.384	1	-6
444.554	1	4
444.725	1	3
444.895	1	2
445.066	1	-4
445.237	1	-3
445.407	1	1
445.578	1	7
445.748	1	4
445.919	1	2
446.089	1	8
446.260	1	0
446.430	1	7
446.601	1	7
446.771	1	7
446.942	1	-3
447.112	1	10
447.283	1	0
447.453	1	6
447.624	1	-2
447.794	1	2
447.965	1	2
448.135	1	-5
448.306	1	3
448.477	1	4
448.647	1	16
448.818	1	1
448.988	1	6
449.159	1	9
449.329	1	7
449.500	1	13
449.670	1	8
449.841	1	7
450.011	1	-9
450.182	1	9
450.352	1	-3
450.523	1	5
450.693	1	7
450.864	1	7
451.034	1	10
451.205	1	4
451.375	1	5
451.546	1	12
451.716	1	1
451.887	1	-4
452.057	1	1
452.228	1	14
452.398	1	0
452.569	1	11
452.739	1	1
452.910	1	-7
453.080	1	-2
453.251	1	3
453.421	1	7
453.592	1	0
453.762	1	3
453.933	1	12
454.103	1	5
454.274	1	-2
454.444	1	6
454.615	1	3
454.785	1	6
454.956	1	-4
455.126	1	1
455.297	1	3
455.467	1	6
455.638	1	8
455.808	1	-2
455.979	1	16
456.149	1	9
456.320	1	1
456.490	1	10
456.661	1	-6
456.831	1	17
457.001	1	6
457.172	1	6
457.342	1	10
457.513	1	0
457.683	1	20
457.854	1	10
458.024	1	4
458.195	1	-5
458.365	1	6
458.536	1	-4
458.706	1	12
458.877	1	-1
459.047	1	16
459.218	1	-6
459.388	1	17
459.559	1	10
459.729	1	-1
459.899	1	2
460.070	1	4
460.240	1	-8
460.411	1	-6
460.581	1	7
460.752	1	7
460.922	1	10
461.093	1	5
461.263	1	4
461.434	1	13
461.604	1	4
461.775	1	9
461.945	1	6
462.115	1	-1
462.286	1	11
462.456	1	-5
462.627	1	5
462.797	1	-7
462.968	1	3
463.138	1	5
463.309	1	0
463.479	1	10
463.649	1	9
463.820	1	-5
463.990	1	3
464.161	1	0
464.331	1	7
464.502	1	-1
464.672	1	-6
464.843	1	5
465.013	1	-4
465.183	1	5
465.354	1	7
465.524	1	0
465.695	1	-6
465.865	1	2
466.036	1	12
466.206	1	8
466.376	1	7
466.547	1	3
466.717	1	20
466.888	1	-3
467.058	1	1
467.229	1	2
467.399	1	8
467.569	1	0
467.740	1	8
467.910	1	6
468.081	1	6
468.251	1	13
468.422	1	10
468.592	1	5
468.762	1	-1
468.933	1	16
469.103	1	3
469.274	1	3
469.444	1	-2
469.614	1	3
469.785	1	14
469.955	1	-2
470.126	1	13
470.296	1	-2
470.467	1	-1
470.637	1	10
470.807	1	6
470.978	1	3
471.148	1	10
471.319	1	3
471.489	1	8
471.659	1	-2
471.830	1	0
472.000	1	7
472.171	1	20
472.341	1	3
472.511	1	7
472.682	1	6
472.852	1	7
473.023	1	3
473.193	1	3
473.363	1	4
473.534	1	3
473.704	1	-3
473.875	1	6
474.045	1	13
474.215	1	12
474.386	1	11
474.556	1	3
474.727	1	14
474.897	1	2
475.067	1	9
475.238	1	4
475.408	1	12
475.578	1	0
475.749	1	11
475.919	1	15
476.090	1	14
476.260	1	-2
476.430	1	1
476.601	1	15
476.771	1	4
476.942	1	7
477.112	1	5
477.282	1	5
477.453	1	1
477.623	1	-3
477.793	1	14
477.964	1	-3
478.134	1	11
478.305	1	9
478.475	1	3
478.645	1	-3
478.816	1	6
478.986	1	3
479.156	1	1
479.327	1	3
479.497	1	-2
479.667	1	10
479.838	1	1
480.008	1	12
480.179	1	4
480.349	1	0
480.519	1	-6
480.690	1	6
480.860	1	10
481.030	1	10
481.201	1	12
481.371	1	8
481.541	1	2
481.712	1	16
481.882	1	7
482.053	1	19
482.223	1	11
482.393	1	15
482.564	1	12
482.734	1	5
482.904	1	11
483.075	1	-2
483.245	1	17
483.415	1	7
483.586	1	16
483.756	1	1
483.926	1	16
484.097	1	10
484.267	1	17
484.437	1	14
484.608	1	14
484.778	1	7
484.948	1	6
485.119	1	1
485.289	1	11
485.459	1	20
485.630	1	10
485.800	1	13
485.970	1	8
486.141	1	10
486.311	1	-1
486.481	1	7
486.652	1	10
486.822	1	8
486.992	1	5
487.163	1	19
487.333	1	0
487.503	1	18
487.674	1	12
487.844	1	13
488.014	1	6
488.185	1	0
488.355	1	14
488.525	1	24
488.696	1	6
488.866	1	12
489.036	1	9
489.207	1	6
489.377	1	15
489.547	1	13
489.718	1	14
489.888	1	16
490.058	1	-2
490.228	1	15
490.399	1	3
490.569	1	19
490.739	1	13
490.910	1	17
491.080	1	7
491.250	1	14
491.421	1	5
491.591	1	9
491.761	1	16
491.932	1	13
492.102	1	20
492.272	1	17
492.442	1	9
492.613	1	18
492.783	1	15
492.953	1	14
493.124	1	18
493.294	1	8
493.464	1	26
493.635	1	25
493.805	1	22
493.975	1	6
494.145	1	11
494.316	1	15
494.486	1	9
494.656	1	12
494.827	1	16
494.997	1	30
495.167	1	23
495.337	1	26
495.508	1	23
495.678	1	17
495.848	1	26
496.019	1	11
496.189	1	26
496.359	1	17
496.529	1	16
496.700	1	22
496.870	1	17
497.040	1	33
497.211	1	29
497.381	1	20
497.551	1	20
497.721	1	18
497.892	1	25
498.062	1	9
498.232	1	17
498.403	1	18
498.573	1	26
498.743	1	25
498.913	1	24
499.084	1	24
499.254	1	10
499.424	1	32
499.594	1	26
499.765	1	22
499.935	1	21
500.105	1	36
500.275	1	26
500.446	1	33
500.616	1	19
500.786	1	13
500.956	1	29
501.127	1	35
501.297	1	26
501.467	1	19
501.638	1	28
501.808	1	13
501.978	1	26
502.148	1	27
502.319	1	27
502.489	1	22
502.659	1	27
502.829	1	36
503.000	1	16
503.170	1	25
503.340	1	27
503.510	1	16
503.681	1	31
503.851	1	37
504.021	1	31
504.191	1	37
504.362	1	22
504.532	1	39
504.702	1	35
504.872	1	41
505.042	1	26
505.213	1	28
505.383	1	37
505.553	1	33
505.723	1	41
505.894	1	44
506.064	1	39
506.234	1	44
506.404	1	43
506.575	1	27
506.745	1	40
506.915	1	37
507.085	1	40
507.256	1	32
507.426	1	38
507.596	1	42
507.766	1	41
507.936	1	32
508.107	1	38
508.277	1	44
508.447	1	34
508.617	1	29
508.788	1	46
508.958	1	34
509.128	1	50
509.298	1	39
509.468	1	42
509.639	1	50
509.809	1	34
509.979	1	46
510.149	1	44
510.319	1	41
510.490	1	49
510.660	1	45
510.830	1	44
511.000	1	33
511.171	1	39
511.341	1	44
511.511	1	41
511.681	1	40
511.851	1	58
512.022	1	37
512.192	1	50
512.362	1	49
512.532	1	44
512.702	1	43
512.873	1	39
513.043	1	41
513.213	1	48
513.383	1	49
513.553	1	40
513.724	1	43
513.894	1	48
514.064	1	40
514.234	1	45
514.404	1	39
514.575	1	30
514.745	1	39
514.915	1	47
515.085	1	52
515.255	1	44
515.425	1	33
515.596	1	40
515.766	1	45
515.936	1	36
516.106	1	42
516.276	1	49
516.447	1	44
516.617	1	48
516.787	1	40
516.957	1	37
517.127	1	49
517.297	1	51
517.468	1	44
517.638	1	50
517.808	1	50
517.978	1	43
518.148	1	48
518.319	1	54
518.489	1	55
518.659	1	53
518.829	1	43
518.999	1	52
519.169	1	43
519.340	1	55
519.510	1	35
519.680	1	52
519.850	1	43
520.020	1	43
520.190	1	46
520.361	1	56
520.531	1	63
520.701	1	43
520.871	1	62
521.041	1	59
521.211	1	38
521.382	1	51
521.552	1	65
521.722	1	54
521.892	1	51
522.062	1	57
522.232	1	55
522.402	1	46
522.573	1	53
522.743	1	48
522.913	1	57
523.083	1	59
523.253	1	40
523.423	1	57
523.593	1	55
523.764	1	51
523.934	1	39
524.104	1	53
524.274	1	50
524.444	1	55
524.614	1	56
524.784	1	52
524.955	1	40
525.125	1	45
525.295	1	40
525.465	1	63
525.635	1	44
525.805	1	44
525.975	1	54
526.146	1	50
526.316	1	56
526.486	1	55
526.656	1	45
526.826	1	58
526.996	1	36
527.166	1	60
527.337	1	56
527.507	1	55
527.677	1	47
527.847	1	53
528.017	1	35
528.187	1	47
528.357	1	52
528.527	1	52
528.698	1	55
528.868	1	36
529.038	1	52
529.208	1	54
529.378	1	54
529.548	1	64
529.718	1	44
529.888	1	55
530.058	1	51
530.229	1	69
530.399	1	56
530.569	1	62
530.739	1	40
530.909	1	47
531.079	1	59
531.249	1	59
531.419	1	49
531.589	1	57
531.760	1	41
531.930	1	53
532.100	1	58
532.270	1	49
532.440	1	49
532.610	1	54
532.780	1	50
532.950	1	55
533.120	1	70
533.290	1	54
533.461	1	47
533.631	1	50
533.801	1	48
533.971	1	55
534.141	1	60
534.311	1	67
534.481	1	46
534.651	1	50
534.821	1	64
534.991	1	59
535.162	1	52
535.332	1	47
535.502	1	53
535.672	1	53
535.842	1	57
536.012	1	48
536.182	1	63
536.352	1	38
536.522	1	53
536.692	1	61
536.862	1	45
537.032	1	48
537.203	1	60
537.373	1	35
537.543	1	59
537.713	1	53
537.883	1	64
538.053	1	45
538.223	1	50
538.393	1	49
538.563	1	52
538.733	1	38
538.903	1	60
539.073	1	44
539.243	1	49
539.413	1	56
539.584	1	59
539.754	1	48
539.924	1	53
540.094	1	56
540.264	1	40
540.434	1	55
540.604	1	31
540.774	1	48
540.944	1	46
541.114	1	47
541.284	1	46
541.454	1	51
541.624	1	42
541.794	1	44
541.964	1	53
542.134	1	42
542.305	1	53
542.475	1	50
542.645	1	44
542.815	1	50
542.985	1	41
543.155	1	46
543.325	1	42
543.495	1	40
543.665	1	37
543.835	1	47
544.005	1	30
544.175	1	36
544.345	1	51
544.515	1	53
544.685	1	56
544.855	1	50
545.025	1	44
545.195	1	44
545.365	1	38
545.535	1	44
545.705	1	46
545.875	1	37
546.045	1	50
546.216	1	28
546.386	1	48
546.556	1	43
546.726	1	45
546.896	1	33
547.066	1	34
547.236	1	40
547.406	1	44
547.576	1	43
547.746	1	46
547.916	1	40
548.086	1	50
548.256	1	51
548.426	1	50
548.596	1	40
548.766	1	47
548.936	1	45
549.106	1	52
549.276	1	49
549.446	1	45
549.616	1	54
549.786	1	49
549.956	1	45
550.126	1	46
550.296	1	47
550.466	1	40
550.636	1	46
550.806	1	39
550.976	1	41
551.146	1	47
551.316	1	47
551.486	1	45
551.656	1	50
551.826	1	49
551.996	1	36
552.166	1	43
552.336	1	43
552.506	1	41
552.676	1	55
552.846	1	42
553.016	1	47
553.186	1	40
553.356	1	50
553.526	1	50
553.696	1	39
553.866	1	39
554.036	1	48
554.206	1	39
554.376	1	48
554.546	1	42
554.716	1	52
554.886	1	43
555.056	1	41
555.226	1	41
555.396	1	36
555.566	1	40
555.736	1	38
555.906	1	38
556.076	1	52
556.246	1	44
556.416	1	26
556.586	1	57
556.756	1	49
556.926	1	35
557.096	1	34
557.266	1	37
557.436	1	36
557.606	1	39
557.776	1	41
557.946	1	50
558.116	1	44
558.286	1	32
558.456	1	42
558.626	1	45
558.796	1	44
558.966	1	36
559.136	1	33
559.306	1	30
559.476	1	45
559.646	1	37
559.816	1	43
559.986	1	28
560.155	1	48
560.325	1	43
560.495	1	29
560.665	1	50
560.835	1	39
561.005	1	43
561.175	1	39
561.345	1	34
561.515	1	26
561.685	1	30
561.855	1	23
562.025	1	27
562.195	1	39
562.365	1	34
562.535	1	32
562.705	1	41
562.875	1	44
563.045	1	31
563.215	1	31
563.385	1	26
563.555	1	34
563.725	1	31
563.895	1	38
564.064	1	38
564.234	1	30
564.404	1	36
564.574	1	26
564.744	1	35
564.914	1	20
565.084	1	49
565.254	1	32
565.424	1	29
565.594	1	39
565.764	1	40
565.934	1	37
566.104	1	18
566.274	1	27
566.444	1	28
566.614	1	25
566.783	1	20
566.953	1	21
567.123	1	20
567.293	1	20
567.463	1	18
567.633	1	26
567.803	1	28
567.973	1	33
568.143	1	28
568.313	1	24
568.483	1	32
568.653	1	35
568.823	1	24
568.993	1	36
569.162	1	32
569.332	1	30
569.502	1	30
569.672	1	31
569.842	1	35
570.012	1	38
570.182	1	19
570.352	1	28
570.522	1	29
570.692	1	24
570.862	1	28
571.031	1	25
571.201	1	10
571.371	1	27
571.541	1	26
571.711	1	22
571.881	1	22
572.051	1	37
572.221	1	20
572.391	1	30
572.561	1	23
572.731	1	26
572.900	1	17
573.070	1	26
573.240	1	24
573.410	1	14
573.580	1	32
573.750	1	19
573.920	1	16
574.090	1	30
574.260	1	32
574.430	1	14
574.599	1	25
574.769	1	30
574.939	1	24
575.109	1	8
575.279	1	17
575.449	1	26
575.619	1	20
575.789	1	23
575.959	1	12
576.128	1	38
576.298	1	14
576.468	1	25
576.638	1	28
576.808	1	27
576.978	1	16
577.148	1	30
577.318	1	16
577.487	1	19
577.657	1	22
577.827	1	19
577.997	1	18
578.167	1	22
578.337	1	16
578.507	1	16
578.677	1	4
578.846	1	21
579.016	1	23
579.186	1	12
579.356	1	7
579.526	1	22
579.696	1	21
579.866	1	12
580.036	1	13
580.205	1	33
580.375	1	19
580.545	1	19
580.715	1	17
580.885	1	23
581.055	1	13
581.225	1	13
581.394	1	16
581.564	1	15
581.734	1	12
581.904	1	10
582.074	1	22
582.244	1	13
582.414	1	7
582.583	1	12
582.753	1	7
582.923	1	13
583.093	1	14
583.263	1	21
583.433	1	12
583.603	1	19
583.772	1	8
583.942	1	21
584.112	1	13
584.282	1	14
584.452	1	19
584.622	1	14
584.791	1	6
584.961	1	15
585.131	1	14
585.301	1	17
585.471	1	11
585.641	1	8
585.811	1	16
585.980	1	22
586.150	1	26
586.320	1	13
586.490	1	11
586.660	1	18
586.830	1	15
586.999	1	11
587.169	1	16
587.339	1	11
587.509	1	21
587.679	1	18
587.849	1	17
588.018	1	17
588.188	1	1
588.358	1	17
588.528	1	10
588.698	1	14
588.867	1	8
589.037	1	9
589.207	1	-2
589.377	1	16
589.547	1	16
589.717	1	9
589.886	1	11
590.056	1	14
590.226	1	21
590.396	1	10
590.566	1	10
590.735	1	4
590.905	1	11
591.075	1	22
591.245	1	24
591.415	1	15
591.585	1	10
591.754	1	37
591.924	1	12
592.094	1	11
592.264	1	18
592.434	1	9
592.603	1	16
592.773	1	5
592.943	1	20
593.113	1	14
593.283	1	21
593.452	1	2
593.622	1	19
593.792	1	19
593.962	1	13
594.132	1	7
594.301	1	20
594.471	1	18
594.641	1	-3
594.811	1	17
594.981	1	9
595.150	1	19
595.320	1	4
595.490	1	7
595.660	1	12
595.829	1	26
595.999	1	11
596.169	1	14
596.339	1	19
596.509	1	12
596.678	1	17
596.848	1	22
597.018	1	9
597.188	1	17
597.358	1	4
597.527	1	12
597.697	1	7
597.867	1	15
598.037	1	14
598.206	1	12
598.376	1	9
598.546	1	16
598.716	1	19
598.885	1	11
599.055	1	7
599.225	1	14
599.395	1	18
599.565	1	-2
599.734	1	10
599.904	1	9
600.074	1	7
600.244	1	22
600.413	1	10
600.583	1	8
600.753	1	12
600.923	1	14
601.092	1	4
601.262	1	10
601.432	1	29
601.602	1	15
601.771	1	15
601.941	1	16
602.111	1	11
602.281	1	7
602.451	1	14
602.620	1	15
602.790	1	15
602.960	1	9
603.130	1	11
603.299	1	18
603.469	1	13
603.639	1	1
603.809	1	6
603.978	1	8
604.148	1	2
604.318	1	4
604.487	1	13
604.657	1	9
604.827	1	22
604.997	1	3
605.166	1	9
605.336	1	12
605.506	1	11
605.676	1	24
605.845	1	-1
606.015	1	18
606.185	1	3
606.355	1	11
606.524	1	9
606.694	1	17
606.864	1	4
607.034	1	-4
607.203	1	8
607.373	1	18
607.543	1	2
607.712	1	19
607.882	1	7
608.052	1	21
608.222	1	10
608.391	1	4
608.561	1	16
608.731	1	12
608.901	1	11
609.070	1	5
609.240	1	7
609.410	1	3
609.579	1	1
609.749	1	7
609.919	1	18
610.089	1	19
610.258	1	18
610.428	1	8
610.598	1	12
610.767	1	6
610.937	1	7
611.107	1	5
611.277	1	22
611.446	1	7
611.616	1	12
611.786	1	13
611.955	1	-1
612.125	1	13
612.295	1	11
612.465	1	8
612.634	1	10
612.804	1	12
612.974	1	11
613.143	1	10
613.313	1	12
613.483	1	-6
613.652	1	7
613.822	1	9
613.992	1	4
614.162	1	6
614.331	1	15
614.501	1	4
614.671	1	-3
614.840	1	19
615.010	1	4
615.180	1	18
615.349	1	13
615.519	1	1
615.689	1	7
615.858	1	-3
616.028	1	16
616.198	1	9
616.368	1	11
616.537	1	7
616.707	1	9
616.877	1	17
617.046	1	10
617.216	1	9
617.386	1	5
617.555	1	9
617.725	1	3
617.895	1	17
618.064	1	3
618.234	1	5
618.404	1	2
618.573	1	12
618.743	1	15
618.913	1	19
619.082	1	6
619.252	1	6
619.422	1	14
619.591	1	5
619.761	1	15
619.931	1	14
620.100	1	7
620.270	1	22
620.440	1	6
620.609	1	12
620.779	1	0
620.949	1	8
621.118	1	-1
621.288	1	11
621.458	1	9
621.627	1	3
621.797	1	15
621.967	1	8
622.136	1	5
622.306	1	11
622.476	1	9
622.645	1	21
622.815	1	3
622.985	1	8
623.154	1	2
623.324	1	11
623.494	1	12
623.663	1	4
623.833	1	3
624.002	1	6
624.172	1	6
624.342	1	8
624.511	1	18
624.681	1	3
624.851	1	-1
625.020	1	9
625.190	1	9
625.360	1	6
625.529	1	9
625.699	1	9
625.869	1	7
626.038	1	-3
626.208	1	1
626.377	1	18
626.547	1	3
626.717	1	13
626.886	1	15
627.056	1	6
627.226	1	-3
627.395	1	7
627.565	1	1
627.735	1	5
627.904	1	8
628.074	1	8
628.243	1	-3
628.413	1	10
628.583	1	6
628.752	1	5
628.922	1	4
629.091	1	12
629.261	1	-1
629.431	1	8
629.600	1	4
629.770	1	13
629.940	1	14
630.109	1	5
630.279	1	-6
630.448	1	4
630.618	1	-5
630.788	1	-3
630.957	1	-1
631.127	1	12
631.297	1	1
631.466	1	7
631.636	1	1
631.805	1	10
631.975	1	6
632.145	1	0
632.314	1	8
632.484	1	1
632.653	1	-1
632.823	1	-2
632.993	1	4
633.162	1	12
633.332	1	15
633.501	1	5
633.671	1	9
633.841	1	23
634.010	1	14
634.180	1	3
634.349	1	3
634.519	1	-1
634.689	1	9
634.858	1	4
635.028	1	3
635.197	1	18
635.367	1	-2
635.537	1	22
635.706	1	9
635.876	1	13
636.045	1	-2
636.215	1	15
636.384	1	-4
636.554	1	-6
636.724	1	9
636.893	1	-3
637.063	1	3
637.232	1	3
637.402	1	7
637.572	1	-2
637.741	1	13
637.911	1	11
638.080	1	3
638.250	1	6
638.419	1	2
638.589	1	6
638.759	1	7
638.928	1	11
639.098	1	-1
639.267	1	4
639.437	1	5
639.606	1	6
639.776	1	8
639.946	1	1
640.115	1	14
640.285	1	5
640.454	1	7
640.624	1	-1
640.793	1	5
640.963	1	15
641.132	1	1
641.302	1	18
641.472	1	9
641.641	1	10
641.811	1	6
641.980	1	13
642.150	1	5
642.319	1	-2
642.489	1	6
642.659	1	11
642.828	1	-5
642.998	1	10
643.167	1	8
643.337	1	6
643.506	1	-13
643.676	1	-1
643.845	1	2
644.015	1	2
644.184	1	8
644.354	1	7
644.524	1	17
644.693	1	8
644.863	1	14
645.032	1	4
645.202	1	7
645.371	1	8
645.541	1	-4
645.710	1	6
645.880	1	5
646.049	1	0
646.219	1	6
646.388	1	10
646.558	1	2
646.728	1	6
646.897	1	2
647.067	1	8
647.236	1	4
647.406	1	-1
647.575	1	4
647.745	1	9
647.914	1	-4
648.084	1	6
648.253	1	-6
648.423	1	10
648.592	1	-8
648.762	1	0
648.931	1	1
649.101	1	15
649.270	1	-11
649.440	1	3
649.610	1	0
649.779	1	14
649.949	1	3
650.118	1	6
650.288	1	0
650.457	1	-2
650.627	1	19
650.796	1	16
650.966	1	19
651.135	1	-3
651.305	1	16
651.474	1	20
651.644	1	12
651.813	1	0
651.983	1	7
652.152	1	6
652.322	1	6
652.491	1	17
652.661	1	8
652.830	1	5
653.000	1	2
653.169	1	6
653.339	1	11
653.508	1	10
653.678	1	6
653.847	1	-4
654.017	1	1
654.186	1	13
654.356	1	12
654.525	1	4
654.695	1	-3
654.864	1	13
655.034	1	13
655.203	1	15
655.373	1	3
655.542	1	4
655.712	1	9
655.881	1	6
656.051	1	8
656.220	1	5
656.390	1	3
656.559	1	8
656.729	1	9
656.898	1	0
657.068	1	11
657.237	1	4
657.406	1	6
657.576	1	0
657.745	1	6
657.915	1	6
658.084	1	12
658.254	1	6
658.423	1	20
658.593	1	2
658.762	1	13
658.932	1	-2
659.101	1	5
659.271	1	16
659.440	1	16
659.610	1	7
659.779	1	12
659.949	1	6
660.118	1	0
660.288	1	12
660.457	1	9
660.626	1	1
660.796	1	-3
660.965	1	-8
661.135	1	-3
661.304	1	16
661.474	1	2
661.643	1	12
661.813	1	-2
661.982	1	11
662.152	1	11
662.321	1	10
662.491	1	9
662.660	1	12
662.829	1	-1
662.999	1	1
663.168	1	10
663.338	1	2
663.507	1	6
663.677	1	7
663.846	1	14
664.016	1	-4
664.185	1	3
664.354	1	-1
664.524	1	7
664.693	1	7
664.863	1	7
665.032	1	7
665.202	1	3
665.371	1	-4
665.541	1	0
665.710	1	7
665.879	1	-3
666.049	1	8
666.218	1	6
666.388	1	0
666.557	1	6
666.727	1	7
666.896	1	5
667.065	1	9
667.235	1	5
667.404	1	10
667.574	1	18
667.743	1	-3
667.913	1	11
668.082	1	13
668.251	1	1
668.421	1	9
668.590	1	16
668.760	1	-6
668.929	1	12
669.099	1	6
669.268	1	16
669.437	1	5
669.607	1	1
669.776	1	5
669.946	1	18
670.115	1	9
670.285	1	1
670.454	1	13
670.623	1	6
670.793	1	-6
670.962	1	-3
671.132	1	7
671.301	1	2
671.470	1	10
671.640	1	-3
671.809	1	22
671.979	1	-6
672.148	1	9
672.317	1	2
672.487	1	10
672.656	1	-1
672.826	1	3
672.995	1	9
673.164	1	14
673.334	1	6
673.503	1	2
673.673	1	10
673.842	1	-3
674.011	1	-4
674.181	1	5
674.350	1	-2
674.520	1	6
674.689	1	7
674.858	1	5
675.028	1	9
675.197	1	5
675.367	1	6
675.536	1	12
675.705	1	9
675.875	1	3
676.044	1	-1
676.214	1	3
676.383	1	4
676.552	1	-3
676.722	1	11
676.891	1	14
677.060	1	9
677.230	1	5
677.399	1	8
677.569	1	8
677.738	1	5
677.907	1	-4
678.077	1	-6
678.246	1	5
678.416	1	5
678.585	1	20
678.754	1	0
678.924	1	6
679.093	1	11
679.262	1	-1
679.432	1	6
679.601	1	-2
679.771	1	16
679.940	1	19
680.109	1	2
680.279	1	19
680.448	1	10
680.617	1	9
680.787	1	9
680.956	1	-4
681.125	1	9
681.295	1	6
681.464	1	-6
681.634	1	15
681.803	1	12
681.972	1	10
682.142	1	-8
682.311	1	-2
682.480	1	5
682.650	1	10
682.819	1	1
682.988	1	-1
683.158	1	6
683.327	1	13
683.496	1	5
683.666	1	9
683.835	1	3
684.004	1	1
684.174	1	-2
684.343	1	0
684.512	1	7
684.682	1	-1
684.851	1	11
685.021	1	10
685.190	1	13
685.359	1	2
685.529	1	0
685.698	1	2
685.867	1	4
686.037	1	10
686.206	1	11
686.375	1	7
686.545	1	10
686.714	1	5
686.883	1	17
687.053	1	-2
687.222	1	6
687.391	1	10
687.561	1	6
687.730	1	2
687.899	1	15
688.069	1	8
688.238	1	10
688.407	1	15
688.577	1	16
688.746	1	13
