340.368	1	3
340.539	1	-2
340.710	1	7
340.881	1	-11
341.052	1	0
341.223	1	-1
341.394	1	4
341.565	1	7
341.737	1	14
341.908	1	-6
342.079	1	6
342.250	1	6
342.421	1	0
342.592	1	11
342.763	1	12
342.934	1	9
343.105	1	4
343.276	1	5
343.447	1	6
343.618	1	1
343.789	1	17
343.960	1	-4
344.131	1	1
344.302	1	0
344.473	1	-4
344.644	1	-13
344.815	1	7
344.986	1	0
345.157	1	4
345.328	1	11
345.499	1	6
345.670	1	4
345.841	1	1
346.012	1	1
346.183	1	-4
346.354	1	11
346.526	1	6
346.697	1	6
346.868	1	11
347.039	1	14
347.210	1	-4
347.381	1	-6
347.552	1	8
347.723	1	6
347.894	1	3
348.065	1	-13
348.236	1	10
348.407	1	-4
348.578	1	7
348.749	1	0
348.920	1	8
349.091	1	-2
349.262	1	2
349.433	1	1
349.604	1	2
349.775	1	7
349.946	1	6
350.117	1	11
350.288	1	2
350.459	1	6
350.630	1	9
350.801	1	5
350.972	1	6
351.143	1	-1
351.314	1	7
351.485	1	0
351.656	1	3
351.827	1	4
351.998	1	5
352.169	1	0
352.340	1	3
352.511	1	-2
352.682	1	3
352.853	1	-1
353.024	1	6
353.195	1	2
353.366	1	4
353.537	1	5
353.708	1	15
353.879	1	5
354.050	1	8
354.221	1	7
354.392	1	9
354.563	1	0
354.734	1	11
354.905	1	9
355.076	1	5
355.247	1	2
355.418	1	0
355.589	1	3
355.760	1	2
355.931	1	16
356.102	1	11
356.273	1	3
356.444	1	6
356.615	1	-2
356.785	1	1
356.956	1	-3
357.127	1	11
357.298	1	12
357.469	1	4
357.640	1	3
357.811	1	6
357.982	1	2
358.153	1	5
358.324	1	12
358.495	1	19
358.666	1	-2
358.837	1	13
359.008	1	9
359.179	1	20
359.350	1	11
359.521	1	11
359.692	1	-7
359.863	1	4
360.034	1	21
360.205	1	5
360.376	1	21
360.547	1	9
360.718	1	12
360.889	1	15
361.060	1	12
361.231	1	21
361.401	1	13
361.572	1	10
361.743	1	9
361.914	1	13
362.085	1	13
362.256	1	26
362.427	1	17
362.598	1	12
362.769	1	20
362.940	1	23
363.111	1	20
363.282	1	20
363.453	1	22
363.624	1	23
363.795	1	24
363.966	1	17
364.137	1	28
364.308	1	42
364.478	1	20
364.649	1	19
364.820	1	29
364.991	1	32
365.162	1	23
365.333	1	35
365.504	1	35
365.675	1	31
365.846	1	31
366.017	1	44
366.188	1	39
366.359	1	36
366.530	1	41
366.701	1	26
366.871	1	34
367.042	1	39
367.213	1	49
367.384	1	44
367.555	1	38
367.726	1	47
367.897	1	37
368.068	1	47
368.239	1	41
368.410	1	55
368.581	1	45
368.752	1	50
368.923	1	48
369.093	1	42
369.264	1	52
369.435	1	47
369.606	1	51
369.777	1	51
369.948	1	48
370.119	1	43
370.290	1	39
370.461	1	46
370.632	1	51
370.803	1	39
370.973	1	47
371.144	1	36
371.315	1	47
371.486	1	41
371.657	1	39
371.828	1	30
371.999	1	39
372.170	1	37
372.341	1	35
372.512	1	37
372.682	1	30
372.853	1	23
373.024	1	32
373.195	1	30
373.366	1	23
373.537	1	34
373.708	1	26
373.879	1	30
374.050	1	28
374.220	1	34
374.391	1	31
374.562	1	31
374.733	1	24
374.904	1	23
375.075	1	31
375.246	1	24
375.417	1	35
375.588	1	20
375.758	1	25
375.929	1	23
376.100	1	19
376.271	1	20
376.442	1	25
376.613	1	18
376.784	1	0
376.955	1	28
377.125	1	14
377.296	1	21
377.467	1	23
377.638	1	19
377.809	1	18
377.980	1	19
378.151	1	20
378.321	1	16
378.492	1	7
378.663	1	9
378.834	1	5
379.005	1	29
379.176	1	8
379.347	1	17
379.518	1	12
379.688	1	12
379.859	1	18
380.030	1	17
380.201	1	8
380.372	1	16
380.543	1	17
380.714	1	20
380.884	1	21
381.055	1	10
381.226	1	9
381.397	1	20
381.568	1	8
381.739	1	14
381.910	1	23
382.080	1	15
382.251	1	14
382.422	1	10
382.593	1	18
382.764	1	14
382.935	1	11
383.105	1	13
383.276	1	14
383.447	1	8
383.618	1	12
383.789	1	22
383.960	1	17
384.130	1	12
384.301	1	15
384.472	1	8
384.643	1	10
384.814	1	17
384.985	1	19
385.156	1	21
385.326	1	8
385.497	1	15
385.668	1	20
385.839	1	6
386.010	1	19
386.180	1	18
386.351	1	21
386.522	1	21
386.693	1	14
386.864	1	12
387.035	1	19
387.205	1	15
387.376	1	20
387.547	1	19
387.718	1	19
387.889	1	13
388.060	1	7
388.230	1	19
388.401	1	12
388.572	1	9
388.743	1	14
388.914	1	7
389.084	1	21
389.255	1	12
389.426	1	21
389.597	1	8
389.768	1	15
389.939	1	10
390.109	1	6
390.280	1	17
390.451	1	17
390.622	1	13
390.793	1	8
390.963	1	-1
391.134	1	25
391.305	1	16
391.476	1	13
391.647	1	5
391.817	1	12
391.988	1	18
392.159	1	21
392.330	1	4
392.501	1	17
392.671	1	20
392.842	1	8
393.013	1	6
393.184	1	15
393.355	1	9
393.525	1	12
393.696	1	-1
393.867	1	15
394.038	1	10
394.208	1	14
394.379	1	13
394.550	1	3
394.721	1	13
394.892	1	17
395.062	1	17
395.233	1	17
395.404	1	4
395.575	1	19
395.746	1	22
395.916	1	16
396.087	1	10
396.258	1	8
396.429	1	9
396.599	1	10
396.770	1	8
396.941	1	4
397.112	1	14
397.283	1	20
397.453	1	11
397.624	1	4
397.795	1	3
397.966	1	10
398.136	1	8
398.307	1	9
398.478	1	8
398.649	1	21
398.819	1	-3
398.990	1	1
399.161	1	2
399.332	1	10
399.503	1	10
399.673	1	10
399.844	1	16
400.015	1	5
400.186	1	25
400.356	1	18
400.527	1	15
400.698	1	5
400.869	1	8
401.039	1	18
401.210	1	-5
401.381	1	1
401.552	1	14
401.722	1	14
401.893	1	11
402.064	1	-4
402.235	1	8
402.405	1	2
402.576	1	14
402.747	1	11
402.918	1	5
403.088	1	-3
403.259	1	11
403.430	1	12
403.601	1	16
403.771	1	0
403.942	1	10
404.113	1	5
404.284	1	17
404.454	1	11
404.625	1	11
404.796	1	5
404.967	1	14
405.137	1	4
405.308	1	12
405.479	1	-2
405.649	1	9
405.820	1	12
405.991	1	10
406.162	1	9
406.332	1	5
406.503	1	6
406.674	1	12
406.845	1	9
407.015	1	7
407.186	1	14
407.357	1	7
407.527	1	2
407.698	1	8
407.869	1	10
408.040	1	7
408.210	1	12
408.381	1	5
408.552	1	15
408.722	1	13
408.893	1	0
409.064	1	3
409.235	1	2
409.405	1	12
409.576	1	3
409.747	1	6
409.917	1	16
410.088	1	7
410.259	1	8
410.430	1	5
410.600	1	8
410.771	1	13
410.942	1	13
411.112	1	11
411.283	1	3
411.454	1	0
411.625	1	5
411.795	1	4
411.966	1	6
412.137	1	8
412.307	1	9
412.478	1	2
412.649	1	6
412.819	1	10
412.990	1	-5
413.161	1	8
413.332	1	2
413.502	1	-2
413.673	1	16
413.844	1	11
414.014	1	14
414.185	1	6
414.356	1	7
414.526	1	7
414.697	1	5
414.868	1	0
415.038	1	8
415.209	1	6
415.380	1	1
415.550	1	4
415.721	1	3
415.892	1	2
416.063	1	12
416.233	1	-1
416.404	1	-3
416.575	1	10
416.745	1	7
416.916	1	15
417.087	1	14
417.257	1	2
417.428	1	18
417.599	1	8
417.769	1	8
417.940	1	-1
418.111	1	5
418.281	1	11
418.452	1	7
418.623	1	12
418.793	1	12
418.964	1	-3
419.135	1	3
419.305	1	2
419.476	1	17
419.647	1	5
419.817	1	9
419.988	1	10
420.159	1	-6
420.329	1	2
420.500	1	0
420.671	1	6
420.841	1	4
421.012	1	13
421.183	1	9
421.353	1	12
421.524	1	20
421.695	1	2
421.865	1	2
422.036	1	-3
422.206	1	0
422.377	1	9
422.548	1	3
422.718	1	8
422.889	1	7
423.060	1	14
423.230	1	5
423.401	1	0
423.572	1	0
423.742	1	20
423.913	1	0
424.084	1	1
424.254	1	3
424.425	1	1
424.595	1	3
424.766	1	18
424.937	1	-4
425.107	1	5
425.278	1	6
425.449	1	9
425.619	1	8
425.790	1	5
425.961	1	-1
426.131	1	-5
426.302	1	2
426.472	1	9
426.643	1	4
426.814	1	-4
426.984	1	5
427.155	1	12
427.326	1	15
427.496	1	-2
427.667	1	4
427.837	1	14
428.008	1	5
428.179	1	6
428.349	1	5
428.520	1	13
428.691	1	2
428.861	1	-11
429.032	1	11
429.202	1	-2
429.373	1	15
429.544	1	-4
429.714	1	3
429.885	1	12
430.055	1	14
430.226	1	3
430.397	1	10
430.567	1	-7
430.738	1	0
430.909	1	1
431.079	1	2
431.250	1	13
431.420	1	4
431.591	1	9
431.762	1	8
431.932	1	3
432.103	1	-1
432.273	1	-1
432.444	1	4
432.615	1	-2
432.785	1	-5
432.956	1	3
433.126	1	6
433.297	1	10
433.468	1	7
433.638	1	-5
433.809	1	5
433.979	1	-5
434.150	1	15
434.320	1	-5
434.491	1	10
434.662	1	6
434.832	1	4
435.003	1	6
435.173	1	8
435.344	1	3
435.515	1	7
435.685	1	2
435.856	1	3
436.026	1	0
436.197	1	4
436.368	1	0
436.538	1	13
436.709	1	2
436.879	1	14
437.050	1	11
437.220	1	8
437.391	1	10
437.562	1	-3
437.732	1	-4
437.903	1	-2
438.073	1	13
438.244	1	9
438.414	1	-8
438.585	1	4
438.756	1	3
438.926	1	6
439.097	1	-3
439.267	1	-3
439.438	1	9
439.608	1	-4
439.779	1	5
439.949	1	2
440.120	1	5
440.291	1	7
440.461	1	4
440.632	1	-2
440.802	1	-10
440.973	1	8
441.143	1	4
441.314	1	5
441.485	1	-2
441.655	1	4
441.826	1	-1
441.996	1	9
442.167	1	6
442.337	1	17
442.508	1	2
442.678	1	-1
442.849	1	5
443.019	1	6
443.190	1	3
443.361	1	4
443.531	1	2
443.702	1	2
443.872	1	6
444.043	1	-1
444.213	1	-1
444.384	1	-2
444.554	1	-3
444.725	1	6
444.895	1	-3
445.066	1	-3
445.237	1	-12
445.407	1	3
445.578	1	1
445.748	1	0
445.919	1	3
446.089	1	11
446.260	1	5
446.430	1	3
446.601	1	12
446.771	1	9
446.942	1	-1
447.112	1	15
447.283	1	-1
447.453	1	10
447.624	1	3
447.794	1	8
447.965	1	-5
448.135	1	0
448.306	1	5
448.477	1	6
448.647	1	9
448.818	1	0
448.988	1	5
449.159	1	9
449.329	1	-3
449.500	1	11
449.670	1	16
449.841	1	11
450.011	1	-3
450.182	1	-2
450.352	1	-6
450.523	1	6
450.693	1	10
450.864	1	8
451.034	1	0
451.205	1	-2
451.375	1	-1
451.546	1	15
451.716	1	7
451.887	1	0
452.057	1	6
452.228	1	7
452.398	1	-4
452.569	1	13
452.739	1	9
452.910	1	-2
453.080	1	1
453.251	1	-5
453.421	1	10
453.592	1	3
453.762	1	9
453.933	1	15
454.103	1	-3
454.274	1	-10
454.444	1	5
454.615	1	6
454.785	1	-2
454.956	1	-4
455.126	1	12
455.297	1	-2
455.467	1	3
455.638	1	10
455.808	1	14
455.979	1	-3
456.149	1	3
456.320	1	8
456.490	1	3
456.661	1	-7
456.831	1	2
457.001	1	1
457.172	1	11
457.342	1	2
457.513	1	2
457.683	1	3
457.854	1	4
458.024	1	-2
458.195	1	-3
458.365	1	2
458.536	1	3
458.706	1	20
458.877	1	-7
459.047	1	8
459.218	1	-6
459.388	1	19
459.559	1	-1
459.729	1	0
459.899	1	-2
460.070	1	4
460.240	1	-5
460.411	1	-12
460.581	1	4
460.752	1	2
460.922	1	-3
461.093	1	0
461.263	1	7
461.434	1	3
461.604	1	8
461.775	1	4
461.945	1	-1
462.115	1	7
462.286	1	-2
462.456	1	6
462.627	1	7
462.797	1	-2
462.968	1	-4
463.138	1	4
463.309	1	0
463.479	1	14
463.649	1	12
463.820	1	-8
463.990	1	1
464.161	1	1
464.331	1	13
464.502	1	0
464.672	1	-1
464.843	1	1
465.013	1	3
465.183	1	5
465.354	1	1
465.524	1	8
465.695	1	0
465.865	1	-5
466.036	1	-2
466.206	1	3
466.376	1	9
466.547	1	0
466.717	1	4
466.888	1	-3
467.058	1	2
467.229	1	-8
467.399	1	4
467.569	1	-3
467.740	1	-4
467.910	1	2
468.081	1	6
468.251	1	10
468.422	1	5
468.592	1	7
468.762	1	5
468.933	1	11
469.103	1	-4
469.274	1	11
469.444	1	-5
469.614	1	-9
469.785	1	14
469.955	1	-4
470.126	1	10
470.296	1	4
470.467	1	5
470.637	1	4
470.807	1	8
470.978	1	-1
471.148	1	11
471.319	1	5
471.489	1	1
471.659	1	-7
471.830	1	-4
472.000	1	-1
472.171	1	9
472.341	1	9
472.511	1	8
472.682	1	-4
472.852	1	0
473.023	1	-5
473.193	1	14
473.363	1	7
473.534	1	3
473.704	1	5
473.875	1	2
474.045	1	0
474.215	1	8
474.386	1	13
474.556	1	13
474.727	1	9
474.897	1	4
475.067	1	4
475.238	1	-3
475.408	1	9
475.578	1	2
475.749	1	9
475.919	1	-3
476.090	1	20
476.260	1	8
476.430	1	3
476.601	1	3
476.771	1	14
476.942	1	2
477.112	1	-3
477.282	1	14
477.453	1	0
477.623	1	-4
477.793	1	7
477.964	1	5
478.134	1	4
478.305	1	2
478.475	1	2
478.645	1	4
478.816	1	4
478.986	1	9
479.156	1	8
479.327	1	4
479.497	1	-5
479.667	1	8
479.838	1	-8
480.008	1	6
480.179	1	9
480.349	1	6
480.519	1	-10
480.690	1	1
480.860	1	0
481.030	1	12
481.201	1	5
481.371	1	7
481.541	1	1
481.712	1	1
481.882	1	12
482.053	1	12
482.223	1	0
482.393	1	19
482.564	1	-2
482.734	1	7
482.904	1	7
483.075	1	3
483.245	1	13
483.415	1	1
483.586	1	5
483.756	1	0
483.926	1	8
484.097	1	6
484.267	1	5
484.437	1	4
484.608	1	5
484.778	1	5
484.948	1	-5
485.119	1	4
485.289	1	4
485.459	1	11
485.630	1	5
485.800	1	-4
485.970	1	11
486.141	1	15
486.311	1	3
486.481	1	-1
486.652	1	12
486.822	1	4
486.992	1	4
487.163	1	13
487.333	1	-3
487.503	1	8
487.674	1	-1
487.844	1	5
488.014	1	7
488.185	1	1
488.355	1	6
488.525	1	8
488.696	1	6
488.866	1	6
489.036	1	6
489.207	1	1
489.377	1	4
489.547	1	15
489.718	1	11
489.888	1	11
490.058	1	-2
490.228	1	7
490.399	1	2
490.569	1	16
490.739	1	11
490.910	1	1
491.080	1	4
491.250	1	5
491.421	1	8
491.591	1	-1
491.761	1	8
491.932	1	12
492.102	1	5
492.272	1	10
492.442	1	4
492.613	1	1
492.783	1	7
492.953	1	6
493.124	1	13
493.294	1	2
493.464	1	12
493.635	1	7
493.805	1	13
493.975	1	2
494.145	1	-2
494.316	1	10
494.486	1	3
494.656	1	17
494.827	1	8
494.997	1	22
495.167	1	8
495.337	1	18
495.508	1	12
495.678	1	8
495.848	1	11
496.019	1	12
496.189	1	6
496.359	1	6
496.529	1	7
496.700	1	9
496.870	1	10
497.040	1	10
497.211	1	12
497.381	1	11
497.551	1	8
497.721	1	17
497.892	1	18
498.062	1	5
498.232	1	15
498.403	1	9
498.573	1	6
498.743	1	13
498.913	1	4
499.084	1	9
499.254	1	4
499.424	1	5
499.594	1	6
499.765	1	13
499.935	1	1
500.105	1	25
500.275	1	22
500.446	1	8
500.616	1	8
500.786	1	9
500.956	1	13
501.127	1	8
501.297	1	4
501.467	1	4
501.638	1	23
501.808	1	9
501.978	1	10
502.148	1	17
502.319	1	9
502.489	1	21
502.659	1	20
502.829	1	14
503.000	1	1
503.170	1	11
503.340	1	9
503.510	1	11
503.681	1	13
503.851	1	14
504.021	1	13
504.191	1	12
504.362	1	2
504.532	1	14
504.702	1	12
504.872	1	14
505.042	1	13
505.213	1	12
505.383	1	20
505.553	1	17
505.723	1	10
505.894	1	20
506.064	1	3
506.234	1	19
506.404	1	10
506.575	1	6
506.745	1	13
506.915	1	23
507.085	1	18
507.256	1	11
507.426	1	15
507.596	1	20
507.766	1	11
507.936	1	7
508.107	1	22
508.277	1	13
508.447	1	26
508.617	1	11
508.788	1	24
508.958	1	0
509.128	1	19
509.298	1	12
509.468	1	18
509.639	1	9
509.809	1	19
509.979	1	25
510.149	1	21
510.319	1	18
510.490	1	17
510.660	1	29
510.830	1	14
511.000	1	16
511.171	1	19
511.341	1	12
511.511	1	17
511.681	1	17
511.851	1	22
512.022	1	16
512.192	1	15
512.362	1	32
512.532	1	12
512.702	1	14
512.873	1	10
513.043	1	18
513.213	1	25
513.383	1	15
513.553	1	21
513.724	1	14
513.894	1	25
514.064	1	19
514.234	1	19
514.404	1	25
514.575	1	7
514.745	1	15
514.915	1	-3
515.085	1	25
515.255	1	18
515.425	1	11
515.596	1	15
515.766	1	17
515.936	1	30
516.106	1	12
516.276	1	13
516.447	1	27
516.617	1	20
516.787	1	7
516.957	1	27
517.127	1	37
517.297	1	21
517.468	1	17
517.638	1	23
517.808	1	19
517.978	1	4
518.148	1	20
518.319	1	23
518.489	1	18
518.659	1	19
518.829	1	13
518.999	1	20
519.169	1	19
519.340	1	32
519.510	1	11
519.680	1	25
519.850	1	22
520.020	1	23
520.190	1	16
520.361	1	22
520.531	1	34
520.701	1	10
520.871	1	28
521.041	1	22
521.211	1	20
521.382	1	18
521.552	1	33
521.722	1	33
521.892	1	19
522.062	1	31
522.232	1	23
522.402	1	15
522.573	1	37
522.743	1	11
522.913	1	24
523.083	1	38
523.253	1	16
523.423	1	13
523.593	1	28
523.764	1	19
523.934	1	23
524.104	1	28
524.274	1	23
524.444	1	31
524.614	1	25
524.784	1	17
524.955	1	21
525.125	1	15
525.295	1	17
525.465	1	21
525.635	1	19
525.805	1	20
525.975	1	22
526.146	1	26
526.316	1	27
526.486	1	26
526.656	1	23
526.826	1	32
526.996	1	19
527.166	1	23
527.337	1	24
527.507	1	37
527.677	1	17
527.847	1	30
528.017	1	18
528.187	1	16
528.357	1	25
528.527	1	27
528.698	1	21
528.868	1	19
529.038	1	31
529.208	1	18
529.378	1	14
529.548	1	33
529.718	1	12
529.888	1	27
530.058	1	19
530.229	1	28
530.399	1	33
530.569	1	19
530.739	1	16
530.909	1	22
531.079	1	37
531.249	1	19
531.419	1	26
531.589	1	24
531.760	1	10
531.930	1	31
532.100	1	28
532.270	1	29
532.440	1	19
532.610	1	27
532.780	1	9
532.950	1	30
533.120	1	40
533.290	1	17
533.461	1	29
533.631	1	19
533.801	1	22
533.971	1	26
534.141	1	15
534.311	1	28
534.481	1	16
534.651	1	13
534.821	1	27
534.991	1	29
535.162	1	20
535.332	1	5
535.502	1	27
535.672	1	19
535.842	1	27
536.012	1	10
536.182	1	23
536.352	1	7
536.522	1	22
536.692	1	14
536.862	1	25
537.032	1	13
537.203	1	25
537.373	1	13
537.543	1	14
537.713	1	18
537.883	1	34
538.053	1	13
538.223	1	22
538.393	1	17
538.563	1	27
538.733	1	10
538.903	1	17
539.073	1	19
539.243	1	17
539.413	1	27
539.584	1	16
539.754	1	10
539.924	1	25
540.094	1	21
540.264	1	20
540.434	1	29
540.604	1	19
540.774	1	13
540.944	1	26
541.114	1	12
541.284	1	25
541.454	1	36
541.624	1	23
541.794	1	16
541.964	1	23
542.134	1	17
542.305	1	27
542.475	1	16
542.645	1	15
542.815	1	18
542.985	1	25
543.155	1	17
543.325	1	15
543.495	1	8
543.665	1	19
543.835	1	24
544.005	1	7
544.175	1	7
544.345	1	15
544.515	1	20
544.685	1	20
544.855	1	17
545.025	1	22
545.195	1	14
545.365	1	14
545.535	1	16
545.705	1	17
545.875	1	21
546.045	1	21
546.216	1	14
546.386	1	18
546.556	1	21
546.726	1	13
546.896	1	13
547.066	1	12
547.236	1	11
547.406	1	20
547.576	1	15
547.746	1	21
547.916	1	21
548.086	1	28
548.256	1	19
548.426	1	19
548.596	1	1
548.766	1	19
548.936	1	13
549.106	1	14
549.276	1	20
549.446	1	27
549.616	1	16
549.786	1	26
549.956	1	23
550.126	1	19
550.296	1	17
550.466	1	16
550.636	1	19
550.806	1	13
550.976	1	6
551.146	1	13
551.316	1	26
551.486	1	24
551.656	1	22
551.826	1	15
551.996	1	10
552.166	1	12
552.336	1	20
552.506	1	20
552.676	1	33
552.846	1	22
553.016	1	22
553.186	1	30
553.356	1	14
553.526	1	27
553.696	1	22
553.866	1	18
554.036	1	12
554.206	1	18
554.376	1	15
554.546	1	22
554.716	1	28
554.886	1	26
555.056	1	16
555.226	1	14
555.396	1	14
555.566	1	19
555.736	1	15
555.906	1	18
556.076	1	30
556.246	1	9
556.416	1	17
556.586	1	24
556.756	1	22
556.926	1	18
557.096	1	19
557.266	1	14
557.436	1	15
557.606	1	11
557.776	1	15
557.946	1	21
558.116	1	23
558.286	1	17
558.456	1	26
558.626	1	26
558.796	1	12
558.966	1	15
559.136	1	19
559.306	1	16
559.476	1	22
559.646	1	17
559.816	1	20
559.986	1	14
560.155	1	29
560.325	1	17
560.495	1	12
560.665	1	34
560.835	1	17
561.005	1	21
561.175	1	18
561.345	1	13
561.515	1	13
561.685	1	27
561.855	1	3
562.025	1	13
562.195	1	12
562.365	1	24
562.535	1	11
562.705	1	20
562.875	1	14
563.045	1	18
563.215	1	21
563.385	1	4
563.555	1	19
563.725	1	3
563.895	1	19
564.064	1	8
564.234	1	8
564.404	1	9
564.574	1	10
564.744	1	16
564.914	1	11
565.084	1	23
565.254	1	16
565.424	1	18
565.594	1	22
565.764	1	11
565.934	1	14
566.104	1	11
566.274	1	15
566.444	1	26
566.614	1	13
566.783	1	9
566.953	1	-3
567.123	1	11
567.293	1	12
567.463	1	8
567.633	1	15
567.803	1	10
567.973	1	18
568.143	1	9
568.313	1	8
568.483	1	16
568.653	1	19
568.823	1	14
568.993	1	17
569.162	1	17
569.332	1	15
569.502	1	3
569.672	1	1
569.842	1	18
570.012	1	14
570.182	1	6
570.352	1	9
570.522	1	15
570.692	1	21
570.862	1	17
571.031	1	10
571.201	1	16
571.371	1	-3
571.541	1	7
571.711	1	16
571.881	1	20
572.051	1	14
572.221	1	10
572.391	1	20
572.561	1	10
572.731	1	13
572.900	1	13
573.070	1	12
573.240	1	19
573.410	1	10
573.580	1	11
573.750	1	9
573.920	1	15
574.090	1	4
574.260	1	22
574.430	1	11
574.599	1	19
574.769	1	12
574.939	1	10
575.109	1	4
575.279	1	11
575.449	1	14
575.619	1	3
575.789	1	19
575.959	1	-3
576.128	1	23
576.298	1	9
576.468	1	4
576.638	1	13
576.808	1	17
576.978	1	19
577.148	1	12
577.318	1	5
577.487	1	8
577.657	1	12
577.827	1	3
577.997	1	12
578.167	1	4
578.337	1	12
578.507	1	9
578.677	1	4
578.846	1	4
579.016	1	10
579.186	1	4
579.356	1	6
579.526	1	10
579.696	1	19
579.866	1	3
580.036	1	4
580.205	1	15
580.375	1	5
580.545	1	10
580.715	1	15
580.885	1	19
581.055	1	7
581.225	1	12
581.394	1	9
581.564	1	18
581.734	1	-2
581.904	1	3
582.074	1	5
582.244	1	14
582.414	1	-13
582.583	1	-2
582.753	1	8
582.923	1	9
583.093	1	9
583.263	1	7
583.433	1	18
583.603	1	16
583.772	1	-1
583.942	1	3
584.112	1	11
584.282	1	17
584.452	1	21
584.622	1	-3
584.791	1	9
584.961	1	8
585.131	1	3
585.301	1	12
585.471	1	4
585.641	1	7
585.811	1	9
585.980	1	16
586.150	1	5
586.320	1	4
586.490	1	0
586.660	1	3
586.830	1	12
586.999	1	5
587.169	1	13
587.339	1	5
587.509	1	19
587.679	1	8
587.849	1	1
588.018	1	2
588.188	1	2
588.358	1	12
588.528	1	6
588.698	1	11
588.867	1	7
589.037	1	4
589.207	1	2
589.377	1	1
589.547	1	8
589.717	1	8
589.886	1	9
590.056	1	4
590.226	1	13
590.396	1	16
590.566	1	-5
590.735	1	2
590.905	1	7
591.075	1	20
591.245	1	-4
591.415	1	8
591.585	1	6
591.754	1	19
591.924	1	4
592.094	1	3
592.264	1	9
592.434	1	10
592.603	1	2
592.773	1	4
592.943	1	8
593.113	1	15
593.283	1	12
593.452	1	12
593.622	1	9
593.792	1	11
593.962	1	8
594.132	1	10
594.301	1	20
594.471	1	13
594.641	1	-10
594.811	1	22
594.981	1	2
595.150	1	12
595.320	1	1
595.490	1	5
595.660	1	5
595.829	1	16
595.999	1	4
596.169	1	6
596.339	1	6
596.509	1	0
596.678	1	10
596.848	1	15
597.018	1	11
597.188	1	16
597.358	1	4
597.527	1	-4
597.697	1	-2
597.867	1	10
598.037	1	15
598.206	1	14
598.376	1	0
598.546	1	16
598.716	1	18
598.885	1	11
599.055	1	4
599.225	1	2
599.395	1	9
599.565	1	-11
599.734	1	4
599.904	1	4
600.074	1	8
600.244	1	10
600.413	1	7
600.583	1	7
600.753	1	4
600.923	1	21
601.092	1	6
601.262	1	11
601.432	1	15
601.602	1	6
601.771	1	10
601.941	1	15
602.111	1	11
602.281	1	2
602.451	1	5
602.620	1	8
602.790	1	15
602.960	1	3
603.130	1	-2
603.299	1	9
603.469	1	4
603.639	1	2
603.809	1	6
603.978	1	2
604.148	1	-1
604.318	1	4
604.487	1	2
604.657	1	10
604.827	1	1
604.997	1	6
605.166	1	1
605.336	1	2
605.506	1	16
605.676	1	16
605.845	1	1
606.015	1	8
606.185	1	11
606.355	1	2
606.524	1	10
606.694	1	8
606.864	1	0
607.034	1	2
607.203	1	6
607.373	1	5
607.543	1	-2
607.712	1	8
607.882	1	6
608.052	1	17
608.222	1	8
608.391	1	3
608.561	1	-2
608.731	1	3
608.901	1	12
609.070	1	5
609.240	1	12
609.410	1	5
609.579	1	4
609.749	1	14
609.919	1	9
610.089	1	-7
610.258	1	15
610.428	1	8
610.598	1	3
610.767	1	-2
610.937	1	7
611.107	1	5
611.277	1	18
611.446	1	13
611.616	1	20
611.786	1	11
611.955	1	-7
612.125	1	8
612.295	1	10
612.465	1	19
612.634	1	6
612.804	1	6
612.974	1	12
613.143	1	0
613.313	1	3
613.483	1	-5
613.652	1	-2
613.822	1	2
613.992	1	8
614.162	1	8
614.331	1	10
614.501	1	-1
614.671	1	4
614.840	1	17
615.010	1	4
615.180	1	10
615.349	1	19
615.519	1	2
615.689	1	-5
615.858	1	3
616.028	1	5
616.198	1	12
616.368	1	3
616.537	1	1
616.707	1	4
616.877	1	18
617.046	1	5
617.216	1	2
617.386	1	4
617.555	1	10
617.725	1	6
617.895	1	3
618.064	1	2
618.234	1	1
618.404	1	12
618.573	1	4
618.743	1	12
618.913	1	11
619.082	1	0
619.252	1	6
619.422	1	-7
619.591	1	10
619.761	1	-4
619.931	1	2
620.100	1	9
620.270	1	7
620.440	1	-2
620.609	1	8
620.779	1	-3
620.949	1	8
621.118	1	-6
621.288	1	12
621.458	1	10
621.627	1	5
621.797	1	9
621.967	1	-2
622.136	1	6
622.306	1	-1
622.476	1	13
622.645	1	10
622.815	1	-2
622.985	1	0
623.154	1	6
623.324	1	5
623.494	1	11
623.663	1	1
623.833	1	-2
624.002	1	7
624.172	1	-2
624.342	1	11
624.511	1	4
624.681	1	-6
624.851	1	-7
625.020	1	3
625.190	1	5
625.360	1	3
625.529	1	12
625.699	1	9
625.869	1	8
626.038	1	-7
626.208	1	2
626.377	1	2
626.547	1	5
626.717	1	16
626.886	1	8
627.056	1	5
627.226	1	-3
627.395	1	1
627.565	1	1
627.735	1	3
627.904	1	2
628.074	1	6
628.243	1	-1
628.413	1	6
628.583	1	1
628.752	1	11
628.922	1	7
629.091	1	10
629.261	1	-2
629.431	1	6
629.600	1	5
629.770	1	4
629.940	1	5
630.109	1	-2
630.279	1	-6
630.448	1	13
630.618	1	16
630.788	1	5
630.957	1	8
631.127	1	6
631.297	1	-3
631.466	1	-1
631.636	1	-10
631.805	1	6
631.975	1	-1
632.145	1	-7
632.314	1	1
632.484	1	-8
632.653	1	2
632.823	1	2
632.993	1	12
633.162	1	1
633.332	1	11
633.501	1	0
633.671	1	9
633.841	1	19
634.010	1	15
634.180	1	-3
634.349	1	1
634.519	1	1
634.689	1	6
634.858	1	6
635.028	1	14
635.197	1	11
635.367	1	15
635.537	1	14
635.706	1	5
635.876	1	2
636.045	1	-8
636.215	1	3
636.384	1	-4
636.554	1	-5
636.724	1	6
636.893	1	-4
637.063	1	10
637.232	1	-1
637.402	1	0
637.572	1	-4
637.741	1	6
637.911	1	7
638.080	1	11
638.250	1	7
638.419	1	-3
638.589	1	2
638.759	1	1
638.928	1	6
639.098	1	5
639.267	1	-4
639.437	1	10
639.606	1	9
639.776	1	11
639.946	1	5
640.115	1	10
640.285	1	8
640.454	1	5
640.624	1	0
640.793	1	8
640.963	1	15
641.132	1	-3
641.302	1	16
641.472	1	-1
641.641	1	4
641.811	1	7
641.980	1	10
642.150	1	2
642.319	1	2
642.489	1	1
642.659	1	7
642.828	1	-9
642.998	1	-3
643.167	1	11
643.337	1	12
643.506	1	-3
643.676	1	11
643.845	1	-9
644.015	1	-2
644.184	1	0
644.354	1	-1
644.524	1	5
644.693	1	2
644.863	1	8
645.032	1	2
645.202	1	-6
645.371	1	-1
645.541	1	-3
645.710	1	5
645.880	1	-8
646.049	1	9
646.219	1	7
646.388	1	17
646.558	1	-7
646.728	1	14
646.897	1	1
647.067	1	16
647.236	1	0
647.406	1	-3
647.575	1	9
647.745	1	4
647.914	1	-1
648.084	1	12
648.253	1	0
648.423	1	3
648.592	1	0
648.762	1	3
648.931	1	2
649.101	1	11
649.270	1	-6
649.440	1	16
649.610	1	3
649.779	1	12
649.949	1	-5
650.118	1	0
650.288	1	1
650.457	1	-9
650.627	1	0
650.796	1	6
650.966	1	10
651.135	1	13
651.305	1	8
651.474	1	14
651.644	1	-6
651.813	1	-3
651.983	1	6
652.152	1	-1
652.322	1	-1
652.491	1	13
652.661	1	7
652.830	1	4
653.000	1	6
653.169	1	7
653.339	1	4
653.508	1	5
653.678	1	1
653.847	1	-3
654.017	1	8
654.186	1	10
654.356	1	2
654.525	1	0
654.695	1	1
654.864	1	15
655.034	1	7
655.203	1	4
655.373	1	4
655.542	1	0
655.712	1	-4
655.881	1	7
656.051	1	4
656.220	1	7
656.390	1	14
656.559	1	10
656.729	1	8
656.898	1	1
657.068	1	6
657.237	1	9
657.406	1	-1
657.576	1	3
657.745	1	1
657.915	1	4
658.084	1	10
658.254	1	10
658.423	1	21
658.593	1	-10
658.762	1	11
658.932	1	0
659.101	1	9
659.271	1	4
659.440	1	7
659.610	1	13
659.779	1	3
659.949	1	15
660.118	1	10
660.288	1	14
660.457	1	9
660.626	1	2
660.796	1	-6
660.965	1	-11
661.135	1	-1
661.304	1	6
661.474	1	15
661.643	1	12
661.813	1	0
661.982	1	2
662.152	1	6
662.321	1	14
662.491	1	7
662.660	1	6
662.829	1	2
662.999	1	8
663.168	1	1
663.338	1	7
663.507	1	9
663.677	1	19
663.846	1	2
664.016	1	-4
664.185	1	5
664.354	1	1
664.524	1	-7
664.693	1	10
664.863	1	0
665.032	1	13
665.202	1	4
665.371	1	2
665.541	1	-9
665.710	1	6
665.879	1	2
666.049	1	4
666.218	1	-1
666.388	1	7
666.557	1	6
666.727	1	-7
666.896	1	1
667.065	1	9
667.235	1	1
667.404	1	5
667.574	1	2
667.743	1	0
667.913	1	2
668.082	1	10
668.251	1	-2
668.421	1	12
668.590	1	10
668.760	1	-1
668.929	1	8
669.099	1	11
669.268	1	9
669.437	1	0
669.607	1	2
669.776	1	1
669.946	1	14
670.115	1	5
670.285	1	6
670.454	1	14
670.623	1	5
670.793	1	2
670.962	1	10
671.132	1	3
671.301	1	-5
671.470	1	14
671.640	1	-3
671.809	1	5
671.979	1	-9
672.148	1	-1
672.317	1	4
672.487	1	8
672.656	1	15
672.826	1	4
672.995	1	5
673.164	1	7
673.334	1	8
673.503	1	-4
673.673	1	5
673.842	1	3
674.011	1	6
674.181	1	6
674.350	1	-3
674.520	1	1
674.689	1	-1
674.858	1	6
675.028	1	1
675.197	1	3
675.367	1	1
675.536	1	3
675.705	1	5
675.875	1	5
676.044	1	3
676.214	1	3
676.383	1	-1
676.552	1	-2
676.722	1	0
676.891	1	14
677.060	1	-2
677.230	1	2
677.399	1	8
677.569	1	8
677.738	1	5
677.907	1	0
678.077	1	0
678.246	1	8
678.416	1	5
678.585	1	10
678.754	1	-3
678.924	1	-4
679.093	1	2
679.262	1	8
679.432	1	6
679.601	1	-1
679.771	1	12
679.940	1	5
680.109	1	9
680.279	1	8
680.448	1	-2
680.617	1	15
680.787	1	-1
680.956	1	5
681.125	1	-1
681.295	1	8
681.464	1	-5
681.634	1	8
681.803	1	6
681.972	1	3
682.142	1	-5
682.311	1	5
682.480	1	5
682.650	1	9
682.819	1	-9
682.988	1	-6
683.158	1	-1
683.327	1	12
683.496	1	7
683.666	1	6
683.835	1	0
684.004	1	-5
684.174	1	-3
684.343	1	4
684.512	1	6
684.682	1	16
684.851	1	5
685.021	1	2
685.190	1	-1
685.359	1	2
685.529	1	2
685.698	1	1
685.867	1	6
686.037	1	8
686.206	1	3
686.375	1	11
686.545	1	2
686.714	1	6
686.883	1	7
687.053	1	3
687.222	1	11
687.391	1	4
687.561	1	1
687.730	1	12
687.899	1	12
688.069	1	10
688.238	1	0
688.407	1	6
688.577	1	20
688.746	1	7
