340.368	1	3
340.539	1	6
340.710	1	5
340.881	1	2
341.052	1	5
341.223	1	-1
341.394	1	-5
341.565	1	8
341.737	1	3
341.908	1	-10
342.079	1	2
342.250	1	4
342.421	1	7
342.592	1	10
342.763	1	14
342.934	1	7
343.105	1	10
343.276	1	-7
343.447	1	2
343.618	1	-6
343.789	1	13
343.960	1	2
344.131	1	-4
344.302	1	9
344.473	1	-8
344.644	1	-2
344.815	1	11
344.986	1	0
345.157	1	-5
345.328	1	7
345.499	1	5
345.670	1	2
345.841	1	4
346.012	1	5
346.183	1	-5
346.354	1	7
346.526	1	3
346.697	1	7
346.868	1	3
347.039	1	-2
347.210	1	-1
347.381	1	-7
347.552	1	17
347.723	1	-2
347.894	1	5
348.065	1	-7
348.236	1	6
348.407	1	-7
348.578	1	0
348.749	1	-4
348.920	1	4
349.091	1	7
349.262	1	-2
349.433	1	-12
349.604	1	6
349.775	1	4
349.946	1	4
350.117	1	6
350.288	1	-2
350.459	1	1
350.630	1	2
350.801	1	0
350.972	1	1
351.143	1	-5
351.314	1	7
351.485	1	-9
351.656	1	-3
351.827	1	-1
351.998	1	1
352.169	1	0
352.340	1	4
352.511	1	4
352.682	1	-2
352.853	1	0
353.024	1	2
353.195	1	-4
353.366	1	4
353.537	1	3
353.708	1	15
353.879	1	1
354.050	1	3
354.221	1	5
354.392	1	11
354.563	1	6
354.734	1	9
354.905	1	8
355.076	1	7
355.247	1	2
355.418	1	-1
355.589	1	10
355.760	1	-1
355.931	1	7
356.102	1	12
356.273	1	-1
356.444	1	1
356.615	1	4
356.785	1	4
356.956	1	1
357.127	1	6
357.298	1	11
357.469	1	2
357.640	1	0
357.811	1	7
357.982	1	2
358.153	1	2
358.324	1	0
358.495	1	0
358.666	1	-3
358.837	1	12
359.008	1	16
359.179	1	21
359.350	1	-2
359.521	1	14
359.692	1	-14
359.863	1	0
360.034	1	5
360.205	1	13
360.376	1	19
360.547	1	2
360.718	1	12
360.889	1	6
361.060	1	12
361.231	1	9
361.401	1	13
361.572	1	8
361.743	1	11
361.914	1	3
362.085	1	14
362.256	1	8
362.427	1	14
362.598	1	19
362.769	1	6
362.940	1	12
363.111	1	22
363.282	1	15
363.453	1	15
363.624	1	13
363.795	1	11
363.966	1	20
364.137	1	21
364.308	1	23
364.478	1	4
364.649	1	9
364.820	1	13
364.991	1	23
365.162	1	16
365.333	1	15
365.504	1	22
365.675	1	23
365.846	1	23
366.017	1	29
366.188	1	31
366.359	1	30
366.530	1	29
366.701	1	12
366.871	1	36
367.042	1	30
367.213	1	22
367.384	1	30
367.555	1	30
367.726	1	22
367.897	1	29
368.068	1	20
368.239	1	19
368.410	1	40
368.581	1	34
368.752	1	36
368.923	1	38
369.093	1	33
369.264	1	31
369.435	1	36
369.606	1	33
369.777	1	32
369.948	1	37
370.119	1	41
370.290	1	34
370.461	1	37
370.632	1	25
370.803	1	28
370.973	1	24
371.144	1	17
371.315	1	36
371.486	1	24
371.657	1	27
371.828	1	20
371.999	1	23
372.170	1	22
372.341	1	28
372.512	1	26
372.682	1	10
372.853	1	26
373.024	1	12
373.195	1	21
373.366	1	17
373.537	1	27
373.708	1	25
373.879	1	18
374.050	1	34
374.220	1	14
374.391	1	24
374.562	1	19
374.733	1	6
374.904	1	17
375.075	1	9
375.246	1	14
375.417	1	19
375.588	1	20
375.758	1	9
375.929	1	15
376.100	1	12
376.271	1	12
376.442	1	23
376.613	1	9
376.784	1	1
376.955	1	12
377.125	1	15
377.296	1	25
377.467	1	11
377.638	1	15
377.809	1	20
377.980	1	16
378.151	1	12
378.321	1	12
378.492	1	10
378.663	1	8
378.834	1	4
379.005	1	25
379.176	1	13
379.347	1	12
379.518	1	12
379.688	1	4
379.859	1	20
380.030	1	6
380.201	1	11
380.372	1	8
380.543	1	14
380.714	1	7
380.884	1	15
381.055	1	8
381.226	1	14
381.397	1	18
381.568	1	28
381.739	1	11
381.910	1	13
382.080	1	2
382.251	1	12
382.422	1	-1
382.593	1	5
382.764	1	8
382.935	1	8
383.105	1	11
383.276	1	12
383.447	1	2
383.618	1	8
383.789	1	16
383.960	1	15
384.130	1	8
384.301	1	7
384.472	1	6
384.643	1	12
384.814	1	13
384.985	1	14
385.156	1	20
385.326	1	9
385.497	1	12
385.668	1	11
385.839	1	15
386.010	1	6
386.180	1	11
386.351	1	10
386.522	1	17
386.693	1	17
386.864	1	2
387.035	1	25
387.205	1	16
387.376	1	5
387.547	1	9
387.718	1	15
387.889	1	10
388.060	1	5
388.230	1	11
388.401	1	10
388.572	1	13
388.743	1	8
388.914	1	15
389.084	1	11
389.255	1	11
389.426	1	5
389.597	1	-7
389.768	1	13
389.939	1	8
390.109	1	12
390.280	1	13
390.451	1	20
390.622	1	20
390.793	1	18
390.963	1	2
391.134	1	17
391.305	1	10
391.476	1	2
391.647	1	1
391.817	1	0
391.988	1	19
392.159	1	11
392.330	1	1
392.501	1	3
392.671	1	17
392.842	1	4
393.013	1	14
393.184	1	-1
393.355	1	-2
393.525	1	13
393.696	1	5
393.867	1	8
394.038	1	18
394.208	1	15
394.379	1	14
394.550	1	2
394.721	1	8
394.892	1	9
395.062	1	7
395.233	1	-1
395.404	1	6
395.575	1	17
395.746	1	17
395.916	1	23
396.087	1	-4
396.258	1	17
396.429	1	0
396.599	1	3
396.770	1	11
396.941	1	0
397.112	1	11
397.283	1	13
397.453	1	7
397.624	1	4
397.795	1	3
397.966	1	8
398.136	1	13
398.307	1	9
398.478	1	8
398.649	1	15
398.819	1	4
398.990	1	1
399.161	1	8
399.332	1	9
399.503	1	14
399.673	1	9
399.844	1	3
400.015	1	6
400.186	1	1
400.356	1	21
400.527	1	8
400.698	1	3
400.869	1	8
401.039	1	8
401.210	1	2
401.381	1	0
401.552	1	13
401.722	1	16
401.893	1	11
402.064	1	3
402.235	1	-2
402.405	1	-2
402.576	1	2
402.747	1	13
402.918	1	14
403.088	1	-4
403.259	1	17
403.430	1	7
403.601	1	4
403.771	1	-11
403.942	1	9
404.113	1	-2
404.284	1	17
404.454	1	6
404.625	1	10
404.796	1	-7
404.967	1	15
405.137	1	5
405.308	1	16
405.479	1	-11
405.649	1	-1
405.820	1	8
405.991	1	10
406.162	1	-6
406.332	1	7
406.503	1	9
406.674	1	17
406.845	1	6
407.015	1	9
407.186	1	13
407.357	1	-1
407.527	1	14
407.698	1	5
407.869	1	8
408.040	1	4
408.210	1	7
408.381	1	7
408.552	1	7
408.722	1	10
408.893	1	-6
409.064	1	2
409.235	1	-1
409.405	1	19
409.576	1	5
409.747	1	6
409.917	1	10
410.088	1	8
410.259	1	8
410.430	1	-8
410.600	1	-3
410.771	1	17
410.942	1	13
411.112	1	14
411.283	1	4
411.454	1	1
411.625	1	11
411.795	1	6
411.966	1	5
412.137	1	5
412.307	1	10
412.478	1	-2
412.649	1	9
412.819	1	13
412.990	1	3
413.161	1	1
413.332	1	0
413.502	1	5
413.673	1	13
413.844	1	5
414.014	1	11
414.185	1	0
414.356	1	13
414.526	1	2
414.697	1	10
414.868	1	-2
415.038	1	2
415.209	1	3
415.380	1	-1
415.550	1	-2
415.721	1	5
415.892	1	7
416.063	1	0
416.233	1	10
416.404	1	-1
416.575	1	5
416.745	1	1
416.916	1	7
417.087	1	5
417.257	1	-1
417.428	1	10
417.599	1	-2
417.769	1	-4
417.940	1	5
418.111	1	9
418.281	1	20
418.452	1	4
418.623	1	3
418.793	1	3
418.964	1	-11
419.135	1	7
419.305	1	0
419.476	1	20
419.647	1	4
419.817	1	5
419.988	1	16
420.159	1	1
420.329	1	5
420.500	1	8
420.671	1	3
420.841	1	6
421.012	1	15
421.183	1	8
421.353	1	6
421.524	1	5
421.695	1	-1
421.865	1	-2
422.036	1	-8
422.206	1	0
422.377	1	6
422.548	1	-5
422.718	1	10
422.889	1	7
423.060	1	15
423.230	1	-8
423.401	1	0
423.572	1	-13
423.742	1	1
423.913	1	-5
424.084	1	11
424.254	1	2
424.425	1	-1
424.595	1	3
424.766	1	9
424.937	1	-3
425.107	1	5
425.278	1	3
425.449	1	-4
425.619	1	2
425.790	1	5
425.961	1	-3
426.131	1	-1
426.302	1	-1
426.472	1	3
426.643	1	-8
426.814	1	-14
426.984	1	-1
427.155	1	15
427.326	1	7
427.496	1	4
427.667	1	2
427.837	1	12
428.008	1	6
428.179	1	4
428.349	1	12
428.520	1	6
428.691	1	9
428.861	1	-9
429.032	1	6
429.202	1	0
429.373	1	9
429.544	1	-3
429.714	1	7
429.885	1	8
430.055	1	9
430.226	1	1
430.397	1	9
430.567	1	-2
430.738	1	6
430.909	1	4
431.079	1	-2
431.250	1	10
431.420	1	4
431.591	1	13
431.762	1	8
431.932	1	-1
432.103	1	-3
432.273	1	3
432.444	1	5
432.615	1	0
432.785	1	-2
432.956	1	-1
433.126	1	6
433.297	1	3
433.468	1	7
433.638	1	-4
433.809	1	-3
433.979	1	-1
434.150	1	5
434.320	1	3
434.491	1	5
434.662	1	0
434.832	1	4
435.003	1	-4
435.173	1	9
435.344	1	8
435.515	1	10
435.685	1	-3
435.856	1	-3
436.026	1	0
436.197	1	1
436.368	1	-7
436.538	1	9
436.709	1	16
436.879	1	3
437.050	1	3
437.220	1	4
437.391	1	-3
437.562	1	-4
437.732	1	-10
437.903	1	0
438.073	1	14
438.244	1	3
438.414	1	-9
438.585	1	5
438.756	1	-4
438.926	1	6
439.097	1	14
439.267	1	8
439.438	1	2
439.608	1	1
439.779	1	0
439.949	1	7
440.120	1	-5
440.291	1	4
440.461	1	0
440.632	1	-2
440.802	1	-5
440.973	1	5
441.143	1	4
441.314	1	-1
441.485	1	0
441.655	1	5
441.826	1	6
441.996	1	2
442.167	1	-6
442.337	1	4
442.508	1	-4
442.678	1	-3
442.849	1	3
443.019	1	1
443.190	1	0
443.361	1	2
443.531	1	8
443.702	1	-7
443.872	1	10
444.043	1	-5
444.213	1	-10
444.384	1	-6
444.554	1	6
444.725	1	3
444.895	1	0
445.066	1	6
445.237	1	-4
445.407	1	-8
445.578	1	-9
445.748	1	-8
445.919	1	4
446.089	1	12
446.260	1	7
446.430	1	14
446.601	1	11
446.771	1	-9
446.942	1	-5
447.112	1	3
447.283	1	1
447.453	1	10
447.624	1	-5
447.794	1	6
447.965	1	-4
448.135	1	-3
448.306	1	6
448.477	1	3
448.647	1	14
448.818	1	-1
448.988	1	5
449.159	1	10
449.329	1	5
449.500	1	7
449.670	1	0
449.841	1	6
450.011	1	-7
450.182	1	-1
450.352	1	-6
450.523	1	4
450.693	1	6
450.864	1	1
451.034	1	3
451.205	1	0
451.375	1	4
451.546	1	4
451.716	1	10
451.887	1	0
452.057	1	-4
452.228	1	10
452.398	1	10
452.569	1	7
452.739	1	3
452.910	1	-1
453.080	1	-5
453.251	1	5
453.421	1	-3
453.592	1	4
453.762	1	-2
453.933	1	3
454.103	1	9
454.274	1	0
454.444	1	-1
454.615	1	8
454.785	1	-1
454.956	1	4
455.126	1	-3
455.297	1	1
455.467	1	-1
455.638	1	11
455.808	1	-2
455.979	1	12
456.149	1	-2
456.320	1	2
456.490	1	2
456.661	1	-2
456.831	1	0
457.001	1	1
457.172	1	9
457.342	1	1
457.513	1	-3
457.683	1	14
457.854	1	0
458.024	1	4
458.195	1	0
458.365	1	2
458.536	1	0
458.706	1	12
458.877	1	2
459.047	1	17
459.218	1	-8
459.388	1	12
459.559	1	-2
459.729	1	9
459.899	1	-9
460.070	1	3
460.240	1	-9
460.411	1	-6
460.581	1	4
460.752	1	-5
460.922	1	-2
461.093	1	-2
461.263	1	5
461.434	1	11
461.604	1	5
461.775	1	-5
461.945	1	1
462.115	1	9
462.286	1	9
462.456	1	-1
462.627	1	-7
462.797	1	-11
462.968	1	-2
463.138	1	5
463.309	1	-5
463.479	1	7
463.649	1	5
463.820	1	-10
463.990	1	0
464.161	1	-2
464.331	1	4
464.502	1	4
464.672	1	0
464.843	1	6
465.013	1	-1
465.183	1	-1
465.354	1	7
465.524	1	1
465.695	1	-4
465.865	1	-6
466.036	1	4
466.206	1	3
466.376	1	9
466.547	1	0
466.717	1	12
466.888	1	7
467.058	1	0
467.229	1	-6
467.399	1	-4
467.569	1	-1
467.740	1	3
467.910	1	-1
468.081	1	4
468.251	1	5
468.422	1	12
468.592	1	5
468.762	1	-1
468.933	1	14
469.103	1	-8
469.274	1	6
469.444	1	-9
469.614	1	1
469.785	1	7
469.955	1	7
470.126	1	5
470.296	1	4
470.467	1	6
470.637	1	3
470.807	1	-3
470.978	1	-2
471.148	1	10
471.319	1	8
471.489	1	8
471.659	1	-4
471.830	1	-9
472.000	1	6
472.171	1	14
472.341	1	7
472.511	1	9
472.682	1	0
472.852	1	-7
473.023	1	7
473.193	1	2
473.363	1	4
473.534	1	-3
473.704	1	-8
473.875	1	6
474.045	1	1
474.215	1	13
474.386	1	13
474.556	1	5
474.727	1	2
474.897	1	0
475.067	1	5
475.238	1	-3
475.408	1	11
475.578	1	0
475.749	1	5
475.919	1	8
476.090	1	22
476.260	1	5
476.430	1	3
476.601	1	5
476.771	1	6
476.942	1	-7
477.112	1	0
477.282	1	-1
477.453	1	-4
477.623	1	0
477.793	1	17
477.964	1	-3
478.134	1	-1
478.305	1	9
478.475	1	10
478.645	1	0
478.816	1	1
478.986	1	10
479.156	1	15
479.327	1	-8
479.497	1	-1
479.667	1	8
479.838	1	-6
480.008	1	2
480.179	1	-7
480.349	1	-3
480.519	1	-3
480.690	1	0
480.860	1	-6
481.030	1	2
481.201	1	1
481.371	1	14
481.541	1	-6
481.712	1	10
481.882	1	-2
482.053	1	21
482.223	1	5
482.393	1	9
482.564	1	2
482.734	1	13
482.904	1	7
483.075	1	-6
483.245	1	5
483.415	1	8
483.586	1	6
483.756	1	-12
483.926	1	8
484.097	1	3
484.267	1	2
484.437	1	5
484.608	1	8
484.778	1	6
484.948	1	2
485.119	1	-1
485.289	1	7
485.459	1	6
485.630	1	0
485.800	1	5
485.970	1	12
486.141	1	10
486.311	1	4
486.481	1	1
486.652	1	3
486.822	1	-4
486.992	1	3
487.163	1	8
487.333	1	-5
487.503	1	7
487.674	1	7
487.844	1	3
488.014	1	4
488.185	1	-2
488.355	1	10
488.525	1	11
488.696	1	5
488.866	1	-1
489.036	1	3
489.207	1	1
489.377	1	8
489.547	1	8
489.718	1	8
489.888	1	15
490.058	1	-12
490.228	1	0
490.399	1	8
490.569	1	15
490.739	1	-4
490.910	1	9
491.080	1	1
491.250	1	4
491.421	1	-2
491.591	1	-2
491.761	1	13
491.932	1	13
492.102	1	13
492.272	1	8
492.442	1	7
492.613	1	6
492.783	1	8
492.953	1	5
493.124	1	13
493.294	1	8
493.464	1	4
493.635	1	9
493.805	1	7
493.975	1	-1
494.145	1	4
494.316	1	14
494.486	1	9
494.656	1	9
494.827	1	0
494.997	1	16
495.167	1	13
495.337	1	12
495.508	1	20
495.678	1	12
495.848	1	10
496.019	1	8
496.189	1	15
496.359	1	4
496.529	1	11
496.700	1	17
496.870	1	10
497.040	1	3
497.211	1	5
497.381	1	15
497.551	1	8
497.721	1	7
497.892	1	9
498.062	1	-4
498.232	1	15
498.403	1	9
498.573	1	9
498.743	1	20
498.913	1	3
499.084	1	-2
499.254	1	8
499.424	1	0
499.594	1	3
499.765	1	11
499.935	1	6
500.105	1	17
500.275	1	21
500.446	1	13
500.616	1	-8
500.786	1	9
500.956	1	8
501.127	1	14
501.297	1	8
501.467	1	2
501.638	1	22
501.808	1	9
501.978	1	9
502.148	1	22
502.319	1	13
502.489	1	7
502.659	1	13
502.829	1	11
503.000	1	4
503.170	1	14
503.340	1	7
503.510	1	13
503.681	1	3
503.851	1	19
504.021	1	1
504.191	1	11
504.362	1	-4
504.532	1	7
504.702	1	9
504.872	1	10
505.042	1	5
505.213	1	-10
505.383	1	21
505.553	1	6
505.723	1	14
505.894	1	5
506.064	1	-2
506.234	1	12
506.404	1	8
506.575	1	9
506.745	1	11
506.915	1	21
507.085	1	6
507.256	1	8
507.426	1	10
507.596	1	9
507.766	1	2
507.936	1	17
508.107	1	14
508.277	1	10
508.447	1	10
508.617	1	20
508.788	1	12
508.958	1	3
509.128	1	6
509.298	1	8
509.468	1	11
509.639	1	13
509.809	1	15
509.979	1	23
510.149	1	10
510.319	1	-3
510.490	1	18
510.660	1	14
510.830	1	10
511.000	1	6
511.171	1	20
511.341	1	7
511.511	1	12
511.681	1	14
511.851	1	25
512.022	1	5
512.192	1	9
512.362	1	22
512.532	1	11
512.702	1	8
512.873	1	5
513.043	1	22
513.213	1	11
513.383	1	15
513.553	1	17
513.724	1	19
513.894	1	17
514.064	1	12
514.234	1	6
514.404	1	20
514.575	1	8
514.745	1	14
514.915	1	2
515.085	1	26
515.255	1	8
515.425	1	12
515.596	1	14
515.766	1	17
515.936	1	13
516.106	1	19
516.276	1	14
516.447	1	6
516.617	1	9
516.787	1	9
516.957	1	17
517.127	1	16
517.297	1	18
517.468	1	8
517.638	1	15
517.808	1	10
517.978	1	9
518.148	1	9
518.319	1	25
518.489	1	15
518.659	1	12
518.829	1	11
518.999	1	10
519.169	1	8
519.340	1	16
519.510	1	4
519.680	1	16
519.850	1	15
520.020	1	14
520.190	1	12
520.361	1	11
520.531	1	25
520.701	1	11
520.871	1	22
521.041	1	22
521.211	1	-9
521.382	1	18
521.552	1	20
521.722	1	14
521.892	1	9
522.062	1	20
522.232	1	14
522.402	1	8
522.573	1	20
522.743	1	21
522.913	1	24
523.083	1	11
523.253	1	8
523.423	1	19
523.593	1	19
523.764	1	13
523.934	1	6
524.104	1	22
524.274	1	14
524.444	1	15
524.614	1	16
524.784	1	6
524.955	1	17
525.125	1	3
525.295	1	8
525.465	1	19
525.635	1	14
525.805	1	14
525.975	1	14
526.146	1	17
526.316	1	15
526.486	1	26
526.656	1	19
526.826	1	26
526.996	1	10
527.166	1	25
527.337	1	4
527.507	1	19
527.677	1	14
527.847	1	18
528.017	1	2
528.187	1	6
528.357	1	16
528.527	1	5
528.698	1	16
528.868	1	11
529.038	1	20
529.208	1	15
529.378	1	9
529.548	1	24
529.718	1	1
529.888	1	19
530.058	1	18
530.229	1	28
530.399	1	23
530.569	1	9
530.739	1	16
530.909	1	3
531.079	1	31
531.249	1	11
531.419	1	10
531.589	1	19
531.760	1	6
531.930	1	21
532.100	1	13
532.270	1	12
532.440	1	10
532.610	1	15
532.780	1	3
532.950	1	13
533.120	1	14
533.290	1	-1
533.461	1	6
533.631	1	10
533.801	1	14
533.971	1	12
534.141	1	21
534.311	1	32
534.481	1	10
534.651	1	18
534.821	1	23
534.991	1	18
535.162	1	11
535.332	1	6
535.502	1	27
535.672	1	28
535.842	1	20
536.012	1	7
536.182	1	13
536.352	1	5
536.522	1	12
536.692	1	20
536.862	1	12
537.032	1	7
537.203	1	16
537.373	1	6
537.543	1	11
537.713	1	15
537.883	1	22
538.053	1	14
538.223	1	25
538.393	1	14
538.563	1	15
538.733	1	7
538.903	1	11
539.073	1	6
539.243	1	21
539.413	1	8
539.584	1	26
539.754	1	7
539.924	1	19
540.094	1	21
540.264	1	14
540.434	1	19
540.604	1	6
540.774	1	6
540.944	1	7
541.114	1	11
541.284	1	5
541.454	1	13
541.624	1	4
541.794	1	6
541.964	1	17
542.134	1	3
542.305	1	19
542.475	1	19
542.645	1	13
542.815	1	14
542.985	1	17
543.155	1	12
543.325	1	7
543.495	1	8
543.665	1	10
543.835	1	15
544.005	1	12
544.175	1	-3
544.345	1	13
544.515	1	19
544.685	1	18
544.855	1	8
545.025	1	11
545.195	1	11
545.365	1	1
545.535	1	13
545.705	1	14
545.875	1	11
546.045	1	21
546.216	1	5
546.386	1	22
546.556	1	13
546.726	1	12
546.896	1	11
547.066	1	11
547.236	1	6
547.406	1	10
547.576	1	17
547.746	1	15
547.916	1	5
548.086	1	26
548.256	1	22
548.426	1	18
548.596	1	1
548.766	1	11
548.936	1	2
549.106	1	11
549.276	1	7
549.446	1	30
549.616	1	18
549.786	1	12
549.956	1	20
550.126	1	19
550.296	1	12
550.466	1	1
550.636	1	15
550.806	1	10
550.976	1	-6
551.146	1	6
551.316	1	19
551.486	1	25
551.656	1	22
551.826	1	18
551.996	1	12
552.166	1	11
552.336	1	9
552.506	1	8
552.676	1	23
552.846	1	12
553.016	1	18
553.186	1	11
553.356	1	15
553.526	1	13
553.696	1	14
553.866	1	4
554.036	1	22
554.206	1	12
554.376	1	18
554.546	1	17
554.716	1	7
554.886	1	12
555.056	1	9
555.226	1	26
555.396	1	7
555.566	1	18
555.736	1	8
555.906	1	18
556.076	1	21
556.246	1	13
556.416	1	4
556.586	1	21
556.756	1	20
556.926	1	16
557.096	1	14
557.266	1	17
557.436	1	19
557.606	1	2
557.776	1	6
557.946	1	17
558.116	1	15
558.286	1	11
558.456	1	16
558.626	1	16
558.796	1	6
558.966	1	13
559.136	1	13
559.306	1	11
559.476	1	20
559.646	1	11
559.816	1	8
559.986	1	4
560.155	1	18
560.325	1	15
560.495	1	2
560.665	1	22
560.835	1	14
561.005	1	13
561.175	1	20
561.345	1	12
561.515	1	4
561.685	1	11
561.855	1	6
562.025	1	5
562.195	1	18
562.365	1	22
562.535	1	2
562.705	1	15
562.875	1	19
563.045	1	10
563.215	1	-3
563.385	1	8
563.555	1	16
563.725	1	8
563.895	1	19
564.064	1	16
564.234	1	8
564.404	1	-6
564.574	1	-1
564.744	1	6
564.914	1	12
565.084	1	13
565.254	1	16
565.424	1	14
565.594	1	14
565.764	1	20
565.934	1	14
566.104	1	5
566.274	1	7
566.444	1	6
566.614	1	9
566.783	1	7
566.953	1	6
567.123	1	1
567.293	1	8
567.463	1	0
567.633	1	16
567.803	1	4
567.973	1	10
568.143	1	6
568.313	1	-1
568.483	1	3
568.653	1	9
568.823	1	2
568.993	1	18
569.162	1	11
569.332	1	11
569.502	1	14
569.672	1	10
569.842	1	4
570.012	1	10
570.182	1	13
570.352	1	5
570.522	1	-4
570.692	1	14
570.862	1	10
571.031	1	-5
571.201	1	-5
571.371	1	7
571.541	1	8
571.711	1	15
571.881	1	10
572.051	1	13
572.221	1	11
572.391	1	16
572.561	1	5
572.731	1	11
572.900	1	9
573.070	1	7
573.240	1	9
573.410	1	1
573.580	1	4
573.750	1	3
573.920	1	11
574.090	1	9
574.260	1	22
574.430	1	3
574.599	1	19
574.769	1	3
574.939	1	11
575.109	1	2
575.279	1	-1
575.449	1	6
575.619	1	-7
575.789	1	9
575.959	1	-5
576.128	1	19
576.298	1	1
576.468	1	9
576.638	1	14
576.808	1	12
576.978	1	2
577.148	1	8
577.318	1	2
577.487	1	-4
577.657	1	0
577.827	1	-3
577.997	1	8
578.167	1	6
578.337	1	8
578.507	1	8
578.677	1	-6
578.846	1	0
579.016	1	16
579.186	1	-2
579.356	1	15
579.526	1	-3
579.696	1	15
579.866	1	4
580.036	1	3
580.205	1	15
580.375	1	9
580.545	1	0
580.715	1	12
580.885	1	8
581.055	1	2
581.225	1	10
581.394	1	1
581.564	1	2
581.734	1	2
581.904	1	3
582.074	1	14
582.244	1	14
582.414	1	-3
582.583	1	4
582.753	1	5
582.923	1	1
583.093	1	15
583.263	1	7
583.433	1	4
583.603	1	13
583.772	1	-4
583.942	1	10
584.112	1	1
584.282	1	9
584.452	1	5
584.622	1	-3
584.791	1	2
584.961	1	9
585.131	1	0
585.301	1	1
585.471	1	-2
585.641	1	2
585.811	1	14
585.980	1	13
586.150	1	1
586.320	1	8
586.490	1	0
586.660	1	3
586.830	1	11
586.999	1	2
587.169	1	7
587.339	1	3
587.509	1	7
587.679	1	15
587.849	1	3
588.018	1	-2
588.188	1	9
588.358	1	13
588.528	1	9
588.698	1	3
588.867	1	5
589.037	1	8
589.207	1	-2
589.377	1	4
589.547	1	10
589.717	1	6
589.886	1	5
590.056	1	4
590.226	1	5
590.396	1	3
590.566	1	1
590.735	1	3
590.905	1	-1
591.075	1	10
591.245	1	2
591.415	1	14
591.585	1	5
591.754	1	17
591.924	1	10
592.094	1	5
592.264	1	4
592.434	1	5
592.603	1	-6
592.773	1	3
592.943	1	12
593.113	1	3
593.283	1	14
593.452	1	6
593.622	1	2
593.792	1	12
593.962	1	9
594.132	1	9
594.301	1	15
594.471	1	14
594.641	1	-12
594.811	1	18
594.981	1	8
595.150	1	8
595.320	1	0
595.490	1	-3
595.660	1	4
595.829	1	10
595.999	1	9
596.169	1	2
596.339	1	10
596.509	1	5
596.678	1	-2
596.848	1	7
597.018	1	8
597.188	1	1
597.358	1	3
597.527	1	-7
597.697	1	3
597.867	1	17
598.037	1	23
598.206	1	5
598.376	1	9
598.546	1	4
598.716	1	5
598.885	1	1
599.055	1	-7
599.225	1	0
599.395	1	7
599.565	1	-1
599.734	1	2
599.904	1	1
600.074	1	3
600.244	1	8
600.413	1	0
600.583	1	9
600.753	1	-2
600.923	1	-3
601.092	1	4
601.262	1	5
601.432	1	2
601.602	1	7
601.771	1	4
601.941	1	11
602.111	1	12
602.281	1	6
602.451	1	-5
602.620	1	-1
602.790	1	9
602.960	1	0
603.130	1	12
603.299	1	6
603.469	1	0
603.639	1	0
603.809	1	-1
603.978	1	13
604.148	1	0
604.318	1	-1
604.487	1	3
604.657	1	1
604.827	1	3
604.997	1	2
605.166	1	0
605.336	1	17
605.506	1	11
605.676	1	19
605.845	1	0
606.015	1	9
606.185	1	-1
606.355	1	4
606.524	1	3
606.694	1	2
606.864	1	-2
607.034	1	-5
607.203	1	7
607.373	1	10
607.543	1	5
607.712	1	12
607.882	1	12
608.052	1	11
608.222	1	-3
608.391	1	5
608.561	1	0
608.731	1	3
608.901	1	3
609.070	1	-2
609.240	1	9
609.410	1	5
609.579	1	8
609.749	1	4
609.919	1	4
610.089	1	3
610.258	1	13
610.428	1	-5
610.598	1	7
610.767	1	7
610.937	1	3
611.107	1	14
611.277	1	16
611.446	1	6
611.616	1	10
611.786	1	8
611.955	1	-4
612.125	1	12
612.295	1	3
612.465	1	9
612.634	1	8
612.804	1	5
612.974	1	12
613.143	1	11
613.313	1	12
613.483	1	-11
613.652	1	-1
613.822	1	9
613.992	1	11
614.162	1	-5
614.331	1	9
614.501	1	-9
614.671	1	-2
614.840	1	12
615.010	1	4
615.180	1	10
615.349	1	14
615.519	1	0
615.689	1	-4
615.858	1	-1
616.028	1	2
616.198	1	10
616.368	1	6
616.537	1	-4
616.707	1	3
616.877	1	4
617.046	1	6
617.216	1	6
617.386	1	3
617.555	1	-2
617.725	1	13
617.895	1	11
618.064	1	6
618.234	1	4
618.404	1	0
618.573	1	3
618.743	1	6
618.913	1	8
619.082	1	1
619.252	1	0
619.422	1	5
619.591	1	-1
619.761	1	-7
619.931	1	14
620.100	1	6
620.270	1	3
620.440	1	-1
620.609	1	1
620.779	1	0
620.949	1	0
621.118	1	0
621.288	1	12
621.458	1	12
621.627	1	7
621.797	1	9
621.967	1	3
622.136	1	11
622.306	1	6
622.476	1	11
622.645	1	17
622.815	1	-6
622.985	1	11
623.154	1	0
623.324	1	-1
623.494	1	5
623.663	1	2
623.833	1	-5
624.002	1	10
624.172	1	-7
624.342	1	10
624.511	1	11
624.681	1	-3
624.851	1	-7
625.020	1	4
625.190	1	5
625.360	1	10
625.529	1	7
625.699	1	11
625.869	1	5
626.038	1	-5
626.208	1	-2
626.377	1	5
626.547	1	-1
626.717	1	9
626.886	1	7
627.056	1	11
627.226	1	-2
627.395	1	4
627.565	1	1
627.735	1	8
627.904	1	2
628.074	1	8
628.243	1	-6
628.413	1	13
628.583	1	8
628.752	1	4
628.922	1	8
629.091	1	7
629.261	1	1
629.431	1	8
629.600	1	0
629.770	1	4
629.940	1	7
630.109	1	2
630.279	1	-4
630.448	1	1
630.618	1	3
630.788	1	-2
630.957	1	2
631.127	1	6
631.297	1	2
631.466	1	-4
631.636	1	-5
631.805	1	-7
631.975	1	6
632.145	1	-1
632.314	1	3
632.484	1	-8
632.653	1	1
632.823	1	8
632.993	1	0
633.162	1	4
633.332	1	6
633.501	1	2
633.671	1	1
633.841	1	16
634.010	1	9
634.180	1	-4
634.349	1	-1
634.519	1	0
634.689	1	11
634.858	1	0
635.028	1	2
635.197	1	16
635.367	1	7
635.537	1	13
635.706	1	-8
635.876	1	2
636.045	1	-5
636.215	1	-5
636.384	1	9
636.554	1	3
636.724	1	5
636.893	1	7
637.063	1	5
637.232	1	2
637.402	1	0
637.572	1	-1
637.741	1	0
637.911	1	7
638.080	1	7
638.250	1	9
638.419	1	1
638.589	1	-5
638.759	1	-10
638.928	1	8
639.098	1	2
639.267	1	5
639.437	1	7
639.606	1	5
639.776	1	4
639.946	1	-3
640.115	1	2
640.285	1	2
640.454	1	4
640.624	1	3
640.793	1	9
640.963	1	2
641.132	1	-3
641.302	1	13
641.472	1	2
641.641	1	2
641.811	1	5
641.980	1	2
642.150	1	-4
642.319	1	9
642.489	1	1
642.659	1	10
642.828	1	-1
642.998	1	-1
643.167	1	4
643.337	1	2
643.506	1	-3
643.676	1	0
643.845	1	-8
644.015	1	0
644.184	1	5
644.354	1	-2
644.524	1	11
644.693	1	3
644.863	1	5
645.032	1	1
645.202	1	1
645.371	1	6
645.541	1	-4
645.710	1	8
645.880	1	-5
646.049	1	11
646.219	1	2
646.388	1	15
646.558	1	0
646.728	1	20
646.897	1	-3
647.067	1	1
647.236	1	8
647.406	1	1
647.575	1	5
647.745	1	-5
647.914	1	-5
648.084	1	1
648.253	1	-4
648.423	1	-2
648.592	1	-5
648.762	1	5
648.931	1	-8
649.101	1	13
649.270	1	-4
649.440	1	-1
649.610	1	0
649.779	1	12
649.949	1	2
650.118	1	6
650.288	1	6
650.457	1	1
650.627	1	4
650.796	1	3
650.966	1	11
651.135	1	-4
651.305	1	10
651.474	1	8
651.644	1	5
651.813	1	6
651.983	1	12
652.152	1	13
652.322	1	4
652.491	1	9
652.661	1	5
652.830	1	-1
653.000	1	1
653.169	1	0
653.339	1	4
653.508	1	7
653.678	1	6
653.847	1	-2
654.017	1	12
654.186	1	10
654.356	1	1
654.525	1	-8
654.695	1	2
654.864	1	3
655.034	1	16
655.203	1	3
655.373	1	1
655.542	1	0
655.712	1	5
655.881	1	13
656.051	1	-2
656.220	1	3
656.390	1	5
656.559	1	11
656.729	1	9
656.898	1	-5
657.068	1	13
657.237	1	8
657.406	1	0
657.576	1	3
657.745	1	0
657.915	1	0
658.084	1	5
658.254	1	8
658.423	1	20
658.593	1	4
658.762	1	-4
658.932	1	-7
659.101	1	5
659.271	1	9
659.440	1	7
659.610	1	15
659.779	1	-4
659.949	1	9
660.118	1	6
660.288	1	10
660.457	1	5
660.626	1	8
660.796	1	-2
660.965	1	-3
661.135	1	-6
661.304	1	8
661.474	1	-4
661.643	1	16
661.813	1	4
661.982	1	5
662.152	1	9
662.321	1	4
662.491	1	4
662.660	1	5
662.829	1	-5
662.999	1	-2
663.168	1	2
663.338	1	8
663.507	1	15
663.677	1	5
663.846	1	7
664.016	1	3
664.185	1	3
664.354	1	8
664.524	1	-1
664.693	1	2
664.863	1	4
665.032	1	13
665.202	1	6
665.371	1	1
665.541	1	-11
665.710	1	1
665.879	1	-4
666.049	1	9
666.218	1	3
666.388	1	0
666.557	1	9
666.727	1	4
666.896	1	5
667.065	1	5
667.235	1	10
667.404	1	0
667.574	1	14
667.743	1	2
667.913	1	4
668.082	1	7
668.251	1	-9
668.421	1	3
668.590	1	7
668.760	1	-6
668.929	1	4
669.099	1	-6
669.268	1	11
669.437	1	1
669.607	1	5
669.776	1	2
669.946	1	18
670.115	1	-2
670.285	1	5
670.454	1	4
670.623	1	4
670.793	1	-4
670.962	1	-1
671.132	1	-8
671.301	1	7
671.470	1	2
671.640	1	4
671.809	1	2
671.979	1	-6
672.148	1	11
672.317	1	1
672.487	1	0
672.656	1	6
672.826	1	1
672.995	1	0
673.164	1	11
673.334	1	5
673.503	1	-1
673.673	1	-4
673.842	1	5
674.011	1	4
674.181	1	2
674.350	1	4
674.520	1	7
674.689	1	1
674.858	1	7
675.028	1	11
675.197	1	5
675.367	1	7
675.536	1	-2
675.705	1	7
675.875	1	0
676.044	1	-2
676.214	1	12
676.383	1	1
676.552	1	3
676.722	1	8
676.891	1	9
677.060	1	12
677.230	1	-5
677.399	1	8
677.569	1	2
677.738	1	-2
677.907	1	3
678.077	1	-6
678.246	1	-2
678.416	1	8
678.585	1	15
678.754	1	3
678.924	1	-8
679.093	1	3
679.262	1	11
679.432	1	11
679.601	1	-11
679.771	1	9
679.940	1	8
680.109	1	-8
680.279	1	6
680.448	1	-1
680.617	1	5
680.787	1	-2
680.956	1	5
681.125	1	6
681.295	1	6
681.464	1	-1
681.634	1	5
681.803	1	0
681.972	1	8
682.142	1	-7
682.311	1	9
682.480	1	2
682.650	1	7
682.819	1	10
682.988	1	-5
683.158	1	3
683.327	1	7
683.496	1	-5
683.666	1	8
683.835	1	3
684.004	1	-2
684.174	1	-3
684.343	1	-5
684.512	1	2
684.682	1	9
684.851	1	4
685.021	1	8
685.190	1	0
685.359	1	-2
685.529	1	-3
685.698	1	3
685.867	1	-2
686.037	1	-2
686.206	1	4
686.375	1	11
686.545	1	15
686.714	1	10
686.883	1	14
687.053	1	-2
687.222	1	7
687.391	1	9
687.561	1	1
687.730	1	-8
687.899	1	10
688.069	1	3
688.238	1	6
688.407	1	4
688.577	1	18
688.746	1	-2
