340.368	1	5
340.539	1	4
340.710	1	15
340.881	1	-3
341.052	1	-5
341.223	1	3
341.394	1	-1
341.565	1	12
341.737	1	1
341.908	1	3
342.079	1	8
342.250	1	-3
342.421	1	6
342.592	1	10
342.763	1	7
342.934	1	8
343.105	1	9
343.276	1	1
343.447	1	4
343.618	1	-2
343.789	1	17
343.960	1	1
344.131	1	-7
344.302	1	-3
344.473	1	-6
344.644	1	-2
344.815	1	4
344.986	1	5
345.157	1	-3
345.328	1	13
345.499	1	10
345.670	1	4
345.841	1	-1
346.012	1	-1
346.183	1	3
346.354	1	4
346.526	1	5
346.697	1	9
346.868	1	3
347.039	1	2
347.210	1	-2
347.381	1	0
347.552	1	8
347.723	1	-4
347.894	1	-1
348.065	1	-2
348.236	1	12
348.407	1	-13
348.578	1	-1
348.749	1	4
348.920	1	3
349.091	1	2
349.262	1	7
349.433	1	1
349.604	1	3
349.775	1	13
349.946	1	4
350.117	1	12
350.288	1	-2
350.459	1	2
350.630	1	8
350.801	1	-9
350.972	1	2
351.143	1	0
351.314	1	2
351.485	1	-6
351.656	1	9
351.827	1	2
351.998	1	-2
352.169	1	0
352.340	1	11
352.511	1	-2
352.682	1	-3
352.853	1	1
353.024	1	7
353.195	1	-4
353.366	1	1
353.537	1	-2
353.708	1	14
353.879	1	6
354.050	1	7
354.221	1	-5
354.392	1	2
354.563	1	-4
354.734	1	15
354.905	1	8
355.076	1	9
355.247	1	11
355.418	1	0
355.589	1	10
355.760	1	5
355.931	1	14
356.102	1	3
356.273	1	6
356.444	1	4
356.615	1	5
356.785	1	-1
356.956	1	9
357.127	1	6
357.298	1	14
357.469	1	-1
357.640	1	6
357.811	1	6
357.982	1	6
358.153	1	11
358.324	1	9
358.495	1	17
358.666	1	-6
358.837	1	14
359.008	1	12
359.179	1	18
359.350	1	9
359.521	1	1
359.692	1	-6
359.863	1	4
360.034	1	10
360.205	1	12
360.376	1	9
360.547	1	8
360.718	1	8
360.889	1	9
361.060	1	10
361.231	1	13
361.401	1	14
361.572	1	8
361.743	1	9
361.914	1	1
362.085	1	14
362.256	1	12
362.427	1	11
362.598	1	13
362.769	1	12
362.940	1	15
363.111	1	19
363.282	1	17
363.453	1	16
363.624	1	25
363.795	1	6
363.966	1	9
364.137	1	18
364.308	1	25
364.478	1	17
364.649	1	8
364.820	1	13
364.991	1	22
365.162	1	15
365.333	1	15
365.504	1	27
365.675	1	16
365.846	1	27
366.017	1	38
366.188	1	26
366.359	1	29
366.530	1	20
366.701	1	20
366.871	1	20
367.042	1	19
367.213	1	41
367.384	1	35
367.555	1	16
367.726	1	43
367.897	1	37
368.068	1	35
368.239	1	19
368.410	1	41
368.581	1	31
368.752	1	42
368.923	1	44
369.093	1	32
369.264	1	35
369.435	1	38
369.606	1	41
369.777	1	39
369.948	1	39
370.119	1	38
370.290	1	36
370.461	1	33
370.632	1	38
370.803	1	33
370.973	1	27
371.144	1	31
371.315	1	38
371.486	1	28
371.657	1	32
371.828	1	26
371.999	1	31
372.170	1	27
372.341	1	26
372.512	1	29
372.682	1	19
372.853	1	14
373.024	1	17
373.195	1	33
373.366	1	9
373.537	1	21
373.708	1	21
373.879	1	15
374.050	1	25
374.220	1	23
374.391	1	19
374.562	1	24
374.733	1	22
374.904	1	14
375.075	1	15
375.246	1	9
375.417	1	16
375.588	1	11
375.758	1	7
375.929	1	14
376.100	1	16
376.271	1	7
376.442	1	10
376.613	1	10
376.784	1	7
376.955	1	9
377.125	1	12
377.296	1	20
377.467	1	20
377.638	1	25
377.809	1	13
377.980	1	10
378.151	1	12
378.321	1	15
378.492	1	2
378.663	1	19
378.834	1	16
379.005	1	20
379.176	1	12
379.347	1	13
379.518	1	6
379.688	1	3
379.859	1	13
380.030	1	16
380.201	1	8
380.372	1	19
380.543	1	6
380.714	1	19
380.884	1	14
381.055	1	-2
381.226	1	5
381.397	1	12
381.568	1	7
381.739	1	9
381.910	1	18
382.080	1	8
382.251	1	19
382.422	1	5
382.593	1	7
382.764	1	4
382.935	1	9
383.105	1	7
383.276	1	7
383.447	1	4
383.618	1	5
383.789	1	21
383.960	1	17
384.130	1	15
384.301	1	-2
384.472	1	0
384.643	1	11
384.814	1	10
384.985	1	15
385.156	1	16
385.326	1	14
385.497	1	7
385.668	1	17
385.839	1	9
386.010	1	18
386.180	1	12
386.351	1	12
386.522	1	23
386.693	1	9
386.864	1	4
387.035	1	18
387.205	1	15
387.376	1	1
387.547	1	17
387.718	1	11
387.889	1	13
388.060	1	5
388.230	1	13
388.401	1	13
388.572	1	10
388.743	1	19
388.914	1	7
389.084	1	8
389.255	1	3
389.426	1	11
389.597	1	-5
389.768	1	12
389.939	1	9
390.109	1	15
390.280	1	16
390.451	1	10
390.622	1	1
390.793	1	12
390.963	1	1
391.134	1	12
391.305	1	3
391.476	1	13
391.647	1	6
391.817	1	7
391.988	1	8
392.159	1	22
392.330	1	15
392.501	1	2
392.671	1	10
392.842	1	12
393.013	1	10
393.184	1	8
393.355	1	2
393.525	1	9
393.696	1	3
393.867	1	11
394.038	1	5
394.208	1	15
394.379	1	14
394.550	1	6
394.721	1	12
394.892	1	10
395.062	1	4
395.233	1	10
395.404	1	6
395.575	1	20
395.746	1	20
395.916	1	16
396.087	1	11
396.258	1	7
396.429	1	0
396.599	1	10
396.770	1	4
396.941	1	11
397.112	1	9
397.283	1	3
397.453	1	7
397.624	1	2
397.795	1	1
397.966	1	11
398.136	1	9
398.307	1	13
398.478	1	-3
398.649	1	14
398.819	1	0
398.990	1	-1
399.161	1	5
399.332	1	11
399.503	1	5
399.673	1	14
399.844	1	-2
400.015	1	4
400.186	1	12
400.356	1	17
400.527	1	0
400.698	1	2
400.869	1	4
401.039	1	4
401.210	1	0
401.381	1	6
401.552	1	5
401.722	1	7
401.893	1	2
402.064	1	-1
402.235	1	1
402.405	1	7
402.576	1	11
402.747	1	8
402.918	1	2
403.088	1	-6
403.259	1	8
403.430	1	14
403.601	1	1
403.771	1	4
403.942	1	9
404.113	1	2
404.284	1	17
404.454	1	10
404.625	1	13
404.796	1	-3
404.967	1	15
405.137	1	9
405.308	1	8
405.479	1	-5
405.649	1	9
405.820	1	-3
405.991	1	9
406.162	1	-1
406.332	1	2
406.503	1	5
406.674	1	12
406.845	1	3
407.015	1	5
407.186	1	15
407.357	1	5
407.527	1	3
407.698	1	9
407.869	1	9
408.040	1	-1
408.210	1	8
408.381	1	9
408.552	1	7
408.722	1	9
408.893	1	5
409.064	1	2
409.235	1	-1
409.405	1	11
409.576	1	7
409.747	1	13
409.917	1	1
410.088	1	7
410.259	1	3
410.430	1	5
410.600	1	9
410.771	1	17
410.942	1	2
411.112	1	9
411.283	1	-4
411.454	1	-5
411.625	1	7
411.795	1	2
411.966	1	5
412.137	1	4
412.307	1	10
412.478	1	-3
412.649	1	13
412.819	1	15
412.990	1	1
413.161	1	9
413.332	1	3
413.502	1	3
413.673	1	9
413.844	1	7
414.014	1	4
414.185	1	1
414.356	1	13
414.526	1	3
414.697	1	2
414.868	1	-2
415.038	1	1
415.209	1	6
415.380	1	-5
415.550	1	-1
415.721	1	5
415.892	1	11
416.063	1	6
416.233	1	2
416.404	1	-1
416.575	1	12
416.745	1	15
416.916	1	4
417.087	1	10
417.257	1	-12
417.428	1	6
417.599	1	5
417.769	1	12
417.940	1	0
418.111	1	18
418.281	1	14
418.452	1	4
418.623	1	10
418.793	1	2
418.964	1	-5
419.135	1	2
419.305	1	11
419.476	1	7
419.647	1	0
419.817	1	5
419.988	1	4
420.159	1	3
420.329	1	6
420.500	1	5
420.671	1	14
420.841	1	0
421.012	1	2
421.183	1	4
421.353	1	6
421.524	1	4
421.695	1	-7
421.865	1	-1
422.036	1	-5
422.206	1	11
422.377	1	1
422.548	1	-4
422.718	1	6
422.889	1	7
423.060	1	5
423.230	1	8
423.401	1	-1
423.572	1	-3
423.742	1	6
423.913	1	-3
424.084	1	1
424.254	1	13
424.425	1	0
424.595	1	6
424.766	1	17
424.937	1	-2
425.107	1	7
425.278	1	5
425.449	1	7
425.619	1	-2
425.790	1	2
425.961	1	-1
426.131	1	-2
426.302	1	3
426.472	1	6
426.643	1	0
426.814	1	-18
426.984	1	1
427.155	1	17
427.326	1	10
427.496	1	-11
427.667	1	13
427.837	1	13
428.008	1	12
428.179	1	2
428.349	1	0
428.520	1	2
428.691	1	2
428.861	1	-3
429.032	1	5
429.202	1	7
429.373	1	13
429.544	1	1
429.714	1	12
429.885	1	3
430.055	1	9
430.226	1	2
430.397	1	13
430.567	1	-4
430.738	1	9
430.909	1	2
431.079	1	6
431.250	1	-1
431.420	1	9
431.591	1	17
431.762	1	8
431.932	1	7
432.103	1	2
432.273	1	2
432.444	1	2
432.615	1	-5
432.785	1	-8
432.956	1	3
433.126	1	13
433.297	1	5
433.468	1	-2
433.638	1	3
433.809	1	2
433.979	1	1
434.150	1	13
434.320	1	-4
434.491	1	2
434.662	1	-3
434.832	1	2
435.003	1	6
435.173	1	13
435.344	1	2
435.515	1	0
435.685	1	0
435.856	1	-3
436.026	1	1
436.197	1	2
436.368	1	3
436.538	1	15
436.709	1	-3
436.879	1	-1
437.050	1	8
437.220	1	14
437.391	1	2
437.562	1	-1
437.732	1	-9
437.903	1	-6
438.073	1	10
438.244	1	5
438.414	1	0
438.585	1	8
438.756	1	-4
438.926	1	-3
439.097	1	4
439.267	1	4
439.438	1	-2
439.608	1	2
439.779	1	2
439.949	1	10
440.120	1	8
440.291	1	-5
440.461	1	-3
440.632	1	6
440.802	1	-8
440.973	1	2
441.143	1	-2
441.314	1	-2
441.485	1	-2
441.655	1	4
441.826	1	-2
441.996	1	10
442.167	1	-8
442.337	1	14
442.508	1	-6
442.678	1	-3
442.849	1	4
443.019	1	-1
443.190	1	1
443.361	1	0
443.531	1	9
443.702	1	-1
443.872	1	10
444.043	1	-6
444.213	1	4
444.384	1	5
444.554	1	-8
444.725	1	2
444.895	1	-3
445.066	1	0
445.237	1	-8
445.407	1	-3
445.578	1	0
445.748	1	-2
445.919	1	6
446.089	1	0
446.260	1	0
446.430	1	5
446.601	1	15
446.771	1	-1
446.942	1	1
447.112	1	18
447.283	1	1
447.453	1	6
447.624	1	5
447.794	1	2
447.965	1	-9
448.135	1	-2
448.306	1	7
448.477	1	10
448.647	1	12
448.818	1	6
448.988	1	11
449.159	1	1
449.329	1	-9
449.500	1	5
449.670	1	3
449.841	1	13
450.011	1	-7
450.182	1	3
450.352	1	-3
450.523	1	11
450.693	1	6
450.864	1	7
451.034	1	3
451.205	1	-2
451.375	1	-4
451.546	1	7
451.716	1	6
451.887	1	-6
452.057	1	0
452.228	1	16
452.398	1	-1
452.569	1	7
452.739	1	4
452.910	1	4
453.080	1	-9
453.251	1	-4
453.421	1	8
453.592	1	6
453.762	1	3
453.933	1	11
454.103	1	9
454.274	1	-10
454.444	1	2
454.615	1	6
454.785	1	2
454.956	1	-2
455.126	1	0
455.297	1	1
455.467	1	5
455.638	1	4
455.808	1	7
455.979	1	2
456.149	1	-7
456.320	1	1
456.490	1	6
456.661	1	-2
456.831	1	9
457.001	1	2
457.172	1	6
457.342	1	-4
457.513	1	-8
457.683	1	10
457.854	1	2
458.024	1	1
458.195	1	0
458.365	1	7
458.536	1	6
458.706	1	8
458.877	1	-2
459.047	1	18
459.218	1	-4
459.388	1	12
459.559	1	5
459.729	1	0
459.899	1	-6
460.070	1	-4
460.240	1	-5
460.411	1	1
460.581	1	4
460.752	1	2
460.922	1	-7
461.093	1	1
461.263	1	13
461.434	1	10
461.604	1	5
461.775	1	2
461.945	1	3
462.115	1	4
462.286	1	4
462.456	1	0
462.627	1	8
462.797	1	-5
462.968	1	-3
463.138	1	-2
463.309	1	7
463.479	1	4
463.649	1	8
463.820	1	-4
463.990	1	1
464.161	1	3
464.331	1	-5
464.502	1	-5
464.672	1	0
464.843	1	3
465.013	1	-5
465.183	1	8
465.354	1	6
465.524	1	3
465.695	1	-4
465.865	1	4
466.036	1	10
466.206	1	4
466.376	1	1
466.547	1	-3
466.717	1	6
466.888	1	-1
467.058	1	1
467.229	1	1
467.399	1	-4
467.569	1	-3
467.740	1	4
467.910	1	6
468.081	1	5
468.251	1	4
468.422	1	2
468.592	1	8
468.762	1	9
468.933	1	17
469.103	1	-2
469.274	1	0
469.444	1	0
469.614	1	-2
469.785	1	9
469.955	1	6
470.126	1	2
470.296	1	-3
470.467	1	-5
470.637	1	4
470.807	1	-4
470.978	1	2
471.148	1	5
471.319	1	9
471.489	1	5
471.659	1	-6
471.830	1	-5
472.000	1	5
472.171	1	12
472.341	1	9
472.511	1	3
472.682	1	2
472.852	1	-7
473.023	1	1
473.193	1	-3
473.363	1	7
473.534	1	5
473.704	1	-5
473.875	1	-2
474.045	1	5
474.215	1	4
474.386	1	11
474.556	1	7
474.727	1	6
474.897	1	-5
475.067	1	8
475.238	1	1
475.408	1	2
475.578	1	6
475.749	1	3
475.919	1	4
476.090	1	26
476.260	1	-4
476.430	1	1
476.601	1	0
476.771	1	4
476.942	1	0
477.112	1	-3
477.282	1	0
477.453	1	0
477.623	1	1
477.793	1	6
477.964	1	-6
478.134	1	3
478.305	1	5
478.475	1	-1
478.645	1	1
478.816	1	-9
478.986	1	3
479.156	1	6
479.327	1	6
479.497	1	-1
479.667	1	5
479.838	1	-7
480.008	1	7
480.179	1	2
480.349	1	-5
480.519	1	-10
480.690	1	-2
480.860	1	0
481.030	1	6
481.201	1	1
481.371	1	7
481.541	1	-13
481.712	1	3
481.882	1	-2
482.053	1	15
482.223	1	3
482.393	1	3
482.564	1	0
482.734	1	6
482.904	1	15
483.075	1	-1
483.245	1	5
483.415	1	-4
483.586	1	12
483.756	1	-1
483.926	1	9
484.097	1	-1
484.267	1	6
484.437	1	4
484.608	1	10
484.778	1	9
484.948	1	-3
485.119	1	-11
485.289	1	7
485.459	1	15
485.630	1	7
485.800	1	-1
485.970	1	8
486.141	1	9
486.311	1	4
486.481	1	3
486.652	1	4
486.822	1	-5
486.992	1	1
487.163	1	18
487.333	1	-7
487.503	1	12
487.674	1	5
487.844	1	5
488.014	1	4
488.185	1	-1
488.355	1	7
488.525	1	14
488.696	1	9
488.866	1	8
489.036	1	2
489.207	1	-7
489.377	1	-4
489.547	1	1
489.718	1	6
489.888	1	12
490.058	1	-9
490.228	1	3
490.399	1	2
490.569	1	14
490.739	1	16
490.910	1	2
491.080	1	-3
491.250	1	-4
491.421	1	6
491.591	1	-2
491.761	1	6
491.932	1	14
492.102	1	14
492.272	1	10
492.442	1	7
492.613	1	14
492.783	1	3
492.953	1	2
493.124	1	0
493.294	1	3
493.464	1	17
493.635	1	-1
493.805	1	3
493.975	1	0
494.145	1	-8
494.316	1	4
494.486	1	3
494.656	1	2
494.827	1	4
494.997	1	12
495.167	1	7
495.337	1	21
495.508	1	15
495.678	1	9
495.848	1	8
496.019	1	4
496.189	1	7
496.359	1	9
496.529	1	3
496.700	1	8
496.870	1	11
497.040	1	16
497.211	1	16
497.381	1	3
497.551	1	-1
497.721	1	7
497.892	1	13
498.062	1	-5
498.232	1	14
498.403	1	5
498.573	1	11
498.743	1	12
498.913	1	3
499.084	1	10
499.254	1	1
499.424	1	8
499.594	1	7
499.765	1	16
499.935	1	9
500.105	1	23
500.275	1	20
500.446	1	10
500.616	1	4
500.786	1	8
500.956	1	5
501.127	1	14
501.297	1	1
501.467	1	-5
501.638	1	23
501.808	1	1
501.978	1	8
502.148	1	6
502.319	1	5
502.489	1	15
502.659	1	15
502.829	1	13
503.000	1	-3
503.170	1	15
503.340	1	7
503.510	1	15
503.681	1	6
503.851	1	10
504.021	1	13
504.191	1	6
504.362	1	2
504.532	1	8
504.702	1	7
504.872	1	16
505.042	1	5
505.213	1	-3
505.383	1	17
505.553	1	2
505.723	1	13
505.894	1	2
506.064	1	1
506.234	1	24
506.404	1	10
506.575	1	5
506.745	1	17
506.915	1	19
507.085	1	12
507.256	1	7
507.426	1	4
507.596	1	15
507.766	1	9
507.936	1	13
508.107	1	13
508.277	1	16
508.447	1	16
508.617	1	8
508.788	1	8
508.958	1	1
509.128	1	7
509.298	1	8
509.468	1	15
509.639	1	11
509.809	1	10
509.979	1	20
510.149	1	4
510.319	1	19
510.490	1	21
510.660	1	10
510.830	1	7
511.000	1	5
511.171	1	8
511.341	1	17
511.511	1	6
511.681	1	9
511.851	1	20
512.022	1	8
512.192	1	4
512.362	1	17
512.532	1	12
512.702	1	-2
512.873	1	15
513.043	1	14
513.213	1	21
513.383	1	14
513.553	1	19
513.724	1	16
513.894	1	17
514.064	1	9
514.234	1	3
514.404	1	8
514.575	1	8
514.745	1	6
514.915	1	4
515.085	1	22
515.255	1	12
515.425	1	20
515.596	1	13
515.766	1	22
515.936	1	8
516.106	1	18
516.276	1	18
516.447	1	21
516.617	1	14
516.787	1	10
516.957	1	15
517.127	1	21
517.297	1	13
517.468	1	12
517.638	1	13
517.808	1	14
517.978	1	13
518.148	1	20
518.319	1	28
518.489	1	7
518.659	1	16
518.829	1	15
518.999	1	5
519.169	1	16
519.340	1	14
519.510	1	5
519.680	1	21
519.850	1	15
520.020	1	12
520.190	1	14
520.361	1	16
520.531	1	29
520.701	1	11
520.871	1	13
521.041	1	25
521.211	1	2
521.382	1	15
521.552	1	15
521.722	1	22
521.892	1	7
522.062	1	23
522.232	1	18
522.402	1	9
522.573	1	15
522.743	1	14
522.913	1	25
523.083	1	11
523.253	1	10
523.423	1	16
523.593	1	18
523.764	1	13
523.934	1	4
524.104	1	18
524.274	1	7
524.444	1	13
524.614	1	12
524.784	1	8
524.955	1	19
525.125	1	19
525.295	1	6
525.465	1	17
525.635	1	13
525.805	1	17
525.975	1	11
526.146	1	14
526.316	1	16
526.486	1	18
526.656	1	14
526.826	1	22
526.996	1	13
527.166	1	23
527.337	1	12
527.507	1	16
527.677	1	14
527.847	1	13
528.017	1	2
528.187	1	7
528.357	1	9
528.527	1	12
528.698	1	15
528.868	1	10
529.038	1	22
529.208	1	13
529.378	1	12
529.548	1	27
529.718	1	1
529.888	1	12
530.058	1	14
530.229	1	27
530.399	1	24
530.569	1	13
530.739	1	11
530.909	1	13
531.079	1	29
531.249	1	14
531.419	1	13
531.589	1	13
531.760	1	8
531.930	1	23
532.100	1	9
532.270	1	18
532.440	1	6
532.610	1	11
532.780	1	7
532.950	1	14
533.120	1	27
533.290	1	4
533.461	1	22
533.631	1	16
533.801	1	14
533.971	1	28
534.141	1	18
534.311	1	27
534.481	1	18
534.651	1	7
534.821	1	26
534.991	1	15
535.162	1	14
535.332	1	6
535.502	1	19
535.672	1	19
535.842	1	14
536.012	1	5
536.182	1	19
536.352	1	12
536.522	1	13
536.692	1	26
536.862	1	8
537.032	1	20
537.203	1	28
537.373	1	5
537.543	1	9
537.713	1	10
537.883	1	25
538.053	1	0
538.223	1	24
538.393	1	9
538.563	1	13
538.733	1	9
538.903	1	13
539.073	1	12
539.243	1	24
539.413	1	10
539.584	1	20
539.754	1	4
539.924	1	23
540.094	1	10
540.264	1	20
540.434	1	23
540.604	1	12
540.774	1	5
540.944	1	11
541.114	1	10
541.284	1	15
541.454	1	24
541.624	1	7
541.794	1	3
541.964	1	13
542.134	1	14
542.305	1	31
542.475	1	20
542.645	1	15
542.815	1	9
542.985	1	19
543.155	1	15
543.325	1	7
543.495	1	15
543.665	1	9
543.835	1	23
544.005	1	11
544.175	1	9
544.345	1	5
544.515	1	15
544.685	1	12
544.855	1	12
545.025	1	5
545.195	1	8
545.365	1	3
545.535	1	16
545.705	1	10
545.875	1	15
546.045	1	18
546.216	1	13
546.386	1	16
546.556	1	15
546.726	1	3
546.896	1	6
547.066	1	6
547.236	1	13
547.406	1	9
547.576	1	13
547.746	1	-1
547.916	1	11
548.086	1	14
548.256	1	21
548.426	1	17
548.596	1	8
548.766	1	18
548.936	1	15
549.106	1	21
549.276	1	13
549.446	1	26
549.616	1	15
549.786	1	19
549.956	1	16
550.126	1	16
550.296	1	9
550.466	1	10
550.636	1	16
550.806	1	4
550.976	1	-2
551.146	1	7
551.316	1	20
551.486	1	20
551.656	1	22
551.826	1	14
551.996	1	10
552.166	1	11
552.336	1	8
552.506	1	5
552.676	1	23
552.846	1	8
553.016	1	5
553.186	1	17
553.356	1	12
553.526	1	12
553.696	1	8
553.866	1	15
554.036	1	8
554.206	1	11
554.376	1	7
554.546	1	13
554.716	1	14
554.886	1	24
555.056	1	14
555.226	1	12
555.396	1	11
555.566	1	12
555.736	1	4
555.906	1	19
556.076	1	21
556.246	1	10
556.416	1	10
556.586	1	20
556.756	1	28
556.926	1	19
557.096	1	18
557.266	1	14
557.436	1	12
557.606	1	8
557.776	1	18
557.946	1	16
558.116	1	10
558.286	1	14
558.456	1	20
558.626	1	13
558.796	1	5
558.966	1	9
559.136	1	19
559.306	1	11
559.476	1	21
559.646	1	7
559.816	1	14
559.986	1	7
560.155	1	23
560.325	1	19
560.495	1	10
560.665	1	29
560.835	1	7
561.005	1	20
561.175	1	9
561.345	1	13
561.515	1	13
561.685	1	4
561.855	1	8
562.025	1	9
562.195	1	-1
562.365	1	10
562.535	1	-2
562.705	1	17
562.875	1	11
563.045	1	10
563.215	1	13
563.385	1	6
563.555	1	9
563.725	1	-1
563.895	1	16
564.064	1	8
564.234	1	6
564.404	1	5
564.574	1	10
564.744	1	10
564.914	1	14
565.084	1	17
565.254	1	14
565.424	1	7
565.594	1	18
565.764	1	5
565.934	1	11
566.104	1	9
566.274	1	3
566.444	1	21
566.614	1	7
566.783	1	5
566.953	1	11
567.123	1	10
567.293	1	8
567.463	1	1
567.633	1	15
567.803	1	9
567.973	1	8
568.143	1	3
568.313	1	-4
568.483	1	9
568.653	1	16
568.823	1	15
568.993	1	14
569.162	1	7
569.332	1	0
569.502	1	4
569.672	1	7
569.842	1	12
570.012	1	15
570.182	1	2
570.352	1	6
570.522	1	6
570.692	1	9
570.862	1	6
571.031	1	6
571.201	1	0
571.371	1	5
571.541	1	15
571.711	1	14
571.881	1	4
572.051	1	8
572.221	1	13
572.391	1	16
572.561	1	7
572.731	1	12
572.900	1	13
573.070	1	14
573.240	1	10
573.410	1	10
573.580	1	6
573.750	1	9
573.920	1	9
574.090	1	7
574.260	1	9
574.430	1	5
574.599	1	11
574.769	1	6
574.939	1	5
575.109	1	-5
575.279	1	2
575.449	1	12
575.619	1	1
575.789	1	2
575.959	1	7
576.128	1	13
576.298	1	11
576.468	1	9
576.638	1	13
576.808	1	14
576.978	1	-4
577.148	1	12
577.318	1	5
577.487	1	2
577.657	1	2
577.827	1	14
577.997	1	0
578.167	1	8
578.337	1	9
578.507	1	3
578.677	1	-8
578.846	1	1
579.016	1	10
579.186	1	12
579.356	1	7
579.526	1	13
579.696	1	20
579.866	1	12
580.036	1	0
580.205	1	15
580.375	1	8
580.545	1	7
580.715	1	12
580.885	1	14
581.055	1	10
581.225	1	3
581.394	1	13
581.564	1	14
581.734	1	-1
581.904	1	4
582.074	1	6
582.244	1	10
582.414	1	-5
582.583	1	-3
582.753	1	-1
582.923	1	11
583.093	1	12
583.263	1	12
583.433	1	8
583.603	1	12
583.772	1	4
583.942	1	-1
584.112	1	-1
584.282	1	5
584.452	1	11
584.622	1	5
584.791	1	-1
584.961	1	7
585.131	1	8
585.301	1	6
585.471	1	-4
585.641	1	9
585.811	1	7
585.980	1	7
586.150	1	3
586.320	1	13
586.490	1	3
586.660	1	1
586.830	1	13
586.999	1	-1
587.169	1	7
587.339	1	6
587.509	1	11
587.679	1	14
587.849	1	11
588.018	1	3
588.188	1	-6
588.358	1	6
588.528	1	13
588.698	1	4
588.867	1	22
589.037	1	9
589.207	1	-7
589.377	1	-1
589.547	1	16
589.717	1	3
589.886	1	11
590.056	1	4
590.226	1	14
590.396	1	4
590.566	1	-4
590.735	1	-2
590.905	1	5
591.075	1	10
591.245	1	7
591.415	1	0
591.585	1	9
591.754	1	9
591.924	1	7
592.094	1	3
592.264	1	12
592.434	1	-2
592.603	1	-11
592.773	1	5
592.943	1	10
593.113	1	17
593.283	1	13
593.452	1	6
593.622	1	3
593.792	1	7
593.962	1	7
594.132	1	8
594.301	1	-2
594.471	1	10
594.641	1	-8
594.811	1	18
594.981	1	5
595.150	1	6
595.320	1	10
595.490	1	6
595.660	1	-7
595.829	1	5
595.999	1	13
596.169	1	0
596.339	1	6
596.509	1	4
596.678	1	6
596.848	1	17
597.018	1	10
597.188	1	3
597.358	1	6
597.527	1	0
597.697	1	-3
597.867	1	14
598.037	1	3
598.206	1	3
598.376	1	-1
598.546	1	7
598.716	1	3
598.885	1	8
599.055	1	-4
599.225	1	3
599.395	1	3
599.565	1	-6
599.734	1	2
599.904	1	-2
600.074	1	13
600.244	1	10
600.413	1	21
600.583	1	7
600.753	1	-1
600.923	1	12
601.092	1	-3
601.262	1	11
601.432	1	13
601.602	1	3
601.771	1	3
601.941	1	9
602.111	1	11
602.281	1	-3
602.451	1	-6
602.620	1	6
602.790	1	4
602.960	1	-3
603.130	1	4
603.299	1	7
603.469	1	2
603.639	1	-2
603.809	1	7
603.978	1	6
604.148	1	-2
604.318	1	6
604.487	1	5
604.657	1	3
604.827	1	3
604.997	1	3
605.166	1	-2
605.336	1	16
605.506	1	-1
605.676	1	26
605.845	1	2
606.015	1	11
606.185	1	1
606.355	1	7
606.524	1	6
606.694	1	3
606.864	1	2
607.034	1	2
607.203	1	4
607.373	1	16
607.543	1	4
607.712	1	9
607.882	1	-4
608.052	1	13
608.222	1	0
608.391	1	1
608.561	1	7
608.731	1	-5
608.901	1	6
609.070	1	0
609.240	1	6
609.410	1	9
609.579	1	2
609.749	1	2
609.919	1	4
610.089	1	-2
610.258	1	11
610.428	1	10
610.598	1	3
610.767	1	0
610.937	1	1
611.107	1	3
611.277	1	15
611.446	1	1
611.616	1	9
611.786	1	2
611.955	1	-3
612.125	1	0
612.295	1	5
612.465	1	12
612.634	1	7
612.804	1	3
612.974	1	-2
613.143	1	8
613.313	1	6
613.483	1	-8
613.652	1	0
613.822	1	6
613.992	1	3
614.162	1	3
614.331	1	4
614.501	1	-4
614.671	1	-6
614.840	1	6
615.010	1	0
615.180	1	4
615.349	1	0
615.519	1	4
615.689	1	2
615.858	1	4
616.028	1	8
616.198	1	-2
616.368	1	9
616.537	1	2
616.707	1	6
616.877	1	7
617.046	1	7
617.216	1	5
617.386	1	8
617.555	1	10
617.725	1	5
617.895	1	16
618.064	1	4
618.234	1	-2
618.404	1	0
618.573	1	0
618.743	1	11
618.913	1	13
619.082	1	4
619.252	1	4
619.422	1	9
619.591	1	7
619.761	1	0
619.931	1	9
620.100	1	2
620.270	1	5
620.440	1	1
620.609	1	7
620.779	1	0
620.949	1	7
621.118	1	2
621.288	1	7
621.458	1	12
621.627	1	0
621.797	1	12
621.967	1	3
622.136	1	4
622.306	1	-3
622.476	1	10
622.645	1	15
622.815	1	-3
622.985	1	5
623.154	1	-3
623.324	1	2
623.494	1	11
623.663	1	-8
623.833	1	0
624.002	1	9
624.172	1	-5
624.342	1	9
624.511	1	14
624.681	1	-3
624.851	1	-6
625.020	1	6
625.190	1	7
625.360	1	11
625.529	1	1
625.699	1	11
625.869	1	9
626.038	1	1
626.208	1	5
626.377	1	-1
626.547	1	-8
626.717	1	6
626.886	1	8
627.056	1	11
627.226	1	-6
627.395	1	5
627.565	1	-5
627.735	1	11
627.904	1	-6
628.074	1	4
628.243	1	-2
628.413	1	13
628.583	1	4
628.752	1	8
628.922	1	15
629.091	1	6
629.261	1	1
629.431	1	7
629.600	1	-6
629.770	1	9
629.940	1	-1
630.109	1	8
630.279	1	-10
630.448	1	7
630.618	1	0
630.788	1	0
630.957	1	1
631.127	1	4
631.297	1	-7
631.466	1	-4
631.636	1	-3
631.805	1	-5
631.975	1	1
632.145	1	-3
632.314	1	10
632.484	1	-5
632.653	1	2
632.823	1	-4
632.993	1	6
633.162	1	12
633.332	1	9
633.501	1	-4
633.671	1	11
633.841	1	11
634.010	1	3
634.180	1	7
634.349	1	4
634.519	1	0
634.689	1	2
634.858	1	-6
635.028	1	-1
635.197	1	13
635.367	1	15
635.537	1	7
635.706	1	8
635.876	1	12
636.045	1	0
636.215	1	0
636.384	1	5
636.554	1	-4
636.724	1	0
636.893	1	-1
637.063	1	10
637.232	1	2
637.402	1	6
637.572	1	6
637.741	1	11
637.911	1	9
638.080	1	10
638.250	1	11
638.419	1	-2
638.589	1	-8
638.759	1	-6
638.928	1	8
639.098	1	1
639.267	1	10
639.437	1	0
639.606	1	13
639.776	1	8
639.946	1	-5
640.115	1	3
640.285	1	9
640.454	1	0
640.624	1	5
640.793	1	-2
640.963	1	5
641.132	1	5
641.302	1	20
641.472	1	7
641.641	1	13
641.811	1	7
641.980	1	6
642.150	1	-1
642.319	1	-2
642.489	1	-4
642.659	1	5
642.828	1	2
642.998	1	1
643.167	1	1
643.337	1	5
643.506	1	-14
643.676	1	0
643.845	1	-1
644.015	1	0
644.184	1	-1
644.354	1	4
644.524	1	3
644.693	1	-5
644.863	1	7
645.032	1	12
645.202	1	2
645.371	1	-1
645.541	1	-1
645.710	1	10
645.880	1	-4
646.049	1	7
646.219	1	7
646.388	1	13
646.558	1	0
646.728	1	12
646.897	1	-5
647.067	1	2
647.236	1	1
647.406	1	1
647.575	1	14
647.745	1	4
647.914	1	2
648.084	1	2
648.253	1	0
648.423	1	1
648.592	1	-1
648.762	1	0
648.931	1	-11
649.101	1	5
649.270	1	-1
649.440	1	4
649.610	1	4
649.779	1	12
649.949	1	2
650.118	1	2
650.288	1	6
650.457	1	-6
650.627	1	8
650.796	1	5
650.966	1	10
651.135	1	-4
651.305	1	7
651.474	1	13
651.644	1	9
651.813	1	4
651.983	1	18
652.152	1	3
652.322	1	-3
652.491	1	12
652.661	1	5
652.830	1	8
653.000	1	5
653.169	1	3
653.339	1	9
653.508	1	9
653.678	1	3
653.847	1	-11
654.017	1	7
654.186	1	7
654.356	1	1
654.525	1	-11
654.695	1	5
654.864	1	3
655.034	1	16
655.203	1	-2
655.373	1	0
655.542	1	4
655.712	1	2
655.881	1	8
656.051	1	-9
656.220	1	11
656.390	1	10
656.559	1	4
656.729	1	-5
656.898	1	-3
657.068	1	15
657.237	1	9
657.406	1	-5
657.576	1	9
657.745	1	1
657.915	1	-6
658.084	1	7
658.254	1	5
658.423	1	20
658.593	1	-8
658.762	1	-4
658.932	1	-4
659.101	1	12
659.271	1	4
659.440	1	12
659.610	1	0
659.779	1	1
659.949	1	-3
660.118	1	5
660.288	1	8
660.457	1	7
660.626	1	0
660.796	1	2
660.965	1	-2
661.135	1	-9
661.304	1	7
661.474	1	12
661.643	1	15
661.813	1	2
661.982	1	13
662.152	1	10
662.321	1	13
662.491	1	3
662.660	1	3
662.829	1	-2
662.999	1	3
663.168	1	3
663.338	1	-2
663.507	1	11
663.677	1	8
663.846	1	20
664.016	1	-3
664.185	1	0
664.354	1	-3
664.524	1	4
664.693	1	-2
664.863	1	5
665.032	1	11
665.202	1	9
665.371	1	0
665.541	1	-5
665.710	1	-2
665.879	1	-7
666.049	1	-6
666.218	1	5
666.388	1	9
666.557	1	6
666.727	1	12
666.896	1	9
667.065	1	8
667.235	1	4
667.404	1	0
667.574	1	14
667.743	1	1
667.913	1	10
668.082	1	9
668.251	1	3
668.421	1	9
668.590	1	8
668.760	1	-8
668.929	1	8
669.099	1	-3
669.268	1	10
669.437	1	6
669.607	1	1
669.776	1	0
669.946	1	14
670.115	1	2
670.285	1	2
670.454	1	6
670.623	1	11
670.793	1	-6
670.962	1	-1
671.132	1	-7
671.301	1	14
671.470	1	1
671.640	1	4
671.809	1	5
671.979	1	-1
672.148	1	-2
672.317	1	5
672.487	1	4
672.656	1	7
672.826	1	0
672.995	1	6
673.164	1	5
673.334	1	11
673.503	1	-6
673.673	1	4
673.842	1	-2
674.011	1	8
674.181	1	6
674.350	1	-4
674.520	1	4
674.689	1	-1
674.858	1	14
675.028	1	4
675.197	1	6
675.367	1	-5
675.536	1	1
675.705	1	7
675.875	1	-3
676.044	1	4
676.214	1	8
676.383	1	-4
676.552	1	-3
676.722	1	-1
676.891	1	13
677.060	1	3
677.230	1	-4
677.399	1	4
677.569	1	9
677.738	1	11
677.907	1	-7
678.077	1	-4
678.246	1	-4
678.416	1	4
678.585	1	6
678.754	1	2
678.924	1	-9
679.093	1	7
679.262	1	7
679.432	1	5
679.601	1	-9
679.771	1	13
679.940	1	8
680.109	1	6
680.279	1	10
680.448	1	-3
680.617	1	7
680.787	1	10
680.956	1	-2
681.125	1	-2
681.295	1	1
681.464	1	-4
681.634	1	9
681.803	1	8
681.972	1	8
682.142	1	1
682.311	1	4
682.480	1	6
682.650	1	7
682.819	1	-4
682.988	1	-3
683.158	1	-4
683.327	1	14
683.496	1	7
683.666	1	5
683.835	1	1
684.004	1	-2
684.174	1	-5
684.343	1	-2
684.512	1	7
684.682	1	1
684.851	1	3
685.021	1	7
685.190	1	2
685.359	1	10
685.529	1	2
685.698	1	3
685.867	1	7
686.037	1	-2
686.206	1	6
686.375	1	4
686.545	1	5
686.714	1	9
686.883	1	7
687.053	1	-2
687.222	1	2
687.391	1	8
687.561	1	-10
687.730	1	2
687.899	1	10
688.069	1	2
688.238	1	0
688.407	1	6
688.577	1	12
688.746	1	7
