340.368	1	6
340.539	1	5
340.710	1	0
340.881	1	-2
341.052	1	12
341.223	1	-5
341.394	1	3
341.565	1	16
341.737	1	3
341.908	1	-1
342.079	1	3
342.250	1	5
342.421	1	6
342.592	1	5
342.763	1	1
342.934	1	1
343.105	1	4
343.276	1	-2
343.447	1	3
343.618	1	-7
343.789	1	11
343.960	1	14
344.131	1	5
344.302	1	-2
344.473	1	-4
344.644	1	-4
344.815	1	16
344.986	1	4
345.157	1	-4
345.328	1	15
345.499	1	10
345.670	1	0
345.841	1	4
346.012	1	-1
346.183	1	1
346.354	1	15
346.526	1	1
346.697	1	16
346.868	1	6
347.039	1	13
347.210	1	7
347.381	1	7
347.552	1	7
347.723	1	-2
347.894	1	3
348.065	1	-10
348.236	1	12
348.407	1	-7
348.578	1	5
348.749	1	10
348.920	1	2
349.091	1	2
349.262	1	3
349.433	1	1
349.604	1	-2
349.775	1	15
349.946	1	3
350.117	1	9
350.288	1	2
350.459	1	10
350.630	1	6
350.801	1	4
350.972	1	-5
351.143	1	0
351.314	1	7
351.485	1	-7
351.656	1	-2
351.827	1	-6
351.998	1	13
352.169	1	6
352.340	1	5
352.511	1	4
352.682	1	3
352.853	1	3
353.024	1	3
353.195	1	-2
353.366	1	-3
353.537	1	1
353.708	1	10
353.879	1	18
354.050	1	10
354.221	1	8
354.392	1	5
354.563	1	1
354.734	1	9
354.905	1	12
355.076	1	3
355.247	1	7
355.418	1	-2
355.589	1	7
355.760	1	8
355.931	1	11
356.102	1	-4
356.273	1	3
356.444	1	9
356.615	1	7
356.785	1	1
356.956	1	0
357.127	1	7
357.298	1	9
357.469	1	4
357.640	1	2
357.811	1	8
357.982	1	2
358.153	1	16
358.324	1	14
358.495	1	7
358.666	1	-1
358.837	1	15
359.008	1	7
359.179	1	23
359.350	1	7
359.521	1	10
359.692	1	-7
359.863	1	12
360.034	1	5
360.205	1	3
360.376	1	21
360.547	1	13
360.718	1	9
360.889	1	5
361.060	1	17
361.231	1	10
361.401	1	11
361.572	1	22
361.743	1	12
361.914	1	18
362.085	1	18
362.256	1	16
362.427	1	22
362.598	1	19
362.769	1	17
362.940	1	19
363.111	1	24
363.282	1	19
363.453	1	20
363.624	1	21
363.795	1	16
363.966	1	29
364.137	1	31
364.308	1	38
364.478	1	23
364.649	1	24
364.820	1	37
364.991	1	36
365.162	1	30
365.333	1	27
365.504	1	32
365.675	1	34
365.846	1	38
366.017	1	37
366.188	1	44
366.359	1	41
366.530	1	50
366.701	1	43
366.871	1	42
367.042	1	38
367.213	1	52
367.384	1	53
367.555	1	39
367.726	1	51
367.897	1	43
368.068	1	49
368.239	1	42
368.410	1	60
368.581	1	47
368.752	1	47
368.923	1	53
369.093	1	47
369.264	1	53
369.435	1	48
369.606	1	43
369.777	1	57
369.948	1	49
370.119	1	40
370.290	1	46
370.461	1	52
370.632	1	38
370.803	1	42
370.973	1	45
371.144	1	37
371.315	1	37
371.486	1	39
371.657	1	39
371.828	1	33
371.999	1	33
372.170	1	41
372.341	1	40
372.512	1	43
372.682	1	27
372.853	1	39
373.024	1	32
373.195	1	41
373.366	1	33
373.537	1	31
373.708	1	22
373.879	1	35
374.050	1	34
374.220	1	17
374.391	1	27
374.562	1	34
374.733	1	28
374.904	1	10
375.075	1	35
375.246	1	30
375.417	1	24
375.588	1	27
375.758	1	21
375.929	1	19
376.100	1	28
376.271	1	22
376.442	1	26
376.613	1	24
376.784	1	26
376.955	1	21
377.125	1	25
377.296	1	26
377.467	1	9
377.638	1	31
377.809	1	9
377.980	1	23
378.151	1	24
378.321	1	19
378.492	1	15
378.663	1	20
378.834	1	10
379.005	1	33
379.176	1	25
379.347	1	14
379.518	1	18
379.688	1	10
379.859	1	6
380.030	1	11
380.201	1	18
380.372	1	17
380.543	1	18
380.714	1	17
380.884	1	17
381.055	1	10
381.226	1	11
381.397	1	18
381.568	1	28
381.739	1	12
381.910	1	13
382.080	1	7
382.251	1	20
382.422	1	5
382.593	1	21
382.764	1	15
382.935	1	13
383.105	1	18
383.276	1	13
383.447	1	10
383.618	1	8
383.789	1	16
383.960	1	20
384.130	1	24
384.301	1	11
384.472	1	5
384.643	1	9
384.814	1	25
384.985	1	25
385.156	1	25
385.326	1	10
385.497	1	5
385.668	1	21
385.839	1	6
386.010	1	16
386.180	1	23
386.351	1	11
386.522	1	27
386.693	1	11
386.864	1	15
387.035	1	17
387.205	1	27
387.376	1	4
387.547	1	14
387.718	1	10
387.889	1	10
388.060	1	12
388.230	1	19
388.401	1	17
388.572	1	16
388.743	1	19
388.914	1	21
389.084	1	16
389.255	1	16
389.426	1	14
389.597	1	10
389.768	1	14
389.939	1	13
390.109	1	15
390.280	1	5
390.451	1	19
390.622	1	16
390.793	1	9
390.963	1	13
391.134	1	13
391.305	1	14
391.476	1	7
391.647	1	6
391.817	1	8
391.988	1	11
392.159	1	26
392.330	1	13
392.501	1	6
392.671	1	8
392.842	1	15
393.013	1	16
393.184	1	14
393.355	1	0
393.525	1	24
393.696	1	4
393.867	1	17
394.038	1	8
394.208	1	14
394.379	1	14
394.550	1	3
394.721	1	10
394.892	1	8
395.062	1	17
395.233	1	14
395.404	1	14
395.575	1	16
395.746	1	21
395.916	1	19
396.087	1	2
396.258	1	15
396.429	1	-6
396.599	1	8
396.770	1	21
396.941	1	8
397.112	1	14
397.283	1	14
397.453	1	1
397.624	1	8
397.795	1	3
397.966	1	12
398.136	1	4
398.307	1	10
398.478	1	11
398.649	1	16
398.819	1	22
398.990	1	-2
399.161	1	12
399.332	1	6
399.503	1	16
399.673	1	15
399.844	1	13
400.015	1	14
400.186	1	10
400.356	1	16
400.527	1	3
400.698	1	8
400.869	1	19
401.039	1	11
401.210	1	-5
401.381	1	8
401.552	1	16
401.722	1	11
401.893	1	14
402.064	1	1
402.235	1	9
402.405	1	5
402.576	1	13
402.747	1	15
402.918	1	6
403.088	1	-8
403.259	1	7
403.430	1	14
403.601	1	2
403.771	1	7
403.942	1	10
404.113	1	11
404.284	1	19
404.454	1	0
404.625	1	15
404.796	1	-1
404.967	1	23
405.137	1	10
405.308	1	14
405.479	1	-7
405.649	1	7
405.820	1	-5
405.991	1	2
406.162	1	-8
406.332	1	7
406.503	1	3
406.674	1	16
406.845	1	14
407.015	1	4
407.186	1	15
407.357	1	8
407.527	1	2
407.698	1	19
407.869	1	3
408.040	1	5
408.210	1	14
408.381	1	14
408.552	1	22
408.722	1	11
408.893	1	11
409.064	1	0
409.235	1	8
409.405	1	12
409.576	1	8
409.747	1	7
409.917	1	16
410.088	1	12
410.259	1	7
410.430	1	10
410.600	1	5
410.771	1	13
410.942	1	18
411.112	1	7
411.283	1	-6
411.454	1	5
411.625	1	5
411.795	1	3
411.966	1	9
412.137	1	7
412.307	1	9
412.478	1	9
412.649	1	7
412.819	1	10
412.990	1	8
413.161	1	1
413.332	1	9
413.502	1	6
413.673	1	8
413.844	1	3
414.014	1	11
414.185	1	5
414.356	1	16
414.526	1	0
414.697	1	-3
414.868	1	-5
415.038	1	4
415.209	1	2
415.380	1	0
415.550	1	1
415.721	1	10
415.892	1	6
416.063	1	20
416.233	1	-2
416.404	1	-1
416.575	1	11
416.745	1	9
416.916	1	8
417.087	1	12
417.257	1	1
417.428	1	8
417.599	1	-5
417.769	1	4
417.940	1	9
418.111	1	5
418.281	1	5
418.452	1	14
418.623	1	4
418.793	1	14
418.964	1	-1
419.135	1	15
419.305	1	11
419.476	1	8
419.647	1	11
419.817	1	10
419.988	1	8
420.159	1	0
420.329	1	8
420.500	1	1
420.671	1	6
420.841	1	7
421.012	1	7
421.183	1	5
421.353	1	9
421.524	1	9
421.695	1	-1
421.865	1	0
422.036	1	-7
422.206	1	11
422.377	1	1
422.548	1	-5
422.718	1	19
422.889	1	4
423.060	1	6
423.230	1	-2
423.401	1	1
423.572	1	-8
423.742	1	8
423.913	1	0
424.084	1	5
424.254	1	-1
424.425	1	-1
424.595	1	5
424.766	1	9
424.937	1	-3
425.107	1	3
425.278	1	6
425.449	1	10
425.619	1	9
425.790	1	4
425.961	1	-4
426.131	1	2
426.302	1	-4
426.472	1	8
426.643	1	-7
426.814	1	-5
426.984	1	7
427.155	1	17
427.326	1	1
427.496	1	-7
427.667	1	18
427.837	1	9
428.008	1	9
428.179	1	-3
428.349	1	4
428.520	1	4
428.691	1	13
428.861	1	-7
429.032	1	-1
429.202	1	0
429.373	1	7
429.544	1	3
429.714	1	3
429.885	1	8
430.055	1	13
430.226	1	3
430.397	1	0
430.567	1	7
430.738	1	10
430.909	1	4
431.079	1	-12
431.250	1	12
431.420	1	7
431.591	1	12
431.762	1	8
431.932	1	17
432.103	1	7
432.273	1	3
432.444	1	8
432.615	1	3
432.785	1	-5
432.956	1	-2
433.126	1	11
433.297	1	17
433.468	1	12
433.638	1	-5
433.809	1	2
433.979	1	-2
434.150	1	10
434.320	1	2
434.491	1	10
434.662	1	-3
434.832	1	7
435.003	1	1
435.173	1	11
435.344	1	8
435.515	1	0
435.685	1	1
435.856	1	-2
436.026	1	1
436.197	1	3
436.368	1	4
436.538	1	13
436.709	1	7
436.879	1	-4
437.050	1	6
437.220	1	14
437.391	1	7
437.562	1	-3
437.732	1	-3
437.903	1	-5
438.073	1	16
438.244	1	7
438.414	1	-2
438.585	1	-8
438.756	1	0
438.926	1	5
439.097	1	2
439.267	1	-2
439.438	1	8
439.608	1	-2
439.779	1	3
439.949	1	9
440.120	1	2
440.291	1	5
440.461	1	-2
440.632	1	2
440.802	1	-4
440.973	1	5
441.143	1	0
441.314	1	1
441.485	1	5
441.655	1	7
441.826	1	3
441.996	1	3
442.167	1	0
442.337	1	2
442.508	1	-1
442.678	1	-12
442.849	1	0
443.019	1	1
443.190	1	-2
443.361	1	1
443.531	1	11
443.702	1	3
443.872	1	5
444.043	1	-5
444.213	1	-2
444.384	1	-2
444.554	1	2
444.725	1	0
444.895	1	6
445.066	1	2
445.237	1	-7
445.407	1	-3
445.578	1	1
445.748	1	-3
445.919	1	4
446.089	1	5
446.260	1	-7
446.430	1	8
446.601	1	14
446.771	1	8
446.942	1	-13
447.112	1	11
447.283	1	-5
447.453	1	16
447.624	1	4
447.794	1	6
447.965	1	-7
448.135	1	-9
448.306	1	10
448.477	1	11
448.647	1	11
448.818	1	4
448.988	1	6
449.159	1	9
449.329	1	1
449.500	1	4
449.670	1	11
449.841	1	4
450.011	1	-4
450.182	1	3
450.352	1	0
450.523	1	-3
450.693	1	4
450.864	1	5
451.034	1	9
451.205	1	-3
451.375	1	9
451.546	1	8
451.716	1	11
451.887	1	-8
452.057	1	7
452.228	1	8
452.398	1	2
452.569	1	2
452.739	1	5
452.910	1	2
453.080	1	1
453.251	1	-3
453.421	1	10
453.592	1	5
453.762	1	5
453.933	1	7
454.103	1	2
454.274	1	-3
454.444	1	-3
454.615	1	-3
454.785	1	-8
454.956	1	12
455.126	1	1
455.297	1	2
455.467	1	4
455.638	1	8
455.808	1	1
455.979	1	6
456.149	1	2
456.320	1	1
456.490	1	-5
456.661	1	1
456.831	1	12
457.001	1	-10
457.172	1	7
457.342	1	6
457.513	1	-3
457.683	1	11
457.854	1	-1
458.024	1	3
458.195	1	-1
458.365	1	13
458.536	1	7
458.706	1	13
458.877	1	3
459.047	1	13
459.218	1	-12
459.388	1	5
459.559	1	-5
459.729	1	-6
459.899	1	6
460.070	1	7
460.240	1	-7
460.411	1	-1
460.581	1	6
460.752	1	-1
460.922	1	-8
461.093	1	1
461.263	1	6
461.434	1	4
461.604	1	10
461.775	1	4
461.945	1	2
462.115	1	1
462.286	1	2
462.456	1	-2
462.627	1	2
462.797	1	-2
462.968	1	-2
463.138	1	-1
463.309	1	1
463.479	1	9
463.649	1	14
463.820	1	-4
463.990	1	1
464.161	1	3
464.331	1	6
464.502	1	6
464.672	1	-3
464.843	1	2
465.013	1	-3
465.183	1	7
465.354	1	8
465.524	1	6
465.695	1	7
465.865	1	5
466.036	1	2
466.206	1	10
466.376	1	-6
466.547	1	3
466.717	1	16
466.888	1	8
467.058	1	-4
467.229	1	2
467.399	1	1
467.569	1	4
467.740	1	0
467.910	1	0
468.081	1	8
468.251	1	13
468.422	1	2
468.592	1	9
468.762	1	6
468.933	1	4
469.103	1	4
469.274	1	6
469.444	1	-1
469.614	1	1
469.785	1	6
469.955	1	3
470.126	1	7
470.296	1	5
470.467	1	-8
470.637	1	1
470.807	1	-2
470.978	1	11
471.148	1	5
471.319	1	7
471.489	1	-1
471.659	1	-2
471.830	1	-7
472.000	1	-7
472.171	1	13
472.341	1	9
472.511	1	8
472.682	1	-1
472.852	1	2
473.023	1	-5
473.193	1	5
473.363	1	1
473.534	1	3
473.704	1	-1
473.875	1	2
474.045	1	5
474.215	1	10
474.386	1	8
474.556	1	11
474.727	1	-3
474.897	1	3
475.067	1	7
475.238	1	5
475.408	1	8
475.578	1	2
475.749	1	7
475.919	1	7
476.090	1	25
476.260	1	7
476.430	1	-1
476.601	1	10
476.771	1	12
476.942	1	6
477.112	1	-12
477.282	1	7
477.453	1	7
477.623	1	-8
477.793	1	5
477.964	1	4
478.134	1	1
478.305	1	9
478.475	1	0
478.645	1	7
478.816	1	12
478.986	1	13
479.156	1	-1
479.327	1	-9
479.497	1	7
479.667	1	8
479.838	1	7
480.008	1	9
480.179	1	0
480.349	1	-1
480.519	1	6
480.690	1	-5
480.860	1	6
481.030	1	5
481.201	1	9
481.371	1	12
481.541	1	-3
481.712	1	16
481.882	1	2
482.053	1	13
482.223	1	14
482.393	1	7
482.564	1	-1
482.734	1	4
482.904	1	4
483.075	1	-6
483.245	1	17
483.415	1	1
483.586	1	14
483.756	1	-12
483.926	1	4
484.097	1	8
484.267	1	6
484.437	1	13
484.608	1	9
484.778	1	7
484.948	1	-7
485.119	1	2
485.289	1	8
485.459	1	15
485.630	1	3
485.800	1	2
485.970	1	8
486.141	1	2
486.311	1	-2
486.481	1	4
486.652	1	9
486.822	1	5
486.992	1	5
487.163	1	16
487.333	1	5
487.503	1	10
487.674	1	8
487.844	1	0
488.014	1	-2
488.185	1	9
488.355	1	9
488.525	1	10
488.696	1	1
488.866	1	4
489.036	1	6
489.207	1	7
489.377	1	0
489.547	1	2
489.718	1	7
489.888	1	7
490.058	1	5
490.228	1	4
490.399	1	8
490.569	1	14
490.739	1	-1
490.910	1	11
491.080	1	2
491.250	1	5
491.421	1	12
491.591	1	-1
491.761	1	10
491.932	1	6
492.102	1	-1
492.272	1	11
492.442	1	3
492.613	1	4
492.783	1	5
492.953	1	8
493.124	1	5
493.294	1	15
493.464	1	13
493.635	1	16
493.805	1	16
493.975	1	1
494.145	1	0
494.316	1	10
494.486	1	7
494.656	1	6
494.827	1	8
494.997	1	15
495.167	1	2
495.337	1	18
495.508	1	7
495.678	1	8
495.848	1	11
496.019	1	7
496.189	1	11
496.359	1	10
496.529	1	5
496.700	1	14
496.870	1	17
497.040	1	23
497.211	1	22
497.381	1	10
497.551	1	6
497.721	1	17
497.892	1	15
498.062	1	-7
498.232	1	11
498.403	1	13
498.573	1	8
498.743	1	12
498.913	1	6
499.084	1	1
499.254	1	14
499.424	1	11
499.594	1	4
499.765	1	20
499.935	1	5
500.105	1	13
500.275	1	20
500.446	1	22
500.616	1	4
500.786	1	5
500.956	1	13
501.127	1	13
501.297	1	13
501.467	1	11
501.638	1	16
501.808	1	8
501.978	1	21
502.148	1	16
502.319	1	16
502.489	1	17
502.659	1	27
502.829	1	20
503.000	1	7
503.170	1	13
503.340	1	9
503.510	1	24
503.681	1	13
503.851	1	16
504.021	1	13
504.191	1	15
504.362	1	3
504.532	1	11
504.702	1	21
504.872	1	17
505.042	1	16
505.213	1	11
505.383	1	18
505.553	1	22
505.723	1	22
505.894	1	13
506.064	1	4
506.234	1	16
506.404	1	14
506.575	1	1
506.745	1	21
506.915	1	13
507.085	1	11
507.256	1	11
507.426	1	18
507.596	1	6
507.766	1	13
507.936	1	17
508.107	1	18
508.277	1	17
508.447	1	17
508.617	1	20
508.788	1	19
508.958	1	8
509.128	1	18
509.298	1	13
509.468	1	7
509.639	1	16
509.809	1	16
509.979	1	24
510.149	1	23
510.319	1	12
510.490	1	28
510.660	1	19
510.830	1	11
511.000	1	9
511.171	1	11
511.341	1	29
511.511	1	13
511.681	1	26
511.851	1	36
512.022	1	15
512.192	1	9
512.362	1	34
512.532	1	11
512.702	1	15
512.873	1	13
513.043	1	17
513.213	1	16
513.383	1	18
513.553	1	22
513.724	1	16
513.894	1	16
514.064	1	20
514.234	1	24
514.404	1	22
514.575	1	21
514.745	1	10
514.915	1	8
515.085	1	25
515.255	1	21
515.425	1	16
515.596	1	23
515.766	1	18
515.936	1	16
516.106	1	17
516.276	1	18
516.447	1	16
516.617	1	17
516.787	1	20
516.957	1	15
517.127	1	21
517.297	1	26
517.468	1	18
517.638	1	20
517.808	1	18
517.978	1	18
518.148	1	12
518.319	1	23
518.489	1	30
518.659	1	15
518.829	1	10
518.999	1	27
519.169	1	12
519.340	1	23
519.510	1	29
519.680	1	32
519.850	1	21
520.020	1	25
520.190	1	17
520.361	1	17
520.531	1	28
520.701	1	14
520.871	1	16
521.041	1	28
521.211	1	23
521.382	1	28
521.552	1	26
521.722	1	29
521.892	1	18
522.062	1	32
522.232	1	24
522.402	1	11
522.573	1	37
522.743	1	28
522.913	1	21
523.083	1	34
523.253	1	23
523.423	1	24
523.593	1	25
523.764	1	28
523.934	1	23
524.104	1	24
524.274	1	29
524.444	1	31
524.614	1	23
524.784	1	26
524.955	1	27
525.125	1	26
525.295	1	15
525.465	1	34
525.635	1	25
525.805	1	18
525.975	1	21
526.146	1	20
526.316	1	25
526.486	1	40
526.656	1	22
526.826	1	31
526.996	1	25
527.166	1	26
527.337	1	27
527.507	1	24
527.677	1	18
527.847	1	30
528.017	1	6
528.187	1	12
528.357	1	32
528.527	1	22
528.698	1	17
528.868	1	26
529.038	1	34
529.208	1	22
529.378	1	24
529.548	1	35
529.718	1	15
529.888	1	28
530.058	1	25
530.229	1	31
530.399	1	27
530.569	1	15
530.739	1	10
530.909	1	16
531.079	1	30
531.249	1	22
531.419	1	20
531.589	1	16
531.760	1	13
531.930	1	22
532.100	1	26
532.270	1	28
532.440	1	16
532.610	1	23
532.780	1	22
532.950	1	22
533.120	1	33
533.290	1	33
533.461	1	19
533.631	1	17
533.801	1	24
533.971	1	14
534.141	1	10
534.311	1	30
534.481	1	21
534.651	1	15
534.821	1	36
534.991	1	29
535.162	1	26
535.332	1	12
535.502	1	39
535.672	1	27
535.842	1	26
536.012	1	17
536.182	1	18
536.352	1	6
536.522	1	15
536.692	1	17
536.862	1	20
537.032	1	20
537.203	1	21
537.373	1	16
537.543	1	27
537.713	1	20
537.883	1	32
538.053	1	20
538.223	1	29
538.393	1	21
538.563	1	23
538.733	1	21
538.903	1	22
539.073	1	21
539.243	1	34
539.413	1	13
539.584	1	35
539.754	1	19
539.924	1	20
540.094	1	25
540.264	1	26
540.434	1	19
540.604	1	13
540.774	1	31
540.944	1	24
541.114	1	33
541.284	1	27
541.454	1	25
541.624	1	16
541.794	1	21
541.964	1	31
542.134	1	3
542.305	1	35
542.475	1	30
542.645	1	11
542.815	1	37
542.985	1	24
543.155	1	19
543.325	1	11
543.495	1	14
543.665	1	10
543.835	1	31
544.005	1	6
544.175	1	12
544.345	1	27
544.515	1	30
544.685	1	22
544.855	1	31
545.025	1	15
545.195	1	5
545.365	1	21
545.535	1	17
545.705	1	30
545.875	1	31
546.045	1	26
546.216	1	20
546.386	1	30
546.556	1	18
546.726	1	5
546.896	1	19
547.066	1	11
547.236	1	18
547.406	1	26
547.576	1	13
547.746	1	20
547.916	1	22
548.086	1	21
548.256	1	21
548.426	1	34
548.596	1	2
548.766	1	32
548.936	1	15
549.106	1	24
549.276	1	17
549.446	1	29
549.616	1	20
549.786	1	20
549.956	1	16
550.126	1	22
550.296	1	21
550.466	1	15
550.636	1	18
550.806	1	12
550.976	1	6
551.146	1	16
551.316	1	21
551.486	1	24
551.656	1	21
551.826	1	17
551.996	1	18
552.166	1	21
552.336	1	17
552.506	1	21
552.676	1	24
552.846	1	23
553.016	1	22
553.186	1	17
553.356	1	20
553.526	1	18
553.696	1	6
553.866	1	24
554.036	1	16
554.206	1	16
554.376	1	30
554.546	1	17
554.716	1	13
554.886	1	22
555.056	1	19
555.226	1	19
555.396	1	10
555.566	1	14
555.736	1	16
555.906	1	22
556.076	1	20
556.246	1	18
556.416	1	11
556.586	1	24
556.756	1	34
556.926	1	15
557.096	1	26
557.266	1	20
557.436	1	14
557.606	1	24
557.776	1	13
557.946	1	15
558.116	1	22
558.286	1	21
558.456	1	23
558.626	1	19
558.796	1	6
558.966	1	16
559.136	1	15
559.306	1	10
559.476	1	24
559.646	1	7
559.816	1	23
559.986	1	15
560.155	1	27
560.325	1	22
560.495	1	12
560.665	1	28
560.835	1	20
561.005	1	14
561.175	1	16
561.345	1	19
561.515	1	11
561.685	1	27
561.855	1	16
562.025	1	8
562.195	1	17
562.365	1	9
562.535	1	13
562.705	1	19
562.875	1	20
563.045	1	14
563.215	1	14
563.385	1	16
563.555	1	23
563.725	1	12
563.895	1	15
564.064	1	13
564.234	1	8
564.404	1	0
564.574	1	9
564.744	1	9
564.914	1	7
565.084	1	19
565.254	1	19
565.424	1	16
565.594	1	15
565.764	1	12
565.934	1	10
566.104	1	12
566.274	1	10
566.444	1	11
566.614	1	19
566.783	1	14
566.953	1	5
567.123	1	13
567.293	1	12
567.463	1	5
567.633	1	8
567.803	1	10
567.973	1	14
568.143	1	15
568.313	1	5
568.483	1	14
568.653	1	19
568.823	1	17
568.993	1	20
569.162	1	1
569.332	1	17
569.502	1	8
569.672	1	5
569.842	1	17
570.012	1	20
570.182	1	9
570.352	1	14
570.522	1	14
570.692	1	18
570.862	1	15
571.031	1	3
571.201	1	-1
571.371	1	4
571.541	1	16
571.711	1	16
571.881	1	14
572.051	1	14
572.221	1	17
572.391	1	25
572.561	1	1
572.731	1	11
572.900	1	14
573.070	1	13
573.240	1	14
573.410	1	10
573.580	1	-1
573.750	1	12
573.920	1	12
574.090	1	8
574.260	1	21
574.430	1	5
574.599	1	17
574.769	1	12
574.939	1	10
575.109	1	6
575.279	1	9
575.449	1	10
575.619	1	0
575.789	1	10
575.959	1	2
576.128	1	19
576.298	1	13
576.468	1	13
576.638	1	15
576.808	1	13
576.978	1	16
577.148	1	15
577.318	1	14
577.487	1	12
577.657	1	5
577.827	1	18
577.997	1	10
578.167	1	5
578.337	1	13
578.507	1	9
578.677	1	-7
578.846	1	15
579.016	1	12
579.186	1	11
579.356	1	8
579.526	1	9
579.696	1	21
579.866	1	8
580.036	1	4
580.205	1	15
580.375	1	9
580.545	1	10
580.715	1	14
580.885	1	6
581.055	1	7
581.225	1	4
581.394	1	11
581.564	1	16
581.734	1	7
581.904	1	8
582.074	1	4
582.244	1	11
582.414	1	-4
582.583	1	2
582.753	1	0
582.923	1	11
583.093	1	10
583.263	1	21
583.433	1	18
583.603	1	13
583.772	1	-2
583.942	1	-5
584.112	1	5
584.282	1	15
584.452	1	12
584.622	1	10
584.791	1	-3
584.961	1	9
585.131	1	5
585.301	1	16
585.471	1	-3
585.641	1	9
585.811	1	5
585.980	1	11
586.150	1	7
586.320	1	13
586.490	1	1
586.660	1	2
586.830	1	10
586.999	1	7
587.169	1	12
587.339	1	7
587.509	1	13
587.679	1	10
587.849	1	6
588.018	1	7
588.188	1	3
588.358	1	8
588.528	1	12
588.698	1	4
588.867	1	8
589.037	1	2
589.207	1	-4
589.377	1	-2
589.547	1	6
589.717	1	10
589.886	1	13
590.056	1	7
590.226	1	20
590.396	1	13
590.566	1	5
590.735	1	4
590.905	1	3
591.075	1	8
591.245	1	20
591.415	1	20
591.585	1	-3
591.754	1	8
591.924	1	4
592.094	1	5
592.264	1	10
592.434	1	1
592.603	1	3
592.773	1	4
592.943	1	27
593.113	1	11
593.283	1	16
593.452	1	7
593.622	1	1
593.792	1	10
593.962	1	6
594.132	1	17
594.301	1	10
594.471	1	13
594.641	1	-5
594.811	1	9
594.981	1	17
595.150	1	6
595.320	1	-5
595.490	1	6
595.660	1	13
595.829	1	13
595.999	1	15
596.169	1	9
596.339	1	4
596.509	1	2
596.678	1	7
596.848	1	9
597.018	1	18
597.188	1	15
597.358	1	11
597.527	1	7
597.697	1	5
597.867	1	15
598.037	1	14
598.206	1	7
598.376	1	-1
598.546	1	5
598.716	1	-4
598.885	1	5
599.055	1	7
599.225	1	-3
599.395	1	12
599.565	1	-2
599.734	1	9
599.904	1	0
600.074	1	14
600.244	1	12
600.413	1	5
600.583	1	13
600.753	1	5
600.923	1	11
601.092	1	15
601.262	1	-3
601.432	1	4
601.602	1	7
601.771	1	10
601.941	1	17
602.111	1	11
602.281	1	-2
602.451	1	-5
602.620	1	-3
602.790	1	13
602.960	1	1
603.130	1	4
603.299	1	7
603.469	1	13
603.639	1	-2
603.809	1	1
603.978	1	-3
604.148	1	10
604.318	1	2
604.487	1	8
604.657	1	9
604.827	1	4
604.997	1	-6
605.166	1	0
605.336	1	11
605.506	1	17
605.676	1	21
605.845	1	3
606.015	1	10
606.185	1	-6
606.355	1	5
606.524	1	9
606.694	1	-3
606.864	1	7
607.034	1	-3
607.203	1	14
607.373	1	23
607.543	1	4
607.712	1	12
607.882	1	13
608.052	1	17
608.222	1	3
608.391	1	11
608.561	1	4
608.731	1	4
608.901	1	15
609.070	1	4
609.240	1	8
609.410	1	9
609.579	1	2
609.749	1	8
609.919	1	13
610.089	1	5
610.258	1	17
610.428	1	4
610.598	1	5
610.767	1	16
610.937	1	-4
611.107	1	6
611.277	1	17
611.446	1	8
611.616	1	18
611.786	1	7
611.955	1	1
612.125	1	4
612.295	1	15
612.465	1	11
612.634	1	8
612.804	1	10
612.974	1	8
613.143	1	3
613.313	1	2
613.483	1	0
613.652	1	-7
613.822	1	-1
613.992	1	5
614.162	1	-3
614.331	1	1
614.501	1	-5
614.671	1	8
614.840	1	17
615.010	1	-4
615.180	1	3
615.349	1	14
615.519	1	8
615.689	1	-1
615.858	1	9
616.028	1	7
616.198	1	14
616.368	1	0
616.537	1	8
616.707	1	0
616.877	1	20
617.046	1	12
617.216	1	5
617.386	1	2
617.555	1	15
617.725	1	-3
617.895	1	3
618.064	1	3
618.234	1	4
618.404	1	4
618.573	1	3
618.743	1	11
618.913	1	7
619.082	1	0
619.252	1	-4
619.422	1	11
619.591	1	2
619.761	1	-1
619.931	1	13
620.100	1	0
620.270	1	6
620.440	1	0
620.609	1	7
620.779	1	-9
620.949	1	9
621.118	1	-2
621.288	1	18
621.458	1	10
621.627	1	6
621.797	1	8
621.967	1	2
622.136	1	7
622.306	1	-2
622.476	1	9
622.645	1	12
622.815	1	3
622.985	1	4
623.154	1	7
623.324	1	3
623.494	1	9
623.663	1	-5
623.833	1	-5
624.002	1	6
624.172	1	2
624.342	1	11
624.511	1	10
624.681	1	-7
624.851	1	-9
625.020	1	3
625.190	1	6
625.360	1	17
625.529	1	7
625.699	1	5
625.869	1	6
626.038	1	-5
626.208	1	7
626.377	1	-3
626.547	1	0
626.717	1	9
626.886	1	18
627.056	1	2
627.226	1	-6
627.395	1	15
627.565	1	0
627.735	1	6
627.904	1	-1
628.074	1	3
628.243	1	-1
628.413	1	13
628.583	1	-5
628.752	1	16
628.922	1	0
629.091	1	4
629.261	1	5
629.431	1	10
629.600	1	4
629.770	1	10
629.940	1	13
630.109	1	5
630.279	1	-9
630.448	1	2
630.618	1	12
630.788	1	1
630.957	1	2
631.127	1	11
631.297	1	2
631.466	1	6
631.636	1	2
631.805	1	7
631.975	1	3
632.145	1	3
632.314	1	-5
632.484	1	7
632.653	1	-1
632.823	1	0
632.993	1	4
633.162	1	6
633.332	1	3
633.501	1	2
633.671	1	13
633.841	1	18
634.010	1	7
634.180	1	7
634.349	1	-6
634.519	1	2
634.689	1	1
634.858	1	5
635.028	1	0
635.197	1	16
635.367	1	-1
635.537	1	4
635.706	1	4
635.876	1	8
636.045	1	2
636.215	1	-2
636.384	1	4
636.554	1	4
636.724	1	2
636.893	1	0
637.063	1	9
637.232	1	-5
637.402	1	2
637.572	1	-6
637.741	1	7
637.911	1	13
638.080	1	2
638.250	1	13
638.419	1	7
638.589	1	-9
638.759	1	4
638.928	1	8
639.098	1	6
639.267	1	1
639.437	1	11
639.606	1	6
639.776	1	4
639.946	1	1
640.115	1	0
640.285	1	1
640.454	1	2
640.624	1	-3
640.793	1	-2
640.963	1	9
641.132	1	-6
641.302	1	16
641.472	1	-5
641.641	1	7
641.811	1	6
641.980	1	7
642.150	1	6
642.319	1	-4
642.489	1	7
642.659	1	1
642.828	1	-1
642.998	1	10
643.167	1	-3
643.337	1	5
643.506	1	-13
643.676	1	-3
643.845	1	-6
644.015	1	-1
644.184	1	7
644.354	1	0
644.524	1	4
644.693	1	1
644.863	1	9
645.032	1	6
645.202	1	-1
645.371	1	2
645.541	1	0
645.710	1	13
645.880	1	-3
646.049	1	-1
646.219	1	18
646.388	1	14
646.558	1	5
646.728	1	17
646.897	1	-6
647.067	1	13
647.236	1	2
647.406	1	3
647.575	1	10
647.745	1	-1
647.914	1	-4
648.084	1	8
648.253	1	-8
648.423	1	8
648.592	1	1
648.762	1	9
648.931	1	-5
649.101	1	5
649.270	1	-6
649.440	1	7
649.610	1	6
649.779	1	8
649.949	1	-1
650.118	1	6
650.288	1	5
650.457	1	3
650.627	1	8
650.796	1	9
650.966	1	10
651.135	1	1
651.305	1	13
651.474	1	11
651.644	1	10
651.813	1	-4
651.983	1	17
652.152	1	10
652.322	1	4
652.491	1	10
652.661	1	6
652.830	1	3
653.000	1	-5
653.169	1	7
653.339	1	7
653.508	1	9
653.678	1	6
653.847	1	-7
654.017	1	12
654.186	1	9
654.356	1	5
654.525	1	-3
654.695	1	1
654.864	1	7
655.034	1	15
655.203	1	1
655.373	1	-5
655.542	1	0
655.712	1	10
655.881	1	9
656.051	1	6
656.220	1	4
656.390	1	2
656.559	1	15
656.729	1	2
656.898	1	2
657.068	1	18
657.237	1	5
657.406	1	1
657.576	1	9
657.745	1	6
657.915	1	-4
658.084	1	1
658.254	1	9
658.423	1	17
658.593	1	1
658.762	1	1
658.932	1	-5
659.101	1	5
659.271	1	3
659.440	1	15
659.610	1	1
659.779	1	0
659.949	1	8
660.118	1	9
660.288	1	10
660.457	1	12
660.626	1	0
660.796	1	-2
660.965	1	-1
661.135	1	-9
661.304	1	10
661.474	1	3
661.643	1	11
661.813	1	-1
661.982	1	8
662.152	1	5
662.321	1	14
662.491	1	10
662.660	1	9
662.829	1	-2
662.999	1	8
663.168	1	6
663.338	1	0
663.507	1	4
663.677	1	4
663.846	1	18
664.016	1	7
664.185	1	9
664.354	1	-5
664.524	1	4
664.693	1	7
664.863	1	1
665.032	1	13
665.202	1	-5
665.371	1	-1
665.541	1	-10
665.710	1	5
665.879	1	-11
666.049	1	10
666.218	1	11
666.388	1	7
666.557	1	9
666.727	1	4
666.896	1	1
667.065	1	7
667.235	1	12
667.404	1	5
667.574	1	5
667.743	1	0
667.913	1	-1
668.082	1	13
668.251	1	8
668.421	1	5
668.590	1	-2
668.760	1	-1
668.929	1	3
669.099	1	1
669.268	1	13
669.437	1	1
669.607	1	0
669.776	1	5
669.946	1	25
670.115	1	-1
670.285	1	-2
670.454	1	12
670.623	1	11
670.793	1	-5
670.962	1	5
671.132	1	-11
671.301	1	1
671.470	1	5
671.640	1	-4
671.809	1	-2
671.979	1	1
672.148	1	1
672.317	1	4
672.487	1	4
672.656	1	7
672.826	1	5
672.995	1	-3
673.164	1	6
673.334	1	3
673.503	1	-1
673.673	1	10
673.842	1	-5
674.011	1	2
674.181	1	2
674.350	1	5
674.520	1	8
674.689	1	5
674.858	1	10
675.028	1	-4
675.197	1	4
675.367	1	-3
675.536	1	-4
675.705	1	13
675.875	1	12
676.044	1	3
676.214	1	9
676.383	1	-2
676.552	1	1
676.722	1	3
676.891	1	13
677.060	1	15
677.230	1	-3
677.399	1	-2
677.569	1	14
677.738	1	3
677.907	1	-1
678.077	1	-3
678.246	1	5
678.416	1	15
678.585	1	12
678.754	1	14
678.924	1	-4
679.093	1	2
679.262	1	0
679.432	1	4
679.601	1	-9
679.771	1	11
679.940	1	9
680.109	1	9
680.279	1	11
680.448	1	5
680.617	1	14
680.787	1	7
680.956	1	0
681.125	1	7
681.295	1	7
681.464	1	-3
681.634	1	12
681.803	1	12
681.972	1	15
682.142	1	-1
682.311	1	-3
682.480	1	11
682.650	1	7
682.819	1	-2
682.988	1	5
683.158	1	10
683.327	1	9
683.496	1	3
683.666	1	1
683.835	1	2
684.004	1	7
684.174	1	-3
684.343	1	10
684.512	1	7
684.682	1	1
684.851	1	6
685.021	1	5
685.190	1	4
685.359	1	1
685.529	1	-1
685.698	1	7
685.867	1	-2
686.037	1	4
686.206	1	5
686.375	1	13
686.545	1	5
686.714	1	9
686.883	1	6
687.053	1	5
687.222	1	5
687.391	1	0
687.561	1	1
687.730	1	-3
687.899	1	10
688.069	1	5
688.238	1	-6
688.407	1	9
688.577	1	19
688.746	1	9
