340.368	1	3
340.539	1	4
340.710	1	7
340.881	1	-11
341.052	1	2
341.223	1	2
341.394	1	10
341.565	1	1
341.737	1	8
341.908	1	-8
342.079	1	6
342.250	1	1
342.421	1	6
342.592	1	6
342.763	1	4
342.934	1	9
343.105	1	11
343.276	1	4
343.447	1	-6
343.618	1	-7
343.789	1	13
343.960	1	0
344.131	1	-9
344.302	1	4
344.473	1	-12
344.644	1	-6
344.815	1	2
344.986	1	-3
345.157	1	-4
345.328	1	8
345.499	1	6
345.670	1	-3
345.841	1	2
346.012	1	7
346.183	1	0
346.354	1	7
346.526	1	-5
346.697	1	3
346.868	1	-1
347.039	1	3
347.210	1	2
347.381	1	4
347.552	1	11
347.723	1	2
347.894	1	9
348.065	1	-5
348.236	1	6
348.407	1	-12
348.578	1	-1
348.749	1	0
348.920	1	-1
349.091	1	-6
349.262	1	-5
349.433	1	-5
349.604	1	3
349.775	1	9
349.946	1	1
350.117	1	2
350.288	1	1
350.459	1	2
350.630	1	-1
350.801	1	8
350.972	1	3
351.143	1	0
351.314	1	9
351.485	1	-11
351.656	1	1
351.827	1	-1
351.998	1	4
352.169	1	-13
352.340	1	3
352.511	1	-4
352.682	1	2
352.853	1	2
353.024	1	5
353.195	1	1
353.366	1	2
353.537	1	-3
353.708	1	4
353.879	1	-2
354.050	1	6
354.221	1	-2
354.392	1	7
354.563	1	-4
354.734	1	7
354.905	1	9
355.076	1	12
355.247	1	2
355.418	1	-6
355.589	1	8
355.760	1	-7
355.931	1	5
356.102	1	-4
356.273	1	1
356.444	1	4
356.615	1	0
356.785	1	-3
356.956	1	-1
357.127	1	-3
357.298	1	4
357.469	1	2
357.640	1	-5
357.811	1	3
357.982	1	-5
358.153	1	6
358.324	1	9
358.495	1	1
358.666	1	-3
358.837	1	10
359.008	1	16
359.179	1	16
359.350	1	-4
359.521	1	1
359.692	1	-6
359.863	1	-2
360.034	1	9
360.205	1	-8
360.376	1	17
360.547	1	-3
360.718	1	10
360.889	1	-1
361.060	1	6
361.231	1	21
361.401	1	1
361.572	1	7
361.743	1	-3
361.914	1	-3
362.085	1	13
362.256	1	10
362.427	1	9
362.598	1	3
362.769	1	6
362.940	1	0
363.111	1	10
363.282	1	1
363.453	1	10
363.624	1	10
363.795	1	2
363.966	1	16
364.137	1	16
364.308	1	24
364.478	1	6
364.649	1	5
364.820	1	11
364.991	1	8
365.162	1	4
365.333	1	7
365.504	1	4
365.675	1	9
365.846	1	7
366.017	1	12
366.188	1	19
366.359	1	16
366.530	1	14
366.701	1	10
366.871	1	12
367.042	1	14
367.213	1	13
367.384	1	14
367.555	1	11
367.726	1	16
367.897	1	11
368.068	1	13
368.239	1	14
368.410	1	24
368.581	1	17
368.752	1	10
368.923	1	26
369.093	1	19
369.264	1	20
369.435	1	25
369.606	1	15
369.777	1	19
369.948	1	31
370.119	1	15
370.290	1	11
370.461	1	23
370.632	1	20
370.803	1	11
370.973	1	12
371.144	1	1
371.315	1	19
371.486	1	12
371.657	1	14
371.828	1	2
371.999	1	19
372.170	1	10
372.341	1	13
372.512	1	15
372.682	1	5
372.853	1	6
373.024	1	3
373.195	1	20
373.366	1	0
373.537	1	10
373.708	1	0
373.879	1	2
374.050	1	12
374.220	1	13
374.391	1	9
374.562	1	12
374.733	1	7
374.904	1	4
375.075	1	1
375.246	1	1
375.417	1	5
375.588	1	4
375.758	1	8
375.929	1	-3
376.100	1	6
376.271	1	-7
376.442	1	3
376.613	1	3
376.784	1	4
376.955	1	4
377.125	1	1
377.296	1	15
377.467	1	10
377.638	1	9
377.809	1	11
377.980	1	14
378.151	1	10
378.321	1	5
378.492	1	6
378.663	1	6
378.834	1	0
379.005	1	20
379.176	1	-4
379.347	1	-5
379.518	1	8
379.688	1	5
379.859	1	10
380.030	1	2
380.201	1	3
380.372	1	10
380.543	1	12
380.714	1	-5
380.884	1	7
381.055	1	-3
381.226	1	8
381.397	1	5
381.568	1	11
381.739	1	4
381.910	1	13
382.080	1	-2
382.251	1	11
382.422	1	-2
382.593	1	6
382.764	1	2
382.935	1	6
383.105	1	1
383.276	1	-1
383.447	1	8
383.618	1	-5
383.789	1	11
383.960	1	8
384.130	1	16
384.301	1	2
384.472	1	-3
384.643	1	1
384.814	1	12
384.985	1	13
385.156	1	14
385.326	1	3
385.497	1	-2
385.668	1	10
385.839	1	-4
386.010	1	12
386.180	1	11
386.351	1	8
386.522	1	7
386.693	1	7
386.864	1	4
387.035	1	6
387.205	1	14
387.376	1	-2
387.547	1	14
387.718	1	-1
387.889	1	4
388.060	1	2
388.230	1	15
388.401	1	5
388.572	1	-2
388.743	1	13
388.914	1	2
389.084	1	11
389.255	1	6
389.426	1	4
389.597	1	0
389.768	1	4
389.939	1	3
390.109	1	13
390.280	1	3
390.451	1	1
390.622	1	-2
390.793	1	7
390.963	1	1
391.134	1	8
391.305	1	0
391.476	1	5
391.647	1	1
391.817	1	-1
391.988	1	12
392.159	1	0
392.330	1	-2
392.501	1	-5
392.671	1	10
392.842	1	7
393.013	1	11
393.184	1	6
393.355	1	-2
393.525	1	9
393.696	1	1
393.867	1	11
394.038	1	11
394.208	1	-2
394.379	1	11
394.550	1	0
394.721	1	7
394.892	1	6
395.062	1	1
395.233	1	8
395.404	1	15
395.575	1	14
395.746	1	14
395.916	1	15
396.087	1	7
396.258	1	4
396.429	1	10
396.599	1	8
396.770	1	-2
396.941	1	-5
397.112	1	13
397.283	1	4
397.453	1	4
397.624	1	-2
397.795	1	4
397.966	1	2
398.136	1	8
398.307	1	2
398.478	1	0
398.649	1	6
398.819	1	4
398.990	1	2
399.161	1	6
399.332	1	-5
399.503	1	5
399.673	1	-4
399.844	1	4
400.015	1	10
400.186	1	10
400.356	1	11
400.527	1	-2
400.698	1	-2
400.869	1	3
401.039	1	4
401.210	1	-11
401.381	1	-2
401.552	1	-1
401.722	1	7
401.893	1	10
402.064	1	1
402.235	1	0
402.405	1	1
402.576	1	11
402.747	1	-1
402.918	1	-1
403.088	1	-11
403.259	1	10
403.430	1	4
403.601	1	4
403.771	1	-6
403.942	1	3
404.113	1	-4
404.284	1	0
404.454	1	-4
404.625	1	4
404.796	1	1
404.967	1	5
405.137	1	10
405.308	1	17
405.479	1	-15
405.649	1	2
405.820	1	-4
405.991	1	4
406.162	1	-7
406.332	1	14
406.503	1	-5
406.674	1	13
406.845	1	4
407.015	1	8
407.186	1	5
407.357	1	4
407.527	1	6
407.698	1	6
407.869	1	6
408.040	1	-3
408.210	1	-1
408.381	1	5
408.552	1	13
408.722	1	14
408.893	1	4
409.064	1	0
409.235	1	7
409.405	1	8
409.576	1	4
409.747	1	-1
409.917	1	8
410.088	1	-3
410.259	1	6
410.430	1	-1
410.600	1	-2
410.771	1	5
410.942	1	4
411.112	1	3
411.283	1	-4
411.454	1	7
411.625	1	1
411.795	1	5
411.966	1	0
412.137	1	-1
412.307	1	-2
412.478	1	0
412.649	1	7
412.819	1	16
412.990	1	-3
413.161	1	-5
413.332	1	3
413.502	1	-6
413.673	1	11
413.844	1	2
414.014	1	8
414.185	1	-6
414.356	1	9
414.526	1	-2
414.697	1	5
414.868	1	4
415.038	1	13
415.209	1	1
415.380	1	-2
415.550	1	-10
415.721	1	4
415.892	1	4
416.063	1	3
416.233	1	-4
416.404	1	0
416.575	1	0
416.745	1	8
416.916	1	-1
417.087	1	11
417.257	1	-1
417.428	1	1
417.599	1	-3
417.769	1	3
417.940	1	4
418.111	1	6
418.281	1	7
418.452	1	-8
418.623	1	2
418.793	1	7
418.964	1	6
419.135	1	7
419.305	1	3
419.476	1	18
419.647	1	2
419.817	1	9
419.988	1	6
420.159	1	-4
420.329	1	6
420.500	1	5
420.671	1	4
420.841	1	2
421.012	1	4
421.183	1	-1
421.353	1	12
421.524	1	0
421.695	1	6
421.865	1	-2
422.036	1	-15
422.206	1	3
422.377	1	1
422.548	1	4
422.718	1	13
422.889	1	-1
423.060	1	6
423.230	1	3
423.401	1	8
423.572	1	-11
423.742	1	-6
423.913	1	4
424.084	1	2
424.254	1	8
424.425	1	6
424.595	1	5
424.766	1	12
424.937	1	0
425.107	1	-3
425.278	1	6
425.449	1	2
425.619	1	0
425.790	1	-3
425.961	1	-3
426.131	1	0
426.302	1	-2
426.472	1	10
426.643	1	-5
426.814	1	-7
426.984	1	2
427.155	1	14
427.326	1	6
427.496	1	-2
427.667	1	2
427.837	1	5
428.008	1	7
428.179	1	1
428.349	1	6
428.520	1	3
428.691	1	7
428.861	1	-10
429.032	1	5
429.202	1	1
429.373	1	11
429.544	1	-1
429.714	1	6
429.885	1	0
430.055	1	9
430.226	1	-2
430.397	1	5
430.567	1	0
430.738	1	10
430.909	1	1
431.079	1	-4
431.250	1	0
431.420	1	3
431.591	1	19
431.762	1	3
431.932	1	3
432.103	1	1
432.273	1	-3
432.444	1	2
432.615	1	-11
432.785	1	-7
432.956	1	-1
433.126	1	10
433.297	1	0
433.468	1	0
433.638	1	-7
433.809	1	0
433.979	1	3
434.150	1	3
434.320	1	-6
434.491	1	7
434.662	1	0
434.832	1	12
435.003	1	5
435.173	1	7
435.344	1	0
435.515	1	3
435.685	1	-9
435.856	1	-2
436.026	1	3
436.197	1	-4
436.368	1	1
436.538	1	6
436.709	1	-7
436.879	1	1
437.050	1	-7
437.220	1	0
437.391	1	5
437.562	1	-3
437.732	1	-6
437.903	1	-8
438.073	1	11
438.244	1	6
438.414	1	-4
438.585	1	2
438.756	1	-5
438.926	1	5
439.097	1	1
439.267	1	3
439.438	1	2
439.608	1	3
439.779	1	-2
439.949	1	2
440.120	1	0
440.291	1	6
440.461	1	3
440.632	1	-4
440.802	1	-7
440.973	1	5
441.143	1	4
441.314	1	-1
441.485	1	2
441.655	1	3
441.826	1	6
441.996	1	6
442.167	1	-3
442.337	1	11
442.508	1	3
442.678	1	-3
442.849	1	2
443.019	1	0
443.190	1	0
443.361	1	-1
443.531	1	1
443.702	1	4
443.872	1	8
444.043	1	1
444.213	1	-20
444.384	1	2
444.554	1	1
444.725	1	2
444.895	1	-6
445.066	1	-5
445.237	1	-12
445.407	1	-4
445.578	1	-1
445.748	1	0
445.919	1	9
446.089	1	9
446.260	1	-4
446.430	1	0
446.601	1	11
446.771	1	11
446.942	1	-3
447.112	1	3
447.283	1	2
447.453	1	4
447.624	1	-5
447.794	1	-2
447.965	1	-8
448.135	1	-7
448.306	1	2
448.477	1	2
448.647	1	5
448.818	1	-9
448.988	1	10
449.159	1	4
449.329	1	2
449.500	1	7
449.670	1	9
449.841	1	2
450.011	1	-5
450.182	1	1
450.352	1	-10
450.523	1	5
450.693	1	4
450.864	1	11
451.034	1	1
451.205	1	-2
451.375	1	0
451.546	1	2
451.716	1	9
451.887	1	-5
452.057	1	-2
452.228	1	14
452.398	1	-4
452.569	1	15
452.739	1	8
452.910	1	-2
453.080	1	-5
453.251	1	-4
453.421	1	2
453.592	1	3
453.762	1	-6
453.933	1	11
454.103	1	-6
454.274	1	-13
454.444	1	-9
454.615	1	-3
454.785	1	-5
454.956	1	2
455.126	1	-9
455.297	1	-5
455.467	1	3
455.638	1	7
455.808	1	-4
455.979	1	10
456.149	1	-1
456.320	1	1
456.490	1	3
456.661	1	-1
456.831	1	3
457.001	1	-4
457.172	1	13
457.342	1	2
457.513	1	-3
457.683	1	17
457.854	1	6
458.024	1	-1
458.195	1	-8
458.365	1	3
458.536	1	-5
458.706	1	14
458.877	1	-10
459.047	1	5
459.218	1	-5
459.388	1	3
459.559	1	-8
459.729	1	-6
459.899	1	4
460.070	1	4
460.240	1	0
460.411	1	-1
460.581	1	0
460.752	1	-3
460.922	1	-2
461.093	1	4
461.263	1	6
461.434	1	11
461.604	1	3
461.775	1	3
461.945	1	-8
462.115	1	5
462.286	1	-4
462.456	1	-9
462.627	1	-5
462.797	1	-5
462.968	1	-9
463.138	1	6
463.309	1	-2
463.479	1	4
463.649	1	9
463.820	1	-4
463.990	1	0
464.161	1	1
464.331	1	1
464.502	1	4
464.672	1	-4
464.843	1	1
465.013	1	-4
465.183	1	8
465.354	1	3
465.524	1	1
465.695	1	-1
465.865	1	0
466.036	1	7
466.206	1	2
466.376	1	14
466.547	1	-5
466.717	1	8
466.888	1	-3
467.058	1	-2
467.229	1	-1
467.399	1	0
467.569	1	-2
467.740	1	1
467.910	1	13
468.081	1	5
468.251	1	3
468.422	1	5
468.592	1	7
468.762	1	1
468.933	1	6
469.103	1	-7
469.274	1	3
469.444	1	-8
469.614	1	-4
469.785	1	10
469.955	1	3
470.126	1	-2
470.296	1	3
470.467	1	-10
470.637	1	0
470.807	1	-1
470.978	1	3
471.148	1	-3
471.319	1	-3
471.489	1	-1
471.659	1	0
471.830	1	-6
472.000	1	2
472.171	1	9
472.341	1	4
472.511	1	6
472.682	1	5
472.852	1	1
473.023	1	2
473.193	1	-2
473.363	1	-7
473.534	1	-2
473.704	1	-15
473.875	1	4
474.045	1	-3
474.215	1	3
474.386	1	11
474.556	1	11
474.727	1	6
474.897	1	8
475.067	1	4
475.238	1	7
475.408	1	10
475.578	1	-5
475.749	1	4
475.919	1	1
476.090	1	9
476.260	1	-1
476.430	1	2
476.601	1	2
476.771	1	12
476.942	1	-5
477.112	1	-3
477.282	1	-1
477.453	1	6
477.623	1	-8
477.793	1	3
477.964	1	0
478.134	1	4
478.305	1	-8
478.475	1	-1
478.645	1	0
478.816	1	-2
478.986	1	5
479.156	1	-4
479.327	1	1
479.497	1	1
479.667	1	4
479.838	1	-9
480.008	1	4
480.179	1	1
480.349	1	2
480.519	1	-6
480.690	1	-3
480.860	1	2
481.030	1	7
481.201	1	8
481.371	1	1
481.541	1	-5
481.712	1	3
481.882	1	-3
482.053	1	6
482.223	1	3
482.393	1	5
482.564	1	0
482.734	1	9
482.904	1	7
483.075	1	-2
483.245	1	7
483.415	1	-5
483.586	1	3
483.756	1	-10
483.926	1	4
484.097	1	8
484.267	1	1
484.437	1	1
484.608	1	9
484.778	1	7
484.948	1	-1
485.119	1	-1
485.289	1	9
485.459	1	7
485.630	1	-2
485.800	1	-1
485.970	1	6
486.141	1	11
486.311	1	4
486.481	1	0
486.652	1	2
486.822	1	-5
486.992	1	6
487.163	1	7
487.333	1	4
487.503	1	5
487.674	1	-5
487.844	1	8
488.014	1	7
488.185	1	-5
488.355	1	8
488.525	1	7
488.696	1	6
488.866	1	7
489.036	1	0
489.207	1	1
489.377	1	2
489.547	1	7
489.718	1	11
489.888	1	7
490.058	1	-9
490.228	1	-3
490.399	1	-5
490.569	1	9
490.739	1	2
490.910	1	4
491.080	1	-1
491.250	1	-4
491.421	1	-8
491.591	1	-2
491.761	1	6
491.932	1	5
492.102	1	-2
492.272	1	5
492.442	1	-4
492.613	1	7
492.783	1	-2
492.953	1	6
493.124	1	5
493.294	1	0
493.464	1	14
493.635	1	-2
493.805	1	11
493.975	1	4
494.145	1	-2
494.316	1	0
494.486	1	8
494.656	1	0
494.827	1	-5
494.997	1	5
495.167	1	8
495.337	1	17
495.508	1	15
495.678	1	2
495.848	1	9
496.019	1	-1
496.189	1	13
496.359	1	1
496.529	1	-7
496.700	1	15
496.870	1	-3
497.040	1	16
497.211	1	12
497.381	1	5
497.551	1	4
497.721	1	3
497.892	1	5
498.062	1	-6
498.232	1	17
498.403	1	4
498.573	1	-5
498.743	1	1
498.913	1	-4
499.084	1	7
499.254	1	1
499.424	1	7
499.594	1	7
499.765	1	3
499.935	1	2
500.105	1	10
500.275	1	20
500.446	1	4
500.616	1	4
500.786	1	4
500.956	1	11
501.127	1	-3
501.297	1	-8
501.467	1	-2
501.638	1	16
501.808	1	0
501.978	1	12
502.148	1	1
502.319	1	7
502.489	1	6
502.659	1	4
502.829	1	12
503.000	1	-5
503.170	1	0
503.340	1	8
503.510	1	9
503.681	1	-2
503.851	1	6
504.021	1	3
504.191	1	2
504.362	1	-4
504.532	1	7
504.702	1	12
504.872	1	10
505.042	1	1
505.213	1	2
505.383	1	10
505.553	1	-1
505.723	1	5
505.894	1	2
506.064	1	2
506.234	1	5
506.404	1	3
506.575	1	-4
506.745	1	6
506.915	1	9
507.085	1	6
507.256	1	-5
507.426	1	4
507.596	1	12
507.766	1	9
507.936	1	4
508.107	1	7
508.277	1	7
508.447	1	14
508.617	1	-5
508.788	1	11
508.958	1	-4
509.128	1	4
509.298	1	5
509.468	1	8
509.639	1	7
509.809	1	1
509.979	1	3
510.149	1	16
510.319	1	4
510.490	1	8
510.660	1	15
510.830	1	6
511.000	1	5
511.171	1	6
511.341	1	17
511.511	1	-1
511.681	1	12
511.851	1	15
512.022	1	4
512.192	1	1
512.362	1	16
512.532	1	2
512.702	1	-4
512.873	1	2
513.043	1	12
513.213	1	12
513.383	1	8
513.553	1	9
513.724	1	2
513.894	1	11
514.064	1	4
514.234	1	6
514.404	1	2
514.575	1	4
514.745	1	6
514.915	1	5
515.085	1	13
515.255	1	5
515.425	1	6
515.596	1	8
515.766	1	12
515.936	1	8
516.106	1	8
516.276	1	9
516.447	1	0
516.617	1	1
516.787	1	0
516.957	1	6
517.127	1	12
517.297	1	3
517.468	1	-1
517.638	1	13
517.808	1	13
517.978	1	6
518.148	1	9
518.319	1	9
518.489	1	9
518.659	1	2
518.829	1	-2
518.999	1	-2
519.169	1	7
519.340	1	5
519.510	1	6
519.680	1	13
519.850	1	5
520.020	1	11
520.190	1	-1
520.361	1	1
520.531	1	20
520.701	1	1
520.871	1	8
521.041	1	15
521.211	1	1
521.382	1	17
521.552	1	18
521.722	1	2
521.892	1	10
522.062	1	15
522.232	1	-1
522.402	1	3
522.573	1	18
522.743	1	8
522.913	1	14
523.083	1	8
523.253	1	8
523.423	1	19
523.593	1	12
523.764	1	6
523.934	1	-3
524.104	1	9
524.274	1	2
524.444	1	11
524.614	1	9
524.784	1	-3
524.955	1	8
525.125	1	4
525.295	1	-1
525.465	1	18
525.635	1	17
525.805	1	9
525.975	1	5
526.146	1	14
526.316	1	10
526.486	1	18
526.656	1	7
526.826	1	13
526.996	1	-2
527.166	1	4
527.337	1	-1
527.507	1	15
527.677	1	1
527.847	1	14
528.017	1	-3
528.187	1	1
528.357	1	14
528.527	1	0
528.698	1	10
528.868	1	2
529.038	1	19
529.208	1	9
529.378	1	1
529.548	1	26
529.718	1	-3
529.888	1	10
530.058	1	6
530.229	1	20
530.399	1	11
530.569	1	3
530.739	1	8
530.909	1	-3
531.079	1	19
531.249	1	8
531.419	1	5
531.589	1	7
531.760	1	0
531.930	1	12
532.100	1	7
532.270	1	11
532.440	1	2
532.610	1	3
532.780	1	4
532.950	1	19
533.120	1	19
533.290	1	9
533.461	1	3
533.631	1	5
533.801	1	6
533.971	1	5
534.141	1	2
534.311	1	20
534.481	1	-2
534.651	1	-1
534.821	1	16
534.991	1	2
535.162	1	18
535.332	1	-6
535.502	1	18
535.672	1	8
535.842	1	17
536.012	1	4
536.182	1	5
536.352	1	2
536.522	1	6
536.692	1	12
536.862	1	1
537.032	1	12
537.203	1	15
537.373	1	-2
537.543	1	8
537.713	1	9
537.883	1	21
538.053	1	6
538.223	1	16
538.393	1	17
538.563	1	6
538.733	1	-5
538.903	1	10
539.073	1	3
539.243	1	3
539.413	1	2
539.584	1	8
539.754	1	0
539.924	1	9
540.094	1	5
540.264	1	5
540.434	1	9
540.604	1	0
540.774	1	3
540.944	1	5
541.114	1	10
541.284	1	5
541.454	1	10
541.624	1	3
541.794	1	-5
541.964	1	10
542.134	1	2
542.305	1	25
542.475	1	3
542.645	1	4
542.815	1	8
542.985	1	19
543.155	1	9
543.325	1	3
543.495	1	7
543.665	1	13
543.835	1	22
544.005	1	0
544.175	1	-3
544.345	1	10
544.515	1	18
544.685	1	7
544.855	1	4
545.025	1	10
545.195	1	3
545.365	1	0
545.535	1	12
545.705	1	0
545.875	1	4
546.045	1	12
546.216	1	-1
546.386	1	10
546.556	1	17
546.726	1	6
546.896	1	4
547.066	1	-4
547.236	1	4
547.406	1	11
547.576	1	4
547.746	1	3
547.916	1	5
548.086	1	19
548.256	1	14
548.426	1	8
548.596	1	-4
548.766	1	11
548.936	1	-1
549.106	1	7
549.276	1	9
549.446	1	10
549.616	1	6
549.786	1	12
549.956	1	16
550.126	1	3
550.296	1	7
550.466	1	5
550.636	1	8
550.806	1	6
550.976	1	-5
551.146	1	9
551.316	1	7
551.486	1	20
551.656	1	7
551.826	1	4
551.996	1	0
552.166	1	-2
552.336	1	5
552.506	1	5
552.676	1	14
552.846	1	5
553.016	1	10
553.186	1	9
553.356	1	12
553.526	1	12
553.696	1	7
553.866	1	7
554.036	1	0
554.206	1	1
554.376	1	12
554.546	1	10
554.716	1	11
554.886	1	14
555.056	1	6
555.226	1	-3
555.396	1	0
555.566	1	6
555.736	1	2
555.906	1	7
556.076	1	10
556.246	1	1
556.416	1	-5
556.586	1	15
556.756	1	10
556.926	1	16
557.096	1	18
557.266	1	2
557.436	1	9
557.606	1	1
557.776	1	1
557.946	1	9
558.116	1	5
558.286	1	6
558.456	1	16
558.626	1	19
558.796	1	4
558.966	1	6
559.136	1	-2
559.306	1	-6
559.476	1	4
559.646	1	1
559.816	1	10
559.986	1	12
560.155	1	17
560.325	1	10
560.495	1	1
560.665	1	22
560.835	1	6
561.005	1	18
561.175	1	12
561.345	1	4
561.515	1	-2
561.685	1	6
561.855	1	-2
562.025	1	13
562.195	1	1
562.365	1	9
562.535	1	3
562.705	1	14
562.875	1	8
563.045	1	9
563.215	1	4
563.385	1	5
563.555	1	10
563.725	1	2
563.895	1	17
564.064	1	10
564.234	1	-7
564.404	1	0
564.574	1	6
564.744	1	11
564.914	1	3
565.084	1	10
565.254	1	11
565.424	1	16
565.594	1	10
565.764	1	8
565.934	1	7
566.104	1	-7
566.274	1	-6
566.444	1	11
566.614	1	8
566.783	1	4
566.953	1	3
567.123	1	7
567.293	1	0
567.463	1	-7
567.633	1	7
567.803	1	1
567.973	1	8
568.143	1	4
568.313	1	-6
568.483	1	3
568.653	1	10
568.823	1	6
568.993	1	13
569.162	1	14
569.332	1	12
569.502	1	-5
569.672	1	-1
569.842	1	1
570.012	1	7
570.182	1	1
570.352	1	5
570.522	1	2
570.692	1	4
570.862	1	11
571.031	1	-5
571.201	1	14
571.371	1	-6
571.541	1	-1
571.711	1	13
571.881	1	3
572.051	1	8
572.221	1	6
572.391	1	16
572.561	1	-6
572.731	1	6
572.900	1	-1
573.070	1	8
573.240	1	8
573.410	1	10
573.580	1	-2
573.750	1	-3
573.920	1	-4
574.090	1	0
574.260	1	10
574.430	1	3
574.599	1	18
574.769	1	8
574.939	1	5
575.109	1	-8
575.279	1	1
575.449	1	11
575.619	1	-3
575.789	1	6
575.959	1	-6
576.128	1	6
576.298	1	6
576.468	1	12
576.638	1	3
576.808	1	10
576.978	1	16
577.148	1	0
577.318	1	2
577.487	1	-1
577.657	1	0
577.827	1	-5
577.997	1	5
578.167	1	1
578.337	1	10
578.507	1	2
578.677	1	-5
578.846	1	10
579.016	1	1
579.186	1	-3
579.356	1	5
579.526	1	1
579.696	1	13
579.866	1	2
580.036	1	-3
580.205	1	14
580.375	1	2
580.545	1	12
580.715	1	3
580.885	1	18
581.055	1	7
581.225	1	-3
581.394	1	2
581.564	1	7
581.734	1	-3
581.904	1	3
582.074	1	9
582.244	1	13
582.414	1	-3
582.583	1	-3
582.753	1	4
582.923	1	5
583.093	1	14
583.263	1	4
583.433	1	8
583.603	1	11
583.772	1	-4
583.942	1	-4
584.112	1	-5
584.282	1	8
584.452	1	4
584.622	1	8
584.791	1	1
584.961	1	1
585.131	1	5
585.301	1	-1
585.471	1	-4
585.641	1	0
585.811	1	4
585.980	1	3
586.150	1	1
586.320	1	4
586.490	1	7
586.660	1	6
586.830	1	6
586.999	1	-5
587.169	1	10
587.339	1	3
587.509	1	14
587.679	1	0
587.849	1	-6
588.018	1	0
588.188	1	-3
588.358	1	2
588.528	1	3
588.698	1	9
588.867	1	11
589.037	1	-4
589.207	1	-3
589.377	1	2
589.547	1	4
589.717	1	7
589.886	1	4
590.056	1	5
590.226	1	3
590.396	1	0
590.566	1	-6
590.735	1	-1
590.905	1	0
591.075	1	5
591.245	1	-2
591.415	1	4
591.585	1	-3
591.754	1	20
591.924	1	6
592.094	1	0
592.264	1	5
592.434	1	-1
592.603	1	3
592.773	1	-8
592.943	1	6
593.113	1	3
593.283	1	15
593.452	1	9
593.622	1	-3
593.792	1	3
593.962	1	9
594.132	1	12
594.301	1	15
594.471	1	10
594.641	1	-20
594.811	1	9
594.981	1	8
595.150	1	6
595.320	1	-1
595.490	1	5
595.660	1	6
595.829	1	12
595.999	1	5
596.169	1	-5
596.339	1	4
596.509	1	0
596.678	1	9
596.848	1	8
597.018	1	1
597.188	1	15
597.358	1	2
597.527	1	2
597.697	1	9
597.867	1	10
598.037	1	13
598.206	1	9
598.376	1	-2
598.546	1	1
598.716	1	7
598.885	1	9
599.055	1	3
599.225	1	-7
599.395	1	4
599.565	1	-9
599.734	1	9
599.904	1	-5
600.074	1	3
600.244	1	9
600.413	1	10
600.583	1	-2
600.753	1	-2
600.923	1	12
601.092	1	7
601.262	1	2
601.432	1	14
601.602	1	13
601.771	1	11
601.941	1	3
602.111	1	-2
602.281	1	1
602.451	1	2
602.620	1	3
602.790	1	11
602.960	1	-4
603.130	1	10
603.299	1	-2
603.469	1	-2
603.639	1	-2
603.809	1	-4
603.978	1	2
604.148	1	5
604.318	1	6
604.487	1	0
604.657	1	4
604.827	1	1
604.997	1	7
605.166	1	-11
605.336	1	1
605.506	1	2
605.676	1	15
605.845	1	-9
606.015	1	1
606.185	1	3
606.355	1	-1
606.524	1	3
606.694	1	3
606.864	1	6
607.034	1	-7
607.203	1	10
607.373	1	14
607.543	1	3
607.712	1	10
607.882	1	4
608.052	1	14
608.222	1	-1
608.391	1	-3
608.561	1	4
608.731	1	2
608.901	1	7
609.070	1	4
609.240	1	3
609.410	1	10
609.579	1	4
609.749	1	4
609.919	1	6
610.089	1	-4
610.258	1	11
610.428	1	1
610.598	1	-2
610.767	1	-3
610.937	1	-1
611.107	1	-1
611.277	1	10
611.446	1	6
611.616	1	9
611.786	1	11
611.955	1	-5
612.125	1	4
612.295	1	7
612.465	1	4
612.634	1	6
612.804	1	-3
612.974	1	-2
613.143	1	-5
613.313	1	4
613.483	1	2
613.652	1	8
613.822	1	-3
613.992	1	6
614.162	1	-1
614.331	1	-1
614.501	1	-5
614.671	1	-7
614.840	1	4
615.010	1	3
615.180	1	2
615.349	1	7
615.519	1	-6
615.689	1	-2
615.858	1	4
616.028	1	7
616.198	1	12
616.368	1	4
616.537	1	8
616.707	1	1
616.877	1	12
617.046	1	-2
617.216	1	-4
617.386	1	-3
617.555	1	8
617.725	1	0
617.895	1	4
618.064	1	-2
618.234	1	7
618.404	1	-5
618.573	1	6
618.743	1	1
618.913	1	5
619.082	1	4
619.252	1	4
619.422	1	6
619.591	1	-2
619.761	1	-3
619.931	1	9
620.100	1	3
620.270	1	2
620.440	1	-3
620.609	1	0
620.779	1	-14
620.949	1	3
621.118	1	-4
621.288	1	11
621.458	1	14
621.627	1	-6
621.797	1	9
621.967	1	-7
622.136	1	-2
622.306	1	-5
622.476	1	12
622.645	1	5
622.815	1	2
622.985	1	10
623.154	1	-1
623.324	1	0
623.494	1	8
623.663	1	-7
623.833	1	-5
624.002	1	9
624.172	1	-5
624.342	1	4
624.511	1	4
624.681	1	-4
624.851	1	0
625.020	1	5
625.190	1	9
625.360	1	1
625.529	1	5
625.699	1	0
625.869	1	3
626.038	1	-9
626.208	1	3
626.377	1	6
626.547	1	2
626.717	1	2
626.886	1	13
627.056	1	6
627.226	1	-6
627.395	1	-3
627.565	1	-7
627.735	1	5
627.904	1	-1
628.074	1	2
628.243	1	-4
628.413	1	13
628.583	1	-3
628.752	1	-1
628.922	1	4
629.091	1	-13
629.261	1	1
629.431	1	0
629.600	1	0
629.770	1	-2
629.940	1	10
630.109	1	3
630.279	1	-9
630.448	1	0
630.618	1	2
630.788	1	-3
630.957	1	1
631.127	1	5
631.297	1	-5
631.466	1	-5
631.636	1	-12
631.805	1	2
631.975	1	-8
632.145	1	6
632.314	1	-2
632.484	1	-2
632.653	1	-3
632.823	1	-3
632.993	1	4
633.162	1	0
633.332	1	14
633.501	1	3
633.671	1	1
633.841	1	15
634.010	1	1
634.180	1	5
634.349	1	-5
634.519	1	-4
634.689	1	5
634.858	1	2
635.028	1	-4
635.197	1	18
635.367	1	2
635.537	1	10
635.706	1	-6
635.876	1	6
636.045	1	-9
636.215	1	-4
636.384	1	-3
636.554	1	-2
636.724	1	0
636.893	1	2
637.063	1	0
637.232	1	-1
637.402	1	1
637.572	1	-2
637.741	1	2
637.911	1	3
638.080	1	4
638.250	1	3
638.419	1	2
638.589	1	-4
638.759	1	-3
638.928	1	4
639.098	1	-8
639.267	1	2
639.437	1	-4
639.606	1	7
639.776	1	9
639.946	1	-2
640.115	1	-2
640.285	1	-2
640.454	1	1
640.624	1	-9
640.793	1	-1
640.963	1	9
641.132	1	-3
641.302	1	11
641.472	1	-2
641.641	1	8
641.811	1	1
641.980	1	9
642.150	1	-14
642.319	1	1
642.489	1	-3
642.659	1	-9
642.828	1	-7
642.998	1	6
643.167	1	0
643.337	1	8
643.506	1	-8
643.676	1	3
643.845	1	-5
644.015	1	-2
644.184	1	9
644.354	1	-4
644.524	1	1
644.693	1	-13
644.863	1	0
645.032	1	0
645.202	1	-12
645.371	1	1
645.541	1	-5
645.710	1	6
645.880	1	-4
646.049	1	11
646.219	1	3
646.388	1	15
646.558	1	-6
646.728	1	10
646.897	1	-5
647.067	1	5
647.236	1	1
647.406	1	5
647.575	1	10
647.745	1	-1
647.914	1	-11
648.084	1	12
648.253	1	-17
648.423	1	6
648.592	1	0
648.762	1	-1
648.931	1	-7
649.101	1	8
649.270	1	3
649.440	1	5
649.610	1	0
649.779	1	7
649.949	1	4
650.118	1	-2
650.288	1	1
650.457	1	-3
650.627	1	13
650.796	1	10
650.966	1	13
651.135	1	-6
651.305	1	5
651.474	1	8
651.644	1	5
651.813	1	-8
651.983	1	5
652.152	1	1
652.322	1	0
652.491	1	4
652.661	1	4
652.830	1	3
653.000	1	1
653.169	1	-1
653.339	1	0
653.508	1	9
653.678	1	0
653.847	1	-4
654.017	1	1
654.186	1	8
654.356	1	-2
654.525	1	1
654.695	1	6
654.864	1	6
655.034	1	16
655.203	1	-11
655.373	1	-1
655.542	1	-6
655.712	1	-3
655.881	1	-2
656.051	1	-1
656.220	1	-2
656.390	1	9
656.559	1	5
656.729	1	1
656.898	1	-10
657.068	1	16
657.237	1	-1
657.406	1	-9
657.576	1	5
657.745	1	2
657.915	1	-3
658.084	1	5
658.254	1	3
658.423	1	22
658.593	1	-2
658.762	1	-4
658.932	1	-3
659.101	1	0
659.271	1	7
659.440	1	11
659.610	1	1
659.779	1	-1
659.949	1	1
660.118	1	4
660.288	1	9
660.457	1	3
660.626	1	0
660.796	1	-10
660.965	1	-11
661.135	1	-4
661.304	1	10
661.474	1	13
661.643	1	5
661.813	1	-4
661.982	1	5
662.152	1	3
662.321	1	7
662.491	1	2
662.660	1	7
662.829	1	-8
662.999	1	1
663.168	1	-3
663.338	1	14
663.507	1	8
663.677	1	-1
663.846	1	16
664.016	1	2
664.185	1	12
664.354	1	-6
664.524	1	3
664.693	1	-2
664.863	1	-5
665.032	1	-2
665.202	1	5
665.371	1	2
665.541	1	0
665.710	1	0
665.879	1	0
666.049	1	0
666.218	1	6
666.388	1	6
666.557	1	-1
666.727	1	-2
666.896	1	3
667.065	1	12
667.235	1	6
667.404	1	-3
667.574	1	6
667.743	1	0
667.913	1	-4
668.082	1	9
668.251	1	3
668.421	1	-4
668.590	1	7
668.760	1	-3
668.929	1	10
669.099	1	5
669.268	1	7
669.437	1	4
669.607	1	-2
669.776	1	-7
669.946	1	10
670.115	1	-4
670.285	1	0
670.454	1	9
670.623	1	3
670.793	1	-1
670.962	1	-3
671.132	1	-8
671.301	1	-1
671.470	1	-4
671.640	1	-9
671.809	1	3
671.979	1	1
672.148	1	3
672.317	1	-1
672.487	1	3
672.656	1	2
672.826	1	-1
672.995	1	2
673.164	1	-2
673.334	1	7
673.503	1	-3
673.673	1	-3
673.842	1	-6
674.011	1	0
674.181	1	4
674.350	1	1
674.520	1	4
674.689	1	-3
674.858	1	0
675.028	1	-4
675.197	1	4
675.367	1	-2
675.536	1	4
675.705	1	5
675.875	1	5
676.044	1	-4
676.214	1	4
676.383	1	-9
676.552	1	-4
676.722	1	0
676.891	1	8
677.060	1	5
677.230	1	-7
677.399	1	6
677.569	1	5
677.738	1	7
677.907	1	-7
678.077	1	-5
678.246	1	-7
678.416	1	14
678.585	1	9
678.754	1	-3
678.924	1	-5
679.093	1	-2
679.262	1	-8
679.432	1	9
679.601	1	-9
679.771	1	8
679.940	1	8
680.109	1	7
680.279	1	9
680.448	1	9
680.617	1	2
680.787	1	6
680.956	1	-3
681.125	1	6
681.295	1	-4
681.464	1	-2
681.634	1	4
681.803	1	7
681.972	1	9
682.142	1	-10
682.311	1	9
682.480	1	-3
682.650	1	6
682.819	1	-10
682.988	1	-4
683.158	1	-1
683.327	1	8
683.496	1	1
683.666	1	2
683.835	1	-5
684.004	1	9
684.174	1	-6
684.343	1	0
684.512	1	6
684.682	1	10
684.851	1	8
685.021	1	-6
685.190	1	5
685.359	1	3
685.529	1	-3
685.698	1	-2
685.867	1	-3
686.037	1	-3
686.206	1	10
686.375	1	2
686.545	1	3
686.714	1	-2
686.883	1	2
687.053	1	-3
687.222	1	1
687.391	1	-4
687.561	1	2
687.730	1	-8
687.899	1	5
688.069	1	-2
688.238	1	0
688.407	1	3
688.577	1	12
688.746	1	4
