340.368	1	-8
340.539	1	3
340.710	1	11
340.881	1	-8
341.052	1	-1
341.223	1	6
341.394	1	-1
341.565	1	3
341.737	1	11
341.908	1	-5
342.079	1	4
342.250	1	4
342.421	1	10
342.592	1	8
342.763	1	5
342.934	1	12
343.105	1	10
343.276	1	2
343.447	1	6
343.618	1	-4
343.789	1	13
343.960	1	4
344.131	1	-3
344.302	1	5
344.473	1	-6
344.644	1	-8
344.815	1	14
344.986	1	2
345.157	1	-4
345.328	1	9
345.499	1	10
345.670	1	-2
345.841	1	-5
346.012	1	0
346.183	1	0
346.354	1	8
346.526	1	-3
346.697	1	6
346.868	1	-2
347.039	1	4
347.210	1	-8
347.381	1	5
347.552	1	7
347.723	1	-4
347.894	1	-2
348.065	1	-4
348.236	1	6
348.407	1	-7
348.578	1	-8
348.749	1	9
348.920	1	2
349.091	1	1
349.262	1	-3
349.433	1	-4
349.604	1	-2
349.775	1	6
349.946	1	4
350.117	1	7
350.288	1	-4
350.459	1	-1
350.630	1	-2
350.801	1	-3
350.972	1	3
351.143	1	-1
351.314	1	9
351.485	1	-9
351.656	1	2
351.827	1	-6
351.998	1	6
352.169	1	-4
352.340	1	9
352.511	1	-4
352.682	1	7
352.853	1	3
353.024	1	9
353.195	1	0
353.366	1	1
353.537	1	0
353.708	1	10
353.879	1	-3
354.050	1	-1
354.221	1	-5
354.392	1	-2
354.563	1	-5
354.734	1	13
354.905	1	6
355.076	1	6
355.247	1	9
355.418	1	-8
355.589	1	11
355.760	1	-6
355.931	1	0
356.102	1	1
356.273	1	-2
356.444	1	3
356.615	1	-2
356.785	1	3
356.956	1	4
357.127	1	0
357.298	1	8
357.469	1	-3
357.640	1	2
357.811	1	1
357.982	1	1
358.153	1	0
358.324	1	4
358.495	1	2
358.666	1	1
358.837	1	7
359.008	1	7
359.179	1	11
359.350	1	-6
359.521	1	2
359.692	1	-14
359.863	1	2
360.034	1	10
360.205	1	1
360.376	1	14
360.547	1	4
360.718	1	7
360.889	1	0
361.060	1	6
361.231	1	-2
361.401	1	6
361.572	1	3
361.743	1	4
361.914	1	5
362.085	1	11
362.256	1	-1
362.427	1	11
362.598	1	-3
362.769	1	5
362.940	1	0
363.111	1	11
363.282	1	1
363.453	1	6
363.624	1	-2
363.795	1	0
363.966	1	0
364.137	1	0
364.308	1	18
364.478	1	5
364.649	1	2
364.820	1	-3
364.991	1	12
365.162	1	-8
365.333	1	6
365.504	1	-4
365.675	1	-1
365.846	1	3
366.017	1	0
366.188	1	8
366.359	1	-3
366.530	1	0
366.701	1	-2
366.871	1	-3
367.042	1	-2
367.213	1	5
367.384	1	2
367.555	1	-7
367.726	1	5
367.897	1	-1
368.068	1	-2
368.239	1	-12
368.410	1	8
368.581	1	-2
368.752	1	3
368.923	1	5
369.093	1	1
369.264	1	3
369.435	1	-3
369.606	1	7
369.777	1	6
369.948	1	9
370.119	1	4
370.290	1	9
370.461	1	2
370.632	1	12
370.803	1	-7
370.973	1	1
371.144	1	5
371.315	1	10
371.486	1	6
371.657	1	6
371.828	1	-10
371.999	1	7
372.170	1	8
372.341	1	5
372.512	1	5
372.682	1	-9
372.853	1	0
373.024	1	1
373.195	1	0
373.366	1	-3
373.537	1	2
373.708	1	-1
373.879	1	-1
374.050	1	5
374.220	1	6
374.391	1	2
374.562	1	10
374.733	1	6
374.904	1	-4
375.075	1	5
375.246	1	-1
375.417	1	4
375.588	1	-7
375.758	1	-5
375.929	1	-3
376.100	1	1
376.271	1	0
376.442	1	0
376.613	1	3
376.784	1	-13
376.955	1	-2
377.125	1	3
377.296	1	17
377.467	1	6
377.638	1	-3
377.809	1	4
377.980	1	1
378.151	1	-4
378.321	1	-1
378.492	1	-5
378.663	1	-1
378.834	1	-4
379.005	1	18
379.176	1	-11
379.347	1	3
379.518	1	-1
379.688	1	-9
379.859	1	4
380.030	1	-5
380.201	1	-1
380.372	1	3
380.543	1	-4
380.714	1	6
380.884	1	0
381.055	1	2
381.226	1	-4
381.397	1	7
381.568	1	11
381.739	1	-9
381.910	1	12
382.080	1	-4
382.251	1	12
382.422	1	-6
382.593	1	-1
382.764	1	-2
382.935	1	-5
383.105	1	-1
383.276	1	5
383.447	1	-1
383.618	1	-4
383.789	1	5
383.960	1	1
384.130	1	3
384.301	1	1
384.472	1	-5
384.643	1	0
384.814	1	1
384.985	1	7
385.156	1	2
385.326	1	-5
385.497	1	0
385.668	1	4
385.839	1	-6
386.010	1	3
386.180	1	-8
386.351	1	-4
386.522	1	15
386.693	1	-1
386.864	1	1
387.035	1	4
387.205	1	4
387.376	1	-10
387.547	1	2
387.718	1	11
387.889	1	-1
388.060	1	0
388.230	1	9
388.401	1	-10
388.572	1	-8
388.743	1	4
388.914	1	-4
389.084	1	7
389.255	1	3
389.426	1	-5
389.597	1	-16
389.768	1	1
389.939	1	6
390.109	1	-8
390.280	1	4
390.451	1	-2
390.622	1	5
390.793	1	-3
390.963	1	-2
391.134	1	3
391.305	1	4
391.476	1	2
391.647	1	-5
391.817	1	2
391.988	1	1
392.159	1	7
392.330	1	-4
392.501	1	-1
392.671	1	8
392.842	1	3
393.013	1	3
393.184	1	0
393.355	1	-15
393.525	1	9
393.696	1	-11
393.867	1	3
394.038	1	7
394.208	1	2
394.379	1	7
394.550	1	-13
394.721	1	-5
394.892	1	1
395.062	1	-3
395.233	1	8
395.404	1	3
395.575	1	9
395.746	1	3
395.916	1	8
396.087	1	-5
396.258	1	4
396.429	1	1
396.599	1	6
396.770	1	-1
396.941	1	-10
397.112	1	7
397.283	1	0
397.453	1	-1
397.624	1	-6
397.795	1	4
397.966	1	4
398.136	1	-1
398.307	1	-2
398.478	1	-7
398.649	1	4
398.819	1	8
398.990	1	-6
399.161	1	-9
399.332	1	-1
399.503	1	2
399.673	1	9
399.844	1	-3
400.015	1	11
400.186	1	-4
400.356	1	15
400.527	1	-3
400.698	1	11
400.869	1	-1
401.039	1	1
401.210	1	-4
401.381	1	-1
401.552	1	-3
401.722	1	8
401.893	1	3
402.064	1	-3
402.235	1	-5
402.405	1	-6
402.576	1	10
402.747	1	2
402.918	1	1
403.088	1	-12
403.259	1	1
403.430	1	-1
403.601	1	2
403.771	1	-4
403.942	1	6
404.113	1	-1
404.284	1	9
404.454	1	-6
404.625	1	10
404.796	1	-3
404.967	1	3
405.137	1	-2
405.308	1	4
405.479	1	-9
405.649	1	-1
405.820	1	-1
405.991	1	4
406.162	1	-6
406.332	1	1
406.503	1	2
406.674	1	13
406.845	1	-2
407.015	1	4
407.186	1	10
407.357	1	-2
407.527	1	-1
407.698	1	1
407.869	1	3
408.040	1	-6
408.210	1	-3
408.381	1	2
408.552	1	9
408.722	1	5
408.893	1	0
409.064	1	3
409.235	1	1
409.405	1	3
409.576	1	7
409.747	1	9
409.917	1	1
410.088	1	5
410.259	1	1
410.430	1	-2
410.600	1	1
410.771	1	9
410.942	1	7
411.112	1	11
411.283	1	-7
411.454	1	-2
411.625	1	-11
411.795	1	3
411.966	1	1
412.137	1	2
412.307	1	5
412.478	1	-1
412.649	1	-5
412.819	1	2
412.990	1	-4
413.161	1	9
413.332	1	2
413.502	1	-5
413.673	1	12
413.844	1	11
414.014	1	-3
414.185	1	-3
414.356	1	15
414.526	1	-9
414.697	1	2
414.868	1	-14
415.038	1	13
415.209	1	5
415.380	1	-5
415.550	1	-1
415.721	1	10
415.892	1	4
416.063	1	1
416.233	1	-1
416.404	1	-7
416.575	1	9
416.745	1	12
416.916	1	6
417.087	1	4
417.257	1	-3
417.428	1	2
417.599	1	-4
417.769	1	2
417.940	1	0
418.111	1	3
418.281	1	-2
418.452	1	3
418.623	1	6
418.793	1	7
418.964	1	-8
419.135	1	3
419.305	1	6
419.476	1	18
419.647	1	-2
419.817	1	0
419.988	1	9
420.159	1	-10
420.329	1	-1
420.500	1	-3
420.671	1	2
420.841	1	5
421.012	1	-2
421.183	1	0
421.353	1	10
421.524	1	2
421.695	1	-7
421.865	1	1
422.036	1	-7
422.206	1	2
422.377	1	0
422.548	1	-5
422.718	1	5
422.889	1	-3
423.060	1	14
423.230	1	-1
423.401	1	-5
423.572	1	-6
423.742	1	4
423.913	1	-5
424.084	1	5
424.254	1	5
424.425	1	-10
424.595	1	2
424.766	1	15
424.937	1	-7
425.107	1	5
425.278	1	-4
425.449	1	2
425.619	1	2
425.790	1	12
425.961	1	1
426.131	1	-7
426.302	1	6
426.472	1	1
426.643	1	-8
426.814	1	-9
426.984	1	3
427.155	1	10
427.326	1	3
427.496	1	-4
427.667	1	11
427.837	1	12
428.008	1	3
428.179	1	0
428.349	1	6
428.520	1	-2
428.691	1	3
428.861	1	0
429.032	1	3
429.202	1	4
429.373	1	8
429.544	1	-12
429.714	1	1
429.885	1	-1
430.055	1	3
430.226	1	6
430.397	1	1
430.567	1	5
430.738	1	2
430.909	1	-2
431.079	1	0
431.250	1	-1
431.420	1	14
431.591	1	15
431.762	1	10
431.932	1	8
432.103	1	-5
432.273	1	0
432.444	1	-3
432.615	1	-1
432.785	1	4
432.956	1	-7
433.126	1	7
433.297	1	6
433.468	1	1
433.638	1	-5
433.809	1	-12
433.979	1	-7
434.150	1	5
434.320	1	1
434.491	1	10
434.662	1	-4
434.832	1	-5
435.003	1	-8
435.173	1	8
435.344	1	6
435.515	1	9
435.685	1	-5
435.856	1	-8
436.026	1	4
436.197	1	2
436.368	1	-5
436.538	1	3
436.709	1	5
436.879	1	-2
437.050	1	17
437.220	1	6
437.391	1	-2
437.562	1	1
437.732	1	-5
437.903	1	-9
438.073	1	9
438.244	1	8
438.414	1	-9
438.585	1	5
438.756	1	-9
438.926	1	8
439.097	1	-2
439.267	1	10
439.438	1	0
439.608	1	1
439.779	1	-1
439.949	1	-2
440.120	1	5
440.291	1	3
440.461	1	2
440.632	1	-10
440.802	1	-2
440.973	1	4
441.143	1	-3
441.314	1	-2
441.485	1	2
441.655	1	-6
441.826	1	1
441.996	1	5
442.167	1	-3
442.337	1	-1
442.508	1	4
442.678	1	-2
442.849	1	7
443.019	1	-5
443.190	1	5
443.361	1	-3
443.531	1	8
443.702	1	-3
443.872	1	8
444.043	1	-10
444.213	1	-7
444.384	1	-1
444.554	1	-6
444.725	1	-9
444.895	1	-5
445.066	1	3
445.237	1	-11
445.407	1	-8
445.578	1	-1
445.748	1	-2
445.919	1	6
446.089	1	11
446.260	1	-4
446.430	1	-2
446.601	1	2
446.771	1	5
446.942	1	-5
447.112	1	6
447.283	1	-7
447.453	1	12
447.624	1	1
447.794	1	5
447.965	1	-12
448.135	1	6
448.306	1	-4
448.477	1	7
448.647	1	11
448.818	1	6
448.988	1	4
449.159	1	8
449.329	1	1
449.500	1	6
449.670	1	6
449.841	1	6
450.011	1	-7
450.182	1	-3
450.352	1	-6
450.523	1	1
450.693	1	3
450.864	1	7
451.034	1	3
451.205	1	1
451.375	1	0
451.546	1	9
451.716	1	4
451.887	1	-5
452.057	1	-3
452.228	1	3
452.398	1	1
452.569	1	11
452.739	1	11
452.910	1	0
453.080	1	-6
453.251	1	-2
453.421	1	5
453.592	1	-4
453.762	1	8
453.933	1	9
454.103	1	1
454.274	1	-15
454.444	1	-3
454.615	1	6
454.785	1	-6
454.956	1	-7
455.126	1	4
455.297	1	-2
455.467	1	0
455.638	1	-3
455.808	1	1
455.979	1	0
456.149	1	7
456.320	1	-4
456.490	1	5
456.661	1	0
456.831	1	6
457.001	1	0
457.172	1	2
457.342	1	-5
457.513	1	-1
457.683	1	11
457.854	1	2
458.024	1	6
458.195	1	-3
458.365	1	7
458.536	1	2
458.706	1	7
458.877	1	-14
459.047	1	5
459.218	1	-12
459.388	1	7
459.559	1	-5
459.729	1	1
459.899	1	8
460.070	1	9
460.240	1	-14
460.411	1	-3
460.581	1	2
460.752	1	-1
460.922	1	1
461.093	1	1
461.263	1	7
461.434	1	8
461.604	1	3
461.775	1	0
461.945	1	8
462.115	1	7
462.286	1	0
462.456	1	0
462.627	1	1
462.797	1	-1
462.968	1	-2
463.138	1	3
463.309	1	0
463.479	1	5
463.649	1	-3
463.820	1	-6
463.990	1	5
464.161	1	0
464.331	1	9
464.502	1	-6
464.672	1	-3
464.843	1	1
465.013	1	-3
465.183	1	4
465.354	1	0
465.524	1	0
465.695	1	-1
465.865	1	-1
466.036	1	3
466.206	1	-1
466.376	1	-7
466.547	1	5
466.717	1	5
466.888	1	1
467.058	1	-4
467.229	1	-7
467.399	1	6
467.569	1	2
467.740	1	5
467.910	1	-1
468.081	1	2
468.251	1	-2
468.422	1	3
468.592	1	5
468.762	1	-1
468.933	1	8
469.103	1	-9
469.274	1	-5
469.444	1	0
469.614	1	-2
469.785	1	10
469.955	1	0
470.126	1	-1
470.296	1	-5
470.467	1	4
470.637	1	9
470.807	1	-4
470.978	1	6
471.148	1	8
471.319	1	6
471.489	1	4
471.659	1	-3
471.830	1	-2
472.000	1	-1
472.171	1	6
472.341	1	2
472.511	1	8
472.682	1	5
472.852	1	1
473.023	1	-6
473.193	1	7
473.363	1	0
473.534	1	8
473.704	1	3
473.875	1	-6
474.045	1	-7
474.215	1	12
474.386	1	9
474.556	1	17
474.727	1	3
474.897	1	-6
475.067	1	0
475.238	1	4
475.408	1	5
475.578	1	0
475.749	1	7
475.919	1	5
476.090	1	5
476.260	1	-2
476.430	1	-3
476.601	1	-4
476.771	1	0
476.942	1	-6
477.112	1	-13
477.282	1	3
477.453	1	0
477.623	1	-10
477.793	1	8
477.964	1	-1
478.134	1	4
478.305	1	2
478.475	1	3
478.645	1	3
478.816	1	-2
478.986	1	1
479.156	1	-2
479.327	1	-5
479.497	1	3
479.667	1	-1
479.838	1	1
480.008	1	6
480.179	1	4
480.349	1	-7
480.519	1	-6
480.690	1	-9
480.860	1	-3
481.030	1	3
481.201	1	-4
481.371	1	3
481.541	1	1
481.712	1	6
481.882	1	-4
482.053	1	17
482.223	1	-1
482.393	1	3
482.564	1	10
482.734	1	6
482.904	1	7
483.075	1	-12
483.245	1	8
483.415	1	-1
483.586	1	5
483.756	1	-4
483.926	1	7
484.097	1	-3
484.267	1	5
484.437	1	4
484.608	1	14
484.778	1	5
484.948	1	-7
485.119	1	2
485.289	1	2
485.459	1	15
485.630	1	-5
485.800	1	3
485.970	1	8
486.141	1	6
486.311	1	-10
486.481	1	-3
486.652	1	4
486.822	1	1
486.992	1	5
487.163	1	2
487.333	1	-6
487.503	1	3
487.674	1	3
487.844	1	7
488.014	1	8
488.185	1	-1
488.355	1	-2
488.525	1	5
488.696	1	2
488.866	1	1
489.036	1	-7
489.207	1	-4
489.377	1	0
489.547	1	9
489.718	1	0
489.888	1	5
490.058	1	-15
490.228	1	2
490.399	1	1
490.569	1	15
490.739	1	-1
490.910	1	8
491.080	1	-8
491.250	1	2
491.421	1	-2
491.591	1	2
491.761	1	3
491.932	1	9
492.102	1	-8
492.272	1	-7
492.442	1	1
492.613	1	0
492.783	1	-1
492.953	1	3
493.124	1	7
493.294	1	-11
493.464	1	5
493.635	1	-2
493.805	1	3
493.975	1	-2
494.145	1	-4
494.316	1	1
494.486	1	9
494.656	1	1
494.827	1	-12
494.997	1	5
495.167	1	-2
495.337	1	4
495.508	1	8
495.678	1	-1
495.848	1	10
496.019	1	-1
496.189	1	6
496.359	1	3
496.529	1	-5
496.700	1	4
496.870	1	1
497.040	1	5
497.211	1	8
497.381	1	0
497.551	1	-2
497.721	1	4
497.892	1	10
498.062	1	-11
498.232	1	9
498.403	1	5
498.573	1	2
498.743	1	-3
498.913	1	-1
499.084	1	0
499.254	1	-2
499.424	1	6
499.594	1	4
499.765	1	1
499.935	1	-3
500.105	1	11
500.275	1	8
500.446	1	10
500.616	1	-7
500.786	1	-1
500.956	1	3
501.127	1	-6
501.297	1	-7
501.467	1	-3
501.638	1	13
501.808	1	-8
501.978	1	5
502.148	1	11
502.319	1	4
502.489	1	-4
502.659	1	3
502.829	1	5
503.000	1	-9
503.170	1	5
503.340	1	-1
503.510	1	8
503.681	1	-2
503.851	1	0
504.021	1	1
504.191	1	3
504.362	1	1
504.532	1	9
504.702	1	10
504.872	1	11
505.042	1	-1
505.213	1	-7
505.383	1	4
505.553	1	4
505.723	1	4
505.894	1	6
506.064	1	-6
506.234	1	-5
506.404	1	-1
506.575	1	-4
506.745	1	-2
506.915	1	11
507.085	1	2
507.256	1	6
507.426	1	-3
507.596	1	10
507.766	1	2
507.936	1	-5
508.107	1	10
508.277	1	7
508.447	1	7
508.617	1	0
508.788	1	15
508.958	1	-10
509.128	1	-3
509.298	1	2
509.468	1	0
509.639	1	3
509.809	1	-6
509.979	1	11
510.149	1	9
510.319	1	-2
510.490	1	10
510.660	1	7
510.830	1	-3
511.000	1	-5
511.171	1	-1
511.341	1	10
511.511	1	-3
511.681	1	10
511.851	1	5
512.022	1	-4
512.192	1	0
512.362	1	10
512.532	1	-2
512.702	1	3
512.873	1	4
513.043	1	5
513.213	1	2
513.383	1	-6
513.553	1	6
513.724	1	6
513.894	1	-2
514.064	1	-3
514.234	1	5
514.404	1	6
514.575	1	0
514.745	1	8
514.915	1	0
515.085	1	-1
515.255	1	8
515.425	1	6
515.596	1	5
515.766	1	4
515.936	1	9
516.106	1	4
516.276	1	2
516.447	1	11
516.617	1	2
516.787	1	1
516.957	1	2
517.127	1	8
517.297	1	11
517.468	1	2
517.638	1	1
517.808	1	4
517.978	1	-3
518.148	1	5
518.319	1	5
518.489	1	4
518.659	1	3
518.829	1	-5
518.999	1	3
519.169	1	1
519.340	1	10
519.510	1	-3
519.680	1	9
519.850	1	-11
520.020	1	10
520.190	1	-4
520.361	1	-3
520.531	1	2
520.701	1	3
520.871	1	-1
521.041	1	4
521.211	1	-1
521.382	1	1
521.552	1	6
521.722	1	5
521.892	1	2
522.062	1	0
522.232	1	1
522.402	1	-10
522.573	1	7
522.743	1	-2
522.913	1	13
523.083	1	7
523.253	1	3
523.423	1	3
523.593	1	-7
523.764	1	0
523.934	1	-5
524.104	1	1
524.274	1	0
524.444	1	2
524.614	1	5
524.784	1	0
524.955	1	5
525.125	1	-4
525.295	1	-4
525.465	1	-5
525.635	1	3
525.805	1	3
525.975	1	4
526.146	1	0
526.316	1	0
526.486	1	9
526.656	1	4
526.826	1	5
526.996	1	-6
527.166	1	19
527.337	1	2
527.507	1	3
527.677	1	1
527.847	1	7
528.017	1	-12
528.187	1	-4
528.357	1	0
528.527	1	-5
528.698	1	0
528.868	1	-2
529.038	1	13
529.208	1	-3
529.378	1	-8
529.548	1	16
529.718	1	-3
529.888	1	2
530.058	1	-2
530.229	1	6
530.399	1	3
530.569	1	-3
530.739	1	-16
530.909	1	-5
531.079	1	15
531.249	1	-3
531.419	1	5
531.589	1	-1
531.760	1	-3
531.930	1	2
532.100	1	8
532.270	1	10
532.440	1	-9
532.610	1	-2
532.780	1	-3
532.950	1	4
533.120	1	10
533.290	1	-9
533.461	1	4
533.631	1	-3
533.801	1	4
533.971	1	5
534.141	1	4
534.311	1	13
534.481	1	-4
534.651	1	-4
534.821	1	6
534.991	1	2
535.162	1	9
535.332	1	-3
535.502	1	12
535.672	1	8
535.842	1	6
536.012	1	-8
536.182	1	1
536.352	1	-5
536.522	1	1
536.692	1	5
536.862	1	1
537.032	1	0
537.203	1	5
537.373	1	-4
537.543	1	5
537.713	1	2
537.883	1	13
538.053	1	0
538.223	1	6
538.393	1	3
538.563	1	9
538.733	1	-7
538.903	1	-6
539.073	1	-4
539.243	1	7
539.413	1	-2
539.584	1	4
539.754	1	-5
539.924	1	6
540.094	1	5
540.264	1	-1
540.434	1	6
540.604	1	-5
540.774	1	0
540.944	1	-1
541.114	1	-6
541.284	1	-2
541.454	1	2
541.624	1	-7
541.794	1	-4
541.964	1	4
542.134	1	-8
542.305	1	9
542.475	1	4
542.645	1	3
542.815	1	5
542.985	1	-1
543.155	1	4
543.325	1	-11
543.495	1	-6
543.665	1	3
543.835	1	9
544.005	1	-9
544.175	1	-4
544.345	1	-2
544.515	1	13
544.685	1	5
544.855	1	5
545.025	1	-4
545.195	1	-3
545.365	1	-6
545.535	1	1
545.705	1	9
545.875	1	-6
546.045	1	10
546.216	1	-11
546.386	1	5
546.556	1	15
546.726	1	-4
546.896	1	7
547.066	1	2
547.236	1	4
547.406	1	10
547.576	1	-4
547.746	1	-4
547.916	1	-7
548.086	1	10
548.256	1	3
548.426	1	7
548.596	1	-3
548.766	1	7
548.936	1	-1
549.106	1	0
549.276	1	-6
549.446	1	9
549.616	1	7
549.786	1	5
549.956	1	5
550.126	1	3
550.296	1	13
550.466	1	8
550.636	1	8
550.806	1	2
550.976	1	-11
551.146	1	-6
551.316	1	2
551.486	1	15
551.656	1	8
551.826	1	5
551.996	1	-9
552.166	1	4
552.336	1	-1
552.506	1	5
552.676	1	6
552.846	1	-6
553.016	1	-1
553.186	1	2
553.356	1	3
553.526	1	10
553.696	1	2
553.866	1	-5
554.036	1	-3
554.206	1	-6
554.376	1	13
554.546	1	4
554.716	1	3
554.886	1	-3
555.056	1	8
555.226	1	7
555.396	1	2
555.566	1	4
555.736	1	-4
555.906	1	5
556.076	1	11
556.246	1	7
556.416	1	4
556.586	1	5
556.756	1	13
556.926	1	8
557.096	1	7
557.266	1	4
557.436	1	5
557.606	1	-5
557.776	1	-4
557.946	1	7
558.116	1	3
558.286	1	1
558.456	1	9
558.626	1	16
558.796	1	-2
558.966	1	0
559.136	1	3
559.306	1	-1
559.476	1	11
559.646	1	-4
559.816	1	10
559.986	1	-3
560.155	1	5
560.325	1	3
560.495	1	4
560.665	1	21
560.835	1	5
561.005	1	2
561.175	1	-1
561.345	1	3
561.515	1	-8
561.685	1	7
561.855	1	-5
562.025	1	2
562.195	1	-1
562.365	1	7
562.535	1	5
562.705	1	7
562.875	1	2
563.045	1	1
563.215	1	-6
563.385	1	-2
563.555	1	5
563.725	1	-1
563.895	1	9
564.064	1	2
564.234	1	-6
564.404	1	-1
564.574	1	-4
564.744	1	7
564.914	1	-1
565.084	1	4
565.254	1	3
565.424	1	10
565.594	1	0
565.764	1	2
565.934	1	1
566.104	1	4
566.274	1	-4
566.444	1	10
566.614	1	4
566.783	1	-9
566.953	1	-1
567.123	1	8
567.293	1	-8
567.463	1	-5
567.633	1	9
567.803	1	-2
567.973	1	1
568.143	1	5
568.313	1	2
568.483	1	9
568.653	1	3
568.823	1	2
568.993	1	5
569.162	1	1
569.332	1	2
569.502	1	-11
569.672	1	1
569.842	1	14
570.012	1	11
570.182	1	1
570.352	1	-7
570.522	1	-2
570.692	1	6
570.862	1	11
571.031	1	-8
571.201	1	-5
571.371	1	-15
571.541	1	-2
571.711	1	12
571.881	1	0
572.051	1	-5
572.221	1	6
572.391	1	8
572.561	1	-2
572.731	1	-2
572.900	1	1
573.070	1	3
573.240	1	3
573.410	1	5
573.580	1	4
573.750	1	-3
573.920	1	-3
574.090	1	4
574.260	1	7
574.430	1	0
574.599	1	6
574.769	1	10
574.939	1	1
575.109	1	-7
575.279	1	-3
575.449	1	7
575.619	1	-3
575.789	1	3
575.959	1	-5
576.128	1	14
576.298	1	4
576.468	1	5
576.638	1	1
576.808	1	8
576.978	1	5
577.148	1	-4
577.318	1	3
577.487	1	7
577.657	1	-15
577.827	1	3
577.997	1	-1
578.167	1	2
578.337	1	8
578.507	1	-5
578.677	1	-9
578.846	1	4
579.016	1	3
579.186	1	-4
579.356	1	4
579.526	1	-2
579.696	1	6
579.866	1	-4
580.036	1	4
580.205	1	15
580.375	1	1
580.545	1	3
580.715	1	1
580.885	1	7
581.055	1	6
581.225	1	8
581.394	1	1
581.564	1	2
581.734	1	-5
581.904	1	-2
582.074	1	-4
582.244	1	9
582.414	1	-16
582.583	1	-6
582.753	1	-9
582.923	1	-4
583.093	1	14
583.263	1	9
583.433	1	6
583.603	1	2
583.772	1	4
583.942	1	6
584.112	1	-3
584.282	1	1
584.452	1	-11
584.622	1	-8
584.791	1	-6
584.961	1	-1
585.131	1	6
585.301	1	4
585.471	1	3
585.641	1	0
585.811	1	-2
585.980	1	6
586.150	1	2
586.320	1	1
586.490	1	1
586.660	1	-1
586.830	1	3
586.999	1	-1
587.169	1	7
587.339	1	-2
587.509	1	7
587.679	1	0
587.849	1	-2
588.018	1	-5
588.188	1	3
588.358	1	-4
588.528	1	6
588.698	1	-11
588.867	1	10
589.037	1	-8
589.207	1	-14
589.377	1	-13
589.547	1	2
589.717	1	-9
589.886	1	0
590.056	1	2
590.226	1	13
590.396	1	9
590.566	1	-8
590.735	1	0
590.905	1	-2
591.075	1	9
591.245	1	-1
591.415	1	-6
591.585	1	-1
591.754	1	10
591.924	1	11
592.094	1	5
592.264	1	0
592.434	1	2
592.603	1	-5
592.773	1	-2
592.943	1	6
593.113	1	6
593.283	1	1
593.452	1	-8
593.622	1	2
593.792	1	12
593.962	1	1
594.132	1	6
594.301	1	9
594.471	1	4
594.641	1	-8
594.811	1	4
594.981	1	8
595.150	1	-4
595.320	1	-7
595.490	1	-5
595.660	1	8
595.829	1	6
595.999	1	3
596.169	1	1
596.339	1	12
596.509	1	3
596.678	1	3
596.848	1	10
597.018	1	6
597.188	1	1
597.358	1	-2
597.527	1	-3
597.697	1	-4
597.867	1	4
598.037	1	7
598.206	1	2
598.376	1	1
598.546	1	-1
598.716	1	5
598.885	1	0
599.055	1	0
599.225	1	-7
599.395	1	7
599.565	1	-7
599.734	1	11
599.904	1	-1
600.074	1	3
600.244	1	1
600.413	1	-4
600.583	1	-6
600.753	1	-6
600.923	1	9
601.092	1	-1
601.262	1	9
601.432	1	5
601.602	1	-2
601.771	1	6
601.941	1	4
602.111	1	7
602.281	1	8
602.451	1	-4
602.620	1	-4
602.790	1	5
602.960	1	7
603.130	1	2
603.299	1	-2
603.469	1	4
603.639	1	2
603.809	1	-10
603.978	1	-9
604.148	1	-3
604.318	1	4
604.487	1	6
604.657	1	8
604.827	1	9
604.997	1	11
605.166	1	2
605.336	1	1
605.506	1	0
605.676	1	13
605.845	1	2
606.015	1	-2
606.185	1	-9
606.355	1	8
606.524	1	3
606.694	1	11
606.864	1	1
607.034	1	-1
607.203	1	0
607.373	1	9
607.543	1	4
607.712	1	3
607.882	1	2
608.052	1	0
608.222	1	-8
608.391	1	-6
608.561	1	-3
608.731	1	-7
608.901	1	15
609.070	1	0
609.240	1	6
609.410	1	2
609.579	1	-5
609.749	1	0
609.919	1	3
610.089	1	5
610.258	1	7
610.428	1	4
610.598	1	3
610.767	1	-4
610.937	1	2
611.107	1	3
611.277	1	7
611.446	1	2
611.616	1	8
611.786	1	2
611.955	1	-2
612.125	1	-1
612.295	1	6
612.465	1	7
612.634	1	2
612.804	1	-2
612.974	1	4
613.143	1	8
613.313	1	4
613.483	1	-17
613.652	1	2
613.822	1	2
613.992	1	11
614.162	1	1
614.331	1	4
614.501	1	-13
614.671	1	-12
614.840	1	7
615.010	1	-6
615.180	1	8
615.349	1	8
615.519	1	0
615.689	1	-1
615.858	1	-4
616.028	1	-2
616.198	1	9
616.368	1	3
616.537	1	-6
616.707	1	-12
616.877	1	3
617.046	1	5
617.216	1	7
617.386	1	0
617.555	1	1
617.725	1	5
617.895	1	5
618.064	1	0
618.234	1	-9
618.404	1	-2
618.573	1	-3
618.743	1	3
618.913	1	3
619.082	1	0
619.252	1	1
619.422	1	5
619.591	1	1
619.761	1	-4
619.931	1	4
620.100	1	-2
620.270	1	11
620.440	1	-6
620.609	1	-1
620.779	1	-8
620.949	1	5
621.118	1	-11
621.288	1	3
621.458	1	6
621.627	1	-6
621.797	1	13
621.967	1	0
622.136	1	9
622.306	1	-1
622.476	1	5
622.645	1	7
622.815	1	-5
622.985	1	-3
623.154	1	-2
623.324	1	2
623.494	1	6
623.663	1	-9
623.833	1	-9
624.002	1	5
624.172	1	1
624.342	1	2
624.511	1	4
624.681	1	-8
624.851	1	-2
625.020	1	5
625.190	1	4
625.360	1	8
625.529	1	3
625.699	1	-1
625.869	1	-2
626.038	1	-4
626.208	1	9
626.377	1	3
626.547	1	-1
626.717	1	-3
626.886	1	9
627.056	1	0
627.226	1	-3
627.395	1	-5
627.565	1	-9
627.735	1	2
627.904	1	-11
628.074	1	3
628.243	1	-4
628.413	1	20
628.583	1	-8
628.752	1	10
628.922	1	11
629.091	1	6
629.261	1	-8
629.431	1	7
629.600	1	-4
629.770	1	4
629.940	1	7
630.109	1	9
630.279	1	-2
630.448	1	8
630.618	1	-5
630.788	1	-3
630.957	1	-10
631.127	1	9
631.297	1	-2
631.466	1	-8
631.636	1	-13
631.805	1	-2
631.975	1	0
632.145	1	-8
632.314	1	-5
632.484	1	2
632.653	1	-3
632.823	1	-7
632.993	1	-1
633.162	1	-3
633.332	1	8
633.501	1	4
633.671	1	1
633.841	1	14
634.010	1	-4
634.180	1	9
634.349	1	2
634.519	1	-4
634.689	1	9
634.858	1	-9
635.028	1	3
635.197	1	11
635.367	1	11
635.537	1	4
635.706	1	1
635.876	1	6
636.045	1	-13
636.215	1	2
636.384	1	-5
636.554	1	-8
636.724	1	-2
636.893	1	2
637.063	1	0
637.232	1	-8
637.402	1	-4
637.572	1	-3
637.741	1	3
637.911	1	9
638.080	1	2
638.250	1	-1
638.419	1	-2
638.589	1	-2
638.759	1	2
638.928	1	12
639.098	1	0
639.267	1	3
639.437	1	4
639.606	1	8
639.776	1	-4
639.946	1	-3
640.115	1	1
640.285	1	4
640.454	1	3
640.624	1	-7
640.793	1	-3
640.963	1	7
641.132	1	0
641.302	1	13
641.472	1	4
641.641	1	9
641.811	1	3
641.980	1	5
642.150	1	-7
642.319	1	1
642.489	1	-7
642.659	1	0
642.828	1	-4
642.998	1	2
643.167	1	2
643.337	1	6
643.506	1	-8
643.676	1	5
643.845	1	-2
644.015	1	3
644.184	1	12
644.354	1	-3
644.524	1	10
644.693	1	-2
644.863	1	8
645.032	1	-4
645.202	1	6
645.371	1	-1
645.541	1	-2
645.710	1	7
645.880	1	-3
646.049	1	7
646.219	1	1
646.388	1	7
646.558	1	8
646.728	1	11
646.897	1	-4
647.067	1	8
647.236	1	4
647.406	1	5
647.575	1	7
647.745	1	2
647.914	1	-7
648.084	1	5
648.253	1	-4
648.423	1	-4
648.592	1	-2
648.762	1	1
648.931	1	-13
649.101	1	6
649.270	1	-5
649.440	1	5
649.610	1	2
649.779	1	4
649.949	1	1
650.118	1	13
650.288	1	12
650.457	1	-13
650.627	1	3
650.796	1	12
650.966	1	11
651.135	1	3
651.305	1	1
651.474	1	3
651.644	1	-2
651.813	1	-2
651.983	1	11
652.152	1	2
652.322	1	-7
652.491	1	-3
652.661	1	5
652.830	1	5
653.000	1	1
653.169	1	0
653.339	1	6
653.508	1	2
653.678	1	1
653.847	1	-10
654.017	1	14
654.186	1	5
654.356	1	3
654.525	1	-5
654.695	1	1
654.864	1	10
655.034	1	12
655.203	1	-6
655.373	1	-5
655.542	1	-4
655.712	1	4
655.881	1	6
656.051	1	-5
656.220	1	4
656.390	1	-4
656.559	1	7
656.729	1	-2
656.898	1	-2
657.068	1	7
657.237	1	12
657.406	1	0
657.576	1	-3
657.745	1	-8
657.915	1	-3
658.084	1	-4
658.254	1	9
658.423	1	15
658.593	1	0
658.762	1	-7
658.932	1	-6
659.101	1	-4
659.271	1	12
659.440	1	8
659.610	1	4
659.779	1	-1
659.949	1	5
660.118	1	6
660.288	1	8
660.457	1	10
660.626	1	0
660.796	1	3
660.965	1	-11
661.135	1	-4
661.304	1	8
661.474	1	11
661.643	1	5
661.813	1	-7
661.982	1	8
662.152	1	10
662.321	1	8
662.491	1	2
662.660	1	-3
662.829	1	-8
662.999	1	4
663.168	1	2
663.338	1	9
663.507	1	2
663.677	1	7
663.846	1	12
664.016	1	4
664.185	1	3
664.354	1	1
664.524	1	2
664.693	1	-2
664.863	1	4
665.032	1	-6
665.202	1	4
665.371	1	3
665.541	1	-4
665.710	1	1
665.879	1	-2
666.049	1	0
666.218	1	-1
666.388	1	0
666.557	1	2
666.727	1	7
666.896	1	2
667.065	1	3
667.235	1	-13
667.404	1	0
667.574	1	9
667.743	1	2
667.913	1	-2
668.082	1	10
668.251	1	-8
668.421	1	-2
668.590	1	12
668.760	1	-8
668.929	1	6
669.099	1	-2
669.268	1	11
669.437	1	-9
669.607	1	-3
669.776	1	-3
669.946	1	12
670.115	1	1
670.285	1	-3
670.454	1	11
670.623	1	4
670.793	1	-1
670.962	1	-6
671.132	1	5
671.301	1	1
671.470	1	13
671.640	1	-9
671.809	1	4
671.979	1	-2
672.148	1	-5
672.317	1	0
672.487	1	10
672.656	1	11
672.826	1	0
672.995	1	5
673.164	1	0
673.334	1	1
673.503	1	-11
673.673	1	5
673.842	1	-6
674.011	1	-4
674.181	1	-3
674.350	1	-2
674.520	1	6
674.689	1	1
674.858	1	-3
675.028	1	0
675.197	1	1
675.367	1	0
675.536	1	-7
675.705	1	3
675.875	1	0
676.044	1	3
676.214	1	2
676.383	1	-11
676.552	1	-10
676.722	1	7
676.891	1	13
677.060	1	-3
677.230	1	3
677.399	1	0
677.569	1	11
677.738	1	2
677.907	1	-3
678.077	1	-8
678.246	1	-3
678.416	1	4
678.585	1	6
678.754	1	4
678.924	1	-4
679.093	1	8
679.262	1	1
679.432	1	2
679.601	1	-11
679.771	1	4
679.940	1	8
680.109	1	2
680.279	1	11
680.448	1	3
680.617	1	3
680.787	1	5
680.956	1	-6
681.125	1	-3
681.295	1	2
681.464	1	-4
681.634	1	0
681.803	1	-1
681.972	1	7
682.142	1	-2
682.311	1	0
682.480	1	2
682.650	1	6
682.819	1	-4
682.988	1	0
683.158	1	3
683.327	1	6
683.496	1	3
683.666	1	4
683.835	1	-3
684.004	1	-1
684.174	1	-9
684.343	1	-1
684.512	1	4
684.682	1	10
684.851	1	-4
685.021	1	5
685.190	1	11
685.359	1	7
685.529	1	-6
685.698	1	-6
685.867	1	-4
686.037	1	1
686.206	1	2
686.375	1	5
686.545	1	-1
686.714	1	5
686.883	1	8
687.053	1	-6
687.222	1	-2
687.391	1	-1
687.561	1	-1
687.730	1	-1
687.899	1	13
688.069	1	4
688.238	1	-2
688.407	1	2
688.577	1	6
688.746	1	-3
