340.368	1	1
340.539	1	-3
340.710	1	-7
340.881	1	-3
341.052	1	2
341.223	1	9
341.394	1	1
341.565	1	11
341.737	1	5
341.908	1	-4
342.079	1	-7
342.250	1	4
342.421	1	9
342.592	1	5
342.763	1	4
342.934	1	10
343.105	1	-4
343.276	1	-1
343.447	1	1
343.618	1	-5
343.789	1	15
343.960	1	1
344.131	1	-7
344.302	1	0
344.473	1	-15
344.644	1	-5
344.815	1	6
344.986	1	6
345.157	1	-16
345.328	1	7
345.499	1	7
345.670	1	3
345.841	1	-6
346.012	1	-2
346.183	1	-9
346.354	1	3
346.526	1	-4
346.697	1	8
346.868	1	-7
347.039	1	5
347.210	1	-9
347.381	1	-5
347.552	1	2
347.723	1	-2
347.894	1	0
348.065	1	-8
348.236	1	1
348.407	1	-1
348.578	1	10
348.749	1	1
348.920	1	-3
349.091	1	4
349.262	1	-5
349.433	1	-5
349.604	1	0
349.775	1	8
349.946	1	2
350.117	1	2
350.288	1	-7
350.459	1	7
350.630	1	0
350.801	1	5
350.972	1	4
351.143	1	-2
351.314	1	-1
351.485	1	-4
351.656	1	0
351.827	1	3
351.998	1	3
352.169	1	1
352.340	1	-2
352.511	1	1
352.682	1	2
352.853	1	-4
353.024	1	7
353.195	1	-11
353.366	1	-2
353.537	1	-6
353.708	1	12
353.879	1	0
354.050	1	-10
354.221	1	-10
354.392	1	12
354.563	1	-9
354.734	1	5
354.905	1	4
355.076	1	-4
355.247	1	12
355.418	1	0
355.589	1	3
355.760	1	-3
355.931	1	0
356.102	1	-8
356.273	1	-4
356.444	1	3
356.615	1	1
356.785	1	3
356.956	1	4
357.127	1	4
357.298	1	0
357.469	1	2
357.640	1	-5
357.811	1	1
357.982	1	-5
358.153	1	-6
358.324	1	1
358.495	1	7
358.666	1	-6
358.837	1	9
359.008	1	6
359.179	1	11
359.350	1	-10
359.521	1	10
359.692	1	-16
359.863	1	3
360.034	1	8
360.205	1	4
360.376	1	10
360.547	1	1
360.718	1	8
360.889	1	-1
361.060	1	2
361.231	1	3
361.401	1	7
361.572	1	8
361.743	1	-1
361.914	1	-6
362.085	1	15
362.256	1	8
362.427	1	1
362.598	1	0
362.769	1	7
362.940	1	-3
363.111	1	12
363.282	1	3
363.453	1	11
363.624	1	2
363.795	1	-4
363.966	1	4
364.137	1	2
364.308	1	13
364.478	1	-3
364.649	1	0
364.820	1	4
364.991	1	9
365.162	1	-8
365.333	1	0
365.504	1	-3
365.675	1	7
365.846	1	-3
366.017	1	15
366.188	1	10
366.359	1	5
366.530	1	8
366.701	1	0
366.871	1	4
367.042	1	3
367.213	1	4
367.384	1	18
367.555	1	7
367.726	1	13
367.897	1	11
368.068	1	8
368.239	1	1
368.410	1	9
368.581	1	6
368.752	1	14
368.923	1	6
369.093	1	16
369.264	1	13
369.435	1	12
369.606	1	7
369.777	1	12
369.948	1	12
370.119	1	9
370.290	1	10
370.461	1	10
370.632	1	10
370.803	1	11
370.973	1	5
371.144	1	8
371.315	1	15
371.486	1	3
371.657	1	21
371.828	1	-6
371.999	1	9
372.170	1	1
372.341	1	2
372.512	1	4
372.682	1	1
372.853	1	3
373.024	1	-1
373.195	1	-2
373.366	1	5
373.537	1	7
373.708	1	3
373.879	1	-9
374.050	1	6
374.220	1	0
374.391	1	8
374.562	1	2
374.733	1	7
374.904	1	5
375.075	1	-2
375.246	1	-5
375.417	1	5
375.588	1	-3
375.758	1	-3
375.929	1	0
376.100	1	12
376.271	1	-4
376.442	1	-4
376.613	1	6
376.784	1	-2
376.955	1	4
377.125	1	-1
377.296	1	12
377.467	1	-4
377.638	1	5
377.809	1	-6
377.980	1	7
378.151	1	1
378.321	1	2
378.492	1	-3
378.663	1	1
378.834	1	-2
379.005	1	5
379.176	1	1
379.347	1	8
379.518	1	1
379.688	1	-4
379.859	1	9
380.030	1	6
380.201	1	1
380.372	1	9
380.543	1	5
380.714	1	4
380.884	1	9
381.055	1	2
381.226	1	-10
381.397	1	4
381.568	1	10
381.739	1	-3
381.910	1	11
382.080	1	3
382.251	1	12
382.422	1	-2
382.593	1	6
382.764	1	-5
382.935	1	0
383.105	1	-5
383.276	1	-3
383.447	1	0
383.618	1	1
383.789	1	6
383.960	1	5
384.130	1	3
384.301	1	2
384.472	1	0
384.643	1	1
384.814	1	13
384.985	1	2
385.156	1	3
385.326	1	7
385.497	1	-2
385.668	1	12
385.839	1	-13
386.010	1	12
386.180	1	11
386.351	1	-1
386.522	1	9
386.693	1	0
386.864	1	10
387.035	1	2
387.205	1	5
387.376	1	-2
387.547	1	17
387.718	1	10
387.889	1	9
388.060	1	-1
388.230	1	13
388.401	1	3
388.572	1	0
388.743	1	2
388.914	1	-5
389.084	1	16
389.255	1	4
389.426	1	10
389.597	1	-9
389.768	1	14
389.939	1	8
390.109	1	3
390.280	1	-2
390.451	1	7
390.622	1	-7
390.793	1	3
390.963	1	-1
391.134	1	4
391.305	1	0
391.476	1	1
391.647	1	-1
391.817	1	8
391.988	1	9
392.159	1	9
392.330	1	3
392.501	1	-2
392.671	1	11
392.842	1	2
393.013	1	2
393.184	1	-3
393.355	1	-2
393.525	1	8
393.696	1	-3
393.867	1	1
394.038	1	3
394.208	1	5
394.379	1	-1
394.550	1	-7
394.721	1	7
394.892	1	1
395.062	1	-2
395.233	1	11
395.404	1	5
395.575	1	9
395.746	1	13
395.916	1	8
396.087	1	-1
396.258	1	8
396.429	1	-5
396.599	1	0
396.770	1	-2
396.941	1	-3
397.112	1	6
397.283	1	0
397.453	1	1
397.624	1	5
397.795	1	13
397.966	1	4
398.136	1	-5
398.307	1	8
398.478	1	4
398.649	1	13
398.819	1	-2
398.990	1	-3
399.161	1	-4
399.332	1	2
399.503	1	1
399.673	1	6
399.844	1	1
400.015	1	2
400.186	1	8
400.356	1	5
400.527	1	-2
400.698	1	-3
400.869	1	7
401.039	1	-9
401.210	1	-7
401.381	1	4
401.552	1	6
401.722	1	-6
401.893	1	6
402.064	1	-11
402.235	1	1
402.405	1	-3
402.576	1	10
402.747	1	12
402.918	1	-8
403.088	1	-10
403.259	1	8
403.430	1	10
403.601	1	0
403.771	1	-8
403.942	1	7
404.113	1	-2
404.284	1	7
404.454	1	-6
404.625	1	1
404.796	1	-4
404.967	1	13
405.137	1	14
405.308	1	6
405.479	1	-8
405.649	1	3
405.820	1	1
405.991	1	8
406.162	1	-8
406.332	1	-1
406.503	1	0
406.674	1	13
406.845	1	0
407.015	1	-3
407.186	1	2
407.357	1	10
407.527	1	5
407.698	1	7
407.869	1	9
408.040	1	0
408.210	1	3
408.381	1	-1
408.552	1	0
408.722	1	6
408.893	1	8
409.064	1	-3
409.235	1	-2
409.405	1	2
409.576	1	0
409.747	1	4
409.917	1	7
410.088	1	6
410.259	1	1
410.430	1	9
410.600	1	-9
410.771	1	4
410.942	1	1
411.112	1	-4
411.283	1	-4
411.454	1	6
411.625	1	7
411.795	1	13
411.966	1	-2
412.137	1	6
412.307	1	-1
412.478	1	-3
412.649	1	-1
412.819	1	12
412.990	1	-10
413.161	1	-4
413.332	1	0
413.502	1	4
413.673	1	10
413.844	1	-3
414.014	1	9
414.185	1	1
414.356	1	11
414.526	1	-1
414.697	1	4
414.868	1	-10
415.038	1	0
415.209	1	0
415.380	1	-5
415.550	1	-6
415.721	1	2
415.892	1	-3
416.063	1	8
416.233	1	0
416.404	1	0
416.575	1	2
416.745	1	1
416.916	1	-3
417.087	1	7
417.257	1	-1
417.428	1	0
417.599	1	-8
417.769	1	0
417.940	1	-4
418.111	1	7
418.281	1	7
418.452	1	-5
418.623	1	2
418.793	1	4
418.964	1	-6
419.135	1	-1
419.305	1	17
419.476	1	6
419.647	1	-5
419.817	1	-1
419.988	1	5
420.159	1	-9
420.329	1	-1
420.500	1	2
420.671	1	10
420.841	1	4
421.012	1	-2
421.183	1	0
421.353	1	8
421.524	1	4
421.695	1	-2
421.865	1	3
422.036	1	-10
422.206	1	2
422.377	1	-1
422.548	1	-9
422.718	1	1
422.889	1	-2
423.060	1	17
423.230	1	-5
423.401	1	6
423.572	1	2
423.742	1	2
423.913	1	-1
424.084	1	4
424.254	1	-1
424.425	1	-9
424.595	1	1
424.766	1	6
424.937	1	-9
425.107	1	3
425.278	1	8
425.449	1	6
425.619	1	11
425.790	1	-1
425.961	1	-6
426.131	1	1
426.302	1	-4
426.472	1	6
426.643	1	-9
426.814	1	-11
426.984	1	-6
427.155	1	19
427.326	1	2
427.496	1	2
427.667	1	3
427.837	1	15
428.008	1	4
428.179	1	2
428.349	1	5
428.520	1	0
428.691	1	12
428.861	1	-5
429.032	1	-1
429.202	1	0
429.373	1	4
429.544	1	-8
429.714	1	7
429.885	1	4
430.055	1	5
430.226	1	2
430.397	1	2
430.567	1	-5
430.738	1	4
430.909	1	8
431.079	1	-6
431.250	1	-4
431.420	1	7
431.591	1	13
431.762	1	11
431.932	1	10
432.103	1	-4
432.273	1	-1
432.444	1	-7
432.615	1	-4
432.785	1	-4
432.956	1	5
433.126	1	5
433.297	1	-10
433.468	1	-3
433.638	1	-9
433.809	1	-5
433.979	1	-2
434.150	1	7
434.320	1	-5
434.491	1	3
434.662	1	1
434.832	1	8
435.003	1	-8
435.173	1	-3
435.344	1	4
435.515	1	2
435.685	1	-1
435.856	1	-3
436.026	1	4
436.197	1	-6
436.368	1	-3
436.538	1	6
436.709	1	-2
436.879	1	4
437.050	1	1
437.220	1	7
437.391	1	-3
437.562	1	-4
437.732	1	0
437.903	1	-6
438.073	1	16
438.244	1	-7
438.414	1	-8
438.585	1	-3
438.756	1	6
438.926	1	-2
439.097	1	6
439.267	1	1
439.438	1	2
439.608	1	-2
439.779	1	-5
439.949	1	14
440.120	1	-2
440.291	1	-2
440.461	1	0
440.632	1	-2
440.802	1	-6
440.973	1	-1
441.143	1	0
441.314	1	8
441.485	1	-8
441.655	1	3
441.826	1	-2
441.996	1	3
442.167	1	-14
442.337	1	7
442.508	1	5
442.678	1	-9
442.849	1	-10
443.019	1	-3
443.190	1	0
443.361	1	-6
443.531	1	4
443.702	1	8
443.872	1	10
444.043	1	-7
444.213	1	-9
444.384	1	-6
444.554	1	-4
444.725	1	2
444.895	1	0
445.066	1	-2
445.237	1	-17
445.407	1	-7
445.578	1	-11
445.748	1	1
445.919	1	-1
446.089	1	14
446.260	1	-2
446.430	1	8
446.601	1	5
446.771	1	7
446.942	1	-7
447.112	1	16
447.283	1	-11
447.453	1	7
447.624	1	-6
447.794	1	9
447.965	1	-6
448.135	1	1
448.306	1	7
448.477	1	0
448.647	1	7
448.818	1	-7
448.988	1	-7
449.159	1	12
449.329	1	-7
449.500	1	9
449.670	1	-5
449.841	1	5
450.011	1	-7
450.182	1	-6
450.352	1	-11
450.523	1	4
450.693	1	0
450.864	1	4
451.034	1	1
451.205	1	0
451.375	1	-5
451.546	1	11
451.716	1	8
451.887	1	-6
452.057	1	-5
452.228	1	0
452.398	1	-3
452.569	1	-2
452.739	1	3
452.910	1	-1
453.080	1	-5
453.251	1	-5
453.421	1	5
453.592	1	1
453.762	1	5
453.933	1	10
454.103	1	-6
454.274	1	-16
454.444	1	-5
454.615	1	3
454.785	1	-5
454.956	1	7
455.126	1	1
455.297	1	-5
455.467	1	-3
455.638	1	11
455.808	1	-1
455.979	1	-2
456.149	1	-6
456.320	1	-4
456.490	1	2
456.661	1	-6
456.831	1	0
457.001	1	-3
457.172	1	9
457.342	1	-8
457.513	1	-4
457.683	1	2
457.854	1	2
458.024	1	4
458.195	1	1
458.365	1	-7
458.536	1	-1
458.706	1	4
458.877	1	-2
459.047	1	7
459.218	1	-8
459.388	1	7
459.559	1	1
459.729	1	6
459.899	1	3
460.070	1	-11
460.240	1	-3
460.411	1	-8
460.581	1	-15
460.752	1	-4
460.922	1	-6
461.093	1	-6
461.263	1	8
461.434	1	10
461.604	1	7
461.775	1	1
461.945	1	1
462.115	1	6
462.286	1	-2
462.456	1	7
462.627	1	1
462.797	1	-9
462.968	1	-8
463.138	1	1
463.309	1	0
463.479	1	5
463.649	1	4
463.820	1	-5
463.990	1	2
464.161	1	-9
464.331	1	0
464.502	1	5
464.672	1	-5
464.843	1	-5
465.013	1	-1
465.183	1	7
465.354	1	2
465.524	1	-8
465.695	1	3
465.865	1	-6
466.036	1	-6
466.206	1	-4
466.376	1	11
466.547	1	2
466.717	1	2
466.888	1	-4
467.058	1	-6
467.229	1	-5
467.399	1	-1
467.569	1	4
467.740	1	-1
467.910	1	3
468.081	1	6
468.251	1	7
468.422	1	-2
468.592	1	6
468.762	1	-9
468.933	1	-1
469.103	1	-1
469.274	1	6
469.444	1	-10
469.614	1	-4
469.785	1	6
469.955	1	2
470.126	1	3
470.296	1	0
470.467	1	-7
470.637	1	9
470.807	1	-3
470.978	1	-7
471.148	1	-6
471.319	1	3
471.489	1	-1
471.659	1	-3
471.830	1	2
472.000	1	1
472.171	1	9
472.341	1	3
472.511	1	4
472.682	1	2
472.852	1	-3
473.023	1	-4
473.193	1	5
473.363	1	-9
473.534	1	11
473.704	1	-7
473.875	1	-8
474.045	1	2
474.215	1	5
474.386	1	14
474.556	1	4
474.727	1	2
474.897	1	9
475.067	1	6
475.238	1	-2
475.408	1	7
475.578	1	-8
475.749	1	-1
475.919	1	-2
476.090	1	19
476.260	1	6
476.430	1	-7
476.601	1	4
476.771	1	2
476.942	1	-2
477.112	1	-7
477.282	1	-3
477.453	1	4
477.623	1	-4
477.793	1	7
477.964	1	-7
478.134	1	5
478.305	1	-8
478.475	1	-1
478.645	1	3
478.816	1	1
478.986	1	4
479.156	1	0
479.327	1	-2
479.497	1	6
479.667	1	0
479.838	1	-6
480.008	1	-7
480.179	1	4
480.349	1	-12
480.519	1	-10
480.690	1	-7
480.860	1	-2
481.030	1	5
481.201	1	1
481.371	1	6
481.541	1	-17
481.712	1	-6
481.882	1	2
482.053	1	2
482.223	1	-5
482.393	1	3
482.564	1	14
482.734	1	8
482.904	1	5
483.075	1	-6
483.245	1	6
483.415	1	1
483.586	1	11
483.756	1	-10
483.926	1	5
484.097	1	-4
484.267	1	7
484.437	1	5
484.608	1	5
484.778	1	4
484.948	1	-4
485.119	1	-2
485.289	1	1
485.459	1	3
485.630	1	-6
485.800	1	1
485.970	1	5
486.141	1	0
486.311	1	-3
486.481	1	8
486.652	1	6
486.822	1	-1
486.992	1	13
487.163	1	3
487.333	1	-8
487.503	1	7
487.674	1	9
487.844	1	4
488.014	1	0
488.185	1	0
488.355	1	4
488.525	1	5
488.696	1	-2
488.866	1	-2
489.036	1	-11
489.207	1	-3
489.377	1	1
489.547	1	17
489.718	1	9
489.888	1	6
490.058	1	-7
490.228	1	4
490.399	1	-3
490.569	1	16
490.739	1	1
490.910	1	-2
491.080	1	-4
491.250	1	-4
491.421	1	3
491.591	1	-15
491.761	1	10
491.932	1	7
492.102	1	4
492.272	1	0
492.442	1	-1
492.613	1	11
492.783	1	-3
492.953	1	-2
493.124	1	3
493.294	1	2
493.464	1	9
493.635	1	-1
493.805	1	4
493.975	1	-2
494.145	1	-8
494.316	1	-8
494.486	1	-3
494.656	1	-4
494.827	1	-5
494.997	1	5
495.167	1	6
495.337	1	19
495.508	1	7
495.678	1	7
495.848	1	7
496.019	1	-1
496.189	1	5
496.359	1	9
496.529	1	-11
496.700	1	-1
496.870	1	5
497.040	1	7
497.211	1	6
497.381	1	-3
497.551	1	0
497.721	1	5
497.892	1	2
498.062	1	-13
498.232	1	13
498.403	1	10
498.573	1	3
498.743	1	-10
498.913	1	9
499.084	1	3
499.254	1	-5
499.424	1	-3
499.594	1	-2
499.765	1	5
499.935	1	-2
500.105	1	17
500.275	1	9
500.446	1	-1
500.616	1	-5
500.786	1	1
500.956	1	3
501.127	1	5
501.297	1	1
501.467	1	-1
501.638	1	15
501.808	1	-10
501.978	1	2
502.148	1	-4
502.319	1	9
502.489	1	0
502.659	1	9
502.829	1	6
503.000	1	-5
503.170	1	2
503.340	1	7
503.510	1	3
503.681	1	-5
503.851	1	6
504.021	1	2
504.191	1	4
504.362	1	-15
504.532	1	6
504.702	1	2
504.872	1	3
505.042	1	-1
505.213	1	0
505.383	1	2
505.553	1	6
505.723	1	7
505.894	1	2
506.064	1	-7
506.234	1	-4
506.404	1	-2
506.575	1	-1
506.745	1	2
506.915	1	5
507.085	1	7
507.256	1	-2
507.426	1	-1
507.596	1	7
507.766	1	-5
507.936	1	-4
508.107	1	4
508.277	1	5
508.447	1	11
508.617	1	7
508.788	1	13
508.958	1	-10
509.128	1	13
509.298	1	0
509.468	1	-1
509.639	1	2
509.809	1	-2
509.979	1	15
510.149	1	4
510.319	1	-1
510.490	1	13
510.660	1	5
510.830	1	0
511.000	1	1
511.171	1	6
511.341	1	4
511.511	1	3
511.681	1	8
511.851	1	4
512.022	1	3
512.192	1	8
512.362	1	12
512.532	1	4
512.702	1	1
512.873	1	3
513.043	1	4
513.213	1	7
513.383	1	1
513.553	1	12
513.724	1	10
513.894	1	10
514.064	1	2
514.234	1	3
514.404	1	9
514.575	1	-4
514.745	1	6
514.915	1	-1
515.085	1	10
515.255	1	7
515.425	1	3
515.596	1	3
515.766	1	11
515.936	1	2
516.106	1	9
516.276	1	11
516.447	1	2
516.617	1	0
516.787	1	7
516.957	1	5
517.127	1	14
517.297	1	5
517.468	1	-4
517.638	1	7
517.808	1	-1
517.978	1	3
518.148	1	8
518.319	1	1
518.489	1	6
518.659	1	13
518.829	1	4
518.999	1	0
519.169	1	0
519.340	1	0
519.510	1	-6
519.680	1	3
519.850	1	-2
520.020	1	7
520.190	1	6
520.361	1	8
520.531	1	16
520.701	1	12
520.871	1	15
521.041	1	17
521.211	1	-8
521.382	1	7
521.552	1	7
521.722	1	12
521.892	1	1
522.062	1	11
522.232	1	3
522.402	1	-6
522.573	1	13
522.743	1	1
522.913	1	-2
523.083	1	11
523.253	1	-5
523.423	1	10
523.593	1	9
523.764	1	8
523.934	1	-5
524.104	1	8
524.274	1	-1
524.444	1	1
524.614	1	5
524.784	1	-4
524.955	1	4
525.125	1	-4
525.295	1	-1
525.465	1	8
525.635	1	13
525.805	1	0
525.975	1	13
526.146	1	3
526.316	1	-3
526.486	1	15
526.656	1	6
526.826	1	14
526.996	1	-6
527.166	1	3
527.337	1	2
527.507	1	5
527.677	1	-2
527.847	1	3
528.017	1	-9
528.187	1	-9
528.357	1	8
528.527	1	0
528.698	1	2
528.868	1	3
529.038	1	17
529.208	1	2
529.378	1	-5
529.548	1	17
529.718	1	4
529.888	1	10
530.058	1	8
530.229	1	5
530.399	1	18
530.569	1	-5
530.739	1	-2
530.909	1	3
531.079	1	16
531.249	1	12
531.419	1	-1
531.589	1	7
531.760	1	2
531.930	1	9
532.100	1	9
532.270	1	7
532.440	1	-9
532.610	1	-1
532.780	1	-4
532.950	1	13
533.120	1	9
533.290	1	0
533.461	1	5
533.631	1	7
533.801	1	0
533.971	1	0
534.141	1	4
534.311	1	6
534.481	1	-1
534.651	1	-8
534.821	1	12
534.991	1	7
535.162	1	4
535.332	1	-9
535.502	1	8
535.672	1	17
535.842	1	5
536.012	1	1
536.182	1	-1
536.352	1	-7
536.522	1	-1
536.692	1	8
536.862	1	6
537.032	1	3
537.203	1	17
537.373	1	1
537.543	1	4
537.713	1	4
537.883	1	14
538.053	1	-7
538.223	1	7
538.393	1	-2
538.563	1	9
538.733	1	-4
538.903	1	3
539.073	1	9
539.243	1	12
539.413	1	4
539.584	1	11
539.754	1	1
539.924	1	3
540.094	1	10
540.264	1	9
540.434	1	2
540.604	1	7
540.774	1	-2
540.944	1	3
541.114	1	5
541.284	1	-2
541.454	1	0
541.624	1	-6
541.794	1	-2
541.964	1	2
542.134	1	8
542.305	1	13
542.475	1	7
542.645	1	0
542.815	1	13
542.985	1	7
543.155	1	1
543.325	1	-2
543.495	1	-4
543.665	1	8
543.835	1	6
544.005	1	0
544.175	1	0
544.345	1	3
544.515	1	8
544.685	1	2
544.855	1	9
545.025	1	9
545.195	1	-2
545.365	1	7
545.535	1	-2
545.705	1	-5
545.875	1	-6
546.045	1	1
546.216	1	1
546.386	1	9
546.556	1	9
546.726	1	6
546.896	1	0
547.066	1	-2
547.236	1	4
547.406	1	5
547.576	1	1
547.746	1	9
547.916	1	1
548.086	1	12
548.256	1	9
548.426	1	15
548.596	1	2
548.766	1	12
548.936	1	-6
549.106	1	5
549.276	1	-6
549.446	1	12
549.616	1	7
549.786	1	9
549.956	1	5
550.126	1	9
550.296	1	3
550.466	1	4
550.636	1	7
550.806	1	4
550.976	1	-11
551.146	1	-7
551.316	1	4
551.486	1	18
551.656	1	13
551.826	1	5
551.996	1	-6
552.166	1	0
552.336	1	4
552.506	1	-3
552.676	1	11
552.846	1	1
553.016	1	4
553.186	1	-6
553.356	1	10
553.526	1	10
553.696	1	1
553.866	1	-1
554.036	1	-2
554.206	1	7
554.376	1	10
554.546	1	8
554.716	1	7
554.886	1	5
555.056	1	0
555.226	1	0
555.396	1	7
555.566	1	-2
555.736	1	6
555.906	1	9
556.076	1	13
556.246	1	5
556.416	1	0
556.586	1	13
556.756	1	8
556.926	1	9
557.096	1	2
557.266	1	1
557.436	1	12
557.606	1	-5
557.776	1	-3
557.946	1	4
558.116	1	14
558.286	1	4
558.456	1	3
558.626	1	14
558.796	1	1
558.966	1	4
559.136	1	3
559.306	1	-1
559.476	1	7
559.646	1	7
559.816	1	16
559.986	1	-1
560.155	1	17
560.325	1	9
560.495	1	4
560.665	1	27
560.835	1	16
561.005	1	8
561.175	1	9
561.345	1	5
561.515	1	-5
561.685	1	-3
561.855	1	-1
562.025	1	14
562.195	1	9
562.365	1	9
562.535	1	0
562.705	1	13
562.875	1	6
563.045	1	-1
563.215	1	2
563.385	1	-5
563.555	1	11
563.725	1	-6
563.895	1	5
564.064	1	8
564.234	1	-5
564.404	1	2
564.574	1	0
564.744	1	3
564.914	1	0
565.084	1	0
565.254	1	11
565.424	1	5
565.594	1	11
565.764	1	3
565.934	1	16
566.104	1	12
566.274	1	-5
566.444	1	1
566.614	1	13
566.783	1	-5
566.953	1	0
567.123	1	1
567.293	1	4
567.463	1	2
567.633	1	6
567.803	1	-1
567.973	1	-2
568.143	1	0
568.313	1	-7
568.483	1	10
568.653	1	8
568.823	1	0
568.993	1	12
569.162	1	0
569.332	1	12
569.502	1	-1
569.672	1	4
569.842	1	2
570.012	1	8
570.182	1	4
570.352	1	-2
570.522	1	-1
570.692	1	2
570.862	1	4
571.031	1	5
571.201	1	1
571.371	1	6
571.541	1	1
571.711	1	8
571.881	1	-1
572.051	1	6
572.221	1	12
572.391	1	15
572.561	1	0
572.731	1	7
572.900	1	-3
573.070	1	7
573.240	1	2
573.410	1	6
573.580	1	-4
573.750	1	2
573.920	1	2
574.090	1	6
574.260	1	16
574.430	1	0
574.599	1	3
574.769	1	9
574.939	1	7
575.109	1	-7
575.279	1	-10
575.449	1	3
575.619	1	-1
575.789	1	10
575.959	1	-8
576.128	1	14
576.298	1	7
576.468	1	2
576.638	1	14
576.808	1	4
576.978	1	9
577.148	1	-5
577.318	1	4
577.487	1	3
577.657	1	-3
577.827	1	4
577.997	1	2
578.167	1	5
578.337	1	4
578.507	1	-2
578.677	1	-11
578.846	1	2
579.016	1	-1
579.186	1	-6
579.356	1	2
579.526	1	1
579.696	1	11
579.866	1	0
580.036	1	0
580.205	1	12
580.375	1	9
580.545	1	-5
580.715	1	13
580.885	1	5
581.055	1	4
581.225	1	0
581.394	1	-9
581.564	1	-2
581.734	1	-1
581.904	1	-7
582.074	1	4
582.244	1	3
582.414	1	-10
582.583	1	-9
582.753	1	-10
582.923	1	0
583.093	1	12
583.263	1	6
583.433	1	6
583.603	1	8
583.772	1	1
583.942	1	-1
584.112	1	-3
584.282	1	-1
584.452	1	4
584.622	1	-7
584.791	1	1
584.961	1	0
585.131	1	-1
585.301	1	-1
585.471	1	-6
585.641	1	6
585.811	1	3
585.980	1	2
586.150	1	-6
586.320	1	-6
586.490	1	4
586.660	1	3
586.830	1	3
586.999	1	0
587.169	1	-3
587.339	1	-2
587.509	1	0
587.679	1	13
587.849	1	-2
588.018	1	-11
588.188	1	-3
588.358	1	-3
588.528	1	-4
588.698	1	-2
588.867	1	3
589.037	1	4
589.207	1	-11
589.377	1	-9
589.547	1	4
589.717	1	10
589.886	1	1
590.056	1	1
590.226	1	0
590.396	1	7
590.566	1	-5
590.735	1	-1
590.905	1	0
591.075	1	5
591.245	1	3
591.415	1	6
591.585	1	-4
591.754	1	10
591.924	1	-2
592.094	1	-9
592.264	1	6
592.434	1	7
592.603	1	-4
592.773	1	0
592.943	1	9
593.113	1	9
593.283	1	5
593.452	1	0
593.622	1	-10
593.792	1	4
593.962	1	1
594.132	1	20
594.301	1	8
594.471	1	0
594.641	1	-5
594.811	1	4
594.981	1	9
595.150	1	2
595.320	1	-9
595.490	1	-2
595.660	1	6
595.829	1	6
595.999	1	4
596.169	1	-4
596.339	1	6
596.509	1	-7
596.678	1	2
596.848	1	10
597.018	1	-1
597.188	1	5
597.358	1	-2
597.527	1	5
597.697	1	-3
597.867	1	10
598.037	1	11
598.206	1	2
598.376	1	-1
598.546	1	-3
598.716	1	8
598.885	1	8
599.055	1	5
599.225	1	3
599.395	1	7
599.565	1	-7
599.734	1	-1
599.904	1	-6
600.074	1	6
600.244	1	1
600.413	1	9
600.583	1	0
600.753	1	-3
600.923	1	6
601.092	1	6
601.262	1	-1
601.432	1	1
601.602	1	2
601.771	1	-5
601.941	1	11
602.111	1	-1
602.281	1	0
602.451	1	-7
602.620	1	0
602.790	1	2
602.960	1	-4
603.130	1	7
603.299	1	5
603.469	1	-2
603.639	1	0
603.809	1	-5
603.978	1	-1
604.148	1	-3
604.318	1	2
604.487	1	-4
604.657	1	-1
604.827	1	-3
604.997	1	-4
605.166	1	-4
605.336	1	12
605.506	1	4
605.676	1	22
605.845	1	-5
606.015	1	5
606.185	1	-11
606.355	1	-1
606.524	1	10
606.694	1	4
606.864	1	0
607.034	1	-2
607.203	1	5
607.373	1	4
607.543	1	-1
607.712	1	16
607.882	1	-3
608.052	1	11
608.222	1	-1
608.391	1	-2
608.561	1	13
608.731	1	-12
608.901	1	7
609.070	1	5
609.240	1	9
609.410	1	-1
609.579	1	3
609.749	1	-5
609.919	1	11
610.089	1	1
610.258	1	13
610.428	1	-2
610.598	1	-3
610.767	1	-2
610.937	1	4
611.107	1	1
611.277	1	8
611.446	1	0
611.616	1	11
611.786	1	3
611.955	1	-10
612.125	1	-3
612.295	1	0
612.465	1	5
612.634	1	0
612.804	1	9
612.974	1	7
613.143	1	-8
613.313	1	0
613.483	1	-10
613.652	1	0
613.822	1	1
613.992	1	8
614.162	1	-5
614.331	1	-5
614.501	1	-3
614.671	1	-5
614.840	1	6
615.010	1	-3
615.180	1	6
615.349	1	1
615.519	1	7
615.689	1	3
615.858	1	0
616.028	1	2
616.198	1	3
616.368	1	4
616.537	1	-3
616.707	1	4
616.877	1	10
617.046	1	3
617.216	1	3
617.386	1	-6
617.555	1	4
617.725	1	-6
617.895	1	-2
618.064	1	1
618.234	1	-1
618.404	1	-4
618.573	1	-2
618.743	1	12
618.913	1	9
619.082	1	7
619.252	1	-16
619.422	1	9
619.591	1	-7
619.761	1	-6
619.931	1	5
620.100	1	0
620.270	1	9
620.440	1	-5
620.609	1	3
620.779	1	-8
620.949	1	5
621.118	1	-6
621.288	1	11
621.458	1	9
621.627	1	-7
621.797	1	6
621.967	1	3
622.136	1	0
622.306	1	3
622.476	1	4
622.645	1	5
622.815	1	-5
622.985	1	1
623.154	1	-6
623.324	1	-3
623.494	1	5
623.663	1	-3
623.833	1	-15
624.002	1	5
624.172	1	3
624.342	1	-6
624.511	1	8
624.681	1	-9
624.851	1	-5
625.020	1	3
625.190	1	1
625.360	1	6
625.529	1	5
625.699	1	12
625.869	1	10
626.038	1	-11
626.208	1	-3
626.377	1	-3
626.547	1	-7
626.717	1	9
626.886	1	7
627.056	1	14
627.226	1	-5
627.395	1	-2
627.565	1	-8
627.735	1	1
627.904	1	-11
628.074	1	2
628.243	1	-7
628.413	1	11
628.583	1	2
628.752	1	6
628.922	1	6
629.091	1	-1
629.261	1	1
629.431	1	-1
629.600	1	-3
629.770	1	3
629.940	1	4
630.109	1	-5
630.279	1	-10
630.448	1	2
630.618	1	0
630.788	1	-2
630.957	1	-2
631.127	1	4
631.297	1	-5
631.466	1	7
631.636	1	-11
631.805	1	1
631.975	1	-2
632.145	1	-5
632.314	1	-1
632.484	1	-3
632.653	1	0
632.823	1	1
632.993	1	5
633.162	1	6
633.332	1	5
633.501	1	-6
633.671	1	0
633.841	1	19
634.010	1	4
634.180	1	-3
634.349	1	-10
634.519	1	-7
634.689	1	6
634.858	1	-4
635.028	1	-1
635.197	1	9
635.367	1	2
635.537	1	5
635.706	1	3
635.876	1	-7
636.045	1	-8
636.215	1	7
636.384	1	5
636.554	1	-9
636.724	1	7
636.893	1	0
637.063	1	6
637.232	1	-5
637.402	1	-10
637.572	1	-7
637.741	1	-3
637.911	1	10
638.080	1	-4
638.250	1	10
638.419	1	1
638.589	1	-2
638.759	1	-5
638.928	1	12
639.098	1	3
639.267	1	-1
639.437	1	7
639.606	1	0
639.776	1	-13
639.946	1	-2
640.115	1	3
640.285	1	-1
640.454	1	-5
640.624	1	0
640.793	1	0
640.963	1	9
641.132	1	-5
641.302	1	17
641.472	1	-8
641.641	1	7
641.811	1	4
641.980	1	10
642.150	1	-1
642.319	1	-3
642.489	1	-9
642.659	1	2
642.828	1	-2
642.998	1	9
643.167	1	-2
643.337	1	-4
643.506	1	-12
643.676	1	4
643.845	1	-2
644.015	1	1
644.184	1	3
644.354	1	-4
644.524	1	4
644.693	1	-7
644.863	1	3
645.032	1	-5
645.202	1	-6
645.371	1	1
645.541	1	-11
645.710	1	6
645.880	1	-5
646.049	1	7
646.219	1	-9
646.388	1	12
646.558	1	-10
646.728	1	12
646.897	1	0
647.067	1	6
647.236	1	2
647.406	1	-3
647.575	1	3
647.745	1	3
647.914	1	-1
648.084	1	5
648.253	1	-4
648.423	1	3
648.592	1	-1
648.762	1	-8
648.931	1	-12
649.101	1	9
649.270	1	0
649.440	1	3
649.610	1	2
649.779	1	10
649.949	1	-2
650.118	1	3
650.288	1	10
650.457	1	-8
650.627	1	7
650.796	1	-4
650.966	1	7
651.135	1	-6
651.305	1	11
651.474	1	9
651.644	1	2
651.813	1	-3
651.983	1	4
652.152	1	6
652.322	1	-4
652.491	1	4
652.661	1	-1
652.830	1	-1
653.000	1	-5
653.169	1	7
653.339	1	13
653.508	1	-4
653.678	1	0
653.847	1	-4
654.017	1	4
654.186	1	15
654.356	1	9
654.525	1	-2
654.695	1	8
654.864	1	3
655.034	1	15
655.203	1	8
655.373	1	-7
655.542	1	-8
655.712	1	-1
655.881	1	3
656.051	1	-7
656.220	1	3
656.390	1	0
656.559	1	3
656.729	1	-8
656.898	1	-11
657.068	1	9
657.237	1	5
657.406	1	-3
657.576	1	1
657.745	1	4
657.915	1	-7
658.084	1	0
658.254	1	5
658.423	1	9
658.593	1	-2
658.762	1	-3
658.932	1	-4
659.101	1	0
659.271	1	6
659.440	1	7
659.610	1	5
659.779	1	6
659.949	1	1
660.118	1	-2
660.288	1	18
660.457	1	13
660.626	1	0
660.796	1	-11
660.965	1	-7
661.135	1	4
661.304	1	9
661.474	1	7
661.643	1	6
661.813	1	-7
661.982	1	-1
662.152	1	7
662.321	1	8
662.491	1	3
662.660	1	-1
662.829	1	-2
662.999	1	-2
663.168	1	0
663.338	1	3
663.507	1	0
663.677	1	5
663.846	1	5
664.016	1	0
664.185	1	0
664.354	1	0
664.524	1	3
664.693	1	7
664.863	1	-1
665.032	1	4
665.202	1	1
665.371	1	0
665.541	1	-6
665.710	1	-1
665.879	1	-7
666.049	1	-6
666.218	1	0
666.388	1	3
666.557	1	1
666.727	1	-1
666.896	1	8
667.065	1	2
667.235	1	-7
667.404	1	1
667.574	1	4
667.743	1	5
667.913	1	2
668.082	1	9
668.251	1	-7
668.421	1	6
668.590	1	7
668.760	1	-5
668.929	1	2
669.099	1	2
669.268	1	19
669.437	1	-6
669.607	1	4
669.776	1	-1
669.946	1	9
670.115	1	-4
670.285	1	-2
670.454	1	9
670.623	1	-1
670.793	1	-11
670.962	1	4
671.132	1	-3
671.301	1	2
671.470	1	3
671.640	1	-1
671.809	1	3
671.979	1	-8
672.148	1	4
672.317	1	6
672.487	1	3
672.656	1	14
672.826	1	4
672.995	1	-2
673.164	1	14
673.334	1	4
673.503	1	-5
673.673	1	8
673.842	1	-4
674.011	1	-3
674.181	1	-4
674.350	1	3
674.520	1	2
674.689	1	-8
674.858	1	1
675.028	1	1
675.197	1	5
675.367	1	5
675.536	1	-6
675.705	1	7
675.875	1	2
676.044	1	-7
676.214	1	2
676.383	1	5
676.552	1	-17
676.722	1	5
676.891	1	4
677.060	1	9
677.230	1	-1
677.399	1	2
677.569	1	4
677.738	1	1
677.907	1	-13
678.077	1	-15
678.246	1	2
678.416	1	7
678.585	1	8
678.754	1	-1
678.924	1	0
679.093	1	2
679.262	1	5
679.432	1	2
679.601	1	-13
679.771	1	7
679.940	1	6
680.109	1	5
680.279	1	8
680.448	1	-3
680.617	1	-1
680.787	1	-2
680.956	1	-1
681.125	1	1
681.295	1	-6
681.464	1	-1
681.634	1	12
681.803	1	0
681.972	1	2
682.142	1	-8
682.311	1	-8
682.480	1	0
682.650	1	-6
682.819	1	2
682.988	1	-2
683.158	1	-8
683.327	1	5
683.496	1	-4
683.666	1	-4
683.835	1	-5
684.004	1	1
684.174	1	-4
684.343	1	5
684.512	1	-2
684.682	1	-1
684.851	1	4
685.021	1	3
685.190	1	-2
685.359	1	-2
685.529	1	-7
685.698	1	-5
685.867	1	1
686.037	1	-1
686.206	1	2
686.375	1	-6
686.545	1	8
686.714	1	10
686.883	1	-6
687.053	1	-7
687.222	1	6
687.391	1	-9
687.561	1	-6
687.730	1	-9
687.899	1	6
688.069	1	4
688.238	1	-4
688.407	1	1
688.577	1	8
688.746	1	0
