340.368	1	4
340.539	1	1
340.710	1	11
340.881	1	2
341.052	1	8
341.223	1	11
341.394	1	2
341.565	1	16
341.737	1	2
341.908	1	-1
342.079	1	8
342.250	1	15
342.421	1	15
342.592	1	9
342.763	1	8
342.934	1	18
343.105	1	11
343.276	1	5
343.447	1	6
343.618	1	1
343.789	1	14
343.960	1	4
344.131	1	6
344.302	1	11
344.473	1	4
344.644	1	6
344.815	1	13
344.986	1	10
345.157	1	3
345.328	1	11
345.499	1	13
345.670	1	3
345.841	1	13
346.012	1	12
346.183	1	7
346.354	1	17
346.526	1	3
346.697	1	15
346.868	1	8
347.039	1	5
347.210	1	2
347.381	1	7
347.552	1	18
347.723	1	9
347.894	1	11
348.065	1	0
348.236	1	25
348.407	1	-6
348.578	1	19
348.749	1	17
348.920	1	14
349.091	1	8
349.262	1	6
349.433	1	13
349.604	1	15
349.775	1	12
349.946	1	16
350.117	1	20
350.288	1	12
350.459	1	17
350.630	1	18
350.801	1	22
350.972	1	15
351.143	1	14
351.314	1	29
351.485	1	5
351.656	1	20
351.827	1	22
351.998	1	18
352.169	1	17
352.340	1	27
352.511	1	20
352.682	1	19
352.853	1	22
353.024	1	35
353.195	1	10
353.366	1	28
353.537	1	26
353.708	1	39
353.879	1	26
354.050	1	33
354.221	1	24
354.392	1	33
354.563	1	30
354.734	1	41
354.905	1	43
355.076	1	32
355.247	1	38
355.418	1	33
355.589	1	48
355.760	1	33
355.931	1	40
356.102	1	42
356.273	1	37
356.444	1	43
356.615	1	50
356.785	1	53
356.956	1	60
357.127	1	56
357.298	1	59
357.469	1	53
357.640	1	60
357.811	1	59
357.982	1	65
358.153	1	67
358.324	1	67
358.495	1	74
358.666	1	69
358.837	1	87
359.008	1	83
359.179	1	98
359.350	1	91
359.521	1	98
359.692	1	91
359.863	1	99
360.034	1	121
360.205	1	110
360.376	1	131
360.547	1	131
360.718	1	152
360.889	1	148
361.060	1	144
361.231	1	156
361.401	1	164
361.572	1	185
361.743	1	205
361.914	1	220
362.085	1	218
362.256	1	255
362.427	1	259
362.598	1	269
362.769	1	293
362.940	1	322
363.111	1	338
363.282	1	348
363.453	1	377
363.624	1	383
363.795	1	420
363.966	1	453
364.137	1	483
364.308	1	514
364.478	1	551
364.649	1	590
364.820	1	602
364.991	1	669
365.162	1	666
365.333	1	723
365.504	1	775
365.675	1	801
365.846	1	850
366.017	1	904
366.188	1	965
366.359	1	990
366.530	1	1008
366.701	1	1062
366.871	1	1053
367.042	1	1093
367.213	1	1139
367.384	1	1150
367.555	1	1157
367.726	1	1181
367.897	1	1147
368.068	1	1180
368.239	1	1162
368.410	1	1131
368.581	1	1141
368.752	1	1126
368.923	1	1097
369.093	1	1071
369.264	1	1057
369.435	1	1018
369.606	1	995
369.777	1	959
369.948	1	925
370.119	1	908
370.290	1	883
370.461	1	864
370.632	1	831
370.803	1	773
370.973	1	772
371.144	1	738
371.315	1	715
371.486	1	638
371.657	1	687
371.828	1	627
371.999	1	635
372.170	1	605
372.341	1	611
372.512	1	562
372.682	1	557
372.853	1	535
373.024	1	519
373.195	1	502
373.366	1	496
373.537	1	482
373.708	1	489
373.879	1	466
374.050	1	452
374.220	1	453
374.391	1	434
374.562	1	417
374.733	1	415
374.904	1	392
375.075	1	388
375.246	1	377
375.417	1	378
375.588	1	357
375.758	1	341
375.929	1	328
376.100	1	329
376.271	1	320
376.442	1	301
376.613	1	312
376.784	1	282
376.955	1	281
377.125	1	285
377.296	1	283
377.467	1	266
377.638	1	253
377.809	1	244
377.980	1	242
378.151	1	238
378.321	1	237
378.492	1	236
378.663	1	239
378.834	1	244
379.005	1	230
379.176	1	215
379.347	1	211
379.518	1	224
379.688	1	219
379.859	1	217
380.030	1	220
380.201	1	219
380.372	1	222
380.543	1	222
380.714	1	225
380.884	1	231
381.055	1	228
381.226	1	217
381.397	1	230
381.568	1	234
381.739	1	240
381.910	1	228
382.080	1	245
382.251	1	253
382.422	1	245
382.593	1	285
382.764	1	263
382.935	1	276
383.105	1	285
383.276	1	295
383.447	1	288
383.618	1	307
383.789	1	322
383.960	1	311
384.130	1	315
384.301	1	310
384.472	1	333
384.643	1	343
384.814	1	364
384.985	1	349
385.156	1	357
385.326	1	343
385.497	1	339
385.668	1	355
385.839	1	347
386.010	1	358
386.180	1	368
386.351	1	354
386.522	1	362
386.693	1	343
386.864	1	348
387.035	1	350
387.205	1	365
387.376	1	350
387.547	1	338
387.718	1	334
387.889	1	337
388.060	1	325
388.230	1	340
388.401	1	314
388.572	1	319
388.743	1	318
388.914	1	303
389.084	1	309
389.255	1	291
389.426	1	307
389.597	1	275
389.768	1	293
389.939	1	291
390.109	1	288
390.280	1	284
390.451	1	286
390.622	1	277
390.793	1	275
390.963	1	269
391.134	1	263
391.305	1	262
391.476	1	265
391.647	1	264
391.817	1	271
391.988	1	272
392.159	1	282
392.330	1	262
392.501	1	268
392.671	1	264
392.842	1	259
393.013	1	260
393.184	1	265
393.355	1	260
393.525	1	271
393.696	1	260
393.867	1	263
394.038	1	266
394.208	1	267
394.379	1	267
394.550	1	260
394.721	1	263
394.892	1	269
395.062	1	269
395.233	1	275
395.404	1	253
395.575	1	266
395.746	1	274
395.916	1	266
396.087	1	250
396.258	1	268
396.429	1	258
396.599	1	260
396.770	1	247
396.941	1	259
397.112	1	272
397.283	1	259
397.453	1	253
397.624	1	259
397.795	1	248
397.966	1	271
398.136	1	239
398.307	1	266
398.478	1	251
398.649	1	259
398.819	1	254
398.990	1	228
399.161	1	254
399.332	1	246
399.503	1	247
399.673	1	253
399.844	1	245
400.015	1	236
400.186	1	244
400.356	1	245
400.527	1	214
400.698	1	221
400.869	1	224
401.039	1	214
401.210	1	196
401.381	1	207
401.552	1	206
401.722	1	205
401.893	1	205
402.064	1	195
402.235	1	187
402.405	1	194
402.576	1	200
402.747	1	199
402.918	1	186
403.088	1	168
403.259	1	186
403.430	1	192
403.601	1	171
403.771	1	176
403.942	1	174
404.113	1	177
404.284	1	183
404.454	1	172
404.625	1	185
404.796	1	162
404.967	1	181
405.137	1	171
405.308	1	171
405.479	1	164
405.649	1	182
405.820	1	171
405.991	1	171
406.162	1	174
406.332	1	167
406.503	1	166
406.674	1	175
406.845	1	172
407.015	1	167
407.186	1	169
407.357	1	156
407.527	1	159
407.698	1	173
407.869	1	158
408.040	1	156
408.210	1	148
408.381	1	151
408.552	1	152
408.722	1	138
408.893	1	143
409.064	1	141
409.235	1	139
409.405	1	147
409.576	1	141
409.747	1	131
409.917	1	148
410.088	1	139
410.259	1	138
410.430	1	128
410.600	1	136
410.771	1	143
410.942	1	148
411.112	1	130
411.283	1	132
411.454	1	131
411.625	1	129
411.795	1	119
411.966	1	123
412.137	1	124
412.307	1	125
412.478	1	124
412.649	1	134
412.819	1	131
412.990	1	106
413.161	1	114
413.332	1	119
413.502	1	107
413.673	1	127
413.844	1	116
414.014	1	115
414.185	1	122
414.356	1	115
414.526	1	103
414.697	1	107
414.868	1	93
415.038	1	107
415.209	1	103
415.380	1	101
415.550	1	101
415.721	1	97
415.892	1	83
416.063	1	98
416.233	1	89
416.404	1	90
416.575	1	86
416.745	1	107
416.916	1	93
417.087	1	89
417.257	1	82
417.428	1	107
417.599	1	84
417.769	1	83
417.940	1	93
418.111	1	98
418.281	1	79
418.452	1	98
418.623	1	100
418.793	1	101
418.964	1	77
419.135	1	95
419.305	1	91
419.476	1	105
419.647	1	80
419.817	1	84
419.988	1	95
420.159	1	85
420.329	1	84
420.500	1	78
420.671	1	103
420.841	1	72
421.012	1	90
421.183	1	87
421.353	1	74
421.524	1	82
421.695	1	81
421.865	1	70
422.036	1	71
422.206	1	77
422.377	1	81
422.548	1	73
422.718	1	74
422.889	1	77
423.060	1	79
423.230	1	57
423.401	1	67
423.572	1	60
423.742	1	79
423.913	1	65
424.084	1	64
424.254	1	62
424.425	1	64
424.595	1	59
424.766	1	75
424.937	1	63
425.107	1	63
425.278	1	65
425.449	1	64
425.619	1	59
425.790	1	57
425.961	1	55
426.131	1	69
426.302	1	59
426.472	1	59
426.643	1	53
426.814	1	48
426.984	1	54
427.155	1	74
427.326	1	51
427.496	1	51
427.667	1	64
427.837	1	66
428.008	1	68
428.179	1	57
428.349	1	60
428.520	1	62
428.691	1	68
428.861	1	43
429.032	1	62
429.202	1	55
429.373	1	58
429.544	1	49
429.714	1	63
429.885	1	60
430.055	1	58
430.226	1	62
430.397	1	61
430.567	1	47
430.738	1	53
430.909	1	49
431.079	1	52
431.250	1	55
431.420	1	57
431.591	1	55
431.762	1	61
431.932	1	47
432.103	1	47
432.273	1	48
432.444	1	42
432.615	1	46
432.785	1	47
432.956	1	35
433.126	1	49
433.297	1	40
433.468	1	53
433.638	1	32
433.809	1	42
433.979	1	37
434.150	1	47
434.320	1	44
434.491	1	45
434.662	1	28
434.832	1	39
435.003	1	40
435.173	1	40
435.344	1	29
435.515	1	39
435.685	1	34
435.856	1	40
436.026	1	34
436.197	1	28
436.368	1	48
436.538	1	42
436.709	1	43
436.879	1	38
437.050	1	36
437.220	1	49
437.391	1	42
437.562	1	29
437.732	1	30
437.903	1	27
438.073	1	52
438.244	1	35
438.414	1	29
438.585	1	33
438.756	1	33
438.926	1	43
439.097	1	41
439.267	1	35
439.438	1	41
439.608	1	21
439.779	1	43
439.949	1	41
440.120	1	27
440.291	1	32
440.461	1	31
440.632	1	32
440.802	1	22
440.973	1	31
441.143	1	36
441.314	1	34
441.485	1	22
441.655	1	24
441.826	1	33
441.996	1	32
442.167	1	27
442.337	1	41
442.508	1	29
442.678	1	22
442.849	1	33
443.019	1	37
443.190	1	28
443.361	1	31
443.531	1	35
443.702	1	32
443.872	1	42
444.043	1	19
444.213	1	19
444.384	1	24
444.554	1	31
444.725	1	33
444.895	1	28
445.066	1	21
445.237	1	12
445.407	1	18
445.578	1	18
445.748	1	16
445.919	1	24
446.089	1	28
446.260	1	15
446.430	1	26
446.601	1	33
446.771	1	25
446.942	1	26
447.112	1	30
447.283	1	18
447.453	1	34
447.624	1	23
447.794	1	21
447.965	1	24
448.135	1	29
448.306	1	22
448.477	1	17
448.647	1	34
448.818	1	21
448.988	1	22
449.159	1	32
449.329	1	6
449.500	1	25
449.670	1	27
449.841	1	29
450.011	1	14
450.182	1	15
450.352	1	21
450.523	1	20
450.693	1	25
450.864	1	26
451.034	1	18
451.205	1	20
451.375	1	19
451.546	1	20
451.716	1	26
451.887	1	12
452.057	1	17
452.228	1	26
452.398	1	15
452.569	1	17
452.739	1	23
452.910	1	14
453.080	1	13
453.251	1	24
453.421	1	17
453.592	1	10
453.762	1	28
453.933	1	23
454.103	1	19
454.274	1	15
454.444	1	13
454.615	1	22
454.785	1	29
454.956	1	18
455.126	1	20
455.297	1	22
455.467	1	18
455.638	1	16
455.808	1	22
455.979	1	17
456.149	1	5
456.320	1	24
456.490	1	19
456.661	1	7
456.831	1	15
457.001	1	10
457.172	1	14
457.342	1	23
457.513	1	15
457.683	1	23
457.854	1	20
458.024	1	17
458.195	1	16
458.365	1	15
458.536	1	26
458.706	1	28
458.877	1	6
459.047	1	26
459.218	1	8
459.388	1	21
459.559	1	15
459.729	1	22
459.899	1	14
460.070	1	15
460.240	1	-1
460.411	1	10
460.581	1	18
460.752	1	18
460.922	1	10
461.093	1	11
461.263	1	29
461.434	1	29
461.604	1	35
461.775	1	9
461.945	1	11
462.115	1	10
462.286	1	18
462.456	1	8
462.627	1	4
462.797	1	13
462.968	1	16
463.138	1	13
463.309	1	26
463.479	1	19
463.649	1	21
463.820	1	6
463.990	1	18
464.161	1	9
464.331	1	9
464.502	1	10
464.672	1	5
464.843	1	20
465.013	1	14
465.183	1	17
465.354	1	16
465.524	1	14
465.695	1	5
465.865	1	7
466.036	1	17
466.206	1	22
466.376	1	20
466.547	1	7
466.717	1	27
466.888	1	5
467.058	1	16
467.229	1	9
467.399	1	16
467.569	1	20
467.740	1	11
467.910	1	11
468.081	1	20
468.251	1	18
468.422	1	19
468.592	1	28
468.762	1	15
468.933	1	18
469.103	1	22
469.274	1	19
469.444	1	16
469.614	1	15
469.785	1	23
469.955	1	16
470.126	1	13
470.296	1	10
470.467	1	14
470.637	1	16
470.807	1	12
470.978	1	18
471.148	1	24
471.319	1	27
471.489	1	19
471.659	1	11
471.830	1	19
472.000	1	8
472.171	1	21
472.341	1	29
472.511	1	28
472.682	1	18
472.852	1	16
473.023	1	8
473.193	1	23
473.363	1	18
473.534	1	19
473.704	1	4
473.875	1	14
474.045	1	23
474.215	1	25
474.386	1	27
474.556	1	15
474.727	1	20
474.897	1	23
475.067	1	31
475.238	1	25
475.408	1	31
475.578	1	22
475.749	1	28
475.919	1	22
476.090	1	46
476.260	1	13
476.430	1	26
476.601	1	28
476.771	1	25
476.942	1	36
477.112	1	21
477.282	1	29
477.453	1	20
477.623	1	32
477.793	1	28
477.964	1	21
478.134	1	29
478.305	1	24
478.475	1	28
478.645	1	26
478.816	1	37
478.986	1	41
479.156	1	36
479.327	1	31
479.497	1	27
479.667	1	45
479.838	1	33
480.008	1	40
480.179	1	31
480.349	1	22
480.519	1	19
480.690	1	33
480.860	1	30
481.030	1	51
481.201	1	43
481.371	1	44
481.541	1	26
481.712	1	41
481.882	1	39
482.053	1	47
482.223	1	36
482.393	1	46
482.564	1	45
482.734	1	35
482.904	1	35
483.075	1	39
483.245	1	44
483.415	1	39
483.586	1	53
483.756	1	31
483.926	1	43
484.097	1	38
484.267	1	46
484.437	1	48
484.608	1	47
484.778	1	60
484.948	1	42
485.119	1	38
485.289	1	44
485.459	1	61
485.630	1	53
485.800	1	46
485.970	1	56
486.141	1	52
486.311	1	41
486.481	1	47
486.652	1	70
486.822	1	55
486.992	1	53
487.163	1	67
487.333	1	51
487.503	1	58
487.674	1	61
487.844	1	62
488.014	1	65
488.185	1	56
488.355	1	67
488.525	1	65
488.696	1	64
488.866	1	69
489.036	1	65
489.207	1	69
489.377	1	66
489.547	1	87
489.718	1	81
489.888	1	70
490.058	1	69
490.228	1	82
490.399	1	75
490.569	1	87
490.739	1	76
490.910	1	84
491.080	1	74
491.250	1	92
491.421	1	83
491.591	1	82
491.761	1	96
491.932	1	92
492.102	1	90
492.272	1	83
492.442	1	84
492.613	1	96
492.783	1	110
492.953	1	96
493.124	1	112
493.294	1	95
493.464	1	110
493.635	1	102
493.805	1	99
493.975	1	100
494.145	1	103
494.316	1	111
494.486	1	109
494.656	1	111
494.827	1	112
494.997	1	114
495.167	1	116
495.337	1	137
495.508	1	113
495.678	1	122
495.848	1	120
496.019	1	111
496.189	1	124
496.359	1	129
496.529	1	131
496.700	1	125
496.870	1	118
497.040	1	131
497.211	1	140
497.381	1	127
497.551	1	126
497.721	1	136
497.892	1	142
498.062	1	129
498.232	1	142
498.403	1	144
498.573	1	137
498.743	1	140
498.913	1	135
499.084	1	122
499.254	1	144
499.424	1	138
499.594	1	139
499.765	1	142
499.935	1	133
500.105	1	165
500.275	1	166
500.446	1	152
500.616	1	145
500.786	1	159
500.956	1	170
501.127	1	154
501.297	1	167
501.467	1	144
501.638	1	177
501.808	1	174
501.978	1	177
502.148	1	179
502.319	1	165
502.489	1	190
502.659	1	185
502.829	1	197
503.000	1	177
503.170	1	187
503.340	1	168
503.510	1	195
503.681	1	186
503.851	1	201
504.021	1	191
504.191	1	202
504.362	1	189
504.532	1	194
504.702	1	205
504.872	1	207
505.042	1	201
505.213	1	203
505.383	1	224
505.553	1	204
505.723	1	217
505.894	1	225
506.064	1	216
506.234	1	229
506.404	1	221
506.575	1	224
506.745	1	225
506.915	1	238
507.085	1	234
507.256	1	239
507.426	1	235
507.596	1	242
507.766	1	244
507.936	1	245
508.107	1	248
508.277	1	242
508.447	1	248
508.617	1	243
508.788	1	267
508.958	1	254
509.128	1	259
509.298	1	251
509.468	1	242
509.639	1	263
509.809	1	261
509.979	1	269
510.149	1	261
510.319	1	257
510.490	1	252
510.660	1	270
510.830	1	251
511.000	1	269
511.171	1	275
511.341	1	280
511.511	1	263
511.681	1	279
511.851	1	279
512.022	1	267
512.192	1	256
512.362	1	282
512.532	1	258
512.702	1	270
512.873	1	265
513.043	1	292
513.213	1	276
513.383	1	265
513.553	1	288
513.724	1	279
513.894	1	281
514.064	1	282
514.234	1	280
514.404	1	280
514.575	1	290
514.745	1	269
514.915	1	266
515.085	1	297
515.255	1	297
515.425	1	273
515.596	1	308
515.766	1	298
515.936	1	279
516.106	1	297
516.276	1	306
516.447	1	291
516.617	1	303
516.787	1	305
516.957	1	319
517.127	1	297
517.297	1	329
517.468	1	314
517.638	1	316
517.808	1	326
517.978	1	309
518.148	1	324
518.319	1	308
518.489	1	323
518.659	1	328
518.829	1	321
518.999	1	340
519.169	1	342
519.340	1	326
519.510	1	335
519.680	1	341
519.850	1	337
520.020	1	336
520.190	1	329
520.361	1	341
520.531	1	354
520.701	1	350
520.871	1	342
521.041	1	345
521.211	1	356
521.382	1	348
521.552	1	350
521.722	1	345
521.892	1	351
522.062	1	351
522.232	1	357
522.402	1	347
522.573	1	357
522.743	1	346
522.913	1	364
523.083	1	350
523.253	1	359
523.423	1	350
523.593	1	356
523.764	1	349
523.934	1	348
524.104	1	357
524.274	1	342
524.444	1	353
524.614	1	356
524.784	1	345
524.955	1	350
525.125	1	344
525.295	1	356
525.465	1	350
525.635	1	352
525.805	1	346
525.975	1	348
526.146	1	354
526.316	1	348
526.486	1	366
526.656	1	343
526.826	1	352
526.996	1	344
527.166	1	374
527.337	1	349
527.507	1	352
527.677	1	340
527.847	1	364
528.017	1	340
528.187	1	341
528.357	1	361
528.527	1	365
528.698	1	378
528.868	1	332
529.038	1	381
529.208	1	362
529.378	1	346
529.548	1	365
529.718	1	349
529.888	1	372
530.058	1	356
530.229	1	373
530.399	1	380
530.569	1	362
530.739	1	361
530.909	1	367
531.079	1	370
531.249	1	355
531.419	1	360
531.589	1	367
531.760	1	379
531.930	1	377
532.100	1	367
532.270	1	359
532.440	1	361
532.610	1	379
532.780	1	365
532.950	1	372
533.120	1	402
533.290	1	353
533.461	1	377
533.631	1	374
533.801	1	368
533.971	1	369
534.141	1	365
534.311	1	374
534.481	1	364
534.651	1	361
534.821	1	390
534.991	1	362
535.162	1	373
535.332	1	352
535.502	1	371
535.672	1	393
535.842	1	362
536.012	1	370
536.182	1	371
536.352	1	339
536.522	1	360
536.692	1	374
536.862	1	369
537.032	1	361
537.203	1	382
537.373	1	356
537.543	1	351
537.713	1	366
537.883	1	378
538.053	1	354
538.223	1	377
538.393	1	358
538.563	1	358
538.733	1	369
538.903	1	349
539.073	1	355
539.243	1	353
539.413	1	347
539.584	1	346
539.754	1	331
539.924	1	346
540.094	1	327
540.264	1	339
540.434	1	347
540.604	1	342
540.774	1	330
540.944	1	333
541.114	1	341
541.284	1	336
541.454	1	343
541.624	1	309
541.794	1	317
541.964	1	329
542.134	1	334
542.305	1	339
542.475	1	321
542.645	1	330
542.815	1	326
542.985	1	326
543.155	1	325
543.325	1	314
543.495	1	332
543.665	1	317
543.835	1	313
544.005	1	301
544.175	1	307
544.345	1	313
544.515	1	327
544.685	1	315
544.855	1	315
545.025	1	306
545.195	1	303
545.365	1	287
545.535	1	302
545.705	1	307
545.875	1	322
546.045	1	309
546.216	1	305
546.386	1	312
546.556	1	325
546.726	1	310
546.896	1	290
547.066	1	313
547.236	1	306
547.406	1	302
547.576	1	303
547.746	1	313
547.916	1	304
548.086	1	316
548.256	1	307
548.426	1	305
548.596	1	285
548.766	1	300
548.936	1	307
549.106	1	306
549.276	1	301
549.446	1	327
549.616	1	315
549.786	1	303
549.956	1	303
550.126	1	320
550.296	1	323
550.466	1	295
550.636	1	311
550.806	1	295
550.976	1	289
551.146	1	287
551.316	1	301
551.486	1	307
551.656	1	309
551.826	1	312
551.996	1	301
552.166	1	307
552.336	1	302
552.506	1	296
552.676	1	301
552.846	1	297
553.016	1	310
553.186	1	318
553.356	1	295
553.526	1	299
553.696	1	303
553.866	1	298
554.036	1	282
554.206	1	294
554.376	1	296
554.546	1	303
554.716	1	281
554.886	1	292
555.056	1	282
555.226	1	275
555.396	1	281
555.566	1	282
555.736	1	270
555.906	1	271
556.076	1	291
556.246	1	267
556.416	1	262
556.586	1	270
556.756	1	281
556.926	1	262
557.096	1	263
557.266	1	251
557.436	1	263
557.606	1	247
557.776	1	252
557.946	1	258
558.116	1	258
558.286	1	261
558.456	1	246
558.626	1	260
558.796	1	256
558.966	1	241
559.136	1	250
559.306	1	251
559.476	1	256
559.646	1	235
559.816	1	246
559.986	1	240
560.155	1	243
560.325	1	248
560.495	1	227
560.665	1	242
560.835	1	235
561.005	1	234
561.175	1	228
561.345	1	224
561.515	1	225
561.685	1	221
561.855	1	213
562.025	1	231
562.195	1	219
562.365	1	227
562.535	1	220
562.705	1	229
562.875	1	213
563.045	1	208
563.215	1	221
563.385	1	204
563.555	1	220
563.725	1	196
563.895	1	213
564.064	1	207
564.234	1	203
564.404	1	209
564.574	1	203
564.744	1	193
564.914	1	199
565.084	1	226
565.254	1	204
565.424	1	207
565.594	1	200
565.764	1	188
565.934	1	206
566.104	1	198
566.274	1	187
566.444	1	196
566.614	1	198
566.783	1	191
566.953	1	191
567.123	1	197
567.293	1	200
567.463	1	177
567.633	1	200
567.803	1	185
567.973	1	190
568.143	1	185
568.313	1	180
568.483	1	193
568.653	1	190
568.823	1	186
568.993	1	192
569.162	1	188
569.332	1	189
569.502	1	173
569.672	1	179
569.842	1	188
570.012	1	180
570.182	1	170
570.352	1	182
570.522	1	180
570.692	1	183
570.862	1	171
571.031	1	162
571.201	1	176
571.371	1	171
571.541	1	176
571.711	1	170
571.881	1	165
572.051	1	182
572.221	1	168
572.391	1	172
572.561	1	161
572.731	1	154
572.900	1	170
573.070	1	167
573.240	1	163
573.410	1	169
573.580	1	167
573.750	1	163
573.920	1	162
574.090	1	163
574.260	1	154
574.430	1	148
574.599	1	153
574.769	1	158
574.939	1	158
575.109	1	136
575.279	1	160
575.449	1	163
575.619	1	137
575.789	1	145
575.959	1	134
576.128	1	154
576.298	1	129
576.468	1	144
576.638	1	142
576.808	1	145
576.978	1	136
577.148	1	139
577.318	1	142
577.487	1	138
577.657	1	129
577.827	1	133
577.997	1	133
578.167	1	128
578.337	1	134
578.507	1	124
578.677	1	126
578.846	1	130
579.016	1	130
579.186	1	141
579.356	1	128
579.526	1	119
579.696	1	131
579.866	1	119
580.036	1	109
580.205	1	137
580.375	1	125
580.545	1	138
580.715	1	120
580.885	1	117
581.055	1	119
581.225	1	126
581.394	1	117
581.564	1	125
581.734	1	118
581.904	1	115
582.074	1	134
582.244	1	133
582.414	1	116
582.583	1	116
582.753	1	107
582.923	1	120
583.093	1	126
583.263	1	119
583.433	1	121
583.603	1	125
583.772	1	101
583.942	1	109
584.112	1	108
584.282	1	119
584.452	1	121
584.622	1	115
584.791	1	115
584.961	1	107
585.131	1	92
585.301	1	114
585.471	1	116
585.641	1	111
585.811	1	115
585.980	1	109
586.150	1	116
586.320	1	115
586.490	1	111
586.660	1	105
586.830	1	106
586.999	1	103
587.169	1	100
587.339	1	103
587.509	1	111
587.679	1	109
587.849	1	115
588.018	1	113
588.188	1	112
588.358	1	105
588.528	1	102
588.698	1	108
588.867	1	94
589.037	1	99
589.207	1	94
589.377	1	110
589.547	1	109
589.717	1	99
589.886	1	96
590.056	1	108
590.226	1	105
590.396	1	104
590.566	1	90
590.735	1	104
590.905	1	92
591.075	1	95
591.245	1	106
591.415	1	99
591.585	1	93
591.754	1	106
591.924	1	106
592.094	1	97
592.264	1	87
592.434	1	96
592.603	1	80
592.773	1	85
592.943	1	91
593.113	1	94
593.283	1	95
593.452	1	97
593.622	1	100
593.792	1	85
593.962	1	87
594.132	1	94
594.301	1	79
594.471	1	84
594.641	1	80
594.811	1	87
594.981	1	86
595.150	1	92
595.320	1	79
595.490	1	67
595.660	1	91
595.829	1	85
595.999	1	67
596.169	1	87
596.339	1	87
596.509	1	82
596.678	1	76
596.848	1	87
597.018	1	81
597.188	1	88
597.358	1	77
597.527	1	72
597.697	1	68
597.867	1	80
598.037	1	71
598.206	1	82
598.376	1	77
598.546	1	73
598.716	1	77
598.885	1	71
599.055	1	66
599.225	1	63
599.395	1	79
599.565	1	65
599.734	1	69
599.904	1	74
600.074	1	71
600.244	1	70
600.413	1	65
600.583	1	68
600.753	1	73
600.923	1	78
601.092	1	77
601.262	1	71
601.432	1	76
601.602	1	67
601.771	1	67
601.941	1	67
602.111	1	69
602.281	1	66
602.451	1	66
602.620	1	68
602.790	1	71
602.960	1	70
603.130	1	68
603.299	1	72
603.469	1	60
603.639	1	73
603.809	1	63
603.978	1	73
604.148	1	70
604.318	1	63
604.487	1	68
604.657	1	72
604.827	1	65
604.997	1	65
605.166	1	58
605.336	1	75
605.506	1	73
605.676	1	76
605.845	1	59
606.015	1	66
606.185	1	67
606.355	1	76
606.524	1	73
606.694	1	72
606.864	1	66
607.034	1	63
607.203	1	73
607.373	1	77
607.543	1	69
607.712	1	76
607.882	1	60
608.052	1	78
608.222	1	58
608.391	1	58
608.561	1	66
608.731	1	56
608.901	1	71
609.070	1	67
609.240	1	61
609.410	1	67
609.579	1	57
609.749	1	62
609.919	1	69
610.089	1	64
610.258	1	75
610.428	1	64
610.598	1	64
610.767	1	67
610.937	1	70
611.107	1	68
611.277	1	71
611.446	1	64
611.616	1	65
611.786	1	70
611.955	1	57
612.125	1	60
612.295	1	67
612.465	1	72
612.634	1	58
612.804	1	59
612.974	1	59
613.143	1	61
613.313	1	58
613.483	1	57
613.652	1	56
613.822	1	53
613.992	1	62
614.162	1	62
614.331	1	60
614.501	1	48
614.671	1	56
614.840	1	62
615.010	1	60
615.180	1	67
615.349	1	46
615.519	1	56
615.689	1	48
615.858	1	49
616.028	1	52
616.198	1	51
616.368	1	52
616.537	1	53
616.707	1	49
616.877	1	59
617.046	1	55
617.216	1	60
617.386	1	48
617.555	1	59
617.725	1	51
617.895	1	57
618.064	1	42
618.234	1	56
618.404	1	54
618.573	1	52
618.743	1	47
618.913	1	45
619.082	1	45
619.252	1	49
619.422	1	54
619.591	1	46
619.761	1	36
619.931	1	50
620.100	1	49
620.270	1	55
620.440	1	41
620.609	1	50
620.779	1	33
620.949	1	53
621.118	1	45
621.288	1	55
621.458	1	58
621.627	1	39
621.797	1	56
621.967	1	45
622.136	1	49
622.306	1	45
622.476	1	59
622.645	1	59
622.815	1	38
622.985	1	42
623.154	1	41
623.324	1	46
623.494	1	52
623.663	1	35
623.833	1	47
624.002	1	52
624.172	1	43
624.342	1	46
624.511	1	46
624.681	1	36
624.851	1	42
625.020	1	46
625.190	1	50
625.360	1	43
625.529	1	44
625.699	1	45
625.869	1	45
626.038	1	36
626.208	1	42
626.377	1	47
626.547	1	32
626.717	1	57
626.886	1	46
627.056	1	56
627.226	1	32
627.395	1	40
627.565	1	32
627.735	1	49
627.904	1	34
628.074	1	44
628.243	1	32
628.413	1	52
628.583	1	35
628.752	1	49
628.922	1	44
629.091	1	33
629.261	1	39
629.431	1	56
629.600	1	36
629.770	1	45
629.940	1	43
630.109	1	41
630.279	1	33
630.448	1	40
630.618	1	38
630.788	1	37
630.957	1	38
631.127	1	41
631.297	1	36
631.466	1	39
631.636	1	30
631.805	1	32
631.975	1	29
632.145	1	33
632.314	1	41
632.484	1	34
632.653	1	39
632.823	1	39
632.993	1	33
633.162	1	37
633.332	1	45
633.501	1	40
633.671	1	39
633.841	1	51
634.010	1	39
634.180	1	39
634.349	1	30
634.519	1	40
634.689	1	42
634.858	1	37
635.028	1	45
635.197	1	47
635.367	1	39
635.537	1	39
635.706	1	41
635.876	1	41
636.045	1	26
636.215	1	42
636.384	1	42
636.554	1	33
636.724	1	37
636.893	1	34
637.063	1	41
637.232	1	39
637.402	1	38
637.572	1	29
637.741	1	43
637.911	1	39
638.080	1	43
638.250	1	33
638.419	1	37
638.589	1	29
638.759	1	31
638.928	1	33
639.098	1	32
639.267	1	35
639.437	1	30
639.606	1	41
639.776	1	33
639.946	1	35
640.115	1	31
640.285	1	42
640.454	1	30
640.624	1	23
640.793	1	32
640.963	1	43
641.132	1	32
641.302	1	42
641.472	1	37
641.641	1	39
641.811	1	33
641.980	1	42
642.150	1	20
642.319	1	27
642.489	1	26
642.659	1	37
642.828	1	28
642.998	1	29
643.167	1	35
643.337	1	34
643.506	1	22
643.676	1	38
643.845	1	29
644.015	1	27
644.184	1	35
644.354	1	25
644.524	1	42
644.693	1	31
644.863	1	29
645.032	1	34
645.202	1	35
645.371	1	36
645.541	1	23
645.710	1	36
645.880	1	31
646.049	1	34
646.219	1	37
646.388	1	42
646.558	1	31
646.728	1	39
646.897	1	29
647.067	1	29
647.236	1	47
647.406	1	34
647.575	1	38
647.745	1	31
647.914	1	22
648.084	1	27
648.253	1	25
648.423	1	38
648.592	1	32
648.762	1	26
648.931	1	16
649.101	1	46
649.270	1	29
649.440	1	31
649.610	1	26
649.779	1	37
649.949	1	27
650.118	1	36
650.288	1	30
650.457	1	15
650.627	1	31
650.796	1	34
650.966	1	37
651.135	1	29
651.305	1	35
651.474	1	36
651.644	1	27
651.813	1	31
651.983	1	32
652.152	1	24
652.322	1	25
652.491	1	28
652.661	1	29
652.830	1	20
653.000	1	29
653.169	1	24
653.339	1	28
653.508	1	32
653.678	1	27
653.847	1	27
654.017	1	34
654.186	1	43
654.356	1	33
654.525	1	23
654.695	1	32
654.864	1	35
655.034	1	40
655.203	1	25
655.373	1	27
655.542	1	22
655.712	1	35
655.881	1	41
656.051	1	22
656.220	1	32
656.390	1	26
656.559	1	30
656.729	1	21
656.898	1	21
657.068	1	36
657.237	1	22
657.406	1	25
657.576	1	26
657.745	1	22
657.915	1	30
658.084	1	35
658.254	1	27
658.423	1	45
658.593	1	24
658.762	1	26
658.932	1	17
659.101	1	26
659.271	1	34
659.440	1	23
659.610	1	31
659.779	1	30
659.949	1	27
660.118	1	28
660.288	1	33
660.457	1	35
660.626	1	29
660.796	1	25
660.965	1	28
661.135	1	25
661.304	1	32
661.474	1	20
661.643	1	34
661.813	1	20
661.982	1	22
662.152	1	25
662.321	1	24
662.491	1	27
662.660	1	20
662.829	1	21
662.999	1	32
663.168	1	21
663.338	1	29
663.507	1	31
663.677	1	26
663.846	1	30
664.016	1	27
664.185	1	13
664.354	1	14
664.524	1	31
664.693	1	18
664.863	1	22
665.032	1	24
665.202	1	25
665.371	1	16
665.541	1	15
665.710	1	22
665.879	1	12
666.049	1	21
666.218	1	13
666.388	1	20
666.557	1	21
666.727	1	18
666.896	1	24
667.065	1	28
667.235	1	13
667.404	1	14
667.574	1	22
667.743	1	21
667.913	1	14
668.082	1	30
668.251	1	11
668.421	1	20
668.590	1	17
668.760	1	15
668.929	1	26
669.099	1	25
669.268	1	28
669.437	1	12
669.607	1	29
669.776	1	21
669.946	1	30
670.115	1	15
670.285	1	17
670.454	1	22
670.623	1	24
670.793	1	12
670.962	1	28
671.132	1	24
671.301	1	27
671.470	1	30
671.640	1	16
671.809	1	29
671.979	1	19
672.148	1	21
672.317	1	26
672.487	1	18
672.656	1	26
672.826	1	21
672.995	1	15
673.164	1	16
673.334	1	27
673.503	1	17
673.673	1	22
673.842	1	11
674.011	1	16
674.181	1	18
674.350	1	15
674.520	1	26
674.689	1	18
674.858	1	18
675.028	1	13
675.197	1	24
675.367	1	28
675.536	1	23
675.705	1	32
675.875	1	26
676.044	1	35
676.214	1	19
676.383	1	20
676.552	1	15
676.722	1	23
676.891	1	31
677.060	1	21
677.230	1	20
677.399	1	20
677.569	1	29
677.738	1	23
677.907	1	18
678.077	1	11
678.246	1	4
678.416	1	27
678.585	1	30
678.754	1	22
678.924	1	13
679.093	1	15
679.262	1	22
679.432	1	27
679.601	1	13
679.771	1	22
679.940	1	29
680.109	1	20
680.279	1	31
680.448	1	21
680.617	1	23
680.787	1	32
680.956	1	16
681.125	1	26
681.295	1	21
681.464	1	13
681.634	1	42
681.803	1	19
681.972	1	20
682.142	1	13
682.311	1	18
682.480	1	22
682.650	1	33
682.819	1	18
682.988	1	13
683.158	1	25
683.327	1	20
683.496	1	20
683.666	1	30
683.835	1	13
684.004	1	22
684.174	1	34
684.343	1	20
684.512	1	14
684.682	1	22
684.851	1	23
685.021	1	30
685.190	1	29
685.359	1	26
685.529	1	31
685.698	1	23
685.867	1	28
686.037	1	29
686.206	1	28
686.375	1	27
686.545	1	39
686.714	1	31
686.883	1	31
687.053	1	23
687.222	1	32
687.391	1	27
687.561	1	31
687.730	1	32
687.899	1	30
688.069	1	29
688.238	1	26
688.407	1	24
688.577	1	43
688.746	1	34
