340.368	1	-2
340.539	1	3
340.710	1	5
340.881	1	-4
341.052	1	2
341.223	1	-4
341.394	1	-5
341.565	1	-6
341.737	1	5
341.908	1	-13
342.079	1	-1
342.250	1	-1
342.421	1	6
342.592	1	7
342.763	1	1
342.934	1	9
343.105	1	2
343.276	1	-3
343.447	1	4
343.618	1	0
343.789	1	12
343.960	1	4
344.131	1	-4
344.302	1	-7
344.473	1	-12
344.644	1	-12
344.815	1	7
344.986	1	-3
345.157	1	-10
345.328	1	5
345.499	1	6
345.670	1	1
345.841	1	-7
346.012	1	6
346.183	1	-3
346.354	1	6
346.526	1	1
346.697	1	3
346.868	1	7
347.039	1	-1
347.210	1	-8
347.381	1	-9
347.552	1	8
347.723	1	3
347.894	1	-4
348.065	1	-6
348.236	1	15
348.407	1	-3
348.578	1	-2
348.749	1	2
348.920	1	-3
349.091	1	0
349.262	1	-5
349.433	1	-5
349.604	1	-1
349.775	1	3
349.946	1	-2
350.117	1	6
350.288	1	-8
350.459	1	7
350.630	1	5
350.801	1	12
350.972	1	-1
351.143	1	3
351.314	1	4
351.485	1	-2
351.656	1	-2
351.827	1	-2
351.998	1	1
352.169	1	2
352.340	1	7
352.511	1	-4
352.682	1	1
352.853	1	4
353.024	1	7
353.195	1	0
353.366	1	5
353.537	1	-8
353.708	1	9
353.879	1	6
354.050	1	2
354.221	1	-3
354.392	1	-6
354.563	1	-2
354.734	1	10
354.905	1	2
355.076	1	0
355.247	1	-2
355.418	1	-2
355.589	1	6
355.760	1	3
355.931	1	12
356.102	1	-1
356.273	1	-8
356.444	1	5
356.615	1	-3
356.785	1	9
356.956	1	-1
357.127	1	13
357.298	1	9
357.469	1	1
357.640	1	-7
357.811	1	0
357.982	1	-3
358.153	1	4
358.324	1	8
358.495	1	1
358.666	1	-5
358.837	1	15
359.008	1	6
359.179	1	3
359.350	1	4
359.521	1	4
359.692	1	-13
359.863	1	0
360.034	1	10
360.205	1	-1
360.376	1	16
360.547	1	7
360.718	1	3
360.889	1	1
361.060	1	4
361.231	1	4
361.401	1	7
361.572	1	5
361.743	1	9
361.914	1	6
362.085	1	7
362.256	1	13
362.427	1	11
362.598	1	2
362.769	1	-1
362.940	1	8
363.111	1	14
363.282	1	2
363.453	1	15
363.624	1	0
363.795	1	1
363.966	1	11
364.137	1	6
364.308	1	22
364.478	1	6
364.649	1	6
364.820	1	7
364.991	1	10
365.162	1	3
365.333	1	11
365.504	1	5
365.675	1	-1
365.846	1	8
366.017	1	23
366.188	1	10
366.359	1	12
366.530	1	24
366.701	1	4
366.871	1	5
367.042	1	8
367.213	1	20
367.384	1	22
367.555	1	12
367.726	1	16
367.897	1	14
368.068	1	13
368.239	1	13
368.410	1	22
368.581	1	6
368.752	1	20
368.923	1	19
369.093	1	13
369.264	1	17
369.435	1	15
369.606	1	19
369.777	1	17
369.948	1	14
370.119	1	22
370.290	1	18
370.461	1	20
370.632	1	22
370.803	1	11
370.973	1	9
371.144	1	7
371.315	1	24
371.486	1	10
371.657	1	13
371.828	1	0
371.999	1	19
372.170	1	6
372.341	1	13
372.512	1	11
372.682	1	8
372.853	1	13
373.024	1	6
373.195	1	9
373.366	1	10
373.537	1	27
373.708	1	-2
373.879	1	7
374.050	1	19
374.220	1	5
374.391	1	7
374.562	1	19
374.733	1	-4
374.904	1	4
375.075	1	5
375.246	1	-1
375.417	1	13
375.588	1	-1
375.758	1	-4
375.929	1	0
376.100	1	13
376.271	1	1
376.442	1	9
376.613	1	2
376.784	1	1
376.955	1	5
377.125	1	3
377.296	1	10
377.467	1	1
377.638	1	11
377.809	1	-1
377.980	1	8
378.151	1	3
378.321	1	9
378.492	1	7
378.663	1	4
378.834	1	6
379.005	1	16
379.176	1	8
379.347	1	6
379.518	1	10
379.688	1	-6
379.859	1	6
380.030	1	12
380.201	1	8
380.372	1	14
380.543	1	7
380.714	1	13
380.884	1	18
381.055	1	0
381.226	1	3
381.397	1	8
381.568	1	7
381.739	1	5
381.910	1	3
382.080	1	0
382.251	1	16
382.422	1	-2
382.593	1	11
382.764	1	1
382.935	1	5
383.105	1	0
383.276	1	5
383.447	1	1
383.618	1	-6
383.789	1	15
383.960	1	4
384.130	1	15
384.301	1	-4
384.472	1	-2
384.643	1	6
384.814	1	3
384.985	1	17
385.156	1	11
385.326	1	9
385.497	1	1
385.668	1	8
385.839	1	0
386.010	1	15
386.180	1	6
386.351	1	3
386.522	1	14
386.693	1	0
386.864	1	-9
387.035	1	16
387.205	1	12
387.376	1	8
387.547	1	11
387.718	1	8
387.889	1	1
388.060	1	0
388.230	1	13
388.401	1	1
388.572	1	5
388.743	1	8
388.914	1	5
389.084	1	7
389.255	1	4
389.426	1	16
389.597	1	-1
389.768	1	5
389.939	1	6
390.109	1	1
390.280	1	13
390.451	1	9
390.622	1	4
390.793	1	3
390.963	1	4
391.134	1	6
391.305	1	7
391.476	1	3
391.647	1	2
391.817	1	2
391.988	1	10
392.159	1	8
392.330	1	-4
392.501	1	5
392.671	1	2
392.842	1	-1
393.013	1	4
393.184	1	7
393.355	1	-3
393.525	1	19
393.696	1	4
393.867	1	-1
394.038	1	10
394.208	1	16
394.379	1	5
394.550	1	-7
394.721	1	9
394.892	1	11
395.062	1	2
395.233	1	10
395.404	1	7
395.575	1	3
395.746	1	20
395.916	1	12
396.087	1	0
396.258	1	-4
396.429	1	-2
396.599	1	19
396.770	1	-3
396.941	1	0
397.112	1	3
397.283	1	6
397.453	1	-1
397.624	1	9
397.795	1	-3
397.966	1	15
398.136	1	8
398.307	1	7
398.478	1	-7
398.649	1	7
398.819	1	-8
398.990	1	-7
399.161	1	2
399.332	1	6
399.503	1	11
399.673	1	6
399.844	1	-4
400.015	1	10
400.186	1	10
400.356	1	4
400.527	1	15
400.698	1	2
400.869	1	9
401.039	1	1
401.210	1	-7
401.381	1	0
401.552	1	3
401.722	1	1
401.893	1	12
402.064	1	-4
402.235	1	3
402.405	1	5
402.576	1	15
402.747	1	3
402.918	1	6
403.088	1	-5
403.259	1	15
403.430	1	13
403.601	1	-9
403.771	1	-4
403.942	1	4
404.113	1	-3
404.284	1	15
404.454	1	6
404.625	1	9
404.796	1	-11
404.967	1	16
405.137	1	0
405.308	1	2
405.479	1	-4
405.649	1	-2
405.820	1	-4
405.991	1	5
406.162	1	2
406.332	1	8
406.503	1	5
406.674	1	18
406.845	1	2
407.015	1	1
407.186	1	7
407.357	1	4
407.527	1	5
407.698	1	6
407.869	1	-4
408.040	1	-4
408.210	1	6
408.381	1	7
408.552	1	9
408.722	1	7
408.893	1	2
409.064	1	-6
409.235	1	-6
409.405	1	3
409.576	1	0
409.747	1	5
409.917	1	7
410.088	1	8
410.259	1	6
410.430	1	-4
410.600	1	-2
410.771	1	10
410.942	1	9
411.112	1	4
411.283	1	3
411.454	1	5
411.625	1	2
411.795	1	-4
411.966	1	7
412.137	1	2
412.307	1	6
412.478	1	1
412.649	1	0
412.819	1	6
412.990	1	-6
413.161	1	-2
413.332	1	1
413.502	1	-3
413.673	1	14
413.844	1	3
414.014	1	7
414.185	1	0
414.356	1	16
414.526	1	-2
414.697	1	6
414.868	1	-7
415.038	1	11
415.209	1	3
415.380	1	5
415.550	1	0
415.721	1	3
415.892	1	14
416.063	1	2
416.233	1	-2
416.404	1	-1
416.575	1	2
416.745	1	6
416.916	1	1
417.087	1	7
417.257	1	-4
417.428	1	5
417.599	1	-1
417.769	1	1
417.940	1	4
418.111	1	10
418.281	1	4
418.452	1	4
418.623	1	3
418.793	1	12
418.964	1	-1
419.135	1	7
419.305	1	11
419.476	1	13
419.647	1	-3
419.817	1	-2
419.988	1	5
420.159	1	-7
420.329	1	6
420.500	1	-3
420.671	1	7
420.841	1	1
421.012	1	10
421.183	1	-5
421.353	1	13
421.524	1	4
421.695	1	-1
421.865	1	4
422.036	1	-7
422.206	1	2
422.377	1	4
422.548	1	-8
422.718	1	11
422.889	1	-2
423.060	1	7
423.230	1	-2
423.401	1	9
423.572	1	-13
423.742	1	2
423.913	1	-4
424.084	1	5
424.254	1	5
424.425	1	-5
424.595	1	4
424.766	1	6
424.937	1	-9
425.107	1	6
425.278	1	7
425.449	1	2
425.619	1	6
425.790	1	2
425.961	1	0
426.131	1	-6
426.302	1	3
426.472	1	-3
426.643	1	-14
426.814	1	-6
426.984	1	-4
427.155	1	18
427.326	1	6
427.496	1	7
427.667	1	3
427.837	1	-1
428.008	1	9
428.179	1	4
428.349	1	-2
428.520	1	6
428.691	1	9
428.861	1	5
429.032	1	7
429.202	1	-7
429.373	1	9
429.544	1	-6
429.714	1	5
429.885	1	1
430.055	1	9
430.226	1	-2
430.397	1	1
430.567	1	1
430.738	1	8
430.909	1	1
431.079	1	-2
431.250	1	1
431.420	1	4
431.591	1	15
431.762	1	5
431.932	1	4
432.103	1	-1
432.273	1	0
432.444	1	4
432.615	1	6
432.785	1	-10
432.956	1	-2
433.126	1	9
433.297	1	12
433.468	1	-3
433.638	1	-12
433.809	1	5
433.979	1	1
434.150	1	6
434.320	1	2
434.491	1	-1
434.662	1	-13
434.832	1	-1
435.003	1	1
435.173	1	4
435.344	1	1
435.515	1	4
435.685	1	3
435.856	1	-5
436.026	1	-2
436.197	1	-7
436.368	1	3
436.538	1	10
436.709	1	3
436.879	1	3
437.050	1	7
437.220	1	7
437.391	1	11
437.562	1	-1
437.732	1	-4
437.903	1	-8
438.073	1	7
438.244	1	-1
438.414	1	-10
438.585	1	4
438.756	1	-4
438.926	1	6
439.097	1	-4
439.267	1	9
439.438	1	3
439.608	1	-7
439.779	1	-5
439.949	1	0
440.120	1	-4
440.291	1	-2
440.461	1	2
440.632	1	0
440.802	1	-5
440.973	1	7
441.143	1	-3
441.314	1	-2
441.485	1	-7
441.655	1	-5
441.826	1	-2
441.996	1	-2
442.167	1	-4
442.337	1	5
442.508	1	1
442.678	1	5
442.849	1	3
443.019	1	-2
443.190	1	-1
443.361	1	0
443.531	1	6
443.702	1	-3
443.872	1	8
444.043	1	-2
444.213	1	-4
444.384	1	2
444.554	1	5
444.725	1	4
444.895	1	-5
445.066	1	-2
445.237	1	-10
445.407	1	-10
445.578	1	-6
445.748	1	-4
445.919	1	10
446.089	1	2
446.260	1	-1
446.430	1	6
446.601	1	10
446.771	1	1
446.942	1	-6
447.112	1	6
447.283	1	1
447.453	1	8
447.624	1	4
447.794	1	5
447.965	1	-5
448.135	1	-7
448.306	1	1
448.477	1	-6
448.647	1	14
448.818	1	2
448.988	1	9
449.159	1	7
449.329	1	-7
449.500	1	7
449.670	1	3
449.841	1	4
450.011	1	-6
450.182	1	-4
450.352	1	-7
450.523	1	1
450.693	1	7
450.864	1	2
451.034	1	6
451.205	1	-1
451.375	1	2
451.546	1	4
451.716	1	4
451.887	1	4
452.057	1	-8
452.228	1	10
452.398	1	2
452.569	1	10
452.739	1	14
452.910	1	-5
453.080	1	-3
453.251	1	1
453.421	1	2
453.592	1	1
453.762	1	11
453.933	1	5
454.103	1	2
454.274	1	-1
454.444	1	-3
454.615	1	5
454.785	1	-7
454.956	1	-1
455.126	1	0
455.297	1	-6
455.467	1	1
455.638	1	11
455.808	1	11
455.979	1	8
456.149	1	-1
456.320	1	-10
456.490	1	10
456.661	1	1
456.831	1	0
457.001	1	0
457.172	1	5
457.342	1	6
457.513	1	-5
457.683	1	9
457.854	1	3
458.024	1	7
458.195	1	2
458.365	1	1
458.536	1	-2
458.706	1	4
458.877	1	-6
459.047	1	13
459.218	1	-8
459.388	1	12
459.559	1	-6
459.729	1	-2
459.899	1	-4
460.070	1	-5
460.240	1	-2
460.411	1	-9
460.581	1	6
460.752	1	-4
460.922	1	-4
461.093	1	-11
461.263	1	10
461.434	1	5
461.604	1	6
461.775	1	1
461.945	1	-4
462.115	1	-7
462.286	1	-1
462.456	1	-7
462.627	1	-4
462.797	1	-7
462.968	1	0
463.138	1	-6
463.309	1	12
463.479	1	4
463.649	1	7
463.820	1	-14
463.990	1	7
464.161	1	1
464.331	1	1
464.502	1	-9
464.672	1	-8
464.843	1	6
465.013	1	-9
465.183	1	4
465.354	1	10
465.524	1	1
465.695	1	1
465.865	1	-6
466.036	1	3
466.206	1	7
466.376	1	4
466.547	1	-2
466.717	1	3
466.888	1	-1
467.058	1	6
467.229	1	-1
467.399	1	5
467.569	1	-4
467.740	1	4
467.910	1	-4
468.081	1	-6
468.251	1	3
468.422	1	15
468.592	1	-1
468.762	1	-3
468.933	1	6
469.103	1	0
469.274	1	13
469.444	1	-8
469.614	1	-8
469.785	1	11
469.955	1	-4
470.126	1	-4
470.296	1	-2
470.467	1	-6
470.637	1	3
470.807	1	-6
470.978	1	-1
471.148	1	6
471.319	1	3
471.489	1	2
471.659	1	-5
471.830	1	-5
472.000	1	0
472.171	1	16
472.341	1	7
472.511	1	10
472.682	1	-2
472.852	1	-1
473.023	1	-5
473.193	1	3
473.363	1	6
473.534	1	-5
473.704	1	-17
473.875	1	-1
474.045	1	5
474.215	1	7
474.386	1	7
474.556	1	5
474.727	1	1
474.897	1	-5
475.067	1	-2
475.238	1	-1
475.408	1	7
475.578	1	2
475.749	1	7
475.919	1	0
476.090	1	14
476.260	1	-5
476.430	1	-3
476.601	1	5
476.771	1	11
476.942	1	-3
477.112	1	3
477.282	1	4
477.453	1	-7
477.623	1	2
477.793	1	-1
477.964	1	4
478.134	1	-4
478.305	1	10
478.475	1	-4
478.645	1	6
478.816	1	-4
478.986	1	5
479.156	1	-2
479.327	1	-1
479.497	1	1
479.667	1	6
479.838	1	-2
480.008	1	3
480.179	1	-1
480.349	1	-2
480.519	1	-15
480.690	1	-4
480.860	1	-2
481.030	1	9
481.201	1	8
481.371	1	6
481.541	1	-5
481.712	1	6
481.882	1	-8
482.053	1	4
482.223	1	3
482.393	1	3
482.564	1	-1
482.734	1	3
482.904	1	9
483.075	1	2
483.245	1	2
483.415	1	-8
483.586	1	5
483.756	1	-1
483.926	1	-1
484.097	1	-3
484.267	1	-1
484.437	1	5
484.608	1	0
484.778	1	3
484.948	1	0
485.119	1	-5
485.289	1	10
485.459	1	12
485.630	1	2
485.800	1	-2
485.970	1	-4
486.141	1	6
486.311	1	1
486.481	1	6
486.652	1	0
486.822	1	3
486.992	1	-4
487.163	1	2
487.333	1	-6
487.503	1	4
487.674	1	4
487.844	1	3
488.014	1	1
488.185	1	3
488.355	1	8
488.525	1	14
488.696	1	-1
488.866	1	2
489.036	1	0
489.207	1	-7
489.377	1	-4
489.547	1	5
489.718	1	10
489.888	1	5
490.058	1	-13
490.228	1	-1
490.399	1	3
490.569	1	8
490.739	1	8
490.910	1	7
491.080	1	-2
491.250	1	4
491.421	1	-3
491.591	1	3
491.761	1	8
491.932	1	1
492.102	1	0
492.272	1	2
492.442	1	-13
492.613	1	2
492.783	1	4
492.953	1	7
493.124	1	0
493.294	1	-3
493.464	1	6
493.635	1	-5
493.805	1	16
493.975	1	-7
494.145	1	-4
494.316	1	-1
494.486	1	8
494.656	1	7
494.827	1	-10
494.997	1	9
495.167	1	-2
495.337	1	13
495.508	1	5
495.678	1	6
495.848	1	10
496.019	1	7
496.189	1	4
496.359	1	7
496.529	1	-3
496.700	1	9
496.870	1	6
497.040	1	18
497.211	1	3
497.381	1	-4
497.551	1	-2
497.721	1	0
497.892	1	5
498.062	1	-8
498.232	1	13
498.403	1	-2
498.573	1	7
498.743	1	-1
498.913	1	5
499.084	1	8
499.254	1	5
499.424	1	6
499.594	1	7
499.765	1	4
499.935	1	-3
500.105	1	13
500.275	1	10
500.446	1	5
500.616	1	-7
500.786	1	5
500.956	1	7
501.127	1	-7
501.297	1	2
501.467	1	4
501.638	1	20
501.808	1	-3
501.978	1	13
502.148	1	6
502.319	1	4
502.489	1	15
502.659	1	9
502.829	1	7
503.000	1	-12
503.170	1	4
503.340	1	0
503.510	1	5
503.681	1	10
503.851	1	13
504.021	1	-2
504.191	1	10
504.362	1	5
504.532	1	8
504.702	1	10
504.872	1	6
505.042	1	9
505.213	1	-10
505.383	1	6
505.553	1	-1
505.723	1	5
505.894	1	10
506.064	1	5
506.234	1	5
506.404	1	1
506.575	1	2
506.745	1	4
506.915	1	8
507.085	1	13
507.256	1	-7
507.426	1	4
507.596	1	14
507.766	1	4
507.936	1	10
508.107	1	5
508.277	1	2
508.447	1	18
508.617	1	2
508.788	1	6
508.958	1	-1
509.128	1	6
509.298	1	3
509.468	1	6
509.639	1	9
509.809	1	6
509.979	1	8
510.149	1	5
510.319	1	-2
510.490	1	7
510.660	1	18
510.830	1	7
511.000	1	3
511.171	1	2
511.341	1	18
511.511	1	5
511.681	1	12
511.851	1	11
512.022	1	-1
512.192	1	1
512.362	1	21
512.532	1	10
512.702	1	2
512.873	1	5
513.043	1	14
513.213	1	12
513.383	1	2
513.553	1	17
513.724	1	11
513.894	1	8
514.064	1	-1
514.234	1	16
514.404	1	8
514.575	1	6
514.745	1	-1
514.915	1	0
515.085	1	16
515.255	1	10
515.425	1	3
515.596	1	1
515.766	1	13
515.936	1	17
516.106	1	6
516.276	1	13
516.447	1	5
516.617	1	10
516.787	1	0
516.957	1	6
517.127	1	13
517.297	1	11
517.468	1	2
517.638	1	7
517.808	1	8
517.978	1	-4
518.148	1	8
518.319	1	9
518.489	1	15
518.659	1	14
518.829	1	10
518.999	1	-2
519.169	1	5
519.340	1	9
519.510	1	1
519.680	1	9
519.850	1	0
520.020	1	8
520.190	1	4
520.361	1	-3
520.531	1	17
520.701	1	-5
520.871	1	6
521.041	1	19
521.211	1	1
521.382	1	2
521.552	1	17
521.722	1	9
521.892	1	5
522.062	1	27
522.232	1	3
522.402	1	3
522.573	1	15
522.743	1	-2
522.913	1	10
523.083	1	10
523.253	1	7
523.423	1	9
523.593	1	11
523.764	1	17
523.934	1	0
524.104	1	5
524.274	1	-1
524.444	1	-6
524.614	1	11
524.784	1	2
524.955	1	10
525.125	1	6
525.295	1	4
525.465	1	8
525.635	1	9
525.805	1	12
525.975	1	8
526.146	1	14
526.316	1	9
526.486	1	9
526.656	1	14
526.826	1	14
526.996	1	-1
527.166	1	9
527.337	1	-2
527.507	1	13
527.677	1	8
527.847	1	9
528.017	1	-6
528.187	1	-7
528.357	1	4
528.527	1	4
528.698	1	4
528.868	1	11
529.038	1	13
529.208	1	14
529.378	1	6
529.548	1	18
529.718	1	1
529.888	1	7
530.058	1	8
530.229	1	8
530.399	1	8
530.569	1	-2
530.739	1	9
530.909	1	3
531.079	1	17
531.249	1	7
531.419	1	13
531.589	1	3
531.760	1	-6
531.930	1	13
532.100	1	9
532.270	1	15
532.440	1	6
532.610	1	4
532.780	1	1
532.950	1	24
533.120	1	20
533.290	1	-3
533.461	1	13
533.631	1	4
533.801	1	3
533.971	1	-5
534.141	1	4
534.311	1	21
534.481	1	6
534.651	1	0
534.821	1	15
534.991	1	13
535.162	1	4
535.332	1	-6
535.502	1	16
535.672	1	24
535.842	1	11
536.012	1	2
536.182	1	10
536.352	1	1
536.522	1	14
536.692	1	7
536.862	1	13
537.032	1	5
537.203	1	21
537.373	1	1
537.543	1	2
537.713	1	-4
537.883	1	11
538.053	1	3
538.223	1	8
538.393	1	14
538.563	1	8
538.733	1	7
538.903	1	11
539.073	1	12
539.243	1	11
539.413	1	5
539.584	1	10
539.754	1	-1
539.924	1	15
540.094	1	13
540.264	1	11
540.434	1	7
540.604	1	2
540.774	1	-5
540.944	1	2
541.114	1	3
541.284	1	8
541.454	1	5
541.624	1	-1
541.794	1	4
541.964	1	8
542.134	1	-3
542.305	1	16
542.475	1	14
542.645	1	5
542.815	1	8
542.985	1	7
543.155	1	1
543.325	1	3
543.495	1	1
543.665	1	4
543.835	1	17
544.005	1	4
544.175	1	6
544.345	1	5
544.515	1	11
544.685	1	13
544.855	1	7
545.025	1	0
545.195	1	6
545.365	1	-1
545.535	1	10
545.705	1	0
545.875	1	-1
546.045	1	13
546.216	1	3
546.386	1	16
546.556	1	6
546.726	1	2
546.896	1	5
547.066	1	6
547.236	1	7
547.406	1	3
547.576	1	6
547.746	1	9
547.916	1	-3
548.086	1	5
548.256	1	4
548.426	1	15
548.596	1	-7
548.766	1	20
548.936	1	2
549.106	1	7
549.276	1	2
549.446	1	17
549.616	1	10
549.786	1	5
549.956	1	5
550.126	1	15
550.296	1	9
550.466	1	5
550.636	1	13
550.806	1	5
550.976	1	-3
551.146	1	4
551.316	1	11
551.486	1	11
551.656	1	5
551.826	1	8
551.996	1	4
552.166	1	6
552.336	1	11
552.506	1	4
552.676	1	13
552.846	1	17
553.016	1	9
553.186	1	13
553.356	1	5
553.526	1	8
553.696	1	5
553.866	1	9
554.036	1	3
554.206	1	10
554.376	1	5
554.546	1	4
554.716	1	7
554.886	1	9
555.056	1	5
555.226	1	8
555.396	1	5
555.566	1	5
555.736	1	8
555.906	1	7
556.076	1	13
556.246	1	8
556.416	1	-3
556.586	1	10
556.756	1	18
556.926	1	10
557.096	1	8
557.266	1	9
557.436	1	15
557.606	1	-6
557.776	1	1
557.946	1	12
558.116	1	8
558.286	1	-3
558.456	1	12
558.626	1	21
558.796	1	8
558.966	1	8
559.136	1	8
559.306	1	4
559.476	1	16
559.646	1	3
559.816	1	8
559.986	1	7
560.155	1	12
560.325	1	13
560.495	1	7
560.665	1	12
560.835	1	13
561.005	1	11
561.175	1	2
561.345	1	4
561.515	1	-4
561.685	1	-3
561.855	1	1
562.025	1	6
562.195	1	16
562.365	1	14
562.535	1	12
562.705	1	8
562.875	1	10
563.045	1	6
563.215	1	0
563.385	1	4
563.555	1	6
563.725	1	-2
563.895	1	-1
564.064	1	3
564.234	1	2
564.404	1	-1
564.574	1	3
564.744	1	3
564.914	1	3
565.084	1	5
565.254	1	9
565.424	1	6
565.594	1	6
565.764	1	6
565.934	1	9
566.104	1	8
566.274	1	-2
566.444	1	4
566.614	1	1
566.783	1	1
566.953	1	-5
567.123	1	0
567.293	1	-1
567.463	1	0
567.633	1	7
567.803	1	3
567.973	1	8
568.143	1	7
568.313	1	-1
568.483	1	6
568.653	1	2
568.823	1	0
568.993	1	13
569.162	1	-2
569.332	1	8
569.502	1	-4
569.672	1	7
569.842	1	12
570.012	1	3
570.182	1	7
570.352	1	2
570.522	1	7
570.692	1	1
570.862	1	6
571.031	1	0
571.201	1	12
571.371	1	-8
571.541	1	-1
571.711	1	11
571.881	1	9
572.051	1	-1
572.221	1	-3
572.391	1	18
572.561	1	4
572.731	1	6
572.900	1	5
573.070	1	6
573.240	1	7
573.410	1	-2
573.580	1	5
573.750	1	-6
573.920	1	2
574.090	1	4
574.260	1	11
574.430	1	-6
574.599	1	8
574.769	1	9
574.939	1	14
575.109	1	1
575.279	1	-1
575.449	1	6
575.619	1	5
575.789	1	-2
575.959	1	-8
576.128	1	13
576.298	1	8
576.468	1	12
576.638	1	7
576.808	1	7
576.978	1	11
577.148	1	1
577.318	1	2
577.487	1	4
577.657	1	-3
577.827	1	1
577.997	1	-2
578.167	1	5
578.337	1	8
578.507	1	-2
578.677	1	-2
578.846	1	7
579.016	1	-1
579.186	1	-6
579.356	1	3
579.526	1	9
579.696	1	13
579.866	1	2
580.036	1	7
580.205	1	7
580.375	1	0
580.545	1	0
580.715	1	4
580.885	1	12
581.055	1	1
581.225	1	7
581.394	1	9
581.564	1	9
581.734	1	-3
581.904	1	-2
582.074	1	9
582.244	1	8
582.414	1	-13
582.583	1	-2
582.753	1	-5
582.923	1	5
583.093	1	14
583.263	1	11
583.433	1	16
583.603	1	13
583.772	1	-6
583.942	1	-9
584.112	1	-7
584.282	1	8
584.452	1	8
584.622	1	3
584.791	1	11
584.961	1	5
585.131	1	6
585.301	1	2
585.471	1	-4
585.641	1	-8
585.811	1	5
585.980	1	6
586.150	1	3
586.320	1	-1
586.490	1	7
586.660	1	0
586.830	1	12
586.999	1	2
587.169	1	6
587.339	1	6
587.509	1	6
587.679	1	-6
587.849	1	2
588.018	1	-4
588.188	1	-2
588.358	1	7
588.528	1	5
588.698	1	1
588.867	1	10
589.037	1	-9
589.207	1	-3
589.377	1	-6
589.547	1	3
589.717	1	3
589.886	1	10
590.056	1	-5
590.226	1	11
590.396	1	-2
590.566	1	-3
590.735	1	-9
590.905	1	1
591.075	1	10
591.245	1	7
591.415	1	9
591.585	1	0
591.754	1	9
591.924	1	10
592.094	1	3
592.264	1	-4
592.434	1	8
592.603	1	-1
592.773	1	-1
592.943	1	7
593.113	1	12
593.283	1	7
593.452	1	7
593.622	1	-2
593.792	1	2
593.962	1	5
594.132	1	9
594.301	1	3
594.471	1	0
594.641	1	-9
594.811	1	11
594.981	1	10
595.150	1	4
595.320	1	-1
595.490	1	2
595.660	1	0
595.829	1	6
595.999	1	-3
596.169	1	-1
596.339	1	7
596.509	1	6
596.678	1	13
596.848	1	8
597.018	1	12
597.188	1	9
597.358	1	-15
597.527	1	-9
597.697	1	-1
597.867	1	7
598.037	1	6
598.206	1	10
598.376	1	-4
598.546	1	12
598.716	1	8
598.885	1	4
599.055	1	3
599.225	1	-3
599.395	1	14
599.565	1	-14
599.734	1	-3
599.904	1	-6
600.074	1	10
600.244	1	13
600.413	1	5
600.583	1	10
600.753	1	-3
600.923	1	7
601.092	1	7
601.262	1	4
601.432	1	0
601.602	1	-9
601.771	1	2
601.941	1	11
602.111	1	9
602.281	1	4
602.451	1	2
602.620	1	-7
602.790	1	7
602.960	1	-4
603.130	1	9
603.299	1	7
603.469	1	5
603.639	1	-4
603.809	1	3
603.978	1	-4
604.148	1	5
604.318	1	0
604.487	1	-2
604.657	1	3
604.827	1	-1
604.997	1	10
605.166	1	-12
605.336	1	7
605.506	1	9
605.676	1	7
605.845	1	-11
606.015	1	7
606.185	1	-2
606.355	1	12
606.524	1	3
606.694	1	1
606.864	1	-1
607.034	1	-1
607.203	1	4
607.373	1	13
607.543	1	2
607.712	1	7
607.882	1	3
608.052	1	12
608.222	1	-5
608.391	1	5
608.561	1	6
608.731	1	3
608.901	1	-1
609.070	1	-3
609.240	1	5
609.410	1	-4
609.579	1	2
609.749	1	6
609.919	1	6
610.089	1	-2
610.258	1	6
610.428	1	1
610.598	1	-1
610.767	1	-1
610.937	1	-2
611.107	1	10
611.277	1	10
611.446	1	5
611.616	1	13
611.786	1	5
611.955	1	-7
612.125	1	1
612.295	1	6
612.465	1	15
612.634	1	13
612.804	1	14
612.974	1	12
613.143	1	-3
613.313	1	3
613.483	1	-9
613.652	1	0
613.822	1	-1
613.992	1	11
614.162	1	-1
614.331	1	6
614.501	1	-12
614.671	1	-3
614.840	1	5
615.010	1	0
615.180	1	3
615.349	1	8
615.519	1	6
615.689	1	-4
615.858	1	-5
616.028	1	4
616.198	1	11
616.368	1	8
616.537	1	-8
616.707	1	3
616.877	1	1
617.046	1	12
617.216	1	6
617.386	1	9
617.555	1	1
617.725	1	3
617.895	1	12
618.064	1	2
618.234	1	-6
618.404	1	-1
618.573	1	2
618.743	1	7
618.913	1	10
619.082	1	-1
619.252	1	3
619.422	1	6
619.591	1	-1
619.761	1	-10
619.931	1	4
620.100	1	5
620.270	1	-1
620.440	1	-1
620.609	1	-1
620.779	1	-11
620.949	1	13
621.118	1	2
621.288	1	15
621.458	1	10
621.627	1	-2
621.797	1	7
621.967	1	4
622.136	1	-1
622.306	1	4
622.476	1	3
622.645	1	9
622.815	1	-5
622.985	1	7
623.154	1	-5
623.324	1	0
623.494	1	7
623.663	1	-6
623.833	1	-3
624.002	1	4
624.172	1	1
624.342	1	-6
624.511	1	8
624.681	1	-5
624.851	1	-6
625.020	1	0
625.190	1	3
625.360	1	1
625.529	1	-6
625.699	1	7
625.869	1	4
626.038	1	-10
626.208	1	-2
626.377	1	10
626.547	1	4
626.717	1	11
626.886	1	6
627.056	1	2
627.226	1	-18
627.395	1	3
627.565	1	-10
627.735	1	12
627.904	1	2
628.074	1	-3
628.243	1	0
628.413	1	9
628.583	1	-4
628.752	1	5
628.922	1	6
629.091	1	4
629.261	1	1
629.431	1	-3
629.600	1	0
629.770	1	7
629.940	1	12
630.109	1	7
630.279	1	-8
630.448	1	-3
630.618	1	0
630.788	1	2
630.957	1	5
631.127	1	8
631.297	1	-4
631.466	1	-5
631.636	1	0
631.805	1	3
631.975	1	5
632.145	1	-1
632.314	1	-10
632.484	1	5
632.653	1	2
632.823	1	-4
632.993	1	0
633.162	1	8
633.332	1	2
633.501	1	-3
633.671	1	6
633.841	1	16
634.010	1	9
634.180	1	-3
634.349	1	5
634.519	1	1
634.689	1	4
634.858	1	-7
635.028	1	4
635.197	1	14
635.367	1	12
635.537	1	14
635.706	1	3
635.876	1	7
636.045	1	-4
636.215	1	-2
636.384	1	1
636.554	1	-3
636.724	1	-1
636.893	1	-2
637.063	1	3
637.232	1	-1
637.402	1	-3
637.572	1	-1
637.741	1	2
637.911	1	3
638.080	1	1
638.250	1	-1
638.419	1	-7
638.589	1	-3
638.759	1	0
638.928	1	5
639.098	1	2
639.267	1	-1
639.437	1	0
639.606	1	2
639.776	1	6
639.946	1	-5
640.115	1	-3
640.285	1	5
640.454	1	9
640.624	1	-2
640.793	1	-2
640.963	1	0
641.132	1	-9
641.302	1	9
641.472	1	-2
641.641	1	0
641.811	1	7
641.980	1	9
642.150	1	-1
642.319	1	-2
642.489	1	-3
642.659	1	5
642.828	1	-4
642.998	1	7
643.167	1	1
643.337	1	4
643.506	1	-10
643.676	1	-3
643.845	1	-7
644.015	1	3
644.184	1	5
644.354	1	-3
644.524	1	13
644.693	1	-4
644.863	1	4
645.032	1	3
645.202	1	0
645.371	1	0
645.541	1	-9
645.710	1	9
645.880	1	-3
646.049	1	11
646.219	1	-1
646.388	1	15
646.558	1	-1
646.728	1	18
646.897	1	-11
647.067	1	2
647.236	1	4
647.406	1	1
647.575	1	6
647.745	1	1
647.914	1	-8
648.084	1	6
648.253	1	-16
648.423	1	7
648.592	1	-3
648.762	1	2
648.931	1	-12
649.101	1	11
649.270	1	-5
649.440	1	3
649.610	1	4
649.779	1	10
649.949	1	11
650.118	1	-5
650.288	1	5
650.457	1	-2
650.627	1	2
650.796	1	3
650.966	1	1
651.135	1	-2
651.305	1	9
651.474	1	12
651.644	1	13
651.813	1	-5
651.983	1	2
652.152	1	10
652.322	1	-2
652.491	1	6
652.661	1	2
652.830	1	2
653.000	1	1
653.169	1	7
653.339	1	8
653.508	1	8
653.678	1	0
653.847	1	-6
654.017	1	-1
654.186	1	1
654.356	1	0
654.525	1	-7
654.695	1	3
654.864	1	8
655.034	1	13
655.203	1	0
655.373	1	-1
655.542	1	-7
655.712	1	-7
655.881	1	-4
656.051	1	-13
656.220	1	9
656.390	1	-3
656.559	1	-2
656.729	1	3
656.898	1	-4
657.068	1	9
657.237	1	5
657.406	1	-5
657.576	1	-1
657.745	1	6
657.915	1	-6
658.084	1	3
658.254	1	0
658.423	1	23
658.593	1	-2
658.762	1	0
658.932	1	-8
659.101	1	-4
659.271	1	5
659.440	1	5
659.610	1	6
659.779	1	-2
659.949	1	3
660.118	1	5
660.288	1	7
660.457	1	1
660.626	1	-6
660.796	1	-2
660.965	1	2
661.135	1	-5
661.304	1	11
661.474	1	-1
661.643	1	17
661.813	1	-3
661.982	1	10
662.152	1	4
662.321	1	9
662.491	1	-4
662.660	1	1
662.829	1	-2
662.999	1	10
663.168	1	3
663.338	1	7
663.507	1	8
663.677	1	20
663.846	1	8
664.016	1	-5
664.185	1	2
664.354	1	-1
664.524	1	4
664.693	1	2
664.863	1	5
665.032	1	9
665.202	1	1
665.371	1	-4
665.541	1	-8
665.710	1	-2
665.879	1	-13
666.049	1	-1
666.218	1	2
666.388	1	5
666.557	1	2
666.727	1	2
666.896	1	7
667.065	1	3
667.235	1	-6
667.404	1	-2
667.574	1	13
667.743	1	2
667.913	1	-1
668.082	1	18
668.251	1	5
668.421	1	-5
668.590	1	8
668.760	1	-8
668.929	1	-5
669.099	1	7
669.268	1	8
669.437	1	0
669.607	1	-14
669.776	1	3
669.946	1	17
670.115	1	-3
670.285	1	-3
670.454	1	20
670.623	1	-5
670.793	1	-1
670.962	1	1
671.132	1	-11
671.301	1	2
671.470	1	16
671.640	1	-3
671.809	1	12
671.979	1	-7
672.148	1	-1
672.317	1	-1
672.487	1	1
672.656	1	14
672.826	1	-1
672.995	1	2
673.164	1	0
673.334	1	1
673.503	1	-5
673.673	1	7
673.842	1	-7
674.011	1	0
674.181	1	8
674.350	1	-4
674.520	1	1
674.689	1	-4
674.858	1	3
675.028	1	4
675.197	1	1
675.367	1	3
675.536	1	-2
675.705	1	0
675.875	1	2
676.044	1	-4
676.214	1	6
676.383	1	-8
676.552	1	-7
676.722	1	-2
676.891	1	4
677.060	1	-1
677.230	1	-4
677.399	1	14
677.569	1	12
677.738	1	8
677.907	1	-3
678.077	1	-6
678.246	1	-1
678.416	1	5
678.585	1	5
678.754	1	1
678.924	1	-11
679.093	1	-2
679.262	1	-4
679.432	1	13
679.601	1	-7
679.771	1	11
679.940	1	8
680.109	1	3
680.279	1	14
680.448	1	2
680.617	1	6
680.787	1	3
680.956	1	-9
681.125	1	-3
681.295	1	5
681.464	1	-1
681.634	1	14
681.803	1	2
681.972	1	0
682.142	1	-10
682.311	1	11
682.480	1	-1
682.650	1	3
682.819	1	-8
682.988	1	3
683.158	1	2
683.327	1	-1
683.496	1	0
683.666	1	8
683.835	1	0
684.004	1	-4
684.174	1	-7
684.343	1	3
684.512	1	-4
684.682	1	6
684.851	1	-4
685.021	1	5
685.190	1	2
685.359	1	4
685.529	1	2
685.698	1	6
685.867	1	-2
686.037	1	3
686.206	1	0
686.375	1	8
686.545	1	2
686.714	1	7
686.883	1	7
687.053	1	-5
687.222	1	6
687.391	1	3
687.561	1	1
687.730	1	-4
687.899	1	2
688.069	1	-6
688.238	1	1
688.407	1	0
688.577	1	12
688.746	1	6
