340.368	1	2
340.539	1	-6
340.710	1	11
340.881	1	-8
341.052	1	2
341.223	1	-1
341.394	1	4
341.565	1	0
341.737	1	9
341.908	1	-1
342.079	1	-3
342.250	1	2
342.421	1	10
342.592	1	8
342.763	1	6
342.934	1	6
343.105	1	5
343.276	1	-15
343.447	1	4
343.618	1	-11
343.789	1	5
343.960	1	8
344.131	1	0
344.302	1	9
344.473	1	-6
344.644	1	-1
344.815	1	12
344.986	1	5
345.157	1	-9
345.328	1	13
345.499	1	11
345.670	1	7
345.841	1	-1
346.012	1	8
346.183	1	-5
346.354	1	4
346.526	1	2
346.697	1	6
346.868	1	0
347.039	1	9
347.210	1	-4
347.381	1	-2
347.552	1	0
347.723	1	-8
347.894	1	9
348.065	1	-6
348.236	1	16
348.407	1	-12
348.578	1	4
348.749	1	7
348.920	1	5
349.091	1	-9
349.262	1	2
349.433	1	-9
349.604	1	-1
349.775	1	0
349.946	1	2
350.117	1	0
350.288	1	4
350.459	1	10
350.630	1	10
350.801	1	12
350.972	1	-3
351.143	1	-1
351.314	1	4
351.485	1	-3
351.656	1	2
351.827	1	0
351.998	1	12
352.169	1	7
352.340	1	7
352.511	1	6
352.682	1	2
352.853	1	1
353.024	1	7
353.195	1	-1
353.366	1	-10
353.537	1	-6
353.708	1	4
353.879	1	5
354.050	1	6
354.221	1	-3
354.392	1	0
354.563	1	-5
354.734	1	6
354.905	1	1
355.076	1	2
355.247	1	6
355.418	1	-5
355.589	1	9
355.760	1	-3
355.931	1	-2
356.102	1	0
356.273	1	10
356.444	1	9
356.615	1	-1
356.785	1	-5
356.956	1	-4
357.127	1	1
357.298	1	5
357.469	1	-1
357.640	1	-2
357.811	1	-5
357.982	1	-5
358.153	1	3
358.324	1	4
358.495	1	3
358.666	1	0
358.837	1	1
359.008	1	1
359.179	1	2
359.350	1	0
359.521	1	-1
359.692	1	-12
359.863	1	5
360.034	1	0
360.205	1	3
360.376	1	6
360.547	1	3
360.718	1	3
360.889	1	2
361.060	1	7
361.231	1	4
361.401	1	2
361.572	1	4
361.743	1	4
361.914	1	-10
362.085	1	10
362.256	1	3
362.427	1	6
362.598	1	2
362.769	1	-3
362.940	1	-1
363.111	1	8
363.282	1	2
363.453	1	9
363.624	1	6
363.795	1	-4
363.966	1	3
364.137	1	2
364.308	1	10
364.478	1	0
364.649	1	1
364.820	1	5
364.991	1	-1
365.162	1	-8
365.333	1	-6
365.504	1	6
365.675	1	3
365.846	1	2
366.017	1	6
366.188	1	3
366.359	1	-6
366.530	1	-7
366.701	1	-6
366.871	1	-2
367.042	1	10
367.213	1	5
367.384	1	8
367.555	1	-7
367.726	1	3
367.897	1	-10
368.068	1	1
368.239	1	-8
368.410	1	5
368.581	1	-2
368.752	1	6
368.923	1	0
369.093	1	3
369.264	1	5
369.435	1	-2
369.606	1	10
369.777	1	1
369.948	1	8
370.119	1	4
370.290	1	9
370.461	1	5
370.632	1	17
370.803	1	-4
370.973	1	-2
371.144	1	-7
371.315	1	2
371.486	1	4
371.657	1	7
371.828	1	-1
371.999	1	5
372.170	1	6
372.341	1	-1
372.512	1	5
372.682	1	-3
372.853	1	-3
373.024	1	2
373.195	1	4
373.366	1	5
373.537	1	-4
373.708	1	-1
373.879	1	-1
374.050	1	10
374.220	1	-3
374.391	1	8
374.562	1	-2
374.733	1	5
374.904	1	-10
375.075	1	-1
375.246	1	-7
375.417	1	1
375.588	1	-7
375.758	1	-3
375.929	1	-1
376.100	1	5
376.271	1	-4
376.442	1	9
376.613	1	-1
376.784	1	-5
376.955	1	1
377.125	1	1
377.296	1	8
377.467	1	-2
377.638	1	-4
377.809	1	3
377.980	1	11
378.151	1	5
378.321	1	0
378.492	1	-7
378.663	1	-1
378.834	1	-4
379.005	1	10
379.176	1	-2
379.347	1	-10
379.518	1	2
379.688	1	-9
379.859	1	9
380.030	1	-5
380.201	1	9
380.372	1	12
380.543	1	-6
380.714	1	4
380.884	1	3
381.055	1	-1
381.226	1	-6
381.397	1	0
381.568	1	4
381.739	1	3
381.910	1	8
382.080	1	1
382.251	1	11
382.422	1	0
382.593	1	5
382.764	1	-9
382.935	1	-3
383.105	1	-7
383.276	1	4
383.447	1	-2
383.618	1	-4
383.789	1	8
383.960	1	7
384.130	1	0
384.301	1	9
384.472	1	-6
384.643	1	-6
384.814	1	4
384.985	1	12
385.156	1	9
385.326	1	4
385.497	1	-7
385.668	1	0
385.839	1	-1
386.010	1	1
386.180	1	0
386.351	1	-10
386.522	1	-1
386.693	1	-2
386.864	1	-1
387.035	1	7
387.205	1	4
387.376	1	-4
387.547	1	5
387.718	1	4
387.889	1	-5
388.060	1	-5
388.230	1	6
388.401	1	1
388.572	1	3
388.743	1	1
388.914	1	-4
389.084	1	7
389.255	1	1
389.426	1	6
389.597	1	-9
389.768	1	-1
389.939	1	1
390.109	1	-5
390.280	1	9
390.451	1	2
390.622	1	2
390.793	1	-5
390.963	1	-2
391.134	1	-2
391.305	1	-5
391.476	1	-1
391.647	1	-6
391.817	1	3
391.988	1	7
392.159	1	10
392.330	1	5
392.501	1	3
392.671	1	3
392.842	1	-2
393.013	1	1
393.184	1	0
393.355	1	-5
393.525	1	4
393.696	1	0
393.867	1	-1
394.038	1	0
394.208	1	7
394.379	1	3
394.550	1	-10
394.721	1	0
394.892	1	-1
395.062	1	-8
395.233	1	0
395.404	1	-1
395.575	1	4
395.746	1	5
395.916	1	2
396.087	1	7
396.258	1	6
396.429	1	-6
396.599	1	7
396.770	1	2
396.941	1	-6
397.112	1	4
397.283	1	-1
397.453	1	-4
397.624	1	5
397.795	1	-4
397.966	1	8
398.136	1	5
398.307	1	5
398.478	1	2
398.649	1	4
398.819	1	0
398.990	1	-13
399.161	1	-3
399.332	1	-5
399.503	1	2
399.673	1	1
399.844	1	0
400.015	1	5
400.186	1	5
400.356	1	7
400.527	1	-8
400.698	1	5
400.869	1	3
401.039	1	-2
401.210	1	-7
401.381	1	-5
401.552	1	8
401.722	1	-1
401.893	1	5
402.064	1	-7
402.235	1	4
402.405	1	3
402.576	1	5
402.747	1	-3
402.918	1	-7
403.088	1	-10
403.259	1	7
403.430	1	3
403.601	1	-1
403.771	1	-5
403.942	1	4
404.113	1	-10
404.284	1	-1
404.454	1	-12
404.625	1	6
404.796	1	0
404.967	1	9
405.137	1	6
405.308	1	7
405.479	1	0
405.649	1	5
405.820	1	-3
405.991	1	11
406.162	1	-9
406.332	1	2
406.503	1	2
406.674	1	5
406.845	1	8
407.015	1	2
407.186	1	7
407.357	1	3
407.527	1	-7
407.698	1	3
407.869	1	5
408.040	1	-8
408.210	1	-2
408.381	1	7
408.552	1	10
408.722	1	9
408.893	1	5
409.064	1	-6
409.235	1	4
409.405	1	6
409.576	1	3
409.747	1	-7
409.917	1	7
410.088	1	2
410.259	1	-3
410.430	1	0
410.600	1	8
410.771	1	2
410.942	1	6
411.112	1	6
411.283	1	-2
411.454	1	0
411.625	1	-6
411.795	1	1
411.966	1	1
412.137	1	-1
412.307	1	0
412.478	1	5
412.649	1	5
412.819	1	9
412.990	1	-8
413.161	1	0
413.332	1	-5
413.502	1	-4
413.673	1	7
413.844	1	7
414.014	1	11
414.185	1	-5
414.356	1	11
414.526	1	-7
414.697	1	9
414.868	1	-9
415.038	1	4
415.209	1	1
415.380	1	-3
415.550	1	-17
415.721	1	4
415.892	1	2
416.063	1	0
416.233	1	1
416.404	1	-2
416.575	1	3
416.745	1	-2
416.916	1	2
417.087	1	8
417.257	1	1
417.428	1	10
417.599	1	-6
417.769	1	2
417.940	1	1
418.111	1	4
418.281	1	2
418.452	1	2
418.623	1	6
418.793	1	8
418.964	1	-1
419.135	1	8
419.305	1	15
419.476	1	17
419.647	1	-3
419.817	1	0
419.988	1	2
420.159	1	-9
420.329	1	3
420.500	1	-3
420.671	1	7
420.841	1	-5
421.012	1	0
421.183	1	-1
421.353	1	13
421.524	1	8
421.695	1	2
421.865	1	-6
422.036	1	-12
422.206	1	-6
422.377	1	0
422.548	1	3
422.718	1	1
422.889	1	4
423.060	1	14
423.230	1	1
423.401	1	-2
423.572	1	-11
423.742	1	-1
423.913	1	2
424.084	1	-3
424.254	1	4
424.425	1	-9
424.595	1	6
424.766	1	7
424.937	1	2
425.107	1	5
425.278	1	7
425.449	1	-5
425.619	1	0
425.790	1	-4
425.961	1	-6
426.131	1	-3
426.302	1	0
426.472	1	9
426.643	1	0
426.814	1	-4
426.984	1	2
427.155	1	6
427.326	1	2
427.496	1	-2
427.667	1	10
427.837	1	12
428.008	1	10
428.179	1	-1
428.349	1	8
428.520	1	3
428.691	1	-4
428.861	1	-2
429.032	1	5
429.202	1	4
429.373	1	11
429.544	1	-4
429.714	1	8
429.885	1	-1
430.055	1	8
430.226	1	-7
430.397	1	4
430.567	1	3
430.738	1	0
430.909	1	-1
431.079	1	-2
431.250	1	5
431.420	1	5
431.591	1	18
431.762	1	7
431.932	1	4
432.103	1	2
432.273	1	3
432.444	1	0
432.615	1	-1
432.785	1	2
432.956	1	-1
433.126	1	1
433.297	1	5
433.468	1	8
433.638	1	0
433.809	1	-1
433.979	1	5
434.150	1	1
434.320	1	-3
434.491	1	0
434.662	1	2
434.832	1	-8
435.003	1	0
435.173	1	7
435.344	1	2
435.515	1	3
435.685	1	-14
435.856	1	1
436.026	1	-3
436.197	1	2
436.368	1	-3
436.538	1	17
436.709	1	5
436.879	1	2
437.050	1	8
437.220	1	8
437.391	1	3
437.562	1	-4
437.732	1	-10
437.903	1	-2
438.073	1	3
438.244	1	9
438.414	1	-12
438.585	1	2
438.756	1	6
438.926	1	2
439.097	1	6
439.267	1	9
439.438	1	0
439.608	1	1
439.779	1	-8
439.949	1	9
440.120	1	-1
440.291	1	2
440.461	1	-2
440.632	1	4
440.802	1	-8
440.973	1	5
441.143	1	-9
441.314	1	-3
441.485	1	0
441.655	1	-2
441.826	1	7
441.996	1	0
442.167	1	2
442.337	1	5
442.508	1	0
442.678	1	2
442.849	1	7
443.019	1	1
443.190	1	4
443.361	1	5
443.531	1	7
443.702	1	-2
443.872	1	10
444.043	1	4
444.213	1	-4
444.384	1	1
444.554	1	0
444.725	1	-2
444.895	1	-1
445.066	1	-5
445.237	1	-23
445.407	1	-10
445.578	1	-8
445.748	1	3
445.919	1	9
446.089	1	7
446.260	1	-2
446.430	1	-5
446.601	1	14
446.771	1	8
446.942	1	2
447.112	1	-3
447.283	1	-3
447.453	1	11
447.624	1	2
447.794	1	9
447.965	1	-10
448.135	1	0
448.306	1	1
448.477	1	1
448.647	1	0
448.818	1	-4
448.988	1	-7
449.159	1	3
449.329	1	-8
449.500	1	12
449.670	1	7
449.841	1	1
450.011	1	1
450.182	1	0
450.352	1	3
450.523	1	3
450.693	1	7
450.864	1	1
451.034	1	5
451.205	1	1
451.375	1	-2
451.546	1	-2
451.716	1	5
451.887	1	-7
452.057	1	-10
452.228	1	13
452.398	1	4
452.569	1	8
452.739	1	10
452.910	1	-1
453.080	1	-1
453.251	1	0
453.421	1	1
453.592	1	-6
453.762	1	3
453.933	1	11
454.103	1	-1
454.274	1	-9
454.444	1	1
454.615	1	8
454.785	1	0
454.956	1	-7
455.126	1	1
455.297	1	-6
455.467	1	-5
455.638	1	10
455.808	1	0
455.979	1	1
456.149	1	-3
456.320	1	3
456.490	1	4
456.661	1	-5
456.831	1	7
457.001	1	4
457.172	1	12
457.342	1	0
457.513	1	-8
457.683	1	6
457.854	1	2
458.024	1	4
458.195	1	3
458.365	1	0
458.536	1	1
458.706	1	15
458.877	1	-5
459.047	1	8
459.218	1	-8
459.388	1	6
459.559	1	8
459.729	1	0
459.899	1	-1
460.070	1	-7
460.240	1	-10
460.411	1	-9
460.581	1	-2
460.752	1	-4
460.922	1	7
461.093	1	0
461.263	1	7
461.434	1	10
461.604	1	7
461.775	1	5
461.945	1	8
462.115	1	0
462.286	1	2
462.456	1	-2
462.627	1	-5
462.797	1	-7
462.968	1	-6
463.138	1	-3
463.309	1	-2
463.479	1	2
463.649	1	-1
463.820	1	-2
463.990	1	3
464.161	1	5
464.331	1	0
464.502	1	-9
464.672	1	-9
464.843	1	1
465.013	1	-8
465.183	1	5
465.354	1	2
465.524	1	1
465.695	1	0
465.865	1	-14
466.036	1	1
466.206	1	-2
466.376	1	2
466.547	1	-8
466.717	1	11
466.888	1	2
467.058	1	1
467.229	1	-5
467.399	1	4
467.569	1	0
467.740	1	0
467.910	1	2
468.081	1	8
468.251	1	-1
468.422	1	-1
468.592	1	-5
468.762	1	-3
468.933	1	12
469.103	1	-2
469.274	1	6
469.444	1	-13
469.614	1	1
469.785	1	10
469.955	1	-7
470.126	1	3
470.296	1	-2
470.467	1	-4
470.637	1	2
470.807	1	-3
470.978	1	-1
471.148	1	7
471.319	1	-3
471.489	1	-7
471.659	1	-2
471.830	1	-9
472.000	1	-4
472.171	1	9
472.341	1	-1
472.511	1	10
472.682	1	6
472.852	1	5
473.023	1	-4
473.193	1	2
473.363	1	0
473.534	1	6
473.704	1	-3
473.875	1	4
474.045	1	-2
474.215	1	4
474.386	1	13
474.556	1	7
474.727	1	-1
474.897	1	2
475.067	1	1
475.238	1	-1
475.408	1	8
475.578	1	8
475.749	1	5
475.919	1	3
476.090	1	7
476.260	1	2
476.430	1	3
476.601	1	9
476.771	1	1
476.942	1	5
477.112	1	-10
477.282	1	15
477.453	1	-6
477.623	1	-6
477.793	1	7
477.964	1	-6
478.134	1	1
478.305	1	-5
478.475	1	6
478.645	1	0
478.816	1	3
478.986	1	10
479.156	1	-7
479.327	1	-5
479.497	1	2
479.667	1	4
479.838	1	0
480.008	1	7
480.179	1	9
480.349	1	-4
480.519	1	-11
480.690	1	1
480.860	1	-3
481.030	1	8
481.201	1	6
481.371	1	6
481.541	1	-8
481.712	1	6
481.882	1	7
482.053	1	18
482.223	1	-5
482.393	1	9
482.564	1	1
482.734	1	14
482.904	1	-8
483.075	1	-2
483.245	1	10
483.415	1	-2
483.586	1	3
483.756	1	-10
483.926	1	2
484.097	1	6
484.267	1	3
484.437	1	4
484.608	1	7
484.778	1	16
484.948	1	-5
485.119	1	-2
485.289	1	8
485.459	1	14
485.630	1	7
485.800	1	-2
485.970	1	4
486.141	1	8
486.311	1	-10
486.481	1	-1
486.652	1	5
486.822	1	2
486.992	1	-2
487.163	1	15
487.333	1	-2
487.503	1	-2
487.674	1	2
487.844	1	0
488.014	1	7
488.185	1	2
488.355	1	10
488.525	1	2
488.696	1	4
488.866	1	-3
489.036	1	-1
489.207	1	-7
489.377	1	-3
489.547	1	11
489.718	1	9
489.888	1	3
490.058	1	-11
490.228	1	-2
490.399	1	2
490.569	1	9
490.739	1	0
490.910	1	-3
491.080	1	-1
491.250	1	2
491.421	1	-6
491.591	1	-7
491.761	1	-5
491.932	1	11
492.102	1	1
492.272	1	-8
492.442	1	-5
492.613	1	-1
492.783	1	3
492.953	1	-3
493.124	1	4
493.294	1	-10
493.464	1	6
493.635	1	5
493.805	1	15
493.975	1	-9
494.145	1	-2
494.316	1	6
494.486	1	6
494.656	1	0
494.827	1	-9
494.997	1	5
495.167	1	1
495.337	1	10
495.508	1	0
495.678	1	-2
495.848	1	2
496.019	1	10
496.189	1	6
496.359	1	0
496.529	1	0
496.700	1	4
496.870	1	1
497.040	1	-4
497.211	1	12
497.381	1	-10
497.551	1	-7
497.721	1	1
497.892	1	4
498.062	1	-10
498.232	1	8
498.403	1	-2
498.573	1	7
498.743	1	4
498.913	1	-1
499.084	1	-8
499.254	1	0
499.424	1	-4
499.594	1	1
499.765	1	-5
499.935	1	5
500.105	1	17
500.275	1	15
500.446	1	8
500.616	1	2
500.786	1	-1
500.956	1	3
501.127	1	7
501.297	1	-8
501.467	1	-4
501.638	1	3
501.808	1	-9
501.978	1	2
502.148	1	12
502.319	1	3
502.489	1	1
502.659	1	9
502.829	1	14
503.000	1	-10
503.170	1	-2
503.340	1	-1
503.510	1	-4
503.681	1	-10
503.851	1	3
504.021	1	-3
504.191	1	2
504.362	1	-5
504.532	1	8
504.702	1	7
504.872	1	9
505.042	1	-1
505.213	1	-4
505.383	1	2
505.553	1	3
505.723	1	3
505.894	1	-4
506.064	1	-13
506.234	1	4
506.404	1	0
506.575	1	-4
506.745	1	5
506.915	1	8
507.085	1	10
507.256	1	-5
507.426	1	7
507.596	1	5
507.766	1	-5
507.936	1	3
508.107	1	5
508.277	1	-4
508.447	1	1
508.617	1	-10
508.788	1	8
508.958	1	-6
509.128	1	1
509.298	1	9
509.468	1	0
509.639	1	0
509.809	1	0
509.979	1	4
510.149	1	3
510.319	1	-2
510.490	1	10
510.660	1	8
510.830	1	-10
511.000	1	-3
511.171	1	-4
511.341	1	5
511.511	1	5
511.681	1	-1
511.851	1	9
512.022	1	-2
512.192	1	-2
512.362	1	25
512.532	1	11
512.702	1	-5
512.873	1	2
513.043	1	6
513.213	1	4
513.383	1	5
513.553	1	10
513.724	1	4
513.894	1	0
514.064	1	1
514.234	1	0
514.404	1	7
514.575	1	2
514.745	1	-1
514.915	1	-11
515.085	1	5
515.255	1	-2
515.425	1	13
515.596	1	6
515.766	1	9
515.936	1	3
516.106	1	2
516.276	1	2
516.447	1	-3
516.617	1	2
516.787	1	7
516.957	1	0
517.127	1	12
517.297	1	14
517.468	1	-7
517.638	1	-1
517.808	1	5
517.978	1	7
518.148	1	-2
518.319	1	5
518.489	1	4
518.659	1	-6
518.829	1	0
518.999	1	6
519.169	1	-4
519.340	1	3
519.510	1	-3
519.680	1	1
519.850	1	1
520.020	1	0
520.190	1	-3
520.361	1	-6
520.531	1	5
520.701	1	4
520.871	1	4
521.041	1	0
521.211	1	-11
521.382	1	4
521.552	1	12
521.722	1	2
521.892	1	3
522.062	1	4
522.232	1	5
522.402	1	5
522.573	1	9
522.743	1	-10
522.913	1	10
523.083	1	7
523.253	1	-6
523.423	1	3
523.593	1	2
523.764	1	11
523.934	1	-1
524.104	1	10
524.274	1	5
524.444	1	0
524.614	1	3
524.784	1	-8
524.955	1	-8
525.125	1	-3
525.295	1	-13
525.465	1	16
525.635	1	14
525.805	1	7
525.975	1	-6
526.146	1	3
526.316	1	-7
526.486	1	9
526.656	1	13
526.826	1	2
526.996	1	-1
527.166	1	11
527.337	1	-5
527.507	1	2
527.677	1	-9
527.847	1	2
528.017	1	-13
528.187	1	2
528.357	1	-1
528.527	1	-4
528.698	1	12
528.868	1	-6
529.038	1	8
529.208	1	2
529.378	1	-3
529.548	1	13
529.718	1	-8
529.888	1	12
530.058	1	9
530.229	1	3
530.399	1	1
530.569	1	-2
530.739	1	-1
530.909	1	-1
531.079	1	13
531.249	1	-2
531.419	1	2
531.589	1	4
531.760	1	-7
531.930	1	4
532.100	1	1
532.270	1	3
532.440	1	-7
532.610	1	-3
532.780	1	-11
532.950	1	7
533.120	1	7
533.290	1	-5
533.461	1	-7
533.631	1	4
533.801	1	0
533.971	1	-3
534.141	1	0
534.311	1	1
534.481	1	-5
534.651	1	-6
534.821	1	11
534.991	1	3
535.162	1	3
535.332	1	-4
535.502	1	11
535.672	1	11
535.842	1	2
536.012	1	-8
536.182	1	9
536.352	1	-13
536.522	1	-2
536.692	1	3
536.862	1	10
537.032	1	4
537.203	1	10
537.373	1	2
537.543	1	2
537.713	1	-3
537.883	1	11
538.053	1	-4
538.223	1	-5
538.393	1	5
538.563	1	8
538.733	1	-1
538.903	1	6
539.073	1	6
539.243	1	2
539.413	1	-8
539.584	1	10
539.754	1	-4
539.924	1	6
540.094	1	4
540.264	1	-1
540.434	1	-1
540.604	1	-6
540.774	1	-5
540.944	1	0
541.114	1	8
541.284	1	-3
541.454	1	0
541.624	1	3
541.794	1	-11
541.964	1	6
542.134	1	-1
542.305	1	17
542.475	1	5
542.645	1	-1
542.815	1	8
542.985	1	5
543.155	1	1
543.325	1	-1
543.495	1	-6
543.665	1	8
543.835	1	8
544.005	1	-5
544.175	1	-4
544.345	1	0
544.515	1	4
544.685	1	6
544.855	1	6
545.025	1	3
545.195	1	-7
545.365	1	-17
545.535	1	-3
545.705	1	13
545.875	1	-3
546.045	1	8
546.216	1	-6
546.386	1	7
546.556	1	7
546.726	1	-3
546.896	1	-5
547.066	1	-7
547.236	1	3
547.406	1	-2
547.576	1	5
547.746	1	6
547.916	1	-1
548.086	1	9
548.256	1	8
548.426	1	4
548.596	1	-3
548.766	1	5
548.936	1	2
549.106	1	9
549.276	1	-5
549.446	1	8
549.616	1	4
549.786	1	2
549.956	1	3
550.126	1	5
550.296	1	3
550.466	1	2
550.636	1	5
550.806	1	-3
550.976	1	-12
551.146	1	-1
551.316	1	11
551.486	1	11
551.656	1	8
551.826	1	0
551.996	1	-5
552.166	1	-8
552.336	1	2
552.506	1	-4
552.676	1	8
552.846	1	3
553.016	1	8
553.186	1	9
553.356	1	6
553.526	1	11
553.696	1	1
553.866	1	-6
554.036	1	-7
554.206	1	-6
554.376	1	9
554.546	1	1
554.716	1	9
554.886	1	4
555.056	1	-1
555.226	1	6
555.396	1	-6
555.566	1	6
555.736	1	-6
555.906	1	-5
556.076	1	11
556.246	1	7
556.416	1	-3
556.586	1	1
556.756	1	9
556.926	1	18
557.096	1	6
557.266	1	-1
557.436	1	-1
557.606	1	-2
557.776	1	-9
557.946	1	6
558.116	1	4
558.286	1	6
558.456	1	3
558.626	1	11
558.796	1	-4
558.966	1	-5
559.136	1	-4
559.306	1	4
559.476	1	6
559.646	1	-3
559.816	1	-3
559.986	1	-2
560.155	1	12
560.325	1	2
560.495	1	-7
560.665	1	14
560.835	1	1
561.005	1	14
561.175	1	4
561.345	1	-5
561.515	1	-8
561.685	1	6
561.855	1	-1
562.025	1	6
562.195	1	-5
562.365	1	8
562.535	1	-5
562.705	1	3
562.875	1	1
563.045	1	4
563.215	1	-4
563.385	1	3
563.555	1	-5
563.725	1	1
563.895	1	19
564.064	1	8
564.234	1	-1
564.404	1	0
564.574	1	0
564.744	1	4
564.914	1	-7
565.084	1	8
565.254	1	8
565.424	1	9
565.594	1	8
565.764	1	1
565.934	1	8
566.104	1	2
566.274	1	-10
566.444	1	7
566.614	1	6
566.783	1	0
566.953	1	-2
567.123	1	0
567.293	1	-5
567.463	1	-2
567.633	1	0
567.803	1	6
567.973	1	0
568.143	1	-1
568.313	1	-2
568.483	1	6
568.653	1	8
568.823	1	3
568.993	1	7
569.162	1	-3
569.332	1	7
569.502	1	-9
569.672	1	-8
569.842	1	9
570.012	1	7
570.182	1	-2
570.352	1	1
570.522	1	8
570.692	1	8
570.862	1	2
571.031	1	2
571.201	1	3
571.371	1	-1
571.541	1	-8
571.711	1	9
571.881	1	-8
572.051	1	14
572.221	1	0
572.391	1	15
572.561	1	-1
572.731	1	-4
572.900	1	1
573.070	1	0
573.240	1	13
573.410	1	4
573.580	1	3
573.750	1	-2
573.920	1	-5
574.090	1	-11
574.260	1	18
574.430	1	-1
574.599	1	3
574.769	1	0
574.939	1	5
575.109	1	-9
575.279	1	-1
575.449	1	9
575.619	1	-3
575.789	1	-1
575.959	1	-7
576.128	1	10
576.298	1	6
576.468	1	0
576.638	1	-2
576.808	1	2
576.978	1	-3
577.148	1	-2
577.318	1	0
577.487	1	7
577.657	1	6
577.827	1	2
577.997	1	-3
578.167	1	3
578.337	1	12
578.507	1	-12
578.677	1	-21
578.846	1	0
579.016	1	5
579.186	1	-6
579.356	1	2
579.526	1	1
579.696	1	8
579.866	1	-4
580.036	1	-9
580.205	1	8
580.375	1	3
580.545	1	2
580.715	1	6
580.885	1	7
581.055	1	-1
581.225	1	4
581.394	1	3
581.564	1	11
581.734	1	-8
581.904	1	1
582.074	1	0
582.244	1	6
582.414	1	-6
582.583	1	6
582.753	1	1
582.923	1	4
583.093	1	7
583.263	1	14
583.433	1	-5
583.603	1	10
583.772	1	-10
583.942	1	-6
584.112	1	0
584.282	1	3
584.452	1	-9
584.622	1	4
584.791	1	5
584.961	1	-5
585.131	1	-2
585.301	1	0
585.471	1	-2
585.641	1	-4
585.811	1	-4
585.980	1	8
586.150	1	-3
586.320	1	0
586.490	1	-6
586.660	1	6
586.830	1	7
586.999	1	-3
587.169	1	8
587.339	1	-13
587.509	1	9
587.679	1	-6
587.849	1	-6
588.018	1	-3
588.188	1	-8
588.358	1	3
588.528	1	4
588.698	1	-1
588.867	1	17
589.037	1	-4
589.207	1	-2
589.377	1	-7
589.547	1	3
589.717	1	-1
589.886	1	11
590.056	1	-3
590.226	1	11
590.396	1	0
590.566	1	-4
590.735	1	-1
590.905	1	3
591.075	1	9
591.245	1	4
591.415	1	2
591.585	1	-1
591.754	1	17
591.924	1	7
592.094	1	6
592.264	1	2
592.434	1	5
592.603	1	3
592.773	1	2
592.943	1	8
593.113	1	13
593.283	1	2
593.452	1	13
593.622	1	-9
593.792	1	0
593.962	1	6
594.132	1	7
594.301	1	7
594.471	1	4
594.641	1	-13
594.811	1	8
594.981	1	6
595.150	1	2
595.320	1	-9
595.490	1	-6
595.660	1	7
595.829	1	8
595.999	1	-6
596.169	1	-7
596.339	1	2
596.509	1	3
596.678	1	6
596.848	1	10
597.018	1	6
597.188	1	10
597.358	1	0
597.527	1	-11
597.697	1	-6
597.867	1	6
598.037	1	8
598.206	1	7
598.376	1	-7
598.546	1	1
598.716	1	3
598.885	1	-1
599.055	1	6
599.225	1	5
599.395	1	2
599.565	1	-9
599.734	1	6
599.904	1	-1
600.074	1	1
600.244	1	2
600.413	1	-2
600.583	1	-4
600.753	1	2
600.923	1	0
601.092	1	6
601.262	1	1
601.432	1	6
601.602	1	0
601.771	1	2
601.941	1	5
602.111	1	4
602.281	1	-1
602.451	1	-2
602.620	1	-4
602.790	1	4
602.960	1	0
603.130	1	3
603.299	1	2
603.469	1	3
603.639	1	-3
603.809	1	-2
603.978	1	3
604.148	1	4
604.318	1	-5
604.487	1	-2
604.657	1	0
604.827	1	1
604.997	1	8
605.166	1	-2
605.336	1	1
605.506	1	0
605.676	1	17
605.845	1	-4
606.015	1	-1
606.185	1	-11
606.355	1	1
606.524	1	-3
606.694	1	7
606.864	1	-2
607.034	1	5
607.203	1	-6
607.373	1	13
607.543	1	-2
607.712	1	17
607.882	1	-5
608.052	1	11
608.222	1	-2
608.391	1	2
608.561	1	4
608.731	1	1
608.901	1	7
609.070	1	0
609.240	1	9
609.410	1	6
609.579	1	-4
609.749	1	-1
609.919	1	1
610.089	1	3
610.258	1	8
610.428	1	-3
610.598	1	7
610.767	1	3
610.937	1	-2
611.107	1	7
611.277	1	6
611.446	1	6
611.616	1	6
611.786	1	13
611.955	1	-4
612.125	1	4
612.295	1	-1
612.465	1	5
612.634	1	4
612.804	1	10
612.974	1	9
613.143	1	-5
613.313	1	-9
613.483	1	-11
613.652	1	-3
613.822	1	-1
613.992	1	4
614.162	1	4
614.331	1	2
614.501	1	-4
614.671	1	-4
614.840	1	7
615.010	1	-3
615.180	1	5
615.349	1	5
615.519	1	6
615.689	1	-5
615.858	1	7
616.028	1	3
616.198	1	10
616.368	1	5
616.537	1	2
616.707	1	-6
616.877	1	10
617.046	1	3
617.216	1	-1
617.386	1	3
617.555	1	8
617.725	1	3
617.895	1	7
618.064	1	-2
618.234	1	-1
618.404	1	1
618.573	1	0
618.743	1	4
618.913	1	1
619.082	1	3
619.252	1	-3
619.422	1	5
619.591	1	-5
619.761	1	0
619.931	1	-1
620.100	1	-3
620.270	1	1
620.440	1	1
620.609	1	2
620.779	1	-11
620.949	1	0
621.118	1	-2
621.288	1	21
621.458	1	6
621.627	1	1
621.797	1	10
621.967	1	3
622.136	1	-4
622.306	1	-8
622.476	1	8
622.645	1	10
622.815	1	-9
622.985	1	5
623.154	1	4
623.324	1	1
623.494	1	6
623.663	1	-5
623.833	1	-5
624.002	1	5
624.172	1	4
624.342	1	12
624.511	1	7
624.681	1	-7
624.851	1	-3
625.020	1	1
625.190	1	1
625.360	1	5
625.529	1	5
625.699	1	1
625.869	1	8
626.038	1	-7
626.208	1	-6
626.377	1	5
626.547	1	-3
626.717	1	6
626.886	1	5
627.056	1	-1
627.226	1	-5
627.395	1	-8
627.565	1	-4
627.735	1	3
627.904	1	-1
628.074	1	-3
628.243	1	-6
628.413	1	4
628.583	1	-3
628.752	1	6
628.922	1	6
629.091	1	-4
629.261	1	-11
629.431	1	7
629.600	1	6
629.770	1	2
629.940	1	2
630.109	1	2
630.279	1	-2
630.448	1	-4
630.618	1	6
630.788	1	-2
630.957	1	8
631.127	1	8
631.297	1	2
631.466	1	3
631.636	1	-7
631.805	1	2
631.975	1	-2
632.145	1	-3
632.314	1	-6
632.484	1	4
632.653	1	-3
632.823	1	3
632.993	1	0
633.162	1	3
633.332	1	4
633.501	1	-1
633.671	1	0
633.841	1	16
634.010	1	5
634.180	1	0
634.349	1	-5
634.519	1	3
634.689	1	8
634.858	1	5
635.028	1	-2
635.197	1	16
635.367	1	2
635.537	1	4
635.706	1	-7
635.876	1	-3
636.045	1	-2
636.215	1	1
636.384	1	0
636.554	1	-3
636.724	1	4
636.893	1	-7
637.063	1	2
637.232	1	-4
637.402	1	1
637.572	1	-6
637.741	1	5
637.911	1	5
638.080	1	6
638.250	1	-2
638.419	1	5
638.589	1	-12
638.759	1	-8
638.928	1	0
639.098	1	-2
639.267	1	3
639.437	1	6
639.606	1	6
639.776	1	4
639.946	1	-5
640.115	1	-7
640.285	1	-4
640.454	1	0
640.624	1	-13
640.793	1	5
640.963	1	4
641.132	1	-7
641.302	1	9
641.472	1	-1
641.641	1	8
641.811	1	2
641.980	1	2
642.150	1	-8
642.319	1	2
642.489	1	-6
642.659	1	1
642.828	1	-9
642.998	1	11
643.167	1	5
643.337	1	8
643.506	1	-2
643.676	1	6
643.845	1	0
644.015	1	-1
644.184	1	-2
644.354	1	-5
644.524	1	5
644.693	1	-3
644.863	1	8
645.032	1	6
645.202	1	3
645.371	1	-1
645.541	1	-5
645.710	1	2
645.880	1	-7
646.049	1	-1
646.219	1	2
646.388	1	10
646.558	1	8
646.728	1	15
646.897	1	-1
647.067	1	2
647.236	1	3
647.406	1	-1
647.575	1	0
647.745	1	8
647.914	1	-6
648.084	1	4
648.253	1	-2
648.423	1	-5
648.592	1	-3
648.762	1	-5
648.931	1	-7
649.101	1	-2
649.270	1	-3
649.440	1	16
649.610	1	-6
649.779	1	11
649.949	1	3
650.118	1	7
650.288	1	6
650.457	1	-7
650.627	1	2
650.796	1	0
650.966	1	9
651.135	1	-4
651.305	1	15
651.474	1	16
651.644	1	-1
651.813	1	-1
651.983	1	9
652.152	1	13
652.322	1	-7
652.491	1	-1
652.661	1	5
652.830	1	6
653.000	1	7
653.169	1	-8
653.339	1	10
653.508	1	2
653.678	1	1
653.847	1	-2
654.017	1	2
654.186	1	7
654.356	1	8
654.525	1	-1
654.695	1	2
654.864	1	5
655.034	1	12
655.203	1	-3
655.373	1	-5
655.542	1	-1
655.712	1	-1
655.881	1	6
656.051	1	-5
656.220	1	-1
656.390	1	4
656.559	1	-6
656.729	1	-6
656.898	1	-2
657.068	1	9
657.237	1	16
657.406	1	1
657.576	1	3
657.745	1	2
657.915	1	-2
658.084	1	1
658.254	1	-1
658.423	1	16
658.593	1	-10
658.762	1	0
658.932	1	-2
659.101	1	1
659.271	1	4
659.440	1	2
659.610	1	1
659.779	1	-2
659.949	1	-3
660.118	1	-6
660.288	1	12
660.457	1	11
660.626	1	4
660.796	1	6
660.965	1	1
661.135	1	-6
661.304	1	7
661.474	1	5
661.643	1	3
661.813	1	-7
661.982	1	0
662.152	1	5
662.321	1	8
662.491	1	2
662.660	1	3
662.829	1	3
662.999	1	8
663.168	1	-1
663.338	1	2
663.507	1	-4
663.677	1	4
663.846	1	10
664.016	1	2
664.185	1	4
664.354	1	-5
664.524	1	5
664.693	1	-1
664.863	1	-3
665.032	1	14
665.202	1	3
665.371	1	4
665.541	1	3
665.710	1	2
665.879	1	2
666.049	1	-5
666.218	1	-4
666.388	1	-4
666.557	1	9
666.727	1	-6
666.896	1	5
667.065	1	7
667.235	1	4
667.404	1	5
667.574	1	11
667.743	1	13
667.913	1	8
668.082	1	20
668.251	1	-4
668.421	1	2
668.590	1	1
668.760	1	1
668.929	1	10
669.099	1	-2
669.268	1	8
669.437	1	8
669.607	1	4
669.776	1	-2
669.946	1	11
670.115	1	-1
670.285	1	7
670.454	1	11
670.623	1	5
670.793	1	-7
670.962	1	3
671.132	1	3
671.301	1	6
671.470	1	6
671.640	1	-2
671.809	1	5
671.979	1	-7
672.148	1	0
672.317	1	-2
672.487	1	5
672.656	1	4
672.826	1	-7
672.995	1	2
673.164	1	8
673.334	1	2
673.503	1	-1
673.673	1	6
673.842	1	-8
674.011	1	1
674.181	1	3
674.350	1	0
674.520	1	7
674.689	1	11
674.858	1	4
675.028	1	2
675.197	1	2
675.367	1	1
675.536	1	3
675.705	1	7
675.875	1	5
676.044	1	0
676.214	1	8
676.383	1	-4
676.552	1	-9
676.722	1	-4
676.891	1	16
677.060	1	6
677.230	1	10
677.399	1	6
677.569	1	2
677.738	1	7
677.907	1	-7
678.077	1	-4
678.246	1	4
678.416	1	3
678.585	1	7
678.754	1	0
678.924	1	-4
679.093	1	0
679.262	1	-1
679.432	1	6
679.601	1	-1
679.771	1	10
679.940	1	6
680.109	1	-1
680.279	1	10
680.448	1	0
680.617	1	3
680.787	1	4
680.956	1	0
681.125	1	3
681.295	1	1
681.464	1	-6
681.634	1	10
681.803	1	2
681.972	1	-3
682.142	1	-13
682.311	1	-2
682.480	1	4
682.650	1	10
682.819	1	-1
682.988	1	-7
683.158	1	-5
683.327	1	11
683.496	1	1
683.666	1	3
683.835	1	-10
684.004	1	-1
684.174	1	-9
684.343	1	9
684.512	1	14
684.682	1	11
684.851	1	-2
685.021	1	1
685.190	1	1
685.359	1	-2
685.529	1	-3
685.698	1	-11
685.867	1	3
686.037	1	5
686.206	1	-5
686.375	1	5
686.545	1	7
686.714	1	14
686.883	1	6
687.053	1	0
687.222	1	-2
687.391	1	-7
687.561	1	2
687.730	1	-4
687.899	1	2
688.069	1	-4
688.238	1	-3
688.407	1	4
688.577	1	12
688.746	1	-3
