340.368	1	-3
340.539	1	-6
340.710	1	5
340.881	1	-5
341.052	1	0
341.223	1	7
341.394	1	-5
341.565	1	9
341.737	1	1
341.908	1	-7
342.079	1	1
342.250	1	-7
342.421	1	-1
342.592	1	-4
342.763	1	-1
342.934	1	7
343.105	1	-2
343.276	1	-1
343.447	1	4
343.618	1	-3
343.789	1	9
343.960	1	2
344.131	1	-5
344.302	1	1
344.473	1	-16
344.644	1	-7
344.815	1	5
344.986	1	-1
345.157	1	-9
345.328	1	18
345.499	1	14
345.670	1	-2
345.841	1	0
346.012	1	-6
346.183	1	-7
346.354	1	-8
346.526	1	1
346.697	1	1
346.868	1	0
347.039	1	13
347.210	1	-4
347.381	1	-3
347.552	1	11
347.723	1	0
347.894	1	5
348.065	1	-15
348.236	1	2
348.407	1	-3
348.578	1	-1
348.749	1	6
348.920	1	6
349.091	1	1
349.262	1	-6
349.433	1	-5
349.604	1	3
349.775	1	2
349.946	1	1
350.117	1	2
350.288	1	-8
350.459	1	3
350.630	1	2
350.801	1	9
350.972	1	4
351.143	1	-8
351.314	1	2
351.485	1	-14
351.656	1	5
351.827	1	2
351.998	1	-6
352.169	1	-5
352.340	1	2
352.511	1	-5
352.682	1	0
352.853	1	-13
353.024	1	9
353.195	1	-2
353.366	1	-3
353.537	1	-3
353.708	1	10
353.879	1	0
354.050	1	-2
354.221	1	-4
354.392	1	7
354.563	1	-7
354.734	1	0
354.905	1	4
355.076	1	0
355.247	1	-4
355.418	1	-6
355.589	1	3
355.760	1	-9
355.931	1	2
356.102	1	4
356.273	1	2
356.444	1	1
356.615	1	1
356.785	1	1
356.956	1	-5
357.127	1	5
357.298	1	0
357.469	1	-1
357.640	1	-3
357.811	1	-1
357.982	1	-3
358.153	1	2
358.324	1	3
358.495	1	9
358.666	1	-6
358.837	1	4
359.008	1	2
359.179	1	6
359.350	1	-3
359.521	1	1
359.692	1	-12
359.863	1	3
360.034	1	5
360.205	1	-8
360.376	1	1
360.547	1	2
360.718	1	10
360.889	1	-5
361.060	1	4
361.231	1	-1
361.401	1	6
361.572	1	3
361.743	1	-10
361.914	1	-6
362.085	1	1
362.256	1	4
362.427	1	1
362.598	1	1
362.769	1	3
362.940	1	5
363.111	1	3
363.282	1	5
363.453	1	16
363.624	1	9
363.795	1	7
363.966	1	0
364.137	1	-5
364.308	1	15
364.478	1	3
364.649	1	6
364.820	1	14
364.991	1	7
365.162	1	-1
365.333	1	11
365.504	1	3
365.675	1	7
365.846	1	5
366.017	1	8
366.188	1	12
366.359	1	3
366.530	1	5
366.701	1	2
366.871	1	9
367.042	1	5
367.213	1	6
367.384	1	11
367.555	1	3
367.726	1	15
367.897	1	7
368.068	1	11
368.239	1	2
368.410	1	8
368.581	1	14
368.752	1	17
368.923	1	11
369.093	1	6
369.264	1	7
369.435	1	13
369.606	1	18
369.777	1	17
369.948	1	12
370.119	1	7
370.290	1	3
370.461	1	20
370.632	1	17
370.803	1	9
370.973	1	4
371.144	1	6
371.315	1	11
371.486	1	1
371.657	1	13
371.828	1	1
371.999	1	8
372.170	1	10
372.341	1	5
372.512	1	9
372.682	1	9
372.853	1	10
373.024	1	1
373.195	1	13
373.366	1	6
373.537	1	7
373.708	1	0
373.879	1	4
374.050	1	12
374.220	1	7
374.391	1	10
374.562	1	12
374.733	1	0
374.904	1	3
375.075	1	4
375.246	1	2
375.417	1	16
375.588	1	0
375.758	1	0
375.929	1	3
376.100	1	7
376.271	1	-3
376.442	1	6
376.613	1	2
376.784	1	-1
376.955	1	0
377.125	1	-1
377.296	1	13
377.467	1	-1
377.638	1	9
377.809	1	6
377.980	1	5
378.151	1	0
378.321	1	0
378.492	1	2
378.663	1	2
378.834	1	5
379.005	1	12
379.176	1	-6
379.347	1	4
379.518	1	-3
379.688	1	3
379.859	1	6
380.030	1	3
380.201	1	-1
380.372	1	9
380.543	1	7
380.714	1	5
380.884	1	3
381.055	1	-1
381.226	1	2
381.397	1	5
381.568	1	4
381.739	1	4
381.910	1	7
382.080	1	-4
382.251	1	14
382.422	1	4
382.593	1	6
382.764	1	6
382.935	1	-1
383.105	1	0
383.276	1	-4
383.447	1	1
383.618	1	1
383.789	1	16
383.960	1	-4
384.130	1	6
384.301	1	0
384.472	1	0
384.643	1	1
384.814	1	8
384.985	1	3
385.156	1	3
385.326	1	9
385.497	1	4
385.668	1	9
385.839	1	-15
386.010	1	17
386.180	1	3
386.351	1	-4
386.522	1	3
386.693	1	-1
386.864	1	-1
387.035	1	13
387.205	1	14
387.376	1	-4
387.547	1	0
387.718	1	8
387.889	1	3
388.060	1	4
388.230	1	3
388.401	1	-7
388.572	1	-1
388.743	1	7
388.914	1	5
389.084	1	7
389.255	1	2
389.426	1	11
389.597	1	-4
389.768	1	6
389.939	1	-2
390.109	1	8
390.280	1	7
390.451	1	3
390.622	1	-1
390.793	1	-2
390.963	1	5
391.134	1	5
391.305	1	9
391.476	1	10
391.647	1	-5
391.817	1	10
391.988	1	8
392.159	1	17
392.330	1	-6
392.501	1	5
392.671	1	10
392.842	1	3
393.013	1	-1
393.184	1	4
393.355	1	-1
393.525	1	9
393.696	1	3
393.867	1	6
394.038	1	5
394.208	1	2
394.379	1	5
394.550	1	-11
394.721	1	6
394.892	1	0
395.062	1	5
395.233	1	7
395.404	1	-4
395.575	1	11
395.746	1	11
395.916	1	9
396.087	1	3
396.258	1	6
396.429	1	-7
396.599	1	6
396.770	1	0
396.941	1	1
397.112	1	7
397.283	1	-1
397.453	1	6
397.624	1	2
397.795	1	-1
397.966	1	1
398.136	1	-5
398.307	1	4
398.478	1	-3
398.649	1	5
398.819	1	1
398.990	1	-12
399.161	1	0
399.332	1	1
399.503	1	8
399.673	1	2
399.844	1	-6
400.015	1	5
400.186	1	14
400.356	1	9
400.527	1	-5
400.698	1	-3
400.869	1	2
401.039	1	-3
401.210	1	-5
401.381	1	3
401.552	1	4
401.722	1	7
401.893	1	6
402.064	1	-2
402.235	1	3
402.405	1	2
402.576	1	7
402.747	1	5
402.918	1	-6
403.088	1	-4
403.259	1	8
403.430	1	8
403.601	1	0
403.771	1	2
403.942	1	5
404.113	1	-1
404.284	1	3
404.454	1	-3
404.625	1	5
404.796	1	-4
404.967	1	8
405.137	1	8
405.308	1	15
405.479	1	-13
405.649	1	2
405.820	1	-3
405.991	1	0
406.162	1	-2
406.332	1	3
406.503	1	7
406.674	1	8
406.845	1	3
407.015	1	5
407.186	1	9
407.357	1	-1
407.527	1	-1
407.698	1	4
407.869	1	-1
408.040	1	-1
408.210	1	7
408.381	1	8
408.552	1	8
408.722	1	0
408.893	1	2
409.064	1	0
409.235	1	3
409.405	1	8
409.576	1	4
409.747	1	-3
409.917	1	4
410.088	1	6
410.259	1	-3
410.430	1	-1
410.600	1	0
410.771	1	12
410.942	1	10
411.112	1	2
411.283	1	-3
411.454	1	4
411.625	1	-5
411.795	1	0
411.966	1	-1
412.137	1	4
412.307	1	-3
412.478	1	1
412.649	1	2
412.819	1	8
412.990	1	-9
413.161	1	3
413.332	1	-5
413.502	1	1
413.673	1	10
413.844	1	1
414.014	1	7
414.185	1	-3
414.356	1	3
414.526	1	0
414.697	1	-8
414.868	1	-9
415.038	1	9
415.209	1	1
415.380	1	1
415.550	1	-7
415.721	1	8
415.892	1	4
416.063	1	-3
416.233	1	-8
416.404	1	2
416.575	1	-3
416.745	1	11
416.916	1	1
417.087	1	9
417.257	1	-4
417.428	1	5
417.599	1	-2
417.769	1	1
417.940	1	0
418.111	1	2
418.281	1	2
418.452	1	2
418.623	1	4
418.793	1	2
418.964	1	-10
419.135	1	2
419.305	1	4
419.476	1	8
419.647	1	0
419.817	1	-3
419.988	1	5
420.159	1	-3
420.329	1	0
420.500	1	1
420.671	1	3
420.841	1	-2
421.012	1	8
421.183	1	2
421.353	1	7
421.524	1	-1
421.695	1	-8
421.865	1	-4
422.036	1	-22
422.206	1	3
422.377	1	-6
422.548	1	-5
422.718	1	11
422.889	1	2
423.060	1	9
423.230	1	-1
423.401	1	0
423.572	1	-4
423.742	1	-1
423.913	1	-9
424.084	1	-7
424.254	1	-1
424.425	1	-2
424.595	1	-1
424.766	1	12
424.937	1	-9
425.107	1	9
425.278	1	5
425.449	1	4
425.619	1	1
425.790	1	3
425.961	1	-2
426.131	1	-10
426.302	1	5
426.472	1	2
426.643	1	-3
426.814	1	-9
426.984	1	8
427.155	1	8
427.326	1	0
427.496	1	-6
427.667	1	15
427.837	1	9
428.008	1	10
428.179	1	8
428.349	1	6
428.520	1	4
428.691	1	1
428.861	1	-5
429.032	1	-1
429.202	1	-1
429.373	1	0
429.544	1	-16
429.714	1	4
429.885	1	7
430.055	1	8
430.226	1	-2
430.397	1	2
430.567	1	0
430.738	1	8
430.909	1	-3
431.079	1	2
431.250	1	3
431.420	1	8
431.591	1	12
431.762	1	4
431.932	1	8
432.103	1	-6
432.273	1	-4
432.444	1	-3
432.615	1	-5
432.785	1	-4
432.956	1	-4
433.126	1	6
433.297	1	-6
433.468	1	14
433.638	1	1
433.809	1	-5
433.979	1	-8
434.150	1	3
434.320	1	-6
434.491	1	12
434.662	1	-5
434.832	1	3
435.003	1	6
435.173	1	4
435.344	1	5
435.515	1	2
435.685	1	0
435.856	1	-6
436.026	1	-6
436.197	1	-3
436.368	1	6
436.538	1	6
436.709	1	4
436.879	1	-4
437.050	1	4
437.220	1	4
437.391	1	9
437.562	1	-4
437.732	1	-15
437.903	1	-8
438.073	1	4
438.244	1	-7
438.414	1	-7
438.585	1	-7
438.756	1	-1
438.926	1	0
439.097	1	3
439.267	1	5
439.438	1	2
439.608	1	-1
439.779	1	2
439.949	1	10
440.120	1	-2
440.291	1	-2
440.461	1	-2
440.632	1	-9
440.802	1	-6
440.973	1	-1
441.143	1	-6
441.314	1	3
441.485	1	-3
441.655	1	-2
441.826	1	6
441.996	1	-3
442.167	1	-1
442.337	1	4
442.508	1	1
442.678	1	-3
442.849	1	2
443.019	1	0
443.190	1	6
443.361	1	-2
443.531	1	-1
443.702	1	2
443.872	1	4
444.043	1	-6
444.213	1	-4
444.384	1	-1
444.554	1	-3
444.725	1	7
444.895	1	-4
445.066	1	-8
445.237	1	-8
445.407	1	-5
445.578	1	-3
445.748	1	-2
445.919	1	3
446.089	1	8
446.260	1	2
446.430	1	4
446.601	1	4
446.771	1	0
446.942	1	-8
447.112	1	4
447.283	1	-4
447.453	1	5
447.624	1	3
447.794	1	0
447.965	1	-13
448.135	1	-6
448.306	1	-5
448.477	1	6
448.647	1	9
448.818	1	-6
448.988	1	-6
449.159	1	6
449.329	1	-4
449.500	1	10
449.670	1	4
449.841	1	4
450.011	1	-6
450.182	1	-6
450.352	1	-6
450.523	1	-14
450.693	1	14
450.864	1	-1
451.034	1	1
451.205	1	-7
451.375	1	8
451.546	1	7
451.716	1	13
451.887	1	-15
452.057	1	-4
452.228	1	8
452.398	1	-2
452.569	1	1
452.739	1	2
452.910	1	-9
453.080	1	-5
453.251	1	-1
453.421	1	3
453.592	1	-4
453.762	1	5
453.933	1	8
454.103	1	1
454.274	1	-7
454.444	1	2
454.615	1	6
454.785	1	0
454.956	1	-7
455.126	1	7
455.297	1	-1
455.467	1	-11
455.638	1	3
455.808	1	-6
455.979	1	-1
456.149	1	-4
456.320	1	6
456.490	1	9
456.661	1	2
456.831	1	9
457.001	1	-3
457.172	1	5
457.342	1	-6
457.513	1	-5
457.683	1	6
457.854	1	1
458.024	1	4
458.195	1	4
458.365	1	-6
458.536	1	4
458.706	1	14
458.877	1	-3
459.047	1	10
459.218	1	-13
459.388	1	1
459.559	1	-6
459.729	1	-1
459.899	1	-3
460.070	1	2
460.240	1	-21
460.411	1	-4
460.581	1	1
460.752	1	1
460.922	1	-5
461.093	1	-9
461.263	1	1
461.434	1	13
461.604	1	1
461.775	1	-1
461.945	1	-3
462.115	1	5
462.286	1	-4
462.456	1	-5
462.627	1	-2
462.797	1	-7
462.968	1	0
463.138	1	-4
463.309	1	10
463.479	1	4
463.649	1	2
463.820	1	-8
463.990	1	-3
464.161	1	3
464.331	1	-2
464.502	1	-2
464.672	1	-9
464.843	1	-4
465.013	1	-8
465.183	1	-7
465.354	1	0
465.524	1	3
465.695	1	-6
465.865	1	-3
466.036	1	5
466.206	1	2
466.376	1	-3
466.547	1	-5
466.717	1	12
466.888	1	6
467.058	1	-1
467.229	1	-6
467.399	1	1
467.569	1	4
467.740	1	0
467.910	1	-8
468.081	1	4
468.251	1	4
468.422	1	-1
468.592	1	0
468.762	1	-4
468.933	1	12
469.103	1	-8
469.274	1	0
469.444	1	5
469.614	1	4
469.785	1	4
469.955	1	-1
470.126	1	4
470.296	1	-5
470.467	1	-4
470.637	1	-1
470.807	1	5
470.978	1	-2
471.148	1	9
471.319	1	3
471.489	1	3
471.659	1	3
471.830	1	-1
472.000	1	-3
472.171	1	7
472.341	1	3
472.511	1	6
472.682	1	-5
472.852	1	6
473.023	1	5
473.193	1	-1
473.363	1	-5
473.534	1	1
473.704	1	-4
473.875	1	-3
474.045	1	-1
474.215	1	10
474.386	1	14
474.556	1	9
474.727	1	1
474.897	1	-2
475.067	1	4
475.238	1	6
475.408	1	13
475.578	1	-2
475.749	1	11
475.919	1	-12
476.090	1	20
476.260	1	-4
476.430	1	0
476.601	1	6
476.771	1	-1
476.942	1	-4
477.112	1	-8
477.282	1	5
477.453	1	-10
477.623	1	-2
477.793	1	8
477.964	1	-5
478.134	1	3
478.305	1	3
478.475	1	2
478.645	1	2
478.816	1	0
478.986	1	10
479.156	1	5
479.327	1	-4
479.497	1	-1
479.667	1	-2
479.838	1	-4
480.008	1	3
480.179	1	1
480.349	1	-2
480.519	1	-11
480.690	1	2
480.860	1	-5
481.030	1	9
481.201	1	3
481.371	1	7
481.541	1	-12
481.712	1	0
481.882	1	6
482.053	1	14
482.223	1	0
482.393	1	9
482.564	1	0
482.734	1	5
482.904	1	-4
483.075	1	-3
483.245	1	10
483.415	1	-1
483.586	1	13
483.756	1	-1
483.926	1	6
484.097	1	-3
484.267	1	-2
484.437	1	8
484.608	1	6
484.778	1	8
484.948	1	-4
485.119	1	-9
485.289	1	-6
485.459	1	14
485.630	1	-1
485.800	1	4
485.970	1	-1
486.141	1	3
486.311	1	-3
486.481	1	7
486.652	1	4
486.822	1	3
486.992	1	-5
487.163	1	7
487.333	1	-4
487.503	1	8
487.674	1	1
487.844	1	7
488.014	1	6
488.185	1	-5
488.355	1	6
488.525	1	11
488.696	1	5
488.866	1	4
489.036	1	-7
489.207	1	-12
489.377	1	1
489.547	1	8
489.718	1	4
489.888	1	-1
490.058	1	-3
490.228	1	-3
490.399	1	-5
490.569	1	2
490.739	1	3
490.910	1	2
491.080	1	-1
491.250	1	-3
491.421	1	0
491.591	1	1
491.761	1	0
491.932	1	5
492.102	1	3
492.272	1	-5
492.442	1	1
492.613	1	5
492.783	1	3
492.953	1	7
493.124	1	4
493.294	1	0
493.464	1	13
493.635	1	2
493.805	1	7
493.975	1	-10
494.145	1	-6
494.316	1	4
494.486	1	6
494.656	1	3
494.827	1	-7
494.997	1	11
495.167	1	-2
495.337	1	17
495.508	1	1
495.678	1	-6
495.848	1	12
496.019	1	2
496.189	1	5
496.359	1	-3
496.529	1	-15
496.700	1	16
496.870	1	8
497.040	1	1
497.211	1	7
497.381	1	3
497.551	1	-4
497.721	1	1
497.892	1	7
498.062	1	-8
498.232	1	9
498.403	1	3
498.573	1	3
498.743	1	6
498.913	1	-3
499.084	1	-5
499.254	1	5
499.424	1	6
499.594	1	4
499.765	1	3
499.935	1	0
500.105	1	14
500.275	1	12
500.446	1	7
500.616	1	-2
500.786	1	-3
500.956	1	11
501.127	1	1
501.297	1	-7
501.467	1	0
501.638	1	-4
501.808	1	-11
501.978	1	-1
502.148	1	4
502.319	1	1
502.489	1	9
502.659	1	2
502.829	1	8
503.000	1	-7
503.170	1	0
503.340	1	7
503.510	1	6
503.681	1	0
503.851	1	4
504.021	1	-2
504.191	1	1
504.362	1	4
504.532	1	6
504.702	1	4
504.872	1	8
505.042	1	-5
505.213	1	-2
505.383	1	12
505.553	1	1
505.723	1	9
505.894	1	1
506.064	1	-4
506.234	1	6
506.404	1	2
506.575	1	-7
506.745	1	-2
506.915	1	5
507.085	1	7
507.256	1	1
507.426	1	4
507.596	1	9
507.766	1	2
507.936	1	9
508.107	1	7
508.277	1	-6
508.447	1	9
508.617	1	3
508.788	1	16
508.958	1	-5
509.128	1	-1
509.298	1	4
509.468	1	3
509.639	1	6
509.809	1	0
509.979	1	10
510.149	1	7
510.319	1	-3
510.490	1	10
510.660	1	15
510.830	1	-3
511.000	1	3
511.171	1	6
511.341	1	9
511.511	1	7
511.681	1	10
511.851	1	11
512.022	1	4
512.192	1	6
512.362	1	14
512.532	1	8
512.702	1	0
512.873	1	4
513.043	1	10
513.213	1	17
513.383	1	0
513.553	1	21
513.724	1	2
513.894	1	6
514.064	1	0
514.234	1	0
514.404	1	9
514.575	1	1
514.745	1	1
514.915	1	-7
515.085	1	14
515.255	1	10
515.425	1	11
515.596	1	8
515.766	1	10
515.936	1	6
516.106	1	7
516.276	1	6
516.447	1	5
516.617	1	7
516.787	1	-1
516.957	1	6
517.127	1	5
517.297	1	17
517.468	1	4
517.638	1	12
517.808	1	8
517.978	1	6
518.148	1	13
518.319	1	4
518.489	1	14
518.659	1	9
518.829	1	4
518.999	1	-5
519.169	1	5
519.340	1	4
519.510	1	-2
519.680	1	1
519.850	1	3
520.020	1	4
520.190	1	13
520.361	1	-1
520.531	1	22
520.701	1	-1
520.871	1	5
521.041	1	13
521.211	1	0
521.382	1	13
521.552	1	4
521.722	1	3
521.892	1	2
522.062	1	8
522.232	1	0
522.402	1	-3
522.573	1	9
522.743	1	12
522.913	1	11
523.083	1	13
523.253	1	8
523.423	1	9
523.593	1	9
523.764	1	4
523.934	1	-2
524.104	1	4
524.274	1	0
524.444	1	3
524.614	1	12
524.784	1	3
524.955	1	1
525.125	1	1
525.295	1	-2
525.465	1	4
525.635	1	3
525.805	1	9
525.975	1	10
526.146	1	4
526.316	1	5
526.486	1	14
526.656	1	7
526.826	1	8
526.996	1	-5
527.166	1	17
527.337	1	-3
527.507	1	16
527.677	1	1
527.847	1	3
528.017	1	0
528.187	1	-4
528.357	1	8
528.527	1	8
528.698	1	14
528.868	1	-1
529.038	1	16
529.208	1	5
529.378	1	0
529.548	1	22
529.718	1	-3
529.888	1	0
530.058	1	3
530.229	1	15
530.399	1	9
530.569	1	3
530.739	1	-5
530.909	1	-4
531.079	1	19
531.249	1	11
531.419	1	1
531.589	1	10
531.760	1	-4
531.930	1	8
532.100	1	0
532.270	1	3
532.440	1	0
532.610	1	0
532.780	1	0
532.950	1	12
533.120	1	15
533.290	1	3
533.461	1	0
533.631	1	5
533.801	1	1
533.971	1	4
534.141	1	3
534.311	1	8
534.481	1	2
534.651	1	3
534.821	1	10
534.991	1	-3
535.162	1	12
535.332	1	-1
535.502	1	16
535.672	1	4
535.842	1	12
536.012	1	-9
536.182	1	1
536.352	1	-2
536.522	1	3
536.692	1	12
536.862	1	3
537.032	1	0
537.203	1	14
537.373	1	-3
537.543	1	7
537.713	1	-1
537.883	1	12
538.053	1	-4
538.223	1	14
538.393	1	8
538.563	1	8
538.733	1	0
538.903	1	6
539.073	1	1
539.243	1	1
539.413	1	2
539.584	1	6
539.754	1	5
539.924	1	9
540.094	1	9
540.264	1	5
540.434	1	13
540.604	1	-4
540.774	1	5
540.944	1	4
541.114	1	3
541.284	1	5
541.454	1	3
541.624	1	-5
541.794	1	0
541.964	1	5
542.134	1	3
542.305	1	16
542.475	1	14
542.645	1	-3
542.815	1	1
542.985	1	6
543.155	1	6
543.325	1	4
543.495	1	-1
543.665	1	-6
543.835	1	12
544.005	1	-5
544.175	1	-4
544.345	1	-1
544.515	1	14
544.685	1	17
544.855	1	10
545.025	1	8
545.195	1	3
545.365	1	-1
545.535	1	0
545.705	1	10
545.875	1	-2
546.045	1	1
546.216	1	7
546.386	1	6
546.556	1	6
546.726	1	5
546.896	1	2
547.066	1	6
547.236	1	6
547.406	1	1
547.576	1	3
547.746	1	6
547.916	1	-2
548.086	1	15
548.256	1	15
548.426	1	5
548.596	1	-2
548.766	1	11
548.936	1	-2
549.106	1	4
549.276	1	2
549.446	1	12
549.616	1	3
549.786	1	5
549.956	1	10
550.126	1	0
550.296	1	11
550.466	1	0
550.636	1	4
550.806	1	-2
550.976	1	0
551.146	1	3
551.316	1	4
551.486	1	8
551.656	1	-2
551.826	1	8
551.996	1	4
552.166	1	8
552.336	1	1
552.506	1	0
552.676	1	9
552.846	1	0
553.016	1	6
553.186	1	14
553.356	1	5
553.526	1	4
553.696	1	6
553.866	1	-1
554.036	1	2
554.206	1	2
554.376	1	6
554.546	1	3
554.716	1	7
554.886	1	5
555.056	1	3
555.226	1	-1
555.396	1	2
555.566	1	9
555.736	1	0
555.906	1	6
556.076	1	19
556.246	1	0
556.416	1	2
556.586	1	14
556.756	1	21
556.926	1	15
557.096	1	0
557.266	1	4
557.436	1	14
557.606	1	-5
557.776	1	1
557.946	1	4
558.116	1	5
558.286	1	7
558.456	1	8
558.626	1	20
558.796	1	1
558.966	1	2
559.136	1	2
559.306	1	1
559.476	1	9
559.646	1	4
559.816	1	5
559.986	1	4
560.155	1	9
560.325	1	8
560.495	1	-3
560.665	1	18
560.835	1	14
561.005	1	12
561.175	1	6
561.345	1	8
561.515	1	3
561.685	1	6
561.855	1	-6
562.025	1	4
562.195	1	-2
562.365	1	3
562.535	1	5
562.705	1	11
562.875	1	6
563.045	1	3
563.215	1	2
563.385	1	6
563.555	1	8
563.725	1	-1
563.895	1	7
564.064	1	-4
564.234	1	2
564.404	1	4
564.574	1	-1
564.744	1	4
564.914	1	-6
565.084	1	16
565.254	1	13
565.424	1	3
565.594	1	13
565.764	1	6
565.934	1	5
566.104	1	-2
566.274	1	2
566.444	1	3
566.614	1	10
566.783	1	-6
566.953	1	3
567.123	1	-1
567.293	1	5
567.463	1	-7
567.633	1	8
567.803	1	3
567.973	1	3
568.143	1	1
568.313	1	-8
568.483	1	8
568.653	1	2
568.823	1	8
568.993	1	7
569.162	1	10
569.332	1	8
569.502	1	-9
569.672	1	-4
569.842	1	8
570.012	1	11
570.182	1	-2
570.352	1	7
570.522	1	1
570.692	1	9
570.862	1	6
571.031	1	0
571.201	1	-4
571.371	1	-3
571.541	1	-1
571.711	1	9
571.881	1	-1
572.051	1	6
572.221	1	0
572.391	1	18
572.561	1	-6
572.731	1	-5
572.900	1	1
573.070	1	6
573.240	1	10
573.410	1	2
573.580	1	-4
573.750	1	-7
573.920	1	6
574.090	1	-2
574.260	1	9
574.430	1	-6
574.599	1	4
574.769	1	6
574.939	1	14
575.109	1	-13
575.279	1	-5
575.449	1	-2
575.619	1	4
575.789	1	3
575.959	1	-6
576.128	1	18
576.298	1	8
576.468	1	5
576.638	1	2
576.808	1	6
576.978	1	2
577.148	1	3
577.318	1	3
577.487	1	2
577.657	1	6
577.827	1	2
577.997	1	3
578.167	1	-1
578.337	1	2
578.507	1	-4
578.677	1	-10
578.846	1	3
579.016	1	3
579.186	1	8
579.356	1	-1
579.526	1	7
579.696	1	11
579.866	1	-8
580.036	1	-11
580.205	1	21
580.375	1	4
580.545	1	11
580.715	1	3
580.885	1	9
581.055	1	7
581.225	1	7
581.394	1	4
581.564	1	-1
581.734	1	-4
581.904	1	1
582.074	1	-1
582.244	1	3
582.414	1	-13
582.583	1	-7
582.753	1	-11
582.923	1	7
583.093	1	6
583.263	1	11
583.433	1	9
583.603	1	9
583.772	1	-3
583.942	1	0
584.112	1	-6
584.282	1	-9
584.452	1	2
584.622	1	1
584.791	1	-1
584.961	1	4
585.131	1	8
585.301	1	2
585.471	1	-9
585.641	1	-3
585.811	1	5
585.980	1	-2
586.150	1	5
586.320	1	1
586.490	1	0
586.660	1	4
586.830	1	-1
586.999	1	1
587.169	1	7
587.339	1	1
587.509	1	11
587.679	1	-2
587.849	1	-5
588.018	1	-2
588.188	1	-1
588.358	1	0
588.528	1	7
588.698	1	-1
588.867	1	11
589.037	1	-10
589.207	1	-6
589.377	1	-2
589.547	1	10
589.717	1	-2
589.886	1	3
590.056	1	-2
590.226	1	4
590.396	1	5
590.566	1	-5
590.735	1	5
590.905	1	1
591.075	1	12
591.245	1	0
591.415	1	1
591.585	1	-1
591.754	1	13
591.924	1	8
592.094	1	9
592.264	1	3
592.434	1	3
592.603	1	0
592.773	1	-2
592.943	1	12
593.113	1	5
593.283	1	12
593.452	1	7
593.622	1	-4
593.792	1	5
593.962	1	-2
594.132	1	6
594.301	1	13
594.471	1	6
594.641	1	-6
594.811	1	-1
594.981	1	5
595.150	1	-3
595.320	1	-6
595.490	1	-2
595.660	1	1
595.829	1	6
595.999	1	-2
596.169	1	-9
596.339	1	6
596.509	1	5
596.678	1	-2
596.848	1	12
597.018	1	6
597.188	1	3
597.358	1	-2
597.527	1	-8
597.697	1	2
597.867	1	8
598.037	1	4
598.206	1	10
598.376	1	9
598.546	1	0
598.716	1	9
598.885	1	0
599.055	1	8
599.225	1	-12
599.395	1	6
599.565	1	-7
599.734	1	-7
599.904	1	1
600.074	1	8
600.244	1	14
600.413	1	4
600.583	1	1
600.753	1	6
600.923	1	3
601.092	1	10
601.262	1	3
601.432	1	9
601.602	1	4
601.771	1	-5
601.941	1	16
602.111	1	5
602.281	1	-6
602.451	1	0
602.620	1	0
602.790	1	13
602.960	1	-6
603.130	1	18
603.299	1	8
603.469	1	1
603.639	1	-9
603.809	1	-6
603.978	1	-6
604.148	1	1
604.318	1	-3
604.487	1	-5
604.657	1	-10
604.827	1	-1
604.997	1	3
605.166	1	-5
605.336	1	9
605.506	1	1
605.676	1	11
605.845	1	0
606.015	1	2
606.185	1	0
606.355	1	4
606.524	1	4
606.694	1	6
606.864	1	-4
607.034	1	-6
607.203	1	-5
607.373	1	6
607.543	1	-5
607.712	1	9
607.882	1	-4
608.052	1	14
608.222	1	0
608.391	1	-1
608.561	1	3
608.731	1	-2
608.901	1	5
609.070	1	2
609.240	1	8
609.410	1	12
609.579	1	3
609.749	1	3
609.919	1	7
610.089	1	3
610.258	1	6
610.428	1	0
610.598	1	7
610.767	1	-1
610.937	1	1
611.107	1	4
611.277	1	4
611.446	1	-5
611.616	1	9
611.786	1	2
611.955	1	-2
612.125	1	0
612.295	1	5
612.465	1	3
612.634	1	-6
612.804	1	-2
612.974	1	8
613.143	1	4
613.313	1	4
613.483	1	-17
613.652	1	-1
613.822	1	4
613.992	1	9
614.162	1	-2
614.331	1	5
614.501	1	-10
614.671	1	0
614.840	1	1
615.010	1	-2
615.180	1	0
615.349	1	2
615.519	1	0
615.689	1	-1
615.858	1	-4
616.028	1	-3
616.198	1	4
616.368	1	10
616.537	1	-2
616.707	1	-3
616.877	1	9
617.046	1	-2
617.216	1	13
617.386	1	3
617.555	1	6
617.725	1	4
617.895	1	4
618.064	1	6
618.234	1	-4
618.404	1	6
618.573	1	1
618.743	1	6
618.913	1	-1
619.082	1	-1
619.252	1	-2
619.422	1	-1
619.591	1	-5
619.761	1	-1
619.931	1	10
620.100	1	1
620.270	1	7
620.440	1	7
620.609	1	5
620.779	1	-12
620.949	1	8
621.118	1	-2
621.288	1	10
621.458	1	11
621.627	1	2
621.797	1	6
621.967	1	-1
622.136	1	3
622.306	1	-2
622.476	1	11
622.645	1	10
622.815	1	-8
622.985	1	-3
623.154	1	2
623.324	1	-2
623.494	1	6
623.663	1	-5
623.833	1	-10
624.002	1	0
624.172	1	-2
624.342	1	1
624.511	1	-2
624.681	1	4
624.851	1	-2
625.020	1	6
625.190	1	0
625.360	1	11
625.529	1	2
625.699	1	6
625.869	1	-4
626.038	1	-10
626.208	1	-5
626.377	1	-4
626.547	1	-1
626.717	1	10
626.886	1	14
627.056	1	10
627.226	1	-11
627.395	1	10
627.565	1	-16
627.735	1	-7
627.904	1	-5
628.074	1	0
628.243	1	-8
628.413	1	20
628.583	1	-5
628.752	1	2
628.922	1	7
629.091	1	-2
629.261	1	-7
629.431	1	1
629.600	1	-1
629.770	1	6
629.940	1	8
630.109	1	5
630.279	1	-3
630.448	1	6
630.618	1	6
630.788	1	-2
630.957	1	0
631.127	1	0
631.297	1	-4
631.466	1	0
631.636	1	-12
631.805	1	-3
631.975	1	1
632.145	1	-5
632.314	1	-6
632.484	1	0
632.653	1	-2
632.823	1	1
632.993	1	5
633.162	1	-2
633.332	1	5
633.501	1	-10
633.671	1	3
633.841	1	17
634.010	1	12
634.180	1	2
634.349	1	0
634.519	1	-8
634.689	1	4
634.858	1	-6
635.028	1	9
635.197	1	16
635.367	1	0
635.537	1	7
635.706	1	4
635.876	1	-4
636.045	1	0
636.215	1	-2
636.384	1	1
636.554	1	-6
636.724	1	-4
636.893	1	4
637.063	1	-1
637.232	1	-9
637.402	1	-1
637.572	1	-6
637.741	1	-2
637.911	1	3
638.080	1	0
638.250	1	9
638.419	1	-5
638.589	1	-9
638.759	1	4
638.928	1	4
639.098	1	2
639.267	1	-2
639.437	1	2
639.606	1	8
639.776	1	1
639.946	1	-9
640.115	1	-5
640.285	1	0
640.454	1	6
640.624	1	-2
640.793	1	-4
640.963	1	4
641.132	1	-9
641.302	1	17
641.472	1	4
641.641	1	1
641.811	1	0
641.980	1	7
642.150	1	-11
642.319	1	-2
642.489	1	1
642.659	1	0
642.828	1	-4
642.998	1	-1
643.167	1	2
643.337	1	7
643.506	1	-9
643.676	1	5
643.845	1	-8
644.015	1	1
644.184	1	-1
644.354	1	-11
644.524	1	6
644.693	1	-8
644.863	1	7
645.032	1	0
645.202	1	-3
645.371	1	1
645.541	1	-11
645.710	1	5
645.880	1	-11
646.049	1	5
646.219	1	-1
646.388	1	10
646.558	1	-1
646.728	1	9
646.897	1	-4
647.067	1	6
647.236	1	2
647.406	1	-6
647.575	1	4
647.745	1	1
647.914	1	4
648.084	1	2
648.253	1	-14
648.423	1	-6
648.592	1	-1
648.762	1	1
648.931	1	-3
649.101	1	5
649.270	1	3
649.440	1	3
649.610	1	-3
649.779	1	3
649.949	1	8
650.118	1	0
650.288	1	0
650.457	1	-8
650.627	1	6
650.796	1	10
650.966	1	9
651.135	1	1
651.305	1	6
651.474	1	14
651.644	1	10
651.813	1	-7
651.983	1	0
652.152	1	0
652.322	1	-1
652.491	1	-3
652.661	1	-3
652.830	1	1
653.000	1	2
653.169	1	-3
653.339	1	0
653.508	1	1
653.678	1	5
653.847	1	-7
654.017	1	8
654.186	1	8
654.356	1	-1
654.525	1	-7
654.695	1	5
654.864	1	0
655.034	1	5
655.203	1	2
655.373	1	1
655.542	1	3
655.712	1	1
655.881	1	6
656.051	1	-9
656.220	1	-1
656.390	1	-3
656.559	1	3
656.729	1	-8
656.898	1	-13
657.068	1	9
657.237	1	5
657.406	1	-4
657.576	1	2
657.745	1	-6
657.915	1	-3
658.084	1	3
658.254	1	4
658.423	1	19
658.593	1	-9
658.762	1	1
658.932	1	-7
659.101	1	2
659.271	1	1
659.440	1	18
659.610	1	1
659.779	1	1
659.949	1	0
660.118	1	-4
660.288	1	11
660.457	1	14
660.626	1	-3
660.796	1	-3
660.965	1	-13
661.135	1	-6
661.304	1	11
661.474	1	6
661.643	1	5
661.813	1	-7
661.982	1	-1
662.152	1	5
662.321	1	8
662.491	1	2
662.660	1	5
662.829	1	0
662.999	1	-6
663.168	1	-4
663.338	1	9
663.507	1	-2
663.677	1	7
663.846	1	-7
664.016	1	-2
664.185	1	-2
664.354	1	0
664.524	1	-6
664.693	1	-2
664.863	1	4
665.032	1	-1
665.202	1	6
665.371	1	-9
665.541	1	4
665.710	1	3
665.879	1	-5
666.049	1	4
666.218	1	1
666.388	1	4
666.557	1	-4
666.727	1	-8
666.896	1	1
667.065	1	1
667.235	1	2
667.404	1	3
667.574	1	10
667.743	1	6
667.913	1	-7
668.082	1	12
668.251	1	-6
668.421	1	-8
668.590	1	0
668.760	1	-5
668.929	1	-8
669.099	1	7
669.268	1	12
669.437	1	-10
669.607	1	-5
669.776	1	-2
669.946	1	16
670.115	1	-1
670.285	1	4
670.454	1	7
670.623	1	0
670.793	1	-7
670.962	1	-8
671.132	1	1
671.301	1	6
671.470	1	9
671.640	1	-6
671.809	1	1
671.979	1	-1
672.148	1	-5
672.317	1	1
672.487	1	0
672.656	1	5
672.826	1	0
672.995	1	-7
673.164	1	-1
673.334	1	13
673.503	1	-2
673.673	1	2
673.842	1	-2
674.011	1	-8
674.181	1	-4
674.350	1	-5
674.520	1	6
674.689	1	-10
674.858	1	5
675.028	1	0
675.197	1	3
675.367	1	-8
675.536	1	4
675.705	1	2
675.875	1	-5
676.044	1	1
676.214	1	1
676.383	1	-2
676.552	1	-8
676.722	1	-2
676.891	1	4
677.060	1	-4
677.230	1	3
677.399	1	-2
677.569	1	7
677.738	1	0
677.907	1	-4
678.077	1	-3
678.246	1	4
678.416	1	-4
678.585	1	7
678.754	1	3
678.924	1	-18
679.093	1	-3
679.262	1	2
679.432	1	12
679.601	1	-15
679.771	1	9
679.940	1	-1
680.109	1	-1
680.279	1	10
680.448	1	0
680.617	1	-2
680.787	1	2
680.956	1	-3
681.125	1	-13
681.295	1	0
681.464	1	-3
681.634	1	7
681.803	1	-4
681.972	1	1
682.142	1	-3
682.311	1	-4
682.480	1	3
682.650	1	5
682.819	1	-4
682.988	1	-3
683.158	1	0
683.327	1	8
683.496	1	3
683.666	1	-2
683.835	1	-1
684.004	1	-5
684.174	1	-6
684.343	1	-1
684.512	1	1
684.682	1	-2
684.851	1	3
685.021	1	4
685.190	1	5
685.359	1	-7
685.529	1	0
685.698	1	-6
685.867	1	-1
686.037	1	4
686.206	1	-3
686.375	1	3
686.545	1	8
686.714	1	1
686.883	1	5
687.053	1	-4
687.222	1	6
687.391	1	0
687.561	1	-2
687.730	1	0
687.899	1	10
688.069	1	-6
688.238	1	-10
688.407	1	-1
688.577	1	11
688.746	1	-7
