340.368	1	4
340.539	1	2
340.710	1	14
340.881	1	0
341.052	1	10
341.223	1	10
341.394	1	-1
341.565	1	19
341.737	1	6
341.908	1	-3
342.079	1	16
342.250	1	-3
342.421	1	11
342.592	1	6
342.763	1	4
342.934	1	19
343.105	1	15
343.276	1	1
343.447	1	4
343.618	1	-1
343.789	1	15
343.960	1	9
344.131	1	15
344.302	1	3
344.473	1	-2
344.644	1	-2
344.815	1	9
344.986	1	14
345.157	1	-3
345.328	1	20
345.499	1	4
345.670	1	13
345.841	1	9
346.012	1	4
346.183	1	4
346.354	1	15
346.526	1	6
346.697	1	12
346.868	1	-1
347.039	1	16
347.210	1	6
347.381	1	11
347.552	1	11
347.723	1	7
347.894	1	2
348.065	1	-5
348.236	1	18
348.407	1	-2
348.578	1	4
348.749	1	6
348.920	1	12
349.091	1	10
349.262	1	-2
349.433	1	10
349.604	1	12
349.775	1	6
349.946	1	16
350.117	1	9
350.288	1	-1
350.459	1	13
350.630	1	16
350.801	1	2
350.972	1	9
351.143	1	5
351.314	1	18
351.485	1	2
351.656	1	16
351.827	1	11
351.998	1	9
352.169	1	4
352.340	1	21
352.511	1	14
352.682	1	20
352.853	1	11
353.024	1	14
353.195	1	2
353.366	1	15
353.537	1	23
353.708	1	24
353.879	1	10
354.050	1	17
354.221	1	9
354.392	1	19
354.563	1	19
354.734	1	23
354.905	1	17
355.076	1	27
355.247	1	18
355.418	1	12
355.589	1	23
355.760	1	13
355.931	1	26
356.102	1	6
356.273	1	20
356.444	1	35
356.615	1	20
356.785	1	22
356.956	1	25
357.127	1	20
357.298	1	37
357.469	1	32
357.640	1	26
357.811	1	35
357.982	1	32
358.153	1	37
358.324	1	40
358.495	1	49
358.666	1	32
358.837	1	50
359.008	1	56
359.179	1	48
359.350	1	46
359.521	1	51
359.692	1	37
359.863	1	47
360.034	1	54
360.205	1	59
360.376	1	66
360.547	1	52
360.718	1	59
360.889	1	60
361.060	1	70
361.231	1	77
361.401	1	69
361.572	1	76
361.743	1	80
361.914	1	78
362.085	1	103
362.256	1	93
362.427	1	89
362.598	1	101
362.769	1	103
362.940	1	104
363.111	1	114
363.282	1	115
363.453	1	131
363.624	1	131
363.795	1	135
363.966	1	140
364.137	1	149
364.308	1	164
364.478	1	157
364.649	1	165
364.820	1	186
364.991	1	188
365.162	1	194
365.333	1	204
365.504	1	213
365.675	1	222
365.846	1	227
366.017	1	247
366.188	1	245
366.359	1	255
366.530	1	262
366.701	1	280
366.871	1	266
367.042	1	278
367.213	1	309
367.384	1	301
367.555	1	311
367.726	1	308
367.897	1	306
368.068	1	316
368.239	1	289
368.410	1	322
368.581	1	306
368.752	1	305
368.923	1	298
369.093	1	311
369.264	1	285
369.435	1	302
369.606	1	275
369.777	1	291
369.948	1	278
370.119	1	266
370.290	1	259
370.461	1	255
370.632	1	250
370.803	1	235
370.973	1	243
371.144	1	223
371.315	1	229
371.486	1	221
371.657	1	227
371.828	1	202
371.999	1	204
372.170	1	201
372.341	1	195
372.512	1	195
372.682	1	172
372.853	1	171
373.024	1	162
373.195	1	167
373.366	1	173
373.537	1	161
373.708	1	149
373.879	1	156
374.050	1	157
374.220	1	143
374.391	1	147
374.562	1	140
374.733	1	138
374.904	1	127
375.075	1	146
375.246	1	135
375.417	1	134
375.588	1	121
375.758	1	109
375.929	1	118
376.100	1	123
376.271	1	103
376.442	1	106
376.613	1	107
376.784	1	98
376.955	1	98
377.125	1	91
377.296	1	117
377.467	1	94
377.638	1	95
377.809	1	89
377.980	1	99
378.151	1	89
378.321	1	92
378.492	1	86
378.663	1	88
378.834	1	80
379.005	1	91
379.176	1	79
379.347	1	73
379.518	1	82
379.688	1	69
379.859	1	80
380.030	1	66
380.201	1	81
380.372	1	79
380.543	1	80
380.714	1	75
380.884	1	78
381.055	1	75
381.226	1	76
381.397	1	81
381.568	1	72
381.739	1	79
381.910	1	85
382.080	1	75
382.251	1	84
382.422	1	64
382.593	1	87
382.764	1	82
382.935	1	74
383.105	1	79
383.276	1	78
383.447	1	83
383.618	1	81
383.789	1	88
383.960	1	78
384.130	1	72
384.301	1	90
384.472	1	79
384.643	1	71
384.814	1	87
384.985	1	85
385.156	1	97
385.326	1	82
385.497	1	85
385.668	1	89
385.839	1	80
386.010	1	94
386.180	1	96
386.351	1	83
386.522	1	89
386.693	1	89
386.864	1	84
387.035	1	83
387.205	1	86
387.376	1	84
387.547	1	84
387.718	1	82
387.889	1	75
388.060	1	81
388.230	1	85
388.401	1	82
388.572	1	73
388.743	1	82
388.914	1	74
389.084	1	70
389.255	1	79
389.426	1	74
389.597	1	61
389.768	1	74
389.939	1	60
390.109	1	61
390.280	1	66
390.451	1	70
390.622	1	62
390.793	1	66
390.963	1	62
391.134	1	74
391.305	1	52
391.476	1	61
391.647	1	54
391.817	1	67
391.988	1	74
392.159	1	65
392.330	1	72
392.501	1	71
392.671	1	63
392.842	1	61
393.013	1	66
393.184	1	63
393.355	1	53
393.525	1	68
393.696	1	55
393.867	1	66
394.038	1	68
394.208	1	71
394.379	1	56
394.550	1	49
394.721	1	63
394.892	1	60
395.062	1	60
395.233	1	65
395.404	1	68
395.575	1	74
395.746	1	63
395.916	1	64
396.087	1	57
396.258	1	57
396.429	1	47
396.599	1	69
396.770	1	54
396.941	1	52
397.112	1	65
397.283	1	57
397.453	1	49
397.624	1	58
397.795	1	56
397.966	1	62
398.136	1	62
398.307	1	59
398.478	1	57
398.649	1	64
398.819	1	62
398.990	1	48
399.161	1	46
399.332	1	56
399.503	1	55
399.673	1	62
399.844	1	52
400.015	1	57
400.186	1	55
400.356	1	60
400.527	1	54
400.698	1	41
400.869	1	54
401.039	1	49
401.210	1	42
401.381	1	44
401.552	1	53
401.722	1	50
401.893	1	54
402.064	1	38
402.235	1	51
402.405	1	39
402.576	1	51
402.747	1	39
402.918	1	44
403.088	1	17
403.259	1	44
403.430	1	44
403.601	1	40
403.771	1	26
403.942	1	42
404.113	1	29
404.284	1	43
404.454	1	40
404.625	1	50
404.796	1	29
404.967	1	57
405.137	1	38
405.308	1	39
405.479	1	29
405.649	1	40
405.820	1	30
405.991	1	42
406.162	1	37
406.332	1	35
406.503	1	35
406.674	1	49
406.845	1	38
407.015	1	37
407.186	1	43
407.357	1	33
407.527	1	39
407.698	1	39
407.869	1	34
408.040	1	33
408.210	1	33
408.381	1	37
408.552	1	41
408.722	1	33
408.893	1	32
409.064	1	42
409.235	1	30
409.405	1	38
409.576	1	35
409.747	1	37
409.917	1	45
410.088	1	46
410.259	1	34
410.430	1	28
410.600	1	34
410.771	1	39
410.942	1	32
411.112	1	33
411.283	1	28
411.454	1	38
411.625	1	31
411.795	1	36
411.966	1	37
412.137	1	33
412.307	1	29
412.478	1	27
412.649	1	35
412.819	1	32
412.990	1	26
413.161	1	29
413.332	1	28
413.502	1	16
413.673	1	27
413.844	1	24
414.014	1	28
414.185	1	18
414.356	1	31
414.526	1	27
414.697	1	22
414.868	1	13
415.038	1	26
415.209	1	21
415.380	1	25
415.550	1	9
415.721	1	27
415.892	1	25
416.063	1	30
416.233	1	14
416.404	1	17
416.575	1	29
416.745	1	27
416.916	1	18
417.087	1	27
417.257	1	19
417.428	1	29
417.599	1	17
417.769	1	22
417.940	1	20
418.111	1	24
418.281	1	26
418.452	1	14
418.623	1	17
418.793	1	23
418.964	1	15
419.135	1	20
419.305	1	24
419.476	1	31
419.647	1	17
419.817	1	18
419.988	1	26
420.159	1	14
420.329	1	20
420.500	1	18
420.671	1	21
420.841	1	23
421.012	1	22
421.183	1	14
421.353	1	31
421.524	1	24
421.695	1	22
421.865	1	11
422.036	1	3
422.206	1	36
422.377	1	17
422.548	1	7
422.718	1	28
422.889	1	13
423.060	1	26
423.230	1	8
423.401	1	19
423.572	1	15
423.742	1	18
423.913	1	13
424.084	1	15
424.254	1	18
424.425	1	2
424.595	1	15
424.766	1	26
424.937	1	11
425.107	1	22
425.278	1	21
425.449	1	27
425.619	1	10
425.790	1	14
425.961	1	20
426.131	1	1
426.302	1	10
426.472	1	24
426.643	1	4
426.814	1	1
426.984	1	9
427.155	1	25
427.326	1	9
427.496	1	12
427.667	1	16
427.837	1	16
428.008	1	17
428.179	1	13
428.349	1	11
428.520	1	10
428.691	1	16
428.861	1	2
429.032	1	19
429.202	1	6
429.373	1	16
429.544	1	-2
429.714	1	14
429.885	1	20
430.055	1	19
430.226	1	9
430.397	1	12
430.567	1	10
430.738	1	14
430.909	1	8
431.079	1	7
431.250	1	11
431.420	1	26
431.591	1	15
431.762	1	19
431.932	1	14
432.103	1	5
432.273	1	5
432.444	1	2
432.615	1	6
432.785	1	5
432.956	1	10
433.126	1	14
433.297	1	17
433.468	1	22
433.638	1	6
433.809	1	14
433.979	1	15
434.150	1	18
434.320	1	9
434.491	1	6
434.662	1	5
434.832	1	10
435.003	1	14
435.173	1	29
435.344	1	8
435.515	1	8
435.685	1	3
435.856	1	4
436.026	1	9
436.197	1	7
436.368	1	9
436.538	1	16
436.709	1	14
436.879	1	9
437.050	1	13
437.220	1	5
437.391	1	7
437.562	1	14
437.732	1	6
437.903	1	4
438.073	1	28
438.244	1	6
438.414	1	3
438.585	1	3
438.756	1	-1
438.926	1	14
439.097	1	12
439.267	1	15
439.438	1	9
439.608	1	10
439.779	1	12
439.949	1	13
440.120	1	8
440.291	1	10
440.461	1	17
440.632	1	16
440.802	1	9
440.973	1	15
441.143	1	1
441.314	1	4
441.485	1	5
441.655	1	1
441.826	1	12
441.996	1	2
442.167	1	4
442.337	1	13
442.508	1	2
442.678	1	1
442.849	1	16
443.019	1	9
443.190	1	2
443.361	1	6
443.531	1	15
443.702	1	12
443.872	1	11
444.043	1	5
444.213	1	3
444.384	1	1
444.554	1	9
444.725	1	6
444.895	1	-5
445.066	1	3
445.237	1	-13
445.407	1	-2
445.578	1	7
445.748	1	7
445.919	1	6
446.089	1	7
446.260	1	8
446.430	1	10
446.601	1	19
446.771	1	9
446.942	1	0
447.112	1	12
447.283	1	6
447.453	1	7
447.624	1	5
447.794	1	4
447.965	1	-1
448.135	1	7
448.306	1	6
448.477	1	7
448.647	1	11
448.818	1	10
448.988	1	5
449.159	1	14
449.329	1	-1
449.500	1	14
449.670	1	16
449.841	1	7
450.011	1	10
450.182	1	5
450.352	1	-1
450.523	1	6
450.693	1	18
450.864	1	4
451.034	1	4
451.205	1	-1
451.375	1	6
451.546	1	14
451.716	1	15
451.887	1	-2
452.057	1	-3
452.228	1	22
452.398	1	11
452.569	1	10
452.739	1	14
452.910	1	5
453.080	1	4
453.251	1	10
453.421	1	1
453.592	1	-3
453.762	1	12
453.933	1	23
454.103	1	8
454.274	1	-7
454.444	1	1
454.615	1	11
454.785	1	0
454.956	1	-2
455.126	1	9
455.297	1	0
455.467	1	-1
455.638	1	16
455.808	1	4
455.979	1	4
456.149	1	1
456.320	1	2
456.490	1	13
456.661	1	-2
456.831	1	13
457.001	1	3
457.172	1	15
457.342	1	0
457.513	1	-5
457.683	1	11
457.854	1	7
458.024	1	5
458.195	1	-6
458.365	1	5
458.536	1	4
458.706	1	15
458.877	1	2
459.047	1	12
459.218	1	-8
459.388	1	8
459.559	1	4
459.729	1	3
459.899	1	6
460.070	1	3
460.240	1	-3
460.411	1	-5
460.581	1	7
460.752	1	-2
460.922	1	8
461.093	1	10
461.263	1	15
461.434	1	23
461.604	1	16
461.775	1	8
461.945	1	10
462.115	1	6
462.286	1	2
462.456	1	4
462.627	1	11
462.797	1	0
462.968	1	5
463.138	1	6
463.309	1	13
463.479	1	15
463.649	1	13
463.820	1	1
463.990	1	12
464.161	1	-5
464.331	1	-5
464.502	1	6
464.672	1	-3
464.843	1	2
465.013	1	5
465.183	1	7
465.354	1	9
465.524	1	9
465.695	1	1
465.865	1	2
466.036	1	13
466.206	1	9
466.376	1	11
466.547	1	8
466.717	1	9
466.888	1	12
467.058	1	1
467.229	1	-3
467.399	1	9
467.569	1	7
467.740	1	6
467.910	1	-2
468.081	1	7
468.251	1	5
468.422	1	7
468.592	1	8
468.762	1	7
468.933	1	17
469.103	1	3
469.274	1	4
469.444	1	-6
469.614	1	4
469.785	1	6
469.955	1	7
470.126	1	5
470.296	1	6
470.467	1	3
470.637	1	8
470.807	1	15
470.978	1	6
471.148	1	7
471.319	1	-3
471.489	1	7
471.659	1	5
471.830	1	3
472.000	1	4
472.171	1	19
472.341	1	17
472.511	1	14
472.682	1	0
472.852	1	-3
473.023	1	2
473.193	1	2
473.363	1	6
473.534	1	9
473.704	1	4
473.875	1	4
474.045	1	11
474.215	1	12
474.386	1	9
474.556	1	20
474.727	1	8
474.897	1	11
475.067	1	5
475.238	1	9
475.408	1	14
475.578	1	8
475.749	1	12
475.919	1	8
476.090	1	25
476.260	1	2
476.430	1	-2
476.601	1	10
476.771	1	13
476.942	1	8
477.112	1	3
477.282	1	13
477.453	1	2
477.623	1	-1
477.793	1	12
477.964	1	5
478.134	1	16
478.305	1	9
478.475	1	5
478.645	1	3
478.816	1	10
478.986	1	10
479.156	1	5
479.327	1	2
479.497	1	9
479.667	1	6
479.838	1	8
480.008	1	17
480.179	1	13
480.349	1	11
480.519	1	9
480.690	1	2
480.860	1	12
481.030	1	11
481.201	1	11
481.371	1	21
481.541	1	16
481.712	1	21
481.882	1	15
482.053	1	35
482.223	1	12
482.393	1	12
482.564	1	19
482.734	1	16
482.904	1	12
483.075	1	15
483.245	1	23
483.415	1	21
483.586	1	21
483.756	1	4
483.926	1	12
484.097	1	14
484.267	1	16
484.437	1	32
484.608	1	20
484.778	1	23
484.948	1	23
485.119	1	10
485.289	1	23
485.459	1	31
485.630	1	14
485.800	1	20
485.970	1	23
486.141	1	30
486.311	1	15
486.481	1	25
486.652	1	24
486.822	1	30
486.992	1	30
487.163	1	27
487.333	1	24
487.503	1	29
487.674	1	17
487.844	1	33
488.014	1	33
488.185	1	24
488.355	1	29
488.525	1	34
488.696	1	38
488.866	1	37
489.036	1	37
489.207	1	27
489.377	1	36
489.547	1	28
489.718	1	36
489.888	1	34
490.058	1	21
490.228	1	32
490.399	1	38
490.569	1	44
490.739	1	36
490.910	1	27
491.080	1	28
491.250	1	39
491.421	1	30
491.591	1	31
491.761	1	24
491.932	1	38
492.102	1	45
492.272	1	29
492.442	1	49
492.613	1	40
492.783	1	37
492.953	1	41
493.124	1	40
493.294	1	32
493.464	1	44
493.635	1	43
493.805	1	42
493.975	1	29
494.145	1	44
494.316	1	37
494.486	1	42
494.656	1	41
494.827	1	35
494.997	1	49
495.167	1	45
495.337	1	62
495.508	1	52
495.678	1	49
495.848	1	54
496.019	1	49
496.189	1	49
496.359	1	43
496.529	1	48
496.700	1	44
496.870	1	48
497.040	1	62
497.211	1	61
497.381	1	48
497.551	1	51
497.721	1	61
497.892	1	57
498.062	1	42
498.232	1	66
498.403	1	55
498.573	1	53
498.743	1	65
498.913	1	45
499.084	1	55
499.254	1	42
499.424	1	51
499.594	1	62
499.765	1	56
499.935	1	56
500.105	1	70
500.275	1	59
500.446	1	64
500.616	1	54
500.786	1	62
500.956	1	70
501.127	1	66
501.297	1	57
501.467	1	65
501.638	1	80
501.808	1	56
501.978	1	62
502.148	1	70
502.319	1	67
502.489	1	74
502.659	1	80
502.829	1	80
503.000	1	62
503.170	1	68
503.340	1	62
503.510	1	69
503.681	1	66
503.851	1	69
504.021	1	66
504.191	1	80
504.362	1	76
504.532	1	92
504.702	1	81
504.872	1	81
505.042	1	82
505.213	1	71
505.383	1	77
505.553	1	72
505.723	1	86
505.894	1	92
506.064	1	74
506.234	1	74
506.404	1	91
506.575	1	73
506.745	1	75
506.915	1	96
507.085	1	90
507.256	1	88
507.426	1	99
507.596	1	87
507.766	1	80
507.936	1	91
508.107	1	89
508.277	1	98
508.447	1	93
508.617	1	86
508.788	1	99
508.958	1	94
509.128	1	92
509.298	1	90
509.468	1	105
509.639	1	106
509.809	1	91
509.979	1	95
510.149	1	107
510.319	1	100
510.490	1	115
510.660	1	96
510.830	1	105
511.000	1	94
511.171	1	105
511.341	1	101
511.511	1	106
511.681	1	104
511.851	1	106
512.022	1	93
512.192	1	98
512.362	1	107
512.532	1	101
512.702	1	97
512.873	1	95
513.043	1	102
513.213	1	110
513.383	1	101
513.553	1	117
513.724	1	101
513.894	1	113
514.064	1	103
514.234	1	116
514.404	1	110
514.575	1	96
514.745	1	114
514.915	1	104
515.085	1	103
515.255	1	103
515.425	1	109
515.596	1	112
515.766	1	113
515.936	1	112
516.106	1	116
516.276	1	114
516.447	1	114
516.617	1	108
516.787	1	101
516.957	1	116
517.127	1	119
517.297	1	115
517.468	1	116
517.638	1	118
517.808	1	116
517.978	1	100
518.148	1	117
518.319	1	117
518.489	1	118
518.659	1	114
518.829	1	112
518.999	1	120
519.169	1	129
519.340	1	135
519.510	1	123
519.680	1	124
519.850	1	126
520.020	1	122
520.190	1	125
520.361	1	123
520.531	1	136
520.701	1	119
520.871	1	128
521.041	1	141
521.211	1	127
521.382	1	119
521.552	1	135
521.722	1	133
521.892	1	132
522.062	1	126
522.232	1	132
522.402	1	118
522.573	1	145
522.743	1	120
522.913	1	128
523.083	1	125
523.253	1	133
523.423	1	142
523.593	1	139
523.764	1	136
523.934	1	126
524.104	1	123
524.274	1	130
524.444	1	136
524.614	1	132
524.784	1	116
524.955	1	130
525.125	1	122
525.295	1	120
525.465	1	134
525.635	1	129
525.805	1	141
525.975	1	134
526.146	1	124
526.316	1	134
526.486	1	139
526.656	1	126
526.826	1	133
526.996	1	119
527.166	1	141
527.337	1	123
527.507	1	137
527.677	1	120
527.847	1	123
528.017	1	114
528.187	1	129
528.357	1	120
528.527	1	132
528.698	1	125
528.868	1	137
529.038	1	133
529.208	1	135
529.378	1	127
529.548	1	143
529.718	1	117
529.888	1	137
530.058	1	137
530.229	1	137
530.399	1	136
530.569	1	133
530.739	1	133
530.909	1	138
531.079	1	144
531.249	1	138
531.419	1	136
531.589	1	128
531.760	1	114
531.930	1	147
532.100	1	133
532.270	1	146
532.440	1	138
532.610	1	137
532.780	1	120
532.950	1	132
533.120	1	138
533.290	1	132
533.461	1	128
533.631	1	133
533.801	1	136
533.971	1	127
534.141	1	138
534.311	1	137
534.481	1	127
534.651	1	127
534.821	1	129
534.991	1	136
535.162	1	143
535.332	1	126
535.502	1	138
535.672	1	146
535.842	1	142
536.012	1	135
536.182	1	122
536.352	1	122
536.522	1	123
536.692	1	142
536.862	1	139
537.032	1	137
537.203	1	142
537.373	1	120
537.543	1	122
537.713	1	117
537.883	1	139
538.053	1	131
538.223	1	132
538.393	1	130
538.563	1	123
538.733	1	114
538.903	1	128
539.073	1	120
539.243	1	113
539.413	1	127
539.584	1	123
539.754	1	120
539.924	1	121
540.094	1	124
540.264	1	123
540.434	1	131
540.604	1	125
540.774	1	119
540.944	1	108
541.114	1	129
541.284	1	118
541.454	1	116
541.624	1	107
541.794	1	126
541.964	1	124
542.134	1	106
542.305	1	133
542.475	1	127
542.645	1	107
542.815	1	119
542.985	1	122
543.155	1	116
543.325	1	100
543.495	1	108
543.665	1	105
543.835	1	122
544.005	1	95
544.175	1	98
544.345	1	96
544.515	1	125
544.685	1	109
544.855	1	126
545.025	1	107
545.195	1	107
545.365	1	98
545.535	1	117
545.705	1	102
545.875	1	96
546.045	1	111
546.216	1	103
546.386	1	109
546.556	1	113
546.726	1	113
546.896	1	110
547.066	1	103
547.236	1	119
547.406	1	106
547.576	1	107
547.746	1	109
547.916	1	103
548.086	1	118
548.256	1	113
548.426	1	117
548.596	1	101
548.766	1	107
548.936	1	112
549.106	1	112
549.276	1	109
549.446	1	112
549.616	1	122
549.786	1	105
549.956	1	117
550.126	1	113
550.296	1	122
550.466	1	116
550.636	1	103
550.806	1	99
550.976	1	88
551.146	1	98
551.316	1	111
551.486	1	112
551.656	1	114
551.826	1	98
551.996	1	102
552.166	1	103
552.336	1	102
552.506	1	109
552.676	1	118
552.846	1	105
553.016	1	115
553.186	1	104
553.356	1	110
553.526	1	109
553.696	1	105
553.866	1	107
554.036	1	99
554.206	1	93
554.376	1	117
554.546	1	87
554.716	1	111
554.886	1	113
555.056	1	99
555.226	1	112
555.396	1	103
555.566	1	100
555.736	1	97
555.906	1	95
556.076	1	112
556.246	1	99
556.416	1	102
556.586	1	101
556.756	1	103
556.926	1	99
557.096	1	91
557.266	1	94
557.436	1	100
557.606	1	90
557.776	1	86
557.946	1	90
558.116	1	98
558.286	1	92
558.456	1	99
558.626	1	94
558.796	1	87
558.966	1	95
559.136	1	73
559.306	1	96
559.476	1	87
559.646	1	83
559.816	1	87
559.986	1	68
560.155	1	92
560.325	1	86
560.495	1	79
560.665	1	95
560.835	1	87
561.005	1	86
561.175	1	76
561.345	1	70
561.515	1	80
561.685	1	80
561.855	1	78
562.025	1	77
562.195	1	78
562.365	1	81
562.535	1	73
562.705	1	81
562.875	1	78
563.045	1	72
563.215	1	65
563.385	1	84
563.555	1	77
563.725	1	71
563.895	1	84
564.064	1	76
564.234	1	67
564.404	1	75
564.574	1	66
564.744	1	66
564.914	1	73
565.084	1	77
565.254	1	77
565.424	1	72
565.594	1	73
565.764	1	72
565.934	1	75
566.104	1	61
566.274	1	66
566.444	1	77
566.614	1	76
566.783	1	69
566.953	1	60
567.123	1	66
567.293	1	68
567.463	1	64
567.633	1	79
567.803	1	55
567.973	1	71
568.143	1	56
568.313	1	55
568.483	1	82
568.653	1	75
568.823	1	58
568.993	1	77
569.162	1	68
569.332	1	74
569.502	1	58
569.672	1	70
569.842	1	68
570.012	1	61
570.182	1	61
570.352	1	60
570.522	1	74
570.692	1	60
570.862	1	62
571.031	1	48
571.201	1	76
571.371	1	56
571.541	1	56
571.711	1	62
571.881	1	60
572.051	1	68
572.221	1	51
572.391	1	71
572.561	1	52
572.731	1	53
572.900	1	51
573.070	1	63
573.240	1	74
573.410	1	65
573.580	1	48
573.750	1	44
573.920	1	53
574.090	1	48
574.260	1	62
574.430	1	49
574.599	1	56
574.769	1	59
574.939	1	53
575.109	1	43
575.279	1	42
575.449	1	56
575.619	1	50
575.789	1	53
575.959	1	50
576.128	1	62
576.298	1	53
576.468	1	48
576.638	1	46
576.808	1	57
576.978	1	47
577.148	1	54
577.318	1	52
577.487	1	52
577.657	1	53
577.827	1	48
577.997	1	48
578.167	1	40
578.337	1	47
578.507	1	41
578.677	1	44
578.846	1	47
579.016	1	39
579.186	1	46
579.356	1	41
579.526	1	44
579.696	1	53
579.866	1	43
580.036	1	44
580.205	1	50
580.375	1	39
580.545	1	50
580.715	1	50
580.885	1	49
581.055	1	48
581.225	1	46
581.394	1	44
581.564	1	42
581.734	1	36
581.904	1	38
582.074	1	38
582.244	1	48
582.414	1	34
582.583	1	43
582.753	1	31
582.923	1	35
583.093	1	47
583.263	1	43
583.433	1	43
583.603	1	47
583.772	1	39
583.942	1	39
584.112	1	33
584.282	1	50
584.452	1	40
584.622	1	33
584.791	1	30
584.961	1	38
585.131	1	36
585.301	1	51
585.471	1	28
585.641	1	33
585.811	1	37
585.980	1	43
586.150	1	29
586.320	1	43
586.490	1	33
586.660	1	41
586.830	1	38
586.999	1	31
587.169	1	47
587.339	1	36
587.509	1	47
587.679	1	43
587.849	1	39
588.018	1	36
588.188	1	35
588.358	1	36
588.528	1	39
588.698	1	34
588.867	1	49
589.037	1	39
589.207	1	23
589.377	1	22
589.547	1	45
589.717	1	26
589.886	1	34
590.056	1	32
590.226	1	42
590.396	1	38
590.566	1	34
590.735	1	37
590.905	1	33
591.075	1	41
591.245	1	40
591.415	1	41
591.585	1	28
591.754	1	40
591.924	1	39
592.094	1	32
592.264	1	39
592.434	1	30
592.603	1	33
592.773	1	26
592.943	1	39
593.113	1	36
593.283	1	36
593.452	1	30
593.622	1	31
593.792	1	29
593.962	1	24
594.132	1	29
594.301	1	47
594.471	1	28
594.641	1	19
594.811	1	41
594.981	1	33
595.150	1	24
595.320	1	19
595.490	1	30
595.660	1	20
595.829	1	36
595.999	1	26
596.169	1	23
596.339	1	26
596.509	1	38
596.678	1	39
596.848	1	26
597.018	1	40
597.188	1	34
597.358	1	20
597.527	1	23
597.697	1	25
597.867	1	32
598.037	1	34
598.206	1	34
598.376	1	22
598.546	1	36
598.716	1	25
598.885	1	33
599.055	1	28
599.225	1	14
599.395	1	26
599.565	1	20
599.734	1	20
599.904	1	20
600.074	1	25
600.244	1	28
600.413	1	27
600.583	1	14
600.753	1	35
600.923	1	32
601.092	1	23
601.262	1	20
601.432	1	30
601.602	1	23
601.771	1	23
601.941	1	22
602.111	1	34
602.281	1	8
602.451	1	21
602.620	1	16
602.790	1	28
602.960	1	25
603.130	1	21
603.299	1	24
603.469	1	23
603.639	1	17
603.809	1	14
603.978	1	17
604.148	1	18
604.318	1	22
604.487	1	23
604.657	1	18
604.827	1	17
604.997	1	30
605.166	1	15
605.336	1	22
605.506	1	26
605.676	1	32
605.845	1	16
606.015	1	20
606.185	1	19
606.355	1	22
606.524	1	30
606.694	1	34
606.864	1	16
607.034	1	22
607.203	1	26
607.373	1	38
607.543	1	29
607.712	1	38
607.882	1	26
608.052	1	36
608.222	1	17
608.391	1	19
608.561	1	26
608.731	1	19
608.901	1	25
609.070	1	17
609.240	1	25
609.410	1	16
609.579	1	25
609.749	1	19
609.919	1	25
610.089	1	24
610.258	1	25
610.428	1	22
610.598	1	23
610.767	1	14
610.937	1	14
611.107	1	31
611.277	1	26
611.446	1	24
611.616	1	30
611.786	1	26
611.955	1	13
612.125	1	16
612.295	1	24
612.465	1	19
612.634	1	24
612.804	1	19
612.974	1	24
613.143	1	10
613.313	1	20
613.483	1	10
613.652	1	12
613.822	1	12
613.992	1	20
614.162	1	12
614.331	1	22
614.501	1	10
614.671	1	9
614.840	1	31
615.010	1	11
615.180	1	26
615.349	1	30
615.519	1	15
615.689	1	13
615.858	1	17
616.028	1	20
616.198	1	25
616.368	1	16
616.537	1	4
616.707	1	13
616.877	1	21
617.046	1	10
617.216	1	11
617.386	1	19
617.555	1	23
617.725	1	10
617.895	1	23
618.064	1	11
618.234	1	13
618.404	1	15
618.573	1	10
618.743	1	28
618.913	1	23
619.082	1	27
619.252	1	17
619.422	1	12
619.591	1	10
619.761	1	10
619.931	1	10
620.100	1	15
620.270	1	24
620.440	1	8
620.609	1	15
620.779	1	-2
620.949	1	21
621.118	1	5
621.288	1	24
621.458	1	21
621.627	1	13
621.797	1	19
621.967	1	12
622.136	1	17
622.306	1	17
622.476	1	20
622.645	1	27
622.815	1	1
622.985	1	15
623.154	1	5
623.324	1	12
623.494	1	28
623.663	1	-3
623.833	1	9
624.002	1	23
624.172	1	12
624.342	1	10
624.511	1	9
624.681	1	13
624.851	1	1
625.020	1	14
625.190	1	16
625.360	1	10
625.529	1	19
625.699	1	26
625.869	1	15
626.038	1	7
626.208	1	7
626.377	1	11
626.547	1	15
626.717	1	8
626.886	1	14
627.056	1	18
627.226	1	5
627.395	1	17
627.565	1	-1
627.735	1	16
627.904	1	3
628.074	1	12
628.243	1	6
628.413	1	26
628.583	1	11
628.752	1	12
628.922	1	26
629.091	1	4
629.261	1	3
629.431	1	5
629.600	1	9
629.770	1	6
629.940	1	15
630.109	1	7
630.279	1	10
630.448	1	21
630.618	1	3
630.788	1	3
630.957	1	9
631.127	1	20
631.297	1	10
631.466	1	6
631.636	1	9
631.805	1	9
631.975	1	10
632.145	1	4
632.314	1	17
632.484	1	-4
632.653	1	6
632.823	1	7
632.993	1	11
633.162	1	11
633.332	1	11
633.501	1	5
633.671	1	18
633.841	1	26
634.010	1	11
634.180	1	24
634.349	1	9
634.519	1	12
634.689	1	10
634.858	1	5
635.028	1	18
635.197	1	20
635.367	1	20
635.537	1	17
635.706	1	18
635.876	1	22
636.045	1	7
636.215	1	11
636.384	1	9
636.554	1	2
636.724	1	13
636.893	1	8
637.063	1	7
637.232	1	7
637.402	1	9
637.572	1	11
637.741	1	13
637.911	1	15
638.080	1	20
638.250	1	7
638.419	1	11
638.589	1	-5
638.759	1	4
638.928	1	15
639.098	1	8
639.267	1	10
639.437	1	11
639.606	1	13
639.776	1	15
639.946	1	10
640.115	1	11
640.285	1	9
640.454	1	18
640.624	1	3
640.793	1	9
640.963	1	15
641.132	1	6
641.302	1	30
641.472	1	-4
641.641	1	22
641.811	1	7
641.980	1	21
642.150	1	1
642.319	1	10
642.489	1	4
642.659	1	10
642.828	1	6
642.998	1	11
643.167	1	8
643.337	1	16
643.506	1	8
643.676	1	9
643.845	1	3
644.015	1	7
644.184	1	20
644.354	1	7
644.524	1	17
644.693	1	11
644.863	1	10
645.032	1	6
645.202	1	15
645.371	1	0
645.541	1	4
645.710	1	7
645.880	1	8
646.049	1	10
646.219	1	15
646.388	1	11
646.558	1	11
646.728	1	22
646.897	1	5
647.067	1	12
647.236	1	9
647.406	1	8
647.575	1	9
647.745	1	2
647.914	1	10
648.084	1	9
648.253	1	2
648.423	1	13
648.592	1	-1
648.762	1	3
648.931	1	4
649.101	1	21
649.270	1	3
649.440	1	18
649.610	1	9
649.779	1	13
649.949	1	9
650.118	1	21
650.288	1	16
650.457	1	-6
650.627	1	9
650.796	1	16
650.966	1	19
651.135	1	9
651.305	1	21
651.474	1	20
651.644	1	19
651.813	1	8
651.983	1	13
652.152	1	3
652.322	1	14
652.491	1	10
652.661	1	8
652.830	1	9
653.000	1	11
653.169	1	10
653.339	1	13
653.508	1	21
653.678	1	15
653.847	1	3
654.017	1	16
654.186	1	21
654.356	1	5
654.525	1	7
654.695	1	6
654.864	1	9
655.034	1	18
655.203	1	13
655.373	1	4
655.542	1	3
655.712	1	6
655.881	1	9
656.051	1	-1
656.220	1	14
656.390	1	10
656.559	1	14
656.729	1	11
656.898	1	10
657.068	1	9
657.237	1	15
657.406	1	9
657.576	1	14
657.745	1	6
657.915	1	12
658.084	1	18
658.254	1	14
658.423	1	22
658.593	1	-3
658.762	1	12
658.932	1	-4
659.101	1	15
659.271	1	11
659.440	1	11
659.610	1	10
659.779	1	5
659.949	1	10
660.118	1	10
660.288	1	15
660.457	1	12
660.626	1	6
660.796	1	0
660.965	1	-8
661.135	1	-3
661.304	1	5
661.474	1	3
661.643	1	23
661.813	1	7
661.982	1	12
662.152	1	10
662.321	1	19
662.491	1	16
662.660	1	12
662.829	1	9
662.999	1	13
663.168	1	13
663.338	1	10
663.507	1	19
663.677	1	5
663.846	1	7
664.016	1	2
664.185	1	8
664.354	1	11
664.524	1	2
664.693	1	9
664.863	1	14
665.032	1	13
665.202	1	8
665.371	1	4
665.541	1	1
665.710	1	6
665.879	1	-2
666.049	1	13
666.218	1	-8
666.388	1	4
666.557	1	10
666.727	1	1
666.896	1	10
667.065	1	8
667.235	1	4
667.404	1	6
667.574	1	15
667.743	1	4
667.913	1	17
668.082	1	17
668.251	1	11
668.421	1	4
668.590	1	6
668.760	1	2
668.929	1	16
669.099	1	9
669.268	1	13
669.437	1	6
669.607	1	4
669.776	1	-2
669.946	1	28
670.115	1	3
670.285	1	4
670.454	1	17
670.623	1	12
670.793	1	9
670.962	1	9
671.132	1	6
671.301	1	8
671.470	1	12
671.640	1	5
671.809	1	11
671.979	1	1
672.148	1	3
672.317	1	9
672.487	1	15
672.656	1	18
672.826	1	12
672.995	1	7
673.164	1	12
673.334	1	15
673.503	1	4
673.673	1	18
673.842	1	8
674.011	1	6
674.181	1	6
674.350	1	6
674.520	1	10
674.689	1	10
674.858	1	1
675.028	1	9
675.197	1	17
675.367	1	6
675.536	1	11
675.705	1	15
675.875	1	12
676.044	1	13
676.214	1	16
676.383	1	1
676.552	1	1
676.722	1	11
676.891	1	13
677.060	1	8
677.230	1	12
677.399	1	12
677.569	1	16
677.738	1	12
677.907	1	6
678.077	1	10
678.246	1	10
678.416	1	13
678.585	1	17
678.754	1	4
678.924	1	3
679.093	1	3
679.262	1	5
679.432	1	15
679.601	1	-7
679.771	1	22
679.940	1	7
680.109	1	-2
680.279	1	18
680.448	1	15
680.617	1	11
680.787	1	10
680.956	1	10
681.125	1	14
681.295	1	7
681.464	1	2
681.634	1	17
681.803	1	13
681.972	1	3
682.142	1	-2
682.311	1	7
682.480	1	12
682.650	1	14
682.819	1	7
682.988	1	3
683.158	1	19
683.327	1	20
683.496	1	5
683.666	1	14
683.835	1	12
684.004	1	13
684.174	1	6
684.343	1	17
684.512	1	15
684.682	1	11
684.851	1	3
685.021	1	14
685.190	1	8
685.359	1	11
685.529	1	8
685.698	1	8
685.867	1	6
686.037	1	11
686.206	1	13
686.375	1	15
686.545	1	18
686.714	1	15
686.883	1	20
687.053	1	3
687.222	1	17
687.391	1	7
687.561	1	14
687.730	1	7
687.899	1	18
688.069	1	4
688.238	1	13
688.407	1	14
688.577	1	27
688.746	1	4
