340.368	1	0
340.539	1	0
340.710	1	3
340.881	1	-5
341.052	1	5
341.223	1	-4
341.394	1	-2
341.565	1	-5
341.737	1	13
341.908	1	-3
342.079	1	-3
342.250	1	-1
342.421	1	9
342.592	1	2
342.763	1	3
342.934	1	19
343.105	1	1
343.276	1	-7
343.447	1	6
343.618	1	-5
343.789	1	11
343.960	1	2
344.131	1	-14
344.302	1	5
344.473	1	-7
344.644	1	-4
344.815	1	10
344.986	1	1
345.157	1	-10
345.328	1	8
345.499	1	3
345.670	1	2
345.841	1	5
346.012	1	0
346.183	1	-3
346.354	1	3
346.526	1	5
346.697	1	9
346.868	1	-2
347.039	1	2
347.210	1	-10
347.381	1	2
347.552	1	10
347.723	1	-2
347.894	1	-4
348.065	1	-5
348.236	1	10
348.407	1	-7
348.578	1	4
348.749	1	-2
348.920	1	-4
349.091	1	-2
349.262	1	0
349.433	1	-3
349.604	1	2
349.775	1	-1
349.946	1	5
350.117	1	-2
350.288	1	-6
350.459	1	10
350.630	1	3
350.801	1	0
350.972	1	-5
351.143	1	-12
351.314	1	5
351.485	1	-5
351.656	1	1
351.827	1	-8
351.998	1	-6
352.169	1	-2
352.340	1	-1
352.511	1	-5
352.682	1	-3
352.853	1	-3
353.024	1	4
353.195	1	-7
353.366	1	-6
353.537	1	4
353.708	1	14
353.879	1	-1
354.050	1	6
354.221	1	1
354.392	1	2
354.563	1	-4
354.734	1	6
354.905	1	2
355.076	1	5
355.247	1	2
355.418	1	1
355.589	1	-1
355.760	1	-13
355.931	1	5
356.102	1	5
356.273	1	-7
356.444	1	6
356.615	1	-15
356.785	1	7
356.956	1	2
357.127	1	-2
357.298	1	4
357.469	1	-9
357.640	1	-3
357.811	1	-2
357.982	1	4
358.153	1	-1
358.324	1	3
358.495	1	13
358.666	1	-4
358.837	1	10
359.008	1	11
359.179	1	8
359.350	1	-8
359.521	1	-3
359.692	1	-13
359.863	1	2
360.034	1	8
360.205	1	-9
360.376	1	12
360.547	1	12
360.718	1	3
360.889	1	9
361.060	1	-1
361.231	1	4
361.401	1	2
361.572	1	10
361.743	1	9
361.914	1	1
362.085	1	5
362.256	1	6
362.427	1	12
362.598	1	6
362.769	1	5
362.940	1	0
363.111	1	4
363.282	1	6
363.453	1	6
363.624	1	8
363.795	1	7
363.966	1	6
364.137	1	7
364.308	1	9
364.478	1	-5
364.649	1	8
364.820	1	9
364.991	1	15
365.162	1	2
365.333	1	8
365.504	1	13
365.675	1	2
365.846	1	6
366.017	1	23
366.188	1	12
366.359	1	7
366.530	1	3
366.701	1	10
366.871	1	9
367.042	1	8
367.213	1	20
367.384	1	27
367.555	1	9
367.726	1	14
367.897	1	15
368.068	1	5
368.239	1	8
368.410	1	20
368.581	1	14
368.752	1	24
368.923	1	8
369.093	1	11
369.264	1	20
369.435	1	16
369.606	1	9
369.777	1	23
369.948	1	8
370.119	1	19
370.290	1	11
370.461	1	19
370.632	1	21
370.803	1	8
370.973	1	12
371.144	1	13
371.315	1	16
371.486	1	14
371.657	1	12
371.828	1	12
371.999	1	19
372.170	1	11
372.341	1	6
372.512	1	11
372.682	1	1
372.853	1	8
373.024	1	6
373.195	1	8
373.366	1	8
373.537	1	7
373.708	1	4
373.879	1	4
374.050	1	4
374.220	1	4
374.391	1	12
374.562	1	13
374.733	1	2
374.904	1	-1
375.075	1	12
375.246	1	4
375.417	1	5
375.588	1	-3
375.758	1	-2
375.929	1	-2
376.100	1	8
376.271	1	3
376.442	1	1
376.613	1	-1
376.784	1	-9
376.955	1	0
377.125	1	3
377.296	1	13
377.467	1	-2
377.638	1	7
377.809	1	6
377.980	1	1
378.151	1	6
378.321	1	-1
378.492	1	4
378.663	1	-6
378.834	1	1
379.005	1	14
379.176	1	1
379.347	1	6
379.518	1	9
379.688	1	-5
379.859	1	0
380.030	1	4
380.201	1	0
380.372	1	12
380.543	1	8
380.714	1	5
380.884	1	9
381.055	1	1
381.226	1	4
381.397	1	2
381.568	1	9
381.739	1	4
381.910	1	6
382.080	1	2
382.251	1	9
382.422	1	-4
382.593	1	6
382.764	1	2
382.935	1	10
383.105	1	3
383.276	1	-2
383.447	1	10
383.618	1	0
383.789	1	14
383.960	1	13
384.130	1	10
384.301	1	0
384.472	1	-1
384.643	1	7
384.814	1	6
384.985	1	4
385.156	1	6
385.326	1	4
385.497	1	-4
385.668	1	-1
385.839	1	-9
386.010	1	14
386.180	1	6
386.351	1	-3
386.522	1	8
386.693	1	4
386.864	1	1
387.035	1	8
387.205	1	1
387.376	1	0
387.547	1	14
387.718	1	13
387.889	1	-1
388.060	1	11
388.230	1	6
388.401	1	-4
388.572	1	5
388.743	1	10
388.914	1	9
389.084	1	2
389.255	1	7
389.426	1	-1
389.597	1	-7
389.768	1	7
389.939	1	-1
390.109	1	2
390.280	1	8
390.451	1	9
390.622	1	6
390.793	1	-3
390.963	1	4
391.134	1	11
391.305	1	-3
391.476	1	4
391.647	1	1
391.817	1	0
391.988	1	11
392.159	1	9
392.330	1	2
392.501	1	1
392.671	1	1
392.842	1	6
393.013	1	9
393.184	1	-2
393.355	1	-14
393.525	1	15
393.696	1	2
393.867	1	18
394.038	1	4
394.208	1	1
394.379	1	-2
394.550	1	1
394.721	1	7
394.892	1	5
395.062	1	-12
395.233	1	5
395.404	1	-1
395.575	1	16
395.746	1	16
395.916	1	14
396.087	1	-3
396.258	1	9
396.429	1	-8
396.599	1	2
396.770	1	0
396.941	1	-4
397.112	1	9
397.283	1	4
397.453	1	-4
397.624	1	5
397.795	1	5
397.966	1	2
398.136	1	5
398.307	1	7
398.478	1	-1
398.649	1	5
398.819	1	2
398.990	1	-4
399.161	1	-11
399.332	1	4
399.503	1	4
399.673	1	11
399.844	1	-13
400.015	1	4
400.186	1	3
400.356	1	10
400.527	1	0
400.698	1	0
400.869	1	1
401.039	1	3
401.210	1	-6
401.381	1	5
401.552	1	-1
401.722	1	7
401.893	1	7
402.064	1	1
402.235	1	-5
402.405	1	-2
402.576	1	9
402.747	1	10
402.918	1	2
403.088	1	-8
403.259	1	4
403.430	1	-2
403.601	1	1
403.771	1	-4
403.942	1	4
404.113	1	-6
404.284	1	9
404.454	1	-5
404.625	1	9
404.796	1	-8
404.967	1	12
405.137	1	-1
405.308	1	15
405.479	1	-8
405.649	1	2
405.820	1	-2
405.991	1	17
406.162	1	-4
406.332	1	12
406.503	1	4
406.674	1	8
406.845	1	1
407.015	1	5
407.186	1	1
407.357	1	1
407.527	1	4
407.698	1	13
407.869	1	1
408.040	1	0
408.210	1	-1
408.381	1	-1
408.552	1	4
408.722	1	5
408.893	1	7
409.064	1	-1
409.235	1	-2
409.405	1	6
409.576	1	6
409.747	1	1
409.917	1	2
410.088	1	7
410.259	1	6
410.430	1	0
410.600	1	10
410.771	1	17
410.942	1	12
411.112	1	11
411.283	1	-3
411.454	1	-2
411.625	1	-3
411.795	1	1
411.966	1	5
412.137	1	2
412.307	1	4
412.478	1	-5
412.649	1	3
412.819	1	10
412.990	1	-6
413.161	1	6
413.332	1	-1
413.502	1	-4
413.673	1	2
413.844	1	8
414.014	1	16
414.185	1	-3
414.356	1	13
414.526	1	-2
414.697	1	-4
414.868	1	-12
415.038	1	5
415.209	1	-1
415.380	1	-2
415.550	1	-7
415.721	1	10
415.892	1	-1
416.063	1	9
416.233	1	-1
416.404	1	-3
416.575	1	3
416.745	1	0
416.916	1	-1
417.087	1	1
417.257	1	-9
417.428	1	8
417.599	1	-1
417.769	1	0
417.940	1	2
418.111	1	10
418.281	1	7
418.452	1	0
418.623	1	1
418.793	1	7
418.964	1	-1
419.135	1	4
419.305	1	-2
419.476	1	12
419.647	1	8
419.817	1	6
419.988	1	6
420.159	1	2
420.329	1	3
420.500	1	0
420.671	1	1
420.841	1	4
421.012	1	11
421.183	1	-1
421.353	1	7
421.524	1	3
421.695	1	7
421.865	1	-1
422.036	1	-7
422.206	1	7
422.377	1	-2
422.548	1	-8
422.718	1	6
422.889	1	4
423.060	1	9
423.230	1	-2
423.401	1	4
423.572	1	-1
423.742	1	4
423.913	1	-5
424.084	1	-2
424.254	1	-1
424.425	1	1
424.595	1	6
424.766	1	13
424.937	1	-3
425.107	1	-1
425.278	1	0
425.449	1	2
425.619	1	1
425.790	1	3
425.961	1	-2
426.131	1	-10
426.302	1	-5
426.472	1	8
426.643	1	-2
426.814	1	-7
426.984	1	11
427.155	1	9
427.326	1	8
427.496	1	-3
427.667	1	8
427.837	1	5
428.008	1	9
428.179	1	2
428.349	1	17
428.520	1	3
428.691	1	5
428.861	1	-6
429.032	1	-5
429.202	1	2
429.373	1	6
429.544	1	-4
429.714	1	4
429.885	1	9
430.055	1	4
430.226	1	-1
430.397	1	7
430.567	1	13
430.738	1	0
430.909	1	3
431.079	1	-5
431.250	1	5
431.420	1	7
431.591	1	10
431.762	1	7
431.932	1	9
432.103	1	-5
432.273	1	2
432.444	1	-6
432.615	1	-2
432.785	1	-6
432.956	1	8
433.126	1	7
433.297	1	5
433.468	1	1
433.638	1	-1
433.809	1	-3
433.979	1	1
434.150	1	4
434.320	1	-1
434.491	1	11
434.662	1	2
434.832	1	9
435.003	1	4
435.173	1	4
435.344	1	-9
435.515	1	0
435.685	1	-5
435.856	1	-2
436.026	1	2
436.197	1	-4
436.368	1	5
436.538	1	8
436.709	1	10
436.879	1	-1
437.050	1	5
437.220	1	-6
437.391	1	3
437.562	1	-1
437.732	1	-5
437.903	1	-5
438.073	1	14
438.244	1	6
438.414	1	-11
438.585	1	1
438.756	1	-1
438.926	1	6
439.097	1	9
439.267	1	-5
439.438	1	6
439.608	1	-10
439.779	1	0
439.949	1	4
440.120	1	-9
440.291	1	-3
440.461	1	8
440.632	1	1
440.802	1	-12
440.973	1	4
441.143	1	-3
441.314	1	3
441.485	1	4
441.655	1	-8
441.826	1	3
441.996	1	-2
442.167	1	6
442.337	1	4
442.508	1	-8
442.678	1	8
442.849	1	-3
443.019	1	-3
443.190	1	-2
443.361	1	3
443.531	1	2
443.702	1	-4
443.872	1	4
444.043	1	-3
444.213	1	-6
444.384	1	-3
444.554	1	-4
444.725	1	-4
444.895	1	-12
445.066	1	-7
445.237	1	-9
445.407	1	7
445.578	1	-3
445.748	1	-2
445.919	1	5
446.089	1	17
446.260	1	0
446.430	1	1
446.601	1	14
446.771	1	-1
446.942	1	0
447.112	1	2
447.283	1	-5
447.453	1	7
447.624	1	-1
447.794	1	0
447.965	1	-6
448.135	1	5
448.306	1	4
448.477	1	-3
448.647	1	11
448.818	1	-4
448.988	1	-6
449.159	1	2
449.329	1	-1
449.500	1	4
449.670	1	8
449.841	1	2
450.011	1	1
450.182	1	-6
450.352	1	-7
450.523	1	5
450.693	1	11
450.864	1	5
451.034	1	0
451.205	1	-1
451.375	1	6
451.546	1	12
451.716	1	8
451.887	1	1
452.057	1	-3
452.228	1	-1
452.398	1	1
452.569	1	2
452.739	1	3
452.910	1	-3
453.080	1	-3
453.251	1	9
453.421	1	2
453.592	1	3
453.762	1	5
453.933	1	2
454.103	1	-1
454.274	1	-9
454.444	1	2
454.615	1	6
454.785	1	-5
454.956	1	-2
455.126	1	4
455.297	1	-1
455.467	1	-5
455.638	1	5
455.808	1	-3
455.979	1	-2
456.149	1	0
456.320	1	-2
456.490	1	2
456.661	1	2
456.831	1	8
457.001	1	-5
457.172	1	4
457.342	1	2
457.513	1	-3
457.683	1	5
457.854	1	11
458.024	1	3
458.195	1	-6
458.365	1	-4
458.536	1	3
458.706	1	10
458.877	1	2
459.047	1	12
459.218	1	-3
459.388	1	0
459.559	1	-1
459.729	1	-1
459.899	1	2
460.070	1	-4
460.240	1	-7
460.411	1	-7
460.581	1	-8
460.752	1	5
460.922	1	-4
461.093	1	1
461.263	1	0
461.434	1	9
461.604	1	2
461.775	1	3
461.945	1	2
462.115	1	8
462.286	1	4
462.456	1	-3
462.627	1	-2
462.797	1	1
462.968	1	0
463.138	1	-6
463.309	1	1
463.479	1	4
463.649	1	9
463.820	1	1
463.990	1	4
464.161	1	-3
464.331	1	-9
464.502	1	2
464.672	1	-1
464.843	1	3
465.013	1	-5
465.183	1	-3
465.354	1	13
465.524	1	-1
465.695	1	-9
465.865	1	-2
466.036	1	0
466.206	1	3
466.376	1	0
466.547	1	-1
466.717	1	10
466.888	1	5
467.058	1	-4
467.229	1	-8
467.399	1	6
467.569	1	3
467.740	1	3
467.910	1	2
468.081	1	7
468.251	1	-2
468.422	1	-5
468.592	1	4
468.762	1	2
468.933	1	7
469.103	1	-3
469.274	1	-6
469.444	1	-5
469.614	1	2
469.785	1	9
469.955	1	7
470.126	1	-1
470.296	1	2
470.467	1	-12
470.637	1	3
470.807	1	3
470.978	1	0
471.148	1	5
471.319	1	1
471.489	1	0
471.659	1	-12
471.830	1	-12
472.000	1	1
472.171	1	14
472.341	1	3
472.511	1	1
472.682	1	-3
472.852	1	-1
473.023	1	5
473.193	1	-4
473.363	1	0
473.534	1	2
473.704	1	-7
473.875	1	4
474.045	1	-1
474.215	1	2
474.386	1	10
474.556	1	14
474.727	1	8
474.897	1	-1
475.067	1	-6
475.238	1	-2
475.408	1	9
475.578	1	-2
475.749	1	-1
475.919	1	3
476.090	1	19
476.260	1	-1
476.430	1	-3
476.601	1	5
476.771	1	10
476.942	1	3
477.112	1	-4
477.282	1	-3
477.453	1	-3
477.623	1	1
477.793	1	10
477.964	1	-7
478.134	1	0
478.305	1	-3
478.475	1	7
478.645	1	6
478.816	1	0
478.986	1	4
479.156	1	3
479.327	1	-2
479.497	1	-4
479.667	1	3
479.838	1	-1
480.008	1	6
480.179	1	1
480.349	1	3
480.519	1	-15
480.690	1	-2
480.860	1	-2
481.030	1	16
481.201	1	6
481.371	1	8
481.541	1	-11
481.712	1	-3
481.882	1	0
482.053	1	0
482.223	1	6
482.393	1	8
482.564	1	10
482.734	1	-4
482.904	1	10
483.075	1	-3
483.245	1	2
483.415	1	-4
483.586	1	17
483.756	1	-3
483.926	1	-2
484.097	1	-6
484.267	1	7
484.437	1	7
484.608	1	6
484.778	1	6
484.948	1	-3
485.119	1	-6
485.289	1	9
485.459	1	18
485.630	1	-1
485.800	1	-3
485.970	1	10
486.141	1	9
486.311	1	-7
486.481	1	0
486.652	1	1
486.822	1	8
486.992	1	11
487.163	1	11
487.333	1	-8
487.503	1	7
487.674	1	0
487.844	1	6
488.014	1	2
488.185	1	-7
488.355	1	6
488.525	1	9
488.696	1	1
488.866	1	2
489.036	1	4
489.207	1	-5
489.377	1	-9
489.547	1	2
489.718	1	7
489.888	1	12
490.058	1	-10
490.228	1	0
490.399	1	-1
490.569	1	11
490.739	1	-6
490.910	1	11
491.080	1	-7
491.250	1	2
491.421	1	2
491.591	1	-2
491.761	1	1
491.932	1	10
492.102	1	8
492.272	1	-3
492.442	1	-5
492.613	1	-4
492.783	1	6
492.953	1	2
493.124	1	2
493.294	1	-3
493.464	1	12
493.635	1	3
493.805	1	4
493.975	1	-1
494.145	1	-9
494.316	1	4
494.486	1	2
494.656	1	-2
494.827	1	4
494.997	1	3
495.167	1	0
495.337	1	21
495.508	1	14
495.678	1	1
495.848	1	2
496.019	1	5
496.189	1	7
496.359	1	-1
496.529	1	2
496.700	1	-1
496.870	1	5
497.040	1	9
497.211	1	3
497.381	1	-6
497.551	1	-6
497.721	1	7
497.892	1	4
498.062	1	-5
498.232	1	5
498.403	1	4
498.573	1	13
498.743	1	-3
498.913	1	-3
499.084	1	-4
499.254	1	2
499.424	1	-5
499.594	1	1
499.765	1	7
499.935	1	-1
500.105	1	23
500.275	1	9
500.446	1	2
500.616	1	-8
500.786	1	4
500.956	1	-4
501.127	1	0
501.297	1	-11
501.467	1	2
501.638	1	11
501.808	1	2
501.978	1	9
502.148	1	10
502.319	1	3
502.489	1	5
502.659	1	3
502.829	1	9
503.000	1	-7
503.170	1	7
503.340	1	5
503.510	1	8
503.681	1	7
503.851	1	6
504.021	1	-5
504.191	1	-1
504.362	1	-14
504.532	1	3
504.702	1	17
504.872	1	9
505.042	1	8
505.213	1	-3
505.383	1	11
505.553	1	8
505.723	1	12
505.894	1	-2
506.064	1	-11
506.234	1	-5
506.404	1	6
506.575	1	-4
506.745	1	12
506.915	1	1
507.085	1	13
507.256	1	0
507.426	1	3
507.596	1	10
507.766	1	0
507.936	1	-4
508.107	1	6
508.277	1	6
508.447	1	13
508.617	1	2
508.788	1	8
508.958	1	0
509.128	1	7
509.298	1	-1
509.468	1	5
509.639	1	11
509.809	1	3
509.979	1	14
510.149	1	13
510.319	1	5
510.490	1	14
510.660	1	8
510.830	1	-3
511.000	1	4
511.171	1	6
511.341	1	15
511.511	1	7
511.681	1	6
511.851	1	16
512.022	1	-3
512.192	1	-2
512.362	1	16
512.532	1	15
512.702	1	4
512.873	1	1
513.043	1	4
513.213	1	12
513.383	1	0
513.553	1	13
513.724	1	9
513.894	1	10
514.064	1	6
514.234	1	3
514.404	1	14
514.575	1	9
514.745	1	6
514.915	1	1
515.085	1	11
515.255	1	0
515.425	1	8
515.596	1	12
515.766	1	9
515.936	1	10
516.106	1	3
516.276	1	9
516.447	1	4
516.617	1	11
516.787	1	-4
516.957	1	11
517.127	1	11
517.297	1	13
517.468	1	1
517.638	1	5
517.808	1	6
517.978	1	5
518.148	1	6
518.319	1	4
518.489	1	-1
518.659	1	2
518.829	1	2
518.999	1	5
519.169	1	3
519.340	1	4
519.510	1	-7
519.680	1	14
519.850	1	6
520.020	1	8
520.190	1	2
520.361	1	7
520.531	1	11
520.701	1	1
520.871	1	6
521.041	1	10
521.211	1	5
521.382	1	11
521.552	1	10
521.722	1	4
521.892	1	4
522.062	1	4
522.232	1	5
522.402	1	-2
522.573	1	7
522.743	1	1
522.913	1	9
523.083	1	6
523.253	1	4
523.423	1	13
523.593	1	10
523.764	1	6
523.934	1	-1
524.104	1	18
524.274	1	3
524.444	1	6
524.614	1	4
524.784	1	3
524.955	1	7
525.125	1	2
525.295	1	4
525.465	1	0
525.635	1	15
525.805	1	9
525.975	1	10
526.146	1	10
526.316	1	10
526.486	1	16
526.656	1	6
526.826	1	8
526.996	1	2
527.166	1	13
527.337	1	5
527.507	1	14
527.677	1	-1
527.847	1	11
528.017	1	-11
528.187	1	1
528.357	1	9
528.527	1	5
528.698	1	6
528.868	1	-1
529.038	1	26
529.208	1	0
529.378	1	2
529.548	1	19
529.718	1	0
529.888	1	2
530.058	1	4
530.229	1	12
530.399	1	12
530.569	1	7
530.739	1	2
530.909	1	5
531.079	1	29
531.249	1	3
531.419	1	8
531.589	1	5
531.760	1	-5
531.930	1	1
532.100	1	11
532.270	1	-1
532.440	1	2
532.610	1	9
532.780	1	-5
532.950	1	9
533.120	1	5
533.290	1	4
533.461	1	0
533.631	1	5
533.801	1	6
533.971	1	5
534.141	1	2
534.311	1	18
534.481	1	5
534.651	1	4
534.821	1	12
534.991	1	9
535.162	1	15
535.332	1	1
535.502	1	15
535.672	1	20
535.842	1	14
536.012	1	1
536.182	1	3
536.352	1	-6
536.522	1	4
536.692	1	11
536.862	1	-1
537.032	1	10
537.203	1	6
537.373	1	-6
537.543	1	3
537.713	1	5
537.883	1	19
538.053	1	5
538.223	1	10
538.393	1	4
538.563	1	15
538.733	1	-3
538.903	1	4
539.073	1	0
539.243	1	7
539.413	1	3
539.584	1	15
539.754	1	8
539.924	1	11
540.094	1	2
540.264	1	4
540.434	1	-1
540.604	1	3
540.774	1	0
540.944	1	3
541.114	1	3
541.284	1	-1
541.454	1	10
541.624	1	7
541.794	1	-8
541.964	1	9
542.134	1	-2
542.305	1	10
542.475	1	10
542.645	1	2
542.815	1	16
542.985	1	5
543.155	1	8
543.325	1	-5
543.495	1	2
543.665	1	-6
543.835	1	11
544.005	1	-9
544.175	1	-1
544.345	1	5
544.515	1	11
544.685	1	7
544.855	1	11
545.025	1	7
545.195	1	9
545.365	1	4
545.535	1	5
545.705	1	6
545.875	1	6
546.045	1	14
546.216	1	6
546.386	1	5
546.556	1	8
546.726	1	17
546.896	1	4
547.066	1	-5
547.236	1	4
547.406	1	10
547.576	1	4
547.746	1	0
547.916	1	9
548.086	1	15
548.256	1	11
548.426	1	5
548.596	1	2
548.766	1	2
548.936	1	-2
549.106	1	5
549.276	1	2
549.446	1	18
549.616	1	8
549.786	1	8
549.956	1	9
550.126	1	14
550.296	1	13
550.466	1	0
550.636	1	1
550.806	1	0
550.976	1	-2
551.146	1	8
551.316	1	6
551.486	1	23
551.656	1	9
551.826	1	6
551.996	1	1
552.166	1	0
552.336	1	1
552.506	1	3
552.676	1	10
552.846	1	5
553.016	1	17
553.186	1	6
553.356	1	14
553.526	1	10
553.696	1	7
553.866	1	-2
554.036	1	4
554.206	1	-5
554.376	1	14
554.546	1	-3
554.716	1	7
554.886	1	6
555.056	1	11
555.226	1	3
555.396	1	3
555.566	1	5
555.736	1	3
555.906	1	1
556.076	1	13
556.246	1	10
556.416	1	-5
556.586	1	12
556.756	1	12
556.926	1	6
557.096	1	14
557.266	1	10
557.436	1	9
557.606	1	1
557.776	1	0
557.946	1	-2
558.116	1	12
558.286	1	0
558.456	1	16
558.626	1	16
558.796	1	0
558.966	1	7
559.136	1	7
559.306	1	-5
559.476	1	13
559.646	1	0
559.816	1	6
559.986	1	-7
560.155	1	19
560.325	1	11
560.495	1	2
560.665	1	26
560.835	1	5
561.005	1	9
561.175	1	7
561.345	1	2
561.515	1	5
561.685	1	2
561.855	1	1
562.025	1	4
562.195	1	1
562.365	1	18
562.535	1	8
562.705	1	8
562.875	1	6
563.045	1	4
563.215	1	-1
563.385	1	-4
563.555	1	3
563.725	1	-2
563.895	1	5
564.064	1	7
564.234	1	-3
564.404	1	1
564.574	1	-1
564.744	1	-1
564.914	1	3
565.084	1	12
565.254	1	10
565.424	1	4
565.594	1	12
565.764	1	6
565.934	1	11
566.104	1	6
566.274	1	-7
566.444	1	8
566.614	1	-4
566.783	1	7
566.953	1	-2
567.123	1	2
567.293	1	-7
567.463	1	8
567.633	1	-2
567.803	1	0
567.973	1	7
568.143	1	5
568.313	1	-4
568.483	1	6
568.653	1	5
568.823	1	7
568.993	1	7
569.162	1	3
569.332	1	4
569.502	1	4
569.672	1	-6
569.842	1	0
570.012	1	9
570.182	1	-6
570.352	1	11
570.522	1	5
570.692	1	10
570.862	1	11
571.031	1	4
571.201	1	3
571.371	1	-3
571.541	1	5
571.711	1	8
571.881	1	8
572.051	1	-1
572.221	1	4
572.391	1	15
572.561	1	4
572.731	1	1
572.900	1	0
573.070	1	5
573.240	1	11
573.410	1	4
573.580	1	-6
573.750	1	3
573.920	1	4
574.090	1	2
574.260	1	2
574.430	1	0
574.599	1	4
574.769	1	8
574.939	1	10
575.109	1	-8
575.279	1	0
575.449	1	5
575.619	1	-6
575.789	1	2
575.959	1	-5
576.128	1	11
576.298	1	10
576.468	1	6
576.638	1	6
576.808	1	0
576.978	1	6
577.148	1	3
577.318	1	6
577.487	1	4
577.657	1	0
577.827	1	4
577.997	1	6
578.167	1	-1
578.337	1	3
578.507	1	-11
578.677	1	-9
578.846	1	12
579.016	1	5
579.186	1	2
579.356	1	1
579.526	1	8
579.696	1	10
579.866	1	-3
580.036	1	6
580.205	1	14
580.375	1	6
580.545	1	9
580.715	1	7
580.885	1	2
581.055	1	-4
581.225	1	3
581.394	1	5
581.564	1	11
581.734	1	1
581.904	1	1
582.074	1	12
582.244	1	6
582.414	1	-7
582.583	1	-1
582.753	1	-3
582.923	1	-2
583.093	1	7
583.263	1	7
583.433	1	3
583.603	1	13
583.772	1	6
583.942	1	0
584.112	1	-4
584.282	1	2
584.452	1	3
584.622	1	-5
584.791	1	-1
584.961	1	6
585.131	1	-1
585.301	1	-3
585.471	1	-6
585.641	1	3
585.811	1	1
585.980	1	4
586.150	1	2
586.320	1	8
586.490	1	-4
586.660	1	1
586.830	1	12
586.999	1	-1
587.169	1	-2
587.339	1	9
587.509	1	5
587.679	1	-2
587.849	1	2
588.018	1	-1
588.188	1	-5
588.358	1	3
588.528	1	3
588.698	1	-2
588.867	1	6
589.037	1	1
589.207	1	-5
589.377	1	-12
589.547	1	1
589.717	1	0
589.886	1	2
590.056	1	-1
590.226	1	4
590.396	1	13
590.566	1	2
590.735	1	11
590.905	1	-2
591.075	1	5
591.245	1	-5
591.415	1	4
591.585	1	2
591.754	1	11
591.924	1	3
592.094	1	-1
592.264	1	3
592.434	1	8
592.603	1	2
592.773	1	-1
592.943	1	7
593.113	1	-2
593.283	1	5
593.452	1	2
593.622	1	-1
593.792	1	10
593.962	1	5
594.132	1	5
594.301	1	8
594.471	1	14
594.641	1	-10
594.811	1	5
594.981	1	6
595.150	1	6
595.320	1	-2
595.490	1	-6
595.660	1	0
595.829	1	8
595.999	1	-1
596.169	1	-2
596.339	1	8
596.509	1	3
596.678	1	3
596.848	1	4
597.018	1	0
597.188	1	8
597.358	1	-2
597.527	1	1
597.697	1	3
597.867	1	17
598.037	1	6
598.206	1	4
598.376	1	4
598.546	1	1
598.716	1	-4
598.885	1	-2
599.055	1	3
599.225	1	-5
599.395	1	3
599.565	1	-6
599.734	1	6
599.904	1	-6
600.074	1	-2
600.244	1	4
600.413	1	-2
600.583	1	-1
600.753	1	5
600.923	1	11
601.092	1	8
601.262	1	2
601.432	1	11
601.602	1	4
601.771	1	2
601.941	1	10
602.111	1	3
602.281	1	-8
602.451	1	-7
602.620	1	-1
602.790	1	8
602.960	1	-4
603.130	1	2
603.299	1	7
603.469	1	2
603.639	1	1
603.809	1	0
603.978	1	-2
604.148	1	-1
604.318	1	1
604.487	1	-3
604.657	1	-1
604.827	1	-3
604.997	1	1
605.166	1	0
605.336	1	6
605.506	1	0
605.676	1	14
605.845	1	-4
606.015	1	9
606.185	1	-6
606.355	1	4
606.524	1	2
606.694	1	8
606.864	1	1
607.034	1	0
607.203	1	2
607.373	1	11
607.543	1	2
607.712	1	13
607.882	1	5
608.052	1	5
608.222	1	-2
608.391	1	0
608.561	1	6
608.731	1	0
608.901	1	13
609.070	1	-4
609.240	1	2
609.410	1	7
609.579	1	-2
609.749	1	1
609.919	1	8
610.089	1	-5
610.258	1	15
610.428	1	9
610.598	1	-3
610.767	1	1
610.937	1	6
611.107	1	-1
611.277	1	9
611.446	1	9
611.616	1	8
611.786	1	8
611.955	1	-4
612.125	1	4
612.295	1	9
612.465	1	6
612.634	1	1
612.804	1	3
612.974	1	5
613.143	1	-3
613.313	1	3
613.483	1	-4
613.652	1	-7
613.822	1	5
613.992	1	1
614.162	1	-2
614.331	1	0
614.501	1	-5
614.671	1	-1
614.840	1	7
615.010	1	1
615.180	1	2
615.349	1	15
615.519	1	4
615.689	1	-2
615.858	1	-4
616.028	1	5
616.198	1	9
616.368	1	5
616.537	1	1
616.707	1	-1
616.877	1	17
617.046	1	0
617.216	1	-7
617.386	1	-4
617.555	1	8
617.725	1	10
617.895	1	8
618.064	1	1
618.234	1	1
618.404	1	1
618.573	1	-2
618.743	1	18
618.913	1	4
619.082	1	6
619.252	1	-3
619.422	1	8
619.591	1	-2
619.761	1	-1
619.931	1	1
620.100	1	5
620.270	1	4
620.440	1	-3
620.609	1	4
620.779	1	-9
620.949	1	3
621.118	1	0
621.288	1	3
621.458	1	14
621.627	1	-5
621.797	1	9
621.967	1	-3
622.136	1	4
622.306	1	3
622.476	1	15
622.645	1	17
622.815	1	-1
622.985	1	9
623.154	1	-4
623.324	1	-7
623.494	1	-1
623.663	1	-10
623.833	1	-4
624.002	1	3
624.172	1	7
624.342	1	2
624.511	1	18
624.681	1	-4
624.851	1	2
625.020	1	0
625.190	1	1
625.360	1	1
625.529	1	4
625.699	1	7
625.869	1	4
626.038	1	-2
626.208	1	-4
626.377	1	4
626.547	1	9
626.717	1	9
626.886	1	5
627.056	1	9
627.226	1	-10
627.395	1	-9
627.565	1	-10
627.735	1	12
627.904	1	7
628.074	1	-3
628.243	1	-6
628.413	1	12
628.583	1	-5
628.752	1	5
628.922	1	1
629.091	1	2
629.261	1	1
629.431	1	-3
629.600	1	-1
629.770	1	1
629.940	1	10
630.109	1	6
630.279	1	-16
630.448	1	10
630.618	1	-1
630.788	1	-1
630.957	1	-10
631.127	1	-1
631.297	1	0
631.466	1	2
631.636	1	-9
631.805	1	0
631.975	1	3
632.145	1	-3
632.314	1	3
632.484	1	-1
632.653	1	0
632.823	1	-4
632.993	1	-2
633.162	1	9
633.332	1	5
633.501	1	-5
633.671	1	-4
633.841	1	17
634.010	1	-5
634.180	1	5
634.349	1	2
634.519	1	6
634.689	1	5
634.858	1	-4
635.028	1	-6
635.197	1	18
635.367	1	3
635.537	1	-2
635.706	1	-6
635.876	1	5
636.045	1	-14
636.215	1	9
636.384	1	0
636.554	1	1
636.724	1	-5
636.893	1	-10
637.063	1	0
637.232	1	-10
637.402	1	0
637.572	1	0
637.741	1	3
637.911	1	1
638.080	1	6
638.250	1	2
638.419	1	1
638.589	1	-14
638.759	1	-5
638.928	1	15
639.098	1	0
639.267	1	4
639.437	1	-2
639.606	1	5
639.776	1	3
639.946	1	2
640.115	1	4
640.285	1	-1
640.454	1	-1
640.624	1	-8
640.793	1	1
640.963	1	10
641.132	1	-2
641.302	1	19
641.472	1	0
641.641	1	8
641.811	1	-7
641.980	1	9
642.150	1	-7
642.319	1	-1
642.489	1	-6
642.659	1	0
642.828	1	5
642.998	1	1
643.167	1	6
643.337	1	3
643.506	1	-7
643.676	1	9
643.845	1	-4
644.015	1	4
644.184	1	8
644.354	1	-11
644.524	1	1
644.693	1	-6
644.863	1	8
645.032	1	-9
645.202	1	2
645.371	1	2
645.541	1	-7
645.710	1	7
645.880	1	-2
646.049	1	3
646.219	1	1
646.388	1	8
646.558	1	2
646.728	1	14
646.897	1	-1
647.067	1	0
647.236	1	7
647.406	1	-4
647.575	1	7
647.745	1	-3
647.914	1	-4
648.084	1	5
648.253	1	-10
648.423	1	0
648.592	1	0
648.762	1	-3
648.931	1	-6
649.101	1	12
649.270	1	-5
649.440	1	4
649.610	1	-7
649.779	1	2
649.949	1	-1
650.118	1	0
650.288	1	0
650.457	1	-4
650.627	1	5
650.796	1	10
650.966	1	10
651.135	1	-7
651.305	1	9
651.474	1	11
651.644	1	3
651.813	1	1
651.983	1	12
652.152	1	4
652.322	1	-1
652.491	1	5
652.661	1	-1
652.830	1	0
653.000	1	-1
653.169	1	4
653.339	1	8
653.508	1	8
653.678	1	4
653.847	1	-12
654.017	1	7
654.186	1	3
654.356	1	2
654.525	1	-5
654.695	1	-2
654.864	1	13
655.034	1	7
655.203	1	5
655.373	1	-3
655.542	1	-2
655.712	1	-6
655.881	1	5
656.051	1	-3
656.220	1	9
656.390	1	5
656.559	1	-1
656.729	1	-5
656.898	1	-9
657.068	1	12
657.237	1	13
657.406	1	2
657.576	1	1
657.745	1	-1
657.915	1	-3
658.084	1	-5
658.254	1	5
658.423	1	14
658.593	1	2
658.762	1	-2
658.932	1	-2
659.101	1	9
659.271	1	10
659.440	1	4
659.610	1	5
659.779	1	-4
659.949	1	6
660.118	1	-4
660.288	1	8
660.457	1	9
660.626	1	1
660.796	1	-7
660.965	1	-8
661.135	1	2
661.304	1	1
661.474	1	8
661.643	1	5
661.813	1	-5
661.982	1	0
662.152	1	11
662.321	1	2
662.491	1	3
662.660	1	8
662.829	1	-4
662.999	1	7
663.168	1	6
663.338	1	7
663.507	1	-1
663.677	1	5
663.846	1	4
664.016	1	0
664.185	1	-5
664.354	1	0
664.524	1	3
664.693	1	9
664.863	1	-3
665.032	1	14
665.202	1	5
665.371	1	-2
665.541	1	-4
665.710	1	-8
665.879	1	-11
666.049	1	11
666.218	1	4
666.388	1	5
666.557	1	4
666.727	1	0
666.896	1	6
667.065	1	13
667.235	1	-1
667.404	1	1
667.574	1	12
667.743	1	5
667.913	1	-5
668.082	1	8
668.251	1	-2
668.421	1	1
668.590	1	9
668.760	1	-13
668.929	1	4
669.099	1	-2
669.268	1	13
669.437	1	-5
669.607	1	2
669.776	1	2
669.946	1	9
670.115	1	-5
670.285	1	5
670.454	1	6
670.623	1	9
670.793	1	-13
670.962	1	-2
671.132	1	-2
671.301	1	0
671.470	1	9
671.640	1	-3
671.809	1	7
671.979	1	-4
672.148	1	-1
672.317	1	1
672.487	1	2
672.656	1	13
672.826	1	-4
672.995	1	0
673.164	1	1
673.334	1	8
673.503	1	5
673.673	1	1
673.842	1	-4
674.011	1	-12
674.181	1	-1
674.350	1	5
674.520	1	5
674.689	1	-5
674.858	1	-5
675.028	1	2
675.197	1	8
675.367	1	0
675.536	1	-5
675.705	1	12
675.875	1	2
676.044	1	-1
676.214	1	-2
676.383	1	-1
676.552	1	-10
676.722	1	7
676.891	1	7
677.060	1	-1
677.230	1	-1
677.399	1	-7
677.569	1	2
677.738	1	2
677.907	1	-5
678.077	1	-4
678.246	1	-3
678.416	1	5
678.585	1	15
678.754	1	-3
678.924	1	-8
679.093	1	-6
679.262	1	-4
679.432	1	5
679.601	1	-11
679.771	1	10
679.940	1	16
680.109	1	-2
680.279	1	3
680.448	1	6
680.617	1	-1
680.787	1	4
680.956	1	-2
681.125	1	-4
681.295	1	0
681.464	1	-8
681.634	1	13
681.803	1	2
681.972	1	1
682.142	1	-4
682.311	1	1
682.480	1	4
682.650	1	11
682.819	1	-7
682.988	1	-9
683.158	1	6
683.327	1	4
683.496	1	0
683.666	1	5
683.835	1	-5
684.004	1	-4
684.174	1	-4
684.343	1	2
684.512	1	0
684.682	1	-13
684.851	1	3
685.021	1	1
685.190	1	-4
685.359	1	1
685.529	1	5
685.698	1	-9
685.867	1	-10
686.037	1	-5
686.206	1	6
686.375	1	5
686.545	1	-3
686.714	1	-1
686.883	1	6
687.053	1	4
687.222	1	3
687.391	1	4
687.561	1	-6
687.730	1	-4
687.899	1	13
688.069	1	6
688.238	1	1
688.407	1	-5
688.577	1	19
688.746	1	-1
