340.368	1	-4
340.539	1	-4
340.710	1	4
340.881	1	-4
341.052	1	-5
341.223	1	-6
341.394	1	3
341.565	1	11
341.737	1	6
341.908	1	-15
342.079	1	4
342.250	1	-4
342.421	1	3
342.592	1	0
342.763	1	5
342.934	1	10
343.105	1	3
343.276	1	-2
343.447	1	7
343.618	1	-11
343.789	1	11
343.960	1	6
344.131	1	-4
344.302	1	-12
344.473	1	-10
344.644	1	-13
344.815	1	1
344.986	1	0
345.157	1	-1
345.328	1	7
345.499	1	4
345.670	1	-1
345.841	1	-5
346.012	1	-4
346.183	1	-2
346.354	1	7
346.526	1	-7
346.697	1	1
346.868	1	-6
347.039	1	3
347.210	1	0
347.381	1	-3
347.552	1	5
347.723	1	1
347.894	1	0
348.065	1	-11
348.236	1	4
348.407	1	-11
348.578	1	0
348.749	1	5
348.920	1	2
349.091	1	1
349.262	1	-5
349.433	1	-11
349.604	1	-3
349.775	1	4
349.946	1	0
350.117	1	6
350.288	1	-11
350.459	1	3
350.630	1	-2
350.801	1	3
350.972	1	4
351.143	1	-6
351.314	1	1
351.485	1	1
351.656	1	-2
351.827	1	-2
351.998	1	1
352.169	1	2
352.340	1	6
352.511	1	-2
352.682	1	7
352.853	1	-10
353.024	1	6
353.195	1	-4
353.366	1	6
353.537	1	1
353.708	1	10
353.879	1	5
354.050	1	5
354.221	1	1
354.392	1	0
354.563	1	0
354.734	1	2
354.905	1	6
355.076	1	-2
355.247	1	-3
355.418	1	-7
355.589	1	-3
355.760	1	-12
355.931	1	-2
356.102	1	5
356.273	1	6
356.444	1	8
356.615	1	-4
356.785	1	-5
356.956	1	-6
357.127	1	-5
357.298	1	8
357.469	1	-3
357.640	1	-6
357.811	1	1
357.982	1	-2
358.153	1	2
358.324	1	-14
358.495	1	5
358.666	1	-7
358.837	1	6
359.008	1	12
359.179	1	13
359.350	1	0
359.521	1	-2
359.692	1	-14
359.863	1	-1
360.034	1	4
360.205	1	-1
360.376	1	7
360.547	1	0
360.718	1	2
360.889	1	-1
361.060	1	5
361.231	1	8
361.401	1	-3
361.572	1	4
361.743	1	9
361.914	1	9
362.085	1	4
362.256	1	10
362.427	1	-1
362.598	1	-3
362.769	1	6
362.940	1	4
363.111	1	2
363.282	1	-4
363.453	1	1
363.624	1	0
363.795	1	-6
363.966	1	1
364.137	1	-4
364.308	1	8
364.478	1	1
364.649	1	-2
364.820	1	4
364.991	1	-2
365.162	1	-10
365.333	1	0
365.504	1	-5
365.675	1	-7
365.846	1	-7
366.017	1	0
366.188	1	14
366.359	1	1
366.530	1	-3
366.701	1	-9
366.871	1	-15
367.042	1	1
367.213	1	2
367.384	1	13
367.555	1	-7
367.726	1	-4
367.897	1	-5
368.068	1	-5
368.239	1	-4
368.410	1	18
368.581	1	-1
368.752	1	-4
368.923	1	5
369.093	1	4
369.264	1	4
369.435	1	3
369.606	1	3
369.777	1	-1
369.948	1	-2
370.119	1	1
370.290	1	4
370.461	1	-4
370.632	1	5
370.803	1	-8
370.973	1	-6
371.144	1	5
371.315	1	7
371.486	1	4
371.657	1	13
371.828	1	-9
371.999	1	5
372.170	1	2
372.341	1	2
372.512	1	-1
372.682	1	-4
372.853	1	2
373.024	1	-2
373.195	1	6
373.366	1	4
373.537	1	6
373.708	1	-4
373.879	1	-9
374.050	1	3
374.220	1	-1
374.391	1	5
374.562	1	6
374.733	1	1
374.904	1	-13
375.075	1	0
375.246	1	-1
375.417	1	-2
375.588	1	1
375.758	1	-4
375.929	1	-5
376.100	1	-2
376.271	1	-2
376.442	1	1
376.613	1	-5
376.784	1	-3
376.955	1	-1
377.125	1	4
377.296	1	-1
377.467	1	7
377.638	1	4
377.809	1	-5
377.980	1	1
378.151	1	3
378.321	1	1
378.492	1	-3
378.663	1	-7
378.834	1	-5
379.005	1	13
379.176	1	-1
379.347	1	-3
379.518	1	-4
379.688	1	1
379.859	1	-3
380.030	1	-2
380.201	1	-4
380.372	1	9
380.543	1	4
380.714	1	9
380.884	1	3
381.055	1	-4
381.226	1	-5
381.397	1	-4
381.568	1	2
381.739	1	2
381.910	1	-2
382.080	1	-7
382.251	1	4
382.422	1	-1
382.593	1	7
382.764	1	-1
382.935	1	-1
383.105	1	-11
383.276	1	-6
383.447	1	0
383.618	1	-4
383.789	1	8
383.960	1	-1
384.130	1	1
384.301	1	-2
384.472	1	-3
384.643	1	-5
384.814	1	-1
384.985	1	1
385.156	1	8
385.326	1	-10
385.497	1	-4
385.668	1	0
385.839	1	-15
386.010	1	5
386.180	1	0
386.351	1	-8
386.522	1	-1
386.693	1	0
386.864	1	5
387.035	1	5
387.205	1	7
387.376	1	3
387.547	1	0
387.718	1	1
387.889	1	-3
388.060	1	6
388.230	1	-1
388.401	1	-8
388.572	1	-1
388.743	1	-4
388.914	1	3
389.084	1	5
389.255	1	3
389.426	1	5
389.597	1	-12
389.768	1	-1
389.939	1	-8
390.109	1	-7
390.280	1	3
390.451	1	2
390.622	1	-1
390.793	1	-4
390.963	1	1
391.134	1	-1
391.305	1	-6
391.476	1	-10
391.647	1	-12
391.817	1	2
391.988	1	4
392.159	1	8
392.330	1	-4
392.501	1	-5
392.671	1	0
392.842	1	5
393.013	1	-3
393.184	1	0
393.355	1	-7
393.525	1	8
393.696	1	-2
393.867	1	2
394.038	1	-3
394.208	1	1
394.379	1	7
394.550	1	-10
394.721	1	0
394.892	1	-7
395.062	1	3
395.233	1	3
395.404	1	-6
395.575	1	9
395.746	1	12
395.916	1	9
396.087	1	-8
396.258	1	-6
396.429	1	-5
396.599	1	11
396.770	1	-2
396.941	1	-6
397.112	1	-3
397.283	1	5
397.453	1	-6
397.624	1	3
397.795	1	-10
397.966	1	0
398.136	1	-2
398.307	1	2
398.478	1	-3
398.649	1	2
398.819	1	-1
398.990	1	-3
399.161	1	-3
399.332	1	9
399.503	1	1
399.673	1	2
399.844	1	-14
400.015	1	-4
400.186	1	0
400.356	1	3
400.527	1	-5
400.698	1	-5
400.869	1	3
401.039	1	-2
401.210	1	-12
401.381	1	-2
401.552	1	0
401.722	1	-1
401.893	1	9
402.064	1	-10
402.235	1	0
402.405	1	-10
402.576	1	15
402.747	1	1
402.918	1	-7
403.088	1	-7
403.259	1	2
403.430	1	2
403.601	1	-8
403.771	1	-1
403.942	1	2
404.113	1	-10
404.284	1	3
404.454	1	0
404.625	1	11
404.796	1	-8
404.967	1	7
405.137	1	-4
405.308	1	0
405.479	1	-11
405.649	1	7
405.820	1	-2
405.991	1	1
406.162	1	-15
406.332	1	16
406.503	1	-2
406.674	1	11
406.845	1	-3
407.015	1	-5
407.186	1	2
407.357	1	-1
407.527	1	3
407.698	1	2
407.869	1	-2
408.040	1	-6
408.210	1	0
408.381	1	-1
408.552	1	1
408.722	1	-1
408.893	1	4
409.064	1	-1
409.235	1	-5
409.405	1	-4
409.576	1	7
409.747	1	-2
409.917	1	9
410.088	1	0
410.259	1	3
410.430	1	-11
410.600	1	0
410.771	1	6
410.942	1	2
411.112	1	-3
411.283	1	-5
411.454	1	2
411.625	1	-1
411.795	1	6
411.966	1	2
412.137	1	-6
412.307	1	-2
412.478	1	-4
412.649	1	12
412.819	1	8
412.990	1	-1
413.161	1	-5
413.332	1	0
413.502	1	-5
413.673	1	5
413.844	1	4
414.014	1	-3
414.185	1	2
414.356	1	4
414.526	1	-7
414.697	1	-5
414.868	1	-5
415.038	1	0
415.209	1	3
415.380	1	-10
415.550	1	-6
415.721	1	6
415.892	1	1
416.063	1	1
416.233	1	-4
416.404	1	-6
416.575	1	-7
416.745	1	8
416.916	1	-2
417.087	1	1
417.257	1	-7
417.428	1	7
417.599	1	0
417.769	1	-3
417.940	1	3
418.111	1	1
418.281	1	2
418.452	1	-2
418.623	1	6
418.793	1	3
418.964	1	-7
419.135	1	7
419.305	1	1
419.476	1	1
419.647	1	-2
419.817	1	-5
419.988	1	4
420.159	1	-1
420.329	1	8
420.500	1	4
420.671	1	5
420.841	1	0
421.012	1	-6
421.183	1	-5
421.353	1	3
421.524	1	8
421.695	1	-1
421.865	1	-1
422.036	1	-14
422.206	1	-7
422.377	1	3
422.548	1	-12
422.718	1	6
422.889	1	-3
423.060	1	11
423.230	1	0
423.401	1	0
423.572	1	-9
423.742	1	0
423.913	1	-4
424.084	1	-4
424.254	1	-3
424.425	1	1
424.595	1	-2
424.766	1	13
424.937	1	-7
425.107	1	-3
425.278	1	8
425.449	1	-2
425.619	1	0
425.790	1	-8
425.961	1	2
426.131	1	-6
426.302	1	-2
426.472	1	2
426.643	1	-7
426.814	1	-6
426.984	1	-1
427.155	1	9
427.326	1	4
427.496	1	-2
427.667	1	4
427.837	1	5
428.008	1	1
428.179	1	-3
428.349	1	7
428.520	1	5
428.691	1	0
428.861	1	-1
429.032	1	-2
429.202	1	-12
429.373	1	1
429.544	1	-7
429.714	1	-2
429.885	1	-2
430.055	1	10
430.226	1	-4
430.397	1	1
430.567	1	-7
430.738	1	10
430.909	1	-2
431.079	1	2
431.250	1	1
431.420	1	5
431.591	1	0
431.762	1	5
431.932	1	5
432.103	1	-12
432.273	1	-6
432.444	1	2
432.615	1	-8
432.785	1	-2
432.956	1	-7
433.126	1	11
433.297	1	-1
433.468	1	-4
433.638	1	-8
433.809	1	-2
433.979	1	-2
434.150	1	0
434.320	1	-7
434.491	1	1
434.662	1	-4
434.832	1	1
435.003	1	0
435.173	1	2
435.344	1	1
435.515	1	4
435.685	1	-7
435.856	1	-6
436.026	1	-2
436.197	1	-6
436.368	1	0
436.538	1	2
436.709	1	0
436.879	1	5
437.050	1	-2
437.220	1	3
437.391	1	8
437.562	1	-11
437.732	1	-14
437.903	1	-2
438.073	1	18
438.244	1	4
438.414	1	-4
438.585	1	4
438.756	1	-5
438.926	1	1
439.097	1	3
439.267	1	-2
439.438	1	-3
439.608	1	-12
439.779	1	0
439.949	1	6
440.120	1	2
440.291	1	-4
440.461	1	4
440.632	1	0
440.802	1	-11
440.973	1	3
441.143	1	-5
441.314	1	1
441.485	1	4
441.655	1	-2
441.826	1	0
441.996	1	-4
442.167	1	-11
442.337	1	8
442.508	1	-3
442.678	1	-2
442.849	1	-2
443.019	1	7
443.190	1	-2
443.361	1	2
443.531	1	6
443.702	1	0
443.872	1	7
444.043	1	2
444.213	1	-2
444.384	1	-4
444.554	1	-3
444.725	1	6
444.895	1	-7
445.066	1	-1
445.237	1	-14
445.407	1	-8
445.578	1	-5
445.748	1	-6
445.919	1	6
446.089	1	3
446.260	1	-5
446.430	1	5
446.601	1	2
446.771	1	4
446.942	1	-8
447.112	1	9
447.283	1	-2
447.453	1	3
447.624	1	-6
447.794	1	-5
447.965	1	-9
448.135	1	-3
448.306	1	2
448.477	1	-9
448.647	1	9
448.818	1	-3
448.988	1	-7
449.159	1	5
449.329	1	0
449.500	1	8
449.670	1	11
449.841	1	4
450.011	1	-1
450.182	1	-5
450.352	1	-6
450.523	1	-4
450.693	1	7
450.864	1	0
451.034	1	8
451.205	1	-7
451.375	1	1
451.546	1	-2
451.716	1	0
451.887	1	-3
452.057	1	-11
452.228	1	8
452.398	1	1
452.569	1	-7
452.739	1	4
452.910	1	3
453.080	1	-7
453.251	1	-7
453.421	1	1
453.592	1	-4
453.762	1	0
453.933	1	6
454.103	1	-8
454.274	1	-9
454.444	1	-1
454.615	1	9
454.785	1	-6
454.956	1	-4
455.126	1	-7
455.297	1	7
455.467	1	-4
455.638	1	2
455.808	1	4
455.979	1	2
456.149	1	-2
456.320	1	8
456.490	1	3
456.661	1	2
456.831	1	-2
457.001	1	-6
457.172	1	0
457.342	1	-1
457.513	1	-9
457.683	1	-3
457.854	1	-8
458.024	1	1
458.195	1	-8
458.365	1	0
458.536	1	-2
458.706	1	8
458.877	1	-11
459.047	1	5
459.218	1	-14
459.388	1	7
459.559	1	-1
459.729	1	-1
459.899	1	-1
460.070	1	4
460.240	1	-8
460.411	1	-16
460.581	1	-1
460.752	1	1
460.922	1	-5
461.093	1	-6
461.263	1	4
461.434	1	4
461.604	1	7
461.775	1	-6
461.945	1	6
462.115	1	6
462.286	1	0
462.456	1	-8
462.627	1	0
462.797	1	-13
462.968	1	2
463.138	1	-6
463.309	1	-4
463.479	1	9
463.649	1	6
463.820	1	-8
463.990	1	5
464.161	1	-2
464.331	1	-2
464.502	1	-4
464.672	1	-3
464.843	1	-5
465.013	1	-5
465.183	1	5
465.354	1	2
465.524	1	-5
465.695	1	-9
465.865	1	-6
466.036	1	5
466.206	1	-3
466.376	1	3
466.547	1	3
466.717	1	5
466.888	1	-1
467.058	1	-3
467.229	1	-8
467.399	1	-1
467.569	1	-5
467.740	1	0
467.910	1	5
468.081	1	4
468.251	1	5
468.422	1	9
468.592	1	11
468.762	1	-8
468.933	1	9
469.103	1	-7
469.274	1	-2
469.444	1	-12
469.614	1	1
469.785	1	6
469.955	1	-2
470.126	1	-1
470.296	1	1
470.467	1	-7
470.637	1	7
470.807	1	-10
470.978	1	-5
471.148	1	8
471.319	1	-1
471.489	1	2
471.659	1	2
471.830	1	-5
472.000	1	-2
472.171	1	3
472.341	1	-2
472.511	1	6
472.682	1	3
472.852	1	3
473.023	1	-7
473.193	1	-3
473.363	1	0
473.534	1	-5
473.704	1	-7
473.875	1	-3
474.045	1	-1
474.215	1	6
474.386	1	10
474.556	1	6
474.727	1	1
474.897	1	2
475.067	1	-7
475.238	1	1
475.408	1	4
475.578	1	-2
475.749	1	4
475.919	1	0
476.090	1	10
476.260	1	-2
476.430	1	-6
476.601	1	3
476.771	1	2
476.942	1	-5
477.112	1	-3
477.282	1	4
477.453	1	-5
477.623	1	-9
477.793	1	3
477.964	1	-8
478.134	1	1
478.305	1	0
478.475	1	1
478.645	1	1
478.816	1	0
478.986	1	2
479.156	1	-2
479.327	1	2
479.497	1	-1
479.667	1	-7
479.838	1	-6
480.008	1	3
480.179	1	1
480.349	1	-4
480.519	1	-8
480.690	1	-4
480.860	1	-3
481.030	1	8
481.201	1	5
481.371	1	10
481.541	1	-6
481.712	1	5
481.882	1	-7
482.053	1	8
482.223	1	-2
482.393	1	16
482.564	1	2
482.734	1	2
482.904	1	-3
483.075	1	-2
483.245	1	14
483.415	1	3
483.586	1	3
483.756	1	-13
483.926	1	0
484.097	1	5
484.267	1	4
484.437	1	5
484.608	1	-9
484.778	1	8
484.948	1	-8
485.119	1	-9
485.289	1	3
485.459	1	4
485.630	1	-5
485.800	1	-9
485.970	1	1
486.141	1	2
486.311	1	-1
486.481	1	0
486.652	1	2
486.822	1	-5
486.992	1	7
487.163	1	12
487.333	1	-9
487.503	1	4
487.674	1	8
487.844	1	10
488.014	1	12
488.185	1	-5
488.355	1	-2
488.525	1	10
488.696	1	-8
488.866	1	11
489.036	1	-3
489.207	1	-3
489.377	1	-2
489.547	1	-2
489.718	1	14
489.888	1	10
490.058	1	-12
490.228	1	-7
490.399	1	-9
490.569	1	10
490.739	1	7
490.910	1	-4
491.080	1	1
491.250	1	-7
491.421	1	-1
491.591	1	0
491.761	1	5
491.932	1	2
492.102	1	-4
492.272	1	1
492.442	1	-1
492.613	1	-3
492.783	1	-1
492.953	1	-5
493.124	1	4
493.294	1	-14
493.464	1	12
493.635	1	1
493.805	1	-3
493.975	1	-11
494.145	1	-7
494.316	1	5
494.486	1	0
494.656	1	-4
494.827	1	-13
494.997	1	10
495.167	1	8
495.337	1	23
495.508	1	5
495.678	1	-1
495.848	1	4
496.019	1	-8
496.189	1	0
496.359	1	-5
496.529	1	4
496.700	1	10
496.870	1	-5
497.040	1	-1
497.211	1	-3
497.381	1	1
497.551	1	0
497.721	1	-7
497.892	1	6
498.062	1	-13
498.232	1	7
498.403	1	-2
498.573	1	8
498.743	1	5
498.913	1	-9
499.084	1	-3
499.254	1	-10
499.424	1	-2
499.594	1	-6
499.765	1	-6
499.935	1	-6
500.105	1	15
500.275	1	6
500.446	1	2
500.616	1	-4
500.786	1	5
500.956	1	2
501.127	1	2
501.297	1	-5
501.467	1	2
501.638	1	12
501.808	1	-3
501.978	1	-1
502.148	1	5
502.319	1	-6
502.489	1	9
502.659	1	0
502.829	1	2
503.000	1	-8
503.170	1	4
503.340	1	6
503.510	1	0
503.681	1	-1
503.851	1	0
504.021	1	-4
504.191	1	-4
504.362	1	-8
504.532	1	6
504.702	1	3
504.872	1	6
505.042	1	2
505.213	1	-2
505.383	1	4
505.553	1	1
505.723	1	6
505.894	1	-5
506.064	1	-9
506.234	1	-12
506.404	1	-5
506.575	1	-3
506.745	1	9
506.915	1	15
507.085	1	6
507.256	1	-8
507.426	1	-6
507.596	1	-1
507.766	1	4
507.936	1	3
508.107	1	3
508.277	1	3
508.447	1	12
508.617	1	-4
508.788	1	8
508.958	1	-13
509.128	1	-6
509.298	1	-3
509.468	1	4
509.639	1	7
509.809	1	-3
509.979	1	9
510.149	1	0
510.319	1	-5
510.490	1	0
510.660	1	9
510.830	1	0
511.000	1	0
511.171	1	11
511.341	1	0
511.511	1	2
511.681	1	8
511.851	1	10
512.022	1	4
512.192	1	-5
512.362	1	3
512.532	1	0
512.702	1	-3
512.873	1	-8
513.043	1	4
513.213	1	17
513.383	1	1
513.553	1	13
513.724	1	1
513.894	1	-2
514.064	1	-9
514.234	1	-2
514.404	1	15
514.575	1	-6
514.745	1	-1
514.915	1	-10
515.085	1	10
515.255	1	7
515.425	1	0
515.596	1	4
515.766	1	-7
515.936	1	0
516.106	1	-1
516.276	1	-7
516.447	1	-1
516.617	1	7
516.787	1	-7
516.957	1	1
517.127	1	-3
517.297	1	9
517.468	1	2
517.638	1	5
517.808	1	-5
517.978	1	1
518.148	1	3
518.319	1	2
518.489	1	3
518.659	1	4
518.829	1	-5
518.999	1	-1
519.169	1	-5
519.340	1	9
519.510	1	-4
519.680	1	3
519.850	1	-2
520.020	1	6
520.190	1	-9
520.361	1	1
520.531	1	2
520.701	1	0
520.871	1	4
521.041	1	8
521.211	1	-5
521.382	1	3
521.552	1	12
521.722	1	4
521.892	1	-3
522.062	1	-3
522.232	1	-1
522.402	1	-12
522.573	1	5
522.743	1	-5
522.913	1	6
523.083	1	7
523.253	1	1
523.423	1	9
523.593	1	-1
523.764	1	5
523.934	1	-8
524.104	1	3
524.274	1	-7
524.444	1	0
524.614	1	2
524.784	1	-2
524.955	1	-1
525.125	1	-6
525.295	1	-10
525.465	1	3
525.635	1	4
525.805	1	9
525.975	1	1
526.146	1	0
526.316	1	0
526.486	1	6
526.656	1	4
526.826	1	6
526.996	1	-1
527.166	1	11
527.337	1	-8
527.507	1	2
527.677	1	-10
527.847	1	-2
528.017	1	3
528.187	1	-8
528.357	1	12
528.527	1	8
528.698	1	10
528.868	1	-4
529.038	1	11
529.208	1	-3
529.378	1	0
529.548	1	17
529.718	1	-14
529.888	1	0
530.058	1	0
530.229	1	11
530.399	1	9
530.569	1	3
530.739	1	-2
530.909	1	-9
531.079	1	7
531.249	1	-3
531.419	1	7
531.589	1	5
531.760	1	-5
531.930	1	5
532.100	1	0
532.270	1	-2
532.440	1	-8
532.610	1	-5
532.780	1	-8
532.950	1	8
533.120	1	6
533.290	1	-2
533.461	1	4
533.631	1	-2
533.801	1	3
533.971	1	-4
534.141	1	-2
534.311	1	0
534.481	1	-9
534.651	1	-8
534.821	1	3
534.991	1	3
535.162	1	-9
535.332	1	-7
535.502	1	10
535.672	1	15
535.842	1	1
536.012	1	-14
536.182	1	2
536.352	1	-8
536.522	1	2
536.692	1	4
536.862	1	5
537.032	1	-4
537.203	1	11
537.373	1	-8
537.543	1	4
537.713	1	-5
537.883	1	5
538.053	1	-6
538.223	1	1
538.393	1	5
538.563	1	0
538.733	1	-1
538.903	1	2
539.073	1	-8
539.243	1	7
539.413	1	-5
539.584	1	-1
539.754	1	-11
539.924	1	4
540.094	1	4
540.264	1	9
540.434	1	-3
540.604	1	-6
540.774	1	-1
540.944	1	-7
541.114	1	1
541.284	1	-4
541.454	1	1
541.624	1	-9
541.794	1	-9
541.964	1	8
542.134	1	-6
542.305	1	15
542.475	1	0
542.645	1	0
542.815	1	6
542.985	1	10
543.155	1	0
543.325	1	-1
543.495	1	0
543.665	1	-2
543.835	1	6
544.005	1	-6
544.175	1	-10
544.345	1	-10
544.515	1	3
544.685	1	11
544.855	1	-3
545.025	1	-4
545.195	1	0
545.365	1	-4
545.535	1	-2
545.705	1	6
545.875	1	-1
546.045	1	-6
546.216	1	-2
546.386	1	10
546.556	1	3
546.726	1	4
546.896	1	2
547.066	1	-8
547.236	1	5
547.406	1	-7
547.576	1	-6
547.746	1	3
547.916	1	6
548.086	1	13
548.256	1	3
548.426	1	1
548.596	1	-3
548.766	1	4
548.936	1	-3
549.106	1	-1
549.276	1	-2
549.446	1	11
549.616	1	5
549.786	1	4
549.956	1	3
550.126	1	9
550.296	1	5
550.466	1	-7
550.636	1	1
550.806	1	-2
550.976	1	-4
551.146	1	-4
551.316	1	10
551.486	1	9
551.656	1	3
551.826	1	-9
551.996	1	-6
552.166	1	-4
552.336	1	-2
552.506	1	-2
552.676	1	7
552.846	1	6
553.016	1	7
553.186	1	14
553.356	1	2
553.526	1	3
553.696	1	-6
553.866	1	-8
554.036	1	-2
554.206	1	-4
554.376	1	3
554.546	1	4
554.716	1	9
554.886	1	3
555.056	1	-6
555.226	1	5
555.396	1	-3
555.566	1	-3
555.736	1	-10
555.906	1	-5
556.076	1	15
556.246	1	-3
556.416	1	-6
556.586	1	5
556.756	1	12
556.926	1	3
557.096	1	-3
557.266	1	-4
557.436	1	1
557.606	1	-10
557.776	1	-10
557.946	1	3
558.116	1	6
558.286	1	9
558.456	1	7
558.626	1	2
558.796	1	0
558.966	1	-3
559.136	1	-2
559.306	1	2
559.476	1	7
559.646	1	3
559.816	1	12
559.986	1	-7
560.155	1	10
560.325	1	1
560.495	1	-8
560.665	1	18
560.835	1	0
561.005	1	2
561.175	1	7
561.345	1	8
561.515	1	-10
561.685	1	0
561.855	1	-6
562.025	1	6
562.195	1	-1
562.365	1	6
562.535	1	2
562.705	1	8
562.875	1	-1
563.045	1	-1
563.215	1	-4
563.385	1	-6
563.555	1	2
563.725	1	-5
563.895	1	3
564.064	1	6
564.234	1	-8
564.404	1	0
564.574	1	7
564.744	1	-1
564.914	1	-5
565.084	1	12
565.254	1	-2
565.424	1	5
565.594	1	7
565.764	1	3
565.934	1	4
566.104	1	1
566.274	1	5
566.444	1	-4
566.614	1	1
566.783	1	2
566.953	1	1
567.123	1	-3
567.293	1	-3
567.463	1	-15
567.633	1	3
567.803	1	-2
567.973	1	3
568.143	1	0
568.313	1	-2
568.483	1	-1
568.653	1	0
568.823	1	-2
568.993	1	6
569.162	1	9
569.332	1	11
569.502	1	-13
569.672	1	-3
569.842	1	-3
570.012	1	3
570.182	1	-9
570.352	1	7
570.522	1	9
570.692	1	9
570.862	1	5
571.031	1	-8
571.201	1	-1
571.371	1	-12
571.541	1	-5
571.711	1	11
571.881	1	-4
572.051	1	0
572.221	1	-1
572.391	1	12
572.561	1	-1
572.731	1	-2
572.900	1	-4
573.070	1	0
573.240	1	0
573.410	1	6
573.580	1	-3
573.750	1	3
573.920	1	3
574.090	1	1
574.260	1	5
574.430	1	-3
574.599	1	0
574.769	1	-2
574.939	1	-1
575.109	1	-14
575.279	1	-2
575.449	1	10
575.619	1	-6
575.789	1	12
575.959	1	-5
576.128	1	7
576.298	1	2
576.468	1	2
576.638	1	7
576.808	1	1
576.978	1	11
577.148	1	1
577.318	1	0
577.487	1	3
577.657	1	-4
577.827	1	-1
577.997	1	-16
578.167	1	-1
578.337	1	1
578.507	1	-10
578.677	1	-13
578.846	1	-1
579.016	1	6
579.186	1	-3
579.356	1	3
579.526	1	-2
579.696	1	5
579.866	1	-14
580.036	1	-8
580.205	1	11
580.375	1	-3
580.545	1	4
580.715	1	12
580.885	1	2
581.055	1	2
581.225	1	1
581.394	1	0
581.564	1	8
581.734	1	-7
581.904	1	1
582.074	1	5
582.244	1	-1
582.414	1	-5
582.583	1	-2
582.753	1	-8
582.923	1	-3
583.093	1	12
583.263	1	18
583.433	1	2
583.603	1	2
583.772	1	4
583.942	1	-2
584.112	1	-5
584.282	1	3
584.452	1	-10
584.622	1	-4
584.791	1	-3
584.961	1	3
585.131	1	-1
585.301	1	2
585.471	1	-8
585.641	1	-2
585.811	1	0
585.980	1	-1
586.150	1	-2
586.320	1	5
586.490	1	-3
586.660	1	-11
586.830	1	-2
586.999	1	-7
587.169	1	-8
587.339	1	-5
587.509	1	11
587.679	1	2
587.849	1	-5
588.018	1	-11
588.188	1	-2
588.358	1	2
588.528	1	7
588.698	1	-9
588.867	1	6
589.037	1	-10
589.207	1	-7
589.377	1	-8
589.547	1	7
589.717	1	-3
589.886	1	-3
590.056	1	-1
590.226	1	4
590.396	1	8
590.566	1	-6
590.735	1	-10
590.905	1	-1
591.075	1	-1
591.245	1	2
591.415	1	1
591.585	1	4
591.754	1	7
591.924	1	9
592.094	1	-5
592.264	1	-4
592.434	1	0
592.603	1	-5
592.773	1	-7
592.943	1	4
593.113	1	4
593.283	1	6
593.452	1	1
593.622	1	1
593.792	1	1
593.962	1	1
594.132	1	-8
594.301	1	1
594.471	1	7
594.641	1	-12
594.811	1	-5
594.981	1	-3
595.150	1	1
595.320	1	-7
595.490	1	8
595.660	1	-9
595.829	1	8
595.999	1	-3
596.169	1	-9
596.339	1	0
596.509	1	-1
596.678	1	4
596.848	1	0
597.018	1	10
597.188	1	10
597.358	1	-6
597.527	1	-7
597.697	1	-3
597.867	1	15
598.037	1	2
598.206	1	5
598.376	1	-11
598.546	1	-3
598.716	1	11
598.885	1	5
599.055	1	-8
599.225	1	0
599.395	1	4
599.565	1	-13
599.734	1	-7
599.904	1	-2
600.074	1	-9
600.244	1	4
600.413	1	2
600.583	1	3
600.753	1	6
600.923	1	1
601.092	1	3
601.262	1	3
601.432	1	9
601.602	1	-3
601.771	1	6
601.941	1	11
602.111	1	0
602.281	1	-6
602.451	1	-5
602.620	1	-2
602.790	1	8
602.960	1	-6
603.130	1	5
603.299	1	0
603.469	1	-2
603.639	1	2
603.809	1	-8
603.978	1	1
604.148	1	2
604.318	1	-1
604.487	1	3
604.657	1	-6
604.827	1	-3
604.997	1	6
605.166	1	-13
605.336	1	4
605.506	1	3
605.676	1	7
605.845	1	-16
606.015	1	4
606.185	1	-7
606.355	1	4
606.524	1	0
606.694	1	5
606.864	1	1
607.034	1	-3
607.203	1	9
607.373	1	10
607.543	1	7
607.712	1	11
607.882	1	-2
608.052	1	6
608.222	1	1
608.391	1	-4
608.561	1	6
608.731	1	0
608.901	1	1
609.070	1	3
609.240	1	4
609.410	1	9
609.579	1	-7
609.749	1	1
609.919	1	1
610.089	1	-6
610.258	1	11
610.428	1	7
610.598	1	-4
610.767	1	3
610.937	1	-12
611.107	1	5
611.277	1	1
611.446	1	-1
611.616	1	10
611.786	1	3
611.955	1	-9
612.125	1	11
612.295	1	5
612.465	1	-3
612.634	1	4
612.804	1	5
612.974	1	8
613.143	1	-7
613.313	1	-6
613.483	1	-6
613.652	1	0
613.822	1	0
613.992	1	4
614.162	1	-1
614.331	1	1
614.501	1	-13
614.671	1	-1
614.840	1	7
615.010	1	-4
615.180	1	-3
615.349	1	5
615.519	1	4
615.689	1	-10
615.858	1	3
616.028	1	-2
616.198	1	4
616.368	1	1
616.537	1	0
616.707	1	-5
616.877	1	12
617.046	1	-5
617.216	1	4
617.386	1	2
617.555	1	3
617.725	1	-2
617.895	1	0
618.064	1	-9
618.234	1	-6
618.404	1	2
618.573	1	1
618.743	1	4
618.913	1	-9
619.082	1	-1
619.252	1	1
619.422	1	1
619.591	1	-7
619.761	1	-7
619.931	1	3
620.100	1	6
620.270	1	5
620.440	1	0
620.609	1	2
620.779	1	-12
620.949	1	3
621.118	1	-3
621.288	1	5
621.458	1	4
621.627	1	-2
621.797	1	7
621.967	1	0
622.136	1	7
622.306	1	6
622.476	1	0
622.645	1	12
622.815	1	-14
622.985	1	-5
623.154	1	3
623.324	1	-3
623.494	1	8
623.663	1	-6
623.833	1	1
624.002	1	11
624.172	1	-4
624.342	1	1
624.511	1	-3
624.681	1	-5
624.851	1	-12
625.020	1	9
625.190	1	2
625.360	1	7
625.529	1	-2
625.699	1	1
625.869	1	7
626.038	1	-7
626.208	1	0
626.377	1	-2
626.547	1	-4
626.717	1	4
626.886	1	9
627.056	1	1
627.226	1	-8
627.395	1	-3
627.565	1	-10
627.735	1	7
627.904	1	-7
628.074	1	1
628.243	1	-7
628.413	1	8
628.583	1	-1
628.752	1	13
628.922	1	9
629.091	1	2
629.261	1	0
629.431	1	-3
629.600	1	-7
629.770	1	2
629.940	1	8
630.109	1	0
630.279	1	-11
630.448	1	4
630.618	1	-1
630.788	1	-8
630.957	1	-1
631.127	1	8
631.297	1	-5
631.466	1	-6
631.636	1	-7
631.805	1	-3
631.975	1	2
632.145	1	-7
632.314	1	2
632.484	1	-7
632.653	1	-4
632.823	1	-8
632.993	1	7
633.162	1	-7
633.332	1	5
633.501	1	-8
633.671	1	-1
633.841	1	12
634.010	1	5
634.180	1	2
634.349	1	-5
634.519	1	4
634.689	1	0
634.858	1	-1
635.028	1	-4
635.197	1	10
635.367	1	-5
635.537	1	6
635.706	1	-8
635.876	1	2
636.045	1	-10
636.215	1	-7
636.384	1	-1
636.554	1	-6
636.724	1	-6
636.893	1	-8
637.063	1	0
637.232	1	2
637.402	1	4
637.572	1	-6
637.741	1	1
637.911	1	1
638.080	1	-5
638.250	1	6
638.419	1	-1
638.589	1	-8
638.759	1	-3
638.928	1	3
639.098	1	-2
639.267	1	-4
639.437	1	5
639.606	1	9
639.776	1	6
639.946	1	-4
640.115	1	-10
640.285	1	-3
640.454	1	-1
640.624	1	-12
640.793	1	-2
640.963	1	0
641.132	1	-1
641.302	1	14
641.472	1	1
641.641	1	2
641.811	1	0
641.980	1	-2
642.150	1	-5
642.319	1	-5
642.489	1	-9
642.659	1	-4
642.828	1	-11
642.998	1	10
643.167	1	7
643.337	1	10
643.506	1	-13
643.676	1	0
643.845	1	-9
644.015	1	9
644.184	1	-1
644.354	1	-4
644.524	1	-2
644.693	1	2
644.863	1	2
645.032	1	-1
645.202	1	-2
645.371	1	-1
645.541	1	-7
645.710	1	3
645.880	1	-8
646.049	1	4
646.219	1	-8
646.388	1	9
646.558	1	2
646.728	1	9
646.897	1	-6
647.067	1	-2
647.236	1	0
647.406	1	-1
647.575	1	3
647.745	1	-1
647.914	1	2
648.084	1	-3
648.253	1	-15
648.423	1	6
648.592	1	0
648.762	1	-1
648.931	1	1
649.101	1	3
649.270	1	-8
649.440	1	1
649.610	1	3
649.779	1	10
649.949	1	3
650.118	1	-2
650.288	1	-2
650.457	1	-6
650.627	1	6
650.796	1	9
650.966	1	10
651.135	1	-14
651.305	1	3
651.474	1	3
651.644	1	3
651.813	1	1
651.983	1	14
652.152	1	3
652.322	1	-1
652.491	1	0
652.661	1	-6
652.830	1	-1
653.000	1	-3
653.169	1	5
653.339	1	5
653.508	1	-1
653.678	1	-2
653.847	1	-12
654.017	1	17
654.186	1	16
654.356	1	4
654.525	1	-2
654.695	1	3
654.864	1	1
655.034	1	1
655.203	1	-3
655.373	1	-3
655.542	1	-5
655.712	1	3
655.881	1	11
656.051	1	-5
656.220	1	0
656.390	1	5
656.559	1	1
656.729	1	-11
656.898	1	-2
657.068	1	7
657.237	1	2
657.406	1	3
657.576	1	0
657.745	1	3
657.915	1	-8
658.084	1	2
658.254	1	1
658.423	1	14
658.593	1	-7
658.762	1	-4
658.932	1	-9
659.101	1	0
659.271	1	2
659.440	1	6
659.610	1	2
659.779	1	-15
659.949	1	-5
660.118	1	0
660.288	1	10
660.457	1	13
660.626	1	1
660.796	1	-3
660.965	1	-12
661.135	1	0
661.304	1	12
661.474	1	6
661.643	1	0
661.813	1	-11
661.982	1	-2
662.152	1	-1
662.321	1	11
662.491	1	-2
662.660	1	3
662.829	1	-14
662.999	1	6
663.168	1	-4
663.338	1	6
663.507	1	9
663.677	1	4
663.846	1	13
664.016	1	-7
664.185	1	2
664.354	1	0
664.524	1	-4
664.693	1	0
664.863	1	-3
665.032	1	5
665.202	1	4
665.371	1	-1
665.541	1	-9
665.710	1	2
665.879	1	-4
666.049	1	-1
666.218	1	-5
666.388	1	-1
666.557	1	-1
666.727	1	-3
666.896	1	0
667.065	1	13
667.235	1	-1
667.404	1	2
667.574	1	7
667.743	1	1
667.913	1	0
668.082	1	4
668.251	1	-3
668.421	1	0
668.590	1	5
668.760	1	-10
668.929	1	9
669.099	1	-1
669.268	1	8
669.437	1	2
669.607	1	-10
669.776	1	-2
669.946	1	9
670.115	1	-11
670.285	1	0
670.454	1	12
670.623	1	-4
670.793	1	-2
670.962	1	7
671.132	1	2
671.301	1	7
671.470	1	1
671.640	1	-1
671.809	1	-5
671.979	1	-11
672.148	1	-8
672.317	1	-3
672.487	1	10
672.656	1	4
672.826	1	0
672.995	1	-2
673.164	1	4
673.334	1	3
673.503	1	-3
673.673	1	9
673.842	1	-4
674.011	1	0
674.181	1	6
674.350	1	-1
674.520	1	-1
674.689	1	-8
674.858	1	3
675.028	1	-1
675.197	1	-2
675.367	1	2
675.536	1	-4
675.705	1	3
675.875	1	-4
676.044	1	1
676.214	1	-7
676.383	1	-7
676.552	1	-9
676.722	1	-8
676.891	1	4
677.060	1	1
677.230	1	-5
677.399	1	7
677.569	1	6
677.738	1	3
677.907	1	-5
678.077	1	-3
678.246	1	-9
678.416	1	5
678.585	1	8
678.754	1	5
678.924	1	-5
679.093	1	-2
679.262	1	-1
679.432	1	10
679.601	1	-10
679.771	1	7
679.940	1	1
680.109	1	-3
680.279	1	13
680.448	1	2
680.617	1	4
680.787	1	4
680.956	1	-12
681.125	1	-4
681.295	1	-3
681.464	1	-6
681.634	1	6
681.803	1	2
681.972	1	1
682.142	1	1
682.311	1	0
682.480	1	-1
682.650	1	2
682.819	1	-5
682.988	1	-8
683.158	1	-5
683.327	1	6
683.496	1	0
683.666	1	6
683.835	1	-4
684.004	1	0
684.174	1	1
684.343	1	-3
684.512	1	-6
684.682	1	-7
684.851	1	1
685.021	1	2
685.190	1	-7
685.359	1	1
685.529	1	1
685.698	1	-2
685.867	1	-4
686.037	1	-2
686.206	1	-2
686.375	1	-1
686.545	1	7
686.714	1	5
686.883	1	6
687.053	1	-6
687.222	1	4
687.391	1	3
687.561	1	-7
687.730	1	-7
687.899	1	8
688.069	1	3
688.238	1	0
688.407	1	2
688.577	1	10
688.746	1	3
