340.368	1	-1
340.539	1	-1
340.710	1	11
340.881	1	6
341.052	1	6
341.223	1	9
341.394	1	6
341.565	1	6
341.737	1	8
341.908	1	2
342.079	1	12
342.250	1	3
342.421	1	16
342.592	1	7
342.763	1	8
342.934	1	8
343.105	1	14
343.276	1	4
343.447	1	1
343.618	1	-1
343.789	1	13
343.960	1	3
344.131	1	5
344.302	1	2
344.473	1	-1
344.644	1	-5
344.815	1	10
344.986	1	13
345.157	1	-7
345.328	1	3
345.499	1	8
345.670	1	0
345.841	1	5
346.012	1	6
346.183	1	7
346.354	1	16
346.526	1	10
346.697	1	11
346.868	1	10
347.039	1	10
347.210	1	4
347.381	1	4
347.552	1	21
347.723	1	2
347.894	1	4
348.065	1	2
348.236	1	19
348.407	1	8
348.578	1	11
348.749	1	7
348.920	1	7
349.091	1	2
349.262	1	4
349.433	1	7
349.604	1	4
349.775	1	11
349.946	1	14
350.117	1	14
350.288	1	-2
350.459	1	11
350.630	1	6
350.801	1	6
350.972	1	23
351.143	1	5
351.314	1	23
351.485	1	3
351.656	1	8
351.827	1	12
351.998	1	18
352.169	1	10
352.340	1	10
352.511	1	4
352.682	1	13
352.853	1	9
353.024	1	17
353.195	1	10
353.366	1	16
353.537	1	14
353.708	1	28
353.879	1	16
354.050	1	7
354.221	1	15
354.392	1	22
354.563	1	12
354.734	1	32
354.905	1	18
355.076	1	23
355.247	1	22
355.418	1	13
355.589	1	17
355.760	1	25
355.931	1	16
356.102	1	26
356.273	1	30
356.444	1	27
356.615	1	26
356.785	1	24
356.956	1	35
357.127	1	31
357.298	1	36
357.469	1	36
357.640	1	31
357.811	1	28
357.982	1	26
358.153	1	41
358.324	1	36
358.495	1	48
358.666	1	35
358.837	1	49
359.008	1	48
359.179	1	54
359.350	1	49
359.521	1	49
359.692	1	46
359.863	1	48
360.034	1	60
360.205	1	60
360.376	1	67
360.547	1	64
360.718	1	67
360.889	1	72
361.060	1	82
361.231	1	79
361.401	1	85
361.572	1	88
361.743	1	84
361.914	1	94
362.085	1	102
362.256	1	93
362.427	1	108
362.598	1	114
362.769	1	117
362.940	1	114
363.111	1	129
363.282	1	129
363.453	1	131
363.624	1	152
363.795	1	151
363.966	1	172
364.137	1	165
364.308	1	191
364.478	1	190
364.649	1	181
364.820	1	199
364.991	1	223
365.162	1	210
365.333	1	235
365.504	1	232
365.675	1	253
365.846	1	257
366.017	1	278
366.188	1	285
366.359	1	285
366.530	1	296
366.701	1	285
366.871	1	323
367.042	1	324
367.213	1	318
367.384	1	351
367.555	1	337
367.726	1	346
367.897	1	337
368.068	1	335
368.239	1	342
368.410	1	360
368.581	1	348
368.752	1	356
368.923	1	346
369.093	1	332
369.264	1	330
369.435	1	321
369.606	1	330
369.777	1	319
369.948	1	308
370.119	1	291
370.290	1	285
370.461	1	294
370.632	1	274
370.803	1	275
370.973	1	262
371.144	1	254
371.315	1	246
371.486	1	248
371.657	1	236
371.828	1	218
371.999	1	224
372.170	1	215
372.341	1	218
372.512	1	218
372.682	1	187
372.853	1	207
373.024	1	200
373.195	1	198
373.366	1	175
373.537	1	189
373.708	1	191
373.879	1	173
374.050	1	169
374.220	1	167
374.391	1	174
374.562	1	174
374.733	1	150
374.904	1	149
375.075	1	149
375.246	1	152
375.417	1	146
375.588	1	141
375.758	1	128
375.929	1	122
376.100	1	131
376.271	1	127
376.442	1	117
376.613	1	118
376.784	1	113
376.955	1	106
377.125	1	113
377.296	1	123
377.467	1	115
377.638	1	107
377.809	1	96
377.980	1	98
378.151	1	92
378.321	1	90
378.492	1	88
378.663	1	99
378.834	1	81
379.005	1	104
379.176	1	88
379.347	1	81
379.518	1	95
379.688	1	83
379.859	1	85
380.030	1	82
380.201	1	90
380.372	1	84
380.543	1	82
380.714	1	90
380.884	1	75
381.055	1	76
381.226	1	87
381.397	1	74
381.568	1	87
381.739	1	83
381.910	1	92
382.080	1	66
382.251	1	91
382.422	1	79
382.593	1	88
382.764	1	84
382.935	1	89
383.105	1	82
383.276	1	90
383.447	1	86
383.618	1	87
383.789	1	91
383.960	1	93
384.130	1	105
384.301	1	80
384.472	1	85
384.643	1	91
384.814	1	93
384.985	1	93
385.156	1	99
385.326	1	88
385.497	1	87
385.668	1	100
385.839	1	95
386.010	1	108
386.180	1	101
386.351	1	93
386.522	1	104
386.693	1	91
386.864	1	78
387.035	1	100
387.205	1	99
387.376	1	90
387.547	1	95
387.718	1	84
387.889	1	90
388.060	1	82
388.230	1	88
388.401	1	78
388.572	1	80
388.743	1	75
388.914	1	86
389.084	1	71
389.255	1	85
389.426	1	72
389.597	1	56
389.768	1	85
389.939	1	72
390.109	1	66
390.280	1	74
390.451	1	76
390.622	1	69
390.793	1	63
390.963	1	75
391.134	1	74
391.305	1	62
391.476	1	76
391.647	1	77
391.817	1	67
391.988	1	76
392.159	1	72
392.330	1	57
392.501	1	70
392.671	1	63
392.842	1	60
393.013	1	72
393.184	1	61
393.355	1	57
393.525	1	71
393.696	1	68
393.867	1	74
394.038	1	65
394.208	1	78
394.379	1	66
394.550	1	67
394.721	1	66
394.892	1	58
395.062	1	62
395.233	1	71
395.404	1	66
395.575	1	70
395.746	1	69
395.916	1	63
396.087	1	65
396.258	1	72
396.429	1	59
396.599	1	60
396.770	1	59
396.941	1	56
397.112	1	70
397.283	1	62
397.453	1	59
397.624	1	63
397.795	1	70
397.966	1	72
398.136	1	57
398.307	1	61
398.478	1	55
398.649	1	67
398.819	1	58
398.990	1	55
399.161	1	56
399.332	1	53
399.503	1	64
399.673	1	53
399.844	1	46
400.015	1	62
400.186	1	62
400.356	1	49
400.527	1	65
400.698	1	48
400.869	1	62
401.039	1	55
401.210	1	44
401.381	1	55
401.552	1	55
401.722	1	41
401.893	1	49
402.064	1	41
402.235	1	51
402.405	1	43
402.576	1	53
402.747	1	49
402.918	1	33
403.088	1	30
403.259	1	45
403.430	1	52
403.601	1	38
403.771	1	37
403.942	1	42
404.113	1	40
404.284	1	52
404.454	1	36
404.625	1	41
404.796	1	32
404.967	1	44
405.137	1	48
405.308	1	49
405.479	1	38
405.649	1	41
405.820	1	27
405.991	1	48
406.162	1	36
406.332	1	40
406.503	1	43
406.674	1	53
406.845	1	46
407.015	1	47
407.186	1	44
407.357	1	32
407.527	1	37
407.698	1	41
407.869	1	33
408.040	1	28
408.210	1	40
408.381	1	49
408.552	1	45
408.722	1	35
408.893	1	38
409.064	1	34
409.235	1	40
409.405	1	44
409.576	1	35
409.747	1	24
409.917	1	39
410.088	1	34
410.259	1	35
410.430	1	33
410.600	1	27
410.771	1	51
410.942	1	41
411.112	1	40
411.283	1	35
411.454	1	23
411.625	1	39
411.795	1	39
411.966	1	26
412.137	1	42
412.307	1	39
412.478	1	28
412.649	1	40
412.819	1	34
412.990	1	27
413.161	1	27
413.332	1	31
413.502	1	32
413.673	1	30
413.844	1	29
414.014	1	43
414.185	1	27
414.356	1	43
414.526	1	26
414.697	1	37
414.868	1	18
415.038	1	26
415.209	1	23
415.380	1	28
415.550	1	12
415.721	1	40
415.892	1	25
416.063	1	26
416.233	1	20
416.404	1	21
416.575	1	28
416.745	1	23
416.916	1	29
417.087	1	26
417.257	1	19
417.428	1	35
417.599	1	6
417.769	1	23
417.940	1	33
418.111	1	27
418.281	1	15
418.452	1	25
418.623	1	27
418.793	1	25
418.964	1	16
419.135	1	29
419.305	1	17
419.476	1	32
419.647	1	22
419.817	1	19
419.988	1	23
420.159	1	3
420.329	1	24
420.500	1	21
420.671	1	26
420.841	1	20
421.012	1	28
421.183	1	25
421.353	1	24
421.524	1	17
421.695	1	27
421.865	1	14
422.036	1	1
422.206	1	21
422.377	1	12
422.548	1	18
422.718	1	20
422.889	1	25
423.060	1	19
423.230	1	22
423.401	1	10
423.572	1	12
423.742	1	23
423.913	1	14
424.084	1	7
424.254	1	16
424.425	1	7
424.595	1	18
424.766	1	22
424.937	1	6
425.107	1	14
425.278	1	20
425.449	1	6
425.619	1	19
425.790	1	20
425.961	1	11
426.131	1	6
426.302	1	29
426.472	1	18
426.643	1	15
426.814	1	13
426.984	1	18
427.155	1	20
427.326	1	7
427.496	1	9
427.667	1	24
427.837	1	24
428.008	1	24
428.179	1	15
428.349	1	17
428.520	1	13
428.691	1	18
428.861	1	5
429.032	1	14
429.202	1	9
429.373	1	21
429.544	1	10
429.714	1	12
429.885	1	12
430.055	1	28
430.226	1	11
430.397	1	19
430.567	1	14
430.738	1	14
430.909	1	8
431.079	1	10
431.250	1	20
431.420	1	17
431.591	1	18
431.762	1	12
431.932	1	16
432.103	1	17
432.273	1	5
432.444	1	2
432.615	1	3
432.785	1	13
432.956	1	9
433.126	1	24
433.297	1	17
433.468	1	3
433.638	1	7
433.809	1	7
433.979	1	-1
434.150	1	26
434.320	1	13
434.491	1	9
434.662	1	4
434.832	1	13
435.003	1	7
435.173	1	12
435.344	1	16
435.515	1	5
435.685	1	3
435.856	1	2
436.026	1	-2
436.197	1	12
436.368	1	11
436.538	1	20
436.709	1	11
436.879	1	15
437.050	1	14
437.220	1	21
437.391	1	11
437.562	1	6
437.732	1	3
437.903	1	3
438.073	1	17
438.244	1	17
438.414	1	0
438.585	1	6
438.756	1	12
438.926	1	15
439.097	1	21
439.267	1	18
439.438	1	7
439.608	1	2
439.779	1	8
439.949	1	13
440.120	1	2
440.291	1	7
440.461	1	8
440.632	1	5
440.802	1	5
440.973	1	8
441.143	1	4
441.314	1	8
441.485	1	5
441.655	1	6
441.826	1	7
441.996	1	-2
442.167	1	-2
442.337	1	7
442.508	1	17
442.678	1	4
442.849	1	11
443.019	1	3
443.190	1	4
443.361	1	14
443.531	1	8
443.702	1	1
443.872	1	9
444.043	1	4
444.213	1	0
444.384	1	5
444.554	1	8
444.725	1	1
444.895	1	14
445.066	1	9
445.237	1	-3
445.407	1	0
445.578	1	1
445.748	1	8
445.919	1	10
446.089	1	15
446.260	1	9
446.430	1	12
446.601	1	18
446.771	1	2
446.942	1	4
447.112	1	11
447.283	1	10
447.453	1	12
447.624	1	-1
447.794	1	4
447.965	1	3
448.135	1	4
448.306	1	11
448.477	1	12
448.647	1	13
448.818	1	2
448.988	1	12
449.159	1	10
449.329	1	2
449.500	1	13
449.670	1	10
449.841	1	9
450.011	1	-3
450.182	1	13
450.352	1	5
450.523	1	14
450.693	1	3
450.864	1	14
451.034	1	16
451.205	1	8
451.375	1	12
451.546	1	13
451.716	1	12
451.887	1	4
452.057	1	9
452.228	1	16
452.398	1	3
452.569	1	9
452.739	1	10
452.910	1	5
453.080	1	-2
453.251	1	2
453.421	1	7
453.592	1	1
453.762	1	10
453.933	1	15
454.103	1	8
454.274	1	-11
454.444	1	-6
454.615	1	11
454.785	1	7
454.956	1	0
455.126	1	8
455.297	1	4
455.467	1	4
455.638	1	7
455.808	1	2
455.979	1	12
456.149	1	1
456.320	1	10
456.490	1	15
456.661	1	-3
456.831	1	19
457.001	1	3
457.172	1	19
457.342	1	9
457.513	1	8
457.683	1	19
457.854	1	17
458.024	1	0
458.195	1	-4
458.365	1	3
458.536	1	10
458.706	1	21
458.877	1	5
459.047	1	20
459.218	1	0
459.388	1	17
459.559	1	3
459.729	1	7
459.899	1	1
460.070	1	2
460.240	1	-8
460.411	1	9
460.581	1	10
460.752	1	8
460.922	1	3
461.093	1	10
461.263	1	7
461.434	1	13
461.604	1	5
461.775	1	8
461.945	1	10
462.115	1	4
462.286	1	11
462.456	1	12
462.627	1	12
462.797	1	-3
462.968	1	-3
463.138	1	3
463.309	1	4
463.479	1	12
463.649	1	14
463.820	1	-9
463.990	1	0
464.161	1	1
464.331	1	-2
464.502	1	12
464.672	1	2
464.843	1	-1
465.013	1	-1
465.183	1	6
465.354	1	11
465.524	1	2
465.695	1	4
465.865	1	10
466.036	1	11
466.206	1	5
466.376	1	5
466.547	1	3
466.717	1	8
466.888	1	-1
467.058	1	7
467.229	1	5
467.399	1	10
467.569	1	6
467.740	1	4
467.910	1	10
468.081	1	15
468.251	1	15
468.422	1	10
468.592	1	12
468.762	1	1
468.933	1	13
469.103	1	7
469.274	1	1
469.444	1	5
469.614	1	1
469.785	1	9
469.955	1	10
470.126	1	11
470.296	1	4
470.467	1	4
470.637	1	10
470.807	1	8
470.978	1	2
471.148	1	10
471.319	1	10
471.489	1	4
471.659	1	-2
471.830	1	0
472.000	1	4
472.171	1	21
472.341	1	11
472.511	1	15
472.682	1	8
472.852	1	14
473.023	1	9
473.193	1	9
473.363	1	17
473.534	1	1
473.704	1	-5
473.875	1	8
474.045	1	14
474.215	1	18
474.386	1	20
474.556	1	12
474.727	1	16
474.897	1	7
475.067	1	6
475.238	1	14
475.408	1	17
475.578	1	8
475.749	1	8
475.919	1	12
476.090	1	28
476.260	1	4
476.430	1	8
476.601	1	23
476.771	1	21
476.942	1	10
477.112	1	0
477.282	1	16
477.453	1	15
477.623	1	6
477.793	1	17
477.964	1	8
478.134	1	13
478.305	1	14
478.475	1	13
478.645	1	6
478.816	1	15
478.986	1	13
479.156	1	20
479.327	1	8
479.497	1	9
479.667	1	18
479.838	1	18
480.008	1	10
480.179	1	19
480.349	1	16
480.519	1	4
480.690	1	11
480.860	1	3
481.030	1	13
481.201	1	17
481.371	1	19
481.541	1	3
481.712	1	20
481.882	1	10
482.053	1	29
482.223	1	10
482.393	1	29
482.564	1	21
482.734	1	25
482.904	1	24
483.075	1	15
483.245	1	18
483.415	1	9
483.586	1	21
483.756	1	9
483.926	1	21
484.097	1	13
484.267	1	31
484.437	1	18
484.608	1	32
484.778	1	30
484.948	1	21
485.119	1	25
485.289	1	13
485.459	1	35
485.630	1	26
485.800	1	18
485.970	1	37
486.141	1	20
486.311	1	19
486.481	1	29
486.652	1	21
486.822	1	22
486.992	1	32
487.163	1	37
487.333	1	17
487.503	1	34
487.674	1	35
487.844	1	29
488.014	1	33
488.185	1	27
488.355	1	31
488.525	1	33
488.696	1	28
488.866	1	38
489.036	1	29
489.207	1	37
489.377	1	32
489.547	1	45
489.718	1	37
489.888	1	33
490.058	1	19
490.228	1	32
490.399	1	35
490.569	1	45
490.739	1	34
490.910	1	38
491.080	1	32
491.250	1	38
491.421	1	36
491.591	1	40
491.761	1	41
491.932	1	45
492.102	1	50
492.272	1	36
492.442	1	49
492.613	1	38
492.783	1	46
492.953	1	48
493.124	1	53
493.294	1	47
493.464	1	53
493.635	1	50
493.805	1	50
493.975	1	52
494.145	1	42
494.316	1	47
494.486	1	61
494.656	1	50
494.827	1	41
494.997	1	50
495.167	1	46
495.337	1	51
495.508	1	53
495.678	1	47
495.848	1	54
496.019	1	46
496.189	1	59
496.359	1	54
496.529	1	49
496.700	1	62
496.870	1	55
497.040	1	56
497.211	1	50
497.381	1	54
497.551	1	47
497.721	1	61
497.892	1	64
498.062	1	36
498.232	1	63
498.403	1	65
498.573	1	65
498.743	1	60
498.913	1	56
499.084	1	63
499.254	1	62
499.424	1	59
499.594	1	65
499.765	1	58
499.935	1	69
500.105	1	81
500.275	1	65
500.446	1	69
500.616	1	56
500.786	1	68
500.956	1	70
501.127	1	66
501.297	1	56
501.467	1	65
501.638	1	78
501.808	1	69
501.978	1	68
502.148	1	76
502.319	1	77
502.489	1	79
502.659	1	81
502.829	1	84
503.000	1	70
503.170	1	82
503.340	1	74
503.510	1	84
503.681	1	88
503.851	1	69
504.021	1	82
504.191	1	77
504.362	1	72
504.532	1	82
504.702	1	87
504.872	1	96
505.042	1	91
505.213	1	84
505.383	1	95
505.553	1	88
505.723	1	87
505.894	1	95
506.064	1	92
506.234	1	100
506.404	1	83
506.575	1	92
506.745	1	111
506.915	1	102
507.085	1	106
507.256	1	95
507.426	1	99
507.596	1	98
507.766	1	109
507.936	1	101
508.107	1	109
508.277	1	109
508.447	1	114
508.617	1	106
508.788	1	109
508.958	1	95
509.128	1	110
509.298	1	105
509.468	1	108
509.639	1	114
509.809	1	114
509.979	1	126
510.149	1	109
510.319	1	106
510.490	1	105
510.660	1	121
510.830	1	113
511.000	1	106
511.171	1	120
511.341	1	112
511.511	1	107
511.681	1	105
511.851	1	120
512.022	1	106
512.192	1	114
512.362	1	124
512.532	1	117
512.702	1	120
512.873	1	117
513.043	1	116
513.213	1	109
513.383	1	114
513.553	1	125
513.724	1	113
513.894	1	124
514.064	1	125
514.234	1	125
514.404	1	123
514.575	1	117
514.745	1	113
514.915	1	102
515.085	1	113
515.255	1	118
515.425	1	134
515.596	1	128
515.766	1	129
515.936	1	127
516.106	1	139
516.276	1	123
516.447	1	128
516.617	1	120
516.787	1	121
516.957	1	124
517.127	1	127
517.297	1	144
517.468	1	130
517.638	1	125
517.808	1	126
517.978	1	133
518.148	1	139
518.319	1	139
518.489	1	136
518.659	1	149
518.829	1	143
518.999	1	140
519.169	1	134
519.340	1	148
519.510	1	131
519.680	1	151
519.850	1	130
520.020	1	150
520.190	1	138
520.361	1	131
520.531	1	151
520.701	1	129
520.871	1	141
521.041	1	157
521.211	1	121
521.382	1	152
521.552	1	150
521.722	1	151
521.892	1	149
522.062	1	154
522.232	1	128
522.402	1	134
522.573	1	149
522.743	1	141
522.913	1	156
523.083	1	151
523.253	1	134
523.423	1	145
523.593	1	152
523.764	1	145
523.934	1	131
524.104	1	142
524.274	1	140
524.444	1	135
524.614	1	147
524.784	1	148
524.955	1	135
525.125	1	136
525.295	1	144
525.465	1	149
525.635	1	161
525.805	1	139
525.975	1	140
526.146	1	142
526.316	1	159
526.486	1	154
526.656	1	146
526.826	1	141
526.996	1	145
527.166	1	156
527.337	1	134
527.507	1	143
527.677	1	154
527.847	1	140
528.017	1	132
528.187	1	142
528.357	1	154
528.527	1	149
528.698	1	149
528.868	1	168
529.038	1	159
529.208	1	143
529.378	1	140
529.548	1	156
529.718	1	140
529.888	1	152
530.058	1	152
530.229	1	160
530.399	1	141
530.569	1	157
530.739	1	164
530.909	1	154
531.079	1	155
531.249	1	149
531.419	1	149
531.589	1	157
531.760	1	135
531.930	1	149
532.100	1	158
532.270	1	148
532.440	1	135
532.610	1	146
532.780	1	140
532.950	1	149
533.120	1	159
533.290	1	136
533.461	1	182
533.631	1	166
533.801	1	154
533.971	1	168
534.141	1	140
534.311	1	165
534.481	1	152
534.651	1	155
534.821	1	144
534.991	1	146
535.162	1	137
535.332	1	152
535.502	1	161
535.672	1	157
535.842	1	157
536.012	1	139
536.182	1	156
536.352	1	146
536.522	1	143
536.692	1	140
536.862	1	155
537.032	1	163
537.203	1	159
537.373	1	144
537.543	1	150
537.713	1	153
537.883	1	141
538.053	1	132
538.223	1	149
538.393	1	154
538.563	1	164
538.733	1	135
538.903	1	144
539.073	1	159
539.243	1	148
539.413	1	138
539.584	1	145
539.754	1	127
539.924	1	133
540.094	1	133
540.264	1	139
540.434	1	138
540.604	1	138
540.774	1	136
540.944	1	124
541.114	1	140
541.284	1	132
541.454	1	132
541.624	1	122
541.794	1	122
541.964	1	127
542.134	1	131
542.305	1	138
542.475	1	131
542.645	1	119
542.815	1	123
542.985	1	146
543.155	1	139
543.325	1	128
543.495	1	121
543.665	1	127
543.835	1	130
544.005	1	129
544.175	1	108
544.345	1	128
544.515	1	139
544.685	1	134
544.855	1	119
545.025	1	116
545.195	1	107
545.365	1	112
545.535	1	117
545.705	1	138
545.875	1	125
546.045	1	123
546.216	1	122
546.386	1	131
546.556	1	114
546.726	1	124
546.896	1	114
547.066	1	118
547.236	1	129
547.406	1	119
547.576	1	124
547.746	1	123
547.916	1	126
548.086	1	132
548.256	1	127
548.426	1	133
548.596	1	117
548.766	1	130
548.936	1	120
549.106	1	127
549.276	1	123
549.446	1	123
549.616	1	128
549.786	1	118
549.956	1	122
550.126	1	125
550.296	1	124
550.466	1	119
550.636	1	125
550.806	1	130
550.976	1	103
551.146	1	117
551.316	1	118
551.486	1	125
551.656	1	123
551.826	1	119
551.996	1	114
552.166	1	118
552.336	1	114
552.506	1	116
552.676	1	125
552.846	1	125
553.016	1	113
553.186	1	126
553.356	1	125
553.526	1	125
553.696	1	105
553.866	1	114
554.036	1	121
554.206	1	97
554.376	1	114
554.546	1	119
554.716	1	114
554.886	1	118
555.056	1	109
555.226	1	109
555.396	1	119
555.566	1	104
555.736	1	99
555.906	1	111
556.076	1	111
556.246	1	110
556.416	1	106
556.586	1	123
556.756	1	121
556.926	1	114
557.096	1	101
557.266	1	107
557.436	1	105
557.606	1	98
557.776	1	94
557.946	1	112
558.116	1	111
558.286	1	101
558.456	1	106
558.626	1	108
558.796	1	94
558.966	1	98
559.136	1	94
559.306	1	97
559.476	1	111
559.646	1	89
559.816	1	91
559.986	1	110
560.155	1	111
560.325	1	96
560.495	1	102
560.665	1	100
560.835	1	96
561.005	1	92
561.175	1	94
561.345	1	92
561.515	1	87
561.685	1	93
561.855	1	74
562.025	1	95
562.195	1	97
562.365	1	87
562.535	1	95
562.705	1	106
562.875	1	101
563.045	1	96
563.215	1	84
563.385	1	74
563.555	1	84
563.725	1	79
563.895	1	84
564.064	1	78
564.234	1	81
564.404	1	81
564.574	1	78
564.744	1	72
564.914	1	74
565.084	1	95
565.254	1	80
565.424	1	85
565.594	1	86
565.764	1	79
565.934	1	83
566.104	1	77
566.274	1	83
566.444	1	80
566.614	1	74
566.783	1	75
566.953	1	72
567.123	1	76
567.293	1	69
567.463	1	70
567.633	1	80
567.803	1	76
567.973	1	75
568.143	1	73
568.313	1	74
568.483	1	86
568.653	1	69
568.823	1	73
568.993	1	71
569.162	1	74
569.332	1	72
569.502	1	66
569.672	1	66
569.842	1	69
570.012	1	79
570.182	1	77
570.352	1	66
570.522	1	75
570.692	1	66
570.862	1	72
571.031	1	75
571.201	1	68
571.371	1	70
571.541	1	62
571.711	1	74
571.881	1	72
572.051	1	65
572.221	1	73
572.391	1	68
572.561	1	62
572.731	1	71
572.900	1	64
573.070	1	65
573.240	1	63
573.410	1	68
573.580	1	63
573.750	1	60
573.920	1	48
574.090	1	66
574.260	1	57
574.430	1	56
574.599	1	71
574.769	1	75
574.939	1	75
575.109	1	47
575.279	1	54
575.449	1	59
575.619	1	56
575.789	1	58
575.959	1	51
576.128	1	72
576.298	1	64
576.468	1	59
576.638	1	57
576.808	1	54
576.978	1	61
577.148	1	45
577.318	1	60
577.487	1	46
577.657	1	50
577.827	1	62
577.997	1	49
578.167	1	45
578.337	1	54
578.507	1	46
578.677	1	34
578.846	1	56
579.016	1	52
579.186	1	46
579.356	1	56
579.526	1	41
579.696	1	63
579.866	1	43
580.036	1	44
580.205	1	63
580.375	1	44
580.545	1	47
580.715	1	45
580.885	1	54
581.055	1	49
581.225	1	55
581.394	1	50
581.564	1	58
581.734	1	47
581.904	1	44
582.074	1	42
582.244	1	46
582.414	1	35
582.583	1	41
582.753	1	37
582.923	1	45
583.093	1	55
583.263	1	58
583.433	1	45
583.603	1	52
583.772	1	40
583.942	1	44
584.112	1	45
584.282	1	46
584.452	1	47
584.622	1	35
584.791	1	45
584.961	1	48
585.131	1	33
585.301	1	42
585.471	1	27
585.641	1	42
585.811	1	47
585.980	1	41
586.150	1	44
586.320	1	46
586.490	1	42
586.660	1	35
586.830	1	47
586.999	1	36
587.169	1	40
587.339	1	38
587.509	1	46
587.679	1	33
587.849	1	41
588.018	1	36
588.188	1	38
588.358	1	39
588.528	1	42
588.698	1	33
588.867	1	41
589.037	1	41
589.207	1	38
589.377	1	29
589.547	1	49
589.717	1	35
589.886	1	42
590.056	1	41
590.226	1	49
590.396	1	40
590.566	1	25
590.735	1	34
590.905	1	36
591.075	1	42
591.245	1	28
591.415	1	37
591.585	1	38
591.754	1	51
591.924	1	40
592.094	1	34
592.264	1	41
592.434	1	43
592.603	1	31
592.773	1	33
592.943	1	40
593.113	1	43
593.283	1	37
593.452	1	47
593.622	1	23
593.792	1	38
593.962	1	33
594.132	1	43
594.301	1	46
594.471	1	44
594.641	1	18
594.811	1	39
594.981	1	40
595.150	1	37
595.320	1	28
595.490	1	30
595.660	1	32
595.829	1	39
595.999	1	39
596.169	1	26
596.339	1	35
596.509	1	30
596.678	1	27
596.848	1	35
597.018	1	38
597.188	1	35
597.358	1	24
597.527	1	30
597.697	1	31
597.867	1	45
598.037	1	32
598.206	1	30
598.376	1	29
598.546	1	29
598.716	1	43
598.885	1	27
599.055	1	33
599.225	1	18
599.395	1	36
599.565	1	24
599.734	1	24
599.904	1	15
600.074	1	22
600.244	1	25
600.413	1	29
600.583	1	24
600.753	1	17
600.923	1	37
601.092	1	23
601.262	1	15
601.432	1	33
601.602	1	17
601.771	1	20
601.941	1	30
602.111	1	27
602.281	1	24
602.451	1	21
602.620	1	31
602.790	1	34
602.960	1	26
603.130	1	25
603.299	1	28
603.469	1	19
603.639	1	29
603.809	1	21
603.978	1	17
604.148	1	26
604.318	1	29
604.487	1	21
604.657	1	25
604.827	1	27
604.997	1	20
605.166	1	24
605.336	1	31
605.506	1	23
605.676	1	40
605.845	1	18
606.015	1	27
606.185	1	25
606.355	1	36
606.524	1	34
606.694	1	29
606.864	1	20
607.034	1	27
607.203	1	28
607.373	1	27
607.543	1	26
607.712	1	32
607.882	1	29
608.052	1	35
608.222	1	22
608.391	1	21
608.561	1	29
608.731	1	24
608.901	1	18
609.070	1	24
609.240	1	30
609.410	1	22
609.579	1	22
609.749	1	30
609.919	1	22
610.089	1	22
610.258	1	40
610.428	1	22
610.598	1	15
610.767	1	21
610.937	1	21
611.107	1	25
611.277	1	24
611.446	1	23
611.616	1	33
611.786	1	28
611.955	1	6
612.125	1	18
612.295	1	22
612.465	1	28
612.634	1	23
612.804	1	18
612.974	1	22
613.143	1	16
613.313	1	23
613.483	1	16
613.652	1	23
613.822	1	11
613.992	1	25
614.162	1	17
614.331	1	21
614.501	1	3
614.671	1	13
614.840	1	33
615.010	1	13
615.180	1	23
615.349	1	29
615.519	1	28
615.689	1	13
615.858	1	24
616.028	1	23
616.198	1	15
616.368	1	29
616.537	1	18
616.707	1	11
616.877	1	28
617.046	1	18
617.216	1	24
617.386	1	25
617.555	1	13
617.725	1	24
617.895	1	29
618.064	1	6
618.234	1	28
618.404	1	18
618.573	1	17
618.743	1	30
618.913	1	20
619.082	1	22
619.252	1	20
619.422	1	27
619.591	1	12
619.761	1	12
619.931	1	31
620.100	1	25
620.270	1	18
620.440	1	12
620.609	1	24
620.779	1	11
620.949	1	12
621.118	1	6
621.288	1	23
621.458	1	27
621.627	1	6
621.797	1	26
621.967	1	16
622.136	1	24
622.306	1	12
622.476	1	17
622.645	1	23
622.815	1	1
622.985	1	13
623.154	1	17
623.324	1	9
623.494	1	29
623.663	1	4
623.833	1	11
624.002	1	15
624.172	1	24
624.342	1	14
624.511	1	16
624.681	1	12
624.851	1	7
625.020	1	14
625.190	1	32
625.360	1	21
625.529	1	15
625.699	1	20
625.869	1	12
626.038	1	8
626.208	1	14
626.377	1	22
626.547	1	14
626.717	1	11
626.886	1	17
627.056	1	15
627.226	1	4
627.395	1	6
627.565	1	16
627.735	1	20
627.904	1	12
628.074	1	12
628.243	1	6
628.413	1	22
628.583	1	8
628.752	1	11
628.922	1	15
629.091	1	23
629.261	1	3
629.431	1	19
629.600	1	8
629.770	1	16
629.940	1	19
630.109	1	14
630.279	1	5
630.448	1	18
630.618	1	14
630.788	1	14
630.957	1	7
631.127	1	20
631.297	1	8
631.466	1	9
631.636	1	5
631.805	1	10
631.975	1	11
632.145	1	1
632.314	1	11
632.484	1	9
632.653	1	3
632.823	1	17
632.993	1	21
633.162	1	16
633.332	1	19
633.501	1	10
633.671	1	15
633.841	1	28
634.010	1	20
634.180	1	14
634.349	1	10
634.519	1	5
634.689	1	23
634.858	1	13
635.028	1	13
635.197	1	26
635.367	1	17
635.537	1	11
635.706	1	9
635.876	1	19
636.045	1	5
636.215	1	13
636.384	1	5
636.554	1	13
636.724	1	14
636.893	1	8
637.063	1	10
637.232	1	5
637.402	1	9
637.572	1	7
637.741	1	8
637.911	1	13
638.080	1	17
638.250	1	14
638.419	1	18
638.589	1	2
638.759	1	6
638.928	1	12
639.098	1	13
639.267	1	10
639.437	1	14
639.606	1	16
639.776	1	8
639.946	1	6
640.115	1	17
640.285	1	8
640.454	1	9
640.624	1	-1
640.793	1	19
640.963	1	14
641.132	1	9
641.302	1	25
641.472	1	20
641.641	1	13
641.811	1	21
641.980	1	10
642.150	1	5
642.319	1	11
642.489	1	2
642.659	1	11
642.828	1	11
642.998	1	11
643.167	1	9
643.337	1	20
643.506	1	-3
643.676	1	9
643.845	1	-2
644.015	1	9
644.184	1	18
644.354	1	2
644.524	1	11
644.693	1	7
644.863	1	13
645.032	1	22
645.202	1	1
645.371	1	12
645.541	1	2
645.710	1	8
645.880	1	13
646.049	1	16
646.219	1	10
646.388	1	23
646.558	1	5
646.728	1	22
646.897	1	0
647.067	1	12
647.236	1	9
647.406	1	7
647.575	1	20
647.745	1	6
647.914	1	-1
648.084	1	13
648.253	1	5
648.423	1	12
648.592	1	4
648.762	1	10
648.931	1	5
649.101	1	16
649.270	1	1
649.440	1	12
649.610	1	7
649.779	1	22
649.949	1	12
650.118	1	13
650.288	1	10
650.457	1	7
650.627	1	16
650.796	1	15
650.966	1	14
651.135	1	-1
651.305	1	18
651.474	1	19
651.644	1	12
651.813	1	9
651.983	1	20
652.152	1	3
652.322	1	6
652.491	1	13
652.661	1	13
652.830	1	0
653.000	1	7
653.169	1	15
653.339	1	10
653.508	1	19
653.678	1	4
653.847	1	8
654.017	1	14
654.186	1	10
654.356	1	14
654.525	1	3
654.695	1	14
654.864	1	21
655.034	1	25
655.203	1	10
655.373	1	9
655.542	1	7
655.712	1	7
655.881	1	13
656.051	1	3
656.220	1	16
656.390	1	16
656.559	1	14
656.729	1	5
656.898	1	6
657.068	1	23
657.237	1	18
657.406	1	7
657.576	1	14
657.745	1	4
657.915	1	13
658.084	1	12
658.254	1	16
658.423	1	26
658.593	1	9
658.762	1	13
658.932	1	8
659.101	1	10
659.271	1	10
659.440	1	18
659.610	1	19
659.779	1	6
659.949	1	5
660.118	1	9
660.288	1	19
660.457	1	15
660.626	1	0
660.796	1	7
660.965	1	0
661.135	1	2
661.304	1	21
661.474	1	12
661.643	1	22
661.813	1	8
661.982	1	10
662.152	1	5
662.321	1	14
662.491	1	16
662.660	1	17
662.829	1	1
662.999	1	14
663.168	1	10
663.338	1	15
663.507	1	8
663.677	1	13
663.846	1	17
664.016	1	9
664.185	1	16
664.354	1	5
664.524	1	18
664.693	1	1
664.863	1	4
665.032	1	12
665.202	1	11
665.371	1	8
665.541	1	-5
665.710	1	10
665.879	1	3
666.049	1	7
666.218	1	10
666.388	1	9
666.557	1	8
666.727	1	7
666.896	1	3
667.065	1	5
667.235	1	1
667.404	1	6
667.574	1	10
667.743	1	13
667.913	1	11
668.082	1	18
668.251	1	11
668.421	1	9
668.590	1	19
668.760	1	-3
668.929	1	10
669.099	1	4
669.268	1	15
669.437	1	2
669.607	1	9
669.776	1	4
669.946	1	24
670.115	1	10
670.285	1	9
670.454	1	17
670.623	1	3
670.793	1	2
670.962	1	16
671.132	1	10
671.301	1	11
671.470	1	12
671.640	1	8
671.809	1	6
671.979	1	3
672.148	1	8
672.317	1	4
672.487	1	11
672.656	1	18
672.826	1	12
672.995	1	0
673.164	1	10
673.334	1	10
673.503	1	0
673.673	1	18
673.842	1	4
674.011	1	8
674.181	1	5
674.350	1	8
674.520	1	10
674.689	1	8
674.858	1	20
675.028	1	4
675.197	1	9
675.367	1	5
675.536	1	7
675.705	1	15
675.875	1	13
676.044	1	13
676.214	1	14
676.383	1	1
676.552	1	4
676.722	1	11
676.891	1	16
677.060	1	13
677.230	1	6
677.399	1	9
677.569	1	11
677.738	1	12
677.907	1	0
678.077	1	-1
678.246	1	3
678.416	1	15
678.585	1	19
678.754	1	16
678.924	1	0
679.093	1	3
679.262	1	10
679.432	1	13
679.601	1	1
679.771	1	17
679.940	1	19
680.109	1	6
680.279	1	17
680.448	1	10
680.617	1	10
680.787	1	16
680.956	1	3
681.125	1	12
681.295	1	21
681.464	1	7
681.634	1	17
681.803	1	17
681.972	1	10
682.142	1	1
682.311	1	9
682.480	1	8
682.650	1	16
682.819	1	10
682.988	1	0
683.158	1	11
683.327	1	14
683.496	1	12
683.666	1	15
683.835	1	11
684.004	1	9
684.174	1	4
684.343	1	14
684.512	1	22
684.682	1	11
684.851	1	6
685.021	1	14
685.190	1	5
685.359	1	12
685.529	1	10
685.698	1	10
685.867	1	11
686.037	1	6
686.206	1	13
686.375	1	13
686.545	1	16
686.714	1	19
686.883	1	11
687.053	1	10
687.222	1	6
687.391	1	11
687.561	1	10
687.730	1	13
687.899	1	26
688.069	1	12
688.238	1	16
688.407	1	20
688.577	1	23
688.746	1	16
