340.368	1	6
340.539	1	-6
340.710	1	6
340.881	1	-1
341.052	1	-2
341.223	1	2
341.394	1	1
341.565	1	7
341.737	1	9
341.908	1	5
342.079	1	6
342.250	1	-7
342.421	1	5
342.592	1	1
342.763	1	14
342.934	1	12
343.105	1	4
343.276	1	-9
343.447	1	13
343.618	1	1
343.789	1	8
343.960	1	1
344.131	1	9
344.302	1	-4
344.473	1	-5
344.644	1	-7
344.815	1	4
344.986	1	16
345.157	1	-6
345.328	1	11
345.499	1	5
345.670	1	10
345.841	1	-1
346.012	1	6
346.183	1	3
346.354	1	5
346.526	1	9
346.697	1	9
346.868	1	1
347.039	1	6
347.210	1	-1
347.381	1	1
347.552	1	10
347.723	1	-7
347.894	1	0
348.065	1	-8
348.236	1	15
348.407	1	-2
348.578	1	-3
348.749	1	-2
348.920	1	0
349.091	1	4
349.262	1	-10
349.433	1	2
349.604	1	-7
349.775	1	8
349.946	1	10
350.117	1	5
350.288	1	-7
350.459	1	10
350.630	1	8
350.801	1	8
350.972	1	-3
351.143	1	-2
351.314	1	4
351.485	1	-2
351.656	1	1
351.827	1	4
351.998	1	4
352.169	1	3
352.340	1	7
352.511	1	4
352.682	1	9
352.853	1	6
353.024	1	5
353.195	1	4
353.366	1	4
353.537	1	8
353.708	1	17
353.879	1	4
354.050	1	9
354.221	1	3
354.392	1	11
354.563	1	-4
354.734	1	12
354.905	1	8
355.076	1	13
355.247	1	1
355.418	1	0
355.589	1	7
355.760	1	-1
355.931	1	11
356.102	1	10
356.273	1	2
356.444	1	13
356.615	1	-5
356.785	1	10
356.956	1	9
357.127	1	4
357.298	1	19
357.469	1	3
357.640	1	9
357.811	1	4
357.982	1	4
358.153	1	14
358.324	1	14
358.495	1	17
358.666	1	3
358.837	1	18
359.008	1	14
359.179	1	24
359.350	1	6
359.521	1	19
359.692	1	-3
359.863	1	19
360.034	1	17
360.205	1	12
360.376	1	18
360.547	1	9
360.718	1	19
360.889	1	14
361.060	1	18
361.231	1	14
361.401	1	13
361.572	1	18
361.743	1	16
361.914	1	16
362.085	1	19
362.256	1	14
362.427	1	16
362.598	1	13
362.769	1	27
362.940	1	15
363.111	1	31
363.282	1	26
363.453	1	31
363.624	1	32
363.795	1	15
363.966	1	24
364.137	1	31
364.308	1	23
364.478	1	21
364.649	1	33
364.820	1	26
364.991	1	44
365.162	1	22
365.333	1	43
365.504	1	35
365.675	1	47
365.846	1	36
366.017	1	43
366.188	1	47
366.359	1	35
366.530	1	38
366.701	1	39
366.871	1	50
367.042	1	41
367.213	1	46
367.384	1	59
367.555	1	43
367.726	1	60
367.897	1	45
368.068	1	63
368.239	1	44
368.410	1	55
368.581	1	56
368.752	1	60
368.923	1	57
369.093	1	52
369.264	1	59
369.435	1	47
369.606	1	45
369.777	1	64
369.948	1	53
370.119	1	47
370.290	1	45
370.461	1	49
370.632	1	47
370.803	1	43
370.973	1	51
371.144	1	32
371.315	1	47
371.486	1	48
371.657	1	42
371.828	1	30
371.999	1	39
372.170	1	35
372.341	1	42
372.512	1	40
372.682	1	30
372.853	1	31
373.024	1	32
373.195	1	38
373.366	1	31
373.537	1	38
373.708	1	31
373.879	1	32
374.050	1	32
374.220	1	31
374.391	1	36
374.562	1	40
374.733	1	28
374.904	1	25
375.075	1	18
375.246	1	30
375.417	1	37
375.588	1	13
375.758	1	30
375.929	1	23
376.100	1	27
376.271	1	32
376.442	1	29
376.613	1	30
376.784	1	24
376.955	1	24
377.125	1	27
377.296	1	25
377.467	1	21
377.638	1	19
377.809	1	20
377.980	1	20
378.151	1	22
378.321	1	27
378.492	1	19
378.663	1	21
378.834	1	22
379.005	1	26
379.176	1	11
379.347	1	27
379.518	1	16
379.688	1	10
379.859	1	28
380.030	1	22
380.201	1	12
380.372	1	28
380.543	1	19
380.714	1	19
380.884	1	10
381.055	1	14
381.226	1	16
381.397	1	17
381.568	1	24
381.739	1	15
381.910	1	25
382.080	1	17
382.251	1	24
382.422	1	16
382.593	1	18
382.764	1	27
382.935	1	9
383.105	1	16
383.276	1	20
383.447	1	11
383.618	1	12
383.789	1	25
383.960	1	11
384.130	1	14
384.301	1	9
384.472	1	11
384.643	1	18
384.814	1	20
384.985	1	23
385.156	1	28
385.326	1	26
385.497	1	12
385.668	1	14
385.839	1	12
386.010	1	19
386.180	1	25
386.351	1	17
386.522	1	15
386.693	1	14
386.864	1	15
387.035	1	27
387.205	1	20
387.376	1	13
387.547	1	16
387.718	1	19
387.889	1	16
388.060	1	13
388.230	1	26
388.401	1	6
388.572	1	11
388.743	1	5
388.914	1	12
389.084	1	21
389.255	1	13
389.426	1	10
389.597	1	2
389.768	1	15
389.939	1	13
390.109	1	16
390.280	1	17
390.451	1	11
390.622	1	15
390.793	1	16
390.963	1	18
391.134	1	16
391.305	1	9
391.476	1	15
391.647	1	18
391.817	1	16
391.988	1	19
392.159	1	12
392.330	1	8
392.501	1	10
392.671	1	14
392.842	1	17
393.013	1	14
393.184	1	15
393.355	1	3
393.525	1	17
393.696	1	5
393.867	1	8
394.038	1	16
394.208	1	16
394.379	1	17
394.550	1	14
394.721	1	16
394.892	1	9
395.062	1	9
395.233	1	13
395.404	1	6
395.575	1	29
395.746	1	16
395.916	1	21
396.087	1	9
396.258	1	17
396.429	1	8
396.599	1	19
396.770	1	15
396.941	1	10
397.112	1	10
397.283	1	8
397.453	1	16
397.624	1	20
397.795	1	22
397.966	1	13
398.136	1	13
398.307	1	9
398.478	1	0
398.649	1	16
398.819	1	16
398.990	1	2
399.161	1	11
399.332	1	21
399.503	1	17
399.673	1	15
399.844	1	3
400.015	1	16
400.186	1	12
400.356	1	19
400.527	1	3
400.698	1	12
400.869	1	14
401.039	1	9
401.210	1	6
401.381	1	17
401.552	1	10
401.722	1	15
401.893	1	9
402.064	1	12
402.235	1	7
402.405	1	4
402.576	1	20
402.747	1	8
402.918	1	6
403.088	1	-5
403.259	1	19
403.430	1	19
403.601	1	9
403.771	1	3
403.942	1	9
404.113	1	0
404.284	1	6
404.454	1	13
404.625	1	6
404.796	1	-1
404.967	1	20
405.137	1	9
405.308	1	10
405.479	1	5
405.649	1	3
405.820	1	4
405.991	1	7
406.162	1	0
406.332	1	18
406.503	1	11
406.674	1	16
406.845	1	11
407.015	1	7
407.186	1	11
407.357	1	7
407.527	1	4
407.698	1	5
407.869	1	9
408.040	1	6
408.210	1	9
408.381	1	17
408.552	1	14
408.722	1	4
408.893	1	7
409.064	1	1
409.235	1	7
409.405	1	9
409.576	1	11
409.747	1	4
409.917	1	8
410.088	1	6
410.259	1	-1
410.430	1	5
410.600	1	7
410.771	1	11
410.942	1	18
411.112	1	16
411.283	1	3
411.454	1	5
411.625	1	9
411.795	1	14
411.966	1	9
412.137	1	14
412.307	1	13
412.478	1	2
412.649	1	14
412.819	1	19
412.990	1	-2
413.161	1	14
413.332	1	-7
413.502	1	2
413.673	1	9
413.844	1	3
414.014	1	12
414.185	1	9
414.356	1	17
414.526	1	5
414.697	1	2
414.868	1	-5
415.038	1	0
415.209	1	2
415.380	1	-4
415.550	1	-6
415.721	1	6
415.892	1	2
416.063	1	5
416.233	1	3
416.404	1	5
416.575	1	0
416.745	1	5
416.916	1	14
417.087	1	8
417.257	1	5
417.428	1	9
417.599	1	-4
417.769	1	12
417.940	1	13
418.111	1	11
418.281	1	10
418.452	1	5
418.623	1	10
418.793	1	1
418.964	1	-3
419.135	1	1
419.305	1	5
419.476	1	22
419.647	1	6
419.817	1	4
419.988	1	6
420.159	1	-4
420.329	1	12
420.500	1	7
420.671	1	10
420.841	1	2
421.012	1	10
421.183	1	4
421.353	1	5
421.524	1	10
421.695	1	-2
421.865	1	1
422.036	1	-3
422.206	1	4
422.377	1	-1
422.548	1	-2
422.718	1	15
422.889	1	6
423.060	1	15
423.230	1	0
423.401	1	0
423.572	1	2
423.742	1	-2
423.913	1	2
424.084	1	9
424.254	1	3
424.425	1	-1
424.595	1	9
424.766	1	20
424.937	1	-2
425.107	1	9
425.278	1	-4
425.449	1	2
425.619	1	6
425.790	1	11
425.961	1	7
426.131	1	1
426.302	1	8
426.472	1	10
426.643	1	-10
426.814	1	-14
426.984	1	-2
427.155	1	18
427.326	1	5
427.496	1	7
427.667	1	11
427.837	1	11
428.008	1	3
428.179	1	3
428.349	1	9
428.520	1	0
428.691	1	7
428.861	1	-7
429.032	1	16
429.202	1	8
429.373	1	10
429.544	1	-5
429.714	1	11
429.885	1	1
430.055	1	15
430.226	1	7
430.397	1	12
430.567	1	12
430.738	1	6
430.909	1	-4
431.079	1	-5
431.250	1	7
431.420	1	10
431.591	1	10
431.762	1	10
431.932	1	12
432.103	1	0
432.273	1	2
432.444	1	-2
432.615	1	-2
432.785	1	-2
432.956	1	-3
433.126	1	9
433.297	1	5
433.468	1	-2
433.638	1	-5
433.809	1	2
433.979	1	2
434.150	1	4
434.320	1	4
434.491	1	5
434.662	1	-1
434.832	1	10
435.003	1	-1
435.173	1	7
435.344	1	5
435.515	1	0
435.685	1	2
435.856	1	0
436.026	1	5
436.197	1	8
436.368	1	4
436.538	1	15
436.709	1	0
436.879	1	5
437.050	1	8
437.220	1	8
437.391	1	5
437.562	1	-2
437.732	1	-6
437.903	1	-1
438.073	1	13
438.244	1	3
438.414	1	-4
438.585	1	4
438.756	1	4
438.926	1	9
439.097	1	2
439.267	1	12
439.438	1	12
439.608	1	8
439.779	1	-3
439.949	1	11
440.120	1	1
440.291	1	10
440.461	1	-5
440.632	1	2
440.802	1	-2
440.973	1	11
441.143	1	-5
441.314	1	0
441.485	1	13
441.655	1	-9
441.826	1	6
441.996	1	0
442.167	1	-5
442.337	1	8
442.508	1	5
442.678	1	-4
442.849	1	4
443.019	1	3
443.190	1	-2
443.361	1	1
443.531	1	7
443.702	1	-5
443.872	1	11
444.043	1	-7
444.213	1	-2
444.384	1	-4
444.554	1	0
444.725	1	10
444.895	1	-3
445.066	1	-1
445.237	1	-10
445.407	1	0
445.578	1	0
445.748	1	-1
445.919	1	4
446.089	1	9
446.260	1	4
446.430	1	3
446.601	1	14
446.771	1	14
446.942	1	-1
447.112	1	-1
447.283	1	-2
447.453	1	8
447.624	1	3
447.794	1	13
447.965	1	1
448.135	1	-2
448.306	1	5
448.477	1	5
448.647	1	14
448.818	1	-4
448.988	1	3
449.159	1	7
449.329	1	-1
449.500	1	10
449.670	1	9
449.841	1	1
450.011	1	5
450.182	1	2
450.352	1	-5
450.523	1	7
450.693	1	0
450.864	1	7
451.034	1	9
451.205	1	-5
451.375	1	10
451.546	1	8
451.716	1	9
451.887	1	6
452.057	1	-2
452.228	1	7
452.398	1	1
452.569	1	0
452.739	1	2
452.910	1	-2
453.080	1	-6
453.251	1	10
453.421	1	13
453.592	1	0
453.762	1	16
453.933	1	10
454.103	1	7
454.274	1	-7
454.444	1	0
454.615	1	11
454.785	1	-1
454.956	1	2
455.126	1	6
455.297	1	-1
455.467	1	4
455.638	1	7
455.808	1	9
455.979	1	0
456.149	1	1
456.320	1	5
456.490	1	9
456.661	1	2
456.831	1	7
457.001	1	0
457.172	1	11
457.342	1	5
457.513	1	-6
457.683	1	2
457.854	1	4
458.024	1	1
458.195	1	-8
458.365	1	4
458.536	1	1
458.706	1	4
458.877	1	-6
459.047	1	15
459.218	1	-5
459.388	1	8
459.559	1	-9
459.729	1	4
459.899	1	0
460.070	1	5
460.240	1	-9
460.411	1	1
460.581	1	3
460.752	1	0
460.922	1	1
461.093	1	1
461.263	1	5
461.434	1	8
461.604	1	3
461.775	1	0
461.945	1	2
462.115	1	7
462.286	1	6
462.456	1	7
462.627	1	1
462.797	1	-5
462.968	1	-3
463.138	1	3
463.309	1	-1
463.479	1	3
463.649	1	10
463.820	1	-5
463.990	1	-7
464.161	1	-3
464.331	1	5
464.502	1	-5
464.672	1	-3
464.843	1	-2
465.013	1	0
465.183	1	0
465.354	1	6
465.524	1	-4
465.695	1	0
465.865	1	4
466.036	1	10
466.206	1	5
466.376	1	8
466.547	1	5
466.717	1	5
466.888	1	3
467.058	1	-11
467.229	1	-6
467.399	1	4
467.569	1	11
467.740	1	-4
467.910	1	3
468.081	1	5
468.251	1	7
468.422	1	15
468.592	1	10
468.762	1	-5
468.933	1	7
469.103	1	2
469.274	1	2
469.444	1	2
469.614	1	-5
469.785	1	13
469.955	1	-5
470.126	1	4
470.296	1	-1
470.467	1	-2
470.637	1	-3
470.807	1	3
470.978	1	7
471.148	1	4
471.319	1	5
471.489	1	0
471.659	1	6
471.830	1	-7
472.000	1	-1
472.171	1	12
472.341	1	0
472.511	1	5
472.682	1	0
472.852	1	0
473.023	1	3
473.193	1	8
473.363	1	0
473.534	1	4
473.704	1	-7
473.875	1	4
474.045	1	1
474.215	1	12
474.386	1	14
474.556	1	13
474.727	1	3
474.897	1	0
475.067	1	-4
475.238	1	9
475.408	1	12
475.578	1	3
475.749	1	10
475.919	1	6
476.090	1	10
476.260	1	0
476.430	1	-2
476.601	1	4
476.771	1	4
476.942	1	2
477.112	1	-5
477.282	1	7
477.453	1	-1
477.623	1	-1
477.793	1	13
477.964	1	2
478.134	1	6
478.305	1	11
478.475	1	15
478.645	1	5
478.816	1	-1
478.986	1	1
479.156	1	2
479.327	1	6
479.497	1	4
479.667	1	8
479.838	1	-5
480.008	1	10
480.179	1	10
480.349	1	2
480.519	1	-6
480.690	1	-6
480.860	1	1
481.030	1	6
481.201	1	4
481.371	1	10
481.541	1	-6
481.712	1	11
481.882	1	-2
482.053	1	11
482.223	1	7
482.393	1	10
482.564	1	1
482.734	1	-4
482.904	1	5
483.075	1	0
483.245	1	16
483.415	1	3
483.586	1	7
483.756	1	0
483.926	1	5
484.097	1	2
484.267	1	11
484.437	1	11
484.608	1	16
484.778	1	16
484.948	1	10
485.119	1	8
485.289	1	7
485.459	1	20
485.630	1	-2
485.800	1	-4
485.970	1	13
486.141	1	11
486.311	1	0
486.481	1	-1
486.652	1	6
486.822	1	8
486.992	1	7
487.163	1	16
487.333	1	-3
487.503	1	-3
487.674	1	11
487.844	1	2
488.014	1	7
488.185	1	6
488.355	1	11
488.525	1	6
488.696	1	13
488.866	1	6
489.036	1	11
489.207	1	-2
489.377	1	-2
489.547	1	8
489.718	1	11
489.888	1	15
490.058	1	-4
490.228	1	2
490.399	1	2
490.569	1	6
490.739	1	12
490.910	1	8
491.080	1	6
491.250	1	2
491.421	1	17
491.591	1	-4
491.761	1	9
491.932	1	11
492.102	1	20
492.272	1	2
492.442	1	2
492.613	1	19
492.783	1	7
492.953	1	7
493.124	1	8
493.294	1	7
493.464	1	14
493.635	1	14
493.805	1	18
493.975	1	2
494.145	1	5
494.316	1	10
494.486	1	11
494.656	1	1
494.827	1	1
494.997	1	18
495.167	1	14
495.337	1	21
495.508	1	18
495.678	1	11
495.848	1	19
496.019	1	14
496.189	1	11
496.359	1	9
496.529	1	13
496.700	1	16
496.870	1	17
497.040	1	15
497.211	1	19
497.381	1	10
497.551	1	7
497.721	1	8
497.892	1	16
498.062	1	-1
498.232	1	18
498.403	1	13
498.573	1	6
498.743	1	10
498.913	1	13
499.084	1	4
499.254	1	15
499.424	1	16
499.594	1	9
499.765	1	17
499.935	1	10
500.105	1	23
500.275	1	12
500.446	1	10
500.616	1	3
500.786	1	16
500.956	1	19
501.127	1	18
501.297	1	8
501.467	1	6
501.638	1	21
501.808	1	-3
501.978	1	13
502.148	1	22
502.319	1	-1
502.489	1	18
502.659	1	17
502.829	1	13
503.000	1	13
503.170	1	20
503.340	1	13
503.510	1	18
503.681	1	7
503.851	1	17
504.021	1	10
504.191	1	11
504.362	1	-1
504.532	1	21
504.702	1	25
504.872	1	19
505.042	1	18
505.213	1	4
505.383	1	14
505.553	1	9
505.723	1	23
505.894	1	18
506.064	1	5
506.234	1	22
506.404	1	13
506.575	1	1
506.745	1	25
506.915	1	17
507.085	1	16
507.256	1	19
507.426	1	9
507.596	1	17
507.766	1	21
507.936	1	16
508.107	1	21
508.277	1	16
508.447	1	29
508.617	1	17
508.788	1	24
508.958	1	19
509.128	1	18
509.298	1	17
509.468	1	24
509.639	1	23
509.809	1	22
509.979	1	22
510.149	1	24
510.319	1	20
510.490	1	23
510.660	1	17
510.830	1	10
511.000	1	8
511.171	1	15
511.341	1	17
511.511	1	29
511.681	1	25
511.851	1	32
512.022	1	22
512.192	1	17
512.362	1	23
512.532	1	19
512.702	1	17
512.873	1	8
513.043	1	23
513.213	1	29
513.383	1	23
513.553	1	30
513.724	1	16
513.894	1	27
514.064	1	9
514.234	1	17
514.404	1	26
514.575	1	17
514.745	1	25
514.915	1	15
515.085	1	22
515.255	1	22
515.425	1	14
515.596	1	15
515.766	1	19
515.936	1	28
516.106	1	21
516.276	1	25
516.447	1	27
516.617	1	20
516.787	1	15
516.957	1	33
517.127	1	26
517.297	1	30
517.468	1	18
517.638	1	17
517.808	1	21
517.978	1	17
518.148	1	30
518.319	1	22
518.489	1	24
518.659	1	24
518.829	1	24
518.999	1	22
519.169	1	33
519.340	1	31
519.510	1	24
519.680	1	30
519.850	1	24
520.020	1	29
520.190	1	29
520.361	1	23
520.531	1	38
520.701	1	25
520.871	1	24
521.041	1	32
521.211	1	19
521.382	1	19
521.552	1	40
521.722	1	27
521.892	1	14
522.062	1	37
522.232	1	26
522.402	1	19
522.573	1	26
522.743	1	26
522.913	1	37
523.083	1	22
523.253	1	28
523.423	1	32
523.593	1	24
523.764	1	24
523.934	1	23
524.104	1	20
524.274	1	19
524.444	1	27
524.614	1	25
524.784	1	16
524.955	1	24
525.125	1	9
525.295	1	11
525.465	1	37
525.635	1	28
525.805	1	28
525.975	1	29
526.146	1	26
526.316	1	36
526.486	1	31
526.656	1	13
526.826	1	42
526.996	1	13
527.166	1	26
527.337	1	25
527.507	1	18
527.677	1	24
527.847	1	29
528.017	1	3
528.187	1	20
528.357	1	32
528.527	1	28
528.698	1	24
528.868	1	24
529.038	1	38
529.208	1	16
529.378	1	26
529.548	1	39
529.718	1	14
529.888	1	28
530.058	1	36
530.229	1	33
530.399	1	35
530.569	1	16
530.739	1	28
530.909	1	19
531.079	1	29
531.249	1	29
531.419	1	19
531.589	1	16
531.760	1	24
531.930	1	22
532.100	1	25
532.270	1	42
532.440	1	15
532.610	1	29
532.780	1	22
532.950	1	30
533.120	1	36
533.290	1	13
533.461	1	25
533.631	1	23
533.801	1	24
533.971	1	26
534.141	1	34
534.311	1	36
534.481	1	27
534.651	1	26
534.821	1	26
534.991	1	32
535.162	1	28
535.332	1	21
535.502	1	35
535.672	1	34
535.842	1	34
536.012	1	26
536.182	1	24
536.352	1	10
536.522	1	18
536.692	1	25
536.862	1	23
537.032	1	17
537.203	1	27
537.373	1	24
537.543	1	26
537.713	1	25
537.883	1	47
538.053	1	29
538.223	1	28
538.393	1	22
538.563	1	21
538.733	1	24
538.903	1	28
539.073	1	25
539.243	1	29
539.413	1	32
539.584	1	28
539.754	1	22
539.924	1	33
540.094	1	26
540.264	1	25
540.434	1	33
540.604	1	28
540.774	1	20
540.944	1	26
541.114	1	22
541.284	1	15
541.454	1	35
541.624	1	12
541.794	1	12
541.964	1	30
542.134	1	13
542.305	1	27
542.475	1	30
542.645	1	12
542.815	1	26
542.985	1	26
543.155	1	27
543.325	1	12
543.495	1	26
543.665	1	20
543.835	1	23
544.005	1	22
544.175	1	18
544.345	1	12
544.515	1	39
544.685	1	25
544.855	1	25
545.025	1	15
545.195	1	20
545.365	1	25
545.535	1	8
545.705	1	21
545.875	1	22
546.045	1	27
546.216	1	14
546.386	1	18
546.556	1	15
546.726	1	20
546.896	1	8
547.066	1	18
547.236	1	19
547.406	1	21
547.576	1	19
547.746	1	24
547.916	1	21
548.086	1	16
548.256	1	20
548.426	1	21
548.596	1	8
548.766	1	19
548.936	1	24
549.106	1	26
549.276	1	22
549.446	1	36
549.616	1	21
549.786	1	18
549.956	1	21
550.126	1	23
550.296	1	20
550.466	1	12
550.636	1	22
550.806	1	18
550.976	1	12
551.146	1	21
551.316	1	29
551.486	1	33
551.656	1	24
551.826	1	33
551.996	1	23
552.166	1	5
552.336	1	21
552.506	1	21
552.676	1	29
552.846	1	18
553.016	1	22
553.186	1	27
553.356	1	30
553.526	1	34
553.696	1	24
553.866	1	24
554.036	1	18
554.206	1	24
554.376	1	25
554.546	1	22
554.716	1	30
554.886	1	22
555.056	1	22
555.226	1	33
555.396	1	16
555.566	1	14
555.736	1	31
555.906	1	19
556.076	1	20
556.246	1	28
556.416	1	14
556.586	1	32
556.756	1	35
556.926	1	14
557.096	1	22
557.266	1	27
557.436	1	22
557.606	1	1
557.776	1	14
557.946	1	18
558.116	1	23
558.286	1	18
558.456	1	23
558.626	1	25
558.796	1	14
558.966	1	17
559.136	1	20
559.306	1	14
559.476	1	22
559.646	1	10
559.816	1	23
559.986	1	25
560.155	1	25
560.325	1	15
560.495	1	28
560.665	1	28
560.835	1	20
561.005	1	18
561.175	1	19
561.345	1	15
561.515	1	13
561.685	1	21
561.855	1	7
562.025	1	19
562.195	1	4
562.365	1	19
562.535	1	14
562.705	1	26
562.875	1	18
563.045	1	16
563.215	1	14
563.385	1	16
563.555	1	14
563.725	1	20
563.895	1	25
564.064	1	17
564.234	1	15
564.404	1	-1
564.574	1	7
564.744	1	14
564.914	1	9
565.084	1	24
565.254	1	18
565.424	1	17
565.594	1	16
565.764	1	15
565.934	1	12
566.104	1	7
566.274	1	15
566.444	1	7
566.614	1	15
566.783	1	12
566.953	1	11
567.123	1	21
567.293	1	10
567.463	1	6
567.633	1	18
567.803	1	12
567.973	1	16
568.143	1	19
568.313	1	7
568.483	1	20
568.653	1	18
568.823	1	17
568.993	1	14
569.162	1	13
569.332	1	16
569.502	1	9
569.672	1	7
569.842	1	12
570.012	1	18
570.182	1	8
570.352	1	11
570.522	1	18
570.692	1	16
570.862	1	20
571.031	1	9
571.201	1	4
571.371	1	11
571.541	1	17
571.711	1	16
571.881	1	12
572.051	1	17
572.221	1	13
572.391	1	18
572.561	1	6
572.731	1	19
572.900	1	19
573.070	1	18
573.240	1	26
573.410	1	19
573.580	1	9
573.750	1	14
573.920	1	19
574.090	1	13
574.260	1	19
574.430	1	4
574.599	1	10
574.769	1	18
574.939	1	13
575.109	1	1
575.279	1	9
575.449	1	13
575.619	1	-2
575.789	1	20
575.959	1	9
576.128	1	19
576.298	1	8
576.468	1	1
576.638	1	21
576.808	1	9
576.978	1	18
577.148	1	9
577.318	1	10
577.487	1	6
577.657	1	4
577.827	1	11
577.997	1	10
578.167	1	9
578.337	1	13
578.507	1	5
578.677	1	1
578.846	1	9
579.016	1	9
579.186	1	11
579.356	1	12
579.526	1	8
579.696	1	23
579.866	1	5
580.036	1	12
580.205	1	22
580.375	1	9
580.545	1	11
580.715	1	15
580.885	1	8
581.055	1	9
581.225	1	11
581.394	1	18
581.564	1	13
581.734	1	3
581.904	1	4
582.074	1	12
582.244	1	14
582.414	1	-12
582.583	1	9
582.753	1	8
582.923	1	6
583.093	1	19
583.263	1	20
583.433	1	5
583.603	1	13
583.772	1	3
583.942	1	8
584.112	1	0
584.282	1	16
584.452	1	9
584.622	1	-3
584.791	1	3
584.961	1	16
585.131	1	10
585.301	1	3
585.471	1	1
585.641	1	11
585.811	1	10
585.980	1	9
586.150	1	12
586.320	1	8
586.490	1	6
586.660	1	3
586.830	1	12
586.999	1	6
587.169	1	8
587.339	1	7
587.509	1	8
587.679	1	2
587.849	1	8
588.018	1	6
588.188	1	0
588.358	1	21
588.528	1	13
588.698	1	6
588.867	1	10
589.037	1	3
589.207	1	-1
589.377	1	-2
589.547	1	16
589.717	1	11
589.886	1	13
590.056	1	10
590.226	1	18
590.396	1	14
590.566	1	7
590.735	1	7
590.905	1	4
591.075	1	12
591.245	1	12
591.415	1	5
591.585	1	8
591.754	1	27
591.924	1	13
592.094	1	11
592.264	1	9
592.434	1	18
592.603	1	5
592.773	1	8
592.943	1	10
593.113	1	12
593.283	1	9
593.452	1	17
593.622	1	5
593.792	1	15
593.962	1	7
594.132	1	17
594.301	1	7
594.471	1	9
594.641	1	-10
594.811	1	13
594.981	1	9
595.150	1	9
595.320	1	-5
595.490	1	3
595.660	1	6
595.829	1	14
595.999	1	10
596.169	1	1
596.339	1	16
596.509	1	11
596.678	1	9
596.848	1	18
597.018	1	4
597.188	1	17
597.358	1	3
597.527	1	2
597.697	1	3
597.867	1	12
598.037	1	3
598.206	1	8
598.376	1	5
598.546	1	5
598.716	1	11
598.885	1	7
599.055	1	6
599.225	1	3
599.395	1	7
599.565	1	-6
599.734	1	8
599.904	1	5
600.074	1	3
600.244	1	4
600.413	1	2
600.583	1	9
600.753	1	5
600.923	1	7
601.092	1	8
601.262	1	6
601.432	1	14
601.602	1	4
601.771	1	6
601.941	1	5
602.111	1	12
602.281	1	2
602.451	1	-3
602.620	1	-1
602.790	1	10
602.960	1	13
603.130	1	2
603.299	1	12
603.469	1	1
603.639	1	0
603.809	1	2
603.978	1	1
604.148	1	8
604.318	1	14
604.487	1	5
604.657	1	9
604.827	1	7
604.997	1	1
605.166	1	-6
605.336	1	11
605.506	1	8
605.676	1	18
605.845	1	-6
606.015	1	2
606.185	1	3
606.355	1	14
606.524	1	18
606.694	1	11
606.864	1	1
607.034	1	1
607.203	1	16
607.373	1	19
607.543	1	7
607.712	1	15
607.882	1	4
608.052	1	14
608.222	1	7
608.391	1	-3
608.561	1	7
608.731	1	7
608.901	1	9
609.070	1	0
609.240	1	7
609.410	1	12
609.579	1	5
609.749	1	2
609.919	1	11
610.089	1	3
610.258	1	12
610.428	1	-7
610.598	1	10
610.767	1	4
610.937	1	3
611.107	1	14
611.277	1	18
611.446	1	5
611.616	1	7
611.786	1	17
611.955	1	-6
612.125	1	5
612.295	1	17
612.465	1	7
612.634	1	3
612.804	1	9
612.974	1	11
613.143	1	10
613.313	1	5
613.483	1	-4
613.652	1	3
613.822	1	-1
613.992	1	11
614.162	1	-1
614.331	1	8
614.501	1	0
614.671	1	-6
614.840	1	8
615.010	1	-2
615.180	1	9
615.349	1	15
615.519	1	2
615.689	1	-1
615.858	1	5
616.028	1	7
616.198	1	20
616.368	1	14
616.537	1	-1
616.707	1	9
616.877	1	14
617.046	1	3
617.216	1	7
617.386	1	1
617.555	1	10
617.725	1	3
617.895	1	9
618.064	1	4
618.234	1	5
618.404	1	6
618.573	1	-1
618.743	1	19
618.913	1	5
619.082	1	7
619.252	1	2
619.422	1	3
619.591	1	1
619.761	1	-2
619.931	1	15
620.100	1	12
620.270	1	2
620.440	1	-2
620.609	1	8
620.779	1	-12
620.949	1	9
621.118	1	-6
621.288	1	19
621.458	1	10
621.627	1	4
621.797	1	10
621.967	1	4
622.136	1	9
622.306	1	-7
622.476	1	6
622.645	1	18
622.815	1	1
622.985	1	12
623.154	1	10
623.324	1	1
623.494	1	13
623.663	1	2
623.833	1	-6
624.002	1	3
624.172	1	-3
624.342	1	14
624.511	1	8
624.681	1	-2
624.851	1	2
625.020	1	2
625.190	1	11
625.360	1	3
625.529	1	7
625.699	1	5
625.869	1	6
626.038	1	-6
626.208	1	5
626.377	1	6
626.547	1	1
626.717	1	6
626.886	1	4
627.056	1	13
627.226	1	-2
627.395	1	-4
627.565	1	-5
627.735	1	9
627.904	1	-7
628.074	1	1
628.243	1	-2
628.413	1	15
628.583	1	2
628.752	1	9
628.922	1	5
629.091	1	6
629.261	1	0
629.431	1	6
629.600	1	-4
629.770	1	-1
629.940	1	10
630.109	1	4
630.279	1	-11
630.448	1	7
630.618	1	8
630.788	1	-1
630.957	1	1
631.127	1	5
631.297	1	4
631.466	1	1
631.636	1	-7
631.805	1	7
631.975	1	11
632.145	1	2
632.314	1	6
632.484	1	-1
632.653	1	-5
632.823	1	-10
632.993	1	5
633.162	1	7
633.332	1	9
633.501	1	4
633.671	1	13
633.841	1	13
634.010	1	3
634.180	1	3
634.349	1	9
634.519	1	4
634.689	1	1
634.858	1	4
635.028	1	8
635.197	1	18
635.367	1	3
635.537	1	14
635.706	1	4
635.876	1	8
636.045	1	1
636.215	1	8
636.384	1	1
636.554	1	8
636.724	1	-3
636.893	1	1
637.063	1	2
637.232	1	9
637.402	1	2
637.572	1	0
637.741	1	13
637.911	1	9
638.080	1	5
638.250	1	6
638.419	1	-1
638.589	1	-7
638.759	1	6
638.928	1	2
639.098	1	-1
639.267	1	11
639.437	1	10
639.606	1	6
639.776	1	-3
639.946	1	0
640.115	1	-6
640.285	1	5
640.454	1	4
640.624	1	1
640.793	1	11
640.963	1	12
641.132	1	1
641.302	1	17
641.472	1	1
641.641	1	6
641.811	1	5
641.980	1	7
642.150	1	-1
642.319	1	-5
642.489	1	7
642.659	1	6
642.828	1	3
642.998	1	4
643.167	1	9
643.337	1	9
643.506	1	-10
643.676	1	1
643.845	1	-5
644.015	1	-2
644.184	1	11
644.354	1	-2
644.524	1	13
644.693	1	-4
644.863	1	1
645.032	1	8
645.202	1	0
645.371	1	-2
645.541	1	-9
645.710	1	12
645.880	1	8
646.049	1	3
646.219	1	-1
646.388	1	6
646.558	1	-1
646.728	1	18
646.897	1	0
647.067	1	11
647.236	1	-8
647.406	1	-1
647.575	1	-3
647.745	1	-1
647.914	1	1
648.084	1	2
648.253	1	-4
648.423	1	0
648.592	1	2
648.762	1	2
648.931	1	-6
649.101	1	18
649.270	1	-13
649.440	1	8
649.610	1	3
649.779	1	9
649.949	1	-2
650.118	1	13
650.288	1	6
650.457	1	-7
650.627	1	3
650.796	1	9
650.966	1	14
651.135	1	-1
651.305	1	7
651.474	1	8
651.644	1	12
651.813	1	1
651.983	1	16
652.152	1	-5
652.322	1	2
652.491	1	1
652.661	1	12
652.830	1	5
653.000	1	11
653.169	1	9
653.339	1	7
653.508	1	6
653.678	1	3
653.847	1	-2
654.017	1	8
654.186	1	3
654.356	1	0
654.525	1	-2
654.695	1	11
654.864	1	11
655.034	1	14
655.203	1	-1
655.373	1	-2
655.542	1	2
655.712	1	14
655.881	1	10
656.051	1	3
656.220	1	8
656.390	1	3
656.559	1	0
656.729	1	5
656.898	1	0
657.068	1	13
657.237	1	5
657.406	1	4
657.576	1	0
657.745	1	4
657.915	1	-2
658.084	1	10
658.254	1	9
658.423	1	24
658.593	1	8
658.762	1	-1
658.932	1	-2
659.101	1	3
659.271	1	13
659.440	1	6
659.610	1	11
659.779	1	1
659.949	1	0
660.118	1	5
660.288	1	8
660.457	1	7
660.626	1	-2
660.796	1	5
660.965	1	-8
661.135	1	-8
661.304	1	11
661.474	1	12
661.643	1	11
661.813	1	6
661.982	1	0
662.152	1	8
662.321	1	11
662.491	1	8
662.660	1	9
662.829	1	-7
662.999	1	3
663.168	1	6
663.338	1	7
663.507	1	6
663.677	1	3
663.846	1	17
664.016	1	5
664.185	1	-6
664.354	1	3
664.524	1	9
664.693	1	9
664.863	1	-3
665.032	1	7
665.202	1	3
665.371	1	1
665.541	1	-5
665.710	1	0
665.879	1	-5
666.049	1	4
666.218	1	3
666.388	1	3
666.557	1	6
666.727	1	5
666.896	1	7
667.065	1	11
667.235	1	-4
667.404	1	8
667.574	1	13
667.743	1	11
667.913	1	3
668.082	1	9
668.251	1	5
668.421	1	5
668.590	1	0
668.760	1	-5
668.929	1	11
669.099	1	0
669.268	1	19
669.437	1	-6
669.607	1	-2
669.776	1	-1
669.946	1	15
670.115	1	0
670.285	1	-2
670.454	1	7
670.623	1	9
670.793	1	-4
670.962	1	3
671.132	1	0
671.301	1	7
671.470	1	5
671.640	1	0
671.809	1	4
671.979	1	1
672.148	1	-4
672.317	1	-2
672.487	1	12
672.656	1	5
672.826	1	-1
672.995	1	2
673.164	1	5
673.334	1	6
673.503	1	-2
673.673	1	10
673.842	1	1
674.011	1	0
674.181	1	-3
674.350	1	4
674.520	1	7
674.689	1	5
674.858	1	-2
675.028	1	6
675.197	1	11
675.367	1	5
675.536	1	-2
675.705	1	7
675.875	1	4
676.044	1	0
676.214	1	4
676.383	1	1
676.552	1	-3
676.722	1	5
676.891	1	9
677.060	1	14
677.230	1	10
677.399	1	2
677.569	1	6
677.738	1	10
677.907	1	-1
678.077	1	-6
678.246	1	-5
678.416	1	8
678.585	1	22
678.754	1	4
678.924	1	-7
679.093	1	1
679.262	1	4
679.432	1	13
679.601	1	-5
679.771	1	11
679.940	1	11
680.109	1	4
680.279	1	6
680.448	1	4
680.617	1	5
680.787	1	2
680.956	1	1
681.125	1	4
681.295	1	3
681.464	1	3
681.634	1	9
681.803	1	11
681.972	1	6
682.142	1	-4
682.311	1	-2
682.480	1	6
682.650	1	12
682.819	1	-1
682.988	1	-2
683.158	1	9
683.327	1	16
683.496	1	-3
683.666	1	11
683.835	1	1
684.004	1	7
684.174	1	-10
684.343	1	1
684.512	1	14
684.682	1	2
684.851	1	2
685.021	1	7
685.190	1	0
685.359	1	7
685.529	1	-3
685.698	1	4
685.867	1	0
686.037	1	7
686.206	1	5
686.375	1	10
686.545	1	6
686.714	1	10
686.883	1	4
687.053	1	7
687.222	1	11
687.391	1	1
687.561	1	4
687.730	1	4
687.899	1	16
688.069	1	8
688.238	1	-4
688.407	1	5
688.577	1	11
688.746	1	4
