340.368	1	-11
340.539	1	-4
340.710	1	5
340.881	1	-3
341.052	1	-2
341.223	1	-5
341.394	1	1
341.565	1	7
341.737	1	3
341.908	1	2
342.079	1	3
342.250	1	4
342.421	1	7
342.592	1	8
342.763	1	2
342.934	1	4
343.105	1	-4
343.276	1	-5
343.447	1	3
343.618	1	-3
343.789	1	10
343.960	1	-5
344.131	1	-2
344.302	1	9
344.473	1	-8
344.644	1	-13
344.815	1	1
344.986	1	3
345.157	1	-13
345.328	1	12
345.499	1	9
345.670	1	7
345.841	1	2
346.012	1	-2
346.183	1	-1
346.354	1	8
346.526	1	-10
346.697	1	6
346.868	1	-10
347.039	1	15
347.210	1	-14
347.381	1	3
347.552	1	3
347.723	1	1
347.894	1	-8
348.065	1	-5
348.236	1	5
348.407	1	-8
348.578	1	5
348.749	1	4
348.920	1	2
349.091	1	-5
349.262	1	-1
349.433	1	-4
349.604	1	-1
349.775	1	2
349.946	1	3
350.117	1	3
350.288	1	-9
350.459	1	21
350.630	1	7
350.801	1	3
350.972	1	0
351.143	1	4
351.314	1	2
351.485	1	-9
351.656	1	-8
351.827	1	-6
351.998	1	-4
352.169	1	-6
352.340	1	-6
352.511	1	5
352.682	1	6
352.853	1	-6
353.024	1	16
353.195	1	-6
353.366	1	1
353.537	1	7
353.708	1	10
353.879	1	5
354.050	1	2
354.221	1	0
354.392	1	12
354.563	1	-3
354.734	1	5
354.905	1	12
355.076	1	-4
355.247	1	0
355.418	1	2
355.589	1	-1
355.760	1	1
355.931	1	2
356.102	1	-2
356.273	1	0
356.444	1	11
356.615	1	-1
356.785	1	4
356.956	1	0
357.127	1	6
357.298	1	-3
357.469	1	-1
357.640	1	-12
357.811	1	-1
357.982	1	1
358.153	1	7
358.324	1	4
358.495	1	6
358.666	1	-13
358.837	1	11
359.008	1	-2
359.179	1	5
359.350	1	0
359.521	1	0
359.692	1	-6
359.863	1	8
360.034	1	3
360.205	1	6
360.376	1	10
360.547	1	10
360.718	1	7
360.889	1	-2
361.060	1	1
361.231	1	4
361.401	1	7
361.572	1	5
361.743	1	1
361.914	1	1
362.085	1	11
362.256	1	10
362.427	1	6
362.598	1	6
362.769	1	-2
362.940	1	7
363.111	1	11
363.282	1	4
363.453	1	16
363.624	1	9
363.795	1	9
363.966	1	9
364.137	1	4
364.308	1	10
364.478	1	12
364.649	1	0
364.820	1	11
364.991	1	5
365.162	1	13
365.333	1	14
365.504	1	9
365.675	1	4
365.846	1	4
366.017	1	14
366.188	1	21
366.359	1	7
366.530	1	11
366.701	1	7
366.871	1	9
367.042	1	11
367.213	1	10
367.384	1	28
367.555	1	5
367.726	1	15
367.897	1	5
368.068	1	10
368.239	1	10
368.410	1	23
368.581	1	20
368.752	1	17
368.923	1	18
369.093	1	14
369.264	1	14
369.435	1	14
369.606	1	17
369.777	1	20
369.948	1	15
370.119	1	21
370.290	1	16
370.461	1	23
370.632	1	22
370.803	1	13
370.973	1	12
371.144	1	6
371.315	1	19
371.486	1	17
371.657	1	7
371.828	1	-1
371.999	1	26
372.170	1	18
372.341	1	7
372.512	1	9
372.682	1	8
372.853	1	12
373.024	1	0
373.195	1	11
373.366	1	17
373.537	1	11
373.708	1	14
373.879	1	13
374.050	1	5
374.220	1	3
374.391	1	10
374.562	1	13
374.733	1	-2
374.904	1	-3
375.075	1	11
375.246	1	8
375.417	1	9
375.588	1	7
375.758	1	4
375.929	1	5
376.100	1	8
376.271	1	4
376.442	1	-5
376.613	1	5
376.784	1	-14
376.955	1	6
377.125	1	10
377.296	1	17
377.467	1	8
377.638	1	3
377.809	1	10
377.980	1	9
378.151	1	3
378.321	1	0
378.492	1	2
378.663	1	3
378.834	1	-1
379.005	1	18
379.176	1	8
379.347	1	3
379.518	1	1
379.688	1	-4
379.859	1	4
380.030	1	3
380.201	1	2
380.372	1	13
380.543	1	10
380.714	1	11
380.884	1	3
381.055	1	-8
381.226	1	-1
381.397	1	4
381.568	1	10
381.739	1	11
381.910	1	7
382.080	1	2
382.251	1	9
382.422	1	2
382.593	1	11
382.764	1	7
382.935	1	-4
383.105	1	8
383.276	1	5
383.447	1	1
383.618	1	3
383.789	1	4
383.960	1	-2
384.130	1	3
384.301	1	6
384.472	1	6
384.643	1	4
384.814	1	9
384.985	1	18
385.156	1	7
385.326	1	8
385.497	1	6
385.668	1	3
385.839	1	0
386.010	1	12
386.180	1	14
386.351	1	12
386.522	1	22
386.693	1	5
386.864	1	-1
387.035	1	12
387.205	1	13
387.376	1	0
387.547	1	8
387.718	1	5
387.889	1	7
388.060	1	4
388.230	1	7
388.401	1	-3
388.572	1	1
388.743	1	-6
388.914	1	2
389.084	1	16
389.255	1	5
389.426	1	-3
389.597	1	3
389.768	1	7
389.939	1	3
390.109	1	-1
390.280	1	12
390.451	1	6
390.622	1	3
390.793	1	5
390.963	1	-4
391.134	1	4
391.305	1	6
391.476	1	4
391.647	1	6
391.817	1	-2
391.988	1	3
392.159	1	15
392.330	1	4
392.501	1	7
392.671	1	3
392.842	1	4
393.013	1	10
393.184	1	-3
393.355	1	-3
393.525	1	8
393.696	1	-8
393.867	1	9
394.038	1	8
394.208	1	20
394.379	1	4
394.550	1	7
394.721	1	-3
394.892	1	6
395.062	1	2
395.233	1	3
395.404	1	4
395.575	1	11
395.746	1	11
395.916	1	14
396.087	1	2
396.258	1	17
396.429	1	-8
396.599	1	13
396.770	1	12
396.941	1	2
397.112	1	6
397.283	1	4
397.453	1	8
397.624	1	-2
397.795	1	3
397.966	1	7
398.136	1	3
398.307	1	14
398.478	1	-2
398.649	1	5
398.819	1	8
398.990	1	-3
399.161	1	10
399.332	1	8
399.503	1	4
399.673	1	4
399.844	1	3
400.015	1	5
400.186	1	14
400.356	1	14
400.527	1	4
400.698	1	4
400.869	1	4
401.039	1	3
401.210	1	-1
401.381	1	4
401.552	1	1
401.722	1	7
401.893	1	7
402.064	1	-2
402.235	1	0
402.405	1	2
402.576	1	14
402.747	1	4
402.918	1	3
403.088	1	-10
403.259	1	15
403.430	1	-4
403.601	1	4
403.771	1	5
403.942	1	5
404.113	1	2
404.284	1	7
404.454	1	0
404.625	1	0
404.796	1	2
404.967	1	12
405.137	1	6
405.308	1	9
405.479	1	-6
405.649	1	5
405.820	1	-3
405.991	1	5
406.162	1	-5
406.332	1	13
406.503	1	10
406.674	1	18
406.845	1	-5
407.015	1	0
407.186	1	12
407.357	1	-1
407.527	1	2
407.698	1	6
407.869	1	14
408.040	1	-9
408.210	1	6
408.381	1	10
408.552	1	16
408.722	1	5
408.893	1	-8
409.064	1	-3
409.235	1	-3
409.405	1	-3
409.576	1	6
409.747	1	-1
409.917	1	1
410.088	1	9
410.259	1	0
410.430	1	-2
410.600	1	-2
410.771	1	1
410.942	1	14
411.112	1	-1
411.283	1	3
411.454	1	11
411.625	1	-3
411.795	1	8
411.966	1	5
412.137	1	5
412.307	1	-2
412.478	1	3
412.649	1	-1
412.819	1	5
412.990	1	-4
413.161	1	3
413.332	1	-6
413.502	1	5
413.673	1	19
413.844	1	12
414.014	1	7
414.185	1	1
414.356	1	6
414.526	1	2
414.697	1	11
414.868	1	-10
415.038	1	9
415.209	1	0
415.380	1	0
415.550	1	-4
415.721	1	8
415.892	1	3
416.063	1	10
416.233	1	-7
416.404	1	1
416.575	1	6
416.745	1	8
416.916	1	3
417.087	1	8
417.257	1	-5
417.428	1	1
417.599	1	5
417.769	1	0
417.940	1	6
418.111	1	-1
418.281	1	9
418.452	1	-1
418.623	1	11
418.793	1	10
418.964	1	-3
419.135	1	17
419.305	1	7
419.476	1	15
419.647	1	-7
419.817	1	-1
419.988	1	7
420.159	1	0
420.329	1	14
420.500	1	2
420.671	1	5
420.841	1	-1
421.012	1	5
421.183	1	-1
421.353	1	3
421.524	1	4
421.695	1	1
421.865	1	-10
422.036	1	-3
422.206	1	6
422.377	1	3
422.548	1	-9
422.718	1	9
422.889	1	-2
423.060	1	11
423.230	1	-3
423.401	1	3
423.572	1	-6
423.742	1	11
423.913	1	-6
424.084	1	-4
424.254	1	9
424.425	1	2
424.595	1	1
424.766	1	13
424.937	1	-2
425.107	1	8
425.278	1	3
425.449	1	0
425.619	1	9
425.790	1	4
425.961	1	-4
426.131	1	-11
426.302	1	0
426.472	1	9
426.643	1	-5
426.814	1	-11
426.984	1	1
427.155	1	19
427.326	1	-3
427.496	1	-6
427.667	1	6
427.837	1	12
428.008	1	2
428.179	1	-2
428.349	1	2
428.520	1	3
428.691	1	1
428.861	1	6
429.032	1	7
429.202	1	-7
429.373	1	13
429.544	1	-9
429.714	1	2
429.885	1	-1
430.055	1	11
430.226	1	4
430.397	1	-7
430.567	1	3
430.738	1	8
430.909	1	-4
431.079	1	1
431.250	1	7
431.420	1	10
431.591	1	6
431.762	1	12
431.932	1	6
432.103	1	0
432.273	1	-5
432.444	1	1
432.615	1	-1
432.785	1	-2
432.956	1	9
433.126	1	8
433.297	1	-1
433.468	1	-10
433.638	1	6
433.809	1	-3
433.979	1	1
434.150	1	-3
434.320	1	0
434.491	1	5
434.662	1	-2
434.832	1	1
435.003	1	-3
435.173	1	2
435.344	1	-1
435.515	1	7
435.685	1	2
435.856	1	0
436.026	1	-5
436.197	1	-3
436.368	1	9
436.538	1	11
436.709	1	3
436.879	1	6
437.050	1	7
437.220	1	9
437.391	1	7
437.562	1	-5
437.732	1	-1
437.903	1	-9
438.073	1	10
438.244	1	0
438.414	1	0
438.585	1	3
438.756	1	-1
438.926	1	3
439.097	1	6
439.267	1	-1
439.438	1	6
439.608	1	-2
439.779	1	4
439.949	1	-1
440.120	1	-10
440.291	1	1
440.461	1	0
440.632	1	-10
440.802	1	-4
440.973	1	0
441.143	1	-7
441.314	1	3
441.485	1	4
441.655	1	4
441.826	1	-2
441.996	1	0
442.167	1	-5
442.337	1	10
442.508	1	-8
442.678	1	-4
442.849	1	3
443.019	1	1
443.190	1	-6
443.361	1	4
443.531	1	1
443.702	1	-1
443.872	1	3
444.043	1	-2
444.213	1	-3
444.384	1	-8
444.554	1	2
444.725	1	1
444.895	1	-5
445.066	1	-7
445.237	1	-8
445.407	1	-8
445.578	1	-7
445.748	1	-1
445.919	1	9
446.089	1	3
446.260	1	-3
446.430	1	-1
446.601	1	4
446.771	1	7
446.942	1	-1
447.112	1	0
447.283	1	-3
447.453	1	8
447.624	1	2
447.794	1	3
447.965	1	-5
448.135	1	-3
448.306	1	-2
448.477	1	5
448.647	1	2
448.818	1	3
448.988	1	-2
449.159	1	7
449.329	1	0
449.500	1	-1
449.670	1	5
449.841	1	1
450.011	1	-3
450.182	1	0
450.352	1	-7
450.523	1	9
450.693	1	6
450.864	1	-1
451.034	1	3
451.205	1	5
451.375	1	4
451.546	1	12
451.716	1	2
451.887	1	-5
452.057	1	-1
452.228	1	12
452.398	1	-4
452.569	1	5
452.739	1	9
452.910	1	-2
453.080	1	-1
453.251	1	-7
453.421	1	6
453.592	1	1
453.762	1	2
453.933	1	8
454.103	1	2
454.274	1	-9
454.444	1	4
454.615	1	3
454.785	1	-6
454.956	1	-6
455.126	1	0
455.297	1	0
455.467	1	-1
455.638	1	15
455.808	1	4
455.979	1	7
456.149	1	4
456.320	1	5
456.490	1	7
456.661	1	-11
456.831	1	-3
457.001	1	-2
457.172	1	8
457.342	1	3
457.513	1	-3
457.683	1	6
457.854	1	-8
458.024	1	6
458.195	1	-8
458.365	1	2
458.536	1	-6
458.706	1	13
458.877	1	-1
459.047	1	19
459.218	1	-9
459.388	1	8
459.559	1	9
459.729	1	-3
459.899	1	6
460.070	1	-4
460.240	1	-8
460.411	1	-12
460.581	1	-3
460.752	1	-2
460.922	1	-1
461.093	1	1
461.263	1	7
461.434	1	12
461.604	1	7
461.775	1	-4
461.945	1	0
462.115	1	12
462.286	1	0
462.456	1	-2
462.627	1	1
462.797	1	-6
462.968	1	-4
463.138	1	3
463.309	1	-3
463.479	1	11
463.649	1	0
463.820	1	-12
463.990	1	-1
464.161	1	-4
464.331	1	-8
464.502	1	1
464.672	1	-6
464.843	1	3
465.013	1	-8
465.183	1	10
465.354	1	-1
465.524	1	2
465.695	1	4
465.865	1	1
466.036	1	1
466.206	1	-11
466.376	1	-3
466.547	1	-9
466.717	1	2
466.888	1	-4
467.058	1	6
467.229	1	-7
467.399	1	0
467.569	1	-2
467.740	1	2
467.910	1	1
468.081	1	0
468.251	1	5
468.422	1	10
468.592	1	-1
468.762	1	-8
468.933	1	11
469.103	1	-2
469.274	1	1
469.444	1	-7
469.614	1	-5
469.785	1	8
469.955	1	9
470.126	1	3
470.296	1	2
470.467	1	-1
470.637	1	-1
470.807	1	-1
470.978	1	-2
471.148	1	2
471.319	1	2
471.489	1	3
471.659	1	0
471.830	1	-4
472.000	1	1
472.171	1	6
472.341	1	6
472.511	1	8
472.682	1	-6
472.852	1	2
473.023	1	-4
473.193	1	11
473.363	1	-2
473.534	1	4
473.704	1	-2
473.875	1	4
474.045	1	0
474.215	1	6
474.386	1	13
474.556	1	7
474.727	1	3
474.897	1	2
475.067	1	-6
475.238	1	5
475.408	1	11
475.578	1	2
475.749	1	4
475.919	1	7
476.090	1	23
476.260	1	2
476.430	1	-1
476.601	1	9
476.771	1	9
476.942	1	-2
477.112	1	-10
477.282	1	10
477.453	1	-5
477.623	1	-7
477.793	1	-2
477.964	1	-3
478.134	1	4
478.305	1	-4
478.475	1	5
478.645	1	2
478.816	1	1
478.986	1	-6
479.156	1	10
479.327	1	-3
479.497	1	-5
479.667	1	-3
479.838	1	-5
480.008	1	6
480.179	1	1
480.349	1	-2
480.519	1	-5
480.690	1	-7
480.860	1	3
481.030	1	14
481.201	1	-1
481.371	1	-2
481.541	1	-6
481.712	1	14
481.882	1	-5
482.053	1	18
482.223	1	6
482.393	1	2
482.564	1	7
482.734	1	2
482.904	1	4
483.075	1	-7
483.245	1	6
483.415	1	-2
483.586	1	9
483.756	1	-6
483.926	1	5
484.097	1	8
484.267	1	7
484.437	1	14
484.608	1	5
484.778	1	-1
484.948	1	-6
485.119	1	0
485.289	1	3
485.459	1	4
485.630	1	0
485.800	1	6
485.970	1	6
486.141	1	8
486.311	1	-9
486.481	1	6
486.652	1	3
486.822	1	5
486.992	1	-3
487.163	1	11
487.333	1	-1
487.503	1	0
487.674	1	-2
487.844	1	-2
488.014	1	7
488.185	1	-8
488.355	1	-2
488.525	1	6
488.696	1	2
488.866	1	1
489.036	1	1
489.207	1	3
489.377	1	4
489.547	1	-1
489.718	1	-1
489.888	1	13
490.058	1	-5
490.228	1	7
490.399	1	3
490.569	1	8
490.739	1	16
490.910	1	1
491.080	1	4
491.250	1	1
491.421	1	-11
491.591	1	4
491.761	1	4
491.932	1	5
492.102	1	8
492.272	1	-8
492.442	1	-4
492.613	1	12
492.783	1	3
492.953	1	4
493.124	1	-1
493.294	1	-5
493.464	1	8
493.635	1	-5
493.805	1	12
493.975	1	-2
494.145	1	1
494.316	1	7
494.486	1	2
494.656	1	4
494.827	1	2
494.997	1	13
495.167	1	2
495.337	1	9
495.508	1	10
495.678	1	7
495.848	1	8
496.019	1	8
496.189	1	10
496.359	1	0
496.529	1	2
496.700	1	3
496.870	1	2
497.040	1	8
497.211	1	1
497.381	1	0
497.551	1	4
497.721	1	8
497.892	1	12
498.062	1	-2
498.232	1	12
498.403	1	2
498.573	1	2
498.743	1	7
498.913	1	6
499.084	1	8
499.254	1	-3
499.424	1	-9
499.594	1	11
499.765	1	6
499.935	1	10
500.105	1	20
500.275	1	9
500.446	1	2
500.616	1	-4
500.786	1	8
500.956	1	-4
501.127	1	2
501.297	1	6
501.467	1	0
501.638	1	10
501.808	1	2
501.978	1	9
502.148	1	8
502.319	1	9
502.489	1	7
502.659	1	13
502.829	1	11
503.000	1	-12
503.170	1	8
503.340	1	-4
503.510	1	4
503.681	1	2
503.851	1	5
504.021	1	-1
504.191	1	3
504.362	1	-12
504.532	1	6
504.702	1	8
504.872	1	19
505.042	1	1
505.213	1	6
505.383	1	13
505.553	1	9
505.723	1	14
505.894	1	5
506.064	1	-3
506.234	1	10
506.404	1	2
506.575	1	-6
506.745	1	10
506.915	1	14
507.085	1	16
507.256	1	1
507.426	1	13
507.596	1	7
507.766	1	-1
507.936	1	-3
508.107	1	-1
508.277	1	10
508.447	1	13
508.617	1	1
508.788	1	10
508.958	1	1
509.128	1	8
509.298	1	0
509.468	1	11
509.639	1	4
509.809	1	5
509.979	1	15
510.149	1	6
510.319	1	2
510.490	1	5
510.660	1	10
510.830	1	0
511.000	1	7
511.171	1	9
511.341	1	10
511.511	1	3
511.681	1	15
511.851	1	20
512.022	1	3
512.192	1	9
512.362	1	10
512.532	1	15
512.702	1	5
512.873	1	6
513.043	1	11
513.213	1	7
513.383	1	9
513.553	1	13
513.724	1	10
513.894	1	20
514.064	1	5
514.234	1	10
514.404	1	8
514.575	1	11
514.745	1	-2
514.915	1	-9
515.085	1	10
515.255	1	17
515.425	1	3
515.596	1	7
515.766	1	8
515.936	1	12
516.106	1	5
516.276	1	4
516.447	1	10
516.617	1	0
516.787	1	5
516.957	1	20
517.127	1	16
517.297	1	16
517.468	1	5
517.638	1	11
517.808	1	10
517.978	1	-3
518.148	1	9
518.319	1	11
518.489	1	7
518.659	1	6
518.829	1	11
518.999	1	7
519.169	1	2
519.340	1	4
519.510	1	3
519.680	1	10
519.850	1	9
520.020	1	15
520.190	1	2
520.361	1	0
520.531	1	19
520.701	1	1
520.871	1	16
521.041	1	17
521.211	1	-2
521.382	1	10
521.552	1	19
521.722	1	12
521.892	1	5
522.062	1	10
522.232	1	4
522.402	1	2
522.573	1	12
522.743	1	1
522.913	1	17
523.083	1	11
523.253	1	-1
523.423	1	19
523.593	1	13
523.764	1	15
523.934	1	0
524.104	1	12
524.274	1	10
524.444	1	7
524.614	1	8
524.784	1	-1
524.955	1	7
525.125	1	7
525.295	1	-2
525.465	1	10
525.635	1	11
525.805	1	5
525.975	1	7
526.146	1	9
526.316	1	8
526.486	1	17
526.656	1	12
526.826	1	13
526.996	1	8
527.166	1	19
527.337	1	13
527.507	1	9
527.677	1	-2
527.847	1	6
528.017	1	-6
528.187	1	-8
528.357	1	11
528.527	1	2
528.698	1	13
528.868	1	9
529.038	1	11
529.208	1	9
529.378	1	8
529.548	1	18
529.718	1	-1
529.888	1	5
530.058	1	8
530.229	1	14
530.399	1	2
530.569	1	5
530.739	1	-1
530.909	1	2
531.079	1	16
531.249	1	5
531.419	1	6
531.589	1	3
531.760	1	-2
531.930	1	16
532.100	1	6
532.270	1	10
532.440	1	-4
532.610	1	-5
532.780	1	3
532.950	1	9
533.120	1	19
533.290	1	-1
533.461	1	6
533.631	1	5
533.801	1	13
533.971	1	6
534.141	1	3
534.311	1	18
534.481	1	5
534.651	1	3
534.821	1	10
534.991	1	12
535.162	1	14
535.332	1	-4
535.502	1	18
535.672	1	12
535.842	1	6
536.012	1	1
536.182	1	7
536.352	1	-3
536.522	1	5
536.692	1	9
536.862	1	-1
537.032	1	7
537.203	1	12
537.373	1	1
537.543	1	7
537.713	1	6
537.883	1	16
538.053	1	1
538.223	1	12
538.393	1	1
538.563	1	13
538.733	1	7
538.903	1	5
539.073	1	7
539.243	1	10
539.413	1	9
539.584	1	9
539.754	1	-1
539.924	1	10
540.094	1	6
540.264	1	8
540.434	1	9
540.604	1	10
540.774	1	12
540.944	1	5
541.114	1	3
541.284	1	3
541.454	1	7
541.624	1	-7
541.794	1	-1
541.964	1	12
542.134	1	4
542.305	1	15
542.475	1	12
542.645	1	6
542.815	1	11
542.985	1	14
543.155	1	5
543.325	1	0
543.495	1	2
543.665	1	10
543.835	1	21
544.005	1	3
544.175	1	4
544.345	1	5
544.515	1	19
544.685	1	13
544.855	1	5
545.025	1	-2
545.195	1	9
545.365	1	1
545.535	1	11
545.705	1	1
545.875	1	-2
546.045	1	11
546.216	1	-2
546.386	1	9
546.556	1	0
546.726	1	5
546.896	1	1
547.066	1	-1
547.236	1	5
547.406	1	5
547.576	1	10
547.746	1	1
547.916	1	-4
548.086	1	14
548.256	1	9
548.426	1	16
548.596	1	-1
548.766	1	14
548.936	1	5
549.106	1	8
549.276	1	6
549.446	1	16
549.616	1	7
549.786	1	5
549.956	1	6
550.126	1	11
550.296	1	10
550.466	1	10
550.636	1	11
550.806	1	1
550.976	1	-6
551.146	1	4
551.316	1	13
551.486	1	9
551.656	1	15
551.826	1	4
551.996	1	-4
552.166	1	5
552.336	1	10
552.506	1	10
552.676	1	14
552.846	1	15
553.016	1	13
553.186	1	4
553.356	1	6
553.526	1	16
553.696	1	6
553.866	1	1
554.036	1	2
554.206	1	5
554.376	1	-1
554.546	1	9
554.716	1	8
554.886	1	10
555.056	1	4
555.226	1	2
555.396	1	0
555.566	1	-1
555.736	1	-4
555.906	1	6
556.076	1	15
556.246	1	2
556.416	1	9
556.586	1	10
556.756	1	16
556.926	1	4
557.096	1	4
557.266	1	5
557.436	1	5
557.606	1	2
557.776	1	2
557.946	1	13
558.116	1	11
558.286	1	1
558.456	1	13
558.626	1	18
558.796	1	9
558.966	1	7
559.136	1	10
559.306	1	-2
559.476	1	10
559.646	1	10
559.816	1	16
559.986	1	11
560.155	1	9
560.325	1	8
560.495	1	-2
560.665	1	20
560.835	1	9
561.005	1	13
561.175	1	2
561.345	1	8
561.515	1	-8
561.685	1	6
561.855	1	2
562.025	1	8
562.195	1	3
562.365	1	7
562.535	1	10
562.705	1	18
562.875	1	4
563.045	1	14
563.215	1	3
563.385	1	11
563.555	1	14
563.725	1	-7
563.895	1	12
564.064	1	10
564.234	1	-3
564.404	1	-3
564.574	1	6
564.744	1	0
564.914	1	2
565.084	1	15
565.254	1	14
565.424	1	9
565.594	1	16
565.764	1	7
565.934	1	14
566.104	1	11
566.274	1	-3
566.444	1	8
566.614	1	2
566.783	1	1
566.953	1	-2
567.123	1	4
567.293	1	4
567.463	1	-9
567.633	1	3
567.803	1	6
567.973	1	2
568.143	1	1
568.313	1	1
568.483	1	2
568.653	1	9
568.823	1	15
568.993	1	12
569.162	1	2
569.332	1	10
569.502	1	-3
569.672	1	0
569.842	1	7
570.012	1	14
570.182	1	6
570.352	1	5
570.522	1	4
570.692	1	10
570.862	1	2
571.031	1	2
571.201	1	4
571.371	1	-5
571.541	1	3
571.711	1	13
571.881	1	1
572.051	1	11
572.221	1	5
572.391	1	9
572.561	1	2
572.731	1	8
572.900	1	5
573.070	1	12
573.240	1	4
573.410	1	0
573.580	1	-1
573.750	1	4
573.920	1	5
574.090	1	9
574.260	1	10
574.430	1	3
574.599	1	13
574.769	1	6
574.939	1	8
575.109	1	2
575.279	1	0
575.449	1	0
575.619	1	-9
575.789	1	9
575.959	1	-4
576.128	1	11
576.298	1	2
576.468	1	6
576.638	1	9
576.808	1	1
576.978	1	6
577.148	1	3
577.318	1	3
577.487	1	4
577.657	1	0
577.827	1	13
577.997	1	3
578.167	1	1
578.337	1	0
578.507	1	1
578.677	1	-11
578.846	1	4
579.016	1	1
579.186	1	-4
579.356	1	7
579.526	1	-1
579.696	1	17
579.866	1	0
580.036	1	-5
580.205	1	12
580.375	1	2
580.545	1	6
580.715	1	12
580.885	1	8
581.055	1	-4
581.225	1	4
581.394	1	2
581.564	1	7
581.734	1	-9
581.904	1	6
582.074	1	10
582.244	1	12
582.414	1	-6
582.583	1	-8
582.753	1	5
582.923	1	7
583.093	1	7
583.263	1	9
583.433	1	-1
583.603	1	14
583.772	1	-12
583.942	1	3
584.112	1	-5
584.282	1	14
584.452	1	6
584.622	1	-6
584.791	1	0
584.961	1	9
585.131	1	5
585.301	1	-1
585.471	1	-7
585.641	1	-3
585.811	1	-1
585.980	1	7
586.150	1	5
586.320	1	9
586.490	1	2
586.660	1	-3
586.830	1	11
586.999	1	-5
587.169	1	1
587.339	1	3
587.509	1	8
587.679	1	7
587.849	1	4
588.018	1	-4
588.188	1	-4
588.358	1	4
588.528	1	1
588.698	1	3
588.867	1	0
589.037	1	1
589.207	1	-7
589.377	1	-6
589.547	1	10
589.717	1	2
589.886	1	-8
590.056	1	-1
590.226	1	11
590.396	1	6
590.566	1	-2
590.735	1	-6
590.905	1	0
591.075	1	8
591.245	1	6
591.415	1	-4
591.585	1	4
591.754	1	9
591.924	1	5
592.094	1	-2
592.264	1	-3
592.434	1	1
592.603	1	-1
592.773	1	-3
592.943	1	6
593.113	1	5
593.283	1	6
593.452	1	6
593.622	1	-6
593.792	1	0
593.962	1	-1
594.132	1	12
594.301	1	18
594.471	1	8
594.641	1	-12
594.811	1	14
594.981	1	10
595.150	1	5
595.320	1	1
595.490	1	-7
595.660	1	8
595.829	1	8
595.999	1	0
596.169	1	-7
596.339	1	-2
596.509	1	6
596.678	1	1
596.848	1	10
597.018	1	10
597.188	1	8
597.358	1	-7
597.527	1	-2
597.697	1	-1
597.867	1	8
598.037	1	4
598.206	1	1
598.376	1	6
598.546	1	4
598.716	1	10
598.885	1	3
599.055	1	6
599.225	1	2
599.395	1	13
599.565	1	-8
599.734	1	8
599.904	1	-3
600.074	1	0
600.244	1	0
600.413	1	1
600.583	1	4
600.753	1	-1
600.923	1	14
601.092	1	13
601.262	1	5
601.432	1	13
601.602	1	3
601.771	1	6
601.941	1	8
602.111	1	9
602.281	1	3
602.451	1	1
602.620	1	1
602.790	1	4
602.960	1	-2
603.130	1	1
603.299	1	-1
603.469	1	-2
603.639	1	0
603.809	1	-5
603.978	1	-4
604.148	1	-1
604.318	1	6
604.487	1	1
604.657	1	-5
604.827	1	0
604.997	1	7
605.166	1	5
605.336	1	13
605.506	1	4
605.676	1	14
605.845	1	-5
606.015	1	-1
606.185	1	-5
606.355	1	3
606.524	1	5
606.694	1	5
606.864	1	3
607.034	1	-1
607.203	1	6
607.373	1	5
607.543	1	3
607.712	1	13
607.882	1	3
608.052	1	15
608.222	1	1
608.391	1	1
608.561	1	-3
608.731	1	3
608.901	1	6
609.070	1	4
609.240	1	0
609.410	1	4
609.579	1	-1
609.749	1	8
609.919	1	12
610.089	1	1
610.258	1	5
610.428	1	-5
610.598	1	9
610.767	1	5
610.937	1	-2
611.107	1	7
611.277	1	7
611.446	1	2
611.616	1	16
611.786	1	7
611.955	1	-6
612.125	1	-1
612.295	1	6
612.465	1	4
612.634	1	4
612.804	1	5
612.974	1	0
613.143	1	2
613.313	1	7
613.483	1	-12
613.652	1	0
613.822	1	9
613.992	1	3
614.162	1	3
614.331	1	4
614.501	1	-13
614.671	1	-10
614.840	1	11
615.010	1	4
615.180	1	8
615.349	1	9
615.519	1	4
615.689	1	2
615.858	1	2
616.028	1	4
616.198	1	4
616.368	1	12
616.537	1	0
616.707	1	-2
616.877	1	8
617.046	1	3
617.216	1	1
617.386	1	7
617.555	1	4
617.725	1	1
617.895	1	6
618.064	1	6
618.234	1	6
618.404	1	0
618.573	1	3
618.743	1	6
618.913	1	5
619.082	1	2
619.252	1	-6
619.422	1	-2
619.591	1	7
619.761	1	-5
619.931	1	10
620.100	1	3
620.270	1	18
620.440	1	-2
620.609	1	-4
620.779	1	-9
620.949	1	4
621.118	1	-3
621.288	1	8
621.458	1	10
621.627	1	-8
621.797	1	14
621.967	1	3
622.136	1	8
622.306	1	0
622.476	1	14
622.645	1	11
622.815	1	-4
622.985	1	7
623.154	1	-1
623.324	1	1
623.494	1	-1
623.663	1	-2
623.833	1	0
624.002	1	2
624.172	1	-2
624.342	1	4
624.511	1	3
624.681	1	-7
624.851	1	0
625.020	1	11
625.190	1	6
625.360	1	5
625.529	1	6
625.699	1	-3
625.869	1	7
626.038	1	-9
626.208	1	3
626.377	1	1
626.547	1	2
626.717	1	7
626.886	1	9
627.056	1	10
627.226	1	-11
627.395	1	3
627.565	1	-15
627.735	1	3
627.904	1	-1
628.074	1	-1
628.243	1	-3
628.413	1	6
628.583	1	0
628.752	1	14
628.922	1	7
629.091	1	-1
629.261	1	2
629.431	1	2
629.600	1	-9
629.770	1	2
629.940	1	7
630.109	1	11
630.279	1	-4
630.448	1	5
630.618	1	9
630.788	1	-4
630.957	1	6
631.127	1	7
631.297	1	-6
631.466	1	1
631.636	1	-10
631.805	1	-4
631.975	1	1
632.145	1	-6
632.314	1	9
632.484	1	3
632.653	1	-8
632.823	1	6
632.993	1	0
633.162	1	4
633.332	1	5
633.501	1	2
633.671	1	-1
633.841	1	13
634.010	1	8
634.180	1	2
634.349	1	4
634.519	1	3
634.689	1	8
634.858	1	-2
635.028	1	-8
635.197	1	8
635.367	1	2
635.537	1	10
635.706	1	-4
635.876	1	1
636.045	1	-2
636.215	1	0
636.384	1	5
636.554	1	-2
636.724	1	5
636.893	1	1
637.063	1	3
637.232	1	-2
637.402	1	-4
637.572	1	-5
637.741	1	1
637.911	1	5
638.080	1	4
638.250	1	4
638.419	1	1
638.589	1	0
638.759	1	1
638.928	1	3
639.098	1	-7
639.267	1	7
639.437	1	3
639.606	1	6
639.776	1	5
639.946	1	-9
640.115	1	2
640.285	1	-2
640.454	1	2
640.624	1	-4
640.793	1	3
640.963	1	10
641.132	1	-2
641.302	1	14
641.472	1	3
641.641	1	7
641.811	1	5
641.980	1	2
642.150	1	-2
642.319	1	-4
642.489	1	-6
642.659	1	5
642.828	1	1
642.998	1	3
643.167	1	0
643.337	1	-2
643.506	1	-13
643.676	1	3
643.845	1	-2
644.015	1	2
644.184	1	8
644.354	1	-4
644.524	1	4
644.693	1	-3
644.863	1	3
645.032	1	9
645.202	1	4
645.371	1	1
645.541	1	-13
645.710	1	11
645.880	1	6
646.049	1	9
646.219	1	-2
646.388	1	9
646.558	1	-1
646.728	1	11
646.897	1	-6
647.067	1	3
647.236	1	5
647.406	1	-3
647.575	1	5
647.745	1	-1
647.914	1	-12
648.084	1	-2
648.253	1	-14
648.423	1	8
648.592	1	1
648.762	1	2
648.931	1	-2
649.101	1	12
649.270	1	-4
649.440	1	5
649.610	1	-1
649.779	1	5
649.949	1	2
650.118	1	-1
650.288	1	3
650.457	1	-4
650.627	1	4
650.796	1	-2
650.966	1	0
651.135	1	1
651.305	1	13
651.474	1	17
651.644	1	1
651.813	1	0
651.983	1	8
652.152	1	7
652.322	1	1
652.491	1	5
652.661	1	-3
652.830	1	8
653.000	1	-1
653.169	1	5
653.339	1	8
653.508	1	6
653.678	1	0
653.847	1	-18
654.017	1	9
654.186	1	12
654.356	1	0
654.525	1	-6
654.695	1	0
654.864	1	3
655.034	1	2
655.203	1	4
655.373	1	-8
655.542	1	6
655.712	1	-5
655.881	1	4
656.051	1	-1
656.220	1	4
656.390	1	0
656.559	1	-1
656.729	1	12
656.898	1	-1
657.068	1	4
657.237	1	-2
657.406	1	-10
657.576	1	7
657.745	1	3
657.915	1	-1
658.084	1	1
658.254	1	3
658.423	1	15
658.593	1	-6
658.762	1	3
658.932	1	4
659.101	1	7
659.271	1	-1
659.440	1	6
659.610	1	5
659.779	1	-10
659.949	1	4
660.118	1	4
660.288	1	21
660.457	1	5
660.626	1	-1
660.796	1	0
660.965	1	-2
661.135	1	-1
661.304	1	0
661.474	1	5
661.643	1	9
661.813	1	-4
661.982	1	3
662.152	1	7
662.321	1	14
662.491	1	3
662.660	1	2
662.829	1	2
662.999	1	9
663.168	1	11
663.338	1	8
663.507	1	10
663.677	1	-1
663.846	1	13
664.016	1	-16
664.185	1	-1
664.354	1	-5
664.524	1	-6
664.693	1	1
664.863	1	3
665.032	1	4
665.202	1	-6
665.371	1	2
665.541	1	-4
665.710	1	-3
665.879	1	-7
666.049	1	3
666.218	1	2
666.388	1	2
666.557	1	10
666.727	1	4
666.896	1	10
667.065	1	0
667.235	1	1
667.404	1	-3
667.574	1	11
667.743	1	6
667.913	1	-5
668.082	1	11
668.251	1	-15
668.421	1	-1
668.590	1	7
668.760	1	-7
668.929	1	3
669.099	1	-1
669.268	1	7
669.437	1	0
669.607	1	7
669.776	1	6
669.946	1	11
670.115	1	2
670.285	1	2
670.454	1	11
670.623	1	1
670.793	1	-13
670.962	1	-5
671.132	1	5
671.301	1	1
671.470	1	2
671.640	1	-10
671.809	1	3
671.979	1	-6
672.148	1	8
672.317	1	-6
672.487	1	8
672.656	1	13
672.826	1	-2
672.995	1	1
673.164	1	0
673.334	1	-1
673.503	1	-5
673.673	1	9
673.842	1	-2
674.011	1	3
674.181	1	-5
674.350	1	-4
674.520	1	12
674.689	1	2
674.858	1	2
675.028	1	-8
675.197	1	4
675.367	1	-3
675.536	1	-7
675.705	1	7
675.875	1	2
676.044	1	-3
676.214	1	0
676.383	1	-6
676.552	1	-8
676.722	1	9
676.891	1	8
677.060	1	4
677.230	1	5
677.399	1	2
677.569	1	6
677.738	1	4
677.907	1	-8
678.077	1	1
678.246	1	6
678.416	1	5
678.585	1	10
678.754	1	-5
678.924	1	-11
679.093	1	0
679.262	1	1
679.432	1	1
679.601	1	-9
679.771	1	10
679.940	1	5
680.109	1	7
680.279	1	3
680.448	1	3
680.617	1	10
680.787	1	11
680.956	1	-4
681.125	1	5
681.295	1	5
681.464	1	0
681.634	1	2
681.803	1	-2
681.972	1	2
682.142	1	-6
682.311	1	-4
682.480	1	-8
682.650	1	2
682.819	1	-5
682.988	1	-8
683.158	1	3
683.327	1	2
683.496	1	1
683.666	1	7
683.835	1	2
684.004	1	0
684.174	1	-8
684.343	1	-2
684.512	1	4
684.682	1	-4
684.851	1	-5
685.021	1	6
685.190	1	-1
685.359	1	8
685.529	1	-2
685.698	1	-5
685.867	1	-5
686.037	1	-1
686.206	1	7
686.375	1	10
686.545	1	4
686.714	1	7
686.883	1	1
687.053	1	-3
687.222	1	-1
687.391	1	-5
687.561	1	1
687.730	1	3
687.899	1	6
688.069	1	1
688.238	1	-4
688.407	1	14
688.577	1	6
688.746	1	-4
