340.368	1	1
340.539	1	-4
340.710	1	9
340.881	1	-3
341.052	1	1
341.223	1	5
341.394	1	-1
341.565	1	7
341.737	1	-8
341.908	1	-1
342.079	1	-1
342.250	1	5
342.421	1	8
342.592	1	1
342.763	1	2
342.934	1	1
343.105	1	6
343.276	1	-8
343.447	1	-1
343.618	1	-6
343.789	1	4
343.960	1	1
344.131	1	-6
344.302	1	1
344.473	1	-8
344.644	1	-3
344.815	1	3
344.986	1	6
345.157	1	-5
345.328	1	9
345.499	1	8
345.670	1	2
345.841	1	-3
346.012	1	1
346.183	1	-5
346.354	1	5
346.526	1	5
346.697	1	11
346.868	1	1
347.039	1	12
347.210	1	0
347.381	1	13
347.552	1	9
347.723	1	-3
347.894	1	-7
348.065	1	-13
348.236	1	14
348.407	1	-6
348.578	1	11
348.749	1	10
348.920	1	5
349.091	1	3
349.262	1	0
349.433	1	-6
349.604	1	-7
349.775	1	11
349.946	1	2
350.117	1	11
350.288	1	1
350.459	1	16
350.630	1	10
350.801	1	-1
350.972	1	-1
351.143	1	-6
351.314	1	8
351.485	1	-5
351.656	1	2
351.827	1	9
351.998	1	0
352.169	1	4
352.340	1	6
352.511	1	2
352.682	1	-10
352.853	1	-5
353.024	1	6
353.195	1	-5
353.366	1	2
353.537	1	4
353.708	1	12
353.879	1	-1
354.050	1	7
354.221	1	-2
354.392	1	6
354.563	1	-7
354.734	1	11
354.905	1	4
355.076	1	7
355.247	1	-1
355.418	1	0
355.589	1	1
355.760	1	3
355.931	1	3
356.102	1	7
356.273	1	-7
356.444	1	6
356.615	1	-8
356.785	1	11
356.956	1	6
357.127	1	1
357.298	1	6
357.469	1	4
357.640	1	6
357.811	1	-2
357.982	1	-8
358.153	1	6
358.324	1	2
358.495	1	10
358.666	1	-4
358.837	1	12
359.008	1	9
359.179	1	14
359.350	1	-1
359.521	1	2
359.692	1	-9
359.863	1	8
360.034	1	4
360.205	1	0
360.376	1	13
360.547	1	1
360.718	1	8
360.889	1	5
361.060	1	6
361.231	1	10
361.401	1	4
361.572	1	5
361.743	1	9
361.914	1	3
362.085	1	12
362.256	1	14
362.427	1	12
362.598	1	10
362.769	1	15
362.940	1	6
363.111	1	9
363.282	1	8
363.453	1	14
363.624	1	15
363.795	1	13
363.966	1	9
364.137	1	10
364.308	1	22
364.478	1	11
364.649	1	10
364.820	1	16
364.991	1	16
365.162	1	2
365.333	1	13
365.504	1	20
365.675	1	12
365.846	1	7
366.017	1	11
366.188	1	26
366.359	1	14
366.530	1	11
366.701	1	17
366.871	1	18
367.042	1	20
367.213	1	22
367.384	1	28
367.555	1	20
367.726	1	27
367.897	1	16
368.068	1	25
368.239	1	13
368.410	1	24
368.581	1	31
368.752	1	24
368.923	1	28
369.093	1	21
369.264	1	23
369.435	1	23
369.606	1	21
369.777	1	21
369.948	1	28
370.119	1	21
370.290	1	30
370.461	1	16
370.632	1	19
370.803	1	18
370.973	1	21
371.144	1	14
371.315	1	27
371.486	1	18
371.657	1	29
371.828	1	13
371.999	1	19
372.170	1	13
372.341	1	13
372.512	1	13
372.682	1	8
372.853	1	23
373.024	1	13
373.195	1	14
373.366	1	0
373.537	1	21
373.708	1	10
373.879	1	11
374.050	1	12
374.220	1	16
374.391	1	15
374.562	1	11
374.733	1	7
374.904	1	5
375.075	1	10
375.246	1	2
375.417	1	9
375.588	1	2
375.758	1	4
375.929	1	4
376.100	1	16
376.271	1	7
376.442	1	9
376.613	1	5
376.784	1	-1
376.955	1	4
377.125	1	9
377.296	1	11
377.467	1	8
377.638	1	12
377.809	1	9
377.980	1	2
378.151	1	7
378.321	1	12
378.492	1	16
378.663	1	11
378.834	1	0
379.005	1	16
379.176	1	5
379.347	1	3
379.518	1	-2
379.688	1	-1
379.859	1	14
380.030	1	10
380.201	1	5
380.372	1	11
380.543	1	14
380.714	1	3
380.884	1	6
381.055	1	4
381.226	1	3
381.397	1	9
381.568	1	14
381.739	1	6
381.910	1	10
382.080	1	-2
382.251	1	13
382.422	1	0
382.593	1	15
382.764	1	10
382.935	1	0
383.105	1	9
383.276	1	7
383.447	1	1
383.618	1	5
383.789	1	18
383.960	1	6
384.130	1	14
384.301	1	7
384.472	1	7
384.643	1	5
384.814	1	-1
384.985	1	6
385.156	1	14
385.326	1	13
385.497	1	6
385.668	1	12
385.839	1	0
386.010	1	8
386.180	1	10
386.351	1	9
386.522	1	18
386.693	1	-3
386.864	1	8
387.035	1	15
387.205	1	23
387.376	1	2
387.547	1	3
387.718	1	8
387.889	1	6
388.060	1	10
388.230	1	14
388.401	1	4
388.572	1	12
388.743	1	9
388.914	1	9
389.084	1	5
389.255	1	9
389.426	1	6
389.597	1	-9
389.768	1	2
389.939	1	8
390.109	1	6
390.280	1	5
390.451	1	3
390.622	1	3
390.793	1	2
390.963	1	10
391.134	1	6
391.305	1	9
391.476	1	-2
391.647	1	-5
391.817	1	6
391.988	1	17
392.159	1	14
392.330	1	1
392.501	1	7
392.671	1	15
392.842	1	-1
393.013	1	5
393.184	1	9
393.355	1	-4
393.525	1	15
393.696	1	6
393.867	1	8
394.038	1	5
394.208	1	4
394.379	1	15
394.550	1	-4
394.721	1	10
394.892	1	10
395.062	1	12
395.233	1	15
395.404	1	1
395.575	1	12
395.746	1	13
395.916	1	16
396.087	1	6
396.258	1	10
396.429	1	2
396.599	1	4
396.770	1	-5
396.941	1	-2
397.112	1	3
397.283	1	15
397.453	1	8
397.624	1	5
397.795	1	0
397.966	1	4
398.136	1	1
398.307	1	7
398.478	1	2
398.649	1	16
398.819	1	9
398.990	1	-4
399.161	1	7
399.332	1	7
399.503	1	9
399.673	1	8
399.844	1	-7
400.015	1	7
400.186	1	10
400.356	1	17
400.527	1	4
400.698	1	1
400.869	1	10
401.039	1	2
401.210	1	-8
401.381	1	0
401.552	1	7
401.722	1	15
401.893	1	12
402.064	1	2
402.235	1	2
402.405	1	-1
402.576	1	15
402.747	1	12
402.918	1	3
403.088	1	-5
403.259	1	15
403.430	1	7
403.601	1	4
403.771	1	-1
403.942	1	8
404.113	1	-2
404.284	1	4
404.454	1	0
404.625	1	10
404.796	1	-4
404.967	1	19
405.137	1	5
405.308	1	15
405.479	1	-7
405.649	1	-4
405.820	1	3
405.991	1	12
406.162	1	-13
406.332	1	7
406.503	1	2
406.674	1	18
406.845	1	1
407.015	1	8
407.186	1	19
407.357	1	-8
407.527	1	-5
407.698	1	2
407.869	1	10
408.040	1	-8
408.210	1	4
408.381	1	2
408.552	1	9
408.722	1	4
408.893	1	0
409.064	1	9
409.235	1	-1
409.405	1	3
409.576	1	5
409.747	1	-5
409.917	1	4
410.088	1	8
410.259	1	15
410.430	1	5
410.600	1	3
410.771	1	14
410.942	1	1
411.112	1	13
411.283	1	-6
411.454	1	4
411.625	1	4
411.795	1	16
411.966	1	11
412.137	1	5
412.307	1	2
412.478	1	5
412.649	1	3
412.819	1	10
412.990	1	-5
413.161	1	0
413.332	1	1
413.502	1	4
413.673	1	9
413.844	1	3
414.014	1	9
414.185	1	1
414.356	1	6
414.526	1	-2
414.697	1	5
414.868	1	-8
415.038	1	10
415.209	1	0
415.380	1	3
415.550	1	-4
415.721	1	1
415.892	1	6
416.063	1	10
416.233	1	4
416.404	1	-12
416.575	1	1
416.745	1	2
416.916	1	-2
417.087	1	0
417.257	1	2
417.428	1	1
417.599	1	-6
417.769	1	7
417.940	1	2
418.111	1	4
418.281	1	4
418.452	1	8
418.623	1	10
418.793	1	6
418.964	1	3
419.135	1	2
419.305	1	3
419.476	1	17
419.647	1	4
419.817	1	-1
419.988	1	8
420.159	1	-2
420.329	1	-4
420.500	1	1
420.671	1	2
420.841	1	4
421.012	1	3
421.183	1	-1
421.353	1	2
421.524	1	8
421.695	1	4
421.865	1	-1
422.036	1	-10
422.206	1	0
422.377	1	5
422.548	1	-8
422.718	1	4
422.889	1	4
423.060	1	17
423.230	1	8
423.401	1	3
423.572	1	-4
423.742	1	4
423.913	1	-1
424.084	1	-2
424.254	1	-3
424.425	1	-3
424.595	1	-1
424.766	1	22
424.937	1	-4
425.107	1	4
425.278	1	8
425.449	1	3
425.619	1	3
425.790	1	0
425.961	1	-5
426.131	1	-8
426.302	1	-2
426.472	1	8
426.643	1	-8
426.814	1	-11
426.984	1	1
427.155	1	12
427.326	1	0
427.496	1	-6
427.667	1	3
427.837	1	1
428.008	1	9
428.179	1	6
428.349	1	15
428.520	1	6
428.691	1	9
428.861	1	1
429.032	1	19
429.202	1	-5
429.373	1	11
429.544	1	-5
429.714	1	7
429.885	1	1
430.055	1	5
430.226	1	0
430.397	1	0
430.567	1	-2
430.738	1	10
430.909	1	-6
431.079	1	-6
431.250	1	3
431.420	1	7
431.591	1	13
431.762	1	9
431.932	1	9
432.103	1	-1
432.273	1	-3
432.444	1	0
432.615	1	0
432.785	1	-5
432.956	1	1
433.126	1	6
433.297	1	-1
433.468	1	2
433.638	1	2
433.809	1	-1
433.979	1	-1
434.150	1	6
434.320	1	2
434.491	1	5
434.662	1	-3
434.832	1	-2
435.003	1	2
435.173	1	9
435.344	1	8
435.515	1	-3
435.685	1	-9
435.856	1	-7
436.026	1	1
436.197	1	2
436.368	1	-8
436.538	1	11
436.709	1	3
436.879	1	-1
437.050	1	2
437.220	1	13
437.391	1	12
437.562	1	-3
437.732	1	-2
437.903	1	-6
438.073	1	13
438.244	1	-3
438.414	1	-13
438.585	1	2
438.756	1	6
438.926	1	6
439.097	1	4
439.267	1	10
439.438	1	3
439.608	1	-3
439.779	1	-2
439.949	1	4
440.120	1	-6
440.291	1	7
440.461	1	4
440.632	1	-9
440.802	1	-10
440.973	1	3
441.143	1	6
441.314	1	2
441.485	1	-4
441.655	1	-1
441.826	1	8
441.996	1	8
442.167	1	1
442.337	1	6
442.508	1	-4
442.678	1	2
442.849	1	-2
443.019	1	4
443.190	1	0
443.361	1	0
443.531	1	0
443.702	1	0
443.872	1	12
444.043	1	0
444.213	1	-3
444.384	1	2
444.554	1	1
444.725	1	-4
444.895	1	-8
445.066	1	4
445.237	1	-5
445.407	1	-3
445.578	1	-2
445.748	1	-6
445.919	1	6
446.089	1	8
446.260	1	4
446.430	1	-2
446.601	1	5
446.771	1	1
446.942	1	-3
447.112	1	6
447.283	1	-5
447.453	1	3
447.624	1	-3
447.794	1	-6
447.965	1	-5
448.135	1	-1
448.306	1	1
448.477	1	1
448.647	1	7
448.818	1	3
448.988	1	7
449.159	1	5
449.329	1	3
449.500	1	2
449.670	1	8
449.841	1	-1
450.011	1	-1
450.182	1	-7
450.352	1	-3
450.523	1	0
450.693	1	11
450.864	1	12
451.034	1	7
451.205	1	2
451.375	1	11
451.546	1	9
451.716	1	12
451.887	1	-3
452.057	1	7
452.228	1	9
452.398	1	5
452.569	1	5
452.739	1	13
452.910	1	-1
453.080	1	-3
453.251	1	3
453.421	1	7
453.592	1	3
453.762	1	3
453.933	1	6
454.103	1	1
454.274	1	-7
454.444	1	3
454.615	1	11
454.785	1	-1
454.956	1	4
455.126	1	-2
455.297	1	-3
455.467	1	-6
455.638	1	3
455.808	1	2
455.979	1	6
456.149	1	-3
456.320	1	1
456.490	1	8
456.661	1	-1
456.831	1	12
457.001	1	-1
457.172	1	4
457.342	1	-1
457.513	1	-5
457.683	1	0
457.854	1	4
458.024	1	-3
458.195	1	-10
458.365	1	5
458.536	1	7
458.706	1	10
458.877	1	-8
459.047	1	5
459.218	1	-2
459.388	1	1
459.559	1	1
459.729	1	0
459.899	1	8
460.070	1	3
460.240	1	-5
460.411	1	2
460.581	1	2
460.752	1	1
460.922	1	2
461.093	1	-2
461.263	1	6
461.434	1	6
461.604	1	6
461.775	1	9
461.945	1	10
462.115	1	7
462.286	1	1
462.456	1	3
462.627	1	0
462.797	1	-5
462.968	1	-5
463.138	1	-4
463.309	1	0
463.479	1	9
463.649	1	9
463.820	1	1
463.990	1	4
464.161	1	-5
464.331	1	3
464.502	1	-5
464.672	1	-3
464.843	1	-4
465.013	1	-23
465.183	1	6
465.354	1	8
465.524	1	-3
465.695	1	-4
465.865	1	-5
466.036	1	1
466.206	1	-2
466.376	1	5
466.547	1	0
466.717	1	7
466.888	1	-4
467.058	1	8
467.229	1	1
467.399	1	0
467.569	1	6
467.740	1	0
467.910	1	3
468.081	1	5
468.251	1	9
468.422	1	4
468.592	1	6
468.762	1	-10
468.933	1	6
469.103	1	-7
469.274	1	10
469.444	1	6
469.614	1	-6
469.785	1	13
469.955	1	4
470.126	1	0
470.296	1	0
470.467	1	-12
470.637	1	5
470.807	1	-1
470.978	1	-1
471.148	1	6
471.319	1	-1
471.489	1	-1
471.659	1	-6
471.830	1	-1
472.000	1	-10
472.171	1	8
472.341	1	4
472.511	1	20
472.682	1	-2
472.852	1	6
473.023	1	-4
473.193	1	6
473.363	1	9
473.534	1	9
473.704	1	-10
473.875	1	-6
474.045	1	3
474.215	1	9
474.386	1	5
474.556	1	10
474.727	1	6
474.897	1	-6
475.067	1	-2
475.238	1	-3
475.408	1	5
475.578	1	-3
475.749	1	4
475.919	1	1
476.090	1	17
476.260	1	-6
476.430	1	3
476.601	1	3
476.771	1	4
476.942	1	-3
477.112	1	-5
477.282	1	-3
477.453	1	-8
477.623	1	-1
477.793	1	5
477.964	1	1
478.134	1	7
478.305	1	-2
478.475	1	7
478.645	1	4
478.816	1	1
478.986	1	5
479.156	1	0
479.327	1	3
479.497	1	5
479.667	1	2
479.838	1	-4
480.008	1	-4
480.179	1	8
480.349	1	2
480.519	1	-8
480.690	1	-5
480.860	1	-4
481.030	1	3
481.201	1	8
481.371	1	16
481.541	1	-5
481.712	1	3
481.882	1	4
482.053	1	9
482.223	1	12
482.393	1	7
482.564	1	13
482.734	1	5
482.904	1	11
483.075	1	0
483.245	1	7
483.415	1	-1
483.586	1	14
483.756	1	-3
483.926	1	1
484.097	1	-2
484.267	1	7
484.437	1	11
484.608	1	8
484.778	1	3
484.948	1	-3
485.119	1	2
485.289	1	2
485.459	1	7
485.630	1	7
485.800	1	-1
485.970	1	9
486.141	1	9
486.311	1	-1
486.481	1	4
486.652	1	-5
486.822	1	6
486.992	1	3
487.163	1	12
487.333	1	-3
487.503	1	8
487.674	1	13
487.844	1	6
488.014	1	13
488.185	1	4
488.355	1	1
488.525	1	10
488.696	1	3
488.866	1	5
489.036	1	5
489.207	1	5
489.377	1	0
489.547	1	2
489.718	1	12
489.888	1	4
490.058	1	1
490.228	1	-5
490.399	1	6
490.569	1	10
490.739	1	-2
490.910	1	-3
491.080	1	5
491.250	1	7
491.421	1	2
491.591	1	-2
491.761	1	5
491.932	1	12
492.102	1	8
492.272	1	-1
492.442	1	0
492.613	1	-7
492.783	1	11
492.953	1	12
493.124	1	12
493.294	1	-5
493.464	1	5
493.635	1	10
493.805	1	11
493.975	1	-9
494.145	1	-5
494.316	1	14
494.486	1	0
494.656	1	8
494.827	1	-2
494.997	1	7
495.167	1	10
495.337	1	9
495.508	1	9
495.678	1	1
495.848	1	8
496.019	1	0
496.189	1	9
496.359	1	-2
496.529	1	8
496.700	1	3
496.870	1	5
497.040	1	8
497.211	1	9
497.381	1	10
497.551	1	3
497.721	1	1
497.892	1	11
498.062	1	-11
498.232	1	6
498.403	1	9
498.573	1	3
498.743	1	13
498.913	1	0
499.084	1	0
499.254	1	6
499.424	1	-2
499.594	1	2
499.765	1	11
499.935	1	5
500.105	1	23
500.275	1	18
500.446	1	16
500.616	1	-4
500.786	1	9
500.956	1	2
501.127	1	4
501.297	1	-6
501.467	1	3
501.638	1	4
501.808	1	1
501.978	1	9
502.148	1	6
502.319	1	5
502.489	1	8
502.659	1	17
502.829	1	11
503.000	1	10
503.170	1	12
503.340	1	0
503.510	1	6
503.681	1	6
503.851	1	4
504.021	1	-2
504.191	1	-2
504.362	1	-5
504.532	1	16
504.702	1	7
504.872	1	10
505.042	1	12
505.213	1	2
505.383	1	9
505.553	1	6
505.723	1	7
505.894	1	-3
506.064	1	-12
506.234	1	2
506.404	1	0
506.575	1	0
506.745	1	-3
506.915	1	9
507.085	1	9
507.256	1	4
507.426	1	3
507.596	1	11
507.766	1	9
507.936	1	12
508.107	1	9
508.277	1	14
508.447	1	21
508.617	1	-5
508.788	1	17
508.958	1	1
509.128	1	12
509.298	1	0
509.468	1	14
509.639	1	10
509.809	1	8
509.979	1	15
510.149	1	8
510.319	1	11
510.490	1	13
510.660	1	15
510.830	1	3
511.000	1	9
511.171	1	8
511.341	1	10
511.511	1	10
511.681	1	7
511.851	1	23
512.022	1	12
512.192	1	-5
512.362	1	21
512.532	1	8
512.702	1	1
512.873	1	1
513.043	1	10
513.213	1	9
513.383	1	5
513.553	1	17
513.724	1	13
513.894	1	11
514.064	1	7
514.234	1	15
514.404	1	21
514.575	1	3
514.745	1	2
514.915	1	7
515.085	1	15
515.255	1	12
515.425	1	11
515.596	1	19
515.766	1	6
515.936	1	15
516.106	1	10
516.276	1	6
516.447	1	9
516.617	1	6
516.787	1	11
516.957	1	12
517.127	1	18
517.297	1	16
517.468	1	10
517.638	1	11
517.808	1	4
517.978	1	6
518.148	1	15
518.319	1	12
518.489	1	19
518.659	1	16
518.829	1	11
518.999	1	7
519.169	1	13
519.340	1	13
519.510	1	-2
519.680	1	9
519.850	1	13
520.020	1	8
520.190	1	7
520.361	1	5
520.531	1	18
520.701	1	11
520.871	1	12
521.041	1	14
521.211	1	-2
521.382	1	5
521.552	1	12
521.722	1	9
521.892	1	9
522.062	1	18
522.232	1	8
522.402	1	2
522.573	1	24
522.743	1	4
522.913	1	14
523.083	1	10
523.253	1	4
523.423	1	20
523.593	1	12
523.764	1	17
523.934	1	8
524.104	1	12
524.274	1	3
524.444	1	12
524.614	1	10
524.784	1	1
524.955	1	13
525.125	1	0
525.295	1	8
525.465	1	9
525.635	1	15
525.805	1	9
525.975	1	11
526.146	1	15
526.316	1	12
526.486	1	24
526.656	1	19
526.826	1	10
526.996	1	8
527.166	1	16
527.337	1	7
527.507	1	16
527.677	1	5
527.847	1	14
528.017	1	3
528.187	1	0
528.357	1	11
528.527	1	7
528.698	1	3
528.868	1	9
529.038	1	23
529.208	1	13
529.378	1	4
529.548	1	23
529.718	1	11
529.888	1	10
530.058	1	5
530.229	1	20
530.399	1	8
530.569	1	0
530.739	1	12
530.909	1	14
531.079	1	22
531.249	1	13
531.419	1	3
531.589	1	7
531.760	1	9
531.930	1	10
532.100	1	7
532.270	1	12
532.440	1	2
532.610	1	5
532.780	1	6
532.950	1	27
533.120	1	15
533.290	1	6
533.461	1	6
533.631	1	6
533.801	1	0
533.971	1	15
534.141	1	6
534.311	1	21
534.481	1	12
534.651	1	10
534.821	1	7
534.991	1	5
535.162	1	12
535.332	1	-5
535.502	1	11
535.672	1	20
535.842	1	10
536.012	1	4
536.182	1	8
536.352	1	6
536.522	1	7
536.692	1	10
536.862	1	3
537.032	1	17
537.203	1	19
537.373	1	10
537.543	1	20
537.713	1	4
537.883	1	21
538.053	1	5
538.223	1	10
538.393	1	8
538.563	1	17
538.733	1	6
538.903	1	11
539.073	1	9
539.243	1	13
539.413	1	-1
539.584	1	11
539.754	1	7
539.924	1	18
540.094	1	12
540.264	1	8
540.434	1	9
540.604	1	8
540.774	1	18
540.944	1	6
541.114	1	9
541.284	1	5
541.454	1	5
541.624	1	11
541.794	1	9
541.964	1	9
542.134	1	5
542.305	1	22
542.475	1	12
542.645	1	12
542.815	1	7
542.985	1	14
543.155	1	4
543.325	1	4
543.495	1	10
543.665	1	14
543.835	1	13
544.005	1	0
544.175	1	1
544.345	1	8
544.515	1	14
544.685	1	12
544.855	1	11
545.025	1	4
545.195	1	2
545.365	1	6
545.535	1	6
545.705	1	11
545.875	1	11
546.045	1	18
546.216	1	3
546.386	1	19
546.556	1	15
546.726	1	18
546.896	1	4
547.066	1	4
547.236	1	10
547.406	1	5
547.576	1	7
547.746	1	10
547.916	1	9
548.086	1	13
548.256	1	18
548.426	1	14
548.596	1	-1
548.766	1	18
548.936	1	6
549.106	1	17
549.276	1	17
549.446	1	17
549.616	1	19
549.786	1	8
549.956	1	7
550.126	1	23
550.296	1	5
550.466	1	7
550.636	1	6
550.806	1	11
550.976	1	-6
551.146	1	1
551.316	1	13
551.486	1	16
551.656	1	15
551.826	1	2
551.996	1	4
552.166	1	6
552.336	1	5
552.506	1	-1
552.676	1	18
552.846	1	6
553.016	1	17
553.186	1	11
553.356	1	14
553.526	1	4
553.696	1	7
553.866	1	5
554.036	1	4
554.206	1	-4
554.376	1	9
554.546	1	11
554.716	1	13
554.886	1	10
555.056	1	10
555.226	1	12
555.396	1	6
555.566	1	11
555.736	1	0
555.906	1	13
556.076	1	20
556.246	1	18
556.416	1	1
556.586	1	16
556.756	1	16
556.926	1	9
557.096	1	17
557.266	1	6
557.436	1	11
557.606	1	-2
557.776	1	-3
557.946	1	13
558.116	1	0
558.286	1	2
558.456	1	10
558.626	1	15
558.796	1	6
558.966	1	14
559.136	1	5
559.306	1	7
559.476	1	17
559.646	1	12
559.816	1	12
559.986	1	7
560.155	1	19
560.325	1	8
560.495	1	-2
560.665	1	30
560.835	1	19
561.005	1	18
561.175	1	12
561.345	1	5
561.515	1	4
561.685	1	9
561.855	1	3
562.025	1	10
562.195	1	12
562.365	1	17
562.535	1	8
562.705	1	7
562.875	1	15
563.045	1	11
563.215	1	6
563.385	1	5
563.555	1	7
563.725	1	6
563.895	1	13
564.064	1	5
564.234	1	7
564.404	1	2
564.574	1	-3
564.744	1	4
564.914	1	12
565.084	1	19
565.254	1	9
565.424	1	19
565.594	1	20
565.764	1	10
565.934	1	9
566.104	1	-1
566.274	1	-1
566.444	1	13
566.614	1	7
566.783	1	14
566.953	1	1
567.123	1	3
567.293	1	10
567.463	1	2
567.633	1	9
567.803	1	10
567.973	1	8
568.143	1	8
568.313	1	0
568.483	1	11
568.653	1	12
568.823	1	6
568.993	1	16
569.162	1	17
569.332	1	8
569.502	1	1
569.672	1	-2
569.842	1	15
570.012	1	6
570.182	1	3
570.352	1	10
570.522	1	7
570.692	1	8
570.862	1	9
571.031	1	5
571.201	1	-2
571.371	1	2
571.541	1	3
571.711	1	20
571.881	1	2
572.051	1	9
572.221	1	12
572.391	1	16
572.561	1	5
572.731	1	8
572.900	1	6
573.070	1	4
573.240	1	2
573.410	1	-2
573.580	1	7
573.750	1	-5
573.920	1	-3
574.090	1	4
574.260	1	15
574.430	1	3
574.599	1	13
574.769	1	10
574.939	1	8
575.109	1	3
575.279	1	1
575.449	1	8
575.619	1	-2
575.789	1	9
575.959	1	8
576.128	1	22
576.298	1	9
576.468	1	3
576.638	1	7
576.808	1	9
576.978	1	13
577.148	1	1
577.318	1	-2
577.487	1	10
577.657	1	5
577.827	1	4
577.997	1	9
578.167	1	2
578.337	1	-2
578.507	1	0
578.677	1	0
578.846	1	6
579.016	1	11
579.186	1	10
579.356	1	1
579.526	1	1
579.696	1	15
579.866	1	0
580.036	1	-1
580.205	1	7
580.375	1	9
580.545	1	3
580.715	1	4
580.885	1	10
581.055	1	4
581.225	1	1
581.394	1	4
581.564	1	12
581.734	1	-6
581.904	1	4
582.074	1	4
582.244	1	10
582.414	1	0
582.583	1	1
582.753	1	-1
582.923	1	6
583.093	1	4
583.263	1	12
583.433	1	6
583.603	1	11
583.772	1	-4
583.942	1	-5
584.112	1	1
584.282	1	7
584.452	1	7
584.622	1	-1
584.791	1	-3
584.961	1	14
585.131	1	1
585.301	1	7
585.471	1	-9
585.641	1	4
585.811	1	7
585.980	1	9
586.150	1	8
586.320	1	3
586.490	1	3
586.660	1	1
586.830	1	3
586.999	1	3
587.169	1	-2
587.339	1	-3
587.509	1	6
587.679	1	5
587.849	1	4
588.018	1	2
588.188	1	-1
588.358	1	11
588.528	1	0
588.698	1	-2
588.867	1	5
589.037	1	7
589.207	1	-12
589.377	1	-2
589.547	1	11
589.717	1	6
589.886	1	7
590.056	1	3
590.226	1	10
590.396	1	5
590.566	1	-6
590.735	1	3
590.905	1	3
591.075	1	9
591.245	1	-4
591.415	1	6
591.585	1	0
591.754	1	17
591.924	1	-1
592.094	1	1
592.264	1	-2
592.434	1	7
592.603	1	-4
592.773	1	7
592.943	1	13
593.113	1	4
593.283	1	9
593.452	1	11
593.622	1	-7
593.792	1	11
593.962	1	11
594.132	1	10
594.301	1	4
594.471	1	13
594.641	1	-8
594.811	1	11
594.981	1	10
595.150	1	4
595.320	1	-1
595.490	1	-1
595.660	1	12
595.829	1	11
595.999	1	-4
596.169	1	-3
596.339	1	2
596.509	1	-2
596.678	1	-5
596.848	1	7
597.018	1	6
597.188	1	13
597.358	1	-6
597.527	1	1
597.697	1	0
597.867	1	16
598.037	1	9
598.206	1	12
598.376	1	-2
598.546	1	0
598.716	1	9
598.885	1	10
599.055	1	2
599.225	1	3
599.395	1	13
599.565	1	-6
599.734	1	12
599.904	1	3
600.074	1	-5
600.244	1	6
600.413	1	1
600.583	1	11
600.753	1	6
600.923	1	4
601.092	1	15
601.262	1	-2
601.432	1	3
601.602	1	1
601.771	1	8
601.941	1	15
602.111	1	9
602.281	1	1
602.451	1	-1
602.620	1	1
602.790	1	6
602.960	1	-2
603.130	1	1
603.299	1	2
603.469	1	-4
603.639	1	-4
603.809	1	9
603.978	1	8
604.148	1	2
604.318	1	3
604.487	1	3
604.657	1	4
604.827	1	7
604.997	1	1
605.166	1	-1
605.336	1	12
605.506	1	8
605.676	1	25
605.845	1	-4
606.015	1	8
606.185	1	-4
606.355	1	7
606.524	1	-7
606.694	1	4
606.864	1	-8
607.034	1	-4
607.203	1	0
607.373	1	15
607.543	1	3
607.712	1	9
607.882	1	6
608.052	1	12
608.222	1	-11
608.391	1	-3
608.561	1	5
608.731	1	0
608.901	1	10
609.070	1	5
609.240	1	5
609.410	1	12
609.579	1	3
609.749	1	-2
609.919	1	5
610.089	1	0
610.258	1	9
610.428	1	2
610.598	1	-2
610.767	1	5
610.937	1	-2
611.107	1	5
611.277	1	14
611.446	1	10
611.616	1	15
611.786	1	8
611.955	1	0
612.125	1	9
612.295	1	8
612.465	1	13
612.634	1	5
612.804	1	10
612.974	1	12
613.143	1	-4
613.313	1	3
613.483	1	-11
613.652	1	0
613.822	1	9
613.992	1	8
614.162	1	5
614.331	1	-1
614.501	1	-6
614.671	1	-8
614.840	1	15
615.010	1	1
615.180	1	2
615.349	1	8
615.519	1	6
615.689	1	1
615.858	1	-4
616.028	1	1
616.198	1	-1
616.368	1	13
616.537	1	7
616.707	1	-1
616.877	1	2
617.046	1	3
617.216	1	10
617.386	1	-3
617.555	1	2
617.725	1	3
617.895	1	9
618.064	1	-3
618.234	1	3
618.404	1	5
618.573	1	2
618.743	1	9
618.913	1	4
619.082	1	12
619.252	1	6
619.422	1	2
619.591	1	4
619.761	1	-3
619.931	1	-1
620.100	1	0
620.270	1	3
620.440	1	9
620.609	1	6
620.779	1	-9
620.949	1	1
621.118	1	3
621.288	1	11
621.458	1	3
621.627	1	-5
621.797	1	13
621.967	1	5
622.136	1	0
622.306	1	-1
622.476	1	4
622.645	1	10
622.815	1	-4
622.985	1	10
623.154	1	2
623.324	1	-2
623.494	1	6
623.663	1	0
623.833	1	-8
624.002	1	4
624.172	1	9
624.342	1	2
624.511	1	7
624.681	1	-3
624.851	1	-1
625.020	1	7
625.190	1	15
625.360	1	12
625.529	1	2
625.699	1	0
625.869	1	0
626.038	1	-5
626.208	1	3
626.377	1	-3
626.547	1	4
626.717	1	9
626.886	1	15
627.056	1	8
627.226	1	4
627.395	1	-10
627.565	1	-12
627.735	1	3
627.904	1	-7
628.074	1	-1
628.243	1	1
628.413	1	7
628.583	1	4
628.752	1	5
628.922	1	1
629.091	1	1
629.261	1	-4
629.431	1	1
629.600	1	0
629.770	1	1
629.940	1	10
630.109	1	5
630.279	1	-8
630.448	1	-2
630.618	1	0
630.788	1	-5
630.957	1	1
631.127	1	5
631.297	1	-8
631.466	1	1
631.636	1	-8
631.805	1	-5
631.975	1	8
632.145	1	0
632.314	1	-1
632.484	1	-3
632.653	1	2
632.823	1	5
632.993	1	-4
633.162	1	3
633.332	1	12
633.501	1	-2
633.671	1	1
633.841	1	10
634.010	1	7
634.180	1	-7
634.349	1	0
634.519	1	17
634.689	1	8
634.858	1	-3
635.028	1	2
635.197	1	10
635.367	1	-3
635.537	1	1
635.706	1	6
635.876	1	2
636.045	1	-9
636.215	1	5
636.384	1	2
636.554	1	-5
636.724	1	-2
636.893	1	-2
637.063	1	9
637.232	1	0
637.402	1	-3
637.572	1	-5
637.741	1	3
637.911	1	2
638.080	1	5
638.250	1	1
638.419	1	3
638.589	1	-3
638.759	1	5
638.928	1	8
639.098	1	-2
639.267	1	-7
639.437	1	7
639.606	1	4
639.776	1	9
639.946	1	-3
640.115	1	7
640.285	1	-2
640.454	1	5
640.624	1	-8
640.793	1	1
640.963	1	3
641.132	1	-5
641.302	1	13
641.472	1	9
641.641	1	11
641.811	1	3
641.980	1	15
642.150	1	-16
642.319	1	4
642.489	1	0
642.659	1	6
642.828	1	-10
642.998	1	-1
643.167	1	0
643.337	1	14
643.506	1	-14
643.676	1	2
643.845	1	-5
644.015	1	2
644.184	1	7
644.354	1	-6
644.524	1	-1
644.693	1	-9
644.863	1	1
645.032	1	1
645.202	1	0
645.371	1	2
645.541	1	-2
645.710	1	13
645.880	1	1
646.049	1	7
646.219	1	3
646.388	1	9
646.558	1	-11
646.728	1	14
646.897	1	-5
647.067	1	1
647.236	1	-6
647.406	1	13
647.575	1	7
647.745	1	-6
647.914	1	0
648.084	1	0
648.253	1	-2
648.423	1	6
648.592	1	-3
648.762	1	-6
648.931	1	-10
649.101	1	3
649.270	1	4
649.440	1	-2
649.610	1	5
649.779	1	9
649.949	1	0
650.118	1	2
650.288	1	9
650.457	1	-7
650.627	1	6
650.796	1	3
650.966	1	11
651.135	1	0
651.305	1	3
651.474	1	10
651.644	1	13
651.813	1	1
651.983	1	10
652.152	1	5
652.322	1	-2
652.491	1	3
652.661	1	10
652.830	1	2
653.000	1	-2
653.169	1	13
653.339	1	2
653.508	1	4
653.678	1	7
653.847	1	-6
654.017	1	9
654.186	1	4
654.356	1	4
654.525	1	-7
654.695	1	6
654.864	1	3
655.034	1	14
655.203	1	1
655.373	1	0
655.542	1	-10
655.712	1	4
655.881	1	6
656.051	1	2
656.220	1	5
656.390	1	13
656.559	1	2
656.729	1	0
656.898	1	-11
657.068	1	11
657.237	1	0
657.406	1	-6
657.576	1	6
657.745	1	0
657.915	1	-2
658.084	1	6
658.254	1	6
658.423	1	14
658.593	1	2
658.762	1	-1
658.932	1	-3
659.101	1	3
659.271	1	0
659.440	1	9
659.610	1	6
659.779	1	3
659.949	1	2
660.118	1	13
660.288	1	2
660.457	1	4
660.626	1	2
660.796	1	-3
660.965	1	1
661.135	1	-11
661.304	1	17
661.474	1	6
661.643	1	11
661.813	1	-4
661.982	1	-3
662.152	1	5
662.321	1	3
662.491	1	6
662.660	1	6
662.829	1	5
662.999	1	-8
663.168	1	-1
663.338	1	2
663.507	1	2
663.677	1	6
663.846	1	7
664.016	1	1
664.185	1	4
664.354	1	0
664.524	1	4
664.693	1	6
664.863	1	5
665.032	1	7
665.202	1	-1
665.371	1	-3
665.541	1	-6
665.710	1	-5
665.879	1	-5
666.049	1	-2
666.218	1	-1
666.388	1	9
666.557	1	11
666.727	1	1
666.896	1	-1
667.065	1	6
667.235	1	0
667.404	1	3
667.574	1	7
667.743	1	6
667.913	1	6
668.082	1	15
668.251	1	-2
668.421	1	0
668.590	1	6
668.760	1	-2
668.929	1	11
669.099	1	7
669.268	1	3
669.437	1	-1
669.607	1	-3
669.776	1	2
669.946	1	16
670.115	1	-3
670.285	1	-4
670.454	1	11
670.623	1	11
670.793	1	-2
670.962	1	-8
671.132	1	-4
671.301	1	4
671.470	1	18
671.640	1	0
671.809	1	6
671.979	1	-11
672.148	1	3
672.317	1	-1
672.487	1	8
672.656	1	12
672.826	1	2
672.995	1	2
673.164	1	2
673.334	1	5
673.503	1	-8
673.673	1	4
673.842	1	-3
674.011	1	-3
674.181	1	7
674.350	1	-4
674.520	1	8
674.689	1	-2
674.858	1	0
675.028	1	-1
675.197	1	8
675.367	1	-1
675.536	1	1
675.705	1	9
675.875	1	7
676.044	1	2
676.214	1	3
676.383	1	-8
676.552	1	-9
676.722	1	2
676.891	1	14
677.060	1	5
677.230	1	3
677.399	1	10
677.569	1	3
677.738	1	4
677.907	1	-12
678.077	1	-3
678.246	1	0
678.416	1	6
678.585	1	6
678.754	1	5
678.924	1	-3
679.093	1	5
679.262	1	-12
679.432	1	7
679.601	1	-6
679.771	1	12
679.940	1	14
680.109	1	-3
680.279	1	9
680.448	1	-3
680.617	1	3
680.787	1	-3
680.956	1	-9
681.125	1	5
681.295	1	3
681.464	1	6
681.634	1	12
681.803	1	11
681.972	1	4
682.142	1	-6
682.311	1	-6
682.480	1	-2
682.650	1	1
682.819	1	-6
682.988	1	-2
683.158	1	4
683.327	1	12
683.496	1	-2
683.666	1	1
683.835	1	1
684.004	1	2
684.174	1	-6
684.343	1	-8
684.512	1	10
684.682	1	4
684.851	1	5
685.021	1	2
685.190	1	2
685.359	1	6
685.529	1	-15
685.698	1	8
685.867	1	-6
686.037	1	-5
686.206	1	3
686.375	1	5
686.545	1	7
686.714	1	7
686.883	1	8
687.053	1	-7
687.222	1	4
687.391	1	-1
687.561	1	0
687.730	1	1
687.899	1	9
688.069	1	4
688.238	1	5
688.407	1	4
688.577	1	15
688.746	1	0
