340.368	1	-3
340.539	1	5
340.710	1	9
340.881	1	-19
341.052	1	-1
341.223	1	8
341.394	1	-7
341.565	1	-1
341.737	1	3
341.908	1	1
342.079	1	-7
342.250	1	8
342.421	1	13
342.592	1	8
342.763	1	6
342.934	1	15
343.105	1	1
343.276	1	-12
343.447	1	6
343.618	1	-12
343.789	1	13
343.960	1	1
344.131	1	1
344.302	1	-10
344.473	1	-7
344.644	1	-6
344.815	1	12
344.986	1	-2
345.157	1	-11
345.328	1	16
345.499	1	1
345.670	1	1
345.841	1	2
346.012	1	2
346.183	1	-5
346.354	1	11
346.526	1	6
346.697	1	5
346.868	1	-8
347.039	1	8
347.210	1	3
347.381	1	-5
347.552	1	4
347.723	1	1
347.894	1	-7
348.065	1	2
348.236	1	6
348.407	1	-3
348.578	1	-2
348.749	1	3
348.920	1	-2
349.091	1	-1
349.262	1	-5
349.433	1	2
349.604	1	0
349.775	1	6
349.946	1	11
350.117	1	3
350.288	1	-9
350.459	1	5
350.630	1	-3
350.801	1	2
350.972	1	3
351.143	1	-5
351.314	1	7
351.485	1	-4
351.656	1	-4
351.827	1	-16
351.998	1	-3
352.169	1	1
352.340	1	-2
352.511	1	-1
352.682	1	0
352.853	1	2
353.024	1	6
353.195	1	-6
353.366	1	0
353.537	1	-5
353.708	1	4
353.879	1	-3
354.050	1	-1
354.221	1	-8
354.392	1	-2
354.563	1	0
354.734	1	2
354.905	1	3
355.076	1	-4
355.247	1	2
355.418	1	-2
355.589	1	0
355.760	1	-5
355.931	1	0
356.102	1	1
356.273	1	-6
356.444	1	0
356.615	1	5
356.785	1	0
356.956	1	0
357.127	1	1
357.298	1	3
357.469	1	-9
357.640	1	-3
357.811	1	-2
357.982	1	-2
358.153	1	-7
358.324	1	6
358.495	1	1
358.666	1	-2
358.837	1	9
359.008	1	13
359.179	1	4
359.350	1	-9
359.521	1	-1
359.692	1	-7
359.863	1	-3
360.034	1	1
360.205	1	-2
360.376	1	12
360.547	1	-4
360.718	1	2
360.889	1	-5
361.060	1	16
361.231	1	7
361.401	1	4
361.572	1	2
361.743	1	-11
361.914	1	-4
362.085	1	7
362.256	1	6
362.427	1	1
362.598	1	-6
362.769	1	1
362.940	1	1
363.111	1	9
363.282	1	0
363.453	1	14
363.624	1	7
363.795	1	-3
363.966	1	-2
364.137	1	3
364.308	1	6
364.478	1	-9
364.649	1	-5
364.820	1	1
364.991	1	1
365.162	1	-5
365.333	1	-1
365.504	1	-1
365.675	1	-8
365.846	1	-5
366.017	1	6
366.188	1	15
366.359	1	0
366.530	1	-3
366.701	1	-10
366.871	1	4
367.042	1	4
367.213	1	3
367.384	1	5
367.555	1	-6
367.726	1	-2
367.897	1	-1
368.068	1	2
368.239	1	-12
368.410	1	1
368.581	1	-6
368.752	1	3
368.923	1	1
369.093	1	-3
369.264	1	3
369.435	1	-4
369.606	1	6
369.777	1	11
369.948	1	9
370.119	1	-1
370.290	1	1
370.461	1	7
370.632	1	7
370.803	1	-5
370.973	1	0
371.144	1	1
371.315	1	2
371.486	1	5
371.657	1	8
371.828	1	2
371.999	1	11
372.170	1	-6
372.341	1	6
372.512	1	-3
372.682	1	2
372.853	1	-3
373.024	1	1
373.195	1	2
373.366	1	-3
373.537	1	1
373.708	1	3
373.879	1	0
374.050	1	-2
374.220	1	-6
374.391	1	7
374.562	1	11
374.733	1	3
374.904	1	-13
375.075	1	-12
375.246	1	-4
375.417	1	12
375.588	1	-10
375.758	1	-11
375.929	1	-5
376.100	1	1
376.271	1	-1
376.442	1	-1
376.613	1	-2
376.784	1	-5
376.955	1	3
377.125	1	6
377.296	1	2
377.467	1	1
377.638	1	0
377.809	1	-2
377.980	1	6
378.151	1	-9
378.321	1	1
378.492	1	-1
378.663	1	0
378.834	1	0
379.005	1	10
379.176	1	-9
379.347	1	-8
379.518	1	-6
379.688	1	-8
379.859	1	6
380.030	1	-5
380.201	1	0
380.372	1	11
380.543	1	6
380.714	1	4
380.884	1	7
381.055	1	1
381.226	1	-1
381.397	1	-4
381.568	1	7
381.739	1	-2
381.910	1	10
382.080	1	2
382.251	1	2
382.422	1	2
382.593	1	-4
382.764	1	-4
382.935	1	-3
383.105	1	5
383.276	1	1
383.447	1	-3
383.618	1	-10
383.789	1	2
383.960	1	-2
384.130	1	4
384.301	1	-3
384.472	1	-3
384.643	1	-8
384.814	1	2
384.985	1	5
385.156	1	-1
385.326	1	-3
385.497	1	2
385.668	1	6
385.839	1	-4
386.010	1	1
386.180	1	-5
386.351	1	-4
386.522	1	10
386.693	1	-2
386.864	1	-1
387.035	1	1
387.205	1	8
387.376	1	-13
387.547	1	6
387.718	1	4
387.889	1	-11
388.060	1	9
388.230	1	3
388.401	1	-1
388.572	1	0
388.743	1	3
388.914	1	-8
389.084	1	3
389.255	1	10
389.426	1	2
389.597	1	-17
389.768	1	14
389.939	1	-1
390.109	1	-5
390.280	1	2
390.451	1	6
390.622	1	-2
390.793	1	-2
390.963	1	-4
391.134	1	2
391.305	1	-8
391.476	1	-2
391.647	1	-2
391.817	1	4
391.988	1	8
392.159	1	3
392.330	1	-8
392.501	1	0
392.671	1	0
392.842	1	4
393.013	1	9
393.184	1	-2
393.355	1	-1
393.525	1	4
393.696	1	0
393.867	1	2
394.038	1	-3
394.208	1	3
394.379	1	1
394.550	1	0
394.721	1	-8
394.892	1	-4
395.062	1	-7
395.233	1	-1
395.404	1	0
395.575	1	10
395.746	1	9
395.916	1	2
396.087	1	0
396.258	1	13
396.429	1	-12
396.599	1	-4
396.770	1	2
396.941	1	-10
397.112	1	4
397.283	1	-2
397.453	1	2
397.624	1	1
397.795	1	0
397.966	1	-1
398.136	1	-2
398.307	1	2
398.478	1	-7
398.649	1	3
398.819	1	-3
398.990	1	-9
399.161	1	-11
399.332	1	2
399.503	1	5
399.673	1	7
399.844	1	-3
400.015	1	4
400.186	1	6
400.356	1	0
400.527	1	-8
400.698	1	0
400.869	1	-4
401.039	1	-1
401.210	1	-5
401.381	1	-3
401.552	1	8
401.722	1	6
401.893	1	5
402.064	1	-7
402.235	1	-3
402.405	1	-6
402.576	1	6
402.747	1	3
402.918	1	7
403.088	1	-16
403.259	1	8
403.430	1	10
403.601	1	4
403.771	1	-5
403.942	1	-2
404.113	1	-6
404.284	1	3
404.454	1	-8
404.625	1	6
404.796	1	-9
404.967	1	14
405.137	1	-2
405.308	1	10
405.479	1	-12
405.649	1	-3
405.820	1	-2
405.991	1	8
406.162	1	-11
406.332	1	6
406.503	1	4
406.674	1	17
406.845	1	-4
407.015	1	0
407.186	1	-1
407.357	1	2
407.527	1	-4
407.698	1	5
407.869	1	-10
408.040	1	-1
408.210	1	4
408.381	1	8
408.552	1	6
408.722	1	10
408.893	1	4
409.064	1	1
409.235	1	-8
409.405	1	3
409.576	1	5
409.747	1	-6
409.917	1	4
410.088	1	1
410.259	1	4
410.430	1	-3
410.600	1	17
410.771	1	6
410.942	1	2
411.112	1	4
411.283	1	-3
411.454	1	3
411.625	1	-5
411.795	1	3
411.966	1	0
412.137	1	0
412.307	1	6
412.478	1	-2
412.649	1	6
412.819	1	0
412.990	1	-4
413.161	1	-6
413.332	1	-2
413.502	1	-3
413.673	1	10
413.844	1	5
414.014	1	7
414.185	1	2
414.356	1	8
414.526	1	0
414.697	1	-3
414.868	1	-11
415.038	1	12
415.209	1	5
415.380	1	-8
415.550	1	-1
415.721	1	7
415.892	1	1
416.063	1	2
416.233	1	1
416.404	1	-4
416.575	1	7
416.745	1	5
416.916	1	-6
417.087	1	10
417.257	1	-8
417.428	1	3
417.599	1	-1
417.769	1	-7
417.940	1	13
418.111	1	4
418.281	1	7
418.452	1	-1
418.623	1	3
418.793	1	8
418.964	1	-8
419.135	1	9
419.305	1	-4
419.476	1	8
419.647	1	-11
419.817	1	-9
419.988	1	6
420.159	1	-19
420.329	1	4
420.500	1	-6
420.671	1	2
420.841	1	3
421.012	1	12
421.183	1	-2
421.353	1	10
421.524	1	1
421.695	1	-1
421.865	1	4
422.036	1	-17
422.206	1	-1
422.377	1	5
422.548	1	-2
422.718	1	11
422.889	1	5
423.060	1	4
423.230	1	-1
423.401	1	-11
423.572	1	-5
423.742	1	0
423.913	1	-7
424.084	1	-5
424.254	1	-2
424.425	1	3
424.595	1	-1
424.766	1	11
424.937	1	-2
425.107	1	1
425.278	1	3
425.449	1	-4
425.619	1	5
425.790	1	-3
425.961	1	-5
426.131	1	-2
426.302	1	2
426.472	1	6
426.643	1	-8
426.814	1	-4
426.984	1	2
427.155	1	17
427.326	1	-2
427.496	1	-2
427.667	1	3
427.837	1	6
428.008	1	1
428.179	1	4
428.349	1	11
428.520	1	7
428.691	1	-3
428.861	1	-8
429.032	1	-1
429.202	1	-4
429.373	1	-1
429.544	1	-12
429.714	1	3
429.885	1	11
430.055	1	9
430.226	1	0
430.397	1	9
430.567	1	8
430.738	1	4
430.909	1	-2
431.079	1	4
431.250	1	5
431.420	1	7
431.591	1	5
431.762	1	2
431.932	1	-1
432.103	1	5
432.273	1	4
432.444	1	3
432.615	1	-3
432.785	1	0
432.956	1	0
433.126	1	5
433.297	1	2
433.468	1	0
433.638	1	-7
433.809	1	-9
433.979	1	0
434.150	1	6
434.320	1	1
434.491	1	7
434.662	1	-2
434.832	1	2
435.003	1	-1
435.173	1	5
435.344	1	4
435.515	1	0
435.685	1	-5
435.856	1	4
436.026	1	-11
436.197	1	-10
436.368	1	1
436.538	1	8
436.709	1	-3
436.879	1	-3
437.050	1	7
437.220	1	0
437.391	1	1
437.562	1	-4
437.732	1	-1
437.903	1	-3
438.073	1	-1
438.244	1	1
438.414	1	-3
438.585	1	0
438.756	1	-4
438.926	1	10
439.097	1	-3
439.267	1	2
439.438	1	3
439.608	1	-12
439.779	1	1
439.949	1	9
440.120	1	2
440.291	1	8
440.461	1	1
440.632	1	-2
440.802	1	-2
440.973	1	8
441.143	1	-3
441.314	1	-7
441.485	1	-6
441.655	1	-3
441.826	1	-1
441.996	1	2
442.167	1	-1
442.337	1	7
442.508	1	0
442.678	1	-2
442.849	1	4
443.019	1	1
443.190	1	1
443.361	1	-1
443.531	1	8
443.702	1	-3
443.872	1	15
444.043	1	-9
444.213	1	-6
444.384	1	-10
444.554	1	1
444.725	1	-1
444.895	1	-2
445.066	1	-6
445.237	1	-15
445.407	1	-2
445.578	1	-16
445.748	1	6
445.919	1	3
446.089	1	8
446.260	1	5
446.430	1	5
446.601	1	8
446.771	1	0
446.942	1	0
447.112	1	7
447.283	1	0
447.453	1	3
447.624	1	3
447.794	1	9
447.965	1	-3
448.135	1	-3
448.306	1	-5
448.477	1	-5
448.647	1	1
448.818	1	2
448.988	1	-3
449.159	1	5
449.329	1	-6
449.500	1	5
449.670	1	5
449.841	1	6
450.011	1	-2
450.182	1	-8
450.352	1	-12
450.523	1	-1
450.693	1	3
450.864	1	6
451.034	1	4
451.205	1	1
451.375	1	-2
451.546	1	9
451.716	1	0
451.887	1	-6
452.057	1	-4
452.228	1	8
452.398	1	4
452.569	1	-3
452.739	1	7
452.910	1	-4
453.080	1	-1
453.251	1	-6
453.421	1	5
453.592	1	0
453.762	1	0
453.933	1	4
454.103	1	-6
454.274	1	-14
454.444	1	-9
454.615	1	-6
454.785	1	-1
454.956	1	0
455.126	1	3
455.297	1	-7
455.467	1	-4
455.638	1	1
455.808	1	2
455.979	1	-6
456.149	1	5
456.320	1	-2
456.490	1	-8
456.661	1	3
456.831	1	4
457.001	1	5
457.172	1	6
457.342	1	3
457.513	1	-11
457.683	1	5
457.854	1	4
458.024	1	1
458.195	1	0
458.365	1	7
458.536	1	3
458.706	1	10
458.877	1	-5
459.047	1	7
459.218	1	-10
459.388	1	11
459.559	1	-9
459.729	1	-6
459.899	1	1
460.070	1	-1
460.240	1	-6
460.411	1	-12
460.581	1	7
460.752	1	-6
460.922	1	-5
461.093	1	8
461.263	1	7
461.434	1	9
461.604	1	-2
461.775	1	4
461.945	1	0
462.115	1	7
462.286	1	-11
462.456	1	-4
462.627	1	-4
462.797	1	-11
462.968	1	-7
463.138	1	-3
463.309	1	-5
463.479	1	-1
463.649	1	8
463.820	1	-5
463.990	1	1
464.161	1	10
464.331	1	0
464.502	1	-5
464.672	1	-8
464.843	1	2
465.013	1	-6
465.183	1	-2
465.354	1	6
465.524	1	2
465.695	1	5
465.865	1	-1
466.036	1	5
466.206	1	9
466.376	1	6
466.547	1	-5
466.717	1	6
466.888	1	10
467.058	1	-2
467.229	1	-13
467.399	1	4
467.569	1	-7
467.740	1	-7
467.910	1	2
468.081	1	5
468.251	1	3
468.422	1	2
468.592	1	6
468.762	1	7
468.933	1	3
469.103	1	3
469.274	1	2
469.444	1	-10
469.614	1	-1
469.785	1	9
469.955	1	5
470.126	1	4
470.296	1	2
470.467	1	4
470.637	1	5
470.807	1	-5
470.978	1	0
471.148	1	6
471.319	1	-6
471.489	1	1
471.659	1	-8
471.830	1	-5
472.000	1	-6
472.171	1	14
472.341	1	6
472.511	1	11
472.682	1	-1
472.852	1	-5
473.023	1	-7
473.193	1	0
473.363	1	1
473.534	1	-2
473.704	1	-9
473.875	1	-4
474.045	1	-7
474.215	1	2
474.386	1	15
474.556	1	13
474.727	1	4
474.897	1	-1
475.067	1	-6
475.238	1	-2
475.408	1	3
475.578	1	0
475.749	1	1
475.919	1	3
476.090	1	19
476.260	1	3
476.430	1	-4
476.601	1	4
476.771	1	7
476.942	1	2
477.112	1	-5
477.282	1	8
477.453	1	-9
477.623	1	-10
477.793	1	2
477.964	1	-1
478.134	1	0
478.305	1	2
478.475	1	4
478.645	1	-3
478.816	1	5
478.986	1	9
479.156	1	-3
479.327	1	-10
479.497	1	0
479.667	1	3
479.838	1	-6
480.008	1	2
480.179	1	3
480.349	1	-7
480.519	1	-11
480.690	1	-5
480.860	1	-8
481.030	1	6
481.201	1	9
481.371	1	6
481.541	1	-8
481.712	1	-10
481.882	1	-3
482.053	1	19
482.223	1	-3
482.393	1	4
482.564	1	-6
482.734	1	-1
482.904	1	-5
483.075	1	-7
483.245	1	6
483.415	1	-8
483.586	1	7
483.756	1	-10
483.926	1	6
484.097	1	-4
484.267	1	-5
484.437	1	5
484.608	1	5
484.778	1	0
484.948	1	-4
485.119	1	3
485.289	1	-2
485.459	1	17
485.630	1	-7
485.800	1	-4
485.970	1	1
486.141	1	1
486.311	1	2
486.481	1	-2
486.652	1	0
486.822	1	2
486.992	1	3
487.163	1	0
487.333	1	-7
487.503	1	4
487.674	1	5
487.844	1	3
488.014	1	6
488.185	1	-7
488.355	1	4
488.525	1	7
488.696	1	0
488.866	1	8
489.036	1	-9
489.207	1	-4
489.377	1	-3
489.547	1	4
489.718	1	-9
489.888	1	7
490.058	1	-7
490.228	1	6
490.399	1	7
490.569	1	0
490.739	1	-5
490.910	1	5
491.080	1	1
491.250	1	-10
491.421	1	-10
491.591	1	0
491.761	1	0
491.932	1	12
492.102	1	1
492.272	1	-4
492.442	1	-6
492.613	1	1
492.783	1	3
492.953	1	1
493.124	1	8
493.294	1	-6
493.464	1	9
493.635	1	-2
493.805	1	1
493.975	1	-3
494.145	1	-5
494.316	1	2
494.486	1	-10
494.656	1	2
494.827	1	3
494.997	1	6
495.167	1	5
495.337	1	21
495.508	1	9
495.678	1	0
495.848	1	11
496.019	1	-3
496.189	1	-5
496.359	1	-4
496.529	1	12
496.700	1	6
496.870	1	3
497.040	1	3
497.211	1	7
497.381	1	2
497.551	1	-7
497.721	1	2
497.892	1	-1
498.062	1	-1
498.232	1	2
498.403	1	3
498.573	1	7
498.743	1	4
498.913	1	-6
499.084	1	-6
499.254	1	7
499.424	1	-5
499.594	1	5
499.765	1	5
499.935	1	-3
500.105	1	6
500.275	1	8
500.446	1	9
500.616	1	-3
500.786	1	-4
500.956	1	-1
501.127	1	-2
501.297	1	8
501.467	1	-1
501.638	1	9
501.808	1	-13
501.978	1	5
502.148	1	3
502.319	1	5
502.489	1	4
502.659	1	6
502.829	1	8
503.000	1	-7
503.170	1	2
503.340	1	2
503.510	1	7
503.681	1	4
503.851	1	0
504.021	1	-9
504.191	1	-3
504.362	1	0
504.532	1	6
504.702	1	1
504.872	1	-1
505.042	1	-1
505.213	1	-9
505.383	1	5
505.553	1	3
505.723	1	5
505.894	1	1
506.064	1	-4
506.234	1	-3
506.404	1	-4
506.575	1	-5
506.745	1	-1
506.915	1	10
507.085	1	2
507.256	1	-4
507.426	1	4
507.596	1	0
507.766	1	-12
507.936	1	-5
508.107	1	-1
508.277	1	-3
508.447	1	13
508.617	1	-8
508.788	1	9
508.958	1	-5
509.128	1	6
509.298	1	-2
509.468	1	-1
509.639	1	1
509.809	1	3
509.979	1	9
510.149	1	-2
510.319	1	6
510.490	1	-2
510.660	1	-1
510.830	1	3
511.000	1	1
511.171	1	0
511.341	1	0
511.511	1	5
511.681	1	0
511.851	1	9
512.022	1	3
512.192	1	4
512.362	1	11
512.532	1	-4
512.702	1	-10
512.873	1	-3
513.043	1	2
513.213	1	3
513.383	1	5
513.553	1	12
513.724	1	-5
513.894	1	9
514.064	1	-6
514.234	1	4
514.404	1	-1
514.575	1	-3
514.745	1	-6
514.915	1	-13
515.085	1	4
515.255	1	4
515.425	1	10
515.596	1	-3
515.766	1	4
515.936	1	3
516.106	1	4
516.276	1	-2
516.447	1	3
516.617	1	3
516.787	1	-4
516.957	1	9
517.127	1	9
517.297	1	7
517.468	1	-11
517.638	1	6
517.808	1	-3
517.978	1	-4
518.148	1	2
518.319	1	-4
518.489	1	1
518.659	1	-1
518.829	1	4
518.999	1	3
519.169	1	-6
519.340	1	12
519.510	1	-11
519.680	1	5
519.850	1	-4
520.020	1	10
520.190	1	-4
520.361	1	2
520.531	1	17
520.701	1	2
520.871	1	8
521.041	1	9
521.211	1	0
521.382	1	-3
521.552	1	10
521.722	1	1
521.892	1	5
522.062	1	2
522.232	1	-4
522.402	1	-4
522.573	1	11
522.743	1	-2
522.913	1	3
523.083	1	1
523.253	1	1
523.423	1	0
523.593	1	9
523.764	1	1
523.934	1	0
524.104	1	-10
524.274	1	3
524.444	1	-3
524.614	1	6
524.784	1	-13
524.955	1	2
525.125	1	-7
525.295	1	-4
525.465	1	2
525.635	1	10
525.805	1	-1
525.975	1	-1
526.146	1	-8
526.316	1	-5
526.486	1	14
526.656	1	3
526.826	1	6
526.996	1	-5
527.166	1	9
527.337	1	-2
527.507	1	8
527.677	1	-2
527.847	1	12
528.017	1	-9
528.187	1	-9
528.357	1	0
528.527	1	-5
528.698	1	6
528.868	1	8
529.038	1	1
529.208	1	0
529.378	1	1
529.548	1	17
529.718	1	-10
529.888	1	7
530.058	1	5
530.229	1	11
530.399	1	5
530.569	1	-5
530.739	1	-4
530.909	1	1
531.079	1	5
531.249	1	-4
531.419	1	0
531.589	1	2
531.760	1	-9
531.930	1	2
532.100	1	2
532.270	1	-8
532.440	1	0
532.610	1	-6
532.780	1	-16
532.950	1	-1
533.120	1	17
533.290	1	-4
533.461	1	-2
533.631	1	4
533.801	1	-2
533.971	1	0
534.141	1	-7
534.311	1	13
534.481	1	-4
534.651	1	-12
534.821	1	5
534.991	1	-4
535.162	1	5
535.332	1	-8
535.502	1	4
535.672	1	12
535.842	1	1
536.012	1	-5
536.182	1	-4
536.352	1	-5
536.522	1	1
536.692	1	-2
536.862	1	-2
537.032	1	8
537.203	1	8
537.373	1	3
537.543	1	4
537.713	1	-5
537.883	1	7
538.053	1	-1
538.223	1	2
538.393	1	-6
538.563	1	-1
538.733	1	2
538.903	1	2
539.073	1	-2
539.243	1	4
539.413	1	-11
539.584	1	8
539.754	1	-15
539.924	1	3
540.094	1	-7
540.264	1	4
540.434	1	1
540.604	1	-2
540.774	1	-4
540.944	1	-3
541.114	1	7
541.284	1	1
541.454	1	-2
541.624	1	-15
541.794	1	-1
541.964	1	6
542.134	1	-5
542.305	1	17
542.475	1	3
542.645	1	-8
542.815	1	11
542.985	1	11
543.155	1	0
543.325	1	-11
543.495	1	2
543.665	1	-2
543.835	1	7
544.005	1	-2
544.175	1	-1
544.345	1	1
544.515	1	8
544.685	1	2
544.855	1	6
545.025	1	0
545.195	1	-3
545.365	1	-2
545.535	1	-3
545.705	1	2
545.875	1	0
546.045	1	3
546.216	1	-3
546.386	1	5
546.556	1	1
546.726	1	-6
546.896	1	6
547.066	1	-7
547.236	1	6
547.406	1	-16
547.576	1	-2
547.746	1	-4
547.916	1	-7
548.086	1	5
548.256	1	13
548.426	1	10
548.596	1	-11
548.766	1	10
548.936	1	-9
549.106	1	-4
549.276	1	-1
549.446	1	20
549.616	1	8
549.786	1	-3
549.956	1	5
550.126	1	6
550.296	1	7
550.466	1	-7
550.636	1	6
550.806	1	2
550.976	1	-14
551.146	1	-5
551.316	1	3
551.486	1	4
551.656	1	5
551.826	1	-6
551.996	1	-2
552.166	1	0
552.336	1	5
552.506	1	-2
552.676	1	7
552.846	1	2
553.016	1	6
553.186	1	3
553.356	1	2
553.526	1	6
553.696	1	3
553.866	1	-1
554.036	1	-7
554.206	1	-13
554.376	1	1
554.546	1	-2
554.716	1	4
554.886	1	3
555.056	1	4
555.226	1	8
555.396	1	-9
555.566	1	-2
555.736	1	-9
555.906	1	-2
556.076	1	11
556.246	1	-1
556.416	1	-6
556.586	1	10
556.756	1	15
556.926	1	10
557.096	1	2
557.266	1	9
557.436	1	-2
557.606	1	-9
557.776	1	-10
557.946	1	2
558.116	1	-2
558.286	1	7
558.456	1	3
558.626	1	6
558.796	1	-10
558.966	1	-2
559.136	1	1
559.306	1	-5
559.476	1	9
559.646	1	-1
559.816	1	5
559.986	1	-4
560.155	1	5
560.325	1	7
560.495	1	-6
560.665	1	12
560.835	1	4
561.005	1	9
561.175	1	1
561.345	1	7
561.515	1	-12
561.685	1	-3
561.855	1	-7
562.025	1	-14
562.195	1	3
562.365	1	0
562.535	1	6
562.705	1	9
562.875	1	5
563.045	1	2
563.215	1	2
563.385	1	-1
563.555	1	2
563.725	1	-10
563.895	1	10
564.064	1	-7
564.234	1	1
564.404	1	-5
564.574	1	-4
564.744	1	1
564.914	1	-6
565.084	1	5
565.254	1	2
565.424	1	10
565.594	1	11
565.764	1	5
565.934	1	10
566.104	1	-5
566.274	1	-9
566.444	1	6
566.614	1	2
566.783	1	1
566.953	1	-6
567.123	1	-6
567.293	1	2
567.463	1	-6
567.633	1	6
567.803	1	4
567.973	1	11
568.143	1	-1
568.313	1	-10
568.483	1	8
568.653	1	1
568.823	1	10
568.993	1	4
569.162	1	-1
569.332	1	14
569.502	1	-5
569.672	1	-9
569.842	1	4
570.012	1	6
570.182	1	-3
570.352	1	-10
570.522	1	-1
570.692	1	6
570.862	1	1
571.031	1	2
571.201	1	-4
571.371	1	-4
571.541	1	-4
571.711	1	5
571.881	1	-4
572.051	1	5
572.221	1	-4
572.391	1	7
572.561	1	-2
572.731	1	-4
572.900	1	6
573.070	1	0
573.240	1	3
573.410	1	4
573.580	1	-6
573.750	1	-6
573.920	1	-1
574.090	1	4
574.260	1	16
574.430	1	3
574.599	1	4
574.769	1	-2
574.939	1	3
575.109	1	-11
575.279	1	-1
575.449	1	0
575.619	1	-3
575.789	1	-3
575.959	1	-2
576.128	1	16
576.298	1	8
576.468	1	3
576.638	1	3
576.808	1	8
576.978	1	2
577.148	1	3
577.318	1	2
577.487	1	-6
577.657	1	-3
577.827	1	-4
577.997	1	-6
578.167	1	-9
578.337	1	5
578.507	1	-8
578.677	1	-15
578.846	1	3
579.016	1	-3
579.186	1	-7
579.356	1	-5
579.526	1	4
579.696	1	11
579.866	1	-2
580.036	1	-6
580.205	1	7
580.375	1	2
580.545	1	4
580.715	1	7
580.885	1	4
581.055	1	-3
581.225	1	-5
581.394	1	5
581.564	1	2
581.734	1	-7
581.904	1	-5
582.074	1	6
582.244	1	11
582.414	1	-11
582.583	1	-10
582.753	1	-9
582.923	1	2
583.093	1	7
583.263	1	9
583.433	1	0
583.603	1	10
583.772	1	-9
583.942	1	0
584.112	1	-12
584.282	1	-1
584.452	1	-5
584.622	1	5
584.791	1	-2
584.961	1	8
585.131	1	1
585.301	1	4
585.471	1	-6
585.641	1	-6
585.811	1	0
585.980	1	-1
586.150	1	7
586.320	1	-11
586.490	1	4
586.660	1	-1
586.830	1	7
586.999	1	-6
587.169	1	2
587.339	1	0
587.509	1	1
587.679	1	-1
587.849	1	-7
588.018	1	-1
588.188	1	1
588.358	1	1
588.528	1	0
588.698	1	0
588.867	1	3
589.037	1	-5
589.207	1	-12
589.377	1	-2
589.547	1	2
589.717	1	0
589.886	1	0
590.056	1	-6
590.226	1	8
590.396	1	9
590.566	1	-6
590.735	1	0
590.905	1	-7
591.075	1	1
591.245	1	-5
591.415	1	1
591.585	1	2
591.754	1	6
591.924	1	9
592.094	1	-3
592.264	1	0
592.434	1	-3
592.603	1	-1
592.773	1	-8
592.943	1	10
593.113	1	-5
593.283	1	10
593.452	1	9
593.622	1	-2
593.792	1	1
593.962	1	-3
594.132	1	1
594.301	1	2
594.471	1	7
594.641	1	-15
594.811	1	4
594.981	1	4
595.150	1	0
595.320	1	-1
595.490	1	-9
595.660	1	5
595.829	1	8
595.999	1	6
596.169	1	-6
596.339	1	0
596.509	1	-3
596.678	1	-2
596.848	1	10
597.018	1	8
597.188	1	3
597.358	1	-7
597.527	1	-9
597.697	1	-1
597.867	1	7
598.037	1	5
598.206	1	7
598.376	1	-2
598.546	1	-2
598.716	1	5
598.885	1	3
599.055	1	-3
599.225	1	-2
599.395	1	4
599.565	1	-10
599.734	1	8
599.904	1	-4
600.074	1	-2
600.244	1	1
600.413	1	-4
600.583	1	4
600.753	1	1
600.923	1	1
601.092	1	11
601.262	1	-2
601.432	1	0
601.602	1	0
601.771	1	8
601.941	1	2
602.111	1	3
602.281	1	-8
602.451	1	-1
602.620	1	-2
602.790	1	9
602.960	1	1
603.130	1	11
603.299	1	-3
603.469	1	0
603.639	1	-5
603.809	1	-9
603.978	1	4
604.148	1	-4
604.318	1	3
604.487	1	5
604.657	1	-1
604.827	1	3
604.997	1	-2
605.166	1	-8
605.336	1	2
605.506	1	6
605.676	1	18
605.845	1	-4
606.015	1	-1
606.185	1	-2
606.355	1	0
606.524	1	3
606.694	1	0
606.864	1	-5
607.034	1	-7
607.203	1	3
607.373	1	17
607.543	1	3
607.712	1	1
607.882	1	3
608.052	1	11
608.222	1	2
608.391	1	0
608.561	1	5
608.731	1	2
608.901	1	9
609.070	1	-7
609.240	1	5
609.410	1	2
609.579	1	2
609.749	1	1
609.919	1	5
610.089	1	-4
610.258	1	15
610.428	1	-4
610.598	1	5
610.767	1	-2
610.937	1	-4
611.107	1	-7
611.277	1	6
611.446	1	3
611.616	1	3
611.786	1	10
611.955	1	-13
612.125	1	4
612.295	1	3
612.465	1	13
612.634	1	2
612.804	1	5
612.974	1	8
613.143	1	-3
613.313	1	5
613.483	1	-24
613.652	1	-8
613.822	1	-3
613.992	1	6
614.162	1	5
614.331	1	2
614.501	1	-12
614.671	1	-4
614.840	1	6
615.010	1	-1
615.180	1	2
615.349	1	4
615.519	1	0
615.689	1	1
615.858	1	-14
616.028	1	0
616.198	1	4
616.368	1	8
616.537	1	-6
616.707	1	1
616.877	1	0
617.046	1	5
617.216	1	-4
617.386	1	-4
617.555	1	-2
617.725	1	0
617.895	1	4
618.064	1	8
618.234	1	4
618.404	1	1
618.573	1	1
618.743	1	9
618.913	1	6
619.082	1	-5
619.252	1	-9
619.422	1	2
619.591	1	-2
619.761	1	0
619.931	1	6
620.100	1	-1
620.270	1	1
620.440	1	-7
620.609	1	-7
620.779	1	-12
620.949	1	0
621.118	1	4
621.288	1	4
621.458	1	3
621.627	1	-9
621.797	1	9
621.967	1	-1
622.136	1	4
622.306	1	0
622.476	1	2
622.645	1	7
622.815	1	-8
622.985	1	3
623.154	1	-3
623.324	1	4
623.494	1	12
623.663	1	0
623.833	1	-9
624.002	1	2
624.172	1	3
624.342	1	-5
624.511	1	1
624.681	1	-1
624.851	1	-19
625.020	1	9
625.190	1	3
625.360	1	13
625.529	1	-1
625.699	1	7
625.869	1	5
626.038	1	-2
626.208	1	10
626.377	1	7
626.547	1	5
626.717	1	0
626.886	1	11
627.056	1	1
627.226	1	-10
627.395	1	-7
627.565	1	-2
627.735	1	-1
627.904	1	-3
628.074	1	-5
628.243	1	-3
628.413	1	12
628.583	1	-4
628.752	1	11
628.922	1	3
629.091	1	-1
629.261	1	0
629.431	1	2
629.600	1	-5
629.770	1	1
629.940	1	10
630.109	1	10
630.279	1	-9
630.448	1	1
630.618	1	2
630.788	1	-4
630.957	1	-8
631.127	1	8
631.297	1	-5
631.466	1	1
631.636	1	-11
631.805	1	5
631.975	1	-3
632.145	1	-4
632.314	1	-7
632.484	1	-6
632.653	1	0
632.823	1	0
632.993	1	-5
633.162	1	3
633.332	1	1
633.501	1	4
633.671	1	4
633.841	1	11
634.010	1	7
634.180	1	0
634.349	1	-6
634.519	1	-1
634.689	1	0
634.858	1	3
635.028	1	4
635.197	1	11
635.367	1	2
635.537	1	2
635.706	1	-1
635.876	1	6
636.045	1	-12
636.215	1	7
636.384	1	-2
636.554	1	0
636.724	1	8
636.893	1	-8
637.063	1	-3
637.232	1	2
637.402	1	-2
637.572	1	-1
637.741	1	-5
637.911	1	5
638.080	1	-1
638.250	1	0
638.419	1	7
638.589	1	-14
638.759	1	-5
638.928	1	2
639.098	1	2
639.267	1	4
639.437	1	-2
639.606	1	4
639.776	1	-1
639.946	1	-5
640.115	1	4
640.285	1	0
640.454	1	-2
640.624	1	-7
640.793	1	3
640.963	1	11
641.132	1	1
641.302	1	12
641.472	1	-1
641.641	1	7
641.811	1	-2
641.980	1	-7
642.150	1	-8
642.319	1	-1
642.489	1	-8
642.659	1	10
642.828	1	-2
642.998	1	0
643.167	1	7
643.337	1	-3
643.506	1	-4
643.676	1	-4
643.845	1	-3
644.015	1	-2
644.184	1	9
644.354	1	-3
644.524	1	7
644.693	1	-15
644.863	1	0
645.032	1	-1
645.202	1	0
645.371	1	-4
645.541	1	-10
645.710	1	9
645.880	1	-7
646.049	1	-3
646.219	1	0
646.388	1	12
646.558	1	3
646.728	1	7
646.897	1	-7
647.067	1	0
647.236	1	5
647.406	1	4
647.575	1	-3
647.745	1	4
647.914	1	-6
648.084	1	5
648.253	1	-10
648.423	1	5
648.592	1	-7
648.762	1	1
648.931	1	-7
649.101	1	6
649.270	1	0
649.440	1	1
649.610	1	-3
649.779	1	9
649.949	1	-9
650.118	1	4
650.288	1	10
650.457	1	-15
650.627	1	4
650.796	1	4
650.966	1	13
651.135	1	-5
651.305	1	4
651.474	1	11
651.644	1	9
651.813	1	-9
651.983	1	9
652.152	1	3
652.322	1	4
652.491	1	8
652.661	1	11
652.830	1	-1
653.000	1	-5
653.169	1	3
653.339	1	5
653.508	1	8
653.678	1	-3
653.847	1	-12
654.017	1	9
654.186	1	1
654.356	1	6
654.525	1	-7
654.695	1	7
654.864	1	5
655.034	1	23
655.203	1	8
655.373	1	-8
655.542	1	-2
655.712	1	3
655.881	1	0
656.051	1	0
656.220	1	0
656.390	1	-7
656.559	1	9
656.729	1	-6
656.898	1	-13
657.068	1	5
657.237	1	6
657.406	1	-14
657.576	1	8
657.745	1	-2
657.915	1	-12
658.084	1	6
658.254	1	0
658.423	1	9
658.593	1	-3
658.762	1	-1
658.932	1	-5
659.101	1	3
659.271	1	4
659.440	1	20
659.610	1	7
659.779	1	-2
659.949	1	6
660.118	1	2
660.288	1	12
660.457	1	6
660.626	1	-6
660.796	1	-5
660.965	1	-8
661.135	1	-7
661.304	1	4
661.474	1	-6
661.643	1	12
661.813	1	-5
661.982	1	-1
662.152	1	1
662.321	1	1
662.491	1	0
662.660	1	10
662.829	1	-4
662.999	1	0
663.168	1	2
663.338	1	2
663.507	1	-1
663.677	1	0
663.846	1	2
664.016	1	-8
664.185	1	-5
664.354	1	-1
664.524	1	3
664.693	1	-2
664.863	1	7
665.032	1	9
665.202	1	4
665.371	1	-5
665.541	1	-15
665.710	1	3
665.879	1	-6
666.049	1	-8
666.218	1	1
666.388	1	1
666.557	1	2
666.727	1	4
666.896	1	3
667.065	1	2
667.235	1	4
667.404	1	-5
667.574	1	5
667.743	1	8
667.913	1	-6
668.082	1	10
668.251	1	7
668.421	1	4
668.590	1	0
668.760	1	-3
668.929	1	-6
669.099	1	3
669.268	1	9
669.437	1	-4
669.607	1	0
669.776	1	2
669.946	1	11
670.115	1	-4
670.285	1	-1
670.454	1	8
670.623	1	9
670.793	1	-4
670.962	1	2
671.132	1	3
671.301	1	1
671.470	1	2
671.640	1	-11
671.809	1	4
671.979	1	-6
672.148	1	-1
672.317	1	-4
672.487	1	6
672.656	1	6
672.826	1	1
672.995	1	-3
673.164	1	7
673.334	1	6
673.503	1	-7
673.673	1	-3
673.842	1	-2
674.011	1	-3
674.181	1	2
674.350	1	-3
674.520	1	0
674.689	1	0
674.858	1	-1
675.028	1	4
675.197	1	6
675.367	1	-5
675.536	1	-3
675.705	1	10
675.875	1	1
676.044	1	-1
676.214	1	2
676.383	1	-6
676.552	1	-8
676.722	1	3
676.891	1	15
677.060	1	5
677.230	1	-2
677.399	1	3
677.569	1	3
677.738	1	0
677.907	1	-5
678.077	1	-5
678.246	1	-5
678.416	1	8
678.585	1	8
678.754	1	-5
678.924	1	-8
679.093	1	-3
679.262	1	5
679.432	1	3
679.601	1	-11
679.771	1	5
679.940	1	10
680.109	1	-4
680.279	1	4
680.448	1	-3
680.617	1	3
680.787	1	6
680.956	1	0
681.125	1	-2
681.295	1	-7
681.464	1	-7
681.634	1	6
681.803	1	9
681.972	1	4
682.142	1	-13
682.311	1	-4
682.480	1	-3
682.650	1	5
682.819	1	-3
682.988	1	-1
683.158	1	4
683.327	1	-1
683.496	1	-3
683.666	1	5
683.835	1	-3
684.004	1	1
684.174	1	-3
684.343	1	-9
684.512	1	-1
684.682	1	2
684.851	1	2
685.021	1	1
685.190	1	9
685.359	1	-1
685.529	1	-1
685.698	1	2
685.867	1	-10
686.037	1	3
686.206	1	-4
686.375	1	4
686.545	1	6
686.714	1	10
686.883	1	10
687.053	1	-2
687.222	1	-1
687.391	1	0
687.561	1	-7
687.730	1	-2
687.899	1	3
688.069	1	5
688.238	1	0
688.407	1	1
688.577	1	6
688.746	1	10
