340.368	1	-2
340.539	1	0
340.710	1	10
340.881	1	-1
341.052	1	2
341.223	1	3
341.394	1	-5
341.565	1	8
341.737	1	7
341.908	1	1
342.079	1	10
342.250	1	-7
342.421	1	3
342.592	1	1
342.763	1	-4
342.934	1	19
343.105	1	3
343.276	1	-3
343.447	1	2
343.618	1	2
343.789	1	17
343.960	1	2
344.131	1	0
344.302	1	-5
344.473	1	-10
344.644	1	-3
344.815	1	3
344.986	1	8
345.157	1	-1
345.328	1	13
345.499	1	0
345.670	1	-7
345.841	1	-6
346.012	1	6
346.183	1	-2
346.354	1	4
346.526	1	1
346.697	1	2
346.868	1	8
347.039	1	-1
347.210	1	-10
347.381	1	0
347.552	1	9
347.723	1	-1
347.894	1	2
348.065	1	-2
348.236	1	4
348.407	1	-14
348.578	1	-5
348.749	1	6
348.920	1	4
349.091	1	-1
349.262	1	-7
349.433	1	-8
349.604	1	-3
349.775	1	-2
349.946	1	3
350.117	1	2
350.288	1	-15
350.459	1	6
350.630	1	-2
350.801	1	10
350.972	1	6
351.143	1	-5
351.314	1	1
351.485	1	-2
351.656	1	2
351.827	1	0
351.998	1	-2
352.169	1	-14
352.340	1	12
352.511	1	-8
352.682	1	-5
352.853	1	-3
353.024	1	7
353.195	1	1
353.366	1	-2
353.537	1	-5
353.708	1	-5
353.879	1	-1
354.050	1	-5
354.221	1	-5
354.392	1	5
354.563	1	0
354.734	1	14
354.905	1	7
355.076	1	-1
355.247	1	9
355.418	1	-1
355.589	1	6
355.760	1	-3
355.931	1	2
356.102	1	-1
356.273	1	-1
356.444	1	0
356.615	1	-3
356.785	1	2
356.956	1	-3
357.127	1	7
357.298	1	3
357.469	1	4
357.640	1	-5
357.811	1	-10
357.982	1	0
358.153	1	-5
358.324	1	3
358.495	1	2
358.666	1	-4
358.837	1	4
359.008	1	7
359.179	1	10
359.350	1	-5
359.521	1	4
359.692	1	-5
359.863	1	0
360.034	1	4
360.205	1	-2
360.376	1	8
360.547	1	0
360.718	1	7
360.889	1	1
361.060	1	6
361.231	1	-3
361.401	1	8
361.572	1	3
361.743	1	2
361.914	1	-5
362.085	1	2
362.256	1	0
362.427	1	9
362.598	1	8
362.769	1	8
362.940	1	3
363.111	1	9
363.282	1	3
363.453	1	9
363.624	1	15
363.795	1	-4
363.966	1	6
364.137	1	6
364.308	1	16
364.478	1	6
364.649	1	6
364.820	1	4
364.991	1	15
365.162	1	-6
365.333	1	8
365.504	1	-2
365.675	1	2
365.846	1	8
366.017	1	10
366.188	1	19
366.359	1	-2
366.530	1	2
366.701	1	8
366.871	1	15
367.042	1	3
367.213	1	14
367.384	1	14
367.555	1	0
367.726	1	7
367.897	1	13
368.068	1	-1
368.239	1	-4
368.410	1	17
368.581	1	13
368.752	1	17
368.923	1	19
369.093	1	6
369.264	1	13
369.435	1	14
369.606	1	11
369.777	1	17
369.948	1	14
370.119	1	6
370.290	1	8
370.461	1	12
370.632	1	16
370.803	1	2
370.973	1	14
371.144	1	13
371.315	1	9
371.486	1	13
371.657	1	15
371.828	1	-2
371.999	1	11
372.170	1	3
372.341	1	6
372.512	1	6
372.682	1	-3
372.853	1	1
373.024	1	2
373.195	1	9
373.366	1	9
373.537	1	8
373.708	1	10
373.879	1	5
374.050	1	10
374.220	1	7
374.391	1	11
374.562	1	2
374.733	1	0
374.904	1	-1
375.075	1	5
375.246	1	4
375.417	1	5
375.588	1	6
375.758	1	-11
375.929	1	-4
376.100	1	5
376.271	1	3
376.442	1	2
376.613	1	17
376.784	1	-4
376.955	1	-1
377.125	1	6
377.296	1	9
377.467	1	4
377.638	1	3
377.809	1	-5
377.980	1	5
378.151	1	2
378.321	1	0
378.492	1	0
378.663	1	8
378.834	1	-4
379.005	1	12
379.176	1	8
379.347	1	-1
379.518	1	-2
379.688	1	-3
379.859	1	4
380.030	1	5
380.201	1	-8
380.372	1	7
380.543	1	2
380.714	1	8
380.884	1	9
381.055	1	3
381.226	1	4
381.397	1	2
381.568	1	8
381.739	1	-1
381.910	1	8
382.080	1	6
382.251	1	14
382.422	1	-4
382.593	1	8
382.764	1	10
382.935	1	-2
383.105	1	-3
383.276	1	9
383.447	1	2
383.618	1	-11
383.789	1	16
383.960	1	5
384.130	1	2
384.301	1	4
384.472	1	-4
384.643	1	0
384.814	1	8
384.985	1	11
385.156	1	4
385.326	1	2
385.497	1	5
385.668	1	5
385.839	1	2
386.010	1	7
386.180	1	10
386.351	1	1
386.522	1	14
386.693	1	4
386.864	1	-3
387.035	1	17
387.205	1	5
387.376	1	1
387.547	1	8
387.718	1	6
387.889	1	2
388.060	1	-1
388.230	1	13
388.401	1	0
388.572	1	5
388.743	1	5
388.914	1	2
389.084	1	3
389.255	1	2
389.426	1	0
389.597	1	-4
389.768	1	6
389.939	1	-2
390.109	1	4
390.280	1	5
390.451	1	8
390.622	1	7
390.793	1	-1
390.963	1	-6
391.134	1	0
391.305	1	4
391.476	1	7
391.647	1	-2
391.817	1	0
391.988	1	9
392.159	1	10
392.330	1	0
392.501	1	2
392.671	1	8
392.842	1	1
393.013	1	2
393.184	1	0
393.355	1	-11
393.525	1	-1
393.696	1	8
393.867	1	5
394.038	1	1
394.208	1	4
394.379	1	4
394.550	1	-5
394.721	1	0
394.892	1	5
395.062	1	6
395.233	1	7
395.404	1	-8
395.575	1	15
395.746	1	3
395.916	1	5
396.087	1	3
396.258	1	13
396.429	1	-1
396.599	1	14
396.770	1	4
396.941	1	-2
397.112	1	7
397.283	1	-1
397.453	1	5
397.624	1	-4
397.795	1	4
397.966	1	12
398.136	1	2
398.307	1	1
398.478	1	-9
398.649	1	15
398.819	1	-3
398.990	1	-10
399.161	1	-1
399.332	1	4
399.503	1	7
399.673	1	2
399.844	1	-2
400.015	1	1
400.186	1	9
400.356	1	3
400.527	1	-4
400.698	1	3
400.869	1	6
401.039	1	-1
401.210	1	-4
401.381	1	7
401.552	1	3
401.722	1	-3
401.893	1	3
402.064	1	4
402.235	1	8
402.405	1	-14
402.576	1	13
402.747	1	4
402.918	1	0
403.088	1	-11
403.259	1	-4
403.430	1	-1
403.601	1	1
403.771	1	-6
403.942	1	1
404.113	1	2
404.284	1	10
404.454	1	-8
404.625	1	-3
404.796	1	-8
404.967	1	10
405.137	1	8
405.308	1	9
405.479	1	-9
405.649	1	-3
405.820	1	-2
405.991	1	2
406.162	1	-3
406.332	1	6
406.503	1	0
406.674	1	18
406.845	1	4
407.015	1	1
407.186	1	5
407.357	1	-2
407.527	1	5
407.698	1	5
407.869	1	0
408.040	1	-4
408.210	1	1
408.381	1	1
408.552	1	6
408.722	1	0
408.893	1	-4
409.064	1	-1
409.235	1	-6
409.405	1	4
409.576	1	14
409.747	1	8
409.917	1	0
410.088	1	-1
410.259	1	1
410.430	1	0
410.600	1	5
410.771	1	9
410.942	1	5
411.112	1	2
411.283	1	0
411.454	1	-4
411.625	1	1
411.795	1	5
411.966	1	3
412.137	1	1
412.307	1	-1
412.478	1	-10
412.649	1	6
412.819	1	8
412.990	1	1
413.161	1	-1
413.332	1	-5
413.502	1	1
413.673	1	13
413.844	1	5
414.014	1	6
414.185	1	0
414.356	1	17
414.526	1	-1
414.697	1	11
414.868	1	-3
415.038	1	3
415.209	1	3
415.380	1	-10
415.550	1	-1
415.721	1	4
415.892	1	8
416.063	1	8
416.233	1	-8
416.404	1	0
416.575	1	6
416.745	1	7
416.916	1	-2
417.087	1	4
417.257	1	-7
417.428	1	3
417.599	1	-5
417.769	1	0
417.940	1	2
418.111	1	10
418.281	1	10
418.452	1	5
418.623	1	5
418.793	1	2
418.964	1	0
419.135	1	1
419.305	1	-4
419.476	1	4
419.647	1	-3
419.817	1	-2
419.988	1	9
420.159	1	-9
420.329	1	-1
420.500	1	7
420.671	1	6
420.841	1	1
421.012	1	4
421.183	1	1
421.353	1	0
421.524	1	-1
421.695	1	2
421.865	1	0
422.036	1	-17
422.206	1	5
422.377	1	0
422.548	1	-2
422.718	1	4
422.889	1	1
423.060	1	-2
423.230	1	-3
423.401	1	3
423.572	1	-6
423.742	1	3
423.913	1	-5
424.084	1	5
424.254	1	4
424.425	1	-10
424.595	1	9
424.766	1	12
424.937	1	-2
425.107	1	6
425.278	1	4
425.449	1	-8
425.619	1	6
425.790	1	9
425.961	1	-5
426.131	1	-2
426.302	1	-12
426.472	1	8
426.643	1	-4
426.814	1	-12
426.984	1	6
427.155	1	27
427.326	1	-4
427.496	1	-4
427.667	1	7
427.837	1	13
428.008	1	0
428.179	1	8
428.349	1	6
428.520	1	0
428.691	1	3
428.861	1	-7
429.032	1	2
429.202	1	-2
429.373	1	11
429.544	1	-1
429.714	1	3
429.885	1	3
430.055	1	6
430.226	1	4
430.397	1	4
430.567	1	-9
430.738	1	7
430.909	1	0
431.079	1	-8
431.250	1	-6
431.420	1	11
431.591	1	19
431.762	1	8
431.932	1	4
432.103	1	-2
432.273	1	-1
432.444	1	-6
432.615	1	-5
432.785	1	-4
432.956	1	-2
433.126	1	9
433.297	1	-1
433.468	1	4
433.638	1	-1
433.809	1	1
433.979	1	2
434.150	1	7
434.320	1	-4
434.491	1	-4
434.662	1	-9
434.832	1	1
435.003	1	2
435.173	1	1
435.344	1	-6
435.515	1	1
435.685	1	-7
435.856	1	-6
436.026	1	0
436.197	1	-4
436.368	1	4
436.538	1	2
436.709	1	5
436.879	1	0
437.050	1	1
437.220	1	6
437.391	1	8
437.562	1	-8
437.732	1	-10
437.903	1	-10
438.073	1	9
438.244	1	-2
438.414	1	-7
438.585	1	13
438.756	1	-13
438.926	1	8
439.097	1	-2
439.267	1	-3
439.438	1	6
439.608	1	4
439.779	1	3
439.949	1	10
440.120	1	-8
440.291	1	4
440.461	1	4
440.632	1	1
440.802	1	-9
440.973	1	7
441.143	1	8
441.314	1	-4
441.485	1	-2
441.655	1	4
441.826	1	1
441.996	1	-6
442.167	1	2
442.337	1	10
442.508	1	4
442.678	1	-5
442.849	1	10
443.019	1	6
443.190	1	-4
443.361	1	2
443.531	1	0
443.702	1	-12
443.872	1	8
444.043	1	-14
444.213	1	-2
444.384	1	-2
444.554	1	-9
444.725	1	8
444.895	1	-4
445.066	1	0
445.237	1	-5
445.407	1	-6
445.578	1	-12
445.748	1	-4
445.919	1	-2
446.089	1	3
446.260	1	-6
446.430	1	6
446.601	1	8
446.771	1	7
446.942	1	-8
447.112	1	11
447.283	1	-9
447.453	1	-1
447.624	1	-2
447.794	1	5
447.965	1	-16
448.135	1	2
448.306	1	3
448.477	1	4
448.647	1	6
448.818	1	0
448.988	1	4
449.159	1	2
449.329	1	3
449.500	1	4
449.670	1	7
449.841	1	4
450.011	1	4
450.182	1	1
450.352	1	-5
450.523	1	-3
450.693	1	7
450.864	1	7
451.034	1	1
451.205	1	9
451.375	1	4
451.546	1	7
451.716	1	3
451.887	1	2
452.057	1	-1
452.228	1	14
452.398	1	-14
452.569	1	-3
452.739	1	6
452.910	1	-5
453.080	1	0
453.251	1	3
453.421	1	7
453.592	1	1
453.762	1	7
453.933	1	10
454.103	1	-3
454.274	1	-9
454.444	1	-8
454.615	1	4
454.785	1	1
454.956	1	4
455.126	1	-1
455.297	1	-7
455.467	1	-6
455.638	1	6
455.808	1	-3
455.979	1	-2
456.149	1	1
456.320	1	2
456.490	1	0
456.661	1	-2
456.831	1	15
457.001	1	-1
457.172	1	4
457.342	1	3
457.513	1	-5
457.683	1	-6
457.854	1	10
458.024	1	6
458.195	1	-13
458.365	1	5
458.536	1	5
458.706	1	7
458.877	1	-1
459.047	1	7
459.218	1	-9
459.388	1	8
459.559	1	-6
459.729	1	4
459.899	1	-4
460.070	1	-5
460.240	1	-15
460.411	1	1
460.581	1	0
460.752	1	-2
460.922	1	-6
461.093	1	-10
461.263	1	1
461.434	1	11
461.604	1	7
461.775	1	2
461.945	1	-2
462.115	1	-3
462.286	1	1
462.456	1	8
462.627	1	0
462.797	1	-3
462.968	1	-8
463.138	1	-4
463.309	1	-2
463.479	1	8
463.649	1	2
463.820	1	-2
463.990	1	0
464.161	1	4
464.331	1	2
464.502	1	0
464.672	1	-8
464.843	1	-11
465.013	1	0
465.183	1	2
465.354	1	5
465.524	1	11
465.695	1	1
465.865	1	-9
466.036	1	-4
466.206	1	5
466.376	1	11
466.547	1	-5
466.717	1	3
466.888	1	4
467.058	1	8
467.229	1	1
467.399	1	-3
467.569	1	-3
467.740	1	2
467.910	1	-4
468.081	1	-1
468.251	1	10
468.422	1	3
468.592	1	7
468.762	1	-8
468.933	1	19
469.103	1	-5
469.274	1	-2
469.444	1	-10
469.614	1	-14
469.785	1	8
469.955	1	1
470.126	1	-1
470.296	1	3
470.467	1	1
470.637	1	10
470.807	1	3
470.978	1	3
471.148	1	-4
471.319	1	2
471.489	1	-6
471.659	1	-12
471.830	1	-9
472.000	1	-3
472.171	1	14
472.341	1	0
472.511	1	12
472.682	1	-1
472.852	1	-4
473.023	1	2
473.193	1	4
473.363	1	7
473.534	1	-4
473.704	1	-8
473.875	1	-7
474.045	1	6
474.215	1	5
474.386	1	13
474.556	1	4
474.727	1	4
474.897	1	-3
475.067	1	-2
475.238	1	-1
475.408	1	4
475.578	1	-2
475.749	1	-1
475.919	1	-2
476.090	1	19
476.260	1	-3
476.430	1	-3
476.601	1	5
476.771	1	4
476.942	1	1
477.112	1	-2
477.282	1	1
477.453	1	-3
477.623	1	1
477.793	1	4
477.964	1	-1
478.134	1	2
478.305	1	-3
478.475	1	0
478.645	1	6
478.816	1	4
478.986	1	2
479.156	1	-1
479.327	1	-4
479.497	1	2
479.667	1	6
479.838	1	-2
480.008	1	-3
480.179	1	3
480.349	1	5
480.519	1	-6
480.690	1	0
480.860	1	3
481.030	1	12
481.201	1	3
481.371	1	8
481.541	1	-10
481.712	1	6
481.882	1	-11
482.053	1	17
482.223	1	1
482.393	1	4
482.564	1	14
482.734	1	0
482.904	1	7
483.075	1	-4
483.245	1	5
483.415	1	-8
483.586	1	7
483.756	1	-3
483.926	1	8
484.097	1	-2
484.267	1	0
484.437	1	12
484.608	1	3
484.778	1	9
484.948	1	-7
485.119	1	-4
485.289	1	3
485.459	1	8
485.630	1	6
485.800	1	-6
485.970	1	-3
486.141	1	8
486.311	1	6
486.481	1	2
486.652	1	3
486.822	1	6
486.992	1	-2
487.163	1	9
487.333	1	-7
487.503	1	4
487.674	1	-1
487.844	1	3
488.014	1	7
488.185	1	-4
488.355	1	1
488.525	1	10
488.696	1	6
488.866	1	3
489.036	1	4
489.207	1	2
489.377	1	4
489.547	1	3
489.718	1	8
489.888	1	-3
490.058	1	-10
490.228	1	2
490.399	1	5
490.569	1	6
490.739	1	1
490.910	1	-1
491.080	1	-2
491.250	1	4
491.421	1	0
491.591	1	0
491.761	1	0
491.932	1	6
492.102	1	8
492.272	1	-5
492.442	1	4
492.613	1	-5
492.783	1	8
492.953	1	5
493.124	1	0
493.294	1	7
493.464	1	12
493.635	1	-4
493.805	1	13
493.975	1	-11
494.145	1	0
494.316	1	2
494.486	1	11
494.656	1	-3
494.827	1	-8
494.997	1	17
495.167	1	1
495.337	1	15
495.508	1	8
495.678	1	-1
495.848	1	0
496.019	1	-4
496.189	1	6
496.359	1	3
496.529	1	-4
496.700	1	-3
496.870	1	2
497.040	1	1
497.211	1	6
497.381	1	2
497.551	1	5
497.721	1	0
497.892	1	10
498.062	1	-5
498.232	1	3
498.403	1	3
498.573	1	7
498.743	1	2
498.913	1	1
499.084	1	0
499.254	1	8
499.424	1	-1
499.594	1	7
499.765	1	6
499.935	1	6
500.105	1	21
500.275	1	10
500.446	1	8
500.616	1	-5
500.786	1	-1
500.956	1	2
501.127	1	-1
501.297	1	-3
501.467	1	3
501.638	1	16
501.808	1	-8
501.978	1	9
502.148	1	2
502.319	1	1
502.489	1	5
502.659	1	6
502.829	1	9
503.000	1	-2
503.170	1	2
503.340	1	-2
503.510	1	7
503.681	1	2
503.851	1	7
504.021	1	-7
504.191	1	4
504.362	1	1
504.532	1	4
504.702	1	3
504.872	1	9
505.042	1	1
505.213	1	-4
505.383	1	16
505.553	1	11
505.723	1	14
505.894	1	1
506.064	1	-17
506.234	1	6
506.404	1	2
506.575	1	0
506.745	1	11
506.915	1	2
507.085	1	3
507.256	1	-3
507.426	1	10
507.596	1	-2
507.766	1	-1
507.936	1	7
508.107	1	4
508.277	1	8
508.447	1	6
508.617	1	1
508.788	1	5
508.958	1	1
509.128	1	13
509.298	1	3
509.468	1	1
509.639	1	10
509.809	1	2
509.979	1	10
510.149	1	10
510.319	1	8
510.490	1	12
510.660	1	2
510.830	1	4
511.000	1	2
511.171	1	3
511.341	1	-5
511.511	1	13
511.681	1	13
511.851	1	17
512.022	1	0
512.192	1	-4
512.362	1	17
512.532	1	13
512.702	1	-2
512.873	1	2
513.043	1	8
513.213	1	3
513.383	1	8
513.553	1	6
513.724	1	4
513.894	1	9
514.064	1	-4
514.234	1	11
514.404	1	9
514.575	1	3
514.745	1	2
514.915	1	-7
515.085	1	3
515.255	1	-3
515.425	1	8
515.596	1	1
515.766	1	15
515.936	1	6
516.106	1	11
516.276	1	10
516.447	1	9
516.617	1	3
516.787	1	7
516.957	1	-2
517.127	1	4
517.297	1	5
517.468	1	8
517.638	1	2
517.808	1	2
517.978	1	-3
518.148	1	5
518.319	1	3
518.489	1	6
518.659	1	3
518.829	1	-2
518.999	1	2
519.169	1	-2
519.340	1	9
519.510	1	-7
519.680	1	3
519.850	1	-1
520.020	1	8
520.190	1	-6
520.361	1	10
520.531	1	17
520.701	1	4
520.871	1	11
521.041	1	2
521.211	1	-3
521.382	1	6
521.552	1	20
521.722	1	11
521.892	1	2
522.062	1	11
522.232	1	8
522.402	1	-6
522.573	1	11
522.743	1	7
522.913	1	8
523.083	1	9
523.253	1	7
523.423	1	11
523.593	1	13
523.764	1	10
523.934	1	-7
524.104	1	0
524.274	1	2
524.444	1	8
524.614	1	13
524.784	1	-10
524.955	1	2
525.125	1	-5
525.295	1	-6
525.465	1	8
525.635	1	13
525.805	1	-3
525.975	1	0
526.146	1	11
526.316	1	4
526.486	1	10
526.656	1	8
526.826	1	9
526.996	1	0
527.166	1	9
527.337	1	6
527.507	1	10
527.677	1	-1
527.847	1	4
528.017	1	-8
528.187	1	4
528.357	1	3
528.527	1	-1
528.698	1	6
528.868	1	-2
529.038	1	12
529.208	1	0
529.378	1	8
529.548	1	15
529.718	1	-6
529.888	1	7
530.058	1	3
530.229	1	8
530.399	1	12
530.569	1	8
530.739	1	4
530.909	1	11
531.079	1	6
531.249	1	3
531.419	1	8
531.589	1	8
531.760	1	-9
531.930	1	13
532.100	1	7
532.270	1	5
532.440	1	1
532.610	1	8
532.780	1	-5
532.950	1	2
533.120	1	12
533.290	1	-7
533.461	1	5
533.631	1	-1
533.801	1	4
533.971	1	0
534.141	1	3
534.311	1	20
534.481	1	-1
534.651	1	5
534.821	1	15
534.991	1	10
535.162	1	14
535.332	1	-4
535.502	1	16
535.672	1	12
535.842	1	10
536.012	1	-2
536.182	1	12
536.352	1	1
536.522	1	3
536.692	1	-8
536.862	1	12
537.032	1	6
537.203	1	14
537.373	1	7
537.543	1	6
537.713	1	0
537.883	1	16
538.053	1	4
538.223	1	10
538.393	1	10
538.563	1	15
538.733	1	1
538.903	1	5
539.073	1	-1
539.243	1	8
539.413	1	1
539.584	1	11
539.754	1	-4
539.924	1	16
540.094	1	2
540.264	1	-2
540.434	1	8
540.604	1	3
540.774	1	-5
540.944	1	8
541.114	1	2
541.284	1	4
541.454	1	2
541.624	1	-1
541.794	1	3
541.964	1	6
542.134	1	0
542.305	1	19
542.475	1	7
542.645	1	4
542.815	1	7
542.985	1	11
543.155	1	-1
543.325	1	-1
543.495	1	4
543.665	1	8
543.835	1	11
544.005	1	3
544.175	1	9
544.345	1	-10
544.515	1	8
544.685	1	-4
544.855	1	1
545.025	1	-2
545.195	1	1
545.365	1	-3
545.535	1	3
545.705	1	8
545.875	1	10
546.045	1	2
546.216	1	3
546.386	1	10
546.556	1	7
546.726	1	-1
546.896	1	0
547.066	1	-2
547.236	1	8
547.406	1	6
547.576	1	4
547.746	1	1
547.916	1	6
548.086	1	1
548.256	1	-2
548.426	1	14
548.596	1	-9
548.766	1	10
548.936	1	-6
549.106	1	6
549.276	1	2
549.446	1	10
549.616	1	10
549.786	1	13
549.956	1	8
550.126	1	13
550.296	1	8
550.466	1	3
550.636	1	1
550.806	1	3
550.976	1	-9
551.146	1	1
551.316	1	6
551.486	1	18
551.656	1	7
551.826	1	0
551.996	1	-3
552.166	1	-1
552.336	1	5
552.506	1	8
552.676	1	15
552.846	1	6
553.016	1	2
553.186	1	13
553.356	1	1
553.526	1	2
553.696	1	10
553.866	1	1
554.036	1	2
554.206	1	7
554.376	1	3
554.546	1	11
554.716	1	8
554.886	1	8
555.056	1	5
555.226	1	3
555.396	1	-2
555.566	1	10
555.736	1	0
555.906	1	-3
556.076	1	17
556.246	1	9
556.416	1	3
556.586	1	8
556.756	1	5
556.926	1	9
557.096	1	7
557.266	1	3
557.436	1	11
557.606	1	5
557.776	1	-12
557.946	1	11
558.116	1	6
558.286	1	-1
558.456	1	6
558.626	1	18
558.796	1	1
558.966	1	3
559.136	1	2
559.306	1	6
559.476	1	6
559.646	1	-5
559.816	1	7
559.986	1	-3
560.155	1	16
560.325	1	1
560.495	1	-2
560.665	1	13
560.835	1	4
561.005	1	12
561.175	1	7
561.345	1	5
561.515	1	-10
561.685	1	4
561.855	1	-2
562.025	1	0
562.195	1	0
562.365	1	5
562.535	1	11
562.705	1	8
562.875	1	6
563.045	1	2
563.215	1	1
563.385	1	6
563.555	1	12
563.725	1	-9
563.895	1	13
564.064	1	-2
564.234	1	5
564.404	1	-7
564.574	1	5
564.744	1	0
564.914	1	4
565.084	1	-1
565.254	1	3
565.424	1	-1
565.594	1	12
565.764	1	9
565.934	1	9
566.104	1	4
566.274	1	2
566.444	1	11
566.614	1	6
566.783	1	3
566.953	1	-3
567.123	1	3
567.293	1	-2
567.463	1	-2
567.633	1	8
567.803	1	9
567.973	1	7
568.143	1	-4
568.313	1	-2
568.483	1	9
568.653	1	5
568.823	1	2
568.993	1	8
569.162	1	9
569.332	1	14
569.502	1	-9
569.672	1	-7
569.842	1	12
570.012	1	8
570.182	1	0
570.352	1	-7
570.522	1	5
570.692	1	4
570.862	1	2
571.031	1	1
571.201	1	-1
571.371	1	1
571.541	1	10
571.711	1	12
571.881	1	-1
572.051	1	4
572.221	1	0
572.391	1	17
572.561	1	10
572.731	1	6
572.900	1	9
573.070	1	3
573.240	1	-1
573.410	1	8
573.580	1	2
573.750	1	-1
573.920	1	-5
574.090	1	-7
574.260	1	12
574.430	1	5
574.599	1	5
574.769	1	8
574.939	1	5
575.109	1	3
575.279	1	5
575.449	1	4
575.619	1	-6
575.789	1	4
575.959	1	-6
576.128	1	11
576.298	1	8
576.468	1	5
576.638	1	8
576.808	1	6
576.978	1	-4
577.148	1	-3
577.318	1	4
577.487	1	-9
577.657	1	1
577.827	1	4
577.997	1	-10
578.167	1	-6
578.337	1	12
578.507	1	-6
578.677	1	-5
578.846	1	1
579.016	1	2
579.186	1	-1
579.356	1	-2
579.526	1	-3
579.696	1	21
579.866	1	-3
580.036	1	7
580.205	1	14
580.375	1	1
580.545	1	-4
580.715	1	5
580.885	1	-3
581.055	1	1
581.225	1	4
581.394	1	7
581.564	1	6
581.734	1	-9
581.904	1	-5
582.074	1	5
582.244	1	11
582.414	1	-5
582.583	1	-3
582.753	1	-13
582.923	1	-11
583.093	1	6
583.263	1	9
583.433	1	3
583.603	1	9
583.772	1	-6
583.942	1	-5
584.112	1	-2
584.282	1	9
584.452	1	4
584.622	1	-7
584.791	1	-2
584.961	1	7
585.131	1	-2
585.301	1	0
585.471	1	2
585.641	1	4
585.811	1	-1
585.980	1	2
586.150	1	2
586.320	1	3
586.490	1	0
586.660	1	0
586.830	1	-2
586.999	1	-1
587.169	1	12
587.339	1	6
587.509	1	11
587.679	1	5
587.849	1	9
588.018	1	6
588.188	1	4
588.358	1	2
588.528	1	3
588.698	1	4
588.867	1	6
589.037	1	-4
589.207	1	-15
589.377	1	-9
589.547	1	8
589.717	1	0
589.886	1	-3
590.056	1	-4
590.226	1	13
590.396	1	9
590.566	1	-5
590.735	1	3
590.905	1	3
591.075	1	17
591.245	1	5
591.415	1	7
591.585	1	0
591.754	1	7
591.924	1	8
592.094	1	-3
592.264	1	3
592.434	1	4
592.603	1	-1
592.773	1	-6
592.943	1	8
593.113	1	6
593.283	1	3
593.452	1	7
593.622	1	-3
593.792	1	-1
593.962	1	-1
594.132	1	5
594.301	1	9
594.471	1	4
594.641	1	-6
594.811	1	6
594.981	1	14
595.150	1	-1
595.320	1	-4
595.490	1	-3
595.660	1	-3
595.829	1	12
595.999	1	4
596.169	1	9
596.339	1	9
596.509	1	7
596.678	1	3
596.848	1	13
597.018	1	10
597.188	1	5
597.358	1	-6
597.527	1	-6
597.697	1	1
597.867	1	18
598.037	1	3
598.206	1	-2
598.376	1	0
598.546	1	-3
598.716	1	10
598.885	1	-5
599.055	1	-6
599.225	1	-4
599.395	1	8
599.565	1	-3
599.734	1	6
599.904	1	-4
600.074	1	6
600.244	1	4
600.413	1	4
600.583	1	-3
600.753	1	0
600.923	1	7
601.092	1	2
601.262	1	-4
601.432	1	8
601.602	1	7
601.771	1	11
601.941	1	5
602.111	1	8
602.281	1	-8
602.451	1	1
602.620	1	-1
602.790	1	12
602.960	1	-1
603.130	1	11
603.299	1	-2
603.469	1	4
603.639	1	-8
603.809	1	-4
603.978	1	-1
604.148	1	-4
604.318	1	-2
604.487	1	4
604.657	1	4
604.827	1	0
604.997	1	1
605.166	1	6
605.336	1	15
605.506	1	2
605.676	1	13
605.845	1	-3
606.015	1	-1
606.185	1	-5
606.355	1	2
606.524	1	-4
606.694	1	4
606.864	1	-8
607.034	1	-1
607.203	1	2
607.373	1	8
607.543	1	-1
607.712	1	10
607.882	1	-9
608.052	1	7
608.222	1	-7
608.391	1	1
608.561	1	2
608.731	1	10
608.901	1	9
609.070	1	2
609.240	1	12
609.410	1	4
609.579	1	4
609.749	1	11
609.919	1	0
610.089	1	1
610.258	1	18
610.428	1	2
610.598	1	-7
610.767	1	-7
610.937	1	-3
611.107	1	13
611.277	1	0
611.446	1	-4
611.616	1	13
611.786	1	12
611.955	1	-7
612.125	1	-2
612.295	1	10
612.465	1	2
612.634	1	7
612.804	1	7
612.974	1	12
613.143	1	-3
613.313	1	2
613.483	1	-6
613.652	1	-2
613.822	1	3
613.992	1	-1
614.162	1	3
614.331	1	3
614.501	1	-14
614.671	1	-5
614.840	1	8
615.010	1	-1
615.180	1	6
615.349	1	5
615.519	1	0
615.689	1	-4
615.858	1	0
616.028	1	7
616.198	1	11
616.368	1	5
616.537	1	-1
616.707	1	-10
616.877	1	12
617.046	1	2
617.216	1	2
617.386	1	4
617.555	1	14
617.725	1	-4
617.895	1	2
618.064	1	0
618.234	1	0
618.404	1	-2
618.573	1	-9
618.743	1	2
618.913	1	1
619.082	1	-4
619.252	1	-2
619.422	1	6
619.591	1	4
619.761	1	-1
619.931	1	3
620.100	1	0
620.270	1	6
620.440	1	-10
620.609	1	3
620.779	1	-22
620.949	1	-4
621.118	1	-3
621.288	1	15
621.458	1	18
621.627	1	1
621.797	1	0
621.967	1	4
622.136	1	7
622.306	1	4
622.476	1	-2
622.645	1	11
622.815	1	-6
622.985	1	3
623.154	1	0
623.324	1	-3
623.494	1	6
623.663	1	0
623.833	1	-9
624.002	1	5
624.172	1	0
624.342	1	-4
624.511	1	5
624.681	1	-13
624.851	1	-5
625.020	1	7
625.190	1	4
625.360	1	5
625.529	1	12
625.699	1	5
625.869	1	2
626.038	1	-2
626.208	1	10
626.377	1	4
626.547	1	4
626.717	1	8
626.886	1	8
627.056	1	2
627.226	1	-17
627.395	1	-5
627.565	1	-8
627.735	1	-7
627.904	1	-6
628.074	1	-1
628.243	1	-7
628.413	1	19
628.583	1	-7
628.752	1	5
628.922	1	4
629.091	1	-6
629.261	1	2
629.431	1	1
629.600	1	-1
629.770	1	5
629.940	1	10
630.109	1	4
630.279	1	-9
630.448	1	-2
630.618	1	-2
630.788	1	-9
630.957	1	-4
631.127	1	13
631.297	1	6
631.466	1	2
631.636	1	2
631.805	1	2
631.975	1	2
632.145	1	-6
632.314	1	-3
632.484	1	-4
632.653	1	-9
632.823	1	-4
632.993	1	2
633.162	1	2
633.332	1	3
633.501	1	0
633.671	1	-1
633.841	1	22
634.010	1	2
634.180	1	-3
634.349	1	-4
634.519	1	-5
634.689	1	7
634.858	1	-5
635.028	1	-5
635.197	1	14
635.367	1	3
635.537	1	11
635.706	1	-4
635.876	1	7
636.045	1	-2
636.215	1	8
636.384	1	4
636.554	1	-5
636.724	1	2
636.893	1	-10
637.063	1	4
637.232	1	-13
637.402	1	-3
637.572	1	-2
637.741	1	-2
637.911	1	3
638.080	1	5
638.250	1	9
638.419	1	6
638.589	1	-10
638.759	1	0
638.928	1	4
639.098	1	1
639.267	1	-2
639.437	1	0
639.606	1	-1
639.776	1	-1
639.946	1	-2
640.115	1	-4
640.285	1	-1
640.454	1	-1
640.624	1	-5
640.793	1	-1
640.963	1	7
641.132	1	-4
641.302	1	21
641.472	1	3
641.641	1	4
641.811	1	2
641.980	1	0
642.150	1	-8
642.319	1	-1
642.489	1	-5
642.659	1	0
642.828	1	-3
642.998	1	2
643.167	1	-2
643.337	1	1
643.506	1	-12
643.676	1	0
643.845	1	-8
644.015	1	3
644.184	1	2
644.354	1	-2
644.524	1	2
644.693	1	-2
644.863	1	1
645.032	1	-1
645.202	1	-3
645.371	1	-2
645.541	1	-13
645.710	1	2
645.880	1	-1
646.049	1	-1
646.219	1	-5
646.388	1	5
646.558	1	0
646.728	1	12
646.897	1	-10
647.067	1	3
647.236	1	3
647.406	1	-6
647.575	1	9
647.745	1	0
647.914	1	-9
648.084	1	0
648.253	1	-14
648.423	1	0
648.592	1	-13
648.762	1	-2
648.931	1	-16
649.101	1	9
649.270	1	-1
649.440	1	-2
649.610	1	5
649.779	1	6
649.949	1	3
650.118	1	4
650.288	1	1
650.457	1	-6
650.627	1	-1
650.796	1	1
650.966	1	7
651.135	1	2
651.305	1	14
651.474	1	5
651.644	1	-2
651.813	1	1
651.983	1	0
652.152	1	11
652.322	1	-2
652.491	1	11
652.661	1	1
652.830	1	3
653.000	1	-1
653.169	1	2
653.339	1	10
653.508	1	4
653.678	1	-3
653.847	1	-3
654.017	1	8
654.186	1	12
654.356	1	9
654.525	1	-8
654.695	1	5
654.864	1	9
655.034	1	12
655.203	1	0
655.373	1	-5
655.542	1	-3
655.712	1	4
655.881	1	4
656.051	1	-2
656.220	1	12
656.390	1	-5
656.559	1	4
656.729	1	7
656.898	1	-9
657.068	1	0
657.237	1	3
657.406	1	-3
657.576	1	-2
657.745	1	0
657.915	1	2
658.084	1	-2
658.254	1	1
658.423	1	13
658.593	1	0
658.762	1	-4
658.932	1	-11
659.101	1	-1
659.271	1	9
659.440	1	3
659.610	1	4
659.779	1	3
659.949	1	6
660.118	1	5
660.288	1	6
660.457	1	1
660.626	1	-4
660.796	1	-13
660.965	1	-7
661.135	1	-6
661.304	1	7
661.474	1	10
661.643	1	6
661.813	1	5
661.982	1	-1
662.152	1	6
662.321	1	7
662.491	1	-3
662.660	1	-6
662.829	1	-1
662.999	1	4
663.168	1	-3
663.338	1	3
663.507	1	6
663.677	1	0
663.846	1	6
664.016	1	2
664.185	1	-3
664.354	1	-8
664.524	1	4
664.693	1	6
664.863	1	1
665.032	1	4
665.202	1	16
665.371	1	-12
665.541	1	-11
665.710	1	-2
665.879	1	-4
666.049	1	4
666.218	1	-2
666.388	1	2
666.557	1	5
666.727	1	-1
666.896	1	4
667.065	1	5
667.235	1	-8
667.404	1	-4
667.574	1	9
667.743	1	-7
667.913	1	2
668.082	1	8
668.251	1	2
668.421	1	-3
668.590	1	8
668.760	1	-5
668.929	1	4
669.099	1	4
669.268	1	14
669.437	1	-10
669.607	1	-1
669.776	1	-8
669.946	1	14
670.115	1	8
670.285	1	-5
670.454	1	15
670.623	1	6
670.793	1	1
670.962	1	-9
671.132	1	3
671.301	1	4
671.470	1	-7
671.640	1	1
671.809	1	3
671.979	1	-2
672.148	1	-8
672.317	1	4
672.487	1	2
672.656	1	5
672.826	1	-8
672.995	1	2
673.164	1	3
673.334	1	12
673.503	1	-10
673.673	1	-5
673.842	1	-15
674.011	1	1
674.181	1	9
674.350	1	-5
674.520	1	0
674.689	1	-1
674.858	1	1
675.028	1	1
675.197	1	-2
675.367	1	10
675.536	1	0
675.705	1	7
675.875	1	-2
676.044	1	0
676.214	1	-2
676.383	1	-5
676.552	1	-5
676.722	1	3
676.891	1	4
677.060	1	0
677.230	1	1
677.399	1	4
677.569	1	10
677.738	1	2
677.907	1	-12
678.077	1	-9
678.246	1	0
678.416	1	-1
678.585	1	9
678.754	1	2
678.924	1	-5
679.093	1	-2
679.262	1	-1
679.432	1	0
679.601	1	-11
679.771	1	11
679.940	1	6
680.109	1	-3
680.279	1	11
680.448	1	-2
680.617	1	6
680.787	1	8
680.956	1	-7
681.125	1	1
681.295	1	-3
681.464	1	-2
681.634	1	9
681.803	1	0
681.972	1	-2
682.142	1	-12
682.311	1	-2
682.480	1	2
682.650	1	5
682.819	1	-3
682.988	1	-13
683.158	1	-5
683.327	1	13
683.496	1	-4
683.666	1	4
683.835	1	-7
684.004	1	2
684.174	1	1
684.343	1	0
684.512	1	2
684.682	1	-4
684.851	1	0
685.021	1	0
685.190	1	1
685.359	1	-8
685.529	1	-4
685.698	1	-2
685.867	1	-1
686.037	1	4
686.206	1	5
686.375	1	13
686.545	1	8
686.714	1	4
686.883	1	1
687.053	1	0
687.222	1	3
687.391	1	-3
687.561	1	-4
687.730	1	-8
687.899	1	10
688.069	1	0
688.238	1	7
688.407	1	-4
688.577	1	4
688.746	1	0
