340.368	1	-4
340.539	1	2
340.710	1	3
340.881	1	-9
341.052	1	-3
341.223	1	-5
341.394	1	8
341.565	1	3
341.737	1	0
341.908	1	-6
342.079	1	9
342.250	1	-4
342.421	1	3
342.592	1	5
342.763	1	6
342.934	1	4
343.105	1	1
343.276	1	-17
343.447	1	4
343.618	1	1
343.789	1	12
343.960	1	0
344.131	1	-5
344.302	1	1
344.473	1	-10
344.644	1	-4
344.815	1	5
344.986	1	8
345.157	1	-9
345.328	1	10
345.499	1	-1
345.670	1	-4
345.841	1	2
346.012	1	3
346.183	1	-5
346.354	1	13
346.526	1	-7
346.697	1	-1
346.868	1	4
347.039	1	5
347.210	1	-4
347.381	1	-1
347.552	1	2
347.723	1	-8
347.894	1	-2
348.065	1	-7
348.236	1	5
348.407	1	-10
348.578	1	-4
348.749	1	2
348.920	1	-2
349.091	1	-2
349.262	1	-6
349.433	1	-7
349.604	1	-3
349.775	1	3
349.946	1	-1
350.117	1	-1
350.288	1	-5
350.459	1	6
350.630	1	-1
350.801	1	-4
350.972	1	2
351.143	1	-4
351.314	1	5
351.485	1	-9
351.656	1	3
351.827	1	-10
351.998	1	-3
352.169	1	-9
352.340	1	6
352.511	1	-6
352.682	1	8
352.853	1	-6
353.024	1	-3
353.195	1	-8
353.366	1	-4
353.537	1	-3
353.708	1	3
353.879	1	-1
354.050	1	8
354.221	1	-13
354.392	1	1
354.563	1	-3
354.734	1	6
354.905	1	-2
355.076	1	3
355.247	1	-6
355.418	1	-2
355.589	1	1
355.760	1	-1
355.931	1	-1
356.102	1	-6
356.273	1	5
356.444	1	-7
356.615	1	-4
356.785	1	-8
356.956	1	-8
357.127	1	4
357.298	1	9
357.469	1	0
357.640	1	-4
357.811	1	0
357.982	1	-11
358.153	1	-1
358.324	1	-6
358.495	1	13
358.666	1	-13
358.837	1	8
359.008	1	18
359.179	1	4
359.350	1	-8
359.521	1	4
359.692	1	-10
359.863	1	-5
360.034	1	0
360.205	1	4
360.376	1	4
360.547	1	3
360.718	1	7
360.889	1	-3
361.060	1	-4
361.231	1	6
361.401	1	3
361.572	1	3
361.743	1	8
361.914	1	3
362.085	1	2
362.256	1	-2
362.427	1	5
362.598	1	1
362.769	1	1
362.940	1	4
363.111	1	12
363.282	1	6
363.453	1	2
363.624	1	10
363.795	1	-4
363.966	1	5
364.137	1	5
364.308	1	7
364.478	1	-4
364.649	1	-1
364.820	1	7
364.991	1	10
365.162	1	-4
365.333	1	7
365.504	1	4
365.675	1	-1
365.846	1	2
366.017	1	9
366.188	1	14
366.359	1	9
366.530	1	1
366.701	1	-4
366.871	1	5
367.042	1	7
367.213	1	5
367.384	1	10
367.555	1	2
367.726	1	13
367.897	1	5
368.068	1	10
368.239	1	-2
368.410	1	13
368.581	1	3
368.752	1	12
368.923	1	14
369.093	1	13
369.264	1	11
369.435	1	8
369.606	1	9
369.777	1	20
369.948	1	9
370.119	1	5
370.290	1	5
370.461	1	10
370.632	1	13
370.803	1	9
370.973	1	-3
371.144	1	-2
371.315	1	14
371.486	1	5
371.657	1	7
371.828	1	0
371.999	1	3
372.170	1	13
372.341	1	7
372.512	1	10
372.682	1	-6
372.853	1	3
373.024	1	-7
373.195	1	2
373.366	1	-2
373.537	1	2
373.708	1	8
373.879	1	4
374.050	1	10
374.220	1	0
374.391	1	3
374.562	1	4
374.733	1	4
374.904	1	-7
375.075	1	7
375.246	1	0
375.417	1	11
375.588	1	-2
375.758	1	-3
375.929	1	-8
376.100	1	-2
376.271	1	-5
376.442	1	-2
376.613	1	-1
376.784	1	-3
376.955	1	1
377.125	1	8
377.296	1	8
377.467	1	-1
377.638	1	6
377.809	1	9
377.980	1	11
378.151	1	-5
378.321	1	0
378.492	1	-12
378.663	1	3
378.834	1	-3
379.005	1	16
379.176	1	-1
379.347	1	10
379.518	1	-4
379.688	1	-12
379.859	1	3
380.030	1	11
380.201	1	6
380.372	1	1
380.543	1	5
380.714	1	-5
380.884	1	-2
381.055	1	-4
381.226	1	4
381.397	1	5
381.568	1	9
381.739	1	-1
381.910	1	6
382.080	1	-3
382.251	1	14
382.422	1	2
382.593	1	5
382.764	1	3
382.935	1	-4
383.105	1	4
383.276	1	-2
383.447	1	1
383.618	1	0
383.789	1	-1
383.960	1	0
384.130	1	-1
384.301	1	10
384.472	1	1
384.643	1	6
384.814	1	3
384.985	1	9
385.156	1	8
385.326	1	-4
385.497	1	-4
385.668	1	4
385.839	1	-4
386.010	1	5
386.180	1	2
386.351	1	2
386.522	1	10
386.693	1	-4
386.864	1	-3
387.035	1	4
387.205	1	8
387.376	1	-3
387.547	1	9
387.718	1	5
387.889	1	11
388.060	1	-4
388.230	1	11
388.401	1	-1
388.572	1	7
388.743	1	8
388.914	1	-1
389.084	1	1
389.255	1	8
389.426	1	6
389.597	1	-9
389.768	1	1
389.939	1	2
390.109	1	-2
390.280	1	6
390.451	1	8
390.622	1	8
390.793	1	5
390.963	1	-7
391.134	1	3
391.305	1	-3
391.476	1	1
391.647	1	-6
391.817	1	-3
391.988	1	9
392.159	1	8
392.330	1	-2
392.501	1	-5
392.671	1	7
392.842	1	-1
393.013	1	-4
393.184	1	-5
393.355	1	-6
393.525	1	1
393.696	1	5
393.867	1	2
394.038	1	-1
394.208	1	5
394.379	1	3
394.550	1	-10
394.721	1	5
394.892	1	-2
395.062	1	1
395.233	1	1
395.404	1	-4
395.575	1	10
395.746	1	8
395.916	1	19
396.087	1	1
396.258	1	-3
396.429	1	-15
396.599	1	3
396.770	1	2
396.941	1	-4
397.112	1	8
397.283	1	2
397.453	1	-1
397.624	1	0
397.795	1	0
397.966	1	5
398.136	1	7
398.307	1	8
398.478	1	-8
398.649	1	16
398.819	1	2
398.990	1	-5
399.161	1	-5
399.332	1	-2
399.503	1	6
399.673	1	2
399.844	1	-5
400.015	1	-9
400.186	1	3
400.356	1	5
400.527	1	3
400.698	1	-4
400.869	1	5
401.039	1	-5
401.210	1	-2
401.381	1	-8
401.552	1	3
401.722	1	-8
401.893	1	5
402.064	1	-11
402.235	1	5
402.405	1	-2
402.576	1	12
402.747	1	-2
402.918	1	-1
403.088	1	-18
403.259	1	6
403.430	1	8
403.601	1	2
403.771	1	-2
403.942	1	2
404.113	1	-1
404.284	1	5
404.454	1	2
404.625	1	4
404.796	1	-1
404.967	1	6
405.137	1	-2
405.308	1	10
405.479	1	-3
405.649	1	-3
405.820	1	5
405.991	1	9
406.162	1	-4
406.332	1	7
406.503	1	0
406.674	1	13
406.845	1	0
407.015	1	-4
407.186	1	10
407.357	1	-6
407.527	1	-4
407.698	1	2
407.869	1	2
408.040	1	-3
408.210	1	-2
408.381	1	8
408.552	1	0
408.722	1	4
408.893	1	1
409.064	1	0
409.235	1	-4
409.405	1	2
409.576	1	4
409.747	1	-4
409.917	1	2
410.088	1	10
410.259	1	1
410.430	1	6
410.600	1	-4
410.771	1	6
410.942	1	11
411.112	1	7
411.283	1	-5
411.454	1	1
411.625	1	-8
411.795	1	-3
411.966	1	4
412.137	1	1
412.307	1	3
412.478	1	-8
412.649	1	2
412.819	1	7
412.990	1	-3
413.161	1	7
413.332	1	-3
413.502	1	0
413.673	1	8
413.844	1	1
414.014	1	3
414.185	1	7
414.356	1	12
414.526	1	3
414.697	1	2
414.868	1	-5
415.038	1	-1
415.209	1	2
415.380	1	-6
415.550	1	-6
415.721	1	7
415.892	1	1
416.063	1	3
416.233	1	-3
416.404	1	-8
416.575	1	-7
416.745	1	-1
416.916	1	4
417.087	1	2
417.257	1	-2
417.428	1	5
417.599	1	-1
417.769	1	-8
417.940	1	4
418.111	1	8
418.281	1	9
418.452	1	-3
418.623	1	4
418.793	1	-4
418.964	1	-13
419.135	1	0
419.305	1	2
419.476	1	13
419.647	1	6
419.817	1	-1
419.988	1	-9
420.159	1	-6
420.329	1	6
420.500	1	-1
420.671	1	13
420.841	1	5
421.012	1	8
421.183	1	-4
421.353	1	11
421.524	1	-2
421.695	1	-5
421.865	1	-13
422.036	1	-20
422.206	1	1
422.377	1	0
422.548	1	-9
422.718	1	13
422.889	1	12
423.060	1	2
423.230	1	-3
423.401	1	1
423.572	1	-8
423.742	1	-6
423.913	1	-4
424.084	1	-13
424.254	1	1
424.425	1	-2
424.595	1	0
424.766	1	11
424.937	1	-3
425.107	1	-1
425.278	1	2
425.449	1	1
425.619	1	5
425.790	1	7
425.961	1	-6
426.131	1	-2
426.302	1	-4
426.472	1	5
426.643	1	-3
426.814	1	-11
426.984	1	3
427.155	1	17
427.326	1	-2
427.496	1	-6
427.667	1	8
427.837	1	4
428.008	1	-2
428.179	1	-3
428.349	1	1
428.520	1	8
428.691	1	7
428.861	1	-3
429.032	1	2
429.202	1	-9
429.373	1	10
429.544	1	-7
429.714	1	1
429.885	1	2
430.055	1	7
430.226	1	-7
430.397	1	7
430.567	1	5
430.738	1	11
430.909	1	-3
431.079	1	-1
431.250	1	3
431.420	1	9
431.591	1	6
431.762	1	10
431.932	1	6
432.103	1	-4
432.273	1	-2
432.444	1	-6
432.615	1	-8
432.785	1	6
432.956	1	-5
433.126	1	5
433.297	1	2
433.468	1	3
433.638	1	-7
433.809	1	-7
433.979	1	-3
434.150	1	7
434.320	1	-2
434.491	1	6
434.662	1	-2
434.832	1	2
435.003	1	-2
435.173	1	8
435.344	1	1
435.515	1	-3
435.685	1	-15
435.856	1	1
436.026	1	-1
436.197	1	-1
436.368	1	-4
436.538	1	1
436.709	1	11
436.879	1	-2
437.050	1	-3
437.220	1	11
437.391	1	1
437.562	1	2
437.732	1	-13
437.903	1	2
438.073	1	5
438.244	1	1
438.414	1	-11
438.585	1	-5
438.756	1	-5
438.926	1	7
439.097	1	5
439.267	1	-2
439.438	1	8
439.608	1	-3
439.779	1	2
439.949	1	2
440.120	1	-3
440.291	1	-3
440.461	1	-5
440.632	1	1
440.802	1	-8
440.973	1	7
441.143	1	8
441.314	1	-2
441.485	1	-9
441.655	1	1
441.826	1	-7
441.996	1	11
442.167	1	-12
442.337	1	10
442.508	1	5
442.678	1	2
442.849	1	-4
443.019	1	-4
443.190	1	-5
443.361	1	0
443.531	1	4
443.702	1	-3
443.872	1	4
444.043	1	-4
444.213	1	-5
444.384	1	0
444.554	1	-7
444.725	1	3
444.895	1	-6
445.066	1	-4
445.237	1	-7
445.407	1	1
445.578	1	-13
445.748	1	-1
445.919	1	-3
446.089	1	11
446.260	1	-6
446.430	1	16
446.601	1	0
446.771	1	10
446.942	1	-8
447.112	1	2
447.283	1	-3
447.453	1	2
447.624	1	0
447.794	1	3
447.965	1	-7
448.135	1	-3
448.306	1	0
448.477	1	-3
448.647	1	-1
448.818	1	2
448.988	1	4
449.159	1	4
449.329	1	2
449.500	1	-1
449.670	1	4
449.841	1	2
450.011	1	-4
450.182	1	-6
450.352	1	-7
450.523	1	-6
450.693	1	3
450.864	1	4
451.034	1	5
451.205	1	10
451.375	1	5
451.546	1	5
451.716	1	9
451.887	1	-3
452.057	1	-9
452.228	1	14
452.398	1	-8
452.569	1	6
452.739	1	8
452.910	1	2
453.080	1	-3
453.251	1	-1
453.421	1	7
453.592	1	1
453.762	1	-4
453.933	1	6
454.103	1	-5
454.274	1	-7
454.444	1	-8
454.615	1	3
454.785	1	-11
454.956	1	-1
455.126	1	-1
455.297	1	-3
455.467	1	-3
455.638	1	8
455.808	1	4
455.979	1	3
456.149	1	-6
456.320	1	6
456.490	1	4
456.661	1	1
456.831	1	6
457.001	1	-2
457.172	1	3
457.342	1	-2
457.513	1	-6
457.683	1	-4
457.854	1	0
458.024	1	-2
458.195	1	-11
458.365	1	3
458.536	1	1
458.706	1	8
458.877	1	-9
459.047	1	9
459.218	1	-14
459.388	1	6
459.559	1	2
459.729	1	2
459.899	1	-2
460.070	1	1
460.240	1	-12
460.411	1	-8
460.581	1	2
460.752	1	2
460.922	1	-5
461.093	1	-8
461.263	1	8
461.434	1	9
461.604	1	3
461.775	1	1
461.945	1	-2
462.115	1	-4
462.286	1	1
462.456	1	-3
462.627	1	4
462.797	1	-3
462.968	1	-8
463.138	1	1
463.309	1	-3
463.479	1	3
463.649	1	11
463.820	1	-9
463.990	1	1
464.161	1	-9
464.331	1	5
464.502	1	1
464.672	1	3
464.843	1	-7
465.013	1	-5
465.183	1	-2
465.354	1	4
465.524	1	6
465.695	1	5
465.865	1	-7
466.036	1	2
466.206	1	8
466.376	1	1
466.547	1	8
466.717	1	1
466.888	1	2
467.058	1	2
467.229	1	-5
467.399	1	1
467.569	1	-4
467.740	1	-4
467.910	1	-3
468.081	1	4
468.251	1	8
468.422	1	5
468.592	1	7
468.762	1	-7
468.933	1	8
469.103	1	-2
469.274	1	-2
469.444	1	-3
469.614	1	-12
469.785	1	14
469.955	1	5
470.126	1	-1
470.296	1	-2
470.467	1	-10
470.637	1	0
470.807	1	-1
470.978	1	1
471.148	1	3
471.319	1	-1
471.489	1	1
471.659	1	-5
471.830	1	-4
472.000	1	-2
472.171	1	14
472.341	1	15
472.511	1	14
472.682	1	0
472.852	1	1
473.023	1	-9
473.193	1	10
473.363	1	-4
473.534	1	0
473.704	1	-7
473.875	1	2
474.045	1	1
474.215	1	0
474.386	1	11
474.556	1	5
474.727	1	2
474.897	1	5
475.067	1	-3
475.238	1	-8
475.408	1	11
475.578	1	2
475.749	1	9
475.919	1	2
476.090	1	21
476.260	1	-1
476.430	1	2
476.601	1	0
476.771	1	14
476.942	1	-3
477.112	1	-1
477.282	1	1
477.453	1	-5
477.623	1	-8
477.793	1	9
477.964	1	1
478.134	1	0
478.305	1	4
478.475	1	-2
478.645	1	0
478.816	1	7
478.986	1	2
479.156	1	6
479.327	1	9
479.497	1	-1
479.667	1	3
479.838	1	-4
480.008	1	4
480.179	1	0
480.349	1	-2
480.519	1	-8
480.690	1	-11
480.860	1	-4
481.030	1	12
481.201	1	3
481.371	1	13
481.541	1	-8
481.712	1	0
481.882	1	-7
482.053	1	7
482.223	1	-3
482.393	1	-2
482.564	1	1
482.734	1	7
482.904	1	6
483.075	1	3
483.245	1	7
483.415	1	2
483.586	1	6
483.756	1	-9
483.926	1	-5
484.097	1	0
484.267	1	2
484.437	1	4
484.608	1	13
484.778	1	7
484.948	1	-2
485.119	1	-2
485.289	1	-4
485.459	1	7
485.630	1	-6
485.800	1	2
485.970	1	6
486.141	1	5
486.311	1	-7
486.481	1	8
486.652	1	0
486.822	1	4
486.992	1	1
487.163	1	7
487.333	1	3
487.503	1	3
487.674	1	1
487.844	1	-3
488.014	1	-2
488.185	1	2
488.355	1	6
488.525	1	11
488.696	1	-1
488.866	1	2
489.036	1	0
489.207	1	-9
489.377	1	-6
489.547	1	0
489.718	1	13
489.888	1	6
490.058	1	-5
490.228	1	-2
490.399	1	1
490.569	1	9
490.739	1	-5
490.910	1	-1
491.080	1	-4
491.250	1	4
491.421	1	-1
491.591	1	-6
491.761	1	4
491.932	1	7
492.102	1	-4
492.272	1	-2
492.442	1	6
492.613	1	5
492.783	1	0
492.953	1	6
493.124	1	-4
493.294	1	1
493.464	1	6
493.635	1	5
493.805	1	9
493.975	1	-8
494.145	1	-11
494.316	1	12
494.486	1	6
494.656	1	-3
494.827	1	-8
494.997	1	5
495.167	1	4
495.337	1	16
495.508	1	8
495.678	1	0
495.848	1	8
496.019	1	8
496.189	1	3
496.359	1	-4
496.529	1	-2
496.700	1	5
496.870	1	5
497.040	1	4
497.211	1	-1
497.381	1	2
497.551	1	-6
497.721	1	6
497.892	1	0
498.062	1	-5
498.232	1	3
498.403	1	4
498.573	1	5
498.743	1	12
498.913	1	-6
499.084	1	-2
499.254	1	4
499.424	1	-5
499.594	1	15
499.765	1	8
499.935	1	1
500.105	1	17
500.275	1	8
500.446	1	9
500.616	1	-4
500.786	1	-2
500.956	1	3
501.127	1	-6
501.297	1	-7
501.467	1	-2
501.638	1	14
501.808	1	-5
501.978	1	4
502.148	1	1
502.319	1	6
502.489	1	13
502.659	1	8
502.829	1	8
503.000	1	-7
503.170	1	4
503.340	1	2
503.510	1	5
503.681	1	-4
503.851	1	2
504.021	1	2
504.191	1	8
504.362	1	-5
504.532	1	8
504.702	1	7
504.872	1	1
505.042	1	2
505.213	1	-13
505.383	1	4
505.553	1	-4
505.723	1	5
505.894	1	0
506.064	1	-4
506.234	1	6
506.404	1	6
506.575	1	-2
506.745	1	8
506.915	1	4
507.085	1	8
507.256	1	-7
507.426	1	1
507.596	1	3
507.766	1	5
507.936	1	-5
508.107	1	8
508.277	1	7
508.447	1	2
508.617	1	2
508.788	1	15
508.958	1	-7
509.128	1	-1
509.298	1	5
509.468	1	3
509.639	1	6
509.809	1	2
509.979	1	12
510.149	1	4
510.319	1	4
510.490	1	3
510.660	1	12
510.830	1	-5
511.000	1	8
511.171	1	-1
511.341	1	8
511.511	1	2
511.681	1	2
511.851	1	16
512.022	1	6
512.192	1	-7
512.362	1	12
512.532	1	3
512.702	1	6
512.873	1	4
513.043	1	6
513.213	1	11
513.383	1	3
513.553	1	14
513.724	1	3
513.894	1	9
514.064	1	5
514.234	1	4
514.404	1	5
514.575	1	5
514.745	1	9
514.915	1	-3
515.085	1	7
515.255	1	6
515.425	1	9
515.596	1	6
515.766	1	4
515.936	1	8
516.106	1	5
516.276	1	0
516.447	1	0
516.617	1	-5
516.787	1	-1
516.957	1	13
517.127	1	8
517.297	1	8
517.468	1	-4
517.638	1	3
517.808	1	6
517.978	1	-5
518.148	1	10
518.319	1	6
518.489	1	7
518.659	1	-4
518.829	1	8
518.999	1	4
519.169	1	-1
519.340	1	9
519.510	1	-15
519.680	1	10
519.850	1	1
520.020	1	9
520.190	1	-7
520.361	1	0
520.531	1	13
520.701	1	1
520.871	1	5
521.041	1	11
521.211	1	1
521.382	1	4
521.552	1	10
521.722	1	4
521.892	1	3
522.062	1	8
522.232	1	1
522.402	1	-6
522.573	1	16
522.743	1	3
522.913	1	7
523.083	1	5
523.253	1	-6
523.423	1	10
523.593	1	6
523.764	1	10
523.934	1	-5
524.104	1	3
524.274	1	4
524.444	1	0
524.614	1	4
524.784	1	-4
524.955	1	0
525.125	1	-2
525.295	1	-6
525.465	1	10
525.635	1	6
525.805	1	12
525.975	1	2
526.146	1	7
526.316	1	-2
526.486	1	19
526.656	1	12
526.826	1	14
526.996	1	-4
527.166	1	8
527.337	1	-4
527.507	1	8
527.677	1	2
527.847	1	7
528.017	1	-4
528.187	1	-3
528.357	1	7
528.527	1	-7
528.698	1	7
528.868	1	0
529.038	1	9
529.208	1	4
529.378	1	-2
529.548	1	24
529.718	1	-5
529.888	1	12
530.058	1	9
530.229	1	4
530.399	1	8
530.569	1	5
530.739	1	-4
530.909	1	-9
531.079	1	16
531.249	1	3
531.419	1	6
531.589	1	2
531.760	1	-2
531.930	1	12
532.100	1	1
532.270	1	-3
532.440	1	2
532.610	1	4
532.780	1	-9
532.950	1	9
533.120	1	5
533.290	1	-6
533.461	1	3
533.631	1	7
533.801	1	6
533.971	1	-1
534.141	1	-4
534.311	1	14
534.481	1	0
534.651	1	-1
534.821	1	11
534.991	1	13
535.162	1	11
535.332	1	-3
535.502	1	9
535.672	1	16
535.842	1	12
536.012	1	-3
536.182	1	-1
536.352	1	6
536.522	1	4
536.692	1	15
536.862	1	3
537.032	1	3
537.203	1	11
537.373	1	10
537.543	1	1
537.713	1	3
537.883	1	16
538.053	1	0
538.223	1	8
538.393	1	-3
538.563	1	11
538.733	1	-7
538.903	1	8
539.073	1	1
539.243	1	8
539.413	1	4
539.584	1	1
539.754	1	-6
539.924	1	-2
540.094	1	4
540.264	1	-1
540.434	1	8
540.604	1	6
540.774	1	6
540.944	1	5
541.114	1	14
541.284	1	0
541.454	1	-1
541.624	1	-7
541.794	1	-6
541.964	1	3
542.134	1	4
542.305	1	7
542.475	1	4
542.645	1	7
542.815	1	10
542.985	1	2
543.155	1	3
543.325	1	-4
543.495	1	9
543.665	1	7
543.835	1	11
544.005	1	6
544.175	1	0
544.345	1	-2
544.515	1	7
544.685	1	15
544.855	1	-4
545.025	1	2
545.195	1	1
545.365	1	5
545.535	1	2
545.705	1	2
545.875	1	8
546.045	1	12
546.216	1	3
546.386	1	5
546.556	1	10
546.726	1	2
546.896	1	2
547.066	1	1
547.236	1	7
547.406	1	4
547.576	1	4
547.746	1	-4
547.916	1	1
548.086	1	2
548.256	1	14
548.426	1	4
548.596	1	2
548.766	1	8
548.936	1	-2
549.106	1	8
549.276	1	7
549.446	1	19
549.616	1	2
549.786	1	14
549.956	1	7
550.126	1	17
550.296	1	4
550.466	1	-8
550.636	1	7
550.806	1	-6
550.976	1	-12
551.146	1	-4
551.316	1	10
551.486	1	6
551.656	1	10
551.826	1	5
551.996	1	0
552.166	1	-5
552.336	1	4
552.506	1	-8
552.676	1	10
552.846	1	1
553.016	1	14
553.186	1	5
553.356	1	2
553.526	1	5
553.696	1	6
553.866	1	6
554.036	1	0
554.206	1	-12
554.376	1	6
554.546	1	5
554.716	1	9
554.886	1	2
555.056	1	-1
555.226	1	7
555.396	1	0
555.566	1	7
555.736	1	-5
555.906	1	1
556.076	1	19
556.246	1	7
556.416	1	-1
556.586	1	8
556.756	1	14
556.926	1	3
557.096	1	8
557.266	1	-2
557.436	1	3
557.606	1	-8
557.776	1	0
557.946	1	11
558.116	1	7
558.286	1	0
558.456	1	12
558.626	1	12
558.796	1	1
558.966	1	2
559.136	1	-6
559.306	1	-3
559.476	1	14
559.646	1	3
559.816	1	-1
559.986	1	6
560.155	1	13
560.325	1	14
560.495	1	1
560.665	1	12
560.835	1	14
561.005	1	6
561.175	1	4
561.345	1	0
561.515	1	0
561.685	1	-1
561.855	1	-1
562.025	1	6
562.195	1	6
562.365	1	0
562.535	1	5
562.705	1	1
562.875	1	5
563.045	1	-2
563.215	1	-1
563.385	1	1
563.555	1	1
563.725	1	-3
563.895	1	18
564.064	1	4
564.234	1	9
564.404	1	-2
564.574	1	4
564.744	1	5
564.914	1	8
565.084	1	4
565.254	1	3
565.424	1	2
565.594	1	6
565.764	1	8
565.934	1	4
566.104	1	-4
566.274	1	-9
566.444	1	4
566.614	1	10
566.783	1	0
566.953	1	-1
567.123	1	3
567.293	1	-1
567.463	1	-3
567.633	1	10
567.803	1	4
567.973	1	4
568.143	1	5
568.313	1	-4
568.483	1	-1
568.653	1	11
568.823	1	14
568.993	1	6
569.162	1	0
569.332	1	14
569.502	1	-3
569.672	1	-1
569.842	1	7
570.012	1	15
570.182	1	-5
570.352	1	-1
570.522	1	4
570.692	1	-4
570.862	1	2
571.031	1	-5
571.201	1	-1
571.371	1	-6
571.541	1	6
571.711	1	14
571.881	1	-3
572.051	1	-7
572.221	1	0
572.391	1	11
572.561	1	-5
572.731	1	2
572.900	1	-1
573.070	1	5
573.240	1	14
573.410	1	2
573.580	1	-9
573.750	1	-1
573.920	1	-4
574.090	1	-6
574.260	1	5
574.430	1	-4
574.599	1	4
574.769	1	10
574.939	1	11
575.109	1	-8
575.279	1	-9
575.449	1	8
575.619	1	-6
575.789	1	-1
575.959	1	-6
576.128	1	14
576.298	1	4
576.468	1	13
576.638	1	7
576.808	1	2
576.978	1	10
577.148	1	2
577.318	1	3
577.487	1	-6
577.657	1	-7
577.827	1	3
577.997	1	-1
578.167	1	-2
578.337	1	9
578.507	1	-3
578.677	1	-5
578.846	1	-5
579.016	1	4
579.186	1	-4
579.356	1	-1
579.526	1	-3
579.696	1	6
579.866	1	-8
580.036	1	0
580.205	1	10
580.375	1	4
580.545	1	5
580.715	1	0
580.885	1	10
581.055	1	1
581.225	1	4
581.394	1	1
581.564	1	5
581.734	1	-13
581.904	1	-6
582.074	1	10
582.244	1	8
582.414	1	-17
582.583	1	-6
582.753	1	-6
582.923	1	0
583.093	1	7
583.263	1	13
583.433	1	4
583.603	1	8
583.772	1	-6
583.942	1	1
584.112	1	-3
584.282	1	4
584.452	1	-3
584.622	1	-8
584.791	1	-7
584.961	1	-1
585.131	1	3
585.301	1	0
585.471	1	0
585.641	1	4
585.811	1	-2
585.980	1	1
586.150	1	-4
586.320	1	0
586.490	1	-2
586.660	1	3
586.830	1	5
586.999	1	-12
587.169	1	-4
587.339	1	4
587.509	1	-5
587.679	1	6
587.849	1	-1
588.018	1	-5
588.188	1	-3
588.358	1	5
588.528	1	9
588.698	1	0
588.867	1	7
589.037	1	6
589.207	1	-10
589.377	1	-9
589.547	1	4
589.717	1	-8
589.886	1	-8
590.056	1	3
590.226	1	12
590.396	1	9
590.566	1	-4
590.735	1	-2
590.905	1	2
591.075	1	2
591.245	1	4
591.415	1	-2
591.585	1	5
591.754	1	10
591.924	1	8
592.094	1	3
592.264	1	-3
592.434	1	2
592.603	1	-9
592.773	1	-12
592.943	1	5
593.113	1	9
593.283	1	-4
593.452	1	0
593.622	1	-3
593.792	1	6
593.962	1	2
594.132	1	7
594.301	1	4
594.471	1	1
594.641	1	-11
594.811	1	9
594.981	1	8
595.150	1	4
595.320	1	-1
595.490	1	0
595.660	1	7
595.829	1	4
595.999	1	2
596.169	1	1
596.339	1	13
596.509	1	-9
596.678	1	0
596.848	1	13
597.018	1	11
597.188	1	4
597.358	1	-4
597.527	1	-10
597.697	1	10
597.867	1	11
598.037	1	9
598.206	1	5
598.376	1	-5
598.546	1	-3
598.716	1	3
598.885	1	7
599.055	1	4
599.225	1	-2
599.395	1	4
599.565	1	-4
599.734	1	0
599.904	1	-7
600.074	1	2
600.244	1	0
600.413	1	-5
600.583	1	-5
600.753	1	2
600.923	1	7
601.092	1	1
601.262	1	5
601.432	1	8
601.602	1	2
601.771	1	-2
601.941	1	3
602.111	1	6
602.281	1	5
602.451	1	-7
602.620	1	-7
602.790	1	4
602.960	1	0
603.130	1	4
603.299	1	-1
603.469	1	6
603.639	1	-8
603.809	1	-11
603.978	1	0
604.148	1	2
604.318	1	1
604.487	1	-4
604.657	1	0
604.827	1	0
604.997	1	-3
605.166	1	-9
605.336	1	0
605.506	1	6
605.676	1	19
605.845	1	-10
606.015	1	1
606.185	1	-3
606.355	1	10
606.524	1	5
606.694	1	4
606.864	1	-8
607.034	1	2
607.203	1	6
607.373	1	5
607.543	1	-1
607.712	1	11
607.882	1	5
608.052	1	12
608.222	1	-14
608.391	1	0
608.561	1	2
608.731	1	-4
608.901	1	3
609.070	1	-2
609.240	1	1
609.410	1	0
609.579	1	-11
609.749	1	1
609.919	1	0
610.089	1	-4
610.258	1	13
610.428	1	-2
610.598	1	-2
610.767	1	0
610.937	1	9
611.107	1	-7
611.277	1	10
611.446	1	0
611.616	1	5
611.786	1	3
611.955	1	-4
612.125	1	2
612.295	1	2
612.465	1	0
612.634	1	6
612.804	1	10
612.974	1	-3
613.143	1	2
613.313	1	8
613.483	1	-5
613.652	1	-5
613.822	1	0
613.992	1	1
614.162	1	-4
614.331	1	7
614.501	1	-4
614.671	1	-3
614.840	1	7
615.010	1	-6
615.180	1	3
615.349	1	5
615.519	1	-1
615.689	1	-7
615.858	1	3
616.028	1	0
616.198	1	5
616.368	1	4
616.537	1	-7
616.707	1	-3
616.877	1	7
617.046	1	0
617.216	1	-2
617.386	1	3
617.555	1	5
617.725	1	3
617.895	1	8
618.064	1	-3
618.234	1	4
618.404	1	11
618.573	1	-1
618.743	1	9
618.913	1	6
619.082	1	-2
619.252	1	-2
619.422	1	8
619.591	1	0
619.761	1	-5
619.931	1	4
620.100	1	5
620.270	1	6
620.440	1	-8
620.609	1	0
620.779	1	-14
620.949	1	14
621.118	1	0
621.288	1	10
621.458	1	7
621.627	1	0
621.797	1	10
621.967	1	4
622.136	1	4
622.306	1	1
622.476	1	9
622.645	1	12
622.815	1	-7
622.985	1	0
623.154	1	2
623.324	1	2
623.494	1	10
623.663	1	-3
623.833	1	-14
624.002	1	5
624.172	1	3
624.342	1	4
624.511	1	6
624.681	1	-4
624.851	1	-2
625.020	1	6
625.190	1	11
625.360	1	1
625.529	1	13
625.699	1	12
625.869	1	13
626.038	1	1
626.208	1	4
626.377	1	-2
626.547	1	-2
626.717	1	-1
626.886	1	6
627.056	1	8
627.226	1	-3
627.395	1	-3
627.565	1	-9
627.735	1	-3
627.904	1	-3
628.074	1	-3
628.243	1	-5
628.413	1	14
628.583	1	-5
628.752	1	7
628.922	1	10
629.091	1	-8
629.261	1	-4
629.431	1	-4
629.600	1	-5
629.770	1	5
629.940	1	12
630.109	1	1
630.279	1	-9
630.448	1	8
630.618	1	-5
630.788	1	-11
630.957	1	2
631.127	1	10
631.297	1	-7
631.466	1	3
631.636	1	-6
631.805	1	9
631.975	1	-6
632.145	1	-7
632.314	1	6
632.484	1	-7
632.653	1	-9
632.823	1	-3
632.993	1	8
633.162	1	1
633.332	1	1
633.501	1	-8
633.671	1	5
633.841	1	10
634.010	1	8
634.180	1	-4
634.349	1	0
634.519	1	-8
634.689	1	-4
634.858	1	-11
635.028	1	-2
635.197	1	10
635.367	1	6
635.537	1	4
635.706	1	3
635.876	1	2
636.045	1	-7
636.215	1	-4
636.384	1	2
636.554	1	-5
636.724	1	2
636.893	1	-3
637.063	1	0
637.232	1	-6
637.402	1	1
637.572	1	-2
637.741	1	4
637.911	1	5
638.080	1	4
638.250	1	1
638.419	1	-2
638.589	1	-13
638.759	1	-1
638.928	1	-1
639.098	1	3
639.267	1	-4
639.437	1	2
639.606	1	1
639.776	1	-4
639.946	1	-2
640.115	1	-1
640.285	1	-2
640.454	1	1
640.624	1	2
640.793	1	4
640.963	1	10
641.132	1	-12
641.302	1	10
641.472	1	5
641.641	1	9
641.811	1	7
641.980	1	1
642.150	1	-12
642.319	1	-4
642.489	1	-1
642.659	1	8
642.828	1	-2
642.998	1	0
643.167	1	-2
643.337	1	5
643.506	1	-9
643.676	1	3
643.845	1	-4
644.015	1	4
644.184	1	6
644.354	1	-7
644.524	1	-6
644.693	1	-5
644.863	1	1
645.032	1	8
645.202	1	-1
645.371	1	2
645.541	1	-8
645.710	1	1
645.880	1	-1
646.049	1	8
646.219	1	4
646.388	1	4
646.558	1	0
646.728	1	5
646.897	1	0
647.067	1	3
647.236	1	10
647.406	1	-5
647.575	1	7
647.745	1	-3
647.914	1	0
648.084	1	5
648.253	1	-11
648.423	1	7
648.592	1	-1
648.762	1	-1
648.931	1	-10
649.101	1	4
649.270	1	1
649.440	1	2
649.610	1	7
649.779	1	15
649.949	1	-1
650.118	1	8
650.288	1	-2
650.457	1	-11
650.627	1	6
650.796	1	8
650.966	1	6
651.135	1	-11
651.305	1	1
651.474	1	10
651.644	1	3
651.813	1	0
651.983	1	8
652.152	1	-6
652.322	1	3
652.491	1	-3
652.661	1	9
652.830	1	10
653.000	1	-1
653.169	1	1
653.339	1	7
653.508	1	4
653.678	1	9
653.847	1	-15
654.017	1	9
654.186	1	7
654.356	1	1
654.525	1	-6
654.695	1	2
654.864	1	-1
655.034	1	1
655.203	1	0
655.373	1	3
655.542	1	-5
655.712	1	1
655.881	1	3
656.051	1	-1
656.220	1	0
656.390	1	0
656.559	1	9
656.729	1	2
656.898	1	-3
657.068	1	11
657.237	1	1
657.406	1	0
657.576	1	-4
657.745	1	-2
657.915	1	1
658.084	1	4
658.254	1	-5
658.423	1	20
658.593	1	-7
658.762	1	3
658.932	1	-10
659.101	1	3
659.271	1	3
659.440	1	3
659.610	1	8
659.779	1	-9
659.949	1	4
660.118	1	7
660.288	1	9
660.457	1	1
660.626	1	-6
660.796	1	-3
660.965	1	-7
661.135	1	-7
661.304	1	10
661.474	1	6
661.643	1	3
661.813	1	-4
661.982	1	-3
662.152	1	-3
662.321	1	10
662.491	1	8
662.660	1	5
662.829	1	-8
662.999	1	0
663.168	1	-2
663.338	1	11
663.507	1	3
663.677	1	-4
663.846	1	3
664.016	1	-4
664.185	1	3
664.354	1	-2
664.524	1	-1
664.693	1	3
664.863	1	-4
665.032	1	9
665.202	1	0
665.371	1	4
665.541	1	-6
665.710	1	5
665.879	1	-6
666.049	1	6
666.218	1	-4
666.388	1	6
666.557	1	3
666.727	1	-2
666.896	1	5
667.065	1	5
667.235	1	-5
667.404	1	4
667.574	1	10
667.743	1	7
667.913	1	-4
668.082	1	2
668.251	1	2
668.421	1	6
668.590	1	13
668.760	1	-7
668.929	1	-1
669.099	1	-5
669.268	1	6
669.437	1	0
669.607	1	-6
669.776	1	-6
669.946	1	9
670.115	1	-8
670.285	1	0
670.454	1	10
670.623	1	6
670.793	1	-6
670.962	1	6
671.132	1	-4
671.301	1	-1
671.470	1	2
671.640	1	-4
671.809	1	0
671.979	1	-1
672.148	1	-4
672.317	1	-2
672.487	1	4
672.656	1	5
672.826	1	3
672.995	1	-3
673.164	1	9
673.334	1	-6
673.503	1	-2
673.673	1	-4
673.842	1	-13
674.011	1	-7
674.181	1	-4
674.350	1	-7
674.520	1	5
674.689	1	0
674.858	1	5
675.028	1	1
675.197	1	5
675.367	1	-1
675.536	1	2
675.705	1	10
675.875	1	0
676.044	1	-2
676.214	1	1
676.383	1	-6
676.552	1	-6
676.722	1	-5
676.891	1	9
677.060	1	1
677.230	1	0
677.399	1	6
677.569	1	4
677.738	1	8
677.907	1	-6
678.077	1	-6
678.246	1	-2
678.416	1	3
678.585	1	11
678.754	1	1
678.924	1	-10
679.093	1	-2
679.262	1	-1
679.432	1	8
679.601	1	-15
679.771	1	14
679.940	1	-2
680.109	1	-5
680.279	1	8
680.448	1	-5
680.617	1	0
680.787	1	0
680.956	1	2
681.125	1	-6
681.295	1	-4
681.464	1	-8
681.634	1	1
681.803	1	0
681.972	1	2
682.142	1	-7
682.311	1	-3
682.480	1	2
682.650	1	7
682.819	1	-5
682.988	1	-1
683.158	1	1
683.327	1	2
683.496	1	-3
683.666	1	11
683.835	1	-6
684.004	1	0
684.174	1	-16
684.343	1	0
684.512	1	-4
684.682	1	-8
684.851	1	-1
685.021	1	4
685.190	1	-4
685.359	1	-2
685.529	1	-4
685.698	1	7
685.867	1	-5
686.037	1	-1
686.206	1	3
686.375	1	-1
686.545	1	2
686.714	1	0
686.883	1	7
687.053	1	-6
687.222	1	-2
687.391	1	4
687.561	1	-6
687.730	1	1
687.899	1	2
688.069	1	1
688.238	1	-7
688.407	1	7
688.577	1	9
688.746	1	7
