340.368	1	0
340.539	1	-5
340.710	1	2
340.881	1	-9
341.052	1	-1
341.223	1	3
341.394	1	6
341.565	1	1
341.737	1	5
341.908	1	-10
342.079	1	-1
342.250	1	9
342.421	1	3
342.592	1	-1
342.763	1	7
342.934	1	10
343.105	1	3
343.276	1	4
343.447	1	-10
343.618	1	-4
343.789	1	5
343.960	1	3
344.131	1	-4
344.302	1	-2
344.473	1	-6
344.644	1	-8
344.815	1	17
344.986	1	7
345.157	1	-16
345.328	1	5
345.499	1	6
345.670	1	7
345.841	1	-6
346.012	1	2
346.183	1	2
346.354	1	17
346.526	1	-1
346.697	1	7
346.868	1	-7
347.039	1	8
347.210	1	-8
347.381	1	0
347.552	1	5
347.723	1	0
347.894	1	-8
348.065	1	4
348.236	1	8
348.407	1	-12
348.578	1	7
348.749	1	0
348.920	1	-1
349.091	1	1
349.262	1	1
349.433	1	-4
349.604	1	-1
349.775	1	7
349.946	1	8
350.117	1	-1
350.288	1	-5
350.459	1	-1
350.630	1	-5
350.801	1	2
350.972	1	6
351.143	1	-9
351.314	1	1
351.485	1	-4
351.656	1	-3
351.827	1	4
351.998	1	7
352.169	1	-4
352.340	1	10
352.511	1	0
352.682	1	-2
352.853	1	-2
353.024	1	-4
353.195	1	-6
353.366	1	-3
353.537	1	1
353.708	1	18
353.879	1	-3
354.050	1	7
354.221	1	0
354.392	1	3
354.563	1	-8
354.734	1	10
354.905	1	1
355.076	1	6
355.247	1	-13
355.418	1	-2
355.589	1	11
355.760	1	-5
355.931	1	1
356.102	1	3
356.273	1	-6
356.444	1	1
356.615	1	0
356.785	1	7
356.956	1	3
357.127	1	1
357.298	1	9
357.469	1	-4
357.640	1	5
357.811	1	5
357.982	1	-2
358.153	1	1
358.324	1	2
358.495	1	-1
358.666	1	-5
358.837	1	10
359.008	1	18
359.179	1	7
359.350	1	-3
359.521	1	15
359.692	1	-12
359.863	1	0
360.034	1	7
360.205	1	2
360.376	1	12
360.547	1	2
360.718	1	7
360.889	1	-5
361.060	1	4
361.231	1	12
361.401	1	-1
361.572	1	6
361.743	1	7
361.914	1	3
362.085	1	11
362.256	1	8
362.427	1	10
362.598	1	9
362.769	1	-1
362.940	1	1
363.111	1	17
363.282	1	4
363.453	1	9
363.624	1	16
363.795	1	6
363.966	1	7
364.137	1	10
364.308	1	20
364.478	1	-2
364.649	1	5
364.820	1	8
364.991	1	11
365.162	1	6
365.333	1	14
365.504	1	10
365.675	1	6
365.846	1	10
366.017	1	12
366.188	1	18
366.359	1	0
366.530	1	12
366.701	1	12
366.871	1	10
367.042	1	12
367.213	1	17
367.384	1	19
367.555	1	12
367.726	1	12
367.897	1	7
368.068	1	13
368.239	1	8
368.410	1	27
368.581	1	16
368.752	1	21
368.923	1	20
369.093	1	22
369.264	1	11
369.435	1	15
369.606	1	16
369.777	1	22
369.948	1	23
370.119	1	16
370.290	1	11
370.461	1	16
370.632	1	23
370.803	1	5
370.973	1	5
371.144	1	4
371.315	1	24
371.486	1	11
371.657	1	15
371.828	1	12
371.999	1	11
372.170	1	18
372.341	1	11
372.512	1	11
372.682	1	-8
372.853	1	2
373.024	1	10
373.195	1	16
373.366	1	10
373.537	1	6
373.708	1	14
373.879	1	14
374.050	1	7
374.220	1	6
374.391	1	12
374.562	1	11
374.733	1	8
374.904	1	18
375.075	1	2
375.246	1	8
375.417	1	2
375.588	1	7
375.758	1	0
375.929	1	11
376.100	1	7
376.271	1	7
376.442	1	9
376.613	1	11
376.784	1	-7
376.955	1	7
377.125	1	3
377.296	1	16
377.467	1	15
377.638	1	-4
377.809	1	9
377.980	1	2
378.151	1	5
378.321	1	1
378.492	1	0
378.663	1	6
378.834	1	2
379.005	1	15
379.176	1	2
379.347	1	0
379.518	1	2
379.688	1	-6
379.859	1	12
380.030	1	10
380.201	1	5
380.372	1	10
380.543	1	5
380.714	1	2
380.884	1	8
381.055	1	0
381.226	1	4
381.397	1	6
381.568	1	12
381.739	1	-3
381.910	1	16
382.080	1	1
382.251	1	13
382.422	1	-4
382.593	1	11
382.764	1	12
382.935	1	3
383.105	1	6
383.276	1	4
383.447	1	1
383.618	1	3
383.789	1	1
383.960	1	4
384.130	1	3
384.301	1	-3
384.472	1	3
384.643	1	9
384.814	1	10
384.985	1	13
385.156	1	16
385.326	1	10
385.497	1	-5
385.668	1	9
385.839	1	5
386.010	1	5
386.180	1	12
386.351	1	3
386.522	1	17
386.693	1	2
386.864	1	8
387.035	1	12
387.205	1	14
387.376	1	10
387.547	1	13
387.718	1	11
387.889	1	0
388.060	1	7
388.230	1	9
388.401	1	6
388.572	1	0
388.743	1	5
388.914	1	2
389.084	1	12
389.255	1	12
389.426	1	4
389.597	1	1
389.768	1	8
389.939	1	11
390.109	1	9
390.280	1	-1
390.451	1	9
390.622	1	3
390.793	1	10
390.963	1	1
391.134	1	12
391.305	1	13
391.476	1	3
391.647	1	5
391.817	1	3
391.988	1	11
392.159	1	11
392.330	1	-5
392.501	1	3
392.671	1	3
392.842	1	6
393.013	1	10
393.184	1	-6
393.355	1	-9
393.525	1	12
393.696	1	-2
393.867	1	1
394.038	1	0
394.208	1	15
394.379	1	7
394.550	1	-6
394.721	1	6
394.892	1	3
395.062	1	3
395.233	1	0
395.404	1	2
395.575	1	12
395.746	1	16
395.916	1	7
396.087	1	-4
396.258	1	4
396.429	1	-1
396.599	1	8
396.770	1	2
396.941	1	-4
397.112	1	4
397.283	1	4
397.453	1	5
397.624	1	10
397.795	1	9
397.966	1	5
398.136	1	2
398.307	1	-1
398.478	1	1
398.649	1	7
398.819	1	7
398.990	1	-2
399.161	1	1
399.332	1	5
399.503	1	-3
399.673	1	10
399.844	1	-10
400.015	1	-1
400.186	1	9
400.356	1	16
400.527	1	3
400.698	1	1
400.869	1	10
401.039	1	4
401.210	1	-8
401.381	1	3
401.552	1	0
401.722	1	6
401.893	1	4
402.064	1	0
402.235	1	5
402.405	1	-2
402.576	1	5
402.747	1	7
402.918	1	-6
403.088	1	-14
403.259	1	16
403.430	1	16
403.601	1	2
403.771	1	-5
403.942	1	13
404.113	1	-1
404.284	1	7
404.454	1	1
404.625	1	14
404.796	1	0
404.967	1	8
405.137	1	5
405.308	1	12
405.479	1	-7
405.649	1	-11
405.820	1	-6
405.991	1	12
406.162	1	-2
406.332	1	1
406.503	1	7
406.674	1	20
406.845	1	-3
407.015	1	3
407.186	1	7
407.357	1	-3
407.527	1	2
407.698	1	1
407.869	1	2
408.040	1	-1
408.210	1	4
408.381	1	8
408.552	1	15
408.722	1	10
408.893	1	-4
409.064	1	3
409.235	1	-5
409.405	1	5
409.576	1	11
409.747	1	-1
409.917	1	6
410.088	1	12
410.259	1	5
410.430	1	0
410.600	1	5
410.771	1	12
410.942	1	11
411.112	1	7
411.283	1	-6
411.454	1	4
411.625	1	-4
411.795	1	9
411.966	1	0
412.137	1	4
412.307	1	-3
412.478	1	3
412.649	1	8
412.819	1	5
412.990	1	2
413.161	1	1
413.332	1	-6
413.502	1	-4
413.673	1	3
413.844	1	9
414.014	1	7
414.185	1	-4
414.356	1	3
414.526	1	7
414.697	1	11
414.868	1	-5
415.038	1	-4
415.209	1	5
415.380	1	-10
415.550	1	-5
415.721	1	2
415.892	1	5
416.063	1	4
416.233	1	5
416.404	1	6
416.575	1	5
416.745	1	15
416.916	1	-2
417.087	1	5
417.257	1	-1
417.428	1	1
417.599	1	0
417.769	1	3
417.940	1	2
418.111	1	8
418.281	1	4
418.452	1	-3
418.623	1	4
418.793	1	6
418.964	1	-6
419.135	1	11
419.305	1	7
419.476	1	18
419.647	1	-1
419.817	1	-2
419.988	1	2
420.159	1	3
420.329	1	-4
420.500	1	2
420.671	1	14
420.841	1	1
421.012	1	11
421.183	1	3
421.353	1	13
421.524	1	0
421.695	1	1
421.865	1	3
422.036	1	-11
422.206	1	5
422.377	1	3
422.548	1	0
422.718	1	1
422.889	1	1
423.060	1	20
423.230	1	7
423.401	1	1
423.572	1	-3
423.742	1	0
423.913	1	-11
424.084	1	10
424.254	1	-2
424.425	1	1
424.595	1	-1
424.766	1	24
424.937	1	-3
425.107	1	-1
425.278	1	-3
425.449	1	10
425.619	1	4
425.790	1	4
425.961	1	-7
426.131	1	-3
426.302	1	0
426.472	1	11
426.643	1	-7
426.814	1	-8
426.984	1	-5
427.155	1	27
427.326	1	6
427.496	1	-8
427.667	1	6
427.837	1	15
428.008	1	10
428.179	1	4
428.349	1	9
428.520	1	4
428.691	1	1
428.861	1	-7
429.032	1	2
429.202	1	-4
429.373	1	3
429.544	1	1
429.714	1	7
429.885	1	2
430.055	1	12
430.226	1	-5
430.397	1	1
430.567	1	-2
430.738	1	10
430.909	1	-2
431.079	1	-2
431.250	1	-10
431.420	1	7
431.591	1	12
431.762	1	6
431.932	1	4
432.103	1	2
432.273	1	5
432.444	1	9
432.615	1	0
432.785	1	-5
432.956	1	2
433.126	1	4
433.297	1	1
433.468	1	-1
433.638	1	-7
433.809	1	4
433.979	1	6
434.150	1	3
434.320	1	6
434.491	1	0
434.662	1	-5
434.832	1	4
435.003	1	-3
435.173	1	11
435.344	1	0
435.515	1	2
435.685	1	-3
435.856	1	-2
436.026	1	0
436.197	1	3
436.368	1	0
436.538	1	6
436.709	1	-1
436.879	1	-4
437.050	1	-5
437.220	1	13
437.391	1	17
437.562	1	-5
437.732	1	-1
437.903	1	-2
438.073	1	15
438.244	1	2
438.414	1	-4
438.585	1	-5
438.756	1	-4
438.926	1	12
439.097	1	5
439.267	1	8
439.438	1	-1
439.608	1	-3
439.779	1	6
439.949	1	5
440.120	1	-5
440.291	1	-2
440.461	1	-3
440.632	1	2
440.802	1	-10
440.973	1	9
441.143	1	-1
441.314	1	3
441.485	1	-12
441.655	1	3
441.826	1	6
441.996	1	1
442.167	1	-11
442.337	1	1
442.508	1	-2
442.678	1	-3
442.849	1	-6
443.019	1	-1
443.190	1	-2
443.361	1	7
443.531	1	7
443.702	1	4
443.872	1	6
444.043	1	-12
444.213	1	-8
444.384	1	-1
444.554	1	1
444.725	1	1
444.895	1	0
445.066	1	-3
445.237	1	-2
445.407	1	-1
445.578	1	-1
445.748	1	-1
445.919	1	-1
446.089	1	5
446.260	1	1
446.430	1	1
446.601	1	14
446.771	1	-2
446.942	1	1
447.112	1	8
447.283	1	4
447.453	1	1
447.624	1	-3
447.794	1	-6
447.965	1	-6
448.135	1	3
448.306	1	5
448.477	1	-2
448.647	1	4
448.818	1	-1
448.988	1	7
449.159	1	13
449.329	1	-1
449.500	1	7
449.670	1	16
449.841	1	7
450.011	1	-6
450.182	1	1
450.352	1	-7
450.523	1	0
450.693	1	1
450.864	1	7
451.034	1	-2
451.205	1	-4
451.375	1	3
451.546	1	11
451.716	1	6
451.887	1	0
452.057	1	-2
452.228	1	10
452.398	1	-3
452.569	1	13
452.739	1	8
452.910	1	-3
453.080	1	1
453.251	1	-1
453.421	1	7
453.592	1	-1
453.762	1	3
453.933	1	10
454.103	1	2
454.274	1	-7
454.444	1	2
454.615	1	6
454.785	1	-6
454.956	1	-3
455.126	1	-2
455.297	1	1
455.467	1	4
455.638	1	2
455.808	1	6
455.979	1	8
456.149	1	-3
456.320	1	6
456.490	1	7
456.661	1	-8
456.831	1	4
457.001	1	1
457.172	1	5
457.342	1	2
457.513	1	-3
457.683	1	6
457.854	1	-4
458.024	1	3
458.195	1	-7
458.365	1	14
458.536	1	-1
458.706	1	12
458.877	1	-3
459.047	1	10
459.218	1	-11
459.388	1	4
459.559	1	-3
459.729	1	-1
459.899	1	-6
460.070	1	0
460.240	1	-5
460.411	1	-3
460.581	1	-3
460.752	1	-4
460.922	1	-5
461.093	1	5
461.263	1	4
461.434	1	2
461.604	1	-4
461.775	1	7
461.945	1	7
462.115	1	-1
462.286	1	0
462.456	1	3
462.627	1	6
462.797	1	-10
462.968	1	-4
463.138	1	-3
463.309	1	2
463.479	1	6
463.649	1	9
463.820	1	-7
463.990	1	7
464.161	1	2
464.331	1	-1
464.502	1	-10
464.672	1	-10
464.843	1	8
465.013	1	2
465.183	1	-1
465.354	1	7
465.524	1	10
465.695	1	-1
465.865	1	-3
466.036	1	7
466.206	1	5
466.376	1	1
466.547	1	-3
466.717	1	4
466.888	1	-2
467.058	1	2
467.229	1	-2
467.399	1	7
467.569	1	2
467.740	1	-6
467.910	1	-3
468.081	1	3
468.251	1	6
468.422	1	7
468.592	1	5
468.762	1	-8
468.933	1	15
469.103	1	0
469.274	1	3
469.444	1	-8
469.614	1	-2
469.785	1	4
469.955	1	6
470.126	1	1
470.296	1	-6
470.467	1	-3
470.637	1	8
470.807	1	4
470.978	1	3
471.148	1	3
471.319	1	5
471.489	1	1
471.659	1	-3
471.830	1	-6
472.000	1	0
472.171	1	6
472.341	1	12
472.511	1	-1
472.682	1	-2
472.852	1	-6
473.023	1	0
473.193	1	8
473.363	1	2
473.534	1	-6
473.704	1	-11
473.875	1	-5
474.045	1	2
474.215	1	6
474.386	1	19
474.556	1	8
474.727	1	1
474.897	1	1
475.067	1	-6
475.238	1	2
475.408	1	8
475.578	1	4
475.749	1	11
475.919	1	-1
476.090	1	12
476.260	1	-1
476.430	1	-2
476.601	1	8
476.771	1	7
476.942	1	-9
477.112	1	-3
477.282	1	0
477.453	1	-10
477.623	1	-4
477.793	1	10
477.964	1	-7
478.134	1	6
478.305	1	9
478.475	1	7
478.645	1	7
478.816	1	3
478.986	1	4
479.156	1	-5
479.327	1	-5
479.497	1	3
479.667	1	-1
479.838	1	-1
480.008	1	0
480.179	1	1
480.349	1	7
480.519	1	-5
480.690	1	4
480.860	1	0
481.030	1	2
481.201	1	6
481.371	1	14
481.541	1	-4
481.712	1	5
481.882	1	-5
482.053	1	1
482.223	1	0
482.393	1	-2
482.564	1	1
482.734	1	-2
482.904	1	2
483.075	1	-8
483.245	1	10
483.415	1	0
483.586	1	10
483.756	1	-6
483.926	1	0
484.097	1	-4
484.267	1	0
484.437	1	5
484.608	1	7
484.778	1	9
484.948	1	4
485.119	1	2
485.289	1	7
485.459	1	14
485.630	1	-8
485.800	1	-2
485.970	1	2
486.141	1	12
486.311	1	-4
486.481	1	-5
486.652	1	6
486.822	1	13
486.992	1	7
487.163	1	6
487.333	1	-8
487.503	1	4
487.674	1	2
487.844	1	4
488.014	1	11
488.185	1	-7
488.355	1	-5
488.525	1	9
488.696	1	4
488.866	1	0
489.036	1	-6
489.207	1	3
489.377	1	-5
489.547	1	15
489.718	1	10
489.888	1	4
490.058	1	-3
490.228	1	-3
490.399	1	-1
490.569	1	6
490.739	1	-5
490.910	1	9
491.080	1	2
491.250	1	-1
491.421	1	-3
491.591	1	-7
491.761	1	-3
491.932	1	-2
492.102	1	2
492.272	1	0
492.442	1	6
492.613	1	7
492.783	1	4
492.953	1	9
493.124	1	6
493.294	1	-5
493.464	1	11
493.635	1	5
493.805	1	4
493.975	1	0
494.145	1	-8
494.316	1	14
494.486	1	4
494.656	1	3
494.827	1	-3
494.997	1	1
495.167	1	1
495.337	1	10
495.508	1	7
495.678	1	3
495.848	1	14
496.019	1	3
496.189	1	10
496.359	1	7
496.529	1	-2
496.700	1	4
496.870	1	3
497.040	1	7
497.211	1	10
497.381	1	6
497.551	1	-1
497.721	1	14
497.892	1	13
498.062	1	-6
498.232	1	12
498.403	1	-2
498.573	1	4
498.743	1	3
498.913	1	-4
499.084	1	-1
499.254	1	5
499.424	1	1
499.594	1	7
499.765	1	11
499.935	1	9
500.105	1	19
500.275	1	13
500.446	1	6
500.616	1	5
500.786	1	-4
500.956	1	6
501.127	1	1
501.297	1	-4
501.467	1	3
501.638	1	11
501.808	1	4
501.978	1	4
502.148	1	5
502.319	1	-1
502.489	1	5
502.659	1	3
502.829	1	11
503.000	1	-4
503.170	1	13
503.340	1	-6
503.510	1	3
503.681	1	-1
503.851	1	3
504.021	1	2
504.191	1	7
504.362	1	2
504.532	1	0
504.702	1	7
504.872	1	17
505.042	1	-2
505.213	1	-3
505.383	1	12
505.553	1	5
505.723	1	13
505.894	1	8
506.064	1	-8
506.234	1	4
506.404	1	7
506.575	1	1
506.745	1	1
506.915	1	13
507.085	1	8
507.256	1	3
507.426	1	5
507.596	1	4
507.766	1	7
507.936	1	4
508.107	1	11
508.277	1	8
508.447	1	0
508.617	1	5
508.788	1	10
508.958	1	1
509.128	1	9
509.298	1	2
509.468	1	7
509.639	1	8
509.809	1	3
509.979	1	8
510.149	1	10
510.319	1	-2
510.490	1	19
510.660	1	15
510.830	1	9
511.000	1	1
511.171	1	2
511.341	1	13
511.511	1	1
511.681	1	10
511.851	1	20
512.022	1	5
512.192	1	8
512.362	1	19
512.532	1	7
512.702	1	5
512.873	1	-1
513.043	1	9
513.213	1	10
513.383	1	11
513.553	1	9
513.724	1	13
513.894	1	12
514.064	1	5
514.234	1	2
514.404	1	12
514.575	1	1
514.745	1	6
514.915	1	-1
515.085	1	5
515.255	1	6
515.425	1	15
515.596	1	10
515.766	1	3
515.936	1	7
516.106	1	7
516.276	1	-2
516.447	1	6
516.617	1	2
516.787	1	4
516.957	1	4
517.127	1	15
517.297	1	18
517.468	1	3
517.638	1	10
517.808	1	14
517.978	1	7
518.148	1	-6
518.319	1	5
518.489	1	11
518.659	1	5
518.829	1	5
518.999	1	-3
519.169	1	6
519.340	1	14
519.510	1	0
519.680	1	10
519.850	1	0
520.020	1	0
520.190	1	5
520.361	1	-2
520.531	1	18
520.701	1	14
520.871	1	6
521.041	1	4
521.211	1	8
521.382	1	15
521.552	1	19
521.722	1	11
521.892	1	4
522.062	1	14
522.232	1	9
522.402	1	-6
522.573	1	16
522.743	1	16
522.913	1	16
523.083	1	14
523.253	1	12
523.423	1	3
523.593	1	3
523.764	1	8
523.934	1	-1
524.104	1	12
524.274	1	4
524.444	1	15
524.614	1	8
524.784	1	1
524.955	1	1
525.125	1	-7
525.295	1	3
525.465	1	15
525.635	1	15
525.805	1	10
525.975	1	14
526.146	1	9
526.316	1	7
526.486	1	17
526.656	1	8
526.826	1	3
526.996	1	12
527.166	1	11
527.337	1	5
527.507	1	9
527.677	1	7
527.847	1	9
528.017	1	-7
528.187	1	6
528.357	1	13
528.527	1	1
528.698	1	8
528.868	1	3
529.038	1	16
529.208	1	8
529.378	1	8
529.548	1	22
529.718	1	5
529.888	1	9
530.058	1	14
530.229	1	13
530.399	1	8
530.569	1	-1
530.739	1	2
530.909	1	8
531.079	1	17
531.249	1	8
531.419	1	10
531.589	1	-1
531.760	1	2
531.930	1	16
532.100	1	6
532.270	1	6
532.440	1	0
532.610	1	3
532.780	1	5
532.950	1	4
533.120	1	21
533.290	1	3
533.461	1	9
533.631	1	-3
533.801	1	9
533.971	1	0
534.141	1	4
534.311	1	16
534.481	1	0
534.651	1	3
534.821	1	12
534.991	1	8
535.162	1	15
535.332	1	-2
535.502	1	14
535.672	1	12
535.842	1	7
536.012	1	7
536.182	1	6
536.352	1	-1
536.522	1	7
536.692	1	7
536.862	1	12
537.032	1	8
537.203	1	11
537.373	1	4
537.543	1	7
537.713	1	10
537.883	1	30
538.053	1	-1
538.223	1	11
538.393	1	7
538.563	1	15
538.733	1	0
538.903	1	3
539.073	1	-3
539.243	1	9
539.413	1	1
539.584	1	7
539.754	1	4
539.924	1	12
540.094	1	7
540.264	1	-2
540.434	1	13
540.604	1	9
540.774	1	7
540.944	1	6
541.114	1	5
541.284	1	2
541.454	1	3
541.624	1	-3
541.794	1	8
541.964	1	5
542.134	1	0
542.305	1	4
542.475	1	5
542.645	1	9
542.815	1	10
542.985	1	9
543.155	1	5
543.325	1	0
543.495	1	5
543.665	1	8
543.835	1	18
544.005	1	7
544.175	1	3
544.345	1	6
544.515	1	14
544.685	1	10
544.855	1	3
545.025	1	7
545.195	1	-9
545.365	1	2
545.535	1	9
545.705	1	12
545.875	1	6
546.045	1	11
546.216	1	-2
546.386	1	2
546.556	1	18
546.726	1	12
546.896	1	9
547.066	1	7
547.236	1	18
547.406	1	9
547.576	1	4
547.746	1	3
547.916	1	1
548.086	1	7
548.256	1	12
548.426	1	4
548.596	1	-2
548.766	1	12
548.936	1	10
549.106	1	11
549.276	1	5
549.446	1	17
549.616	1	19
549.786	1	7
549.956	1	6
550.126	1	11
550.296	1	8
550.466	1	3
550.636	1	10
550.806	1	12
550.976	1	-12
551.146	1	15
551.316	1	10
551.486	1	9
551.656	1	11
551.826	1	1
551.996	1	-1
552.166	1	1
552.336	1	4
552.506	1	-2
552.676	1	13
552.846	1	10
553.016	1	12
553.186	1	7
553.356	1	11
553.526	1	14
553.696	1	8
553.866	1	0
554.036	1	8
554.206	1	4
554.376	1	8
554.546	1	14
554.716	1	14
554.886	1	11
555.056	1	4
555.226	1	7
555.396	1	4
555.566	1	5
555.736	1	11
555.906	1	5
556.076	1	20
556.246	1	10
556.416	1	1
556.586	1	8
556.756	1	29
556.926	1	13
557.096	1	5
557.266	1	7
557.436	1	8
557.606	1	-3
557.776	1	3
557.946	1	7
558.116	1	15
558.286	1	3
558.456	1	12
558.626	1	16
558.796	1	6
558.966	1	2
559.136	1	3
559.306	1	1
559.476	1	7
559.646	1	11
559.816	1	2
559.986	1	-2
560.155	1	18
560.325	1	4
560.495	1	3
560.665	1	14
560.835	1	13
561.005	1	16
561.175	1	18
561.345	1	5
561.515	1	7
561.685	1	3
561.855	1	0
562.025	1	7
562.195	1	1
562.365	1	9
562.535	1	2
562.705	1	15
562.875	1	3
563.045	1	11
563.215	1	-2
563.385	1	-1
563.555	1	11
563.725	1	4
563.895	1	13
564.064	1	7
564.234	1	4
564.404	1	-6
564.574	1	5
564.744	1	4
564.914	1	8
565.084	1	11
565.254	1	8
565.424	1	13
565.594	1	10
565.764	1	2
565.934	1	11
566.104	1	6
566.274	1	6
566.444	1	5
566.614	1	11
566.783	1	12
566.953	1	-2
567.123	1	10
567.293	1	-4
567.463	1	-8
567.633	1	6
567.803	1	10
567.973	1	11
568.143	1	-2
568.313	1	1
568.483	1	14
568.653	1	7
568.823	1	1
568.993	1	13
569.162	1	8
569.332	1	3
569.502	1	-6
569.672	1	6
569.842	1	11
570.012	1	5
570.182	1	2
570.352	1	3
570.522	1	5
570.692	1	5
570.862	1	4
571.031	1	13
571.201	1	-1
571.371	1	6
571.541	1	7
571.711	1	19
571.881	1	9
572.051	1	8
572.221	1	10
572.391	1	12
572.561	1	3
572.731	1	9
572.900	1	-2
573.070	1	3
573.240	1	16
573.410	1	4
573.580	1	-2
573.750	1	-2
573.920	1	2
574.090	1	2
574.260	1	18
574.430	1	3
574.599	1	8
574.769	1	11
574.939	1	7
575.109	1	6
575.279	1	-3
575.449	1	5
575.619	1	0
575.789	1	3
575.959	1	5
576.128	1	12
576.298	1	10
576.468	1	6
576.638	1	0
576.808	1	12
576.978	1	11
577.148	1	-3
577.318	1	-2
577.487	1	1
577.657	1	3
577.827	1	3
577.997	1	6
578.167	1	5
578.337	1	5
578.507	1	-4
578.677	1	-4
578.846	1	-2
579.016	1	9
579.186	1	-3
579.356	1	7
579.526	1	-2
579.696	1	18
579.866	1	-3
580.036	1	4
580.205	1	14
580.375	1	5
580.545	1	-5
580.715	1	10
580.885	1	2
581.055	1	7
581.225	1	-4
581.394	1	11
581.564	1	14
581.734	1	-2
581.904	1	2
582.074	1	3
582.244	1	11
582.414	1	-8
582.583	1	-1
582.753	1	-5
582.923	1	-3
583.093	1	3
583.263	1	10
583.433	1	8
583.603	1	14
583.772	1	1
583.942	1	-1
584.112	1	-4
584.282	1	1
584.452	1	3
584.622	1	-5
584.791	1	2
584.961	1	7
585.131	1	4
585.301	1	-4
585.471	1	-2
585.641	1	1
585.811	1	-1
585.980	1	3
586.150	1	2
586.320	1	8
586.490	1	-2
586.660	1	0
586.830	1	7
586.999	1	0
587.169	1	8
587.339	1	-3
587.509	1	10
587.679	1	-4
587.849	1	1
588.018	1	-3
588.188	1	-3
588.358	1	3
588.528	1	2
588.698	1	1
588.867	1	7
589.037	1	4
589.207	1	-6
589.377	1	-7
589.547	1	3
589.717	1	3
589.886	1	6
590.056	1	1
590.226	1	8
590.396	1	4
590.566	1	1
590.735	1	8
590.905	1	-4
591.075	1	2
591.245	1	3
591.415	1	4
591.585	1	-1
591.754	1	16
591.924	1	13
592.094	1	6
592.264	1	3
592.434	1	6
592.603	1	0
592.773	1	-4
592.943	1	0
593.113	1	8
593.283	1	7
593.452	1	12
593.622	1	1
593.792	1	10
593.962	1	6
594.132	1	8
594.301	1	6
594.471	1	8
594.641	1	-8
594.811	1	9
594.981	1	8
595.150	1	6
595.320	1	-9
595.490	1	0
595.660	1	9
595.829	1	12
595.999	1	4
596.169	1	-4
596.339	1	4
596.509	1	2
596.678	1	-1
596.848	1	14
597.018	1	16
597.188	1	-1
597.358	1	-3
597.527	1	-5
597.697	1	1
597.867	1	6
598.037	1	10
598.206	1	1
598.376	1	-1
598.546	1	-5
598.716	1	5
598.885	1	12
599.055	1	6
599.225	1	0
599.395	1	10
599.565	1	-6
599.734	1	1
599.904	1	3
600.074	1	5
600.244	1	6
600.413	1	-1
600.583	1	7
600.753	1	8
600.923	1	15
601.092	1	7
601.262	1	2
601.432	1	6
601.602	1	-8
601.771	1	11
601.941	1	2
602.111	1	10
602.281	1	-6
602.451	1	-5
602.620	1	-7
602.790	1	7
602.960	1	-4
603.130	1	6
603.299	1	10
603.469	1	3
603.639	1	-7
603.809	1	-1
603.978	1	8
604.148	1	13
604.318	1	-4
604.487	1	3
604.657	1	3
604.827	1	2
604.997	1	4
605.166	1	-2
605.336	1	8
605.506	1	4
605.676	1	12
605.845	1	-3
606.015	1	2
606.185	1	-5
606.355	1	-4
606.524	1	7
606.694	1	8
606.864	1	-1
607.034	1	-6
607.203	1	-2
607.373	1	12
607.543	1	2
607.712	1	10
607.882	1	-4
608.052	1	16
608.222	1	-6
608.391	1	5
608.561	1	2
608.731	1	0
608.901	1	10
609.070	1	4
609.240	1	6
609.410	1	0
609.579	1	2
609.749	1	-4
609.919	1	11
610.089	1	-1
610.258	1	15
610.428	1	8
610.598	1	6
610.767	1	5
610.937	1	-2
611.107	1	2
611.277	1	2
611.446	1	3
611.616	1	8
611.786	1	15
611.955	1	-5
612.125	1	3
612.295	1	11
612.465	1	11
612.634	1	-1
612.804	1	7
612.974	1	-4
613.143	1	1
613.313	1	-1
613.483	1	-12
613.652	1	-3
613.822	1	0
613.992	1	3
614.162	1	6
614.331	1	5
614.501	1	-9
614.671	1	-4
614.840	1	12
615.010	1	0
615.180	1	9
615.349	1	9
615.519	1	3
615.689	1	2
615.858	1	5
616.028	1	0
616.198	1	7
616.368	1	0
616.537	1	-8
616.707	1	-8
616.877	1	14
617.046	1	7
617.216	1	1
617.386	1	-2
617.555	1	-8
617.725	1	7
617.895	1	8
618.064	1	5
618.234	1	6
618.404	1	0
618.573	1	-4
618.743	1	3
618.913	1	2
619.082	1	-1
619.252	1	-2
619.422	1	4
619.591	1	5
619.761	1	0
619.931	1	6
620.100	1	4
620.270	1	-5
620.440	1	-4
620.609	1	2
620.779	1	-6
620.949	1	6
621.118	1	3
621.288	1	13
621.458	1	12
621.627	1	-3
621.797	1	9
621.967	1	0
622.136	1	1
622.306	1	-1
622.476	1	5
622.645	1	10
622.815	1	0
622.985	1	-4
623.154	1	-3
623.324	1	-2
623.494	1	9
623.663	1	-7
623.833	1	-5
624.002	1	11
624.172	1	2
624.342	1	6
624.511	1	9
624.681	1	10
624.851	1	-3
625.020	1	4
625.190	1	1
625.360	1	6
625.529	1	3
625.699	1	3
625.869	1	-2
626.038	1	-4
626.208	1	5
626.377	1	1
626.547	1	2
626.717	1	8
626.886	1	21
627.056	1	8
627.226	1	-2
627.395	1	0
627.565	1	-14
627.735	1	10
627.904	1	-3
628.074	1	-5
628.243	1	-3
628.413	1	12
628.583	1	-5
628.752	1	8
628.922	1	-3
629.091	1	7
629.261	1	2
629.431	1	9
629.600	1	-4
629.770	1	2
629.940	1	1
630.109	1	0
630.279	1	-13
630.448	1	0
630.618	1	2
630.788	1	-3
630.957	1	0
631.127	1	2
631.297	1	1
631.466	1	0
631.636	1	-14
631.805	1	2
631.975	1	0
632.145	1	4
632.314	1	3
632.484	1	-3
632.653	1	4
632.823	1	-1
632.993	1	6
633.162	1	0
633.332	1	17
633.501	1	-6
633.671	1	5
633.841	1	10
634.010	1	5
634.180	1	2
634.349	1	0
634.519	1	0
634.689	1	-1
634.858	1	-4
635.028	1	0
635.197	1	18
635.367	1	5
635.537	1	9
635.706	1	1
635.876	1	9
636.045	1	-8
636.215	1	4
636.384	1	0
636.554	1	-9
636.724	1	1
636.893	1	-5
637.063	1	12
637.232	1	-3
637.402	1	-5
637.572	1	-5
637.741	1	-10
637.911	1	5
638.080	1	0
638.250	1	1
638.419	1	5
638.589	1	-6
638.759	1	-1
638.928	1	4
639.098	1	2
639.267	1	2
639.437	1	5
639.606	1	-2
639.776	1	8
639.946	1	-2
640.115	1	-4
640.285	1	-5
640.454	1	11
640.624	1	-8
640.793	1	0
640.963	1	18
641.132	1	-2
641.302	1	11
641.472	1	-3
641.641	1	6
641.811	1	-4
641.980	1	12
642.150	1	-7
642.319	1	-1
642.489	1	5
642.659	1	3
642.828	1	1
642.998	1	2
643.167	1	1
643.337	1	0
643.506	1	-10
643.676	1	0
643.845	1	1
644.015	1	-1
644.184	1	9
644.354	1	-10
644.524	1	3
644.693	1	3
644.863	1	8
645.032	1	8
645.202	1	0
645.371	1	3
645.541	1	-7
645.710	1	7
645.880	1	-8
646.049	1	3
646.219	1	-3
646.388	1	13
646.558	1	1
646.728	1	8
646.897	1	-11
647.067	1	16
647.236	1	11
647.406	1	9
647.575	1	6
647.745	1	10
647.914	1	-5
648.084	1	0
648.253	1	-10
648.423	1	-8
648.592	1	-4
648.762	1	-2
648.931	1	-9
649.101	1	3
649.270	1	-1
649.440	1	-3
649.610	1	-2
649.779	1	6
649.949	1	6
650.118	1	4
650.288	1	3
650.457	1	-8
650.627	1	12
650.796	1	9
650.966	1	5
651.135	1	-2
651.305	1	3
651.474	1	6
651.644	1	11
651.813	1	0
651.983	1	9
652.152	1	-2
652.322	1	8
652.491	1	4
652.661	1	6
652.830	1	5
653.000	1	-3
653.169	1	1
653.339	1	3
653.508	1	3
653.678	1	5
653.847	1	-4
654.017	1	8
654.186	1	5
654.356	1	4
654.525	1	-3
654.695	1	5
654.864	1	4
655.034	1	8
655.203	1	0
655.373	1	3
655.542	1	-11
655.712	1	3
655.881	1	2
656.051	1	1
656.220	1	2
656.390	1	-6
656.559	1	0
656.729	1	-1
656.898	1	-3
657.068	1	8
657.237	1	11
657.406	1	1
657.576	1	2
657.745	1	7
657.915	1	-7
658.084	1	4
658.254	1	-6
658.423	1	25
658.593	1	-4
658.762	1	-4
658.932	1	-9
659.101	1	-5
659.271	1	8
659.440	1	10
659.610	1	12
659.779	1	-7
659.949	1	6
660.118	1	-7
660.288	1	-3
660.457	1	2
660.626	1	-4
660.796	1	-4
660.965	1	0
661.135	1	-5
661.304	1	11
661.474	1	8
661.643	1	9
661.813	1	-2
661.982	1	-4
662.152	1	1
662.321	1	13
662.491	1	5
662.660	1	7
662.829	1	-12
662.999	1	-3
663.168	1	2
663.338	1	13
663.507	1	-1
663.677	1	11
663.846	1	8
664.016	1	-11
664.185	1	3
664.354	1	4
664.524	1	11
664.693	1	9
664.863	1	4
665.032	1	5
665.202	1	-3
665.371	1	2
665.541	1	3
665.710	1	1
665.879	1	-4
666.049	1	-1
666.218	1	3
666.388	1	3
666.557	1	4
666.727	1	2
666.896	1	7
667.065	1	-1
667.235	1	0
667.404	1	-1
667.574	1	9
667.743	1	4
667.913	1	4
668.082	1	12
668.251	1	-4
668.421	1	5
668.590	1	13
668.760	1	-7
668.929	1	2
669.099	1	-3
669.268	1	12
669.437	1	-5
669.607	1	-2
669.776	1	1
669.946	1	9
670.115	1	2
670.285	1	4
670.454	1	12
670.623	1	-1
670.793	1	-3
670.962	1	0
671.132	1	2
671.301	1	3
671.470	1	6
671.640	1	-3
671.809	1	-2
671.979	1	5
672.148	1	-1
672.317	1	-2
672.487	1	3
672.656	1	8
672.826	1	9
672.995	1	-3
673.164	1	4
673.334	1	9
673.503	1	1
673.673	1	0
673.842	1	-2
674.011	1	-4
674.181	1	0
674.350	1	-2
674.520	1	14
674.689	1	0
674.858	1	12
675.028	1	5
675.197	1	7
675.367	1	1
675.536	1	-4
675.705	1	7
675.875	1	6
676.044	1	-3
676.214	1	2
676.383	1	-7
676.552	1	2
676.722	1	-5
676.891	1	7
677.060	1	-2
677.230	1	0
677.399	1	1
677.569	1	10
677.738	1	-3
677.907	1	-6
678.077	1	-12
678.246	1	1
678.416	1	5
678.585	1	8
678.754	1	8
678.924	1	-6
679.093	1	3
679.262	1	-2
679.432	1	4
679.601	1	-11
679.771	1	11
679.940	1	10
680.109	1	-3
680.279	1	14
680.448	1	6
680.617	1	1
680.787	1	-2
680.956	1	-13
681.125	1	11
681.295	1	1
681.464	1	-1
681.634	1	8
681.803	1	8
681.972	1	-3
682.142	1	-2
682.311	1	1
682.480	1	11
682.650	1	-1
682.819	1	-10
682.988	1	-3
683.158	1	3
683.327	1	8
683.496	1	3
683.666	1	7
683.835	1	-4
684.004	1	0
684.174	1	-9
684.343	1	2
684.512	1	-2
684.682	1	0
684.851	1	2
685.021	1	4
685.190	1	1
685.359	1	1
685.529	1	6
685.698	1	5
685.867	1	0
686.037	1	-1
686.206	1	5
686.375	1	9
686.545	1	3
686.714	1	3
686.883	1	-2
687.053	1	-2
687.222	1	4
687.391	1	0
687.561	1	-1
687.730	1	4
687.899	1	1
688.069	1	2
688.238	1	-5
688.407	1	4
688.577	1	13
688.746	1	4
