340.368	1	2
340.539	1	2
340.710	1	4
340.881	1	-3
341.052	1	3
341.223	1	3
341.394	1	-1
341.565	1	3
341.737	1	8
341.908	1	-7
342.079	1	3
342.250	1	2
342.421	1	13
342.592	1	7
342.763	1	18
342.934	1	12
343.105	1	7
343.276	1	-2
343.447	1	10
343.618	1	1
343.789	1	13
343.960	1	2
344.131	1	-1
344.302	1	1
344.473	1	0
344.644	1	-7
344.815	1	12
344.986	1	6
345.157	1	-3
345.328	1	10
345.499	1	3
345.670	1	8
345.841	1	1
346.012	1	9
346.183	1	7
346.354	1	7
346.526	1	2
346.697	1	15
346.868	1	0
347.039	1	10
347.210	1	1
347.381	1	6
347.552	1	19
347.723	1	1
347.894	1	11
348.065	1	-7
348.236	1	15
348.407	1	-8
348.578	1	8
348.749	1	10
348.920	1	4
349.091	1	0
349.262	1	-2
349.433	1	-1
349.604	1	7
349.775	1	6
349.946	1	5
350.117	1	12
350.288	1	-6
350.459	1	14
350.630	1	11
350.801	1	3
350.972	1	2
351.143	1	14
351.314	1	7
351.485	1	9
351.656	1	11
351.827	1	8
351.998	1	11
352.169	1	2
352.340	1	11
352.511	1	13
352.682	1	3
352.853	1	5
353.024	1	10
353.195	1	8
353.366	1	12
353.537	1	13
353.708	1	18
353.879	1	8
354.050	1	10
354.221	1	11
354.392	1	14
354.563	1	12
354.734	1	17
354.905	1	15
355.076	1	11
355.247	1	6
355.418	1	8
355.589	1	12
355.760	1	10
355.931	1	17
356.102	1	22
356.273	1	21
356.444	1	21
356.615	1	10
356.785	1	17
356.956	1	10
357.127	1	14
357.298	1	21
357.469	1	16
357.640	1	25
357.811	1	25
357.982	1	16
358.153	1	19
358.324	1	22
358.495	1	29
358.666	1	19
358.837	1	27
359.008	1	40
359.179	1	38
359.350	1	16
359.521	1	30
359.692	1	12
359.863	1	26
360.034	1	23
360.205	1	31
360.376	1	42
360.547	1	30
360.718	1	37
360.889	1	37
361.060	1	42
361.231	1	37
361.401	1	45
361.572	1	37
361.743	1	40
361.914	1	33
362.085	1	41
362.256	1	45
362.427	1	51
362.598	1	46
362.769	1	48
362.940	1	56
363.111	1	65
363.282	1	53
363.453	1	72
363.624	1	75
363.795	1	62
363.966	1	70
364.137	1	77
364.308	1	78
364.478	1	77
364.649	1	66
364.820	1	77
364.991	1	94
365.162	1	90
365.333	1	88
365.504	1	101
365.675	1	93
365.846	1	108
366.017	1	110
366.188	1	131
366.359	1	98
366.530	1	123
366.701	1	119
366.871	1	130
367.042	1	125
367.213	1	135
367.384	1	136
367.555	1	120
367.726	1	121
367.897	1	133
368.068	1	142
368.239	1	122
368.410	1	135
368.581	1	134
368.752	1	143
368.923	1	135
369.093	1	136
369.264	1	139
369.435	1	128
369.606	1	126
369.777	1	142
369.948	1	128
370.119	1	131
370.290	1	127
370.461	1	111
370.632	1	104
370.803	1	118
370.973	1	122
371.144	1	111
371.315	1	103
371.486	1	106
371.657	1	102
371.828	1	87
371.999	1	106
372.170	1	88
372.341	1	97
372.512	1	92
372.682	1	81
372.853	1	89
373.024	1	89
373.195	1	90
373.366	1	73
373.537	1	93
373.708	1	75
373.879	1	86
374.050	1	72
374.220	1	80
374.391	1	72
374.562	1	75
374.733	1	68
374.904	1	72
375.075	1	65
375.246	1	61
375.417	1	67
375.588	1	65
375.758	1	48
375.929	1	54
376.100	1	63
376.271	1	63
376.442	1	52
376.613	1	67
376.784	1	46
376.955	1	46
377.125	1	52
377.296	1	58
377.467	1	62
377.638	1	52
377.809	1	45
377.980	1	51
378.151	1	57
378.321	1	39
378.492	1	55
378.663	1	42
378.834	1	49
379.005	1	61
379.176	1	47
379.347	1	45
379.518	1	36
379.688	1	31
379.859	1	46
380.030	1	39
380.201	1	48
380.372	1	41
380.543	1	39
380.714	1	35
380.884	1	38
381.055	1	36
381.226	1	40
381.397	1	46
381.568	1	44
381.739	1	37
381.910	1	49
382.080	1	33
382.251	1	44
382.422	1	38
382.593	1	41
382.764	1	36
382.935	1	41
383.105	1	39
383.276	1	42
383.447	1	36
383.618	1	41
383.789	1	43
383.960	1	30
384.130	1	45
384.301	1	34
384.472	1	38
384.643	1	39
384.814	1	41
384.985	1	44
385.156	1	56
385.326	1	50
385.497	1	44
385.668	1	40
385.839	1	32
386.010	1	46
386.180	1	40
386.351	1	41
386.522	1	45
386.693	1	39
386.864	1	41
387.035	1	44
387.205	1	52
387.376	1	38
387.547	1	46
387.718	1	43
387.889	1	41
388.060	1	34
388.230	1	52
388.401	1	39
388.572	1	47
388.743	1	32
388.914	1	44
389.084	1	38
389.255	1	41
389.426	1	34
389.597	1	27
389.768	1	30
389.939	1	35
390.109	1	34
390.280	1	30
390.451	1	37
390.622	1	38
390.793	1	30
390.963	1	25
391.134	1	27
391.305	1	40
391.476	1	34
391.647	1	24
391.817	1	35
391.988	1	35
392.159	1	44
392.330	1	38
392.501	1	32
392.671	1	28
392.842	1	42
393.013	1	25
393.184	1	31
393.355	1	20
393.525	1	37
393.696	1	20
393.867	1	32
394.038	1	32
394.208	1	33
394.379	1	26
394.550	1	23
394.721	1	33
394.892	1	12
395.062	1	32
395.233	1	34
395.404	1	18
395.575	1	39
395.746	1	40
395.916	1	25
396.087	1	31
396.258	1	30
396.429	1	17
396.599	1	28
396.770	1	29
396.941	1	23
397.112	1	32
397.283	1	32
397.453	1	28
397.624	1	30
397.795	1	25
397.966	1	31
398.136	1	25
398.307	1	35
398.478	1	17
398.649	1	31
398.819	1	24
398.990	1	12
399.161	1	29
399.332	1	30
399.503	1	25
399.673	1	31
399.844	1	10
400.015	1	26
400.186	1	25
400.356	1	38
400.527	1	27
400.698	1	12
400.869	1	31
401.039	1	20
401.210	1	9
401.381	1	29
401.552	1	18
401.722	1	16
401.893	1	23
402.064	1	14
402.235	1	22
402.405	1	13
402.576	1	30
402.747	1	16
402.918	1	15
403.088	1	16
403.259	1	14
403.430	1	21
403.601	1	27
403.771	1	18
403.942	1	17
404.113	1	29
404.284	1	16
404.454	1	13
404.625	1	35
404.796	1	10
404.967	1	25
405.137	1	24
405.308	1	23
405.479	1	-2
405.649	1	17
405.820	1	13
405.991	1	21
406.162	1	7
406.332	1	16
406.503	1	20
406.674	1	23
406.845	1	17
407.015	1	7
407.186	1	25
407.357	1	17
407.527	1	10
407.698	1	24
407.869	1	14
408.040	1	10
408.210	1	15
408.381	1	13
408.552	1	22
408.722	1	27
408.893	1	17
409.064	1	15
409.235	1	19
409.405	1	20
409.576	1	26
409.747	1	16
409.917	1	18
410.088	1	27
410.259	1	16
410.430	1	18
410.600	1	12
410.771	1	15
410.942	1	24
411.112	1	17
411.283	1	5
411.454	1	7
411.625	1	8
411.795	1	17
411.966	1	9
412.137	1	10
412.307	1	10
412.478	1	19
412.649	1	18
412.819	1	23
412.990	1	0
413.161	1	10
413.332	1	12
413.502	1	7
413.673	1	22
413.844	1	10
414.014	1	23
414.185	1	6
414.356	1	17
414.526	1	6
414.697	1	7
414.868	1	-3
415.038	1	21
415.209	1	7
415.380	1	7
415.550	1	-1
415.721	1	19
415.892	1	8
416.063	1	13
416.233	1	7
416.404	1	10
416.575	1	23
416.745	1	20
416.916	1	10
417.087	1	13
417.257	1	-1
417.428	1	5
417.599	1	7
417.769	1	2
417.940	1	8
418.111	1	13
418.281	1	5
418.452	1	15
418.623	1	15
418.793	1	16
418.964	1	1
419.135	1	12
419.305	1	13
419.476	1	16
419.647	1	24
419.817	1	6
419.988	1	27
420.159	1	8
420.329	1	13
420.500	1	3
420.671	1	14
420.841	1	8
421.012	1	11
421.183	1	12
421.353	1	9
421.524	1	12
421.695	1	1
421.865	1	7
422.036	1	0
422.206	1	13
422.377	1	9
422.548	1	-1
422.718	1	14
422.889	1	10
423.060	1	20
423.230	1	4
423.401	1	8
423.572	1	-4
423.742	1	10
423.913	1	4
424.084	1	7
424.254	1	11
424.425	1	5
424.595	1	3
424.766	1	16
424.937	1	8
425.107	1	19
425.278	1	7
425.449	1	8
425.619	1	11
425.790	1	8
425.961	1	4
426.131	1	0
426.302	1	9
426.472	1	17
426.643	1	-8
426.814	1	4
426.984	1	13
427.155	1	19
427.326	1	7
427.496	1	5
427.667	1	11
427.837	1	17
428.008	1	11
428.179	1	8
428.349	1	14
428.520	1	12
428.691	1	13
428.861	1	6
429.032	1	17
429.202	1	5
429.373	1	13
429.544	1	-4
429.714	1	9
429.885	1	9
430.055	1	13
430.226	1	-1
430.397	1	7
430.567	1	11
430.738	1	11
430.909	1	3
431.079	1	12
431.250	1	11
431.420	1	15
431.591	1	-1
431.762	1	13
431.932	1	17
432.103	1	0
432.273	1	-2
432.444	1	-2
432.615	1	0
432.785	1	1
432.956	1	3
433.126	1	9
433.297	1	3
433.468	1	12
433.638	1	-2
433.809	1	5
433.979	1	2
434.150	1	13
434.320	1	0
434.491	1	9
434.662	1	2
434.832	1	5
435.003	1	6
435.173	1	9
435.344	1	9
435.515	1	4
435.685	1	6
435.856	1	6
436.026	1	7
436.197	1	2
436.368	1	7
436.538	1	15
436.709	1	18
436.879	1	5
437.050	1	10
437.220	1	7
437.391	1	4
437.562	1	1
437.732	1	-1
437.903	1	2
438.073	1	10
438.244	1	2
438.414	1	-2
438.585	1	11
438.756	1	4
438.926	1	4
439.097	1	10
439.267	1	14
439.438	1	4
439.608	1	5
439.779	1	8
439.949	1	13
440.120	1	-6
440.291	1	2
440.461	1	9
440.632	1	4
440.802	1	-8
440.973	1	13
441.143	1	3
441.314	1	9
441.485	1	-3
441.655	1	6
441.826	1	11
441.996	1	-1
442.167	1	0
442.337	1	13
442.508	1	1
442.678	1	-6
442.849	1	12
443.019	1	3
443.190	1	1
443.361	1	-2
443.531	1	16
443.702	1	0
443.872	1	15
444.043	1	4
444.213	1	-2
444.384	1	-6
444.554	1	3
444.725	1	6
444.895	1	1
445.066	1	6
445.237	1	-3
445.407	1	-10
445.578	1	3
445.748	1	9
445.919	1	10
446.089	1	11
446.260	1	5
446.430	1	11
446.601	1	8
446.771	1	-1
446.942	1	1
447.112	1	8
447.283	1	-2
447.453	1	7
447.624	1	2
447.794	1	0
447.965	1	-1
448.135	1	2
448.306	1	12
448.477	1	-4
448.647	1	18
448.818	1	4
448.988	1	-1
449.159	1	8
449.329	1	-2
449.500	1	7
449.670	1	2
449.841	1	9
450.011	1	-1
450.182	1	-2
450.352	1	-6
450.523	1	6
450.693	1	18
450.864	1	5
451.034	1	-3
451.205	1	7
451.375	1	13
451.546	1	12
451.716	1	14
451.887	1	-4
452.057	1	2
452.228	1	15
452.398	1	9
452.569	1	8
452.739	1	-5
452.910	1	0
453.080	1	-3
453.251	1	-3
453.421	1	5
453.592	1	5
453.762	1	13
453.933	1	8
454.103	1	0
454.274	1	1
454.444	1	9
454.615	1	9
454.785	1	-3
454.956	1	4
455.126	1	0
455.297	1	2
455.467	1	-3
455.638	1	7
455.808	1	7
455.979	1	8
456.149	1	-1
456.320	1	15
456.490	1	9
456.661	1	1
456.831	1	2
457.001	1	-3
457.172	1	3
457.342	1	8
457.513	1	-3
457.683	1	9
457.854	1	8
458.024	1	13
458.195	1	-4
458.365	1	0
458.536	1	8
458.706	1	13
458.877	1	0
459.047	1	8
459.218	1	-1
459.388	1	8
459.559	1	6
459.729	1	6
459.899	1	3
460.070	1	-6
460.240	1	-11
460.411	1	2
460.581	1	2
460.752	1	5
460.922	1	3
461.093	1	-4
461.263	1	7
461.434	1	5
461.604	1	9
461.775	1	7
461.945	1	-3
462.115	1	2
462.286	1	1
462.456	1	4
462.627	1	-6
462.797	1	11
462.968	1	10
463.138	1	8
463.309	1	-4
463.479	1	11
463.649	1	6
463.820	1	-5
463.990	1	4
464.161	1	12
464.331	1	-8
464.502	1	3
464.672	1	0
464.843	1	5
465.013	1	-2
465.183	1	6
465.354	1	9
465.524	1	7
465.695	1	-3
465.865	1	-2
466.036	1	4
466.206	1	15
466.376	1	8
466.547	1	6
466.717	1	14
466.888	1	1
467.058	1	6
467.229	1	-6
467.399	1	8
467.569	1	0
467.740	1	2
467.910	1	8
468.081	1	11
468.251	1	3
468.422	1	9
468.592	1	11
468.762	1	5
468.933	1	15
469.103	1	-4
469.274	1	7
469.444	1	-7
469.614	1	0
469.785	1	4
469.955	1	2
470.126	1	4
470.296	1	-4
470.467	1	-2
470.637	1	1
470.807	1	9
470.978	1	3
471.148	1	7
471.319	1	5
471.489	1	9
471.659	1	3
471.830	1	-4
472.000	1	2
472.171	1	8
472.341	1	0
472.511	1	14
472.682	1	2
472.852	1	8
473.023	1	-2
473.193	1	9
473.363	1	2
473.534	1	5
473.704	1	-9
473.875	1	9
474.045	1	2
474.215	1	13
474.386	1	15
474.556	1	9
474.727	1	5
474.897	1	6
475.067	1	6
475.238	1	2
475.408	1	5
475.578	1	4
475.749	1	10
475.919	1	-1
476.090	1	16
476.260	1	6
476.430	1	3
476.601	1	6
476.771	1	5
476.942	1	7
477.112	1	0
477.282	1	14
477.453	1	-1
477.623	1	5
477.793	1	7
477.964	1	10
478.134	1	9
478.305	1	4
478.475	1	4
478.645	1	5
478.816	1	9
478.986	1	6
479.156	1	-4
479.327	1	0
479.497	1	11
479.667	1	11
479.838	1	4
480.008	1	14
480.179	1	11
480.349	1	-2
480.519	1	-2
480.690	1	4
480.860	1	10
481.030	1	12
481.201	1	9
481.371	1	12
481.541	1	-1
481.712	1	11
481.882	1	8
482.053	1	17
482.223	1	12
482.393	1	12
482.564	1	14
482.734	1	11
482.904	1	18
483.075	1	4
483.245	1	7
483.415	1	9
483.586	1	9
483.756	1	3
483.926	1	10
484.097	1	12
484.267	1	7
484.437	1	10
484.608	1	18
484.778	1	20
484.948	1	10
485.119	1	5
485.289	1	14
485.459	1	14
485.630	1	5
485.800	1	17
485.970	1	21
486.141	1	7
486.311	1	10
486.481	1	8
486.652	1	17
486.822	1	11
486.992	1	18
487.163	1	20
487.333	1	4
487.503	1	9
487.674	1	16
487.844	1	5
488.014	1	12
488.185	1	14
488.355	1	18
488.525	1	18
488.696	1	18
488.866	1	20
489.036	1	13
489.207	1	6
489.377	1	6
489.547	1	26
489.718	1	16
489.888	1	19
490.058	1	2
490.228	1	14
490.399	1	8
490.569	1	26
490.739	1	5
490.910	1	29
491.080	1	12
491.250	1	6
491.421	1	18
491.591	1	8
491.761	1	15
491.932	1	22
492.102	1	22
492.272	1	14
492.442	1	18
492.613	1	16
492.783	1	19
492.953	1	17
493.124	1	18
493.294	1	14
493.464	1	23
493.635	1	17
493.805	1	28
493.975	1	18
494.145	1	21
494.316	1	17
494.486	1	24
494.656	1	27
494.827	1	20
494.997	1	38
495.167	1	28
495.337	1	38
495.508	1	24
495.678	1	23
495.848	1	30
496.019	1	20
496.189	1	29
496.359	1	30
496.529	1	19
496.700	1	31
496.870	1	29
497.040	1	29
497.211	1	38
497.381	1	35
497.551	1	30
497.721	1	31
497.892	1	33
498.062	1	12
498.232	1	42
498.403	1	33
498.573	1	27
498.743	1	32
498.913	1	19
499.084	1	22
499.254	1	33
499.424	1	18
499.594	1	33
499.765	1	38
499.935	1	18
500.105	1	51
500.275	1	36
500.446	1	29
500.616	1	26
500.786	1	29
500.956	1	39
501.127	1	33
501.297	1	34
501.467	1	21
501.638	1	45
501.808	1	22
501.978	1	41
502.148	1	46
502.319	1	37
502.489	1	38
502.659	1	36
502.829	1	39
503.000	1	31
503.170	1	36
503.340	1	30
503.510	1	41
503.681	1	39
503.851	1	34
504.021	1	30
504.191	1	40
504.362	1	32
504.532	1	44
504.702	1	38
504.872	1	47
505.042	1	39
505.213	1	30
505.383	1	48
505.553	1	34
505.723	1	40
505.894	1	48
506.064	1	22
506.234	1	36
506.404	1	40
506.575	1	36
506.745	1	45
506.915	1	42
507.085	1	57
507.256	1	41
507.426	1	46
507.596	1	43
507.766	1	51
507.936	1	45
508.107	1	51
508.277	1	50
508.447	1	51
508.617	1	40
508.788	1	55
508.958	1	37
509.128	1	45
509.298	1	44
509.468	1	51
509.639	1	56
509.809	1	51
509.979	1	52
510.149	1	57
510.319	1	43
510.490	1	59
510.660	1	47
510.830	1	55
511.000	1	49
511.171	1	46
511.341	1	55
511.511	1	53
511.681	1	57
511.851	1	58
512.022	1	49
512.192	1	41
512.362	1	57
512.532	1	47
512.702	1	41
512.873	1	46
513.043	1	58
513.213	1	62
513.383	1	46
513.553	1	57
513.724	1	59
513.894	1	46
514.064	1	55
514.234	1	51
514.404	1	54
514.575	1	42
514.745	1	46
514.915	1	39
515.085	1	61
515.255	1	46
515.425	1	57
515.596	1	64
515.766	1	52
515.936	1	62
516.106	1	57
516.276	1	56
516.447	1	55
516.617	1	56
516.787	1	51
516.957	1	58
517.127	1	63
517.297	1	64
517.468	1	63
517.638	1	66
517.808	1	59
517.978	1	57
518.148	1	53
518.319	1	72
518.489	1	64
518.659	1	57
518.829	1	65
518.999	1	61
519.169	1	65
519.340	1	73
519.510	1	49
519.680	1	66
519.850	1	55
520.020	1	65
520.190	1	61
520.361	1	71
520.531	1	66
520.701	1	59
520.871	1	64
521.041	1	61
521.211	1	55
521.382	1	67
521.552	1	74
521.722	1	69
521.892	1	62
522.062	1	68
522.232	1	63
522.402	1	57
522.573	1	78
522.743	1	67
522.913	1	76
523.083	1	69
523.253	1	57
523.423	1	61
523.593	1	63
523.764	1	64
523.934	1	65
524.104	1	73
524.274	1	67
524.444	1	63
524.614	1	71
524.784	1	58
524.955	1	66
525.125	1	61
525.295	1	56
525.465	1	63
525.635	1	66
525.805	1	64
525.975	1	65
526.146	1	63
526.316	1	63
526.486	1	78
526.656	1	63
526.826	1	62
526.996	1	57
527.166	1	67
527.337	1	58
527.507	1	57
527.677	1	62
527.847	1	65
528.017	1	47
528.187	1	58
528.357	1	59
528.527	1	65
528.698	1	60
528.868	1	68
529.038	1	63
529.208	1	69
529.378	1	58
529.548	1	71
529.718	1	58
529.888	1	66
530.058	1	73
530.229	1	58
530.399	1	78
530.569	1	65
530.739	1	64
530.909	1	61
531.079	1	73
531.249	1	65
531.419	1	61
531.589	1	55
531.760	1	57
531.930	1	53
532.100	1	74
532.270	1	68
532.440	1	67
532.610	1	65
532.780	1	56
532.950	1	78
533.120	1	72
533.290	1	68
533.461	1	67
533.631	1	59
533.801	1	59
533.971	1	73
534.141	1	67
534.311	1	79
534.481	1	61
534.651	1	60
534.821	1	66
534.991	1	75
535.162	1	74
535.332	1	68
535.502	1	73
535.672	1	70
535.842	1	69
536.012	1	55
536.182	1	66
536.352	1	56
536.522	1	62
536.692	1	70
536.862	1	68
537.032	1	65
537.203	1	74
537.373	1	55
537.543	1	69
537.713	1	58
537.883	1	79
538.053	1	60
538.223	1	59
538.393	1	66
538.563	1	64
538.733	1	52
538.903	1	55
539.073	1	59
539.243	1	61
539.413	1	54
539.584	1	65
539.754	1	57
539.924	1	61
540.094	1	52
540.264	1	63
540.434	1	62
540.604	1	53
540.774	1	60
540.944	1	62
541.114	1	62
541.284	1	55
541.454	1	70
541.624	1	55
541.794	1	52
541.964	1	63
542.134	1	55
542.305	1	58
542.475	1	66
542.645	1	51
542.815	1	52
542.985	1	54
543.155	1	52
543.325	1	57
543.495	1	52
543.665	1	60
543.835	1	63
544.005	1	51
544.175	1	50
544.345	1	64
544.515	1	60
544.685	1	60
544.855	1	50
545.025	1	49
545.195	1	53
545.365	1	43
545.535	1	50
545.705	1	65
545.875	1	51
546.045	1	57
546.216	1	55
546.386	1	51
546.556	1	61
546.726	1	51
546.896	1	41
547.066	1	52
547.236	1	55
547.406	1	56
547.576	1	51
547.746	1	53
547.916	1	53
548.086	1	54
548.256	1	62
548.426	1	61
548.596	1	50
548.766	1	57
548.936	1	47
549.106	1	59
549.276	1	47
549.446	1	73
549.616	1	66
549.786	1	59
549.956	1	62
550.126	1	58
550.296	1	66
550.466	1	49
550.636	1	52
550.806	1	46
550.976	1	38
551.146	1	48
551.316	1	59
551.486	1	59
551.656	1	60
551.826	1	49
551.996	1	48
552.166	1	46
552.336	1	60
552.506	1	48
552.676	1	64
552.846	1	53
553.016	1	51
553.186	1	60
553.356	1	60
553.526	1	54
553.696	1	52
553.866	1	51
554.036	1	39
554.206	1	45
554.376	1	41
554.546	1	54
554.716	1	55
554.886	1	57
555.056	1	52
555.226	1	55
555.396	1	40
555.566	1	37
555.736	1	35
555.906	1	48
556.076	1	68
556.246	1	57
556.416	1	47
556.586	1	61
556.756	1	48
556.926	1	53
557.096	1	48
557.266	1	37
557.436	1	54
557.606	1	44
557.776	1	32
557.946	1	50
558.116	1	45
558.286	1	46
558.456	1	49
558.626	1	57
558.796	1	43
558.966	1	47
559.136	1	58
559.306	1	40
559.476	1	52
559.646	1	51
559.816	1	48
559.986	1	33
560.155	1	59
560.325	1	44
560.495	1	32
560.665	1	45
560.835	1	57
561.005	1	48
561.175	1	37
561.345	1	36
561.515	1	38
561.685	1	38
561.855	1	32
562.025	1	35
562.195	1	40
562.365	1	37
562.535	1	45
562.705	1	49
562.875	1	34
563.045	1	41
563.215	1	44
563.385	1	40
563.555	1	51
563.725	1	31
563.895	1	49
564.064	1	38
564.234	1	36
564.404	1	29
564.574	1	35
564.744	1	23
564.914	1	39
565.084	1	44
565.254	1	33
565.424	1	48
565.594	1	42
565.764	1	38
565.934	1	31
566.104	1	42
566.274	1	35
566.444	1	43
566.614	1	42
566.783	1	32
566.953	1	41
567.123	1	45
567.293	1	34
567.463	1	28
567.633	1	38
567.803	1	37
567.973	1	35
568.143	1	34
568.313	1	33
568.483	1	39
568.653	1	36
568.823	1	36
568.993	1	39
569.162	1	55
569.332	1	41
569.502	1	28
569.672	1	32
569.842	1	41
570.012	1	32
570.182	1	42
570.352	1	41
570.522	1	36
570.692	1	41
570.862	1	32
571.031	1	28
571.201	1	29
571.371	1	20
571.541	1	33
571.711	1	54
571.881	1	38
572.051	1	35
572.221	1	35
572.391	1	43
572.561	1	25
572.731	1	34
572.900	1	31
573.070	1	30
573.240	1	44
573.410	1	40
573.580	1	28
573.750	1	34
573.920	1	23
574.090	1	30
574.260	1	33
574.430	1	35
574.599	1	31
574.769	1	33
574.939	1	37
575.109	1	23
575.279	1	22
575.449	1	34
575.619	1	21
575.789	1	28
575.959	1	18
576.128	1	37
576.298	1	35
576.468	1	22
576.638	1	33
576.808	1	35
576.978	1	27
577.148	1	34
577.318	1	30
577.487	1	26
577.657	1	38
577.827	1	30
577.997	1	31
578.167	1	36
578.337	1	26
578.507	1	19
578.677	1	3
578.846	1	27
579.016	1	23
579.186	1	14
579.356	1	28
579.526	1	14
579.696	1	33
579.866	1	19
580.036	1	23
580.205	1	33
580.375	1	15
580.545	1	35
580.715	1	18
580.885	1	25
581.055	1	28
581.225	1	20
581.394	1	30
581.564	1	31
581.734	1	10
581.904	1	26
582.074	1	31
582.244	1	26
582.414	1	16
582.583	1	20
582.753	1	11
582.923	1	20
583.093	1	33
583.263	1	25
583.433	1	22
583.603	1	29
583.772	1	10
583.942	1	23
584.112	1	13
584.282	1	28
584.452	1	23
584.622	1	19
584.791	1	18
584.961	1	14
585.131	1	20
585.301	1	18
585.471	1	11
585.641	1	7
585.811	1	15
585.980	1	23
586.150	1	21
586.320	1	18
586.490	1	20
586.660	1	10
586.830	1	19
586.999	1	19
587.169	1	23
587.339	1	16
587.509	1	26
587.679	1	21
587.849	1	27
588.018	1	10
588.188	1	16
588.358	1	22
588.528	1	19
588.698	1	23
588.867	1	28
589.037	1	5
589.207	1	14
589.377	1	14
589.547	1	27
589.717	1	15
589.886	1	18
590.056	1	15
590.226	1	32
590.396	1	24
590.566	1	13
590.735	1	17
590.905	1	9
591.075	1	20
591.245	1	23
591.415	1	17
591.585	1	15
591.754	1	18
591.924	1	25
592.094	1	12
592.264	1	26
592.434	1	18
592.603	1	10
592.773	1	26
592.943	1	25
593.113	1	18
593.283	1	22
593.452	1	16
593.622	1	12
593.792	1	12
593.962	1	18
594.132	1	23
594.301	1	17
594.471	1	19
594.641	1	-2
594.811	1	28
594.981	1	19
595.150	1	17
595.320	1	0
595.490	1	6
595.660	1	14
595.829	1	14
595.999	1	12
596.169	1	9
596.339	1	23
596.509	1	12
596.678	1	14
596.848	1	20
597.018	1	17
597.188	1	15
597.358	1	7
597.527	1	15
597.697	1	11
597.867	1	15
598.037	1	20
598.206	1	25
598.376	1	10
598.546	1	14
598.716	1	15
598.885	1	23
599.055	1	12
599.225	1	11
599.395	1	17
599.565	1	13
599.734	1	10
599.904	1	9
600.074	1	16
600.244	1	14
600.413	1	9
600.583	1	10
600.753	1	17
600.923	1	22
601.092	1	13
601.262	1	14
601.432	1	18
601.602	1	8
601.771	1	12
601.941	1	13
602.111	1	12
602.281	1	6
602.451	1	2
602.620	1	5
602.790	1	17
602.960	1	9
603.130	1	11
603.299	1	11
603.469	1	16
603.639	1	2
603.809	1	14
603.978	1	20
604.148	1	13
604.318	1	11
604.487	1	10
604.657	1	5
604.827	1	16
604.997	1	13
605.166	1	9
605.336	1	24
605.506	1	13
605.676	1	19
605.845	1	3
606.015	1	15
606.185	1	9
606.355	1	21
606.524	1	12
606.694	1	11
606.864	1	0
607.034	1	11
607.203	1	11
607.373	1	15
607.543	1	16
607.712	1	22
607.882	1	15
608.052	1	22
608.222	1	7
608.391	1	11
608.561	1	15
608.731	1	4
608.901	1	12
609.070	1	6
609.240	1	16
609.410	1	21
609.579	1	8
609.749	1	2
609.919	1	18
610.089	1	14
610.258	1	17
610.428	1	15
610.598	1	10
610.767	1	14
610.937	1	10
611.107	1	8
611.277	1	16
611.446	1	9
611.616	1	16
611.786	1	15
611.955	1	9
612.125	1	16
612.295	1	20
612.465	1	28
612.634	1	12
612.804	1	12
612.974	1	5
613.143	1	16
613.313	1	17
613.483	1	-1
613.652	1	6
613.822	1	8
613.992	1	20
614.162	1	11
614.331	1	20
614.501	1	4
614.671	1	5
614.840	1	11
615.010	1	10
615.180	1	18
615.349	1	14
615.519	1	13
615.689	1	3
615.858	1	12
616.028	1	4
616.198	1	15
616.368	1	16
616.537	1	6
616.707	1	9
616.877	1	15
617.046	1	13
617.216	1	5
617.386	1	5
617.555	1	8
617.725	1	1
617.895	1	17
618.064	1	4
618.234	1	21
618.404	1	3
618.573	1	3
618.743	1	15
618.913	1	6
619.082	1	7
619.252	1	7
619.422	1	12
619.591	1	-2
619.761	1	-1
619.931	1	14
620.100	1	17
620.270	1	14
620.440	1	1
620.609	1	12
620.779	1	2
620.949	1	4
621.118	1	6
621.288	1	13
621.458	1	16
621.627	1	7
621.797	1	11
621.967	1	19
622.136	1	13
622.306	1	11
622.476	1	16
622.645	1	17
622.815	1	-2
622.985	1	10
623.154	1	4
623.324	1	5
623.494	1	14
623.663	1	7
623.833	1	-2
624.002	1	3
624.172	1	10
624.342	1	5
624.511	1	15
624.681	1	-4
624.851	1	3
625.020	1	5
625.190	1	13
625.360	1	10
625.529	1	11
625.699	1	11
625.869	1	6
626.038	1	5
626.208	1	6
626.377	1	12
626.547	1	11
626.717	1	13
626.886	1	14
627.056	1	11
627.226	1	13
627.395	1	12
627.565	1	-2
627.735	1	1
627.904	1	15
628.074	1	11
628.243	1	-4
628.413	1	12
628.583	1	4
628.752	1	9
628.922	1	4
629.091	1	3
629.261	1	14
629.431	1	8
629.600	1	-2
629.770	1	-1
629.940	1	16
630.109	1	7
630.279	1	-5
630.448	1	15
630.618	1	9
630.788	1	5
630.957	1	6
631.127	1	6
631.297	1	8
631.466	1	9
631.636	1	-2
631.805	1	9
631.975	1	2
632.145	1	-2
632.314	1	7
632.484	1	1
632.653	1	-6
632.823	1	7
632.993	1	8
633.162	1	11
633.332	1	17
633.501	1	-4
633.671	1	9
633.841	1	22
634.010	1	8
634.180	1	7
634.349	1	2
634.519	1	6
634.689	1	10
634.858	1	1
635.028	1	2
635.197	1	15
635.367	1	8
635.537	1	18
635.706	1	1
635.876	1	8
636.045	1	-10
636.215	1	13
636.384	1	6
636.554	1	10
636.724	1	9
636.893	1	2
637.063	1	5
637.232	1	6
637.402	1	4
637.572	1	5
637.741	1	12
637.911	1	6
638.080	1	21
638.250	1	12
638.419	1	3
638.589	1	-4
638.759	1	13
638.928	1	9
639.098	1	5
639.267	1	4
639.437	1	10
639.606	1	5
639.776	1	6
639.946	1	6
640.115	1	5
640.285	1	0
640.454	1	11
640.624	1	-6
640.793	1	1
640.963	1	17
641.132	1	1
641.302	1	19
641.472	1	1
641.641	1	12
641.811	1	11
641.980	1	8
642.150	1	-3
642.319	1	6
642.489	1	-2
642.659	1	12
642.828	1	1
642.998	1	13
643.167	1	1
643.337	1	16
643.506	1	5
643.676	1	12
643.845	1	-4
644.015	1	12
644.184	1	11
644.354	1	4
644.524	1	4
644.693	1	-5
644.863	1	5
645.032	1	10
645.202	1	8
645.371	1	2
645.541	1	6
645.710	1	10
645.880	1	-1
646.049	1	8
646.219	1	14
646.388	1	12
646.558	1	8
646.728	1	13
646.897	1	-4
647.067	1	10
647.236	1	3
647.406	1	3
647.575	1	12
647.745	1	11
647.914	1	6
648.084	1	-4
648.253	1	-6
648.423	1	4
648.592	1	10
648.762	1	-1
648.931	1	2
649.101	1	18
649.270	1	-1
649.440	1	15
649.610	1	-1
649.779	1	15
649.949	1	1
650.118	1	10
650.288	1	1
650.457	1	7
650.627	1	8
650.796	1	16
650.966	1	16
651.135	1	2
651.305	1	15
651.474	1	21
651.644	1	7
651.813	1	3
651.983	1	7
652.152	1	8
652.322	1	9
652.491	1	10
652.661	1	-1
652.830	1	8
653.000	1	-2
653.169	1	10
653.339	1	1
653.508	1	9
653.678	1	9
653.847	1	-4
654.017	1	9
654.186	1	14
654.356	1	16
654.525	1	2
654.695	1	5
654.864	1	11
655.034	1	8
655.203	1	5
655.373	1	1
655.542	1	-8
655.712	1	11
655.881	1	7
656.051	1	8
656.220	1	17
656.390	1	3
656.559	1	4
656.729	1	6
656.898	1	-2
657.068	1	17
657.237	1	16
657.406	1	2
657.576	1	14
657.745	1	10
657.915	1	5
658.084	1	10
658.254	1	10
658.423	1	19
658.593	1	-3
658.762	1	5
658.932	1	-1
659.101	1	8
659.271	1	5
659.440	1	19
659.610	1	9
659.779	1	1
659.949	1	12
660.118	1	3
660.288	1	10
660.457	1	15
660.626	1	7
660.796	1	1
660.965	1	1
661.135	1	-7
661.304	1	13
661.474	1	11
661.643	1	7
661.813	1	7
661.982	1	8
662.152	1	5
662.321	1	17
662.491	1	2
662.660	1	7
662.829	1	-3
662.999	1	7
663.168	1	3
663.338	1	16
663.507	1	6
663.677	1	9
663.846	1	3
664.016	1	3
664.185	1	-2
664.354	1	1
664.524	1	11
664.693	1	8
664.863	1	-2
665.032	1	12
665.202	1	7
665.371	1	8
665.541	1	-7
665.710	1	8
665.879	1	12
666.049	1	10
666.218	1	9
666.388	1	10
666.557	1	9
666.727	1	12
666.896	1	11
667.065	1	2
667.235	1	-1
667.404	1	2
667.574	1	13
667.743	1	4
667.913	1	8
668.082	1	21
668.251	1	6
668.421	1	7
668.590	1	4
668.760	1	5
668.929	1	3
669.099	1	3
669.268	1	12
669.437	1	-4
669.607	1	0
669.776	1	14
669.946	1	16
670.115	1	6
670.285	1	5
670.454	1	16
670.623	1	10
670.793	1	-3
670.962	1	2
671.132	1	-7
671.301	1	11
671.470	1	6
671.640	1	-4
671.809	1	15
671.979	1	-1
672.148	1	4
672.317	1	8
672.487	1	7
672.656	1	3
672.826	1	6
672.995	1	-1
673.164	1	6
673.334	1	9
673.503	1	-1
673.673	1	3
673.842	1	11
674.011	1	4
674.181	1	9
674.350	1	2
674.520	1	6
674.689	1	11
674.858	1	8
675.028	1	5
675.197	1	9
675.367	1	10
675.536	1	0
675.705	1	10
675.875	1	14
676.044	1	3
676.214	1	6
676.383	1	3
676.552	1	-1
676.722	1	8
676.891	1	7
677.060	1	9
677.230	1	1
677.399	1	8
677.569	1	17
677.738	1	7
677.907	1	-4
678.077	1	2
678.246	1	-2
678.416	1	4
678.585	1	21
678.754	1	5
678.924	1	-2
679.093	1	12
679.262	1	-4
679.432	1	11
679.601	1	-2
679.771	1	17
679.940	1	6
680.109	1	8
680.279	1	16
680.448	1	10
680.617	1	1
680.787	1	13
680.956	1	-3
681.125	1	9
681.295	1	9
681.464	1	2
681.634	1	11
681.803	1	18
681.972	1	5
682.142	1	-1
682.311	1	7
682.480	1	6
682.650	1	3
682.819	1	4
682.988	1	0
683.158	1	5
683.327	1	17
683.496	1	13
683.666	1	6
683.835	1	1
684.004	1	6
684.174	1	6
684.343	1	12
684.512	1	3
684.682	1	1
684.851	1	9
685.021	1	13
685.190	1	2
685.359	1	6
685.529	1	8
685.698	1	5
685.867	1	9
686.037	1	5
686.206	1	8
686.375	1	1
686.545	1	13
686.714	1	11
686.883	1	13
687.053	1	0
687.222	1	7
687.391	1	0
687.561	1	8
687.730	1	1
687.899	1	14
688.069	1	12
688.238	1	-6
688.407	1	6
688.577	1	18
688.746	1	12
