340.368	1	-1
340.539	1	-8
340.710	1	8
340.881	1	-6
341.052	1	-9
341.223	1	-7
341.394	1	7
341.565	1	2
341.737	1	1
341.908	1	-3
342.079	1	-2
342.250	1	0
342.421	1	6
342.592	1	4
342.763	1	5
342.934	1	8
343.105	1	1
343.276	1	-6
343.447	1	-4
343.618	1	-1
343.789	1	9
343.960	1	1
344.131	1	9
344.302	1	0
344.473	1	-7
344.644	1	-7
344.815	1	2
344.986	1	6
345.157	1	-7
345.328	1	6
345.499	1	5
345.670	1	-3
345.841	1	4
346.012	1	-7
346.183	1	0
346.354	1	5
346.526	1	-7
346.697	1	7
346.868	1	2
347.039	1	3
347.210	1	-9
347.381	1	-7
347.552	1	11
347.723	1	1
347.894	1	-1
348.065	1	-10
348.236	1	6
348.407	1	-13
348.578	1	2
348.749	1	-4
348.920	1	-3
349.091	1	1
349.262	1	-3
349.433	1	-3
349.604	1	2
349.775	1	4
349.946	1	6
350.117	1	4
350.288	1	0
350.459	1	6
350.630	1	0
350.801	1	2
350.972	1	3
351.143	1	3
351.314	1	6
351.485	1	-7
351.656	1	-5
351.827	1	-12
351.998	1	-3
352.169	1	-3
352.340	1	2
352.511	1	0
352.682	1	-2
352.853	1	-2
353.024	1	-2
353.195	1	-8
353.366	1	1
353.537	1	0
353.708	1	11
353.879	1	0
354.050	1	2
354.221	1	-1
354.392	1	3
354.563	1	-9
354.734	1	10
354.905	1	4
355.076	1	7
355.247	1	-1
355.418	1	1
355.589	1	1
355.760	1	-6
355.931	1	0
356.102	1	6
356.273	1	2
356.444	1	4
356.615	1	-8
356.785	1	2
356.956	1	3
357.127	1	0
357.298	1	-4
357.469	1	-3
357.640	1	4
357.811	1	3
357.982	1	-2
358.153	1	-1
358.324	1	0
358.495	1	1
358.666	1	-18
358.837	1	9
359.008	1	-1
359.179	1	8
359.350	1	2
359.521	1	0
359.692	1	-6
359.863	1	2
360.034	1	-2
360.205	1	-2
360.376	1	10
360.547	1	-4
360.718	1	2
360.889	1	4
361.060	1	6
361.231	1	11
361.401	1	-7
361.572	1	0
361.743	1	0
361.914	1	1
362.085	1	9
362.256	1	4
362.427	1	15
362.598	1	-3
362.769	1	2
362.940	1	3
363.111	1	15
363.282	1	3
363.453	1	10
363.624	1	13
363.795	1	-3
363.966	1	7
364.137	1	10
364.308	1	23
364.478	1	-5
364.649	1	-3
364.820	1	12
364.991	1	8
365.162	1	2
365.333	1	6
365.504	1	2
365.675	1	4
365.846	1	5
366.017	1	16
366.188	1	17
366.359	1	5
366.530	1	4
366.701	1	2
366.871	1	11
367.042	1	1
367.213	1	15
367.384	1	13
367.555	1	3
367.726	1	3
367.897	1	4
368.068	1	9
368.239	1	-2
368.410	1	7
368.581	1	19
368.752	1	15
368.923	1	10
369.093	1	9
369.264	1	19
369.435	1	12
369.606	1	6
369.777	1	19
369.948	1	18
370.119	1	8
370.290	1	11
370.461	1	16
370.632	1	21
370.803	1	-2
370.973	1	11
371.144	1	2
371.315	1	14
371.486	1	-1
371.657	1	4
371.828	1	10
371.999	1	9
372.170	1	10
372.341	1	12
372.512	1	19
372.682	1	-1
372.853	1	3
373.024	1	1
373.195	1	13
373.366	1	-4
373.537	1	2
373.708	1	11
373.879	1	4
374.050	1	5
374.220	1	6
374.391	1	18
374.562	1	8
374.733	1	-1
374.904	1	-3
375.075	1	-2
375.246	1	-5
375.417	1	7
375.588	1	-3
375.758	1	-6
375.929	1	-6
376.100	1	10
376.271	1	3
376.442	1	-1
376.613	1	11
376.784	1	-4
376.955	1	-1
377.125	1	2
377.296	1	15
377.467	1	1
377.638	1	7
377.809	1	7
377.980	1	5
378.151	1	6
378.321	1	0
378.492	1	-1
378.663	1	11
378.834	1	6
379.005	1	9
379.176	1	-4
379.347	1	-3
379.518	1	-2
379.688	1	-2
379.859	1	19
380.030	1	9
380.201	1	0
380.372	1	11
380.543	1	8
380.714	1	2
380.884	1	8
381.055	1	-1
381.226	1	1
381.397	1	4
381.568	1	8
381.739	1	11
381.910	1	9
382.080	1	5
382.251	1	11
382.422	1	-7
382.593	1	7
382.764	1	-1
382.935	1	10
383.105	1	1
383.276	1	7
383.447	1	3
383.618	1	-2
383.789	1	16
383.960	1	0
384.130	1	-5
384.301	1	-7
384.472	1	3
384.643	1	-2
384.814	1	9
384.985	1	12
385.156	1	14
385.326	1	-2
385.497	1	4
385.668	1	9
385.839	1	-5
386.010	1	11
386.180	1	-2
386.351	1	0
386.522	1	10
386.693	1	2
386.864	1	1
387.035	1	9
387.205	1	6
387.376	1	5
387.547	1	13
387.718	1	6
387.889	1	5
388.060	1	3
388.230	1	10
388.401	1	2
388.572	1	-2
388.743	1	0
388.914	1	1
389.084	1	7
389.255	1	-2
389.426	1	2
389.597	1	-2
389.768	1	7
389.939	1	3
390.109	1	1
390.280	1	8
390.451	1	8
390.622	1	4
390.793	1	5
390.963	1	-6
391.134	1	-1
391.305	1	3
391.476	1	6
391.647	1	2
391.817	1	6
391.988	1	10
392.159	1	11
392.330	1	-2
392.501	1	0
392.671	1	5
392.842	1	8
393.013	1	1
393.184	1	3
393.355	1	-8
393.525	1	8
393.696	1	-5
393.867	1	16
394.038	1	-4
394.208	1	13
394.379	1	9
394.550	1	0
394.721	1	9
394.892	1	-2
395.062	1	1
395.233	1	6
395.404	1	-2
395.575	1	13
395.746	1	4
395.916	1	8
396.087	1	-3
396.258	1	6
396.429	1	-11
396.599	1	7
396.770	1	14
396.941	1	0
397.112	1	2
397.283	1	-2
397.453	1	1
397.624	1	6
397.795	1	-1
397.966	1	11
398.136	1	-9
398.307	1	14
398.478	1	-1
398.649	1	16
398.819	1	2
398.990	1	-4
399.161	1	5
399.332	1	-4
399.503	1	6
399.673	1	4
399.844	1	-3
400.015	1	4
400.186	1	3
400.356	1	18
400.527	1	3
400.698	1	3
400.869	1	4
401.039	1	-7
401.210	1	-5
401.381	1	7
401.552	1	2
401.722	1	9
401.893	1	1
402.064	1	-3
402.235	1	-3
402.405	1	2
402.576	1	-1
402.747	1	-3
402.918	1	2
403.088	1	-2
403.259	1	8
403.430	1	10
403.601	1	5
403.771	1	-4
403.942	1	-3
404.113	1	-8
404.284	1	9
404.454	1	-6
404.625	1	3
404.796	1	-4
404.967	1	14
405.137	1	11
405.308	1	6
405.479	1	-4
405.649	1	6
405.820	1	3
405.991	1	8
406.162	1	-4
406.332	1	1
406.503	1	6
406.674	1	8
406.845	1	3
407.015	1	4
407.186	1	8
407.357	1	-2
407.527	1	1
407.698	1	3
407.869	1	2
408.040	1	-4
408.210	1	7
408.381	1	6
408.552	1	2
408.722	1	1
408.893	1	-2
409.064	1	1
409.235	1	2
409.405	1	9
409.576	1	6
409.747	1	-3
409.917	1	0
410.088	1	0
410.259	1	3
410.430	1	-2
410.600	1	-5
410.771	1	8
410.942	1	1
411.112	1	3
411.283	1	4
411.454	1	-1
411.625	1	3
411.795	1	6
411.966	1	3
412.137	1	3
412.307	1	4
412.478	1	0
412.649	1	10
412.819	1	5
412.990	1	-1
413.161	1	0
413.332	1	-1
413.502	1	2
413.673	1	15
413.844	1	5
414.014	1	1
414.185	1	1
414.356	1	6
414.526	1	-10
414.697	1	6
414.868	1	-15
415.038	1	12
415.209	1	2
415.380	1	-3
415.550	1	-1
415.721	1	1
415.892	1	7
416.063	1	6
416.233	1	2
416.404	1	-2
416.575	1	7
416.745	1	6
416.916	1	-1
417.087	1	0
417.257	1	-4
417.428	1	4
417.599	1	-2
417.769	1	10
417.940	1	6
418.111	1	4
418.281	1	12
418.452	1	-1
418.623	1	-2
418.793	1	7
418.964	1	-4
419.135	1	7
419.305	1	-1
419.476	1	13
419.647	1	-1
419.817	1	2
419.988	1	3
420.159	1	-9
420.329	1	-5
420.500	1	-6
420.671	1	16
420.841	1	6
421.012	1	9
421.183	1	-7
421.353	1	6
421.524	1	2
421.695	1	0
421.865	1	-3
422.036	1	-2
422.206	1	-2
422.377	1	6
422.548	1	-7
422.718	1	3
422.889	1	4
423.060	1	9
423.230	1	-4
423.401	1	-5
423.572	1	-7
423.742	1	3
423.913	1	-8
424.084	1	10
424.254	1	4
424.425	1	2
424.595	1	4
424.766	1	-4
424.937	1	-1
425.107	1	3
425.278	1	4
425.449	1	9
425.619	1	2
425.790	1	2
425.961	1	-4
426.131	1	-6
426.302	1	-2
426.472	1	10
426.643	1	-6
426.814	1	-10
426.984	1	5
427.155	1	9
427.326	1	2
427.496	1	0
427.667	1	20
427.837	1	4
428.008	1	8
428.179	1	4
428.349	1	2
428.520	1	-1
428.691	1	9
428.861	1	-7
429.032	1	2
429.202	1	-5
429.373	1	3
429.544	1	-2
429.714	1	0
429.885	1	2
430.055	1	8
430.226	1	1
430.397	1	11
430.567	1	-3
430.738	1	12
430.909	1	-2
431.079	1	-1
431.250	1	6
431.420	1	2
431.591	1	3
431.762	1	3
431.932	1	13
432.103	1	-10
432.273	1	-8
432.444	1	4
432.615	1	0
432.785	1	-11
432.956	1	1
433.126	1	3
433.297	1	4
433.468	1	4
433.638	1	-9
433.809	1	0
433.979	1	-6
434.150	1	8
434.320	1	-1
434.491	1	7
434.662	1	-2
434.832	1	0
435.003	1	-5
435.173	1	6
435.344	1	5
435.515	1	3
435.685	1	3
435.856	1	-2
436.026	1	-4
436.197	1	2
436.368	1	5
436.538	1	8
436.709	1	4
436.879	1	1
437.050	1	5
437.220	1	4
437.391	1	4
437.562	1	-1
437.732	1	-14
437.903	1	-3
438.073	1	11
438.244	1	-3
438.414	1	-12
438.585	1	3
438.756	1	-8
438.926	1	3
439.097	1	0
439.267	1	8
439.438	1	0
439.608	1	4
439.779	1	1
439.949	1	6
440.120	1	-8
440.291	1	2
440.461	1	-2
440.632	1	3
440.802	1	-15
440.973	1	3
441.143	1	-2
441.314	1	2
441.485	1	-6
441.655	1	-2
441.826	1	0
441.996	1	-6
442.167	1	-6
442.337	1	5
442.508	1	-12
442.678	1	1
442.849	1	3
443.019	1	-6
443.190	1	-8
443.361	1	1
443.531	1	3
443.702	1	-2
443.872	1	6
444.043	1	-10
444.213	1	-7
444.384	1	-5
444.554	1	-1
444.725	1	-10
444.895	1	-3
445.066	1	7
445.237	1	-2
445.407	1	-8
445.578	1	-6
445.748	1	-4
445.919	1	5
446.089	1	3
446.260	1	5
446.430	1	-9
446.601	1	14
446.771	1	4
446.942	1	-8
447.112	1	0
447.283	1	-5
447.453	1	5
447.624	1	-3
447.794	1	2
447.965	1	-11
448.135	1	1
448.306	1	1
448.477	1	8
448.647	1	9
448.818	1	0
448.988	1	4
449.159	1	8
449.329	1	-1
449.500	1	4
449.670	1	-1
449.841	1	3
450.011	1	0
450.182	1	2
450.352	1	-3
450.523	1	2
450.693	1	8
450.864	1	1
451.034	1	-1
451.205	1	-8
451.375	1	-3
451.546	1	9
451.716	1	4
451.887	1	-6
452.057	1	-4
452.228	1	7
452.398	1	-2
452.569	1	4
452.739	1	4
452.910	1	-3
453.080	1	-1
453.251	1	-5
453.421	1	5
453.592	1	2
453.762	1	-2
453.933	1	12
454.103	1	3
454.274	1	-7
454.444	1	-3
454.615	1	-2
454.785	1	-1
454.956	1	-4
455.126	1	1
455.297	1	0
455.467	1	-1
455.638	1	7
455.808	1	4
455.979	1	-5
456.149	1	1
456.320	1	-5
456.490	1	12
456.661	1	-3
456.831	1	5
457.001	1	0
457.172	1	3
457.342	1	1
457.513	1	-14
457.683	1	-3
457.854	1	0
458.024	1	-2
458.195	1	-11
458.365	1	5
458.536	1	5
458.706	1	16
458.877	1	-9
459.047	1	5
459.218	1	-5
459.388	1	1
459.559	1	-6
459.729	1	-2
459.899	1	-3
460.070	1	-3
460.240	1	-9
460.411	1	-3
460.581	1	-2
460.752	1	-4
460.922	1	-3
461.093	1	-8
461.263	1	5
461.434	1	5
461.604	1	-1
461.775	1	-6
461.945	1	1
462.115	1	10
462.286	1	0
462.456	1	2
462.627	1	1
462.797	1	-7
462.968	1	-3
463.138	1	4
463.309	1	-1
463.479	1	6
463.649	1	7
463.820	1	-4
463.990	1	8
464.161	1	-7
464.331	1	7
464.502	1	1
464.672	1	-4
464.843	1	-4
465.013	1	-5
465.183	1	3
465.354	1	8
465.524	1	2
465.695	1	-2
465.865	1	-3
466.036	1	5
466.206	1	7
466.376	1	2
466.547	1	-9
466.717	1	2
466.888	1	-5
467.058	1	1
467.229	1	-7
467.399	1	-3
467.569	1	-2
467.740	1	0
467.910	1	-3
468.081	1	6
468.251	1	10
468.422	1	2
468.592	1	-2
468.762	1	-5
468.933	1	10
469.103	1	-8
469.274	1	-3
469.444	1	-1
469.614	1	3
469.785	1	0
469.955	1	1
470.126	1	-1
470.296	1	-4
470.467	1	-10
470.637	1	0
470.807	1	1
470.978	1	3
471.148	1	5
471.319	1	0
471.489	1	2
471.659	1	5
471.830	1	-4
472.000	1	0
472.171	1	6
472.341	1	-6
472.511	1	7
472.682	1	-9
472.852	1	-7
473.023	1	5
473.193	1	-2
473.363	1	3
473.534	1	10
473.704	1	-5
473.875	1	-5
474.045	1	-2
474.215	1	12
474.386	1	16
474.556	1	6
474.727	1	4
474.897	1	-4
475.067	1	-5
475.238	1	8
475.408	1	12
475.578	1	1
475.749	1	8
475.919	1	-4
476.090	1	14
476.260	1	-6
476.430	1	-8
476.601	1	3
476.771	1	5
476.942	1	4
477.112	1	-10
477.282	1	3
477.453	1	-6
477.623	1	0
477.793	1	9
477.964	1	3
478.134	1	3
478.305	1	-2
478.475	1	-1
478.645	1	2
478.816	1	-3
478.986	1	5
479.156	1	5
479.327	1	-8
479.497	1	2
479.667	1	-1
479.838	1	-8
480.008	1	5
480.179	1	8
480.349	1	6
480.519	1	-8
480.690	1	-11
480.860	1	-6
481.030	1	5
481.201	1	2
481.371	1	5
481.541	1	0
481.712	1	5
481.882	1	1
482.053	1	12
482.223	1	2
482.393	1	-1
482.564	1	6
482.734	1	9
482.904	1	2
483.075	1	0
483.245	1	4
483.415	1	-2
483.586	1	9
483.756	1	-2
483.926	1	-1
484.097	1	-2
484.267	1	0
484.437	1	7
484.608	1	-3
484.778	1	6
484.948	1	-1
485.119	1	-2
485.289	1	-4
485.459	1	13
485.630	1	-3
485.800	1	3
485.970	1	3
486.141	1	5
486.311	1	-3
486.481	1	0
486.652	1	9
486.822	1	8
486.992	1	1
487.163	1	9
487.333	1	-15
487.503	1	6
487.674	1	1
487.844	1	-1
488.014	1	14
488.185	1	6
488.355	1	4
488.525	1	10
488.696	1	-3
488.866	1	7
489.036	1	-3
489.207	1	3
489.377	1	1
489.547	1	4
489.718	1	11
489.888	1	5
490.058	1	-6
490.228	1	-1
490.399	1	0
490.569	1	1
490.739	1	5
490.910	1	3
491.080	1	-5
491.250	1	5
491.421	1	1
491.591	1	0
491.761	1	5
491.932	1	5
492.102	1	-5
492.272	1	-6
492.442	1	2
492.613	1	6
492.783	1	3
492.953	1	12
493.124	1	4
493.294	1	1
493.464	1	12
493.635	1	3
493.805	1	4
493.975	1	-11
494.145	1	-12
494.316	1	11
494.486	1	-1
494.656	1	4
494.827	1	0
494.997	1	9
495.167	1	4
495.337	1	16
495.508	1	5
495.678	1	1
495.848	1	3
496.019	1	8
496.189	1	5
496.359	1	0
496.529	1	-4
496.700	1	10
496.870	1	10
497.040	1	-2
497.211	1	0
497.381	1	7
497.551	1	2
497.721	1	2
497.892	1	9
498.062	1	-7
498.232	1	5
498.403	1	1
498.573	1	-1
498.743	1	6
498.913	1	-2
499.084	1	-4
499.254	1	0
499.424	1	-4
499.594	1	0
499.765	1	7
499.935	1	5
500.105	1	14
500.275	1	19
500.446	1	9
500.616	1	6
500.786	1	-2
500.956	1	2
501.127	1	1
501.297	1	-4
501.467	1	6
501.638	1	17
501.808	1	4
501.978	1	12
502.148	1	11
502.319	1	2
502.489	1	4
502.659	1	4
502.829	1	9
503.000	1	7
503.170	1	-1
503.340	1	8
503.510	1	-1
503.681	1	-3
503.851	1	-3
504.021	1	-4
504.191	1	-3
504.362	1	-4
504.532	1	8
504.702	1	10
504.872	1	6
505.042	1	-3
505.213	1	-1
505.383	1	7
505.553	1	3
505.723	1	12
505.894	1	2
506.064	1	1
506.234	1	1
506.404	1	2
506.575	1	4
506.745	1	9
506.915	1	6
507.085	1	8
507.256	1	-3
507.426	1	4
507.596	1	6
507.766	1	-1
507.936	1	-2
508.107	1	-4
508.277	1	6
508.447	1	7
508.617	1	5
508.788	1	7
508.958	1	6
509.128	1	9
509.298	1	1
509.468	1	6
509.639	1	12
509.809	1	1
509.979	1	3
510.149	1	14
510.319	1	12
510.490	1	7
510.660	1	5
510.830	1	7
511.000	1	8
511.171	1	8
511.341	1	21
511.511	1	10
511.681	1	3
511.851	1	8
512.022	1	4
512.192	1	0
512.362	1	15
512.532	1	7
512.702	1	-4
512.873	1	-4
513.043	1	9
513.213	1	10
513.383	1	1
513.553	1	14
513.724	1	7
513.894	1	10
514.064	1	4
514.234	1	3
514.404	1	5
514.575	1	7
514.745	1	3
514.915	1	-9
515.085	1	14
515.255	1	5
515.425	1	5
515.596	1	-5
515.766	1	6
515.936	1	4
516.106	1	9
516.276	1	8
516.447	1	10
516.617	1	-4
516.787	1	2
516.957	1	5
517.127	1	11
517.297	1	11
517.468	1	-4
517.638	1	-2
517.808	1	-4
517.978	1	3
518.148	1	11
518.319	1	8
518.489	1	9
518.659	1	10
518.829	1	4
518.999	1	3
519.169	1	5
519.340	1	8
519.510	1	2
519.680	1	3
519.850	1	3
520.020	1	2
520.190	1	-2
520.361	1	8
520.531	1	19
520.701	1	2
520.871	1	9
521.041	1	13
521.211	1	-1
521.382	1	6
521.552	1	17
521.722	1	8
521.892	1	7
522.062	1	16
522.232	1	7
522.402	1	-12
522.573	1	8
522.743	1	-2
522.913	1	3
523.083	1	1
523.253	1	-5
523.423	1	7
523.593	1	4
523.764	1	10
523.934	1	5
524.104	1	12
524.274	1	0
524.444	1	3
524.614	1	10
524.784	1	0
524.955	1	1
525.125	1	-4
525.295	1	0
525.465	1	16
525.635	1	10
525.805	1	5
525.975	1	3
526.146	1	4
526.316	1	8
526.486	1	11
526.656	1	6
526.826	1	13
526.996	1	2
527.166	1	11
527.337	1	0
527.507	1	7
527.677	1	9
527.847	1	4
528.017	1	-8
528.187	1	-3
528.357	1	-3
528.527	1	1
528.698	1	5
528.868	1	6
529.038	1	19
529.208	1	6
529.378	1	3
529.548	1	24
529.718	1	-2
529.888	1	6
530.058	1	6
530.229	1	15
530.399	1	14
530.569	1	0
530.739	1	-4
530.909	1	8
531.079	1	11
531.249	1	5
531.419	1	10
531.589	1	-6
531.760	1	-8
531.930	1	14
532.100	1	1
532.270	1	5
532.440	1	-1
532.610	1	0
532.780	1	-2
532.950	1	8
533.120	1	12
533.290	1	-5
533.461	1	11
533.631	1	5
533.801	1	5
533.971	1	4
534.141	1	3
534.311	1	19
534.481	1	-5
534.651	1	-3
534.821	1	16
534.991	1	3
535.162	1	7
535.332	1	4
535.502	1	14
535.672	1	14
535.842	1	8
536.012	1	2
536.182	1	7
536.352	1	-1
536.522	1	6
536.692	1	-1
536.862	1	9
537.032	1	0
537.203	1	11
537.373	1	-4
537.543	1	6
537.713	1	0
537.883	1	15
538.053	1	-4
538.223	1	13
538.393	1	1
538.563	1	15
538.733	1	-2
538.903	1	10
539.073	1	-8
539.243	1	12
539.413	1	9
539.584	1	1
539.754	1	-4
539.924	1	8
540.094	1	8
540.264	1	-4
540.434	1	6
540.604	1	7
540.774	1	3
540.944	1	8
541.114	1	6
541.284	1	9
541.454	1	4
541.624	1	-9
541.794	1	-5
541.964	1	10
542.134	1	-7
542.305	1	17
542.475	1	4
542.645	1	8
542.815	1	11
542.985	1	1
543.155	1	8
543.325	1	0
543.495	1	-1
543.665	1	10
543.835	1	13
544.005	1	-4
544.175	1	6
544.345	1	-4
544.515	1	20
544.685	1	5
544.855	1	4
545.025	1	-4
545.195	1	2
545.365	1	4
545.535	1	5
545.705	1	6
545.875	1	-6
546.045	1	13
546.216	1	0
546.386	1	10
546.556	1	13
546.726	1	2
546.896	1	0
547.066	1	3
547.236	1	2
547.406	1	5
547.576	1	-5
547.746	1	4
547.916	1	3
548.086	1	11
548.256	1	14
548.426	1	3
548.596	1	1
548.766	1	18
548.936	1	8
549.106	1	11
549.276	1	6
549.446	1	17
549.616	1	12
549.786	1	11
549.956	1	5
550.126	1	8
550.296	1	4
550.466	1	5
550.636	1	6
550.806	1	13
550.976	1	-9
551.146	1	-1
551.316	1	15
551.486	1	12
551.656	1	13
551.826	1	-5
551.996	1	4
552.166	1	9
552.336	1	8
552.506	1	-4
552.676	1	10
552.846	1	12
553.016	1	9
553.186	1	8
553.356	1	12
553.526	1	11
553.696	1	-5
553.866	1	3
554.036	1	2
554.206	1	-1
554.376	1	2
554.546	1	5
554.716	1	14
554.886	1	12
555.056	1	-3
555.226	1	4
555.396	1	1
555.566	1	8
555.736	1	4
555.906	1	3
556.076	1	6
556.246	1	-1
556.416	1	-1
556.586	1	16
556.756	1	20
556.926	1	4
557.096	1	7
557.266	1	12
557.436	1	8
557.606	1	-1
557.776	1	-5
557.946	1	8
558.116	1	13
558.286	1	4
558.456	1	18
558.626	1	16
558.796	1	0
558.966	1	4
559.136	1	6
559.306	1	2
559.476	1	14
559.646	1	5
559.816	1	9
559.986	1	4
560.155	1	13
560.325	1	5
560.495	1	-5
560.665	1	23
560.835	1	10
561.005	1	13
561.175	1	5
561.345	1	7
561.515	1	1
561.685	1	-2
561.855	1	4
562.025	1	4
562.195	1	-5
562.365	1	5
562.535	1	1
562.705	1	10
562.875	1	8
563.045	1	2
563.215	1	5
563.385	1	4
563.555	1	1
563.725	1	-10
563.895	1	7
564.064	1	-6
564.234	1	1
564.404	1	-4
564.574	1	5
564.744	1	-3
564.914	1	-3
565.084	1	11
565.254	1	10
565.424	1	11
565.594	1	10
565.764	1	7
565.934	1	2
566.104	1	1
566.274	1	-1
566.444	1	1
566.614	1	9
566.783	1	5
566.953	1	2
567.123	1	2
567.293	1	4
567.463	1	2
567.633	1	5
567.803	1	-5
567.973	1	8
568.143	1	1
568.313	1	-5
568.483	1	4
568.653	1	3
568.823	1	6
568.993	1	11
569.162	1	7
569.332	1	12
569.502	1	0
569.672	1	4
569.842	1	3
570.012	1	3
570.182	1	2
570.352	1	-1
570.522	1	1
570.692	1	4
570.862	1	10
571.031	1	0
571.201	1	-2
571.371	1	-1
571.541	1	6
571.711	1	11
571.881	1	-9
572.051	1	13
572.221	1	5
572.391	1	11
572.561	1	3
572.731	1	7
572.900	1	8
573.070	1	5
573.240	1	11
573.410	1	6
573.580	1	-1
573.750	1	-7
573.920	1	2
574.090	1	8
574.260	1	3
574.430	1	-1
574.599	1	5
574.769	1	7
574.939	1	5
575.109	1	2
575.279	1	0
575.449	1	11
575.619	1	-9
575.789	1	3
575.959	1	-7
576.128	1	9
576.298	1	8
576.468	1	9
576.638	1	4
576.808	1	6
576.978	1	2
577.148	1	0
577.318	1	2
577.487	1	1
577.657	1	-4
577.827	1	1
577.997	1	1
578.167	1	-1
578.337	1	4
578.507	1	4
578.677	1	-7
578.846	1	0
579.016	1	2
579.186	1	2
579.356	1	2
579.526	1	5
579.696	1	14
579.866	1	-8
580.036	1	3
580.205	1	13
580.375	1	9
580.545	1	9
580.715	1	4
580.885	1	0
581.055	1	-6
581.225	1	2
581.394	1	6
581.564	1	6
581.734	1	-2
581.904	1	10
582.074	1	12
582.244	1	10
582.414	1	-17
582.583	1	-6
582.753	1	-13
582.923	1	6
583.093	1	7
583.263	1	12
583.433	1	-3
583.603	1	12
583.772	1	-8
583.942	1	2
584.112	1	-8
584.282	1	3
584.452	1	4
584.622	1	-1
584.791	1	2
584.961	1	-5
585.131	1	2
585.301	1	2
585.471	1	2
585.641	1	8
585.811	1	-8
585.980	1	-10
586.150	1	5
586.320	1	1
586.490	1	0
586.660	1	4
586.830	1	2
586.999	1	3
587.169	1	2
587.339	1	0
587.509	1	5
587.679	1	-1
587.849	1	-4
588.018	1	-3
588.188	1	-9
588.358	1	15
588.528	1	-7
588.698	1	4
588.867	1	4
589.037	1	-2
589.207	1	-6
589.377	1	-2
589.547	1	5
589.717	1	-4
589.886	1	-5
590.056	1	1
590.226	1	10
590.396	1	2
590.566	1	-1
590.735	1	-5
590.905	1	6
591.075	1	13
591.245	1	-3
591.415	1	0
591.585	1	1
591.754	1	12
591.924	1	6
592.094	1	4
592.264	1	7
592.434	1	-2
592.603	1	-5
592.773	1	-9
592.943	1	7
593.113	1	2
593.283	1	9
593.452	1	10
593.622	1	-1
593.792	1	1
593.962	1	4
594.132	1	10
594.301	1	12
594.471	1	5
594.641	1	-12
594.811	1	3
594.981	1	-4
595.150	1	2
595.320	1	2
595.490	1	-7
595.660	1	0
595.829	1	8
595.999	1	-1
596.169	1	-1
596.339	1	9
596.509	1	4
596.678	1	8
596.848	1	4
597.018	1	9
597.188	1	0
597.358	1	0
597.527	1	-2
597.697	1	9
597.867	1	18
598.037	1	4
598.206	1	-3
598.376	1	2
598.546	1	-8
598.716	1	2
598.885	1	4
599.055	1	7
599.225	1	2
599.395	1	3
599.565	1	-1
599.734	1	0
599.904	1	-6
600.074	1	1
600.244	1	-2
600.413	1	1
600.583	1	4
600.753	1	4
600.923	1	10
601.092	1	8
601.262	1	7
601.432	1	5
601.602	1	5
601.771	1	-4
601.941	1	8
602.111	1	-6
602.281	1	3
602.451	1	-3
602.620	1	-6
602.790	1	3
602.960	1	-2
603.130	1	8
603.299	1	6
603.469	1	3
603.639	1	-5
603.809	1	0
603.978	1	-4
604.148	1	5
604.318	1	-2
604.487	1	1
604.657	1	-3
604.827	1	5
604.997	1	1
605.166	1	-9
605.336	1	-6
605.506	1	-5
605.676	1	19
605.845	1	-4
606.015	1	1
606.185	1	0
606.355	1	5
606.524	1	10
606.694	1	9
606.864	1	3
607.034	1	1
607.203	1	-3
607.373	1	3
607.543	1	1
607.712	1	8
607.882	1	-4
608.052	1	12
608.222	1	0
608.391	1	-6
608.561	1	0
608.731	1	-5
608.901	1	4
609.070	1	-10
609.240	1	3
609.410	1	11
609.579	1	5
609.749	1	-2
609.919	1	9
610.089	1	-5
610.258	1	10
610.428	1	-5
610.598	1	-1
610.767	1	-2
610.937	1	3
611.107	1	5
611.277	1	12
611.446	1	1
611.616	1	11
611.786	1	5
611.955	1	-8
612.125	1	-2
612.295	1	8
612.465	1	5
612.634	1	0
612.804	1	4
612.974	1	10
613.143	1	-4
613.313	1	3
613.483	1	-20
613.652	1	3
613.822	1	-6
613.992	1	-5
614.162	1	-4
614.331	1	-2
614.501	1	-14
614.671	1	-5
614.840	1	0
615.010	1	-2
615.180	1	-3
615.349	1	3
615.519	1	1
615.689	1	-5
615.858	1	3
616.028	1	-1
616.198	1	8
616.368	1	4
616.537	1	3
616.707	1	2
616.877	1	2
617.046	1	-4
617.216	1	2
617.386	1	-5
617.555	1	7
617.725	1	-1
617.895	1	9
618.064	1	-4
618.234	1	6
618.404	1	0
618.573	1	4
618.743	1	2
618.913	1	10
619.082	1	6
619.252	1	5
619.422	1	4
619.591	1	1
619.761	1	-11
619.931	1	0
620.100	1	4
620.270	1	3
620.440	1	-7
620.609	1	-1
620.779	1	-12
620.949	1	13
621.118	1	-5
621.288	1	11
621.458	1	16
621.627	1	-13
621.797	1	9
621.967	1	-3
622.136	1	3
622.306	1	6
622.476	1	9
622.645	1	13
622.815	1	-13
622.985	1	3
623.154	1	-6
623.324	1	5
623.494	1	8
623.663	1	-2
623.833	1	-5
624.002	1	1
624.172	1	9
624.342	1	10
624.511	1	-1
624.681	1	-1
624.851	1	-7
625.020	1	1
625.190	1	1
625.360	1	5
625.529	1	7
625.699	1	-1
625.869	1	14
626.038	1	-14
626.208	1	0
626.377	1	-8
626.547	1	10
626.717	1	5
626.886	1	4
627.056	1	13
627.226	1	-4
627.395	1	-5
627.565	1	-9
627.735	1	7
627.904	1	-7
628.074	1	-4
628.243	1	-7
628.413	1	11
628.583	1	-1
628.752	1	6
628.922	1	2
629.091	1	5
629.261	1	-9
629.431	1	12
629.600	1	3
629.770	1	14
629.940	1	6
630.109	1	-4
630.279	1	-10
630.448	1	3
630.618	1	14
630.788	1	-7
630.957	1	-2
631.127	1	7
631.297	1	-9
631.466	1	3
631.636	1	-13
631.805	1	2
631.975	1	0
632.145	1	-2
632.314	1	1
632.484	1	-1
632.653	1	-3
632.823	1	-1
632.993	1	6
633.162	1	-2
633.332	1	5
633.501	1	-5
633.671	1	8
633.841	1	11
634.010	1	3
634.180	1	2
634.349	1	-2
634.519	1	3
634.689	1	3
634.858	1	-5
635.028	1	0
635.197	1	14
635.367	1	5
635.537	1	8
635.706	1	2
635.876	1	4
636.045	1	-4
636.215	1	0
636.384	1	2
636.554	1	-12
636.724	1	2
636.893	1	-1
637.063	1	10
637.232	1	-3
637.402	1	-10
637.572	1	-7
637.741	1	0
637.911	1	3
638.080	1	5
638.250	1	14
638.419	1	-5
638.589	1	-14
638.759	1	2
638.928	1	6
639.098	1	-7
639.267	1	-3
639.437	1	7
639.606	1	11
639.776	1	-8
639.946	1	-13
640.115	1	1
640.285	1	-7
640.454	1	1
640.624	1	-1
640.793	1	3
640.963	1	2
641.132	1	-4
641.302	1	15
641.472	1	1
641.641	1	6
641.811	1	0
641.980	1	6
642.150	1	-2
642.319	1	0
642.489	1	1
642.659	1	-3
642.828	1	-5
642.998	1	-4
643.167	1	0
643.337	1	2
643.506	1	-10
643.676	1	4
643.845	1	-8
644.015	1	5
644.184	1	7
644.354	1	-8
644.524	1	4
644.693	1	-7
644.863	1	10
645.032	1	8
645.202	1	3
645.371	1	0
645.541	1	2
645.710	1	2
645.880	1	3
646.049	1	6
646.219	1	-7
646.388	1	16
646.558	1	-7
646.728	1	2
646.897	1	-3
647.067	1	3
647.236	1	2
647.406	1	-1
647.575	1	4
647.745	1	4
647.914	1	-8
648.084	1	1
648.253	1	-17
648.423	1	4
648.592	1	-6
648.762	1	4
648.931	1	-14
649.101	1	13
649.270	1	-6
649.440	1	-2
649.610	1	2
649.779	1	14
649.949	1	2
650.118	1	2
650.288	1	7
650.457	1	-4
650.627	1	-3
650.796	1	-1
650.966	1	10
651.135	1	-4
651.305	1	-1
651.474	1	9
651.644	1	3
651.813	1	-1
651.983	1	1
652.152	1	-2
652.322	1	4
652.491	1	-5
652.661	1	5
652.830	1	-2
653.000	1	0
653.169	1	-5
653.339	1	10
653.508	1	7
653.678	1	14
653.847	1	-9
654.017	1	7
654.186	1	6
654.356	1	-1
654.525	1	-6
654.695	1	0
654.864	1	2
655.034	1	11
655.203	1	-6
655.373	1	6
655.542	1	0
655.712	1	3
655.881	1	9
656.051	1	-4
656.220	1	2
656.390	1	-1
656.559	1	0
656.729	1	-5
656.898	1	-3
657.068	1	8
657.237	1	2
657.406	1	0
657.576	1	3
657.745	1	0
657.915	1	-1
658.084	1	3
658.254	1	7
658.423	1	11
658.593	1	-9
658.762	1	-5
658.932	1	-7
659.101	1	1
659.271	1	7
659.440	1	6
659.610	1	11
659.779	1	0
659.949	1	4
660.118	1	1
660.288	1	9
660.457	1	2
660.626	1	-1
660.796	1	-3
660.965	1	-11
661.135	1	9
661.304	1	11
661.474	1	1
661.643	1	4
661.813	1	1
661.982	1	1
662.152	1	-4
662.321	1	5
662.491	1	-1
662.660	1	10
662.829	1	-7
662.999	1	2
663.168	1	-3
663.338	1	14
663.507	1	-6
663.677	1	5
663.846	1	4
664.016	1	-6
664.185	1	-10
664.354	1	-5
664.524	1	-3
664.693	1	4
664.863	1	2
665.032	1	11
665.202	1	-4
665.371	1	1
665.541	1	-4
665.710	1	5
665.879	1	-11
666.049	1	3
666.218	1	-1
666.388	1	0
666.557	1	3
666.727	1	-3
666.896	1	11
667.065	1	1
667.235	1	-8
667.404	1	-11
667.574	1	9
667.743	1	-4
667.913	1	2
668.082	1	11
668.251	1	6
668.421	1	4
668.590	1	5
668.760	1	-7
668.929	1	2
669.099	1	-3
669.268	1	12
669.437	1	-5
669.607	1	-10
669.776	1	1
669.946	1	7
670.115	1	-6
670.285	1	2
670.454	1	14
670.623	1	3
670.793	1	0
670.962	1	-9
671.132	1	-1
671.301	1	-1
671.470	1	2
671.640	1	-6
671.809	1	7
671.979	1	-2
672.148	1	6
672.317	1	0
672.487	1	8
672.656	1	3
672.826	1	4
672.995	1	6
673.164	1	2
673.334	1	5
673.503	1	2
673.673	1	-1
673.842	1	-11
674.011	1	3
674.181	1	0
674.350	1	-1
674.520	1	10
674.689	1	-4
674.858	1	1
675.028	1	-6
675.197	1	2
675.367	1	6
675.536	1	-3
675.705	1	7
675.875	1	-4
676.044	1	1
676.214	1	1
676.383	1	-8
676.552	1	-8
676.722	1	-1
676.891	1	3
677.060	1	-8
677.230	1	9
677.399	1	0
677.569	1	3
677.738	1	0
677.907	1	-5
678.077	1	0
678.246	1	-5
678.416	1	-3
678.585	1	4
678.754	1	6
678.924	1	-10
679.093	1	4
679.262	1	0
679.432	1	11
679.601	1	-17
679.771	1	7
679.940	1	5
680.109	1	1
680.279	1	10
680.448	1	-1
680.617	1	3
680.787	1	8
680.956	1	-1
681.125	1	4
681.295	1	3
681.464	1	-10
681.634	1	8
681.803	1	6
681.972	1	0
682.142	1	-3
682.311	1	4
682.480	1	4
682.650	1	-1
682.819	1	-6
682.988	1	-11
683.158	1	1
683.327	1	-6
683.496	1	-6
683.666	1	3
683.835	1	-3
684.004	1	7
684.174	1	0
684.343	1	1
684.512	1	4
684.682	1	-4
684.851	1	3
685.021	1	5
685.190	1	5
685.359	1	-4
685.529	1	0
685.698	1	-5
685.867	1	-1
686.037	1	1
686.206	1	-2
686.375	1	2
686.545	1	9
686.714	1	9
686.883	1	1
687.053	1	4
687.222	1	-1
687.391	1	-5
687.561	1	-1
687.730	1	1
687.899	1	8
688.069	1	-1
688.238	1	-3
688.407	1	5
688.577	1	16
688.746	1	-1
