340.368	1	4
340.539	1	-3
340.710	1	14
340.881	1	-5
341.052	1	-6
341.223	1	3
341.394	1	-3
341.565	1	3
341.737	1	6
341.908	1	0
342.079	1	8
342.250	1	-1
342.421	1	1
342.592	1	9
342.763	1	8
342.934	1	12
343.105	1	7
343.276	1	0
343.447	1	1
343.618	1	3
343.789	1	10
343.960	1	-3
344.131	1	7
344.302	1	7
344.473	1	-2
344.644	1	-10
344.815	1	10
344.986	1	3
345.157	1	0
345.328	1	12
345.499	1	12
345.670	1	2
345.841	1	0
346.012	1	1
346.183	1	-2
346.354	1	4
346.526	1	0
346.697	1	6
346.868	1	11
347.039	1	13
347.210	1	-5
347.381	1	-4
347.552	1	6
347.723	1	-10
347.894	1	-2
348.065	1	1
348.236	1	10
348.407	1	-5
348.578	1	1
348.749	1	-1
348.920	1	-1
349.091	1	-2
349.262	1	11
349.433	1	-4
349.604	1	4
349.775	1	-3
349.946	1	2
350.117	1	2
350.288	1	-8
350.459	1	8
350.630	1	-1
350.801	1	1
350.972	1	-1
351.143	1	1
351.314	1	8
351.485	1	-8
351.656	1	3
351.827	1	-2
351.998	1	2
352.169	1	2
352.340	1	6
352.511	1	-3
352.682	1	-2
352.853	1	-3
353.024	1	7
353.195	1	-8
353.366	1	3
353.537	1	5
353.708	1	6
353.879	1	-5
354.050	1	3
354.221	1	4
354.392	1	11
354.563	1	-4
354.734	1	7
354.905	1	11
355.076	1	1
355.247	1	5
355.418	1	-1
355.589	1	10
355.760	1	1
355.931	1	8
356.102	1	0
356.273	1	-10
356.444	1	-1
356.615	1	4
356.785	1	-8
356.956	1	3
357.127	1	-2
357.298	1	10
357.469	1	5
357.640	1	-6
357.811	1	-5
357.982	1	0
358.153	1	-1
358.324	1	-3
358.495	1	3
358.666	1	0
358.837	1	4
359.008	1	9
359.179	1	3
359.350	1	-1
359.521	1	-3
359.692	1	-10
359.863	1	-3
360.034	1	2
360.205	1	-2
360.376	1	6
360.547	1	2
360.718	1	3
360.889	1	1
361.060	1	6
361.231	1	4
361.401	1	3
361.572	1	5
361.743	1	6
361.914	1	1
362.085	1	1
362.256	1	6
362.427	1	7
362.598	1	-3
362.769	1	4
362.940	1	2
363.111	1	1
363.282	1	2
363.453	1	10
363.624	1	19
363.795	1	-3
363.966	1	0
364.137	1	3
364.308	1	11
364.478	1	-2
364.649	1	-7
364.820	1	3
364.991	1	6
365.162	1	-8
365.333	1	-2
365.504	1	-5
365.675	1	1
365.846	1	-5
366.017	1	9
366.188	1	11
366.359	1	-6
366.530	1	3
366.701	1	-15
366.871	1	12
367.042	1	-6
367.213	1	-2
367.384	1	0
367.555	1	1
367.726	1	-3
367.897	1	-6
368.068	1	-2
368.239	1	-12
368.410	1	13
368.581	1	-1
368.752	1	12
368.923	1	3
369.093	1	0
369.264	1	4
369.435	1	-1
369.606	1	3
369.777	1	1
369.948	1	6
370.119	1	7
370.290	1	8
370.461	1	13
370.632	1	12
370.803	1	-6
370.973	1	11
371.144	1	-9
371.315	1	5
371.486	1	-1
371.657	1	12
371.828	1	-6
371.999	1	11
372.170	1	-2
372.341	1	1
372.512	1	3
372.682	1	-6
372.853	1	2
373.024	1	2
373.195	1	-1
373.366	1	-4
373.537	1	1
373.708	1	0
373.879	1	4
374.050	1	9
374.220	1	5
374.391	1	4
374.562	1	0
374.733	1	3
374.904	1	1
375.075	1	-2
375.246	1	-4
375.417	1	0
375.588	1	-6
375.758	1	-5
375.929	1	-5
376.100	1	-4
376.271	1	0
376.442	1	1
376.613	1	10
376.784	1	-2
376.955	1	-6
377.125	1	0
377.296	1	-2
377.467	1	7
377.638	1	14
377.809	1	-10
377.980	1	-4
378.151	1	4
378.321	1	-3
378.492	1	5
378.663	1	-3
378.834	1	-4
379.005	1	-1
379.176	1	3
379.347	1	9
379.518	1	-9
379.688	1	-14
379.859	1	7
380.030	1	1
380.201	1	-3
380.372	1	10
380.543	1	3
380.714	1	4
380.884	1	12
381.055	1	-3
381.226	1	2
381.397	1	-6
381.568	1	4
381.739	1	-5
381.910	1	-1
382.080	1	2
382.251	1	9
382.422	1	-6
382.593	1	1
382.764	1	-5
382.935	1	2
383.105	1	-5
383.276	1	5
383.447	1	-1
383.618	1	-5
383.789	1	9
383.960	1	0
384.130	1	-4
384.301	1	-2
384.472	1	-1
384.643	1	4
384.814	1	13
384.985	1	11
385.156	1	-2
385.326	1	0
385.497	1	-4
385.668	1	2
385.839	1	-9
386.010	1	1
386.180	1	-9
386.351	1	-5
386.522	1	6
386.693	1	0
386.864	1	-1
387.035	1	6
387.205	1	5
387.376	1	0
387.547	1	9
387.718	1	5
387.889	1	-6
388.060	1	-15
388.230	1	5
388.401	1	-7
388.572	1	-6
388.743	1	-1
388.914	1	-1
389.084	1	6
389.255	1	-6
389.426	1	9
389.597	1	-6
389.768	1	2
389.939	1	-3
390.109	1	-5
390.280	1	2
390.451	1	9
390.622	1	7
390.793	1	3
390.963	1	-5
391.134	1	-1
391.305	1	-3
391.476	1	-7
391.647	1	-10
391.817	1	-3
391.988	1	9
392.159	1	13
392.330	1	-11
392.501	1	4
392.671	1	2
392.842	1	-8
393.013	1	7
393.184	1	2
393.355	1	-3
393.525	1	4
393.696	1	-6
393.867	1	1
394.038	1	1
394.208	1	7
394.379	1	0
394.550	1	-2
394.721	1	-1
394.892	1	4
395.062	1	0
395.233	1	7
395.404	1	-7
395.575	1	13
395.746	1	10
395.916	1	10
396.087	1	-9
396.258	1	9
396.429	1	-9
396.599	1	13
396.770	1	-3
396.941	1	-4
397.112	1	1
397.283	1	6
397.453	1	0
397.624	1	5
397.795	1	1
397.966	1	2
398.136	1	-8
398.307	1	13
398.478	1	0
398.649	1	9
398.819	1	-7
398.990	1	-10
399.161	1	-4
399.332	1	8
399.503	1	2
399.673	1	7
399.844	1	-11
400.015	1	-5
400.186	1	9
400.356	1	15
400.527	1	-4
400.698	1	-4
400.869	1	-6
401.039	1	4
401.210	1	-7
401.381	1	4
401.552	1	-7
401.722	1	-1
401.893	1	6
402.064	1	4
402.235	1	4
402.405	1	-11
402.576	1	17
402.747	1	3
402.918	1	6
403.088	1	-9
403.259	1	11
403.430	1	11
403.601	1	-1
403.771	1	-8
403.942	1	-7
404.113	1	0
404.284	1	7
404.454	1	-2
404.625	1	-1
404.796	1	-8
404.967	1	9
405.137	1	4
405.308	1	5
405.479	1	-7
405.649	1	-4
405.820	1	-2
405.991	1	4
406.162	1	-7
406.332	1	5
406.503	1	8
406.674	1	8
406.845	1	0
407.015	1	1
407.186	1	12
407.357	1	3
407.527	1	10
407.698	1	2
407.869	1	-2
408.040	1	0
408.210	1	-1
408.381	1	7
408.552	1	12
408.722	1	4
408.893	1	3
409.064	1	-1
409.235	1	-2
409.405	1	-2
409.576	1	5
409.747	1	-2
409.917	1	5
410.088	1	-6
410.259	1	2
410.430	1	-2
410.600	1	1
410.771	1	9
410.942	1	3
411.112	1	-2
411.283	1	-2
411.454	1	1
411.625	1	7
411.795	1	-1
411.966	1	2
412.137	1	5
412.307	1	0
412.478	1	-8
412.649	1	11
412.819	1	7
412.990	1	-2
413.161	1	-1
413.332	1	-10
413.502	1	-9
413.673	1	12
413.844	1	10
414.014	1	7
414.185	1	-4
414.356	1	13
414.526	1	-4
414.697	1	1
414.868	1	-13
415.038	1	-1
415.209	1	1
415.380	1	4
415.550	1	-6
415.721	1	3
415.892	1	-2
416.063	1	3
416.233	1	-4
416.404	1	0
416.575	1	10
416.745	1	10
416.916	1	5
417.087	1	7
417.257	1	-6
417.428	1	10
417.599	1	-9
417.769	1	-4
417.940	1	1
418.111	1	10
418.281	1	5
418.452	1	-3
418.623	1	-9
418.793	1	1
418.964	1	-3
419.135	1	9
419.305	1	4
419.476	1	20
419.647	1	-3
419.817	1	-1
419.988	1	16
420.159	1	-1
420.329	1	2
420.500	1	-1
420.671	1	11
420.841	1	-1
421.012	1	6
421.183	1	-6
421.353	1	8
421.524	1	7
421.695	1	-7
421.865	1	-6
422.036	1	-12
422.206	1	-1
422.377	1	3
422.548	1	-19
422.718	1	20
422.889	1	1
423.060	1	4
423.230	1	1
423.401	1	5
423.572	1	-4
423.742	1	5
423.913	1	-7
424.084	1	0
424.254	1	-3
424.425	1	-3
424.595	1	2
424.766	1	16
424.937	1	-2
425.107	1	4
425.278	1	-8
425.449	1	-3
425.619	1	8
425.790	1	2
425.961	1	-3
426.131	1	-1
426.302	1	4
426.472	1	8
426.643	1	-6
426.814	1	-14
426.984	1	-1
427.155	1	14
427.326	1	1
427.496	1	-7
427.667	1	7
427.837	1	10
428.008	1	8
428.179	1	2
428.349	1	10
428.520	1	2
428.691	1	6
428.861	1	-5
429.032	1	1
429.202	1	2
429.373	1	4
429.544	1	-10
429.714	1	5
429.885	1	6
430.055	1	11
430.226	1	0
430.397	1	4
430.567	1	-4
430.738	1	2
430.909	1	2
431.079	1	-6
431.250	1	-1
431.420	1	6
431.591	1	15
431.762	1	6
431.932	1	13
432.103	1	-6
432.273	1	2
432.444	1	1
432.615	1	-3
432.785	1	0
432.956	1	-4
433.126	1	6
433.297	1	2
433.468	1	0
433.638	1	-4
433.809	1	5
433.979	1	8
434.150	1	11
434.320	1	-7
434.491	1	10
434.662	1	-6
434.832	1	4
435.003	1	-3
435.173	1	7
435.344	1	6
435.515	1	2
435.685	1	-10
435.856	1	-2
436.026	1	5
436.197	1	9
436.368	1	2
436.538	1	5
436.709	1	2
436.879	1	-5
437.050	1	10
437.220	1	5
437.391	1	3
437.562	1	0
437.732	1	-3
437.903	1	0
438.073	1	11
438.244	1	-1
438.414	1	-5
438.585	1	4
438.756	1	-6
438.926	1	12
439.097	1	1
439.267	1	1
439.438	1	-2
439.608	1	-4
439.779	1	0
439.949	1	12
440.120	1	-2
440.291	1	4
440.461	1	5
440.632	1	6
440.802	1	-1
440.973	1	0
441.143	1	-6
441.314	1	-4
441.485	1	5
441.655	1	4
441.826	1	5
441.996	1	-6
442.167	1	3
442.337	1	5
442.508	1	-2
442.678	1	-7
442.849	1	-3
443.019	1	-3
443.190	1	-3
443.361	1	3
443.531	1	6
443.702	1	-2
443.872	1	7
444.043	1	-6
444.213	1	0
444.384	1	-8
444.554	1	3
444.725	1	1
444.895	1	-7
445.066	1	-5
445.237	1	-3
445.407	1	-7
445.578	1	-8
445.748	1	-4
445.919	1	2
446.089	1	-1
446.260	1	-2
446.430	1	-5
446.601	1	16
446.771	1	1
446.942	1	-9
447.112	1	6
447.283	1	-4
447.453	1	6
447.624	1	1
447.794	1	5
447.965	1	-8
448.135	1	4
448.306	1	4
448.477	1	2
448.647	1	11
448.818	1	-1
448.988	1	4
449.159	1	6
449.329	1	-2
449.500	1	1
449.670	1	7
449.841	1	5
450.011	1	-2
450.182	1	-5
450.352	1	-7
450.523	1	3
450.693	1	3
450.864	1	10
451.034	1	-1
451.205	1	0
451.375	1	1
451.546	1	8
451.716	1	1
451.887	1	-10
452.057	1	-10
452.228	1	14
452.398	1	-5
452.569	1	11
452.739	1	2
452.910	1	-1
453.080	1	-14
453.251	1	2
453.421	1	1
453.592	1	-5
453.762	1	5
453.933	1	17
454.103	1	0
454.274	1	-14
454.444	1	-2
454.615	1	3
454.785	1	0
454.956	1	-4
455.126	1	2
455.297	1	-10
455.467	1	5
455.638	1	12
455.808	1	11
455.979	1	3
456.149	1	-4
456.320	1	-4
456.490	1	7
456.661	1	-4
456.831	1	7
457.001	1	-1
457.172	1	11
457.342	1	-1
457.513	1	-1
457.683	1	4
457.854	1	0
458.024	1	-5
458.195	1	-4
458.365	1	8
458.536	1	5
458.706	1	12
458.877	1	2
459.047	1	1
459.218	1	-9
459.388	1	-3
459.559	1	-2
459.729	1	-7
459.899	1	-1
460.070	1	-3
460.240	1	0
460.411	1	-8
460.581	1	6
460.752	1	6
460.922	1	-4
461.093	1	-7
461.263	1	9
461.434	1	4
461.604	1	13
461.775	1	0
461.945	1	5
462.115	1	7
462.286	1	-8
462.456	1	7
462.627	1	0
462.797	1	-10
462.968	1	-10
463.138	1	-1
463.309	1	-4
463.479	1	8
463.649	1	2
463.820	1	-11
463.990	1	-11
464.161	1	2
464.331	1	-2
464.502	1	-4
464.672	1	-5
464.843	1	-3
465.013	1	-10
465.183	1	0
465.354	1	4
465.524	1	1
465.695	1	-3
465.865	1	0
466.036	1	6
466.206	1	0
466.376	1	2
466.547	1	-9
466.717	1	11
466.888	1	8
467.058	1	-1
467.229	1	2
467.399	1	-7
467.569	1	3
467.740	1	2
467.910	1	5
468.081	1	11
468.251	1	2
468.422	1	10
468.592	1	12
468.762	1	-7
468.933	1	11
469.103	1	2
469.274	1	0
469.444	1	-5
469.614	1	0
469.785	1	7
469.955	1	7
470.126	1	4
470.296	1	-4
470.467	1	-4
470.637	1	1
470.807	1	-3
470.978	1	4
471.148	1	7
471.319	1	7
471.489	1	-1
471.659	1	1
471.830	1	-6
472.000	1	1
472.171	1	5
472.341	1	8
472.511	1	8
472.682	1	-6
472.852	1	3
473.023	1	2
473.193	1	-3
473.363	1	-6
473.534	1	5
473.704	1	-2
473.875	1	6
474.045	1	-2
474.215	1	8
474.386	1	6
474.556	1	9
474.727	1	6
474.897	1	4
475.067	1	-5
475.238	1	1
475.408	1	5
475.578	1	0
475.749	1	8
475.919	1	0
476.090	1	14
476.260	1	2
476.430	1	2
476.601	1	8
476.771	1	2
476.942	1	-6
477.112	1	0
477.282	1	10
477.453	1	-3
477.623	1	2
477.793	1	2
477.964	1	8
478.134	1	4
478.305	1	0
478.475	1	2
478.645	1	4
478.816	1	3
478.986	1	12
479.156	1	-3
479.327	1	2
479.497	1	-2
479.667	1	4
479.838	1	1
480.008	1	-4
480.179	1	-3
480.349	1	3
480.519	1	-14
480.690	1	-2
480.860	1	-4
481.030	1	12
481.201	1	1
481.371	1	6
481.541	1	1
481.712	1	-2
481.882	1	-5
482.053	1	14
482.223	1	6
482.393	1	9
482.564	1	-3
482.734	1	-4
482.904	1	-5
483.075	1	0
483.245	1	13
483.415	1	-6
483.586	1	2
483.756	1	-11
483.926	1	1
484.097	1	8
484.267	1	11
484.437	1	5
484.608	1	-3
484.778	1	2
484.948	1	-3
485.119	1	3
485.289	1	2
485.459	1	9
485.630	1	-10
485.800	1	-2
485.970	1	8
486.141	1	10
486.311	1	-8
486.481	1	3
486.652	1	4
486.822	1	12
486.992	1	-1
487.163	1	7
487.333	1	-12
487.503	1	4
487.674	1	-1
487.844	1	1
488.014	1	2
488.185	1	1
488.355	1	9
488.525	1	10
488.696	1	-7
488.866	1	0
489.036	1	9
489.207	1	-2
489.377	1	-7
489.547	1	0
489.718	1	16
489.888	1	6
490.058	1	1
490.228	1	-1
490.399	1	3
490.569	1	14
490.739	1	4
490.910	1	5
491.080	1	-4
491.250	1	-1
491.421	1	0
491.591	1	-7
491.761	1	5
491.932	1	6
492.102	1	6
492.272	1	-1
492.442	1	-7
492.613	1	5
492.783	1	1
492.953	1	2
493.124	1	5
493.294	1	-6
493.464	1	12
493.635	1	-1
493.805	1	-2
493.975	1	-8
494.145	1	-8
494.316	1	8
494.486	1	1
494.656	1	-9
494.827	1	2
494.997	1	9
495.167	1	-4
495.337	1	9
495.508	1	6
495.678	1	-2
495.848	1	9
496.019	1	-4
496.189	1	6
496.359	1	2
496.529	1	-4
496.700	1	1
496.870	1	8
497.040	1	-2
497.211	1	8
497.381	1	1
497.551	1	0
497.721	1	2
497.892	1	5
498.062	1	0
498.232	1	6
498.403	1	-2
498.573	1	-1
498.743	1	7
498.913	1	4
499.084	1	-4
499.254	1	-1
499.424	1	-9
499.594	1	3
499.765	1	-2
499.935	1	3
500.105	1	15
500.275	1	10
500.446	1	3
500.616	1	-2
500.786	1	2
500.956	1	-5
501.127	1	4
501.297	1	-6
501.467	1	7
501.638	1	10
501.808	1	-7
501.978	1	7
502.148	1	-2
502.319	1	7
502.489	1	3
502.659	1	8
502.829	1	8
503.000	1	-5
503.170	1	-2
503.340	1	7
503.510	1	4
503.681	1	5
503.851	1	8
504.021	1	2
504.191	1	1
504.362	1	-4
504.532	1	4
504.702	1	12
504.872	1	1
505.042	1	-2
505.213	1	-4
505.383	1	3
505.553	1	-7
505.723	1	5
505.894	1	0
506.064	1	-5
506.234	1	7
506.404	1	6
506.575	1	2
506.745	1	-5
506.915	1	1
507.085	1	18
507.256	1	-2
507.426	1	-1
507.596	1	0
507.766	1	0
507.936	1	-9
508.107	1	2
508.277	1	-6
508.447	1	12
508.617	1	-3
508.788	1	9
508.958	1	-3
509.128	1	4
509.298	1	1
509.468	1	5
509.639	1	4
509.809	1	-3
509.979	1	2
510.149	1	-2
510.319	1	9
510.490	1	12
510.660	1	1
510.830	1	-7
511.000	1	-11
511.171	1	0
511.341	1	10
511.511	1	-1
511.681	1	3
511.851	1	8
512.022	1	-2
512.192	1	-4
512.362	1	17
512.532	1	6
512.702	1	0
512.873	1	-4
513.043	1	6
513.213	1	6
513.383	1	4
513.553	1	6
513.724	1	7
513.894	1	3
514.064	1	4
514.234	1	0
514.404	1	7
514.575	1	5
514.745	1	-4
514.915	1	-13
515.085	1	8
515.255	1	4
515.425	1	7
515.596	1	9
515.766	1	0
515.936	1	-2
516.106	1	0
516.276	1	6
516.447	1	1
516.617	1	-7
516.787	1	8
516.957	1	-1
517.127	1	6
517.297	1	12
517.468	1	0
517.638	1	7
517.808	1	6
517.978	1	-2
518.148	1	6
518.319	1	0
518.489	1	7
518.659	1	3
518.829	1	5
518.999	1	-1
519.169	1	-7
519.340	1	-2
519.510	1	-17
519.680	1	4
519.850	1	4
520.020	1	0
520.190	1	2
520.361	1	6
520.531	1	14
520.701	1	-2
520.871	1	4
521.041	1	4
521.211	1	1
521.382	1	2
521.552	1	14
521.722	1	-2
521.892	1	-3
522.062	1	4
522.232	1	6
522.402	1	-7
522.573	1	9
522.743	1	-3
522.913	1	10
523.083	1	8
523.253	1	-1
523.423	1	9
523.593	1	-2
523.764	1	5
523.934	1	-1
524.104	1	5
524.274	1	-7
524.444	1	-1
524.614	1	4
524.784	1	-4
524.955	1	6
525.125	1	-3
525.295	1	-3
525.465	1	1
525.635	1	8
525.805	1	-6
525.975	1	6
526.146	1	3
526.316	1	-4
526.486	1	-1
526.656	1	11
526.826	1	9
526.996	1	-14
527.166	1	8
527.337	1	-6
527.507	1	5
527.677	1	0
527.847	1	-2
528.017	1	-6
528.187	1	-7
528.357	1	-5
528.527	1	3
528.698	1	3
528.868	1	4
529.038	1	4
529.208	1	9
529.378	1	0
529.548	1	10
529.718	1	-4
529.888	1	1
530.058	1	4
530.229	1	3
530.399	1	5
530.569	1	4
530.739	1	3
530.909	1	0
531.079	1	19
531.249	1	-2
531.419	1	-2
531.589	1	1
531.760	1	-6
531.930	1	0
532.100	1	5
532.270	1	9
532.440	1	-5
532.610	1	-1
532.780	1	-11
532.950	1	-1
533.120	1	12
533.290	1	-5
533.461	1	0
533.631	1	0
533.801	1	-2
533.971	1	-1
534.141	1	-1
534.311	1	9
534.481	1	1
534.651	1	-1
534.821	1	3
534.991	1	0
535.162	1	9
535.332	1	-7
535.502	1	9
535.672	1	13
535.842	1	2
536.012	1	0
536.182	1	2
536.352	1	-9
536.522	1	-4
536.692	1	5
536.862	1	1
537.032	1	-1
537.203	1	1
537.373	1	8
537.543	1	0
537.713	1	7
537.883	1	17
538.053	1	1
538.223	1	2
538.393	1	-1
538.563	1	4
538.733	1	-6
538.903	1	3
539.073	1	3
539.243	1	4
539.413	1	-8
539.584	1	6
539.754	1	-10
539.924	1	-5
540.094	1	6
540.264	1	-3
540.434	1	6
540.604	1	-2
540.774	1	-6
540.944	1	-5
541.114	1	8
541.284	1	10
541.454	1	-1
541.624	1	-8
541.794	1	-3
541.964	1	-1
542.134	1	-14
542.305	1	8
542.475	1	5
542.645	1	3
542.815	1	2
542.985	1	10
543.155	1	4
543.325	1	0
543.495	1	-1
543.665	1	-2
543.835	1	3
544.005	1	-3
544.175	1	-4
544.345	1	-1
544.515	1	7
544.685	1	3
544.855	1	16
545.025	1	-4
545.195	1	3
545.365	1	-10
545.535	1	2
545.705	1	4
545.875	1	-1
546.045	1	6
546.216	1	-5
546.386	1	7
546.556	1	2
546.726	1	1
546.896	1	-3
547.066	1	2
547.236	1	0
547.406	1	1
547.576	1	-2
547.746	1	2
547.916	1	-2
548.086	1	-4
548.256	1	18
548.426	1	11
548.596	1	-2
548.766	1	-2
548.936	1	-3
549.106	1	1
549.276	1	1
549.446	1	6
549.616	1	2
549.786	1	4
549.956	1	8
550.126	1	7
550.296	1	-1
550.466	1	-9
550.636	1	1
550.806	1	-6
550.976	1	-8
551.146	1	2
551.316	1	4
551.486	1	6
551.656	1	3
551.826	1	-1
551.996	1	-10
552.166	1	3
552.336	1	4
552.506	1	0
552.676	1	7
552.846	1	4
553.016	1	7
553.186	1	8
553.356	1	-1
553.526	1	7
553.696	1	-5
553.866	1	0
554.036	1	4
554.206	1	-6
554.376	1	-2
554.546	1	2
554.716	1	7
554.886	1	-1
555.056	1	6
555.226	1	3
555.396	1	1
555.566	1	-6
555.736	1	-5
555.906	1	2
556.076	1	19
556.246	1	-4
556.416	1	-4
556.586	1	8
556.756	1	10
556.926	1	5
557.096	1	3
557.266	1	1
557.436	1	8
557.606	1	-7
557.776	1	-11
557.946	1	4
558.116	1	12
558.286	1	1
558.456	1	3
558.626	1	14
558.796	1	-3
558.966	1	-2
559.136	1	-2
559.306	1	2
559.476	1	5
559.646	1	2
559.816	1	2
559.986	1	-2
560.155	1	10
560.325	1	10
560.495	1	-2
560.665	1	8
560.835	1	1
561.005	1	6
561.175	1	3
561.345	1	-3
561.515	1	0
561.685	1	1
561.855	1	-3
562.025	1	2
562.195	1	1
562.365	1	14
562.535	1	1
562.705	1	10
562.875	1	9
563.045	1	8
563.215	1	0
563.385	1	-1
563.555	1	-1
563.725	1	-4
563.895	1	8
564.064	1	1
564.234	1	-7
564.404	1	1
564.574	1	-2
564.744	1	6
564.914	1	0
565.084	1	-4
565.254	1	3
565.424	1	7
565.594	1	12
565.764	1	4
565.934	1	4
566.104	1	-4
566.274	1	1
566.444	1	8
566.614	1	4
566.783	1	0
566.953	1	-3
567.123	1	-8
567.293	1	-3
567.463	1	-4
567.633	1	-1
567.803	1	-2
567.973	1	7
568.143	1	-2
568.313	1	-5
568.483	1	10
568.653	1	3
568.823	1	3
568.993	1	7
569.162	1	-3
569.332	1	2
569.502	1	-8
569.672	1	-8
569.842	1	0
570.012	1	3
570.182	1	0
570.352	1	-2
570.522	1	2
570.692	1	-2
570.862	1	-3
571.031	1	-9
571.201	1	-2
571.371	1	-3
571.541	1	6
571.711	1	12
571.881	1	-1
572.051	1	5
572.221	1	4
572.391	1	14
572.561	1	-12
572.731	1	1
572.900	1	-3
573.070	1	1
573.240	1	10
573.410	1	1
573.580	1	-3
573.750	1	-3
573.920	1	2
574.090	1	-4
574.260	1	7
574.430	1	-6
574.599	1	4
574.769	1	10
574.939	1	1
575.109	1	-4
575.279	1	-11
575.449	1	4
575.619	1	-14
575.789	1	7
575.959	1	-5
576.128	1	12
576.298	1	8
576.468	1	-3
576.638	1	-1
576.808	1	4
576.978	1	9
577.148	1	1
577.318	1	7
577.487	1	1
577.657	1	2
577.827	1	6
577.997	1	-1
578.167	1	2
578.337	1	4
578.507	1	0
578.677	1	-18
578.846	1	2
579.016	1	4
579.186	1	0
579.356	1	-2
579.526	1	-1
579.696	1	14
579.866	1	1
580.036	1	-5
580.205	1	21
580.375	1	-4
580.545	1	3
580.715	1	3
580.885	1	2
581.055	1	4
581.225	1	4
581.394	1	4
581.564	1	5
581.734	1	-8
581.904	1	-1
582.074	1	6
582.244	1	7
582.414	1	-2
582.583	1	-10
582.753	1	2
582.923	1	5
583.093	1	9
583.263	1	7
583.433	1	5
583.603	1	3
583.772	1	-8
583.942	1	4
584.112	1	3
584.282	1	10
584.452	1	-7
584.622	1	-8
584.791	1	-12
584.961	1	6
585.131	1	-4
585.301	1	9
585.471	1	-1
585.641	1	-5
585.811	1	7
585.980	1	1
586.150	1	1
586.320	1	-1
586.490	1	-7
586.660	1	-3
586.830	1	10
586.999	1	-8
587.169	1	5
587.339	1	-2
587.509	1	2
587.679	1	-1
587.849	1	3
588.018	1	-7
588.188	1	1
588.358	1	-1
588.528	1	-1
588.698	1	-9
588.867	1	2
589.037	1	-2
589.207	1	-2
589.377	1	2
589.547	1	13
589.717	1	-9
589.886	1	0
590.056	1	8
590.226	1	12
590.396	1	4
590.566	1	3
590.735	1	-1
590.905	1	1
591.075	1	6
591.245	1	7
591.415	1	11
591.585	1	2
591.754	1	3
591.924	1	11
592.094	1	-8
592.264	1	3
592.434	1	2
592.603	1	-1
592.773	1	-8
592.943	1	11
593.113	1	-3
593.283	1	5
593.452	1	10
593.622	1	-2
593.792	1	6
593.962	1	0
594.132	1	9
594.301	1	2
594.471	1	0
594.641	1	-16
594.811	1	11
594.981	1	-1
595.150	1	0
595.320	1	1
595.490	1	3
595.660	1	3
595.829	1	7
595.999	1	3
596.169	1	2
596.339	1	3
596.509	1	-3
596.678	1	0
596.848	1	7
597.018	1	11
597.188	1	9
597.358	1	0
597.527	1	-7
597.697	1	-6
597.867	1	4
598.037	1	6
598.206	1	13
598.376	1	-7
598.546	1	5
598.716	1	6
598.885	1	2
599.055	1	-1
599.225	1	-2
599.395	1	8
599.565	1	-8
599.734	1	11
599.904	1	0
600.074	1	8
600.244	1	-8
600.413	1	-6
600.583	1	-3
600.753	1	3
600.923	1	7
601.092	1	9
601.262	1	-7
601.432	1	12
601.602	1	1
601.771	1	9
601.941	1	5
602.111	1	2
602.281	1	4
602.451	1	-5
602.620	1	0
602.790	1	7
602.960	1	1
603.130	1	1
603.299	1	8
603.469	1	-4
603.639	1	0
603.809	1	-2
603.978	1	1
604.148	1	-3
604.318	1	-2
604.487	1	-1
604.657	1	-1
604.827	1	-2
604.997	1	3
605.166	1	0
605.336	1	12
605.506	1	5
605.676	1	15
605.845	1	-10
606.015	1	5
606.185	1	-4
606.355	1	7
606.524	1	1
606.694	1	6
606.864	1	7
607.034	1	-3
607.203	1	-2
607.373	1	10
607.543	1	6
607.712	1	12
607.882	1	9
608.052	1	7
608.222	1	-3
608.391	1	4
608.561	1	9
608.731	1	7
608.901	1	3
609.070	1	2
609.240	1	3
609.410	1	2
609.579	1	4
609.749	1	5
609.919	1	2
610.089	1	-9
610.258	1	5
610.428	1	9
610.598	1	-1
610.767	1	-2
610.937	1	-1
611.107	1	5
611.277	1	6
611.446	1	-3
611.616	1	13
611.786	1	6
611.955	1	-3
612.125	1	2
612.295	1	10
612.465	1	2
612.634	1	9
612.804	1	3
612.974	1	4
613.143	1	0
613.313	1	-3
613.483	1	-12
613.652	1	-3
613.822	1	-1
613.992	1	14
614.162	1	-10
614.331	1	-2
614.501	1	-3
614.671	1	9
614.840	1	-4
615.010	1	-5
615.180	1	3
615.349	1	4
615.519	1	7
615.689	1	-10
615.858	1	-3
616.028	1	-2
616.198	1	11
616.368	1	1
616.537	1	0
616.707	1	-6
616.877	1	11
617.046	1	3
617.216	1	4
617.386	1	-3
617.555	1	6
617.725	1	0
617.895	1	10
618.064	1	-6
618.234	1	-3
618.404	1	1
618.573	1	0
618.743	1	7
618.913	1	1
619.082	1	8
619.252	1	10
619.422	1	7
619.591	1	-3
619.761	1	-8
619.931	1	10
620.100	1	-1
620.270	1	11
620.440	1	-5
620.609	1	0
620.779	1	-5
620.949	1	1
621.118	1	-5
621.288	1	9
621.458	1	3
621.627	1	0
621.797	1	10
621.967	1	2
622.136	1	0
622.306	1	3
622.476	1	11
622.645	1	5
622.815	1	-9
622.985	1	2
623.154	1	-5
623.324	1	4
623.494	1	4
623.663	1	-6
623.833	1	-12
624.002	1	5
624.172	1	-6
624.342	1	13
624.511	1	4
624.681	1	0
624.851	1	-7
625.020	1	-1
625.190	1	8
625.360	1	7
625.529	1	4
625.699	1	0
625.869	1	5
626.038	1	-5
626.208	1	10
626.377	1	-2
626.547	1	-3
626.717	1	3
626.886	1	6
627.056	1	3
627.226	1	-5
627.395	1	3
627.565	1	-8
627.735	1	-1
627.904	1	2
628.074	1	3
628.243	1	-3
628.413	1	12
628.583	1	-6
628.752	1	9
628.922	1	2
629.091	1	6
629.261	1	1
629.431	1	-6
629.600	1	-1
629.770	1	-1
629.940	1	18
630.109	1	2
630.279	1	-3
630.448	1	2
630.618	1	1
630.788	1	-5
630.957	1	1
631.127	1	5
631.297	1	-4
631.466	1	2
631.636	1	-6
631.805	1	-5
631.975	1	1
632.145	1	-2
632.314	1	-2
632.484	1	6
632.653	1	-7
632.823	1	-6
632.993	1	-4
633.162	1	2
633.332	1	3
633.501	1	-3
633.671	1	7
633.841	1	19
634.010	1	0
634.180	1	-8
634.349	1	-6
634.519	1	-6
634.689	1	-3
634.858	1	-1
635.028	1	-2
635.197	1	9
635.367	1	7
635.537	1	9
635.706	1	-1
635.876	1	-1
636.045	1	-12
636.215	1	4
636.384	1	2
636.554	1	-8
636.724	1	4
636.893	1	-2
637.063	1	9
637.232	1	-8
637.402	1	2
637.572	1	-2
637.741	1	2
637.911	1	3
638.080	1	2
638.250	1	2
638.419	1	3
638.589	1	2
638.759	1	0
638.928	1	11
639.098	1	-5
639.267	1	2
639.437	1	0
639.606	1	2
639.776	1	0
639.946	1	1
640.115	1	2
640.285	1	0
640.454	1	7
640.624	1	-8
640.793	1	3
640.963	1	0
641.132	1	-3
641.302	1	12
641.472	1	-2
641.641	1	4
641.811	1	7
641.980	1	1
642.150	1	2
642.319	1	-5
642.489	1	-2
642.659	1	1
642.828	1	-1
642.998	1	7
643.167	1	0
643.337	1	-3
643.506	1	-15
643.676	1	4
643.845	1	-3
644.015	1	6
644.184	1	5
644.354	1	-6
644.524	1	5
644.693	1	3
644.863	1	5
645.032	1	1
645.202	1	-6
645.371	1	4
645.541	1	-8
645.710	1	3
645.880	1	1
646.049	1	-5
646.219	1	-3
646.388	1	7
646.558	1	12
646.728	1	12
646.897	1	-3
647.067	1	8
647.236	1	10
647.406	1	0
647.575	1	7
647.745	1	-1
647.914	1	-1
648.084	1	9
648.253	1	-19
648.423	1	-6
648.592	1	-3
648.762	1	5
648.931	1	0
649.101	1	5
649.270	1	-11
649.440	1	5
649.610	1	1
649.779	1	15
649.949	1	-1
650.118	1	0
650.288	1	0
650.457	1	-5
650.627	1	0
650.796	1	8
650.966	1	12
651.135	1	-6
651.305	1	4
651.474	1	4
651.644	1	7
651.813	1	-10
651.983	1	7
652.152	1	8
652.322	1	-10
652.491	1	7
652.661	1	-4
652.830	1	-3
653.000	1	-1
653.169	1	-1
653.339	1	9
653.508	1	3
653.678	1	8
653.847	1	-12
654.017	1	10
654.186	1	9
654.356	1	4
654.525	1	-3
654.695	1	-5
654.864	1	8
655.034	1	12
655.203	1	3
655.373	1	-8
655.542	1	-6
655.712	1	1
655.881	1	-1
656.051	1	-4
656.220	1	9
656.390	1	-6
656.559	1	-8
656.729	1	-5
656.898	1	2
657.068	1	7
657.237	1	0
657.406	1	-4
657.576	1	4
657.745	1	2
657.915	1	-9
658.084	1	7
658.254	1	1
658.423	1	12
658.593	1	1
658.762	1	-10
658.932	1	1
659.101	1	0
659.271	1	-4
659.440	1	7
659.610	1	7
659.779	1	-3
659.949	1	6
660.118	1	1
660.288	1	7
660.457	1	8
660.626	1	-8
660.796	1	-8
660.965	1	-13
661.135	1	-9
661.304	1	12
661.474	1	2
661.643	1	8
661.813	1	-7
661.982	1	-7
662.152	1	1
662.321	1	7
662.491	1	2
662.660	1	10
662.829	1	-10
662.999	1	1
663.168	1	9
663.338	1	2
663.507	1	3
663.677	1	9
663.846	1	7
664.016	1	-3
664.185	1	1
664.354	1	2
664.524	1	5
664.693	1	1
664.863	1	-4
665.032	1	2
665.202	1	2
665.371	1	0
665.541	1	-14
665.710	1	-1
665.879	1	-4
666.049	1	2
666.218	1	0
666.388	1	-2
666.557	1	5
666.727	1	5
666.896	1	10
667.065	1	1
667.235	1	5
667.404	1	-3
667.574	1	6
667.743	1	5
667.913	1	6
668.082	1	17
668.251	1	-8
668.421	1	1
668.590	1	8
668.760	1	-1
668.929	1	7
669.099	1	2
669.268	1	9
669.437	1	-6
669.607	1	4
669.776	1	0
669.946	1	10
670.115	1	5
670.285	1	0
670.454	1	11
670.623	1	0
670.793	1	2
670.962	1	-8
671.132	1	-2
671.301	1	-4
671.470	1	1
671.640	1	2
671.809	1	8
671.979	1	-8
672.148	1	-3
672.317	1	-10
672.487	1	8
672.656	1	1
672.826	1	-3
672.995	1	-4
673.164	1	-3
673.334	1	7
673.503	1	-6
673.673	1	7
673.842	1	1
674.011	1	5
674.181	1	-3
674.350	1	-8
674.520	1	0
674.689	1	5
674.858	1	3
675.028	1	6
675.197	1	1
675.367	1	8
675.536	1	-4
675.705	1	-1
675.875	1	-3
676.044	1	-2
676.214	1	5
676.383	1	-9
676.552	1	-2
676.722	1	1
676.891	1	8
677.060	1	7
677.230	1	6
677.399	1	3
677.569	1	5
677.738	1	-1
677.907	1	-6
678.077	1	-11
678.246	1	-4
678.416	1	2
678.585	1	14
678.754	1	5
678.924	1	-14
679.093	1	-2
679.262	1	1
679.432	1	9
679.601	1	-12
679.771	1	13
679.940	1	-1
680.109	1	6
680.279	1	9
680.448	1	8
680.617	1	0
680.787	1	4
680.956	1	0
681.125	1	0
681.295	1	5
681.464	1	2
681.634	1	12
681.803	1	10
681.972	1	6
682.142	1	-4
682.311	1	4
682.480	1	6
682.650	1	1
682.819	1	2
682.988	1	-3
683.158	1	8
683.327	1	7
683.496	1	1
683.666	1	1
683.835	1	-2
684.004	1	0
684.174	1	-4
684.343	1	1
684.512	1	6
684.682	1	4
684.851	1	1
685.021	1	4
685.190	1	0
685.359	1	5
685.529	1	-2
685.698	1	-1
685.867	1	0
686.037	1	0
686.206	1	-2
686.375	1	1
686.545	1	0
686.714	1	8
686.883	1	0
687.053	1	-4
687.222	1	0
687.391	1	2
687.561	1	-1
687.730	1	-4
687.899	1	3
688.069	1	9
688.238	1	1
688.407	1	8
688.577	1	8
688.746	1	0
