340.368	1	-3
340.539	1	-10
340.710	1	9
340.881	1	-8
341.052	1	-6
341.223	1	5
341.394	1	1
341.565	1	8
341.737	1	-3
341.908	1	-5
342.079	1	-3
342.250	1	5
342.421	1	10
342.592	1	7
342.763	1	5
342.934	1	8
343.105	1	3
343.276	1	-1
343.447	1	2
343.618	1	-4
343.789	1	8
343.960	1	-4
344.131	1	-9
344.302	1	1
344.473	1	-11
344.644	1	-11
344.815	1	0
344.986	1	7
345.157	1	-8
345.328	1	7
345.499	1	9
345.670	1	-1
345.841	1	-3
346.012	1	1
346.183	1	-3
346.354	1	11
346.526	1	-2
346.697	1	3
346.868	1	-2
347.039	1	8
347.210	1	-5
347.381	1	-6
347.552	1	10
347.723	1	-8
347.894	1	8
348.065	1	-12
348.236	1	7
348.407	1	-11
348.578	1	-7
348.749	1	-6
348.920	1	5
349.091	1	-4
349.262	1	-6
349.433	1	0
349.604	1	3
349.775	1	10
349.946	1	7
350.117	1	-4
350.288	1	-9
350.459	1	-1
350.630	1	0
350.801	1	3
350.972	1	10
351.143	1	-2
351.314	1	10
351.485	1	-12
351.656	1	1
351.827	1	-4
351.998	1	-2
352.169	1	-6
352.340	1	6
352.511	1	-4
352.682	1	5
352.853	1	-6
353.024	1	7
353.195	1	-4
353.366	1	-3
353.537	1	1
353.708	1	3
353.879	1	0
354.050	1	5
354.221	1	-1
354.392	1	6
354.563	1	-4
354.734	1	17
354.905	1	11
355.076	1	6
355.247	1	-4
355.418	1	-6
355.589	1	8
355.760	1	-10
355.931	1	6
356.102	1	-1
356.273	1	11
356.444	1	-3
356.615	1	-9
356.785	1	-1
356.956	1	7
357.127	1	2
357.298	1	0
357.469	1	-3
357.640	1	-2
357.811	1	10
357.982	1	1
358.153	1	9
358.324	1	1
358.495	1	-1
358.666	1	-13
358.837	1	3
359.008	1	8
359.179	1	7
359.350	1	-4
359.521	1	-2
359.692	1	-7
359.863	1	0
360.034	1	1
360.205	1	2
360.376	1	9
360.547	1	3
360.718	1	6
360.889	1	-2
361.060	1	1
361.231	1	6
361.401	1	-2
361.572	1	5
361.743	1	5
361.914	1	-3
362.085	1	7
362.256	1	-1
362.427	1	6
362.598	1	2
362.769	1	-2
362.940	1	3
363.111	1	2
363.282	1	1
363.453	1	14
363.624	1	10
363.795	1	-3
363.966	1	-2
364.137	1	8
364.308	1	18
364.478	1	1
364.649	1	7
364.820	1	17
364.991	1	1
365.162	1	5
365.333	1	3
365.504	1	-2
365.675	1	2
365.846	1	2
366.017	1	8
366.188	1	10
366.359	1	4
366.530	1	11
366.701	1	3
366.871	1	2
367.042	1	11
367.213	1	10
367.384	1	15
367.555	1	7
367.726	1	13
367.897	1	-1
368.068	1	12
368.239	1	10
368.410	1	13
368.581	1	12
368.752	1	16
368.923	1	18
369.093	1	10
369.264	1	18
369.435	1	5
369.606	1	10
369.777	1	14
369.948	1	13
370.119	1	15
370.290	1	6
370.461	1	13
370.632	1	18
370.803	1	-2
370.973	1	11
371.144	1	7
371.315	1	17
371.486	1	7
371.657	1	8
371.828	1	-3
371.999	1	12
372.170	1	1
372.341	1	4
372.512	1	10
372.682	1	-4
372.853	1	9
373.024	1	-1
373.195	1	9
373.366	1	2
373.537	1	7
373.708	1	-8
373.879	1	5
374.050	1	8
374.220	1	13
374.391	1	0
374.562	1	12
374.733	1	5
374.904	1	-6
375.075	1	0
375.246	1	2
375.417	1	2
375.588	1	-4
375.758	1	-6
375.929	1	-12
376.100	1	-1
376.271	1	8
376.442	1	-2
376.613	1	-3
376.784	1	-3
376.955	1	6
377.125	1	7
377.296	1	9
377.467	1	-4
377.638	1	-5
377.809	1	-4
377.980	1	3
378.151	1	4
378.321	1	2
378.492	1	-6
378.663	1	3
378.834	1	-3
379.005	1	12
379.176	1	4
379.347	1	0
379.518	1	0
379.688	1	-3
379.859	1	8
380.030	1	4
380.201	1	-2
380.372	1	11
380.543	1	6
380.714	1	3
380.884	1	13
381.055	1	-5
381.226	1	7
381.397	1	6
381.568	1	16
381.739	1	5
381.910	1	6
382.080	1	1
382.251	1	13
382.422	1	7
382.593	1	3
382.764	1	10
382.935	1	3
383.105	1	-1
383.276	1	-1
383.447	1	4
383.618	1	4
383.789	1	3
383.960	1	5
384.130	1	3
384.301	1	8
384.472	1	-9
384.643	1	6
384.814	1	3
384.985	1	14
385.156	1	5
385.326	1	0
385.497	1	-2
385.668	1	8
385.839	1	-8
386.010	1	3
386.180	1	2
386.351	1	1
386.522	1	18
386.693	1	1
386.864	1	-2
387.035	1	9
387.205	1	15
387.376	1	0
387.547	1	8
387.718	1	3
387.889	1	4
388.060	1	3
388.230	1	7
388.401	1	-2
388.572	1	7
388.743	1	3
388.914	1	4
389.084	1	14
389.255	1	5
389.426	1	6
389.597	1	2
389.768	1	5
389.939	1	12
390.109	1	6
390.280	1	-1
390.451	1	7
390.622	1	1
390.793	1	-5
390.963	1	-3
391.134	1	4
391.305	1	3
391.476	1	3
391.647	1	-7
391.817	1	-2
391.988	1	-2
392.159	1	14
392.330	1	-3
392.501	1	1
392.671	1	2
392.842	1	-8
393.013	1	2
393.184	1	7
393.355	1	8
393.525	1	3
393.696	1	5
393.867	1	8
394.038	1	-1
394.208	1	12
394.379	1	7
394.550	1	-7
394.721	1	2
394.892	1	9
395.062	1	-5
395.233	1	4
395.404	1	-1
395.575	1	11
395.746	1	20
395.916	1	12
396.087	1	6
396.258	1	8
396.429	1	-5
396.599	1	3
396.770	1	3
396.941	1	-3
397.112	1	0
397.283	1	1
397.453	1	5
397.624	1	5
397.795	1	2
397.966	1	1
398.136	1	0
398.307	1	4
398.478	1	-3
398.649	1	9
398.819	1	7
398.990	1	-4
399.161	1	-5
399.332	1	6
399.503	1	2
399.673	1	11
399.844	1	-9
400.015	1	2
400.186	1	15
400.356	1	19
400.527	1	0
400.698	1	-2
400.869	1	-3
401.039	1	2
401.210	1	-6
401.381	1	3
401.552	1	-2
401.722	1	1
401.893	1	10
402.064	1	8
402.235	1	6
402.405	1	6
402.576	1	10
402.747	1	-7
402.918	1	2
403.088	1	-5
403.259	1	7
403.430	1	9
403.601	1	5
403.771	1	-1
403.942	1	-3
404.113	1	-5
404.284	1	0
404.454	1	3
404.625	1	9
404.796	1	-7
404.967	1	4
405.137	1	3
405.308	1	13
405.479	1	-6
405.649	1	-1
405.820	1	-7
405.991	1	6
406.162	1	-6
406.332	1	-5
406.503	1	3
406.674	1	14
406.845	1	7
407.015	1	0
407.186	1	5
407.357	1	-6
407.527	1	-4
407.698	1	4
407.869	1	1
408.040	1	-8
408.210	1	12
408.381	1	10
408.552	1	0
408.722	1	0
408.893	1	-5
409.064	1	2
409.235	1	-3
409.405	1	1
409.576	1	6
409.747	1	-7
409.917	1	6
410.088	1	7
410.259	1	-3
410.430	1	0
410.600	1	-4
410.771	1	13
410.942	1	9
411.112	1	0
411.283	1	-10
411.454	1	1
411.625	1	1
411.795	1	-5
411.966	1	3
412.137	1	-3
412.307	1	-1
412.478	1	-2
412.649	1	5
412.819	1	1
412.990	1	-3
413.161	1	-9
413.332	1	-1
413.502	1	2
413.673	1	13
413.844	1	-3
414.014	1	5
414.185	1	2
414.356	1	13
414.526	1	5
414.697	1	3
414.868	1	-8
415.038	1	3
415.209	1	1
415.380	1	-5
415.550	1	-11
415.721	1	6
415.892	1	1
416.063	1	6
416.233	1	-9
416.404	1	-4
416.575	1	1
416.745	1	9
416.916	1	-2
417.087	1	8
417.257	1	-4
417.428	1	-4
417.599	1	-2
417.769	1	6
417.940	1	-3
418.111	1	5
418.281	1	3
418.452	1	1
418.623	1	4
418.793	1	2
418.964	1	-8
419.135	1	2
419.305	1	-2
419.476	1	11
419.647	1	-1
419.817	1	3
419.988	1	4
420.159	1	2
420.329	1	3
420.500	1	-1
420.671	1	8
420.841	1	5
421.012	1	9
421.183	1	-4
421.353	1	4
421.524	1	5
421.695	1	-8
421.865	1	-7
422.036	1	-1
422.206	1	7
422.377	1	-11
422.548	1	-3
422.718	1	3
422.889	1	-3
423.060	1	10
423.230	1	1
423.401	1	0
423.572	1	-10
423.742	1	1
423.913	1	-1
424.084	1	-2
424.254	1	0
424.425	1	-4
424.595	1	3
424.766	1	12
424.937	1	-7
425.107	1	3
425.278	1	7
425.449	1	-10
425.619	1	3
425.790	1	-1
425.961	1	-2
426.131	1	-8
426.302	1	-4
426.472	1	8
426.643	1	-4
426.814	1	-2
426.984	1	-9
427.155	1	8
427.326	1	5
427.496	1	-6
427.667	1	7
427.837	1	1
428.008	1	8
428.179	1	3
428.349	1	3
428.520	1	-5
428.691	1	7
428.861	1	-1
429.032	1	5
429.202	1	-4
429.373	1	6
429.544	1	-11
429.714	1	5
429.885	1	7
430.055	1	6
430.226	1	-5
430.397	1	-3
430.567	1	0
430.738	1	4
430.909	1	-4
431.079	1	-9
431.250	1	4
431.420	1	11
431.591	1	2
431.762	1	11
431.932	1	7
432.103	1	3
432.273	1	-7
432.444	1	5
432.615	1	-4
432.785	1	3
432.956	1	2
433.126	1	1
433.297	1	-3
433.468	1	4
433.638	1	-4
433.809	1	-2
433.979	1	2
434.150	1	12
434.320	1	-6
434.491	1	5
434.662	1	3
434.832	1	-4
435.003	1	0
435.173	1	1
435.344	1	-2
435.515	1	-2
435.685	1	-6
435.856	1	-10
436.026	1	0
436.197	1	-6
436.368	1	8
436.538	1	4
436.709	1	2
436.879	1	9
437.050	1	4
437.220	1	0
437.391	1	-6
437.562	1	0
437.732	1	-9
437.903	1	-2
438.073	1	17
438.244	1	-1
438.414	1	-14
438.585	1	3
438.756	1	-11
438.926	1	2
439.097	1	-4
439.267	1	2
439.438	1	-2
439.608	1	2
439.779	1	5
439.949	1	5
440.120	1	1
440.291	1	6
440.461	1	4
440.632	1	-2
440.802	1	-10
440.973	1	-5
441.143	1	-11
441.314	1	0
441.485	1	3
441.655	1	-3
441.826	1	4
441.996	1	2
442.167	1	-4
442.337	1	11
442.508	1	-6
442.678	1	-4
442.849	1	-3
443.019	1	-1
443.190	1	-7
443.361	1	2
443.531	1	7
443.702	1	-5
443.872	1	9
444.043	1	-8
444.213	1	-7
444.384	1	-6
444.554	1	3
444.725	1	-3
444.895	1	-9
445.066	1	6
445.237	1	-7
445.407	1	-6
445.578	1	-10
445.748	1	-6
445.919	1	-4
446.089	1	10
446.260	1	5
446.430	1	8
446.601	1	0
446.771	1	5
446.942	1	-8
447.112	1	7
447.283	1	-8
447.453	1	2
447.624	1	-4
447.794	1	1
447.965	1	-10
448.135	1	-5
448.306	1	-9
448.477	1	-2
448.647	1	8
448.818	1	-3
448.988	1	-3
449.159	1	4
449.329	1	-4
449.500	1	5
449.670	1	-4
449.841	1	2
450.011	1	-4
450.182	1	-3
450.352	1	-8
450.523	1	1
450.693	1	-1
450.864	1	-2
451.034	1	-8
451.205	1	-3
451.375	1	-1
451.546	1	4
451.716	1	-10
451.887	1	-5
452.057	1	4
452.228	1	8
452.398	1	1
452.569	1	-2
452.739	1	10
452.910	1	-2
453.080	1	1
453.251	1	-3
453.421	1	7
453.592	1	3
453.762	1	1
453.933	1	8
454.103	1	-7
454.274	1	-9
454.444	1	-7
454.615	1	1
454.785	1	-4
454.956	1	0
455.126	1	-1
455.297	1	3
455.467	1	2
455.638	1	1
455.808	1	-3
455.979	1	5
456.149	1	-8
456.320	1	-3
456.490	1	-2
456.661	1	4
456.831	1	-1
457.001	1	1
457.172	1	1
457.342	1	2
457.513	1	-7
457.683	1	13
457.854	1	6
458.024	1	2
458.195	1	-6
458.365	1	-2
458.536	1	5
458.706	1	6
458.877	1	-2
459.047	1	9
459.218	1	-9
459.388	1	2
459.559	1	-9
459.729	1	-6
459.899	1	3
460.070	1	-4
460.240	1	-8
460.411	1	-7
460.581	1	-2
460.752	1	-3
460.922	1	4
461.093	1	-2
461.263	1	5
461.434	1	0
461.604	1	10
461.775	1	-2
461.945	1	1
462.115	1	3
462.286	1	-1
462.456	1	5
462.627	1	-2
462.797	1	-1
462.968	1	-6
463.138	1	-4
463.309	1	-7
463.479	1	7
463.649	1	9
463.820	1	1
463.990	1	2
464.161	1	-3
464.331	1	-3
464.502	1	-1
464.672	1	2
464.843	1	7
465.013	1	-9
465.183	1	1
465.354	1	9
465.524	1	4
465.695	1	-9
465.865	1	1
466.036	1	-7
466.206	1	-1
466.376	1	9
466.547	1	-3
466.717	1	7
466.888	1	1
467.058	1	1
467.229	1	-2
467.399	1	-1
467.569	1	-2
467.740	1	-6
467.910	1	-8
468.081	1	3
468.251	1	4
468.422	1	-2
468.592	1	6
468.762	1	0
468.933	1	2
469.103	1	-8
469.274	1	-2
469.444	1	-1
469.614	1	-8
469.785	1	6
469.955	1	3
470.126	1	4
470.296	1	-5
470.467	1	-3
470.637	1	6
470.807	1	-6
470.978	1	6
471.148	1	3
471.319	1	-3
471.489	1	-2
471.659	1	-7
471.830	1	-4
472.000	1	-2
472.171	1	4
472.341	1	1
472.511	1	6
472.682	1	-5
472.852	1	-11
473.023	1	-8
473.193	1	-3
473.363	1	-4
473.534	1	7
473.704	1	-8
473.875	1	2
474.045	1	-7
474.215	1	12
474.386	1	2
474.556	1	13
474.727	1	3
474.897	1	5
475.067	1	-3
475.238	1	3
475.408	1	2
475.578	1	-4
475.749	1	7
475.919	1	5
476.090	1	7
476.260	1	-2
476.430	1	-1
476.601	1	2
476.771	1	7
476.942	1	9
477.112	1	1
477.282	1	1
477.453	1	-1
477.623	1	-4
477.793	1	1
477.964	1	-1
478.134	1	1
478.305	1	-2
478.475	1	1
478.645	1	-2
478.816	1	-5
478.986	1	0
479.156	1	0
479.327	1	-1
479.497	1	-6
479.667	1	-4
479.838	1	-5
480.008	1	-4
480.179	1	5
480.349	1	1
480.519	1	-3
480.690	1	-13
480.860	1	-5
481.030	1	0
481.201	1	-2
481.371	1	3
481.541	1	0
481.712	1	9
481.882	1	-1
482.053	1	15
482.223	1	3
482.393	1	10
482.564	1	-2
482.734	1	4
482.904	1	7
483.075	1	-8
483.245	1	10
483.415	1	-2
483.586	1	8
483.756	1	-8
483.926	1	-5
484.097	1	8
484.267	1	-2
484.437	1	7
484.608	1	13
484.778	1	5
484.948	1	0
485.119	1	-1
485.289	1	6
485.459	1	11
485.630	1	-6
485.800	1	-3
485.970	1	5
486.141	1	4
486.311	1	-4
486.481	1	-2
486.652	1	2
486.822	1	-4
486.992	1	0
487.163	1	2
487.333	1	-8
487.503	1	-2
487.674	1	10
487.844	1	-3
488.014	1	13
488.185	1	1
488.355	1	7
488.525	1	8
488.696	1	4
488.866	1	1
489.036	1	0
489.207	1	-4
489.377	1	0
489.547	1	3
489.718	1	-1
489.888	1	5
490.058	1	-3
490.228	1	4
490.399	1	3
490.569	1	11
490.739	1	4
490.910	1	2
491.080	1	-2
491.250	1	-1
491.421	1	2
491.591	1	-6
491.761	1	2
491.932	1	9
492.102	1	0
492.272	1	11
492.442	1	5
492.613	1	3
492.783	1	7
492.953	1	-1
493.124	1	10
493.294	1	-4
493.464	1	10
493.635	1	0
493.805	1	2
493.975	1	-5
494.145	1	8
494.316	1	5
494.486	1	3
494.656	1	1
494.827	1	-3
494.997	1	1
495.167	1	-1
495.337	1	17
495.508	1	11
495.678	1	-3
495.848	1	2
496.019	1	1
496.189	1	7
496.359	1	-5
496.529	1	-1
496.700	1	8
496.870	1	5
497.040	1	1
497.211	1	4
497.381	1	9
497.551	1	0
497.721	1	7
497.892	1	13
498.062	1	-9
498.232	1	16
498.403	1	-10
498.573	1	5
498.743	1	-2
498.913	1	1
499.084	1	-4
499.254	1	4
499.424	1	-9
499.594	1	10
499.765	1	7
499.935	1	4
500.105	1	18
500.275	1	15
500.446	1	0
500.616	1	2
500.786	1	9
500.956	1	3
501.127	1	1
501.297	1	-2
501.467	1	3
501.638	1	10
501.808	1	-12
501.978	1	4
502.148	1	10
502.319	1	7
502.489	1	5
502.659	1	14
502.829	1	13
503.000	1	-5
503.170	1	6
503.340	1	-3
503.510	1	1
503.681	1	-8
503.851	1	0
504.021	1	1
504.191	1	0
504.362	1	-3
504.532	1	6
504.702	1	0
504.872	1	5
505.042	1	0
505.213	1	-7
505.383	1	-2
505.553	1	0
505.723	1	9
505.894	1	2
506.064	1	-8
506.234	1	2
506.404	1	1
506.575	1	0
506.745	1	2
506.915	1	8
507.085	1	-1
507.256	1	-5
507.426	1	12
507.596	1	11
507.766	1	5
507.936	1	-1
508.107	1	-3
508.277	1	3
508.447	1	16
508.617	1	6
508.788	1	11
508.958	1	-5
509.128	1	4
509.298	1	2
509.468	1	7
509.639	1	8
509.809	1	5
509.979	1	2
510.149	1	4
510.319	1	4
510.490	1	8
510.660	1	6
510.830	1	1
511.000	1	0
511.171	1	2
511.341	1	12
511.511	1	9
511.681	1	5
511.851	1	11
512.022	1	1
512.192	1	0
512.362	1	16
512.532	1	2
512.702	1	6
512.873	1	4
513.043	1	12
513.213	1	13
513.383	1	2
513.553	1	7
513.724	1	3
513.894	1	1
514.064	1	1
514.234	1	4
514.404	1	5
514.575	1	2
514.745	1	6
514.915	1	-4
515.085	1	2
515.255	1	4
515.425	1	10
515.596	1	2
515.766	1	8
515.936	1	4
516.106	1	6
516.276	1	4
516.447	1	8
516.617	1	8
516.787	1	4
516.957	1	3
517.127	1	14
517.297	1	6
517.468	1	8
517.638	1	5
517.808	1	-5
517.978	1	2
518.148	1	1
518.319	1	6
518.489	1	2
518.659	1	7
518.829	1	1
518.999	1	2
519.169	1	3
519.340	1	8
519.510	1	-9
519.680	1	7
519.850	1	8
520.020	1	8
520.190	1	-5
520.361	1	9
520.531	1	11
520.701	1	-6
520.871	1	13
521.041	1	15
521.211	1	6
521.382	1	16
521.552	1	16
521.722	1	3
521.892	1	5
522.062	1	2
522.232	1	7
522.402	1	-12
522.573	1	14
522.743	1	-6
522.913	1	10
523.083	1	13
523.253	1	7
523.423	1	7
523.593	1	13
523.764	1	4
523.934	1	-4
524.104	1	10
524.274	1	3
524.444	1	9
524.614	1	7
524.784	1	-9
524.955	1	12
525.125	1	3
525.295	1	-6
525.465	1	7
525.635	1	7
525.805	1	0
525.975	1	9
526.146	1	2
526.316	1	-3
526.486	1	12
526.656	1	9
526.826	1	8
526.996	1	5
527.166	1	3
527.337	1	2
527.507	1	11
527.677	1	-1
527.847	1	10
528.017	1	-7
528.187	1	3
528.357	1	-1
528.527	1	8
528.698	1	7
528.868	1	1
529.038	1	11
529.208	1	6
529.378	1	-8
529.548	1	27
529.718	1	-3
529.888	1	4
530.058	1	12
530.229	1	15
530.399	1	4
530.569	1	-1
530.739	1	0
530.909	1	5
531.079	1	14
531.249	1	4
531.419	1	1
531.589	1	6
531.760	1	-10
531.930	1	0
532.100	1	7
532.270	1	11
532.440	1	-1
532.610	1	0
532.780	1	-7
532.950	1	5
533.120	1	14
533.290	1	2
533.461	1	2
533.631	1	-2
533.801	1	12
533.971	1	1
534.141	1	7
534.311	1	15
534.481	1	-1
534.651	1	4
534.821	1	12
534.991	1	7
535.162	1	14
535.332	1	1
535.502	1	15
535.672	1	19
535.842	1	7
536.012	1	0
536.182	1	3
536.352	1	-4
536.522	1	5
536.692	1	5
536.862	1	2
537.032	1	5
537.203	1	11
537.373	1	10
537.543	1	1
537.713	1	2
537.883	1	19
538.053	1	7
538.223	1	12
538.393	1	0
538.563	1	1
538.733	1	5
538.903	1	9
539.073	1	-1
539.243	1	8
539.413	1	-1
539.584	1	12
539.754	1	1
539.924	1	5
540.094	1	2
540.264	1	11
540.434	1	10
540.604	1	3
540.774	1	-3
540.944	1	2
541.114	1	5
541.284	1	6
541.454	1	-5
541.624	1	-3
541.794	1	6
541.964	1	15
542.134	1	-1
542.305	1	15
542.475	1	7
542.645	1	3
542.815	1	5
542.985	1	7
543.155	1	11
543.325	1	0
543.495	1	-1
543.665	1	11
543.835	1	6
544.005	1	-6
544.175	1	12
544.345	1	-5
544.515	1	14
544.685	1	7
544.855	1	10
545.025	1	1
545.195	1	3
545.365	1	-2
545.535	1	9
545.705	1	2
545.875	1	8
546.045	1	15
546.216	1	-1
546.386	1	5
546.556	1	1
546.726	1	5
546.896	1	7
547.066	1	5
547.236	1	4
547.406	1	8
547.576	1	8
547.746	1	10
547.916	1	-2
548.086	1	12
548.256	1	17
548.426	1	6
548.596	1	-4
548.766	1	2
548.936	1	1
549.106	1	-3
549.276	1	5
549.446	1	13
549.616	1	11
549.786	1	3
549.956	1	11
550.126	1	4
550.296	1	16
550.466	1	7
550.636	1	0
550.806	1	-5
550.976	1	-8
551.146	1	1
551.316	1	12
551.486	1	14
551.656	1	5
551.826	1	5
551.996	1	4
552.166	1	11
552.336	1	4
552.506	1	-3
552.676	1	8
552.846	1	4
553.016	1	10
553.186	1	3
553.356	1	5
553.526	1	10
553.696	1	3
553.866	1	0
554.036	1	1
554.206	1	-6
554.376	1	2
554.546	1	2
554.716	1	15
554.886	1	0
555.056	1	8
555.226	1	3
555.396	1	0
555.566	1	8
555.736	1	0
555.906	1	-1
556.076	1	17
556.246	1	2
556.416	1	-2
556.586	1	10
556.756	1	11
556.926	1	15
557.096	1	2
557.266	1	4
557.436	1	1
557.606	1	4
557.776	1	-4
557.946	1	10
558.116	1	5
558.286	1	9
558.456	1	0
558.626	1	7
558.796	1	11
558.966	1	0
559.136	1	11
559.306	1	1
559.476	1	10
559.646	1	0
559.816	1	9
559.986	1	-2
560.155	1	13
560.325	1	4
560.495	1	-5
560.665	1	24
560.835	1	5
561.005	1	6
561.175	1	7
561.345	1	4
561.515	1	-3
561.685	1	9
561.855	1	5
562.025	1	12
562.195	1	2
562.365	1	13
562.535	1	5
562.705	1	3
562.875	1	12
563.045	1	12
563.215	1	-4
563.385	1	2
563.555	1	4
563.725	1	-9
563.895	1	13
564.064	1	2
564.234	1	-6
564.404	1	-7
564.574	1	0
564.744	1	1
564.914	1	8
565.084	1	9
565.254	1	6
565.424	1	7
565.594	1	5
565.764	1	2
565.934	1	8
566.104	1	5
566.274	1	-1
566.444	1	2
566.614	1	9
566.783	1	6
566.953	1	1
567.123	1	4
567.293	1	2
567.463	1	-7
567.633	1	0
567.803	1	2
567.973	1	6
568.143	1	2
568.313	1	-8
568.483	1	10
568.653	1	5
568.823	1	4
568.993	1	7
569.162	1	4
569.332	1	8
569.502	1	-1
569.672	1	-4
569.842	1	6
570.012	1	12
570.182	1	1
570.352	1	-3
570.522	1	-7
570.692	1	-3
570.862	1	8
571.031	1	4
571.201	1	6
571.371	1	2
571.541	1	5
571.711	1	11
571.881	1	-3
572.051	1	0
572.221	1	1
572.391	1	10
572.561	1	-2
572.731	1	6
572.900	1	1
573.070	1	12
573.240	1	10
573.410	1	0
573.580	1	3
573.750	1	4
573.920	1	-4
574.090	1	0
574.260	1	11
574.430	1	1
574.599	1	10
574.769	1	4
574.939	1	4
575.109	1	-5
575.279	1	-4
575.449	1	5
575.619	1	-2
575.789	1	1
575.959	1	-1
576.128	1	7
576.298	1	-3
576.468	1	-4
576.638	1	12
576.808	1	7
576.978	1	-4
577.148	1	-2
577.318	1	3
577.487	1	-3
577.657	1	-2
577.827	1	2
577.997	1	3
578.167	1	1
578.337	1	9
578.507	1	-3
578.677	1	-1
578.846	1	-1
579.016	1	2
579.186	1	0
579.356	1	3
579.526	1	-4
579.696	1	17
579.866	1	-5
580.036	1	-6
580.205	1	8
580.375	1	3
580.545	1	6
580.715	1	0
580.885	1	18
581.055	1	-3
581.225	1	-2
581.394	1	0
581.564	1	5
581.734	1	-6
581.904	1	3
582.074	1	3
582.244	1	6
582.414	1	-4
582.583	1	-10
582.753	1	-1
582.923	1	-2
583.093	1	15
583.263	1	7
583.433	1	-2
583.603	1	8
583.772	1	-5
583.942	1	-2
584.112	1	1
584.282	1	2
584.452	1	-1
584.622	1	-5
584.791	1	-3
584.961	1	8
585.131	1	-6
585.301	1	4
585.471	1	2
585.641	1	3
585.811	1	-1
585.980	1	0
586.150	1	7
586.320	1	-3
586.490	1	8
586.660	1	3
586.830	1	3
586.999	1	-2
587.169	1	-2
587.339	1	-5
587.509	1	7
587.679	1	-2
587.849	1	2
588.018	1	-1
588.188	1	-2
588.358	1	-1
588.528	1	2
588.698	1	4
588.867	1	8
589.037	1	-3
589.207	1	-11
589.377	1	1
589.547	1	14
589.717	1	-9
589.886	1	1
590.056	1	1
590.226	1	8
590.396	1	6
590.566	1	-1
590.735	1	5
590.905	1	2
591.075	1	-1
591.245	1	0
591.415	1	-5
591.585	1	-3
591.754	1	8
591.924	1	10
592.094	1	-3
592.264	1	2
592.434	1	8
592.603	1	-1
592.773	1	-1
592.943	1	1
593.113	1	7
593.283	1	9
593.452	1	-1
593.622	1	1
593.792	1	3
593.962	1	-6
594.132	1	5
594.301	1	12
594.471	1	10
594.641	1	-14
594.811	1	8
594.981	1	14
595.150	1	2
595.320	1	-1
595.490	1	4
595.660	1	10
595.829	1	2
595.999	1	5
596.169	1	-3
596.339	1	1
596.509	1	1
596.678	1	3
596.848	1	10
597.018	1	12
597.188	1	3
597.358	1	-5
597.527	1	-13
597.697	1	4
597.867	1	1
598.037	1	9
598.206	1	-2
598.376	1	4
598.546	1	-4
598.716	1	6
598.885	1	2
599.055	1	6
599.225	1	-3
599.395	1	6
599.565	1	-8
599.734	1	4
599.904	1	1
600.074	1	-1
600.244	1	1
600.413	1	-2
600.583	1	5
600.753	1	-2
600.923	1	4
601.092	1	-3
601.262	1	-1
601.432	1	8
601.602	1	5
601.771	1	3
601.941	1	4
602.111	1	7
602.281	1	3
602.451	1	-4
602.620	1	-7
602.790	1	3
602.960	1	3
603.130	1	-2
603.299	1	6
603.469	1	0
603.639	1	0
603.809	1	-5
603.978	1	1
604.148	1	-1
604.318	1	-3
604.487	1	5
604.657	1	4
604.827	1	3
604.997	1	-1
605.166	1	-4
605.336	1	6
605.506	1	9
605.676	1	19
605.845	1	-7
606.015	1	5
606.185	1	-12
606.355	1	3
606.524	1	4
606.694	1	1
606.864	1	-2
607.034	1	-1
607.203	1	0
607.373	1	5
607.543	1	6
607.712	1	5
607.882	1	1
608.052	1	3
608.222	1	0
608.391	1	-3
608.561	1	0
608.731	1	-7
608.901	1	7
609.070	1	1
609.240	1	2
609.410	1	-1
609.579	1	2
609.749	1	6
609.919	1	7
610.089	1	0
610.258	1	8
610.428	1	-2
610.598	1	-3
610.767	1	2
610.937	1	-2
611.107	1	3
611.277	1	4
611.446	1	3
611.616	1	8
611.786	1	6
611.955	1	-11
612.125	1	-1
612.295	1	-6
612.465	1	15
612.634	1	-3
612.804	1	0
612.974	1	15
613.143	1	0
613.313	1	-5
613.483	1	-19
613.652	1	-5
613.822	1	2
613.992	1	5
614.162	1	-5
614.331	1	11
614.501	1	-6
614.671	1	0
614.840	1	13
615.010	1	-6
615.180	1	17
615.349	1	9
615.519	1	-2
615.689	1	-5
615.858	1	-3
616.028	1	2
616.198	1	7
616.368	1	-7
616.537	1	-3
616.707	1	-3
616.877	1	4
617.046	1	1
617.216	1	1
617.386	1	3
617.555	1	3
617.725	1	-1
617.895	1	7
618.064	1	-8
618.234	1	5
618.404	1	3
618.573	1	3
618.743	1	9
618.913	1	3
619.082	1	0
619.252	1	-6
619.422	1	4
619.591	1	-7
619.761	1	-3
619.931	1	9
620.100	1	3
620.270	1	7
620.440	1	1
620.609	1	0
620.779	1	-14
620.949	1	7
621.118	1	-9
621.288	1	7
621.458	1	11
621.627	1	6
621.797	1	9
621.967	1	0
622.136	1	0
622.306	1	-3
622.476	1	5
622.645	1	12
622.815	1	-3
622.985	1	6
623.154	1	-1
623.324	1	-7
623.494	1	6
623.663	1	8
623.833	1	-9
624.002	1	7
624.172	1	-6
624.342	1	7
624.511	1	-1
624.681	1	-8
624.851	1	-6
625.020	1	4
625.190	1	-3
625.360	1	3
625.529	1	5
625.699	1	9
625.869	1	9
626.038	1	-10
626.208	1	-1
626.377	1	-6
626.547	1	8
626.717	1	8
626.886	1	12
627.056	1	6
627.226	1	-6
627.395	1	-3
627.565	1	-17
627.735	1	6
627.904	1	-4
628.074	1	-5
628.243	1	-6
628.413	1	2
628.583	1	1
628.752	1	1
628.922	1	3
629.091	1	-5
629.261	1	3
629.431	1	-1
629.600	1	-6
629.770	1	4
629.940	1	14
630.109	1	2
630.279	1	-11
630.448	1	12
630.618	1	5
630.788	1	-5
630.957	1	1
631.127	1	-6
631.297	1	-11
631.466	1	-7
631.636	1	-8
631.805	1	-2
631.975	1	-5
632.145	1	-9
632.314	1	-7
632.484	1	-6
632.653	1	-6
632.823	1	-9
632.993	1	3
633.162	1	4
633.332	1	7
633.501	1	3
633.671	1	2
633.841	1	8
634.010	1	4
634.180	1	-2
634.349	1	-4
634.519	1	4
634.689	1	5
634.858	1	0
635.028	1	2
635.197	1	9
635.367	1	2
635.537	1	6
635.706	1	9
635.876	1	4
636.045	1	-10
636.215	1	12
636.384	1	0
636.554	1	-11
636.724	1	0
636.893	1	-10
637.063	1	11
637.232	1	-5
637.402	1	-5
637.572	1	2
637.741	1	-1
637.911	1	9
638.080	1	5
638.250	1	8
638.419	1	-1
638.589	1	-14
638.759	1	-1
638.928	1	12
639.098	1	1
639.267	1	-6
639.437	1	-2
639.606	1	1
639.776	1	8
639.946	1	-3
640.115	1	-3
640.285	1	-5
640.454	1	6
640.624	1	2
640.793	1	4
640.963	1	9
641.132	1	-6
641.302	1	9
641.472	1	3
641.641	1	3
641.811	1	1
641.980	1	1
642.150	1	-4
642.319	1	-6
642.489	1	-7
642.659	1	1
642.828	1	-7
642.998	1	3
643.167	1	8
643.337	1	2
643.506	1	-10
643.676	1	-8
643.845	1	-7
644.015	1	-3
644.184	1	2
644.354	1	-1
644.524	1	13
644.693	1	-2
644.863	1	7
645.032	1	10
645.202	1	1
645.371	1	5
645.541	1	-10
645.710	1	10
645.880	1	-7
646.049	1	1
646.219	1	0
646.388	1	5
646.558	1	0
646.728	1	11
646.897	1	-5
647.067	1	6
647.236	1	4
647.406	1	1
647.575	1	5
647.745	1	2
647.914	1	-6
648.084	1	3
648.253	1	-14
648.423	1	5
648.592	1	-2
648.762	1	-5
648.931	1	-11
649.101	1	6
649.270	1	-1
649.440	1	-1
649.610	1	8
649.779	1	11
649.949	1	1
650.118	1	2
650.288	1	6
650.457	1	-2
650.627	1	3
650.796	1	5
650.966	1	7
651.135	1	-3
651.305	1	10
651.474	1	3
651.644	1	8
651.813	1	-5
651.983	1	9
652.152	1	-9
652.322	1	-4
652.491	1	-1
652.661	1	2
652.830	1	10
653.000	1	2
653.169	1	2
653.339	1	2
653.508	1	7
653.678	1	0
653.847	1	-9
654.017	1	8
654.186	1	4
654.356	1	-5
654.525	1	-9
654.695	1	4
654.864	1	9
655.034	1	9
655.203	1	1
655.373	1	2
655.542	1	-10
655.712	1	9
655.881	1	7
656.051	1	1
656.220	1	-1
656.390	1	5
656.559	1	4
656.729	1	-6
656.898	1	-8
657.068	1	10
657.237	1	5
657.406	1	1
657.576	1	1
657.745	1	0
657.915	1	2
658.084	1	1
658.254	1	10
658.423	1	11
658.593	1	-5
658.762	1	0
658.932	1	-6
659.101	1	-2
659.271	1	7
659.440	1	6
659.610	1	3
659.779	1	1
659.949	1	-4
660.118	1	1
660.288	1	8
660.457	1	8
660.626	1	-1
660.796	1	0
660.965	1	-7
661.135	1	-10
661.304	1	7
661.474	1	0
661.643	1	5
661.813	1	-5
661.982	1	9
662.152	1	0
662.321	1	6
662.491	1	-4
662.660	1	3
662.829	1	-8
662.999	1	-3
663.168	1	-5
663.338	1	-1
663.507	1	1
663.677	1	10
663.846	1	13
664.016	1	-5
664.185	1	1
664.354	1	-2
664.524	1	7
664.693	1	7
664.863	1	-6
665.032	1	10
665.202	1	-3
665.371	1	-4
665.541	1	-8
665.710	1	-3
665.879	1	-3
666.049	1	-5
666.218	1	2
666.388	1	-5
666.557	1	5
666.727	1	5
666.896	1	7
667.065	1	4
667.235	1	-3
667.404	1	1
667.574	1	9
667.743	1	2
667.913	1	5
668.082	1	24
668.251	1	-5
668.421	1	0
668.590	1	-5
668.760	1	7
668.929	1	-2
669.099	1	-2
669.268	1	16
669.437	1	-10
669.607	1	5
669.776	1	4
669.946	1	15
670.115	1	1
670.285	1	1
670.454	1	1
670.623	1	4
670.793	1	-7
670.962	1	3
671.132	1	0
671.301	1	-2
671.470	1	-4
671.640	1	-5
671.809	1	6
671.979	1	-2
672.148	1	-5
672.317	1	-4
672.487	1	2
672.656	1	9
672.826	1	0
672.995	1	-4
673.164	1	-3
673.334	1	4
673.503	1	-1
673.673	1	9
673.842	1	-11
674.011	1	-2
674.181	1	1
674.350	1	2
674.520	1	3
674.689	1	2
674.858	1	-2
675.028	1	-2
675.197	1	8
675.367	1	-7
675.536	1	-4
675.705	1	10
675.875	1	8
676.044	1	-1
676.214	1	-6
676.383	1	-6
676.552	1	-9
676.722	1	10
676.891	1	8
677.060	1	10
677.230	1	0
677.399	1	5
677.569	1	8
677.738	1	6
677.907	1	-11
678.077	1	-3
678.246	1	-6
678.416	1	3
678.585	1	4
678.754	1	-5
678.924	1	-11
679.093	1	-2
679.262	1	-9
679.432	1	0
679.601	1	-9
679.771	1	15
679.940	1	4
680.109	1	3
680.279	1	8
680.448	1	-1
680.617	1	-4
680.787	1	-2
680.956	1	-10
681.125	1	-4
681.295	1	-4
681.464	1	-5
681.634	1	13
681.803	1	8
681.972	1	-1
682.142	1	-9
682.311	1	-8
682.480	1	11
682.650	1	2
682.819	1	-4
682.988	1	-2
683.158	1	-2
683.327	1	3
683.496	1	-3
683.666	1	1
683.835	1	-1
684.004	1	2
684.174	1	-6
684.343	1	1
684.512	1	-2
684.682	1	5
684.851	1	6
685.021	1	9
685.190	1	-9
685.359	1	-1
685.529	1	-2
685.698	1	-5
685.867	1	-3
686.037	1	-2
686.206	1	5
686.375	1	5
686.545	1	4
686.714	1	-1
686.883	1	9
687.053	1	6
687.222	1	2
687.391	1	-2
687.561	1	1
687.730	1	2
687.899	1	1
688.069	1	5
688.238	1	-1
688.407	1	-2
688.577	1	6
688.746	1	-7
