340.368	1	4
340.539	1	-4
340.710	1	6
340.881	1	-5
341.052	1	2
341.223	1	-2
341.394	1	0
341.565	1	2
341.737	1	5
341.908	1	-9
342.079	1	0
342.250	1	7
342.421	1	7
342.592	1	4
342.763	1	4
342.934	1	9
343.105	1	4
343.276	1	-2
343.447	1	1
343.618	1	-11
343.789	1	7
343.960	1	1
344.131	1	2
344.302	1	7
344.473	1	-9
344.644	1	-11
344.815	1	8
344.986	1	5
345.157	1	-6
345.328	1	12
345.499	1	6
345.670	1	1
345.841	1	-5
346.012	1	5
346.183	1	1
346.354	1	10
346.526	1	-3
346.697	1	9
346.868	1	0
347.039	1	6
347.210	1	-5
347.381	1	3
347.552	1	18
347.723	1	-6
347.894	1	-5
348.065	1	-10
348.236	1	6
348.407	1	-8
348.578	1	6
348.749	1	-1
348.920	1	5
349.091	1	6
349.262	1	7
349.433	1	-4
349.604	1	4
349.775	1	4
349.946	1	2
350.117	1	2
350.288	1	-3
350.459	1	11
350.630	1	9
350.801	1	-3
350.972	1	15
351.143	1	6
351.314	1	8
351.485	1	-8
351.656	1	4
351.827	1	3
351.998	1	2
352.169	1	-2
352.340	1	9
352.511	1	1
352.682	1	7
352.853	1	3
353.024	1	6
353.195	1	5
353.366	1	2
353.537	1	4
353.708	1	7
353.879	1	5
354.050	1	10
354.221	1	2
354.392	1	7
354.563	1	-5
354.734	1	6
354.905	1	13
355.076	1	5
355.247	1	2
355.418	1	6
355.589	1	2
355.760	1	6
355.931	1	8
356.102	1	5
356.273	1	9
356.444	1	0
356.615	1	-3
356.785	1	-1
356.956	1	8
357.127	1	8
357.298	1	19
357.469	1	3
357.640	1	11
357.811	1	-2
357.982	1	4
358.153	1	3
358.324	1	2
358.495	1	10
358.666	1	-3
358.837	1	14
359.008	1	11
359.179	1	17
359.350	1	6
359.521	1	5
359.692	1	-7
359.863	1	12
360.034	1	10
360.205	1	9
360.376	1	18
360.547	1	20
360.718	1	14
360.889	1	-2
361.060	1	14
361.231	1	17
361.401	1	10
361.572	1	19
361.743	1	15
361.914	1	4
362.085	1	18
362.256	1	14
362.427	1	17
362.598	1	12
362.769	1	21
362.940	1	15
363.111	1	18
363.282	1	12
363.453	1	26
363.624	1	19
363.795	1	18
363.966	1	18
364.137	1	13
364.308	1	25
364.478	1	20
364.649	1	15
364.820	1	26
364.991	1	19
365.162	1	12
365.333	1	29
365.504	1	21
365.675	1	21
365.846	1	34
366.017	1	38
366.188	1	41
366.359	1	19
366.530	1	30
366.701	1	26
366.871	1	29
367.042	1	32
367.213	1	37
367.384	1	43
367.555	1	36
367.726	1	42
367.897	1	29
368.068	1	37
368.239	1	20
368.410	1	48
368.581	1	39
368.752	1	41
368.923	1	46
369.093	1	36
369.264	1	36
369.435	1	39
369.606	1	37
369.777	1	41
369.948	1	38
370.119	1	32
370.290	1	43
370.461	1	34
370.632	1	46
370.803	1	30
370.973	1	37
371.144	1	19
371.315	1	41
371.486	1	29
371.657	1	36
371.828	1	21
371.999	1	38
372.170	1	29
372.341	1	29
372.512	1	29
372.682	1	16
372.853	1	27
373.024	1	31
373.195	1	16
373.366	1	28
373.537	1	29
373.708	1	17
373.879	1	26
374.050	1	26
374.220	1	12
374.391	1	35
374.562	1	21
374.733	1	16
374.904	1	14
375.075	1	14
375.246	1	19
375.417	1	21
375.588	1	9
375.758	1	10
375.929	1	14
376.100	1	17
376.271	1	12
376.442	1	12
376.613	1	22
376.784	1	3
376.955	1	4
377.125	1	17
377.296	1	23
377.467	1	14
377.638	1	15
377.809	1	7
377.980	1	25
378.151	1	9
378.321	1	11
378.492	1	12
378.663	1	19
378.834	1	13
379.005	1	31
379.176	1	5
379.347	1	9
379.518	1	4
379.688	1	1
379.859	1	23
380.030	1	5
380.201	1	9
380.372	1	17
380.543	1	13
380.714	1	10
380.884	1	17
381.055	1	13
381.226	1	13
381.397	1	10
381.568	1	15
381.739	1	12
381.910	1	16
382.080	1	14
382.251	1	11
382.422	1	12
382.593	1	18
382.764	1	4
382.935	1	11
383.105	1	4
383.276	1	2
383.447	1	19
383.618	1	14
383.789	1	15
383.960	1	9
384.130	1	18
384.301	1	10
384.472	1	-2
384.643	1	12
384.814	1	18
384.985	1	28
385.156	1	12
385.326	1	12
385.497	1	6
385.668	1	6
385.839	1	2
386.010	1	13
386.180	1	13
386.351	1	7
386.522	1	19
386.693	1	5
386.864	1	11
387.035	1	12
387.205	1	26
387.376	1	2
387.547	1	13
387.718	1	13
387.889	1	11
388.060	1	16
388.230	1	17
388.401	1	2
388.572	1	7
388.743	1	6
388.914	1	10
389.084	1	17
389.255	1	10
389.426	1	7
389.597	1	-2
389.768	1	14
389.939	1	2
390.109	1	11
390.280	1	13
390.451	1	16
390.622	1	15
390.793	1	10
390.963	1	15
391.134	1	4
391.305	1	3
391.476	1	17
391.647	1	5
391.817	1	2
391.988	1	18
392.159	1	9
392.330	1	6
392.501	1	12
392.671	1	9
392.842	1	14
393.013	1	3
393.184	1	9
393.355	1	4
393.525	1	20
393.696	1	3
393.867	1	10
394.038	1	10
394.208	1	23
394.379	1	6
394.550	1	5
394.721	1	11
394.892	1	3
395.062	1	7
395.233	1	11
395.404	1	9
395.575	1	21
395.746	1	22
395.916	1	18
396.087	1	6
396.258	1	18
396.429	1	-1
396.599	1	10
396.770	1	5
396.941	1	1
397.112	1	14
397.283	1	8
397.453	1	7
397.624	1	8
397.795	1	13
397.966	1	9
398.136	1	7
398.307	1	5
398.478	1	4
398.649	1	22
398.819	1	10
398.990	1	2
399.161	1	8
399.332	1	6
399.503	1	13
399.673	1	3
399.844	1	2
400.015	1	9
400.186	1	4
400.356	1	16
400.527	1	12
400.698	1	10
400.869	1	2
401.039	1	7
401.210	1	3
401.381	1	14
401.552	1	-1
401.722	1	5
401.893	1	7
402.064	1	-3
402.235	1	13
402.405	1	9
402.576	1	11
402.747	1	13
402.918	1	7
403.088	1	-5
403.259	1	14
403.430	1	9
403.601	1	11
403.771	1	6
403.942	1	0
404.113	1	9
404.284	1	15
404.454	1	2
404.625	1	11
404.796	1	5
404.967	1	7
405.137	1	6
405.308	1	14
405.479	1	-5
405.649	1	5
405.820	1	5
405.991	1	15
406.162	1	-3
406.332	1	4
406.503	1	11
406.674	1	18
406.845	1	11
407.015	1	5
407.186	1	10
407.357	1	4
407.527	1	4
407.698	1	5
407.869	1	3
408.040	1	4
408.210	1	5
408.381	1	10
408.552	1	2
408.722	1	9
408.893	1	1
409.064	1	8
409.235	1	4
409.405	1	8
409.576	1	12
409.747	1	3
409.917	1	6
410.088	1	10
410.259	1	5
410.430	1	3
410.600	1	6
410.771	1	14
410.942	1	13
411.112	1	12
411.283	1	-9
411.454	1	-1
411.625	1	3
411.795	1	11
411.966	1	16
412.137	1	11
412.307	1	5
412.478	1	7
412.649	1	14
412.819	1	6
412.990	1	7
413.161	1	5
413.332	1	3
413.502	1	0
413.673	1	8
413.844	1	8
414.014	1	17
414.185	1	6
414.356	1	10
414.526	1	-4
414.697	1	0
414.868	1	-5
415.038	1	12
415.209	1	2
415.380	1	-7
415.550	1	-4
415.721	1	7
415.892	1	7
416.063	1	6
416.233	1	-4
416.404	1	0
416.575	1	6
416.745	1	6
416.916	1	2
417.087	1	6
417.257	1	-4
417.428	1	9
417.599	1	6
417.769	1	3
417.940	1	3
418.111	1	10
418.281	1	13
418.452	1	2
418.623	1	5
418.793	1	14
418.964	1	4
419.135	1	10
419.305	1	5
419.476	1	14
419.647	1	-2
419.817	1	-2
419.988	1	6
420.159	1	-8
420.329	1	5
420.500	1	4
420.671	1	5
420.841	1	-6
421.012	1	11
421.183	1	0
421.353	1	12
421.524	1	10
421.695	1	-3
421.865	1	-9
422.036	1	-3
422.206	1	3
422.377	1	5
422.548	1	5
422.718	1	9
422.889	1	3
423.060	1	18
423.230	1	0
423.401	1	-1
423.572	1	-3
423.742	1	4
423.913	1	0
424.084	1	-4
424.254	1	6
424.425	1	3
424.595	1	2
424.766	1	11
424.937	1	-1
425.107	1	7
425.278	1	8
425.449	1	-1
425.619	1	2
425.790	1	5
425.961	1	0
426.131	1	-2
426.302	1	5
426.472	1	11
426.643	1	-6
426.814	1	-12
426.984	1	1
427.155	1	17
427.326	1	4
427.496	1	3
427.667	1	5
427.837	1	10
428.008	1	-1
428.179	1	5
428.349	1	11
428.520	1	9
428.691	1	15
428.861	1	-9
429.032	1	11
429.202	1	-2
429.373	1	13
429.544	1	-3
429.714	1	17
429.885	1	0
430.055	1	6
430.226	1	3
430.397	1	5
430.567	1	-1
430.738	1	13
430.909	1	-1
431.079	1	2
431.250	1	8
431.420	1	13
431.591	1	13
431.762	1	7
431.932	1	5
432.103	1	-2
432.273	1	-4
432.444	1	3
432.615	1	3
432.785	1	-3
432.956	1	0
433.126	1	2
433.297	1	13
433.468	1	-5
433.638	1	-3
433.809	1	2
433.979	1	-2
434.150	1	9
434.320	1	-1
434.491	1	10
434.662	1	-2
434.832	1	9
435.003	1	5
435.173	1	6
435.344	1	0
435.515	1	3
435.685	1	-1
435.856	1	4
436.026	1	-5
436.197	1	-5
436.368	1	6
436.538	1	3
436.709	1	7
436.879	1	6
437.050	1	7
437.220	1	6
437.391	1	3
437.562	1	-1
437.732	1	-5
437.903	1	-1
438.073	1	6
438.244	1	0
438.414	1	-5
438.585	1	1
438.756	1	-4
438.926	1	15
439.097	1	8
439.267	1	10
439.438	1	-8
439.608	1	-5
439.779	1	8
439.949	1	6
440.120	1	5
440.291	1	0
440.461	1	-2
440.632	1	-3
440.802	1	-6
440.973	1	8
441.143	1	4
441.314	1	-1
441.485	1	-4
441.655	1	2
441.826	1	8
441.996	1	12
442.167	1	5
442.337	1	2
442.508	1	11
442.678	1	5
442.849	1	1
443.019	1	1
443.190	1	-3
443.361	1	6
443.531	1	8
443.702	1	1
443.872	1	18
444.043	1	-3
444.213	1	-4
444.384	1	-8
444.554	1	-1
444.725	1	0
444.895	1	-9
445.066	1	3
445.237	1	-5
445.407	1	2
445.578	1	-3
445.748	1	0
445.919	1	10
446.089	1	14
446.260	1	6
446.430	1	7
446.601	1	-2
446.771	1	8
446.942	1	-2
447.112	1	1
447.283	1	-2
447.453	1	10
447.624	1	-2
447.794	1	8
447.965	1	-4
448.135	1	-1
448.306	1	-4
448.477	1	3
448.647	1	5
448.818	1	2
448.988	1	5
449.159	1	2
449.329	1	0
449.500	1	6
449.670	1	10
449.841	1	0
450.011	1	-3
450.182	1	-4
450.352	1	1
450.523	1	1
450.693	1	13
450.864	1	4
451.034	1	0
451.205	1	2
451.375	1	5
451.546	1	12
451.716	1	0
451.887	1	-7
452.057	1	-1
452.228	1	6
452.398	1	1
452.569	1	2
452.739	1	12
452.910	1	-7
453.080	1	0
453.251	1	2
453.421	1	10
453.592	1	-1
453.762	1	3
453.933	1	13
454.103	1	-2
454.274	1	-11
454.444	1	-1
454.615	1	0
454.785	1	-6
454.956	1	3
455.126	1	-6
455.297	1	-1
455.467	1	-1
455.638	1	8
455.808	1	9
455.979	1	5
456.149	1	1
456.320	1	-1
456.490	1	2
456.661	1	-1
456.831	1	2
457.001	1	-7
457.172	1	14
457.342	1	1
457.513	1	-4
457.683	1	12
457.854	1	6
458.024	1	3
458.195	1	-7
458.365	1	1
458.536	1	3
458.706	1	11
458.877	1	8
459.047	1	8
459.218	1	-6
459.388	1	9
459.559	1	-1
459.729	1	2
459.899	1	6
460.070	1	-2
460.240	1	-4
460.411	1	-11
460.581	1	3
460.752	1	-2
460.922	1	-9
461.093	1	-3
461.263	1	12
461.434	1	10
461.604	1	4
461.775	1	0
461.945	1	10
462.115	1	6
462.286	1	5
462.456	1	3
462.627	1	1
462.797	1	-3
462.968	1	-3
463.138	1	1
463.309	1	0
463.479	1	8
463.649	1	3
463.820	1	-1
463.990	1	-5
464.161	1	-3
464.331	1	-2
464.502	1	-3
464.672	1	-8
464.843	1	-6
465.013	1	-15
465.183	1	4
465.354	1	11
465.524	1	2
465.695	1	6
465.865	1	7
466.036	1	5
466.206	1	0
466.376	1	-1
466.547	1	-1
466.717	1	9
466.888	1	-3
467.058	1	-7
467.229	1	2
467.399	1	4
467.569	1	8
467.740	1	2
467.910	1	5
468.081	1	10
468.251	1	7
468.422	1	-1
468.592	1	-2
468.762	1	-1
468.933	1	9
469.103	1	3
469.274	1	2
469.444	1	3
469.614	1	0
469.785	1	17
469.955	1	2
470.126	1	6
470.296	1	-3
470.467	1	-5
470.637	1	4
470.807	1	-2
470.978	1	0
471.148	1	11
471.319	1	5
471.489	1	2
471.659	1	-11
471.830	1	-7
472.000	1	1
472.171	1	16
472.341	1	8
472.511	1	11
472.682	1	-2
472.852	1	-3
473.023	1	1
473.193	1	8
473.363	1	0
473.534	1	2
473.704	1	-6
473.875	1	3
474.045	1	2
474.215	1	8
474.386	1	14
474.556	1	8
474.727	1	6
474.897	1	1
475.067	1	2
475.238	1	-4
475.408	1	1
475.578	1	-5
475.749	1	13
475.919	1	15
476.090	1	18
476.260	1	2
476.430	1	3
476.601	1	6
476.771	1	7
476.942	1	0
477.112	1	-4
477.282	1	2
477.453	1	-2
477.623	1	3
477.793	1	7
477.964	1	-1
478.134	1	-4
478.305	1	-1
478.475	1	5
478.645	1	7
478.816	1	2
478.986	1	7
479.156	1	-3
479.327	1	5
479.497	1	8
479.667	1	10
479.838	1	4
480.008	1	8
480.179	1	9
480.349	1	7
480.519	1	-13
480.690	1	4
480.860	1	3
481.030	1	11
481.201	1	14
481.371	1	2
481.541	1	-7
481.712	1	4
481.882	1	1
482.053	1	15
482.223	1	10
482.393	1	1
482.564	1	-3
482.734	1	7
482.904	1	9
483.075	1	2
483.245	1	2
483.415	1	-1
483.586	1	12
483.756	1	0
483.926	1	5
484.097	1	2
484.267	1	5
484.437	1	4
484.608	1	16
484.778	1	16
484.948	1	-6
485.119	1	2
485.289	1	3
485.459	1	11
485.630	1	1
485.800	1	7
485.970	1	7
486.141	1	7
486.311	1	5
486.481	1	8
486.652	1	10
486.822	1	11
486.992	1	10
487.163	1	3
487.333	1	-4
487.503	1	1
487.674	1	-3
487.844	1	7
488.014	1	11
488.185	1	0
488.355	1	5
488.525	1	16
488.696	1	6
488.866	1	3
489.036	1	4
489.207	1	-2
489.377	1	5
489.547	1	13
489.718	1	13
489.888	1	3
490.058	1	-9
490.228	1	8
490.399	1	3
490.569	1	11
490.739	1	1
490.910	1	3
491.080	1	5
491.250	1	-2
491.421	1	-2
491.591	1	-5
491.761	1	1
491.932	1	13
492.102	1	4
492.272	1	13
492.442	1	6
492.613	1	-3
492.783	1	0
492.953	1	13
493.124	1	12
493.294	1	4
493.464	1	18
493.635	1	10
493.805	1	5
493.975	1	-10
494.145	1	-5
494.316	1	11
494.486	1	7
494.656	1	5
494.827	1	-6
494.997	1	11
495.167	1	-3
495.337	1	22
495.508	1	8
495.678	1	10
495.848	1	12
496.019	1	10
496.189	1	15
496.359	1	8
496.529	1	2
496.700	1	11
496.870	1	8
497.040	1	10
497.211	1	10
497.381	1	-4
497.551	1	7
497.721	1	12
497.892	1	20
498.062	1	7
498.232	1	13
498.403	1	2
498.573	1	13
498.743	1	8
498.913	1	7
499.084	1	3
499.254	1	6
499.424	1	5
499.594	1	7
499.765	1	12
499.935	1	10
500.105	1	18
500.275	1	27
500.446	1	17
500.616	1	6
500.786	1	5
500.956	1	7
501.127	1	11
501.297	1	0
501.467	1	3
501.638	1	16
501.808	1	1
501.978	1	21
502.148	1	14
502.319	1	2
502.489	1	13
502.659	1	16
502.829	1	20
503.000	1	10
503.170	1	12
503.340	1	10
503.510	1	11
503.681	1	9
503.851	1	13
504.021	1	8
504.191	1	5
504.362	1	0
504.532	1	16
504.702	1	18
504.872	1	10
505.042	1	11
505.213	1	5
505.383	1	12
505.553	1	14
505.723	1	19
505.894	1	7
506.064	1	-2
506.234	1	13
506.404	1	5
506.575	1	2
506.745	1	15
506.915	1	17
507.085	1	22
507.256	1	8
507.426	1	10
507.596	1	17
507.766	1	12
507.936	1	16
508.107	1	17
508.277	1	10
508.447	1	15
508.617	1	15
508.788	1	13
508.958	1	9
509.128	1	10
509.298	1	7
509.468	1	18
509.639	1	18
509.809	1	11
509.979	1	11
510.149	1	18
510.319	1	12
510.490	1	18
510.660	1	18
510.830	1	11
511.000	1	13
511.171	1	17
511.341	1	21
511.511	1	12
511.681	1	18
511.851	1	28
512.022	1	13
512.192	1	10
512.362	1	19
512.532	1	16
512.702	1	15
512.873	1	9
513.043	1	15
513.213	1	23
513.383	1	11
513.553	1	19
513.724	1	17
513.894	1	18
514.064	1	11
514.234	1	7
514.404	1	23
514.575	1	7
514.745	1	17
514.915	1	7
515.085	1	16
515.255	1	20
515.425	1	14
515.596	1	15
515.766	1	17
515.936	1	13
516.106	1	12
516.276	1	15
516.447	1	12
516.617	1	10
516.787	1	16
516.957	1	18
517.127	1	16
517.297	1	21
517.468	1	18
517.638	1	13
517.808	1	16
517.978	1	14
518.148	1	19
518.319	1	16
518.489	1	17
518.659	1	8
518.829	1	13
518.999	1	15
519.169	1	16
519.340	1	19
519.510	1	12
519.680	1	19
519.850	1	20
520.020	1	24
520.190	1	16
520.361	1	14
520.531	1	23
520.701	1	11
520.871	1	23
521.041	1	21
521.211	1	15
521.382	1	25
521.552	1	20
521.722	1	21
521.892	1	10
522.062	1	21
522.232	1	12
522.402	1	8
522.573	1	16
522.743	1	12
522.913	1	12
523.083	1	22
523.253	1	12
523.423	1	15
523.593	1	12
523.764	1	20
523.934	1	14
524.104	1	14
524.274	1	11
524.444	1	28
524.614	1	24
524.784	1	8
524.955	1	18
525.125	1	18
525.295	1	4
525.465	1	22
525.635	1	21
525.805	1	15
525.975	1	15
526.146	1	23
526.316	1	14
526.486	1	22
526.656	1	15
526.826	1	18
526.996	1	13
527.166	1	21
527.337	1	10
527.507	1	20
527.677	1	21
527.847	1	14
528.017	1	4
528.187	1	2
528.357	1	24
528.527	1	23
528.698	1	17
528.868	1	16
529.038	1	36
529.208	1	15
529.378	1	10
529.548	1	28
529.718	1	7
529.888	1	11
530.058	1	15
530.229	1	28
530.399	1	22
530.569	1	14
530.739	1	10
530.909	1	9
531.079	1	19
531.249	1	15
531.419	1	15
531.589	1	20
531.760	1	7
531.930	1	26
532.100	1	23
532.270	1	18
532.440	1	6
532.610	1	2
532.780	1	3
532.950	1	20
533.120	1	19
533.290	1	8
533.461	1	16
533.631	1	15
533.801	1	24
533.971	1	14
534.141	1	19
534.311	1	19
534.481	1	4
534.651	1	11
534.821	1	23
534.991	1	13
535.162	1	22
535.332	1	14
535.502	1	33
535.672	1	26
535.842	1	28
536.012	1	9
536.182	1	28
536.352	1	13
536.522	1	12
536.692	1	24
536.862	1	18
537.032	1	15
537.203	1	22
537.373	1	10
537.543	1	21
537.713	1	11
537.883	1	27
538.053	1	11
538.223	1	19
538.393	1	23
538.563	1	23
538.733	1	12
538.903	1	14
539.073	1	13
539.243	1	27
539.413	1	10
539.584	1	12
539.754	1	5
539.924	1	19
540.094	1	20
540.264	1	22
540.434	1	15
540.604	1	4
540.774	1	9
540.944	1	17
541.114	1	15
541.284	1	14
541.454	1	11
541.624	1	7
541.794	1	8
541.964	1	19
542.134	1	19
542.305	1	25
542.475	1	16
542.645	1	10
542.815	1	25
542.985	1	21
543.155	1	20
543.325	1	12
543.495	1	8
543.665	1	19
543.835	1	20
544.005	1	15
544.175	1	5
544.345	1	15
544.515	1	23
544.685	1	22
544.855	1	16
545.025	1	7
545.195	1	7
545.365	1	11
545.535	1	27
545.705	1	5
545.875	1	8
546.045	1	26
546.216	1	1
546.386	1	21
546.556	1	8
546.726	1	13
546.896	1	15
547.066	1	14
547.236	1	13
547.406	1	14
547.576	1	11
547.746	1	13
547.916	1	23
548.086	1	15
548.256	1	15
548.426	1	25
548.596	1	2
548.766	1	26
548.936	1	10
549.106	1	24
549.276	1	12
549.446	1	22
549.616	1	16
549.786	1	16
549.956	1	17
550.126	1	12
550.296	1	18
550.466	1	5
550.636	1	16
550.806	1	13
550.976	1	-2
551.146	1	16
551.316	1	21
551.486	1	18
551.656	1	12
551.826	1	10
551.996	1	15
552.166	1	9
552.336	1	11
552.506	1	13
552.676	1	27
552.846	1	13
553.016	1	5
553.186	1	17
553.356	1	21
553.526	1	21
553.696	1	12
553.866	1	10
554.036	1	16
554.206	1	9
554.376	1	22
554.546	1	19
554.716	1	23
554.886	1	10
555.056	1	10
555.226	1	17
555.396	1	13
555.566	1	17
555.736	1	12
555.906	1	10
556.076	1	27
556.246	1	7
556.416	1	8
556.586	1	19
556.756	1	24
556.926	1	23
557.096	1	13
557.266	1	21
557.436	1	16
557.606	1	1
557.776	1	2
557.946	1	21
558.116	1	11
558.286	1	19
558.456	1	18
558.626	1	17
558.796	1	7
558.966	1	12
559.136	1	16
559.306	1	17
559.476	1	24
559.646	1	10
559.816	1	15
559.986	1	10
560.155	1	28
560.325	1	20
560.495	1	12
560.665	1	26
560.835	1	19
561.005	1	13
561.175	1	16
561.345	1	9
561.515	1	14
561.685	1	13
561.855	1	9
562.025	1	19
562.195	1	15
562.365	1	19
562.535	1	14
562.705	1	21
562.875	1	18
563.045	1	15
563.215	1	2
563.385	1	4
563.555	1	18
563.725	1	7
563.895	1	12
564.064	1	14
564.234	1	9
564.404	1	7
564.574	1	13
564.744	1	15
564.914	1	16
565.084	1	19
565.254	1	12
565.424	1	8
565.594	1	13
565.764	1	9
565.934	1	15
566.104	1	13
566.274	1	7
566.444	1	12
566.614	1	11
566.783	1	7
566.953	1	8
567.123	1	15
567.293	1	2
567.463	1	10
567.633	1	10
567.803	1	13
567.973	1	8
568.143	1	7
568.313	1	3
568.483	1	11
568.653	1	11
568.823	1	8
568.993	1	22
569.162	1	10
569.332	1	14
569.502	1	6
569.672	1	-4
569.842	1	15
570.012	1	8
570.182	1	6
570.352	1	13
570.522	1	6
570.692	1	17
570.862	1	15
571.031	1	4
571.201	1	0
571.371	1	-1
571.541	1	15
571.711	1	15
571.881	1	9
572.051	1	11
572.221	1	6
572.391	1	19
572.561	1	5
572.731	1	5
572.900	1	7
573.070	1	9
573.240	1	15
573.410	1	3
573.580	1	2
573.750	1	6
573.920	1	10
574.090	1	6
574.260	1	17
574.430	1	2
574.599	1	13
574.769	1	14
574.939	1	11
575.109	1	8
575.279	1	3
575.449	1	11
575.619	1	-1
575.789	1	4
575.959	1	0
576.128	1	18
576.298	1	7
576.468	1	5
576.638	1	9
576.808	1	18
576.978	1	17
577.148	1	6
577.318	1	10
577.487	1	5
577.657	1	10
577.827	1	6
577.997	1	10
578.167	1	13
578.337	1	10
578.507	1	7
578.677	1	-4
578.846	1	2
579.016	1	4
579.186	1	0
579.356	1	5
579.526	1	10
579.696	1	26
579.866	1	3
580.036	1	7
580.205	1	16
580.375	1	0
580.545	1	9
580.715	1	6
580.885	1	20
581.055	1	-1
581.225	1	12
581.394	1	5
581.564	1	15
581.734	1	3
581.904	1	7
582.074	1	15
582.244	1	14
582.414	1	-4
582.583	1	3
582.753	1	6
582.923	1	-5
583.093	1	8
583.263	1	26
583.433	1	10
583.603	1	7
583.772	1	6
583.942	1	-2
584.112	1	11
584.282	1	9
584.452	1	2
584.622	1	0
584.791	1	7
584.961	1	16
585.131	1	8
585.301	1	0
585.471	1	-6
585.641	1	8
585.811	1	-1
585.980	1	8
586.150	1	1
586.320	1	4
586.490	1	4
586.660	1	7
586.830	1	10
586.999	1	9
587.169	1	22
587.339	1	9
587.509	1	9
587.679	1	2
587.849	1	12
588.018	1	2
588.188	1	2
588.358	1	6
588.528	1	4
588.698	1	0
588.867	1	8
589.037	1	7
589.207	1	-8
589.377	1	6
589.547	1	9
589.717	1	-1
589.886	1	4
590.056	1	3
590.226	1	19
590.396	1	6
590.566	1	-4
590.735	1	1
590.905	1	6
591.075	1	15
591.245	1	5
591.415	1	3
591.585	1	3
591.754	1	17
591.924	1	13
592.094	1	11
592.264	1	3
592.434	1	11
592.603	1	-2
592.773	1	12
592.943	1	11
593.113	1	15
593.283	1	9
593.452	1	7
593.622	1	0
593.792	1	12
593.962	1	7
594.132	1	12
594.301	1	10
594.471	1	6
594.641	1	-4
594.811	1	12
594.981	1	13
595.150	1	1
595.320	1	-6
595.490	1	6
595.660	1	3
595.829	1	10
595.999	1	19
596.169	1	-3
596.339	1	17
596.509	1	7
596.678	1	14
596.848	1	12
597.018	1	14
597.188	1	12
597.358	1	6
597.527	1	3
597.697	1	6
597.867	1	13
598.037	1	9
598.206	1	11
598.376	1	-2
598.546	1	1
598.716	1	14
598.885	1	12
599.055	1	-2
599.225	1	-1
599.395	1	13
599.565	1	2
599.734	1	3
599.904	1	4
600.074	1	8
600.244	1	3
600.413	1	3
600.583	1	4
600.753	1	3
600.923	1	5
601.092	1	6
601.262	1	2
601.432	1	14
601.602	1	1
601.771	1	8
601.941	1	1
602.111	1	1
602.281	1	0
602.451	1	8
602.620	1	3
602.790	1	5
602.960	1	8
603.130	1	7
603.299	1	6
603.469	1	3
603.639	1	-2
603.809	1	7
603.978	1	11
604.148	1	1
604.318	1	4
604.487	1	-4
604.657	1	6
604.827	1	5
604.997	1	7
605.166	1	-6
605.336	1	10
605.506	1	3
605.676	1	23
605.845	1	-3
606.015	1	9
606.185	1	-1
606.355	1	3
606.524	1	6
606.694	1	8
606.864	1	5
607.034	1	1
607.203	1	12
607.373	1	20
607.543	1	3
607.712	1	10
607.882	1	9
608.052	1	15
608.222	1	-4
608.391	1	2
608.561	1	4
608.731	1	5
608.901	1	7
609.070	1	-2
609.240	1	-3
609.410	1	7
609.579	1	10
609.749	1	6
609.919	1	15
610.089	1	3
610.258	1	19
610.428	1	2
610.598	1	4
610.767	1	-2
610.937	1	-5
611.107	1	8
611.277	1	6
611.446	1	6
611.616	1	19
611.786	1	7
611.955	1	-1
612.125	1	7
612.295	1	14
612.465	1	4
612.634	1	4
612.804	1	6
612.974	1	7
613.143	1	12
613.313	1	5
613.483	1	-7
613.652	1	-1
613.822	1	3
613.992	1	6
614.162	1	-4
614.331	1	0
614.501	1	-4
614.671	1	1
614.840	1	3
615.010	1	1
615.180	1	16
615.349	1	12
615.519	1	5
615.689	1	-6
615.858	1	2
616.028	1	11
616.198	1	11
616.368	1	12
616.537	1	9
616.707	1	3
616.877	1	8
617.046	1	-1
617.216	1	-2
617.386	1	2
617.555	1	7
617.725	1	3
617.895	1	9
618.064	1	9
618.234	1	4
618.404	1	8
618.573	1	-1
618.743	1	14
618.913	1	12
619.082	1	2
619.252	1	4
619.422	1	7
619.591	1	3
619.761	1	-9
619.931	1	2
620.100	1	4
620.270	1	20
620.440	1	8
620.609	1	-1
620.779	1	-7
620.949	1	1
621.118	1	5
621.288	1	9
621.458	1	11
621.627	1	-7
621.797	1	18
621.967	1	0
622.136	1	6
622.306	1	3
622.476	1	9
622.645	1	16
622.815	1	-5
622.985	1	8
623.154	1	-1
623.324	1	7
623.494	1	12
623.663	1	0
623.833	1	4
624.002	1	8
624.172	1	5
624.342	1	6
624.511	1	3
624.681	1	-7
624.851	1	-4
625.020	1	7
625.190	1	11
625.360	1	10
625.529	1	7
625.699	1	5
625.869	1	13
626.038	1	-10
626.208	1	10
626.377	1	6
626.547	1	8
626.717	1	11
626.886	1	8
627.056	1	1
627.226	1	-9
627.395	1	7
627.565	1	2
627.735	1	4
627.904	1	-1
628.074	1	2
628.243	1	-5
628.413	1	12
628.583	1	-6
628.752	1	12
628.922	1	7
629.091	1	3
629.261	1	-8
629.431	1	9
629.600	1	5
629.770	1	10
629.940	1	7
630.109	1	4
630.279	1	-7
630.448	1	15
630.618	1	10
630.788	1	-6
630.957	1	-1
631.127	1	3
631.297	1	8
631.466	1	2
631.636	1	-4
631.805	1	5
631.975	1	-6
632.145	1	3
632.314	1	8
632.484	1	9
632.653	1	-3
632.823	1	-1
632.993	1	7
633.162	1	0
633.332	1	11
633.501	1	3
633.671	1	6
633.841	1	18
634.010	1	0
634.180	1	2
634.349	1	-3
634.519	1	3
634.689	1	7
634.858	1	-7
635.028	1	-2
635.197	1	11
635.367	1	11
635.537	1	12
635.706	1	6
635.876	1	10
636.045	1	-11
636.215	1	6
636.384	1	-5
636.554	1	-2
636.724	1	1
636.893	1	1
637.063	1	8
637.232	1	4
637.402	1	5
637.572	1	-1
637.741	1	7
637.911	1	6
638.080	1	1
638.250	1	2
638.419	1	-4
638.589	1	-10
638.759	1	3
638.928	1	14
639.098	1	0
639.267	1	-1
639.437	1	2
639.606	1	13
639.776	1	6
639.946	1	4
640.115	1	5
640.285	1	4
640.454	1	4
640.624	1	-1
640.793	1	-3
640.963	1	10
641.132	1	1
641.302	1	5
641.472	1	-3
641.641	1	5
641.811	1	8
641.980	1	8
642.150	1	-8
642.319	1	1
642.489	1	-5
642.659	1	7
642.828	1	-2
642.998	1	0
643.167	1	0
643.337	1	4
643.506	1	-3
643.676	1	2
643.845	1	1
644.015	1	4
644.184	1	6
644.354	1	-5
644.524	1	5
644.693	1	-6
644.863	1	6
645.032	1	3
645.202	1	-3
645.371	1	13
645.541	1	-6
645.710	1	7
645.880	1	-13
646.049	1	9
646.219	1	3
646.388	1	6
646.558	1	-4
646.728	1	23
646.897	1	-4
647.067	1	8
647.236	1	5
647.406	1	7
647.575	1	9
647.745	1	7
647.914	1	-4
648.084	1	3
648.253	1	-17
648.423	1	6
648.592	1	5
648.762	1	6
648.931	1	-3
649.101	1	8
649.270	1	3
649.440	1	10
649.610	1	7
649.779	1	9
649.949	1	-2
650.118	1	6
650.288	1	-2
650.457	1	-3
650.627	1	8
650.796	1	1
650.966	1	12
651.135	1	-2
651.305	1	12
651.474	1	12
651.644	1	4
651.813	1	8
651.983	1	9
652.152	1	6
652.322	1	-3
652.491	1	1
652.661	1	2
652.830	1	6
653.000	1	1
653.169	1	9
653.339	1	3
653.508	1	11
653.678	1	5
653.847	1	-4
654.017	1	17
654.186	1	9
654.356	1	9
654.525	1	-8
654.695	1	-2
654.864	1	13
655.034	1	13
655.203	1	-4
655.373	1	0
655.542	1	2
655.712	1	8
655.881	1	2
656.051	1	5
656.220	1	6
656.390	1	4
656.559	1	5
656.729	1	1
656.898	1	-7
657.068	1	17
657.237	1	-2
657.406	1	4
657.576	1	0
657.745	1	-1
657.915	1	0
658.084	1	2
658.254	1	11
658.423	1	18
658.593	1	-5
658.762	1	5
658.932	1	1
659.101	1	12
659.271	1	-1
659.440	1	3
659.610	1	5
659.779	1	7
659.949	1	4
660.118	1	5
660.288	1	6
660.457	1	13
660.626	1	3
660.796	1	-1
660.965	1	-6
661.135	1	2
661.304	1	9
661.474	1	8
661.643	1	10
661.813	1	1
661.982	1	-7
662.152	1	1
662.321	1	4
662.491	1	2
662.660	1	7
662.829	1	3
662.999	1	0
663.168	1	-5
663.338	1	10
663.507	1	-2
663.677	1	8
663.846	1	4
664.016	1	3
664.185	1	4
664.354	1	2
664.524	1	2
664.693	1	4
664.863	1	7
665.032	1	7
665.202	1	1
665.371	1	-2
665.541	1	-2
665.710	1	0
665.879	1	1
666.049	1	3
666.218	1	11
666.388	1	2
666.557	1	12
666.727	1	8
666.896	1	8
667.065	1	-2
667.235	1	1
667.404	1	4
667.574	1	8
667.743	1	4
667.913	1	7
668.082	1	18
668.251	1	9
668.421	1	4
668.590	1	8
668.760	1	1
668.929	1	-4
669.099	1	1
669.268	1	2
669.437	1	6
669.607	1	1
669.776	1	2
669.946	1	10
670.115	1	8
670.285	1	4
670.454	1	14
670.623	1	-2
670.793	1	0
670.962	1	3
671.132	1	2
671.301	1	11
671.470	1	-1
671.640	1	-1
671.809	1	13
671.979	1	4
672.148	1	-4
672.317	1	8
672.487	1	2
672.656	1	-2
672.826	1	3
672.995	1	3
673.164	1	19
673.334	1	11
673.503	1	2
673.673	1	13
673.842	1	-2
674.011	1	6
674.181	1	-2
674.350	1	0
674.520	1	-1
674.689	1	5
674.858	1	7
675.028	1	8
675.197	1	5
675.367	1	3
675.536	1	14
675.705	1	12
675.875	1	5
676.044	1	-1
676.214	1	5
676.383	1	1
676.552	1	-2
676.722	1	-2
676.891	1	2
677.060	1	6
677.230	1	6
677.399	1	-4
677.569	1	10
677.738	1	3
677.907	1	-1
678.077	1	-4
678.246	1	1
678.416	1	4
678.585	1	14
678.754	1	8
678.924	1	-12
679.093	1	0
679.262	1	4
679.432	1	7
679.601	1	0
679.771	1	6
679.940	1	8
680.109	1	0
680.279	1	7
680.448	1	-3
680.617	1	1
680.787	1	8
680.956	1	1
681.125	1	-4
681.295	1	-3
681.464	1	-1
681.634	1	15
681.803	1	11
681.972	1	-1
682.142	1	-2
682.311	1	3
682.480	1	10
682.650	1	6
682.819	1	-7
682.988	1	-3
683.158	1	1
683.327	1	7
683.496	1	3
683.666	1	15
683.835	1	-3
684.004	1	2
684.174	1	-6
684.343	1	-5
684.512	1	8
684.682	1	5
684.851	1	4
685.021	1	5
685.190	1	-3
685.359	1	1
685.529	1	1
685.698	1	0
685.867	1	-3
686.037	1	3
686.206	1	8
686.375	1	4
686.545	1	5
686.714	1	11
686.883	1	12
687.053	1	6
687.222	1	2
687.391	1	-1
687.561	1	-5
687.730	1	7
687.899	1	11
688.069	1	6
688.238	1	-5
688.407	1	-1
688.577	1	8
688.746	1	5
