340.368	1	-2
340.539	1	-2
340.710	1	11
340.881	1	-1
341.052	1	-3
341.223	1	7
341.394	1	-4
341.565	1	8
341.737	1	12
341.908	1	0
342.079	1	-3
342.250	1	4
342.421	1	11
342.592	1	6
342.763	1	7
342.934	1	7
343.105	1	8
343.276	1	6
343.447	1	-10
343.618	1	-6
343.789	1	14
343.960	1	6
344.131	1	-8
344.302	1	4
344.473	1	-6
344.644	1	-3
344.815	1	8
344.986	1	15
345.157	1	-10
345.328	1	14
345.499	1	11
345.670	1	4
345.841	1	1
346.012	1	7
346.183	1	3
346.354	1	11
346.526	1	3
346.697	1	12
346.868	1	9
347.039	1	4
347.210	1	-5
347.381	1	7
347.552	1	10
347.723	1	1
347.894	1	5
348.065	1	-5
348.236	1	1
348.407	1	-11
348.578	1	11
348.749	1	4
348.920	1	2
349.091	1	8
349.262	1	6
349.433	1	-1
349.604	1	0
349.775	1	12
349.946	1	9
350.117	1	5
350.288	1	-8
350.459	1	17
350.630	1	6
350.801	1	8
350.972	1	7
351.143	1	11
351.314	1	8
351.485	1	-4
351.656	1	-1
351.827	1	2
351.998	1	7
352.169	1	-3
352.340	1	16
352.511	1	4
352.682	1	1
352.853	1	1
353.024	1	5
353.195	1	1
353.366	1	4
353.537	1	6
353.708	1	13
353.879	1	3
354.050	1	2
354.221	1	-1
354.392	1	4
354.563	1	5
354.734	1	13
354.905	1	5
355.076	1	11
355.247	1	7
355.418	1	-2
355.589	1	9
355.760	1	-1
355.931	1	11
356.102	1	-1
356.273	1	5
356.444	1	15
356.615	1	-2
356.785	1	1
356.956	1	7
357.127	1	3
357.298	1	10
357.469	1	15
357.640	1	3
357.811	1	7
357.982	1	5
358.153	1	5
358.324	1	10
358.495	1	9
358.666	1	-2
358.837	1	13
359.008	1	20
359.179	1	17
359.350	1	9
359.521	1	11
359.692	1	3
359.863	1	7
360.034	1	19
360.205	1	0
360.376	1	22
360.547	1	16
360.718	1	13
360.889	1	5
361.060	1	13
361.231	1	21
361.401	1	16
361.572	1	12
361.743	1	8
361.914	1	7
362.085	1	20
362.256	1	15
362.427	1	24
362.598	1	11
362.769	1	14
362.940	1	19
363.111	1	25
363.282	1	20
363.453	1	23
363.624	1	24
363.795	1	24
363.966	1	26
364.137	1	20
364.308	1	43
364.478	1	26
364.649	1	21
364.820	1	44
364.991	1	41
365.162	1	25
365.333	1	40
365.504	1	38
365.675	1	35
365.846	1	33
366.017	1	44
366.188	1	48
366.359	1	42
366.530	1	33
366.701	1	40
366.871	1	44
367.042	1	42
367.213	1	42
367.384	1	49
367.555	1	41
367.726	1	45
367.897	1	47
368.068	1	48
368.239	1	44
368.410	1	50
368.581	1	52
368.752	1	52
368.923	1	54
369.093	1	42
369.264	1	46
369.435	1	47
369.606	1	43
369.777	1	50
369.948	1	61
370.119	1	49
370.290	1	44
370.461	1	57
370.632	1	46
370.803	1	36
370.973	1	48
371.144	1	35
371.315	1	41
371.486	1	41
371.657	1	44
371.828	1	38
371.999	1	38
372.170	1	41
372.341	1	33
372.512	1	41
372.682	1	27
372.853	1	40
373.024	1	23
373.195	1	34
373.366	1	32
373.537	1	37
373.708	1	34
373.879	1	30
374.050	1	30
374.220	1	27
374.391	1	33
374.562	1	38
374.733	1	32
374.904	1	23
375.075	1	26
375.246	1	23
375.417	1	34
375.588	1	22
375.758	1	29
375.929	1	26
376.100	1	20
376.271	1	19
376.442	1	24
376.613	1	19
376.784	1	14
376.955	1	27
377.125	1	13
377.296	1	24
377.467	1	26
377.638	1	21
377.809	1	12
377.980	1	29
378.151	1	9
378.321	1	14
378.492	1	19
378.663	1	12
378.834	1	0
379.005	1	29
379.176	1	17
379.347	1	11
379.518	1	14
379.688	1	14
379.859	1	20
380.030	1	19
380.201	1	19
380.372	1	16
380.543	1	8
380.714	1	12
380.884	1	24
381.055	1	8
381.226	1	16
381.397	1	12
381.568	1	27
381.739	1	10
381.910	1	19
382.080	1	5
382.251	1	23
382.422	1	5
382.593	1	25
382.764	1	9
382.935	1	21
383.105	1	9
383.276	1	17
383.447	1	11
383.618	1	14
383.789	1	22
383.960	1	15
384.130	1	20
384.301	1	10
384.472	1	12
384.643	1	11
384.814	1	18
384.985	1	17
385.156	1	29
385.326	1	18
385.497	1	14
385.668	1	22
385.839	1	2
386.010	1	20
386.180	1	18
386.351	1	26
386.522	1	17
386.693	1	10
386.864	1	17
387.035	1	23
387.205	1	27
387.376	1	8
387.547	1	16
387.718	1	21
387.889	1	16
388.060	1	19
388.230	1	20
388.401	1	10
388.572	1	7
388.743	1	12
388.914	1	12
389.084	1	14
389.255	1	14
389.426	1	19
389.597	1	7
389.768	1	13
389.939	1	11
390.109	1	14
390.280	1	9
390.451	1	22
390.622	1	10
390.793	1	4
390.963	1	1
391.134	1	21
391.305	1	12
391.476	1	21
391.647	1	0
391.817	1	24
391.988	1	10
392.159	1	14
392.330	1	12
392.501	1	23
392.671	1	18
392.842	1	15
393.013	1	19
393.184	1	6
393.355	1	2
393.525	1	21
393.696	1	5
393.867	1	15
394.038	1	12
394.208	1	23
394.379	1	16
394.550	1	17
394.721	1	8
394.892	1	15
395.062	1	9
395.233	1	1
395.404	1	13
395.575	1	19
395.746	1	23
395.916	1	18
396.087	1	12
396.258	1	12
396.429	1	4
396.599	1	18
396.770	1	11
396.941	1	9
397.112	1	19
397.283	1	13
397.453	1	17
397.624	1	13
397.795	1	22
397.966	1	13
398.136	1	11
398.307	1	6
398.478	1	6
398.649	1	20
398.819	1	8
398.990	1	1
399.161	1	9
399.332	1	8
399.503	1	16
399.673	1	16
399.844	1	13
400.015	1	5
400.186	1	11
400.356	1	23
400.527	1	10
400.698	1	6
400.869	1	12
401.039	1	10
401.210	1	0
401.381	1	11
401.552	1	2
401.722	1	12
401.893	1	13
402.064	1	8
402.235	1	10
402.405	1	-1
402.576	1	19
402.747	1	9
402.918	1	19
403.088	1	-4
403.259	1	2
403.430	1	15
403.601	1	11
403.771	1	5
403.942	1	11
404.113	1	8
404.284	1	10
404.454	1	4
404.625	1	12
404.796	1	6
404.967	1	9
405.137	1	-1
405.308	1	17
405.479	1	0
405.649	1	8
405.820	1	-2
405.991	1	19
406.162	1	10
406.332	1	5
406.503	1	13
406.674	1	15
406.845	1	10
407.015	1	4
407.186	1	16
407.357	1	8
407.527	1	5
407.698	1	15
407.869	1	9
408.040	1	7
408.210	1	13
408.381	1	9
408.552	1	17
408.722	1	6
408.893	1	-3
409.064	1	3
409.235	1	9
409.405	1	15
409.576	1	16
409.747	1	11
409.917	1	13
410.088	1	11
410.259	1	12
410.430	1	7
410.600	1	7
410.771	1	8
410.942	1	13
411.112	1	4
411.283	1	5
411.454	1	7
411.625	1	13
411.795	1	12
411.966	1	12
412.137	1	6
412.307	1	11
412.478	1	-2
412.649	1	5
412.819	1	11
412.990	1	-1
413.161	1	14
413.332	1	4
413.502	1	4
413.673	1	13
413.844	1	3
414.014	1	15
414.185	1	-1
414.356	1	15
414.526	1	10
414.697	1	6
414.868	1	-5
415.038	1	18
415.209	1	8
415.380	1	10
415.550	1	-5
415.721	1	14
415.892	1	3
416.063	1	8
416.233	1	8
416.404	1	8
416.575	1	9
416.745	1	11
416.916	1	-3
417.087	1	10
417.257	1	0
417.428	1	15
417.599	1	-6
417.769	1	6
417.940	1	9
418.111	1	10
418.281	1	9
418.452	1	9
418.623	1	6
418.793	1	4
418.964	1	11
419.135	1	9
419.305	1	17
419.476	1	16
419.647	1	1
419.817	1	1
419.988	1	6
420.159	1	-3
420.329	1	1
420.500	1	6
420.671	1	14
420.841	1	4
421.012	1	7
421.183	1	7
421.353	1	3
421.524	1	8
421.695	1	-1
421.865	1	1
422.036	1	0
422.206	1	7
422.377	1	-2
422.548	1	-3
422.718	1	10
422.889	1	8
423.060	1	13
423.230	1	3
423.401	1	7
423.572	1	-3
423.742	1	13
423.913	1	0
424.084	1	5
424.254	1	6
424.425	1	1
424.595	1	6
424.766	1	16
424.937	1	2
425.107	1	4
425.278	1	5
425.449	1	6
425.619	1	6
425.790	1	11
425.961	1	-2
426.131	1	-3
426.302	1	-2
426.472	1	13
426.643	1	-3
426.814	1	-5
426.984	1	3
427.155	1	24
427.326	1	8
427.496	1	1
427.667	1	12
427.837	1	17
428.008	1	7
428.179	1	4
428.349	1	12
428.520	1	9
428.691	1	1
428.861	1	0
429.032	1	3
429.202	1	1
429.373	1	9
429.544	1	0
429.714	1	11
429.885	1	6
430.055	1	6
430.226	1	3
430.397	1	12
430.567	1	-8
430.738	1	4
430.909	1	3
431.079	1	10
431.250	1	11
431.420	1	8
431.591	1	4
431.762	1	17
431.932	1	8
432.103	1	1
432.273	1	5
432.444	1	-4
432.615	1	-1
432.785	1	-9
432.956	1	2
433.126	1	6
433.297	1	9
433.468	1	3
433.638	1	4
433.809	1	2
433.979	1	-10
434.150	1	16
434.320	1	1
434.491	1	8
434.662	1	5
434.832	1	4
435.003	1	6
435.173	1	21
435.344	1	3
435.515	1	4
435.685	1	-4
435.856	1	-3
436.026	1	10
436.197	1	-3
436.368	1	3
436.538	1	10
436.709	1	11
436.879	1	-1
437.050	1	11
437.220	1	12
437.391	1	-2
437.562	1	0
437.732	1	-8
437.903	1	-5
438.073	1	14
438.244	1	7
438.414	1	-7
438.585	1	5
438.756	1	-6
438.926	1	13
439.097	1	11
439.267	1	-2
439.438	1	8
439.608	1	-1
439.779	1	1
439.949	1	0
440.120	1	8
440.291	1	-3
440.461	1	5
440.632	1	-1
440.802	1	-8
440.973	1	6
441.143	1	8
441.314	1	-1
441.485	1	-2
441.655	1	6
441.826	1	8
441.996	1	4
442.167	1	4
442.337	1	6
442.508	1	4
442.678	1	1
442.849	1	5
443.019	1	-5
443.190	1	-1
443.361	1	0
443.531	1	11
443.702	1	3
443.872	1	12
444.043	1	-4
444.213	1	-7
444.384	1	-3
444.554	1	-4
444.725	1	2
444.895	1	0
445.066	1	1
445.237	1	-10
445.407	1	-4
445.578	1	-8
445.748	1	0
445.919	1	12
446.089	1	7
446.260	1	2
446.430	1	6
446.601	1	17
446.771	1	-1
446.942	1	-2
447.112	1	23
447.283	1	2
447.453	1	6
447.624	1	3
447.794	1	1
447.965	1	-7
448.135	1	6
448.306	1	9
448.477	1	2
448.647	1	8
448.818	1	6
448.988	1	10
449.159	1	13
449.329	1	-5
449.500	1	9
449.670	1	16
449.841	1	0
450.011	1	-6
450.182	1	1
450.352	1	1
450.523	1	-1
450.693	1	13
450.864	1	14
451.034	1	8
451.205	1	2
451.375	1	0
451.546	1	13
451.716	1	1
451.887	1	0
452.057	1	-1
452.228	1	15
452.398	1	8
452.569	1	10
452.739	1	7
452.910	1	0
453.080	1	-6
453.251	1	-4
453.421	1	7
453.592	1	0
453.762	1	4
453.933	1	5
454.103	1	-5
454.274	1	-12
454.444	1	0
454.615	1	7
454.785	1	-1
454.956	1	7
455.126	1	4
455.297	1	2
455.467	1	-11
455.638	1	10
455.808	1	2
455.979	1	8
456.149	1	2
456.320	1	2
456.490	1	11
456.661	1	-5
456.831	1	2
457.001	1	1
457.172	1	21
457.342	1	-4
457.513	1	-6
457.683	1	8
457.854	1	5
458.024	1	6
458.195	1	0
458.365	1	4
458.536	1	11
458.706	1	0
458.877	1	-5
459.047	1	15
459.218	1	-4
459.388	1	13
459.559	1	-3
459.729	1	4
459.899	1	8
460.070	1	2
460.240	1	-6
460.411	1	-3
460.581	1	-1
460.752	1	1
460.922	1	-5
461.093	1	10
461.263	1	6
461.434	1	11
461.604	1	20
461.775	1	7
461.945	1	-2
462.115	1	0
462.286	1	1
462.456	1	6
462.627	1	1
462.797	1	-1
462.968	1	-2
463.138	1	-1
463.309	1	5
463.479	1	7
463.649	1	2
463.820	1	-6
463.990	1	8
464.161	1	2
464.331	1	3
464.502	1	3
464.672	1	-4
464.843	1	-1
465.013	1	-5
465.183	1	5
465.354	1	12
465.524	1	-2
465.695	1	-8
465.865	1	6
466.036	1	2
466.206	1	6
466.376	1	9
466.547	1	5
466.717	1	9
466.888	1	2
467.058	1	4
467.229	1	0
467.399	1	3
467.569	1	2
467.740	1	-3
467.910	1	-1
468.081	1	10
468.251	1	9
468.422	1	7
468.592	1	4
468.762	1	-4
468.933	1	13
469.103	1	2
469.274	1	1
469.444	1	-3
469.614	1	-2
469.785	1	9
469.955	1	-1
470.126	1	-6
470.296	1	-2
470.467	1	-7
470.637	1	11
470.807	1	9
470.978	1	6
471.148	1	7
471.319	1	3
471.489	1	-3
471.659	1	-3
471.830	1	1
472.000	1	-2
472.171	1	14
472.341	1	11
472.511	1	14
472.682	1	4
472.852	1	1
473.023	1	-7
473.193	1	-7
473.363	1	1
473.534	1	-5
473.704	1	-6
473.875	1	1
474.045	1	7
474.215	1	7
474.386	1	11
474.556	1	9
474.727	1	9
474.897	1	5
475.067	1	11
475.238	1	5
475.408	1	2
475.578	1	-1
475.749	1	7
475.919	1	4
476.090	1	19
476.260	1	-1
476.430	1	1
476.601	1	7
476.771	1	6
476.942	1	0
477.112	1	-11
477.282	1	5
477.453	1	1
477.623	1	-3
477.793	1	10
477.964	1	3
478.134	1	7
478.305	1	5
478.475	1	4
478.645	1	10
478.816	1	-5
478.986	1	2
479.156	1	8
479.327	1	3
479.497	1	0
479.667	1	0
479.838	1	-8
480.008	1	3
480.179	1	4
480.349	1	7
480.519	1	-9
480.690	1	1
480.860	1	4
481.030	1	8
481.201	1	3
481.371	1	6
481.541	1	2
481.712	1	7
481.882	1	-2
482.053	1	14
482.223	1	0
482.393	1	2
482.564	1	7
482.734	1	17
482.904	1	14
483.075	1	2
483.245	1	7
483.415	1	2
483.586	1	7
483.756	1	-1
483.926	1	12
484.097	1	10
484.267	1	1
484.437	1	11
484.608	1	10
484.778	1	14
484.948	1	3
485.119	1	-1
485.289	1	4
485.459	1	14
485.630	1	7
485.800	1	1
485.970	1	5
486.141	1	6
486.311	1	-11
486.481	1	8
486.652	1	3
486.822	1	11
486.992	1	5
487.163	1	12
487.333	1	6
487.503	1	2
487.674	1	12
487.844	1	1
488.014	1	6
488.185	1	3
488.355	1	3
488.525	1	19
488.696	1	4
488.866	1	8
489.036	1	9
489.207	1	13
489.377	1	2
489.547	1	11
489.718	1	-1
489.888	1	17
490.058	1	-11
490.228	1	12
490.399	1	5
490.569	1	12
490.739	1	2
490.910	1	8
491.080	1	7
491.250	1	5
491.421	1	5
491.591	1	3
491.761	1	6
491.932	1	12
492.102	1	1
492.272	1	1
492.442	1	8
492.613	1	9
492.783	1	-4
492.953	1	14
493.124	1	16
493.294	1	1
493.464	1	10
493.635	1	9
493.805	1	14
493.975	1	5
494.145	1	0
494.316	1	8
494.486	1	10
494.656	1	3
494.827	1	-2
494.997	1	24
495.167	1	8
495.337	1	19
495.508	1	10
495.678	1	19
495.848	1	-2
496.019	1	12
496.189	1	16
496.359	1	6
496.529	1	10
496.700	1	11
496.870	1	9
497.040	1	18
497.211	1	5
497.381	1	20
497.551	1	5
497.721	1	4
497.892	1	15
498.062	1	4
498.232	1	10
498.403	1	7
498.573	1	7
498.743	1	10
498.913	1	8
499.084	1	11
499.254	1	10
499.424	1	10
499.594	1	9
499.765	1	20
499.935	1	10
500.105	1	30
500.275	1	18
500.446	1	16
500.616	1	7
500.786	1	11
500.956	1	20
501.127	1	6
501.297	1	15
501.467	1	2
501.638	1	16
501.808	1	3
501.978	1	12
502.148	1	14
502.319	1	15
502.489	1	11
502.659	1	14
502.829	1	10
503.000	1	-2
503.170	1	16
503.340	1	15
503.510	1	13
503.681	1	15
503.851	1	15
504.021	1	13
504.191	1	14
504.362	1	1
504.532	1	11
504.702	1	16
504.872	1	18
505.042	1	16
505.213	1	14
505.383	1	12
505.553	1	20
505.723	1	22
505.894	1	14
506.064	1	-2
506.234	1	17
506.404	1	11
506.575	1	0
506.745	1	10
506.915	1	23
507.085	1	15
507.256	1	2
507.426	1	12
507.596	1	19
507.766	1	12
507.936	1	20
508.107	1	15
508.277	1	19
508.447	1	26
508.617	1	7
508.788	1	17
508.958	1	11
509.128	1	23
509.298	1	15
509.468	1	18
509.639	1	13
509.809	1	11
509.979	1	26
510.149	1	19
510.319	1	21
510.490	1	27
510.660	1	28
510.830	1	11
511.000	1	12
511.171	1	14
511.341	1	26
511.511	1	19
511.681	1	23
511.851	1	24
512.022	1	26
512.192	1	8
512.362	1	28
512.532	1	23
512.702	1	9
512.873	1	10
513.043	1	18
513.213	1	29
513.383	1	10
513.553	1	23
513.724	1	18
513.894	1	27
514.064	1	9
514.234	1	14
514.404	1	36
514.575	1	18
514.745	1	20
514.915	1	20
515.085	1	28
515.255	1	20
515.425	1	26
515.596	1	16
515.766	1	22
515.936	1	30
516.106	1	23
516.276	1	23
516.447	1	25
516.617	1	19
516.787	1	21
516.957	1	11
517.127	1	30
517.297	1	23
517.468	1	13
517.638	1	28
517.808	1	16
517.978	1	14
518.148	1	26
518.319	1	18
518.489	1	26
518.659	1	19
518.829	1	17
518.999	1	10
519.169	1	13
519.340	1	24
519.510	1	16
519.680	1	27
519.850	1	24
520.020	1	24
520.190	1	17
520.361	1	22
520.531	1	32
520.701	1	12
520.871	1	24
521.041	1	29
521.211	1	19
521.382	1	23
521.552	1	33
521.722	1	35
521.892	1	15
522.062	1	29
522.232	1	24
522.402	1	7
522.573	1	13
522.743	1	30
522.913	1	17
523.083	1	29
523.253	1	25
523.423	1	28
523.593	1	32
523.764	1	25
523.934	1	22
524.104	1	30
524.274	1	7
524.444	1	25
524.614	1	25
524.784	1	16
524.955	1	28
525.125	1	11
525.295	1	13
525.465	1	22
525.635	1	30
525.805	1	17
525.975	1	19
526.146	1	24
526.316	1	29
526.486	1	31
526.656	1	23
526.826	1	24
526.996	1	12
527.166	1	27
527.337	1	14
527.507	1	17
527.677	1	19
527.847	1	22
528.017	1	12
528.187	1	12
528.357	1	27
528.527	1	15
528.698	1	24
528.868	1	22
529.038	1	25
529.208	1	21
529.378	1	15
529.548	1	30
529.718	1	16
529.888	1	21
530.058	1	27
530.229	1	21
530.399	1	18
530.569	1	29
530.739	1	14
530.909	1	12
531.079	1	40
531.249	1	18
531.419	1	18
531.589	1	31
531.760	1	14
531.930	1	24
532.100	1	23
532.270	1	17
532.440	1	17
532.610	1	22
532.780	1	9
532.950	1	19
533.120	1	36
533.290	1	18
533.461	1	11
533.631	1	19
533.801	1	36
533.971	1	16
534.141	1	9
534.311	1	33
534.481	1	13
534.651	1	7
534.821	1	17
534.991	1	28
535.162	1	19
535.332	1	12
535.502	1	40
535.672	1	35
535.842	1	23
536.012	1	31
536.182	1	32
536.352	1	14
536.522	1	24
536.692	1	23
536.862	1	10
537.032	1	28
537.203	1	27
537.373	1	10
537.543	1	25
537.713	1	12
537.883	1	31
538.053	1	21
538.223	1	19
538.393	1	38
538.563	1	32
538.733	1	15
538.903	1	26
539.073	1	28
539.243	1	30
539.413	1	23
539.584	1	30
539.754	1	28
539.924	1	34
540.094	1	26
540.264	1	32
540.434	1	29
540.604	1	26
540.774	1	21
540.944	1	24
541.114	1	28
541.284	1	30
541.454	1	30
541.624	1	13
541.794	1	25
541.964	1	26
542.134	1	11
542.305	1	32
542.475	1	23
542.645	1	14
542.815	1	21
542.985	1	33
543.155	1	17
543.325	1	12
543.495	1	9
543.665	1	16
543.835	1	25
544.005	1	20
544.175	1	13
544.345	1	17
544.515	1	26
544.685	1	18
544.855	1	19
545.025	1	16
545.195	1	7
545.365	1	20
545.535	1	14
545.705	1	23
545.875	1	30
546.045	1	19
546.216	1	14
546.386	1	26
546.556	1	22
546.726	1	25
546.896	1	19
547.066	1	17
547.236	1	25
547.406	1	10
547.576	1	18
547.746	1	17
547.916	1	15
548.086	1	22
548.256	1	22
548.426	1	22
548.596	1	10
548.766	1	23
548.936	1	14
549.106	1	27
549.276	1	11
549.446	1	21
549.616	1	35
549.786	1	13
549.956	1	22
550.126	1	26
550.296	1	23
550.466	1	15
550.636	1	18
550.806	1	18
550.976	1	12
551.146	1	21
551.316	1	27
551.486	1	33
551.656	1	11
551.826	1	12
551.996	1	21
552.166	1	18
552.336	1	20
552.506	1	20
552.676	1	16
552.846	1	22
553.016	1	26
553.186	1	26
553.356	1	26
553.526	1	12
553.696	1	7
553.866	1	9
554.036	1	12
554.206	1	8
554.376	1	18
554.546	1	21
554.716	1	26
554.886	1	18
555.056	1	15
555.226	1	18
555.396	1	11
555.566	1	18
555.736	1	10
555.906	1	20
556.076	1	31
556.246	1	18
556.416	1	24
556.586	1	25
556.756	1	32
556.926	1	31
557.096	1	19
557.266	1	18
557.436	1	23
557.606	1	16
557.776	1	16
557.946	1	26
558.116	1	24
558.286	1	16
558.456	1	15
558.626	1	30
558.796	1	14
558.966	1	16
559.136	1	10
559.306	1	9
559.476	1	20
559.646	1	4
559.816	1	28
559.986	1	6
560.155	1	25
560.325	1	15
560.495	1	10
560.665	1	30
560.835	1	23
561.005	1	13
561.175	1	16
561.345	1	14
561.515	1	7
561.685	1	13
561.855	1	10
562.025	1	17
562.195	1	19
562.365	1	30
562.535	1	16
562.705	1	26
562.875	1	23
563.045	1	18
563.215	1	17
563.385	1	12
563.555	1	12
563.725	1	9
563.895	1	13
564.064	1	16
564.234	1	19
564.404	1	9
564.574	1	17
564.744	1	12
564.914	1	11
565.084	1	11
565.254	1	14
565.424	1	21
565.594	1	22
565.764	1	19
565.934	1	16
566.104	1	15
566.274	1	6
566.444	1	8
566.614	1	5
566.783	1	11
566.953	1	11
567.123	1	7
567.293	1	17
567.463	1	12
567.633	1	20
567.803	1	10
567.973	1	19
568.143	1	12
568.313	1	10
568.483	1	16
568.653	1	17
568.823	1	19
568.993	1	19
569.162	1	18
569.332	1	18
569.502	1	13
569.672	1	12
569.842	1	12
570.012	1	15
570.182	1	11
570.352	1	5
570.522	1	25
570.692	1	13
570.862	1	10
571.031	1	7
571.201	1	7
571.371	1	2
571.541	1	7
571.711	1	26
571.881	1	10
572.051	1	12
572.221	1	11
572.391	1	22
572.561	1	10
572.731	1	16
572.900	1	10
573.070	1	20
573.240	1	10
573.410	1	17
573.580	1	7
573.750	1	10
573.920	1	9
574.090	1	6
574.260	1	10
574.430	1	9
574.599	1	17
574.769	1	16
574.939	1	18
575.109	1	6
575.279	1	1
575.449	1	13
575.619	1	3
575.789	1	13
575.959	1	-1
576.128	1	28
576.298	1	15
576.468	1	7
576.638	1	15
576.808	1	19
576.978	1	11
577.148	1	9
577.318	1	10
577.487	1	12
577.657	1	9
577.827	1	7
577.997	1	6
578.167	1	2
578.337	1	24
578.507	1	5
578.677	1	1
578.846	1	-1
579.016	1	19
579.186	1	7
579.356	1	1
579.526	1	6
579.696	1	22
579.866	1	-1
580.036	1	5
580.205	1	16
580.375	1	14
580.545	1	12
580.715	1	10
580.885	1	8
581.055	1	16
581.225	1	-2
581.394	1	6
581.564	1	15
581.734	1	2
581.904	1	9
582.074	1	7
582.244	1	16
582.414	1	-10
582.583	1	-1
582.753	1	-5
582.923	1	9
583.093	1	10
583.263	1	23
583.433	1	18
583.603	1	15
583.772	1	3
583.942	1	17
584.112	1	14
584.282	1	16
584.452	1	3
584.622	1	7
584.791	1	8
584.961	1	13
585.131	1	7
585.301	1	14
585.471	1	-2
585.641	1	8
585.811	1	10
585.980	1	4
586.150	1	16
586.320	1	4
586.490	1	2
586.660	1	3
586.830	1	12
586.999	1	-1
587.169	1	12
587.339	1	11
587.509	1	11
587.679	1	3
587.849	1	8
588.018	1	5
588.188	1	7
588.358	1	8
588.528	1	2
588.698	1	11
588.867	1	13
589.037	1	10
589.207	1	-5
589.377	1	8
589.547	1	9
589.717	1	11
589.886	1	15
590.056	1	5
590.226	1	31
590.396	1	12
590.566	1	0
590.735	1	-2
590.905	1	5
591.075	1	11
591.245	1	8
591.415	1	9
591.585	1	7
591.754	1	15
591.924	1	18
592.094	1	17
592.264	1	5
592.434	1	7
592.603	1	10
592.773	1	-7
592.943	1	12
593.113	1	12
593.283	1	7
593.452	1	7
593.622	1	3
593.792	1	13
593.962	1	16
594.132	1	15
594.301	1	19
594.471	1	8
594.641	1	-12
594.811	1	10
594.981	1	13
595.150	1	10
595.320	1	4
595.490	1	12
595.660	1	9
595.829	1	15
595.999	1	4
596.169	1	11
596.339	1	13
596.509	1	12
596.678	1	14
596.848	1	19
597.018	1	12
597.188	1	13
597.358	1	6
597.527	1	-4
597.697	1	4
597.867	1	20
598.037	1	16
598.206	1	2
598.376	1	8
598.546	1	11
598.716	1	9
598.885	1	13
599.055	1	6
599.225	1	1
599.395	1	8
599.565	1	-3
599.734	1	9
599.904	1	7
600.074	1	6
600.244	1	14
600.413	1	12
600.583	1	3
600.753	1	4
600.923	1	11
601.092	1	13
601.262	1	4
601.432	1	11
601.602	1	4
601.771	1	4
601.941	1	20
602.111	1	5
602.281	1	5
602.451	1	9
602.620	1	-1
602.790	1	14
602.960	1	0
603.130	1	9
603.299	1	12
603.469	1	3
603.639	1	-1
603.809	1	-6
603.978	1	3
604.148	1	6
604.318	1	12
604.487	1	5
604.657	1	6
604.827	1	16
604.997	1	-1
605.166	1	6
605.336	1	7
605.506	1	10
605.676	1	16
605.845	1	-5
606.015	1	-2
606.185	1	-3
606.355	1	11
606.524	1	11
606.694	1	7
606.864	1	-2
607.034	1	5
607.203	1	2
607.373	1	7
607.543	1	13
607.712	1	14
607.882	1	10
608.052	1	11
608.222	1	2
608.391	1	11
608.561	1	12
608.731	1	4
608.901	1	7
609.070	1	1
609.240	1	5
609.410	1	11
609.579	1	6
609.749	1	8
609.919	1	10
610.089	1	1
610.258	1	17
610.428	1	5
610.598	1	-1
610.767	1	4
610.937	1	-1
611.107	1	11
611.277	1	8
611.446	1	7
611.616	1	8
611.786	1	8
611.955	1	-4
612.125	1	5
612.295	1	5
612.465	1	8
612.634	1	7
612.804	1	16
612.974	1	7
613.143	1	9
613.313	1	10
613.483	1	-7
613.652	1	2
613.822	1	2
613.992	1	4
614.162	1	6
614.331	1	7
614.501	1	-9
614.671	1	-2
614.840	1	11
615.010	1	7
615.180	1	11
615.349	1	5
615.519	1	8
615.689	1	-1
615.858	1	2
616.028	1	7
616.198	1	17
616.368	1	12
616.537	1	-8
616.707	1	-6
616.877	1	12
617.046	1	7
617.216	1	7
617.386	1	2
617.555	1	17
617.725	1	5
617.895	1	13
618.064	1	0
618.234	1	2
618.404	1	-4
618.573	1	5
618.743	1	7
618.913	1	10
619.082	1	-1
619.252	1	5
619.422	1	5
619.591	1	-2
619.761	1	2
619.931	1	10
620.100	1	5
620.270	1	10
620.440	1	-4
620.609	1	11
620.779	1	-7
620.949	1	6
621.118	1	6
621.288	1	14
621.458	1	4
621.627	1	-5
621.797	1	7
621.967	1	-5
622.136	1	4
622.306	1	7
622.476	1	12
622.645	1	14
622.815	1	0
622.985	1	14
623.154	1	-3
623.324	1	-1
623.494	1	16
623.663	1	7
623.833	1	-2
624.002	1	12
624.172	1	9
624.342	1	9
624.511	1	9
624.681	1	3
624.851	1	3
625.020	1	9
625.190	1	10
625.360	1	11
625.529	1	4
625.699	1	-2
625.869	1	11
626.038	1	5
626.208	1	9
626.377	1	12
626.547	1	3
626.717	1	14
626.886	1	15
627.056	1	7
627.226	1	4
627.395	1	4
627.565	1	-2
627.735	1	12
627.904	1	-2
628.074	1	2
628.243	1	-5
628.413	1	18
628.583	1	1
628.752	1	9
628.922	1	10
629.091	1	3
629.261	1	9
629.431	1	6
629.600	1	-3
629.770	1	12
629.940	1	9
630.109	1	4
630.279	1	-7
630.448	1	10
630.618	1	3
630.788	1	5
630.957	1	-2
631.127	1	11
631.297	1	10
631.466	1	9
631.636	1	-5
631.805	1	6
631.975	1	-2
632.145	1	-5
632.314	1	-7
632.484	1	1
632.653	1	-8
632.823	1	3
632.993	1	1
633.162	1	9
633.332	1	14
633.501	1	10
633.671	1	12
633.841	1	17
634.010	1	1
634.180	1	1
634.349	1	6
634.519	1	12
634.689	1	12
634.858	1	-1
635.028	1	11
635.197	1	12
635.367	1	7
635.537	1	13
635.706	1	0
635.876	1	6
636.045	1	-8
636.215	1	6
636.384	1	7
636.554	1	-4
636.724	1	4
636.893	1	0
637.063	1	14
637.232	1	-5
637.402	1	3
637.572	1	-4
637.741	1	7
637.911	1	4
638.080	1	11
638.250	1	8
638.419	1	1
638.589	1	-8
638.759	1	0
638.928	1	8
639.098	1	3
639.267	1	5
639.437	1	2
639.606	1	4
639.776	1	4
639.946	1	4
640.115	1	13
640.285	1	6
640.454	1	0
640.624	1	-6
640.793	1	8
640.963	1	3
641.132	1	-6
641.302	1	19
641.472	1	-5
641.641	1	13
641.811	1	8
641.980	1	3
642.150	1	-10
642.319	1	8
642.489	1	7
642.659	1	2
642.828	1	-4
642.998	1	5
643.167	1	9
643.337	1	6
643.506	1	-5
643.676	1	7
643.845	1	-3
644.015	1	8
644.184	1	9
644.354	1	-1
644.524	1	-1
644.693	1	-4
644.863	1	14
645.032	1	11
645.202	1	11
645.371	1	2
645.541	1	-2
645.710	1	4
645.880	1	0
646.049	1	7
646.219	1	9
646.388	1	4
646.558	1	11
646.728	1	11
646.897	1	-1
647.067	1	3
647.236	1	18
647.406	1	1
647.575	1	-1
647.745	1	1
647.914	1	-4
648.084	1	4
648.253	1	-4
648.423	1	4
648.592	1	1
648.762	1	1
648.931	1	3
649.101	1	11
649.270	1	6
649.440	1	6
649.610	1	3
649.779	1	14
649.949	1	-3
650.118	1	8
650.288	1	6
650.457	1	-2
650.627	1	5
650.796	1	13
650.966	1	11
651.135	1	3
651.305	1	8
651.474	1	6
651.644	1	9
651.813	1	4
651.983	1	5
652.152	1	11
652.322	1	4
652.491	1	8
652.661	1	8
652.830	1	6
653.000	1	3
653.169	1	1
653.339	1	-5
653.508	1	3
653.678	1	9
653.847	1	-6
654.017	1	14
654.186	1	8
654.356	1	5
654.525	1	-2
654.695	1	5
654.864	1	2
655.034	1	12
655.203	1	1
655.373	1	1
655.542	1	-5
655.712	1	2
655.881	1	11
656.051	1	6
656.220	1	12
656.390	1	0
656.559	1	8
656.729	1	-6
656.898	1	5
657.068	1	5
657.237	1	11
657.406	1	9
657.576	1	3
657.745	1	5
657.915	1	-2
658.084	1	5
658.254	1	1
658.423	1	23
658.593	1	1
658.762	1	-1
658.932	1	-2
659.101	1	7
659.271	1	7
659.440	1	7
659.610	1	11
659.779	1	-2
659.949	1	11
660.118	1	6
660.288	1	8
660.457	1	17
660.626	1	3
660.796	1	1
660.965	1	-7
661.135	1	-8
661.304	1	12
661.474	1	6
661.643	1	4
661.813	1	1
661.982	1	-2
662.152	1	8
662.321	1	17
662.491	1	3
662.660	1	12
662.829	1	6
662.999	1	9
663.168	1	11
663.338	1	12
663.507	1	1
663.677	1	4
663.846	1	1
664.016	1	11
664.185	1	-5
664.354	1	-2
664.524	1	15
664.693	1	5
664.863	1	2
665.032	1	14
665.202	1	4
665.371	1	0
665.541	1	-5
665.710	1	2
665.879	1	-3
666.049	1	1
666.218	1	-4
666.388	1	4
666.557	1	11
666.727	1	1
666.896	1	11
667.065	1	-4
667.235	1	0
667.404	1	9
667.574	1	9
667.743	1	16
667.913	1	4
668.082	1	12
668.251	1	6
668.421	1	6
668.590	1	13
668.760	1	-11
668.929	1	7
669.099	1	5
669.268	1	7
669.437	1	-2
669.607	1	-3
669.776	1	-11
669.946	1	22
670.115	1	-3
670.285	1	-2
670.454	1	16
670.623	1	9
670.793	1	3
670.962	1	10
671.132	1	0
671.301	1	-4
671.470	1	7
671.640	1	1
671.809	1	15
671.979	1	-3
672.148	1	-4
672.317	1	5
672.487	1	14
672.656	1	10
672.826	1	2
672.995	1	7
673.164	1	12
673.334	1	8
673.503	1	-2
673.673	1	7
673.842	1	-8
674.011	1	11
674.181	1	5
674.350	1	-1
674.520	1	0
674.689	1	-3
674.858	1	2
675.028	1	-3
675.197	1	5
675.367	1	-2
675.536	1	-2
675.705	1	10
675.875	1	6
676.044	1	0
676.214	1	6
676.383	1	-1
676.552	1	-7
676.722	1	2
676.891	1	4
677.060	1	8
677.230	1	7
677.399	1	8
677.569	1	9
677.738	1	2
677.907	1	-14
678.077	1	-13
678.246	1	0
678.416	1	7
678.585	1	15
678.754	1	-1
678.924	1	-7
679.093	1	-1
679.262	1	5
679.432	1	19
679.601	1	-17
679.771	1	18
679.940	1	4
680.109	1	3
680.279	1	5
680.448	1	11
680.617	1	9
680.787	1	10
680.956	1	6
681.125	1	4
681.295	1	10
681.464	1	6
681.634	1	8
681.803	1	7
681.972	1	0
682.142	1	0
682.311	1	5
682.480	1	9
682.650	1	0
682.819	1	2
682.988	1	2
683.158	1	-1
683.327	1	3
683.496	1	3
683.666	1	5
683.835	1	-1
684.004	1	3
684.174	1	-4
684.343	1	3
684.512	1	1
684.682	1	4
684.851	1	0
685.021	1	12
685.190	1	4
685.359	1	3
685.529	1	-1
685.698	1	0
685.867	1	9
686.037	1	10
686.206	1	0
686.375	1	4
686.545	1	4
686.714	1	6
686.883	1	9
687.053	1	3
687.222	1	4
687.391	1	6
687.561	1	3
687.730	1	6
687.899	1	8
688.069	1	0
688.238	1	10
688.407	1	6
688.577	1	15
688.746	1	4
