340.368	1	10
340.539	1	8
340.710	1	5
340.881	1	0
341.052	1	0
341.223	1	19
341.394	1	-10
341.565	1	7
341.737	1	11
341.908	1	-14
342.079	1	-6
342.250	1	-8
342.421	1	4
342.592	1	0
342.763	1	7
342.934	1	3
343.105	1	-5
343.276	1	9
343.447	1	-6
343.618	1	-4
343.789	1	0
343.960	1	0
344.131	1	1
344.302	1	0
344.473	1	2
344.644	1	1
344.815	1	-2
344.986	1	6
345.157	1	11
345.328	1	-10
345.499	1	4
345.670	1	0
345.841	1	-1
346.012	1	4
346.183	1	15
346.354	1	7
346.526	1	-5
346.697	1	5
346.868	1	-5
347.039	1	-8
347.210	1	-4
347.381	1	-4
347.552	1	5
347.723	1	-5
347.894	1	3
348.065	1	0
348.236	1	8
348.407	1	1
348.578	1	3
348.749	1	-8
348.920	1	0
349.091	1	8
349.262	1	-5
349.433	1	-7
349.604	1	6
349.775	1	7
349.946	1	-10
350.117	1	2
350.288	1	8
350.459	1	0
350.630	1	2
350.801	1	9
350.972	1	5
351.143	1	10
351.314	1	-5
351.485	1	3
351.656	1	-5
351.827	1	0
351.998	1	7
352.169	1	8
352.340	1	4
352.511	1	8
352.682	1	0
352.853	1	0
353.024	1	-1
353.195	1	-3
353.366	1	5
353.537	1	-1
353.708	1	5
353.879	1	-10
354.050	1	6
354.221	1	4
354.392	1	8
354.563	1	3
354.734	1	6
354.905	1	3
355.076	1	3
355.247	1	3
355.418	1	1
355.589	1	-1
355.760	1	8
355.931	1	11
356.102	1	0
356.273	1	2
356.444	1	2
356.615	1	3
356.785	1	3
356.956	1	-1
357.127	1	4
357.298	1	12
357.469	1	3
357.640	1	-2
357.811	1	-5
357.982	1	-4
358.153	1	6
358.324	1	8
358.495	1	2
358.666	1	4
358.837	1	10
359.008	1	9
359.179	1	1
359.350	1	4
359.521	1	6
359.692	1	3
359.863	1	8
360.034	1	17
360.205	1	-7
360.376	1	-2
360.547	1	-4
360.718	1	7
360.889	1	3
361.060	1	-1
361.231	1	-5
361.401	1	2
361.572	1	0
361.743	1	9
361.914	1	0
362.085	1	11
362.256	1	-1
362.427	1	-8
362.598	1	-6
362.769	1	-2
362.940	1	2
363.111	1	7
363.282	1	-6
363.453	1	-5
363.624	1	-3
363.795	1	7
363.966	1	2
364.137	1	2
364.308	1	5
364.478	1	0
364.649	1	1
364.820	1	0
364.991	1	2
365.162	1	2
365.333	1	-9
365.504	1	4
365.675	1	-1
365.846	1	-6
366.017	1	5
366.188	1	3
366.359	1	-10
366.530	1	5
366.701	1	10
366.871	1	8
367.042	1	1
367.213	1	5
367.384	1	-12
367.555	1	9
367.726	1	1
367.897	1	12
368.068	1	8
368.239	1	-7
368.410	1	-2
368.581	1	9
368.752	1	17
368.923	1	4
369.093	1	1
369.264	1	-3
369.435	1	2
369.606	1	-4
369.777	1	7
369.948	1	-4
370.119	1	5
370.290	1	7
370.461	1	5
370.632	1	0
370.803	1	13
370.973	1	-3
371.144	1	3
371.315	1	-11
371.486	1	-2
371.657	1	-3
371.828	1	11
371.999	1	-7
372.170	1	3
372.341	1	0
372.512	1	8
372.682	1	3
372.853	1	1
373.024	1	5
373.195	1	-8
373.366	1	-1
373.537	1	14
373.708	1	-3
373.879	1	3
374.050	1	0
374.220	1	-1
374.391	1	3
374.562	1	-2
374.733	1	-4
374.904	1	2
375.075	1	3
375.246	1	-1
375.417	1	7
375.588	1	0
375.758	1	-8
375.929	1	5
376.100	1	1
376.271	1	1
376.442	1	-10
376.613	1	3
376.784	1	5
376.955	1	-4
377.125	1	0
377.296	1	2
377.467	1	3
377.638	1	2
377.809	1	1
377.980	1	5
378.151	1	6
378.321	1	8
378.492	1	0
378.663	1	4
378.834	1	11
379.005	1	-2
379.176	1	2
379.347	1	-1
379.518	1	2
379.688	1	-4
379.859	1	4
380.030	1	8
380.201	1	11
380.372	1	3
380.543	1	10
380.714	1	2
380.884	1	2
381.055	1	-2
381.226	1	6
381.397	1	1
381.568	1	1
381.739	1	-1
381.910	1	1
382.080	1	8
382.251	1	-2
382.422	1	-4
382.593	1	-2
382.764	1	-2
382.935	1	7
383.105	1	-10
383.276	1	-4
383.447	1	4
383.618	1	6
383.789	1	-3
383.960	1	-3
384.130	1	1
384.301	1	7
384.472	1	-7
384.643	1	-3
384.814	1	-3
384.985	1	0
385.156	1	10
385.326	1	7
385.497	1	3
385.668	1	-2
385.839	1	6
386.010	1	0
386.180	1	-5
386.351	1	-7
386.522	1	-3
386.693	1	4
386.864	1	5
387.035	1	10
387.205	1	4
387.376	1	3
387.547	1	6
387.718	1	1
387.889	1	0
388.060	1	3
388.230	1	9
388.401	1	6
388.572	1	17
388.743	1	-2
388.914	1	-1
389.084	1	10
389.255	1	4
389.426	1	-2
389.597	1	5
389.768	1	0
389.939	1	5
390.109	1	-2
390.280	1	2
390.451	1	10
390.622	1	1
390.793	1	8
390.963	1	-6
391.134	1	-3
391.305	1	-9
391.476	1	2
391.647	1	-5
391.817	1	0
391.988	1	-4
392.159	1	13
392.330	1	-4
392.501	1	3
392.671	1	0
392.842	1	1
393.013	1	7
393.184	1	-1
393.355	1	6
393.525	1	-7
393.696	1	3
393.867	1	13
394.038	1	1
394.208	1	6
394.379	1	1
394.550	1	-1
394.721	1	-1
394.892	1	-2
395.062	1	9
395.233	1	3
395.404	1	3
395.575	1	-1
395.746	1	10
395.916	1	7
396.087	1	8
396.258	1	6
396.429	1	-2
396.599	1	0
396.770	1	6
396.941	1	4
397.112	1	-7
397.283	1	-3
397.453	1	10
397.624	1	-2
397.795	1	-7
397.966	1	9
398.136	1	-7
398.307	1	-2
398.478	1	2
398.649	1	0
398.819	1	2
398.990	1	-5
399.161	1	-1
399.332	1	4
399.503	1	11
399.673	1	-10
399.844	1	-3
400.015	1	-3
400.186	1	1
400.356	1	13
400.527	1	7
400.698	1	-7
400.869	1	-16
401.039	1	-8
401.210	1	3
401.381	1	-9
401.552	1	-4
401.722	1	7
401.893	1	9
402.064	1	6
402.235	1	-7
402.405	1	1
402.576	1	-8
402.747	1	-1
402.918	1	8
403.088	1	5
403.259	1	0
403.430	1	-3
403.601	1	0
403.771	1	14
403.942	1	2
404.113	1	4
404.284	1	0
404.454	1	6
404.625	1	-13
404.796	1	-12
404.967	1	-2
405.137	1	3
405.308	1	9
405.479	1	5
405.649	1	9
405.820	1	13
405.991	1	-3
406.162	1	5
406.332	1	-21
406.503	1	-6
406.674	1	5
406.845	1	2
407.015	1	6
407.186	1	9
407.357	1	10
407.527	1	9
407.698	1	6
407.869	1	10
408.040	1	0
408.210	1	5
408.381	1	-10
408.552	1	-4
408.722	1	-6
408.893	1	-11
409.064	1	0
409.235	1	2
409.405	1	9
409.576	1	-1
409.747	1	2
409.917	1	6
410.088	1	-8
410.259	1	-2
410.430	1	-4
410.600	1	-6
410.771	1	1
410.942	1	-10
411.112	1	-2
411.283	1	-5
411.454	1	-2
411.625	1	1
411.795	1	4
411.966	1	8
412.137	1	6
412.307	1	2
412.478	1	2
412.649	1	-3
412.819	1	12
412.990	1	1
413.161	1	-3
413.332	1	7
413.502	1	0
413.673	1	19
413.844	1	11
414.014	1	-6
414.185	1	-1
414.356	1	3
414.526	1	6
414.697	1	-1
414.868	1	1
415.038	1	1
415.209	1	-2
415.380	1	12
415.550	1	5
415.721	1	2
415.892	1	7
416.063	1	3
416.233	1	3
416.404	1	-4
416.575	1	-2
416.745	1	-3
416.916	1	-1
417.087	1	7
417.257	1	3
417.428	1	0
417.599	1	7
417.769	1	-4
417.940	1	-1
418.111	1	-5
418.281	1	-2
418.452	1	0
418.623	1	2
418.793	1	4
418.964	1	3
419.135	1	5
419.305	1	-2
419.476	1	1
419.647	1	6
419.817	1	-3
419.988	1	-6
420.159	1	-3
420.329	1	-2
420.500	1	-1
420.671	1	-3
420.841	1	8
421.012	1	-4
421.183	1	13
421.353	1	8
421.524	1	9
421.695	1	5
421.865	1	1
422.036	1	-1
422.206	1	-2
422.377	1	4
422.548	1	3
422.718	1	-6
422.889	1	-5
423.060	1	-3
423.230	1	5
423.401	1	11
423.572	1	19
423.742	1	-6
423.913	1	3
424.084	1	-3
424.254	1	-3
424.425	1	-3
424.595	1	-9
424.766	1	6
424.937	1	12
425.107	1	3
425.278	1	2
425.449	1	-5
425.619	1	8
425.790	1	3
425.961	1	0
426.131	1	-9
426.302	1	5
426.472	1	-2
426.643	1	-11
426.814	1	-1
426.984	1	-2
427.155	1	-12
427.326	1	-7
427.496	1	-12
427.667	1	5
427.837	1	4
428.008	1	12
428.179	1	5
428.349	1	-6
428.520	1	3
428.691	1	-5
428.861	1	0
429.032	1	4
429.202	1	6
429.373	1	4
429.544	1	0
429.714	1	0
429.885	1	-3
430.055	1	3
430.226	1	3
430.397	1	-2
430.567	1	3
430.738	1	-10
430.909	1	0
431.079	1	5
431.250	1	-4
431.420	1	0
431.591	1	-2
431.762	1	-4
431.932	1	-3
432.103	1	-3
432.273	1	0
432.444	1	-7
432.615	1	-4
432.785	1	-3
432.956	1	7
433.126	1	-1
433.297	1	1
433.468	1	-5
433.638	1	0
433.809	1	-2
433.979	1	-2
434.150	1	13
434.320	1	3
434.491	1	6
434.662	1	13
434.832	1	-1
435.003	1	6
435.173	1	3
435.344	1	1
435.515	1	-3
435.685	1	1
435.856	1	1
436.026	1	1
436.197	1	2
436.368	1	5
436.538	1	-5
436.709	1	-10
436.879	1	4
437.050	1	8
437.220	1	-8
437.391	1	6
437.562	1	3
437.732	1	9
437.903	1	-5
438.073	1	1
438.244	1	-10
438.414	1	-3
438.585	1	6
438.756	1	2
438.926	1	6
439.097	1	8
439.267	1	4
439.438	1	6
439.608	1	7
439.779	1	-6
439.949	1	-5
440.120	1	-6
440.291	1	6
440.461	1	-3
440.632	1	5
440.802	1	4
440.973	1	10
441.143	1	3
441.314	1	-8
441.485	1	6
441.655	1	-4
441.826	1	1
441.996	1	3
442.167	1	-2
442.337	1	0
442.508	1	7
442.678	1	2
442.849	1	-3
443.019	1	8
443.190	1	9
443.361	1	8
443.531	1	1
443.702	1	-7
443.872	1	1
444.043	1	7
444.213	1	9
444.384	1	1
444.554	1	-5
444.725	1	3
444.895	1	-7
445.066	1	1
445.237	1	2
445.407	1	0
445.578	1	7
445.748	1	5
445.919	1	1
446.089	1	2
446.260	1	-4
446.430	1	-6
446.601	1	13
446.771	1	-7
446.942	1	-2
447.112	1	5
447.283	1	-9
447.453	1	0
447.624	1	-10
447.794	1	7
447.965	1	7
448.135	1	0
448.306	1	-5
448.477	1	4
448.647	1	-2
448.818	1	2
448.988	1	-6
449.159	1	11
449.329	1	3
449.500	1	1
449.670	1	3
449.841	1	0
450.011	1	11
450.182	1	-9
450.352	1	3
450.523	1	7
450.693	1	2
450.864	1	0
451.034	1	5
451.205	1	5
451.375	1	2
451.546	1	0
451.716	1	2
451.887	1	5
452.057	1	8
452.228	1	7
452.398	1	3
452.569	1	-9
452.739	1	-2
452.910	1	4
453.080	1	6
453.251	1	-4
453.421	1	3
453.592	1	11
453.762	1	-4
453.933	1	-6
454.103	1	4
454.274	1	6
454.444	1	5
454.615	1	12
454.785	1	2
454.956	1	11
455.126	1	-5
455.297	1	-3
455.467	1	3
455.638	1	12
455.808	1	0
455.979	1	6
456.149	1	5
456.320	1	6
456.490	1	-8
456.661	1	-1
456.831	1	-1
457.001	1	3
457.172	1	4
457.342	1	3
457.513	1	13
457.683	1	10
457.854	1	5
458.024	1	-7
458.195	1	-5
458.365	1	17
458.536	1	-4
458.706	1	5
458.877	1	-3
459.047	1	7
459.218	1	2
459.388	1	11
459.559	1	6
459.729	1	-1
459.899	1	-3
460.070	1	10
460.240	1	8
460.411	1	-1
460.581	1	0
460.752	1	6
460.922	1	12
461.093	1	-2
461.263	1	-2
461.434	1	11
461.604	1	9
461.775	1	5
461.945	1	13
462.115	1	3
462.286	1	-11
462.456	1	-2
462.627	1	2
462.797	1	-2
462.968	1	0
463.138	1	-3
463.309	1	-1
463.479	1	3
463.649	1	1
463.820	1	2
463.990	1	9
464.161	1	-3
464.331	1	5
464.502	1	2
464.672	1	-11
464.843	1	4
465.013	1	-2
465.183	1	0
465.354	1	6
465.524	1	5
465.695	1	2
465.865	1	3
466.036	1	1
466.206	1	6
466.376	1	-4
466.547	1	-1
466.717	1	2
466.888	1	0
467.058	1	3
467.229	1	6
467.399	1	11
467.569	1	14
467.740	1	1
467.910	1	1
468.081	1	-1
468.251	1	-2
468.422	1	-3
468.592	1	3
468.762	1	-10
468.933	1	2
469.103	1	4
469.274	1	-5
469.444	1	4
469.614	1	-2
469.785	1	9
469.955	1	2
470.126	1	4
470.296	1	3
470.467	1	-12
470.637	1	2
470.807	1	13
470.978	1	-2
471.148	1	2
471.319	1	1
471.489	1	-8
471.659	1	6
471.830	1	6
472.000	1	2
472.171	1	-5
472.341	1	-7
472.511	1	10
472.682	1	0
472.852	1	4
473.023	1	4
473.193	1	-1
473.363	1	3
473.534	1	-9
473.704	1	0
473.875	1	-1
474.045	1	1
474.215	1	6
474.386	1	11
474.556	1	-3
474.727	1	-5
474.897	1	4
475.067	1	-1
475.238	1	-8
475.408	1	-4
475.578	1	7
475.749	1	-2
475.919	1	-3
476.090	1	1
476.260	1	-6
476.430	1	10
476.601	1	11
476.771	1	-4
476.942	1	5
477.112	1	6
477.282	1	-3
477.453	1	-1
477.623	1	10
477.793	1	-1
477.964	1	1
478.134	1	-2
478.305	1	5
478.475	1	7
478.645	1	-3
478.816	1	1
478.986	1	0
479.156	1	0
479.327	1	-1
479.497	1	10
479.667	1	12
479.838	1	-10
480.008	1	-3
480.179	1	-7
480.349	1	11
480.519	1	3
480.690	1	-2
480.860	1	8
481.030	1	2
481.201	1	-1
481.371	1	4
481.541	1	6
481.712	1	1
481.882	1	-1
482.053	1	3
482.223	1	-6
482.393	1	1
482.564	1	-1
482.734	1	2
482.904	1	2
483.075	1	-2
483.245	1	1
483.415	1	1
483.586	1	9
483.756	1	-4
483.926	1	-8
484.097	1	3
484.267	1	-2
484.437	1	8
484.608	1	0
484.778	1	-5
484.948	1	1
485.119	1	-7
485.289	1	6
485.459	1	-4
485.630	1	0
485.800	1	3
485.970	1	7
486.141	1	4
486.311	1	14
486.481	1	3
486.652	1	-7
486.822	1	-8
486.992	1	8
487.163	1	-3
487.333	1	1
487.503	1	9
487.674	1	-4
487.844	1	2
488.014	1	6
488.185	1	-1
488.355	1	4
488.525	1	-2
488.696	1	2
488.866	1	-9
489.036	1	9
489.207	1	5
489.377	1	3
489.547	1	0
489.718	1	0
489.888	1	9
490.058	1	3
490.228	1	-2
490.399	1	11
490.569	1	2
490.739	1	7
490.910	1	-7
491.080	1	1
491.250	1	5
491.421	1	11
491.591	1	-8
491.761	1	-4
491.932	1	7
492.102	1	-11
492.272	1	0
492.442	1	0
492.613	1	7
492.783	1	8
492.953	1	0
493.124	1	16
493.294	1	5
493.464	1	4
493.635	1	-2
493.805	1	1
493.975	1	0
494.145	1	-3
494.316	1	-1
494.486	1	4
494.656	1	2
494.827	1	7
494.997	1	3
495.167	1	2
495.337	1	0
495.508	1	-1
495.678	1	6
495.848	1	-3
496.019	1	6
496.189	1	-6
496.359	1	-5
496.529	1	1
496.700	1	6
496.870	1	8
497.040	1	1
497.211	1	2
497.381	1	-3
497.551	1	6
497.721	1	-11
497.892	1	7
498.062	1	0
498.232	1	3
498.403	1	-4
498.573	1	9
498.743	1	7
498.913	1	6
499.084	1	0
499.254	1	-15
499.424	1	-5
499.594	1	-4
499.765	1	6
499.935	1	-5
500.105	1	7
500.275	1	-3
500.446	1	-1
500.616	1	-8
500.786	1	12
500.956	1	7
501.127	1	5
501.297	1	0
501.467	1	6
501.638	1	5
501.808	1	3
501.978	1	-10
502.148	1	-5
502.319	1	12
502.489	1	0
502.659	1	6
502.829	1	5
503.000	1	6
503.170	1	-1
503.340	1	4
503.510	1	-10
503.681	1	-4
503.851	1	3
504.021	1	5
504.191	1	7
504.362	1	3
504.532	1	2
504.702	1	-7
504.872	1	-9
505.042	1	-3
505.213	1	9
505.383	1	-1
505.553	1	2
505.723	1	5
505.894	1	-4
506.064	1	0
506.234	1	6
506.404	1	6
506.575	1	-4
506.745	1	14
506.915	1	8
507.085	1	2
507.256	1	-12
507.426	1	3
507.596	1	-4
507.766	1	-2
507.936	1	-5
508.107	1	12
508.277	1	-9
508.447	1	-4
508.617	1	-6
508.788	1	8
508.958	1	-1
509.128	1	6
509.298	1	-9
509.468	1	9
509.639	1	0
509.809	1	8
509.979	1	5
510.149	1	15
510.319	1	0
510.490	1	5
510.660	1	7
510.830	1	0
511.000	1	3
511.171	1	-7
511.341	1	-5
511.511	1	6
511.681	1	9
511.851	1	5
512.022	1	-6
512.192	1	-3
512.362	1	-5
512.532	1	-6
512.702	1	12
512.873	1	11
513.043	1	-1
513.213	1	10
513.383	1	-6
513.553	1	9
513.724	1	-13
513.894	1	3
514.064	1	10
514.234	1	10
514.404	1	2
514.575	1	-8
514.745	1	3
514.915	1	-15
515.085	1	-1
515.255	1	4
515.425	1	-4
515.596	1	13
515.766	1	-1
515.936	1	7
516.106	1	5
516.276	1	2
516.447	1	0
516.617	1	1
516.787	1	1
516.957	1	7
517.127	1	4
517.297	1	-3
517.468	1	-11
517.638	1	-12
517.808	1	4
517.978	1	11
518.148	1	1
518.319	1	9
518.489	1	1
518.659	1	1
518.829	1	-2
518.999	1	10
519.169	1	3
519.340	1	4
519.510	1	3
519.680	1	3
519.850	1	-11
520.020	1	4
520.190	1	-5
520.361	1	11
520.531	1	5
520.701	1	8
520.871	1	-4
521.041	1	4
521.211	1	13
521.382	1	-6
521.552	1	-4
521.722	1	8
521.892	1	5
522.062	1	5
522.232	1	12
522.402	1	11
522.573	1	0
522.743	1	-2
522.913	1	10
523.083	1	8
523.253	1	4
523.423	1	2
523.593	1	2
523.764	1	2
523.934	1	10
524.104	1	0
524.274	1	0
524.444	1	1
524.614	1	3
524.784	1	-4
524.955	1	9
525.125	1	4
525.295	1	-1
525.465	1	0
525.635	1	2
525.805	1	9
525.975	1	-7
526.146	1	4
526.316	1	0
526.486	1	10
526.656	1	2
526.826	1	2
526.996	1	7
527.166	1	-4
527.337	1	-5
527.507	1	15
527.677	1	2
527.847	1	0
528.017	1	-8
528.187	1	5
528.357	1	10
528.527	1	8
528.698	1	-7
528.868	1	3
529.038	1	-3
529.208	1	-6
529.378	1	1
529.548	1	2
529.718	1	7
529.888	1	11
530.058	1	4
530.229	1	7
530.399	1	-11
530.569	1	-8
530.739	1	-6
530.909	1	-1
531.079	1	-11
531.249	1	-2
531.419	1	11
531.589	1	-4
531.760	1	5
531.930	1	6
532.100	1	1
532.270	1	8
532.440	1	7
532.610	1	10
532.780	1	4
532.950	1	1
533.120	1	10
533.290	1	-2
533.461	1	-7
533.631	1	4
533.801	1	1
533.971	1	1
534.141	1	1
534.311	1	3
534.481	1	4
534.651	1	-4
534.821	1	-6
534.991	1	6
535.162	1	-4
535.332	1	0
535.502	1	1
535.672	1	0
535.842	1	4
536.012	1	-2
536.182	1	7
536.352	1	-5
536.522	1	-3
536.692	1	-1
536.862	1	-9
537.032	1	-5
537.203	1	5
537.373	1	6
537.543	1	-12
537.713	1	-4
537.883	1	-5
538.053	1	6
538.223	1	-4
538.393	1	3
538.563	1	9
538.733	1	12
538.903	1	-3
539.073	1	3
539.243	1	-2
539.413	1	3
539.584	1	-5
539.754	1	6
539.924	1	3
540.094	1	7
540.264	1	-7
540.434	1	9
540.604	1	3
540.774	1	5
540.944	1	0
541.114	1	4
541.284	1	-10
541.454	1	-1
541.624	1	1
541.794	1	-3
541.964	1	-9
542.134	1	11
542.305	1	4
542.475	1	-1
542.645	1	2
542.815	1	-7
542.985	1	-3
543.155	1	-15
543.325	1	3
543.495	1	10
543.665	1	-2
543.835	1	-5
544.005	1	-2
544.175	1	6
544.345	1	-2
544.515	1	0
544.685	1	16
544.855	1	-1
545.025	1	5
545.195	1	-2
545.365	1	1
545.535	1	4
545.705	1	9
545.875	1	2
546.045	1	1
546.216	1	-15
546.386	1	-3
546.556	1	-2
546.726	1	3
546.896	1	12
547.066	1	9
547.236	1	4
547.406	1	-3
547.576	1	6
547.746	1	2
547.916	1	1
548.086	1	7
548.256	1	-1
548.426	1	-3
548.596	1	-6
548.766	1	11
548.936	1	12
549.106	1	-5
549.276	1	18
549.446	1	-1
549.616	1	5
549.786	1	-4
549.956	1	-2
550.126	1	-4
550.296	1	8
550.466	1	4
550.636	1	0
550.806	1	1
550.976	1	4
551.146	1	-10
551.316	1	1
551.486	1	-2
551.656	1	0
551.826	1	8
551.996	1	-5
552.166	1	-2
552.336	1	-3
552.506	1	4
552.676	1	7
552.846	1	3
553.016	1	12
553.186	1	3
553.356	1	-1
553.526	1	-2
553.696	1	8
553.866	1	9
554.036	1	-5
554.206	1	-4
554.376	1	-16
554.546	1	2
554.716	1	4
554.886	1	19
555.056	1	7
555.226	1	5
555.396	1	-1
555.566	1	4
555.736	1	2
555.906	1	1
556.076	1	0
556.246	1	-1
556.416	1	-10
556.586	1	-7
556.756	1	-2
556.926	1	-2
557.096	1	1
557.266	1	-1
557.436	1	-5
557.606	1	5
557.776	1	7
557.946	1	7
558.116	1	10
558.286	1	2
558.456	1	1
558.626	1	-14
558.796	1	3
558.966	1	-1
559.136	1	4
559.306	1	0
559.476	1	8
559.646	1	-2
559.816	1	1
559.986	1	1
560.155	1	3
560.325	1	-8
560.495	1	-4
560.665	1	-11
560.835	1	6
561.005	1	0
561.175	1	-1
561.345	1	2
561.515	1	-2
561.685	1	-1
561.855	1	-2
562.025	1	3
562.195	1	3
562.365	1	11
562.535	1	1
562.705	1	-6
562.875	1	6
563.045	1	-2
563.215	1	-11
563.385	1	-11
563.555	1	-9
563.725	1	8
563.895	1	-2
564.064	1	-5
564.234	1	-1
564.404	1	2
564.574	1	14
564.744	1	-3
564.914	1	-2
565.084	1	-11
565.254	1	9
565.424	1	2
565.594	1	-3
565.764	1	-12
565.934	1	10
566.104	1	-4
566.274	1	7
566.444	1	-7
566.614	1	1
566.783	1	8
566.953	1	4
567.123	1	6
567.293	1	1
567.463	1	-2
567.633	1	1
567.803	1	8
567.973	1	12
568.143	1	3
568.313	1	2
568.483	1	9
568.653	1	-14
568.823	1	-7
568.993	1	-4
569.162	1	-4
569.332	1	6
569.502	1	5
569.672	1	10
569.842	1	-7
570.012	1	3
570.182	1	-6
570.352	1	-1
570.522	1	-1
570.692	1	4
570.862	1	2
571.031	1	-4
571.201	1	7
571.371	1	17
571.541	1	2
571.711	1	-6
571.881	1	4
572.051	1	-5
572.221	1	6
572.391	1	13
572.561	1	3
572.731	1	2
572.900	1	-15
573.070	1	10
573.240	1	0
573.410	1	0
573.580	1	0
573.750	1	-3
573.920	1	-6
574.090	1	-3
574.260	1	-1
574.430	1	1
574.599	1	3
574.769	1	-4
574.939	1	-9
575.109	1	-4
575.279	1	-5
575.449	1	12
575.619	1	1
575.789	1	-1
575.959	1	4
576.128	1	-5
576.298	1	7
576.468	1	2
576.638	1	2
576.808	1	1
576.978	1	-9
577.148	1	-4
577.318	1	14
577.487	1	4
577.657	1	-1
577.827	1	-5
577.997	1	6
578.167	1	2
578.337	1	-1
578.507	1	-1
578.677	1	0
578.846	1	-5
579.016	1	-3
579.186	1	-2
579.356	1	3
579.526	1	0
579.696	1	10
579.866	1	-1
580.036	1	6
580.205	1	-2
580.375	1	16
580.545	1	0
580.715	1	-2
580.885	1	4
581.055	1	0
581.225	1	4
581.394	1	-8
581.564	1	1
581.734	1	1
581.904	1	5
582.074	1	-1
582.244	1	9
582.414	1	3
582.583	1	2
582.753	1	6
582.923	1	-1
583.093	1	6
583.263	1	10
583.433	1	1
583.603	1	-2
583.772	1	-14
583.942	1	5
584.112	1	-4
584.282	1	4
584.452	1	2
584.622	1	4
584.791	1	2
584.961	1	-8
585.131	1	4
585.301	1	-3
585.471	1	-6
585.641	1	4
585.811	1	4
585.980	1	2
586.150	1	-5
586.320	1	-7
586.490	1	7
586.660	1	6
586.830	1	2
586.999	1	-7
587.169	1	10
587.339	1	1
587.509	1	-2
587.679	1	-4
587.849	1	13
588.018	1	-11
588.188	1	8
588.358	1	-8
588.528	1	-1
588.698	1	-8
588.867	1	1
589.037	1	1
589.207	1	5
589.377	1	5
589.547	1	15
589.717	1	-9
589.886	1	-2
590.056	1	3
590.226	1	-15
590.396	1	-5
590.566	1	-11
590.735	1	-8
590.905	1	2
591.075	1	-6
591.245	1	2
591.415	1	2
591.585	1	7
591.754	1	1
591.924	1	10
592.094	1	-4
592.264	1	-5
592.434	1	-7
592.603	1	7
592.773	1	0
592.943	1	6
593.113	1	5
593.283	1	-3
593.452	1	4
593.622	1	-1
593.792	1	15
593.962	1	5
594.132	1	2
594.301	1	6
594.471	1	-1
594.641	1	-1
594.811	1	-9
594.981	1	3
595.150	1	1
595.320	1	-1
595.490	1	4
595.660	1	5
595.829	1	-11
595.999	1	-4
596.169	1	11
596.339	1	4
596.509	1	-4
596.678	1	2
596.848	1	6
597.018	1	-1
597.188	1	-3
597.358	1	8
597.527	1	9
597.697	1	-6
597.867	1	5
598.037	1	-2
598.206	1	11
598.376	1	-1
598.546	1	8
598.716	1	-11
598.885	1	-2
599.055	1	7
599.225	1	3
599.395	1	0
599.565	1	-4
599.734	1	13
599.904	1	-5
600.074	1	8
600.244	1	-5
600.413	1	5
600.583	1	-8
600.753	1	10
600.923	1	-6
601.092	1	13
601.262	1	2
601.432	1	10
601.602	1	13
601.771	1	9
601.941	1	5
602.111	1	-3
602.281	1	5
602.451	1	-2
602.620	1	7
602.790	1	1
602.960	1	-5
603.130	1	1
603.299	1	-13
603.469	1	-2
603.639	1	-10
603.809	1	6
603.978	1	0
604.148	1	-1
604.318	1	0
604.487	1	4
604.657	1	0
604.827	1	9
604.997	1	1
605.166	1	-3
605.336	1	3
605.506	1	-4
605.676	1	10
605.845	1	-6
606.015	1	-1
606.185	1	0
606.355	1	-4
606.524	1	0
606.694	1	-4
606.864	1	7
607.034	1	2
607.203	1	9
607.373	1	5
607.543	1	7
607.712	1	4
607.882	1	-1
608.052	1	1
608.222	1	2
608.391	1	12
608.561	1	-1
608.731	1	-4
608.901	1	-3
609.070	1	-11
609.240	1	-2
609.410	1	3
609.579	1	2
609.749	1	4
609.919	1	-11
610.089	1	2
610.258	1	1
610.428	1	9
610.598	1	-1
610.767	1	7
610.937	1	1
611.107	1	-8
611.277	1	-3
611.446	1	8
611.616	1	10
611.786	1	0
611.955	1	-1
612.125	1	6
612.295	1	-1
612.465	1	-2
612.634	1	8
612.804	1	-1
612.974	1	-8
613.143	1	-4
613.313	1	-1
613.483	1	5
613.652	1	5
613.822	1	12
613.992	1	-4
614.162	1	3
614.331	1	-4
614.501	1	-8
614.671	1	3
614.840	1	-5
615.010	1	-1
615.180	1	1
615.349	1	7
615.519	1	-2
615.689	1	-5
615.858	1	2
616.028	1	2
616.198	1	2
616.368	1	2
616.537	1	6
616.707	1	5
616.877	1	7
617.046	1	9
617.216	1	8
617.386	1	4
617.555	1	-10
617.725	1	-3
617.895	1	8
618.064	1	5
618.234	1	-6
618.404	1	-7
618.573	1	3
618.743	1	9
618.913	1	4
619.082	1	-1
619.252	1	0
619.422	1	-4
619.591	1	-2
619.761	1	-3
619.931	1	2
620.100	1	10
620.270	1	1
620.440	1	10
620.609	1	8
620.779	1	7
620.949	1	0
621.118	1	6
621.288	1	-10
621.458	1	11
621.627	1	5
621.797	1	2
621.967	1	5
622.136	1	3
622.306	1	7
622.476	1	-2
622.645	1	4
622.815	1	5
622.985	1	-3
623.154	1	-7
623.324	1	-4
623.494	1	2
623.663	1	3
623.833	1	7
624.002	1	-6
624.172	1	-1
624.342	1	17
624.511	1	11
624.681	1	0
624.851	1	-8
625.020	1	-9
625.190	1	-5
625.360	1	-7
625.529	1	-4
625.699	1	-7
625.869	1	4
626.038	1	3
626.208	1	14
626.377	1	2
626.547	1	3
626.717	1	-9
626.886	1	1
627.056	1	-9
627.226	1	10
627.395	1	7
627.565	1	4
627.735	1	-3
627.904	1	14
628.074	1	11
628.243	1	11
628.413	1	-1
628.583	1	0
628.752	1	-7
628.922	1	-3
629.091	1	4
629.261	1	4
629.431	1	2
629.600	1	-3
629.770	1	11
629.940	1	-11
630.109	1	6
630.279	1	6
630.448	1	-6
630.618	1	2
630.788	1	4
630.957	1	11
631.127	1	3
631.297	1	-9
631.466	1	2
631.636	1	6
631.805	1	3
631.975	1	-2
632.145	1	-5
632.314	1	-4
632.484	1	11
632.653	1	-3
632.823	1	1
632.993	1	-1
633.162	1	6
633.332	1	-4
633.501	1	-2
633.671	1	4
633.841	1	5
634.010	1	7
634.180	1	8
634.349	1	-1
634.519	1	7
634.689	1	3
634.858	1	-8
635.028	1	-2
635.197	1	5
635.367	1	-2
635.537	1	5
635.706	1	-3
635.876	1	3
636.045	1	3
636.215	1	6
636.384	1	1
636.554	1	-4
636.724	1	7
636.893	1	5
637.063	1	6
637.232	1	2
637.402	1	-1
637.572	1	13
637.741	1	-7
637.911	1	-6
638.080	1	1
638.250	1	4
638.419	1	-9
638.589	1	3
638.759	1	1
638.928	1	-3
639.098	1	1
639.267	1	6
639.437	1	13
639.606	1	-2
639.776	1	8
639.946	1	11
640.115	1	0
640.285	1	-2
640.454	1	2
640.624	1	6
640.793	1	2
640.963	1	-1
641.132	1	4
641.302	1	0
641.472	1	4
641.641	1	7
641.811	1	10
641.980	1	0
642.150	1	-4
642.319	1	5
642.489	1	-1
642.659	1	4
642.828	1	1
642.998	1	-2
643.167	1	-11
643.337	1	-1
643.506	1	5
643.676	1	-1
643.845	1	7
644.015	1	7
644.184	1	-8
644.354	1	1
644.524	1	-4
644.693	1	-1
644.863	1	11
645.032	1	2
645.202	1	4
645.371	1	-3
645.541	1	15
645.710	1	-5
645.880	1	-10
646.049	1	-2
646.219	1	-9
646.388	1	-5
646.558	1	-1
646.728	1	-2
646.897	1	5
647.067	1	10
647.236	1	8
647.406	1	11
647.575	1	11
647.745	1	9
647.914	1	-8
648.084	1	2
648.253	1	6
648.423	1	-2
648.592	1	-6
648.762	1	12
648.931	1	4
649.101	1	1
649.270	1	-4
649.440	1	0
649.610	1	8
649.779	1	2
649.949	1	4
650.118	1	-3
650.288	1	7
650.457	1	0
650.627	1	-1
650.796	1	-6
650.966	1	-8
651.135	1	-2
651.305	1	-1
651.474	1	0
651.644	1	7
651.813	1	4
651.983	1	2
652.152	1	4
652.322	1	5
652.491	1	-3
652.661	1	1
652.830	1	9
653.000	1	9
653.169	1	1
653.339	1	4
653.508	1	2
653.678	1	-10
653.847	1	-6
654.017	1	4
654.186	1	13
654.356	1	2
654.525	1	3
654.695	1	2
654.864	1	-1
655.034	1	-4
655.203	1	-1
655.373	1	5
655.542	1	0
655.712	1	3
655.881	1	14
656.051	1	6
656.220	1	0
656.390	1	6
656.559	1	-3
656.729	1	-2
656.898	1	6
657.068	1	-4
657.237	1	2
657.406	1	-1
657.576	1	-1
657.745	1	5
657.915	1	3
658.084	1	7
658.254	1	-2
658.423	1	-1
658.593	1	2
658.762	1	3
658.932	1	-8
659.101	1	-7
659.271	1	-7
659.440	1	8
659.610	1	-8
659.779	1	13
659.949	1	-4
660.118	1	4
660.288	1	-5
660.457	1	8
660.626	1	7
660.796	1	-4
660.965	1	7
661.135	1	-10
661.304	1	1
661.474	1	2
661.643	1	5
661.813	1	-1
661.982	1	1
662.152	1	2
662.321	1	-8
662.491	1	1
662.660	1	6
662.829	1	12
662.999	1	0
663.168	1	6
663.338	1	11
663.507	1	7
663.677	1	3
663.846	1	1
664.016	1	-6
664.185	1	-2
664.354	1	7
664.524	1	12
664.693	1	-4
664.863	1	-9
665.032	1	-5
665.202	1	-5
665.371	1	-4
665.541	1	10
665.710	1	-8
665.879	1	4
666.049	1	-5
666.218	1	3
666.388	1	3
666.557	1	11
666.727	1	-3
666.896	1	2
667.065	1	7
667.235	1	20
667.404	1	-5
667.574	1	5
667.743	1	1
667.913	1	17
668.082	1	-6
668.251	1	7
668.421	1	1
668.590	1	0
668.760	1	12
668.929	1	3
669.099	1	-2
669.268	1	-10
669.437	1	4
669.607	1	5
669.776	1	6
669.946	1	-3
670.115	1	-15
670.285	1	7
670.454	1	2
670.623	1	-4
670.793	1	8
670.962	1	0
671.132	1	0
671.301	1	1
671.470	1	-6
671.640	1	3
671.809	1	-4
671.979	1	6
672.148	1	5
672.317	1	-7
672.487	1	-2
672.656	1	-6
672.826	1	2
672.995	1	6
673.164	1	-12
673.334	1	1
673.503	1	-5
673.673	1	5
673.842	1	11
674.011	1	5
674.181	1	15
674.350	1	3
674.520	1	7
674.689	1	-5
674.858	1	-12
675.028	1	7
675.197	1	0
675.367	1	5
675.536	1	4
675.705	1	5
675.875	1	-2
676.044	1	-4
676.214	1	1
676.383	1	1
676.552	1	3
676.722	1	-7
676.891	1	2
677.060	1	-3
677.230	1	12
677.399	1	2
677.569	1	8
677.738	1	1
677.907	1	-2
678.077	1	1
678.246	1	-6
678.416	1	2
678.585	1	-7
678.754	1	14
678.924	1	6
679.093	1	-3
679.262	1	10
679.432	1	1
679.601	1	-10
679.771	1	5
679.940	1	6
680.109	1	-5
680.279	1	5
680.448	1	8
680.617	1	-4
680.787	1	-9
680.956	1	1
681.125	1	5
681.295	1	-12
681.464	1	-5
681.634	1	0
681.803	1	1
681.972	1	-2
682.142	1	1
682.311	1	6
682.480	1	0
682.650	1	14
682.819	1	2
682.988	1	-5
683.158	1	-6
683.327	1	7
683.496	1	3
683.666	1	13
683.835	1	-1
684.004	1	8
684.174	1	3
684.343	1	4
684.512	1	-4
684.682	1	-1
684.851	1	4
685.021	1	-3
685.190	1	9
685.359	1	-2
685.529	1	-2
685.698	1	-1
685.867	1	8
686.037	1	-5
686.206	1	4
686.375	1	2
686.545	1	15
686.714	1	6
686.883	1	4
687.053	1	-12
687.222	1	4
687.391	1	5
687.561	1	6
687.730	1	1
687.899	1	-3
688.069	1	6
688.238	1	-7
688.407	1	7
688.577	1	2
688.746	1	12
