340.368	1	11
340.539	1	10
340.710	1	3
340.881	1	-5
341.052	1	-1
341.223	1	16
341.394	1	-2
341.565	1	1
341.737	1	-3
341.908	1	-4
342.079	1	-4
342.250	1	1
342.421	1	-3
342.592	1	10
342.763	1	5
342.934	1	-2
343.105	1	9
343.276	1	10
343.447	1	-11
343.618	1	-6
343.789	1	-2
343.960	1	-6
344.131	1	5
344.302	1	-10
344.473	1	4
344.644	1	4
344.815	1	-1
344.986	1	1
345.157	1	8
345.328	1	-14
345.499	1	-2
345.670	1	1
345.841	1	-1
346.012	1	1
346.183	1	13
346.354	1	-3
346.526	1	-7
346.697	1	5
346.868	1	-5
347.039	1	-3
347.210	1	-6
347.381	1	5
347.552	1	-3
347.723	1	2
347.894	1	2
348.065	1	0
348.236	1	5
348.407	1	0
348.578	1	7
348.749	1	-5
348.920	1	-1
349.091	1	6
349.262	1	-3
349.433	1	-8
349.604	1	7
349.775	1	3
349.946	1	-10
350.117	1	5
350.288	1	10
350.459	1	-6
350.630	1	5
350.801	1	-2
350.972	1	7
351.143	1	17
351.314	1	-3
351.485	1	-1
351.656	1	1
351.827	1	-4
351.998	1	4
352.169	1	-8
352.340	1	-2
352.511	1	-3
352.682	1	-4
352.853	1	-1
353.024	1	1
353.195	1	-5
353.366	1	0
353.537	1	-7
353.708	1	11
353.879	1	-6
354.050	1	-1
354.221	1	1
354.392	1	1
354.563	1	8
354.734	1	-6
354.905	1	11
355.076	1	1
355.247	1	1
355.418	1	-3
355.589	1	-1
355.760	1	-1
355.931	1	7
356.102	1	-12
356.273	1	0
356.444	1	0
356.615	1	4
356.785	1	4
356.956	1	-3
357.127	1	7
357.298	1	0
357.469	1	-5
357.640	1	8
357.811	1	-3
357.982	1	0
358.153	1	5
358.324	1	8
358.495	1	2
358.666	1	-2
358.837	1	6
359.008	1	11
359.179	1	2
359.350	1	-6
359.521	1	9
359.692	1	1
359.863	1	11
360.034	1	14
360.205	1	-1
360.376	1	2
360.547	1	0
360.718	1	3
360.889	1	9
361.060	1	-1
361.231	1	-1
361.401	1	3
361.572	1	-5
361.743	1	10
361.914	1	14
362.085	1	10
362.256	1	10
362.427	1	-4
362.598	1	1
362.769	1	12
362.940	1	6
363.111	1	5
363.282	1	-3
363.453	1	11
363.624	1	4
363.795	1	3
363.966	1	2
364.137	1	2
364.308	1	10
364.478	1	5
364.649	1	7
364.820	1	8
364.991	1	7
365.162	1	7
365.333	1	6
365.504	1	-1
365.675	1	0
365.846	1	9
366.017	1	6
366.188	1	10
366.359	1	-1
366.530	1	9
366.701	1	11
366.871	1	6
367.042	1	9
367.213	1	17
367.384	1	-1
367.555	1	16
367.726	1	11
367.897	1	22
368.068	1	6
368.239	1	8
368.410	1	6
368.581	1	10
368.752	1	20
368.923	1	11
369.093	1	10
369.264	1	6
369.435	1	9
369.606	1	8
369.777	1	11
369.948	1	0
370.119	1	11
370.290	1	10
370.461	1	11
370.632	1	12
370.803	1	16
370.973	1	11
371.144	1	6
371.315	1	-1
371.486	1	6
371.657	1	-4
371.828	1	11
371.999	1	0
372.170	1	7
372.341	1	0
372.512	1	9
372.682	1	5
372.853	1	8
373.024	1	11
373.195	1	5
373.366	1	-1
373.537	1	12
373.708	1	0
373.879	1	0
374.050	1	3
374.220	1	-4
374.391	1	6
374.562	1	-3
374.733	1	3
374.904	1	14
375.075	1	-2
375.246	1	-10
375.417	1	-1
375.588	1	4
375.758	1	-10
375.929	1	3
376.100	1	7
376.271	1	0
376.442	1	-11
376.613	1	-6
376.784	1	13
376.955	1	-1
377.125	1	11
377.296	1	-3
377.467	1	2
377.638	1	4
377.809	1	11
377.980	1	12
378.151	1	3
378.321	1	1
378.492	1	6
378.663	1	-5
378.834	1	20
379.005	1	-2
379.176	1	-2
379.347	1	11
379.518	1	9
379.688	1	5
379.859	1	5
380.030	1	19
380.201	1	19
380.372	1	3
380.543	1	12
380.714	1	-3
380.884	1	7
381.055	1	-1
381.226	1	3
381.397	1	1
381.568	1	1
381.739	1	2
381.910	1	-3
382.080	1	13
382.251	1	-2
382.422	1	1
382.593	1	9
382.764	1	0
382.935	1	2
383.105	1	-1
383.276	1	6
383.447	1	15
383.618	1	11
383.789	1	3
383.960	1	0
384.130	1	1
384.301	1	9
384.472	1	-9
384.643	1	-3
384.814	1	9
384.985	1	5
385.156	1	16
385.326	1	9
385.497	1	7
385.668	1	12
385.839	1	16
386.010	1	11
386.180	1	2
386.351	1	-2
386.522	1	13
386.693	1	3
386.864	1	9
387.035	1	13
387.205	1	10
387.376	1	15
387.547	1	13
387.718	1	8
387.889	1	6
388.060	1	14
388.230	1	10
388.401	1	5
388.572	1	14
388.743	1	-1
388.914	1	-2
389.084	1	8
389.255	1	-8
389.426	1	-1
389.597	1	8
389.768	1	9
389.939	1	0
390.109	1	10
390.280	1	-6
390.451	1	-4
390.622	1	10
390.793	1	19
390.963	1	2
391.134	1	-4
391.305	1	0
391.476	1	15
391.647	1	6
391.817	1	6
391.988	1	-3
392.159	1	10
392.330	1	-8
392.501	1	-2
392.671	1	0
392.842	1	-6
393.013	1	8
393.184	1	5
393.355	1	7
393.525	1	-5
393.696	1	2
393.867	1	9
394.038	1	13
394.208	1	6
394.379	1	-3
394.550	1	13
394.721	1	3
394.892	1	2
395.062	1	5
395.233	1	1
395.404	1	2
395.575	1	9
395.746	1	9
395.916	1	1
396.087	1	12
396.258	1	6
396.429	1	8
396.599	1	5
396.770	1	6
396.941	1	3
397.112	1	-8
397.283	1	-3
397.453	1	21
397.624	1	0
397.795	1	5
397.966	1	13
398.136	1	-2
398.307	1	4
398.478	1	11
398.649	1	0
398.819	1	2
398.990	1	3
399.161	1	9
399.332	1	10
399.503	1	5
399.673	1	1
399.844	1	4
400.015	1	10
400.186	1	-4
400.356	1	10
400.527	1	9
400.698	1	3
400.869	1	-4
401.039	1	-6
401.210	1	5
401.381	1	1
401.552	1	11
401.722	1	13
401.893	1	11
402.064	1	5
402.235	1	-6
402.405	1	4
402.576	1	-3
402.747	1	-4
402.918	1	7
403.088	1	-2
403.259	1	2
403.430	1	8
403.601	1	13
403.771	1	14
403.942	1	5
404.113	1	16
404.284	1	-10
404.454	1	6
404.625	1	0
404.796	1	-1
404.967	1	5
405.137	1	2
405.308	1	1
405.479	1	9
405.649	1	10
405.820	1	11
405.991	1	0
406.162	1	10
406.332	1	-11
406.503	1	-7
406.674	1	1
406.845	1	4
407.015	1	10
407.186	1	3
407.357	1	10
407.527	1	1
407.698	1	6
407.869	1	9
408.040	1	0
408.210	1	0
408.381	1	-14
408.552	1	-12
408.722	1	4
408.893	1	0
409.064	1	1
409.235	1	-2
409.405	1	13
409.576	1	4
409.747	1	9
409.917	1	-1
410.088	1	-3
410.259	1	-1
410.430	1	9
410.600	1	4
410.771	1	4
410.942	1	0
411.112	1	6
411.283	1	-7
411.454	1	5
411.625	1	-5
411.795	1	9
411.966	1	16
412.137	1	10
412.307	1	-1
412.478	1	8
412.649	1	1
412.819	1	4
412.990	1	-12
413.161	1	-2
413.332	1	3
413.502	1	-9
413.673	1	14
413.844	1	13
414.014	1	-14
414.185	1	9
414.356	1	0
414.526	1	2
414.697	1	1
414.868	1	-6
415.038	1	5
415.209	1	1
415.380	1	12
415.550	1	8
415.721	1	8
415.892	1	5
416.063	1	10
416.233	1	2
416.404	1	-8
416.575	1	-6
416.745	1	1
416.916	1	6
417.087	1	10
417.257	1	5
417.428	1	-5
417.599	1	4
417.769	1	-1
417.940	1	1
418.111	1	-2
418.281	1	-3
418.452	1	9
418.623	1	-1
418.793	1	4
418.964	1	3
419.135	1	8
419.305	1	3
419.476	1	3
419.647	1	5
419.817	1	6
419.988	1	-5
420.159	1	9
420.329	1	-3
420.500	1	6
420.671	1	-7
420.841	1	2
421.012	1	-2
421.183	1	5
421.353	1	0
421.524	1	5
421.695	1	-1
421.865	1	0
422.036	1	1
422.206	1	0
422.377	1	1
422.548	1	5
422.718	1	11
422.889	1	-5
423.060	1	-1
423.230	1	10
423.401	1	-8
423.572	1	9
423.742	1	0
423.913	1	7
424.084	1	3
424.254	1	1
424.425	1	-4
424.595	1	-3
424.766	1	-1
424.937	1	7
425.107	1	2
425.278	1	-6
425.449	1	-9
425.619	1	6
425.790	1	5
425.961	1	1
426.131	1	-2
426.302	1	9
426.472	1	-5
426.643	1	-9
426.814	1	-3
426.984	1	-2
427.155	1	-7
427.326	1	-2
427.496	1	-11
427.667	1	16
427.837	1	5
428.008	1	5
428.179	1	-7
428.349	1	-1
428.520	1	5
428.691	1	-8
428.861	1	5
429.032	1	3
429.202	1	6
429.373	1	1
429.544	1	-1
429.714	1	-3
429.885	1	-5
430.055	1	1
430.226	1	0
430.397	1	-5
430.567	1	3
430.738	1	1
430.909	1	-5
431.079	1	4
431.250	1	-11
431.420	1	-10
431.591	1	-2
431.762	1	-2
431.932	1	-4
432.103	1	6
432.273	1	8
432.444	1	-7
432.615	1	-10
432.785	1	-4
432.956	1	3
433.126	1	-1
433.297	1	1
433.468	1	-10
433.638	1	-1
433.809	1	-7
433.979	1	12
434.150	1	7
434.320	1	4
434.491	1	10
434.662	1	7
434.832	1	5
435.003	1	1
435.173	1	-2
435.344	1	-7
435.515	1	3
435.685	1	-6
435.856	1	3
436.026	1	-8
436.197	1	5
436.368	1	3
436.538	1	1
436.709	1	-6
436.879	1	-9
437.050	1	12
437.220	1	-9
437.391	1	4
437.562	1	-6
437.732	1	10
437.903	1	0
438.073	1	-4
438.244	1	1
438.414	1	5
438.585	1	-6
438.756	1	2
438.926	1	-4
439.097	1	2
439.267	1	-3
439.438	1	0
439.608	1	4
439.779	1	-3
439.949	1	-13
440.120	1	-10
440.291	1	-1
440.461	1	1
440.632	1	6
440.802	1	6
440.973	1	4
441.143	1	0
441.314	1	-8
441.485	1	1
441.655	1	0
441.826	1	-3
441.996	1	-8
442.167	1	-2
442.337	1	5
442.508	1	3
442.678	1	-4
442.849	1	-7
443.019	1	6
443.190	1	2
443.361	1	6
443.531	1	8
443.702	1	-7
443.872	1	-4
444.043	1	-4
444.213	1	11
444.384	1	2
444.554	1	-1
444.725	1	9
444.895	1	0
445.066	1	6
445.237	1	-2
445.407	1	-9
445.578	1	5
445.748	1	4
445.919	1	0
446.089	1	-7
446.260	1	4
446.430	1	-10
446.601	1	11
446.771	1	-5
446.942	1	-7
447.112	1	6
447.283	1	-9
447.453	1	8
447.624	1	-2
447.794	1	8
447.965	1	3
448.135	1	-2
448.306	1	-1
448.477	1	4
448.647	1	-1
448.818	1	0
448.988	1	-3
449.159	1	-2
449.329	1	2
449.500	1	1
449.670	1	2
449.841	1	2
450.011	1	4
450.182	1	-6
450.352	1	6
450.523	1	1
450.693	1	3
450.864	1	5
451.034	1	13
451.205	1	-3
451.375	1	-6
451.546	1	-3
451.716	1	6
451.887	1	4
452.057	1	3
452.228	1	2
452.398	1	5
452.569	1	-10
452.739	1	3
452.910	1	-6
453.080	1	-6
453.251	1	-4
453.421	1	-9
453.592	1	4
453.762	1	7
453.933	1	-2
454.103	1	3
454.274	1	-1
454.444	1	9
454.615	1	12
454.785	1	-4
454.956	1	11
455.126	1	2
455.297	1	-9
455.467	1	-8
455.638	1	5
455.808	1	6
455.979	1	0
456.149	1	1
456.320	1	4
456.490	1	6
456.661	1	-5
456.831	1	6
457.001	1	9
457.172	1	3
457.342	1	-8
457.513	1	13
457.683	1	1
457.854	1	3
458.024	1	-9
458.195	1	-5
458.365	1	8
458.536	1	1
458.706	1	6
458.877	1	5
459.047	1	10
459.218	1	-6
459.388	1	7
459.559	1	3
459.729	1	1
459.899	1	0
460.070	1	-1
460.240	1	5
460.411	1	-6
460.581	1	1
460.752	1	-5
460.922	1	16
461.093	1	-3
461.263	1	10
461.434	1	6
461.604	1	7
461.775	1	-1
461.945	1	4
462.115	1	-6
462.286	1	-2
462.456	1	6
462.627	1	4
462.797	1	-15
462.968	1	-12
463.138	1	3
463.309	1	2
463.479	1	2
463.649	1	-5
463.820	1	-3
463.990	1	6
464.161	1	4
464.331	1	13
464.502	1	9
464.672	1	-7
464.843	1	-3
465.013	1	-9
465.183	1	-6
465.354	1	1
465.524	1	-4
465.695	1	5
465.865	1	-2
466.036	1	1
466.206	1	0
466.376	1	2
466.547	1	-4
466.717	1	8
466.888	1	-3
467.058	1	-3
467.229	1	0
467.399	1	-2
467.569	1	5
467.740	1	3
467.910	1	3
468.081	1	3
468.251	1	1
468.422	1	-14
468.592	1	-4
468.762	1	-12
468.933	1	-2
469.103	1	0
469.274	1	0
469.444	1	11
469.614	1	4
469.785	1	8
469.955	1	1
470.126	1	1
470.296	1	-3
470.467	1	-11
470.637	1	-3
470.807	1	11
470.978	1	3
471.148	1	-8
471.319	1	3
471.489	1	-8
471.659	1	3
471.830	1	12
472.000	1	1
472.171	1	-1
472.341	1	-5
472.511	1	8
472.682	1	1
472.852	1	-6
473.023	1	-8
473.193	1	3
473.363	1	-3
473.534	1	3
473.704	1	-7
473.875	1	-5
474.045	1	-2
474.215	1	12
474.386	1	1
474.556	1	8
474.727	1	0
474.897	1	0
475.067	1	-4
475.238	1	-8
475.408	1	-1
475.578	1	4
475.749	1	6
475.919	1	0
476.090	1	2
476.260	1	-1
476.430	1	-9
476.601	1	0
476.771	1	-6
476.942	1	-7
477.112	1	5
477.282	1	5
477.453	1	-3
477.623	1	3
477.793	1	-5
477.964	1	11
478.134	1	-7
478.305	1	1
478.475	1	6
478.645	1	0
478.816	1	3
478.986	1	-1
479.156	1	-1
479.327	1	-2
479.497	1	1
479.667	1	8
479.838	1	-16
480.008	1	-10
480.179	1	-13
480.349	1	2
480.519	1	1
480.690	1	-3
480.860	1	13
481.030	1	5
481.201	1	-4
481.371	1	14
481.541	1	4
481.712	1	5
481.882	1	-6
482.053	1	5
482.223	1	-3
482.393	1	5
482.564	1	-1
482.734	1	6
482.904	1	0
483.075	1	-4
483.245	1	-2
483.415	1	3
483.586	1	5
483.756	1	0
483.926	1	-11
484.097	1	0
484.267	1	-4
484.437	1	-2
484.608	1	2
484.778	1	-6
484.948	1	3
485.119	1	1
485.289	1	2
485.459	1	2
485.630	1	1
485.800	1	6
485.970	1	2
486.141	1	-6
486.311	1	7
486.481	1	-3
486.652	1	-5
486.822	1	1
486.992	1	13
487.163	1	-2
487.333	1	4
487.503	1	1
487.674	1	-8
487.844	1	-10
488.014	1	2
488.185	1	-2
488.355	1	10
488.525	1	2
488.696	1	1
488.866	1	-8
489.036	1	7
489.207	1	-3
489.377	1	-9
489.547	1	-7
489.718	1	2
489.888	1	2
490.058	1	11
490.228	1	3
490.399	1	2
490.569	1	3
490.739	1	-2
490.910	1	-5
491.080	1	2
491.250	1	1
491.421	1	10
491.591	1	-11
491.761	1	-1
491.932	1	-7
492.102	1	-3
492.272	1	6
492.442	1	5
492.613	1	5
492.783	1	1
492.953	1	-6
493.124	1	0
493.294	1	12
493.464	1	13
493.635	1	5
493.805	1	5
493.975	1	6
494.145	1	4
494.316	1	2
494.486	1	-2
494.656	1	-8
494.827	1	9
494.997	1	7
495.167	1	7
495.337	1	1
495.508	1	-7
495.678	1	-1
495.848	1	1
496.019	1	7
496.189	1	-7
496.359	1	4
496.529	1	3
496.700	1	0
496.870	1	8
497.040	1	4
497.211	1	8
497.381	1	1
497.551	1	-4
497.721	1	-4
497.892	1	7
498.062	1	-4
498.232	1	2
498.403	1	-4
498.573	1	-5
498.743	1	2
498.913	1	9
499.084	1	5
499.254	1	-8
499.424	1	-5
499.594	1	4
499.765	1	6
499.935	1	-17
500.105	1	8
500.275	1	-3
500.446	1	-2
500.616	1	-8
500.786	1	6
500.956	1	-3
501.127	1	0
501.297	1	-1
501.467	1	6
501.638	1	6
501.808	1	2
501.978	1	1
502.148	1	3
502.319	1	10
502.489	1	-4
502.659	1	19
502.829	1	1
503.000	1	-2
503.170	1	-6
503.340	1	10
503.510	1	-3
503.681	1	-1
503.851	1	-2
504.021	1	7
504.191	1	3
504.362	1	3
504.532	1	3
504.702	1	-5
504.872	1	-2
505.042	1	-8
505.213	1	7
505.383	1	-2
505.553	1	5
505.723	1	3
505.894	1	-2
506.064	1	-3
506.234	1	4
506.404	1	-4
506.575	1	-5
506.745	1	3
506.915	1	3
507.085	1	-8
507.256	1	3
507.426	1	9
507.596	1	0
507.766	1	3
507.936	1	-3
508.107	1	13
508.277	1	-5
508.447	1	1
508.617	1	4
508.788	1	6
508.958	1	-1
509.128	1	1
509.298	1	-3
509.468	1	7
509.639	1	0
509.809	1	14
509.979	1	5
510.149	1	13
510.319	1	-8
510.490	1	2
510.660	1	7
510.830	1	-11
511.000	1	-1
511.171	1	-1
511.341	1	11
511.511	1	0
511.681	1	5
511.851	1	3
512.022	1	1
512.192	1	5
512.362	1	5
512.532	1	-10
512.702	1	4
512.873	1	17
513.043	1	15
513.213	1	16
513.383	1	-4
513.553	1	12
513.724	1	1
513.894	1	-7
514.064	1	10
514.234	1	2
514.404	1	6
514.575	1	5
514.745	1	4
514.915	1	-15
515.085	1	6
515.255	1	-2
515.425	1	6
515.596	1	11
515.766	1	-1
515.936	1	1
516.106	1	1
516.276	1	6
516.447	1	10
516.617	1	-3
516.787	1	-2
516.957	1	4
517.127	1	-2
517.297	1	5
517.468	1	-9
517.638	1	-7
517.808	1	9
517.978	1	7
518.148	1	-3
518.319	1	8
518.489	1	-1
518.659	1	8
518.829	1	6
518.999	1	-6
519.169	1	-1
519.340	1	6
519.510	1	7
519.680	1	9
519.850	1	-1
520.020	1	-1
520.190	1	1
520.361	1	-10
520.531	1	0
520.701	1	7
520.871	1	4
521.041	1	6
521.211	1	13
521.382	1	3
521.552	1	-5
521.722	1	9
521.892	1	8
522.062	1	1
522.232	1	16
522.402	1	6
522.573	1	-1
522.743	1	9
522.913	1	5
523.083	1	7
523.253	1	6
523.423	1	0
523.593	1	2
523.764	1	-2
523.934	1	0
524.104	1	0
524.274	1	7
524.444	1	-6
524.614	1	3
524.784	1	0
524.955	1	14
525.125	1	7
525.295	1	-3
525.465	1	6
525.635	1	-3
525.805	1	16
525.975	1	-7
526.146	1	-2
526.316	1	6
526.486	1	1
526.656	1	-4
526.826	1	7
526.996	1	8
527.166	1	-3
527.337	1	-8
527.507	1	13
527.677	1	4
527.847	1	0
528.017	1	-1
528.187	1	9
528.357	1	8
528.527	1	-1
528.698	1	-8
528.868	1	9
529.038	1	4
529.208	1	-2
529.378	1	7
529.548	1	5
529.718	1	7
529.888	1	4
530.058	1	1
530.229	1	3
530.399	1	4
530.569	1	-5
530.739	1	0
530.909	1	0
531.079	1	-5
531.249	1	-1
531.419	1	11
531.589	1	11
531.760	1	-2
531.930	1	1
532.100	1	-1
532.270	1	5
532.440	1	8
532.610	1	6
532.780	1	11
532.950	1	8
533.120	1	15
533.290	1	6
533.461	1	6
533.631	1	1
533.801	1	4
533.971	1	1
534.141	1	9
534.311	1	9
534.481	1	9
534.651	1	-3
534.821	1	3
534.991	1	4
535.162	1	-13
535.332	1	5
535.502	1	2
535.672	1	-4
535.842	1	3
536.012	1	2
536.182	1	7
536.352	1	-4
536.522	1	3
536.692	1	5
536.862	1	7
537.032	1	-8
537.203	1	12
537.373	1	4
537.543	1	2
537.713	1	-4
537.883	1	-2
538.053	1	1
538.223	1	9
538.393	1	9
538.563	1	13
538.733	1	7
538.903	1	3
539.073	1	-7
539.243	1	-2
539.413	1	4
539.584	1	13
539.754	1	10
539.924	1	6
540.094	1	5
540.264	1	-4
540.434	1	1
540.604	1	2
540.774	1	11
540.944	1	-3
541.114	1	2
541.284	1	3
541.454	1	11
541.624	1	4
541.794	1	-1
541.964	1	-4
542.134	1	11
542.305	1	1
542.475	1	-2
542.645	1	3
542.815	1	-5
542.985	1	8
543.155	1	-7
543.325	1	11
543.495	1	4
543.665	1	-3
543.835	1	1
544.005	1	-1
544.175	1	4
544.345	1	-3
544.515	1	3
544.685	1	5
544.855	1	4
545.025	1	5
545.195	1	9
545.365	1	9
545.535	1	-2
545.705	1	6
545.875	1	-2
546.045	1	4
546.216	1	-8
546.386	1	5
546.556	1	-2
546.726	1	5
546.896	1	7
547.066	1	13
547.236	1	-3
547.406	1	-11
547.576	1	11
547.746	1	10
547.916	1	5
548.086	1	9
548.256	1	4
548.426	1	-3
548.596	1	1
548.766	1	10
548.936	1	17
549.106	1	12
549.276	1	13
549.446	1	6
549.616	1	7
549.786	1	-17
549.956	1	-7
550.126	1	-4
550.296	1	2
550.466	1	-1
550.636	1	13
550.806	1	18
550.976	1	5
551.146	1	-3
551.316	1	3
551.486	1	8
551.656	1	12
551.826	1	16
551.996	1	7
552.166	1	11
552.336	1	-2
552.506	1	7
552.676	1	10
552.846	1	-3
553.016	1	11
553.186	1	-1
553.356	1	6
553.526	1	4
553.696	1	14
553.866	1	12
554.036	1	0
554.206	1	9
554.376	1	-9
554.546	1	2
554.716	1	-2
554.886	1	6
555.056	1	0
555.226	1	1
555.396	1	5
555.566	1	3
555.736	1	1
555.906	1	3
556.076	1	7
556.246	1	9
556.416	1	-5
556.586	1	-11
556.756	1	-6
556.926	1	-2
557.096	1	5
557.266	1	2
557.436	1	6
557.606	1	-2
557.776	1	14
557.946	1	-6
558.116	1	5
558.286	1	-5
558.456	1	-3
558.626	1	-9
558.796	1	5
558.966	1	6
559.136	1	4
559.306	1	1
559.476	1	3
559.646	1	2
559.816	1	3
559.986	1	-3
560.155	1	-2
560.325	1	1
560.495	1	5
560.665	1	3
560.835	1	1
561.005	1	2
561.175	1	3
561.345	1	-6
561.515	1	9
561.685	1	-1
561.855	1	6
562.025	1	6
562.195	1	4
562.365	1	4
562.535	1	-7
562.705	1	0
562.875	1	-2
563.045	1	-1
563.215	1	-1
563.385	1	-8
563.555	1	-8
563.725	1	5
563.895	1	-3
564.064	1	-9
564.234	1	2
564.404	1	2
564.574	1	9
564.744	1	8
564.914	1	5
565.084	1	-2
565.254	1	3
565.424	1	2
565.594	1	2
565.764	1	-14
565.934	1	2
566.104	1	3
566.274	1	12
566.444	1	-4
566.614	1	0
566.783	1	2
566.953	1	8
567.123	1	6
567.293	1	-9
567.463	1	2
567.633	1	0
567.803	1	8
567.973	1	-3
568.143	1	3
568.313	1	3
568.483	1	6
568.653	1	-5
568.823	1	-2
568.993	1	-9
569.162	1	2
569.332	1	6
569.502	1	12
569.672	1	1
569.842	1	-8
570.012	1	2
570.182	1	-3
570.352	1	7
570.522	1	4
570.692	1	11
570.862	1	0
571.031	1	-1
571.201	1	9
571.371	1	5
571.541	1	1
571.711	1	4
571.881	1	2
572.051	1	-3
572.221	1	3
572.391	1	3
572.561	1	1
572.731	1	1
572.900	1	-13
573.070	1	9
573.240	1	-8
573.410	1	7
573.580	1	0
573.750	1	6
573.920	1	15
574.090	1	6
574.260	1	-3
574.430	1	-3
574.599	1	-3
574.769	1	-1
574.939	1	-8
575.109	1	-3
575.279	1	1
575.449	1	15
575.619	1	0
575.789	1	-3
575.959	1	-3
576.128	1	7
576.298	1	2
576.468	1	-1
576.638	1	-1
576.808	1	5
576.978	1	-5
577.148	1	3
577.318	1	22
577.487	1	2
577.657	1	-4
577.827	1	1
577.997	1	-3
578.167	1	4
578.337	1	-1
578.507	1	-1
578.677	1	-3
578.846	1	14
579.016	1	-1
579.186	1	1
579.356	1	2
579.526	1	-7
579.696	1	8
579.866	1	-6
580.036	1	2
580.205	1	-1
580.375	1	20
580.545	1	-3
580.715	1	-8
580.885	1	2
581.055	1	5
581.225	1	-5
581.394	1	-4
581.564	1	-3
581.734	1	-7
581.904	1	-6
582.074	1	-2
582.244	1	7
582.414	1	2
582.583	1	4
582.753	1	8
582.923	1	9
583.093	1	6
583.263	1	6
583.433	1	7
583.603	1	-14
583.772	1	-6
583.942	1	4
584.112	1	-1
584.282	1	-4
584.452	1	-1
584.622	1	4
584.791	1	2
584.961	1	-8
585.131	1	4
585.301	1	-7
585.471	1	-3
585.641	1	1
585.811	1	-3
585.980	1	-2
586.150	1	1
586.320	1	1
586.490	1	13
586.660	1	4
586.830	1	-16
586.999	1	-3
587.169	1	14
587.339	1	5
587.509	1	3
587.679	1	3
587.849	1	11
588.018	1	-6
588.188	1	1
588.358	1	2
588.528	1	2
588.698	1	1
588.867	1	-5
589.037	1	4
589.207	1	6
589.377	1	-2
589.547	1	6
589.717	1	-2
589.886	1	1
590.056	1	-4
590.226	1	-2
590.396	1	-13
590.566	1	-2
590.735	1	-14
590.905	1	6
591.075	1	-3
591.245	1	-1
591.415	1	8
591.585	1	3
591.754	1	7
591.924	1	4
592.094	1	-6
592.264	1	-9
592.434	1	-1
592.603	1	-3
592.773	1	8
592.943	1	2
593.113	1	5
593.283	1	-2
593.452	1	-7
593.622	1	7
593.792	1	-2
593.962	1	4
594.132	1	5
594.301	1	8
594.471	1	2
594.641	1	4
594.811	1	6
594.981	1	1
595.150	1	9
595.320	1	-2
595.490	1	-1
595.660	1	4
595.829	1	-8
595.999	1	1
596.169	1	15
596.339	1	5
596.509	1	1
596.678	1	7
596.848	1	3
597.018	1	2
597.188	1	-4
597.358	1	4
597.527	1	-7
597.697	1	-6
597.867	1	10
598.037	1	3
598.206	1	1
598.376	1	-1
598.546	1	4
598.716	1	-6
598.885	1	0
599.055	1	8
599.225	1	2
599.395	1	-1
599.565	1	-3
599.734	1	5
599.904	1	-13
600.074	1	7
600.244	1	1
600.413	1	5
600.583	1	-8
600.753	1	6
600.923	1	-2
601.092	1	6
601.262	1	1
601.432	1	5
601.602	1	9
601.771	1	-6
601.941	1	5
602.111	1	-5
602.281	1	0
602.451	1	-6
602.620	1	5
602.790	1	-5
602.960	1	-9
603.130	1	-3
603.299	1	5
603.469	1	1
603.639	1	-1
603.809	1	8
603.978	1	-3
604.148	1	-1
604.318	1	-7
604.487	1	9
604.657	1	-2
604.827	1	3
604.997	1	1
605.166	1	1
605.336	1	-6
605.506	1	-6
605.676	1	7
605.845	1	6
606.015	1	-11
606.185	1	0
606.355	1	-2
606.524	1	1
606.694	1	-3
606.864	1	5
607.034	1	5
607.203	1	7
607.373	1	-5
607.543	1	-3
607.712	1	7
607.882	1	2
608.052	1	-4
608.222	1	-5
608.391	1	12
608.561	1	0
608.731	1	-9
608.901	1	3
609.070	1	-6
609.240	1	-4
609.410	1	3
609.579	1	-5
609.749	1	11
609.919	1	-13
610.089	1	-2
610.258	1	3
610.428	1	12
610.598	1	4
610.767	1	4
610.937	1	-8
611.107	1	5
611.277	1	-4
611.446	1	6
611.616	1	11
611.786	1	2
611.955	1	-2
612.125	1	6
612.295	1	2
612.465	1	3
612.634	1	-6
612.804	1	-4
612.974	1	-8
613.143	1	4
613.313	1	5
613.483	1	6
613.652	1	4
613.822	1	0
613.992	1	3
614.162	1	2
614.331	1	2
614.501	1	4
614.671	1	0
614.840	1	-3
615.010	1	3
615.180	1	12
615.349	1	8
615.519	1	-6
615.689	1	-5
615.858	1	16
616.028	1	-4
616.198	1	-8
616.368	1	-4
616.537	1	4
616.707	1	0
616.877	1	5
617.046	1	5
617.216	1	3
617.386	1	-3
617.555	1	-4
617.725	1	12
617.895	1	3
618.064	1	-3
618.234	1	3
618.404	1	-1
618.573	1	5
618.743	1	11
618.913	1	16
619.082	1	3
619.252	1	-1
619.422	1	0
619.591	1	2
619.761	1	-5
619.931	1	-4
620.100	1	2
620.270	1	8
620.440	1	3
620.609	1	9
620.779	1	7
620.949	1	-1
621.118	1	2
621.288	1	0
621.458	1	2
621.627	1	2
621.797	1	-6
621.967	1	1
622.136	1	1
622.306	1	7
622.476	1	-3
622.645	1	6
622.815	1	5
622.985	1	-1
623.154	1	-10
623.324	1	5
623.494	1	-2
623.663	1	3
623.833	1	-2
624.002	1	8
624.172	1	3
624.342	1	0
624.511	1	-4
624.681	1	-2
624.851	1	-4
625.020	1	0
625.190	1	1
625.360	1	-11
625.529	1	-3
625.699	1	4
625.869	1	10
626.038	1	-13
626.208	1	10
626.377	1	-3
626.547	1	1
626.717	1	-14
626.886	1	-2
627.056	1	3
627.226	1	6
627.395	1	-3
627.565	1	6
627.735	1	2
627.904	1	1
628.074	1	-4
628.243	1	1
628.413	1	-4
628.583	1	-1
628.752	1	-13
628.922	1	2
629.091	1	-1
629.261	1	7
629.431	1	-1
629.600	1	7
629.770	1	-1
629.940	1	-9
630.109	1	1
630.279	1	3
630.448	1	-4
630.618	1	12
630.788	1	-2
630.957	1	7
631.127	1	-5
631.297	1	-4
631.466	1	5
631.636	1	7
631.805	1	3
631.975	1	-3
632.145	1	2
632.314	1	-2
632.484	1	6
632.653	1	1
632.823	1	-2
632.993	1	2
633.162	1	0
633.332	1	-4
633.501	1	1
633.671	1	-7
633.841	1	0
634.010	1	6
634.180	1	5
634.349	1	0
634.519	1	5
634.689	1	-5
634.858	1	-11
635.028	1	-8
635.197	1	6
635.367	1	5
635.537	1	-4
635.706	1	3
635.876	1	3
636.045	1	0
636.215	1	8
636.384	1	-1
636.554	1	-6
636.724	1	-3
636.893	1	-2
637.063	1	2
637.232	1	2
637.402	1	-8
637.572	1	2
637.741	1	0
637.911	1	3
638.080	1	-2
638.250	1	-2
638.419	1	-11
638.589	1	3
638.759	1	-1
638.928	1	12
639.098	1	2
639.267	1	7
639.437	1	-3
639.606	1	3
639.776	1	1
639.946	1	9
640.115	1	3
640.285	1	4
640.454	1	4
640.624	1	9
640.793	1	3
640.963	1	-2
641.132	1	2
641.302	1	4
641.472	1	3
641.641	1	5
641.811	1	-1
641.980	1	3
642.150	1	-4
642.319	1	9
642.489	1	-10
642.659	1	6
642.828	1	0
642.998	1	5
643.167	1	2
643.337	1	-6
643.506	1	1
643.676	1	-1
643.845	1	6
644.015	1	2
644.184	1	-12
644.354	1	-3
644.524	1	2
644.693	1	10
644.863	1	7
645.032	1	1
645.202	1	0
645.371	1	-7
645.541	1	11
645.710	1	-5
645.880	1	-11
646.049	1	-3
646.219	1	-5
646.388	1	4
646.558	1	8
646.728	1	2
646.897	1	1
647.067	1	-1
647.236	1	11
647.406	1	7
647.575	1	10
647.745	1	6
647.914	1	-4
648.084	1	8
648.253	1	2
648.423	1	-7
648.592	1	-13
648.762	1	8
648.931	1	3
649.101	1	-7
649.270	1	0
649.440	1	5
649.610	1	9
649.779	1	4
649.949	1	5
650.118	1	7
650.288	1	4
650.457	1	2
650.627	1	0
650.796	1	-4
650.966	1	-7
651.135	1	0
651.305	1	4
651.474	1	5
651.644	1	13
651.813	1	2
651.983	1	1
652.152	1	4
652.322	1	-2
652.491	1	4
652.661	1	0
652.830	1	6
653.000	1	-5
653.169	1	8
653.339	1	7
653.508	1	1
653.678	1	3
653.847	1	-7
654.017	1	-8
654.186	1	-5
654.356	1	1
654.525	1	-4
654.695	1	-4
654.864	1	-2
655.034	1	7
655.203	1	0
655.373	1	-4
655.542	1	6
655.712	1	-4
655.881	1	8
656.051	1	7
656.220	1	-4
656.390	1	4
656.559	1	-10
656.729	1	-5
656.898	1	1
657.068	1	-2
657.237	1	1
657.406	1	0
657.576	1	-8
657.745	1	8
657.915	1	-4
658.084	1	6
658.254	1	0
658.423	1	-2
658.593	1	3
658.762	1	3
658.932	1	-5
659.101	1	-10
659.271	1	2
659.440	1	-2
659.610	1	1
659.779	1	19
659.949	1	-3
660.118	1	6
660.288	1	3
660.457	1	6
660.626	1	-13
660.796	1	-1
660.965	1	11
661.135	1	-15
661.304	1	-14
661.474	1	5
661.643	1	-3
661.813	1	1
661.982	1	-4
662.152	1	7
662.321	1	0
662.491	1	-9
662.660	1	2
662.829	1	4
662.999	1	3
663.168	1	2
663.338	1	4
663.507	1	2
663.677	1	1
663.846	1	3
664.016	1	-6
664.185	1	-7
664.354	1	5
664.524	1	5
664.693	1	-4
664.863	1	-2
665.032	1	-4
665.202	1	-2
665.371	1	-8
665.541	1	0
665.710	1	1
665.879	1	1
666.049	1	-9
666.218	1	2
666.388	1	8
666.557	1	8
666.727	1	-3
666.896	1	1
667.065	1	6
667.235	1	15
667.404	1	-2
667.574	1	5
667.743	1	2
667.913	1	8
668.082	1	-7
668.251	1	7
668.421	1	8
668.590	1	-5
668.760	1	-1
668.929	1	8
669.099	1	-2
669.268	1	-5
669.437	1	0
669.607	1	14
669.776	1	6
669.946	1	-6
670.115	1	-16
670.285	1	7
670.454	1	-10
670.623	1	-8
670.793	1	-1
670.962	1	-1
671.132	1	-1
671.301	1	3
671.470	1	-5
671.640	1	-4
671.809	1	-3
671.979	1	11
672.148	1	2
672.317	1	-5
672.487	1	1
672.656	1	-6
672.826	1	1
672.995	1	2
673.164	1	-14
673.334	1	-1
673.503	1	-9
673.673	1	4
673.842	1	1
674.011	1	8
674.181	1	5
674.350	1	6
674.520	1	7
674.689	1	-7
674.858	1	-9
675.028	1	3
675.197	1	6
675.367	1	-3
675.536	1	3
675.705	1	-5
675.875	1	3
676.044	1	-9
676.214	1	9
676.383	1	5
676.552	1	-2
676.722	1	-4
676.891	1	-8
677.060	1	-4
677.230	1	7
677.399	1	-16
677.569	1	14
677.738	1	7
677.907	1	1
678.077	1	11
678.246	1	-2
678.416	1	0
678.585	1	-7
678.754	1	3
678.924	1	12
679.093	1	4
679.262	1	-3
679.432	1	1
679.601	1	-6
679.771	1	-3
679.940	1	4
680.109	1	-3
680.279	1	-2
680.448	1	7
680.617	1	-7
680.787	1	-2
680.956	1	8
681.125	1	6
681.295	1	-1
681.464	1	-7
681.634	1	9
681.803	1	-1
681.972	1	1
682.142	1	-8
682.311	1	9
682.480	1	6
682.650	1	0
682.819	1	9
682.988	1	-2
683.158	1	2
683.327	1	-3
683.496	1	-4
683.666	1	6
683.835	1	-9
684.004	1	7
684.174	1	-2
684.343	1	8
684.512	1	-7
684.682	1	7
684.851	1	5
685.021	1	5
685.190	1	6
685.359	1	-5
685.529	1	5
685.698	1	0
685.867	1	10
686.037	1	-2
686.206	1	-11
686.375	1	3
686.545	1	12
686.714	1	6
686.883	1	-1
687.053	1	-1
687.222	1	4
687.391	1	7
687.561	1	11
687.730	1	5
687.899	1	3
688.069	1	7
688.238	1	2
688.407	1	-2
688.577	1	-1
688.746	1	8
