340.368	1	10
340.539	1	11
340.710	1	6
340.881	1	-3
341.052	1	-7
341.223	1	10
341.394	1	-6
341.565	1	0
341.737	1	-4
341.908	1	-13
342.079	1	-2
342.250	1	8
342.421	1	1
342.592	1	8
342.763	1	13
342.934	1	-3
343.105	1	7
343.276	1	-4
343.447	1	-7
343.618	1	-1
343.789	1	0
343.960	1	3
344.131	1	8
344.302	1	-11
344.473	1	-7
344.644	1	-2
344.815	1	1
344.986	1	1
345.157	1	6
345.328	1	-5
345.499	1	-3
345.670	1	-6
345.841	1	5
346.012	1	7
346.183	1	8
346.354	1	0
346.526	1	-1
346.697	1	9
346.868	1	1
347.039	1	6
347.210	1	-3
347.381	1	-3
347.552	1	5
347.723	1	1
347.894	1	5
348.065	1	2
348.236	1	5
348.407	1	0
348.578	1	2
348.749	1	2
348.920	1	2
349.091	1	-2
349.262	1	0
349.433	1	2
349.604	1	11
349.775	1	8
349.946	1	-5
350.117	1	1
350.288	1	7
350.459	1	-7
350.630	1	4
350.801	1	18
350.972	1	14
351.143	1	9
351.314	1	6
351.485	1	7
351.656	1	7
351.827	1	10
351.998	1	7
352.169	1	1
352.340	1	9
352.511	1	4
352.682	1	11
352.853	1	0
353.024	1	-2
353.195	1	3
353.366	1	7
353.537	1	1
353.708	1	11
353.879	1	-9
354.050	1	8
354.221	1	-7
354.392	1	15
354.563	1	12
354.734	1	7
354.905	1	2
355.076	1	11
355.247	1	17
355.418	1	4
355.589	1	1
355.760	1	6
355.931	1	10
356.102	1	7
356.273	1	-6
356.444	1	15
356.615	1	3
356.785	1	2
356.956	1	4
357.127	1	8
357.298	1	16
357.469	1	7
357.640	1	9
357.811	1	3
357.982	1	7
358.153	1	8
358.324	1	31
358.495	1	8
358.666	1	4
358.837	1	19
359.008	1	15
359.179	1	14
359.350	1	9
359.521	1	18
359.692	1	10
359.863	1	15
360.034	1	20
360.205	1	8
360.376	1	4
360.547	1	13
360.718	1	25
360.889	1	15
361.060	1	18
361.231	1	4
361.401	1	7
361.572	1	9
361.743	1	25
361.914	1	22
362.085	1	22
362.256	1	20
362.427	1	15
362.598	1	19
362.769	1	17
362.940	1	31
363.111	1	15
363.282	1	22
363.453	1	27
363.624	1	23
363.795	1	32
363.966	1	27
364.137	1	32
364.308	1	34
364.478	1	37
364.649	1	38
364.820	1	38
364.991	1	42
365.162	1	36
365.333	1	41
365.504	1	36
365.675	1	41
365.846	1	43
366.017	1	43
366.188	1	42
366.359	1	47
366.530	1	52
366.701	1	53
366.871	1	52
367.042	1	62
367.213	1	50
367.384	1	42
367.555	1	52
367.726	1	58
367.897	1	55
368.068	1	50
368.239	1	43
368.410	1	36
368.581	1	47
368.752	1	60
368.923	1	37
369.093	1	37
369.264	1	41
369.435	1	40
369.606	1	38
369.777	1	39
369.948	1	45
370.119	1	32
370.290	1	43
370.461	1	35
370.632	1	34
370.803	1	32
370.973	1	29
371.144	1	31
371.315	1	37
371.486	1	39
371.657	1	28
371.828	1	30
371.999	1	14
372.170	1	24
372.341	1	27
372.512	1	19
372.682	1	36
372.853	1	23
373.024	1	23
373.195	1	17
373.366	1	22
373.537	1	26
373.708	1	7
373.879	1	25
374.050	1	22
374.220	1	14
374.391	1	24
374.562	1	27
374.733	1	19
374.904	1	33
375.075	1	26
375.246	1	5
375.417	1	24
375.588	1	25
375.758	1	13
375.929	1	17
376.100	1	20
376.271	1	22
376.442	1	4
376.613	1	17
376.784	1	20
376.955	1	13
377.125	1	16
377.296	1	10
377.467	1	8
377.638	1	10
377.809	1	13
377.980	1	18
378.151	1	14
378.321	1	8
378.492	1	15
378.663	1	10
378.834	1	20
379.005	1	15
379.176	1	15
379.347	1	15
379.518	1	15
379.688	1	4
379.859	1	13
380.030	1	29
380.201	1	14
380.372	1	10
380.543	1	17
380.714	1	6
380.884	1	25
381.055	1	2
381.226	1	13
381.397	1	21
381.568	1	11
381.739	1	13
381.910	1	12
382.080	1	17
382.251	1	13
382.422	1	6
382.593	1	22
382.764	1	8
382.935	1	19
383.105	1	7
383.276	1	13
383.447	1	15
383.618	1	23
383.789	1	14
383.960	1	9
384.130	1	9
384.301	1	20
384.472	1	12
384.643	1	16
384.814	1	11
384.985	1	23
385.156	1	30
385.326	1	31
385.497	1	30
385.668	1	15
385.839	1	37
386.010	1	28
386.180	1	24
386.351	1	20
386.522	1	26
386.693	1	19
386.864	1	28
387.035	1	23
387.205	1	20
387.376	1	38
387.547	1	27
387.718	1	15
387.889	1	22
388.060	1	29
388.230	1	22
388.401	1	5
388.572	1	24
388.743	1	20
388.914	1	8
389.084	1	17
389.255	1	20
389.426	1	11
389.597	1	24
389.768	1	30
389.939	1	22
390.109	1	12
390.280	1	17
390.451	1	15
390.622	1	26
390.793	1	20
390.963	1	17
391.134	1	17
391.305	1	14
391.476	1	27
391.647	1	23
391.817	1	13
391.988	1	3
392.159	1	32
392.330	1	16
392.501	1	17
392.671	1	21
392.842	1	18
393.013	1	24
393.184	1	26
393.355	1	20
393.525	1	19
393.696	1	24
393.867	1	17
394.038	1	20
394.208	1	29
394.379	1	12
394.550	1	9
394.721	1	17
394.892	1	14
395.062	1	19
395.233	1	11
395.404	1	26
395.575	1	18
395.746	1	14
395.916	1	26
396.087	1	15
396.258	1	25
396.429	1	27
396.599	1	23
396.770	1	34
396.941	1	14
397.112	1	2
397.283	1	14
397.453	1	24
397.624	1	13
397.795	1	20
397.966	1	22
398.136	1	17
398.307	1	12
398.478	1	15
398.649	1	15
398.819	1	20
398.990	1	15
399.161	1	22
399.332	1	24
399.503	1	26
399.673	1	2
399.844	1	10
400.015	1	19
400.186	1	16
400.356	1	18
400.527	1	21
400.698	1	9
400.869	1	-3
401.039	1	17
401.210	1	18
401.381	1	16
401.552	1	17
401.722	1	20
401.893	1	17
402.064	1	19
402.235	1	4
402.405	1	13
402.576	1	7
402.747	1	14
402.918	1	11
403.088	1	8
403.259	1	9
403.430	1	19
403.601	1	13
403.771	1	19
403.942	1	12
404.113	1	19
404.284	1	7
404.454	1	18
404.625	1	14
404.796	1	6
404.967	1	13
405.137	1	21
405.308	1	13
405.479	1	11
405.649	1	9
405.820	1	11
405.991	1	4
406.162	1	25
406.332	1	0
406.503	1	15
406.674	1	10
406.845	1	18
407.015	1	4
407.186	1	14
407.357	1	11
407.527	1	10
407.698	1	15
407.869	1	12
408.040	1	10
408.210	1	20
408.381	1	3
408.552	1	2
408.722	1	5
408.893	1	10
409.064	1	10
409.235	1	10
409.405	1	21
409.576	1	13
409.747	1	23
409.917	1	15
410.088	1	10
410.259	1	7
410.430	1	10
410.600	1	6
410.771	1	6
410.942	1	0
411.112	1	12
411.283	1	9
411.454	1	-1
411.625	1	6
411.795	1	16
411.966	1	25
412.137	1	21
412.307	1	17
412.478	1	16
412.649	1	3
412.819	1	13
412.990	1	3
413.161	1	0
413.332	1	12
413.502	1	2
413.673	1	15
413.844	1	17
414.014	1	8
414.185	1	9
414.356	1	11
414.526	1	4
414.697	1	10
414.868	1	14
415.038	1	2
415.209	1	2
415.380	1	19
415.550	1	14
415.721	1	21
415.892	1	8
416.063	1	13
416.233	1	12
416.404	1	6
416.575	1	-5
416.745	1	2
416.916	1	10
417.087	1	4
417.257	1	20
417.428	1	1
417.599	1	13
417.769	1	1
417.940	1	-3
418.111	1	7
418.281	1	4
418.452	1	4
418.623	1	9
418.793	1	15
418.964	1	6
419.135	1	14
419.305	1	1
419.476	1	2
419.647	1	11
419.817	1	10
419.988	1	3
420.159	1	6
420.329	1	3
420.500	1	14
420.671	1	6
420.841	1	7
421.012	1	9
421.183	1	6
421.353	1	8
421.524	1	15
421.695	1	6
421.865	1	2
422.036	1	7
422.206	1	12
422.377	1	6
422.548	1	13
422.718	1	4
422.889	1	-4
423.060	1	7
423.230	1	12
423.401	1	0
423.572	1	17
423.742	1	5
423.913	1	9
424.084	1	8
424.254	1	-5
424.425	1	-2
424.595	1	8
424.766	1	9
424.937	1	14
425.107	1	5
425.278	1	10
425.449	1	2
425.619	1	-5
425.790	1	8
425.961	1	6
426.131	1	2
426.302	1	9
426.472	1	6
426.643	1	1
426.814	1	-4
426.984	1	6
427.155	1	-4
427.326	1	7
427.496	1	-2
427.667	1	9
427.837	1	5
428.008	1	6
428.179	1	0
428.349	1	3
428.520	1	1
428.691	1	0
428.861	1	5
429.032	1	6
429.202	1	2
429.373	1	0
429.544	1	8
429.714	1	2
429.885	1	0
430.055	1	2
430.226	1	8
430.397	1	5
430.567	1	0
430.738	1	3
430.909	1	-1
431.079	1	5
431.250	1	2
431.420	1	7
431.591	1	7
431.762	1	6
431.932	1	2
432.103	1	14
432.273	1	9
432.444	1	2
432.615	1	-4
432.785	1	-5
432.956	1	7
433.126	1	0
433.297	1	1
433.468	1	1
433.638	1	2
433.809	1	4
433.979	1	6
434.150	1	11
434.320	1	9
434.491	1	4
434.662	1	8
434.832	1	4
435.003	1	8
435.173	1	3
435.344	1	-1
435.515	1	-6
435.685	1	-1
435.856	1	0
436.026	1	3
436.197	1	-4
436.368	1	3
436.538	1	-5
436.709	1	-10
436.879	1	2
437.050	1	15
437.220	1	-1
437.391	1	11
437.562	1	11
437.732	1	4
437.903	1	0
438.073	1	2
438.244	1	2
438.414	1	1
438.585	1	11
438.756	1	8
438.926	1	2
439.097	1	7
439.267	1	0
439.438	1	5
439.608	1	3
439.779	1	-3
439.949	1	-1
440.120	1	4
440.291	1	8
440.461	1	7
440.632	1	8
440.802	1	8
440.973	1	2
441.143	1	-4
441.314	1	1
441.485	1	7
441.655	1	-2
441.826	1	-11
441.996	1	-5
442.167	1	6
442.337	1	8
442.508	1	10
442.678	1	-3
442.849	1	-5
443.019	1	12
443.190	1	14
443.361	1	10
443.531	1	12
443.702	1	-10
443.872	1	9
444.043	1	14
444.213	1	7
444.384	1	2
444.554	1	3
444.725	1	6
444.895	1	2
445.066	1	-5
445.237	1	2
445.407	1	1
445.578	1	2
445.748	1	-7
445.919	1	4
446.089	1	2
446.260	1	-8
446.430	1	5
446.601	1	17
446.771	1	2
446.942	1	3
447.112	1	10
447.283	1	-3
447.453	1	4
447.624	1	-2
447.794	1	5
447.965	1	17
448.135	1	-6
448.306	1	6
448.477	1	5
448.647	1	5
448.818	1	5
448.988	1	4
449.159	1	7
449.329	1	3
449.500	1	3
449.670	1	6
449.841	1	1
450.011	1	3
450.182	1	-13
450.352	1	9
450.523	1	2
450.693	1	0
450.864	1	-3
451.034	1	19
451.205	1	2
451.375	1	1
451.546	1	-3
451.716	1	11
451.887	1	0
452.057	1	10
452.228	1	3
452.398	1	10
452.569	1	-2
452.739	1	3
452.910	1	-6
453.080	1	-1
453.251	1	-3
453.421	1	-4
453.592	1	10
453.762	1	-5
453.933	1	-3
454.103	1	5
454.274	1	2
454.444	1	2
454.615	1	6
454.785	1	0
454.956	1	5
455.126	1	-8
455.297	1	-3
455.467	1	-10
455.638	1	10
455.808	1	-1
455.979	1	-1
456.149	1	3
456.320	1	13
456.490	1	7
456.661	1	-3
456.831	1	3
457.001	1	0
457.172	1	0
457.342	1	5
457.513	1	12
457.683	1	2
457.854	1	5
458.024	1	-4
458.195	1	1
458.365	1	19
458.536	1	-9
458.706	1	-7
458.877	1	2
459.047	1	12
459.218	1	1
459.388	1	18
459.559	1	5
459.729	1	-3
459.899	1	5
460.070	1	2
460.240	1	10
460.411	1	2
460.581	1	-2
460.752	1	4
460.922	1	14
461.093	1	7
461.263	1	7
461.434	1	10
461.604	1	12
461.775	1	-4
461.945	1	7
462.115	1	4
462.286	1	4
462.456	1	6
462.627	1	8
462.797	1	-5
462.968	1	-3
463.138	1	-4
463.309	1	-8
463.479	1	10
463.649	1	-3
463.820	1	-6
463.990	1	6
464.161	1	5
464.331	1	14
464.502	1	7
464.672	1	-12
464.843	1	4
465.013	1	-9
465.183	1	-1
465.354	1	8
465.524	1	-5
465.695	1	3
465.865	1	1
466.036	1	8
466.206	1	3
466.376	1	-8
466.547	1	3
466.717	1	4
466.888	1	-2
467.058	1	5
467.229	1	3
467.399	1	-1
467.569	1	7
467.740	1	4
467.910	1	3
468.081	1	2
468.251	1	7
468.422	1	3
468.592	1	5
468.762	1	-3
468.933	1	3
469.103	1	-3
469.274	1	-8
469.444	1	8
469.614	1	11
469.785	1	8
469.955	1	3
470.126	1	6
470.296	1	13
470.467	1	-11
470.637	1	10
470.807	1	19
470.978	1	7
471.148	1	-3
471.319	1	-1
471.489	1	-13
471.659	1	7
471.830	1	10
472.000	1	6
472.171	1	-1
472.341	1	-4
472.511	1	20
472.682	1	-5
472.852	1	-4
473.023	1	5
473.193	1	9
473.363	1	-4
473.534	1	-8
473.704	1	5
473.875	1	0
474.045	1	-1
474.215	1	13
474.386	1	5
474.556	1	4
474.727	1	-2
474.897	1	6
475.067	1	0
475.238	1	-2
475.408	1	-1
475.578	1	6
475.749	1	4
475.919	1	4
476.090	1	5
476.260	1	2
476.430	1	12
476.601	1	8
476.771	1	-2
476.942	1	7
477.112	1	2
477.282	1	2
477.453	1	-3
477.623	1	-1
477.793	1	2
477.964	1	0
478.134	1	6
478.305	1	-5
478.475	1	2
478.645	1	0
478.816	1	12
478.986	1	0
479.156	1	-3
479.327	1	4
479.497	1	7
479.667	1	9
479.838	1	-1
480.008	1	5
480.179	1	-3
480.349	1	4
480.519	1	-5
480.690	1	3
480.860	1	-4
481.030	1	11
481.201	1	-3
481.371	1	4
481.541	1	7
481.712	1	-4
481.882	1	10
482.053	1	14
482.223	1	2
482.393	1	5
482.564	1	5
482.734	1	3
482.904	1	1
483.075	1	0
483.245	1	8
483.415	1	7
483.586	1	-4
483.756	1	-4
483.926	1	4
484.097	1	2
484.267	1	-11
484.437	1	4
484.608	1	8
484.778	1	-1
484.948	1	2
485.119	1	-1
485.289	1	9
485.459	1	-3
485.630	1	14
485.800	1	-2
485.970	1	4
486.141	1	8
486.311	1	-2
486.481	1	-2
486.652	1	-1
486.822	1	2
486.992	1	9
487.163	1	10
487.333	1	8
487.503	1	4
487.674	1	1
487.844	1	0
488.014	1	3
488.185	1	-4
488.355	1	10
488.525	1	7
488.696	1	6
488.866	1	-8
489.036	1	8
489.207	1	8
489.377	1	-2
489.547	1	1
489.718	1	5
489.888	1	8
490.058	1	6
490.228	1	-4
490.399	1	10
490.569	1	12
490.739	1	6
490.910	1	-3
491.080	1	2
491.250	1	3
491.421	1	7
491.591	1	-2
491.761	1	4
491.932	1	2
492.102	1	2
492.272	1	11
492.442	1	4
492.613	1	6
492.783	1	4
492.953	1	2
493.124	1	7
493.294	1	10
493.464	1	15
493.635	1	2
493.805	1	12
493.975	1	9
494.145	1	11
494.316	1	5
494.486	1	11
494.656	1	0
494.827	1	19
494.997	1	1
495.167	1	16
495.337	1	-5
495.508	1	5
495.678	1	10
495.848	1	-6
496.019	1	1
496.189	1	8
496.359	1	-1
496.529	1	7
496.700	1	0
496.870	1	13
497.040	1	2
497.211	1	10
497.381	1	3
497.551	1	1
497.721	1	3
497.892	1	8
498.062	1	9
498.232	1	11
498.403	1	-1
498.573	1	3
498.743	1	13
498.913	1	19
499.084	1	-2
499.254	1	4
499.424	1	4
499.594	1	0
499.765	1	15
499.935	1	-1
500.105	1	14
500.275	1	9
500.446	1	6
500.616	1	7
500.786	1	14
500.956	1	2
501.127	1	24
501.297	1	4
501.467	1	14
501.638	1	6
501.808	1	3
501.978	1	6
502.148	1	0
502.319	1	20
502.489	1	9
502.659	1	22
502.829	1	18
503.000	1	12
503.170	1	-1
503.340	1	15
503.510	1	6
503.681	1	3
503.851	1	23
504.021	1	16
504.191	1	9
504.362	1	8
504.532	1	12
504.702	1	4
504.872	1	-1
505.042	1	3
505.213	1	18
505.383	1	16
505.553	1	7
505.723	1	8
505.894	1	-4
506.064	1	16
506.234	1	7
506.404	1	10
506.575	1	11
506.745	1	25
506.915	1	14
507.085	1	5
507.256	1	20
507.426	1	8
507.596	1	20
507.766	1	11
507.936	1	11
508.107	1	10
508.277	1	5
508.447	1	13
508.617	1	2
508.788	1	18
508.958	1	15
509.128	1	11
509.298	1	10
509.468	1	12
509.639	1	7
509.809	1	22
509.979	1	17
510.149	1	18
510.319	1	7
510.490	1	13
510.660	1	19
510.830	1	8
511.000	1	7
511.171	1	8
511.341	1	18
511.511	1	13
511.681	1	25
511.851	1	24
512.022	1	10
512.192	1	20
512.362	1	13
512.532	1	7
512.702	1	12
512.873	1	17
513.043	1	17
513.213	1	23
513.383	1	5
513.553	1	17
513.724	1	16
513.894	1	12
514.064	1	23
514.234	1	20
514.404	1	22
514.575	1	8
514.745	1	10
514.915	1	-5
515.085	1	22
515.255	1	14
515.425	1	21
515.596	1	34
515.766	1	19
515.936	1	11
516.106	1	19
516.276	1	13
516.447	1	19
516.617	1	13
516.787	1	13
516.957	1	17
517.127	1	7
517.297	1	18
517.468	1	12
517.638	1	7
517.808	1	15
517.978	1	25
518.148	1	4
518.319	1	24
518.489	1	4
518.659	1	17
518.829	1	22
518.999	1	18
519.169	1	12
519.340	1	31
519.510	1	20
519.680	1	25
519.850	1	13
520.020	1	15
520.190	1	22
520.361	1	14
520.531	1	24
520.701	1	29
520.871	1	13
521.041	1	17
521.211	1	23
521.382	1	12
521.552	1	10
521.722	1	23
521.892	1	17
522.062	1	23
522.232	1	29
522.402	1	18
522.573	1	26
522.743	1	23
522.913	1	14
523.083	1	17
523.253	1	4
523.423	1	21
523.593	1	17
523.764	1	23
523.934	1	30
524.104	1	22
524.274	1	22
524.444	1	13
524.614	1	24
524.784	1	19
524.955	1	28
525.125	1	21
525.295	1	18
525.465	1	26
525.635	1	8
525.805	1	22
525.975	1	19
526.146	1	14
526.316	1	13
526.486	1	18
526.656	1	22
526.826	1	22
526.996	1	17
527.166	1	26
527.337	1	14
527.507	1	21
527.677	1	28
527.847	1	13
528.017	1	17
528.187	1	23
528.357	1	22
528.527	1	19
528.698	1	11
528.868	1	10
529.038	1	11
529.208	1	6
529.378	1	20
529.548	1	22
529.718	1	26
529.888	1	21
530.058	1	25
530.229	1	21
530.399	1	14
530.569	1	20
530.739	1	12
530.909	1	22
531.079	1	14
531.249	1	11
531.419	1	27
531.589	1	25
531.760	1	15
531.930	1	20
532.100	1	20
532.270	1	22
532.440	1	16
532.610	1	30
532.780	1	25
532.950	1	17
533.120	1	35
533.290	1	30
533.461	1	15
533.631	1	14
533.801	1	21
533.971	1	17
534.141	1	17
534.311	1	29
534.481	1	35
534.651	1	23
534.821	1	25
534.991	1	17
535.162	1	11
535.332	1	19
535.502	1	13
535.672	1	9
535.842	1	21
536.012	1	18
536.182	1	24
536.352	1	11
536.522	1	17
536.692	1	23
536.862	1	8
537.032	1	18
537.203	1	30
537.373	1	21
537.543	1	13
537.713	1	26
537.883	1	14
538.053	1	10
538.223	1	19
538.393	1	19
538.563	1	22
538.733	1	25
538.903	1	22
539.073	1	24
539.243	1	13
539.413	1	23
539.584	1	22
539.754	1	19
539.924	1	12
540.094	1	11
540.264	1	0
540.434	1	14
540.604	1	20
540.774	1	19
540.944	1	14
541.114	1	13
541.284	1	19
541.454	1	18
541.624	1	23
541.794	1	22
541.964	1	11
542.134	1	17
542.305	1	27
542.475	1	5
542.645	1	24
542.815	1	3
542.985	1	26
543.155	1	15
543.325	1	10
543.495	1	23
543.665	1	19
543.835	1	12
544.005	1	17
544.175	1	18
544.345	1	9
544.515	1	11
544.685	1	21
544.855	1	19
545.025	1	19
545.195	1	11
545.365	1	20
545.535	1	12
545.705	1	20
545.875	1	11
546.045	1	18
546.216	1	1
546.386	1	12
546.556	1	6
546.726	1	12
546.896	1	16
547.066	1	25
547.236	1	13
547.406	1	10
547.576	1	16
547.746	1	29
547.916	1	14
548.086	1	26
548.256	1	-1
548.426	1	13
548.596	1	5
548.766	1	23
548.936	1	26
549.106	1	24
549.276	1	24
549.446	1	14
549.616	1	14
549.786	1	8
549.956	1	7
550.126	1	16
550.296	1	11
550.466	1	19
550.636	1	10
550.806	1	32
550.976	1	15
551.146	1	7
551.316	1	13
551.486	1	19
551.656	1	23
551.826	1	25
551.996	1	14
552.166	1	15
552.336	1	5
552.506	1	25
552.676	1	17
552.846	1	13
553.016	1	28
553.186	1	20
553.356	1	19
553.526	1	9
553.696	1	26
553.866	1	18
554.036	1	20
554.206	1	6
554.376	1	5
554.546	1	13
554.716	1	11
554.886	1	22
555.056	1	16
555.226	1	12
555.396	1	10
555.566	1	18
555.736	1	19
555.906	1	11
556.076	1	15
556.246	1	8
556.416	1	0
556.586	1	5
556.756	1	6
556.926	1	14
557.096	1	20
557.266	1	6
557.436	1	11
557.606	1	12
557.776	1	20
557.946	1	1
558.116	1	5
558.286	1	2
558.456	1	11
558.626	1	4
558.796	1	6
558.966	1	10
559.136	1	11
559.306	1	13
559.476	1	21
559.646	1	14
559.816	1	21
559.986	1	7
560.155	1	18
560.325	1	10
560.495	1	7
560.665	1	5
560.835	1	0
561.005	1	10
561.175	1	1
561.345	1	6
561.515	1	6
561.685	1	0
561.855	1	13
562.025	1	6
562.195	1	13
562.365	1	18
562.535	1	13
562.705	1	18
562.875	1	1
563.045	1	7
563.215	1	10
563.385	1	0
563.555	1	-3
563.725	1	16
563.895	1	11
564.064	1	2
564.234	1	13
564.404	1	7
564.574	1	24
564.744	1	5
564.914	1	6
565.084	1	1
565.254	1	12
565.424	1	6
565.594	1	6
565.764	1	5
565.934	1	17
566.104	1	0
566.274	1	13
566.444	1	-3
566.614	1	3
566.783	1	14
566.953	1	3
567.123	1	13
567.293	1	7
567.463	1	4
567.633	1	11
567.803	1	16
567.973	1	14
568.143	1	10
568.313	1	14
568.483	1	17
568.653	1	-1
568.823	1	6
568.993	1	5
569.162	1	3
569.332	1	17
569.502	1	21
569.672	1	12
569.842	1	6
570.012	1	8
570.182	1	5
570.352	1	7
570.522	1	10
570.692	1	18
570.862	1	14
571.031	1	7
571.201	1	7
571.371	1	7
571.541	1	6
571.711	1	5
571.881	1	15
572.051	1	2
572.221	1	18
572.391	1	11
572.561	1	5
572.731	1	16
572.900	1	-4
573.070	1	17
573.240	1	1
573.410	1	-3
573.580	1	-5
573.750	1	16
573.920	1	14
574.090	1	15
574.260	1	6
574.430	1	-3
574.599	1	10
574.769	1	3
574.939	1	1
575.109	1	1
575.279	1	9
575.449	1	25
575.619	1	7
575.789	1	0
575.959	1	12
576.128	1	4
576.298	1	-1
576.468	1	4
576.638	1	4
576.808	1	4
576.978	1	2
577.148	1	9
577.318	1	15
577.487	1	-1
577.657	1	9
577.827	1	7
577.997	1	14
578.167	1	6
578.337	1	-1
578.507	1	3
578.677	1	-5
578.846	1	17
579.016	1	5
579.186	1	11
579.356	1	5
579.526	1	1
579.696	1	20
579.866	1	-2
580.036	1	9
580.205	1	2
580.375	1	21
580.545	1	3
580.715	1	13
580.885	1	11
581.055	1	6
581.225	1	12
581.394	1	-12
581.564	1	4
581.734	1	-5
581.904	1	10
582.074	1	6
582.244	1	13
582.414	1	9
582.583	1	11
582.753	1	14
582.923	1	6
583.093	1	12
583.263	1	15
583.433	1	7
583.603	1	-3
583.772	1	-10
583.942	1	3
584.112	1	7
584.282	1	0
584.452	1	2
584.622	1	-1
584.791	1	0
584.961	1	-3
585.131	1	11
585.301	1	4
585.471	1	-1
585.641	1	2
585.811	1	3
585.980	1	6
586.150	1	7
586.320	1	1
586.490	1	17
586.660	1	11
586.830	1	-1
586.999	1	3
587.169	1	3
587.339	1	-2
587.509	1	13
587.679	1	2
587.849	1	9
588.018	1	-6
588.188	1	3
588.358	1	-1
588.528	1	6
588.698	1	9
588.867	1	5
589.037	1	3
589.207	1	5
589.377	1	10
589.547	1	11
589.717	1	-9
589.886	1	9
590.056	1	7
590.226	1	-3
590.396	1	-1
590.566	1	-1
590.735	1	-2
590.905	1	10
591.075	1	-9
591.245	1	9
591.415	1	5
591.585	1	13
591.754	1	6
591.924	1	5
592.094	1	9
592.264	1	-2
592.434	1	9
592.603	1	3
592.773	1	1
592.943	1	9
593.113	1	7
593.283	1	-5
593.452	1	2
593.622	1	8
593.792	1	13
593.962	1	12
594.132	1	7
594.301	1	11
594.471	1	4
594.641	1	2
594.811	1	-10
594.981	1	-5
595.150	1	11
595.320	1	6
595.490	1	6
595.660	1	2
595.829	1	-1
595.999	1	-1
596.169	1	17
596.339	1	12
596.509	1	0
596.678	1	10
596.848	1	9
597.018	1	0
597.188	1	3
597.358	1	0
597.527	1	1
597.697	1	4
597.867	1	10
598.037	1	0
598.206	1	15
598.376	1	-4
598.546	1	13
598.716	1	-22
598.885	1	2
599.055	1	12
599.225	1	6
599.395	1	4
599.565	1	8
599.734	1	0
599.904	1	-9
600.074	1	2
600.244	1	6
600.413	1	-1
600.583	1	-8
600.753	1	4
600.923	1	5
601.092	1	6
601.262	1	9
601.432	1	4
601.602	1	9
601.771	1	5
601.941	1	9
602.111	1	6
602.281	1	1
602.451	1	2
602.620	1	3
602.790	1	1
602.960	1	-10
603.130	1	6
603.299	1	2
603.469	1	8
603.639	1	-3
603.809	1	13
603.978	1	-2
604.148	1	0
604.318	1	9
604.487	1	5
604.657	1	-1
604.827	1	7
604.997	1	5
605.166	1	-3
605.336	1	-1
605.506	1	-2
605.676	1	6
605.845	1	-3
606.015	1	-4
606.185	1	2
606.355	1	-3
606.524	1	8
606.694	1	6
606.864	1	5
607.034	1	7
607.203	1	11
607.373	1	7
607.543	1	-3
607.712	1	2
607.882	1	7
608.052	1	4
608.222	1	-1
608.391	1	12
608.561	1	4
608.731	1	2
608.901	1	-3
609.070	1	3
609.240	1	1
609.410	1	-2
609.579	1	2
609.749	1	12
609.919	1	-4
610.089	1	4
610.258	1	1
610.428	1	14
610.598	1	8
610.767	1	4
610.937	1	3
611.107	1	3
611.277	1	-2
611.446	1	4
611.616	1	5
611.786	1	10
611.955	1	8
612.125	1	11
612.295	1	1
612.465	1	1
612.634	1	9
612.804	1	-1
612.974	1	1
613.143	1	4
613.313	1	7
613.483	1	12
613.652	1	10
613.822	1	6
613.992	1	1
614.162	1	6
614.331	1	3
614.501	1	2
614.671	1	4
614.840	1	-1
615.010	1	9
615.180	1	7
615.349	1	21
615.519	1	-5
615.689	1	-7
615.858	1	9
616.028	1	11
616.198	1	-5
616.368	1	2
616.537	1	6
616.707	1	7
616.877	1	8
617.046	1	12
617.216	1	8
617.386	1	3
617.555	1	-6
617.725	1	5
617.895	1	-1
618.064	1	-4
618.234	1	2
618.404	1	-3
618.573	1	10
618.743	1	12
618.913	1	4
619.082	1	0
619.252	1	5
619.422	1	2
619.591	1	-3
619.761	1	2
619.931	1	12
620.100	1	18
620.270	1	7
620.440	1	9
620.609	1	12
620.779	1	13
620.949	1	-3
621.118	1	6
621.288	1	-6
621.458	1	3
621.627	1	-7
621.797	1	3
621.967	1	2
622.136	1	3
622.306	1	5
622.476	1	-7
622.645	1	7
622.815	1	2
622.985	1	5
623.154	1	-6
623.324	1	7
623.494	1	6
623.663	1	5
623.833	1	-2
624.002	1	-1
624.172	1	-1
624.342	1	12
624.511	1	-3
624.681	1	6
624.851	1	-4
625.020	1	0
625.190	1	-1
625.360	1	-2
625.529	1	-6
625.699	1	-3
625.869	1	-2
626.038	1	-11
626.208	1	16
626.377	1	-4
626.547	1	0
626.717	1	-10
626.886	1	-3
627.056	1	-4
627.226	1	7
627.395	1	-4
627.565	1	8
627.735	1	5
627.904	1	12
628.074	1	8
628.243	1	5
628.413	1	-1
628.583	1	-2
628.752	1	-5
628.922	1	-1
629.091	1	3
629.261	1	14
629.431	1	9
629.600	1	5
629.770	1	4
629.940	1	4
630.109	1	13
630.279	1	2
630.448	1	1
630.618	1	16
630.788	1	3
630.957	1	9
631.127	1	3
631.297	1	-2
631.466	1	0
631.636	1	11
631.805	1	6
631.975	1	7
632.145	1	3
632.314	1	5
632.484	1	14
632.653	1	-9
632.823	1	-2
632.993	1	3
633.162	1	5
633.332	1	-3
633.501	1	2
633.671	1	-5
633.841	1	2
634.010	1	10
634.180	1	13
634.349	1	-1
634.519	1	6
634.689	1	7
634.858	1	-12
635.028	1	-5
635.197	1	-2
635.367	1	11
635.537	1	1
635.706	1	3
635.876	1	8
636.045	1	5
636.215	1	13
636.384	1	1
636.554	1	6
636.724	1	1
636.893	1	0
637.063	1	-3
637.232	1	-1
637.402	1	-3
637.572	1	4
637.741	1	-3
637.911	1	4
638.080	1	12
638.250	1	0
638.419	1	3
638.589	1	10
638.759	1	3
638.928	1	4
639.098	1	7
639.267	1	4
639.437	1	4
639.606	1	8
639.776	1	9
639.946	1	2
640.115	1	-8
640.285	1	7
640.454	1	7
640.624	1	17
640.793	1	-1
640.963	1	9
641.132	1	2
641.302	1	3
641.472	1	6
641.641	1	-1
641.811	1	-8
641.980	1	-6
642.150	1	3
642.319	1	6
642.489	1	-1
642.659	1	14
642.828	1	5
642.998	1	-2
643.167	1	-2
643.337	1	2
643.506	1	-1
643.676	1	2
643.845	1	3
644.015	1	4
644.184	1	-2
644.354	1	3
644.524	1	7
644.693	1	4
644.863	1	6
645.032	1	0
645.202	1	-3
645.371	1	-2
645.541	1	-2
645.710	1	-9
645.880	1	1
646.049	1	-9
646.219	1	3
646.388	1	14
646.558	1	6
646.728	1	-1
646.897	1	-1
647.067	1	0
647.236	1	8
647.406	1	9
647.575	1	12
647.745	1	4
647.914	1	-3
648.084	1	8
648.253	1	7
648.423	1	1
648.592	1	-16
648.762	1	11
648.931	1	3
649.101	1	9
649.270	1	3
649.440	1	11
649.610	1	7
649.779	1	4
649.949	1	3
650.118	1	5
650.288	1	4
650.457	1	9
650.627	1	0
650.796	1	5
650.966	1	-6
651.135	1	3
651.305	1	-1
651.474	1	7
651.644	1	9
651.813	1	-1
651.983	1	0
652.152	1	3
652.322	1	4
652.491	1	10
652.661	1	11
652.830	1	11
653.000	1	10
653.169	1	9
653.339	1	6
653.508	1	-5
653.678	1	-2
653.847	1	-8
654.017	1	6
654.186	1	1
654.356	1	0
654.525	1	1
654.695	1	4
654.864	1	2
655.034	1	-1
655.203	1	5
655.373	1	2
655.542	1	5
655.712	1	5
655.881	1	12
656.051	1	4
656.220	1	2
656.390	1	8
656.559	1	1
656.729	1	-4
656.898	1	-2
657.068	1	1
657.237	1	13
657.406	1	-2
657.576	1	-1
657.745	1	7
657.915	1	6
658.084	1	-4
658.254	1	10
658.423	1	13
658.593	1	9
658.762	1	11
658.932	1	4
659.101	1	-9
659.271	1	-2
659.440	1	7
659.610	1	-1
659.779	1	9
659.949	1	-2
660.118	1	9
660.288	1	0
660.457	1	10
660.626	1	6
660.796	1	0
660.965	1	10
661.135	1	-1
661.304	1	-5
661.474	1	-3
661.643	1	-5
661.813	1	2
661.982	1	-2
662.152	1	5
662.321	1	-5
662.491	1	-6
662.660	1	7
662.829	1	8
662.999	1	-1
663.168	1	2
663.338	1	6
663.507	1	11
663.677	1	5
663.846	1	-2
664.016	1	2
664.185	1	-1
664.354	1	2
664.524	1	12
664.693	1	0
664.863	1	2
665.032	1	6
665.202	1	3
665.371	1	0
665.541	1	14
665.710	1	2
665.879	1	-3
666.049	1	-6
666.218	1	5
666.388	1	10
666.557	1	18
666.727	1	-2
666.896	1	3
667.065	1	6
667.235	1	14
667.404	1	0
667.574	1	5
667.743	1	-1
667.913	1	7
668.082	1	-2
668.251	1	6
668.421	1	1
668.590	1	1
668.760	1	-1
668.929	1	10
669.099	1	0
669.268	1	-6
669.437	1	5
669.607	1	0
669.776	1	8
669.946	1	1
670.115	1	-6
670.285	1	4
670.454	1	0
670.623	1	6
670.793	1	0
670.962	1	6
671.132	1	-3
671.301	1	-1
671.470	1	2
671.640	1	0
671.809	1	0
671.979	1	15
672.148	1	1
672.317	1	-3
672.487	1	-3
672.656	1	-4
672.826	1	2
672.995	1	10
673.164	1	-5
673.334	1	1
673.503	1	-6
673.673	1	0
673.842	1	8
674.011	1	4
674.181	1	12
674.350	1	3
674.520	1	4
674.689	1	-4
674.858	1	1
675.028	1	9
675.197	1	4
675.367	1	-1
675.536	1	13
675.705	1	3
675.875	1	-7
676.044	1	-5
676.214	1	1
676.383	1	15
676.552	1	-3
676.722	1	-3
676.891	1	2
677.060	1	-2
677.230	1	6
677.399	1	-7
677.569	1	8
677.738	1	8
677.907	1	-7
678.077	1	4
678.246	1	0
678.416	1	11
678.585	1	1
678.754	1	1
678.924	1	14
679.093	1	2
679.262	1	3
679.432	1	0
679.601	1	3
679.771	1	6
679.940	1	0
680.109	1	1
680.279	1	11
680.448	1	3
680.617	1	0
680.787	1	3
680.956	1	9
681.125	1	-6
681.295	1	-9
681.464	1	1
681.634	1	4
681.803	1	8
681.972	1	3
682.142	1	1
682.311	1	11
682.480	1	9
682.650	1	4
682.819	1	6
682.988	1	-8
683.158	1	-6
683.327	1	9
683.496	1	4
683.666	1	7
683.835	1	2
684.004	1	7
684.174	1	1
684.343	1	11
684.512	1	0
684.682	1	10
684.851	1	9
685.021	1	-7
685.190	1	1
685.359	1	-13
685.529	1	5
685.698	1	7
685.867	1	7
686.037	1	7
686.206	1	8
686.375	1	6
686.545	1	10
686.714	1	2
686.883	1	1
687.053	1	1
687.222	1	-2
687.391	1	7
687.561	1	13
687.730	1	-2
687.899	1	0
688.069	1	7
688.238	1	-1
688.407	1	3
688.577	1	-2
688.746	1	4
