340.368	1	6
340.539	1	10
340.710	1	6
340.881	1	0
341.052	1	-5
341.223	1	8
341.394	1	-4
341.565	1	4
341.737	1	-3
341.908	1	-8
342.079	1	-8
342.250	1	-2
342.421	1	9
342.592	1	2
342.763	1	5
342.934	1	-10
343.105	1	0
343.276	1	-1
343.447	1	-4
343.618	1	-2
343.789	1	-7
343.960	1	7
344.131	1	1
344.302	1	-3
344.473	1	1
344.644	1	1
344.815	1	-10
344.986	1	-1
345.157	1	6
345.328	1	-2
345.499	1	-1
345.670	1	-4
345.841	1	-4
346.012	1	5
346.183	1	9
346.354	1	-5
346.526	1	-4
346.697	1	2
346.868	1	-8
347.039	1	2
347.210	1	-8
347.381	1	6
347.552	1	5
347.723	1	0
347.894	1	-5
348.065	1	8
348.236	1	2
348.407	1	-8
348.578	1	-3
348.749	1	-7
348.920	1	5
349.091	1	9
349.262	1	-6
349.433	1	-2
349.604	1	0
349.775	1	5
349.946	1	-6
350.117	1	0
350.288	1	1
350.459	1	-5
350.630	1	11
350.801	1	-1
350.972	1	8
351.143	1	8
351.314	1	-9
351.485	1	4
351.656	1	-1
351.827	1	6
351.998	1	1
352.169	1	-5
352.340	1	1
352.511	1	-5
352.682	1	6
352.853	1	3
353.024	1	-1
353.195	1	1
353.366	1	-2
353.537	1	-1
353.708	1	5
353.879	1	-6
354.050	1	1
354.221	1	-3
354.392	1	5
354.563	1	12
354.734	1	0
354.905	1	18
355.076	1	14
355.247	1	5
355.418	1	5
355.589	1	5
355.760	1	5
355.931	1	6
356.102	1	8
356.273	1	-1
356.444	1	5
356.615	1	-1
356.785	1	6
356.956	1	-2
357.127	1	11
357.298	1	11
357.469	1	6
357.640	1	3
357.811	1	-2
357.982	1	6
358.153	1	9
358.324	1	13
358.495	1	-1
358.666	1	-7
358.837	1	8
359.008	1	7
359.179	1	5
359.350	1	2
359.521	1	7
359.692	1	6
359.863	1	4
360.034	1	8
360.205	1	-2
360.376	1	-1
360.547	1	-4
360.718	1	10
360.889	1	7
361.060	1	5
361.231	1	3
361.401	1	3
361.572	1	-1
361.743	1	10
361.914	1	11
362.085	1	3
362.256	1	4
362.427	1	-3
362.598	1	1
362.769	1	4
362.940	1	-1
363.111	1	2
363.282	1	3
363.453	1	3
363.624	1	10
363.795	1	9
363.966	1	5
364.137	1	1
364.308	1	15
364.478	1	8
364.649	1	7
364.820	1	10
364.991	1	14
365.162	1	10
365.333	1	3
365.504	1	2
365.675	1	10
365.846	1	7
366.017	1	7
366.188	1	2
366.359	1	6
366.530	1	11
366.701	1	10
366.871	1	16
367.042	1	18
367.213	1	15
367.384	1	3
367.555	1	11
367.726	1	14
367.897	1	13
368.068	1	14
368.239	1	8
368.410	1	8
368.581	1	12
368.752	1	21
368.923	1	6
369.093	1	17
369.264	1	0
369.435	1	-1
369.606	1	15
369.777	1	7
369.948	1	1
370.119	1	12
370.290	1	9
370.461	1	17
370.632	1	5
370.803	1	11
370.973	1	7
371.144	1	3
371.315	1	-4
371.486	1	10
371.657	1	2
371.828	1	9
371.999	1	4
372.170	1	-1
372.341	1	3
372.512	1	-4
372.682	1	4
372.853	1	7
373.024	1	7
373.195	1	6
373.366	1	5
373.537	1	4
373.708	1	2
373.879	1	1
374.050	1	2
374.220	1	10
374.391	1	-1
374.562	1	1
374.733	1	2
374.904	1	5
375.075	1	4
375.246	1	-9
375.417	1	12
375.588	1	6
375.758	1	-3
375.929	1	4
376.100	1	5
376.271	1	8
376.442	1	-9
376.613	1	-3
376.784	1	12
376.955	1	-5
377.125	1	11
377.296	1	-1
377.467	1	-3
377.638	1	1
377.809	1	5
377.980	1	9
378.151	1	11
378.321	1	7
378.492	1	10
378.663	1	4
378.834	1	15
379.005	1	0
379.176	1	-5
379.347	1	9
379.518	1	-2
379.688	1	0
379.859	1	1
380.030	1	17
380.201	1	19
380.372	1	10
380.543	1	8
380.714	1	-4
380.884	1	9
381.055	1	-1
381.226	1	5
381.397	1	13
381.568	1	-5
381.739	1	-1
381.910	1	1
382.080	1	7
382.251	1	2
382.422	1	-4
382.593	1	6
382.764	1	3
382.935	1	-2
383.105	1	-2
383.276	1	1
383.447	1	2
383.618	1	13
383.789	1	-3
383.960	1	-6
384.130	1	1
384.301	1	12
384.472	1	2
384.643	1	-6
384.814	1	5
384.985	1	3
385.156	1	13
385.326	1	8
385.497	1	6
385.668	1	3
385.839	1	9
386.010	1	9
386.180	1	6
386.351	1	9
386.522	1	3
386.693	1	-4
386.864	1	5
387.035	1	8
387.205	1	16
387.376	1	7
387.547	1	16
387.718	1	6
387.889	1	7
388.060	1	7
388.230	1	9
388.401	1	6
388.572	1	18
388.743	1	4
388.914	1	4
389.084	1	17
389.255	1	4
389.426	1	7
389.597	1	12
389.768	1	8
389.939	1	4
390.109	1	8
390.280	1	-1
390.451	1	-5
390.622	1	15
390.793	1	2
390.963	1	8
391.134	1	-8
391.305	1	7
391.476	1	8
391.647	1	-6
391.817	1	7
391.988	1	-13
392.159	1	9
392.330	1	-2
392.501	1	3
392.671	1	-3
392.842	1	10
393.013	1	4
393.184	1	8
393.355	1	1
393.525	1	4
393.696	1	-9
393.867	1	5
394.038	1	13
394.208	1	8
394.379	1	6
394.550	1	3
394.721	1	3
394.892	1	9
395.062	1	2
395.233	1	5
395.404	1	10
395.575	1	3
395.746	1	12
395.916	1	9
396.087	1	10
396.258	1	5
396.429	1	0
396.599	1	3
396.770	1	9
396.941	1	0
397.112	1	-2
397.283	1	-9
397.453	1	16
397.624	1	2
397.795	1	0
397.966	1	7
398.136	1	-7
398.307	1	7
398.478	1	-1
398.649	1	3
398.819	1	12
398.990	1	-5
399.161	1	6
399.332	1	2
399.503	1	12
399.673	1	-11
399.844	1	0
400.015	1	12
400.186	1	0
400.356	1	18
400.527	1	12
400.698	1	1
400.869	1	-1
401.039	1	-4
401.210	1	-1
401.381	1	-2
401.552	1	1
401.722	1	8
401.893	1	8
402.064	1	11
402.235	1	-15
402.405	1	4
402.576	1	-2
402.747	1	4
402.918	1	2
403.088	1	1
403.259	1	-2
403.430	1	1
403.601	1	6
403.771	1	9
403.942	1	6
404.113	1	8
404.284	1	-3
404.454	1	6
404.625	1	2
404.796	1	-3
404.967	1	9
405.137	1	4
405.308	1	3
405.479	1	13
405.649	1	1
405.820	1	2
405.991	1	-3
406.162	1	5
406.332	1	-12
406.503	1	0
406.674	1	5
406.845	1	9
407.015	1	3
407.186	1	13
407.357	1	-1
407.527	1	-2
407.698	1	3
407.869	1	5
408.040	1	2
408.210	1	7
408.381	1	-11
408.552	1	-6
408.722	1	0
408.893	1	-5
409.064	1	0
409.235	1	11
409.405	1	8
409.576	1	3
409.747	1	9
409.917	1	6
410.088	1	-6
410.259	1	-1
410.430	1	-4
410.600	1	-4
410.771	1	-1
410.942	1	3
411.112	1	2
411.283	1	6
411.454	1	-1
411.625	1	5
411.795	1	10
411.966	1	12
412.137	1	13
412.307	1	8
412.478	1	-3
412.649	1	-7
412.819	1	3
412.990	1	-3
413.161	1	-9
413.332	1	2
413.502	1	0
413.673	1	16
413.844	1	12
414.014	1	-5
414.185	1	-2
414.356	1	3
414.526	1	4
414.697	1	5
414.868	1	6
415.038	1	4
415.209	1	-4
415.380	1	14
415.550	1	2
415.721	1	0
415.892	1	0
416.063	1	7
416.233	1	7
416.404	1	3
416.575	1	-2
416.745	1	-10
416.916	1	-9
417.087	1	4
417.257	1	11
417.428	1	4
417.599	1	7
417.769	1	-5
417.940	1	3
418.111	1	-5
418.281	1	6
418.452	1	-4
418.623	1	0
418.793	1	-3
418.964	1	2
419.135	1	10
419.305	1	-3
419.476	1	-4
419.647	1	13
419.817	1	-4
419.988	1	-1
420.159	1	5
420.329	1	2
420.500	1	11
420.671	1	-2
420.841	1	4
421.012	1	11
421.183	1	5
421.353	1	6
421.524	1	6
421.695	1	4
421.865	1	-1
422.036	1	3
422.206	1	3
422.377	1	5
422.548	1	2
422.718	1	-1
422.889	1	-2
423.060	1	2
423.230	1	4
423.401	1	-2
423.572	1	16
423.742	1	-4
423.913	1	-2
424.084	1	-2
424.254	1	-6
424.425	1	-10
424.595	1	2
424.766	1	-3
424.937	1	6
425.107	1	2
425.278	1	0
425.449	1	-8
425.619	1	2
425.790	1	5
425.961	1	-8
426.131	1	3
426.302	1	-2
426.472	1	-7
426.643	1	-9
426.814	1	-6
426.984	1	10
427.155	1	-9
427.326	1	-3
427.496	1	-4
427.667	1	8
427.837	1	1
428.008	1	0
428.179	1	-7
428.349	1	-9
428.520	1	0
428.691	1	1
428.861	1	1
429.032	1	5
429.202	1	4
429.373	1	7
429.544	1	-9
429.714	1	-2
429.885	1	-4
430.055	1	8
430.226	1	-1
430.397	1	5
430.567	1	1
430.738	1	-6
430.909	1	-1
431.079	1	0
431.250	1	-8
431.420	1	-1
431.591	1	2
431.762	1	4
431.932	1	-5
432.103	1	0
432.273	1	0
432.444	1	1
432.615	1	-7
432.785	1	1
432.956	1	4
433.126	1	3
433.297	1	-6
433.468	1	1
433.638	1	0
433.809	1	-4
433.979	1	0
434.150	1	8
434.320	1	11
434.491	1	11
434.662	1	4
434.832	1	2
435.003	1	5
435.173	1	2
435.344	1	2
435.515	1	3
435.685	1	4
435.856	1	1
436.026	1	-5
436.197	1	0
436.368	1	3
436.538	1	0
436.709	1	-9
436.879	1	0
437.050	1	-2
437.220	1	-15
437.391	1	0
437.562	1	4
437.732	1	6
437.903	1	-8
438.073	1	0
438.244	1	10
438.414	1	1
438.585	1	-7
438.756	1	1
438.926	1	2
439.097	1	4
439.267	1	-3
439.438	1	4
439.608	1	0
439.779	1	-13
439.949	1	-6
440.120	1	3
440.291	1	13
440.461	1	-5
440.632	1	-3
440.802	1	-3
440.973	1	8
441.143	1	-3
441.314	1	-4
441.485	1	12
441.655	1	-3
441.826	1	-15
441.996	1	-5
442.167	1	0
442.337	1	11
442.508	1	3
442.678	1	-3
442.849	1	-5
443.019	1	5
443.190	1	9
443.361	1	9
443.531	1	8
443.702	1	-6
443.872	1	-2
444.043	1	3
444.213	1	7
444.384	1	-3
444.554	1	-6
444.725	1	12
444.895	1	-5
445.066	1	2
445.237	1	2
445.407	1	-1
445.578	1	3
445.748	1	0
445.919	1	-8
446.089	1	4
446.260	1	-8
446.430	1	-4
446.601	1	2
446.771	1	0
446.942	1	-3
447.112	1	7
447.283	1	-3
447.453	1	3
447.624	1	-11
447.794	1	11
447.965	1	4
448.135	1	-2
448.306	1	-3
448.477	1	-5
448.647	1	3
448.818	1	3
448.988	1	-1
449.159	1	3
449.329	1	2
449.500	1	-4
449.670	1	-1
449.841	1	-2
450.011	1	-1
450.182	1	-13
450.352	1	5
450.523	1	-5
450.693	1	10
450.864	1	0
451.034	1	13
451.205	1	2
451.375	1	-5
451.546	1	-4
451.716	1	5
451.887	1	-4
452.057	1	16
452.228	1	8
452.398	1	11
452.569	1	-6
452.739	1	6
452.910	1	-3
453.080	1	4
453.251	1	-1
453.421	1	-7
453.592	1	0
453.762	1	8
453.933	1	-5
454.103	1	-4
454.274	1	-2
454.444	1	8
454.615	1	13
454.785	1	-2
454.956	1	12
455.126	1	6
455.297	1	0
455.467	1	-12
455.638	1	11
455.808	1	-1
455.979	1	-2
456.149	1	1
456.320	1	14
456.490	1	1
456.661	1	-6
456.831	1	2
457.001	1	12
457.172	1	9
457.342	1	-5
457.513	1	8
457.683	1	-2
457.854	1	-6
458.024	1	-4
458.195	1	-6
458.365	1	11
458.536	1	-11
458.706	1	2
458.877	1	0
459.047	1	13
459.218	1	6
459.388	1	8
459.559	1	-3
459.729	1	0
459.899	1	-9
460.070	1	-5
460.240	1	5
460.411	1	2
460.581	1	-1
460.752	1	5
460.922	1	12
461.093	1	6
461.263	1	0
461.434	1	11
461.604	1	7
461.775	1	-5
461.945	1	-6
462.115	1	0
462.286	1	2
462.456	1	5
462.627	1	8
462.797	1	-8
462.968	1	-6
463.138	1	-4
463.309	1	4
463.479	1	9
463.649	1	-3
463.820	1	-3
463.990	1	4
464.161	1	0
464.331	1	11
464.502	1	7
464.672	1	-10
464.843	1	-5
465.013	1	-1
465.183	1	-3
465.354	1	8
465.524	1	-8
465.695	1	5
465.865	1	6
466.036	1	3
466.206	1	2
466.376	1	-2
466.547	1	-5
466.717	1	5
466.888	1	7
467.058	1	8
467.229	1	2
467.399	1	-4
467.569	1	4
467.740	1	4
467.910	1	5
468.081	1	-9
468.251	1	-1
468.422	1	-3
468.592	1	5
468.762	1	-12
468.933	1	5
469.103	1	0
469.274	1	3
469.444	1	1
469.614	1	5
469.785	1	6
469.955	1	-1
470.126	1	-5
470.296	1	0
470.467	1	-9
470.637	1	7
470.807	1	6
470.978	1	2
471.148	1	4
471.319	1	11
471.489	1	-9
471.659	1	6
471.830	1	11
472.000	1	2
472.171	1	-3
472.341	1	-7
472.511	1	12
472.682	1	-9
472.852	1	-5
473.023	1	-5
473.193	1	8
473.363	1	0
473.534	1	-5
473.704	1	-5
473.875	1	-5
474.045	1	-3
474.215	1	2
474.386	1	4
474.556	1	6
474.727	1	-4
474.897	1	4
475.067	1	-7
475.238	1	-3
475.408	1	-11
475.578	1	3
475.749	1	0
475.919	1	4
476.090	1	6
476.260	1	-5
476.430	1	7
476.601	1	11
476.771	1	-12
476.942	1	8
477.112	1	-3
477.282	1	5
477.453	1	-5
477.623	1	8
477.793	1	-3
477.964	1	-2
478.134	1	3
478.305	1	4
478.475	1	-2
478.645	1	7
478.816	1	0
478.986	1	3
479.156	1	-4
479.327	1	-2
479.497	1	-4
479.667	1	12
479.838	1	-6
480.008	1	0
480.179	1	-9
480.349	1	0
480.519	1	0
480.690	1	1
480.860	1	-7
481.030	1	2
481.201	1	-4
481.371	1	1
481.541	1	3
481.712	1	-2
481.882	1	-5
482.053	1	5
482.223	1	0
482.393	1	7
482.564	1	-9
482.734	1	5
482.904	1	2
483.075	1	-3
483.245	1	-6
483.415	1	1
483.586	1	7
483.756	1	9
483.926	1	-3
484.097	1	9
484.267	1	-10
484.437	1	4
484.608	1	-6
484.778	1	-9
484.948	1	0
485.119	1	0
485.289	1	5
485.459	1	-6
485.630	1	-2
485.800	1	-4
485.970	1	3
486.141	1	-1
486.311	1	0
486.481	1	5
486.652	1	1
486.822	1	-5
486.992	1	10
487.163	1	4
487.333	1	0
487.503	1	5
487.674	1	-4
487.844	1	1
488.014	1	3
488.185	1	-2
488.355	1	-2
488.525	1	8
488.696	1	0
488.866	1	-7
489.036	1	14
489.207	1	-8
489.377	1	0
489.547	1	5
489.718	1	-3
489.888	1	2
490.058	1	4
490.228	1	-12
490.399	1	1
490.569	1	1
490.739	1	12
490.910	1	-12
491.080	1	-6
491.250	1	5
491.421	1	5
491.591	1	-9
491.761	1	-10
491.932	1	-3
492.102	1	-1
492.272	1	4
492.442	1	4
492.613	1	-3
492.783	1	2
492.953	1	-5
493.124	1	1
493.294	1	-3
493.464	1	2
493.635	1	-1
493.805	1	3
493.975	1	-5
494.145	1	-1
494.316	1	2
494.486	1	3
494.656	1	-11
494.827	1	5
494.997	1	-1
495.167	1	8
495.337	1	0
495.508	1	1
495.678	1	0
495.848	1	4
496.019	1	1
496.189	1	3
496.359	1	-1
496.529	1	-1
496.700	1	-4
496.870	1	2
497.040	1	-5
497.211	1	-4
497.381	1	-3
497.551	1	-5
497.721	1	-3
497.892	1	-1
498.062	1	9
498.232	1	11
498.403	1	-5
498.573	1	2
498.743	1	7
498.913	1	8
499.084	1	-2
499.254	1	-5
499.424	1	0
499.594	1	1
499.765	1	3
499.935	1	-5
500.105	1	5
500.275	1	1
500.446	1	-3
500.616	1	3
500.786	1	2
500.956	1	4
501.127	1	3
501.297	1	-5
501.467	1	1
501.638	1	4
501.808	1	2
501.978	1	3
502.148	1	-14
502.319	1	13
502.489	1	-1
502.659	1	7
502.829	1	0
503.000	1	0
503.170	1	-2
503.340	1	4
503.510	1	-1
503.681	1	0
503.851	1	3
504.021	1	3
504.191	1	8
504.362	1	7
504.532	1	3
504.702	1	-1
504.872	1	-10
505.042	1	-6
505.213	1	5
505.383	1	3
505.553	1	7
505.723	1	6
505.894	1	-2
506.064	1	0
506.234	1	0
506.404	1	-4
506.575	1	-7
506.745	1	3
506.915	1	1
507.085	1	-4
507.256	1	3
507.426	1	5
507.596	1	-8
507.766	1	5
507.936	1	-2
508.107	1	13
508.277	1	-3
508.447	1	2
508.617	1	4
508.788	1	10
508.958	1	0
509.128	1	2
509.298	1	-10
509.468	1	7
509.639	1	2
509.809	1	6
509.979	1	-1
510.149	1	8
510.319	1	-6
510.490	1	-2
510.660	1	6
510.830	1	-5
511.000	1	0
511.171	1	0
511.341	1	4
511.511	1	0
511.681	1	11
511.851	1	2
512.022	1	-5
512.192	1	6
512.362	1	7
512.532	1	-6
512.702	1	2
512.873	1	22
513.043	1	-2
513.213	1	11
513.383	1	-5
513.553	1	16
513.724	1	-2
513.894	1	0
514.064	1	1
514.234	1	1
514.404	1	8
514.575	1	4
514.745	1	6
514.915	1	-17
515.085	1	2
515.255	1	6
515.425	1	2
515.596	1	9
515.766	1	2
515.936	1	8
516.106	1	2
516.276	1	8
516.447	1	13
516.617	1	2
516.787	1	3
516.957	1	7
517.127	1	6
517.297	1	-1
517.468	1	5
517.638	1	-11
517.808	1	11
517.978	1	7
518.148	1	-1
518.319	1	5
518.489	1	1
518.659	1	1
518.829	1	-1
518.999	1	8
519.169	1	-2
519.340	1	10
519.510	1	6
519.680	1	4
519.850	1	-3
520.020	1	8
520.190	1	5
520.361	1	0
520.531	1	7
520.701	1	15
520.871	1	-8
521.041	1	6
521.211	1	18
521.382	1	-7
521.552	1	4
521.722	1	12
521.892	1	17
522.062	1	7
522.232	1	3
522.402	1	2
522.573	1	-3
522.743	1	-4
522.913	1	13
523.083	1	7
523.253	1	12
523.423	1	3
523.593	1	8
523.764	1	5
523.934	1	5
524.104	1	0
524.274	1	1
524.444	1	4
524.614	1	-1
524.784	1	-3
524.955	1	10
525.125	1	4
525.295	1	8
525.465	1	6
525.635	1	-4
525.805	1	5
525.975	1	-12
526.146	1	4
526.316	1	-2
526.486	1	15
526.656	1	3
526.826	1	5
526.996	1	3
527.166	1	-2
527.337	1	3
527.507	1	0
527.677	1	9
527.847	1	10
528.017	1	-4
528.187	1	7
528.357	1	15
528.527	1	3
528.698	1	-4
528.868	1	3
529.038	1	0
529.208	1	-8
529.378	1	11
529.548	1	8
529.718	1	9
529.888	1	12
530.058	1	3
530.229	1	4
530.399	1	-5
530.569	1	-4
530.739	1	-6
530.909	1	-11
531.079	1	-3
531.249	1	-4
531.419	1	14
531.589	1	3
531.760	1	-3
531.930	1	11
532.100	1	-7
532.270	1	12
532.440	1	2
532.610	1	9
532.780	1	0
532.950	1	9
533.120	1	19
533.290	1	0
533.461	1	9
533.631	1	-6
533.801	1	4
533.971	1	0
534.141	1	7
534.311	1	6
534.481	1	2
534.651	1	-4
534.821	1	6
534.991	1	3
535.162	1	2
535.332	1	5
535.502	1	-7
535.672	1	2
535.842	1	-1
536.012	1	2
536.182	1	8
536.352	1	3
536.522	1	2
536.692	1	-2
536.862	1	-1
537.032	1	-10
537.203	1	11
537.373	1	13
537.543	1	5
537.713	1	-4
537.883	1	-1
538.053	1	4
538.223	1	-2
538.393	1	1
538.563	1	7
538.733	1	13
538.903	1	4
539.073	1	2
539.243	1	0
539.413	1	3
539.584	1	4
539.754	1	8
539.924	1	6
540.094	1	3
540.264	1	-8
540.434	1	9
540.604	1	6
540.774	1	10
540.944	1	-9
541.114	1	2
541.284	1	10
541.454	1	4
541.624	1	7
541.794	1	-4
541.964	1	7
542.134	1	5
542.305	1	14
542.475	1	-12
542.645	1	10
542.815	1	-8
542.985	1	6
543.155	1	-11
543.325	1	9
543.495	1	10
543.665	1	-1
543.835	1	-2
544.005	1	0
544.175	1	0
544.345	1	-9
544.515	1	1
544.685	1	18
544.855	1	5
545.025	1	0
545.195	1	4
545.365	1	8
545.535	1	6
545.705	1	9
545.875	1	2
546.045	1	7
546.216	1	-5
546.386	1	-1
546.556	1	10
546.726	1	0
546.896	1	2
547.066	1	8
547.236	1	6
547.406	1	-2
547.576	1	4
547.746	1	20
547.916	1	-3
548.086	1	5
548.256	1	-9
548.426	1	-3
548.596	1	1
548.766	1	14
548.936	1	6
549.106	1	5
549.276	1	8
549.446	1	-2
549.616	1	-4
549.786	1	-12
549.956	1	0
550.126	1	0
550.296	1	5
550.466	1	10
550.636	1	6
550.806	1	8
550.976	1	5
551.146	1	-4
551.316	1	5
551.486	1	7
551.656	1	-1
551.826	1	3
551.996	1	-5
552.166	1	9
552.336	1	1
552.506	1	15
552.676	1	4
552.846	1	-4
553.016	1	13
553.186	1	8
553.356	1	0
553.526	1	-5
553.696	1	28
553.866	1	11
554.036	1	1
554.206	1	5
554.376	1	-13
554.546	1	1
554.716	1	-1
554.886	1	13
555.056	1	0
555.226	1	5
555.396	1	2
555.566	1	2
555.736	1	4
555.906	1	-5
556.076	1	11
556.246	1	3
556.416	1	-5
556.586	1	-11
556.756	1	-9
556.926	1	-4
557.096	1	0
557.266	1	-3
557.436	1	-3
557.606	1	0
557.776	1	15
557.946	1	-1
558.116	1	6
558.286	1	0
558.456	1	-8
558.626	1	-15
558.796	1	8
558.966	1	2
559.136	1	-3
559.306	1	11
559.476	1	5
559.646	1	-2
559.816	1	7
559.986	1	-7
560.155	1	5
560.325	1	4
560.495	1	-1
560.665	1	-10
560.835	1	-4
561.005	1	-2
561.175	1	0
561.345	1	3
561.515	1	-4
561.685	1	5
561.855	1	-4
562.025	1	1
562.195	1	4
562.365	1	6
562.535	1	5
562.705	1	-7
562.875	1	4
563.045	1	-7
563.215	1	2
563.385	1	-12
563.555	1	-3
563.725	1	1
563.895	1	-1
564.064	1	1
564.234	1	11
564.404	1	1
564.574	1	20
564.744	1	-6
564.914	1	-8
565.084	1	-11
565.254	1	-1
565.424	1	3
565.594	1	-3
565.764	1	-6
565.934	1	9
566.104	1	-2
566.274	1	6
566.444	1	-12
566.614	1	0
566.783	1	-4
566.953	1	5
567.123	1	10
567.293	1	-7
567.463	1	4
567.633	1	-5
567.803	1	10
567.973	1	0
568.143	1	0
568.313	1	-6
568.483	1	11
568.653	1	-8
568.823	1	4
568.993	1	-5
569.162	1	-3
569.332	1	3
569.502	1	11
569.672	1	-1
569.842	1	8
570.012	1	6
570.182	1	-1
570.352	1	3
570.522	1	4
570.692	1	5
570.862	1	-2
571.031	1	0
571.201	1	7
571.371	1	9
571.541	1	3
571.711	1	-3
571.881	1	4
572.051	1	0
572.221	1	12
572.391	1	17
572.561	1	6
572.731	1	7
572.900	1	-4
573.070	1	6
573.240	1	-14
573.410	1	2
573.580	1	0
573.750	1	5
573.920	1	-3
574.090	1	1
574.260	1	0
574.430	1	4
574.599	1	5
574.769	1	-7
574.939	1	0
575.109	1	-9
575.279	1	9
575.449	1	5
575.619	1	3
575.789	1	12
575.959	1	4
576.128	1	0
576.298	1	-5
576.468	1	7
576.638	1	-6
576.808	1	4
576.978	1	1
577.148	1	-2
577.318	1	9
577.487	1	0
577.657	1	0
577.827	1	-4
577.997	1	10
578.167	1	10
578.337	1	3
578.507	1	1
578.677	1	1
578.846	1	2
579.016	1	2
579.186	1	6
579.356	1	4
579.526	1	-2
579.696	1	9
579.866	1	-10
580.036	1	7
580.205	1	-2
580.375	1	7
580.545	1	-10
580.715	1	0
580.885	1	6
581.055	1	3
581.225	1	7
581.394	1	-9
581.564	1	-1
581.734	1	-8
581.904	1	-3
582.074	1	-2
582.244	1	-6
582.414	1	8
582.583	1	-1
582.753	1	13
582.923	1	-1
583.093	1	2
583.263	1	7
583.433	1	7
583.603	1	-7
583.772	1	-3
583.942	1	5
584.112	1	-1
584.282	1	4
584.452	1	4
584.622	1	1
584.791	1	-3
584.961	1	-3
585.131	1	9
585.301	1	-8
585.471	1	-4
585.641	1	6
585.811	1	7
585.980	1	-6
586.150	1	4
586.320	1	-3
586.490	1	7
586.660	1	0
586.830	1	-3
586.999	1	-6
587.169	1	15
587.339	1	1
587.509	1	-7
587.679	1	1
587.849	1	9
588.018	1	-8
588.188	1	4
588.358	1	-1
588.528	1	1
588.698	1	-5
588.867	1	-1
589.037	1	-8
589.207	1	1
589.377	1	0
589.547	1	6
589.717	1	-8
589.886	1	1
590.056	1	-5
590.226	1	-1
590.396	1	-9
590.566	1	-5
590.735	1	-6
590.905	1	12
591.075	1	-3
591.245	1	8
591.415	1	3
591.585	1	11
591.754	1	-3
591.924	1	10
592.094	1	-4
592.264	1	-11
592.434	1	2
592.603	1	-1
592.773	1	-2
592.943	1	5
593.113	1	-3
593.283	1	1
593.452	1	-3
593.622	1	1
593.792	1	9
593.962	1	-1
594.132	1	5
594.301	1	2
594.471	1	-2
594.641	1	4
594.811	1	-8
594.981	1	-7
595.150	1	10
595.320	1	3
595.490	1	6
595.660	1	0
595.829	1	-8
595.999	1	-3
596.169	1	10
596.339	1	4
596.509	1	-1
596.678	1	6
596.848	1	8
597.018	1	2
597.188	1	-7
597.358	1	-1
597.527	1	-5
597.697	1	-5
597.867	1	6
598.037	1	-4
598.206	1	10
598.376	1	-9
598.546	1	6
598.716	1	-11
598.885	1	9
599.055	1	3
599.225	1	2
599.395	1	4
599.565	1	-5
599.734	1	9
599.904	1	-4
600.074	1	-3
600.244	1	4
600.413	1	5
600.583	1	2
600.753	1	3
600.923	1	-1
601.092	1	18
601.262	1	-4
601.432	1	0
601.602	1	13
601.771	1	6
601.941	1	0
602.111	1	-1
602.281	1	-1
602.451	1	0
602.620	1	4
602.790	1	-6
602.960	1	-11
603.130	1	-8
603.299	1	7
603.469	1	4
603.639	1	-13
603.809	1	8
603.978	1	-7
604.148	1	-3
604.318	1	-2
604.487	1	5
604.657	1	-2
604.827	1	8
604.997	1	10
605.166	1	1
605.336	1	1
605.506	1	4
605.676	1	10
605.845	1	-7
606.015	1	-17
606.185	1	3
606.355	1	-11
606.524	1	-2
606.694	1	-2
606.864	1	-2
607.034	1	9
607.203	1	10
607.373	1	-1
607.543	1	-8
607.712	1	-2
607.882	1	2
608.052	1	1
608.222	1	14
608.391	1	4
608.561	1	1
608.731	1	-4
608.901	1	1
609.070	1	-9
609.240	1	-3
609.410	1	-1
609.579	1	-2
609.749	1	13
609.919	1	-4
610.089	1	0
610.258	1	-1
610.428	1	9
610.598	1	-1
610.767	1	4
610.937	1	0
611.107	1	-2
611.277	1	-8
611.446	1	4
611.616	1	0
611.786	1	4
611.955	1	1
612.125	1	2
612.295	1	5
612.465	1	-3
612.634	1	0
612.804	1	7
612.974	1	-12
613.143	1	5
613.313	1	11
613.483	1	6
613.652	1	2
613.822	1	8
613.992	1	-9
614.162	1	7
614.331	1	-5
614.501	1	1
614.671	1	1
614.840	1	-4
615.010	1	-5
615.180	1	4
615.349	1	10
615.519	1	-3
615.689	1	-16
615.858	1	9
616.028	1	-2
616.198	1	3
616.368	1	-3
616.537	1	4
616.707	1	-2
616.877	1	-7
617.046	1	12
617.216	1	7
617.386	1	10
617.555	1	-4
617.725	1	5
617.895	1	-4
618.064	1	5
618.234	1	-5
618.404	1	-11
618.573	1	-3
618.743	1	11
618.913	1	5
619.082	1	4
619.252	1	-2
619.422	1	-7
619.591	1	-5
619.761	1	3
619.931	1	6
620.100	1	11
620.270	1	8
620.440	1	8
620.609	1	8
620.779	1	7
620.949	1	5
621.118	1	0
621.288	1	3
621.458	1	4
621.627	1	0
621.797	1	-8
621.967	1	3
622.136	1	10
622.306	1	0
622.476	1	-4
622.645	1	9
622.815	1	-1
622.985	1	-7
623.154	1	-7
623.324	1	7
623.494	1	-8
623.663	1	3
623.833	1	1
624.002	1	2
624.172	1	-13
624.342	1	7
624.511	1	3
624.681	1	-2
624.851	1	-5
625.020	1	-2
625.190	1	-13
625.360	1	-6
625.529	1	-8
625.699	1	-14
625.869	1	0
626.038	1	-6
626.208	1	6
626.377	1	2
626.547	1	-14
626.717	1	-13
626.886	1	-9
627.056	1	-3
627.226	1	7
627.395	1	-3
627.565	1	10
627.735	1	7
627.904	1	2
628.074	1	10
628.243	1	3
628.413	1	-3
628.583	1	-10
628.752	1	-2
628.922	1	-2
629.091	1	-4
629.261	1	7
629.431	1	4
629.600	1	-1
629.770	1	4
629.940	1	-8
630.109	1	6
630.279	1	3
630.448	1	-1
630.618	1	5
630.788	1	-5
630.957	1	5
631.127	1	-1
631.297	1	-2
631.466	1	6
631.636	1	4
631.805	1	7
631.975	1	0
632.145	1	-6
632.314	1	2
632.484	1	3
632.653	1	0
632.823	1	-4
632.993	1	3
633.162	1	-3
633.332	1	-12
633.501	1	4
633.671	1	-5
633.841	1	5
634.010	1	10
634.180	1	6
634.349	1	-4
634.519	1	8
634.689	1	-4
634.858	1	-9
635.028	1	1
635.197	1	1
635.367	1	7
635.537	1	-7
635.706	1	-4
635.876	1	4
636.045	1	4
636.215	1	7
636.384	1	-12
636.554	1	-1
636.724	1	3
636.893	1	7
637.063	1	7
637.232	1	-7
637.402	1	-8
637.572	1	5
637.741	1	-2
637.911	1	-3
638.080	1	0
638.250	1	2
638.419	1	1
638.589	1	11
638.759	1	4
638.928	1	0
639.098	1	1
639.267	1	5
639.437	1	-1
639.606	1	8
639.776	1	12
639.946	1	12
640.115	1	-6
640.285	1	5
640.454	1	7
640.624	1	8
640.793	1	3
640.963	1	-6
641.132	1	6
641.302	1	-3
641.472	1	1
641.641	1	1
641.811	1	3
641.980	1	3
642.150	1	-3
642.319	1	1
642.489	1	-5
642.659	1	2
642.828	1	1
642.998	1	2
643.167	1	-6
643.337	1	-6
643.506	1	4
643.676	1	-6
643.845	1	4
644.015	1	-2
644.184	1	-19
644.354	1	2
644.524	1	1
644.693	1	5
644.863	1	9
645.032	1	4
645.202	1	4
645.371	1	-7
645.541	1	1
645.710	1	-3
645.880	1	-13
646.049	1	-8
646.219	1	-5
646.388	1	0
646.558	1	7
646.728	1	-5
646.897	1	10
647.067	1	0
647.236	1	-1
647.406	1	1
647.575	1	10
647.745	1	16
647.914	1	-9
648.084	1	1
648.253	1	2
648.423	1	-1
648.592	1	-7
648.762	1	6
648.931	1	17
649.101	1	3
649.270	1	-5
649.440	1	-5
649.610	1	1
649.779	1	0
649.949	1	5
650.118	1	3
650.288	1	-4
650.457	1	5
650.627	1	9
650.796	1	-2
650.966	1	-12
651.135	1	2
651.305	1	3
651.474	1	6
651.644	1	2
651.813	1	11
651.983	1	-2
652.152	1	3
652.322	1	-1
652.491	1	7
652.661	1	8
652.830	1	1
653.000	1	-3
653.169	1	5
653.339	1	2
653.508	1	-8
653.678	1	8
653.847	1	-7
654.017	1	3
654.186	1	-6
654.356	1	1
654.525	1	-8
654.695	1	-7
654.864	1	-7
655.034	1	-1
655.203	1	5
655.373	1	9
655.542	1	-4
655.712	1	4
655.881	1	10
656.051	1	3
656.220	1	-5
656.390	1	0
656.559	1	-10
656.729	1	8
656.898	1	0
657.068	1	2
657.237	1	6
657.406	1	4
657.576	1	-1
657.745	1	4
657.915	1	-6
658.084	1	0
658.254	1	1
658.423	1	5
658.593	1	14
658.762	1	8
658.932	1	-4
659.101	1	-4
659.271	1	2
659.440	1	3
659.610	1	-5
659.779	1	4
659.949	1	-3
660.118	1	0
660.288	1	-2
660.457	1	0
660.626	1	-2
660.796	1	-1
660.965	1	0
661.135	1	-11
661.304	1	-1
661.474	1	-3
661.643	1	-4
661.813	1	4
661.982	1	-7
662.152	1	7
662.321	1	-2
662.491	1	1
662.660	1	3
662.829	1	2
662.999	1	-7
663.168	1	0
663.338	1	13
663.507	1	-3
663.677	1	1
663.846	1	-5
664.016	1	-10
664.185	1	1
664.354	1	4
664.524	1	2
664.693	1	-7
664.863	1	-2
665.032	1	3
665.202	1	2
665.371	1	-5
665.541	1	7
665.710	1	-7
665.879	1	-1
666.049	1	1
666.218	1	4
666.388	1	9
666.557	1	10
666.727	1	-6
666.896	1	-1
667.065	1	-1
667.235	1	16
667.404	1	-8
667.574	1	2
667.743	1	-9
667.913	1	12
668.082	1	-2
668.251	1	4
668.421	1	11
668.590	1	2
668.760	1	-5
668.929	1	7
669.099	1	3
669.268	1	-1
669.437	1	2
669.607	1	7
669.776	1	0
669.946	1	-5
670.115	1	-17
670.285	1	16
670.454	1	-4
670.623	1	0
670.793	1	3
670.962	1	-1
671.132	1	-6
671.301	1	8
671.470	1	0
671.640	1	3
671.809	1	4
671.979	1	10
672.148	1	1
672.317	1	-5
672.487	1	2
672.656	1	-5
672.826	1	-3
672.995	1	8
673.164	1	-6
673.334	1	-7
673.503	1	-6
673.673	1	14
673.842	1	10
674.011	1	12
674.181	1	1
674.350	1	-2
674.520	1	5
674.689	1	-3
674.858	1	-6
675.028	1	1
675.197	1	-1
675.367	1	-6
675.536	1	4
675.705	1	3
675.875	1	2
676.044	1	-4
676.214	1	1
676.383	1	17
676.552	1	7
676.722	1	-3
676.891	1	1
677.060	1	-6
677.230	1	2
677.399	1	-8
677.569	1	2
677.738	1	-3
677.907	1	-5
678.077	1	4
678.246	1	1
678.416	1	3
678.585	1	3
678.754	1	9
678.924	1	12
679.093	1	-1
679.262	1	-3
679.432	1	1
679.601	1	4
679.771	1	-5
679.940	1	6
680.109	1	1
680.279	1	4
680.448	1	5
680.617	1	-10
680.787	1	-4
680.956	1	4
681.125	1	9
681.295	1	-4
681.464	1	-9
681.634	1	2
681.803	1	-2
681.972	1	-4
682.142	1	6
682.311	1	6
682.480	1	-2
682.650	1	6
682.819	1	2
682.988	1	1
683.158	1	-8
683.327	1	13
683.496	1	4
683.666	1	1
683.835	1	-3
684.004	1	12
684.174	1	2
684.343	1	5
684.512	1	12
684.682	1	1
684.851	1	-1
685.021	1	-5
685.190	1	1
685.359	1	-3
685.529	1	2
685.698	1	1
685.867	1	0
686.037	1	-1
686.206	1	1
686.375	1	0
686.545	1	12
686.714	1	-2
686.883	1	6
687.053	1	-4
687.222	1	-9
687.391	1	6
687.561	1	5
687.730	1	-5
687.899	1	-10
688.069	1	6
688.238	1	-3
688.407	1	2
688.577	1	-3
688.746	1	5
