340.368	1	10
340.539	1	3
340.710	1	3
340.881	1	-1
341.052	1	-6
341.223	1	13
341.394	1	4
341.565	1	3
341.737	1	0
341.908	1	-4
342.079	1	2
342.250	1	-4
342.421	1	-2
342.592	1	7
342.763	1	1
342.934	1	1
343.105	1	3
343.276	1	3
343.447	1	-11
343.618	1	-11
343.789	1	-2
343.960	1	-9
344.131	1	-7
344.302	1	-11
344.473	1	-1
344.644	1	6
344.815	1	-5
344.986	1	-1
345.157	1	4
345.328	1	-4
345.499	1	-1
345.670	1	-9
345.841	1	-2
346.012	1	8
346.183	1	19
346.354	1	6
346.526	1	-4
346.697	1	5
346.868	1	-1
347.039	1	-5
347.210	1	-8
347.381	1	0
347.552	1	7
347.723	1	-5
347.894	1	-3
348.065	1	3
348.236	1	4
348.407	1	-2
348.578	1	-2
348.749	1	-6
348.920	1	-1
349.091	1	-4
349.262	1	-6
349.433	1	7
349.604	1	-1
349.775	1	1
349.946	1	-9
350.117	1	4
350.288	1	1
350.459	1	6
350.630	1	8
350.801	1	3
350.972	1	2
351.143	1	-2
351.314	1	-3
351.485	1	5
351.656	1	-4
351.827	1	0
351.998	1	2
352.169	1	-1
352.340	1	0
352.511	1	6
352.682	1	-1
352.853	1	3
353.024	1	-2
353.195	1	-6
353.366	1	2
353.537	1	1
353.708	1	14
353.879	1	-13
354.050	1	3
354.221	1	-6
354.392	1	8
354.563	1	8
354.734	1	8
354.905	1	2
355.076	1	12
355.247	1	7
355.418	1	0
355.589	1	-4
355.760	1	3
355.931	1	8
356.102	1	-5
356.273	1	-1
356.444	1	-3
356.615	1	-5
356.785	1	1
356.956	1	7
357.127	1	4
357.298	1	-1
357.469	1	6
357.640	1	-6
357.811	1	-6
357.982	1	4
358.153	1	11
358.324	1	12
358.495	1	1
358.666	1	3
358.837	1	5
359.008	1	9
359.179	1	8
359.350	1	6
359.521	1	9
359.692	1	8
359.863	1	8
360.034	1	13
360.205	1	0
360.376	1	-7
360.547	1	2
360.718	1	18
360.889	1	5
361.060	1	13
361.231	1	0
361.401	1	2
361.572	1	-7
361.743	1	14
361.914	1	4
362.085	1	3
362.256	1	13
362.427	1	-10
362.598	1	-3
362.769	1	0
362.940	1	7
363.111	1	10
363.282	1	9
363.453	1	2
363.624	1	-1
363.795	1	6
363.966	1	4
364.137	1	19
364.308	1	15
364.478	1	14
364.649	1	8
364.820	1	11
364.991	1	5
365.162	1	-3
365.333	1	-5
365.504	1	12
365.675	1	12
365.846	1	14
366.017	1	5
366.188	1	17
366.359	1	8
366.530	1	21
366.701	1	11
366.871	1	13
367.042	1	15
367.213	1	29
367.384	1	0
367.555	1	21
367.726	1	20
367.897	1	15
368.068	1	10
368.239	1	3
368.410	1	13
368.581	1	17
368.752	1	19
368.923	1	14
369.093	1	7
369.264	1	-2
369.435	1	9
369.606	1	22
369.777	1	14
369.948	1	10
370.119	1	4
370.290	1	9
370.461	1	8
370.632	1	6
370.803	1	12
370.973	1	-7
371.144	1	10
371.315	1	7
371.486	1	9
371.657	1	5
371.828	1	17
371.999	1	1
372.170	1	16
372.341	1	7
372.512	1	6
372.682	1	7
372.853	1	6
373.024	1	10
373.195	1	-1
373.366	1	5
373.537	1	19
373.708	1	6
373.879	1	15
374.050	1	5
374.220	1	11
374.391	1	1
374.562	1	4
374.733	1	7
374.904	1	10
375.075	1	3
375.246	1	-8
375.417	1	2
375.588	1	12
375.758	1	-8
375.929	1	4
376.100	1	2
376.271	1	3
376.442	1	-4
376.613	1	2
376.784	1	10
376.955	1	5
377.125	1	0
377.296	1	0
377.467	1	1
377.638	1	3
377.809	1	8
377.980	1	8
378.151	1	11
378.321	1	11
378.492	1	13
378.663	1	4
378.834	1	19
379.005	1	0
379.176	1	-8
379.347	1	9
379.518	1	7
379.688	1	8
379.859	1	-3
380.030	1	22
380.201	1	13
380.372	1	1
380.543	1	15
380.714	1	4
380.884	1	12
381.055	1	0
381.226	1	-1
381.397	1	1
381.568	1	8
381.739	1	3
381.910	1	3
382.080	1	0
382.251	1	-2
382.422	1	9
382.593	1	-5
382.764	1	3
382.935	1	3
383.105	1	0
383.276	1	11
383.447	1	11
383.618	1	13
383.789	1	0
383.960	1	2
384.130	1	1
384.301	1	9
384.472	1	16
384.643	1	-3
384.814	1	4
384.985	1	-5
385.156	1	18
385.326	1	7
385.497	1	16
385.668	1	3
385.839	1	17
386.010	1	13
386.180	1	6
386.351	1	8
386.522	1	7
386.693	1	-4
386.864	1	0
387.035	1	14
387.205	1	12
387.376	1	7
387.547	1	13
387.718	1	13
387.889	1	6
388.060	1	17
388.230	1	5
388.401	1	10
388.572	1	9
388.743	1	9
388.914	1	7
389.084	1	16
389.255	1	-1
389.426	1	8
389.597	1	11
389.768	1	11
389.939	1	11
390.109	1	0
390.280	1	5
390.451	1	10
390.622	1	4
390.793	1	14
390.963	1	8
391.134	1	8
391.305	1	0
391.476	1	9
391.647	1	8
391.817	1	8
391.988	1	-8
392.159	1	17
392.330	1	4
392.501	1	-2
392.671	1	3
392.842	1	10
393.013	1	9
393.184	1	5
393.355	1	10
393.525	1	6
393.696	1	0
393.867	1	15
394.038	1	2
394.208	1	10
394.379	1	6
394.550	1	9
394.721	1	8
394.892	1	5
395.062	1	9
395.233	1	4
395.404	1	16
395.575	1	0
395.746	1	15
395.916	1	3
396.087	1	8
396.258	1	2
396.429	1	6
396.599	1	6
396.770	1	12
396.941	1	4
397.112	1	0
397.283	1	0
397.453	1	8
397.624	1	8
397.795	1	11
397.966	1	12
398.136	1	13
398.307	1	8
398.478	1	-5
398.649	1	1
398.819	1	7
398.990	1	-1
399.161	1	11
399.332	1	12
399.503	1	9
399.673	1	-11
399.844	1	3
400.015	1	1
400.186	1	-5
400.356	1	14
400.527	1	17
400.698	1	5
400.869	1	-4
401.039	1	10
401.210	1	13
401.381	1	-3
401.552	1	0
401.722	1	7
401.893	1	5
402.064	1	10
402.235	1	-5
402.405	1	3
402.576	1	-1
402.747	1	12
402.918	1	8
403.088	1	7
403.259	1	4
403.430	1	4
403.601	1	13
403.771	1	7
403.942	1	6
404.113	1	15
404.284	1	-2
404.454	1	6
404.625	1	4
404.796	1	-2
404.967	1	9
405.137	1	-3
405.308	1	-2
405.479	1	4
405.649	1	7
405.820	1	2
405.991	1	-2
406.162	1	9
406.332	1	-3
406.503	1	0
406.674	1	7
406.845	1	11
407.015	1	-4
407.186	1	4
407.357	1	5
407.527	1	1
407.698	1	6
407.869	1	5
408.040	1	8
408.210	1	-2
408.381	1	-1
408.552	1	-9
408.722	1	-11
408.893	1	1
409.064	1	3
409.235	1	0
409.405	1	4
409.576	1	6
409.747	1	9
409.917	1	11
410.088	1	2
410.259	1	-4
410.430	1	-4
410.600	1	-7
410.771	1	6
410.942	1	7
411.112	1	15
411.283	1	8
411.454	1	7
411.625	1	-8
411.795	1	3
411.966	1	9
412.137	1	11
412.307	1	8
412.478	1	10
412.649	1	10
412.819	1	7
412.990	1	0
413.161	1	5
413.332	1	5
413.502	1	5
413.673	1	22
413.844	1	3
414.014	1	-3
414.185	1	6
414.356	1	4
414.526	1	0
414.697	1	6
414.868	1	0
415.038	1	-5
415.209	1	-10
415.380	1	11
415.550	1	7
415.721	1	10
415.892	1	2
416.063	1	3
416.233	1	4
416.404	1	-2
416.575	1	7
416.745	1	-8
416.916	1	-8
417.087	1	7
417.257	1	5
417.428	1	-2
417.599	1	7
417.769	1	-2
417.940	1	-4
418.111	1	4
418.281	1	-5
418.452	1	-6
418.623	1	0
418.793	1	4
418.964	1	0
419.135	1	10
419.305	1	-3
419.476	1	-1
419.647	1	1
419.817	1	11
419.988	1	-8
420.159	1	-6
420.329	1	-9
420.500	1	7
420.671	1	-4
420.841	1	5
421.012	1	10
421.183	1	16
421.353	1	1
421.524	1	5
421.695	1	6
421.865	1	10
422.036	1	1
422.206	1	2
422.377	1	5
422.548	1	10
422.718	1	-6
422.889	1	-7
423.060	1	-2
423.230	1	1
423.401	1	3
423.572	1	17
423.742	1	10
423.913	1	11
424.084	1	3
424.254	1	0
424.425	1	8
424.595	1	3
424.766	1	8
424.937	1	3
425.107	1	8
425.278	1	3
425.449	1	6
425.619	1	1
425.790	1	10
425.961	1	0
426.131	1	-6
426.302	1	9
426.472	1	-3
426.643	1	-2
426.814	1	-4
426.984	1	3
427.155	1	-8
427.326	1	-3
427.496	1	-3
427.667	1	7
427.837	1	4
428.008	1	-1
428.179	1	-5
428.349	1	-5
428.520	1	10
428.691	1	-8
428.861	1	0
429.032	1	2
429.202	1	3
429.373	1	-5
429.544	1	7
429.714	1	0
429.885	1	0
430.055	1	9
430.226	1	-7
430.397	1	-1
430.567	1	1
430.738	1	2
430.909	1	-1
431.079	1	1
431.250	1	-7
431.420	1	-2
431.591	1	-2
431.762	1	2
431.932	1	-7
432.103	1	-3
432.273	1	7
432.444	1	-4
432.615	1	-3
432.785	1	-1
432.956	1	6
433.126	1	-3
433.297	1	7
433.468	1	-3
433.638	1	5
433.809	1	6
433.979	1	2
434.150	1	10
434.320	1	3
434.491	1	9
434.662	1	4
434.832	1	5
435.003	1	-4
435.173	1	2
435.344	1	-3
435.515	1	0
435.685	1	-1
435.856	1	-5
436.026	1	-2
436.197	1	-1
436.368	1	1
436.538	1	1
436.709	1	-10
436.879	1	-3
437.050	1	10
437.220	1	-6
437.391	1	1
437.562	1	-2
437.732	1	10
437.903	1	-4
438.073	1	-5
438.244	1	-1
438.414	1	-6
438.585	1	-4
438.756	1	2
438.926	1	0
439.097	1	12
439.267	1	5
439.438	1	9
439.608	1	-2
439.779	1	-6
439.949	1	-10
440.120	1	-4
440.291	1	6
440.461	1	4
440.632	1	5
440.802	1	10
440.973	1	1
441.143	1	2
441.314	1	-4
441.485	1	1
441.655	1	-2
441.826	1	-17
441.996	1	2
442.167	1	-2
442.337	1	9
442.508	1	-4
442.678	1	-7
442.849	1	-3
443.019	1	4
443.190	1	19
443.361	1	8
443.531	1	6
443.702	1	-11
443.872	1	-3
444.043	1	6
444.213	1	7
444.384	1	3
444.554	1	-12
444.725	1	8
444.895	1	0
445.066	1	3
445.237	1	0
445.407	1	-5
445.578	1	2
445.748	1	-6
445.919	1	-2
446.089	1	-1
446.260	1	-4
446.430	1	4
446.601	1	8
446.771	1	-7
446.942	1	-9
447.112	1	8
447.283	1	-10
447.453	1	3
447.624	1	-2
447.794	1	2
447.965	1	12
448.135	1	-6
448.306	1	7
448.477	1	3
448.647	1	-8
448.818	1	-5
448.988	1	-8
449.159	1	4
449.329	1	2
449.500	1	-5
449.670	1	-4
449.841	1	-6
450.011	1	0
450.182	1	-3
450.352	1	11
450.523	1	0
450.693	1	0
450.864	1	0
451.034	1	9
451.205	1	-4
451.375	1	1
451.546	1	-8
451.716	1	4
451.887	1	1
452.057	1	16
452.228	1	4
452.398	1	8
452.569	1	-5
452.739	1	2
452.910	1	-2
453.080	1	4
453.251	1	-2
453.421	1	2
453.592	1	-5
453.762	1	7
453.933	1	-4
454.103	1	0
454.274	1	0
454.444	1	5
454.615	1	15
454.785	1	6
454.956	1	9
455.126	1	-2
455.297	1	2
455.467	1	-11
455.638	1	7
455.808	1	-10
455.979	1	7
456.149	1	3
456.320	1	15
456.490	1	1
456.661	1	-12
456.831	1	-2
457.001	1	4
457.172	1	8
457.342	1	-5
457.513	1	12
457.683	1	-4
457.854	1	7
458.024	1	-4
458.195	1	-2
458.365	1	16
458.536	1	-6
458.706	1	8
458.877	1	4
459.047	1	7
459.218	1	2
459.388	1	4
459.559	1	7
459.729	1	-2
459.899	1	-9
460.070	1	-5
460.240	1	-6
460.411	1	1
460.581	1	2
460.752	1	-1
460.922	1	22
461.093	1	-1
461.263	1	-3
461.434	1	13
461.604	1	8
461.775	1	0
461.945	1	2
462.115	1	-2
462.286	1	-2
462.456	1	10
462.627	1	5
462.797	1	-5
462.968	1	-12
463.138	1	2
463.309	1	8
463.479	1	3
463.649	1	4
463.820	1	-1
463.990	1	-3
464.161	1	1
464.331	1	12
464.502	1	12
464.672	1	-16
464.843	1	-1
465.013	1	-6
465.183	1	5
465.354	1	5
465.524	1	-1
465.695	1	2
465.865	1	5
466.036	1	4
466.206	1	2
466.376	1	-2
466.547	1	7
466.717	1	4
466.888	1	-4
467.058	1	-4
467.229	1	5
467.399	1	-2
467.569	1	9
467.740	1	5
467.910	1	9
468.081	1	-2
468.251	1	5
468.422	1	2
468.592	1	10
468.762	1	-8
468.933	1	8
469.103	1	2
469.274	1	1
469.444	1	5
469.614	1	4
469.785	1	2
469.955	1	8
470.126	1	4
470.296	1	8
470.467	1	-4
470.637	1	-3
470.807	1	12
470.978	1	2
471.148	1	-8
471.319	1	4
471.489	1	-4
471.659	1	-4
471.830	1	0
472.000	1	5
472.171	1	-3
472.341	1	-2
472.511	1	4
472.682	1	-6
472.852	1	-10
473.023	1	5
473.193	1	3
473.363	1	2
473.534	1	-2
473.704	1	-7
473.875	1	-2
474.045	1	-2
474.215	1	10
474.386	1	5
474.556	1	9
474.727	1	2
474.897	1	3
475.067	1	-10
475.238	1	-11
475.408	1	-6
475.578	1	0
475.749	1	5
475.919	1	1
476.090	1	5
476.260	1	3
476.430	1	0
476.601	1	10
476.771	1	-2
476.942	1	6
477.112	1	-13
477.282	1	3
477.453	1	-3
477.623	1	0
477.793	1	-7
477.964	1	5
478.134	1	0
478.305	1	6
478.475	1	-4
478.645	1	6
478.816	1	2
478.986	1	0
479.156	1	-12
479.327	1	-5
479.497	1	5
479.667	1	0
479.838	1	-5
480.008	1	-4
480.179	1	-9
480.349	1	2
480.519	1	2
480.690	1	2
480.860	1	12
481.030	1	8
481.201	1	-2
481.371	1	6
481.541	1	-1
481.712	1	-1
481.882	1	-13
482.053	1	13
482.223	1	-3
482.393	1	-6
482.564	1	4
482.734	1	1
482.904	1	2
483.075	1	-5
483.245	1	4
483.415	1	1
483.586	1	-4
483.756	1	0
483.926	1	-3
484.097	1	6
484.267	1	-7
484.437	1	-1
484.608	1	6
484.778	1	3
484.948	1	4
485.119	1	-7
485.289	1	-2
485.459	1	-3
485.630	1	3
485.800	1	-3
485.970	1	2
486.141	1	1
486.311	1	5
486.481	1	2
486.652	1	-8
486.822	1	-5
486.992	1	2
487.163	1	7
487.333	1	4
487.503	1	3
487.674	1	-3
487.844	1	5
488.014	1	9
488.185	1	1
488.355	1	2
488.525	1	7
488.696	1	-3
488.866	1	2
489.036	1	5
489.207	1	-1
489.377	1	2
489.547	1	-7
489.718	1	8
489.888	1	-2
490.058	1	1
490.228	1	1
490.399	1	10
490.569	1	5
490.739	1	9
490.910	1	-2
491.080	1	5
491.250	1	6
491.421	1	10
491.591	1	0
491.761	1	1
491.932	1	-8
492.102	1	-2
492.272	1	-1
492.442	1	2
492.613	1	2
492.783	1	4
492.953	1	-1
493.124	1	7
493.294	1	6
493.464	1	4
493.635	1	-10
493.805	1	12
493.975	1	2
494.145	1	-1
494.316	1	0
494.486	1	-6
494.656	1	-4
494.827	1	7
494.997	1	2
495.167	1	2
495.337	1	0
495.508	1	5
495.678	1	6
495.848	1	-3
496.019	1	1
496.189	1	7
496.359	1	-1
496.529	1	6
496.700	1	-3
496.870	1	6
497.040	1	2
497.211	1	9
497.381	1	-2
497.551	1	5
497.721	1	1
497.892	1	-4
498.062	1	4
498.232	1	5
498.403	1	3
498.573	1	2
498.743	1	6
498.913	1	8
499.084	1	2
499.254	1	0
499.424	1	-4
499.594	1	-8
499.765	1	-5
499.935	1	-2
500.105	1	10
500.275	1	0
500.446	1	2
500.616	1	-7
500.786	1	6
500.956	1	5
501.127	1	4
501.297	1	-2
501.467	1	5
501.638	1	9
501.808	1	4
501.978	1	3
502.148	1	-15
502.319	1	14
502.489	1	-3
502.659	1	13
502.829	1	6
503.000	1	5
503.170	1	-2
503.340	1	6
503.510	1	1
503.681	1	1
503.851	1	7
504.021	1	1
504.191	1	6
504.362	1	-2
504.532	1	5
504.702	1	4
504.872	1	-16
505.042	1	1
505.213	1	2
505.383	1	-4
505.553	1	1
505.723	1	3
505.894	1	-4
506.064	1	-2
506.234	1	14
506.404	1	0
506.575	1	-3
506.745	1	9
506.915	1	4
507.085	1	-12
507.256	1	3
507.426	1	2
507.596	1	2
507.766	1	6
507.936	1	0
508.107	1	9
508.277	1	-1
508.447	1	9
508.617	1	-2
508.788	1	11
508.958	1	5
509.128	1	5
509.298	1	-1
509.468	1	15
509.639	1	5
509.809	1	12
509.979	1	5
510.149	1	13
510.319	1	-4
510.490	1	-7
510.660	1	8
510.830	1	4
511.000	1	-1
511.171	1	0
511.341	1	9
511.511	1	9
511.681	1	8
511.851	1	8
512.022	1	-5
512.192	1	0
512.362	1	3
512.532	1	-3
512.702	1	4
512.873	1	5
513.043	1	14
513.213	1	14
513.383	1	0
513.553	1	1
513.724	1	-3
513.894	1	-2
514.064	1	8
514.234	1	9
514.404	1	10
514.575	1	-3
514.745	1	6
514.915	1	-9
515.085	1	2
515.255	1	3
515.425	1	-2
515.596	1	9
515.766	1	-2
515.936	1	5
516.106	1	1
516.276	1	3
516.447	1	-1
516.617	1	3
516.787	1	4
516.957	1	8
517.127	1	5
517.297	1	6
517.468	1	-5
517.638	1	1
517.808	1	4
517.978	1	6
518.148	1	5
518.319	1	4
518.489	1	-5
518.659	1	0
518.829	1	3
518.999	1	3
519.169	1	1
519.340	1	0
519.510	1	9
519.680	1	5
519.850	1	-2
520.020	1	4
520.190	1	3
520.361	1	-2
520.531	1	3
520.701	1	4
520.871	1	-3
521.041	1	10
521.211	1	13
521.382	1	5
521.552	1	0
521.722	1	11
521.892	1	12
522.062	1	-2
522.232	1	9
522.402	1	9
522.573	1	6
522.743	1	7
522.913	1	-2
523.083	1	10
523.253	1	1
523.423	1	3
523.593	1	4
523.764	1	3
523.934	1	10
524.104	1	7
524.274	1	8
524.444	1	-3
524.614	1	6
524.784	1	4
524.955	1	12
525.125	1	14
525.295	1	6
525.465	1	5
525.635	1	4
525.805	1	11
525.975	1	-10
526.146	1	-5
526.316	1	1
526.486	1	15
526.656	1	14
526.826	1	3
526.996	1	2
527.166	1	-3
527.337	1	-1
527.507	1	5
527.677	1	16
527.847	1	-2
528.017	1	2
528.187	1	7
528.357	1	13
528.527	1	4
528.698	1	-7
528.868	1	2
529.038	1	-6
529.208	1	-5
529.378	1	9
529.548	1	2
529.718	1	8
529.888	1	2
530.058	1	8
530.229	1	2
530.399	1	0
530.569	1	-4
530.739	1	-5
530.909	1	-2
531.079	1	-17
531.249	1	4
531.419	1	1
531.589	1	7
531.760	1	8
531.930	1	12
532.100	1	1
532.270	1	7
532.440	1	-1
532.610	1	11
532.780	1	3
532.950	1	8
533.120	1	21
533.290	1	3
533.461	1	0
533.631	1	6
533.801	1	-1
533.971	1	-2
534.141	1	5
534.311	1	5
534.481	1	1
534.651	1	-10
534.821	1	0
534.991	1	9
535.162	1	0
535.332	1	-3
535.502	1	6
535.672	1	9
535.842	1	7
536.012	1	1
536.182	1	4
536.352	1	-3
536.522	1	-12
536.692	1	0
536.862	1	-4
537.032	1	0
537.203	1	14
537.373	1	6
537.543	1	2
537.713	1	5
537.883	1	4
538.053	1	3
538.223	1	4
538.393	1	4
538.563	1	13
538.733	1	9
538.903	1	6
539.073	1	7
539.243	1	-3
539.413	1	4
539.584	1	10
539.754	1	5
539.924	1	12
540.094	1	3
540.264	1	2
540.434	1	14
540.604	1	3
540.774	1	6
540.944	1	8
541.114	1	-2
541.284	1	0
541.454	1	2
541.624	1	1
541.794	1	0
541.964	1	-4
542.134	1	12
542.305	1	11
542.475	1	2
542.645	1	1
542.815	1	-10
542.985	1	2
543.155	1	-5
543.325	1	15
543.495	1	10
543.665	1	3
543.835	1	-6
544.005	1	-1
544.175	1	4
544.345	1	-1
544.515	1	2
544.685	1	8
544.855	1	3
545.025	1	7
545.195	1	-1
545.365	1	-2
545.535	1	-3
545.705	1	9
545.875	1	3
546.045	1	4
546.216	1	-7
546.386	1	8
546.556	1	3
546.726	1	8
546.896	1	4
547.066	1	5
547.236	1	5
547.406	1	-4
547.576	1	5
547.746	1	6
547.916	1	10
548.086	1	8
548.256	1	7
548.426	1	5
548.596	1	-3
548.766	1	19
548.936	1	13
549.106	1	2
549.276	1	12
549.446	1	-7
549.616	1	3
549.786	1	2
549.956	1	5
550.126	1	1
550.296	1	13
550.466	1	10
550.636	1	5
550.806	1	11
550.976	1	-10
551.146	1	5
551.316	1	-4
551.486	1	6
551.656	1	12
551.826	1	16
551.996	1	3
552.166	1	11
552.336	1	0
552.506	1	15
552.676	1	5
552.846	1	4
553.016	1	6
553.186	1	4
553.356	1	-1
553.526	1	3
553.696	1	15
553.866	1	12
554.036	1	7
554.206	1	3
554.376	1	-7
554.546	1	1
554.716	1	-6
554.886	1	16
555.056	1	0
555.226	1	4
555.396	1	5
555.566	1	-1
555.736	1	10
555.906	1	4
556.076	1	18
556.246	1	-3
556.416	1	-7
556.586	1	-6
556.756	1	4
556.926	1	6
557.096	1	2
557.266	1	-4
557.436	1	9
557.606	1	-3
557.776	1	7
557.946	1	-6
558.116	1	6
558.286	1	5
558.456	1	0
558.626	1	-7
558.796	1	3
558.966	1	3
559.136	1	-4
559.306	1	4
559.476	1	18
559.646	1	2
559.816	1	7
559.986	1	6
560.155	1	3
560.325	1	-3
560.495	1	1
560.665	1	0
560.835	1	1
561.005	1	3
561.175	1	5
561.345	1	2
561.515	1	5
561.685	1	4
561.855	1	1
562.025	1	3
562.195	1	2
562.365	1	6
562.535	1	3
562.705	1	-4
562.875	1	-3
563.045	1	-2
563.215	1	-2
563.385	1	-11
563.555	1	-2
563.725	1	3
563.895	1	3
564.064	1	-5
564.234	1	2
564.404	1	4
564.574	1	12
564.744	1	5
564.914	1	-5
565.084	1	-2
565.254	1	12
565.424	1	15
565.594	1	3
565.764	1	-4
565.934	1	4
566.104	1	-6
566.274	1	11
566.444	1	-7
566.614	1	3
566.783	1	0
566.953	1	1
567.123	1	9
567.293	1	3
567.463	1	-3
567.633	1	-3
567.803	1	8
567.973	1	10
568.143	1	4
568.313	1	4
568.483	1	3
568.653	1	1
568.823	1	-3
568.993	1	-7
569.162	1	4
569.332	1	7
569.502	1	5
569.672	1	3
569.842	1	0
570.012	1	3
570.182	1	1
570.352	1	7
570.522	1	6
570.692	1	0
570.862	1	3
571.031	1	3
571.201	1	6
571.371	1	10
571.541	1	4
571.711	1	1
571.881	1	10
572.051	1	-1
572.221	1	6
572.391	1	8
572.561	1	-2
572.731	1	6
572.900	1	-1
573.070	1	11
573.240	1	2
573.410	1	-1
573.580	1	-9
573.750	1	9
573.920	1	6
574.090	1	12
574.260	1	-6
574.430	1	8
574.599	1	4
574.769	1	-2
574.939	1	-2
575.109	1	0
575.279	1	3
575.449	1	13
575.619	1	5
575.789	1	-9
575.959	1	2
576.128	1	2
576.298	1	11
576.468	1	6
576.638	1	-4
576.808	1	3
576.978	1	-6
577.148	1	3
577.318	1	10
577.487	1	3
577.657	1	3
577.827	1	-6
577.997	1	2
578.167	1	3
578.337	1	2
578.507	1	3
578.677	1	-11
578.846	1	-3
579.016	1	1
579.186	1	12
579.356	1	4
579.526	1	-4
579.696	1	13
579.866	1	-4
580.036	1	6
580.205	1	-3
580.375	1	6
580.545	1	-4
580.715	1	-2
580.885	1	3
581.055	1	3
581.225	1	5
581.394	1	-7
581.564	1	-5
581.734	1	-5
581.904	1	2
582.074	1	-2
582.244	1	8
582.414	1	0
582.583	1	5
582.753	1	14
582.923	1	4
583.093	1	-5
583.263	1	5
583.433	1	-3
583.603	1	-7
583.772	1	-9
583.942	1	0
584.112	1	-9
584.282	1	5
584.452	1	-2
584.622	1	-1
584.791	1	2
584.961	1	-5
585.131	1	2
585.301	1	-7
585.471	1	-1
585.641	1	6
585.811	1	2
585.980	1	-4
586.150	1	-7
586.320	1	-1
586.490	1	7
586.660	1	6
586.830	1	1
586.999	1	-3
587.169	1	7
587.339	1	2
587.509	1	3
587.679	1	4
587.849	1	11
588.018	1	-3
588.188	1	0
588.358	1	-5
588.528	1	-6
588.698	1	-6
588.867	1	-3
589.037	1	-3
589.207	1	4
589.377	1	0
589.547	1	12
589.717	1	-7
589.886	1	1
590.056	1	3
590.226	1	-12
590.396	1	-1
590.566	1	-17
590.735	1	-10
590.905	1	9
591.075	1	3
591.245	1	-2
591.415	1	5
591.585	1	1
591.754	1	6
591.924	1	10
592.094	1	-5
592.264	1	-12
592.434	1	-3
592.603	1	-1
592.773	1	-6
592.943	1	11
593.113	1	10
593.283	1	-5
593.452	1	-3
593.622	1	6
593.792	1	6
593.962	1	10
594.132	1	-1
594.301	1	9
594.471	1	6
594.641	1	-1
594.811	1	-3
594.981	1	-9
595.150	1	7
595.320	1	-4
595.490	1	-2
595.660	1	-2
595.829	1	-7
595.999	1	-6
596.169	1	9
596.339	1	8
596.509	1	1
596.678	1	-2
596.848	1	14
597.018	1	-1
597.188	1	-11
597.358	1	-3
597.527	1	-14
597.697	1	-6
597.867	1	1
598.037	1	-1
598.206	1	11
598.376	1	-8
598.546	1	9
598.716	1	-16
598.885	1	-4
599.055	1	2
599.225	1	7
599.395	1	6
599.565	1	-5
599.734	1	8
599.904	1	-6
600.074	1	4
600.244	1	-3
600.413	1	4
600.583	1	-8
600.753	1	7
600.923	1	2
601.092	1	2
601.262	1	-5
601.432	1	1
601.602	1	12
601.771	1	3
601.941	1	11
602.111	1	0
602.281	1	2
602.451	1	-12
602.620	1	-1
602.790	1	-7
602.960	1	5
603.130	1	-2
603.299	1	6
603.469	1	8
603.639	1	-2
603.809	1	5
603.978	1	0
604.148	1	0
604.318	1	-1
604.487	1	1
604.657	1	-8
604.827	1	13
604.997	1	10
605.166	1	0
605.336	1	-6
605.506	1	-11
605.676	1	6
605.845	1	-2
606.015	1	-7
606.185	1	-4
606.355	1	-2
606.524	1	4
606.694	1	6
606.864	1	8
607.034	1	2
607.203	1	7
607.373	1	8
607.543	1	5
607.712	1	5
607.882	1	0
608.052	1	-3
608.222	1	5
608.391	1	12
608.561	1	-6
608.731	1	-7
608.901	1	3
609.070	1	-9
609.240	1	-1
609.410	1	-2
609.579	1	-2
609.749	1	-1
609.919	1	-3
610.089	1	0
610.258	1	8
610.428	1	9
610.598	1	1
610.767	1	11
610.937	1	-5
611.107	1	0
611.277	1	-4
611.446	1	-2
611.616	1	8
611.786	1	-2
611.955	1	-1
612.125	1	12
612.295	1	4
612.465	1	-4
612.634	1	8
612.804	1	2
612.974	1	-8
613.143	1	4
613.313	1	6
613.483	1	7
613.652	1	4
613.822	1	2
613.992	1	-5
614.162	1	4
614.331	1	-4
614.501	1	-6
614.671	1	2
614.840	1	0
615.010	1	0
615.180	1	7
615.349	1	19
615.519	1	2
615.689	1	-8
615.858	1	9
616.028	1	-5
616.198	1	5
616.368	1	5
616.537	1	3
616.707	1	2
616.877	1	6
617.046	1	10
617.216	1	13
617.386	1	15
617.555	1	-12
617.725	1	11
617.895	1	-6
618.064	1	5
618.234	1	-5
618.404	1	-5
618.573	1	10
618.743	1	11
618.913	1	9
619.082	1	0
619.252	1	1
619.422	1	-12
619.591	1	0
619.761	1	-8
619.931	1	-2
620.100	1	14
620.270	1	5
620.440	1	2
620.609	1	8
620.779	1	4
620.949	1	-2
621.118	1	8
621.288	1	4
621.458	1	-5
621.627	1	3
621.797	1	-9
621.967	1	13
622.136	1	5
622.306	1	-3
622.476	1	0
622.645	1	-4
622.815	1	1
622.985	1	3
623.154	1	-6
623.324	1	0
623.494	1	-7
623.663	1	-1
623.833	1	0
624.002	1	-1
624.172	1	7
624.342	1	15
624.511	1	3
624.681	1	3
624.851	1	-5
625.020	1	-3
625.190	1	4
625.360	1	-2
625.529	1	-3
625.699	1	-8
625.869	1	4
626.038	1	-12
626.208	1	6
626.377	1	-5
626.547	1	-6
626.717	1	-2
626.886	1	-2
627.056	1	1
627.226	1	5
627.395	1	-9
627.565	1	0
627.735	1	2
627.904	1	0
628.074	1	2
628.243	1	8
628.413	1	3
628.583	1	1
628.752	1	-1
628.922	1	-1
629.091	1	0
629.261	1	10
629.431	1	1
629.600	1	7
629.770	1	3
629.940	1	-3
630.109	1	6
630.279	1	3
630.448	1	-7
630.618	1	-2
630.788	1	-6
630.957	1	4
631.127	1	5
631.297	1	-9
631.466	1	3
631.636	1	11
631.805	1	4
631.975	1	-7
632.145	1	-2
632.314	1	0
632.484	1	2
632.653	1	-2
632.823	1	-6
632.993	1	13
633.162	1	1
633.332	1	5
633.501	1	4
633.671	1	-6
633.841	1	0
634.010	1	-1
634.180	1	8
634.349	1	6
634.519	1	6
634.689	1	4
634.858	1	-16
635.028	1	-6
635.197	1	-3
635.367	1	8
635.537	1	-5
635.706	1	1
635.876	1	6
636.045	1	1
636.215	1	12
636.384	1	-8
636.554	1	0
636.724	1	2
636.893	1	1
637.063	1	1
637.232	1	4
637.402	1	3
637.572	1	-1
637.741	1	1
637.911	1	-4
638.080	1	-2
638.250	1	4
638.419	1	-8
638.589	1	11
638.759	1	-10
638.928	1	-1
639.098	1	1
639.267	1	10
639.437	1	-5
639.606	1	2
639.776	1	4
639.946	1	15
640.115	1	-2
640.285	1	9
640.454	1	1
640.624	1	5
640.793	1	2
640.963	1	-1
641.132	1	6
641.302	1	-5
641.472	1	1
641.641	1	2
641.811	1	1
641.980	1	7
642.150	1	-8
642.319	1	15
642.489	1	-4
642.659	1	2
642.828	1	4
642.998	1	0
643.167	1	-3
643.337	1	4
643.506	1	7
643.676	1	-6
643.845	1	12
644.015	1	-4
644.184	1	-7
644.354	1	-5
644.524	1	3
644.693	1	6
644.863	1	6
645.032	1	6
645.202	1	-7
645.371	1	2
645.541	1	-1
645.710	1	-1
645.880	1	-8
646.049	1	-3
646.219	1	-7
646.388	1	-1
646.558	1	4
646.728	1	-4
646.897	1	-1
647.067	1	-6
647.236	1	13
647.406	1	7
647.575	1	8
647.745	1	0
647.914	1	-3
648.084	1	1
648.253	1	-2
648.423	1	3
648.592	1	-11
648.762	1	9
648.931	1	8
649.101	1	5
649.270	1	-6
649.440	1	5
649.610	1	9
649.779	1	-2
649.949	1	-2
650.118	1	9
650.288	1	8
650.457	1	7
650.627	1	4
650.796	1	-1
650.966	1	-5
651.135	1	-5
651.305	1	-1
651.474	1	5
651.644	1	17
651.813	1	6
651.983	1	0
652.152	1	1
652.322	1	-5
652.491	1	2
652.661	1	5
652.830	1	-1
653.000	1	3
653.169	1	6
653.339	1	4
653.508	1	-2
653.678	1	1
653.847	1	-6
654.017	1	6
654.186	1	7
654.356	1	4
654.525	1	-4
654.695	1	5
654.864	1	0
655.034	1	-5
655.203	1	0
655.373	1	5
655.542	1	2
655.712	1	-1
655.881	1	13
656.051	1	-1
656.220	1	1
656.390	1	-4
656.559	1	-6
656.729	1	-10
656.898	1	2
657.068	1	6
657.237	1	9
657.406	1	-4
657.576	1	0
657.745	1	-2
657.915	1	4
658.084	1	-2
658.254	1	4
658.423	1	2
658.593	1	7
658.762	1	3
658.932	1	1
659.101	1	-7
659.271	1	-3
659.440	1	0
659.610	1	-5
659.779	1	-1
659.949	1	1
660.118	1	0
660.288	1	-6
660.457	1	3
660.626	1	0
660.796	1	0
660.965	1	-5
661.135	1	-12
661.304	1	-6
661.474	1	-1
661.643	1	-1
661.813	1	-5
661.982	1	3
662.152	1	5
662.321	1	-1
662.491	1	0
662.660	1	-3
662.829	1	7
662.999	1	-9
663.168	1	14
663.338	1	10
663.507	1	8
663.677	1	4
663.846	1	-6
664.016	1	-1
664.185	1	-6
664.354	1	11
664.524	1	1
664.693	1	-11
664.863	1	-4
665.032	1	1
665.202	1	4
665.371	1	-7
665.541	1	15
665.710	1	-2
665.879	1	2
666.049	1	-1
666.218	1	-1
666.388	1	-1
666.557	1	2
666.727	1	-8
666.896	1	7
667.065	1	-3
667.235	1	12
667.404	1	-7
667.574	1	1
667.743	1	2
667.913	1	5
668.082	1	-5
668.251	1	-4
668.421	1	0
668.590	1	1
668.760	1	-3
668.929	1	4
669.099	1	0
669.268	1	-5
669.437	1	-2
669.607	1	1
669.776	1	7
669.946	1	-3
670.115	1	-14
670.285	1	3
670.454	1	3
670.623	1	0
670.793	1	6
670.962	1	-10
671.132	1	-5
671.301	1	6
671.470	1	-1
671.640	1	-2
671.809	1	-5
671.979	1	16
672.148	1	9
672.317	1	6
672.487	1	-3
672.656	1	-5
672.826	1	2
672.995	1	6
673.164	1	-19
673.334	1	-5
673.503	1	-10
673.673	1	3
673.842	1	7
674.011	1	5
674.181	1	3
674.350	1	0
674.520	1	0
674.689	1	-9
674.858	1	-4
675.028	1	11
675.197	1	11
675.367	1	1
675.536	1	7
675.705	1	3
675.875	1	-1
676.044	1	-12
676.214	1	5
676.383	1	3
676.552	1	0
676.722	1	-6
676.891	1	-4
677.060	1	5
677.230	1	9
677.399	1	-2
677.569	1	17
677.738	1	8
677.907	1	2
678.077	1	2
678.246	1	-10
678.416	1	-1
678.585	1	-4
678.754	1	-1
678.924	1	14
679.093	1	4
679.262	1	-4
679.432	1	-4
679.601	1	5
679.771	1	3
679.940	1	10
680.109	1	-2
680.279	1	7
680.448	1	8
680.617	1	-2
680.787	1	0
680.956	1	10
681.125	1	-4
681.295	1	5
681.464	1	-7
681.634	1	9
681.803	1	8
681.972	1	-5
682.142	1	0
682.311	1	1
682.480	1	2
682.650	1	9
682.819	1	3
682.988	1	-2
683.158	1	-2
683.327	1	10
683.496	1	3
683.666	1	3
683.835	1	3
684.004	1	12
684.174	1	-3
684.343	1	-1
684.512	1	11
684.682	1	7
684.851	1	4
685.021	1	-6
685.190	1	2
685.359	1	-4
685.529	1	7
685.698	1	1
685.867	1	-7
686.037	1	-3
686.206	1	3
686.375	1	3
686.545	1	8
686.714	1	8
686.883	1	5
687.053	1	-2
687.222	1	2
687.391	1	2
687.561	1	9
687.730	1	-1
687.899	1	0
688.069	1	7
688.238	1	4
688.407	1	8
688.577	1	-7
688.746	1	4
