340.368	1	8
340.539	1	3
340.710	1	-1
340.881	1	-3
341.052	1	-7
341.223	1	2
341.394	1	-2
341.565	1	1
341.737	1	8
341.908	1	-2
342.079	1	-10
342.250	1	-6
342.421	1	-2
342.592	1	8
342.763	1	-8
342.934	1	-7
343.105	1	3
343.276	1	1
343.447	1	-10
343.618	1	-5
343.789	1	-2
343.960	1	-2
344.131	1	-5
344.302	1	-10
344.473	1	0
344.644	1	-4
344.815	1	-9
344.986	1	8
345.157	1	-6
345.328	1	-8
345.499	1	10
345.670	1	-3
345.841	1	-2
346.012	1	10
346.183	1	5
346.354	1	4
346.526	1	2
346.697	1	-2
346.868	1	-14
347.039	1	-3
347.210	1	-3
347.381	1	-2
347.552	1	4
347.723	1	2
347.894	1	-2
348.065	1	6
348.236	1	7
348.407	1	0
348.578	1	-2
348.749	1	-5
348.920	1	-2
349.091	1	0
349.262	1	-7
349.433	1	-5
349.604	1	10
349.775	1	3
349.946	1	-7
350.117	1	2
350.288	1	-8
350.459	1	-7
350.630	1	-2
350.801	1	9
350.972	1	10
351.143	1	6
351.314	1	-3
351.485	1	8
351.656	1	-4
351.827	1	-5
351.998	1	1
352.169	1	-2
352.340	1	-3
352.511	1	0
352.682	1	3
352.853	1	-1
353.024	1	3
353.195	1	-3
353.366	1	6
353.537	1	0
353.708	1	4
353.879	1	-7
354.050	1	4
354.221	1	4
354.392	1	8
354.563	1	5
354.734	1	3
354.905	1	3
355.076	1	13
355.247	1	4
355.418	1	4
355.589	1	0
355.760	1	8
355.931	1	-1
356.102	1	-5
356.273	1	-7
356.444	1	11
356.615	1	-1
356.785	1	3
356.956	1	5
357.127	1	-3
357.298	1	9
357.469	1	-3
357.640	1	-1
357.811	1	4
357.982	1	2
358.153	1	1
358.324	1	7
358.495	1	-9
358.666	1	-3
358.837	1	5
359.008	1	2
359.179	1	9
359.350	1	5
359.521	1	6
359.692	1	4
359.863	1	7
360.034	1	3
360.205	1	-4
360.376	1	4
360.547	1	-12
360.718	1	10
360.889	1	14
361.060	1	5
361.231	1	5
361.401	1	3
361.572	1	4
361.743	1	14
361.914	1	14
362.085	1	12
362.256	1	3
362.427	1	-7
362.598	1	0
362.769	1	9
362.940	1	5
363.111	1	7
363.282	1	12
363.453	1	-8
363.624	1	0
363.795	1	12
363.966	1	10
364.137	1	7
364.308	1	7
364.478	1	4
364.649	1	7
364.820	1	9
364.991	1	10
365.162	1	12
365.333	1	-3
365.504	1	1
365.675	1	1
365.846	1	1
366.017	1	7
366.188	1	14
366.359	1	4
366.530	1	17
366.701	1	23
366.871	1	7
367.042	1	14
367.213	1	13
367.384	1	-8
367.555	1	15
367.726	1	2
367.897	1	8
368.068	1	14
368.239	1	4
368.410	1	8
368.581	1	14
368.752	1	12
368.923	1	17
369.093	1	6
369.264	1	6
369.435	1	10
369.606	1	4
369.777	1	13
369.948	1	4
370.119	1	10
370.290	1	1
370.461	1	2
370.632	1	8
370.803	1	11
370.973	1	2
371.144	1	6
371.315	1	7
371.486	1	11
371.657	1	3
371.828	1	11
371.999	1	-5
372.170	1	5
372.341	1	-1
372.512	1	10
372.682	1	5
372.853	1	12
373.024	1	7
373.195	1	-4
373.366	1	4
373.537	1	14
373.708	1	-3
373.879	1	9
374.050	1	1
374.220	1	5
374.391	1	8
374.562	1	3
374.733	1	-7
374.904	1	16
375.075	1	-4
375.246	1	-12
375.417	1	13
375.588	1	13
375.758	1	-6
375.929	1	-2
376.100	1	2
376.271	1	6
376.442	1	3
376.613	1	2
376.784	1	8
376.955	1	-6
377.125	1	9
377.296	1	9
377.467	1	6
377.638	1	5
377.809	1	-2
377.980	1	5
378.151	1	8
378.321	1	8
378.492	1	8
378.663	1	7
378.834	1	12
379.005	1	14
379.176	1	0
379.347	1	3
379.518	1	-3
379.688	1	-1
379.859	1	4
380.030	1	22
380.201	1	17
380.372	1	7
380.543	1	11
380.714	1	9
380.884	1	20
381.055	1	-9
381.226	1	1
381.397	1	1
381.568	1	6
381.739	1	8
381.910	1	-5
382.080	1	9
382.251	1	-1
382.422	1	6
382.593	1	-1
382.764	1	3
382.935	1	-4
383.105	1	-4
383.276	1	12
383.447	1	2
383.618	1	17
383.789	1	0
383.960	1	-4
384.130	1	-1
384.301	1	3
384.472	1	1
384.643	1	0
384.814	1	6
384.985	1	-1
385.156	1	15
385.326	1	1
385.497	1	2
385.668	1	7
385.839	1	16
386.010	1	5
386.180	1	10
386.351	1	4
386.522	1	6
386.693	1	7
386.864	1	22
387.035	1	12
387.205	1	13
387.376	1	9
387.547	1	13
387.718	1	7
387.889	1	9
388.060	1	10
388.230	1	3
388.401	1	6
388.572	1	17
388.743	1	3
388.914	1	-1
389.084	1	13
389.255	1	-2
389.426	1	4
389.597	1	15
389.768	1	11
389.939	1	11
390.109	1	6
390.280	1	7
390.451	1	9
390.622	1	5
390.793	1	6
390.963	1	6
391.134	1	-6
391.305	1	-2
391.476	1	9
391.647	1	1
391.817	1	10
391.988	1	8
392.159	1	18
392.330	1	5
392.501	1	9
392.671	1	11
392.842	1	7
393.013	1	7
393.184	1	2
393.355	1	12
393.525	1	9
393.696	1	1
393.867	1	7
394.038	1	11
394.208	1	9
394.379	1	7
394.550	1	4
394.721	1	1
394.892	1	0
395.062	1	3
395.233	1	11
395.404	1	3
395.575	1	4
395.746	1	5
395.916	1	1
396.087	1	2
396.258	1	0
396.429	1	-1
396.599	1	4
396.770	1	9
396.941	1	-2
397.112	1	-7
397.283	1	0
397.453	1	16
397.624	1	9
397.795	1	-1
397.966	1	16
398.136	1	8
398.307	1	0
398.478	1	12
398.649	1	1
398.819	1	8
398.990	1	-1
399.161	1	5
399.332	1	0
399.503	1	13
399.673	1	-11
399.844	1	11
400.015	1	12
400.186	1	1
400.356	1	15
400.527	1	18
400.698	1	6
400.869	1	-4
401.039	1	1
401.210	1	11
401.381	1	-5
401.552	1	-4
401.722	1	13
401.893	1	4
402.064	1	2
402.235	1	-11
402.405	1	11
402.576	1	-4
402.747	1	4
402.918	1	5
403.088	1	2
403.259	1	-6
403.430	1	12
403.601	1	-8
403.771	1	12
403.942	1	6
404.113	1	3
404.284	1	2
404.454	1	9
404.625	1	2
404.796	1	-1
404.967	1	1
405.137	1	5
405.308	1	5
405.479	1	9
405.649	1	6
405.820	1	5
405.991	1	2
406.162	1	7
406.332	1	-9
406.503	1	-6
406.674	1	5
406.845	1	4
407.015	1	0
407.186	1	5
407.357	1	8
407.527	1	0
407.698	1	4
407.869	1	-1
408.040	1	7
408.210	1	5
408.381	1	-1
408.552	1	-6
408.722	1	-3
408.893	1	-1
409.064	1	0
409.235	1	5
409.405	1	11
409.576	1	8
409.747	1	10
409.917	1	-5
410.088	1	-9
410.259	1	-2
410.430	1	-8
410.600	1	-5
410.771	1	3
410.942	1	-3
411.112	1	4
411.283	1	-5
411.454	1	3
411.625	1	-6
411.795	1	2
411.966	1	2
412.137	1	8
412.307	1	11
412.478	1	13
412.649	1	-4
412.819	1	11
412.990	1	-11
413.161	1	-1
413.332	1	-3
413.502	1	-4
413.673	1	14
413.844	1	14
414.014	1	0
414.185	1	1
414.356	1	-3
414.526	1	4
414.697	1	3
414.868	1	3
415.038	1	0
415.209	1	0
415.380	1	5
415.550	1	7
415.721	1	7
415.892	1	7
416.063	1	7
416.233	1	9
416.404	1	-4
416.575	1	5
416.745	1	-5
416.916	1	-4
417.087	1	9
417.257	1	11
417.428	1	-2
417.599	1	4
417.769	1	0
417.940	1	2
418.111	1	2
418.281	1	-2
418.452	1	-5
418.623	1	1
418.793	1	8
418.964	1	1
419.135	1	10
419.305	1	-7
419.476	1	0
419.647	1	5
419.817	1	7
419.988	1	-9
420.159	1	3
420.329	1	3
420.500	1	11
420.671	1	-3
420.841	1	-2
421.012	1	3
421.183	1	12
421.353	1	-1
421.524	1	8
421.695	1	1
421.865	1	16
422.036	1	-3
422.206	1	-6
422.377	1	-2
422.548	1	9
422.718	1	-4
422.889	1	-15
423.060	1	-2
423.230	1	3
423.401	1	1
423.572	1	5
423.742	1	2
423.913	1	-4
424.084	1	-2
424.254	1	-5
424.425	1	-4
424.595	1	-7
424.766	1	3
424.937	1	3
425.107	1	5
425.278	1	1
425.449	1	2
425.619	1	3
425.790	1	7
425.961	1	-6
426.131	1	3
426.302	1	5
426.472	1	-7
426.643	1	-11
426.814	1	1
426.984	1	8
427.155	1	-4
427.326	1	7
427.496	1	4
427.667	1	-1
427.837	1	3
428.008	1	1
428.179	1	-2
428.349	1	-17
428.520	1	4
428.691	1	3
428.861	1	5
429.032	1	-4
429.202	1	15
429.373	1	5
429.544	1	5
429.714	1	1
429.885	1	7
430.055	1	5
430.226	1	3
430.397	1	-2
430.567	1	0
430.738	1	-7
430.909	1	2
431.079	1	-5
431.250	1	-6
431.420	1	2
431.591	1	-7
431.762	1	-7
431.932	1	3
432.103	1	3
432.273	1	3
432.444	1	-9
432.615	1	3
432.785	1	-6
432.956	1	8
433.126	1	3
433.297	1	1
433.468	1	-5
433.638	1	7
433.809	1	-3
433.979	1	6
434.150	1	0
434.320	1	11
434.491	1	8
434.662	1	8
434.832	1	7
435.003	1	9
435.173	1	-1
435.344	1	3
435.515	1	-1
435.685	1	2
435.856	1	0
436.026	1	-7
436.197	1	-3
436.368	1	3
436.538	1	-4
436.709	1	-4
436.879	1	-4
437.050	1	3
437.220	1	-10
437.391	1	8
437.562	1	3
437.732	1	7
437.903	1	-8
438.073	1	5
438.244	1	-6
438.414	1	-2
438.585	1	1
438.756	1	4
438.926	1	-2
439.097	1	10
439.267	1	0
439.438	1	10
439.608	1	2
439.779	1	-4
439.949	1	1
440.120	1	-6
440.291	1	6
440.461	1	2
440.632	1	3
440.802	1	-1
440.973	1	9
441.143	1	-2
441.314	1	-12
441.485	1	-4
441.655	1	-4
441.826	1	-15
441.996	1	-3
442.167	1	6
442.337	1	8
442.508	1	3
442.678	1	-5
442.849	1	-6
443.019	1	-5
443.190	1	8
443.361	1	1
443.531	1	2
443.702	1	-16
443.872	1	8
444.043	1	6
444.213	1	10
444.384	1	4
444.554	1	-2
444.725	1	3
444.895	1	1
445.066	1	1
445.237	1	-5
445.407	1	-4
445.578	1	8
445.748	1	-12
445.919	1	7
446.089	1	-9
446.260	1	4
446.430	1	-4
446.601	1	7
446.771	1	6
446.942	1	-6
447.112	1	5
447.283	1	-7
447.453	1	-3
447.624	1	-12
447.794	1	10
447.965	1	5
448.135	1	2
448.306	1	-6
448.477	1	4
448.647	1	-4
448.818	1	-4
448.988	1	-12
449.159	1	-1
449.329	1	3
449.500	1	0
449.670	1	6
449.841	1	-4
450.011	1	2
450.182	1	-10
450.352	1	5
450.523	1	-1
450.693	1	8
450.864	1	-3
451.034	1	8
451.205	1	-5
451.375	1	-5
451.546	1	-4
451.716	1	5
451.887	1	2
452.057	1	12
452.228	1	-1
452.398	1	8
452.569	1	-8
452.739	1	0
452.910	1	-6
453.080	1	6
453.251	1	-3
453.421	1	-1
453.592	1	8
453.762	1	0
453.933	1	1
454.103	1	-3
454.274	1	6
454.444	1	12
454.615	1	8
454.785	1	-5
454.956	1	7
455.126	1	-4
455.297	1	-7
455.467	1	-9
455.638	1	6
455.808	1	6
455.979	1	-1
456.149	1	4
456.320	1	13
456.490	1	-5
456.661	1	-9
456.831	1	-3
457.001	1	5
457.172	1	2
457.342	1	-1
457.513	1	11
457.683	1	3
457.854	1	-3
458.024	1	-6
458.195	1	-9
458.365	1	10
458.536	1	-10
458.706	1	7
458.877	1	5
459.047	1	12
459.218	1	0
459.388	1	12
459.559	1	2
459.729	1	-10
459.899	1	-4
460.070	1	-4
460.240	1	3
460.411	1	-1
460.581	1	6
460.752	1	-8
460.922	1	12
461.093	1	6
461.263	1	6
461.434	1	10
461.604	1	4
461.775	1	-9
461.945	1	7
462.115	1	5
462.286	1	3
462.456	1	2
462.627	1	7
462.797	1	-16
462.968	1	-8
463.138	1	-4
463.309	1	4
463.479	1	6
463.649	1	-7
463.820	1	0
463.990	1	1
464.161	1	2
464.331	1	9
464.502	1	-3
464.672	1	-14
464.843	1	-3
465.013	1	7
465.183	1	1
465.354	1	4
465.524	1	-5
465.695	1	2
465.865	1	17
466.036	1	-1
466.206	1	5
466.376	1	-5
466.547	1	-9
466.717	1	4
466.888	1	-1
467.058	1	2
467.229	1	7
467.399	1	3
467.569	1	4
467.740	1	-3
467.910	1	2
468.081	1	0
468.251	1	-1
468.422	1	-9
468.592	1	5
468.762	1	-7
468.933	1	5
469.103	1	-5
469.274	1	7
469.444	1	-1
469.614	1	7
469.785	1	6
469.955	1	-1
470.126	1	-6
470.296	1	-5
470.467	1	-10
470.637	1	9
470.807	1	16
470.978	1	2
471.148	1	-3
471.319	1	7
471.489	1	-8
471.659	1	1
471.830	1	-3
472.000	1	6
472.171	1	4
472.341	1	-5
472.511	1	4
472.682	1	-4
472.852	1	2
473.023	1	4
473.193	1	3
473.363	1	6
473.534	1	-6
473.704	1	0
473.875	1	-4
474.045	1	-4
474.215	1	1
474.386	1	7
474.556	1	-8
474.727	1	-7
474.897	1	1
475.067	1	0
475.238	1	-11
475.408	1	-2
475.578	1	9
475.749	1	1
475.919	1	4
476.090	1	7
476.260	1	-7
476.430	1	6
476.601	1	1
476.771	1	-8
476.942	1	5
477.112	1	-3
477.282	1	3
477.453	1	-6
477.623	1	3
477.793	1	8
477.964	1	0
478.134	1	1
478.305	1	-3
478.475	1	-4
478.645	1	1
478.816	1	6
478.986	1	-4
479.156	1	-6
479.327	1	2
479.497	1	2
479.667	1	10
479.838	1	-11
480.008	1	-1
480.179	1	-12
480.349	1	9
480.519	1	5
480.690	1	-12
480.860	1	11
481.030	1	1
481.201	1	5
481.371	1	1
481.541	1	2
481.712	1	4
481.882	1	-9
482.053	1	8
482.223	1	4
482.393	1	0
482.564	1	5
482.734	1	-10
482.904	1	-1
483.075	1	-2
483.245	1	2
483.415	1	1
483.586	1	3
483.756	1	3
483.926	1	-4
484.097	1	6
484.267	1	-6
484.437	1	-6
484.608	1	10
484.778	1	-5
484.948	1	4
485.119	1	-6
485.289	1	1
485.459	1	8
485.630	1	6
485.800	1	-6
485.970	1	-3
486.141	1	-5
486.311	1	2
486.481	1	-1
486.652	1	-4
486.822	1	-3
486.992	1	8
487.163	1	5
487.333	1	4
487.503	1	11
487.674	1	-5
487.844	1	-11
488.014	1	0
488.185	1	-2
488.355	1	1
488.525	1	1
488.696	1	3
488.866	1	-4
489.036	1	7
489.207	1	-3
489.377	1	4
489.547	1	-9
489.718	1	-6
489.888	1	4
490.058	1	7
490.228	1	4
490.399	1	2
490.569	1	1
490.739	1	11
490.910	1	3
491.080	1	-9
491.250	1	1
491.421	1	7
491.591	1	-8
491.761	1	-3
491.932	1	-7
492.102	1	2
492.272	1	-1
492.442	1	7
492.613	1	3
492.783	1	5
492.953	1	9
493.124	1	5
493.294	1	4
493.464	1	3
493.635	1	-4
493.805	1	10
493.975	1	11
494.145	1	5
494.316	1	1
494.486	1	-2
494.656	1	-9
494.827	1	4
494.997	1	6
495.167	1	5
495.337	1	2
495.508	1	2
495.678	1	5
495.848	1	-1
496.019	1	1
496.189	1	2
496.359	1	-2
496.529	1	-6
496.700	1	-5
496.870	1	1
497.040	1	1
497.211	1	-1
497.381	1	4
497.551	1	-3
497.721	1	-3
497.892	1	-1
498.062	1	3
498.232	1	-1
498.403	1	4
498.573	1	5
498.743	1	5
498.913	1	7
499.084	1	7
499.254	1	-3
499.424	1	2
499.594	1	-1
499.765	1	7
499.935	1	-12
500.105	1	10
500.275	1	-4
500.446	1	1
500.616	1	-1
500.786	1	0
500.956	1	-1
501.127	1	8
501.297	1	-8
501.467	1	0
501.638	1	7
501.808	1	6
501.978	1	3
502.148	1	0
502.319	1	4
502.489	1	0
502.659	1	11
502.829	1	10
503.000	1	3
503.170	1	-11
503.340	1	0
503.510	1	-1
503.681	1	-6
503.851	1	0
504.021	1	2
504.191	1	14
504.362	1	2
504.532	1	3
504.702	1	-2
504.872	1	-14
505.042	1	-2
505.213	1	9
505.383	1	3
505.553	1	5
505.723	1	8
505.894	1	-8
506.064	1	6
506.234	1	1
506.404	1	-7
506.575	1	-15
506.745	1	15
506.915	1	3
507.085	1	-1
507.256	1	6
507.426	1	7
507.596	1	3
507.766	1	10
507.936	1	0
508.107	1	13
508.277	1	-1
508.447	1	-2
508.617	1	3
508.788	1	14
508.958	1	-2
509.128	1	14
509.298	1	-5
509.468	1	5
509.639	1	3
509.809	1	9
509.979	1	8
510.149	1	3
510.319	1	-1
510.490	1	6
510.660	1	9
510.830	1	-2
511.000	1	5
511.171	1	3
511.341	1	7
511.511	1	0
511.681	1	8
511.851	1	8
512.022	1	0
512.192	1	7
512.362	1	-5
512.532	1	-1
512.702	1	0
512.873	1	8
513.043	1	2
513.213	1	13
513.383	1	-6
513.553	1	3
513.724	1	-3
513.894	1	5
514.064	1	6
514.234	1	0
514.404	1	9
514.575	1	0
514.745	1	6
514.915	1	-15
515.085	1	4
515.255	1	8
515.425	1	0
515.596	1	8
515.766	1	3
515.936	1	7
516.106	1	7
516.276	1	6
516.447	1	1
516.617	1	6
516.787	1	8
516.957	1	7
517.127	1	9
517.297	1	-4
517.468	1	-3
517.638	1	-2
517.808	1	6
517.978	1	10
518.148	1	1
518.319	1	11
518.489	1	-7
518.659	1	-6
518.829	1	-4
518.999	1	2
519.169	1	0
519.340	1	13
519.510	1	6
519.680	1	5
519.850	1	1
520.020	1	7
520.190	1	1
520.361	1	0
520.531	1	12
520.701	1	10
520.871	1	3
521.041	1	8
521.211	1	0
521.382	1	0
521.552	1	-3
521.722	1	9
521.892	1	3
522.062	1	9
522.232	1	17
522.402	1	-3
522.573	1	7
522.743	1	3
522.913	1	2
523.083	1	1
523.253	1	6
523.423	1	2
523.593	1	11
523.764	1	8
523.934	1	8
524.104	1	1
524.274	1	3
524.444	1	-3
524.614	1	11
524.784	1	-7
524.955	1	11
525.125	1	7
525.295	1	-3
525.465	1	8
525.635	1	-4
525.805	1	9
525.975	1	-8
526.146	1	-4
526.316	1	-7
526.486	1	8
526.656	1	10
526.826	1	9
526.996	1	-3
527.166	1	-3
527.337	1	-3
527.507	1	5
527.677	1	13
527.847	1	6
528.017	1	3
528.187	1	13
528.357	1	20
528.527	1	10
528.698	1	-2
528.868	1	2
529.038	1	5
529.208	1	-14
529.378	1	4
529.548	1	4
529.718	1	13
529.888	1	2
530.058	1	6
530.229	1	9
530.399	1	1
530.569	1	-8
530.739	1	4
530.909	1	2
531.079	1	-7
531.249	1	-4
531.419	1	7
531.589	1	0
531.760	1	2
531.930	1	7
532.100	1	2
532.270	1	9
532.440	1	10
532.610	1	13
532.780	1	9
532.950	1	10
533.120	1	22
533.290	1	6
533.461	1	1
533.631	1	3
533.801	1	-1
533.971	1	-3
534.141	1	10
534.311	1	3
534.481	1	11
534.651	1	-4
534.821	1	6
534.991	1	6
535.162	1	2
535.332	1	1
535.502	1	2
535.672	1	1
535.842	1	9
536.012	1	-1
536.182	1	7
536.352	1	2
536.522	1	-4
536.692	1	-2
536.862	1	5
537.032	1	-1
537.203	1	7
537.373	1	9
537.543	1	0
537.713	1	3
537.883	1	4
538.053	1	8
538.223	1	11
538.393	1	8
538.563	1	10
538.733	1	10
538.903	1	6
539.073	1	-6
539.243	1	-6
539.413	1	9
539.584	1	7
539.754	1	12
539.924	1	14
540.094	1	8
540.264	1	-2
540.434	1	-1
540.604	1	1
540.774	1	8
540.944	1	-10
541.114	1	-7
541.284	1	1
541.454	1	9
541.624	1	6
541.794	1	-4
541.964	1	-2
542.134	1	0
542.305	1	16
542.475	1	-4
542.645	1	3
542.815	1	-6
542.985	1	10
543.155	1	-9
543.325	1	2
543.495	1	17
543.665	1	2
543.835	1	-5
544.005	1	-3
544.175	1	2
544.345	1	-5
544.515	1	0
544.685	1	6
544.855	1	2
545.025	1	11
545.195	1	-4
545.365	1	-1
545.535	1	1
545.705	1	7
545.875	1	-2
546.045	1	-4
546.216	1	-3
546.386	1	3
546.556	1	1
546.726	1	13
546.896	1	4
547.066	1	6
547.236	1	0
547.406	1	0
547.576	1	6
547.746	1	12
547.916	1	3
548.086	1	5
548.256	1	-3
548.426	1	0
548.596	1	5
548.766	1	12
548.936	1	10
549.106	1	13
549.276	1	13
549.446	1	-2
549.616	1	9
549.786	1	-5
549.956	1	0
550.126	1	-9
550.296	1	5
550.466	1	9
550.636	1	16
550.806	1	12
550.976	1	4
551.146	1	-5
551.316	1	1
551.486	1	14
551.656	1	6
551.826	1	11
551.996	1	-3
552.166	1	6
552.336	1	-1
552.506	1	12
552.676	1	3
552.846	1	4
553.016	1	8
553.186	1	9
553.356	1	-2
553.526	1	0
553.696	1	18
553.866	1	21
554.036	1	3
554.206	1	0
554.376	1	-12
554.546	1	-4
554.716	1	4
554.886	1	12
555.056	1	6
555.226	1	-8
555.396	1	-3
555.566	1	0
555.736	1	6
555.906	1	0
556.076	1	11
556.246	1	-3
556.416	1	-5
556.586	1	-9
556.756	1	-7
556.926	1	3
557.096	1	4
557.266	1	5
557.436	1	5
557.606	1	1
557.776	1	12
557.946	1	-4
558.116	1	6
558.286	1	-15
558.456	1	-2
558.626	1	-14
558.796	1	-1
558.966	1	1
559.136	1	1
559.306	1	6
559.476	1	9
559.646	1	8
559.816	1	2
559.986	1	-8
560.155	1	4
560.325	1	0
560.495	1	-5
560.665	1	-4
560.835	1	3
561.005	1	-6
561.175	1	8
561.345	1	1
561.515	1	-3
561.685	1	3
561.855	1	3
562.025	1	6
562.195	1	6
562.365	1	14
562.535	1	5
562.705	1	0
562.875	1	1
563.045	1	5
563.215	1	-6
563.385	1	-13
563.555	1	-10
563.725	1	10
563.895	1	-1
564.064	1	-3
564.234	1	-5
564.404	1	2
564.574	1	15
564.744	1	4
564.914	1	7
565.084	1	-11
565.254	1	1
565.424	1	6
565.594	1	3
565.764	1	-2
565.934	1	8
566.104	1	1
566.274	1	9
566.444	1	-7
566.614	1	-3
566.783	1	3
566.953	1	2
567.123	1	0
567.293	1	-5
567.463	1	1
567.633	1	7
567.803	1	12
567.973	1	10
568.143	1	1
568.313	1	0
568.483	1	9
568.653	1	-12
568.823	1	4
568.993	1	8
569.162	1	2
569.332	1	7
569.502	1	5
569.672	1	1
569.842	1	-8
570.012	1	7
570.182	1	-12
570.352	1	-2
570.522	1	-1
570.692	1	7
570.862	1	6
571.031	1	-3
571.201	1	9
571.371	1	-1
571.541	1	3
571.711	1	0
571.881	1	6
572.051	1	-4
572.221	1	4
572.391	1	12
572.561	1	7
572.731	1	3
572.900	1	-4
573.070	1	10
573.240	1	-9
573.410	1	-1
573.580	1	-6
573.750	1	8
573.920	1	3
574.090	1	7
574.260	1	-2
574.430	1	6
574.599	1	-1
574.769	1	5
574.939	1	1
575.109	1	3
575.279	1	4
575.449	1	13
575.619	1	8
575.789	1	5
575.959	1	4
576.128	1	-3
576.298	1	0
576.468	1	-6
576.638	1	0
576.808	1	1
576.978	1	-7
577.148	1	5
577.318	1	15
577.487	1	3
577.657	1	2
577.827	1	2
577.997	1	2
578.167	1	5
578.337	1	2
578.507	1	-2
578.677	1	-1
578.846	1	5
579.016	1	2
579.186	1	-1
579.356	1	3
579.526	1	-9
579.696	1	16
579.866	1	3
580.036	1	8
580.205	1	-7
580.375	1	11
580.545	1	1
580.715	1	3
580.885	1	3
581.055	1	0
581.225	1	2
581.394	1	-5
581.564	1	-6
581.734	1	1
581.904	1	-8
582.074	1	-2
582.244	1	4
582.414	1	2
582.583	1	10
582.753	1	8
582.923	1	-1
583.093	1	3
583.263	1	9
583.433	1	-4
583.603	1	-9
583.772	1	-6
583.942	1	5
584.112	1	-2
584.282	1	-3
584.452	1	0
584.622	1	0
584.791	1	-4
584.961	1	-7
585.131	1	2
585.301	1	-2
585.471	1	0
585.641	1	6
585.811	1	-2
585.980	1	-7
586.150	1	2
586.320	1	2
586.490	1	4
586.660	1	6
586.830	1	4
586.999	1	-4
587.169	1	7
587.339	1	1
587.509	1	8
587.679	1	-1
587.849	1	11
588.018	1	-3
588.188	1	6
588.358	1	2
588.528	1	-9
588.698	1	-11
588.867	1	-1
589.037	1	-4
589.207	1	7
589.377	1	5
589.547	1	4
589.717	1	-2
589.886	1	-4
590.056	1	6
590.226	1	-6
590.396	1	-3
590.566	1	-6
590.735	1	-6
590.905	1	10
591.075	1	-4
591.245	1	7
591.415	1	7
591.585	1	-4
591.754	1	3
591.924	1	0
592.094	1	3
592.264	1	-2
592.434	1	6
592.603	1	4
592.773	1	1
592.943	1	6
593.113	1	-3
593.283	1	-10
593.452	1	-1
593.622	1	2
593.792	1	10
593.962	1	4
594.132	1	6
594.301	1	-4
594.471	1	1
594.641	1	2
594.811	1	-1
594.981	1	-5
595.150	1	3
595.320	1	-3
595.490	1	6
595.660	1	1
595.829	1	-10
595.999	1	-2
596.169	1	6
596.339	1	8
596.509	1	-8
596.678	1	11
596.848	1	4
597.018	1	4
597.188	1	-10
597.358	1	10
597.527	1	0
597.697	1	-6
597.867	1	0
598.037	1	9
598.206	1	14
598.376	1	-2
598.546	1	3
598.716	1	-16
598.885	1	-2
599.055	1	-2
599.225	1	-2
599.395	1	9
599.565	1	2
599.734	1	0
599.904	1	-2
600.074	1	1
600.244	1	0
600.413	1	2
600.583	1	-1
600.753	1	-1
600.923	1	-6
601.092	1	11
601.262	1	-1
601.432	1	4
601.602	1	4
601.771	1	5
601.941	1	2
602.111	1	8
602.281	1	3
602.451	1	-7
602.620	1	3
602.790	1	-2
602.960	1	-5
603.130	1	-6
603.299	1	3
603.469	1	1
603.639	1	-7
603.809	1	1
603.978	1	-5
604.148	1	-6
604.318	1	0
604.487	1	5
604.657	1	-2
604.827	1	3
604.997	1	13
605.166	1	0
605.336	1	-1
605.506	1	-1
605.676	1	12
605.845	1	-4
606.015	1	0
606.185	1	-8
606.355	1	-4
606.524	1	3
606.694	1	-3
606.864	1	1
607.034	1	5
607.203	1	11
607.373	1	-3
607.543	1	-1
607.712	1	4
607.882	1	4
608.052	1	0
608.222	1	4
608.391	1	5
608.561	1	-3
608.731	1	-5
608.901	1	3
609.070	1	-7
609.240	1	-6
609.410	1	-2
609.579	1	0
609.749	1	1
609.919	1	-15
610.089	1	-4
610.258	1	-3
610.428	1	7
610.598	1	0
610.767	1	5
610.937	1	4
611.107	1	-6
611.277	1	8
611.446	1	0
611.616	1	5
611.786	1	5
611.955	1	0
612.125	1	6
612.295	1	0
612.465	1	-6
612.634	1	7
612.804	1	3
612.974	1	-9
613.143	1	-2
613.313	1	3
613.483	1	8
613.652	1	7
613.822	1	2
613.992	1	2
614.162	1	0
614.331	1	5
614.501	1	3
614.671	1	-3
614.840	1	0
615.010	1	0
615.180	1	6
615.349	1	1
615.519	1	-3
615.689	1	-9
615.858	1	13
616.028	1	0
616.198	1	-1
616.368	1	-8
616.537	1	4
616.707	1	-1
616.877	1	5
617.046	1	7
617.216	1	5
617.386	1	3
617.555	1	1
617.725	1	11
617.895	1	-3
618.064	1	12
618.234	1	-5
618.404	1	-1
618.573	1	3
618.743	1	15
618.913	1	14
619.082	1	-1
619.252	1	0
619.422	1	-7
619.591	1	6
619.761	1	-6
619.931	1	1
620.100	1	15
620.270	1	7
620.440	1	7
620.609	1	7
620.779	1	11
620.949	1	3
621.118	1	7
621.288	1	4
621.458	1	5
621.627	1	-3
621.797	1	-4
621.967	1	3
622.136	1	3
622.306	1	0
622.476	1	1
622.645	1	11
622.815	1	-3
622.985	1	1
623.154	1	2
623.324	1	-4
623.494	1	-2
623.663	1	-3
623.833	1	3
624.002	1	-7
624.172	1	0
624.342	1	7
624.511	1	9
624.681	1	-9
624.851	1	-16
625.020	1	-1
625.190	1	16
625.360	1	-9
625.529	1	2
625.699	1	0
625.869	1	1
626.038	1	-6
626.208	1	2
626.377	1	-2
626.547	1	0
626.717	1	-14
626.886	1	0
627.056	1	-3
627.226	1	0
627.395	1	-2
627.565	1	13
627.735	1	3
627.904	1	6
628.074	1	7
628.243	1	7
628.413	1	-6
628.583	1	-6
628.752	1	-7
628.922	1	0
629.091	1	1
629.261	1	7
629.431	1	2
629.600	1	9
629.770	1	4
629.940	1	-3
630.109	1	3
630.279	1	2
630.448	1	0
630.618	1	7
630.788	1	-4
630.957	1	-2
631.127	1	0
631.297	1	-7
631.466	1	2
631.636	1	13
631.805	1	2
631.975	1	-11
632.145	1	7
632.314	1	2
632.484	1	8
632.653	1	-12
632.823	1	-9
632.993	1	2
633.162	1	1
633.332	1	-12
633.501	1	0
633.671	1	-1
633.841	1	6
634.010	1	8
634.180	1	10
634.349	1	6
634.519	1	-1
634.689	1	-5
634.858	1	-13
635.028	1	1
635.197	1	2
635.367	1	10
635.537	1	5
635.706	1	9
635.876	1	5
636.045	1	3
636.215	1	12
636.384	1	-2
636.554	1	-2
636.724	1	9
636.893	1	5
637.063	1	4
637.232	1	-2
637.402	1	-3
637.572	1	2
637.741	1	2
637.911	1	-8
638.080	1	2
638.250	1	-5
638.419	1	4
638.589	1	8
638.759	1	-2
638.928	1	6
639.098	1	-4
639.267	1	9
639.437	1	-3
639.606	1	-2
639.776	1	6
639.946	1	9
640.115	1	0
640.285	1	6
640.454	1	6
640.624	1	5
640.793	1	-3
640.963	1	-1
641.132	1	-1
641.302	1	-3
641.472	1	8
641.641	1	-1
641.811	1	2
641.980	1	-5
642.150	1	-5
642.319	1	7
642.489	1	-1
642.659	1	10
642.828	1	-3
642.998	1	7
643.167	1	-5
643.337	1	-8
643.506	1	0
643.676	1	-3
643.845	1	9
644.015	1	9
644.184	1	-10
644.354	1	2
644.524	1	-7
644.693	1	8
644.863	1	8
645.032	1	4
645.202	1	0
645.371	1	-10
645.541	1	0
645.710	1	1
645.880	1	-5
646.049	1	2
646.219	1	-3
646.388	1	2
646.558	1	6
646.728	1	-6
646.897	1	-5
647.067	1	-3
647.236	1	8
647.406	1	12
647.575	1	3
647.745	1	1
647.914	1	-8
648.084	1	2
648.253	1	4
648.423	1	4
648.592	1	-14
648.762	1	2
648.931	1	-9
649.101	1	-3
649.270	1	-6
649.440	1	0
649.610	1	1
649.779	1	0
649.949	1	1
650.118	1	-1
650.288	1	-1
650.457	1	11
650.627	1	5
650.796	1	-2
650.966	1	-17
651.135	1	10
651.305	1	-7
651.474	1	9
651.644	1	3
651.813	1	13
651.983	1	-7
652.152	1	2
652.322	1	-1
652.491	1	4
652.661	1	-8
652.830	1	-2
653.000	1	-4
653.169	1	8
653.339	1	5
653.508	1	0
653.678	1	-2
653.847	1	-12
654.017	1	8
654.186	1	3
654.356	1	-3
654.525	1	-3
654.695	1	-6
654.864	1	-5
655.034	1	0
655.203	1	3
655.373	1	8
655.542	1	-4
655.712	1	4
655.881	1	3
656.051	1	1
656.220	1	-3
656.390	1	-1
656.559	1	-6
656.729	1	0
656.898	1	0
657.068	1	4
657.237	1	9
657.406	1	-5
657.576	1	-5
657.745	1	-1
657.915	1	-6
658.084	1	2
658.254	1	0
658.423	1	-4
658.593	1	5
658.762	1	-2
658.932	1	0
659.101	1	-4
659.271	1	1
659.440	1	1
659.610	1	-9
659.779	1	13
659.949	1	7
660.118	1	3
660.288	1	-3
660.457	1	7
660.626	1	-4
660.796	1	-8
660.965	1	2
661.135	1	-3
661.304	1	-6
661.474	1	-4
661.643	1	-4
661.813	1	0
661.982	1	-4
662.152	1	2
662.321	1	5
662.491	1	-9
662.660	1	6
662.829	1	5
662.999	1	-7
663.168	1	3
663.338	1	4
663.507	1	-3
663.677	1	-2
663.846	1	-8
664.016	1	-10
664.185	1	3
664.354	1	15
664.524	1	4
664.693	1	-5
664.863	1	-1
665.032	1	-3
665.202	1	-4
665.371	1	-4
665.541	1	16
665.710	1	-6
665.879	1	4
666.049	1	-7
666.218	1	-3
666.388	1	-1
666.557	1	9
666.727	1	-9
666.896	1	6
667.065	1	-7
667.235	1	15
667.404	1	1
667.574	1	-1
667.743	1	-2
667.913	1	3
668.082	1	-9
668.251	1	2
668.421	1	5
668.590	1	-1
668.760	1	1
668.929	1	7
669.099	1	-7
669.268	1	9
669.437	1	-4
669.607	1	14
669.776	1	6
669.946	1	-1
670.115	1	-19
670.285	1	4
670.454	1	-3
670.623	1	-5
670.793	1	0
670.962	1	-5
671.132	1	-3
671.301	1	-5
671.470	1	5
671.640	1	6
671.809	1	-7
671.979	1	3
672.148	1	3
672.317	1	-2
672.487	1	-1
672.656	1	-5
672.826	1	5
672.995	1	12
673.164	1	-8
673.334	1	-3
673.503	1	-9
673.673	1	-4
673.842	1	9
674.011	1	9
674.181	1	8
674.350	1	2
674.520	1	1
674.689	1	-6
674.858	1	-6
675.028	1	10
675.197	1	-1
675.367	1	-2
675.536	1	9
675.705	1	2
675.875	1	2
676.044	1	-6
676.214	1	-2
676.383	1	6
676.552	1	1
676.722	1	-7
676.891	1	-4
677.060	1	4
677.230	1	0
677.399	1	-3
677.569	1	15
677.738	1	6
677.907	1	-2
678.077	1	4
678.246	1	4
678.416	1	-2
678.585	1	-6
678.754	1	0
678.924	1	8
679.093	1	3
679.262	1	6
679.432	1	6
679.601	1	1
679.771	1	2
679.940	1	2
680.109	1	-10
680.279	1	8
680.448	1	6
680.617	1	-6
680.787	1	-2
680.956	1	2
681.125	1	1
681.295	1	-6
681.464	1	-8
681.634	1	0
681.803	1	-2
681.972	1	-1
682.142	1	1
682.311	1	2
682.480	1	6
682.650	1	7
682.819	1	4
682.988	1	-11
683.158	1	-8
683.327	1	8
683.496	1	0
683.666	1	0
683.835	1	-4
684.004	1	11
684.174	1	4
684.343	1	1
684.512	1	-7
684.682	1	5
684.851	1	5
685.021	1	-5
685.190	1	1
685.359	1	-6
685.529	1	10
685.698	1	-2
685.867	1	4
686.037	1	-3
686.206	1	-2
686.375	1	1
686.545	1	11
686.714	1	0
686.883	1	6
687.053	1	-6
687.222	1	-2
687.391	1	-5
687.561	1	10
687.730	1	2
687.899	1	-3
688.069	1	6
688.238	1	-1
688.407	1	12
688.577	1	2
688.746	1	4
