340.368	1	15
340.539	1	2
340.710	1	2
340.881	1	-2
341.052	1	-1
341.223	1	11
341.394	1	-1
341.565	1	-4
341.737	1	5
341.908	1	-5
342.079	1	-9
342.250	1	-6
342.421	1	-1
342.592	1	0
342.763	1	8
342.934	1	-2
343.105	1	3
343.276	1	4
343.447	1	-6
343.618	1	-11
343.789	1	-5
343.960	1	-6
344.131	1	11
344.302	1	1
344.473	1	-3
344.644	1	3
344.815	1	-1
344.986	1	-6
345.157	1	6
345.328	1	-13
345.499	1	-1
345.670	1	-5
345.841	1	6
346.012	1	8
346.183	1	18
346.354	1	5
346.526	1	-1
346.697	1	12
346.868	1	-5
347.039	1	2
347.210	1	-6
347.381	1	6
347.552	1	-2
347.723	1	-2
347.894	1	1
348.065	1	14
348.236	1	2
348.407	1	-3
348.578	1	9
348.749	1	-5
348.920	1	-2
349.091	1	0
349.262	1	1
349.433	1	4
349.604	1	9
349.775	1	5
349.946	1	-10
350.117	1	5
350.288	1	0
350.459	1	-2
350.630	1	6
350.801	1	5
350.972	1	-4
351.143	1	6
351.314	1	-3
351.485	1	4
351.656	1	-3
351.827	1	4
351.998	1	5
352.169	1	7
352.340	1	-1
352.511	1	3
352.682	1	-1
352.853	1	1
353.024	1	-2
353.195	1	6
353.366	1	2
353.537	1	9
353.708	1	13
353.879	1	-8
354.050	1	4
354.221	1	0
354.392	1	14
354.563	1	11
354.734	1	6
354.905	1	8
355.076	1	5
355.247	1	8
355.418	1	5
355.589	1	-3
355.760	1	11
355.931	1	9
356.102	1	-6
356.273	1	5
356.444	1	20
356.615	1	1
356.785	1	2
356.956	1	-7
357.127	1	8
357.298	1	7
357.469	1	-4
357.640	1	9
357.811	1	-8
357.982	1	12
358.153	1	8
358.324	1	10
358.495	1	2
358.666	1	-2
358.837	1	11
359.008	1	10
359.179	1	5
359.350	1	11
359.521	1	15
359.692	1	5
359.863	1	5
360.034	1	11
360.205	1	2
360.376	1	2
360.547	1	3
360.718	1	19
360.889	1	9
361.060	1	8
361.231	1	6
361.401	1	10
361.572	1	12
361.743	1	17
361.914	1	13
362.085	1	18
362.256	1	20
362.427	1	8
362.598	1	9
362.769	1	18
362.940	1	21
363.111	1	14
363.282	1	18
363.453	1	6
363.624	1	20
363.795	1	24
363.966	1	22
364.137	1	24
364.308	1	29
364.478	1	15
364.649	1	30
364.820	1	29
364.991	1	25
365.162	1	22
365.333	1	22
365.504	1	29
365.675	1	36
365.846	1	36
366.017	1	26
366.188	1	27
366.359	1	36
366.530	1	37
366.701	1	33
366.871	1	36
367.042	1	35
367.213	1	31
367.384	1	24
367.555	1	35
367.726	1	41
367.897	1	42
368.068	1	44
368.239	1	35
368.410	1	28
368.581	1	33
368.752	1	47
368.923	1	32
369.093	1	30
369.264	1	23
369.435	1	30
369.606	1	25
369.777	1	26
369.948	1	29
370.119	1	31
370.290	1	29
370.461	1	31
370.632	1	37
370.803	1	33
370.973	1	19
371.144	1	17
371.315	1	18
371.486	1	25
371.657	1	16
371.828	1	32
371.999	1	22
372.170	1	10
372.341	1	25
372.512	1	20
372.682	1	13
372.853	1	19
373.024	1	12
373.195	1	8
373.366	1	13
373.537	1	19
373.708	1	17
373.879	1	19
374.050	1	17
374.220	1	20
374.391	1	4
374.562	1	21
374.733	1	9
374.904	1	12
375.075	1	17
375.246	1	-1
375.417	1	15
375.588	1	12
375.758	1	0
375.929	1	13
376.100	1	11
376.271	1	8
376.442	1	3
376.613	1	12
376.784	1	11
376.955	1	1
377.125	1	8
377.296	1	9
377.467	1	8
377.638	1	5
377.809	1	11
377.980	1	3
378.151	1	10
378.321	1	6
378.492	1	15
378.663	1	4
378.834	1	16
379.005	1	21
379.176	1	-4
379.347	1	13
379.518	1	6
379.688	1	3
379.859	1	10
380.030	1	15
380.201	1	8
380.372	1	11
380.543	1	6
380.714	1	11
380.884	1	15
381.055	1	14
381.226	1	9
381.397	1	15
381.568	1	14
381.739	1	5
381.910	1	1
382.080	1	11
382.251	1	10
382.422	1	3
382.593	1	18
382.764	1	15
382.935	1	9
383.105	1	5
383.276	1	12
383.447	1	22
383.618	1	18
383.789	1	7
383.960	1	-3
384.130	1	3
384.301	1	13
384.472	1	12
384.643	1	12
384.814	1	20
384.985	1	10
385.156	1	26
385.326	1	11
385.497	1	12
385.668	1	19
385.839	1	27
386.010	1	11
386.180	1	18
386.351	1	5
386.522	1	19
386.693	1	24
386.864	1	15
387.035	1	21
387.205	1	31
387.376	1	24
387.547	1	12
387.718	1	14
387.889	1	23
388.060	1	6
388.230	1	17
388.401	1	20
388.572	1	17
388.743	1	13
388.914	1	7
389.084	1	20
389.255	1	13
389.426	1	14
389.597	1	6
389.768	1	20
389.939	1	12
390.109	1	12
390.280	1	7
390.451	1	19
390.622	1	12
390.793	1	14
390.963	1	13
391.134	1	11
391.305	1	3
391.476	1	20
391.647	1	14
391.817	1	13
391.988	1	11
392.159	1	22
392.330	1	7
392.501	1	13
392.671	1	14
392.842	1	12
393.013	1	24
393.184	1	15
393.355	1	19
393.525	1	9
393.696	1	-2
393.867	1	14
394.038	1	4
394.208	1	16
394.379	1	16
394.550	1	7
394.721	1	5
394.892	1	8
395.062	1	23
395.233	1	19
395.404	1	19
395.575	1	11
395.746	1	14
395.916	1	15
396.087	1	19
396.258	1	10
396.429	1	6
396.599	1	19
396.770	1	19
396.941	1	14
397.112	1	15
397.283	1	-1
397.453	1	11
397.624	1	16
397.795	1	15
397.966	1	13
398.136	1	13
398.307	1	9
398.478	1	2
398.649	1	15
398.819	1	23
398.990	1	3
399.161	1	12
399.332	1	9
399.503	1	21
399.673	1	1
399.844	1	12
400.015	1	21
400.186	1	10
400.356	1	13
400.527	1	29
400.698	1	20
400.869	1	-5
401.039	1	9
401.210	1	12
401.381	1	7
401.552	1	3
401.722	1	10
401.893	1	11
402.064	1	9
402.235	1	-1
402.405	1	9
402.576	1	10
402.747	1	14
402.918	1	14
403.088	1	7
403.259	1	7
403.430	1	8
403.601	1	10
403.771	1	20
403.942	1	15
404.113	1	14
404.284	1	6
404.454	1	15
404.625	1	6
404.796	1	6
404.967	1	4
405.137	1	14
405.308	1	4
405.479	1	12
405.649	1	15
405.820	1	14
405.991	1	7
406.162	1	12
406.332	1	-5
406.503	1	-4
406.674	1	2
406.845	1	12
407.015	1	12
407.186	1	6
407.357	1	13
407.527	1	6
407.698	1	12
407.869	1	6
408.040	1	7
408.210	1	18
408.381	1	-4
408.552	1	2
408.722	1	-7
408.893	1	9
409.064	1	4
409.235	1	6
409.405	1	15
409.576	1	16
409.747	1	15
409.917	1	7
410.088	1	-3
410.259	1	4
410.430	1	11
410.600	1	3
410.771	1	6
410.942	1	4
411.112	1	5
411.283	1	1
411.454	1	2
411.625	1	-2
411.795	1	15
411.966	1	17
412.137	1	11
412.307	1	10
412.478	1	12
412.649	1	-4
412.819	1	5
412.990	1	1
413.161	1	-5
413.332	1	9
413.502	1	2
413.673	1	19
413.844	1	16
414.014	1	-3
414.185	1	5
414.356	1	13
414.526	1	9
414.697	1	11
414.868	1	-4
415.038	1	6
415.209	1	-3
415.380	1	12
415.550	1	7
415.721	1	11
415.892	1	8
416.063	1	8
416.233	1	8
416.404	1	1
416.575	1	2
416.745	1	1
416.916	1	2
417.087	1	7
417.257	1	9
417.428	1	6
417.599	1	20
417.769	1	4
417.940	1	8
418.111	1	3
418.281	1	-8
418.452	1	6
418.623	1	2
418.793	1	11
418.964	1	5
419.135	1	11
419.305	1	-3
419.476	1	8
419.647	1	2
419.817	1	11
419.988	1	3
420.159	1	9
420.329	1	5
420.500	1	12
420.671	1	-1
420.841	1	9
421.012	1	1
421.183	1	15
421.353	1	13
421.524	1	10
421.695	1	3
421.865	1	16
422.036	1	6
422.206	1	5
422.377	1	1
422.548	1	15
422.718	1	-5
422.889	1	2
423.060	1	0
423.230	1	6
423.401	1	2
423.572	1	17
423.742	1	3
423.913	1	7
424.084	1	2
424.254	1	2
424.425	1	7
424.595	1	-5
424.766	1	12
424.937	1	10
425.107	1	0
425.278	1	13
425.449	1	-2
425.619	1	8
425.790	1	-2
425.961	1	-3
426.131	1	1
426.302	1	8
426.472	1	0
426.643	1	2
426.814	1	1
426.984	1	14
427.155	1	-1
427.326	1	-10
427.496	1	-8
427.667	1	10
427.837	1	5
428.008	1	4
428.179	1	-3
428.349	1	-8
428.520	1	3
428.691	1	1
428.861	1	7
429.032	1	3
429.202	1	10
429.373	1	3
429.544	1	0
429.714	1	-6
429.885	1	7
430.055	1	6
430.226	1	-7
430.397	1	-6
430.567	1	7
430.738	1	-7
430.909	1	1
431.079	1	-1
431.250	1	-6
431.420	1	5
431.591	1	-6
431.762	1	2
431.932	1	-1
432.103	1	8
432.273	1	3
432.444	1	-14
432.615	1	-3
432.785	1	0
432.956	1	5
433.126	1	-1
433.297	1	4
433.468	1	0
433.638	1	1
433.809	1	4
433.979	1	14
434.150	1	8
434.320	1	7
434.491	1	1
434.662	1	2
434.832	1	3
435.003	1	7
435.173	1	0
435.344	1	6
435.515	1	4
435.685	1	13
435.856	1	0
436.026	1	6
436.197	1	3
436.368	1	3
436.538	1	-7
436.709	1	-8
436.879	1	-2
437.050	1	10
437.220	1	-5
437.391	1	6
437.562	1	8
437.732	1	1
437.903	1	-2
438.073	1	-1
438.244	1	-2
438.414	1	0
438.585	1	1
438.756	1	2
438.926	1	0
439.097	1	11
439.267	1	0
439.438	1	14
439.608	1	2
439.779	1	-10
439.949	1	0
440.120	1	3
440.291	1	10
440.461	1	7
440.632	1	7
440.802	1	6
440.973	1	-3
441.143	1	9
441.314	1	-4
441.485	1	5
441.655	1	4
441.826	1	-5
441.996	1	-8
442.167	1	3
442.337	1	3
442.508	1	5
442.678	1	-6
442.849	1	-7
443.019	1	12
443.190	1	11
443.361	1	1
443.531	1	11
443.702	1	-11
443.872	1	-2
444.043	1	13
444.213	1	9
444.384	1	3
444.554	1	-3
444.725	1	-3
444.895	1	4
445.066	1	5
445.237	1	-6
445.407	1	-2
445.578	1	11
445.748	1	4
445.919	1	0
446.089	1	9
446.260	1	0
446.430	1	-7
446.601	1	17
446.771	1	-4
446.942	1	0
447.112	1	6
447.283	1	-6
447.453	1	2
447.624	1	-3
447.794	1	7
447.965	1	4
448.135	1	1
448.306	1	1
448.477	1	11
448.647	1	-1
448.818	1	3
448.988	1	-3
449.159	1	-1
449.329	1	8
449.500	1	2
449.670	1	5
449.841	1	-4
450.011	1	2
450.182	1	-14
450.352	1	11
450.523	1	-3
450.693	1	13
450.864	1	4
451.034	1	13
451.205	1	8
451.375	1	-4
451.546	1	0
451.716	1	10
451.887	1	-2
452.057	1	10
452.228	1	12
452.398	1	8
452.569	1	-8
452.739	1	4
452.910	1	8
453.080	1	16
453.251	1	3
453.421	1	-2
453.592	1	0
453.762	1	0
453.933	1	-4
454.103	1	-2
454.274	1	1
454.444	1	3
454.615	1	10
454.785	1	0
454.956	1	8
455.126	1	0
455.297	1	-2
455.467	1	-11
455.638	1	6
455.808	1	-5
455.979	1	-3
456.149	1	5
456.320	1	7
456.490	1	-6
456.661	1	-9
456.831	1	6
457.001	1	7
457.172	1	3
457.342	1	0
457.513	1	8
457.683	1	4
457.854	1	5
458.024	1	-9
458.195	1	2
458.365	1	12
458.536	1	-2
458.706	1	13
458.877	1	4
459.047	1	13
459.218	1	5
459.388	1	6
459.559	1	-1
459.729	1	-8
459.899	1	1
460.070	1	-2
460.240	1	1
460.411	1	-2
460.581	1	3
460.752	1	-2
460.922	1	15
461.093	1	-2
461.263	1	13
461.434	1	9
461.604	1	12
461.775	1	6
461.945	1	6
462.115	1	-3
462.286	1	-1
462.456	1	1
462.627	1	10
462.797	1	-14
462.968	1	2
463.138	1	1
463.309	1	6
463.479	1	3
463.649	1	0
463.820	1	4
463.990	1	0
464.161	1	5
464.331	1	7
464.502	1	9
464.672	1	-12
464.843	1	1
465.013	1	1
465.183	1	7
465.354	1	1
465.524	1	-3
465.695	1	1
465.865	1	3
466.036	1	0
466.206	1	1
466.376	1	-8
466.547	1	-4
466.717	1	3
466.888	1	-1
467.058	1	-2
467.229	1	2
467.399	1	4
467.569	1	4
467.740	1	4
467.910	1	-2
468.081	1	8
468.251	1	1
468.422	1	-5
468.592	1	-5
468.762	1	-11
468.933	1	4
469.103	1	4
469.274	1	6
469.444	1	6
469.614	1	10
469.785	1	13
469.955	1	-1
470.126	1	-2
470.296	1	12
470.467	1	-9
470.637	1	10
470.807	1	13
470.978	1	1
471.148	1	-6
471.319	1	12
471.489	1	-3
471.659	1	1
471.830	1	11
472.000	1	0
472.171	1	8
472.341	1	-4
472.511	1	22
472.682	1	-3
472.852	1	0
473.023	1	-2
473.193	1	4
473.363	1	2
473.534	1	6
473.704	1	-1
473.875	1	-4
474.045	1	3
474.215	1	1
474.386	1	17
474.556	1	1
474.727	1	-2
474.897	1	0
475.067	1	0
475.238	1	-14
475.408	1	1
475.578	1	17
475.749	1	2
475.919	1	-8
476.090	1	2
476.260	1	0
476.430	1	14
476.601	1	2
476.771	1	-2
476.942	1	4
477.112	1	2
477.282	1	6
477.453	1	-1
477.623	1	8
477.793	1	8
477.964	1	-3
478.134	1	0
478.305	1	5
478.475	1	3
478.645	1	-3
478.816	1	3
478.986	1	-3
479.156	1	-7
479.327	1	-4
479.497	1	0
479.667	1	12
479.838	1	-12
480.008	1	4
480.179	1	-12
480.349	1	-4
480.519	1	4
480.690	1	-8
480.860	1	0
481.030	1	2
481.201	1	0
481.371	1	5
481.541	1	9
481.712	1	-6
481.882	1	-4
482.053	1	1
482.223	1	4
482.393	1	6
482.564	1	9
482.734	1	5
482.904	1	-4
483.075	1	1
483.245	1	7
483.415	1	4
483.586	1	-8
483.756	1	4
483.926	1	5
484.097	1	3
484.267	1	2
484.437	1	1
484.608	1	6
484.778	1	-1
484.948	1	1
485.119	1	0
485.289	1	1
485.459	1	-1
485.630	1	6
485.800	1	5
485.970	1	1
486.141	1	2
486.311	1	1
486.481	1	5
486.652	1	-5
486.822	1	4
486.992	1	8
487.163	1	1
487.333	1	4
487.503	1	12
487.674	1	5
487.844	1	2
488.014	1	5
488.185	1	-2
488.355	1	15
488.525	1	7
488.696	1	-2
488.866	1	-5
489.036	1	2
489.207	1	8
489.377	1	3
489.547	1	-3
489.718	1	2
489.888	1	-8
490.058	1	5
490.228	1	-8
490.399	1	5
490.569	1	5
490.739	1	4
490.910	1	-3
491.080	1	-4
491.250	1	8
491.421	1	5
491.591	1	-10
491.761	1	-5
491.932	1	-1
492.102	1	-10
492.272	1	3
492.442	1	3
492.613	1	10
492.783	1	-4
492.953	1	1
493.124	1	12
493.294	1	12
493.464	1	5
493.635	1	4
493.805	1	15
493.975	1	-4
494.145	1	8
494.316	1	7
494.486	1	1
494.656	1	-1
494.827	1	4
494.997	1	1
495.167	1	6
495.337	1	4
495.508	1	17
495.678	1	9
495.848	1	7
496.019	1	7
496.189	1	7
496.359	1	10
496.529	1	2
496.700	1	-10
496.870	1	4
497.040	1	7
497.211	1	14
497.381	1	11
497.551	1	4
497.721	1	0
497.892	1	1
498.062	1	-3
498.232	1	6
498.403	1	0
498.573	1	4
498.743	1	9
498.913	1	9
499.084	1	3
499.254	1	0
499.424	1	4
499.594	1	8
499.765	1	12
499.935	1	-6
500.105	1	4
500.275	1	3
500.446	1	6
500.616	1	1
500.786	1	7
500.956	1	12
501.127	1	11
501.297	1	-1
501.467	1	14
501.638	1	7
501.808	1	6
501.978	1	2
502.148	1	-2
502.319	1	22
502.489	1	0
502.659	1	17
502.829	1	7
503.000	1	-3
503.170	1	5
503.340	1	4
503.510	1	2
503.681	1	0
503.851	1	6
504.021	1	21
504.191	1	9
504.362	1	-2
504.532	1	11
504.702	1	-2
504.872	1	-3
505.042	1	13
505.213	1	6
505.383	1	8
505.553	1	8
505.723	1	10
505.894	1	11
506.064	1	7
506.234	1	4
506.404	1	1
506.575	1	6
506.745	1	12
506.915	1	7
507.085	1	0
507.256	1	10
507.426	1	14
507.596	1	2
507.766	1	17
507.936	1	7
508.107	1	13
508.277	1	1
508.447	1	-1
508.617	1	-1
508.788	1	19
508.958	1	15
509.128	1	14
509.298	1	0
509.468	1	11
509.639	1	6
509.809	1	11
509.979	1	14
510.149	1	15
510.319	1	-1
510.490	1	13
510.660	1	4
510.830	1	-1
511.000	1	2
511.171	1	9
511.341	1	9
511.511	1	15
511.681	1	11
511.851	1	12
512.022	1	0
512.192	1	14
512.362	1	2
512.532	1	-1
512.702	1	8
512.873	1	11
513.043	1	15
513.213	1	12
513.383	1	6
513.553	1	15
513.724	1	8
513.894	1	4
514.064	1	15
514.234	1	15
514.404	1	20
514.575	1	3
514.745	1	1
514.915	1	-6
515.085	1	15
515.255	1	7
515.425	1	8
515.596	1	13
515.766	1	16
515.936	1	5
516.106	1	8
516.276	1	11
516.447	1	20
516.617	1	3
516.787	1	7
516.957	1	16
517.127	1	7
517.297	1	12
517.468	1	0
517.638	1	5
517.808	1	9
517.978	1	11
518.148	1	7
518.319	1	3
518.489	1	3
518.659	1	8
518.829	1	0
518.999	1	8
519.169	1	6
519.340	1	10
519.510	1	15
519.680	1	15
519.850	1	5
520.020	1	13
520.190	1	5
520.361	1	6
520.531	1	7
520.701	1	19
520.871	1	3
521.041	1	20
521.211	1	13
521.382	1	12
521.552	1	1
521.722	1	15
521.892	1	17
522.062	1	5
522.232	1	20
522.402	1	27
522.573	1	9
522.743	1	8
522.913	1	17
523.083	1	17
523.253	1	13
523.423	1	5
523.593	1	14
523.764	1	3
523.934	1	23
524.104	1	15
524.274	1	12
524.444	1	7
524.614	1	13
524.784	1	5
524.955	1	23
525.125	1	18
525.295	1	17
525.465	1	16
525.635	1	13
525.805	1	23
525.975	1	9
526.146	1	5
526.316	1	8
526.486	1	11
526.656	1	3
526.826	1	13
526.996	1	17
527.166	1	-2
527.337	1	10
527.507	1	19
527.677	1	15
527.847	1	10
528.017	1	3
528.187	1	18
528.357	1	13
528.527	1	14
528.698	1	7
528.868	1	10
529.038	1	13
529.208	1	2
529.378	1	15
529.548	1	12
529.718	1	10
529.888	1	17
530.058	1	14
530.229	1	12
530.399	1	5
530.569	1	2
530.739	1	6
530.909	1	4
531.079	1	5
531.249	1	15
531.419	1	17
531.589	1	17
531.760	1	9
531.930	1	12
532.100	1	14
532.270	1	24
532.440	1	11
532.610	1	19
532.780	1	10
532.950	1	7
533.120	1	27
533.290	1	10
533.461	1	16
533.631	1	13
533.801	1	13
533.971	1	1
534.141	1	17
534.311	1	15
534.481	1	24
534.651	1	10
534.821	1	3
534.991	1	14
535.162	1	-2
535.332	1	14
535.502	1	10
535.672	1	0
535.842	1	16
536.012	1	3
536.182	1	20
536.352	1	7
536.522	1	4
536.692	1	4
536.862	1	8
537.032	1	3
537.203	1	14
537.373	1	11
537.543	1	1
537.713	1	9
537.883	1	14
538.053	1	10
538.223	1	13
538.393	1	11
538.563	1	20
538.733	1	15
538.903	1	8
539.073	1	18
539.243	1	24
539.413	1	11
539.584	1	4
539.754	1	27
539.924	1	15
540.094	1	7
540.264	1	6
540.434	1	11
540.604	1	16
540.774	1	16
540.944	1	15
541.114	1	11
541.284	1	13
541.454	1	-2
541.624	1	12
541.794	1	11
541.964	1	9
542.134	1	16
542.305	1	11
542.475	1	9
542.645	1	8
542.815	1	-4
542.985	1	7
543.155	1	2
543.325	1	12
543.495	1	16
543.665	1	6
543.835	1	-1
544.005	1	16
544.175	1	16
544.345	1	0
544.515	1	0
544.685	1	23
544.855	1	6
545.025	1	6
545.195	1	6
545.365	1	15
545.535	1	7
545.705	1	14
545.875	1	2
546.045	1	24
546.216	1	-5
546.386	1	2
546.556	1	14
546.726	1	6
546.896	1	7
547.066	1	14
547.236	1	3
547.406	1	4
547.576	1	10
547.746	1	21
547.916	1	10
548.086	1	14
548.256	1	2
548.426	1	9
548.596	1	6
548.766	1	18
548.936	1	18
549.106	1	13
549.276	1	21
549.446	1	5
549.616	1	11
549.786	1	-1
549.956	1	5
550.126	1	6
550.296	1	9
550.466	1	16
550.636	1	13
550.806	1	30
550.976	1	11
551.146	1	6
551.316	1	13
551.486	1	8
551.656	1	16
551.826	1	19
551.996	1	8
552.166	1	13
552.336	1	8
552.506	1	13
552.676	1	11
552.846	1	7
553.016	1	17
553.186	1	15
553.356	1	9
553.526	1	8
553.696	1	20
553.866	1	26
554.036	1	5
554.206	1	11
554.376	1	4
554.546	1	2
554.716	1	13
554.886	1	14
555.056	1	13
555.226	1	15
555.396	1	5
555.566	1	10
555.736	1	9
555.906	1	3
556.076	1	16
556.246	1	9
556.416	1	-2
556.586	1	-2
556.756	1	0
556.926	1	7
557.096	1	17
557.266	1	6
557.436	1	16
557.606	1	10
557.776	1	20
557.946	1	4
558.116	1	9
558.286	1	5
558.456	1	7
558.626	1	1
558.796	1	5
558.966	1	6
559.136	1	8
559.306	1	10
559.476	1	18
559.646	1	9
559.816	1	7
559.986	1	5
560.155	1	6
560.325	1	10
560.495	1	7
560.665	1	4
560.835	1	12
561.005	1	7
561.175	1	6
561.345	1	6
561.515	1	1
561.685	1	7
561.855	1	0
562.025	1	5
562.195	1	17
562.365	1	11
562.535	1	16
562.705	1	8
562.875	1	10
563.045	1	6
563.215	1	12
563.385	1	-5
563.555	1	-5
563.725	1	14
563.895	1	-6
564.064	1	2
564.234	1	1
564.404	1	2
564.574	1	19
564.744	1	2
564.914	1	12
565.084	1	-3
565.254	1	14
565.424	1	13
565.594	1	1
565.764	1	6
565.934	1	5
566.104	1	7
566.274	1	10
566.444	1	7
566.614	1	10
566.783	1	6
566.953	1	-3
567.123	1	10
567.293	1	7
567.463	1	1
567.633	1	4
567.803	1	18
567.973	1	11
568.143	1	3
568.313	1	-1
568.483	1	20
568.653	1	6
568.823	1	-1
568.993	1	1
569.162	1	6
569.332	1	13
569.502	1	8
569.672	1	9
569.842	1	-3
570.012	1	13
570.182	1	3
570.352	1	6
570.522	1	6
570.692	1	17
570.862	1	8
571.031	1	-3
571.201	1	13
571.371	1	0
571.541	1	14
571.711	1	6
571.881	1	19
572.051	1	0
572.221	1	10
572.391	1	19
572.561	1	17
572.731	1	12
572.900	1	-6
573.070	1	9
573.240	1	-6
573.410	1	2
573.580	1	-4
573.750	1	3
573.920	1	5
574.090	1	8
574.260	1	3
574.430	1	5
574.599	1	4
574.769	1	9
574.939	1	0
575.109	1	-12
575.279	1	10
575.449	1	19
575.619	1	13
575.789	1	0
575.959	1	5
576.128	1	4
576.298	1	-1
576.468	1	2
576.638	1	-2
576.808	1	6
576.978	1	3
577.148	1	-3
577.318	1	11
577.487	1	0
577.657	1	4
577.827	1	0
577.997	1	9
578.167	1	5
578.337	1	3
578.507	1	-3
578.677	1	4
578.846	1	0
579.016	1	6
579.186	1	11
579.356	1	9
579.526	1	-1
579.696	1	10
579.866	1	2
580.036	1	11
580.205	1	-3
580.375	1	17
580.545	1	4
580.715	1	-2
580.885	1	15
581.055	1	-7
581.225	1	8
581.394	1	-10
581.564	1	5
581.734	1	5
581.904	1	6
582.074	1	-4
582.244	1	7
582.414	1	2
582.583	1	-2
582.753	1	5
582.923	1	7
583.093	1	14
583.263	1	8
583.433	1	6
583.603	1	-8
583.772	1	-5
583.942	1	-2
584.112	1	1
584.282	1	2
584.452	1	4
584.622	1	9
584.791	1	3
584.961	1	-4
585.131	1	2
585.301	1	-5
585.471	1	-5
585.641	1	-6
585.811	1	-4
585.980	1	2
586.150	1	2
586.320	1	1
586.490	1	6
586.660	1	4
586.830	1	-3
586.999	1	-1
587.169	1	12
587.339	1	-4
587.509	1	-3
587.679	1	5
587.849	1	15
588.018	1	-3
588.188	1	15
588.358	1	8
588.528	1	-1
588.698	1	1
588.867	1	3
589.037	1	1
589.207	1	3
589.377	1	-3
589.547	1	13
589.717	1	-5
589.886	1	-4
590.056	1	8
590.226	1	-3
590.396	1	1
590.566	1	3
590.735	1	-9
590.905	1	18
591.075	1	-9
591.245	1	4
591.415	1	3
591.585	1	1
591.754	1	-1
591.924	1	13
592.094	1	1
592.264	1	-10
592.434	1	3
592.603	1	6
592.773	1	-2
592.943	1	-3
593.113	1	-3
593.283	1	6
593.452	1	-2
593.622	1	4
593.792	1	19
593.962	1	3
594.132	1	1
594.301	1	3
594.471	1	1
594.641	1	3
594.811	1	-4
594.981	1	0
595.150	1	10
595.320	1	-1
595.490	1	6
595.660	1	1
595.829	1	-14
595.999	1	6
596.169	1	6
596.339	1	10
596.509	1	0
596.678	1	10
596.848	1	11
597.018	1	-3
597.188	1	-7
597.358	1	-3
597.527	1	5
597.697	1	0
597.867	1	11
598.037	1	8
598.206	1	8
598.376	1	6
598.546	1	4
598.716	1	-8
598.885	1	3
599.055	1	2
599.225	1	3
599.395	1	15
599.565	1	2
599.734	1	14
599.904	1	-4
600.074	1	7
600.244	1	2
600.413	1	-3
600.583	1	-2
600.753	1	3
600.923	1	-4
601.092	1	11
601.262	1	-2
601.432	1	2
601.602	1	8
601.771	1	6
601.941	1	7
602.111	1	1
602.281	1	-3
602.451	1	-2
602.620	1	5
602.790	1	-1
602.960	1	-4
603.130	1	-6
603.299	1	4
603.469	1	-2
603.639	1	-15
603.809	1	4
603.978	1	-3
604.148	1	5
604.318	1	3
604.487	1	0
604.657	1	-5
604.827	1	4
604.997	1	13
605.166	1	-8
605.336	1	4
605.506	1	3
605.676	1	12
605.845	1	2
606.015	1	-9
606.185	1	-2
606.355	1	-3
606.524	1	9
606.694	1	4
606.864	1	9
607.034	1	8
607.203	1	9
607.373	1	4
607.543	1	4
607.712	1	2
607.882	1	-9
608.052	1	-2
608.222	1	8
608.391	1	11
608.561	1	-1
608.731	1	-5
608.901	1	6
609.070	1	-9
609.240	1	8
609.410	1	5
609.579	1	4
609.749	1	9
609.919	1	-4
610.089	1	-5
610.258	1	-6
610.428	1	10
610.598	1	3
610.767	1	6
610.937	1	-7
611.107	1	-3
611.277	1	-6
611.446	1	6
611.616	1	2
611.786	1	3
611.955	1	-1
612.125	1	10
612.295	1	5
612.465	1	4
612.634	1	1
612.804	1	6
612.974	1	-1
613.143	1	7
613.313	1	6
613.483	1	10
613.652	1	11
613.822	1	6
613.992	1	-3
614.162	1	6
614.331	1	-9
614.501	1	8
614.671	1	9
614.840	1	-6
615.010	1	3
615.180	1	11
615.349	1	9
615.519	1	-8
615.689	1	-5
615.858	1	9
616.028	1	1
616.198	1	6
616.368	1	0
616.537	1	0
616.707	1	-3
616.877	1	-7
617.046	1	9
617.216	1	13
617.386	1	14
617.555	1	-6
617.725	1	7
617.895	1	7
618.064	1	7
618.234	1	-11
618.404	1	-1
618.573	1	7
618.743	1	10
618.913	1	10
619.082	1	-1
619.252	1	8
619.422	1	-6
619.591	1	-4
619.761	1	-6
619.931	1	1
620.100	1	15
620.270	1	3
620.440	1	9
620.609	1	6
620.779	1	15
620.949	1	6
621.118	1	7
621.288	1	5
621.458	1	7
621.627	1	8
621.797	1	5
621.967	1	6
622.136	1	11
622.306	1	2
622.476	1	4
622.645	1	-3
622.815	1	6
622.985	1	-1
623.154	1	-5
623.324	1	3
623.494	1	-10
623.663	1	4
623.833	1	11
624.002	1	3
624.172	1	5
624.342	1	4
624.511	1	1
624.681	1	-4
624.851	1	-4
625.020	1	-2
625.190	1	-3
625.360	1	2
625.529	1	4
625.699	1	-3
625.869	1	6
626.038	1	6
626.208	1	4
626.377	1	-3
626.547	1	-3
626.717	1	0
626.886	1	10
627.056	1	3
627.226	1	11
627.395	1	4
627.565	1	5
627.735	1	3
627.904	1	9
628.074	1	3
628.243	1	4
628.413	1	-9
628.583	1	-3
628.752	1	-1
628.922	1	2
629.091	1	-2
629.261	1	7
629.431	1	6
629.600	1	1
629.770	1	6
629.940	1	-11
630.109	1	10
630.279	1	3
630.448	1	4
630.618	1	22
630.788	1	4
630.957	1	6
631.127	1	0
631.297	1	-10
631.466	1	-1
631.636	1	6
631.805	1	3
631.975	1	-4
632.145	1	7
632.314	1	0
632.484	1	5
632.653	1	-6
632.823	1	6
632.993	1	6
633.162	1	-1
633.332	1	2
633.501	1	6
633.671	1	-7
633.841	1	11
634.010	1	8
634.180	1	9
634.349	1	9
634.519	1	5
634.689	1	-2
634.858	1	-11
635.028	1	-1
635.197	1	1
635.367	1	3
635.537	1	1
635.706	1	3
635.876	1	5
636.045	1	0
636.215	1	12
636.384	1	-1
636.554	1	1
636.724	1	-1
636.893	1	6
637.063	1	2
637.232	1	4
637.402	1	-8
637.572	1	14
637.741	1	1
637.911	1	-2
638.080	1	-3
638.250	1	-3
638.419	1	-3
638.589	1	3
638.759	1	0
638.928	1	1
639.098	1	3
639.267	1	11
639.437	1	10
639.606	1	9
639.776	1	2
639.946	1	10
640.115	1	-6
640.285	1	12
640.454	1	5
640.624	1	4
640.793	1	4
640.963	1	-2
641.132	1	5
641.302	1	-3
641.472	1	5
641.641	1	12
641.811	1	2
641.980	1	-3
642.150	1	5
642.319	1	11
642.489	1	-4
642.659	1	9
642.828	1	-8
642.998	1	4
643.167	1	-9
643.337	1	-1
643.506	1	7
643.676	1	-2
643.845	1	4
644.015	1	-5
644.184	1	-6
644.354	1	-2
644.524	1	7
644.693	1	-2
644.863	1	5
645.032	1	3
645.202	1	-2
645.371	1	4
645.541	1	4
645.710	1	-3
645.880	1	-10
646.049	1	4
646.219	1	-8
646.388	1	1
646.558	1	2
646.728	1	3
646.897	1	-3
647.067	1	0
647.236	1	9
647.406	1	10
647.575	1	5
647.745	1	7
647.914	1	2
648.084	1	3
648.253	1	-5
648.423	1	8
648.592	1	-17
648.762	1	4
648.931	1	4
649.101	1	-4
649.270	1	-1
649.440	1	2
649.610	1	6
649.779	1	12
649.949	1	14
650.118	1	-3
650.288	1	0
650.457	1	8
650.627	1	1
650.796	1	6
650.966	1	-3
651.135	1	0
651.305	1	0
651.474	1	13
651.644	1	14
651.813	1	9
651.983	1	9
652.152	1	0
652.322	1	-4
652.491	1	0
652.661	1	2
652.830	1	9
653.000	1	1
653.169	1	6
653.339	1	14
653.508	1	6
653.678	1	-4
653.847	1	-10
654.017	1	1
654.186	1	-1
654.356	1	1
654.525	1	-8
654.695	1	6
654.864	1	-7
655.034	1	10
655.203	1	8
655.373	1	8
655.542	1	4
655.712	1	-1
655.881	1	5
656.051	1	7
656.220	1	10
656.390	1	10
656.559	1	-3
656.729	1	3
656.898	1	2
657.068	1	10
657.237	1	3
657.406	1	4
657.576	1	3
657.745	1	4
657.915	1	0
658.084	1	7
658.254	1	4
658.423	1	9
658.593	1	15
658.762	1	2
658.932	1	-3
659.101	1	-6
659.271	1	3
659.440	1	1
659.610	1	-4
659.779	1	14
659.949	1	0
660.118	1	2
660.288	1	-5
660.457	1	7
660.626	1	3
660.796	1	2
660.965	1	2
661.135	1	-7
661.304	1	-5
661.474	1	2
661.643	1	0
661.813	1	-1
661.982	1	2
662.152	1	2
662.321	1	1
662.491	1	-8
662.660	1	-1
662.829	1	13
662.999	1	-2
663.168	1	4
663.338	1	5
663.507	1	7
663.677	1	5
663.846	1	-1
664.016	1	-2
664.185	1	4
664.354	1	10
664.524	1	0
664.693	1	-16
664.863	1	4
665.032	1	-1
665.202	1	-10
665.371	1	-8
665.541	1	14
665.710	1	5
665.879	1	0
666.049	1	-10
666.218	1	1
666.388	1	6
666.557	1	15
666.727	1	-2
666.896	1	-1
667.065	1	6
667.235	1	14
667.404	1	-7
667.574	1	-2
667.743	1	-3
667.913	1	18
668.082	1	-3
668.251	1	11
668.421	1	1
668.590	1	3
668.760	1	11
668.929	1	3
669.099	1	0
669.268	1	-6
669.437	1	3
669.607	1	2
669.776	1	5
669.946	1	-2
670.115	1	-15
670.285	1	5
670.454	1	2
670.623	1	-6
670.793	1	-1
670.962	1	-2
671.132	1	-9
671.301	1	9
671.470	1	6
671.640	1	3
671.809	1	-8
671.979	1	12
672.148	1	0
672.317	1	-9
672.487	1	-3
672.656	1	-7
672.826	1	-2
672.995	1	5
673.164	1	0
673.334	1	3
673.503	1	1
673.673	1	1
673.842	1	10
674.011	1	13
674.181	1	5
674.350	1	0
674.520	1	3
674.689	1	-6
674.858	1	-2
675.028	1	7
675.197	1	-4
675.367	1	-1
675.536	1	9
675.705	1	3
675.875	1	-5
676.044	1	-12
676.214	1	2
676.383	1	5
676.552	1	5
676.722	1	-8
676.891	1	-7
677.060	1	-6
677.230	1	8
677.399	1	-2
677.569	1	6
677.738	1	13
677.907	1	0
678.077	1	11
678.246	1	-1
678.416	1	-8
678.585	1	-2
678.754	1	7
678.924	1	1
679.093	1	7
679.262	1	-4
679.432	1	11
679.601	1	-2
679.771	1	-4
679.940	1	0
680.109	1	1
680.279	1	9
680.448	1	6
680.617	1	-5
680.787	1	-1
680.956	1	6
681.125	1	11
681.295	1	-2
681.464	1	-13
681.634	1	5
681.803	1	0
681.972	1	3
682.142	1	2
682.311	1	-3
682.480	1	4
682.650	1	3
682.819	1	8
682.988	1	2
683.158	1	-1
683.327	1	1
683.496	1	-6
683.666	1	7
683.835	1	-3
684.004	1	14
684.174	1	3
684.343	1	8
684.512	1	7
684.682	1	-3
684.851	1	-6
685.021	1	-8
685.190	1	2
685.359	1	-11
685.529	1	9
685.698	1	1
685.867	1	9
686.037	1	6
686.206	1	-3
686.375	1	1
686.545	1	2
686.714	1	-3
686.883	1	12
687.053	1	-5
687.222	1	2
687.391	1	2
687.561	1	11
687.730	1	-4
687.899	1	-1
688.069	1	7
688.238	1	2
688.407	1	7
688.577	1	-7
688.746	1	2
