340.368	1	11
340.539	1	7
340.710	1	5
340.881	1	-3
341.052	1	4
341.223	1	11
341.394	1	-5
341.565	1	14
341.737	1	2
341.908	1	0
342.079	1	-3
342.250	1	5
342.421	1	4
342.592	1	9
342.763	1	-4
342.934	1	1
343.105	1	0
343.276	1	3
343.447	1	-8
343.618	1	-2
343.789	1	0
343.960	1	0
344.131	1	13
344.302	1	-6
344.473	1	-3
344.644	1	2
344.815	1	-2
344.986	1	6
345.157	1	9
345.328	1	-3
345.499	1	19
345.670	1	5
345.841	1	-8
346.012	1	6
346.183	1	12
346.354	1	7
346.526	1	8
346.697	1	6
346.868	1	1
347.039	1	-5
347.210	1	9
347.381	1	-5
347.552	1	12
347.723	1	2
347.894	1	13
348.065	1	14
348.236	1	8
348.407	1	6
348.578	1	0
348.749	1	3
348.920	1	-6
349.091	1	5
349.262	1	4
349.433	1	2
349.604	1	8
349.775	1	9
349.946	1	-5
350.117	1	6
350.288	1	11
350.459	1	-13
350.630	1	14
350.801	1	13
350.972	1	12
351.143	1	12
351.314	1	0
351.485	1	6
351.656	1	11
351.827	1	10
351.998	1	3
352.169	1	10
352.340	1	5
352.511	1	0
352.682	1	1
352.853	1	8
353.024	1	3
353.195	1	0
353.366	1	6
353.537	1	5
353.708	1	18
353.879	1	6
354.050	1	4
354.221	1	7
354.392	1	9
354.563	1	13
354.734	1	9
354.905	1	14
355.076	1	13
355.247	1	8
355.418	1	11
355.589	1	7
355.760	1	21
355.931	1	7
356.102	1	8
356.273	1	6
356.444	1	9
356.615	1	15
356.785	1	19
356.956	1	20
357.127	1	13
357.298	1	17
357.469	1	16
357.640	1	5
357.811	1	11
357.982	1	18
358.153	1	12
358.324	1	24
358.495	1	12
358.666	1	13
358.837	1	28
359.008	1	21
359.179	1	28
359.350	1	24
359.521	1	27
359.692	1	31
359.863	1	39
360.034	1	29
360.205	1	37
360.376	1	17
360.547	1	34
360.718	1	40
360.889	1	27
361.060	1	34
361.231	1	34
361.401	1	37
361.572	1	49
361.743	1	59
361.914	1	66
362.085	1	56
362.256	1	52
362.427	1	57
362.598	1	66
362.769	1	64
362.940	1	64
363.111	1	85
363.282	1	82
363.453	1	81
363.624	1	89
363.795	1	102
363.966	1	91
364.137	1	101
364.308	1	114
364.478	1	110
364.649	1	122
364.820	1	122
364.991	1	138
365.162	1	135
365.333	1	140
365.504	1	152
365.675	1	168
365.846	1	165
366.017	1	165
366.188	1	171
366.359	1	187
366.530	1	194
366.701	1	189
366.871	1	190
367.042	1	186
367.213	1	182
367.384	1	182
367.555	1	181
367.726	1	179
367.897	1	185
368.068	1	183
368.239	1	155
368.410	1	163
368.581	1	166
368.752	1	173
368.923	1	162
369.093	1	147
369.264	1	145
369.435	1	134
369.606	1	134
369.777	1	138
369.948	1	124
370.119	1	116
370.290	1	125
370.461	1	123
370.632	1	116
370.803	1	117
370.973	1	99
371.144	1	97
371.315	1	82
371.486	1	103
371.657	1	86
371.828	1	87
371.999	1	72
372.170	1	98
372.341	1	83
372.512	1	79
372.682	1	68
372.853	1	80
373.024	1	71
373.195	1	71
373.366	1	59
373.537	1	74
373.708	1	61
373.879	1	63
374.050	1	71
374.220	1	67
374.391	1	64
374.562	1	59
374.733	1	55
374.904	1	66
375.075	1	58
375.246	1	43
375.417	1	51
375.588	1	49
375.758	1	43
375.929	1	54
376.100	1	47
376.271	1	52
376.442	1	39
376.613	1	34
376.784	1	54
376.955	1	46
377.125	1	48
377.296	1	28
377.467	1	39
377.638	1	47
377.809	1	44
377.980	1	37
378.151	1	45
378.321	1	48
378.492	1	42
378.663	1	41
378.834	1	49
379.005	1	49
379.176	1	33
379.347	1	45
379.518	1	33
379.688	1	36
379.859	1	40
380.030	1	62
380.201	1	48
380.372	1	53
380.543	1	45
380.714	1	32
380.884	1	54
381.055	1	24
381.226	1	45
381.397	1	47
381.568	1	52
381.739	1	48
381.910	1	45
382.080	1	50
382.251	1	54
382.422	1	63
382.593	1	56
382.764	1	56
382.935	1	56
383.105	1	58
383.276	1	61
383.447	1	66
383.618	1	72
383.789	1	69
383.960	1	71
384.130	1	70
384.301	1	83
384.472	1	77
384.643	1	77
384.814	1	85
384.985	1	86
385.156	1	98
385.326	1	92
385.497	1	108
385.668	1	99
385.839	1	106
386.010	1	96
386.180	1	109
386.351	1	103
386.522	1	100
386.693	1	98
386.864	1	106
387.035	1	108
387.205	1	103
387.376	1	98
387.547	1	106
387.718	1	95
387.889	1	98
388.060	1	92
388.230	1	107
388.401	1	103
388.572	1	98
388.743	1	78
388.914	1	94
389.084	1	103
389.255	1	84
389.426	1	80
389.597	1	107
389.768	1	98
389.939	1	97
390.109	1	86
390.280	1	82
390.451	1	87
390.622	1	89
390.793	1	97
390.963	1	95
391.134	1	74
391.305	1	91
391.476	1	96
391.647	1	93
391.817	1	80
391.988	1	83
392.159	1	87
392.330	1	78
392.501	1	79
392.671	1	85
392.842	1	73
393.013	1	82
393.184	1	81
393.355	1	89
393.525	1	82
393.696	1	70
393.867	1	76
394.038	1	69
394.208	1	79
394.379	1	69
394.550	1	84
394.721	1	68
394.892	1	68
395.062	1	67
395.233	1	72
395.404	1	85
395.575	1	74
395.746	1	87
395.916	1	84
396.087	1	93
396.258	1	85
396.429	1	74
396.599	1	87
396.770	1	96
396.941	1	85
397.112	1	72
397.283	1	75
397.453	1	89
397.624	1	87
397.795	1	82
397.966	1	100
398.136	1	72
398.307	1	85
398.478	1	80
398.649	1	78
398.819	1	90
398.990	1	79
399.161	1	90
399.332	1	92
399.503	1	91
399.673	1	69
399.844	1	80
400.015	1	75
400.186	1	83
400.356	1	79
400.527	1	84
400.698	1	66
400.869	1	56
401.039	1	66
401.210	1	71
401.381	1	53
401.552	1	64
401.722	1	71
401.893	1	60
402.064	1	56
402.235	1	51
402.405	1	63
402.576	1	58
402.747	1	61
402.918	1	58
403.088	1	54
403.259	1	46
403.430	1	65
403.601	1	66
403.771	1	71
403.942	1	60
404.113	1	61
404.284	1	56
404.454	1	52
404.625	1	60
404.796	1	49
404.967	1	50
405.137	1	66
405.308	1	60
405.479	1	63
405.649	1	57
405.820	1	52
405.991	1	55
406.162	1	64
406.332	1	45
406.503	1	46
406.674	1	56
406.845	1	59
407.015	1	55
407.186	1	58
407.357	1	65
407.527	1	56
407.698	1	50
407.869	1	55
408.040	1	50
408.210	1	64
408.381	1	39
408.552	1	38
408.722	1	41
408.893	1	54
409.064	1	50
409.235	1	43
409.405	1	64
409.576	1	52
409.747	1	55
409.917	1	52
410.088	1	47
410.259	1	35
410.430	1	37
410.600	1	48
410.771	1	45
410.942	1	45
411.112	1	42
411.283	1	37
411.454	1	49
411.625	1	44
411.795	1	59
411.966	1	55
412.137	1	46
412.307	1	48
412.478	1	53
412.649	1	37
412.819	1	37
412.990	1	32
413.161	1	38
413.332	1	40
413.502	1	31
413.673	1	57
413.844	1	51
414.014	1	40
414.185	1	36
414.356	1	34
414.526	1	31
414.697	1	42
414.868	1	34
415.038	1	37
415.209	1	24
415.380	1	51
415.550	1	31
415.721	1	41
415.892	1	40
416.063	1	46
416.233	1	33
416.404	1	34
416.575	1	35
416.745	1	21
416.916	1	23
417.087	1	35
417.257	1	41
417.428	1	28
417.599	1	36
417.769	1	26
417.940	1	43
418.111	1	36
418.281	1	33
418.452	1	33
418.623	1	30
418.793	1	34
418.964	1	35
419.135	1	45
419.305	1	26
419.476	1	32
419.647	1	30
419.817	1	32
419.988	1	26
420.159	1	30
420.329	1	33
420.500	1	45
420.671	1	16
420.841	1	43
421.012	1	35
421.183	1	34
421.353	1	32
421.524	1	37
421.695	1	29
421.865	1	38
422.036	1	30
422.206	1	30
422.377	1	28
422.548	1	29
422.718	1	14
422.889	1	20
423.060	1	20
423.230	1	24
423.401	1	34
423.572	1	35
423.742	1	22
423.913	1	20
424.084	1	24
424.254	1	26
424.425	1	9
424.595	1	22
424.766	1	19
424.937	1	24
425.107	1	26
425.278	1	19
425.449	1	16
425.619	1	25
425.790	1	20
425.961	1	15
426.131	1	20
426.302	1	21
426.472	1	19
426.643	1	21
426.814	1	21
426.984	1	24
427.155	1	14
427.326	1	15
427.496	1	11
427.667	1	24
427.837	1	19
428.008	1	14
428.179	1	16
428.349	1	19
428.520	1	25
428.691	1	15
428.861	1	21
429.032	1	15
429.202	1	18
429.373	1	13
429.544	1	18
429.714	1	18
429.885	1	15
430.055	1	19
430.226	1	17
430.397	1	21
430.567	1	22
430.738	1	19
430.909	1	12
431.079	1	12
431.250	1	19
431.420	1	3
431.591	1	13
431.762	1	18
431.932	1	14
432.103	1	21
432.273	1	16
432.444	1	8
432.615	1	9
432.785	1	7
432.956	1	28
433.126	1	19
433.297	1	14
433.468	1	19
433.638	1	21
433.809	1	17
433.979	1	16
434.150	1	28
434.320	1	19
434.491	1	22
434.662	1	16
434.832	1	17
435.003	1	11
435.173	1	15
435.344	1	13
435.515	1	17
435.685	1	8
435.856	1	13
436.026	1	16
436.197	1	26
436.368	1	16
436.538	1	9
436.709	1	10
436.879	1	10
437.050	1	21
437.220	1	6
437.391	1	21
437.562	1	14
437.732	1	15
437.903	1	-6
438.073	1	9
438.244	1	8
438.414	1	11
438.585	1	3
438.756	1	13
438.926	1	7
439.097	1	17
439.267	1	10
439.438	1	24
439.608	1	14
439.779	1	9
439.949	1	-1
440.120	1	-1
440.291	1	19
440.461	1	14
440.632	1	16
440.802	1	15
440.973	1	19
441.143	1	7
441.314	1	5
441.485	1	7
441.655	1	20
441.826	1	-4
441.996	1	5
442.167	1	11
442.337	1	7
442.508	1	15
442.678	1	4
442.849	1	-2
443.019	1	5
443.190	1	14
443.361	1	17
443.531	1	4
443.702	1	-2
443.872	1	14
444.043	1	11
444.213	1	18
444.384	1	9
444.554	1	8
444.725	1	13
444.895	1	14
445.066	1	15
445.237	1	3
445.407	1	8
445.578	1	20
445.748	1	7
445.919	1	2
446.089	1	5
446.260	1	12
446.430	1	3
446.601	1	16
446.771	1	-4
446.942	1	9
447.112	1	15
447.283	1	1
447.453	1	9
447.624	1	5
447.794	1	22
447.965	1	11
448.135	1	8
448.306	1	3
448.477	1	18
448.647	1	5
448.818	1	0
448.988	1	6
449.159	1	18
449.329	1	12
449.500	1	7
449.670	1	10
449.841	1	3
450.011	1	9
450.182	1	1
450.352	1	14
450.523	1	1
450.693	1	10
450.864	1	9
451.034	1	19
451.205	1	4
451.375	1	3
451.546	1	3
451.716	1	15
451.887	1	4
452.057	1	18
452.228	1	3
452.398	1	10
452.569	1	-4
452.739	1	13
452.910	1	1
453.080	1	12
453.251	1	10
453.421	1	4
453.592	1	7
453.762	1	6
453.933	1	4
454.103	1	7
454.274	1	10
454.444	1	11
454.615	1	8
454.785	1	6
454.956	1	19
455.126	1	11
455.297	1	10
455.467	1	5
455.638	1	12
455.808	1	3
455.979	1	5
456.149	1	20
456.320	1	20
456.490	1	8
456.661	1	-2
456.831	1	5
457.001	1	6
457.172	1	2
457.342	1	11
457.513	1	11
457.683	1	24
457.854	1	16
458.024	1	-1
458.195	1	10
458.365	1	20
458.536	1	-1
458.706	1	14
458.877	1	15
459.047	1	15
459.218	1	7
459.388	1	14
459.559	1	3
459.729	1	9
459.899	1	9
460.070	1	5
460.240	1	3
460.411	1	6
460.581	1	11
460.752	1	5
460.922	1	14
461.093	1	7
461.263	1	7
461.434	1	14
461.604	1	15
461.775	1	6
461.945	1	12
462.115	1	7
462.286	1	11
462.456	1	15
462.627	1	13
462.797	1	1
462.968	1	4
463.138	1	9
463.309	1	5
463.479	1	7
463.649	1	10
463.820	1	-3
463.990	1	14
464.161	1	3
464.331	1	13
464.502	1	8
464.672	1	-8
464.843	1	1
465.013	1	4
465.183	1	0
465.354	1	12
465.524	1	1
465.695	1	9
465.865	1	10
466.036	1	7
466.206	1	7
466.376	1	-3
466.547	1	4
466.717	1	-2
466.888	1	4
467.058	1	3
467.229	1	12
467.399	1	11
467.569	1	14
467.740	1	13
467.910	1	4
468.081	1	1
468.251	1	10
468.422	1	3
468.592	1	8
468.762	1	-10
468.933	1	10
469.103	1	13
469.274	1	7
469.444	1	16
469.614	1	8
469.785	1	17
469.955	1	8
470.126	1	-7
470.296	1	10
470.467	1	-10
470.637	1	11
470.807	1	18
470.978	1	4
471.148	1	-1
471.319	1	8
471.489	1	-6
471.659	1	2
471.830	1	11
472.000	1	0
472.171	1	7
472.341	1	1
472.511	1	25
472.682	1	5
472.852	1	2
473.023	1	12
473.193	1	10
473.363	1	3
473.534	1	4
473.704	1	10
473.875	1	0
474.045	1	5
474.215	1	16
474.386	1	13
474.556	1	14
474.727	1	11
474.897	1	10
475.067	1	4
475.238	1	-2
475.408	1	2
475.578	1	15
475.749	1	11
475.919	1	14
476.090	1	16
476.260	1	4
476.430	1	13
476.601	1	5
476.771	1	0
476.942	1	8
477.112	1	2
477.282	1	6
477.453	1	3
477.623	1	3
477.793	1	10
477.964	1	1
478.134	1	13
478.305	1	8
478.475	1	2
478.645	1	-1
478.816	1	14
478.986	1	1
479.156	1	8
479.327	1	2
479.497	1	2
479.667	1	17
479.838	1	2
480.008	1	5
480.179	1	-2
480.349	1	7
480.519	1	10
480.690	1	-9
480.860	1	5
481.030	1	12
481.201	1	1
481.371	1	10
481.541	1	18
481.712	1	4
481.882	1	-3
482.053	1	5
482.223	1	13
482.393	1	6
482.564	1	3
482.734	1	17
482.904	1	7
483.075	1	6
483.245	1	19
483.415	1	12
483.586	1	10
483.756	1	9
483.926	1	2
484.097	1	11
484.267	1	0
484.437	1	7
484.608	1	18
484.778	1	7
484.948	1	9
485.119	1	6
485.289	1	11
485.459	1	12
485.630	1	13
485.800	1	10
485.970	1	8
486.141	1	13
486.311	1	7
486.481	1	11
486.652	1	4
486.822	1	3
486.992	1	11
487.163	1	10
487.333	1	12
487.503	1	13
487.674	1	6
487.844	1	4
488.014	1	20
488.185	1	14
488.355	1	19
488.525	1	8
488.696	1	12
488.866	1	6
489.036	1	23
489.207	1	16
489.377	1	6
489.547	1	12
489.718	1	11
489.888	1	23
490.058	1	19
490.228	1	7
490.399	1	20
490.569	1	26
490.739	1	17
490.910	1	6
491.080	1	23
491.250	1	19
491.421	1	16
491.591	1	13
491.761	1	8
491.932	1	11
492.102	1	11
492.272	1	15
492.442	1	14
492.613	1	23
492.783	1	16
492.953	1	15
493.124	1	22
493.294	1	26
493.464	1	32
493.635	1	13
493.805	1	35
493.975	1	24
494.145	1	30
494.316	1	27
494.486	1	22
494.656	1	24
494.827	1	26
494.997	1	13
495.167	1	27
495.337	1	16
495.508	1	17
495.678	1	26
495.848	1	25
496.019	1	24
496.189	1	19
496.359	1	28
496.529	1	20
496.700	1	16
496.870	1	35
497.040	1	22
497.211	1	27
497.381	1	27
497.551	1	20
497.721	1	22
497.892	1	32
498.062	1	14
498.232	1	38
498.403	1	27
498.573	1	32
498.743	1	30
498.913	1	36
499.084	1	29
499.254	1	29
499.424	1	24
499.594	1	26
499.765	1	29
499.935	1	25
500.105	1	28
500.275	1	31
500.446	1	33
500.616	1	30
500.786	1	42
500.956	1	31
501.127	1	43
501.297	1	31
501.467	1	35
501.638	1	45
501.808	1	35
501.978	1	32
502.148	1	20
502.319	1	44
502.489	1	37
502.659	1	53
502.829	1	32
503.000	1	36
503.170	1	29
503.340	1	36
503.510	1	39
503.681	1	31
503.851	1	40
504.021	1	46
504.191	1	46
504.362	1	51
504.532	1	42
504.702	1	35
504.872	1	18
505.042	1	39
505.213	1	41
505.383	1	37
505.553	1	45
505.723	1	46
505.894	1	46
506.064	1	48
506.234	1	47
506.404	1	35
506.575	1	36
506.745	1	47
506.915	1	37
507.085	1	41
507.256	1	53
507.426	1	37
507.596	1	47
507.766	1	50
507.936	1	46
508.107	1	54
508.277	1	39
508.447	1	46
508.617	1	46
508.788	1	58
508.958	1	44
509.128	1	46
509.298	1	44
509.468	1	63
509.639	1	48
509.809	1	49
509.979	1	55
510.149	1	62
510.319	1	39
510.490	1	42
510.660	1	59
510.830	1	42
511.000	1	66
511.171	1	58
511.341	1	45
511.511	1	47
511.681	1	65
511.851	1	56
512.022	1	53
512.192	1	47
512.362	1	49
512.532	1	43
512.702	1	61
512.873	1	54
513.043	1	60
513.213	1	69
513.383	1	52
513.553	1	64
513.724	1	49
513.894	1	49
514.064	1	56
514.234	1	51
514.404	1	61
514.575	1	52
514.745	1	59
514.915	1	40
515.085	1	61
515.255	1	48
515.425	1	57
515.596	1	61
515.766	1	52
515.936	1	64
516.106	1	57
516.276	1	63
516.447	1	56
516.617	1	61
516.787	1	52
516.957	1	61
517.127	1	60
517.297	1	59
517.468	1	63
517.638	1	55
517.808	1	63
517.978	1	82
518.148	1	56
518.319	1	62
518.489	1	52
518.659	1	58
518.829	1	62
518.999	1	72
519.169	1	61
519.340	1	67
519.510	1	77
519.680	1	72
519.850	1	60
520.020	1	70
520.190	1	69
520.361	1	59
520.531	1	58
520.701	1	78
520.871	1	53
521.041	1	78
521.211	1	74
521.382	1	64
521.552	1	67
521.722	1	76
521.892	1	76
522.062	1	74
522.232	1	71
522.402	1	69
522.573	1	64
522.743	1	72
522.913	1	63
523.083	1	70
523.253	1	76
523.423	1	70
523.593	1	60
523.764	1	84
523.934	1	81
524.104	1	69
524.274	1	56
524.444	1	59
524.614	1	75
524.784	1	61
524.955	1	78
525.125	1	74
525.295	1	73
525.465	1	67
525.635	1	61
525.805	1	81
525.975	1	62
526.146	1	61
526.316	1	65
526.486	1	81
526.656	1	73
526.826	1	71
526.996	1	73
527.166	1	65
527.337	1	63
527.507	1	72
527.677	1	85
527.847	1	70
528.017	1	56
528.187	1	76
528.357	1	85
528.527	1	78
528.698	1	55
528.868	1	69
529.038	1	71
529.208	1	63
529.378	1	74
529.548	1	72
529.718	1	78
529.888	1	65
530.058	1	73
530.229	1	79
530.399	1	61
530.569	1	76
530.739	1	82
530.909	1	68
531.079	1	60
531.249	1	80
531.419	1	79
531.589	1	67
531.760	1	74
531.930	1	78
532.100	1	66
532.270	1	73
532.440	1	75
532.610	1	87
532.780	1	74
532.950	1	68
533.120	1	87
533.290	1	77
533.461	1	70
533.631	1	72
533.801	1	77
533.971	1	72
534.141	1	72
534.311	1	74
534.481	1	72
534.651	1	70
534.821	1	74
534.991	1	80
535.162	1	62
535.332	1	74
535.502	1	71
535.672	1	67
535.842	1	72
536.012	1	65
536.182	1	86
536.352	1	71
536.522	1	60
536.692	1	61
536.862	1	71
537.032	1	58
537.203	1	74
537.373	1	68
537.543	1	59
537.713	1	69
537.883	1	67
538.053	1	70
538.223	1	67
538.393	1	68
538.563	1	75
538.733	1	77
538.903	1	64
539.073	1	64
539.243	1	68
539.413	1	67
539.584	1	76
539.754	1	65
539.924	1	67
540.094	1	61
540.264	1	54
540.434	1	67
540.604	1	68
540.774	1	75
540.944	1	63
541.114	1	60
541.284	1	66
541.454	1	60
541.624	1	71
541.794	1	61
541.964	1	54
542.134	1	61
542.305	1	70
542.475	1	53
542.645	1	56
542.815	1	48
542.985	1	65
543.155	1	53
543.325	1	69
543.495	1	74
543.665	1	58
543.835	1	46
544.005	1	61
544.175	1	60
544.345	1	49
544.515	1	64
544.685	1	60
544.855	1	49
545.025	1	60
545.195	1	59
545.365	1	69
545.535	1	63
545.705	1	69
545.875	1	59
546.045	1	55
546.216	1	49
546.386	1	61
546.556	1	64
546.726	1	64
546.896	1	72
547.066	1	69
547.236	1	64
547.406	1	62
547.576	1	63
547.746	1	62
547.916	1	63
548.086	1	60
548.256	1	56
548.426	1	54
548.596	1	61
548.766	1	63
548.936	1	78
549.106	1	70
549.276	1	68
549.446	1	64
549.616	1	59
549.786	1	53
549.956	1	53
550.126	1	58
550.296	1	57
550.466	1	68
550.636	1	63
550.806	1	71
550.976	1	59
551.146	1	62
551.316	1	61
551.486	1	55
551.656	1	59
551.826	1	69
551.996	1	52
552.166	1	64
552.336	1	59
552.506	1	70
552.676	1	65
552.846	1	61
553.016	1	67
553.186	1	50
553.356	1	63
553.526	1	54
553.696	1	61
553.866	1	64
554.036	1	51
554.206	1	60
554.376	1	47
554.546	1	67
554.716	1	55
554.886	1	64
555.056	1	53
555.226	1	53
555.396	1	48
555.566	1	55
555.736	1	53
555.906	1	51
556.076	1	57
556.246	1	54
556.416	1	32
556.586	1	35
556.756	1	53
556.926	1	45
557.096	1	54
557.266	1	45
557.436	1	45
557.606	1	51
557.776	1	55
557.946	1	48
558.116	1	49
558.286	1	40
558.456	1	37
558.626	1	37
558.796	1	40
558.966	1	45
559.136	1	43
559.306	1	46
559.476	1	38
559.646	1	51
559.816	1	47
559.986	1	36
560.155	1	43
560.325	1	42
560.495	1	40
560.665	1	28
560.835	1	46
561.005	1	54
561.175	1	40
561.345	1	41
561.515	1	33
561.685	1	39
561.855	1	42
562.025	1	47
562.195	1	44
562.365	1	45
562.535	1	43
562.705	1	35
562.875	1	37
563.045	1	40
563.215	1	37
563.385	1	36
563.555	1	34
563.725	1	42
563.895	1	36
564.064	1	36
564.234	1	39
564.404	1	38
564.574	1	50
564.744	1	43
564.914	1	35
565.084	1	33
565.254	1	44
565.424	1	40
565.594	1	26
565.764	1	38
565.934	1	44
566.104	1	37
566.274	1	41
566.444	1	32
566.614	1	35
566.783	1	45
566.953	1	30
567.123	1	38
567.293	1	43
567.463	1	36
567.633	1	37
567.803	1	47
567.973	1	45
568.143	1	35
568.313	1	33
568.483	1	47
568.653	1	35
568.823	1	30
568.993	1	22
569.162	1	23
569.332	1	39
569.502	1	33
569.672	1	33
569.842	1	30
570.012	1	34
570.182	1	29
570.352	1	39
570.522	1	29
570.692	1	29
570.862	1	29
571.031	1	34
571.201	1	44
571.371	1	41
571.541	1	29
571.711	1	31
571.881	1	32
572.051	1	27
572.221	1	27
572.391	1	41
572.561	1	26
572.731	1	33
572.900	1	21
573.070	1	31
573.240	1	32
573.410	1	37
573.580	1	21
573.750	1	34
573.920	1	26
574.090	1	39
574.260	1	27
574.430	1	34
574.599	1	26
574.769	1	17
574.939	1	18
575.109	1	25
575.279	1	16
575.449	1	36
575.619	1	28
575.789	1	29
575.959	1	28
576.128	1	26
576.298	1	25
576.468	1	22
576.638	1	19
576.808	1	32
576.978	1	10
577.148	1	26
577.318	1	37
577.487	1	24
577.657	1	27
577.827	1	18
577.997	1	32
578.167	1	24
578.337	1	16
578.507	1	24
578.677	1	22
578.846	1	13
579.016	1	31
579.186	1	33
579.356	1	19
579.526	1	28
579.696	1	30
579.866	1	15
580.036	1	28
580.205	1	24
580.375	1	36
580.545	1	27
580.715	1	19
580.885	1	25
581.055	1	22
581.225	1	18
581.394	1	13
581.564	1	29
581.734	1	18
581.904	1	0
582.074	1	27
582.244	1	28
582.414	1	11
582.583	1	19
582.753	1	33
582.923	1	21
583.093	1	24
583.263	1	25
583.433	1	19
583.603	1	12
583.772	1	-6
583.942	1	21
584.112	1	26
584.282	1	18
584.452	1	11
584.622	1	22
584.791	1	15
584.961	1	2
585.131	1	18
585.301	1	20
585.471	1	18
585.641	1	16
585.811	1	31
585.980	1	24
586.150	1	8
586.320	1	21
586.490	1	25
586.660	1	11
586.830	1	11
586.999	1	16
587.169	1	25
587.339	1	10
587.509	1	15
587.679	1	11
587.849	1	29
588.018	1	16
588.188	1	24
588.358	1	5
588.528	1	21
588.698	1	5
588.867	1	6
589.037	1	17
589.207	1	22
589.377	1	18
589.547	1	34
589.717	1	11
589.886	1	14
590.056	1	12
590.226	1	1
590.396	1	15
590.566	1	7
590.735	1	13
590.905	1	20
591.075	1	12
591.245	1	19
591.415	1	22
591.585	1	7
591.754	1	21
591.924	1	13
592.094	1	4
592.264	1	3
592.434	1	12
592.603	1	13
592.773	1	19
592.943	1	21
593.113	1	10
593.283	1	4
593.452	1	9
593.622	1	11
593.792	1	16
593.962	1	15
594.132	1	13
594.301	1	25
594.471	1	19
594.641	1	10
594.811	1	4
594.981	1	5
595.150	1	18
595.320	1	4
595.490	1	19
595.660	1	13
595.829	1	10
595.999	1	10
596.169	1	12
596.339	1	8
596.509	1	14
596.678	1	22
596.848	1	20
597.018	1	9
597.188	1	13
597.358	1	11
597.527	1	5
597.697	1	1
597.867	1	13
598.037	1	17
598.206	1	15
598.376	1	9
598.546	1	19
598.716	1	-5
598.885	1	14
599.055	1	14
599.225	1	9
599.395	1	13
599.565	1	-3
599.734	1	23
599.904	1	1
600.074	1	12
600.244	1	17
600.413	1	14
600.583	1	7
600.753	1	19
600.923	1	15
601.092	1	12
601.262	1	13
601.432	1	10
601.602	1	20
601.771	1	7
601.941	1	20
602.111	1	11
602.281	1	16
602.451	1	4
602.620	1	23
602.790	1	13
602.960	1	2
603.130	1	0
603.299	1	12
603.469	1	9
603.639	1	-3
603.809	1	11
603.978	1	9
604.148	1	13
604.318	1	1
604.487	1	15
604.657	1	8
604.827	1	18
604.997	1	16
605.166	1	12
605.336	1	9
605.506	1	-1
605.676	1	24
605.845	1	17
606.015	1	1
606.185	1	10
606.355	1	4
606.524	1	13
606.694	1	14
606.864	1	13
607.034	1	17
607.203	1	24
607.373	1	8
607.543	1	8
607.712	1	7
607.882	1	10
608.052	1	14
608.222	1	12
608.391	1	26
608.561	1	5
608.731	1	7
608.901	1	19
609.070	1	1
609.240	1	6
609.410	1	19
609.579	1	12
609.749	1	8
609.919	1	-4
610.089	1	16
610.258	1	11
610.428	1	12
610.598	1	13
610.767	1	17
610.937	1	8
611.107	1	13
611.277	1	10
611.446	1	11
611.616	1	17
611.786	1	12
611.955	1	10
612.125	1	16
612.295	1	9
612.465	1	9
612.634	1	2
612.804	1	10
612.974	1	1
613.143	1	19
613.313	1	13
613.483	1	21
613.652	1	5
613.822	1	12
613.992	1	-2
614.162	1	13
614.331	1	9
614.501	1	-2
614.671	1	11
614.840	1	8
615.010	1	9
615.180	1	-4
615.349	1	16
615.519	1	8
615.689	1	-2
615.858	1	9
616.028	1	16
616.198	1	17
616.368	1	9
616.537	1	10
616.707	1	4
616.877	1	12
617.046	1	18
617.216	1	4
617.386	1	12
617.555	1	10
617.725	1	15
617.895	1	12
618.064	1	7
618.234	1	-2
618.404	1	4
618.573	1	6
618.743	1	16
618.913	1	15
619.082	1	-7
619.252	1	5
619.422	1	1
619.591	1	6
619.761	1	2
619.931	1	10
620.100	1	18
620.270	1	7
620.440	1	16
620.609	1	14
620.779	1	10
620.949	1	14
621.118	1	11
621.288	1	3
621.458	1	9
621.627	1	11
621.797	1	-7
621.967	1	9
622.136	1	10
622.306	1	9
622.476	1	7
622.645	1	9
622.815	1	11
622.985	1	7
623.154	1	1
623.324	1	7
623.494	1	6
623.663	1	4
623.833	1	4
624.002	1	0
624.172	1	6
624.342	1	11
624.511	1	7
624.681	1	2
624.851	1	-4
625.020	1	1
625.190	1	8
625.360	1	5
625.529	1	9
625.699	1	4
625.869	1	16
626.038	1	0
626.208	1	9
626.377	1	1
626.547	1	1
626.717	1	-8
626.886	1	0
627.056	1	7
627.226	1	13
627.395	1	2
627.565	1	19
627.735	1	9
627.904	1	10
628.074	1	8
628.243	1	12
628.413	1	-5
628.583	1	4
628.752	1	8
628.922	1	8
629.091	1	11
629.261	1	8
629.431	1	10
629.600	1	5
629.770	1	10
629.940	1	-3
630.109	1	-2
630.279	1	5
630.448	1	0
630.618	1	14
630.788	1	5
630.957	1	8
631.127	1	10
631.297	1	-6
631.466	1	12
631.636	1	6
631.805	1	14
631.975	1	2
632.145	1	9
632.314	1	1
632.484	1	4
632.653	1	12
632.823	1	5
632.993	1	2
633.162	1	2
633.332	1	1
633.501	1	0
633.671	1	0
633.841	1	8
634.010	1	11
634.180	1	12
634.349	1	6
634.519	1	13
634.689	1	9
634.858	1	-4
635.028	1	1
635.197	1	11
635.367	1	4
635.537	1	13
635.706	1	6
635.876	1	14
636.045	1	10
636.215	1	19
636.384	1	-7
636.554	1	-1
636.724	1	12
636.893	1	13
637.063	1	10
637.232	1	4
637.402	1	3
637.572	1	12
637.741	1	7
637.911	1	7
638.080	1	5
638.250	1	3
638.419	1	-3
638.589	1	6
638.759	1	0
638.928	1	13
639.098	1	8
639.267	1	19
639.437	1	7
639.606	1	10
639.776	1	16
639.946	1	6
640.115	1	-5
640.285	1	12
640.454	1	4
640.624	1	6
640.793	1	5
640.963	1	6
641.132	1	8
641.302	1	5
641.472	1	9
641.641	1	3
641.811	1	-3
641.980	1	3
642.150	1	1
642.319	1	20
642.489	1	-2
642.659	1	12
642.828	1	8
642.998	1	9
643.167	1	-10
643.337	1	4
643.506	1	3
643.676	1	-1
643.845	1	13
644.015	1	10
644.184	1	-2
644.354	1	10
644.524	1	1
644.693	1	8
644.863	1	19
645.032	1	4
645.202	1	3
645.371	1	-2
645.541	1	10
645.710	1	5
645.880	1	6
646.049	1	1
646.219	1	1
646.388	1	7
646.558	1	12
646.728	1	0
646.897	1	12
647.067	1	3
647.236	1	10
647.406	1	16
647.575	1	13
647.745	1	11
647.914	1	-5
648.084	1	3
648.253	1	-5
648.423	1	3
648.592	1	-7
648.762	1	15
648.931	1	8
649.101	1	4
649.270	1	4
649.440	1	3
649.610	1	11
649.779	1	2
649.949	1	7
650.118	1	2
650.288	1	7
650.457	1	10
650.627	1	12
650.796	1	7
650.966	1	-12
651.135	1	11
651.305	1	5
651.474	1	7
651.644	1	15
651.813	1	15
651.983	1	8
652.152	1	9
652.322	1	6
652.491	1	9
652.661	1	3
652.830	1	2
653.000	1	9
653.169	1	8
653.339	1	20
653.508	1	5
653.678	1	3
653.847	1	0
654.017	1	7
654.186	1	5
654.356	1	-2
654.525	1	-1
654.695	1	8
654.864	1	0
655.034	1	4
655.203	1	6
655.373	1	8
655.542	1	6
655.712	1	10
655.881	1	13
656.051	1	6
656.220	1	1
656.390	1	9
656.559	1	-14
656.729	1	1
656.898	1	-1
657.068	1	-2
657.237	1	5
657.406	1	11
657.576	1	-1
657.745	1	8
657.915	1	12
658.084	1	-1
658.254	1	2
658.423	1	1
658.593	1	22
658.762	1	6
658.932	1	4
659.101	1	-1
659.271	1	5
659.440	1	8
659.610	1	-10
659.779	1	20
659.949	1	7
660.118	1	16
660.288	1	1
660.457	1	13
660.626	1	2
660.796	1	3
660.965	1	11
661.135	1	-1
661.304	1	-1
661.474	1	5
661.643	1	10
661.813	1	5
661.982	1	1
662.152	1	3
662.321	1	4
662.491	1	6
662.660	1	8
662.829	1	12
662.999	1	9
663.168	1	0
663.338	1	3
663.507	1	0
663.677	1	3
663.846	1	10
664.016	1	-2
664.185	1	-2
664.354	1	16
664.524	1	10
664.693	1	1
664.863	1	0
665.032	1	-8
665.202	1	-8
665.371	1	-8
665.541	1	15
665.710	1	7
665.879	1	8
666.049	1	3
666.218	1	11
666.388	1	9
666.557	1	16
666.727	1	-4
666.896	1	9
667.065	1	-3
667.235	1	14
667.404	1	-1
667.574	1	2
667.743	1	2
667.913	1	21
668.082	1	6
668.251	1	-1
668.421	1	3
668.590	1	4
668.760	1	4
668.929	1	9
669.099	1	-5
669.268	1	6
669.437	1	1
669.607	1	9
669.776	1	16
669.946	1	0
670.115	1	-13
670.285	1	12
670.454	1	4
670.623	1	2
670.793	1	6
670.962	1	2
671.132	1	-1
671.301	1	4
671.470	1	5
671.640	1	-4
671.809	1	-3
671.979	1	10
672.148	1	10
672.317	1	0
672.487	1	12
672.656	1	-2
672.826	1	0
672.995	1	6
673.164	1	-4
673.334	1	4
673.503	1	6
673.673	1	3
673.842	1	9
674.011	1	7
674.181	1	10
674.350	1	9
674.520	1	7
674.689	1	-2
674.858	1	0
675.028	1	6
675.197	1	6
675.367	1	-1
675.536	1	4
675.705	1	-2
675.875	1	-2
676.044	1	-3
676.214	1	11
676.383	1	9
676.552	1	15
676.722	1	-5
676.891	1	10
677.060	1	1
677.230	1	9
677.399	1	-2
677.569	1	15
677.738	1	11
677.907	1	2
678.077	1	6
678.246	1	5
678.416	1	8
678.585	1	-2
678.754	1	6
678.924	1	9
679.093	1	4
679.262	1	4
679.432	1	14
679.601	1	7
679.771	1	9
679.940	1	2
680.109	1	10
680.279	1	3
680.448	1	9
680.617	1	3
680.787	1	1
680.956	1	5
681.125	1	15
681.295	1	1
681.464	1	5
681.634	1	8
681.803	1	9
681.972	1	6
682.142	1	0
682.311	1	2
682.480	1	12
682.650	1	17
682.819	1	4
682.988	1	1
683.158	1	8
683.327	1	16
683.496	1	4
683.666	1	16
683.835	1	0
684.004	1	15
684.174	1	2
684.343	1	7
684.512	1	8
684.682	1	6
684.851	1	10
685.021	1	10
685.190	1	-4
685.359	1	-3
685.529	1	6
685.698	1	5
685.867	1	5
686.037	1	7
686.206	1	3
686.375	1	5
686.545	1	15
686.714	1	4
686.883	1	5
687.053	1	0
687.222	1	2
687.391	1	8
687.561	1	15
687.730	1	8
687.899	1	8
688.069	1	10
688.238	1	-2
688.407	1	18
688.577	1	3
688.746	1	9
