340.368	1	9
340.539	1	10
340.710	1	0
340.881	1	1
341.052	1	-6
341.223	1	6
341.394	1	-3
341.565	1	8
341.737	1	9
341.908	1	-10
342.079	1	-7
342.250	1	0
342.421	1	9
342.592	1	9
342.763	1	6
342.934	1	3
343.105	1	6
343.276	1	3
343.447	1	-11
343.618	1	6
343.789	1	7
343.960	1	-5
344.131	1	12
344.302	1	-12
344.473	1	-2
344.644	1	-4
344.815	1	2
344.986	1	1
345.157	1	13
345.328	1	-5
345.499	1	6
345.670	1	-3
345.841	1	9
346.012	1	9
346.183	1	16
346.354	1	11
346.526	1	-2
346.697	1	9
346.868	1	-4
347.039	1	-6
347.210	1	-2
347.381	1	-3
347.552	1	10
347.723	1	1
347.894	1	8
348.065	1	17
348.236	1	9
348.407	1	-6
348.578	1	6
348.749	1	7
348.920	1	-4
349.091	1	2
349.262	1	-2
349.433	1	1
349.604	1	7
349.775	1	-1
349.946	1	-6
350.117	1	4
350.288	1	5
350.459	1	-3
350.630	1	-1
350.801	1	6
350.972	1	11
351.143	1	14
351.314	1	-4
351.485	1	4
351.656	1	7
351.827	1	11
351.998	1	10
352.169	1	-1
352.340	1	8
352.511	1	-2
352.682	1	3
352.853	1	7
353.024	1	3
353.195	1	0
353.366	1	8
353.537	1	13
353.708	1	11
353.879	1	-1
354.050	1	2
354.221	1	-1
354.392	1	22
354.563	1	16
354.734	1	3
354.905	1	18
355.076	1	7
355.247	1	15
355.418	1	7
355.589	1	2
355.760	1	14
355.931	1	22
356.102	1	10
356.273	1	4
356.444	1	8
356.615	1	5
356.785	1	24
356.956	1	13
357.127	1	26
357.298	1	21
357.469	1	10
357.640	1	18
357.811	1	13
357.982	1	16
358.153	1	28
358.324	1	23
358.495	1	8
358.666	1	20
358.837	1	22
359.008	1	27
359.179	1	26
359.350	1	26
359.521	1	36
359.692	1	24
359.863	1	32
360.034	1	38
360.205	1	33
360.376	1	26
360.547	1	27
360.718	1	39
360.889	1	31
361.060	1	38
361.231	1	37
361.401	1	43
361.572	1	30
361.743	1	52
361.914	1	62
362.085	1	60
362.256	1	45
362.427	1	59
362.598	1	66
362.769	1	59
362.940	1	65
363.111	1	81
363.282	1	74
363.453	1	82
363.624	1	74
363.795	1	86
363.966	1	98
364.137	1	89
364.308	1	109
364.478	1	106
364.649	1	104
364.820	1	115
364.991	1	121
365.162	1	137
365.333	1	121
365.504	1	133
365.675	1	127
365.846	1	134
366.017	1	153
366.188	1	156
366.359	1	150
366.530	1	171
366.701	1	164
366.871	1	160
367.042	1	174
367.213	1	175
367.384	1	164
367.555	1	159
367.726	1	159
367.897	1	156
368.068	1	159
368.239	1	151
368.410	1	142
368.581	1	161
368.752	1	146
368.923	1	148
369.093	1	141
369.264	1	124
369.435	1	125
369.606	1	128
369.777	1	123
369.948	1	118
370.119	1	107
370.290	1	115
370.461	1	104
370.632	1	108
370.803	1	102
370.973	1	87
371.144	1	94
371.315	1	84
371.486	1	88
371.657	1	74
371.828	1	74
371.999	1	80
372.170	1	77
372.341	1	71
372.512	1	68
372.682	1	68
372.853	1	72
373.024	1	69
373.195	1	58
373.366	1	63
373.537	1	80
373.708	1	55
373.879	1	59
374.050	1	56
374.220	1	61
374.391	1	57
374.562	1	51
374.733	1	55
374.904	1	61
375.075	1	52
375.246	1	40
375.417	1	44
375.588	1	56
375.758	1	38
375.929	1	48
376.100	1	46
376.271	1	44
376.442	1	39
376.613	1	41
376.784	1	50
376.955	1	22
377.125	1	39
377.296	1	34
377.467	1	40
377.638	1	40
377.809	1	38
377.980	1	47
378.151	1	41
378.321	1	46
378.492	1	46
378.663	1	37
378.834	1	43
379.005	1	36
379.176	1	27
379.347	1	41
379.518	1	33
379.688	1	35
379.859	1	38
380.030	1	48
380.201	1	44
380.372	1	38
380.543	1	44
380.714	1	32
380.884	1	36
381.055	1	23
381.226	1	43
381.397	1	47
381.568	1	45
381.739	1	40
381.910	1	39
382.080	1	45
382.251	1	36
382.422	1	41
382.593	1	55
382.764	1	48
382.935	1	53
383.105	1	42
383.276	1	53
383.447	1	64
383.618	1	71
383.789	1	49
383.960	1	65
384.130	1	71
384.301	1	73
384.472	1	70
384.643	1	71
384.814	1	85
384.985	1	72
385.156	1	81
385.326	1	79
385.497	1	77
385.668	1	84
385.839	1	86
386.010	1	89
386.180	1	69
386.351	1	80
386.522	1	77
386.693	1	72
386.864	1	96
387.035	1	98
387.205	1	93
387.376	1	91
387.547	1	92
387.718	1	83
387.889	1	90
388.060	1	71
388.230	1	80
388.401	1	82
388.572	1	82
388.743	1	76
388.914	1	73
389.084	1	84
389.255	1	77
389.426	1	76
389.597	1	74
389.768	1	81
389.939	1	69
390.109	1	79
390.280	1	76
390.451	1	70
390.622	1	64
390.793	1	81
390.963	1	72
391.134	1	67
391.305	1	67
391.476	1	87
391.647	1	66
391.817	1	68
391.988	1	66
392.159	1	74
392.330	1	61
392.501	1	65
392.671	1	67
392.842	1	57
393.013	1	72
393.184	1	59
393.355	1	76
393.525	1	57
393.696	1	72
393.867	1	70
394.038	1	73
394.208	1	69
394.379	1	65
394.550	1	63
394.721	1	62
394.892	1	53
395.062	1	65
395.233	1	55
395.404	1	64
395.575	1	64
395.746	1	61
395.916	1	72
396.087	1	73
396.258	1	70
396.429	1	70
396.599	1	78
396.770	1	75
396.941	1	70
397.112	1	64
397.283	1	63
397.453	1	81
397.624	1	69
397.795	1	74
397.966	1	86
398.136	1	78
398.307	1	72
398.478	1	72
398.649	1	72
398.819	1	73
398.990	1	74
399.161	1	70
399.332	1	84
399.503	1	74
399.673	1	59
399.844	1	68
400.015	1	76
400.186	1	65
400.356	1	64
400.527	1	75
400.698	1	52
400.869	1	55
401.039	1	48
401.210	1	55
401.381	1	59
401.552	1	63
401.722	1	58
401.893	1	59
402.064	1	54
402.235	1	48
402.405	1	44
402.576	1	37
402.747	1	50
402.918	1	49
403.088	1	44
403.259	1	40
403.430	1	54
403.601	1	46
403.771	1	57
403.942	1	59
404.113	1	54
404.284	1	44
404.454	1	46
404.625	1	50
404.796	1	46
404.967	1	53
405.137	1	41
405.308	1	47
405.479	1	58
405.649	1	58
405.820	1	45
405.991	1	43
406.162	1	47
406.332	1	37
406.503	1	46
406.674	1	53
406.845	1	46
407.015	1	43
407.186	1	53
407.357	1	53
407.527	1	56
407.698	1	47
407.869	1	41
408.040	1	46
408.210	1	40
408.381	1	41
408.552	1	39
408.722	1	32
408.893	1	41
409.064	1	38
409.235	1	48
409.405	1	58
409.576	1	41
409.747	1	43
409.917	1	39
410.088	1	41
410.259	1	24
410.430	1	33
410.600	1	38
410.771	1	44
410.942	1	30
411.112	1	42
411.283	1	29
411.454	1	32
411.625	1	36
411.795	1	41
411.966	1	43
412.137	1	42
412.307	1	31
412.478	1	40
412.649	1	35
412.819	1	43
412.990	1	28
413.161	1	26
413.332	1	29
413.502	1	26
413.673	1	47
413.844	1	43
414.014	1	24
414.185	1	39
414.356	1	31
414.526	1	31
414.697	1	42
414.868	1	24
415.038	1	26
415.209	1	27
415.380	1	42
415.550	1	37
415.721	1	31
415.892	1	22
416.063	1	38
416.233	1	39
416.404	1	31
416.575	1	34
416.745	1	24
416.916	1	22
417.087	1	31
417.257	1	33
417.428	1	27
417.599	1	35
417.769	1	22
417.940	1	30
418.111	1	28
418.281	1	25
418.452	1	30
418.623	1	27
418.793	1	27
418.964	1	35
419.135	1	46
419.305	1	32
419.476	1	25
419.647	1	43
419.817	1	34
419.988	1	18
420.159	1	33
420.329	1	12
420.500	1	35
420.671	1	17
420.841	1	15
421.012	1	32
421.183	1	31
421.353	1	25
421.524	1	29
421.695	1	33
421.865	1	29
422.036	1	28
422.206	1	20
422.377	1	26
422.548	1	25
422.718	1	11
422.889	1	15
423.060	1	15
423.230	1	26
423.401	1	13
423.572	1	35
423.742	1	21
423.913	1	15
424.084	1	21
424.254	1	25
424.425	1	12
424.595	1	8
424.766	1	22
424.937	1	20
425.107	1	16
425.278	1	16
425.449	1	14
425.619	1	27
425.790	1	15
425.961	1	18
426.131	1	28
426.302	1	18
426.472	1	18
426.643	1	17
426.814	1	6
426.984	1	15
427.155	1	5
427.326	1	16
427.496	1	6
427.667	1	24
427.837	1	13
428.008	1	21
428.179	1	7
428.349	1	9
428.520	1	20
428.691	1	7
428.861	1	15
429.032	1	15
429.202	1	26
429.373	1	13
429.544	1	10
429.714	1	2
429.885	1	14
430.055	1	16
430.226	1	12
430.397	1	12
430.567	1	20
430.738	1	6
430.909	1	20
431.079	1	16
431.250	1	5
431.420	1	4
431.591	1	22
431.762	1	14
431.932	1	12
432.103	1	16
432.273	1	24
432.444	1	8
432.615	1	12
432.785	1	5
432.956	1	22
433.126	1	10
433.297	1	10
433.468	1	1
433.638	1	9
433.809	1	12
433.979	1	16
434.150	1	21
434.320	1	9
434.491	1	19
434.662	1	21
434.832	1	10
435.003	1	29
435.173	1	16
435.344	1	7
435.515	1	7
435.685	1	10
435.856	1	13
436.026	1	16
436.197	1	22
436.368	1	12
436.538	1	5
436.709	1	10
436.879	1	8
437.050	1	23
437.220	1	7
437.391	1	7
437.562	1	9
437.732	1	12
437.903	1	4
438.073	1	15
438.244	1	6
438.414	1	14
438.585	1	16
438.756	1	13
438.926	1	5
439.097	1	23
439.267	1	7
439.438	1	6
439.608	1	15
439.779	1	9
439.949	1	0
440.120	1	5
440.291	1	16
440.461	1	11
440.632	1	21
440.802	1	14
440.973	1	14
441.143	1	10
441.314	1	2
441.485	1	11
441.655	1	13
441.826	1	0
441.996	1	-1
442.167	1	13
442.337	1	14
442.508	1	13
442.678	1	5
442.849	1	-5
443.019	1	3
443.190	1	19
443.361	1	9
443.531	1	8
443.702	1	5
443.872	1	19
444.043	1	9
444.213	1	11
444.384	1	-1
444.554	1	8
444.725	1	10
444.895	1	8
445.066	1	6
445.237	1	7
445.407	1	7
445.578	1	8
445.748	1	11
445.919	1	4
446.089	1	16
446.260	1	9
446.430	1	2
446.601	1	16
446.771	1	2
446.942	1	4
447.112	1	12
447.283	1	9
447.453	1	7
447.624	1	3
447.794	1	12
447.965	1	14
448.135	1	-2
448.306	1	5
448.477	1	10
448.647	1	6
448.818	1	8
448.988	1	2
449.159	1	13
449.329	1	12
449.500	1	5
449.670	1	5
449.841	1	4
450.011	1	7
450.182	1	-7
450.352	1	15
450.523	1	9
450.693	1	1
450.864	1	11
451.034	1	14
451.205	1	8
451.375	1	4
451.546	1	4
451.716	1	16
451.887	1	4
452.057	1	18
452.228	1	11
452.398	1	15
452.569	1	-4
452.739	1	14
452.910	1	2
453.080	1	12
453.251	1	6
453.421	1	7
453.592	1	8
453.762	1	4
453.933	1	11
454.103	1	10
454.274	1	11
454.444	1	5
454.615	1	9
454.785	1	2
454.956	1	9
455.126	1	7
455.297	1	6
455.467	1	-1
455.638	1	17
455.808	1	7
455.979	1	5
456.149	1	11
456.320	1	18
456.490	1	1
456.661	1	1
456.831	1	8
457.001	1	6
457.172	1	12
457.342	1	10
457.513	1	13
457.683	1	8
457.854	1	16
458.024	1	-2
458.195	1	7
458.365	1	12
458.536	1	-3
458.706	1	14
458.877	1	9
459.047	1	11
459.218	1	1
459.388	1	10
459.559	1	4
459.729	1	0
459.899	1	9
460.070	1	1
460.240	1	1
460.411	1	6
460.581	1	11
460.752	1	2
460.922	1	19
461.093	1	-3
461.263	1	6
461.434	1	13
461.604	1	14
461.775	1	3
461.945	1	9
462.115	1	11
462.286	1	4
462.456	1	12
462.627	1	13
462.797	1	-11
462.968	1	-1
463.138	1	8
463.309	1	11
463.479	1	2
463.649	1	4
463.820	1	14
463.990	1	5
464.161	1	7
464.331	1	6
464.502	1	6
464.672	1	-11
464.843	1	4
465.013	1	-4
465.183	1	6
465.354	1	10
465.524	1	7
465.695	1	10
465.865	1	6
466.036	1	12
466.206	1	12
466.376	1	6
466.547	1	-5
466.717	1	6
466.888	1	5
467.058	1	5
467.229	1	4
467.399	1	12
467.569	1	13
467.740	1	8
467.910	1	7
468.081	1	10
468.251	1	7
468.422	1	5
468.592	1	-1
468.762	1	-7
468.933	1	13
469.103	1	14
469.274	1	3
469.444	1	16
469.614	1	13
469.785	1	8
469.955	1	2
470.126	1	3
470.296	1	9
470.467	1	-8
470.637	1	11
470.807	1	26
470.978	1	1
471.148	1	6
471.319	1	10
471.489	1	2
471.659	1	4
471.830	1	8
472.000	1	-2
472.171	1	-2
472.341	1	10
472.511	1	8
472.682	1	2
472.852	1	7
473.023	1	7
473.193	1	10
473.363	1	4
473.534	1	0
473.704	1	0
473.875	1	-1
474.045	1	2
474.215	1	10
474.386	1	6
474.556	1	12
474.727	1	-3
474.897	1	4
475.067	1	-4
475.238	1	-4
475.408	1	7
475.578	1	2
475.749	1	-1
475.919	1	4
476.090	1	8
476.260	1	8
476.430	1	6
476.601	1	7
476.771	1	0
476.942	1	10
477.112	1	0
477.282	1	6
477.453	1	10
477.623	1	8
477.793	1	6
477.964	1	4
478.134	1	-1
478.305	1	3
478.475	1	0
478.645	1	9
478.816	1	4
478.986	1	4
479.156	1	7
479.327	1	1
479.497	1	18
479.667	1	18
479.838	1	-5
480.008	1	0
480.179	1	-5
480.349	1	3
480.519	1	1
480.690	1	7
480.860	1	11
481.030	1	13
481.201	1	0
481.371	1	14
481.541	1	14
481.712	1	6
481.882	1	0
482.053	1	9
482.223	1	5
482.393	1	15
482.564	1	4
482.734	1	10
482.904	1	2
483.075	1	8
483.245	1	12
483.415	1	1
483.586	1	11
483.756	1	13
483.926	1	3
484.097	1	15
484.267	1	-4
484.437	1	3
484.608	1	9
484.778	1	5
484.948	1	12
485.119	1	9
485.289	1	15
485.459	1	11
485.630	1	12
485.800	1	13
485.970	1	7
486.141	1	8
486.311	1	14
486.481	1	12
486.652	1	15
486.822	1	9
486.992	1	20
487.163	1	7
487.333	1	17
487.503	1	19
487.674	1	7
487.844	1	3
488.014	1	14
488.185	1	8
488.355	1	10
488.525	1	16
488.696	1	2
488.866	1	3
489.036	1	18
489.207	1	20
489.377	1	14
489.547	1	7
489.718	1	16
489.888	1	20
490.058	1	18
490.228	1	8
490.399	1	18
490.569	1	14
490.739	1	16
490.910	1	2
491.080	1	13
491.250	1	11
491.421	1	22
491.591	1	5
491.761	1	14
491.932	1	18
492.102	1	3
492.272	1	17
492.442	1	13
492.613	1	11
492.783	1	16
492.953	1	12
493.124	1	24
493.294	1	17
493.464	1	29
493.635	1	10
493.805	1	26
493.975	1	19
494.145	1	10
494.316	1	15
494.486	1	18
494.656	1	14
494.827	1	21
494.997	1	14
495.167	1	19
495.337	1	22
495.508	1	16
495.678	1	25
495.848	1	19
496.019	1	18
496.189	1	19
496.359	1	18
496.529	1	11
496.700	1	15
496.870	1	16
497.040	1	15
497.211	1	33
497.381	1	20
497.551	1	23
497.721	1	25
497.892	1	25
498.062	1	25
498.232	1	20
498.403	1	19
498.573	1	21
498.743	1	22
498.913	1	26
499.084	1	17
499.254	1	21
499.424	1	34
499.594	1	11
499.765	1	32
499.935	1	9
500.105	1	34
500.275	1	23
500.446	1	32
500.616	1	27
500.786	1	33
500.956	1	30
501.127	1	31
501.297	1	23
501.467	1	25
501.638	1	36
501.808	1	29
501.978	1	35
502.148	1	35
502.319	1	43
502.489	1	16
502.659	1	43
502.829	1	30
503.000	1	30
503.170	1	31
503.340	1	35
503.510	1	32
503.681	1	31
503.851	1	37
504.021	1	35
504.191	1	32
504.362	1	40
504.532	1	29
504.702	1	43
504.872	1	32
505.042	1	40
505.213	1	45
505.383	1	32
505.553	1	31
505.723	1	38
505.894	1	35
506.064	1	36
506.234	1	40
506.404	1	32
506.575	1	30
506.745	1	50
506.915	1	34
507.085	1	33
507.256	1	37
507.426	1	44
507.596	1	44
507.766	1	38
507.936	1	38
508.107	1	65
508.277	1	42
508.447	1	52
508.617	1	44
508.788	1	49
508.958	1	52
509.128	1	49
509.298	1	46
509.468	1	46
509.639	1	41
509.809	1	48
509.979	1	54
510.149	1	49
510.319	1	41
510.490	1	40
510.660	1	49
510.830	1	50
511.000	1	43
511.171	1	43
511.341	1	47
511.511	1	47
511.681	1	54
511.851	1	49
512.022	1	45
512.192	1	47
512.362	1	44
512.532	1	40
512.702	1	48
512.873	1	50
513.043	1	57
513.213	1	57
513.383	1	35
513.553	1	60
513.724	1	47
513.894	1	44
514.064	1	49
514.234	1	55
514.404	1	47
514.575	1	40
514.745	1	44
514.915	1	39
515.085	1	49
515.255	1	47
515.425	1	47
515.596	1	61
515.766	1	52
515.936	1	45
516.106	1	53
516.276	1	55
516.447	1	58
516.617	1	51
516.787	1	50
516.957	1	60
517.127	1	61
517.297	1	57
517.468	1	45
517.638	1	54
517.808	1	58
517.978	1	73
518.148	1	49
518.319	1	63
518.489	1	45
518.659	1	56
518.829	1	61
518.999	1	55
519.169	1	53
519.340	1	66
519.510	1	66
519.680	1	70
519.850	1	53
520.020	1	66
520.190	1	48
520.361	1	67
520.531	1	57
520.701	1	66
520.871	1	59
521.041	1	64
521.211	1	65
521.382	1	62
521.552	1	53
521.722	1	61
521.892	1	65
522.062	1	64
522.232	1	78
522.402	1	71
522.573	1	62
522.743	1	68
522.913	1	62
523.083	1	67
523.253	1	69
523.423	1	57
523.593	1	60
523.764	1	60
523.934	1	63
524.104	1	65
524.274	1	52
524.444	1	62
524.614	1	75
524.784	1	65
524.955	1	68
525.125	1	68
525.295	1	58
525.465	1	57
525.635	1	64
525.805	1	71
525.975	1	72
526.146	1	54
526.316	1	62
526.486	1	60
526.656	1	63
526.826	1	61
526.996	1	72
527.166	1	57
527.337	1	60
527.507	1	66
527.677	1	69
527.847	1	62
528.017	1	58
528.187	1	71
528.357	1	73
528.527	1	62
528.698	1	59
528.868	1	64
529.038	1	63
529.208	1	61
529.378	1	65
529.548	1	59
529.718	1	61
529.888	1	71
530.058	1	70
530.229	1	72
530.399	1	60
530.569	1	67
530.739	1	59
530.909	1	62
531.079	1	49
531.249	1	48
531.419	1	76
531.589	1	74
531.760	1	64
531.930	1	77
532.100	1	62
532.270	1	65
532.440	1	78
532.610	1	74
532.780	1	65
532.950	1	75
533.120	1	76
533.290	1	69
533.461	1	61
533.631	1	67
533.801	1	67
533.971	1	67
534.141	1	62
534.311	1	77
534.481	1	81
534.651	1	57
534.821	1	67
534.991	1	58
535.162	1	51
535.332	1	73
535.502	1	58
535.672	1	57
535.842	1	72
536.012	1	59
536.182	1	61
536.352	1	65
536.522	1	59
536.692	1	60
536.862	1	65
537.032	1	56
537.203	1	65
537.373	1	74
537.543	1	56
537.713	1	54
537.883	1	59
538.053	1	69
538.223	1	64
538.393	1	67
538.563	1	76
538.733	1	73
538.903	1	62
539.073	1	54
539.243	1	52
539.413	1	64
539.584	1	51
539.754	1	65
539.924	1	57
540.094	1	55
540.264	1	48
540.434	1	59
540.604	1	58
540.774	1	62
540.944	1	48
541.114	1	62
541.284	1	57
541.454	1	65
541.624	1	63
541.794	1	55
541.964	1	58
542.134	1	66
542.305	1	69
542.475	1	50
542.645	1	65
542.815	1	49
542.985	1	63
543.155	1	38
543.325	1	56
543.495	1	69
543.665	1	51
543.835	1	47
544.005	1	59
544.175	1	51
544.345	1	53
544.515	1	47
544.685	1	63
544.855	1	58
545.025	1	62
545.195	1	49
545.365	1	44
545.535	1	55
545.705	1	58
545.875	1	51
546.045	1	46
546.216	1	42
546.386	1	60
546.556	1	45
546.726	1	58
546.896	1	63
547.066	1	52
547.236	1	54
547.406	1	47
547.576	1	55
547.746	1	63
547.916	1	47
548.086	1	52
548.256	1	42
548.426	1	43
548.596	1	50
548.766	1	61
548.936	1	67
549.106	1	69
549.276	1	52
549.446	1	51
549.616	1	53
549.786	1	51
549.956	1	52
550.126	1	48
550.296	1	53
550.466	1	56
550.636	1	60
550.806	1	62
550.976	1	54
551.146	1	47
551.316	1	59
551.486	1	64
551.656	1	54
551.826	1	70
551.996	1	49
552.166	1	53
552.336	1	40
552.506	1	54
552.676	1	56
552.846	1	55
553.016	1	60
553.186	1	47
553.356	1	51
553.526	1	46
553.696	1	63
553.866	1	59
554.036	1	48
554.206	1	48
554.376	1	46
554.546	1	52
554.716	1	46
554.886	1	67
555.056	1	45
555.226	1	54
555.396	1	45
555.566	1	51
555.736	1	51
555.906	1	53
556.076	1	43
556.246	1	41
556.416	1	25
556.586	1	30
556.756	1	31
556.926	1	43
557.096	1	44
557.266	1	37
557.436	1	48
557.606	1	45
557.776	1	51
557.946	1	42
558.116	1	49
558.286	1	46
558.456	1	34
558.626	1	32
558.796	1	45
558.966	1	41
559.136	1	39
559.306	1	43
559.476	1	41
559.646	1	44
559.816	1	49
559.986	1	35
560.155	1	43
560.325	1	36
560.495	1	35
560.665	1	23
560.835	1	36
561.005	1	28
561.175	1	33
561.345	1	26
561.515	1	38
561.685	1	32
561.855	1	38
562.025	1	40
562.195	1	36
562.365	1	34
562.535	1	33
562.705	1	23
562.875	1	29
563.045	1	31
563.215	1	35
563.385	1	24
563.555	1	26
563.725	1	34
563.895	1	32
564.064	1	36
564.234	1	36
564.404	1	33
564.574	1	36
564.744	1	35
564.914	1	37
565.084	1	21
565.254	1	36
565.424	1	32
565.594	1	37
565.764	1	21
565.934	1	42
566.104	1	37
566.274	1	41
566.444	1	29
566.614	1	29
566.783	1	31
566.953	1	31
567.123	1	40
567.293	1	26
567.463	1	31
567.633	1	27
567.803	1	41
567.973	1	31
568.143	1	24
568.313	1	31
568.483	1	35
568.653	1	21
568.823	1	24
568.993	1	24
569.162	1	24
569.332	1	41
569.502	1	26
569.672	1	37
569.842	1	29
570.012	1	29
570.182	1	32
570.352	1	34
570.522	1	28
570.692	1	37
570.862	1	35
571.031	1	26
571.201	1	39
571.371	1	28
571.541	1	31
571.711	1	35
571.881	1	32
572.051	1	35
572.221	1	33
572.391	1	34
572.561	1	27
572.731	1	23
572.900	1	15
573.070	1	33
573.240	1	12
573.410	1	28
573.580	1	20
573.750	1	26
573.920	1	38
574.090	1	34
574.260	1	20
574.430	1	18
574.599	1	21
574.769	1	28
574.939	1	16
575.109	1	9
575.279	1	30
575.449	1	33
575.619	1	24
575.789	1	27
575.959	1	9
576.128	1	17
576.298	1	26
576.468	1	18
576.638	1	16
576.808	1	28
576.978	1	14
577.148	1	33
577.318	1	33
577.487	1	22
577.657	1	22
577.827	1	16
577.997	1	17
578.167	1	21
578.337	1	17
578.507	1	14
578.677	1	18
578.846	1	20
579.016	1	12
579.186	1	23
579.356	1	24
579.526	1	14
579.696	1	29
579.866	1	14
580.036	1	22
580.205	1	7
580.375	1	26
580.545	1	24
580.715	1	17
580.885	1	25
581.055	1	24
581.225	1	15
581.394	1	9
581.564	1	14
581.734	1	15
581.904	1	13
582.074	1	14
582.244	1	22
582.414	1	18
582.583	1	12
582.753	1	28
582.923	1	21
583.093	1	18
583.263	1	15
583.433	1	19
583.603	1	1
583.772	1	2
583.942	1	16
584.112	1	18
584.282	1	22
584.452	1	17
584.622	1	14
584.791	1	13
584.961	1	3
585.131	1	20
585.301	1	11
585.471	1	4
585.641	1	17
585.811	1	16
585.980	1	12
586.150	1	21
586.320	1	11
586.490	1	22
586.660	1	24
586.830	1	4
586.999	1	4
587.169	1	25
587.339	1	16
587.509	1	22
587.679	1	10
587.849	1	25
588.018	1	10
588.188	1	17
588.358	1	7
588.528	1	9
588.698	1	12
588.867	1	21
589.037	1	9
589.207	1	14
589.377	1	19
589.547	1	25
589.717	1	4
589.886	1	8
590.056	1	17
590.226	1	10
590.396	1	5
590.566	1	5
590.735	1	8
590.905	1	24
591.075	1	0
591.245	1	13
591.415	1	14
591.585	1	19
591.754	1	13
591.924	1	21
592.094	1	13
592.264	1	-3
592.434	1	16
592.603	1	15
592.773	1	6
592.943	1	16
593.113	1	23
593.283	1	16
593.452	1	2
593.622	1	21
593.792	1	12
593.962	1	18
594.132	1	2
594.301	1	17
594.471	1	11
594.641	1	16
594.811	1	1
594.981	1	12
595.150	1	20
595.320	1	14
595.490	1	13
595.660	1	16
595.829	1	-3
595.999	1	7
596.169	1	20
596.339	1	19
596.509	1	9
596.678	1	7
596.848	1	11
597.018	1	12
597.188	1	3
597.358	1	6
597.527	1	4
597.697	1	7
597.867	1	15
598.037	1	13
598.206	1	23
598.376	1	6
598.546	1	19
598.716	1	0
598.885	1	6
599.055	1	14
599.225	1	13
599.395	1	16
599.565	1	15
599.734	1	12
599.904	1	10
600.074	1	13
600.244	1	7
600.413	1	8
600.583	1	12
600.753	1	26
600.923	1	11
601.092	1	9
601.262	1	9
601.432	1	21
601.602	1	19
601.771	1	8
601.941	1	23
602.111	1	12
602.281	1	8
602.451	1	6
602.620	1	18
602.790	1	13
602.960	1	3
603.130	1	8
603.299	1	7
603.469	1	20
603.639	1	-4
603.809	1	10
603.978	1	3
604.148	1	14
604.318	1	9
604.487	1	17
604.657	1	1
604.827	1	18
604.997	1	21
605.166	1	5
605.336	1	3
605.506	1	8
605.676	1	12
605.845	1	3
606.015	1	2
606.185	1	10
606.355	1	0
606.524	1	12
606.694	1	8
606.864	1	4
607.034	1	11
607.203	1	23
607.373	1	4
607.543	1	1
607.712	1	9
607.882	1	5
608.052	1	14
608.222	1	16
608.391	1	18
608.561	1	1
608.731	1	-1
608.901	1	10
609.070	1	5
609.240	1	0
609.410	1	10
609.579	1	9
609.749	1	7
609.919	1	6
610.089	1	8
610.258	1	9
610.428	1	21
610.598	1	12
610.767	1	19
610.937	1	17
611.107	1	11
611.277	1	3
611.446	1	9
611.616	1	10
611.786	1	12
611.955	1	4
612.125	1	13
612.295	1	8
612.465	1	3
612.634	1	13
612.804	1	27
612.974	1	-1
613.143	1	5
613.313	1	15
613.483	1	9
613.652	1	5
613.822	1	9
613.992	1	4
614.162	1	1
614.331	1	4
614.501	1	8
614.671	1	9
614.840	1	-2
615.010	1	11
615.180	1	18
615.349	1	27
615.519	1	6
615.689	1	-5
615.858	1	15
616.028	1	4
616.198	1	-2
616.368	1	6
616.537	1	5
616.707	1	6
616.877	1	13
617.046	1	9
617.216	1	6
617.386	1	5
617.555	1	-4
617.725	1	8
617.895	1	14
618.064	1	7
618.234	1	2
618.404	1	0
618.573	1	14
618.743	1	25
618.913	1	12
619.082	1	2
619.252	1	2
619.422	1	-2
619.591	1	-5
619.761	1	-6
619.931	1	4
620.100	1	9
620.270	1	15
620.440	1	10
620.609	1	11
620.779	1	15
620.949	1	5
621.118	1	6
621.288	1	5
621.458	1	13
621.627	1	4
621.797	1	-2
621.967	1	3
622.136	1	8
622.306	1	5
622.476	1	8
622.645	1	-4
622.815	1	11
622.985	1	8
623.154	1	12
623.324	1	1
623.494	1	0
623.663	1	11
623.833	1	12
624.002	1	9
624.172	1	4
624.342	1	14
624.511	1	4
624.681	1	-1
624.851	1	-6
625.020	1	7
625.190	1	9
625.360	1	2
625.529	1	7
625.699	1	-2
625.869	1	11
626.038	1	-4
626.208	1	16
626.377	1	-2
626.547	1	1
626.717	1	-6
626.886	1	1
627.056	1	-3
627.226	1	7
627.395	1	8
627.565	1	13
627.735	1	6
627.904	1	12
628.074	1	14
628.243	1	4
628.413	1	0
628.583	1	5
628.752	1	-2
628.922	1	7
629.091	1	6
629.261	1	8
629.431	1	13
629.600	1	5
629.770	1	15
629.940	1	-2
630.109	1	9
630.279	1	20
630.448	1	0
630.618	1	20
630.788	1	3
630.957	1	12
631.127	1	-1
631.297	1	-1
631.466	1	10
631.636	1	13
631.805	1	3
631.975	1	-4
632.145	1	12
632.314	1	10
632.484	1	10
632.653	1	10
632.823	1	3
632.993	1	10
633.162	1	-3
633.332	1	1
633.501	1	6
633.671	1	2
633.841	1	-5
634.010	1	20
634.180	1	5
634.349	1	15
634.519	1	7
634.689	1	1
634.858	1	-7
635.028	1	-4
635.197	1	1
635.367	1	6
635.537	1	8
635.706	1	12
635.876	1	6
636.045	1	3
636.215	1	15
636.384	1	11
636.554	1	4
636.724	1	6
636.893	1	2
637.063	1	5
637.232	1	12
637.402	1	-1
637.572	1	7
637.741	1	9
637.911	1	1
638.080	1	3
638.250	1	6
638.419	1	5
638.589	1	16
638.759	1	3
638.928	1	16
639.098	1	10
639.267	1	5
639.437	1	3
639.606	1	7
639.776	1	11
639.946	1	5
640.115	1	0
640.285	1	16
640.454	1	12
640.624	1	5
640.793	1	-3
640.963	1	5
641.132	1	11
641.302	1	1
641.472	1	-3
641.641	1	-7
641.811	1	2
641.980	1	12
642.150	1	2
642.319	1	13
642.489	1	3
642.659	1	10
642.828	1	2
642.998	1	13
643.167	1	-2
643.337	1	10
643.506	1	1
643.676	1	2
643.845	1	15
644.015	1	9
644.184	1	-6
644.354	1	10
644.524	1	4
644.693	1	9
644.863	1	3
645.032	1	7
645.202	1	-1
645.371	1	-6
645.541	1	7
645.710	1	7
645.880	1	-7
646.049	1	1
646.219	1	4
646.388	1	3
646.558	1	3
646.728	1	-5
646.897	1	2
647.067	1	5
647.236	1	6
647.406	1	12
647.575	1	11
647.745	1	0
647.914	1	-2
648.084	1	5
648.253	1	3
648.423	1	4
648.592	1	-2
648.762	1	16
648.931	1	11
649.101	1	8
649.270	1	-1
649.440	1	1
649.610	1	7
649.779	1	3
649.949	1	11
650.118	1	1
650.288	1	10
650.457	1	10
650.627	1	9
650.796	1	7
650.966	1	-12
651.135	1	9
651.305	1	-6
651.474	1	11
651.644	1	13
651.813	1	8
651.983	1	7
652.152	1	14
652.322	1	-2
652.491	1	8
652.661	1	1
652.830	1	7
653.000	1	-2
653.169	1	6
653.339	1	3
653.508	1	4
653.678	1	6
653.847	1	-1
654.017	1	2
654.186	1	4
654.356	1	-3
654.525	1	-3
654.695	1	-2
654.864	1	5
655.034	1	7
655.203	1	-2
655.373	1	9
655.542	1	4
655.712	1	9
655.881	1	17
656.051	1	5
656.220	1	8
656.390	1	7
656.559	1	-3
656.729	1	4
656.898	1	4
657.068	1	-3
657.237	1	16
657.406	1	7
657.576	1	0
657.745	1	7
657.915	1	-6
658.084	1	7
658.254	1	6
658.423	1	9
658.593	1	8
658.762	1	4
658.932	1	-5
659.101	1	5
659.271	1	5
659.440	1	12
659.610	1	-5
659.779	1	13
659.949	1	4
660.118	1	10
660.288	1	-5
660.457	1	10
660.626	1	2
660.796	1	5
660.965	1	2
661.135	1	-6
661.304	1	10
661.474	1	2
661.643	1	5
661.813	1	1
661.982	1	-1
662.152	1	0
662.321	1	5
662.491	1	3
662.660	1	4
662.829	1	10
662.999	1	-1
663.168	1	1
663.338	1	9
663.507	1	2
663.677	1	5
663.846	1	5
664.016	1	-3
664.185	1	1
664.354	1	11
664.524	1	6
664.693	1	-6
664.863	1	-8
665.032	1	1
665.202	1	2
665.371	1	-12
665.541	1	14
665.710	1	1
665.879	1	4
666.049	1	-3
666.218	1	4
666.388	1	6
666.557	1	3
666.727	1	3
666.896	1	10
667.065	1	5
667.235	1	11
667.404	1	6
667.574	1	1
667.743	1	2
667.913	1	13
668.082	1	6
668.251	1	12
668.421	1	6
668.590	1	3
668.760	1	4
668.929	1	9
669.099	1	2
669.268	1	-6
669.437	1	5
669.607	1	8
669.776	1	17
669.946	1	-1
670.115	1	-12
670.285	1	17
670.454	1	5
670.623	1	3
670.793	1	10
670.962	1	0
671.132	1	1
671.301	1	3
671.470	1	8
671.640	1	4
671.809	1	-1
671.979	1	9
672.148	1	5
672.317	1	-3
672.487	1	10
672.656	1	3
672.826	1	2
672.995	1	5
673.164	1	-6
673.334	1	4
673.503	1	-5
673.673	1	5
673.842	1	11
674.011	1	16
674.181	1	8
674.350	1	-3
674.520	1	6
674.689	1	-8
674.858	1	-2
675.028	1	8
675.197	1	3
675.367	1	0
675.536	1	3
675.705	1	7
675.875	1	-1
676.044	1	-7
676.214	1	-2
676.383	1	15
676.552	1	-1
676.722	1	1
676.891	1	5
677.060	1	2
677.230	1	2
677.399	1	-6
677.569	1	12
677.738	1	5
677.907	1	1
678.077	1	4
678.246	1	7
678.416	1	19
678.585	1	8
678.754	1	9
678.924	1	12
679.093	1	5
679.262	1	-2
679.432	1	11
679.601	1	7
679.771	1	7
679.940	1	11
680.109	1	5
680.279	1	14
680.448	1	15
680.617	1	2
680.787	1	8
680.956	1	9
681.125	1	-1
681.295	1	-2
681.464	1	-4
681.634	1	10
681.803	1	9
681.972	1	7
682.142	1	-7
682.311	1	10
682.480	1	7
682.650	1	13
682.819	1	12
682.988	1	-1
683.158	1	10
683.327	1	16
683.496	1	9
683.666	1	14
683.835	1	1
684.004	1	3
684.174	1	0
684.343	1	4
684.512	1	5
684.682	1	5
684.851	1	6
685.021	1	-7
685.190	1	9
685.359	1	-1
685.529	1	10
685.698	1	5
685.867	1	8
686.037	1	1
686.206	1	1
686.375	1	8
686.545	1	13
686.714	1	-5
686.883	1	11
687.053	1	-2
687.222	1	6
687.391	1	13
687.561	1	18
687.730	1	2
687.899	1	4
688.069	1	9
688.238	1	2
688.407	1	10
688.577	1	3
688.746	1	12
