340.368	1	8
340.539	1	8
340.710	1	3
340.881	1	2
341.052	1	-5
341.223	1	13
341.394	1	-10
341.565	1	7
341.737	1	-3
341.908	1	-8
342.079	1	0
342.250	1	-7
342.421	1	5
342.592	1	4
342.763	1	9
342.934	1	-6
343.105	1	2
343.276	1	7
343.447	1	-11
343.618	1	-3
343.789	1	-7
343.960	1	-5
344.131	1	-1
344.302	1	-6
344.473	1	-1
344.644	1	-1
344.815	1	-10
344.986	1	6
345.157	1	3
345.328	1	-12
345.499	1	7
345.670	1	-8
345.841	1	-4
346.012	1	1
346.183	1	16
346.354	1	5
346.526	1	-2
346.697	1	4
346.868	1	-6
347.039	1	-5
347.210	1	4
347.381	1	5
347.552	1	0
347.723	1	-1
347.894	1	-2
348.065	1	14
348.236	1	6
348.407	1	-11
348.578	1	3
348.749	1	-3
348.920	1	4
349.091	1	7
349.262	1	-4
349.433	1	1
349.604	1	6
349.775	1	3
349.946	1	-1
350.117	1	2
350.288	1	3
350.459	1	2
350.630	1	6
350.801	1	-4
350.972	1	4
351.143	1	-1
351.314	1	-4
351.485	1	6
351.656	1	0
351.827	1	-2
351.998	1	12
352.169	1	4
352.340	1	1
352.511	1	4
352.682	1	9
352.853	1	3
353.024	1	1
353.195	1	-5
353.366	1	-1
353.537	1	5
353.708	1	6
353.879	1	-23
354.050	1	1
354.221	1	0
354.392	1	15
354.563	1	13
354.734	1	-10
354.905	1	7
355.076	1	17
355.247	1	9
355.418	1	4
355.589	1	0
355.760	1	17
355.931	1	8
356.102	1	-8
356.273	1	-9
356.444	1	-1
356.615	1	7
356.785	1	8
356.956	1	-1
357.127	1	7
357.298	1	3
357.469	1	-1
357.640	1	9
357.811	1	-3
357.982	1	2
358.153	1	9
358.324	1	10
358.495	1	1
358.666	1	-2
358.837	1	14
359.008	1	1
359.179	1	3
359.350	1	3
359.521	1	11
359.692	1	6
359.863	1	9
360.034	1	3
360.205	1	-10
360.376	1	4
360.547	1	-1
360.718	1	13
360.889	1	1
361.060	1	5
361.231	1	-3
361.401	1	1
361.572	1	2
361.743	1	14
361.914	1	14
362.085	1	9
362.256	1	16
362.427	1	-2
362.598	1	-1
362.769	1	9
362.940	1	10
363.111	1	17
363.282	1	8
363.453	1	-2
363.624	1	11
363.795	1	2
363.966	1	12
364.137	1	15
364.308	1	14
364.478	1	11
364.649	1	13
364.820	1	18
364.991	1	13
365.162	1	16
365.333	1	5
365.504	1	6
365.675	1	12
365.846	1	7
366.017	1	21
366.188	1	14
366.359	1	14
366.530	1	17
366.701	1	14
366.871	1	16
367.042	1	22
367.213	1	22
367.384	1	14
367.555	1	25
367.726	1	13
367.897	1	28
368.068	1	22
368.239	1	7
368.410	1	11
368.581	1	16
368.752	1	25
368.923	1	16
369.093	1	16
369.264	1	10
369.435	1	15
369.606	1	12
369.777	1	18
369.948	1	9
370.119	1	12
370.290	1	4
370.461	1	22
370.632	1	9
370.803	1	23
370.973	1	3
371.144	1	5
371.315	1	-2
371.486	1	10
371.657	1	2
371.828	1	19
371.999	1	-3
372.170	1	13
372.341	1	3
372.512	1	10
372.682	1	6
372.853	1	5
373.024	1	19
373.195	1	12
373.366	1	2
373.537	1	10
373.708	1	8
373.879	1	7
374.050	1	6
374.220	1	12
374.391	1	14
374.562	1	4
374.733	1	11
374.904	1	15
375.075	1	11
375.246	1	-11
375.417	1	14
375.588	1	12
375.758	1	9
375.929	1	14
376.100	1	9
376.271	1	8
376.442	1	5
376.613	1	11
376.784	1	16
376.955	1	-4
377.125	1	5
377.296	1	2
377.467	1	5
377.638	1	10
377.809	1	9
377.980	1	13
378.151	1	7
378.321	1	10
378.492	1	9
378.663	1	-5
378.834	1	19
379.005	1	3
379.176	1	-7
379.347	1	6
379.518	1	8
379.688	1	-3
379.859	1	-3
380.030	1	10
380.201	1	18
380.372	1	9
380.543	1	15
380.714	1	4
380.884	1	5
381.055	1	4
381.226	1	7
381.397	1	7
381.568	1	9
381.739	1	3
381.910	1	-3
382.080	1	9
382.251	1	-1
382.422	1	2
382.593	1	3
382.764	1	-6
382.935	1	5
383.105	1	2
383.276	1	11
383.447	1	11
383.618	1	10
383.789	1	10
383.960	1	0
384.130	1	7
384.301	1	8
384.472	1	1
384.643	1	13
384.814	1	3
384.985	1	3
385.156	1	13
385.326	1	10
385.497	1	8
385.668	1	10
385.839	1	18
386.010	1	17
386.180	1	10
386.351	1	5
386.522	1	3
386.693	1	9
386.864	1	11
387.035	1	18
387.205	1	11
387.376	1	6
387.547	1	10
387.718	1	9
387.889	1	16
388.060	1	11
388.230	1	9
388.401	1	15
388.572	1	10
388.743	1	-5
388.914	1	6
389.084	1	11
389.255	1	17
389.426	1	2
389.597	1	12
389.768	1	15
389.939	1	11
390.109	1	6
390.280	1	6
390.451	1	7
390.622	1	15
390.793	1	11
390.963	1	9
391.134	1	-3
391.305	1	3
391.476	1	14
391.647	1	3
391.817	1	1
391.988	1	-3
392.159	1	8
392.330	1	3
392.501	1	6
392.671	1	3
392.842	1	12
393.013	1	17
393.184	1	3
393.355	1	12
393.525	1	5
393.696	1	-1
393.867	1	16
394.038	1	6
394.208	1	9
394.379	1	0
394.550	1	4
394.721	1	-4
394.892	1	-1
395.062	1	17
395.233	1	6
395.404	1	2
395.575	1	4
395.746	1	14
395.916	1	4
396.087	1	3
396.258	1	12
396.429	1	2
396.599	1	2
396.770	1	15
396.941	1	1
397.112	1	6
397.283	1	-5
397.453	1	7
397.624	1	7
397.795	1	10
397.966	1	16
398.136	1	1
398.307	1	8
398.478	1	-1
398.649	1	10
398.819	1	17
398.990	1	9
399.161	1	9
399.332	1	11
399.503	1	6
399.673	1	1
399.844	1	6
400.015	1	9
400.186	1	-3
400.356	1	1
400.527	1	17
400.698	1	4
400.869	1	-5
401.039	1	1
401.210	1	-1
401.381	1	-1
401.552	1	12
401.722	1	8
401.893	1	11
402.064	1	7
402.235	1	-5
402.405	1	-5
402.576	1	-8
402.747	1	7
402.918	1	6
403.088	1	2
403.259	1	2
403.430	1	3
403.601	1	0
403.771	1	17
403.942	1	4
404.113	1	5
404.284	1	7
404.454	1	3
404.625	1	4
404.796	1	-9
404.967	1	10
405.137	1	9
405.308	1	8
405.479	1	8
405.649	1	13
405.820	1	-1
405.991	1	-9
406.162	1	6
406.332	1	-8
406.503	1	-3
406.674	1	2
406.845	1	7
407.015	1	6
407.186	1	6
407.357	1	11
407.527	1	5
407.698	1	7
407.869	1	7
408.040	1	10
408.210	1	10
408.381	1	-3
408.552	1	-5
408.722	1	-8
408.893	1	7
409.064	1	-3
409.235	1	6
409.405	1	16
409.576	1	6
409.747	1	5
409.917	1	6
410.088	1	1
410.259	1	1
410.430	1	0
410.600	1	-2
410.771	1	4
410.942	1	-1
411.112	1	2
411.283	1	-1
411.454	1	-1
411.625	1	-5
411.795	1	4
411.966	1	15
412.137	1	7
412.307	1	8
412.478	1	6
412.649	1	-3
412.819	1	6
412.990	1	-2
413.161	1	0
413.332	1	7
413.502	1	-5
413.673	1	13
413.844	1	16
414.014	1	0
414.185	1	11
414.356	1	3
414.526	1	0
414.697	1	8
414.868	1	-7
415.038	1	3
415.209	1	-14
415.380	1	0
415.550	1	3
415.721	1	7
415.892	1	6
416.063	1	4
416.233	1	10
416.404	1	-1
416.575	1	7
416.745	1	-2
416.916	1	5
417.087	1	7
417.257	1	8
417.428	1	-5
417.599	1	3
417.769	1	-1
417.940	1	3
418.111	1	6
418.281	1	-3
418.452	1	5
418.623	1	-1
418.793	1	6
418.964	1	-6
419.135	1	1
419.305	1	-3
419.476	1	1
419.647	1	5
419.817	1	8
419.988	1	3
420.159	1	2
420.329	1	9
420.500	1	11
420.671	1	-6
420.841	1	0
421.012	1	-2
421.183	1	4
421.353	1	0
421.524	1	10
421.695	1	0
421.865	1	14
422.036	1	-5
422.206	1	5
422.377	1	7
422.548	1	12
422.718	1	4
422.889	1	-8
423.060	1	2
423.230	1	4
423.401	1	13
423.572	1	7
423.742	1	2
423.913	1	5
424.084	1	-3
424.254	1	2
424.425	1	0
424.595	1	-3
424.766	1	2
424.937	1	4
425.107	1	2
425.278	1	-2
425.449	1	3
425.619	1	0
425.790	1	-2
425.961	1	-1
426.131	1	-7
426.302	1	16
426.472	1	-4
426.643	1	-6
426.814	1	-11
426.984	1	9
427.155	1	-8
427.326	1	3
427.496	1	-2
427.667	1	4
427.837	1	12
428.008	1	-1
428.179	1	-1
428.349	1	-15
428.520	1	3
428.691	1	0
428.861	1	5
429.032	1	-2
429.202	1	8
429.373	1	-1
429.544	1	2
429.714	1	-1
429.885	1	8
430.055	1	-5
430.226	1	0
430.397	1	1
430.567	1	7
430.738	1	-3
430.909	1	-4
431.079	1	1
431.250	1	-10
431.420	1	-3
431.591	1	3
431.762	1	7
431.932	1	4
432.103	1	7
432.273	1	9
432.444	1	-2
432.615	1	-3
432.785	1	1
432.956	1	0
433.126	1	4
433.297	1	1
433.468	1	1
433.638	1	8
433.809	1	-1
433.979	1	1
434.150	1	12
434.320	1	-2
434.491	1	2
434.662	1	5
434.832	1	-3
435.003	1	9
435.173	1	3
435.344	1	-3
435.515	1	1
435.685	1	-5
435.856	1	0
436.026	1	-3
436.197	1	-4
436.368	1	-1
436.538	1	-1
436.709	1	-11
436.879	1	5
437.050	1	7
437.220	1	-18
437.391	1	8
437.562	1	7
437.732	1	9
437.903	1	-1
438.073	1	-5
438.244	1	-14
438.414	1	1
438.585	1	-8
438.756	1	8
438.926	1	1
439.097	1	14
439.267	1	3
439.438	1	3
439.608	1	4
439.779	1	-10
439.949	1	-3
440.120	1	2
440.291	1	10
440.461	1	-7
440.632	1	15
440.802	1	0
440.973	1	-8
441.143	1	-3
441.314	1	-3
441.485	1	-3
441.655	1	-2
441.826	1	-7
441.996	1	-2
442.167	1	0
442.337	1	8
442.508	1	5
442.678	1	-4
442.849	1	-13
443.019	1	-4
443.190	1	4
443.361	1	1
443.531	1	12
443.702	1	-9
443.872	1	2
444.043	1	2
444.213	1	4
444.384	1	-1
444.554	1	-3
444.725	1	4
444.895	1	-6
445.066	1	0
445.237	1	2
445.407	1	4
445.578	1	6
445.748	1	-3
445.919	1	1
446.089	1	-7
446.260	1	-4
446.430	1	-1
446.601	1	12
446.771	1	-11
446.942	1	-2
447.112	1	-2
447.283	1	-4
447.453	1	0
447.624	1	-7
447.794	1	0
447.965	1	6
448.135	1	0
448.306	1	1
448.477	1	1
448.647	1	3
448.818	1	-9
448.988	1	-2
449.159	1	8
449.329	1	11
449.500	1	-5
449.670	1	-4
449.841	1	-4
450.011	1	3
450.182	1	-2
450.352	1	5
450.523	1	-1
450.693	1	14
450.864	1	2
451.034	1	10
451.205	1	5
451.375	1	6
451.546	1	-4
451.716	1	4
451.887	1	-6
452.057	1	14
452.228	1	4
452.398	1	11
452.569	1	-5
452.739	1	-3
452.910	1	-3
453.080	1	1
453.251	1	6
453.421	1	-5
453.592	1	8
453.762	1	3
453.933	1	4
454.103	1	1
454.274	1	-2
454.444	1	9
454.615	1	6
454.785	1	1
454.956	1	5
455.126	1	-2
455.297	1	5
455.467	1	-9
455.638	1	5
455.808	1	-7
455.979	1	-1
456.149	1	1
456.320	1	8
456.490	1	-2
456.661	1	-6
456.831	1	-4
457.001	1	6
457.172	1	1
457.342	1	3
457.513	1	6
457.683	1	0
457.854	1	6
458.024	1	-6
458.195	1	5
458.365	1	1
458.536	1	-3
458.706	1	9
458.877	1	-7
459.047	1	7
459.218	1	0
459.388	1	12
459.559	1	-8
459.729	1	1
459.899	1	-3
460.070	1	-7
460.240	1	-6
460.411	1	-1
460.581	1	6
460.752	1	1
460.922	1	13
461.093	1	-3
461.263	1	2
461.434	1	8
461.604	1	14
461.775	1	0
461.945	1	-3
462.115	1	4
462.286	1	5
462.456	1	0
462.627	1	1
462.797	1	-11
462.968	1	-10
463.138	1	5
463.309	1	-4
463.479	1	-4
463.649	1	-5
463.820	1	-3
463.990	1	2
464.161	1	2
464.331	1	8
464.502	1	-2
464.672	1	-13
464.843	1	1
465.013	1	-8
465.183	1	-1
465.354	1	14
465.524	1	-8
465.695	1	4
465.865	1	8
466.036	1	3
466.206	1	2
466.376	1	-13
466.547	1	-6
466.717	1	1
466.888	1	-4
467.058	1	1
467.229	1	9
467.399	1	-2
467.569	1	10
467.740	1	-2
467.910	1	9
468.081	1	-2
468.251	1	-4
468.422	1	-3
468.592	1	3
468.762	1	-9
468.933	1	-1
469.103	1	1
469.274	1	5
469.444	1	6
469.614	1	6
469.785	1	2
469.955	1	3
470.126	1	6
470.296	1	5
470.467	1	-11
470.637	1	4
470.807	1	8
470.978	1	-3
471.148	1	-6
471.319	1	9
471.489	1	-10
471.659	1	3
471.830	1	3
472.000	1	3
472.171	1	1
472.341	1	-7
472.511	1	11
472.682	1	-8
472.852	1	-2
473.023	1	0
473.193	1	0
473.363	1	0
473.534	1	0
473.704	1	-2
473.875	1	-2
474.045	1	3
474.215	1	2
474.386	1	5
474.556	1	3
474.727	1	-4
474.897	1	5
475.067	1	-6
475.238	1	-5
475.408	1	-10
475.578	1	8
475.749	1	-2
475.919	1	-2
476.090	1	4
476.260	1	-11
476.430	1	5
476.601	1	2
476.771	1	2
476.942	1	7
477.112	1	5
477.282	1	6
477.453	1	3
477.623	1	8
477.793	1	-5
477.964	1	-5
478.134	1	-5
478.305	1	1
478.475	1	4
478.645	1	1
478.816	1	-5
478.986	1	0
479.156	1	-7
479.327	1	-2
479.497	1	5
479.667	1	6
479.838	1	-6
480.008	1	4
480.179	1	-7
480.349	1	4
480.519	1	-1
480.690	1	-7
480.860	1	3
481.030	1	3
481.201	1	-5
481.371	1	14
481.541	1	8
481.712	1	-2
481.882	1	-3
482.053	1	2
482.223	1	0
482.393	1	2
482.564	1	-1
482.734	1	5
482.904	1	-3
483.075	1	-1
483.245	1	6
483.415	1	-4
483.586	1	-1
483.756	1	9
483.926	1	0
484.097	1	1
484.267	1	-11
484.437	1	4
484.608	1	0
484.778	1	-1
484.948	1	3
485.119	1	-8
485.289	1	-4
485.459	1	-2
485.630	1	1
485.800	1	3
485.970	1	3
486.141	1	-2
486.311	1	0
486.481	1	-6
486.652	1	-2
486.822	1	-1
486.992	1	7
487.163	1	3
487.333	1	-1
487.503	1	-4
487.674	1	-3
487.844	1	-1
488.014	1	2
488.185	1	1
488.355	1	0
488.525	1	1
488.696	1	-8
488.866	1	1
489.036	1	7
489.207	1	5
489.377	1	-7
489.547	1	2
489.718	1	5
489.888	1	-1
490.058	1	0
490.228	1	-8
490.399	1	7
490.569	1	-2
490.739	1	4
490.910	1	-16
491.080	1	1
491.250	1	4
491.421	1	6
491.591	1	-10
491.761	1	-4
491.932	1	0
492.102	1	-1
492.272	1	8
492.442	1	5
492.613	1	5
492.783	1	4
492.953	1	6
493.124	1	3
493.294	1	-1
493.464	1	11
493.635	1	-4
493.805	1	10
493.975	1	-3
494.145	1	3
494.316	1	2
494.486	1	7
494.656	1	-7
494.827	1	10
494.997	1	-7
495.167	1	9
495.337	1	1
495.508	1	1
495.678	1	3
495.848	1	2
496.019	1	7
496.189	1	-1
496.359	1	1
496.529	1	4
496.700	1	5
496.870	1	13
497.040	1	1
497.211	1	-1
497.381	1	9
497.551	1	-3
497.721	1	0
497.892	1	9
498.062	1	8
498.232	1	5
498.403	1	-1
498.573	1	13
498.743	1	9
498.913	1	5
499.084	1	10
499.254	1	-8
499.424	1	1
499.594	1	4
499.765	1	4
499.935	1	-5
500.105	1	11
500.275	1	8
500.446	1	1
500.616	1	6
500.786	1	5
500.956	1	8
501.127	1	4
501.297	1	0
501.467	1	1
501.638	1	2
501.808	1	-5
501.978	1	-2
502.148	1	-2
502.319	1	11
502.489	1	2
502.659	1	10
502.829	1	9
503.000	1	0
503.170	1	-4
503.340	1	7
503.510	1	-4
503.681	1	4
503.851	1	-4
504.021	1	0
504.191	1	1
504.362	1	6
504.532	1	-2
504.702	1	-1
504.872	1	-8
505.042	1	5
505.213	1	8
505.383	1	0
505.553	1	12
505.723	1	6
505.894	1	5
506.064	1	0
506.234	1	-5
506.404	1	1
506.575	1	-8
506.745	1	9
506.915	1	7
507.085	1	0
507.256	1	1
507.426	1	11
507.596	1	2
507.766	1	4
507.936	1	-4
508.107	1	16
508.277	1	-4
508.447	1	0
508.617	1	-2
508.788	1	5
508.958	1	10
509.128	1	9
509.298	1	-2
509.468	1	10
509.639	1	3
509.809	1	8
509.979	1	-3
510.149	1	8
510.319	1	2
510.490	1	1
510.660	1	9
510.830	1	-2
511.000	1	-8
511.171	1	-5
511.341	1	6
511.511	1	3
511.681	1	13
511.851	1	2
512.022	1	-8
512.192	1	6
512.362	1	4
512.532	1	0
512.702	1	7
512.873	1	6
513.043	1	14
513.213	1	3
513.383	1	4
513.553	1	10
513.724	1	-1
513.894	1	7
514.064	1	7
514.234	1	11
514.404	1	8
514.575	1	-5
514.745	1	-4
514.915	1	-14
515.085	1	4
515.255	1	1
515.425	1	13
515.596	1	7
515.766	1	3
515.936	1	-1
516.106	1	1
516.276	1	3
516.447	1	10
516.617	1	-4
516.787	1	-3
516.957	1	13
517.127	1	5
517.297	1	3
517.468	1	-2
517.638	1	-7
517.808	1	9
517.978	1	11
518.148	1	8
518.319	1	10
518.489	1	1
518.659	1	2
518.829	1	3
518.999	1	10
519.169	1	-1
519.340	1	12
519.510	1	6
519.680	1	2
519.850	1	4
520.020	1	6
520.190	1	-3
520.361	1	7
520.531	1	2
520.701	1	13
520.871	1	4
521.041	1	10
521.211	1	4
521.382	1	4
521.552	1	-7
521.722	1	7
521.892	1	9
522.062	1	-1
522.232	1	15
522.402	1	9
522.573	1	-1
522.743	1	9
522.913	1	13
523.083	1	8
523.253	1	8
523.423	1	5
523.593	1	4
523.764	1	4
523.934	1	11
524.104	1	-1
524.274	1	7
524.444	1	12
524.614	1	1
524.784	1	0
524.955	1	13
525.125	1	3
525.295	1	1
525.465	1	11
525.635	1	5
525.805	1	13
525.975	1	-4
526.146	1	6
526.316	1	6
526.486	1	6
526.656	1	8
526.826	1	11
526.996	1	8
527.166	1	-2
527.337	1	3
527.507	1	15
527.677	1	3
527.847	1	12
528.017	1	4
528.187	1	5
528.357	1	7
528.527	1	8
528.698	1	-2
528.868	1	-5
529.038	1	7
529.208	1	-3
529.378	1	4
529.548	1	3
529.718	1	13
529.888	1	13
530.058	1	8
530.229	1	13
530.399	1	-6
530.569	1	-2
530.739	1	-6
530.909	1	-5
531.079	1	-16
531.249	1	2
531.419	1	2
531.589	1	7
531.760	1	7
531.930	1	18
532.100	1	-6
532.270	1	5
532.440	1	-1
532.610	1	14
532.780	1	8
532.950	1	3
533.120	1	12
533.290	1	5
533.461	1	6
533.631	1	7
533.801	1	7
533.971	1	0
534.141	1	9
534.311	1	1
534.481	1	12
534.651	1	-2
534.821	1	-6
534.991	1	11
535.162	1	4
535.332	1	6
535.502	1	9
535.672	1	4
535.842	1	9
536.012	1	2
536.182	1	12
536.352	1	7
536.522	1	2
536.692	1	9
536.862	1	-1
537.032	1	2
537.203	1	18
537.373	1	9
537.543	1	7
537.713	1	8
537.883	1	-6
538.053	1	8
538.223	1	5
538.393	1	12
538.563	1	9
538.733	1	15
538.903	1	4
539.073	1	2
539.243	1	12
539.413	1	4
539.584	1	0
539.754	1	7
539.924	1	0
540.094	1	4
540.264	1	-3
540.434	1	6
540.604	1	1
540.774	1	1
540.944	1	2
541.114	1	-3
541.284	1	-5
541.454	1	0
541.624	1	18
541.794	1	1
541.964	1	-7
542.134	1	6
542.305	1	18
542.475	1	-9
542.645	1	8
542.815	1	-1
542.985	1	13
543.155	1	6
543.325	1	6
543.495	1	12
543.665	1	-3
543.835	1	-4
544.005	1	-7
544.175	1	7
544.345	1	3
544.515	1	6
544.685	1	20
544.855	1	6
545.025	1	16
545.195	1	7
545.365	1	5
545.535	1	-4
545.705	1	19
545.875	1	1
546.045	1	7
546.216	1	1
546.386	1	7
546.556	1	0
546.726	1	5
546.896	1	-5
547.066	1	10
547.236	1	5
547.406	1	-1
547.576	1	10
547.746	1	13
547.916	1	13
548.086	1	13
548.256	1	-9
548.426	1	4
548.596	1	9
548.766	1	16
548.936	1	9
549.106	1	10
549.276	1	21
549.446	1	13
549.616	1	6
549.786	1	0
549.956	1	0
550.126	1	-6
550.296	1	-1
550.466	1	5
550.636	1	4
550.806	1	16
550.976	1	7
551.146	1	-1
551.316	1	2
551.486	1	6
551.656	1	8
551.826	1	17
551.996	1	-5
552.166	1	2
552.336	1	2
552.506	1	10
552.676	1	10
552.846	1	3
553.016	1	11
553.186	1	10
553.356	1	-2
553.526	1	2
553.696	1	16
553.866	1	15
554.036	1	7
554.206	1	2
554.376	1	-5
554.546	1	5
554.716	1	4
554.886	1	16
555.056	1	4
555.226	1	6
555.396	1	4
555.566	1	9
555.736	1	9
555.906	1	9
556.076	1	19
556.246	1	-1
556.416	1	-11
556.586	1	-8
556.756	1	-11
556.926	1	2
557.096	1	8
557.266	1	6
557.436	1	6
557.606	1	-1
557.776	1	10
557.946	1	2
558.116	1	5
558.286	1	-3
558.456	1	-5
558.626	1	-5
558.796	1	-1
558.966	1	7
559.136	1	5
559.306	1	5
559.476	1	6
559.646	1	8
559.816	1	13
559.986	1	0
560.155	1	7
560.325	1	1
560.495	1	-5
560.665	1	0
560.835	1	8
561.005	1	10
561.175	1	2
561.345	1	3
561.515	1	-1
561.685	1	-3
561.855	1	-2
562.025	1	6
562.195	1	1
562.365	1	10
562.535	1	9
562.705	1	-3
562.875	1	3
563.045	1	3
563.215	1	3
563.385	1	-7
563.555	1	5
563.725	1	6
563.895	1	10
564.064	1	-8
564.234	1	-3
564.404	1	4
564.574	1	11
564.744	1	0
564.914	1	1
565.084	1	1
565.254	1	2
565.424	1	5
565.594	1	2
565.764	1	-5
565.934	1	-1
566.104	1	3
566.274	1	13
566.444	1	-3
566.614	1	5
566.783	1	4
566.953	1	-1
567.123	1	10
567.293	1	4
567.463	1	9
567.633	1	-2
567.803	1	2
567.973	1	10
568.143	1	-9
568.313	1	2
568.483	1	7
568.653	1	-6
568.823	1	-1
568.993	1	6
569.162	1	-2
569.332	1	0
569.502	1	8
569.672	1	-5
569.842	1	2
570.012	1	-4
570.182	1	2
570.352	1	6
570.522	1	3
570.692	1	9
570.862	1	3
571.031	1	-1
571.201	1	7
571.371	1	5
571.541	1	5
571.711	1	-12
571.881	1	16
572.051	1	-2
572.221	1	15
572.391	1	8
572.561	1	10
572.731	1	3
572.900	1	1
573.070	1	-1
573.240	1	0
573.410	1	9
573.580	1	-4
573.750	1	7
573.920	1	-1
574.090	1	9
574.260	1	0
574.430	1	1
574.599	1	-2
574.769	1	-4
574.939	1	-10
575.109	1	0
575.279	1	5
575.449	1	11
575.619	1	3
575.789	1	4
575.959	1	7
576.128	1	-4
576.298	1	-1
576.468	1	4
576.638	1	-4
576.808	1	4
576.978	1	0
577.148	1	4
577.318	1	14
577.487	1	2
577.657	1	1
577.827	1	-5
577.997	1	7
578.167	1	2
578.337	1	1
578.507	1	-6
578.677	1	0
578.846	1	12
579.016	1	4
579.186	1	8
579.356	1	5
579.526	1	-6
579.696	1	6
579.866	1	0
580.036	1	9
580.205	1	-4
580.375	1	0
580.545	1	-1
580.715	1	0
580.885	1	14
581.055	1	-4
581.225	1	2
581.394	1	-3
581.564	1	-2
581.734	1	-5
581.904	1	-1
582.074	1	0
582.244	1	4
582.414	1	3
582.583	1	-1
582.753	1	4
582.923	1	-1
583.093	1	4
583.263	1	7
583.433	1	4
583.603	1	-13
583.772	1	-15
583.942	1	4
584.112	1	6
584.282	1	3
584.452	1	5
584.622	1	-6
584.791	1	4
584.961	1	-13
585.131	1	8
585.301	1	-5
585.471	1	6
585.641	1	1
585.811	1	-5
585.980	1	-1
586.150	1	3
586.320	1	-4
586.490	1	2
586.660	1	4
586.830	1	-7
586.999	1	3
587.169	1	13
587.339	1	-5
587.509	1	3
587.679	1	5
587.849	1	13
588.018	1	-8
588.188	1	3
588.358	1	-5
588.528	1	3
588.698	1	-5
588.867	1	8
589.037	1	-5
589.207	1	6
589.377	1	8
589.547	1	9
589.717	1	-5
589.886	1	3
590.056	1	-1
590.226	1	-9
590.396	1	-11
590.566	1	-11
590.735	1	-7
590.905	1	1
591.075	1	1
591.245	1	6
591.415	1	8
591.585	1	4
591.754	1	-5
591.924	1	8
592.094	1	-8
592.264	1	-7
592.434	1	0
592.603	1	-1
592.773	1	-5
592.943	1	5
593.113	1	4
593.283	1	1
593.452	1	-5
593.622	1	3
593.792	1	10
593.962	1	4
594.132	1	9
594.301	1	11
594.471	1	9
594.641	1	3
594.811	1	-4
594.981	1	7
595.150	1	-6
595.320	1	-3
595.490	1	0
595.660	1	8
595.829	1	-5
595.999	1	-2
596.169	1	10
596.339	1	7
596.509	1	-1
596.678	1	-1
596.848	1	9
597.018	1	-1
597.188	1	2
597.358	1	-1
597.527	1	4
597.697	1	-6
597.867	1	10
598.037	1	4
598.206	1	13
598.376	1	-7
598.546	1	-3
598.716	1	-10
598.885	1	2
599.055	1	4
599.225	1	-3
599.395	1	3
599.565	1	-6
599.734	1	4
599.904	1	-8
600.074	1	2
600.244	1	2
600.413	1	11
600.583	1	-4
600.753	1	-3
600.923	1	-3
601.092	1	13
601.262	1	0
601.432	1	-2
601.602	1	10
601.771	1	1
601.941	1	6
602.111	1	7
602.281	1	-2
602.451	1	-6
602.620	1	3
602.790	1	-3
602.960	1	-5
603.130	1	-2
603.299	1	-1
603.469	1	-1
603.639	1	-12
603.809	1	13
603.978	1	0
604.148	1	11
604.318	1	-3
604.487	1	6
604.657	1	-9
604.827	1	6
604.997	1	11
605.166	1	-5
605.336	1	1
605.506	1	-1
605.676	1	9
605.845	1	2
606.015	1	-2
606.185	1	-1
606.355	1	-2
606.524	1	-5
606.694	1	2
606.864	1	3
607.034	1	10
607.203	1	10
607.373	1	-2
607.543	1	7
607.712	1	7
607.882	1	-2
608.052	1	4
608.222	1	10
608.391	1	14
608.561	1	-4
608.731	1	-8
608.901	1	3
609.070	1	-6
609.240	1	0
609.410	1	4
609.579	1	3
609.749	1	-3
609.919	1	-11
610.089	1	1
610.258	1	3
610.428	1	7
610.598	1	4
610.767	1	3
610.937	1	0
611.107	1	-3
611.277	1	-6
611.446	1	5
611.616	1	3
611.786	1	9
611.955	1	-1
612.125	1	9
612.295	1	0
612.465	1	5
612.634	1	3
612.804	1	7
612.974	1	-5
613.143	1	7
613.313	1	9
613.483	1	6
613.652	1	8
613.822	1	9
613.992	1	-11
614.162	1	2
614.331	1	5
614.501	1	3
614.671	1	1
614.840	1	-2
615.010	1	0
615.180	1	6
615.349	1	11
615.519	1	5
615.689	1	-3
615.858	1	11
616.028	1	5
616.198	1	-6
616.368	1	4
616.537	1	1
616.707	1	0
616.877	1	7
617.046	1	2
617.216	1	3
617.386	1	5
617.555	1	-6
617.725	1	1
617.895	1	-1
618.064	1	2
618.234	1	-1
618.404	1	-10
618.573	1	6
618.743	1	6
618.913	1	5
619.082	1	4
619.252	1	3
619.422	1	-4
619.591	1	-4
619.761	1	-2
619.931	1	4
620.100	1	14
620.270	1	2
620.440	1	-2
620.609	1	5
620.779	1	10
620.949	1	6
621.118	1	11
621.288	1	-11
621.458	1	0
621.627	1	5
621.797	1	-4
621.967	1	2
622.136	1	3
622.306	1	-4
622.476	1	3
622.645	1	8
622.815	1	6
622.985	1	1
623.154	1	7
623.324	1	3
623.494	1	-1
623.663	1	2
623.833	1	2
624.002	1	-5
624.172	1	-4
624.342	1	2
624.511	1	-4
624.681	1	0
624.851	1	-3
625.020	1	0
625.190	1	-1
625.360	1	-9
625.529	1	-8
625.699	1	6
625.869	1	1
626.038	1	-10
626.208	1	4
626.377	1	3
626.547	1	2
626.717	1	-8
626.886	1	-3
627.056	1	-3
627.226	1	7
627.395	1	-5
627.565	1	10
627.735	1	12
627.904	1	5
628.074	1	11
628.243	1	12
628.413	1	-4
628.583	1	-6
628.752	1	-5
628.922	1	5
629.091	1	-2
629.261	1	13
629.431	1	4
629.600	1	4
629.770	1	5
629.940	1	-6
630.109	1	1
630.279	1	2
630.448	1	-6
630.618	1	2
630.788	1	1
630.957	1	8
631.127	1	0
631.297	1	-3
631.466	1	-2
631.636	1	5
631.805	1	11
631.975	1	2
632.145	1	0
632.314	1	-2
632.484	1	12
632.653	1	-2
632.823	1	-6
632.993	1	5
633.162	1	7
633.332	1	-2
633.501	1	-4
633.671	1	-7
633.841	1	0
634.010	1	7
634.180	1	3
634.349	1	3
634.519	1	6
634.689	1	-3
634.858	1	-9
635.028	1	0
635.197	1	-4
635.367	1	8
635.537	1	-3
635.706	1	-3
635.876	1	0
636.045	1	4
636.215	1	14
636.384	1	-4
636.554	1	4
636.724	1	2
636.893	1	1
637.063	1	1
637.232	1	1
637.402	1	-5
637.572	1	-6
637.741	1	0
637.911	1	7
638.080	1	5
638.250	1	4
638.419	1	0
638.589	1	-3
638.759	1	1
638.928	1	-2
639.098	1	-1
639.267	1	14
639.437	1	9
639.606	1	2
639.776	1	2
639.946	1	11
640.115	1	-3
640.285	1	9
640.454	1	-1
640.624	1	4
640.793	1	3
640.963	1	1
641.132	1	9
641.302	1	-1
641.472	1	5
641.641	1	2
641.811	1	-3
641.980	1	1
642.150	1	-8
642.319	1	16
642.489	1	-7
642.659	1	4
642.828	1	7
642.998	1	9
643.167	1	-11
643.337	1	0
643.506	1	-10
643.676	1	-3
643.845	1	6
644.015	1	3
644.184	1	-6
644.354	1	-8
644.524	1	5
644.693	1	0
644.863	1	1
645.032	1	8
645.202	1	-5
645.371	1	1
645.541	1	9
645.710	1	1
645.880	1	-8
646.049	1	-7
646.219	1	-3
646.388	1	-4
646.558	1	7
646.728	1	-9
646.897	1	0
647.067	1	-4
647.236	1	7
647.406	1	12
647.575	1	9
647.745	1	3
647.914	1	-9
648.084	1	-4
648.253	1	4
648.423	1	3
648.592	1	-8
648.762	1	10
648.931	1	8
649.101	1	-1
649.270	1	3
649.440	1	6
649.610	1	-2
649.779	1	-1
649.949	1	5
650.118	1	8
650.288	1	6
650.457	1	7
650.627	1	10
650.796	1	-4
650.966	1	-14
651.135	1	13
651.305	1	-2
651.474	1	5
651.644	1	10
651.813	1	12
651.983	1	6
652.152	1	3
652.322	1	2
652.491	1	-2
652.661	1	7
652.830	1	-4
653.000	1	5
653.169	1	3
653.339	1	3
653.508	1	-10
653.678	1	7
653.847	1	-9
654.017	1	6
654.186	1	2
654.356	1	3
654.525	1	-16
654.695	1	1
654.864	1	-15
655.034	1	15
655.203	1	5
655.373	1	14
655.542	1	2
655.712	1	1
655.881	1	11
656.051	1	4
656.220	1	-2
656.390	1	6
656.559	1	-4
656.729	1	-1
656.898	1	4
657.068	1	-4
657.237	1	7
657.406	1	-1
657.576	1	3
657.745	1	6
657.915	1	-4
658.084	1	-2
658.254	1	3
658.423	1	2
658.593	1	8
658.762	1	9
658.932	1	-2
659.101	1	-2
659.271	1	-3
659.440	1	9
659.610	1	-3
659.779	1	12
659.949	1	-1
660.118	1	2
660.288	1	-15
660.457	1	15
660.626	1	1
660.796	1	-6
660.965	1	1
661.135	1	-7
661.304	1	1
661.474	1	0
661.643	1	-1
661.813	1	0
661.982	1	3
662.152	1	5
662.321	1	3
662.491	1	-6
662.660	1	6
662.829	1	7
662.999	1	6
663.168	1	3
663.338	1	12
663.507	1	-7
663.677	1	2
663.846	1	2
664.016	1	-5
664.185	1	-1
664.354	1	12
664.524	1	4
664.693	1	2
664.863	1	0
665.032	1	6
665.202	1	-7
665.371	1	-5
665.541	1	13
665.710	1	0
665.879	1	4
666.049	1	-5
666.218	1	2
666.388	1	7
666.557	1	5
666.727	1	-1
666.896	1	8
667.065	1	-5
667.235	1	11
667.404	1	-4
667.574	1	-4
667.743	1	-1
667.913	1	12
668.082	1	-3
668.251	1	-1
668.421	1	1
668.590	1	6
668.760	1	2
668.929	1	12
669.099	1	-3
669.268	1	3
669.437	1	-4
669.607	1	8
669.776	1	6
669.946	1	-5
670.115	1	-14
670.285	1	9
670.454	1	0
670.623	1	-3
670.793	1	3
670.962	1	-5
671.132	1	-15
671.301	1	8
671.470	1	-2
671.640	1	3
671.809	1	-3
671.979	1	12
672.148	1	6
672.317	1	1
672.487	1	-6
672.656	1	-5
672.826	1	-3
672.995	1	10
673.164	1	-6
673.334	1	0
673.503	1	-1
673.673	1	-3
673.842	1	10
674.011	1	9
674.181	1	10
674.350	1	1
674.520	1	0
674.689	1	-4
674.858	1	-8
675.028	1	4
675.197	1	8
675.367	1	1
675.536	1	1
675.705	1	1
675.875	1	-5
676.044	1	-7
676.214	1	7
676.383	1	7
676.552	1	2
676.722	1	-7
676.891	1	1
677.060	1	-8
677.230	1	9
677.399	1	-9
677.569	1	6
677.738	1	2
677.907	1	-9
678.077	1	5
678.246	1	-1
678.416	1	4
678.585	1	-2
678.754	1	7
678.924	1	13
679.093	1	-2
679.262	1	-11
679.432	1	6
679.601	1	0
679.771	1	-4
679.940	1	5
680.109	1	-11
680.279	1	3
680.448	1	5
680.617	1	-5
680.787	1	-8
680.956	1	5
681.125	1	12
681.295	1	-5
681.464	1	-8
681.634	1	1
681.803	1	-5
681.972	1	-5
682.142	1	3
682.311	1	14
682.480	1	2
682.650	1	8
682.819	1	-2
682.988	1	2
683.158	1	-5
683.327	1	14
683.496	1	5
683.666	1	5
683.835	1	-8
684.004	1	10
684.174	1	-6
684.343	1	-1
684.512	1	3
684.682	1	5
684.851	1	6
685.021	1	-5
685.190	1	1
685.359	1	-7
685.529	1	15
685.698	1	1
685.867	1	8
686.037	1	1
686.206	1	-2
686.375	1	-4
686.545	1	19
686.714	1	1
686.883	1	5
687.053	1	-9
687.222	1	-7
687.391	1	-1
687.561	1	9
687.730	1	1
687.899	1	-7
688.069	1	2
688.238	1	-6
688.407	1	4
688.577	1	3
688.746	1	5
