340.368	1	12
340.539	1	8
340.710	1	4
340.881	1	-4
341.052	1	0
341.223	1	12
341.394	1	-5
341.565	1	0
341.737	1	0
341.908	1	5
342.079	1	1
342.250	1	8
342.421	1	2
342.592	1	4
342.763	1	-5
342.934	1	3
343.105	1	0
343.276	1	-1
343.447	1	-18
343.618	1	-1
343.789	1	5
343.960	1	2
344.131	1	0
344.302	1	-13
344.473	1	-3
344.644	1	-3
344.815	1	4
344.986	1	2
345.157	1	9
345.328	1	3
345.499	1	4
345.670	1	-6
345.841	1	-4
346.012	1	3
346.183	1	12
346.354	1	3
346.526	1	-6
346.697	1	0
346.868	1	-3
347.039	1	-5
347.210	1	0
347.381	1	-3
347.552	1	6
347.723	1	11
347.894	1	2
348.065	1	10
348.236	1	6
348.407	1	3
348.578	1	3
348.749	1	-7
348.920	1	1
349.091	1	12
349.262	1	-2
349.433	1	0
349.604	1	-2
349.775	1	5
349.946	1	-3
350.117	1	-2
350.288	1	3
350.459	1	-3
350.630	1	6
350.801	1	6
350.972	1	10
351.143	1	5
351.314	1	-3
351.485	1	3
351.656	1	-4
351.827	1	-3
351.998	1	8
352.169	1	2
352.340	1	5
352.511	1	7
352.682	1	-4
352.853	1	-2
353.024	1	3
353.195	1	3
353.366	1	4
353.537	1	2
353.708	1	17
353.879	1	-3
354.050	1	8
354.221	1	-1
354.392	1	13
354.563	1	1
354.734	1	2
354.905	1	13
355.076	1	12
355.247	1	1
355.418	1	1
355.589	1	-4
355.760	1	-1
355.931	1	11
356.102	1	3
356.273	1	4
356.444	1	4
356.615	1	0
356.785	1	3
356.956	1	-3
357.127	1	6
357.298	1	10
357.469	1	1
357.640	1	-5
357.811	1	6
357.982	1	0
358.153	1	7
358.324	1	18
358.495	1	-1
358.666	1	-1
358.837	1	10
359.008	1	5
359.179	1	8
359.350	1	-5
359.521	1	10
359.692	1	3
359.863	1	7
360.034	1	9
360.205	1	5
360.376	1	-3
360.547	1	-1
360.718	1	17
360.889	1	7
361.060	1	5
361.231	1	8
361.401	1	4
361.572	1	2
361.743	1	13
361.914	1	16
362.085	1	17
362.256	1	10
362.427	1	-2
362.598	1	8
362.769	1	13
362.940	1	7
363.111	1	16
363.282	1	6
363.453	1	21
363.624	1	15
363.795	1	17
363.966	1	19
364.137	1	13
364.308	1	14
364.478	1	10
364.649	1	16
364.820	1	26
364.991	1	12
365.162	1	15
365.333	1	14
365.504	1	12
365.675	1	11
365.846	1	11
366.017	1	20
366.188	1	28
366.359	1	24
366.530	1	29
366.701	1	34
366.871	1	23
367.042	1	30
367.213	1	24
367.384	1	-1
367.555	1	31
367.726	1	13
367.897	1	37
368.068	1	27
368.239	1	12
368.410	1	26
368.581	1	29
368.752	1	23
368.923	1	29
369.093	1	25
369.264	1	7
369.435	1	10
369.606	1	24
369.777	1	25
369.948	1	17
370.119	1	9
370.290	1	14
370.461	1	21
370.632	1	23
370.803	1	22
370.973	1	12
371.144	1	6
371.315	1	9
371.486	1	16
371.657	1	12
371.828	1	19
371.999	1	17
372.170	1	15
372.341	1	18
372.512	1	14
372.682	1	1
372.853	1	16
373.024	1	16
373.195	1	2
373.366	1	12
373.537	1	22
373.708	1	0
373.879	1	6
374.050	1	10
374.220	1	6
374.391	1	9
374.562	1	1
374.733	1	10
374.904	1	12
375.075	1	0
375.246	1	-4
375.417	1	9
375.588	1	19
375.758	1	1
375.929	1	6
376.100	1	10
376.271	1	11
376.442	1	6
376.613	1	13
376.784	1	19
376.955	1	-1
377.125	1	17
377.296	1	4
377.467	1	8
377.638	1	1
377.809	1	9
377.980	1	12
378.151	1	1
378.321	1	9
378.492	1	9
378.663	1	2
378.834	1	24
379.005	1	5
379.176	1	3
379.347	1	21
379.518	1	8
379.688	1	6
379.859	1	-5
380.030	1	13
380.201	1	23
380.372	1	4
380.543	1	12
380.714	1	6
380.884	1	23
381.055	1	0
381.226	1	25
381.397	1	14
381.568	1	5
381.739	1	4
381.910	1	5
382.080	1	16
382.251	1	1
382.422	1	11
382.593	1	12
382.764	1	1
382.935	1	1
383.105	1	-2
383.276	1	6
383.447	1	12
383.618	1	15
383.789	1	3
383.960	1	9
384.130	1	10
384.301	1	12
384.472	1	12
384.643	1	9
384.814	1	7
384.985	1	4
385.156	1	23
385.326	1	9
385.497	1	1
385.668	1	8
385.839	1	16
386.010	1	18
386.180	1	14
386.351	1	7
386.522	1	11
386.693	1	13
386.864	1	17
387.035	1	18
387.205	1	18
387.376	1	21
387.547	1	16
387.718	1	8
387.889	1	8
388.060	1	15
388.230	1	20
388.401	1	13
388.572	1	13
388.743	1	13
388.914	1	-3
389.084	1	21
389.255	1	6
389.426	1	9
389.597	1	20
389.768	1	22
389.939	1	15
390.109	1	7
390.280	1	9
390.451	1	14
390.622	1	15
390.793	1	14
390.963	1	12
391.134	1	-2
391.305	1	11
391.476	1	21
391.647	1	9
391.817	1	5
391.988	1	-4
392.159	1	14
392.330	1	10
392.501	1	5
392.671	1	13
392.842	1	12
393.013	1	25
393.184	1	13
393.355	1	7
393.525	1	13
393.696	1	6
393.867	1	10
394.038	1	9
394.208	1	12
394.379	1	2
394.550	1	3
394.721	1	10
394.892	1	9
395.062	1	21
395.233	1	15
395.404	1	17
395.575	1	7
395.746	1	11
395.916	1	8
396.087	1	16
396.258	1	14
396.429	1	2
396.599	1	15
396.770	1	9
396.941	1	1
397.112	1	6
397.283	1	-1
397.453	1	13
397.624	1	15
397.795	1	16
397.966	1	15
398.136	1	6
398.307	1	-1
398.478	1	5
398.649	1	5
398.819	1	11
398.990	1	8
399.161	1	7
399.332	1	15
399.503	1	14
399.673	1	-4
399.844	1	0
400.015	1	14
400.186	1	7
400.356	1	20
400.527	1	13
400.698	1	5
400.869	1	-7
401.039	1	8
401.210	1	5
401.381	1	1
401.552	1	4
401.722	1	11
401.893	1	12
402.064	1	11
402.235	1	-3
402.405	1	13
402.576	1	-2
402.747	1	1
402.918	1	9
403.088	1	7
403.259	1	-2
403.430	1	11
403.601	1	6
403.771	1	9
403.942	1	12
404.113	1	12
404.284	1	1
404.454	1	8
404.625	1	3
404.796	1	-7
404.967	1	2
405.137	1	10
405.308	1	7
405.479	1	7
405.649	1	10
405.820	1	6
405.991	1	-6
406.162	1	9
406.332	1	-8
406.503	1	5
406.674	1	4
406.845	1	9
407.015	1	4
407.186	1	-1
407.357	1	11
407.527	1	7
407.698	1	8
407.869	1	13
408.040	1	11
408.210	1	9
408.381	1	-6
408.552	1	-3
408.722	1	-12
408.893	1	-1
409.064	1	-1
409.235	1	4
409.405	1	9
409.576	1	6
409.747	1	9
409.917	1	2
410.088	1	8
410.259	1	-8
410.430	1	1
410.600	1	-2
410.771	1	10
410.942	1	-4
411.112	1	4
411.283	1	8
411.454	1	0
411.625	1	-2
411.795	1	4
411.966	1	21
412.137	1	12
412.307	1	9
412.478	1	9
412.649	1	-3
412.819	1	15
412.990	1	-4
413.161	1	-6
413.332	1	1
413.502	1	-5
413.673	1	16
413.844	1	11
414.014	1	5
414.185	1	1
414.356	1	8
414.526	1	10
414.697	1	11
414.868	1	1
415.038	1	0
415.209	1	7
415.380	1	15
415.550	1	9
415.721	1	12
415.892	1	1
416.063	1	17
416.233	1	4
416.404	1	1
416.575	1	3
416.745	1	-4
416.916	1	5
417.087	1	5
417.257	1	14
417.428	1	6
417.599	1	5
417.769	1	-4
417.940	1	0
418.111	1	4
418.281	1	-2
418.452	1	3
418.623	1	6
418.793	1	8
418.964	1	6
419.135	1	11
419.305	1	2
419.476	1	2
419.647	1	10
419.817	1	-2
419.988	1	-2
420.159	1	4
420.329	1	6
420.500	1	13
420.671	1	10
420.841	1	3
421.012	1	-2
421.183	1	9
421.353	1	3
421.524	1	10
421.695	1	2
421.865	1	12
422.036	1	-4
422.206	1	5
422.377	1	7
422.548	1	10
422.718	1	-7
422.889	1	-4
423.060	1	-3
423.230	1	7
423.401	1	0
423.572	1	26
423.742	1	-2
423.913	1	13
424.084	1	0
424.254	1	8
424.425	1	-7
424.595	1	-6
424.766	1	-3
424.937	1	7
425.107	1	-2
425.278	1	1
425.449	1	-1
425.619	1	3
425.790	1	10
425.961	1	9
426.131	1	-3
426.302	1	8
426.472	1	-2
426.643	1	-4
426.814	1	-3
426.984	1	12
427.155	1	2
427.326	1	-1
427.496	1	-2
427.667	1	2
427.837	1	4
428.008	1	5
428.179	1	0
428.349	1	-4
428.520	1	4
428.691	1	-6
428.861	1	-3
429.032	1	0
429.202	1	2
429.373	1	-7
429.544	1	0
429.714	1	-3
429.885	1	-5
430.055	1	-1
430.226	1	-2
430.397	1	5
430.567	1	4
430.738	1	1
430.909	1	-1
431.079	1	0
431.250	1	-6
431.420	1	6
431.591	1	-5
431.762	1	6
431.932	1	-5
432.103	1	9
432.273	1	4
432.444	1	3
432.615	1	-3
432.785	1	1
432.956	1	-1
433.126	1	6
433.297	1	-9
433.468	1	3
433.638	1	2
433.809	1	11
433.979	1	7
434.150	1	-1
434.320	1	15
434.491	1	6
434.662	1	4
434.832	1	4
435.003	1	5
435.173	1	4
435.344	1	5
435.515	1	-3
435.685	1	10
435.856	1	3
436.026	1	1
436.197	1	-5
436.368	1	4
436.538	1	-6
436.709	1	1
436.879	1	-2
437.050	1	9
437.220	1	-4
437.391	1	2
437.562	1	11
437.732	1	-3
437.903	1	-8
438.073	1	-5
438.244	1	3
438.414	1	-4
438.585	1	-1
438.756	1	-2
438.926	1	-1
439.097	1	13
439.267	1	-1
439.438	1	7
439.608	1	0
439.779	1	-6
439.949	1	-3
440.120	1	5
440.291	1	15
440.461	1	5
440.632	1	10
440.802	1	5
440.973	1	10
441.143	1	-7
441.314	1	-3
441.485	1	1
441.655	1	6
441.826	1	-5
441.996	1	-5
442.167	1	7
442.337	1	4
442.508	1	0
442.678	1	-6
442.849	1	-8
443.019	1	12
443.190	1	11
443.361	1	9
443.531	1	3
443.702	1	-1
443.872	1	1
444.043	1	9
444.213	1	6
444.384	1	-1
444.554	1	-3
444.725	1	-2
444.895	1	-4
445.066	1	3
445.237	1	1
445.407	1	-3
445.578	1	6
445.748	1	-1
445.919	1	-1
446.089	1	1
446.260	1	1
446.430	1	-10
446.601	1	9
446.771	1	-8
446.942	1	-1
447.112	1	7
447.283	1	-4
447.453	1	-4
447.624	1	3
447.794	1	8
447.965	1	7
448.135	1	-5
448.306	1	-6
448.477	1	4
448.647	1	1
448.818	1	-10
448.988	1	4
449.159	1	-1
449.329	1	1
449.500	1	-4
449.670	1	4
449.841	1	0
450.011	1	2
450.182	1	-12
450.352	1	8
450.523	1	2
450.693	1	3
450.864	1	2
451.034	1	14
451.205	1	-3
451.375	1	0
451.546	1	-5
451.716	1	15
451.887	1	-4
452.057	1	6
452.228	1	7
452.398	1	12
452.569	1	-8
452.739	1	4
452.910	1	3
453.080	1	-2
453.251	1	3
453.421	1	-3
453.592	1	3
453.762	1	7
453.933	1	-2
454.103	1	-3
454.274	1	9
454.444	1	8
454.615	1	7
454.785	1	3
454.956	1	-1
455.126	1	7
455.297	1	-6
455.467	1	-4
455.638	1	6
455.808	1	-4
455.979	1	-1
456.149	1	0
456.320	1	9
456.490	1	-3
456.661	1	-5
456.831	1	4
457.001	1	11
457.172	1	3
457.342	1	1
457.513	1	11
457.683	1	3
457.854	1	-3
458.024	1	-4
458.195	1	-6
458.365	1	17
458.536	1	-11
458.706	1	5
458.877	1	-8
459.047	1	11
459.218	1	-2
459.388	1	12
459.559	1	-1
459.729	1	-2
459.899	1	-9
460.070	1	-1
460.240	1	3
460.411	1	2
460.581	1	1
460.752	1	4
460.922	1	9
461.093	1	9
461.263	1	5
461.434	1	6
461.604	1	6
461.775	1	4
461.945	1	-3
462.115	1	3
462.286	1	-6
462.456	1	6
462.627	1	10
462.797	1	-5
462.968	1	-3
463.138	1	2
463.309	1	3
463.479	1	-3
463.649	1	-4
463.820	1	-4
463.990	1	6
464.161	1	-1
464.331	1	7
464.502	1	5
464.672	1	-6
464.843	1	0
465.013	1	0
465.183	1	-6
465.354	1	4
465.524	1	-12
465.695	1	0
465.865	1	-2
466.036	1	4
466.206	1	0
466.376	1	0
466.547	1	0
466.717	1	2
466.888	1	-3
467.058	1	4
467.229	1	3
467.399	1	-4
467.569	1	4
467.740	1	11
467.910	1	2
468.081	1	-4
468.251	1	1
468.422	1	-1
468.592	1	5
468.762	1	-11
468.933	1	4
469.103	1	4
469.274	1	-2
469.444	1	-3
469.614	1	4
469.785	1	9
469.955	1	10
470.126	1	3
470.296	1	5
470.467	1	-15
470.637	1	8
470.807	1	7
470.978	1	11
471.148	1	-9
471.319	1	4
471.489	1	-5
471.659	1	4
471.830	1	4
472.000	1	2
472.171	1	2
472.341	1	6
472.511	1	10
472.682	1	4
472.852	1	0
473.023	1	2
473.193	1	6
473.363	1	10
473.534	1	-2
473.704	1	-7
473.875	1	-8
474.045	1	-5
474.215	1	11
474.386	1	5
474.556	1	3
474.727	1	-3
474.897	1	3
475.067	1	-11
475.238	1	-7
475.408	1	-5
475.578	1	6
475.749	1	-1
475.919	1	0
476.090	1	-2
476.260	1	0
476.430	1	12
476.601	1	10
476.771	1	-1
476.942	1	9
477.112	1	1
477.282	1	6
477.453	1	2
477.623	1	7
477.793	1	5
477.964	1	-6
478.134	1	3
478.305	1	2
478.475	1	5
478.645	1	0
478.816	1	5
478.986	1	-4
479.156	1	-6
479.327	1	-4
479.497	1	9
479.667	1	12
479.838	1	-9
480.008	1	-8
480.179	1	-9
480.349	1	9
480.519	1	3
480.690	1	-5
480.860	1	1
481.030	1	1
481.201	1	-3
481.371	1	1
481.541	1	10
481.712	1	-2
481.882	1	-3
482.053	1	0
482.223	1	-1
482.393	1	1
482.564	1	3
482.734	1	2
482.904	1	-1
483.075	1	6
483.245	1	2
483.415	1	0
483.586	1	12
483.756	1	5
483.926	1	-1
484.097	1	5
484.267	1	-8
484.437	1	-10
484.608	1	7
484.778	1	7
484.948	1	-6
485.119	1	-9
485.289	1	12
485.459	1	9
485.630	1	4
485.800	1	1
485.970	1	7
486.141	1	-4
486.311	1	8
486.481	1	2
486.652	1	7
486.822	1	-3
486.992	1	4
487.163	1	1
487.333	1	3
487.503	1	3
487.674	1	-2
487.844	1	3
488.014	1	11
488.185	1	0
488.355	1	5
488.525	1	2
488.696	1	2
488.866	1	-5
489.036	1	10
489.207	1	1
489.377	1	-2
489.547	1	-5
489.718	1	8
489.888	1	8
490.058	1	4
490.228	1	2
490.399	1	1
490.569	1	16
490.739	1	-1
490.910	1	-10
491.080	1	3
491.250	1	9
491.421	1	6
491.591	1	-4
491.761	1	-7
491.932	1	-2
492.102	1	0
492.272	1	1
492.442	1	10
492.613	1	-1
492.783	1	6
492.953	1	5
493.124	1	4
493.294	1	5
493.464	1	8
493.635	1	0
493.805	1	3
493.975	1	2
494.145	1	1
494.316	1	6
494.486	1	-1
494.656	1	1
494.827	1	11
494.997	1	-10
495.167	1	9
495.337	1	1
495.508	1	4
495.678	1	10
495.848	1	4
496.019	1	5
496.189	1	-1
496.359	1	-6
496.529	1	5
496.700	1	0
496.870	1	14
497.040	1	0
497.211	1	1
497.381	1	3
497.551	1	1
497.721	1	1
497.892	1	11
498.062	1	-1
498.232	1	6
498.403	1	6
498.573	1	6
498.743	1	1
498.913	1	14
499.084	1	0
499.254	1	-3
499.424	1	-2
499.594	1	-4
499.765	1	8
499.935	1	-5
500.105	1	12
500.275	1	1
500.446	1	1
500.616	1	2
500.786	1	12
500.956	1	3
501.127	1	9
501.297	1	-2
501.467	1	-4
501.638	1	12
501.808	1	9
501.978	1	-2
502.148	1	3
502.319	1	8
502.489	1	4
502.659	1	6
502.829	1	12
503.000	1	4
503.170	1	-4
503.340	1	15
503.510	1	0
503.681	1	-2
503.851	1	11
504.021	1	0
504.191	1	8
504.362	1	3
504.532	1	1
504.702	1	-4
504.872	1	-5
505.042	1	2
505.213	1	8
505.383	1	5
505.553	1	12
505.723	1	11
505.894	1	12
506.064	1	11
506.234	1	10
506.404	1	-2
506.575	1	-3
506.745	1	19
506.915	1	7
507.085	1	-8
507.256	1	12
507.426	1	11
507.596	1	-2
507.766	1	8
507.936	1	0
508.107	1	11
508.277	1	-1
508.447	1	7
508.617	1	1
508.788	1	11
508.958	1	12
509.128	1	7
509.298	1	2
509.468	1	13
509.639	1	1
509.809	1	13
509.979	1	11
510.149	1	9
510.319	1	-5
510.490	1	6
510.660	1	9
510.830	1	-1
511.000	1	10
511.171	1	-6
511.341	1	9
511.511	1	-4
511.681	1	12
511.851	1	1
512.022	1	7
512.192	1	1
512.362	1	3
512.532	1	-11
512.702	1	6
512.873	1	11
513.043	1	11
513.213	1	15
513.383	1	0
513.553	1	14
513.724	1	2
513.894	1	-2
514.064	1	16
514.234	1	14
514.404	1	12
514.575	1	0
514.745	1	15
514.915	1	-9
515.085	1	4
515.255	1	7
515.425	1	13
515.596	1	5
515.766	1	17
515.936	1	8
516.106	1	12
516.276	1	10
516.447	1	13
516.617	1	14
516.787	1	9
516.957	1	11
517.127	1	10
517.297	1	7
517.468	1	2
517.638	1	-5
517.808	1	6
517.978	1	13
518.148	1	7
518.319	1	-4
518.489	1	1
518.659	1	5
518.829	1	3
518.999	1	8
519.169	1	10
519.340	1	15
519.510	1	9
519.680	1	6
519.850	1	4
520.020	1	8
520.190	1	3
520.361	1	1
520.531	1	7
520.701	1	2
520.871	1	9
521.041	1	11
521.211	1	16
521.382	1	17
521.552	1	11
521.722	1	13
521.892	1	8
522.062	1	-1
522.232	1	19
522.402	1	7
522.573	1	4
522.743	1	18
522.913	1	8
523.083	1	4
523.253	1	15
523.423	1	0
523.593	1	5
523.764	1	11
523.934	1	18
524.104	1	11
524.274	1	7
524.444	1	9
524.614	1	9
524.784	1	1
524.955	1	17
525.125	1	15
525.295	1	-8
525.465	1	10
525.635	1	5
525.805	1	13
525.975	1	-1
526.146	1	5
526.316	1	14
526.486	1	0
526.656	1	5
526.826	1	11
526.996	1	10
527.166	1	1
527.337	1	2
527.507	1	7
527.677	1	18
527.847	1	5
528.017	1	5
528.187	1	11
528.357	1	10
528.527	1	15
528.698	1	6
528.868	1	11
529.038	1	4
529.208	1	1
529.378	1	9
529.548	1	11
529.718	1	15
529.888	1	12
530.058	1	8
530.229	1	10
530.399	1	-1
530.569	1	10
530.739	1	-6
530.909	1	1
531.079	1	-14
531.249	1	7
531.419	1	15
531.589	1	14
531.760	1	7
531.930	1	18
532.100	1	10
532.270	1	8
532.440	1	7
532.610	1	14
532.780	1	10
532.950	1	14
533.120	1	21
533.290	1	14
533.461	1	5
533.631	1	8
533.801	1	3
533.971	1	1
534.141	1	13
534.311	1	11
534.481	1	19
534.651	1	3
534.821	1	11
534.991	1	15
535.162	1	2
535.332	1	15
535.502	1	6
535.672	1	3
535.842	1	1
536.012	1	6
536.182	1	11
536.352	1	3
536.522	1	1
536.692	1	8
536.862	1	-2
537.032	1	1
537.203	1	7
537.373	1	12
537.543	1	6
537.713	1	9
537.883	1	7
538.053	1	13
538.223	1	14
538.393	1	8
538.563	1	20
538.733	1	10
538.903	1	12
539.073	1	14
539.243	1	6
539.413	1	12
539.584	1	0
539.754	1	19
539.924	1	8
540.094	1	5
540.264	1	4
540.434	1	11
540.604	1	4
540.774	1	1
540.944	1	20
541.114	1	7
541.284	1	3
541.454	1	7
541.624	1	13
541.794	1	10
541.964	1	-7
542.134	1	13
542.305	1	9
542.475	1	6
542.645	1	8
542.815	1	-9
542.985	1	6
543.155	1	8
543.325	1	16
543.495	1	8
543.665	1	7
543.835	1	2
544.005	1	13
544.175	1	10
544.345	1	6
544.515	1	14
544.685	1	13
544.855	1	2
545.025	1	17
545.195	1	10
545.365	1	-1
545.535	1	3
545.705	1	17
545.875	1	8
546.045	1	11
546.216	1	-1
546.386	1	5
546.556	1	11
546.726	1	11
546.896	1	4
547.066	1	7
547.236	1	12
547.406	1	1
547.576	1	14
547.746	1	16
547.916	1	9
548.086	1	9
548.256	1	6
548.426	1	1
548.596	1	1
548.766	1	7
548.936	1	19
549.106	1	5
549.276	1	14
549.446	1	5
549.616	1	8
549.786	1	-5
549.956	1	11
550.126	1	4
550.296	1	11
550.466	1	18
550.636	1	13
550.806	1	6
550.976	1	4
551.146	1	1
551.316	1	10
551.486	1	5
551.656	1	10
551.826	1	28
551.996	1	-7
552.166	1	15
552.336	1	-1
552.506	1	6
552.676	1	8
552.846	1	5
553.016	1	10
553.186	1	7
553.356	1	13
553.526	1	4
553.696	1	26
553.866	1	19
554.036	1	4
554.206	1	5
554.376	1	-1
554.546	1	2
554.716	1	5
554.886	1	20
555.056	1	-2
555.226	1	10
555.396	1	3
555.566	1	4
555.736	1	6
555.906	1	2
556.076	1	18
556.246	1	2
556.416	1	-6
556.586	1	-2
556.756	1	-7
556.926	1	0
557.096	1	13
557.266	1	3
557.436	1	10
557.606	1	10
557.776	1	13
557.946	1	8
558.116	1	9
558.286	1	3
558.456	1	-1
558.626	1	-3
558.796	1	5
558.966	1	3
559.136	1	-2
559.306	1	12
559.476	1	5
559.646	1	-1
559.816	1	10
559.986	1	-5
560.155	1	10
560.325	1	6
560.495	1	4
560.665	1	1
560.835	1	2
561.005	1	2
561.175	1	5
561.345	1	1
561.515	1	0
561.685	1	-2
561.855	1	-2
562.025	1	11
562.195	1	-1
562.365	1	2
562.535	1	11
562.705	1	5
562.875	1	1
563.045	1	0
563.215	1	12
563.385	1	0
563.555	1	2
563.725	1	8
563.895	1	7
564.064	1	7
564.234	1	4
564.404	1	4
564.574	1	22
564.744	1	5
564.914	1	6
565.084	1	-2
565.254	1	12
565.424	1	1
565.594	1	1
565.764	1	-1
565.934	1	7
566.104	1	-4
566.274	1	3
566.444	1	0
566.614	1	7
566.783	1	7
566.953	1	5
567.123	1	9
567.293	1	2
567.463	1	3
567.633	1	4
567.803	1	8
567.973	1	11
568.143	1	-3
568.313	1	4
568.483	1	15
568.653	1	-2
568.823	1	-1
568.993	1	-5
569.162	1	5
569.332	1	3
569.502	1	9
569.672	1	7
569.842	1	12
570.012	1	9
570.182	1	-7
570.352	1	5
570.522	1	-4
570.692	1	8
570.862	1	8
571.031	1	1
571.201	1	9
571.371	1	4
571.541	1	4
571.711	1	11
571.881	1	10
572.051	1	1
572.221	1	2
572.391	1	13
572.561	1	8
572.731	1	1
572.900	1	-4
573.070	1	9
573.240	1	4
573.410	1	-1
573.580	1	0
573.750	1	8
573.920	1	10
574.090	1	12
574.260	1	9
574.430	1	7
574.599	1	2
574.769	1	0
574.939	1	-6
575.109	1	1
575.279	1	9
575.449	1	17
575.619	1	8
575.789	1	-2
575.959	1	2
576.128	1	1
576.298	1	5
576.468	1	4
576.638	1	-7
576.808	1	5
576.978	1	4
577.148	1	2
577.318	1	16
577.487	1	4
577.657	1	-3
577.827	1	1
577.997	1	4
578.167	1	2
578.337	1	-9
578.507	1	-1
578.677	1	-1
578.846	1	2
579.016	1	5
579.186	1	6
579.356	1	6
579.526	1	-1
579.696	1	10
579.866	1	-9
580.036	1	9
580.205	1	-7
580.375	1	16
580.545	1	2
580.715	1	3
580.885	1	8
581.055	1	0
581.225	1	-1
581.394	1	-13
581.564	1	-7
581.734	1	3
581.904	1	3
582.074	1	9
582.244	1	1
582.414	1	-3
582.583	1	6
582.753	1	15
582.923	1	4
583.093	1	11
583.263	1	13
583.433	1	-8
583.603	1	-3
583.772	1	-4
583.942	1	11
584.112	1	1
584.282	1	6
584.452	1	2
584.622	1	3
584.791	1	-5
584.961	1	-12
585.131	1	6
585.301	1	2
585.471	1	-1
585.641	1	5
585.811	1	-2
585.980	1	1
586.150	1	10
586.320	1	-8
586.490	1	7
586.660	1	13
586.830	1	-3
586.999	1	-2
587.169	1	13
587.339	1	-4
587.509	1	11
587.679	1	7
587.849	1	20
588.018	1	-12
588.188	1	8
588.358	1	-9
588.528	1	-4
588.698	1	-5
588.867	1	1
589.037	1	-1
589.207	1	9
589.377	1	4
589.547	1	7
589.717	1	-1
589.886	1	6
590.056	1	1
590.226	1	-4
590.396	1	-1
590.566	1	-12
590.735	1	-10
590.905	1	10
591.075	1	-6
591.245	1	6
591.415	1	6
591.585	1	7
591.754	1	9
591.924	1	9
592.094	1	2
592.264	1	-3
592.434	1	-10
592.603	1	-1
592.773	1	1
592.943	1	10
593.113	1	1
593.283	1	-1
593.452	1	-4
593.622	1	10
593.792	1	8
593.962	1	-5
594.132	1	2
594.301	1	11
594.471	1	-8
594.641	1	5
594.811	1	-5
594.981	1	-1
595.150	1	2
595.320	1	0
595.490	1	8
595.660	1	8
595.829	1	-5
595.999	1	1
596.169	1	8
596.339	1	3
596.509	1	6
596.678	1	7
596.848	1	10
597.018	1	8
597.188	1	-1
597.358	1	-4
597.527	1	4
597.697	1	-9
597.867	1	6
598.037	1	8
598.206	1	12
598.376	1	2
598.546	1	3
598.716	1	-10
598.885	1	3
599.055	1	7
599.225	1	1
599.395	1	9
599.565	1	-3
599.734	1	7
599.904	1	-13
600.074	1	8
600.244	1	-2
600.413	1	7
600.583	1	-7
600.753	1	-1
600.923	1	2
601.092	1	3
601.262	1	9
601.432	1	6
601.602	1	8
601.771	1	9
601.941	1	9
602.111	1	7
602.281	1	10
602.451	1	-13
602.620	1	-3
602.790	1	-3
602.960	1	-4
603.130	1	8
603.299	1	-9
603.469	1	5
603.639	1	-13
603.809	1	7
603.978	1	-1
604.148	1	-2
604.318	1	-1
604.487	1	0
604.657	1	-13
604.827	1	8
604.997	1	15
605.166	1	1
605.336	1	0
605.506	1	-4
605.676	1	5
605.845	1	-4
606.015	1	-6
606.185	1	3
606.355	1	2
606.524	1	0
606.694	1	0
606.864	1	7
607.034	1	5
607.203	1	1
607.373	1	6
607.543	1	2
607.712	1	6
607.882	1	-7
608.052	1	3
608.222	1	4
608.391	1	19
608.561	1	-4
608.731	1	3
608.901	1	-3
609.070	1	3
609.240	1	-9
609.410	1	4
609.579	1	8
609.749	1	11
609.919	1	-1
610.089	1	-1
610.258	1	4
610.428	1	8
610.598	1	2
610.767	1	6
610.937	1	3
611.107	1	2
611.277	1	1
611.446	1	6
611.616	1	0
611.786	1	5
611.955	1	-1
612.125	1	5
612.295	1	-4
612.465	1	-8
612.634	1	0
612.804	1	1
612.974	1	-6
613.143	1	-1
613.313	1	7
613.483	1	14
613.652	1	0
613.822	1	2
613.992	1	-8
614.162	1	-5
614.331	1	1
614.501	1	3
614.671	1	5
614.840	1	1
615.010	1	4
615.180	1	12
615.349	1	7
615.519	1	3
615.689	1	-6
615.858	1	6
616.028	1	5
616.198	1	-3
616.368	1	-3
616.537	1	5
616.707	1	7
616.877	1	4
617.046	1	8
617.216	1	13
617.386	1	7
617.555	1	-5
617.725	1	9
617.895	1	-1
618.064	1	1
618.234	1	-1
618.404	1	-11
618.573	1	6
618.743	1	19
618.913	1	7
619.082	1	1
619.252	1	4
619.422	1	1
619.591	1	-4
619.761	1	-6
619.931	1	12
620.100	1	20
620.270	1	3
620.440	1	15
620.609	1	9
620.779	1	11
620.949	1	-4
621.118	1	7
621.288	1	0
621.458	1	0
621.627	1	6
621.797	1	-6
621.967	1	12
622.136	1	3
622.306	1	5
622.476	1	-11
622.645	1	12
622.815	1	-7
622.985	1	-1
623.154	1	-5
623.324	1	9
623.494	1	-2
623.663	1	-6
623.833	1	7
624.002	1	-5
624.172	1	-3
624.342	1	13
624.511	1	-1
624.681	1	-8
624.851	1	-1
625.020	1	-5
625.190	1	4
625.360	1	-5
625.529	1	-5
625.699	1	-5
625.869	1	2
626.038	1	-6
626.208	1	9
626.377	1	-1
626.547	1	-1
626.717	1	-15
626.886	1	-9
627.056	1	-2
627.226	1	8
627.395	1	1
627.565	1	10
627.735	1	5
627.904	1	3
628.074	1	4
628.243	1	-2
628.413	1	-6
628.583	1	3
628.752	1	-8
628.922	1	0
629.091	1	-3
629.261	1	4
629.431	1	3
629.600	1	0
629.770	1	5
629.940	1	-6
630.109	1	-2
630.279	1	0
630.448	1	0
630.618	1	6
630.788	1	3
630.957	1	3
631.127	1	0
631.297	1	-4
631.466	1	4
631.636	1	4
631.805	1	-3
631.975	1	-10
632.145	1	-1
632.314	1	-4
632.484	1	3
632.653	1	-6
632.823	1	-5
632.993	1	0
633.162	1	-1
633.332	1	1
633.501	1	1
633.671	1	-3
633.841	1	-5
634.010	1	4
634.180	1	5
634.349	1	5
634.519	1	8
634.689	1	4
634.858	1	-6
635.028	1	-9
635.197	1	-9
635.367	1	9
635.537	1	2
635.706	1	6
635.876	1	10
636.045	1	3
636.215	1	19
636.384	1	-9
636.554	1	2
636.724	1	-1
636.893	1	6
637.063	1	-1
637.232	1	-1
637.402	1	-8
637.572	1	1
637.741	1	4
637.911	1	-6
638.080	1	8
638.250	1	-3
638.419	1	-4
638.589	1	-3
638.759	1	-5
638.928	1	3
639.098	1	0
639.267	1	2
639.437	1	4
639.606	1	2
639.776	1	1
639.946	1	9
640.115	1	-6
640.285	1	9
640.454	1	2
640.624	1	11
640.793	1	5
640.963	1	4
641.132	1	-2
641.302	1	-2
641.472	1	-2
641.641	1	10
641.811	1	3
641.980	1	2
642.150	1	-5
642.319	1	6
642.489	1	-10
642.659	1	7
642.828	1	0
642.998	1	6
643.167	1	-11
643.337	1	-6
643.506	1	8
643.676	1	3
643.845	1	10
644.015	1	-2
644.184	1	-7
644.354	1	-2
644.524	1	-2
644.693	1	6
644.863	1	-2
645.032	1	-2
645.202	1	-10
645.371	1	-1
645.541	1	-1
645.710	1	2
645.880	1	-14
646.049	1	5
646.219	1	-8
646.388	1	2
646.558	1	10
646.728	1	-1
646.897	1	-3
647.067	1	4
647.236	1	14
647.406	1	5
647.575	1	12
647.745	1	6
647.914	1	0
648.084	1	2
648.253	1	2
648.423	1	-1
648.592	1	-8
648.762	1	8
648.931	1	11
649.101	1	-4
649.270	1	-7
649.440	1	1
649.610	1	-1
649.779	1	2
649.949	1	1
650.118	1	8
650.288	1	5
650.457	1	7
650.627	1	10
650.796	1	-4
650.966	1	-9
651.135	1	4
651.305	1	4
651.474	1	9
651.644	1	13
651.813	1	16
651.983	1	6
652.152	1	6
652.322	1	1
652.491	1	4
652.661	1	-2
652.830	1	2
653.000	1	-2
653.169	1	11
653.339	1	-3
653.508	1	-1
653.678	1	0
653.847	1	-2
654.017	1	3
654.186	1	2
654.356	1	-2
654.525	1	-9
654.695	1	-3
654.864	1	0
655.034	1	-1
655.203	1	8
655.373	1	9
655.542	1	-10
655.712	1	-8
655.881	1	14
656.051	1	8
656.220	1	6
656.390	1	-2
656.559	1	-9
656.729	1	-4
656.898	1	-4
657.068	1	5
657.237	1	10
657.406	1	1
657.576	1	2
657.745	1	5
657.915	1	-3
658.084	1	-3
658.254	1	10
658.423	1	9
658.593	1	8
658.762	1	5
658.932	1	4
659.101	1	-2
659.271	1	-3
659.440	1	5
659.610	1	4
659.779	1	15
659.949	1	3
660.118	1	4
660.288	1	1
660.457	1	5
660.626	1	8
660.796	1	-4
660.965	1	5
661.135	1	-6
661.304	1	-8
661.474	1	-1
661.643	1	2
661.813	1	1
661.982	1	6
662.152	1	7
662.321	1	3
662.491	1	-6
662.660	1	3
662.829	1	6
662.999	1	-1
663.168	1	-6
663.338	1	7
663.507	1	6
663.677	1	5
663.846	1	0
664.016	1	-3
664.185	1	-12
664.354	1	13
664.524	1	3
664.693	1	-7
664.863	1	-4
665.032	1	0
665.202	1	-4
665.371	1	-4
665.541	1	7
665.710	1	5
665.879	1	-3
666.049	1	-6
666.218	1	-5
666.388	1	7
666.557	1	14
666.727	1	1
666.896	1	14
667.065	1	5
667.235	1	20
667.404	1	-4
667.574	1	4
667.743	1	8
667.913	1	4
668.082	1	2
668.251	1	5
668.421	1	0
668.590	1	5
668.760	1	3
668.929	1	8
669.099	1	0
669.268	1	-2
669.437	1	-2
669.607	1	-5
669.776	1	2
669.946	1	1
670.115	1	-14
670.285	1	17
670.454	1	-2
670.623	1	-1
670.793	1	-1
670.962	1	4
671.132	1	-9
671.301	1	-6
671.470	1	0
671.640	1	-7
671.809	1	-1
671.979	1	5
672.148	1	1
672.317	1	-6
672.487	1	3
672.656	1	-5
672.826	1	5
672.995	1	-2
673.164	1	-14
673.334	1	6
673.503	1	-4
673.673	1	5
673.842	1	3
674.011	1	9
674.181	1	12
674.350	1	-2
674.520	1	1
674.689	1	-15
674.858	1	-12
675.028	1	3
675.197	1	1
675.367	1	2
675.536	1	3
675.705	1	3
675.875	1	4
676.044	1	-6
676.214	1	5
676.383	1	4
676.552	1	-5
676.722	1	1
676.891	1	2
677.060	1	-4
677.230	1	3
677.399	1	-8
677.569	1	11
677.738	1	0
677.907	1	5
678.077	1	-7
678.246	1	8
678.416	1	5
678.585	1	-8
678.754	1	-3
678.924	1	4
679.093	1	4
679.262	1	-4
679.432	1	4
679.601	1	0
679.771	1	1
679.940	1	6
680.109	1	1
680.279	1	3
680.448	1	0
680.617	1	5
680.787	1	-6
680.956	1	6
681.125	1	1
681.295	1	-9
681.464	1	-6
681.634	1	8
681.803	1	2
681.972	1	-5
682.142	1	4
682.311	1	4
682.480	1	5
682.650	1	9
682.819	1	13
682.988	1	-2
683.158	1	-4
683.327	1	7
683.496	1	5
683.666	1	10
683.835	1	-8
684.004	1	2
684.174	1	-12
684.343	1	0
684.512	1	-3
684.682	1	-2
684.851	1	-1
685.021	1	1
685.190	1	6
685.359	1	-5
685.529	1	8
685.698	1	4
685.867	1	-2
686.037	1	-3
686.206	1	-5
686.375	1	0
686.545	1	14
686.714	1	2
686.883	1	10
687.053	1	-7
687.222	1	-6
687.391	1	-5
687.561	1	3
687.730	1	-5
687.899	1	3
688.069	1	5
688.238	1	1
688.407	1	-2
688.577	1	-2
688.746	1	6
