340.368	1	3
340.539	1	11
340.710	1	3
340.881	1	3
341.052	1	4
341.223	1	2
341.394	1	-5
341.565	1	11
341.737	1	8
341.908	1	-2
342.079	1	-15
342.250	1	0
342.421	1	-7
342.592	1	8
342.763	1	9
342.934	1	-7
343.105	1	6
343.276	1	-4
343.447	1	-7
343.618	1	2
343.789	1	1
343.960	1	-5
344.131	1	6
344.302	1	-4
344.473	1	-3
344.644	1	2
344.815	1	2
344.986	1	1
345.157	1	9
345.328	1	-5
345.499	1	6
345.670	1	5
345.841	1	0
346.012	1	5
346.183	1	12
346.354	1	11
346.526	1	-2
346.697	1	12
346.868	1	-4
347.039	1	-7
347.210	1	-1
347.381	1	0
347.552	1	6
347.723	1	-1
347.894	1	2
348.065	1	15
348.236	1	7
348.407	1	-2
348.578	1	9
348.749	1	0
348.920	1	1
349.091	1	12
349.262	1	-1
349.433	1	10
349.604	1	9
349.775	1	8
349.946	1	-1
350.117	1	7
350.288	1	9
350.459	1	-2
350.630	1	10
350.801	1	-2
350.972	1	-2
351.143	1	9
351.314	1	12
351.485	1	9
351.656	1	10
351.827	1	0
351.998	1	0
352.169	1	-6
352.340	1	-9
352.511	1	10
352.682	1	2
352.853	1	4
353.024	1	0
353.195	1	3
353.366	1	8
353.537	1	17
353.708	1	11
353.879	1	-8
354.050	1	9
354.221	1	6
354.392	1	15
354.563	1	5
354.734	1	10
354.905	1	15
355.076	1	12
355.247	1	10
355.418	1	3
355.589	1	9
355.760	1	9
355.931	1	15
356.102	1	11
356.273	1	7
356.444	1	16
356.615	1	14
356.785	1	11
356.956	1	9
357.127	1	14
357.298	1	16
357.469	1	5
357.640	1	12
357.811	1	12
357.982	1	16
358.153	1	10
358.324	1	29
358.495	1	15
358.666	1	8
358.837	1	28
359.008	1	19
359.179	1	15
359.350	1	24
359.521	1	21
359.692	1	32
359.863	1	31
360.034	1	31
360.205	1	21
360.376	1	21
360.547	1	26
360.718	1	34
360.889	1	36
361.060	1	29
361.231	1	33
361.401	1	36
361.572	1	32
361.743	1	55
361.914	1	46
362.085	1	46
362.256	1	47
362.427	1	46
362.598	1	61
362.769	1	62
362.940	1	61
363.111	1	61
363.282	1	66
363.453	1	61
363.624	1	76
363.795	1	83
363.966	1	77
364.137	1	87
364.308	1	85
364.478	1	90
364.649	1	91
364.820	1	96
364.991	1	111
365.162	1	117
365.333	1	112
365.504	1	113
365.675	1	118
365.846	1	129
366.017	1	124
366.188	1	131
366.359	1	134
366.530	1	134
366.701	1	140
366.871	1	139
367.042	1	143
367.213	1	146
367.384	1	119
367.555	1	142
367.726	1	138
367.897	1	146
368.068	1	132
368.239	1	129
368.410	1	140
368.581	1	124
368.752	1	131
368.923	1	121
369.093	1	115
369.264	1	113
369.435	1	109
369.606	1	114
369.777	1	100
369.948	1	114
370.119	1	89
370.290	1	84
370.461	1	88
370.632	1	93
370.803	1	84
370.973	1	78
371.144	1	91
371.315	1	77
371.486	1	86
371.657	1	70
371.828	1	77
371.999	1	59
372.170	1	74
372.341	1	61
372.512	1	63
372.682	1	70
372.853	1	53
373.024	1	64
373.195	1	76
373.366	1	51
373.537	1	63
373.708	1	54
373.879	1	59
374.050	1	45
374.220	1	59
374.391	1	48
374.562	1	50
374.733	1	58
374.904	1	49
375.075	1	43
375.246	1	39
375.417	1	50
375.588	1	45
375.758	1	29
375.929	1	40
376.100	1	54
376.271	1	40
376.442	1	38
376.613	1	25
376.784	1	49
376.955	1	18
377.125	1	36
377.296	1	34
377.467	1	33
377.638	1	26
377.809	1	34
377.980	1	33
378.151	1	40
378.321	1	38
378.492	1	35
378.663	1	31
378.834	1	41
379.005	1	30
379.176	1	30
379.347	1	26
379.518	1	36
379.688	1	34
379.859	1	26
380.030	1	45
380.201	1	35
380.372	1	39
380.543	1	28
380.714	1	31
380.884	1	30
381.055	1	25
381.226	1	34
381.397	1	47
381.568	1	42
381.739	1	38
381.910	1	41
382.080	1	28
382.251	1	42
382.422	1	35
382.593	1	43
382.764	1	40
382.935	1	46
383.105	1	45
383.276	1	46
383.447	1	53
383.618	1	44
383.789	1	46
383.960	1	50
384.130	1	47
384.301	1	54
384.472	1	46
384.643	1	53
384.814	1	63
384.985	1	45
385.156	1	70
385.326	1	73
385.497	1	61
385.668	1	73
385.839	1	79
386.010	1	66
386.180	1	65
386.351	1	55
386.522	1	69
386.693	1	72
386.864	1	77
387.035	1	67
387.205	1	68
387.376	1	75
387.547	1	71
387.718	1	55
387.889	1	67
388.060	1	59
388.230	1	59
388.401	1	63
388.572	1	68
388.743	1	51
388.914	1	59
389.084	1	70
389.255	1	54
389.426	1	56
389.597	1	60
389.768	1	60
389.939	1	59
390.109	1	59
390.280	1	51
390.451	1	55
390.622	1	56
390.793	1	75
390.963	1	59
391.134	1	49
391.305	1	53
391.476	1	64
391.647	1	47
391.817	1	51
391.988	1	49
392.159	1	66
392.330	1	46
392.501	1	53
392.671	1	53
392.842	1	49
393.013	1	60
393.184	1	51
393.355	1	57
393.525	1	51
393.696	1	45
393.867	1	57
394.038	1	53
394.208	1	50
394.379	1	42
394.550	1	62
394.721	1	47
394.892	1	40
395.062	1	53
395.233	1	46
395.404	1	47
395.575	1	51
395.746	1	56
395.916	1	58
396.087	1	67
396.258	1	58
396.429	1	53
396.599	1	53
396.770	1	66
396.941	1	58
397.112	1	45
397.283	1	44
397.453	1	63
397.624	1	61
397.795	1	54
397.966	1	60
398.136	1	53
398.307	1	65
398.478	1	51
398.649	1	55
398.819	1	57
398.990	1	55
399.161	1	56
399.332	1	60
399.503	1	68
399.673	1	51
399.844	1	48
400.015	1	58
400.186	1	45
400.356	1	52
400.527	1	59
400.698	1	49
400.869	1	38
401.039	1	33
401.210	1	46
401.381	1	41
401.552	1	45
401.722	1	34
401.893	1	46
402.064	1	45
402.235	1	31
402.405	1	42
402.576	1	34
402.747	1	47
402.918	1	43
403.088	1	40
403.259	1	36
403.430	1	43
403.601	1	39
403.771	1	52
403.942	1	41
404.113	1	44
404.284	1	39
404.454	1	37
404.625	1	39
404.796	1	33
404.967	1	51
405.137	1	43
405.308	1	40
405.479	1	44
405.649	1	34
405.820	1	41
405.991	1	32
406.162	1	45
406.332	1	28
406.503	1	34
406.674	1	35
406.845	1	44
407.015	1	33
407.186	1	42
407.357	1	40
407.527	1	34
407.698	1	39
407.869	1	35
408.040	1	38
408.210	1	33
408.381	1	25
408.552	1	24
408.722	1	16
408.893	1	38
409.064	1	28
409.235	1	30
409.405	1	40
409.576	1	40
409.747	1	29
409.917	1	32
410.088	1	22
410.259	1	37
410.430	1	33
410.600	1	29
410.771	1	30
410.942	1	23
411.112	1	27
411.283	1	21
411.454	1	30
411.625	1	26
411.795	1	44
411.966	1	40
412.137	1	33
412.307	1	39
412.478	1	25
412.649	1	20
412.819	1	37
412.990	1	17
413.161	1	19
413.332	1	25
413.502	1	34
413.673	1	45
413.844	1	35
414.014	1	22
414.185	1	26
414.356	1	29
414.526	1	26
414.697	1	31
414.868	1	21
415.038	1	32
415.209	1	27
415.380	1	33
415.550	1	25
415.721	1	22
415.892	1	22
416.063	1	36
416.233	1	20
416.404	1	31
416.575	1	23
416.745	1	13
416.916	1	21
417.087	1	33
417.257	1	15
417.428	1	28
417.599	1	32
417.769	1	10
417.940	1	27
418.111	1	26
418.281	1	9
418.452	1	18
418.623	1	25
418.793	1	15
418.964	1	20
419.135	1	28
419.305	1	10
419.476	1	27
419.647	1	20
419.817	1	25
419.988	1	15
420.159	1	15
420.329	1	13
420.500	1	31
420.671	1	10
420.841	1	17
421.012	1	23
421.183	1	12
421.353	1	20
421.524	1	33
421.695	1	14
421.865	1	20
422.036	1	23
422.206	1	19
422.377	1	10
422.548	1	23
422.718	1	6
422.889	1	8
423.060	1	7
423.230	1	20
423.401	1	16
423.572	1	29
423.742	1	18
423.913	1	20
424.084	1	2
424.254	1	7
424.425	1	10
424.595	1	2
424.766	1	15
424.937	1	11
425.107	1	16
425.278	1	14
425.449	1	15
425.619	1	22
425.790	1	17
425.961	1	8
426.131	1	15
426.302	1	22
426.472	1	5
426.643	1	11
426.814	1	13
426.984	1	17
427.155	1	6
427.326	1	15
427.496	1	8
427.667	1	24
427.837	1	12
428.008	1	13
428.179	1	6
428.349	1	1
428.520	1	7
428.691	1	19
428.861	1	18
429.032	1	13
429.202	1	32
429.373	1	18
429.544	1	8
429.714	1	20
429.885	1	12
430.055	1	6
430.226	1	22
430.397	1	18
430.567	1	18
430.738	1	23
430.909	1	12
431.079	1	8
431.250	1	7
431.420	1	9
431.591	1	11
431.762	1	16
431.932	1	7
432.103	1	19
432.273	1	12
432.444	1	0
432.615	1	1
432.785	1	15
432.956	1	14
433.126	1	3
433.297	1	7
433.468	1	1
433.638	1	18
433.809	1	11
433.979	1	6
434.150	1	22
434.320	1	8
434.491	1	3
434.662	1	13
434.832	1	9
435.003	1	8
435.173	1	12
435.344	1	6
435.515	1	1
435.685	1	16
435.856	1	8
436.026	1	10
436.197	1	9
436.368	1	4
436.538	1	1
436.709	1	0
436.879	1	2
437.050	1	21
437.220	1	3
437.391	1	9
437.562	1	24
437.732	1	15
437.903	1	2
438.073	1	5
438.244	1	2
438.414	1	7
438.585	1	14
438.756	1	14
438.926	1	8
439.097	1	4
439.267	1	13
439.438	1	19
439.608	1	13
439.779	1	4
439.949	1	-4
440.120	1	3
440.291	1	7
440.461	1	15
440.632	1	20
440.802	1	0
440.973	1	13
441.143	1	9
441.314	1	-2
441.485	1	8
441.655	1	-1
441.826	1	1
441.996	1	6
442.167	1	11
442.337	1	7
442.508	1	7
442.678	1	-3
442.849	1	-1
443.019	1	4
443.190	1	10
443.361	1	14
443.531	1	15
443.702	1	-7
443.872	1	21
444.043	1	19
444.213	1	6
444.384	1	0
444.554	1	6
444.725	1	11
444.895	1	5
445.066	1	6
445.237	1	5
445.407	1	-3
445.578	1	12
445.748	1	5
445.919	1	10
446.089	1	2
446.260	1	-4
446.430	1	-2
446.601	1	10
446.771	1	0
446.942	1	9
447.112	1	11
447.283	1	11
447.453	1	9
447.624	1	0
447.794	1	14
447.965	1	16
448.135	1	6
448.306	1	9
448.477	1	5
448.647	1	5
448.818	1	-2
448.988	1	3
449.159	1	4
449.329	1	4
449.500	1	6
449.670	1	8
449.841	1	-3
450.011	1	17
450.182	1	3
450.352	1	20
450.523	1	15
450.693	1	11
450.864	1	9
451.034	1	13
451.205	1	6
451.375	1	3
451.546	1	10
451.716	1	9
451.887	1	3
452.057	1	7
452.228	1	7
452.398	1	13
452.569	1	-7
452.739	1	-3
452.910	1	4
453.080	1	8
453.251	1	4
453.421	1	3
453.592	1	5
453.762	1	7
453.933	1	4
454.103	1	5
454.274	1	10
454.444	1	14
454.615	1	1
454.785	1	10
454.956	1	18
455.126	1	4
455.297	1	18
455.467	1	-6
455.638	1	6
455.808	1	-3
455.979	1	3
456.149	1	14
456.320	1	20
456.490	1	10
456.661	1	-2
456.831	1	6
457.001	1	11
457.172	1	0
457.342	1	-3
457.513	1	19
457.683	1	3
457.854	1	-1
458.024	1	1
458.195	1	1
458.365	1	22
458.536	1	4
458.706	1	7
458.877	1	11
459.047	1	11
459.218	1	-7
459.388	1	13
459.559	1	6
459.729	1	3
459.899	1	3
460.070	1	7
460.240	1	9
460.411	1	0
460.581	1	15
460.752	1	3
460.922	1	17
461.093	1	2
461.263	1	1
461.434	1	12
461.604	1	22
461.775	1	7
461.945	1	6
462.115	1	7
462.286	1	-1
462.456	1	9
462.627	1	15
462.797	1	-8
462.968	1	-1
463.138	1	6
463.309	1	10
463.479	1	-1
463.649	1	-2
463.820	1	9
463.990	1	11
464.161	1	13
464.331	1	16
464.502	1	4
464.672	1	-5
464.843	1	-6
465.013	1	-2
465.183	1	5
465.354	1	18
465.524	1	4
465.695	1	11
465.865	1	5
466.036	1	10
466.206	1	6
466.376	1	-3
466.547	1	-5
466.717	1	4
466.888	1	-2
467.058	1	9
467.229	1	18
467.399	1	7
467.569	1	9
467.740	1	8
467.910	1	11
468.081	1	7
468.251	1	-4
468.422	1	4
468.592	1	7
468.762	1	-9
468.933	1	7
469.103	1	7
469.274	1	5
469.444	1	7
469.614	1	6
469.785	1	9
469.955	1	12
470.126	1	8
470.296	1	5
470.467	1	-2
470.637	1	3
470.807	1	15
470.978	1	17
471.148	1	6
471.319	1	13
471.489	1	-6
471.659	1	-1
471.830	1	17
472.000	1	2
472.171	1	3
472.341	1	-6
472.511	1	16
472.682	1	-3
472.852	1	6
473.023	1	-2
473.193	1	8
473.363	1	6
473.534	1	0
473.704	1	5
473.875	1	1
474.045	1	6
474.215	1	11
474.386	1	9
474.556	1	5
474.727	1	4
474.897	1	1
475.067	1	-3
475.238	1	8
475.408	1	3
475.578	1	8
475.749	1	13
475.919	1	8
476.090	1	3
476.260	1	7
476.430	1	9
476.601	1	18
476.771	1	3
476.942	1	9
477.112	1	-4
477.282	1	9
477.453	1	5
477.623	1	11
477.793	1	7
477.964	1	1
478.134	1	11
478.305	1	9
478.475	1	11
478.645	1	1
478.816	1	5
478.986	1	7
479.156	1	-1
479.327	1	-1
479.497	1	11
479.667	1	18
479.838	1	-3
480.008	1	-3
480.179	1	-3
480.349	1	12
480.519	1	3
480.690	1	0
480.860	1	9
481.030	1	11
481.201	1	6
481.371	1	12
481.541	1	19
481.712	1	4
481.882	1	9
482.053	1	9
482.223	1	1
482.393	1	4
482.564	1	2
482.734	1	8
482.904	1	-2
483.075	1	-3
483.245	1	7
483.415	1	11
483.586	1	10
483.756	1	14
483.926	1	5
484.097	1	11
484.267	1	-1
484.437	1	10
484.608	1	15
484.778	1	8
484.948	1	9
485.119	1	7
485.289	1	9
485.459	1	7
485.630	1	14
485.800	1	4
485.970	1	11
486.141	1	11
486.311	1	22
486.481	1	10
486.652	1	6
486.822	1	4
486.992	1	16
487.163	1	14
487.333	1	10
487.503	1	15
487.674	1	2
487.844	1	14
488.014	1	11
488.185	1	6
488.355	1	10
488.525	1	6
488.696	1	12
488.866	1	3
489.036	1	7
489.207	1	13
489.377	1	8
489.547	1	5
489.718	1	19
489.888	1	20
490.058	1	19
490.228	1	6
490.399	1	9
490.569	1	7
490.739	1	18
490.910	1	5
491.080	1	10
491.250	1	18
491.421	1	12
491.591	1	0
491.761	1	16
491.932	1	10
492.102	1	12
492.272	1	6
492.442	1	18
492.613	1	18
492.783	1	17
492.953	1	10
493.124	1	20
493.294	1	24
493.464	1	19
493.635	1	15
493.805	1	17
493.975	1	12
494.145	1	9
494.316	1	11
494.486	1	16
494.656	1	16
494.827	1	22
494.997	1	15
495.167	1	15
495.337	1	14
495.508	1	13
495.678	1	18
495.848	1	20
496.019	1	14
496.189	1	15
496.359	1	13
496.529	1	13
496.700	1	8
496.870	1	21
497.040	1	16
497.211	1	26
497.381	1	15
497.551	1	15
497.721	1	19
497.892	1	22
498.062	1	8
498.232	1	25
498.403	1	8
498.573	1	32
498.743	1	23
498.913	1	24
499.084	1	24
499.254	1	18
499.424	1	16
499.594	1	22
499.765	1	33
499.935	1	18
500.105	1	21
500.275	1	18
500.446	1	20
500.616	1	20
500.786	1	33
500.956	1	23
501.127	1	25
501.297	1	24
501.467	1	31
501.638	1	36
501.808	1	23
501.978	1	25
502.148	1	25
502.319	1	41
502.489	1	34
502.659	1	40
502.829	1	37
503.000	1	28
503.170	1	27
503.340	1	38
503.510	1	31
503.681	1	26
503.851	1	32
504.021	1	30
504.191	1	38
504.362	1	41
504.532	1	37
504.702	1	30
504.872	1	21
505.042	1	31
505.213	1	33
505.383	1	36
505.553	1	36
505.723	1	45
505.894	1	22
506.064	1	33
506.234	1	39
506.404	1	33
506.575	1	35
506.745	1	53
506.915	1	44
507.085	1	26
507.256	1	34
507.426	1	44
507.596	1	38
507.766	1	31
507.936	1	47
508.107	1	50
508.277	1	28
508.447	1	35
508.617	1	29
508.788	1	49
508.958	1	31
509.128	1	41
509.298	1	41
509.468	1	55
509.639	1	30
509.809	1	50
509.979	1	36
510.149	1	43
510.319	1	44
510.490	1	44
510.660	1	43
510.830	1	35
511.000	1	40
511.171	1	38
511.341	1	47
511.511	1	48
511.681	1	52
511.851	1	46
512.022	1	33
512.192	1	44
512.362	1	42
512.532	1	38
512.702	1	48
512.873	1	47
513.043	1	36
513.213	1	54
513.383	1	54
513.553	1	51
513.724	1	30
513.894	1	35
514.064	1	50
514.234	1	50
514.404	1	48
514.575	1	43
514.745	1	33
514.915	1	30
515.085	1	46
515.255	1	43
515.425	1	48
515.596	1	46
515.766	1	45
515.936	1	43
516.106	1	49
516.276	1	47
516.447	1	53
516.617	1	42
516.787	1	40
516.957	1	49
517.127	1	53
517.297	1	48
517.468	1	47
517.638	1	39
517.808	1	48
517.978	1	53
518.148	1	41
518.319	1	48
518.489	1	44
518.659	1	51
518.829	1	51
518.999	1	49
519.169	1	47
519.340	1	59
519.510	1	51
519.680	1	49
519.850	1	44
520.020	1	56
520.190	1	48
520.361	1	46
520.531	1	63
520.701	1	51
520.871	1	43
521.041	1	54
521.211	1	57
521.382	1	56
521.552	1	52
521.722	1	56
521.892	1	58
522.062	1	57
522.232	1	65
522.402	1	59
522.573	1	61
522.743	1	57
522.913	1	57
523.083	1	59
523.253	1	57
523.423	1	56
523.593	1	59
523.764	1	57
523.934	1	66
524.104	1	57
524.274	1	53
524.444	1	51
524.614	1	65
524.784	1	52
524.955	1	50
525.125	1	61
525.295	1	54
525.465	1	56
525.635	1	52
525.805	1	58
525.975	1	56
526.146	1	44
526.316	1	61
526.486	1	56
526.656	1	51
526.826	1	57
526.996	1	42
527.166	1	48
527.337	1	60
527.507	1	71
527.677	1	58
527.847	1	52
528.017	1	48
528.187	1	68
528.357	1	55
528.527	1	51
528.698	1	51
528.868	1	55
529.038	1	50
529.208	1	45
529.378	1	71
529.548	1	60
529.718	1	58
529.888	1	72
530.058	1	63
530.229	1	56
530.399	1	52
530.569	1	50
530.739	1	53
530.909	1	52
531.079	1	41
531.249	1	44
531.419	1	69
531.589	1	59
531.760	1	64
531.930	1	71
532.100	1	59
532.270	1	66
532.440	1	63
532.610	1	61
532.780	1	66
532.950	1	70
533.120	1	66
533.290	1	55
533.461	1	58
533.631	1	56
533.801	1	54
533.971	1	55
534.141	1	59
534.311	1	65
534.481	1	59
534.651	1	50
534.821	1	49
534.991	1	64
535.162	1	51
535.332	1	46
535.502	1	57
535.672	1	50
535.842	1	55
536.012	1	45
536.182	1	70
536.352	1	46
536.522	1	56
536.692	1	50
536.862	1	58
537.032	1	47
537.203	1	56
537.373	1	60
537.543	1	40
537.713	1	51
537.883	1	47
538.053	1	49
538.223	1	62
538.393	1	54
538.563	1	54
538.733	1	53
538.903	1	49
539.073	1	50
539.243	1	43
539.413	1	59
539.584	1	48
539.754	1	58
539.924	1	53
540.094	1	49
540.264	1	41
540.434	1	55
540.604	1	57
540.774	1	50
540.944	1	33
541.114	1	48
541.284	1	55
541.454	1	55
541.624	1	52
541.794	1	47
541.964	1	41
542.134	1	57
542.305	1	47
542.475	1	44
542.645	1	46
542.815	1	45
542.985	1	53
543.155	1	37
543.325	1	42
543.495	1	58
543.665	1	38
543.835	1	47
544.005	1	40
544.175	1	50
544.345	1	38
544.515	1	49
544.685	1	54
544.855	1	35
545.025	1	39
545.195	1	37
545.365	1	49
545.535	1	42
545.705	1	53
545.875	1	42
546.045	1	53
546.216	1	37
546.386	1	45
546.556	1	54
546.726	1	53
546.896	1	47
547.066	1	56
547.236	1	52
547.406	1	30
547.576	1	50
547.746	1	58
547.916	1	49
548.086	1	55
548.256	1	43
548.426	1	42
548.596	1	43
548.766	1	55
548.936	1	55
549.106	1	58
549.276	1	47
549.446	1	45
549.616	1	46
549.786	1	42
549.956	1	42
550.126	1	42
550.296	1	56
550.466	1	56
550.636	1	45
550.806	1	57
550.976	1	55
551.146	1	47
551.316	1	42
551.486	1	54
551.656	1	52
551.826	1	64
551.996	1	33
552.166	1	48
552.336	1	43
552.506	1	49
552.676	1	52
552.846	1	48
553.016	1	59
553.186	1	46
553.356	1	36
553.526	1	47
553.696	1	54
553.866	1	52
554.036	1	40
554.206	1	45
554.376	1	29
554.546	1	53
554.716	1	40
554.886	1	51
555.056	1	40
555.226	1	46
555.396	1	36
555.566	1	40
555.736	1	41
555.906	1	41
556.076	1	39
556.246	1	38
556.416	1	31
556.586	1	31
556.756	1	34
556.926	1	40
557.096	1	43
557.266	1	29
557.436	1	40
557.606	1	34
557.776	1	45
557.946	1	31
558.116	1	40
558.286	1	39
558.456	1	29
558.626	1	24
558.796	1	30
558.966	1	31
559.136	1	33
559.306	1	35
559.476	1	46
559.646	1	33
559.816	1	42
559.986	1	33
560.155	1	42
560.325	1	43
560.495	1	39
560.665	1	26
560.835	1	32
561.005	1	38
561.175	1	34
561.345	1	24
561.515	1	24
561.685	1	31
561.855	1	30
562.025	1	34
562.195	1	33
562.365	1	35
562.535	1	36
562.705	1	30
562.875	1	33
563.045	1	20
563.215	1	28
563.385	1	15
563.555	1	22
563.725	1	38
563.895	1	31
564.064	1	22
564.234	1	33
564.404	1	28
564.574	1	42
564.744	1	30
564.914	1	33
565.084	1	23
565.254	1	36
565.424	1	36
565.594	1	29
565.764	1	27
565.934	1	39
566.104	1	25
566.274	1	36
566.444	1	19
566.614	1	34
566.783	1	30
566.953	1	33
567.123	1	40
567.293	1	23
567.463	1	21
567.633	1	23
567.803	1	43
567.973	1	31
568.143	1	33
568.313	1	31
568.483	1	36
568.653	1	22
568.823	1	18
568.993	1	26
569.162	1	29
569.332	1	42
569.502	1	32
569.672	1	22
569.842	1	20
570.012	1	30
570.182	1	24
570.352	1	37
570.522	1	25
570.692	1	34
570.862	1	28
571.031	1	24
571.201	1	28
571.371	1	33
571.541	1	28
571.711	1	23
571.881	1	26
572.051	1	28
572.221	1	30
572.391	1	28
572.561	1	35
572.731	1	37
572.900	1	10
573.070	1	26
573.240	1	9
573.410	1	17
573.580	1	16
573.750	1	26
573.920	1	19
574.090	1	27
574.260	1	9
574.430	1	15
574.599	1	16
574.769	1	21
574.939	1	13
575.109	1	15
575.279	1	18
575.449	1	34
575.619	1	25
575.789	1	8
575.959	1	30
576.128	1	4
576.298	1	15
576.468	1	25
576.638	1	11
576.808	1	22
576.978	1	17
577.148	1	16
577.318	1	29
577.487	1	23
577.657	1	16
577.827	1	21
577.997	1	21
578.167	1	11
578.337	1	32
578.507	1	13
578.677	1	17
578.846	1	12
579.016	1	13
579.186	1	14
579.356	1	23
579.526	1	15
579.696	1	29
579.866	1	6
580.036	1	16
580.205	1	12
580.375	1	29
580.545	1	16
580.715	1	16
580.885	1	18
581.055	1	8
581.225	1	18
581.394	1	4
581.564	1	10
581.734	1	6
581.904	1	11
582.074	1	6
582.244	1	24
582.414	1	15
582.583	1	21
582.753	1	22
582.923	1	16
583.093	1	18
583.263	1	25
583.433	1	10
583.603	1	10
583.772	1	0
583.942	1	21
584.112	1	6
584.282	1	17
584.452	1	6
584.622	1	15
584.791	1	14
584.961	1	6
585.131	1	20
585.301	1	18
585.471	1	14
585.641	1	9
585.811	1	5
585.980	1	8
586.150	1	9
586.320	1	14
586.490	1	17
586.660	1	10
586.830	1	11
586.999	1	7
587.169	1	23
587.339	1	1
587.509	1	14
587.679	1	1
587.849	1	15
588.018	1	-3
588.188	1	16
588.358	1	12
588.528	1	11
588.698	1	6
588.867	1	8
589.037	1	15
589.207	1	12
589.377	1	16
589.547	1	14
589.717	1	3
589.886	1	8
590.056	1	14
590.226	1	4
590.396	1	6
590.566	1	4
590.735	1	-1
590.905	1	22
591.075	1	8
591.245	1	7
591.415	1	12
591.585	1	18
591.754	1	14
591.924	1	13
592.094	1	8
592.264	1	-2
592.434	1	10
592.603	1	8
592.773	1	6
592.943	1	12
593.113	1	3
593.283	1	12
593.452	1	3
593.622	1	14
593.792	1	14
593.962	1	13
594.132	1	15
594.301	1	18
594.471	1	15
594.641	1	3
594.811	1	9
594.981	1	10
595.150	1	13
595.320	1	4
595.490	1	11
595.660	1	4
595.829	1	2
595.999	1	4
596.169	1	7
596.339	1	18
596.509	1	5
596.678	1	17
596.848	1	20
597.018	1	5
597.188	1	0
597.358	1	10
597.527	1	12
597.697	1	-3
597.867	1	12
598.037	1	11
598.206	1	18
598.376	1	5
598.546	1	11
598.716	1	-1
598.885	1	16
599.055	1	10
599.225	1	3
599.395	1	6
599.565	1	1
599.734	1	17
599.904	1	-3
600.074	1	18
600.244	1	6
600.413	1	8
600.583	1	6
600.753	1	20
600.923	1	4
601.092	1	17
601.262	1	6
601.432	1	7
601.602	1	18
601.771	1	10
601.941	1	10
602.111	1	9
602.281	1	11
602.451	1	1
602.620	1	18
602.790	1	9
602.960	1	3
603.130	1	3
603.299	1	15
603.469	1	12
603.639	1	-5
603.809	1	18
603.978	1	3
604.148	1	7
604.318	1	0
604.487	1	11
604.657	1	5
604.827	1	9
604.997	1	13
605.166	1	-2
605.336	1	5
605.506	1	14
605.676	1	11
605.845	1	0
606.015	1	5
606.185	1	7
606.355	1	1
606.524	1	5
606.694	1	15
606.864	1	10
607.034	1	13
607.203	1	14
607.373	1	14
607.543	1	2
607.712	1	-2
607.882	1	4
608.052	1	2
608.222	1	10
608.391	1	13
608.561	1	7
608.731	1	11
608.901	1	7
609.070	1	1
609.240	1	2
609.410	1	13
609.579	1	13
609.749	1	13
609.919	1	0
610.089	1	12
610.258	1	4
610.428	1	11
610.598	1	8
610.767	1	15
610.937	1	5
611.107	1	6
611.277	1	-4
611.446	1	9
611.616	1	18
611.786	1	7
611.955	1	4
612.125	1	13
612.295	1	7
612.465	1	6
612.634	1	8
612.804	1	11
612.974	1	10
613.143	1	-10
613.313	1	5
613.483	1	14
613.652	1	14
613.822	1	6
613.992	1	0
614.162	1	7
614.331	1	9
614.501	1	0
614.671	1	1
614.840	1	-2
615.010	1	0
615.180	1	8
615.349	1	13
615.519	1	0
615.689	1	-9
615.858	1	22
616.028	1	7
616.198	1	8
616.368	1	7
616.537	1	8
616.707	1	3
616.877	1	8
617.046	1	15
617.216	1	12
617.386	1	6
617.555	1	2
617.725	1	11
617.895	1	4
618.064	1	9
618.234	1	1
618.404	1	0
618.573	1	10
618.743	1	13
618.913	1	15
619.082	1	4
619.252	1	14
619.422	1	-4
619.591	1	3
619.761	1	7
619.931	1	-1
620.100	1	21
620.270	1	16
620.440	1	13
620.609	1	10
620.779	1	12
620.949	1	0
621.118	1	9
621.288	1	6
621.458	1	1
621.627	1	-1
621.797	1	0
621.967	1	2
622.136	1	8
622.306	1	13
622.476	1	3
622.645	1	3
622.815	1	8
622.985	1	8
623.154	1	5
623.324	1	9
623.494	1	-8
623.663	1	8
623.833	1	10
624.002	1	8
624.172	1	5
624.342	1	9
624.511	1	2
624.681	1	-1
624.851	1	-6
625.020	1	9
625.190	1	5
625.360	1	6
625.529	1	5
625.699	1	2
625.869	1	13
626.038	1	5
626.208	1	14
626.377	1	6
626.547	1	-2
626.717	1	-2
626.886	1	1
627.056	1	4
627.226	1	5
627.395	1	2
627.565	1	5
627.735	1	11
627.904	1	13
628.074	1	16
628.243	1	15
628.413	1	-4
628.583	1	11
628.752	1	2
628.922	1	3
629.091	1	8
629.261	1	10
629.431	1	5
629.600	1	10
629.770	1	10
629.940	1	1
630.109	1	14
630.279	1	6
630.448	1	1
630.618	1	7
630.788	1	0
630.957	1	12
631.127	1	-1
631.297	1	-3
631.466	1	2
631.636	1	7
631.805	1	4
631.975	1	10
632.145	1	4
632.314	1	6
632.484	1	3
632.653	1	-5
632.823	1	-2
632.993	1	7
633.162	1	6
633.332	1	-6
633.501	1	1
633.671	1	7
633.841	1	7
634.010	1	17
634.180	1	6
634.349	1	13
634.519	1	14
634.689	1	6
634.858	1	-7
635.028	1	4
635.197	1	5
635.367	1	11
635.537	1	0
635.706	1	6
635.876	1	15
636.045	1	17
636.215	1	11
636.384	1	5
636.554	1	11
636.724	1	2
636.893	1	4
637.063	1	1
637.232	1	6
637.402	1	-1
637.572	1	-3
637.741	1	8
637.911	1	7
638.080	1	12
638.250	1	8
638.419	1	1
638.589	1	8
638.759	1	-1
638.928	1	6
639.098	1	6
639.267	1	7
639.437	1	12
639.606	1	14
639.776	1	11
639.946	1	4
640.115	1	0
640.285	1	19
640.454	1	4
640.624	1	17
640.793	1	3
640.963	1	7
641.132	1	3
641.302	1	1
641.472	1	4
641.641	1	3
641.811	1	2
641.980	1	3
642.150	1	-4
642.319	1	11
642.489	1	-1
642.659	1	14
642.828	1	2
642.998	1	7
643.167	1	-1
643.337	1	5
643.506	1	6
643.676	1	5
643.845	1	14
644.015	1	1
644.184	1	-1
644.354	1	10
644.524	1	-1
644.693	1	7
644.863	1	8
645.032	1	5
645.202	1	-3
645.371	1	-6
645.541	1	8
645.710	1	-3
645.880	1	1
646.049	1	3
646.219	1	2
646.388	1	8
646.558	1	5
646.728	1	3
646.897	1	15
647.067	1	-1
647.236	1	8
647.406	1	8
647.575	1	12
647.745	1	7
647.914	1	-5
648.084	1	4
648.253	1	-1
648.423	1	0
648.592	1	-6
648.762	1	11
648.931	1	1
649.101	1	0
649.270	1	-2
649.440	1	1
649.610	1	5
649.779	1	12
649.949	1	10
650.118	1	4
650.288	1	0
650.457	1	12
650.627	1	-1
650.796	1	3
650.966	1	-7
651.135	1	-2
651.305	1	-5
651.474	1	13
651.644	1	16
651.813	1	13
651.983	1	3
652.152	1	8
652.322	1	9
652.491	1	11
652.661	1	3
652.830	1	13
653.000	1	1
653.169	1	6
653.339	1	9
653.508	1	2
653.678	1	3
653.847	1	4
654.017	1	14
654.186	1	5
654.356	1	12
654.525	1	-8
654.695	1	7
654.864	1	3
655.034	1	2
655.203	1	8
655.373	1	23
655.542	1	2
655.712	1	1
655.881	1	10
656.051	1	14
656.220	1	6
656.390	1	2
656.559	1	-4
656.729	1	-10
656.898	1	11
657.068	1	9
657.237	1	16
657.406	1	7
657.576	1	4
657.745	1	10
657.915	1	-2
658.084	1	4
658.254	1	10
658.423	1	5
658.593	1	6
658.762	1	14
658.932	1	-2
659.101	1	-6
659.271	1	1
659.440	1	9
659.610	1	5
659.779	1	11
659.949	1	4
660.118	1	7
660.288	1	-2
660.457	1	3
660.626	1	10
660.796	1	6
660.965	1	0
661.135	1	-3
661.304	1	-1
661.474	1	2
661.643	1	2
661.813	1	1
661.982	1	7
662.152	1	0
662.321	1	8
662.491	1	7
662.660	1	5
662.829	1	5
662.999	1	4
663.168	1	9
663.338	1	8
663.507	1	0
663.677	1	9
663.846	1	8
664.016	1	4
664.185	1	1
664.354	1	9
664.524	1	4
664.693	1	-6
664.863	1	-1
665.032	1	3
665.202	1	5
665.371	1	-5
665.541	1	17
665.710	1	0
665.879	1	2
666.049	1	0
666.218	1	-3
666.388	1	7
666.557	1	5
666.727	1	3
666.896	1	6
667.065	1	2
667.235	1	20
667.404	1	0
667.574	1	6
667.743	1	5
667.913	1	11
668.082	1	-1
668.251	1	9
668.421	1	6
668.590	1	4
668.760	1	2
668.929	1	11
669.099	1	6
669.268	1	-7
669.437	1	-2
669.607	1	23
669.776	1	5
669.946	1	0
670.115	1	-13
670.285	1	7
670.454	1	4
670.623	1	6
670.793	1	3
670.962	1	2
671.132	1	-1
671.301	1	1
671.470	1	-5
671.640	1	4
671.809	1	8
671.979	1	6
672.148	1	11
672.317	1	4
672.487	1	-2
672.656	1	-6
672.826	1	9
672.995	1	14
673.164	1	-4
673.334	1	9
673.503	1	-2
673.673	1	1
673.842	1	11
674.011	1	7
674.181	1	14
674.350	1	0
674.520	1	7
674.689	1	7
674.858	1	-11
675.028	1	8
675.197	1	-3
675.367	1	1
675.536	1	8
675.705	1	13
675.875	1	6
676.044	1	-4
676.214	1	2
676.383	1	10
676.552	1	5
676.722	1	0
676.891	1	-2
677.060	1	-2
677.230	1	9
677.399	1	-2
677.569	1	22
677.738	1	19
677.907	1	-4
678.077	1	8
678.246	1	13
678.416	1	3
678.585	1	-4
678.754	1	10
678.924	1	6
679.093	1	5
679.262	1	6
679.432	1	7
679.601	1	4
679.771	1	10
679.940	1	13
680.109	1	-2
680.279	1	7
680.448	1	5
680.617	1	3
680.787	1	-6
680.956	1	12
681.125	1	10
681.295	1	-1
681.464	1	0
681.634	1	15
681.803	1	1
681.972	1	-5
682.142	1	-2
682.311	1	7
682.480	1	11
682.650	1	8
682.819	1	3
682.988	1	-5
683.158	1	5
683.327	1	13
683.496	1	7
683.666	1	8
683.835	1	4
684.004	1	7
684.174	1	5
684.343	1	8
684.512	1	-1
684.682	1	0
684.851	1	3
685.021	1	-8
685.190	1	11
685.359	1	-1
685.529	1	8
685.698	1	6
685.867	1	7
686.037	1	4
686.206	1	1
686.375	1	-4
686.545	1	12
686.714	1	6
686.883	1	6
687.053	1	-2
687.222	1	6
687.391	1	7
687.561	1	8
687.730	1	-3
687.899	1	2
688.069	1	15
688.238	1	-3
688.407	1	17
688.577	1	2
688.746	1	11
