340.368	1	7
340.539	1	8
340.710	1	9
340.881	1	0
341.052	1	-5
341.223	1	14
341.394	1	-5
341.565	1	-4
341.737	1	2
341.908	1	-4
342.079	1	-6
342.250	1	-1
342.421	1	14
342.592	1	3
342.763	1	4
342.934	1	-7
343.105	1	9
343.276	1	0
343.447	1	-12
343.618	1	-2
343.789	1	-7
343.960	1	1
344.131	1	7
344.302	1	1
344.473	1	-2
344.644	1	-6
344.815	1	-4
344.986	1	4
345.157	1	5
345.328	1	-4
345.499	1	4
345.670	1	-2
345.841	1	4
346.012	1	4
346.183	1	8
346.354	1	4
346.526	1	-1
346.697	1	9
346.868	1	-1
347.039	1	-4
347.210	1	-8
347.381	1	2
347.552	1	4
347.723	1	7
347.894	1	4
348.065	1	15
348.236	1	10
348.407	1	4
348.578	1	-2
348.749	1	1
348.920	1	-1
349.091	1	2
349.262	1	6
349.433	1	-2
349.604	1	7
349.775	1	-2
349.946	1	-6
350.117	1	-6
350.288	1	2
350.459	1	-14
350.630	1	6
350.801	1	6
350.972	1	10
351.143	1	4
351.314	1	3
351.485	1	13
351.656	1	5
351.827	1	2
351.998	1	-3
352.169	1	1
352.340	1	1
352.511	1	1
352.682	1	6
352.853	1	-5
353.024	1	2
353.195	1	0
353.366	1	2
353.537	1	-3
353.708	1	1
353.879	1	-9
354.050	1	8
354.221	1	-8
354.392	1	11
354.563	1	0
354.734	1	9
354.905	1	4
355.076	1	10
355.247	1	5
355.418	1	-4
355.589	1	-2
355.760	1	13
355.931	1	3
356.102	1	-6
356.273	1	4
356.444	1	6
356.615	1	0
356.785	1	3
356.956	1	8
357.127	1	4
357.298	1	9
357.469	1	2
357.640	1	3
357.811	1	4
357.982	1	1
358.153	1	5
358.324	1	11
358.495	1	-2
358.666	1	-1
358.837	1	14
359.008	1	13
359.179	1	0
359.350	1	0
359.521	1	10
359.692	1	11
359.863	1	11
360.034	1	8
360.205	1	-5
360.376	1	0
360.547	1	3
360.718	1	13
360.889	1	10
361.060	1	10
361.231	1	6
361.401	1	1
361.572	1	-1
361.743	1	23
361.914	1	14
362.085	1	17
362.256	1	12
362.427	1	7
362.598	1	5
362.769	1	11
362.940	1	14
363.111	1	20
363.282	1	2
363.453	1	16
363.624	1	9
363.795	1	17
363.966	1	18
364.137	1	27
364.308	1	21
364.478	1	11
364.649	1	24
364.820	1	23
364.991	1	22
365.162	1	24
365.333	1	14
365.504	1	13
365.675	1	27
365.846	1	16
366.017	1	20
366.188	1	21
366.359	1	18
366.530	1	32
366.701	1	29
366.871	1	30
367.042	1	33
367.213	1	37
367.384	1	16
367.555	1	32
367.726	1	22
367.897	1	42
368.068	1	25
368.239	1	29
368.410	1	32
368.581	1	19
368.752	1	29
368.923	1	18
369.093	1	27
369.264	1	19
369.435	1	17
369.606	1	24
369.777	1	31
369.948	1	11
370.119	1	21
370.290	1	22
370.461	1	23
370.632	1	18
370.803	1	32
370.973	1	8
371.144	1	18
371.315	1	11
371.486	1	9
371.657	1	13
371.828	1	21
371.999	1	8
372.170	1	17
372.341	1	11
372.512	1	18
372.682	1	9
372.853	1	12
373.024	1	18
373.195	1	10
373.366	1	8
373.537	1	29
373.708	1	9
373.879	1	10
374.050	1	9
374.220	1	10
374.391	1	9
374.562	1	12
374.733	1	9
374.904	1	21
375.075	1	2
375.246	1	-4
375.417	1	12
375.588	1	15
375.758	1	-5
375.929	1	9
376.100	1	16
376.271	1	7
376.442	1	-9
376.613	1	12
376.784	1	14
376.955	1	2
377.125	1	10
377.296	1	5
377.467	1	-2
377.638	1	-2
377.809	1	15
377.980	1	7
378.151	1	15
378.321	1	7
378.492	1	11
378.663	1	6
378.834	1	21
379.005	1	8
379.176	1	9
379.347	1	7
379.518	1	1
379.688	1	8
379.859	1	4
380.030	1	22
380.201	1	23
380.372	1	18
380.543	1	16
380.714	1	1
380.884	1	20
381.055	1	5
381.226	1	-4
381.397	1	7
381.568	1	10
381.739	1	8
381.910	1	-3
382.080	1	2
382.251	1	-2
382.422	1	9
382.593	1	7
382.764	1	8
382.935	1	4
383.105	1	2
383.276	1	3
383.447	1	24
383.618	1	23
383.789	1	7
383.960	1	14
384.130	1	13
384.301	1	17
384.472	1	6
384.643	1	1
384.814	1	18
384.985	1	1
385.156	1	19
385.326	1	16
385.497	1	9
385.668	1	16
385.839	1	17
386.010	1	20
386.180	1	12
386.351	1	17
386.522	1	14
386.693	1	21
386.864	1	18
387.035	1	8
387.205	1	13
387.376	1	13
387.547	1	23
387.718	1	19
387.889	1	12
388.060	1	15
388.230	1	14
388.401	1	12
388.572	1	23
388.743	1	16
388.914	1	6
389.084	1	16
389.255	1	6
389.426	1	17
389.597	1	19
389.768	1	16
389.939	1	10
390.109	1	5
390.280	1	3
390.451	1	13
390.622	1	12
390.793	1	20
390.963	1	11
391.134	1	-2
391.305	1	8
391.476	1	16
391.647	1	11
391.817	1	9
391.988	1	-2
392.159	1	13
392.330	1	11
392.501	1	16
392.671	1	8
392.842	1	22
393.013	1	24
393.184	1	9
393.355	1	5
393.525	1	20
393.696	1	5
393.867	1	26
394.038	1	4
394.208	1	15
394.379	1	-1
394.550	1	11
394.721	1	11
394.892	1	-3
395.062	1	15
395.233	1	14
395.404	1	13
395.575	1	10
395.746	1	13
395.916	1	17
396.087	1	9
396.258	1	22
396.429	1	14
396.599	1	15
396.770	1	8
396.941	1	10
397.112	1	1
397.283	1	-4
397.453	1	11
397.624	1	16
397.795	1	8
397.966	1	22
398.136	1	8
398.307	1	9
398.478	1	9
398.649	1	9
398.819	1	13
398.990	1	11
399.161	1	16
399.332	1	15
399.503	1	13
399.673	1	-5
399.844	1	11
400.015	1	16
400.186	1	6
400.356	1	17
400.527	1	12
400.698	1	9
400.869	1	-3
401.039	1	0
401.210	1	9
401.381	1	8
401.552	1	-4
401.722	1	16
401.893	1	16
402.064	1	12
402.235	1	-8
402.405	1	11
402.576	1	-4
402.747	1	10
402.918	1	8
403.088	1	5
403.259	1	6
403.430	1	9
403.601	1	12
403.771	1	16
403.942	1	8
404.113	1	12
404.284	1	2
404.454	1	8
404.625	1	2
404.796	1	-6
404.967	1	8
405.137	1	7
405.308	1	5
405.479	1	16
405.649	1	15
405.820	1	9
405.991	1	0
406.162	1	16
406.332	1	-6
406.503	1	7
406.674	1	4
406.845	1	9
407.015	1	5
407.186	1	-1
407.357	1	11
407.527	1	10
407.698	1	13
407.869	1	17
408.040	1	10
408.210	1	13
408.381	1	-4
408.552	1	-6
408.722	1	-1
408.893	1	-4
409.064	1	4
409.235	1	13
409.405	1	18
409.576	1	11
409.747	1	9
409.917	1	3
410.088	1	10
410.259	1	1
410.430	1	6
410.600	1	-4
410.771	1	-4
410.942	1	0
411.112	1	10
411.283	1	9
411.454	1	0
411.625	1	2
411.795	1	12
411.966	1	19
412.137	1	13
412.307	1	14
412.478	1	10
412.649	1	-7
412.819	1	5
412.990	1	-5
413.161	1	-7
413.332	1	8
413.502	1	-1
413.673	1	25
413.844	1	9
414.014	1	-5
414.185	1	-1
414.356	1	0
414.526	1	5
414.697	1	9
414.868	1	-5
415.038	1	8
415.209	1	-9
415.380	1	16
415.550	1	14
415.721	1	3
415.892	1	2
416.063	1	6
416.233	1	5
416.404	1	1
416.575	1	1
416.745	1	-3
416.916	1	6
417.087	1	11
417.257	1	9
417.428	1	0
417.599	1	8
417.769	1	-4
417.940	1	6
418.111	1	-3
418.281	1	6
418.452	1	6
418.623	1	-5
418.793	1	-3
418.964	1	5
419.135	1	16
419.305	1	-2
419.476	1	4
419.647	1	1
419.817	1	7
419.988	1	-7
420.159	1	9
420.329	1	3
420.500	1	11
420.671	1	-3
420.841	1	4
421.012	1	-4
421.183	1	2
421.353	1	2
421.524	1	7
421.695	1	3
421.865	1	9
422.036	1	6
422.206	1	14
422.377	1	11
422.548	1	6
422.718	1	-3
422.889	1	-7
423.060	1	0
423.230	1	5
423.401	1	10
423.572	1	12
423.742	1	2
423.913	1	9
424.084	1	8
424.254	1	1
424.425	1	-7
424.595	1	-6
424.766	1	-2
424.937	1	5
425.107	1	8
425.278	1	-3
425.449	1	-2
425.619	1	6
425.790	1	6
425.961	1	5
426.131	1	-4
426.302	1	6
426.472	1	11
426.643	1	-3
426.814	1	-4
426.984	1	11
427.155	1	-4
427.326	1	2
427.496	1	-9
427.667	1	8
427.837	1	3
428.008	1	1
428.179	1	-5
428.349	1	-3
428.520	1	16
428.691	1	4
428.861	1	1
429.032	1	-2
429.202	1	8
429.373	1	-4
429.544	1	8
429.714	1	-2
429.885	1	4
430.055	1	3
430.226	1	6
430.397	1	5
430.567	1	1
430.738	1	1
430.909	1	5
431.079	1	0
431.250	1	-1
431.420	1	0
431.591	1	3
431.762	1	-2
431.932	1	-4
432.103	1	4
432.273	1	5
432.444	1	1
432.615	1	-4
432.785	1	-2
432.956	1	-2
433.126	1	3
433.297	1	6
433.468	1	-2
433.638	1	-3
433.809	1	4
433.979	1	2
434.150	1	10
434.320	1	2
434.491	1	11
434.662	1	8
434.832	1	3
435.003	1	6
435.173	1	-1
435.344	1	4
435.515	1	-10
435.685	1	7
435.856	1	-4
436.026	1	-1
436.197	1	1
436.368	1	-4
436.538	1	-6
436.709	1	-4
436.879	1	-4
437.050	1	8
437.220	1	-7
437.391	1	5
437.562	1	10
437.732	1	10
437.903	1	-4
438.073	1	8
438.244	1	3
438.414	1	8
438.585	1	0
438.756	1	6
438.926	1	-10
439.097	1	15
439.267	1	2
439.438	1	6
439.608	1	4
439.779	1	-8
439.949	1	-4
440.120	1	-5
440.291	1	13
440.461	1	10
440.632	1	5
440.802	1	8
440.973	1	13
441.143	1	-3
441.314	1	-6
441.485	1	-2
441.655	1	-5
441.826	1	-9
441.996	1	4
442.167	1	2
442.337	1	11
442.508	1	3
442.678	1	-1
442.849	1	-4
443.019	1	7
443.190	1	4
443.361	1	4
443.531	1	0
443.702	1	-3
443.872	1	-1
444.043	1	5
444.213	1	3
444.384	1	7
444.554	1	-1
444.725	1	-7
444.895	1	1
445.066	1	0
445.237	1	-4
445.407	1	-3
445.578	1	2
445.748	1	-1
445.919	1	2
446.089	1	0
446.260	1	-2
446.430	1	-6
446.601	1	10
446.771	1	-4
446.942	1	1
447.112	1	5
447.283	1	-6
447.453	1	6
447.624	1	5
447.794	1	6
447.965	1	0
448.135	1	5
448.306	1	-7
448.477	1	2
448.647	1	0
448.818	1	-1
448.988	1	-3
449.159	1	5
449.329	1	-5
449.500	1	5
449.670	1	4
449.841	1	0
450.011	1	3
450.182	1	-4
450.352	1	3
450.523	1	4
450.693	1	1
450.864	1	8
451.034	1	10
451.205	1	0
451.375	1	-3
451.546	1	-4
451.716	1	2
451.887	1	-4
452.057	1	11
452.228	1	10
452.398	1	6
452.569	1	-6
452.739	1	10
452.910	1	-5
453.080	1	5
453.251	1	-4
453.421	1	-2
453.592	1	-4
453.762	1	-1
453.933	1	-6
454.103	1	6
454.274	1	1
454.444	1	6
454.615	1	17
454.785	1	-1
454.956	1	9
455.126	1	-3
455.297	1	-5
455.467	1	-16
455.638	1	1
455.808	1	1
455.979	1	10
456.149	1	7
456.320	1	1
456.490	1	1
456.661	1	-10
456.831	1	4
457.001	1	7
457.172	1	14
457.342	1	1
457.513	1	8
457.683	1	7
457.854	1	4
458.024	1	-2
458.195	1	-14
458.365	1	6
458.536	1	-9
458.706	1	7
458.877	1	-3
459.047	1	13
459.218	1	-1
459.388	1	4
459.559	1	4
459.729	1	-2
459.899	1	-2
460.070	1	-2
460.240	1	-1
460.411	1	-9
460.581	1	1
460.752	1	2
460.922	1	24
461.093	1	-5
461.263	1	0
461.434	1	6
461.604	1	5
461.775	1	-6
461.945	1	-4
462.115	1	3
462.286	1	1
462.456	1	12
462.627	1	4
462.797	1	-10
462.968	1	2
463.138	1	2
463.309	1	3
463.479	1	2
463.649	1	-5
463.820	1	-1
463.990	1	6
464.161	1	5
464.331	1	8
464.502	1	9
464.672	1	-10
464.843	1	1
465.013	1	0
465.183	1	0
465.354	1	10
465.524	1	-2
465.695	1	7
465.865	1	10
466.036	1	10
466.206	1	-1
466.376	1	1
466.547	1	-1
466.717	1	5
466.888	1	-7
467.058	1	-1
467.229	1	-1
467.399	1	-5
467.569	1	6
467.740	1	7
467.910	1	0
468.081	1	2
468.251	1	-2
468.422	1	-6
468.592	1	6
468.762	1	-10
468.933	1	4
469.103	1	1
469.274	1	0
469.444	1	15
469.614	1	4
469.785	1	5
469.955	1	1
470.126	1	-1
470.296	1	6
470.467	1	-12
470.637	1	-3
470.807	1	4
470.978	1	7
471.148	1	-1
471.319	1	0
471.489	1	-14
471.659	1	2
471.830	1	12
472.000	1	3
472.171	1	4
472.341	1	-1
472.511	1	10
472.682	1	-9
472.852	1	-4
473.023	1	-2
473.193	1	0
473.363	1	5
473.534	1	2
473.704	1	6
473.875	1	-5
474.045	1	3
474.215	1	3
474.386	1	1
474.556	1	3
474.727	1	-6
474.897	1	8
475.067	1	-7
475.238	1	-15
475.408	1	-10
475.578	1	0
475.749	1	4
475.919	1	4
476.090	1	6
476.260	1	5
476.430	1	6
476.601	1	-1
476.771	1	-2
476.942	1	-2
477.112	1	-5
477.282	1	2
477.453	1	0
477.623	1	7
477.793	1	1
477.964	1	7
478.134	1	-2
478.305	1	2
478.475	1	1
478.645	1	2
478.816	1	-1
478.986	1	-1
479.156	1	-1
479.327	1	2
479.497	1	8
479.667	1	11
479.838	1	-14
480.008	1	4
480.179	1	-4
480.349	1	-3
480.519	1	-1
480.690	1	-7
480.860	1	8
481.030	1	3
481.201	1	-7
481.371	1	8
481.541	1	5
481.712	1	3
481.882	1	-8
482.053	1	3
482.223	1	-8
482.393	1	7
482.564	1	7
482.734	1	3
482.904	1	-2
483.075	1	-4
483.245	1	2
483.415	1	1
483.586	1	6
483.756	1	-4
483.926	1	3
484.097	1	6
484.267	1	-4
484.437	1	-5
484.608	1	6
484.778	1	-2
484.948	1	5
485.119	1	-4
485.289	1	8
485.459	1	-1
485.630	1	9
485.800	1	5
485.970	1	2
486.141	1	0
486.311	1	4
486.481	1	6
486.652	1	0
486.822	1	-2
486.992	1	0
487.163	1	3
487.333	1	5
487.503	1	14
487.674	1	-5
487.844	1	-4
488.014	1	12
488.185	1	-5
488.355	1	6
488.525	1	6
488.696	1	8
488.866	1	-9
489.036	1	13
489.207	1	6
489.377	1	3
489.547	1	-4
489.718	1	3
489.888	1	-1
490.058	1	7
490.228	1	-2
490.399	1	9
490.569	1	8
490.739	1	6
490.910	1	-5
491.080	1	2
491.250	1	-2
491.421	1	5
491.591	1	-12
491.761	1	-2
491.932	1	2
492.102	1	12
492.272	1	0
492.442	1	8
492.613	1	4
492.783	1	8
492.953	1	6
493.124	1	6
493.294	1	17
493.464	1	8
493.635	1	-5
493.805	1	2
493.975	1	5
494.145	1	6
494.316	1	-4
494.486	1	8
494.656	1	-4
494.827	1	2
494.997	1	-1
495.167	1	6
495.337	1	5
495.508	1	-1
495.678	1	-2
495.848	1	-1
496.019	1	5
496.189	1	1
496.359	1	6
496.529	1	6
496.700	1	-3
496.870	1	11
497.040	1	8
497.211	1	8
497.381	1	-1
497.551	1	5
497.721	1	-4
497.892	1	9
498.062	1	8
498.232	1	14
498.403	1	3
498.573	1	13
498.743	1	4
498.913	1	7
499.084	1	-4
499.254	1	-3
499.424	1	-3
499.594	1	-1
499.765	1	12
499.935	1	0
500.105	1	20
500.275	1	-2
500.446	1	6
500.616	1	-9
500.786	1	12
500.956	1	-7
501.127	1	7
501.297	1	-4
501.467	1	3
501.638	1	9
501.808	1	5
501.978	1	3
502.148	1	-3
502.319	1	16
502.489	1	1
502.659	1	11
502.829	1	6
503.000	1	11
503.170	1	-1
503.340	1	7
503.510	1	-1
503.681	1	-1
503.851	1	5
504.021	1	9
504.191	1	10
504.362	1	9
504.532	1	-4
504.702	1	10
504.872	1	7
505.042	1	-3
505.213	1	18
505.383	1	5
505.553	1	8
505.723	1	8
505.894	1	-2
506.064	1	4
506.234	1	2
506.404	1	-2
506.575	1	4
506.745	1	13
506.915	1	0
507.085	1	4
507.256	1	0
507.426	1	9
507.596	1	7
507.766	1	12
507.936	1	9
508.107	1	15
508.277	1	2
508.447	1	12
508.617	1	14
508.788	1	21
508.958	1	11
509.128	1	0
509.298	1	-4
509.468	1	10
509.639	1	4
509.809	1	10
509.979	1	2
510.149	1	15
510.319	1	-2
510.490	1	4
510.660	1	10
510.830	1	6
511.000	1	0
511.171	1	3
511.341	1	11
511.511	1	12
511.681	1	7
511.851	1	11
512.022	1	-3
512.192	1	5
512.362	1	5
512.532	1	-4
512.702	1	15
512.873	1	29
513.043	1	9
513.213	1	17
513.383	1	5
513.553	1	13
513.724	1	9
513.894	1	-3
514.064	1	15
514.234	1	15
514.404	1	8
514.575	1	5
514.745	1	17
514.915	1	-12
515.085	1	4
515.255	1	3
515.425	1	5
515.596	1	6
515.766	1	7
515.936	1	1
516.106	1	7
516.276	1	8
516.447	1	-1
516.617	1	10
516.787	1	11
516.957	1	7
517.127	1	11
517.297	1	11
517.468	1	0
517.638	1	-8
517.808	1	9
517.978	1	14
518.148	1	12
518.319	1	17
518.489	1	-2
518.659	1	2
518.829	1	6
518.999	1	13
519.169	1	11
519.340	1	10
519.510	1	23
519.680	1	6
519.850	1	3
520.020	1	4
520.190	1	7
520.361	1	12
520.531	1	9
520.701	1	15
520.871	1	14
521.041	1	20
521.211	1	8
521.382	1	5
521.552	1	4
521.722	1	20
521.892	1	12
522.062	1	6
522.232	1	15
522.402	1	8
522.573	1	7
522.743	1	13
522.913	1	6
523.083	1	14
523.253	1	13
523.423	1	9
523.593	1	4
523.764	1	11
523.934	1	15
524.104	1	3
524.274	1	11
524.444	1	-1
524.614	1	2
524.784	1	1
524.955	1	19
525.125	1	13
525.295	1	8
525.465	1	9
525.635	1	7
525.805	1	21
525.975	1	4
526.146	1	6
526.316	1	6
526.486	1	8
526.656	1	5
526.826	1	15
526.996	1	10
527.166	1	3
527.337	1	-1
527.507	1	7
527.677	1	17
527.847	1	9
528.017	1	1
528.187	1	11
528.357	1	18
528.527	1	13
528.698	1	6
528.868	1	12
529.038	1	-2
529.208	1	2
529.378	1	9
529.548	1	4
529.718	1	10
529.888	1	17
530.058	1	11
530.229	1	9
530.399	1	5
530.569	1	6
530.739	1	6
530.909	1	1
531.079	1	-6
531.249	1	-1
531.419	1	18
531.589	1	20
531.760	1	9
531.930	1	20
532.100	1	5
532.270	1	19
532.440	1	10
532.610	1	6
532.780	1	9
532.950	1	17
533.120	1	23
533.290	1	14
533.461	1	8
533.631	1	15
533.801	1	6
533.971	1	4
534.141	1	3
534.311	1	13
534.481	1	8
534.651	1	2
534.821	1	5
534.991	1	2
535.162	1	5
535.332	1	11
535.502	1	10
535.672	1	3
535.842	1	12
536.012	1	2
536.182	1	12
536.352	1	13
536.522	1	7
536.692	1	3
536.862	1	13
537.032	1	0
537.203	1	16
537.373	1	8
537.543	1	9
537.713	1	8
537.883	1	0
538.053	1	7
538.223	1	12
538.393	1	8
538.563	1	17
538.733	1	17
538.903	1	11
539.073	1	5
539.243	1	5
539.413	1	7
539.584	1	9
539.754	1	9
539.924	1	8
540.094	1	11
540.264	1	0
540.434	1	8
540.604	1	11
540.774	1	6
540.944	1	6
541.114	1	1
541.284	1	11
541.454	1	14
541.624	1	9
541.794	1	4
541.964	1	0
542.134	1	11
542.305	1	16
542.475	1	7
542.645	1	13
542.815	1	-2
542.985	1	11
543.155	1	-7
543.325	1	10
543.495	1	15
543.665	1	2
543.835	1	3
544.005	1	8
544.175	1	12
544.345	1	2
544.515	1	5
544.685	1	19
544.855	1	9
545.025	1	7
545.195	1	9
545.365	1	4
545.535	1	4
545.705	1	23
545.875	1	5
546.045	1	5
546.216	1	-8
546.386	1	0
546.556	1	9
546.726	1	5
546.896	1	14
547.066	1	10
547.236	1	9
547.406	1	7
547.576	1	11
547.746	1	14
547.916	1	8
548.086	1	9
548.256	1	3
548.426	1	7
548.596	1	-3
548.766	1	15
548.936	1	28
549.106	1	16
549.276	1	18
549.446	1	-2
549.616	1	7
549.786	1	-4
549.956	1	5
550.126	1	8
550.296	1	8
550.466	1	12
550.636	1	13
550.806	1	14
550.976	1	5
551.146	1	5
551.316	1	3
551.486	1	8
551.656	1	17
551.826	1	11
551.996	1	1
552.166	1	10
552.336	1	-1
552.506	1	15
552.676	1	7
552.846	1	7
553.016	1	22
553.186	1	3
553.356	1	8
553.526	1	7
553.696	1	11
553.866	1	12
554.036	1	18
554.206	1	7
554.376	1	-9
554.546	1	4
554.716	1	15
554.886	1	19
555.056	1	-3
555.226	1	12
555.396	1	3
555.566	1	10
555.736	1	7
555.906	1	5
556.076	1	14
556.246	1	0
556.416	1	-9
556.586	1	-2
556.756	1	4
556.926	1	2
557.096	1	7
557.266	1	2
557.436	1	6
557.606	1	1
557.776	1	12
557.946	1	2
558.116	1	12
558.286	1	5
558.456	1	0
558.626	1	-11
558.796	1	7
558.966	1	3
559.136	1	-1
559.306	1	1
559.476	1	9
559.646	1	2
559.816	1	14
559.986	1	4
560.155	1	7
560.325	1	12
560.495	1	0
560.665	1	2
560.835	1	10
561.005	1	11
561.175	1	9
561.345	1	11
561.515	1	-1
561.685	1	0
561.855	1	8
562.025	1	4
562.195	1	1
562.365	1	20
562.535	1	-1
562.705	1	3
562.875	1	3
563.045	1	5
563.215	1	3
563.385	1	-4
563.555	1	-5
563.725	1	3
563.895	1	7
564.064	1	7
564.234	1	3
564.404	1	2
564.574	1	19
564.744	1	3
564.914	1	10
565.084	1	7
565.254	1	7
565.424	1	-5
565.594	1	-2
565.764	1	-5
565.934	1	6
566.104	1	7
566.274	1	16
566.444	1	-1
566.614	1	8
566.783	1	3
566.953	1	7
567.123	1	12
567.293	1	-2
567.463	1	5
567.633	1	4
567.803	1	15
567.973	1	11
568.143	1	7
568.313	1	-3
568.483	1	14
568.653	1	0
568.823	1	-1
568.993	1	0
569.162	1	-1
569.332	1	9
569.502	1	8
569.672	1	5
569.842	1	2
570.012	1	11
570.182	1	5
570.352	1	-3
570.522	1	3
570.692	1	11
570.862	1	1
571.031	1	-7
571.201	1	13
571.371	1	10
571.541	1	8
571.711	1	2
571.881	1	5
572.051	1	3
572.221	1	4
572.391	1	16
572.561	1	9
572.731	1	1
572.900	1	-4
573.070	1	15
573.240	1	0
573.410	1	-2
573.580	1	1
573.750	1	6
573.920	1	5
574.090	1	13
574.260	1	7
574.430	1	5
574.599	1	1
574.769	1	4
574.939	1	-5
575.109	1	-5
575.279	1	2
575.449	1	17
575.619	1	2
575.789	1	-7
575.959	1	-3
576.128	1	-2
576.298	1	2
576.468	1	9
576.638	1	-2
576.808	1	-1
576.978	1	7
577.148	1	7
577.318	1	22
577.487	1	3
577.657	1	9
577.827	1	0
577.997	1	4
578.167	1	4
578.337	1	0
578.507	1	-3
578.677	1	-2
578.846	1	2
579.016	1	6
579.186	1	9
579.356	1	7
579.526	1	-1
579.696	1	8
579.866	1	9
580.036	1	-1
580.205	1	-6
580.375	1	11
580.545	1	4
580.715	1	-5
580.885	1	7
581.055	1	1
581.225	1	8
581.394	1	-9
581.564	1	5
581.734	1	-1
581.904	1	0
582.074	1	3
582.244	1	2
582.414	1	-1
582.583	1	-2
582.753	1	7
582.923	1	11
583.093	1	4
583.263	1	9
583.433	1	7
583.603	1	-1
583.772	1	-11
583.942	1	0
584.112	1	-2
584.282	1	-1
584.452	1	3
584.622	1	7
584.791	1	0
584.961	1	-6
585.131	1	10
585.301	1	6
585.471	1	5
585.641	1	8
585.811	1	2
585.980	1	9
586.150	1	-6
586.320	1	-4
586.490	1	5
586.660	1	15
586.830	1	-3
586.999	1	-4
587.169	1	13
587.339	1	5
587.509	1	9
587.679	1	-2
587.849	1	13
588.018	1	-7
588.188	1	8
588.358	1	-1
588.528	1	1
588.698	1	1
588.867	1	7
589.037	1	-4
589.207	1	10
589.377	1	3
589.547	1	4
589.717	1	-8
589.886	1	4
590.056	1	7
590.226	1	-9
590.396	1	-10
590.566	1	-15
590.735	1	-8
590.905	1	7
591.075	1	-6
591.245	1	10
591.415	1	14
591.585	1	5
591.754	1	16
591.924	1	0
592.094	1	-1
592.264	1	2
592.434	1	4
592.603	1	10
592.773	1	5
592.943	1	5
593.113	1	0
593.283	1	-1
593.452	1	-5
593.622	1	-3
593.792	1	11
593.962	1	-8
594.132	1	1
594.301	1	11
594.471	1	2
594.641	1	-1
594.811	1	-3
594.981	1	6
595.150	1	9
595.320	1	3
595.490	1	6
595.660	1	3
595.829	1	-6
595.999	1	0
596.169	1	13
596.339	1	4
596.509	1	4
596.678	1	12
596.848	1	3
597.018	1	-4
597.188	1	-8
597.358	1	-2
597.527	1	6
597.697	1	-5
597.867	1	6
598.037	1	3
598.206	1	-2
598.376	1	-5
598.546	1	3
598.716	1	-4
598.885	1	2
599.055	1	6
599.225	1	2
599.395	1	6
599.565	1	-1
599.734	1	7
599.904	1	-11
600.074	1	9
600.244	1	-6
600.413	1	-2
600.583	1	-5
600.753	1	11
600.923	1	0
601.092	1	9
601.262	1	-9
601.432	1	0
601.602	1	13
601.771	1	12
601.941	1	6
602.111	1	2
602.281	1	6
602.451	1	2
602.620	1	-1
602.790	1	-9
602.960	1	-9
603.130	1	-2
603.299	1	3
603.469	1	3
603.639	1	-17
603.809	1	-1
603.978	1	2
604.148	1	8
604.318	1	5
604.487	1	9
604.657	1	-5
604.827	1	6
604.997	1	10
605.166	1	4
605.336	1	3
605.506	1	-5
605.676	1	3
605.845	1	-11
606.015	1	-8
606.185	1	1
606.355	1	-12
606.524	1	-6
606.694	1	12
606.864	1	0
607.034	1	9
607.203	1	7
607.373	1	8
607.543	1	0
607.712	1	2
607.882	1	0
608.052	1	-4
608.222	1	3
608.391	1	10
608.561	1	1
608.731	1	6
608.901	1	6
609.070	1	-4
609.240	1	-1
609.410	1	1
609.579	1	2
609.749	1	3
609.919	1	-12
610.089	1	3
610.258	1	0
610.428	1	9
610.598	1	5
610.767	1	14
610.937	1	6
611.107	1	1
611.277	1	0
611.446	1	3
611.616	1	6
611.786	1	2
611.955	1	1
612.125	1	7
612.295	1	6
612.465	1	3
612.634	1	5
612.804	1	3
612.974	1	-3
613.143	1	2
613.313	1	9
613.483	1	18
613.652	1	3
613.822	1	0
613.992	1	-1
614.162	1	10
614.331	1	6
614.501	1	3
614.671	1	4
614.840	1	-5
615.010	1	1
615.180	1	14
615.349	1	15
615.519	1	-5
615.689	1	-12
615.858	1	10
616.028	1	4
616.198	1	-7
616.368	1	0
616.537	1	7
616.707	1	9
616.877	1	-5
617.046	1	1
617.216	1	3
617.386	1	9
617.555	1	-7
617.725	1	10
617.895	1	2
618.064	1	5
618.234	1	-3
618.404	1	-4
618.573	1	14
618.743	1	2
618.913	1	8
619.082	1	7
619.252	1	-9
619.422	1	-14
619.591	1	-8
619.761	1	3
619.931	1	7
620.100	1	17
620.270	1	7
620.440	1	13
620.609	1	9
620.779	1	3
620.949	1	3
621.118	1	9
621.288	1	1
621.458	1	5
621.627	1	2
621.797	1	-3
621.967	1	-3
622.136	1	-3
622.306	1	-1
622.476	1	-4
622.645	1	15
622.815	1	-1
622.985	1	-2
623.154	1	-3
623.324	1	5
623.494	1	-4
623.663	1	7
623.833	1	-2
624.002	1	-8
624.172	1	6
624.342	1	5
624.511	1	7
624.681	1	1
624.851	1	-7
625.020	1	-3
625.190	1	5
625.360	1	-7
625.529	1	-4
625.699	1	-1
625.869	1	-2
626.038	1	-5
626.208	1	2
626.377	1	0
626.547	1	2
626.717	1	-9
626.886	1	6
627.056	1	-2
627.226	1	6
627.395	1	0
627.565	1	2
627.735	1	-8
627.904	1	3
628.074	1	-1
628.243	1	7
628.413	1	-4
628.583	1	8
628.752	1	-3
628.922	1	6
629.091	1	-7
629.261	1	10
629.431	1	-9
629.600	1	5
629.770	1	2
629.940	1	-8
630.109	1	4
630.279	1	10
630.448	1	2
630.618	1	10
630.788	1	-4
630.957	1	6
631.127	1	-3
631.297	1	-4
631.466	1	3
631.636	1	10
631.805	1	1
631.975	1	-11
632.145	1	3
632.314	1	-6
632.484	1	2
632.653	1	-10
632.823	1	-1
632.993	1	3
633.162	1	3
633.332	1	-1
633.501	1	-1
633.671	1	-5
633.841	1	2
634.010	1	10
634.180	1	12
634.349	1	10
634.519	1	7
634.689	1	5
634.858	1	-6
635.028	1	-1
635.197	1	3
635.367	1	12
635.537	1	7
635.706	1	12
635.876	1	-1
636.045	1	9
636.215	1	12
636.384	1	1
636.554	1	0
636.724	1	-3
636.893	1	-2
637.063	1	-2
637.232	1	0
637.402	1	-9
637.572	1	7
637.741	1	9
637.911	1	0
638.080	1	-6
638.250	1	5
638.419	1	0
638.589	1	8
638.759	1	-6
638.928	1	8
639.098	1	1
639.267	1	1
639.437	1	-1
639.606	1	4
639.776	1	8
639.946	1	13
640.115	1	12
640.285	1	5
640.454	1	7
640.624	1	2
640.793	1	2
640.963	1	-3
641.132	1	2
641.302	1	-3
641.472	1	2
641.641	1	4
641.811	1	1
641.980	1	4
642.150	1	0
642.319	1	5
642.489	1	-12
642.659	1	9
642.828	1	-3
642.998	1	0
643.167	1	-9
643.337	1	3
643.506	1	8
643.676	1	-3
643.845	1	6
644.015	1	3
644.184	1	-8
644.354	1	4
644.524	1	1
644.693	1	1
644.863	1	4
645.032	1	1
645.202	1	1
645.371	1	5
645.541	1	5
645.710	1	0
645.880	1	-3
646.049	1	-6
646.219	1	-3
646.388	1	3
646.558	1	9
646.728	1	-5
646.897	1	6
647.067	1	7
647.236	1	0
647.406	1	12
647.575	1	7
647.745	1	11
647.914	1	-11
648.084	1	3
648.253	1	-3
648.423	1	2
648.592	1	-8
648.762	1	11
648.931	1	1
649.101	1	0
649.270	1	-5
649.440	1	0
649.610	1	4
649.779	1	0
649.949	1	6
650.118	1	-5
650.288	1	0
650.457	1	5
650.627	1	4
650.796	1	-4
650.966	1	-17
651.135	1	0
651.305	1	1
651.474	1	15
651.644	1	18
651.813	1	7
651.983	1	-3
652.152	1	0
652.322	1	3
652.491	1	-1
652.661	1	-7
652.830	1	4
653.000	1	6
653.169	1	13
653.339	1	10
653.508	1	-7
653.678	1	-2
653.847	1	-10
654.017	1	-5
654.186	1	-5
654.356	1	2
654.525	1	-17
654.695	1	6
654.864	1	1
655.034	1	7
655.203	1	0
655.373	1	9
655.542	1	-7
655.712	1	1
655.881	1	16
656.051	1	7
656.220	1	8
656.390	1	7
656.559	1	-9
656.729	1	7
656.898	1	-1
657.068	1	11
657.237	1	1
657.406	1	2
657.576	1	-6
657.745	1	2
657.915	1	2
658.084	1	2
658.254	1	4
658.423	1	1
658.593	1	6
658.762	1	-1
658.932	1	0
659.101	1	-2
659.271	1	-1
659.440	1	2
659.610	1	-3
659.779	1	4
659.949	1	1
660.118	1	-3
660.288	1	-3
660.457	1	6
660.626	1	8
660.796	1	1
660.965	1	-2
661.135	1	-8
661.304	1	4
661.474	1	-2
661.643	1	3
661.813	1	4
661.982	1	9
662.152	1	-1
662.321	1	-3
662.491	1	0
662.660	1	0
662.829	1	10
662.999	1	-1
663.168	1	-4
663.338	1	5
663.507	1	3
663.677	1	7
663.846	1	2
664.016	1	-6
664.185	1	-2
664.354	1	13
664.524	1	6
664.693	1	-12
664.863	1	1
665.032	1	-6
665.202	1	-9
665.371	1	-2
665.541	1	16
665.710	1	-3
665.879	1	1
666.049	1	-2
666.218	1	0
666.388	1	4
666.557	1	8
666.727	1	1
666.896	1	2
667.065	1	-7
667.235	1	11
667.404	1	1
667.574	1	-3
667.743	1	-3
667.913	1	5
668.082	1	5
668.251	1	5
668.421	1	4
668.590	1	9
668.760	1	-1
668.929	1	4
669.099	1	-1
669.268	1	-11
669.437	1	-4
669.607	1	11
669.776	1	6
669.946	1	-7
670.115	1	-24
670.285	1	7
670.454	1	-8
670.623	1	9
670.793	1	5
670.962	1	-2
671.132	1	-6
671.301	1	0
671.470	1	3
671.640	1	3
671.809	1	1
671.979	1	9
672.148	1	5
672.317	1	-11
672.487	1	-5
672.656	1	-8
672.826	1	2
672.995	1	0
673.164	1	-3
673.334	1	6
673.503	1	-9
673.673	1	-4
673.842	1	11
674.011	1	17
674.181	1	13
674.350	1	-1
674.520	1	3
674.689	1	-3
674.858	1	-10
675.028	1	6
675.197	1	-2
675.367	1	-3
675.536	1	8
675.705	1	-3
675.875	1	-3
676.044	1	-4
676.214	1	-3
676.383	1	15
676.552	1	-1
676.722	1	-4
676.891	1	3
677.060	1	-2
677.230	1	9
677.399	1	-4
677.569	1	10
677.738	1	11
677.907	1	-7
678.077	1	-3
678.246	1	9
678.416	1	2
678.585	1	-9
678.754	1	-1
678.924	1	11
679.093	1	5
679.262	1	-5
679.432	1	6
679.601	1	4
679.771	1	-5
679.940	1	2
680.109	1	3
680.279	1	2
680.448	1	7
680.617	1	11
680.787	1	-3
680.956	1	9
681.125	1	8
681.295	1	7
681.464	1	-5
681.634	1	3
681.803	1	0
681.972	1	2
682.142	1	2
682.311	1	1
682.480	1	4
682.650	1	8
682.819	1	-1
682.988	1	-9
683.158	1	-3
683.327	1	13
683.496	1	13
683.666	1	7
683.835	1	-1
684.004	1	5
684.174	1	0
684.343	1	7
684.512	1	5
684.682	1	2
684.851	1	5
685.021	1	-4
685.190	1	-2
685.359	1	-9
685.529	1	9
685.698	1	-6
685.867	1	4
686.037	1	1
686.206	1	6
686.375	1	-1
686.545	1	16
686.714	1	4
686.883	1	4
687.053	1	-5
687.222	1	-7
687.391	1	3
687.561	1	14
687.730	1	0
687.899	1	-5
688.069	1	4
688.238	1	6
688.407	1	4
688.577	1	0
688.746	1	11
