340.368	1	0
340.539	1	7
340.710	1	3
340.881	1	5
341.052	1	-4
341.223	1	12
341.394	1	-8
341.565	1	5
341.737	1	2
341.908	1	-5
342.079	1	-9
342.250	1	6
342.421	1	9
342.592	1	5
342.763	1	15
342.934	1	-6
343.105	1	-2
343.276	1	4
343.447	1	-6
343.618	1	-6
343.789	1	2
343.960	1	-2
344.131	1	4
344.302	1	-5
344.473	1	0
344.644	1	-6
344.815	1	6
344.986	1	7
345.157	1	5
345.328	1	-8
345.499	1	0
345.670	1	-1
345.841	1	-9
346.012	1	-5
346.183	1	14
346.354	1	6
346.526	1	1
346.697	1	2
346.868	1	1
347.039	1	0
347.210	1	0
347.381	1	4
347.552	1	2
347.723	1	3
347.894	1	0
348.065	1	7
348.236	1	11
348.407	1	-1
348.578	1	0
348.749	1	9
348.920	1	1
349.091	1	1
349.262	1	-6
349.433	1	2
349.604	1	3
349.775	1	4
349.946	1	-10
350.117	1	-4
350.288	1	6
350.459	1	-8
350.630	1	17
350.801	1	0
350.972	1	3
351.143	1	17
351.314	1	-6
351.485	1	-5
351.656	1	-6
351.827	1	5
351.998	1	4
352.169	1	-6
352.340	1	5
352.511	1	2
352.682	1	3
352.853	1	4
353.024	1	4
353.195	1	-13
353.366	1	-4
353.537	1	9
353.708	1	8
353.879	1	-4
354.050	1	8
354.221	1	-1
354.392	1	0
354.563	1	3
354.734	1	3
354.905	1	3
355.076	1	-7
355.247	1	3
355.418	1	6
355.589	1	-2
355.760	1	4
355.931	1	6
356.102	1	-8
356.273	1	2
356.444	1	5
356.615	1	5
356.785	1	3
356.956	1	-2
357.127	1	2
357.298	1	0
357.469	1	-1
357.640	1	-5
357.811	1	-3
357.982	1	2
358.153	1	7
358.324	1	7
358.495	1	-5
358.666	1	-3
358.837	1	7
359.008	1	5
359.179	1	3
359.350	1	0
359.521	1	4
359.692	1	-2
359.863	1	6
360.034	1	3
360.205	1	-7
360.376	1	-4
360.547	1	-2
360.718	1	-2
360.889	1	5
361.060	1	8
361.231	1	1
361.401	1	-3
361.572	1	0
361.743	1	7
361.914	1	8
362.085	1	1
362.256	1	4
362.427	1	-1
362.598	1	-1
362.769	1	6
362.940	1	-2
363.111	1	7
363.282	1	-6
363.453	1	2
363.624	1	2
363.795	1	2
363.966	1	3
364.137	1	1
364.308	1	16
364.478	1	5
364.649	1	4
364.820	1	6
364.991	1	2
365.162	1	-11
365.333	1	-13
365.504	1	-4
365.675	1	2
365.846	1	0
366.017	1	1
366.188	1	4
366.359	1	6
366.530	1	1
366.701	1	4
366.871	1	7
367.042	1	8
367.213	1	6
367.384	1	-11
367.555	1	1
367.726	1	6
367.897	1	7
368.068	1	3
368.239	1	-6
368.410	1	-2
368.581	1	14
368.752	1	13
368.923	1	-2
369.093	1	3
369.264	1	-6
369.435	1	-2
369.606	1	9
369.777	1	4
369.948	1	3
370.119	1	0
370.290	1	-7
370.461	1	4
370.632	1	6
370.803	1	13
370.973	1	-6
371.144	1	8
371.315	1	-8
371.486	1	1
371.657	1	-1
371.828	1	-2
371.999	1	-4
372.170	1	2
372.341	1	-6
372.512	1	-7
372.682	1	5
372.853	1	5
373.024	1	15
373.195	1	1
373.366	1	-4
373.537	1	2
373.708	1	-10
373.879	1	1
374.050	1	-2
374.220	1	-2
374.391	1	8
374.562	1	1
374.733	1	-3
374.904	1	2
375.075	1	-1
375.246	1	-11
375.417	1	1
375.588	1	8
375.758	1	-11
375.929	1	-3
376.100	1	6
376.271	1	11
376.442	1	-9
376.613	1	-3
376.784	1	10
376.955	1	-16
377.125	1	5
377.296	1	-3
377.467	1	5
377.638	1	-1
377.809	1	-3
377.980	1	-1
378.151	1	11
378.321	1	-5
378.492	1	5
378.663	1	1
378.834	1	11
379.005	1	0
379.176	1	-8
379.347	1	14
379.518	1	5
379.688	1	-1
379.859	1	10
380.030	1	6
380.201	1	16
380.372	1	7
380.543	1	10
380.714	1	1
380.884	1	7
381.055	1	-6
381.226	1	8
381.397	1	4
381.568	1	6
381.739	1	-9
381.910	1	-4
382.080	1	13
382.251	1	2
382.422	1	-1
382.593	1	3
382.764	1	-6
382.935	1	3
383.105	1	-9
383.276	1	1
383.447	1	3
383.618	1	14
383.789	1	4
383.960	1	-5
384.130	1	-1
384.301	1	8
384.472	1	-4
384.643	1	-7
384.814	1	3
384.985	1	0
385.156	1	7
385.326	1	4
385.497	1	-1
385.668	1	5
385.839	1	7
386.010	1	6
386.180	1	5
386.351	1	3
386.522	1	9
386.693	1	3
386.864	1	2
387.035	1	-2
387.205	1	7
387.376	1	-2
387.547	1	10
387.718	1	4
387.889	1	9
388.060	1	-3
388.230	1	3
388.401	1	6
388.572	1	14
388.743	1	-10
388.914	1	-3
389.084	1	8
389.255	1	-4
389.426	1	-3
389.597	1	5
389.768	1	13
389.939	1	9
390.109	1	-5
390.280	1	0
390.451	1	11
390.622	1	2
390.793	1	4
390.963	1	8
391.134	1	-5
391.305	1	0
391.476	1	19
391.647	1	4
391.817	1	-3
391.988	1	-10
392.159	1	2
392.330	1	-2
392.501	1	6
392.671	1	5
392.842	1	5
393.013	1	8
393.184	1	3
393.355	1	6
393.525	1	-1
393.696	1	0
393.867	1	1
394.038	1	-1
394.208	1	7
394.379	1	-3
394.550	1	-4
394.721	1	0
394.892	1	-1
395.062	1	7
395.233	1	-3
395.404	1	1
395.575	1	-1
395.746	1	12
395.916	1	7
396.087	1	4
396.258	1	2
396.429	1	0
396.599	1	5
396.770	1	-1
396.941	1	-4
397.112	1	-13
397.283	1	-9
397.453	1	4
397.624	1	8
397.795	1	-3
397.966	1	1
398.136	1	0
398.307	1	-3
398.478	1	4
398.649	1	-6
398.819	1	4
398.990	1	3
399.161	1	1
399.332	1	0
399.503	1	11
399.673	1	-16
399.844	1	3
400.015	1	-4
400.186	1	1
400.356	1	8
400.527	1	9
400.698	1	4
400.869	1	-3
401.039	1	-7
401.210	1	7
401.381	1	7
401.552	1	2
401.722	1	-1
401.893	1	3
402.064	1	-2
402.235	1	-3
402.405	1	1
402.576	1	-1
402.747	1	3
402.918	1	6
403.088	1	-3
403.259	1	4
403.430	1	3
403.601	1	6
403.771	1	8
403.942	1	4
404.113	1	3
404.284	1	2
404.454	1	3
404.625	1	9
404.796	1	-5
404.967	1	6
405.137	1	4
405.308	1	1
405.479	1	1
405.649	1	11
405.820	1	-6
405.991	1	-5
406.162	1	10
406.332	1	-10
406.503	1	-2
406.674	1	-3
406.845	1	12
407.015	1	2
407.186	1	6
407.357	1	5
407.527	1	4
407.698	1	3
407.869	1	6
408.040	1	10
408.210	1	8
408.381	1	-13
408.552	1	-4
408.722	1	2
408.893	1	6
409.064	1	0
409.235	1	4
409.405	1	7
409.576	1	7
409.747	1	10
409.917	1	13
410.088	1	-3
410.259	1	-10
410.430	1	-3
410.600	1	-1
410.771	1	2
410.942	1	-5
411.112	1	-2
411.283	1	5
411.454	1	-3
411.625	1	-4
411.795	1	8
411.966	1	17
412.137	1	-2
412.307	1	3
412.478	1	7
412.649	1	-7
412.819	1	7
412.990	1	-12
413.161	1	-2
413.332	1	-2
413.502	1	9
413.673	1	11
413.844	1	9
414.014	1	6
414.185	1	-7
414.356	1	3
414.526	1	1
414.697	1	8
414.868	1	-4
415.038	1	5
415.209	1	-6
415.380	1	17
415.550	1	-3
415.721	1	-5
415.892	1	-2
416.063	1	9
416.233	1	5
416.404	1	5
416.575	1	-1
416.745	1	-6
416.916	1	-3
417.087	1	4
417.257	1	5
417.428	1	-3
417.599	1	3
417.769	1	-6
417.940	1	0
418.111	1	7
418.281	1	5
418.452	1	0
418.623	1	4
418.793	1	-4
418.964	1	7
419.135	1	8
419.305	1	2
419.476	1	8
419.647	1	8
419.817	1	4
419.988	1	-4
420.159	1	-1
420.329	1	-7
420.500	1	7
420.671	1	0
420.841	1	2
421.012	1	0
421.183	1	3
421.353	1	2
421.524	1	8
421.695	1	-2
421.865	1	0
422.036	1	-1
422.206	1	-1
422.377	1	-3
422.548	1	3
422.718	1	-6
422.889	1	-1
423.060	1	-8
423.230	1	2
423.401	1	-3
423.572	1	21
423.742	1	-2
423.913	1	7
424.084	1	-1
424.254	1	-4
424.425	1	-1
424.595	1	11
424.766	1	3
424.937	1	14
425.107	1	3
425.278	1	7
425.449	1	-5
425.619	1	4
425.790	1	5
425.961	1	1
426.131	1	-7
426.302	1	-1
426.472	1	4
426.643	1	2
426.814	1	1
426.984	1	0
427.155	1	-5
427.326	1	-2
427.496	1	-12
427.667	1	2
427.837	1	-7
428.008	1	1
428.179	1	-1
428.349	1	7
428.520	1	2
428.691	1	1
428.861	1	4
429.032	1	3
429.202	1	6
429.373	1	-3
429.544	1	4
429.714	1	-4
429.885	1	2
430.055	1	-6
430.226	1	4
430.397	1	1
430.567	1	16
430.738	1	-2
430.909	1	-3
431.079	1	-1
431.250	1	-4
431.420	1	0
431.591	1	-5
431.762	1	5
431.932	1	-10
432.103	1	-4
432.273	1	4
432.444	1	-4
432.615	1	-7
432.785	1	-3
432.956	1	-1
433.126	1	5
433.297	1	2
433.468	1	4
433.638	1	6
433.809	1	0
433.979	1	4
434.150	1	3
434.320	1	9
434.491	1	11
434.662	1	13
434.832	1	4
435.003	1	13
435.173	1	-3
435.344	1	-7
435.515	1	-6
435.685	1	5
435.856	1	-10
436.026	1	2
436.197	1	-5
436.368	1	8
436.538	1	-11
436.709	1	-10
436.879	1	-4
437.050	1	-1
437.220	1	-12
437.391	1	9
437.562	1	4
437.732	1	10
437.903	1	-1
438.073	1	-4
438.244	1	-1
438.414	1	-6
438.585	1	-7
438.756	1	1
438.926	1	-2
439.097	1	5
439.267	1	1
439.438	1	12
439.608	1	-2
439.779	1	-7
439.949	1	-5
440.120	1	-2
440.291	1	2
440.461	1	9
440.632	1	7
440.802	1	4
440.973	1	-3
441.143	1	0
441.314	1	-7
441.485	1	5
441.655	1	-3
441.826	1	-11
441.996	1	-9
442.167	1	10
442.337	1	0
442.508	1	13
442.678	1	-9
442.849	1	-5
443.019	1	4
443.190	1	11
443.361	1	9
443.531	1	11
443.702	1	-8
443.872	1	0
444.043	1	0
444.213	1	7
444.384	1	6
444.554	1	-4
444.725	1	6
444.895	1	0
445.066	1	11
445.237	1	-6
445.407	1	-4
445.578	1	0
445.748	1	5
445.919	1	-5
446.089	1	-3
446.260	1	1
446.430	1	-14
446.601	1	11
446.771	1	-11
446.942	1	0
447.112	1	8
447.283	1	-10
447.453	1	4
447.624	1	0
447.794	1	7
447.965	1	-1
448.135	1	-1
448.306	1	-3
448.477	1	2
448.647	1	1
448.818	1	-4
448.988	1	-2
449.159	1	5
449.329	1	9
449.500	1	-4
449.670	1	3
449.841	1	6
450.011	1	6
450.182	1	-10
450.352	1	10
450.523	1	0
450.693	1	6
450.864	1	-2
451.034	1	6
451.205	1	9
451.375	1	4
451.546	1	-6
451.716	1	16
451.887	1	-2
452.057	1	5
452.228	1	3
452.398	1	8
452.569	1	-7
452.739	1	9
452.910	1	-7
453.080	1	8
453.251	1	10
453.421	1	-4
453.592	1	-2
453.762	1	7
453.933	1	-2
454.103	1	9
454.274	1	-4
454.444	1	6
454.615	1	8
454.785	1	8
454.956	1	10
455.126	1	-2
455.297	1	-7
455.467	1	-2
455.638	1	17
455.808	1	-5
455.979	1	3
456.149	1	2
456.320	1	9
456.490	1	3
456.661	1	-12
456.831	1	8
457.001	1	-1
457.172	1	6
457.342	1	-2
457.513	1	9
457.683	1	-2
457.854	1	4
458.024	1	-4
458.195	1	1
458.365	1	14
458.536	1	-9
458.706	1	5
458.877	1	2
459.047	1	15
459.218	1	0
459.388	1	10
459.559	1	2
459.729	1	-6
459.899	1	5
460.070	1	-1
460.240	1	5
460.411	1	2
460.581	1	6
460.752	1	-2
460.922	1	15
461.093	1	-5
461.263	1	4
461.434	1	6
461.604	1	6
461.775	1	2
461.945	1	3
462.115	1	1
462.286	1	-3
462.456	1	4
462.627	1	4
462.797	1	-10
462.968	1	-5
463.138	1	2
463.309	1	-1
463.479	1	3
463.649	1	-3
463.820	1	0
463.990	1	8
464.161	1	6
464.331	1	6
464.502	1	8
464.672	1	-6
464.843	1	1
465.013	1	-1
465.183	1	4
465.354	1	10
465.524	1	-5
465.695	1	9
465.865	1	-4
466.036	1	4
466.206	1	-5
466.376	1	2
466.547	1	-2
466.717	1	6
466.888	1	1
467.058	1	7
467.229	1	5
467.399	1	8
467.569	1	10
467.740	1	13
467.910	1	4
468.081	1	-3
468.251	1	0
468.422	1	3
468.592	1	9
468.762	1	-7
468.933	1	12
469.103	1	1
469.274	1	-7
469.444	1	7
469.614	1	6
469.785	1	9
469.955	1	12
470.126	1	-4
470.296	1	3
470.467	1	1
470.637	1	-1
470.807	1	8
470.978	1	3
471.148	1	-6
471.319	1	9
471.489	1	-12
471.659	1	1
471.830	1	1
472.000	1	3
472.171	1	5
472.341	1	-8
472.511	1	16
472.682	1	-1
472.852	1	2
473.023	1	-2
473.193	1	2
473.363	1	2
473.534	1	-5
473.704	1	-6
473.875	1	-5
474.045	1	0
474.215	1	0
474.386	1	9
474.556	1	3
474.727	1	4
474.897	1	3
475.067	1	-10
475.238	1	1
475.408	1	-1
475.578	1	7
475.749	1	0
475.919	1	1
476.090	1	4
476.260	1	-3
476.430	1	12
476.601	1	5
476.771	1	2
476.942	1	-1
477.112	1	7
477.282	1	6
477.453	1	3
477.623	1	9
477.793	1	-4
477.964	1	4
478.134	1	3
478.305	1	0
478.475	1	-4
478.645	1	3
478.816	1	7
478.986	1	-1
479.156	1	-1
479.327	1	-6
479.497	1	4
479.667	1	9
479.838	1	-8
480.008	1	9
480.179	1	-9
480.349	1	2
480.519	1	-1
480.690	1	-2
480.860	1	5
481.030	1	4
481.201	1	-6
481.371	1	5
481.541	1	16
481.712	1	-4
481.882	1	-5
482.053	1	1
482.223	1	6
482.393	1	-7
482.564	1	4
482.734	1	5
482.904	1	2
483.075	1	-5
483.245	1	6
483.415	1	0
483.586	1	5
483.756	1	4
483.926	1	1
484.097	1	11
484.267	1	0
484.437	1	-5
484.608	1	-6
484.778	1	7
484.948	1	0
485.119	1	-1
485.289	1	7
485.459	1	5
485.630	1	5
485.800	1	6
485.970	1	0
486.141	1	6
486.311	1	1
486.481	1	-5
486.652	1	4
486.822	1	-10
486.992	1	16
487.163	1	5
487.333	1	7
487.503	1	5
487.674	1	2
487.844	1	1
488.014	1	3
488.185	1	-8
488.355	1	-2
488.525	1	11
488.696	1	-5
488.866	1	-5
489.036	1	7
489.207	1	-4
489.377	1	-6
489.547	1	-1
489.718	1	2
489.888	1	7
490.058	1	4
490.228	1	-10
490.399	1	0
490.569	1	10
490.739	1	7
490.910	1	-8
491.080	1	-4
491.250	1	3
491.421	1	6
491.591	1	-1
491.761	1	0
491.932	1	-1
492.102	1	-7
492.272	1	5
492.442	1	8
492.613	1	9
492.783	1	2
492.953	1	-1
493.124	1	11
493.294	1	3
493.464	1	13
493.635	1	-8
493.805	1	9
493.975	1	3
494.145	1	2
494.316	1	-1
494.486	1	1
494.656	1	1
494.827	1	3
494.997	1	-4
495.167	1	6
495.337	1	3
495.508	1	12
495.678	1	2
495.848	1	-1
496.019	1	0
496.189	1	-7
496.359	1	-2
496.529	1	0
496.700	1	7
496.870	1	6
497.040	1	0
497.211	1	1
497.381	1	2
497.551	1	8
497.721	1	-6
497.892	1	3
498.062	1	1
498.232	1	10
498.403	1	-6
498.573	1	8
498.743	1	12
498.913	1	8
499.084	1	-3
499.254	1	-7
499.424	1	4
499.594	1	-1
499.765	1	7
499.935	1	-1
500.105	1	4
500.275	1	1
500.446	1	-6
500.616	1	-1
500.786	1	10
500.956	1	4
501.127	1	5
501.297	1	-8
501.467	1	0
501.638	1	5
501.808	1	5
501.978	1	1
502.148	1	-2
502.319	1	15
502.489	1	0
502.659	1	3
502.829	1	6
503.000	1	2
503.170	1	-3
503.340	1	1
503.510	1	0
503.681	1	-1
503.851	1	2
504.021	1	-2
504.191	1	4
504.362	1	2
504.532	1	6
504.702	1	-3
504.872	1	-10
505.042	1	-7
505.213	1	8
505.383	1	-3
505.553	1	4
505.723	1	3
505.894	1	-4
506.064	1	14
506.234	1	6
506.404	1	-1
506.575	1	-4
506.745	1	19
506.915	1	0
507.085	1	-11
507.256	1	-2
507.426	1	-2
507.596	1	0
507.766	1	-5
507.936	1	-3
508.107	1	9
508.277	1	-9
508.447	1	-2
508.617	1	3
508.788	1	14
508.958	1	0
509.128	1	5
509.298	1	2
509.468	1	3
509.639	1	-3
509.809	1	8
509.979	1	8
510.149	1	11
510.319	1	4
510.490	1	6
510.660	1	7
510.830	1	2
511.000	1	9
511.171	1	-1
511.341	1	2
511.511	1	9
511.681	1	11
511.851	1	9
512.022	1	-2
512.192	1	2
512.362	1	-4
512.532	1	-3
512.702	1	0
512.873	1	10
513.043	1	9
513.213	1	9
513.383	1	-1
513.553	1	10
513.724	1	-2
513.894	1	-4
514.064	1	2
514.234	1	9
514.404	1	4
514.575	1	-6
514.745	1	1
514.915	1	-8
515.085	1	1
515.255	1	3
515.425	1	8
515.596	1	5
515.766	1	1
515.936	1	8
516.106	1	5
516.276	1	4
516.447	1	6
516.617	1	-1
516.787	1	-4
516.957	1	5
517.127	1	1
517.297	1	-6
517.468	1	-10
517.638	1	-12
517.808	1	-4
517.978	1	6
518.148	1	14
518.319	1	9
518.489	1	-9
518.659	1	5
518.829	1	8
518.999	1	0
519.169	1	-2
519.340	1	8
519.510	1	2
519.680	1	-6
519.850	1	-7
520.020	1	2
520.190	1	5
520.361	1	-1
520.531	1	1
520.701	1	12
520.871	1	-4
521.041	1	10
521.211	1	2
521.382	1	-4
521.552	1	-4
521.722	1	3
521.892	1	0
522.062	1	5
522.232	1	14
522.402	1	1
522.573	1	11
522.743	1	3
522.913	1	6
523.083	1	-2
523.253	1	5
523.423	1	6
523.593	1	-3
523.764	1	4
523.934	1	8
524.104	1	-3
524.274	1	0
524.444	1	6
524.614	1	7
524.784	1	1
524.955	1	14
525.125	1	7
525.295	1	-5
525.465	1	5
525.635	1	-1
525.805	1	9
525.975	1	-4
526.146	1	-4
526.316	1	-1
526.486	1	-2
526.656	1	-3
526.826	1	-5
526.996	1	8
527.166	1	3
527.337	1	-8
527.507	1	-1
527.677	1	0
527.847	1	4
528.017	1	-2
528.187	1	17
528.357	1	9
528.527	1	9
528.698	1	6
528.868	1	-1
529.038	1	-3
529.208	1	-8
529.378	1	7
529.548	1	0
529.718	1	0
529.888	1	7
530.058	1	8
530.229	1	4
530.399	1	-9
530.569	1	-7
530.739	1	-6
530.909	1	-9
531.079	1	-14
531.249	1	7
531.419	1	2
531.589	1	8
531.760	1	-11
531.930	1	3
532.100	1	-12
532.270	1	14
532.440	1	-2
532.610	1	5
532.780	1	5
532.950	1	4
533.120	1	19
533.290	1	3
533.461	1	1
533.631	1	-2
533.801	1	-2
533.971	1	-5
534.141	1	-2
534.311	1	2
534.481	1	17
534.651	1	-4
534.821	1	-1
534.991	1	0
535.162	1	3
535.332	1	9
535.502	1	-2
535.672	1	-5
535.842	1	-1
536.012	1	1
536.182	1	10
536.352	1	0
536.522	1	-5
536.692	1	2
536.862	1	-2
537.032	1	-9
537.203	1	7
537.373	1	7
537.543	1	-6
537.713	1	-5
537.883	1	8
538.053	1	-6
538.223	1	11
538.393	1	0
538.563	1	15
538.733	1	9
538.903	1	3
539.073	1	0
539.243	1	3
539.413	1	7
539.584	1	8
539.754	1	4
539.924	1	-2
540.094	1	4
540.264	1	4
540.434	1	9
540.604	1	-5
540.774	1	1
540.944	1	0
541.114	1	-2
541.284	1	-2
541.454	1	-1
541.624	1	3
541.794	1	1
541.964	1	-6
542.134	1	10
542.305	1	12
542.475	1	-3
542.645	1	3
542.815	1	-4
542.985	1	-5
543.155	1	-14
543.325	1	7
543.495	1	7
543.665	1	-10
543.835	1	-2
544.005	1	11
544.175	1	5
544.345	1	-6
544.515	1	3
544.685	1	6
544.855	1	-2
545.025	1	5
545.195	1	-2
545.365	1	12
545.535	1	-4
545.705	1	4
545.875	1	-8
546.045	1	-3
546.216	1	-10
546.386	1	1
546.556	1	4
546.726	1	6
546.896	1	8
547.066	1	7
547.236	1	-5
547.406	1	2
547.576	1	12
547.746	1	13
547.916	1	7
548.086	1	6
548.256	1	-6
548.426	1	6
548.596	1	-2
548.766	1	13
548.936	1	14
549.106	1	8
549.276	1	12
549.446	1	3
549.616	1	4
549.786	1	-3
549.956	1	0
550.126	1	-9
550.296	1	1
550.466	1	9
550.636	1	16
550.806	1	10
550.976	1	4
551.146	1	-10
551.316	1	-1
551.486	1	-4
551.656	1	8
551.826	1	15
551.996	1	-4
552.166	1	7
552.336	1	-4
552.506	1	10
552.676	1	6
552.846	1	-3
553.016	1	10
553.186	1	-1
553.356	1	-2
553.526	1	-13
553.696	1	17
553.866	1	11
554.036	1	10
554.206	1	11
554.376	1	-6
554.546	1	-2
554.716	1	-7
554.886	1	4
555.056	1	5
555.226	1	6
555.396	1	-6
555.566	1	2
555.736	1	7
555.906	1	-1
556.076	1	15
556.246	1	-4
556.416	1	-7
556.586	1	-11
556.756	1	-8
556.926	1	5
557.096	1	4
557.266	1	-4
557.436	1	15
557.606	1	-2
557.776	1	9
557.946	1	-3
558.116	1	-4
558.286	1	-1
558.456	1	-2
558.626	1	-5
558.796	1	3
558.966	1	5
559.136	1	6
559.306	1	1
559.476	1	4
559.646	1	-2
559.816	1	9
559.986	1	-1
560.155	1	0
560.325	1	0
560.495	1	1
560.665	1	-6
560.835	1	3
561.005	1	2
561.175	1	0
561.345	1	-8
561.515	1	-3
561.685	1	-4
561.855	1	5
562.025	1	5
562.195	1	-1
562.365	1	7
562.535	1	7
562.705	1	-7
562.875	1	-4
563.045	1	-1
563.215	1	3
563.385	1	-5
563.555	1	-9
563.725	1	3
563.895	1	2
564.064	1	2
564.234	1	6
564.404	1	3
564.574	1	13
564.744	1	2
564.914	1	8
565.084	1	-7
565.254	1	8
565.424	1	6
565.594	1	1
565.764	1	-3
565.934	1	0
566.104	1	2
566.274	1	7
566.444	1	0
566.614	1	2
566.783	1	11
566.953	1	2
567.123	1	1
567.293	1	1
567.463	1	-5
567.633	1	2
567.803	1	11
567.973	1	6
568.143	1	-5
568.313	1	-5
568.483	1	6
568.653	1	-6
568.823	1	0
568.993	1	-9
569.162	1	1
569.332	1	5
569.502	1	3
569.672	1	-5
569.842	1	5
570.012	1	-9
570.182	1	0
570.352	1	5
570.522	1	3
570.692	1	-2
570.862	1	0
571.031	1	-10
571.201	1	10
571.371	1	1
571.541	1	4
571.711	1	-7
571.881	1	1
572.051	1	-5
572.221	1	4
572.391	1	11
572.561	1	2
572.731	1	2
572.900	1	-11
573.070	1	3
573.240	1	-11
573.410	1	-4
573.580	1	-5
573.750	1	10
573.920	1	1
574.090	1	8
574.260	1	3
574.430	1	-3
574.599	1	2
574.769	1	-2
574.939	1	6
575.109	1	-5
575.279	1	10
575.449	1	17
575.619	1	9
575.789	1	-4
575.959	1	-3
576.128	1	-5
576.298	1	1
576.468	1	3
576.638	1	-2
576.808	1	7
576.978	1	-3
577.148	1	2
577.318	1	24
577.487	1	3
577.657	1	-1
577.827	1	3
577.997	1	8
578.167	1	3
578.337	1	-7
578.507	1	-3
578.677	1	-4
578.846	1	8
579.016	1	9
579.186	1	12
579.356	1	9
579.526	1	-4
579.696	1	13
579.866	1	-4
580.036	1	11
580.205	1	-5
580.375	1	10
580.545	1	-4
580.715	1	1
580.885	1	5
581.055	1	0
581.225	1	13
581.394	1	-1
581.564	1	-6
581.734	1	-8
581.904	1	-7
582.074	1	-1
582.244	1	0
582.414	1	4
582.583	1	5
582.753	1	10
582.923	1	3
583.093	1	8
583.263	1	7
583.433	1	2
583.603	1	-16
583.772	1	-12
583.942	1	11
584.112	1	3
584.282	1	8
584.452	1	3
584.622	1	10
584.791	1	1
584.961	1	-9
585.131	1	0
585.301	1	2
585.471	1	-12
585.641	1	1
585.811	1	-1
585.980	1	-7
586.150	1	-1
586.320	1	4
586.490	1	10
586.660	1	5
586.830	1	-1
586.999	1	-9
587.169	1	11
587.339	1	5
587.509	1	5
587.679	1	-4
587.849	1	6
588.018	1	-14
588.188	1	6
588.358	1	-7
588.528	1	0
588.698	1	-6
588.867	1	2
589.037	1	-3
589.207	1	8
589.377	1	3
589.547	1	4
589.717	1	-7
589.886	1	-2
590.056	1	2
590.226	1	-2
590.396	1	-6
590.566	1	-6
590.735	1	-9
590.905	1	5
591.075	1	-5
591.245	1	4
591.415	1	8
591.585	1	0
591.754	1	3
591.924	1	6
592.094	1	-8
592.264	1	4
592.434	1	4
592.603	1	-9
592.773	1	12
592.943	1	6
593.113	1	0
593.283	1	-2
593.452	1	-5
593.622	1	8
593.792	1	2
593.962	1	-2
594.132	1	-1
594.301	1	3
594.471	1	-1
594.641	1	5
594.811	1	-1
594.981	1	11
595.150	1	-1
595.320	1	-11
595.490	1	1
595.660	1	9
595.829	1	-4
595.999	1	-6
596.169	1	7
596.339	1	4
596.509	1	-7
596.678	1	2
596.848	1	17
597.018	1	8
597.188	1	-5
597.358	1	1
597.527	1	-3
597.697	1	-11
597.867	1	2
598.037	1	8
598.206	1	13
598.376	1	-7
598.546	1	2
598.716	1	-5
598.885	1	6
599.055	1	3
599.225	1	-2
599.395	1	-1
599.565	1	-7
599.734	1	9
599.904	1	-8
600.074	1	4
600.244	1	0
600.413	1	0
600.583	1	0
600.753	1	5
600.923	1	-4
601.092	1	3
601.262	1	-5
601.432	1	0
601.602	1	17
601.771	1	0
601.941	1	13
602.111	1	-6
602.281	1	4
602.451	1	6
602.620	1	7
602.790	1	-2
602.960	1	-9
603.130	1	-9
603.299	1	5
603.469	1	6
603.639	1	2
603.809	1	3
603.978	1	-8
604.148	1	3
604.318	1	9
604.487	1	-2
604.657	1	-5
604.827	1	-1
604.997	1	13
605.166	1	2
605.336	1	0
605.506	1	-1
605.676	1	13
605.845	1	-1
606.015	1	-15
606.185	1	-3
606.355	1	-3
606.524	1	5
606.694	1	9
606.864	1	0
607.034	1	7
607.203	1	10
607.373	1	-9
607.543	1	-4
607.712	1	0
607.882	1	6
608.052	1	-1
608.222	1	5
608.391	1	7
608.561	1	-3
608.731	1	-3
608.901	1	7
609.070	1	-8
609.240	1	0
609.410	1	7
609.579	1	9
609.749	1	3
609.919	1	-11
610.089	1	9
610.258	1	-2
610.428	1	8
610.598	1	-2
610.767	1	4
610.937	1	4
611.107	1	-8
611.277	1	-2
611.446	1	-2
611.616	1	6
611.786	1	8
611.955	1	-5
612.125	1	7
612.295	1	4
612.465	1	-5
612.634	1	1
612.804	1	-3
612.974	1	-7
613.143	1	2
613.313	1	6
613.483	1	10
613.652	1	4
613.822	1	1
613.992	1	-7
614.162	1	2
614.331	1	11
614.501	1	-6
614.671	1	2
614.840	1	-4
615.010	1	9
615.180	1	5
615.349	1	4
615.519	1	6
615.689	1	-5
615.858	1	9
616.028	1	-3
616.198	1	-4
616.368	1	3
616.537	1	-5
616.707	1	-4
616.877	1	5
617.046	1	5
617.216	1	-3
617.386	1	6
617.555	1	-8
617.725	1	9
617.895	1	-3
618.064	1	8
618.234	1	5
618.404	1	-6
618.573	1	9
618.743	1	2
618.913	1	-1
619.082	1	3
619.252	1	2
619.422	1	-2
619.591	1	1
619.761	1	6
619.931	1	1
620.100	1	6
620.270	1	0
620.440	1	9
620.609	1	8
620.779	1	13
620.949	1	-3
621.118	1	2
621.288	1	-1
621.458	1	12
621.627	1	-1
621.797	1	-10
621.967	1	1
622.136	1	4
622.306	1	3
622.476	1	-4
622.645	1	-5
622.815	1	6
622.985	1	-3
623.154	1	-4
623.324	1	5
623.494	1	-4
623.663	1	1
623.833	1	-1
624.002	1	1
624.172	1	6
624.342	1	10
624.511	1	-1
624.681	1	7
624.851	1	-1
625.020	1	7
625.190	1	-5
625.360	1	-1
625.529	1	2
625.699	1	-4
625.869	1	7
626.038	1	-1
626.208	1	10
626.377	1	-9
626.547	1	0
626.717	1	-12
626.886	1	-7
627.056	1	4
627.226	1	11
627.395	1	1
627.565	1	-1
627.735	1	6
627.904	1	9
628.074	1	6
628.243	1	14
628.413	1	1
628.583	1	3
628.752	1	-5
628.922	1	1
629.091	1	-1
629.261	1	6
629.431	1	-1
629.600	1	14
629.770	1	6
629.940	1	-10
630.109	1	1
630.279	1	6
630.448	1	-3
630.618	1	15
630.788	1	4
630.957	1	4
631.127	1	0
631.297	1	-7
631.466	1	10
631.636	1	3
631.805	1	4
631.975	1	-4
632.145	1	-6
632.314	1	-4
632.484	1	11
632.653	1	-2
632.823	1	-2
632.993	1	0
633.162	1	1
633.332	1	-9
633.501	1	2
633.671	1	-1
633.841	1	-6
634.010	1	16
634.180	1	8
634.349	1	4
634.519	1	11
634.689	1	2
634.858	1	-7
635.028	1	-9
635.197	1	-5
635.367	1	7
635.537	1	7
635.706	1	2
635.876	1	11
636.045	1	1
636.215	1	9
636.384	1	-1
636.554	1	12
636.724	1	7
636.893	1	4
637.063	1	4
637.232	1	8
637.402	1	-1
637.572	1	3
637.741	1	0
637.911	1	-8
638.080	1	2
638.250	1	-6
638.419	1	-2
638.589	1	7
638.759	1	12
638.928	1	7
639.098	1	-4
639.267	1	3
639.437	1	-4
639.606	1	10
639.776	1	-3
639.946	1	1
640.115	1	-7
640.285	1	9
640.454	1	12
640.624	1	4
640.793	1	-1
640.963	1	-1
641.132	1	13
641.302	1	7
641.472	1	3
641.641	1	3
641.811	1	1
641.980	1	-7
642.150	1	2
642.319	1	11
642.489	1	-1
642.659	1	7
642.828	1	-7
642.998	1	5
643.167	1	-7
643.337	1	-3
643.506	1	-1
643.676	1	-3
643.845	1	4
644.015	1	-2
644.184	1	-5
644.354	1	10
644.524	1	3
644.693	1	-2
644.863	1	5
645.032	1	4
645.202	1	-3
645.371	1	-10
645.541	1	6
645.710	1	-3
645.880	1	-3
646.049	1	-2
646.219	1	5
646.388	1	3
646.558	1	7
646.728	1	0
646.897	1	2
647.067	1	-6
647.236	1	14
647.406	1	9
647.575	1	10
647.745	1	-2
647.914	1	0
648.084	1	-4
648.253	1	5
648.423	1	-5
648.592	1	-10
648.762	1	5
648.931	1	7
649.101	1	1
649.270	1	1
649.440	1	4
649.610	1	8
649.779	1	3
649.949	1	5
650.118	1	-9
650.288	1	9
650.457	1	6
650.627	1	7
650.796	1	1
650.966	1	-8
651.135	1	3
651.305	1	1
651.474	1	6
651.644	1	11
651.813	1	8
651.983	1	-1
652.152	1	9
652.322	1	0
652.491	1	2
652.661	1	-5
652.830	1	14
653.000	1	5
653.169	1	7
653.339	1	2
653.508	1	-5
653.678	1	0
653.847	1	-6
654.017	1	4
654.186	1	-3
654.356	1	1
654.525	1	-10
654.695	1	6
654.864	1	-8
655.034	1	7
655.203	1	5
655.373	1	12
655.542	1	-4
655.712	1	-6
655.881	1	5
656.051	1	6
656.220	1	-2
656.390	1	-7
656.559	1	-8
656.729	1	-11
656.898	1	2
657.068	1	6
657.237	1	12
657.406	1	1
657.576	1	-8
657.745	1	5
657.915	1	-5
658.084	1	2
658.254	1	2
658.423	1	6
658.593	1	10
658.762	1	5
658.932	1	-5
659.101	1	-4
659.271	1	3
659.440	1	5
659.610	1	2
659.779	1	11
659.949	1	-5
660.118	1	5
660.288	1	-4
660.457	1	15
660.626	1	6
660.796	1	-4
660.965	1	8
661.135	1	-10
661.304	1	-3
661.474	1	7
661.643	1	5
661.813	1	3
661.982	1	-3
662.152	1	9
662.321	1	-8
662.491	1	-4
662.660	1	9
662.829	1	5
662.999	1	-1
663.168	1	10
663.338	1	14
663.507	1	6
663.677	1	0
663.846	1	-1
664.016	1	-7
664.185	1	1
664.354	1	10
664.524	1	6
664.693	1	-4
664.863	1	-1
665.032	1	-8
665.202	1	-2
665.371	1	-3
665.541	1	17
665.710	1	2
665.879	1	-6
666.049	1	-3
666.218	1	-4
666.388	1	11
666.557	1	6
666.727	1	-3
666.896	1	0
667.065	1	1
667.235	1	15
667.404	1	-4
667.574	1	-2
667.743	1	3
667.913	1	7
668.082	1	0
668.251	1	0
668.421	1	11
668.590	1	0
668.760	1	1
668.929	1	10
669.099	1	1
669.268	1	-7
669.437	1	5
669.607	1	7
669.776	1	12
669.946	1	2
670.115	1	-10
670.285	1	6
670.454	1	-2
670.623	1	-2
670.793	1	-2
670.962	1	3
671.132	1	-1
671.301	1	3
671.470	1	-7
671.640	1	-4
671.809	1	-5
671.979	1	10
672.148	1	6
672.317	1	-3
672.487	1	2
672.656	1	-10
672.826	1	6
672.995	1	-1
673.164	1	-6
673.334	1	2
673.503	1	3
673.673	1	7
673.842	1	8
674.011	1	8
674.181	1	1
674.350	1	1
674.520	1	-6
674.689	1	-14
674.858	1	-2
675.028	1	14
675.197	1	7
675.367	1	2
675.536	1	9
675.705	1	3
675.875	1	2
676.044	1	-11
676.214	1	0
676.383	1	7
676.552	1	0
676.722	1	-2
676.891	1	4
677.060	1	-2
677.230	1	4
677.399	1	-12
677.569	1	10
677.738	1	9
677.907	1	1
678.077	1	1
678.246	1	6
678.416	1	5
678.585	1	-4
678.754	1	6
678.924	1	13
679.093	1	-2
679.262	1	-2
679.432	1	0
679.601	1	5
679.771	1	5
679.940	1	0
680.109	1	-4
680.279	1	3
680.448	1	6
680.617	1	-4
680.787	1	-5
680.956	1	10
681.125	1	3
681.295	1	-2
681.464	1	-9
681.634	1	4
681.803	1	8
681.972	1	-2
682.142	1	4
682.311	1	-2
682.480	1	8
682.650	1	8
682.819	1	8
682.988	1	-9
683.158	1	-7
683.327	1	6
683.496	1	7
683.666	1	3
683.835	1	-4
684.004	1	-4
684.174	1	5
684.343	1	4
684.512	1	5
684.682	1	1
684.851	1	-3
685.021	1	2
685.190	1	-1
685.359	1	-2
685.529	1	-7
685.698	1	3
685.867	1	10
686.037	1	6
686.206	1	0
686.375	1	2
686.545	1	5
686.714	1	4
686.883	1	2
687.053	1	1
687.222	1	-3
687.391	1	3
687.561	1	17
687.730	1	-2
687.899	1	-3
688.069	1	9
688.238	1	-4
688.407	1	2
688.577	1	2
688.746	1	8
