340.368	1	11
340.539	1	15
340.710	1	4
340.881	1	-1
341.052	1	0
341.223	1	12
341.394	1	2
341.565	1	8
341.737	1	1
341.908	1	-4
342.079	1	-1
342.250	1	3
342.421	1	1
342.592	1	13
342.763	1	14
342.934	1	-2
343.105	1	5
343.276	1	-3
343.447	1	-4
343.618	1	-5
343.789	1	-2
343.960	1	4
344.131	1	7
344.302	1	-9
344.473	1	-3
344.644	1	8
344.815	1	-3
344.986	1	-3
345.157	1	6
345.328	1	-7
345.499	1	3
345.670	1	-3
345.841	1	-6
346.012	1	7
346.183	1	12
346.354	1	3
346.526	1	4
346.697	1	8
346.868	1	-5
347.039	1	-4
347.210	1	2
347.381	1	-7
347.552	1	4
347.723	1	7
347.894	1	5
348.065	1	4
348.236	1	10
348.407	1	2
348.578	1	-3
348.749	1	1
348.920	1	-1
349.091	1	12
349.262	1	0
349.433	1	8
349.604	1	1
349.775	1	8
349.946	1	-3
350.117	1	4
350.288	1	16
350.459	1	-5
350.630	1	8
350.801	1	6
350.972	1	4
351.143	1	10
351.314	1	1
351.485	1	16
351.656	1	-2
351.827	1	12
351.998	1	15
352.169	1	-7
352.340	1	-5
352.511	1	10
352.682	1	6
352.853	1	9
353.024	1	2
353.195	1	7
353.366	1	10
353.537	1	4
353.708	1	5
353.879	1	-2
354.050	1	12
354.221	1	10
354.392	1	15
354.563	1	13
354.734	1	9
354.905	1	11
355.076	1	15
355.247	1	8
355.418	1	7
355.589	1	-1
355.760	1	14
355.931	1	9
356.102	1	0
356.273	1	5
356.444	1	18
356.615	1	9
356.785	1	11
356.956	1	12
357.127	1	2
357.298	1	16
357.469	1	6
357.640	1	5
357.811	1	4
357.982	1	23
358.153	1	11
358.324	1	21
358.495	1	15
358.666	1	6
358.837	1	16
359.008	1	12
359.179	1	14
359.350	1	17
359.521	1	20
359.692	1	17
359.863	1	24
360.034	1	24
360.205	1	7
360.376	1	13
360.547	1	19
360.718	1	33
360.889	1	19
361.060	1	29
361.231	1	28
361.401	1	18
361.572	1	32
361.743	1	40
361.914	1	27
362.085	1	45
362.256	1	35
362.427	1	27
362.598	1	43
362.769	1	37
362.940	1	43
363.111	1	50
363.282	1	39
363.453	1	45
363.624	1	49
363.795	1	60
363.966	1	56
364.137	1	58
364.308	1	66
364.478	1	62
364.649	1	66
364.820	1	54
364.991	1	81
365.162	1	58
365.333	1	73
365.504	1	63
365.675	1	88
365.846	1	84
366.017	1	81
366.188	1	79
366.359	1	91
366.530	1	88
366.701	1	107
366.871	1	106
367.042	1	109
367.213	1	95
367.384	1	82
367.555	1	101
367.726	1	94
367.897	1	109
368.068	1	94
368.239	1	91
368.410	1	77
368.581	1	79
368.752	1	89
368.923	1	88
369.093	1	87
369.264	1	76
369.435	1	78
369.606	1	83
369.777	1	68
369.948	1	57
370.119	1	71
370.290	1	60
370.461	1	67
370.632	1	69
370.803	1	72
370.973	1	59
371.144	1	61
371.315	1	53
371.486	1	54
371.657	1	35
371.828	1	56
371.999	1	38
372.170	1	47
372.341	1	45
372.512	1	51
372.682	1	58
372.853	1	42
373.024	1	50
373.195	1	42
373.366	1	41
373.537	1	44
373.708	1	39
373.879	1	35
374.050	1	29
374.220	1	44
374.391	1	32
374.562	1	32
374.733	1	36
374.904	1	53
375.075	1	35
375.246	1	29
375.417	1	28
375.588	1	31
375.758	1	19
375.929	1	39
376.100	1	34
376.271	1	39
376.442	1	17
376.613	1	27
376.784	1	35
376.955	1	19
377.125	1	33
377.296	1	28
377.467	1	32
377.638	1	15
377.809	1	27
377.980	1	35
378.151	1	22
378.321	1	27
378.492	1	19
378.663	1	18
378.834	1	37
379.005	1	29
379.176	1	19
379.347	1	29
379.518	1	26
379.688	1	30
379.859	1	25
380.030	1	26
380.201	1	35
380.372	1	33
380.543	1	28
380.714	1	22
380.884	1	25
381.055	1	14
381.226	1	29
381.397	1	31
381.568	1	23
381.739	1	23
381.910	1	26
382.080	1	29
382.251	1	29
382.422	1	25
382.593	1	40
382.764	1	21
382.935	1	37
383.105	1	27
383.276	1	27
383.447	1	29
383.618	1	47
383.789	1	32
383.960	1	37
384.130	1	25
384.301	1	44
384.472	1	38
384.643	1	40
384.814	1	41
384.985	1	39
385.156	1	60
385.326	1	51
385.497	1	40
385.668	1	44
385.839	1	49
386.010	1	49
386.180	1	53
386.351	1	46
386.522	1	47
386.693	1	59
386.864	1	41
387.035	1	56
387.205	1	61
387.376	1	49
387.547	1	57
387.718	1	38
387.889	1	53
388.060	1	51
388.230	1	51
388.401	1	46
388.572	1	55
388.743	1	44
388.914	1	43
389.084	1	46
389.255	1	43
389.426	1	40
389.597	1	53
389.768	1	43
389.939	1	39
390.109	1	35
390.280	1	40
390.451	1	45
390.622	1	50
390.793	1	52
390.963	1	38
391.134	1	39
391.305	1	39
391.476	1	55
391.647	1	45
391.817	1	43
391.988	1	25
392.159	1	44
392.330	1	32
392.501	1	38
392.671	1	31
392.842	1	48
393.013	1	55
393.184	1	36
393.355	1	41
393.525	1	32
393.696	1	29
393.867	1	40
394.038	1	38
394.208	1	38
394.379	1	35
394.550	1	37
394.721	1	40
394.892	1	41
395.062	1	38
395.233	1	31
395.404	1	44
395.575	1	34
395.746	1	35
395.916	1	38
396.087	1	39
396.258	1	44
396.429	1	40
396.599	1	55
396.770	1	45
396.941	1	46
397.112	1	27
397.283	1	29
397.453	1	47
397.624	1	50
397.795	1	40
397.966	1	50
398.136	1	45
398.307	1	48
398.478	1	36
398.649	1	35
398.819	1	47
398.990	1	35
399.161	1	43
399.332	1	49
399.503	1	55
399.673	1	29
399.844	1	41
400.015	1	40
400.186	1	32
400.356	1	42
400.527	1	47
400.698	1	37
400.869	1	18
401.039	1	22
401.210	1	38
401.381	1	26
401.552	1	33
401.722	1	36
401.893	1	31
402.064	1	33
402.235	1	20
402.405	1	22
402.576	1	22
402.747	1	20
402.918	1	28
403.088	1	39
403.259	1	24
403.430	1	35
403.601	1	35
403.771	1	39
403.942	1	35
404.113	1	39
404.284	1	19
404.454	1	35
404.625	1	32
404.796	1	13
404.967	1	34
405.137	1	35
405.308	1	27
405.479	1	40
405.649	1	35
405.820	1	27
405.991	1	20
406.162	1	45
406.332	1	23
406.503	1	25
406.674	1	24
406.845	1	28
407.015	1	20
407.186	1	18
407.357	1	32
407.527	1	20
407.698	1	27
407.869	1	25
408.040	1	29
408.210	1	45
408.381	1	17
408.552	1	22
408.722	1	18
408.893	1	30
409.064	1	26
409.235	1	28
409.405	1	36
409.576	1	25
409.747	1	28
409.917	1	29
410.088	1	25
410.259	1	25
410.430	1	20
410.600	1	19
410.771	1	16
410.942	1	25
411.112	1	22
411.283	1	11
411.454	1	24
411.625	1	20
411.795	1	21
411.966	1	29
412.137	1	26
412.307	1	18
412.478	1	19
412.649	1	15
412.819	1	22
412.990	1	12
413.161	1	9
413.332	1	19
413.502	1	11
413.673	1	41
413.844	1	23
414.014	1	9
414.185	1	22
414.356	1	12
414.526	1	16
414.697	1	20
414.868	1	16
415.038	1	10
415.209	1	14
415.380	1	18
415.550	1	20
415.721	1	16
415.892	1	14
416.063	1	22
416.233	1	15
416.404	1	16
416.575	1	9
416.745	1	12
416.916	1	12
417.087	1	21
417.257	1	22
417.428	1	17
417.599	1	18
417.769	1	8
417.940	1	11
418.111	1	16
418.281	1	14
418.452	1	5
418.623	1	9
418.793	1	10
418.964	1	9
419.135	1	20
419.305	1	11
419.476	1	12
419.647	1	14
419.817	1	18
419.988	1	1
420.159	1	18
420.329	1	7
420.500	1	24
420.671	1	14
420.841	1	18
421.012	1	11
421.183	1	18
421.353	1	14
421.524	1	12
421.695	1	12
421.865	1	20
422.036	1	23
422.206	1	13
422.377	1	18
422.548	1	22
422.718	1	3
422.889	1	6
423.060	1	7
423.230	1	15
423.401	1	4
423.572	1	28
423.742	1	11
423.913	1	3
424.084	1	6
424.254	1	13
424.425	1	6
424.595	1	3
424.766	1	15
424.937	1	15
425.107	1	8
425.278	1	14
425.449	1	12
425.619	1	12
425.790	1	19
425.961	1	1
426.131	1	5
426.302	1	10
426.472	1	7
426.643	1	2
426.814	1	-8
426.984	1	15
427.155	1	-3
427.326	1	3
427.496	1	5
427.667	1	17
427.837	1	8
428.008	1	12
428.179	1	7
428.349	1	6
428.520	1	11
428.691	1	-4
428.861	1	9
429.032	1	12
429.202	1	24
429.373	1	16
429.544	1	15
429.714	1	-3
429.885	1	7
430.055	1	6
430.226	1	14
430.397	1	4
430.567	1	12
430.738	1	5
430.909	1	4
431.079	1	7
431.250	1	-5
431.420	1	4
431.591	1	5
431.762	1	11
431.932	1	3
432.103	1	11
432.273	1	13
432.444	1	-5
432.615	1	6
432.785	1	0
432.956	1	2
433.126	1	10
433.297	1	0
433.468	1	6
433.638	1	9
433.809	1	7
433.979	1	17
434.150	1	26
434.320	1	10
434.491	1	9
434.662	1	8
434.832	1	1
435.003	1	13
435.173	1	16
435.344	1	-7
435.515	1	5
435.685	1	10
435.856	1	2
436.026	1	13
436.197	1	7
436.368	1	5
436.538	1	1
436.709	1	-9
436.879	1	6
437.050	1	18
437.220	1	-4
437.391	1	10
437.562	1	12
437.732	1	8
437.903	1	-5
438.073	1	5
438.244	1	-5
438.414	1	3
438.585	1	1
438.756	1	12
438.926	1	-1
439.097	1	19
439.267	1	4
439.438	1	10
439.608	1	10
439.779	1	-2
439.949	1	6
440.120	1	7
440.291	1	18
440.461	1	14
440.632	1	13
440.802	1	-1
440.973	1	16
441.143	1	2
441.314	1	-3
441.485	1	3
441.655	1	-1
441.826	1	-8
441.996	1	4
442.167	1	15
442.337	1	19
442.508	1	10
442.678	1	5
442.849	1	-1
443.019	1	7
443.190	1	13
443.361	1	17
443.531	1	14
443.702	1	-6
443.872	1	12
444.043	1	4
444.213	1	5
444.384	1	2
444.554	1	12
444.725	1	14
444.895	1	2
445.066	1	8
445.237	1	12
445.407	1	7
445.578	1	11
445.748	1	2
445.919	1	-1
446.089	1	7
446.260	1	-6
446.430	1	-4
446.601	1	6
446.771	1	-12
446.942	1	4
447.112	1	12
447.283	1	5
447.453	1	3
447.624	1	2
447.794	1	13
447.965	1	4
448.135	1	2
448.306	1	4
448.477	1	13
448.647	1	4
448.818	1	1
448.988	1	-1
449.159	1	16
449.329	1	-6
449.500	1	-2
449.670	1	14
449.841	1	3
450.011	1	-2
450.182	1	0
450.352	1	9
450.523	1	9
450.693	1	7
450.864	1	-2
451.034	1	22
451.205	1	1
451.375	1	6
451.546	1	-3
451.716	1	7
451.887	1	2
452.057	1	5
452.228	1	10
452.398	1	7
452.569	1	-2
452.739	1	3
452.910	1	-1
453.080	1	-3
453.251	1	12
453.421	1	-4
453.592	1	14
453.762	1	9
453.933	1	0
454.103	1	0
454.274	1	8
454.444	1	-1
454.615	1	13
454.785	1	6
454.956	1	15
455.126	1	4
455.297	1	6
455.467	1	2
455.638	1	15
455.808	1	1
455.979	1	4
456.149	1	6
456.320	1	2
456.490	1	0
456.661	1	4
456.831	1	11
457.001	1	12
457.172	1	10
457.342	1	12
457.513	1	7
457.683	1	3
457.854	1	4
458.024	1	6
458.195	1	-6
458.365	1	16
458.536	1	-7
458.706	1	15
458.877	1	0
459.047	1	8
459.218	1	4
459.388	1	14
459.559	1	2
459.729	1	-3
459.899	1	-1
460.070	1	8
460.240	1	2
460.411	1	17
460.581	1	11
460.752	1	5
460.922	1	15
461.093	1	-2
461.263	1	1
461.434	1	7
461.604	1	17
461.775	1	4
461.945	1	12
462.115	1	-4
462.286	1	-2
462.456	1	14
462.627	1	7
462.797	1	-10
462.968	1	-8
463.138	1	4
463.309	1	6
463.479	1	5
463.649	1	3
463.820	1	4
463.990	1	10
464.161	1	7
464.331	1	9
464.502	1	-2
464.672	1	-19
464.843	1	-3
465.013	1	-9
465.183	1	5
465.354	1	11
465.524	1	1
465.695	1	7
465.865	1	1
466.036	1	5
466.206	1	-1
466.376	1	0
466.547	1	-6
466.717	1	10
466.888	1	-4
467.058	1	10
467.229	1	13
467.399	1	8
467.569	1	4
467.740	1	8
467.910	1	6
468.081	1	3
468.251	1	5
468.422	1	1
468.592	1	4
468.762	1	-11
468.933	1	3
469.103	1	4
469.274	1	0
469.444	1	8
469.614	1	6
469.785	1	3
469.955	1	9
470.126	1	3
470.296	1	8
470.467	1	-2
470.637	1	0
470.807	1	19
470.978	1	0
471.148	1	1
471.319	1	6
471.489	1	-9
471.659	1	3
471.830	1	11
472.000	1	2
472.171	1	7
472.341	1	-5
472.511	1	18
472.682	1	-1
472.852	1	-5
473.023	1	4
473.193	1	2
473.363	1	3
473.534	1	-3
473.704	1	-2
473.875	1	-7
474.045	1	-3
474.215	1	7
474.386	1	6
474.556	1	11
474.727	1	0
474.897	1	3
475.067	1	0
475.238	1	-7
475.408	1	0
475.578	1	12
475.749	1	10
475.919	1	6
476.090	1	14
476.260	1	8
476.430	1	18
476.601	1	8
476.771	1	3
476.942	1	-1
477.112	1	8
477.282	1	3
477.453	1	2
477.623	1	9
477.793	1	5
477.964	1	-1
478.134	1	5
478.305	1	1
478.475	1	1
478.645	1	5
478.816	1	11
478.986	1	2
479.156	1	0
479.327	1	4
479.497	1	13
479.667	1	13
479.838	1	-11
480.008	1	4
480.179	1	-2
480.349	1	7
480.519	1	5
480.690	1	10
480.860	1	6
481.030	1	8
481.201	1	3
481.371	1	7
481.541	1	7
481.712	1	10
481.882	1	-2
482.053	1	9
482.223	1	2
482.393	1	12
482.564	1	2
482.734	1	15
482.904	1	10
483.075	1	-1
483.245	1	7
483.415	1	4
483.586	1	10
483.756	1	-2
483.926	1	2
484.097	1	9
484.267	1	3
484.437	1	8
484.608	1	0
484.778	1	-2
484.948	1	11
485.119	1	1
485.289	1	8
485.459	1	9
485.630	1	2
485.800	1	6
485.970	1	7
486.141	1	7
486.311	1	10
486.481	1	12
486.652	1	3
486.822	1	4
486.992	1	12
487.163	1	2
487.333	1	7
487.503	1	13
487.674	1	7
487.844	1	9
488.014	1	14
488.185	1	9
488.355	1	9
488.525	1	5
488.696	1	6
488.866	1	0
489.036	1	10
489.207	1	12
489.377	1	3
489.547	1	3
489.718	1	1
489.888	1	10
490.058	1	20
490.228	1	5
490.399	1	12
490.569	1	13
490.739	1	11
490.910	1	1
491.080	1	6
491.250	1	15
491.421	1	10
491.591	1	5
491.761	1	6
491.932	1	9
492.102	1	7
492.272	1	9
492.442	1	15
492.613	1	15
492.783	1	11
492.953	1	1
493.124	1	12
493.294	1	11
493.464	1	9
493.635	1	6
493.805	1	19
493.975	1	16
494.145	1	12
494.316	1	17
494.486	1	4
494.656	1	5
494.827	1	20
494.997	1	8
495.167	1	12
495.337	1	7
495.508	1	5
495.678	1	10
495.848	1	15
496.019	1	4
496.189	1	14
496.359	1	3
496.529	1	19
496.700	1	5
496.870	1	13
497.040	1	8
497.211	1	11
497.381	1	5
497.551	1	7
497.721	1	4
497.892	1	16
498.062	1	20
498.232	1	18
498.403	1	15
498.573	1	9
498.743	1	14
498.913	1	17
499.084	1	11
499.254	1	3
499.424	1	9
499.594	1	11
499.765	1	32
499.935	1	9
500.105	1	15
500.275	1	12
500.446	1	11
500.616	1	9
500.786	1	19
500.956	1	25
501.127	1	23
501.297	1	18
501.467	1	28
501.638	1	15
501.808	1	8
501.978	1	21
502.148	1	7
502.319	1	25
502.489	1	17
502.659	1	35
502.829	1	22
503.000	1	17
503.170	1	17
503.340	1	15
503.510	1	9
503.681	1	17
503.851	1	22
504.021	1	23
504.191	1	29
504.362	1	15
504.532	1	23
504.702	1	12
504.872	1	13
505.042	1	16
505.213	1	14
505.383	1	16
505.553	1	17
505.723	1	21
505.894	1	14
506.064	1	19
506.234	1	27
506.404	1	25
506.575	1	18
506.745	1	28
506.915	1	29
507.085	1	22
507.256	1	16
507.426	1	26
507.596	1	25
507.766	1	24
507.936	1	28
508.107	1	39
508.277	1	19
508.447	1	25
508.617	1	21
508.788	1	32
508.958	1	23
509.128	1	34
509.298	1	21
509.468	1	32
509.639	1	33
509.809	1	39
509.979	1	34
510.149	1	33
510.319	1	24
510.490	1	34
510.660	1	32
510.830	1	21
511.000	1	23
511.171	1	29
511.341	1	34
511.511	1	27
511.681	1	38
511.851	1	42
512.022	1	25
512.192	1	33
512.362	1	31
512.532	1	24
512.702	1	22
512.873	1	40
513.043	1	33
513.213	1	36
513.383	1	21
513.553	1	44
513.724	1	34
513.894	1	29
514.064	1	33
514.234	1	31
514.404	1	30
514.575	1	29
514.745	1	25
514.915	1	19
515.085	1	29
515.255	1	32
515.425	1	26
515.596	1	37
515.766	1	34
515.936	1	32
516.106	1	26
516.276	1	35
516.447	1	41
516.617	1	31
516.787	1	32
516.957	1	27
517.127	1	31
517.297	1	30
517.468	1	32
517.638	1	28
517.808	1	29
517.978	1	34
518.148	1	36
518.319	1	33
518.489	1	30
518.659	1	28
518.829	1	34
518.999	1	35
519.169	1	39
519.340	1	32
519.510	1	36
519.680	1	38
519.850	1	30
520.020	1	43
520.190	1	32
520.361	1	41
520.531	1	38
520.701	1	40
520.871	1	34
521.041	1	42
521.211	1	41
521.382	1	33
521.552	1	32
521.722	1	44
521.892	1	35
522.062	1	38
522.232	1	38
522.402	1	46
522.573	1	43
522.743	1	34
522.913	1	43
523.083	1	32
523.253	1	39
523.423	1	40
523.593	1	39
523.764	1	42
523.934	1	36
524.104	1	32
524.274	1	41
524.444	1	33
524.614	1	37
524.784	1	27
524.955	1	38
525.125	1	41
525.295	1	28
525.465	1	37
525.635	1	31
525.805	1	50
525.975	1	31
526.146	1	23
526.316	1	31
526.486	1	34
526.656	1	38
526.826	1	39
526.996	1	43
527.166	1	31
527.337	1	36
527.507	1	38
527.677	1	37
527.847	1	30
528.017	1	32
528.187	1	38
528.357	1	44
528.527	1	41
528.698	1	39
528.868	1	42
529.038	1	36
529.208	1	24
529.378	1	37
529.548	1	35
529.718	1	38
529.888	1	41
530.058	1	39
530.229	1	44
530.399	1	39
530.569	1	35
530.739	1	34
530.909	1	30
531.079	1	32
531.249	1	39
531.419	1	45
531.589	1	51
531.760	1	31
531.930	1	55
532.100	1	33
532.270	1	45
532.440	1	44
532.610	1	46
532.780	1	42
532.950	1	40
533.120	1	51
533.290	1	40
533.461	1	52
533.631	1	40
533.801	1	32
533.971	1	26
534.141	1	39
534.311	1	36
534.481	1	42
534.651	1	32
534.821	1	35
534.991	1	37
535.162	1	37
535.332	1	42
535.502	1	34
535.672	1	37
535.842	1	40
536.012	1	31
536.182	1	33
536.352	1	33
536.522	1	28
536.692	1	26
536.862	1	31
537.032	1	30
537.203	1	42
537.373	1	39
537.543	1	25
537.713	1	45
537.883	1	33
538.053	1	32
538.223	1	39
538.393	1	34
538.563	1	47
538.733	1	41
538.903	1	36
539.073	1	26
539.243	1	30
539.413	1	36
539.584	1	29
539.754	1	39
539.924	1	34
540.094	1	33
540.264	1	28
540.434	1	42
540.604	1	46
540.774	1	39
540.944	1	33
541.114	1	32
541.284	1	30
541.454	1	34
541.624	1	31
541.794	1	22
541.964	1	34
542.134	1	43
542.305	1	45
542.475	1	33
542.645	1	26
542.815	1	29
542.985	1	29
543.155	1	28
543.325	1	34
543.495	1	40
543.665	1	27
543.835	1	23
544.005	1	31
544.175	1	31
544.345	1	24
544.515	1	42
544.685	1	41
544.855	1	29
545.025	1	36
545.195	1	30
545.365	1	27
545.535	1	37
545.705	1	38
545.875	1	25
546.045	1	33
546.216	1	18
546.386	1	27
546.556	1	28
546.726	1	34
546.896	1	37
547.066	1	41
547.236	1	30
547.406	1	26
547.576	1	28
547.746	1	39
547.916	1	27
548.086	1	32
548.256	1	31
548.426	1	34
548.596	1	22
548.766	1	41
548.936	1	45
549.106	1	45
549.276	1	42
549.446	1	34
549.616	1	30
549.786	1	26
549.956	1	22
550.126	1	24
550.296	1	32
550.466	1	43
550.636	1	44
550.806	1	41
550.976	1	25
551.146	1	24
551.316	1	30
551.486	1	32
551.656	1	33
551.826	1	41
551.996	1	28
552.166	1	35
552.336	1	30
552.506	1	36
552.676	1	42
552.846	1	25
553.016	1	36
553.186	1	30
553.356	1	30
553.526	1	24
553.696	1	43
553.866	1	44
554.036	1	25
554.206	1	29
554.376	1	17
554.546	1	26
554.716	1	32
554.886	1	39
555.056	1	30
555.226	1	34
555.396	1	31
555.566	1	31
555.736	1	40
555.906	1	30
556.076	1	35
556.246	1	25
556.416	1	9
556.586	1	20
556.756	1	16
556.926	1	25
557.096	1	18
557.266	1	33
557.436	1	34
557.606	1	23
557.776	1	34
557.946	1	23
558.116	1	39
558.286	1	34
558.456	1	26
558.626	1	9
558.796	1	28
558.966	1	26
559.136	1	17
559.306	1	37
559.476	1	28
559.646	1	20
559.816	1	23
559.986	1	29
560.155	1	22
560.325	1	22
560.495	1	35
560.665	1	15
560.835	1	27
561.005	1	27
561.175	1	16
561.345	1	20
561.515	1	21
561.685	1	24
561.855	1	26
562.025	1	24
562.195	1	16
562.365	1	22
562.535	1	9
562.705	1	15
562.875	1	22
563.045	1	11
563.215	1	13
563.385	1	16
563.555	1	12
563.725	1	23
563.895	1	16
564.064	1	10
564.234	1	11
564.404	1	16
564.574	1	35
564.744	1	12
564.914	1	3
565.084	1	13
565.254	1	22
565.424	1	23
565.594	1	10
565.764	1	13
565.934	1	16
566.104	1	23
566.274	1	26
566.444	1	17
566.614	1	26
566.783	1	10
566.953	1	27
567.123	1	22
567.293	1	6
567.463	1	20
567.633	1	14
567.803	1	31
567.973	1	17
568.143	1	21
568.313	1	20
568.483	1	19
568.653	1	11
568.823	1	9
568.993	1	6
569.162	1	10
569.332	1	9
569.502	1	27
569.672	1	20
569.842	1	18
570.012	1	21
570.182	1	9
570.352	1	16
570.522	1	17
570.692	1	15
570.862	1	18
571.031	1	11
571.201	1	22
571.371	1	19
571.541	1	11
571.711	1	8
571.881	1	17
572.051	1	10
572.221	1	25
572.391	1	22
572.561	1	20
572.731	1	6
572.900	1	4
573.070	1	21
573.240	1	7
573.410	1	9
573.580	1	7
573.750	1	22
573.920	1	13
574.090	1	18
574.260	1	14
574.430	1	12
574.599	1	15
574.769	1	15
574.939	1	8
575.109	1	18
575.279	1	11
575.449	1	23
575.619	1	31
575.789	1	6
575.959	1	12
576.128	1	11
576.298	1	20
576.468	1	11
576.638	1	2
576.808	1	6
576.978	1	12
577.148	1	19
577.318	1	20
577.487	1	10
577.657	1	18
577.827	1	16
577.997	1	17
578.167	1	7
578.337	1	12
578.507	1	5
578.677	1	10
578.846	1	9
579.016	1	20
579.186	1	12
579.356	1	19
579.526	1	11
579.696	1	14
579.866	1	3
580.036	1	11
580.205	1	7
580.375	1	17
580.545	1	8
580.715	1	13
580.885	1	22
581.055	1	10
581.225	1	10
581.394	1	0
581.564	1	8
581.734	1	0
581.904	1	4
582.074	1	17
582.244	1	0
582.414	1	1
582.583	1	14
582.753	1	12
582.923	1	9
583.093	1	18
583.263	1	17
583.433	1	30
583.603	1	0
583.772	1	-6
583.942	1	21
584.112	1	9
584.282	1	7
584.452	1	9
584.622	1	2
584.791	1	7
584.961	1	-8
585.131	1	9
585.301	1	13
585.471	1	-2
585.641	1	12
585.811	1	14
585.980	1	11
586.150	1	5
586.320	1	13
586.490	1	12
586.660	1	11
586.830	1	-1
586.999	1	12
587.169	1	13
587.339	1	13
587.509	1	10
587.679	1	1
587.849	1	22
588.018	1	5
588.188	1	4
588.358	1	5
588.528	1	-2
588.698	1	5
588.867	1	6
589.037	1	7
589.207	1	13
589.377	1	17
589.547	1	6
589.717	1	3
589.886	1	9
590.056	1	2
590.226	1	2
590.396	1	-4
590.566	1	-1
590.735	1	1
590.905	1	18
591.075	1	7
591.245	1	7
591.415	1	8
591.585	1	13
591.754	1	6
591.924	1	11
592.094	1	-3
592.264	1	-1
592.434	1	8
592.603	1	13
592.773	1	4
592.943	1	7
593.113	1	1
593.283	1	-7
593.452	1	3
593.622	1	13
593.792	1	20
593.962	1	9
594.132	1	16
594.301	1	12
594.471	1	5
594.641	1	13
594.811	1	6
594.981	1	0
595.150	1	8
595.320	1	0
595.490	1	16
595.660	1	3
595.829	1	1
595.999	1	7
596.169	1	14
596.339	1	3
596.509	1	8
596.678	1	21
596.848	1	11
597.018	1	7
597.188	1	6
597.358	1	4
597.527	1	3
597.697	1	1
597.867	1	3
598.037	1	6
598.206	1	8
598.376	1	2
598.546	1	4
598.716	1	0
598.885	1	6
599.055	1	20
599.225	1	7
599.395	1	8
599.565	1	-7
599.734	1	15
599.904	1	-5
600.074	1	7
600.244	1	12
600.413	1	14
600.583	1	-4
600.753	1	12
600.923	1	5
601.092	1	5
601.262	1	7
601.432	1	0
601.602	1	17
601.771	1	10
601.941	1	10
602.111	1	3
602.281	1	9
602.451	1	1
602.620	1	7
602.790	1	2
602.960	1	-9
603.130	1	0
603.299	1	4
603.469	1	11
603.639	1	-8
603.809	1	16
603.978	1	1
604.148	1	6
604.318	1	0
604.487	1	15
604.657	1	-5
604.827	1	7
604.997	1	9
605.166	1	8
605.336	1	-13
605.506	1	-2
605.676	1	8
605.845	1	0
606.015	1	-2
606.185	1	4
606.355	1	5
606.524	1	12
606.694	1	4
606.864	1	8
607.034	1	11
607.203	1	12
607.373	1	3
607.543	1	5
607.712	1	4
607.882	1	11
608.052	1	4
608.222	1	11
608.391	1	13
608.561	1	4
608.731	1	6
608.901	1	6
609.070	1	1
609.240	1	7
609.410	1	3
609.579	1	11
609.749	1	15
609.919	1	5
610.089	1	6
610.258	1	-2
610.428	1	10
610.598	1	11
610.767	1	3
610.937	1	3
611.107	1	0
611.277	1	0
611.446	1	-3
611.616	1	11
611.786	1	6
611.955	1	7
612.125	1	7
612.295	1	7
612.465	1	5
612.634	1	5
612.804	1	3
612.974	1	3
613.143	1	12
613.313	1	6
613.483	1	11
613.652	1	5
613.822	1	-1
613.992	1	2
614.162	1	10
614.331	1	7
614.501	1	2
614.671	1	10
614.840	1	-1
615.010	1	1
615.180	1	12
615.349	1	16
615.519	1	-5
615.689	1	1
615.858	1	3
616.028	1	11
616.198	1	5
616.368	1	9
616.537	1	10
616.707	1	10
616.877	1	5
617.046	1	14
617.216	1	-2
617.386	1	9
617.555	1	-1
617.725	1	5
617.895	1	9
618.064	1	-3
618.234	1	-1
618.404	1	1
618.573	1	3
618.743	1	18
618.913	1	12
619.082	1	1
619.252	1	2
619.422	1	-3
619.591	1	-1
619.761	1	-2
619.931	1	2
620.100	1	16
620.270	1	10
620.440	1	3
620.609	1	13
620.779	1	13
620.949	1	5
621.118	1	9
621.288	1	-8
621.458	1	17
621.627	1	0
621.797	1	5
621.967	1	5
622.136	1	4
622.306	1	7
622.476	1	-2
622.645	1	3
622.815	1	8
622.985	1	-2
623.154	1	7
623.324	1	6
623.494	1	-3
623.663	1	4
623.833	1	9
624.002	1	2
624.172	1	2
624.342	1	11
624.511	1	-2
624.681	1	8
624.851	1	-5
625.020	1	11
625.190	1	1
625.360	1	5
625.529	1	-5
625.699	1	3
625.869	1	5
626.038	1	-6
626.208	1	1
626.377	1	2
626.547	1	-2
626.717	1	-5
626.886	1	5
627.056	1	5
627.226	1	14
627.395	1	3
627.565	1	11
627.735	1	8
627.904	1	8
628.074	1	4
628.243	1	16
628.413	1	-2
628.583	1	5
628.752	1	1
628.922	1	-1
629.091	1	3
629.261	1	4
629.431	1	12
629.600	1	4
629.770	1	12
629.940	1	-4
630.109	1	3
630.279	1	13
630.448	1	-8
630.618	1	10
630.788	1	4
630.957	1	11
631.127	1	-1
631.297	1	-1
631.466	1	3
631.636	1	1
631.805	1	5
631.975	1	-3
632.145	1	12
632.314	1	0
632.484	1	15
632.653	1	1
632.823	1	0
632.993	1	13
633.162	1	3
633.332	1	-7
633.501	1	4
633.671	1	0
633.841	1	11
634.010	1	12
634.180	1	3
634.349	1	12
634.519	1	16
634.689	1	-1
634.858	1	-3
635.028	1	-4
635.197	1	-2
635.367	1	3
635.537	1	7
635.706	1	6
635.876	1	17
636.045	1	5
636.215	1	24
636.384	1	-1
636.554	1	1
636.724	1	3
636.893	1	2
637.063	1	3
637.232	1	10
637.402	1	2
637.572	1	5
637.741	1	2
637.911	1	-1
638.080	1	15
638.250	1	5
638.419	1	-5
638.589	1	7
638.759	1	-7
638.928	1	7
639.098	1	-1
639.267	1	14
639.437	1	9
639.606	1	5
639.776	1	9
639.946	1	9
640.115	1	-5
640.285	1	6
640.454	1	8
640.624	1	8
640.793	1	6
640.963	1	4
641.132	1	18
641.302	1	5
641.472	1	1
641.641	1	7
641.811	1	4
641.980	1	-3
642.150	1	-10
642.319	1	10
642.489	1	1
642.659	1	9
642.828	1	2
642.998	1	4
643.167	1	-6
643.337	1	1
643.506	1	5
643.676	1	2
643.845	1	3
644.015	1	3
644.184	1	-16
644.354	1	8
644.524	1	3
644.693	1	12
644.863	1	8
645.032	1	6
645.202	1	-5
645.371	1	0
645.541	1	10
645.710	1	-5
645.880	1	-2
646.049	1	6
646.219	1	-6
646.388	1	5
646.558	1	6
646.728	1	2
646.897	1	3
647.067	1	0
647.236	1	10
647.406	1	10
647.575	1	15
647.745	1	7
647.914	1	0
648.084	1	9
648.253	1	-3
648.423	1	1
648.592	1	-8
648.762	1	14
648.931	1	7
649.101	1	-3
649.270	1	5
649.440	1	5
649.610	1	9
649.779	1	4
649.949	1	2
650.118	1	13
650.288	1	2
650.457	1	12
650.627	1	5
650.796	1	0
650.966	1	-7
651.135	1	7
651.305	1	-1
651.474	1	4
651.644	1	17
651.813	1	8
651.983	1	2
652.152	1	14
652.322	1	2
652.491	1	4
652.661	1	1
652.830	1	3
653.000	1	-4
653.169	1	14
653.339	1	12
653.508	1	10
653.678	1	1
653.847	1	3
654.017	1	4
654.186	1	2
654.356	1	-6
654.525	1	-8
654.695	1	-3
654.864	1	-3
655.034	1	7
655.203	1	12
655.373	1	9
655.542	1	-7
655.712	1	8
655.881	1	14
656.051	1	12
656.220	1	-7
656.390	1	-2
656.559	1	-5
656.729	1	-3
656.898	1	8
657.068	1	5
657.237	1	16
657.406	1	7
657.576	1	6
657.745	1	13
657.915	1	-10
658.084	1	8
658.254	1	8
658.423	1	12
658.593	1	13
658.762	1	2
658.932	1	0
659.101	1	-5
659.271	1	5
659.440	1	6
659.610	1	2
659.779	1	10
659.949	1	-1
660.118	1	6
660.288	1	-6
660.457	1	2
660.626	1	3
660.796	1	4
660.965	1	1
661.135	1	-2
661.304	1	1
661.474	1	-2
661.643	1	-3
661.813	1	4
661.982	1	6
662.152	1	5
662.321	1	6
662.491	1	-7
662.660	1	4
662.829	1	14
662.999	1	5
663.168	1	0
663.338	1	12
663.507	1	3
663.677	1	6
663.846	1	1
664.016	1	-11
664.185	1	1
664.354	1	12
664.524	1	2
664.693	1	0
664.863	1	3
665.032	1	-1
665.202	1	2
665.371	1	-1
665.541	1	15
665.710	1	-5
665.879	1	0
666.049	1	-7
666.218	1	-2
666.388	1	13
666.557	1	11
666.727	1	0
666.896	1	6
667.065	1	-11
667.235	1	14
667.404	1	-2
667.574	1	8
667.743	1	-2
667.913	1	10
668.082	1	2
668.251	1	-4
668.421	1	6
668.590	1	6
668.760	1	1
668.929	1	10
669.099	1	-4
669.268	1	1
669.437	1	0
669.607	1	3
669.776	1	9
669.946	1	-3
670.115	1	-17
670.285	1	5
670.454	1	2
670.623	1	3
670.793	1	10
670.962	1	-3
671.132	1	-1
671.301	1	11
671.470	1	2
671.640	1	-8
671.809	1	-1
671.979	1	10
672.148	1	11
672.317	1	-6
672.487	1	7
672.656	1	-1
672.826	1	6
672.995	1	19
673.164	1	-8
673.334	1	-5
673.503	1	4
673.673	1	7
673.842	1	8
674.011	1	6
674.181	1	7
674.350	1	6
674.520	1	8
674.689	1	-10
674.858	1	-2
675.028	1	4
675.197	1	7
675.367	1	2
675.536	1	6
675.705	1	4
675.875	1	-2
676.044	1	-6
676.214	1	4
676.383	1	15
676.552	1	4
676.722	1	-3
676.891	1	-3
677.060	1	1
677.230	1	7
677.399	1	-11
677.569	1	11
677.738	1	10
677.907	1	-7
678.077	1	2
678.246	1	5
678.416	1	12
678.585	1	-1
678.754	1	3
678.924	1	10
679.093	1	10
679.262	1	-1
679.432	1	-2
679.601	1	0
679.771	1	6
679.940	1	7
680.109	1	1
680.279	1	7
680.448	1	14
680.617	1	-1
680.787	1	-7
680.956	1	7
681.125	1	14
681.295	1	2
681.464	1	1
681.634	1	15
681.803	1	8
681.972	1	5
682.142	1	2
682.311	1	1
682.480	1	10
682.650	1	7
682.819	1	13
682.988	1	7
683.158	1	-2
683.327	1	11
683.496	1	10
683.666	1	4
683.835	1	-7
684.004	1	10
684.174	1	-4
684.343	1	4
684.512	1	0
684.682	1	4
684.851	1	6
685.021	1	0
685.190	1	-6
685.359	1	-11
685.529	1	6
685.698	1	-3
685.867	1	7
686.037	1	2
686.206	1	3
686.375	1	8
686.545	1	13
686.714	1	1
686.883	1	6
687.053	1	-5
687.222	1	0
687.391	1	3
687.561	1	16
687.730	1	4
687.899	1	0
688.069	1	5
688.238	1	0
688.407	1	12
688.577	1	5
688.746	1	7
