340.368	1	10
340.539	1	9
340.710	1	6
340.881	1	-1
341.052	1	-2
341.223	1	9
341.394	1	-6
341.565	1	10
341.737	1	5
341.908	1	-9
342.079	1	-5
342.250	1	1
342.421	1	4
342.592	1	4
342.763	1	5
342.934	1	1
343.105	1	1
343.276	1	3
343.447	1	-11
343.618	1	-3
343.789	1	4
343.960	1	2
344.131	1	7
344.302	1	-1
344.473	1	4
344.644	1	-1
344.815	1	4
344.986	1	3
345.157	1	3
345.328	1	-6
345.499	1	11
345.670	1	-7
345.841	1	2
346.012	1	5
346.183	1	12
346.354	1	7
346.526	1	-3
346.697	1	-3
346.868	1	-2
347.039	1	-4
347.210	1	1
347.381	1	9
347.552	1	-4
347.723	1	-4
347.894	1	1
348.065	1	3
348.236	1	12
348.407	1	-7
348.578	1	4
348.749	1	-5
348.920	1	-4
349.091	1	8
349.262	1	-7
349.433	1	-5
349.604	1	11
349.775	1	9
349.946	1	1
350.117	1	2
350.288	1	5
350.459	1	3
350.630	1	-2
350.801	1	-3
350.972	1	4
351.143	1	6
351.314	1	-8
351.485	1	2
351.656	1	-2
351.827	1	7
351.998	1	0
352.169	1	4
352.340	1	3
352.511	1	-1
352.682	1	6
352.853	1	4
353.024	1	7
353.195	1	-1
353.366	1	-4
353.537	1	6
353.708	1	3
353.879	1	-7
354.050	1	8
354.221	1	-5
354.392	1	9
354.563	1	12
354.734	1	3
354.905	1	10
355.076	1	13
355.247	1	12
355.418	1	4
355.589	1	-2
355.760	1	11
355.931	1	1
356.102	1	-4
356.273	1	6
356.444	1	2
356.615	1	4
356.785	1	1
356.956	1	1
357.127	1	1
357.298	1	3
357.469	1	0
357.640	1	4
357.811	1	1
357.982	1	-1
358.153	1	9
358.324	1	12
358.495	1	1
358.666	1	-13
358.837	1	3
359.008	1	-1
359.179	1	0
359.350	1	-4
359.521	1	11
359.692	1	5
359.863	1	9
360.034	1	3
360.205	1	-1
360.376	1	-4
360.547	1	-4
360.718	1	11
360.889	1	-10
361.060	1	-2
361.231	1	-1
361.401	1	-4
361.572	1	-2
361.743	1	13
361.914	1	9
362.085	1	6
362.256	1	3
362.427	1	-11
362.598	1	-2
362.769	1	3
362.940	1	2
363.111	1	3
363.282	1	-5
363.453	1	3
363.624	1	3
363.795	1	4
363.966	1	7
364.137	1	2
364.308	1	6
364.478	1	3
364.649	1	1
364.820	1	9
364.991	1	4
365.162	1	-11
365.333	1	-4
365.504	1	-4
365.675	1	-9
365.846	1	2
366.017	1	0
366.188	1	-5
366.359	1	-1
366.530	1	3
366.701	1	10
366.871	1	8
367.042	1	8
367.213	1	9
367.384	1	3
367.555	1	2
367.726	1	-2
367.897	1	6
368.068	1	2
368.239	1	0
368.410	1	3
368.581	1	8
368.752	1	1
368.923	1	1
369.093	1	1
369.264	1	1
369.435	1	-3
369.606	1	-6
369.777	1	9
369.948	1	3
370.119	1	-1
370.290	1	-9
370.461	1	0
370.632	1	4
370.803	1	6
370.973	1	-7
371.144	1	0
371.315	1	1
371.486	1	2
371.657	1	-1
371.828	1	7
371.999	1	-11
372.170	1	-4
372.341	1	8
372.512	1	-1
372.682	1	1
372.853	1	1
373.024	1	-4
373.195	1	-6
373.366	1	-6
373.537	1	7
373.708	1	-2
373.879	1	4
374.050	1	5
374.220	1	-2
374.391	1	-2
374.562	1	8
374.733	1	-5
374.904	1	3
375.075	1	3
375.246	1	-13
375.417	1	6
375.588	1	3
375.758	1	-9
375.929	1	5
376.100	1	3
376.271	1	-2
376.442	1	-6
376.613	1	1
376.784	1	8
376.955	1	-10
377.125	1	3
377.296	1	3
377.467	1	2
377.638	1	2
377.809	1	-1
377.980	1	6
378.151	1	5
378.321	1	-3
378.492	1	9
378.663	1	-9
378.834	1	15
379.005	1	0
379.176	1	-3
379.347	1	-3
379.518	1	1
379.688	1	-4
379.859	1	11
380.030	1	15
380.201	1	0
380.372	1	3
380.543	1	5
380.714	1	2
380.884	1	6
381.055	1	-3
381.226	1	8
381.397	1	0
381.568	1	7
381.739	1	-2
381.910	1	4
382.080	1	-2
382.251	1	-5
382.422	1	0
382.593	1	0
382.764	1	-3
382.935	1	5
383.105	1	5
383.276	1	-3
383.447	1	-2
383.618	1	12
383.789	1	-1
383.960	1	-7
384.130	1	-3
384.301	1	6
384.472	1	-4
384.643	1	-4
384.814	1	3
384.985	1	-4
385.156	1	2
385.326	1	3
385.497	1	9
385.668	1	-6
385.839	1	7
386.010	1	5
386.180	1	0
386.351	1	-4
386.522	1	0
386.693	1	0
386.864	1	11
387.035	1	8
387.205	1	12
387.376	1	2
387.547	1	4
387.718	1	1
387.889	1	-1
388.060	1	5
388.230	1	4
388.401	1	0
388.572	1	7
388.743	1	3
388.914	1	-2
389.084	1	8
389.255	1	-4
389.426	1	2
389.597	1	7
389.768	1	4
389.939	1	0
390.109	1	-5
390.280	1	-6
390.451	1	-2
390.622	1	3
390.793	1	3
390.963	1	2
391.134	1	1
391.305	1	3
391.476	1	1
391.647	1	-6
391.817	1	0
391.988	1	-7
392.159	1	10
392.330	1	-4
392.501	1	8
392.671	1	-4
392.842	1	0
393.013	1	17
393.184	1	4
393.355	1	3
393.525	1	2
393.696	1	-2
393.867	1	8
394.038	1	-4
394.208	1	13
394.379	1	2
394.550	1	-2
394.721	1	-1
394.892	1	0
395.062	1	7
395.233	1	-1
395.404	1	9
395.575	1	5
395.746	1	-1
395.916	1	4
396.087	1	11
396.258	1	5
396.429	1	-3
396.599	1	10
396.770	1	5
396.941	1	-3
397.112	1	-1
397.283	1	-7
397.453	1	13
397.624	1	3
397.795	1	11
397.966	1	6
398.136	1	2
398.307	1	-1
398.478	1	5
398.649	1	-7
398.819	1	8
398.990	1	-1
399.161	1	6
399.332	1	4
399.503	1	6
399.673	1	-7
399.844	1	2
400.015	1	3
400.186	1	-3
400.356	1	8
400.527	1	10
400.698	1	-2
400.869	1	-4
401.039	1	-8
401.210	1	4
401.381	1	-2
401.552	1	-3
401.722	1	7
401.893	1	5
402.064	1	2
402.235	1	-8
402.405	1	3
402.576	1	-3
402.747	1	8
402.918	1	11
403.088	1	-1
403.259	1	2
403.430	1	4
403.601	1	5
403.771	1	12
403.942	1	11
404.113	1	6
404.284	1	-1
404.454	1	-2
404.625	1	-10
404.796	1	-5
404.967	1	0
405.137	1	3
405.308	1	10
405.479	1	12
405.649	1	13
405.820	1	9
405.991	1	-3
406.162	1	7
406.332	1	-12
406.503	1	0
406.674	1	0
406.845	1	11
407.015	1	-1
407.186	1	7
407.357	1	7
407.527	1	2
407.698	1	4
407.869	1	3
408.040	1	4
408.210	1	4
408.381	1	-6
408.552	1	-4
408.722	1	-6
408.893	1	-4
409.064	1	-2
409.235	1	0
409.405	1	6
409.576	1	9
409.747	1	12
409.917	1	9
410.088	1	4
410.259	1	-4
410.430	1	-7
410.600	1	-1
410.771	1	7
410.942	1	-4
411.112	1	-5
411.283	1	-3
411.454	1	-2
411.625	1	2
411.795	1	20
411.966	1	16
412.137	1	0
412.307	1	9
412.478	1	9
412.649	1	-7
412.819	1	3
412.990	1	-8
413.161	1	0
413.332	1	6
413.502	1	0
413.673	1	9
413.844	1	15
414.014	1	-3
414.185	1	12
414.356	1	-2
414.526	1	0
414.697	1	1
414.868	1	4
415.038	1	3
415.209	1	-12
415.380	1	11
415.550	1	-3
415.721	1	4
415.892	1	1
416.063	1	7
416.233	1	0
416.404	1	1
416.575	1	-1
416.745	1	0
416.916	1	-3
417.087	1	8
417.257	1	0
417.428	1	3
417.599	1	6
417.769	1	0
417.940	1	-3
418.111	1	0
418.281	1	-8
418.452	1	-1
418.623	1	0
418.793	1	1
418.964	1	-1
419.135	1	8
419.305	1	0
419.476	1	4
419.647	1	8
419.817	1	3
419.988	1	-11
420.159	1	-4
420.329	1	0
420.500	1	9
420.671	1	2
420.841	1	-4
421.012	1	-1
421.183	1	4
421.353	1	2
421.524	1	14
421.695	1	5
421.865	1	13
422.036	1	-3
422.206	1	-4
422.377	1	9
422.548	1	1
422.718	1	0
422.889	1	-6
423.060	1	-3
423.230	1	6
423.401	1	2
423.572	1	15
423.742	1	-7
423.913	1	4
424.084	1	5
424.254	1	0
424.425	1	-2
424.595	1	-5
424.766	1	-3
424.937	1	7
425.107	1	3
425.278	1	1
425.449	1	-5
425.619	1	3
425.790	1	10
425.961	1	6
426.131	1	3
426.302	1	14
426.472	1	2
426.643	1	-4
426.814	1	-4
426.984	1	3
427.155	1	-6
427.326	1	10
427.496	1	-3
427.667	1	7
427.837	1	3
428.008	1	-2
428.179	1	-5
428.349	1	-10
428.520	1	8
428.691	1	-7
428.861	1	-1
429.032	1	-9
429.202	1	3
429.373	1	-4
429.544	1	5
429.714	1	-4
429.885	1	5
430.055	1	-11
430.226	1	2
430.397	1	8
430.567	1	-5
430.738	1	-5
430.909	1	-6
431.079	1	2
431.250	1	-8
431.420	1	-3
431.591	1	-5
431.762	1	3
431.932	1	-1
432.103	1	4
432.273	1	6
432.444	1	-13
432.615	1	-4
432.785	1	-3
432.956	1	1
433.126	1	5
433.297	1	-1
433.468	1	-6
433.638	1	6
433.809	1	-1
433.979	1	4
434.150	1	-1
434.320	1	5
434.491	1	15
434.662	1	9
434.832	1	5
435.003	1	9
435.173	1	2
435.344	1	-1
435.515	1	-6
435.685	1	11
435.856	1	-5
436.026	1	-1
436.197	1	-3
436.368	1	0
436.538	1	-4
436.709	1	-6
436.879	1	-1
437.050	1	10
437.220	1	-1
437.391	1	7
437.562	1	2
437.732	1	6
437.903	1	-5
438.073	1	1
438.244	1	-11
438.414	1	3
438.585	1	-1
438.756	1	9
438.926	1	7
439.097	1	5
439.267	1	6
439.438	1	3
439.608	1	-2
439.779	1	0
439.949	1	-9
440.120	1	-7
440.291	1	6
440.461	1	7
440.632	1	10
440.802	1	-4
440.973	1	9
441.143	1	2
441.314	1	1
441.485	1	3
441.655	1	-4
441.826	1	-3
441.996	1	-5
442.167	1	-1
442.337	1	7
442.508	1	5
442.678	1	-14
442.849	1	3
443.019	1	4
443.190	1	13
443.361	1	8
443.531	1	6
443.702	1	-9
443.872	1	2
444.043	1	4
444.213	1	5
444.384	1	2
444.554	1	-5
444.725	1	8
444.895	1	3
445.066	1	-3
445.237	1	-1
445.407	1	-7
445.578	1	7
445.748	1	-3
445.919	1	-3
446.089	1	2
446.260	1	0
446.430	1	-2
446.601	1	10
446.771	1	-6
446.942	1	0
447.112	1	7
447.283	1	-2
447.453	1	0
447.624	1	-6
447.794	1	2
447.965	1	14
448.135	1	0
448.306	1	-5
448.477	1	-1
448.647	1	10
448.818	1	11
448.988	1	1
449.159	1	-3
449.329	1	-5
449.500	1	5
449.670	1	5
449.841	1	7
450.011	1	10
450.182	1	-5
450.352	1	3
450.523	1	9
450.693	1	0
450.864	1	7
451.034	1	13
451.205	1	1
451.375	1	6
451.546	1	-5
451.716	1	11
451.887	1	0
452.057	1	14
452.228	1	14
452.398	1	14
452.569	1	-5
452.739	1	7
452.910	1	-7
453.080	1	6
453.251	1	-4
453.421	1	-3
453.592	1	-3
453.762	1	5
453.933	1	-8
454.103	1	6
454.274	1	3
454.444	1	6
454.615	1	10
454.785	1	-8
454.956	1	-6
455.126	1	4
455.297	1	0
455.467	1	-14
455.638	1	4
455.808	1	-4
455.979	1	1
456.149	1	17
456.320	1	14
456.490	1	-4
456.661	1	-12
456.831	1	-1
457.001	1	-1
457.172	1	4
457.342	1	7
457.513	1	10
457.683	1	9
457.854	1	13
458.024	1	-11
458.195	1	1
458.365	1	13
458.536	1	-10
458.706	1	-1
458.877	1	4
459.047	1	7
459.218	1	0
459.388	1	6
459.559	1	-3
459.729	1	-1
459.899	1	1
460.070	1	10
460.240	1	6
460.411	1	2
460.581	1	3
460.752	1	4
460.922	1	7
461.093	1	5
461.263	1	1
461.434	1	8
461.604	1	12
461.775	1	0
461.945	1	-2
462.115	1	9
462.286	1	-3
462.456	1	7
462.627	1	8
462.797	1	-12
462.968	1	-6
463.138	1	4
463.309	1	5
463.479	1	-6
463.649	1	-8
463.820	1	9
463.990	1	6
464.161	1	4
464.331	1	16
464.502	1	7
464.672	1	-13
464.843	1	-9
465.013	1	-7
465.183	1	3
465.354	1	12
465.524	1	-8
465.695	1	2
465.865	1	3
466.036	1	4
466.206	1	3
466.376	1	-5
466.547	1	-7
466.717	1	2
466.888	1	-6
467.058	1	3
467.229	1	2
467.399	1	1
467.569	1	10
467.740	1	4
467.910	1	1
468.081	1	3
468.251	1	7
468.422	1	4
468.592	1	-2
468.762	1	-8
468.933	1	2
469.103	1	2
469.274	1	9
469.444	1	7
469.614	1	4
469.785	1	15
469.955	1	-7
470.126	1	-3
470.296	1	5
470.467	1	1
470.637	1	-3
470.807	1	11
470.978	1	7
471.148	1	-3
471.319	1	4
471.489	1	-11
471.659	1	9
471.830	1	2
472.000	1	6
472.171	1	5
472.341	1	0
472.511	1	12
472.682	1	-9
472.852	1	3
473.023	1	-5
473.193	1	5
473.363	1	-1
473.534	1	1
473.704	1	-3
473.875	1	-3
474.045	1	3
474.215	1	7
474.386	1	1
474.556	1	6
474.727	1	-11
474.897	1	7
475.067	1	-5
475.238	1	-6
475.408	1	-7
475.578	1	6
475.749	1	9
475.919	1	2
476.090	1	13
476.260	1	-5
476.430	1	11
476.601	1	6
476.771	1	-12
476.942	1	2
477.112	1	-2
477.282	1	12
477.453	1	1
477.623	1	8
477.793	1	9
477.964	1	2
478.134	1	-6
478.305	1	14
478.475	1	0
478.645	1	2
478.816	1	3
478.986	1	-6
479.156	1	4
479.327	1	2
479.497	1	7
479.667	1	13
479.838	1	-8
480.008	1	-7
480.179	1	-5
480.349	1	3
480.519	1	-4
480.690	1	1
480.860	1	11
481.030	1	-3
481.201	1	-4
481.371	1	6
481.541	1	7
481.712	1	-1
481.882	1	-5
482.053	1	4
482.223	1	-8
482.393	1	-1
482.564	1	0
482.734	1	5
482.904	1	9
483.075	1	-4
483.245	1	-5
483.415	1	4
483.586	1	8
483.756	1	6
483.926	1	-8
484.097	1	1
484.267	1	-2
484.437	1	5
484.608	1	-4
484.778	1	-3
484.948	1	2
485.119	1	-1
485.289	1	6
485.459	1	3
485.630	1	6
485.800	1	6
485.970	1	3
486.141	1	-2
486.311	1	1
486.481	1	0
486.652	1	3
486.822	1	-3
486.992	1	3
487.163	1	3
487.333	1	-5
487.503	1	5
487.674	1	-1
487.844	1	-5
488.014	1	1
488.185	1	-2
488.355	1	3
488.525	1	9
488.696	1	-1
488.866	1	-3
489.036	1	7
489.207	1	0
489.377	1	-5
489.547	1	-7
489.718	1	8
489.888	1	-2
490.058	1	9
490.228	1	-1
490.399	1	2
490.569	1	0
490.739	1	2
490.910	1	-6
491.080	1	-5
491.250	1	1
491.421	1	2
491.591	1	2
491.761	1	4
491.932	1	3
492.102	1	-4
492.272	1	5
492.442	1	-8
492.613	1	5
492.783	1	2
492.953	1	1
493.124	1	-1
493.294	1	5
493.464	1	6
493.635	1	1
493.805	1	5
493.975	1	-2
494.145	1	8
494.316	1	2
494.486	1	3
494.656	1	-4
494.827	1	7
494.997	1	-7
495.167	1	2
495.337	1	0
495.508	1	3
495.678	1	2
495.848	1	6
496.019	1	6
496.189	1	5
496.359	1	-1
496.529	1	-6
496.700	1	5
496.870	1	5
497.040	1	5
497.211	1	2
497.381	1	-1
497.551	1	1
497.721	1	-1
497.892	1	9
498.062	1	-4
498.232	1	1
498.403	1	-2
498.573	1	8
498.743	1	12
498.913	1	12
499.084	1	-7
499.254	1	-2
499.424	1	4
499.594	1	-6
499.765	1	6
499.935	1	-4
500.105	1	6
500.275	1	-4
500.446	1	7
500.616	1	-7
500.786	1	9
500.956	1	3
501.127	1	3
501.297	1	11
501.467	1	7
501.638	1	4
501.808	1	4
501.978	1	-2
502.148	1	-2
502.319	1	5
502.489	1	1
502.659	1	12
502.829	1	-1
503.000	1	7
503.170	1	1
503.340	1	5
503.510	1	-6
503.681	1	-10
503.851	1	2
504.021	1	9
504.191	1	-2
504.362	1	5
504.532	1	3
504.702	1	6
504.872	1	-13
505.042	1	-7
505.213	1	8
505.383	1	-4
505.553	1	9
505.723	1	5
505.894	1	-2
506.064	1	5
506.234	1	0
506.404	1	-3
506.575	1	-4
506.745	1	3
506.915	1	5
507.085	1	-6
507.256	1	2
507.426	1	-7
507.596	1	-1
507.766	1	0
507.936	1	8
508.107	1	8
508.277	1	-4
508.447	1	3
508.617	1	-2
508.788	1	8
508.958	1	4
509.128	1	-1
509.298	1	-12
509.468	1	6
509.639	1	-7
509.809	1	9
509.979	1	-1
510.149	1	9
510.319	1	-2
510.490	1	-2
510.660	1	11
510.830	1	6
511.000	1	3
511.171	1	5
511.341	1	5
511.511	1	-1
511.681	1	16
511.851	1	-4
512.022	1	-9
512.192	1	0
512.362	1	1
512.532	1	0
512.702	1	6
512.873	1	13
513.043	1	0
513.213	1	12
513.383	1	-6
513.553	1	10
513.724	1	-3
513.894	1	9
514.064	1	1
514.234	1	0
514.404	1	4
514.575	1	-8
514.745	1	-3
514.915	1	-9
515.085	1	-4
515.255	1	3
515.425	1	7
515.596	1	11
515.766	1	6
515.936	1	-7
516.106	1	-3
516.276	1	4
516.447	1	9
516.617	1	-1
516.787	1	6
516.957	1	5
517.127	1	6
517.297	1	1
517.468	1	-4
517.638	1	-10
517.808	1	-1
517.978	1	8
518.148	1	4
518.319	1	-2
518.489	1	-7
518.659	1	-4
518.829	1	-12
518.999	1	-5
519.169	1	-7
519.340	1	11
519.510	1	0
519.680	1	-1
519.850	1	2
520.020	1	-1
520.190	1	-8
520.361	1	1
520.531	1	9
520.701	1	4
520.871	1	3
521.041	1	13
521.211	1	9
521.382	1	5
521.552	1	-5
521.722	1	7
521.892	1	9
522.062	1	0
522.232	1	11
522.402	1	14
522.573	1	-4
522.743	1	3
522.913	1	4
523.083	1	-1
523.253	1	7
523.423	1	1
523.593	1	1
523.764	1	5
523.934	1	1
524.104	1	0
524.274	1	4
524.444	1	2
524.614	1	14
524.784	1	-2
524.955	1	8
525.125	1	3
525.295	1	-3
525.465	1	2
525.635	1	-1
525.805	1	10
525.975	1	-8
526.146	1	-4
526.316	1	5
526.486	1	4
526.656	1	5
526.826	1	1
526.996	1	6
527.166	1	-6
527.337	1	0
527.507	1	-2
527.677	1	13
527.847	1	-3
528.017	1	-6
528.187	1	6
528.357	1	8
528.527	1	5
528.698	1	-15
528.868	1	1
529.038	1	-3
529.208	1	-7
529.378	1	7
529.548	1	4
529.718	1	8
529.888	1	6
530.058	1	6
530.229	1	-2
530.399	1	-6
530.569	1	-7
530.739	1	-1
530.909	1	-3
531.079	1	-5
531.249	1	-3
531.419	1	9
531.589	1	-4
531.760	1	-1
531.930	1	-5
532.100	1	-6
532.270	1	6
532.440	1	-2
532.610	1	7
532.780	1	10
532.950	1	6
533.120	1	13
533.290	1	0
533.461	1	-1
533.631	1	9
533.801	1	3
533.971	1	-6
534.141	1	2
534.311	1	-4
534.481	1	7
534.651	1	-8
534.821	1	2
534.991	1	0
535.162	1	-2
535.332	1	2
535.502	1	-5
535.672	1	-1
535.842	1	8
536.012	1	-4
536.182	1	3
536.352	1	2
536.522	1	0
536.692	1	5
536.862	1	-4
537.032	1	-11
537.203	1	9
537.373	1	15
537.543	1	-3
537.713	1	2
537.883	1	-2
538.053	1	-1
538.223	1	12
538.393	1	4
538.563	1	-7
538.733	1	6
538.903	1	4
539.073	1	0
539.243	1	5
539.413	1	-3
539.584	1	4
539.754	1	6
539.924	1	0
540.094	1	3
540.264	1	-12
540.434	1	3
540.604	1	4
540.774	1	4
540.944	1	7
541.114	1	-4
541.284	1	5
541.454	1	5
541.624	1	-2
541.794	1	2
541.964	1	-7
542.134	1	9
542.305	1	10
542.475	1	1
542.645	1	-1
542.815	1	-5
542.985	1	4
543.155	1	-13
543.325	1	6
543.495	1	5
543.665	1	1
543.835	1	-4
544.005	1	4
544.175	1	-6
544.345	1	-3
544.515	1	6
544.685	1	17
544.855	1	4
545.025	1	5
545.195	1	7
545.365	1	-9
545.535	1	-5
545.705	1	16
545.875	1	-2
546.045	1	12
546.216	1	-8
546.386	1	1
546.556	1	3
546.726	1	2
546.896	1	-1
547.066	1	-1
547.236	1	-1
547.406	1	-5
547.576	1	2
547.746	1	13
547.916	1	10
548.086	1	6
548.256	1	0
548.426	1	1
548.596	1	4
548.766	1	9
548.936	1	12
549.106	1	9
549.276	1	15
549.446	1	2
549.616	1	2
549.786	1	-15
549.956	1	-5
550.126	1	1
550.296	1	2
550.466	1	11
550.636	1	8
550.806	1	11
550.976	1	-2
551.146	1	-7
551.316	1	1
551.486	1	3
551.656	1	7
551.826	1	16
551.996	1	-4
552.166	1	-3
552.336	1	-2
552.506	1	6
552.676	1	2
552.846	1	-2
553.016	1	16
553.186	1	5
553.356	1	-6
553.526	1	-2
553.696	1	7
553.866	1	4
554.036	1	2
554.206	1	5
554.376	1	-4
554.546	1	4
554.716	1	-3
554.886	1	8
555.056	1	3
555.226	1	8
555.396	1	-5
555.566	1	4
555.736	1	0
555.906	1	2
556.076	1	8
556.246	1	0
556.416	1	-10
556.586	1	-11
556.756	1	-10
556.926	1	3
557.096	1	9
557.266	1	-3
557.436	1	3
557.606	1	-4
557.776	1	13
557.946	1	-4
558.116	1	3
558.286	1	9
558.456	1	-9
558.626	1	-12
558.796	1	2
558.966	1	-4
559.136	1	-1
559.306	1	1
559.476	1	3
559.646	1	-4
559.816	1	8
559.986	1	-6
560.155	1	11
560.325	1	-1
560.495	1	1
560.665	1	-2
560.835	1	3
561.005	1	11
561.175	1	-1
561.345	1	3
561.515	1	4
561.685	1	-6
561.855	1	2
562.025	1	13
562.195	1	1
562.365	1	2
562.535	1	4
562.705	1	3
562.875	1	1
563.045	1	-5
563.215	1	-1
563.385	1	-12
563.555	1	-1
563.725	1	0
563.895	1	1
564.064	1	-10
564.234	1	1
564.404	1	1
564.574	1	18
564.744	1	-2
564.914	1	-4
565.084	1	0
565.254	1	1
565.424	1	6
565.594	1	-2
565.764	1	-1
565.934	1	7
566.104	1	6
566.274	1	12
566.444	1	-7
566.614	1	-1
566.783	1	4
566.953	1	7
567.123	1	12
567.293	1	0
567.463	1	-4
567.633	1	1
567.803	1	16
567.973	1	11
568.143	1	3
568.313	1	11
568.483	1	5
568.653	1	-6
568.823	1	-6
568.993	1	5
569.162	1	-6
569.332	1	7
569.502	1	6
569.672	1	2
569.842	1	-3
570.012	1	4
570.182	1	4
570.352	1	-9
570.522	1	0
570.692	1	7
570.862	1	4
571.031	1	1
571.201	1	13
571.371	1	5
571.541	1	3
571.711	1	-9
571.881	1	14
572.051	1	-7
572.221	1	0
572.391	1	2
572.561	1	8
572.731	1	1
572.900	1	-11
573.070	1	1
573.240	1	-7
573.410	1	6
573.580	1	-3
573.750	1	9
573.920	1	-2
574.090	1	2
574.260	1	-4
574.430	1	5
574.599	1	1
574.769	1	4
574.939	1	-11
575.109	1	0
575.279	1	1
575.449	1	12
575.619	1	13
575.789	1	6
575.959	1	4
576.128	1	-10
576.298	1	-3
576.468	1	6
576.638	1	-5
576.808	1	5
576.978	1	-4
577.148	1	2
577.318	1	10
577.487	1	7
577.657	1	7
577.827	1	-4
577.997	1	8
578.167	1	-3
578.337	1	5
578.507	1	-1
578.677	1	1
578.846	1	2
579.016	1	2
579.186	1	9
579.356	1	7
579.526	1	-8
579.696	1	7
579.866	1	3
580.036	1	3
580.205	1	-4
580.375	1	9
580.545	1	-6
580.715	1	1
580.885	1	12
581.055	1	-3
581.225	1	5
581.394	1	-2
581.564	1	4
581.734	1	-7
581.904	1	-3
582.074	1	-1
582.244	1	2
582.414	1	7
582.583	1	1
582.753	1	8
582.923	1	10
583.093	1	-2
583.263	1	11
583.433	1	1
583.603	1	-10
583.772	1	-21
583.942	1	3
584.112	1	-3
584.282	1	7
584.452	1	-1
584.622	1	4
584.791	1	2
584.961	1	-11
585.131	1	-3
585.301	1	2
585.471	1	-8
585.641	1	3
585.811	1	2
585.980	1	7
586.150	1	2
586.320	1	-5
586.490	1	6
586.660	1	5
586.830	1	0
586.999	1	-6
587.169	1	6
587.339	1	2
587.509	1	2
587.679	1	4
587.849	1	7
588.018	1	-6
588.188	1	5
588.358	1	-2
588.528	1	-2
588.698	1	-3
588.867	1	2
589.037	1	0
589.207	1	-5
589.377	1	-8
589.547	1	10
589.717	1	-4
589.886	1	8
590.056	1	2
590.226	1	0
590.396	1	-5
590.566	1	-9
590.735	1	6
590.905	1	13
591.075	1	-1
591.245	1	3
591.415	1	3
591.585	1	2
591.754	1	7
591.924	1	11
592.094	1	4
592.264	1	-4
592.434	1	-5
592.603	1	-10
592.773	1	1
592.943	1	-1
593.113	1	8
593.283	1	-2
593.452	1	-2
593.622	1	3
593.792	1	4
593.962	1	1
594.132	1	7
594.301	1	9
594.471	1	4
594.641	1	3
594.811	1	2
594.981	1	-6
595.150	1	-5
595.320	1	3
595.490	1	4
595.660	1	4
595.829	1	-4
595.999	1	-3
596.169	1	16
596.339	1	7
596.509	1	3
596.678	1	8
596.848	1	9
597.018	1	-3
597.188	1	-4
597.358	1	7
597.527	1	2
597.697	1	-3
597.867	1	8
598.037	1	5
598.206	1	11
598.376	1	-8
598.546	1	7
598.716	1	-5
598.885	1	2
599.055	1	5
599.225	1	1
599.395	1	1
599.565	1	-5
599.734	1	6
599.904	1	1
600.074	1	1
600.244	1	5
600.413	1	-5
600.583	1	-2
600.753	1	5
600.923	1	3
601.092	1	11
601.262	1	1
601.432	1	7
601.602	1	7
601.771	1	2
601.941	1	10
602.111	1	1
602.281	1	3
602.451	1	1
602.620	1	11
602.790	1	-10
602.960	1	-10
603.130	1	0
603.299	1	2
603.469	1	-2
603.639	1	-7
603.809	1	11
603.978	1	-4
604.148	1	3
604.318	1	0
604.487	1	7
604.657	1	-8
604.827	1	5
604.997	1	7
605.166	1	0
605.336	1	1
605.506	1	-4
605.676	1	4
605.845	1	-6
606.015	1	-14
606.185	1	-7
606.355	1	-9
606.524	1	6
606.694	1	3
606.864	1	5
607.034	1	3
607.203	1	13
607.373	1	1
607.543	1	10
607.712	1	-2
607.882	1	1
608.052	1	-1
608.222	1	4
608.391	1	7
608.561	1	3
608.731	1	-9
608.901	1	1
609.070	1	-9
609.240	1	2
609.410	1	0
609.579	1	7
609.749	1	2
609.919	1	-8
610.089	1	-1
610.258	1	2
610.428	1	4
610.598	1	-2
610.767	1	14
610.937	1	2
611.107	1	-1
611.277	1	-4
611.446	1	7
611.616	1	-6
611.786	1	2
611.955	1	5
612.125	1	5
612.295	1	2
612.465	1	-4
612.634	1	7
612.804	1	7
612.974	1	-10
613.143	1	-3
613.313	1	9
613.483	1	10
613.652	1	5
613.822	1	11
613.992	1	-5
614.162	1	12
614.331	1	4
614.501	1	5
614.671	1	-1
614.840	1	3
615.010	1	2
615.180	1	12
615.349	1	8
615.519	1	-1
615.689	1	-6
615.858	1	13
616.028	1	7
616.198	1	-2
616.368	1	1
616.537	1	4
616.707	1	7
616.877	1	7
617.046	1	17
617.216	1	7
617.386	1	9
617.555	1	-11
617.725	1	4
617.895	1	4
618.064	1	-1
618.234	1	-5
618.404	1	-8
618.573	1	4
618.743	1	5
618.913	1	12
619.082	1	3
619.252	1	-1
619.422	1	-7
619.591	1	-2
619.761	1	-5
619.931	1	3
620.100	1	16
620.270	1	6
620.440	1	7
620.609	1	10
620.779	1	2
620.949	1	0
621.118	1	4
621.288	1	5
621.458	1	3
621.627	1	3
621.797	1	2
621.967	1	9
622.136	1	3
622.306	1	1
622.476	1	-9
622.645	1	3
622.815	1	1
622.985	1	-3
623.154	1	3
623.324	1	10
623.494	1	-1
623.663	1	-5
623.833	1	7
624.002	1	4
624.172	1	0
624.342	1	7
624.511	1	1
624.681	1	-2
624.851	1	-1
625.020	1	-1
625.190	1	0
625.360	1	-9
625.529	1	0
625.699	1	5
625.869	1	8
626.038	1	-1
626.208	1	10
626.377	1	-3
626.547	1	-8
626.717	1	-8
626.886	1	-4
627.056	1	10
627.226	1	1
627.395	1	2
627.565	1	12
627.735	1	8
627.904	1	7
628.074	1	4
628.243	1	-7
628.413	1	-5
628.583	1	4
628.752	1	-15
628.922	1	1
629.091	1	6
629.261	1	9
629.431	1	7
629.600	1	-4
629.770	1	5
629.940	1	-7
630.109	1	2
630.279	1	8
630.448	1	6
630.618	1	5
630.788	1	-1
630.957	1	1
631.127	1	-2
631.297	1	0
631.466	1	0
631.636	1	8
631.805	1	-1
631.975	1	-8
632.145	1	1
632.314	1	6
632.484	1	9
632.653	1	-7
632.823	1	-10
632.993	1	11
633.162	1	3
633.332	1	-1
633.501	1	-3
633.671	1	-1
633.841	1	8
634.010	1	11
634.180	1	9
634.349	1	1
634.519	1	8
634.689	1	-5
634.858	1	-9
635.028	1	-1
635.197	1	2
635.367	1	4
635.537	1	-4
635.706	1	13
635.876	1	3
636.045	1	-1
636.215	1	11
636.384	1	-2
636.554	1	-3
636.724	1	1
636.893	1	0
637.063	1	-3
637.232	1	-1
637.402	1	-2
637.572	1	1
637.741	1	-5
637.911	1	-9
638.080	1	5
638.250	1	6
638.419	1	2
638.589	1	4
638.759	1	-4
638.928	1	1
639.098	1	-5
639.267	1	7
639.437	1	5
639.606	1	4
639.776	1	6
639.946	1	11
640.115	1	2
640.285	1	7
640.454	1	8
640.624	1	13
640.793	1	0
640.963	1	-2
641.132	1	4
641.302	1	-4
641.472	1	11
641.641	1	4
641.811	1	4
641.980	1	9
642.150	1	3
642.319	1	0
642.489	1	2
642.659	1	7
642.828	1	-7
642.998	1	5
643.167	1	-10
643.337	1	-3
643.506	1	7
643.676	1	-2
643.845	1	19
644.015	1	12
644.184	1	-12
644.354	1	7
644.524	1	4
644.693	1	10
644.863	1	4
645.032	1	5
645.202	1	-4
645.371	1	1
645.541	1	6
645.710	1	-2
645.880	1	-2
646.049	1	1
646.219	1	-2
646.388	1	-3
646.558	1	8
646.728	1	0
646.897	1	2
647.067	1	2
647.236	1	13
647.406	1	1
647.575	1	12
647.745	1	-3
647.914	1	0
648.084	1	-4
648.253	1	-1
648.423	1	-8
648.592	1	-6
648.762	1	15
648.931	1	6
649.101	1	0
649.270	1	4
649.440	1	2
649.610	1	4
649.779	1	-3
649.949	1	-3
650.118	1	-1
650.288	1	2
650.457	1	9
650.627	1	7
650.796	1	2
650.966	1	-16
651.135	1	1
651.305	1	1
651.474	1	13
651.644	1	16
651.813	1	5
651.983	1	6
652.152	1	0
652.322	1	-4
652.491	1	0
652.661	1	5
652.830	1	1
653.000	1	4
653.169	1	4
653.339	1	7
653.508	1	2
653.678	1	6
653.847	1	-6
654.017	1	4
654.186	1	-10
654.356	1	-1
654.525	1	-13
654.695	1	-3
654.864	1	-2
655.034	1	9
655.203	1	6
655.373	1	1
655.542	1	-1
655.712	1	4
655.881	1	13
656.051	1	3
656.220	1	-2
656.390	1	0
656.559	1	-7
656.729	1	-2
656.898	1	2
657.068	1	4
657.237	1	3
657.406	1	2
657.576	1	6
657.745	1	7
657.915	1	-2
658.084	1	5
658.254	1	5
658.423	1	-2
658.593	1	8
658.762	1	5
658.932	1	-2
659.101	1	-8
659.271	1	1
659.440	1	7
659.610	1	0
659.779	1	6
659.949	1	4
660.118	1	6
660.288	1	-2
660.457	1	-4
660.626	1	3
660.796	1	2
660.965	1	-4
661.135	1	-5
661.304	1	-4
661.474	1	1
661.643	1	3
661.813	1	-2
661.982	1	-3
662.152	1	4
662.321	1	-2
662.491	1	-2
662.660	1	-1
662.829	1	6
662.999	1	-3
663.168	1	1
663.338	1	12
663.507	1	-6
663.677	1	4
663.846	1	-3
664.016	1	4
664.185	1	-6
664.354	1	4
664.524	1	6
664.693	1	-5
664.863	1	1
665.032	1	-4
665.202	1	3
665.371	1	-2
665.541	1	12
665.710	1	-10
665.879	1	4
666.049	1	-3
666.218	1	-4
666.388	1	1
666.557	1	10
666.727	1	10
666.896	1	9
667.065	1	-1
667.235	1	21
667.404	1	-1
667.574	1	3
667.743	1	-3
667.913	1	4
668.082	1	3
668.251	1	0
668.421	1	4
668.590	1	-2
668.760	1	-1
668.929	1	7
669.099	1	3
669.268	1	-4
669.437	1	0
669.607	1	10
669.776	1	8
669.946	1	1
670.115	1	-16
670.285	1	3
670.454	1	2
670.623	1	-3
670.793	1	11
670.962	1	0
671.132	1	-3
671.301	1	11
671.470	1	-5
671.640	1	2
671.809	1	-1
671.979	1	10
672.148	1	12
672.317	1	4
672.487	1	4
672.656	1	-7
672.826	1	9
672.995	1	1
673.164	1	-8
673.334	1	-1
673.503	1	-6
673.673	1	1
673.842	1	2
674.011	1	22
674.181	1	8
674.350	1	-1
674.520	1	-3
674.689	1	-2
674.858	1	-3
675.028	1	14
675.197	1	2
675.367	1	-6
675.536	1	10
675.705	1	-1
675.875	1	-2
676.044	1	-6
676.214	1	0
676.383	1	10
676.552	1	2
676.722	1	-3
676.891	1	10
677.060	1	-2
677.230	1	13
677.399	1	-7
677.569	1	9
677.738	1	10
677.907	1	-3
678.077	1	9
678.246	1	1
678.416	1	8
678.585	1	-3
678.754	1	7
678.924	1	5
679.093	1	0
679.262	1	4
679.432	1	-1
679.601	1	0
679.771	1	1
679.940	1	9
680.109	1	-6
680.279	1	3
680.448	1	5
680.617	1	-8
680.787	1	-2
680.956	1	14
681.125	1	5
681.295	1	-2
681.464	1	-5
681.634	1	11
681.803	1	0
681.972	1	10
682.142	1	5
682.311	1	6
682.480	1	8
682.650	1	11
682.819	1	-1
682.988	1	-2
683.158	1	-9
683.327	1	9
683.496	1	4
683.666	1	15
683.835	1	-6
684.004	1	-2
684.174	1	1
684.343	1	1
684.512	1	0
684.682	1	3
684.851	1	13
685.021	1	-4
685.190	1	-1
685.359	1	-4
685.529	1	13
685.698	1	8
685.867	1	-3
686.037	1	4
686.206	1	-3
686.375	1	-3
686.545	1	5
686.714	1	-3
686.883	1	7
687.053	1	-5
687.222	1	-3
687.391	1	10
687.561	1	8
687.730	1	3
687.899	1	3
688.069	1	10
688.238	1	-2
688.407	1	10
688.577	1	1
688.746	1	6
