340.368	1	8
340.539	1	-6
340.710	1	-3
340.881	1	6
341.052	1	-6
341.223	1	5
341.394	1	4
341.565	1	0
341.737	1	8
341.908	1	-13
342.079	1	-5
342.250	1	-2
342.421	1	1
342.592	1	6
342.763	1	11
342.934	1	-10
343.105	1	-1
343.276	1	4
343.447	1	-9
343.618	1	-12
343.789	1	-6
343.960	1	-5
344.131	1	5
344.302	1	-8
344.473	1	9
344.644	1	4
344.815	1	2
344.986	1	3
345.157	1	8
345.328	1	-7
345.499	1	-3
345.670	1	-6
345.841	1	-9
346.012	1	10
346.183	1	13
346.354	1	4
346.526	1	-6
346.697	1	7
346.868	1	-6
347.039	1	3
347.210	1	3
347.381	1	0
347.552	1	4
347.723	1	-8
347.894	1	-1
348.065	1	4
348.236	1	1
348.407	1	-6
348.578	1	5
348.749	1	7
348.920	1	-14
349.091	1	5
349.262	1	-2
349.433	1	1
349.604	1	3
349.775	1	5
349.946	1	-4
350.117	1	0
350.288	1	-2
350.459	1	-1
350.630	1	13
350.801	1	5
350.972	1	4
351.143	1	9
351.314	1	-7
351.485	1	5
351.656	1	3
351.827	1	5
351.998	1	10
352.169	1	3
352.340	1	-5
352.511	1	4
352.682	1	2
352.853	1	-3
353.024	1	-6
353.195	1	9
353.366	1	2
353.537	1	-4
353.708	1	4
353.879	1	-5
354.050	1	5
354.221	1	-2
354.392	1	7
354.563	1	1
354.734	1	4
354.905	1	12
355.076	1	20
355.247	1	0
355.418	1	-5
355.589	1	-6
355.760	1	13
355.931	1	10
356.102	1	-3
356.273	1	4
356.444	1	7
356.615	1	-2
356.785	1	9
356.956	1	-3
357.127	1	6
357.298	1	10
357.469	1	12
357.640	1	6
357.811	1	5
357.982	1	8
358.153	1	5
358.324	1	7
358.495	1	-9
358.666	1	2
358.837	1	14
359.008	1	16
359.179	1	6
359.350	1	8
359.521	1	8
359.692	1	-1
359.863	1	8
360.034	1	13
360.205	1	5
360.376	1	-5
360.547	1	0
360.718	1	13
360.889	1	3
361.060	1	6
361.231	1	6
361.401	1	6
361.572	1	7
361.743	1	12
361.914	1	13
362.085	1	16
362.256	1	19
362.427	1	-1
362.598	1	8
362.769	1	10
362.940	1	18
363.111	1	21
363.282	1	10
363.453	1	9
363.624	1	6
363.795	1	17
363.966	1	13
364.137	1	22
364.308	1	24
364.478	1	19
364.649	1	12
364.820	1	21
364.991	1	17
365.162	1	13
365.333	1	10
365.504	1	14
365.675	1	16
365.846	1	25
366.017	1	13
366.188	1	16
366.359	1	30
366.530	1	23
366.701	1	26
366.871	1	18
367.042	1	27
367.213	1	19
367.384	1	15
367.555	1	30
367.726	1	22
367.897	1	30
368.068	1	25
368.239	1	20
368.410	1	27
368.581	1	17
368.752	1	37
368.923	1	30
369.093	1	19
369.264	1	19
369.435	1	23
369.606	1	23
369.777	1	25
369.948	1	26
370.119	1	23
370.290	1	16
370.461	1	19
370.632	1	24
370.803	1	30
370.973	1	5
371.144	1	19
371.315	1	16
371.486	1	10
371.657	1	8
371.828	1	15
371.999	1	12
372.170	1	19
372.341	1	12
372.512	1	8
372.682	1	12
372.853	1	7
373.024	1	13
373.195	1	13
373.366	1	3
373.537	1	17
373.708	1	5
373.879	1	19
374.050	1	10
374.220	1	14
374.391	1	8
374.562	1	11
374.733	1	11
374.904	1	13
375.075	1	11
375.246	1	1
375.417	1	10
375.588	1	12
375.758	1	-3
375.929	1	12
376.100	1	3
376.271	1	13
376.442	1	-3
376.613	1	9
376.784	1	14
376.955	1	-10
377.125	1	15
377.296	1	4
377.467	1	-3
377.638	1	7
377.809	1	23
377.980	1	9
378.151	1	9
378.321	1	5
378.492	1	4
378.663	1	10
378.834	1	20
379.005	1	15
379.176	1	-5
379.347	1	10
379.518	1	7
379.688	1	3
379.859	1	5
380.030	1	22
380.201	1	15
380.372	1	7
380.543	1	21
380.714	1	4
380.884	1	12
381.055	1	1
381.226	1	2
381.397	1	10
381.568	1	12
381.739	1	7
381.910	1	4
382.080	1	15
382.251	1	8
382.422	1	10
382.593	1	4
382.764	1	6
382.935	1	6
383.105	1	5
383.276	1	15
383.447	1	15
383.618	1	13
383.789	1	5
383.960	1	-3
384.130	1	9
384.301	1	9
384.472	1	16
384.643	1	5
384.814	1	11
384.985	1	3
385.156	1	11
385.326	1	13
385.497	1	12
385.668	1	14
385.839	1	18
386.010	1	17
386.180	1	12
386.351	1	4
386.522	1	13
386.693	1	8
386.864	1	20
387.035	1	15
387.205	1	20
387.376	1	10
387.547	1	15
387.718	1	18
387.889	1	-3
388.060	1	17
388.230	1	23
388.401	1	12
388.572	1	19
388.743	1	12
388.914	1	11
389.084	1	7
389.255	1	14
389.426	1	6
389.597	1	19
389.768	1	15
389.939	1	16
390.109	1	9
390.280	1	12
390.451	1	7
390.622	1	20
390.793	1	6
390.963	1	17
391.134	1	1
391.305	1	4
391.476	1	10
391.647	1	16
391.817	1	4
391.988	1	0
392.159	1	14
392.330	1	2
392.501	1	8
392.671	1	7
392.842	1	12
393.013	1	13
393.184	1	10
393.355	1	10
393.525	1	17
393.696	1	1
393.867	1	25
394.038	1	11
394.208	1	14
394.379	1	10
394.550	1	12
394.721	1	12
394.892	1	4
395.062	1	5
395.233	1	-2
395.404	1	14
395.575	1	9
395.746	1	18
395.916	1	14
396.087	1	9
396.258	1	12
396.429	1	14
396.599	1	10
396.770	1	10
396.941	1	7
397.112	1	12
397.283	1	2
397.453	1	16
397.624	1	12
397.795	1	12
397.966	1	18
398.136	1	8
398.307	1	9
398.478	1	7
398.649	1	1
398.819	1	14
398.990	1	6
399.161	1	7
399.332	1	10
399.503	1	7
399.673	1	-1
399.844	1	0
400.015	1	9
400.186	1	12
400.356	1	20
400.527	1	25
400.698	1	5
400.869	1	0
401.039	1	2
401.210	1	8
401.381	1	2
401.552	1	6
401.722	1	4
401.893	1	12
402.064	1	3
402.235	1	-9
402.405	1	6
402.576	1	2
402.747	1	7
402.918	1	17
403.088	1	5
403.259	1	0
403.430	1	10
403.601	1	12
403.771	1	26
403.942	1	10
404.113	1	19
404.284	1	5
404.454	1	17
404.625	1	5
404.796	1	2
404.967	1	6
405.137	1	10
405.308	1	9
405.479	1	17
405.649	1	16
405.820	1	3
405.991	1	-4
406.162	1	13
406.332	1	-3
406.503	1	0
406.674	1	14
406.845	1	7
407.015	1	11
407.186	1	8
407.357	1	7
407.527	1	6
407.698	1	13
407.869	1	5
408.040	1	2
408.210	1	10
408.381	1	-6
408.552	1	-5
408.722	1	-3
408.893	1	8
409.064	1	3
409.235	1	11
409.405	1	2
409.576	1	0
409.747	1	10
409.917	1	14
410.088	1	8
410.259	1	4
410.430	1	2
410.600	1	-2
410.771	1	9
410.942	1	3
411.112	1	5
411.283	1	7
411.454	1	-4
411.625	1	4
411.795	1	17
411.966	1	13
412.137	1	8
412.307	1	9
412.478	1	12
412.649	1	-5
412.819	1	9
412.990	1	-3
413.161	1	-3
413.332	1	-2
413.502	1	-6
413.673	1	19
413.844	1	16
414.014	1	-4
414.185	1	7
414.356	1	7
414.526	1	4
414.697	1	15
414.868	1	7
415.038	1	9
415.209	1	-7
415.380	1	10
415.550	1	12
415.721	1	4
415.892	1	4
416.063	1	10
416.233	1	9
416.404	1	4
416.575	1	-3
416.745	1	-3
416.916	1	2
417.087	1	8
417.257	1	8
417.428	1	-7
417.599	1	9
417.769	1	2
417.940	1	8
418.111	1	2
418.281	1	7
418.452	1	1
418.623	1	3
418.793	1	5
418.964	1	3
419.135	1	11
419.305	1	-5
419.476	1	1
419.647	1	7
419.817	1	7
419.988	1	-8
420.159	1	1
420.329	1	2
420.500	1	14
420.671	1	-8
420.841	1	4
421.012	1	0
421.183	1	12
421.353	1	6
421.524	1	3
421.695	1	1
421.865	1	-2
422.036	1	5
422.206	1	1
422.377	1	10
422.548	1	9
422.718	1	0
422.889	1	1
423.060	1	0
423.230	1	10
423.401	1	3
423.572	1	7
423.742	1	4
423.913	1	4
424.084	1	-2
424.254	1	-7
424.425	1	2
424.595	1	-11
424.766	1	-2
424.937	1	0
425.107	1	4
425.278	1	-7
425.449	1	-5
425.619	1	3
425.790	1	4
425.961	1	3
426.131	1	4
426.302	1	5
426.472	1	0
426.643	1	11
426.814	1	-3
426.984	1	-3
427.155	1	-3
427.326	1	-6
427.496	1	1
427.667	1	13
427.837	1	5
428.008	1	4
428.179	1	2
428.349	1	-4
428.520	1	3
428.691	1	3
428.861	1	11
429.032	1	3
429.202	1	11
429.373	1	-3
429.544	1	6
429.714	1	4
429.885	1	2
430.055	1	-7
430.226	1	-1
430.397	1	0
430.567	1	2
430.738	1	3
430.909	1	4
431.079	1	3
431.250	1	-1
431.420	1	-11
431.591	1	0
431.762	1	-6
431.932	1	2
432.103	1	-1
432.273	1	0
432.444	1	-5
432.615	1	-12
432.785	1	1
432.956	1	12
433.126	1	5
433.297	1	2
433.468	1	7
433.638	1	5
433.809	1	-6
433.979	1	8
434.150	1	8
434.320	1	6
434.491	1	-3
434.662	1	1
434.832	1	1
435.003	1	13
435.173	1	7
435.344	1	-12
435.515	1	0
435.685	1	-3
435.856	1	2
436.026	1	9
436.197	1	-3
436.368	1	-6
436.538	1	-8
436.709	1	-1
436.879	1	-1
437.050	1	1
437.220	1	-10
437.391	1	4
437.562	1	4
437.732	1	11
437.903	1	4
438.073	1	5
438.244	1	-11
438.414	1	0
438.585	1	-2
438.756	1	12
438.926	1	1
439.097	1	9
439.267	1	-5
439.438	1	4
439.608	1	6
439.779	1	6
439.949	1	0
440.120	1	-5
440.291	1	7
440.461	1	5
440.632	1	4
440.802	1	6
440.973	1	7
441.143	1	1
441.314	1	-10
441.485	1	-1
441.655	1	-1
441.826	1	-5
441.996	1	-1
442.167	1	10
442.337	1	-1
442.508	1	0
442.678	1	-5
442.849	1	-3
443.019	1	9
443.190	1	9
443.361	1	6
443.531	1	-4
443.702	1	-2
443.872	1	-5
444.043	1	6
444.213	1	3
444.384	1	0
444.554	1	0
444.725	1	1
444.895	1	1
445.066	1	3
445.237	1	-8
445.407	1	-2
445.578	1	2
445.748	1	-3
445.919	1	0
446.089	1	3
446.260	1	-5
446.430	1	-2
446.601	1	13
446.771	1	-6
446.942	1	6
447.112	1	9
447.283	1	-8
447.453	1	-6
447.624	1	3
447.794	1	5
447.965	1	11
448.135	1	3
448.306	1	2
448.477	1	8
448.647	1	-2
448.818	1	1
448.988	1	2
449.159	1	8
449.329	1	4
449.500	1	-4
449.670	1	2
449.841	1	2
450.011	1	3
450.182	1	-5
450.352	1	4
450.523	1	-2
450.693	1	0
450.864	1	3
451.034	1	12
451.205	1	1
451.375	1	5
451.546	1	-8
451.716	1	7
451.887	1	4
452.057	1	12
452.228	1	5
452.398	1	8
452.569	1	-8
452.739	1	7
452.910	1	-5
453.080	1	5
453.251	1	8
453.421	1	-6
453.592	1	11
453.762	1	1
453.933	1	-3
454.103	1	5
454.274	1	1
454.444	1	4
454.615	1	9
454.785	1	1
454.956	1	4
455.126	1	2
455.297	1	-5
455.467	1	-10
455.638	1	5
455.808	1	4
455.979	1	-5
456.149	1	2
456.320	1	4
456.490	1	2
456.661	1	-8
456.831	1	6
457.001	1	2
457.172	1	13
457.342	1	-1
457.513	1	8
457.683	1	2
457.854	1	6
458.024	1	-7
458.195	1	-9
458.365	1	7
458.536	1	-3
458.706	1	5
458.877	1	5
459.047	1	10
459.218	1	-5
459.388	1	9
459.559	1	2
459.729	1	-6
459.899	1	6
460.070	1	4
460.240	1	2
460.411	1	-2
460.581	1	-1
460.752	1	-5
460.922	1	9
461.093	1	-3
461.263	1	4
461.434	1	3
461.604	1	12
461.775	1	-2
461.945	1	2
462.115	1	0
462.286	1	3
462.456	1	6
462.627	1	11
462.797	1	-10
462.968	1	-5
463.138	1	-3
463.309	1	9
463.479	1	3
463.649	1	-6
463.820	1	6
463.990	1	10
464.161	1	5
464.331	1	8
464.502	1	3
464.672	1	-10
464.843	1	0
465.013	1	-11
465.183	1	-5
465.354	1	2
465.524	1	-1
465.695	1	-1
465.865	1	4
466.036	1	4
466.206	1	4
466.376	1	-4
466.547	1	-12
466.717	1	-4
466.888	1	-13
467.058	1	3
467.229	1	3
467.399	1	4
467.569	1	10
467.740	1	6
467.910	1	-1
468.081	1	-8
468.251	1	5
468.422	1	-4
468.592	1	0
468.762	1	-7
468.933	1	6
469.103	1	0
469.274	1	0
469.444	1	8
469.614	1	8
469.785	1	1
469.955	1	-4
470.126	1	4
470.296	1	5
470.467	1	-5
470.637	1	0
470.807	1	15
470.978	1	-2
471.148	1	0
471.319	1	13
471.489	1	-5
471.659	1	7
471.830	1	5
472.000	1	-5
472.171	1	7
472.341	1	-3
472.511	1	19
472.682	1	-6
472.852	1	-3
473.023	1	-4
473.193	1	-2
473.363	1	-1
473.534	1	-3
473.704	1	-4
473.875	1	-5
474.045	1	5
474.215	1	10
474.386	1	4
474.556	1	1
474.727	1	3
474.897	1	1
475.067	1	-8
475.238	1	-8
475.408	1	-4
475.578	1	-1
475.749	1	5
475.919	1	0
476.090	1	3
476.260	1	1
476.430	1	1
476.601	1	13
476.771	1	0
476.942	1	10
477.112	1	-1
477.282	1	1
477.453	1	-1
477.623	1	14
477.793	1	2
477.964	1	-6
478.134	1	-5
478.305	1	2
478.475	1	2
478.645	1	-7
478.816	1	-5
478.986	1	-5
479.156	1	-9
479.327	1	-2
479.497	1	0
479.667	1	14
479.838	1	-6
480.008	1	8
480.179	1	-13
480.349	1	0
480.519	1	-5
480.690	1	-1
480.860	1	4
481.030	1	10
481.201	1	-2
481.371	1	11
481.541	1	11
481.712	1	-2
481.882	1	-2
482.053	1	2
482.223	1	4
482.393	1	-1
482.564	1	1
482.734	1	-4
482.904	1	6
483.075	1	5
483.245	1	6
483.415	1	7
483.586	1	6
483.756	1	-1
483.926	1	1
484.097	1	10
484.267	1	-6
484.437	1	0
484.608	1	-2
484.778	1	-4
484.948	1	2
485.119	1	-5
485.289	1	12
485.459	1	9
485.630	1	15
485.800	1	-2
485.970	1	4
486.141	1	3
486.311	1	-2
486.481	1	-12
486.652	1	0
486.822	1	-11
486.992	1	5
487.163	1	12
487.333	1	16
487.503	1	8
487.674	1	-2
487.844	1	-7
488.014	1	-2
488.185	1	9
488.355	1	6
488.525	1	8
488.696	1	-1
488.866	1	-7
489.036	1	14
489.207	1	6
489.377	1	-3
489.547	1	0
489.718	1	3
489.888	1	6
490.058	1	11
490.228	1	1
490.399	1	4
490.569	1	2
490.739	1	4
490.910	1	-3
491.080	1	8
491.250	1	10
491.421	1	1
491.591	1	-10
491.761	1	-6
491.932	1	-5
492.102	1	-5
492.272	1	2
492.442	1	2
492.613	1	7
492.783	1	5
492.953	1	9
493.124	1	8
493.294	1	6
493.464	1	11
493.635	1	-8
493.805	1	3
493.975	1	-2
494.145	1	0
494.316	1	1
494.486	1	3
494.656	1	8
494.827	1	3
494.997	1	-6
495.167	1	2
495.337	1	1
495.508	1	0
495.678	1	6
495.848	1	-1
496.019	1	-1
496.189	1	4
496.359	1	1
496.529	1	-1
496.700	1	-5
496.870	1	8
497.040	1	2
497.211	1	3
497.381	1	6
497.551	1	-6
497.721	1	-5
497.892	1	3
498.062	1	1
498.232	1	11
498.403	1	-3
498.573	1	5
498.743	1	12
498.913	1	10
499.084	1	-2
499.254	1	-4
499.424	1	6
499.594	1	0
499.765	1	9
499.935	1	-5
500.105	1	12
500.275	1	5
500.446	1	1
500.616	1	4
500.786	1	12
500.956	1	9
501.127	1	10
501.297	1	-10
501.467	1	0
501.638	1	4
501.808	1	0
501.978	1	-1
502.148	1	-5
502.319	1	15
502.489	1	8
502.659	1	16
502.829	1	6
503.000	1	8
503.170	1	6
503.340	1	1
503.510	1	4
503.681	1	2
503.851	1	9
504.021	1	9
504.191	1	19
504.362	1	4
504.532	1	-2
504.702	1	3
504.872	1	-5
505.042	1	-5
505.213	1	10
505.383	1	2
505.553	1	6
505.723	1	5
505.894	1	4
506.064	1	6
506.234	1	14
506.404	1	0
506.575	1	4
506.745	1	19
506.915	1	2
507.085	1	5
507.256	1	13
507.426	1	5
507.596	1	7
507.766	1	7
507.936	1	3
508.107	1	15
508.277	1	-9
508.447	1	5
508.617	1	10
508.788	1	12
508.958	1	9
509.128	1	10
509.298	1	-4
509.468	1	5
509.639	1	10
509.809	1	6
509.979	1	8
510.149	1	10
510.319	1	0
510.490	1	9
510.660	1	16
510.830	1	5
511.000	1	2
511.171	1	-3
511.341	1	11
511.511	1	3
511.681	1	21
511.851	1	4
512.022	1	6
512.192	1	12
512.362	1	16
512.532	1	5
512.702	1	10
512.873	1	14
513.043	1	9
513.213	1	14
513.383	1	-4
513.553	1	10
513.724	1	3
513.894	1	-2
514.064	1	15
514.234	1	16
514.404	1	13
514.575	1	-1
514.745	1	10
514.915	1	-12
515.085	1	8
515.255	1	9
515.425	1	7
515.596	1	23
515.766	1	11
515.936	1	6
516.106	1	9
516.276	1	9
516.447	1	11
516.617	1	1
516.787	1	4
516.957	1	6
517.127	1	4
517.297	1	9
517.468	1	5
517.638	1	1
517.808	1	9
517.978	1	17
518.148	1	10
518.319	1	9
518.489	1	-1
518.659	1	13
518.829	1	15
518.999	1	11
519.169	1	8
519.340	1	12
519.510	1	9
519.680	1	7
519.850	1	7
520.020	1	13
520.190	1	7
520.361	1	-1
520.531	1	6
520.701	1	10
520.871	1	1
521.041	1	5
521.211	1	7
521.382	1	6
521.552	1	9
521.722	1	14
521.892	1	11
522.062	1	9
522.232	1	20
522.402	1	16
522.573	1	9
522.743	1	4
522.913	1	12
523.083	1	16
523.253	1	15
523.423	1	4
523.593	1	6
523.764	1	18
523.934	1	8
524.104	1	5
524.274	1	10
524.444	1	9
524.614	1	9
524.784	1	0
524.955	1	17
525.125	1	15
525.295	1	0
525.465	1	8
525.635	1	8
525.805	1	17
525.975	1	4
526.146	1	5
526.316	1	12
526.486	1	7
526.656	1	9
526.826	1	8
526.996	1	5
527.166	1	-3
527.337	1	8
527.507	1	8
527.677	1	12
527.847	1	7
528.017	1	2
528.187	1	9
528.357	1	13
528.527	1	11
528.698	1	-2
528.868	1	2
529.038	1	6
529.208	1	5
529.378	1	18
529.548	1	4
529.718	1	15
529.888	1	8
530.058	1	14
530.229	1	13
530.399	1	7
530.569	1	5
530.739	1	0
530.909	1	1
531.079	1	-2
531.249	1	6
531.419	1	11
531.589	1	14
531.760	1	16
531.930	1	12
532.100	1	3
532.270	1	10
532.440	1	8
532.610	1	11
532.780	1	10
532.950	1	4
533.120	1	23
533.290	1	15
533.461	1	9
533.631	1	16
533.801	1	-3
533.971	1	-5
534.141	1	5
534.311	1	11
534.481	1	15
534.651	1	-1
534.821	1	3
534.991	1	6
535.162	1	1
535.332	1	15
535.502	1	2
535.672	1	2
535.842	1	8
536.012	1	4
536.182	1	9
536.352	1	4
536.522	1	-2
536.692	1	4
536.862	1	6
537.032	1	-9
537.203	1	14
537.373	1	20
537.543	1	-2
537.713	1	14
537.883	1	3
538.053	1	2
538.223	1	11
538.393	1	9
538.563	1	19
538.733	1	10
538.903	1	3
539.073	1	12
539.243	1	6
539.413	1	6
539.584	1	15
539.754	1	18
539.924	1	8
540.094	1	11
540.264	1	-2
540.434	1	7
540.604	1	17
540.774	1	14
540.944	1	11
541.114	1	5
541.284	1	3
541.454	1	9
541.624	1	13
541.794	1	-2
541.964	1	-3
542.134	1	12
542.305	1	16
542.475	1	2
542.645	1	6
542.815	1	0
542.985	1	5
543.155	1	0
543.325	1	12
543.495	1	15
543.665	1	2
543.835	1	3
544.005	1	6
544.175	1	3
544.345	1	0
544.515	1	2
544.685	1	20
544.855	1	5
545.025	1	10
545.195	1	5
545.365	1	1
545.535	1	6
545.705	1	27
545.875	1	9
546.045	1	8
546.216	1	-3
546.386	1	8
546.556	1	9
546.726	1	12
546.896	1	8
547.066	1	16
547.236	1	12
547.406	1	0
547.576	1	13
547.746	1	13
547.916	1	4
548.086	1	10
548.256	1	-8
548.426	1	15
548.596	1	4
548.766	1	20
548.936	1	15
549.106	1	19
549.276	1	24
549.446	1	9
549.616	1	6
549.786	1	4
549.956	1	6
550.126	1	10
550.296	1	6
550.466	1	14
550.636	1	11
550.806	1	15
550.976	1	12
551.146	1	3
551.316	1	3
551.486	1	8
551.656	1	7
551.826	1	6
551.996	1	3
552.166	1	8
552.336	1	-3
552.506	1	10
552.676	1	7
552.846	1	3
553.016	1	5
553.186	1	3
553.356	1	8
553.526	1	7
553.696	1	27
553.866	1	18
554.036	1	7
554.206	1	11
554.376	1	-3
554.546	1	1
554.716	1	6
554.886	1	18
555.056	1	10
555.226	1	10
555.396	1	3
555.566	1	10
555.736	1	10
555.906	1	6
556.076	1	16
556.246	1	2
556.416	1	-9
556.586	1	-5
556.756	1	0
556.926	1	3
557.096	1	1
557.266	1	3
557.436	1	13
557.606	1	3
557.776	1	9
557.946	1	3
558.116	1	7
558.286	1	10
558.456	1	-1
558.626	1	-7
558.796	1	14
558.966	1	-1
559.136	1	6
559.306	1	12
559.476	1	3
559.646	1	6
559.816	1	4
559.986	1	-1
560.155	1	7
560.325	1	6
560.495	1	0
560.665	1	1
560.835	1	7
561.005	1	9
561.175	1	5
561.345	1	-3
561.515	1	-1
561.685	1	6
561.855	1	6
562.025	1	7
562.195	1	7
562.365	1	10
562.535	1	9
562.705	1	7
562.875	1	6
563.045	1	2
563.215	1	6
563.385	1	-4
563.555	1	2
563.725	1	15
563.895	1	0
564.064	1	7
564.234	1	7
564.404	1	5
564.574	1	10
564.744	1	2
564.914	1	-1
565.084	1	3
565.254	1	1
565.424	1	9
565.594	1	2
565.764	1	-1
565.934	1	11
566.104	1	-4
566.274	1	9
566.444	1	-9
566.614	1	1
566.783	1	3
566.953	1	4
567.123	1	1
567.293	1	5
567.463	1	6
567.633	1	2
567.803	1	15
567.973	1	16
568.143	1	-7
568.313	1	1
568.483	1	7
568.653	1	-5
568.823	1	-1
568.993	1	2
569.162	1	6
569.332	1	4
569.502	1	11
569.672	1	4
569.842	1	-3
570.012	1	-3
570.182	1	0
570.352	1	2
570.522	1	2
570.692	1	6
570.862	1	1
571.031	1	4
571.201	1	10
571.371	1	20
571.541	1	9
571.711	1	0
571.881	1	6
572.051	1	1
572.221	1	12
572.391	1	17
572.561	1	14
572.731	1	7
572.900	1	-6
573.070	1	1
573.240	1	-7
573.410	1	2
573.580	1	6
573.750	1	8
573.920	1	9
574.090	1	16
574.260	1	5
574.430	1	1
574.599	1	6
574.769	1	1
574.939	1	-3
575.109	1	-8
575.279	1	12
575.449	1	17
575.619	1	5
575.789	1	4
575.959	1	-4
576.128	1	3
576.298	1	5
576.468	1	6
576.638	1	5
576.808	1	-1
576.978	1	1
577.148	1	9
577.318	1	19
577.487	1	2
577.657	1	1
577.827	1	-8
577.997	1	6
578.167	1	4
578.337	1	12
578.507	1	-1
578.677	1	10
578.846	1	2
579.016	1	9
579.186	1	13
579.356	1	7
579.526	1	5
579.696	1	6
579.866	1	-3
580.036	1	8
580.205	1	7
580.375	1	15
580.545	1	5
580.715	1	0
580.885	1	5
581.055	1	5
581.225	1	4
581.394	1	-6
581.564	1	2
581.734	1	-2
581.904	1	6
582.074	1	-2
582.244	1	7
582.414	1	7
582.583	1	6
582.753	1	9
582.923	1	6
583.093	1	6
583.263	1	7
583.433	1	-3
583.603	1	-1
583.772	1	-7
583.942	1	8
584.112	1	-6
584.282	1	-1
584.452	1	1
584.622	1	1
584.791	1	14
584.961	1	-14
585.131	1	6
585.301	1	-4
585.471	1	3
585.641	1	3
585.811	1	0
585.980	1	7
586.150	1	5
586.320	1	-9
586.490	1	6
586.660	1	15
586.830	1	1
586.999	1	-1
587.169	1	11
587.339	1	-1
587.509	1	-1
587.679	1	7
587.849	1	8
588.018	1	-11
588.188	1	-3
588.358	1	-6
588.528	1	-2
588.698	1	0
588.867	1	-2
589.037	1	0
589.207	1	1
589.377	1	12
589.547	1	1
589.717	1	9
589.886	1	-1
590.056	1	12
590.226	1	-4
590.396	1	-4
590.566	1	-2
590.735	1	-1
590.905	1	3
591.075	1	-2
591.245	1	2
591.415	1	2
591.585	1	13
591.754	1	11
591.924	1	8
592.094	1	-1
592.264	1	-1
592.434	1	-1
592.603	1	0
592.773	1	-2
592.943	1	4
593.113	1	0
593.283	1	-6
593.452	1	2
593.622	1	3
593.792	1	10
593.962	1	7
594.132	1	-5
594.301	1	5
594.471	1	-7
594.641	1	-3
594.811	1	-4
594.981	1	-7
595.150	1	11
595.320	1	-1
595.490	1	13
595.660	1	4
595.829	1	-15
595.999	1	7
596.169	1	12
596.339	1	2
596.509	1	-6
596.678	1	2
596.848	1	13
597.018	1	-1
597.188	1	-2
597.358	1	-2
597.527	1	1
597.697	1	-5
597.867	1	12
598.037	1	-2
598.206	1	11
598.376	1	1
598.546	1	6
598.716	1	-11
598.885	1	-5
599.055	1	9
599.225	1	5
599.395	1	11
599.565	1	-1
599.734	1	2
599.904	1	-5
600.074	1	-2
600.244	1	-2
600.413	1	5
600.583	1	-4
600.753	1	8
600.923	1	3
601.092	1	1
601.262	1	-5
601.432	1	5
601.602	1	11
601.771	1	-4
601.941	1	6
602.111	1	4
602.281	1	2
602.451	1	0
602.620	1	5
602.790	1	-2
602.960	1	-1
603.130	1	-6
603.299	1	4
603.469	1	3
603.639	1	-8
603.809	1	9
603.978	1	-2
604.148	1	-1
604.318	1	6
604.487	1	3
604.657	1	1
604.827	1	13
604.997	1	6
605.166	1	2
605.336	1	5
605.506	1	-7
605.676	1	14
605.845	1	-6
606.015	1	-6
606.185	1	-3
606.355	1	2
606.524	1	3
606.694	1	2
606.864	1	8
607.034	1	-7
607.203	1	8
607.373	1	-3
607.543	1	-8
607.712	1	0
607.882	1	1
608.052	1	-2
608.222	1	6
608.391	1	8
608.561	1	-4
608.731	1	-9
608.901	1	3
609.070	1	-8
609.240	1	-2
609.410	1	3
609.579	1	15
609.749	1	5
609.919	1	1
610.089	1	-4
610.258	1	3
610.428	1	8
610.598	1	5
610.767	1	6
610.937	1	-1
611.107	1	0
611.277	1	-4
611.446	1	6
611.616	1	10
611.786	1	7
611.955	1	-5
612.125	1	2
612.295	1	7
612.465	1	-4
612.634	1	1
612.804	1	-2
612.974	1	0
613.143	1	3
613.313	1	-4
613.483	1	8
613.652	1	0
613.822	1	-1
613.992	1	-3
614.162	1	3
614.331	1	0
614.501	1	0
614.671	1	1
614.840	1	4
615.010	1	6
615.180	1	6
615.349	1	8
615.519	1	-5
615.689	1	-13
615.858	1	1
616.028	1	10
616.198	1	-2
616.368	1	11
616.537	1	11
616.707	1	2
616.877	1	0
617.046	1	10
617.216	1	4
617.386	1	7
617.555	1	-3
617.725	1	13
617.895	1	3
618.064	1	-2
618.234	1	0
618.404	1	-8
618.573	1	3
618.743	1	8
618.913	1	4
619.082	1	2
619.252	1	4
619.422	1	-1
619.591	1	-3
619.761	1	-4
619.931	1	1
620.100	1	15
620.270	1	4
620.440	1	6
620.609	1	8
620.779	1	5
620.949	1	-1
621.118	1	3
621.288	1	-4
621.458	1	2
621.627	1	-1
621.797	1	-4
621.967	1	2
622.136	1	7
622.306	1	1
622.476	1	-4
622.645	1	8
622.815	1	-2
622.985	1	2
623.154	1	-2
623.324	1	3
623.494	1	-7
623.663	1	3
623.833	1	-2
624.002	1	-1
624.172	1	-4
624.342	1	5
624.511	1	5
624.681	1	5
624.851	1	-4
625.020	1	2
625.190	1	1
625.360	1	-3
625.529	1	-2
625.699	1	-2
625.869	1	1
626.038	1	-6
626.208	1	7
626.377	1	-3
626.547	1	-2
626.717	1	-6
626.886	1	-9
627.056	1	-1
627.226	1	0
627.395	1	3
627.565	1	0
627.735	1	1
627.904	1	-10
628.074	1	5
628.243	1	9
628.413	1	-3
628.583	1	6
628.752	1	4
628.922	1	1
629.091	1	1
629.261	1	5
629.431	1	-4
629.600	1	0
629.770	1	3
629.940	1	-9
630.109	1	-9
630.279	1	9
630.448	1	-1
630.618	1	14
630.788	1	-9
630.957	1	0
631.127	1	-6
631.297	1	-4
631.466	1	6
631.636	1	-3
631.805	1	4
631.975	1	-5
632.145	1	14
632.314	1	0
632.484	1	7
632.653	1	-10
632.823	1	-1
632.993	1	-6
633.162	1	-2
633.332	1	-8
633.501	1	-2
633.671	1	-2
633.841	1	5
634.010	1	10
634.180	1	12
634.349	1	1
634.519	1	6
634.689	1	6
634.858	1	-7
635.028	1	-7
635.197	1	1
635.367	1	1
635.537	1	-1
635.706	1	0
635.876	1	1
636.045	1	10
636.215	1	12
636.384	1	1
636.554	1	-3
636.724	1	-2
636.893	1	-2
637.063	1	-7
637.232	1	5
637.402	1	-8
637.572	1	-3
637.741	1	0
637.911	1	-6
638.080	1	6
638.250	1	4
638.419	1	-4
638.589	1	13
638.759	1	-5
638.928	1	7
639.098	1	-2
639.267	1	2
639.437	1	5
639.606	1	7
639.776	1	7
639.946	1	4
640.115	1	2
640.285	1	15
640.454	1	4
640.624	1	2
640.793	1	5
640.963	1	-9
641.132	1	7
641.302	1	6
641.472	1	4
641.641	1	-4
641.811	1	-6
641.980	1	6
642.150	1	0
642.319	1	12
642.489	1	-2
642.659	1	7
642.828	1	-1
642.998	1	6
643.167	1	-13
643.337	1	-5
643.506	1	-2
643.676	1	-1
643.845	1	10
644.015	1	7
644.184	1	2
644.354	1	4
644.524	1	-5
644.693	1	-3
644.863	1	-2
645.032	1	10
645.202	1	-10
645.371	1	0
645.541	1	11
645.710	1	6
645.880	1	-9
646.049	1	4
646.219	1	-4
646.388	1	4
646.558	1	-8
646.728	1	3
646.897	1	0
647.067	1	3
647.236	1	11
647.406	1	6
647.575	1	12
647.745	1	11
647.914	1	-5
648.084	1	-1
648.253	1	-3
648.423	1	2
648.592	1	-7
648.762	1	11
648.931	1	-6
649.101	1	3
649.270	1	0
649.440	1	-2
649.610	1	2
649.779	1	2
649.949	1	5
650.118	1	-3
650.288	1	6
650.457	1	11
650.627	1	12
650.796	1	3
650.966	1	-12
651.135	1	4
651.305	1	-14
651.474	1	6
651.644	1	6
651.813	1	11
651.983	1	-3
652.152	1	5
652.322	1	0
652.491	1	13
652.661	1	0
652.830	1	6
653.000	1	-2
653.169	1	2
653.339	1	6
653.508	1	-7
653.678	1	-4
653.847	1	-8
654.017	1	5
654.186	1	-1
654.356	1	-9
654.525	1	-1
654.695	1	-3
654.864	1	5
655.034	1	4
655.203	1	9
655.373	1	10
655.542	1	-4
655.712	1	-2
655.881	1	11
656.051	1	4
656.220	1	-4
656.390	1	1
656.559	1	-10
656.729	1	-12
656.898	1	0
657.068	1	-1
657.237	1	15
657.406	1	3
657.576	1	-14
657.745	1	7
657.915	1	-1
658.084	1	-12
658.254	1	7
658.423	1	4
658.593	1	5
658.762	1	7
658.932	1	-5
659.101	1	-7
659.271	1	2
659.440	1	0
659.610	1	-8
659.779	1	10
659.949	1	4
660.118	1	7
660.288	1	-3
660.457	1	5
660.626	1	4
660.796	1	1
660.965	1	5
661.135	1	-10
661.304	1	1
661.474	1	1
661.643	1	5
661.813	1	-4
661.982	1	5
662.152	1	2
662.321	1	-3
662.491	1	-2
662.660	1	1
662.829	1	9
662.999	1	-5
663.168	1	11
663.338	1	17
663.507	1	-5
663.677	1	10
663.846	1	9
664.016	1	-1
664.185	1	5
664.354	1	11
664.524	1	6
664.693	1	-4
664.863	1	-13
665.032	1	3
665.202	1	-3
665.371	1	-7
665.541	1	11
665.710	1	4
665.879	1	3
666.049	1	3
666.218	1	-1
666.388	1	7
666.557	1	12
666.727	1	-4
666.896	1	12
667.065	1	-5
667.235	1	13
667.404	1	1
667.574	1	2
667.743	1	-1
667.913	1	9
668.082	1	-4
668.251	1	3
668.421	1	-8
668.590	1	-2
668.760	1	2
668.929	1	-5
669.099	1	2
669.268	1	0
669.437	1	9
669.607	1	7
669.776	1	4
669.946	1	-2
670.115	1	-7
670.285	1	11
670.454	1	0
670.623	1	5
670.793	1	4
670.962	1	5
671.132	1	-9
671.301	1	3
671.470	1	-2
671.640	1	-7
671.809	1	-6
671.979	1	16
672.148	1	9
672.317	1	-10
672.487	1	0
672.656	1	-11
672.826	1	1
672.995	1	5
673.164	1	-6
673.334	1	-1
673.503	1	-11
673.673	1	-1
673.842	1	8
674.011	1	14
674.181	1	5
674.350	1	-3
674.520	1	4
674.689	1	-15
674.858	1	-1
675.028	1	6
675.197	1	5
675.367	1	-15
675.536	1	-2
675.705	1	-1
675.875	1	-7
676.044	1	-9
676.214	1	-8
676.383	1	11
676.552	1	-5
676.722	1	1
676.891	1	3
677.060	1	0
677.230	1	10
677.399	1	-6
677.569	1	2
677.738	1	-2
677.907	1	-4
678.077	1	1
678.246	1	7
678.416	1	6
678.585	1	-3
678.754	1	7
678.924	1	4
679.093	1	12
679.262	1	1
679.432	1	10
679.601	1	2
679.771	1	-3
679.940	1	2
680.109	1	-3
680.279	1	-4
680.448	1	6
680.617	1	-3
680.787	1	2
680.956	1	11
681.125	1	7
681.295	1	-3
681.464	1	-6
681.634	1	1
681.803	1	0
681.972	1	4
682.142	1	-5
682.311	1	6
682.480	1	-3
682.650	1	11
682.819	1	9
682.988	1	-8
683.158	1	3
683.327	1	9
683.496	1	7
683.666	1	4
683.835	1	-12
684.004	1	3
684.174	1	1
684.343	1	3
684.512	1	-1
684.682	1	1
684.851	1	11
685.021	1	-6
685.190	1	-1
685.359	1	-8
685.529	1	-3
685.698	1	-6
685.867	1	0
686.037	1	9
686.206	1	2
686.375	1	1
686.545	1	17
686.714	1	-4
686.883	1	5
687.053	1	-9
687.222	1	1
687.391	1	4
687.561	1	12
687.730	1	-1
687.899	1	-1
688.069	1	9
688.238	1	-4
688.407	1	14
688.577	1	1
688.746	1	3
