340.368	1	12
340.539	1	3
340.710	1	-3
340.881	1	-2
341.052	1	-9
341.223	1	3
341.394	1	-3
341.565	1	4
341.737	1	3
341.908	1	-13
342.079	1	-3
342.250	1	1
342.421	1	4
342.592	1	2
342.763	1	7
342.934	1	-2
343.105	1	-1
343.276	1	5
343.447	1	-9
343.618	1	1
343.789	1	0
343.960	1	4
344.131	1	3
344.302	1	-9
344.473	1	2
344.644	1	-11
344.815	1	-3
344.986	1	5
345.157	1	2
345.328	1	-13
345.499	1	6
345.670	1	-10
345.841	1	-3
346.012	1	1
346.183	1	7
346.354	1	3
346.526	1	-4
346.697	1	12
346.868	1	-12
347.039	1	-10
347.210	1	1
347.381	1	5
347.552	1	5
347.723	1	1
347.894	1	1
348.065	1	2
348.236	1	-1
348.407	1	0
348.578	1	2
348.749	1	1
348.920	1	3
349.091	1	0
349.262	1	-3
349.433	1	-4
349.604	1	0
349.775	1	-1
349.946	1	-6
350.117	1	8
350.288	1	7
350.459	1	-13
350.630	1	7
350.801	1	12
350.972	1	12
351.143	1	2
351.314	1	-4
351.485	1	16
351.656	1	2
351.827	1	5
351.998	1	0
352.169	1	-4
352.340	1	3
352.511	1	2
352.682	1	1
352.853	1	1
353.024	1	0
353.195	1	1
353.366	1	1
353.537	1	9
353.708	1	13
353.879	1	-5
354.050	1	7
354.221	1	3
354.392	1	6
354.563	1	9
354.734	1	5
354.905	1	8
355.076	1	6
355.247	1	7
355.418	1	7
355.589	1	-13
355.760	1	10
355.931	1	5
356.102	1	-5
356.273	1	-2
356.444	1	13
356.615	1	-1
356.785	1	2
356.956	1	10
357.127	1	8
357.298	1	6
357.469	1	0
357.640	1	9
357.811	1	-3
357.982	1	8
358.153	1	10
358.324	1	8
358.495	1	6
358.666	1	6
358.837	1	7
359.008	1	3
359.179	1	5
359.350	1	10
359.521	1	10
359.692	1	6
359.863	1	8
360.034	1	19
360.205	1	4
360.376	1	2
360.547	1	-1
360.718	1	19
360.889	1	5
361.060	1	3
361.231	1	3
361.401	1	1
361.572	1	7
361.743	1	22
361.914	1	15
362.085	1	11
362.256	1	10
362.427	1	-7
362.598	1	5
362.769	1	14
362.940	1	11
363.111	1	15
363.282	1	11
363.453	1	15
363.624	1	8
363.795	1	14
363.966	1	15
364.137	1	23
364.308	1	18
364.478	1	12
364.649	1	9
364.820	1	19
364.991	1	11
365.162	1	11
365.333	1	13
365.504	1	18
365.675	1	8
365.846	1	13
366.017	1	26
366.188	1	17
366.359	1	19
366.530	1	37
366.701	1	24
366.871	1	22
367.042	1	30
367.213	1	21
367.384	1	4
367.555	1	29
367.726	1	23
367.897	1	34
368.068	1	36
368.239	1	17
368.410	1	28
368.581	1	28
368.752	1	24
368.923	1	34
369.093	1	25
369.264	1	14
369.435	1	28
369.606	1	29
369.777	1	16
369.948	1	23
370.119	1	25
370.290	1	13
370.461	1	27
370.632	1	24
370.803	1	16
370.973	1	19
371.144	1	10
371.315	1	9
371.486	1	31
371.657	1	12
371.828	1	24
371.999	1	5
372.170	1	11
372.341	1	14
372.512	1	16
372.682	1	13
372.853	1	10
373.024	1	12
373.195	1	3
373.366	1	5
373.537	1	18
373.708	1	7
373.879	1	13
374.050	1	9
374.220	1	14
374.391	1	11
374.562	1	7
374.733	1	5
374.904	1	13
375.075	1	13
375.246	1	0
375.417	1	12
375.588	1	13
375.758	1	0
375.929	1	6
376.100	1	9
376.271	1	9
376.442	1	10
376.613	1	6
376.784	1	10
376.955	1	-4
377.125	1	12
377.296	1	-1
377.467	1	5
377.638	1	8
377.809	1	15
377.980	1	10
378.151	1	11
378.321	1	1
378.492	1	15
378.663	1	9
378.834	1	24
379.005	1	5
379.176	1	-4
379.347	1	14
379.518	1	8
379.688	1	3
379.859	1	7
380.030	1	17
380.201	1	17
380.372	1	8
380.543	1	12
380.714	1	11
380.884	1	11
381.055	1	-4
381.226	1	6
381.397	1	13
381.568	1	12
381.739	1	6
381.910	1	1
382.080	1	8
382.251	1	7
382.422	1	-1
382.593	1	10
382.764	1	8
382.935	1	22
383.105	1	6
383.276	1	14
383.447	1	9
383.618	1	23
383.789	1	10
383.960	1	4
384.130	1	8
384.301	1	10
384.472	1	9
384.643	1	8
384.814	1	12
384.985	1	12
385.156	1	24
385.326	1	14
385.497	1	16
385.668	1	11
385.839	1	19
386.010	1	20
386.180	1	15
386.351	1	10
386.522	1	11
386.693	1	20
386.864	1	27
387.035	1	25
387.205	1	14
387.376	1	28
387.547	1	19
387.718	1	13
387.889	1	24
388.060	1	8
388.230	1	18
388.401	1	21
388.572	1	18
388.743	1	13
388.914	1	8
389.084	1	15
389.255	1	9
389.426	1	7
389.597	1	25
389.768	1	12
389.939	1	28
390.109	1	2
390.280	1	12
390.451	1	28
390.622	1	2
390.793	1	21
390.963	1	19
391.134	1	-1
391.305	1	10
391.476	1	20
391.647	1	8
391.817	1	11
391.988	1	1
392.159	1	21
392.330	1	7
392.501	1	12
392.671	1	-4
392.842	1	15
393.013	1	16
393.184	1	3
393.355	1	20
393.525	1	10
393.696	1	7
393.867	1	14
394.038	1	8
394.208	1	11
394.379	1	0
394.550	1	8
394.721	1	10
394.892	1	12
395.062	1	15
395.233	1	12
395.404	1	22
395.575	1	20
395.746	1	4
395.916	1	17
396.087	1	9
396.258	1	17
396.429	1	8
396.599	1	14
396.770	1	18
396.941	1	16
397.112	1	9
397.283	1	2
397.453	1	12
397.624	1	15
397.795	1	9
397.966	1	21
398.136	1	10
398.307	1	2
398.478	1	9
398.649	1	10
398.819	1	12
398.990	1	11
399.161	1	13
399.332	1	19
399.503	1	6
399.673	1	-2
399.844	1	8
400.015	1	16
400.186	1	5
400.356	1	15
400.527	1	16
400.698	1	14
400.869	1	2
401.039	1	10
401.210	1	17
401.381	1	2
401.552	1	-2
401.722	1	8
401.893	1	7
402.064	1	10
402.235	1	-2
402.405	1	5
402.576	1	10
402.747	1	20
402.918	1	5
403.088	1	10
403.259	1	4
403.430	1	8
403.601	1	12
403.771	1	18
403.942	1	7
404.113	1	15
404.284	1	5
404.454	1	13
404.625	1	4
404.796	1	7
404.967	1	11
405.137	1	9
405.308	1	12
405.479	1	12
405.649	1	8
405.820	1	6
405.991	1	8
406.162	1	8
406.332	1	0
406.503	1	4
406.674	1	2
406.845	1	14
407.015	1	4
407.186	1	9
407.357	1	7
407.527	1	3
407.698	1	10
407.869	1	9
408.040	1	5
408.210	1	10
408.381	1	6
408.552	1	-3
408.722	1	-8
408.893	1	4
409.064	1	-3
409.235	1	8
409.405	1	17
409.576	1	14
409.747	1	12
409.917	1	10
410.088	1	-9
410.259	1	5
410.430	1	-4
410.600	1	5
410.771	1	11
410.942	1	8
411.112	1	7
411.283	1	9
411.454	1	9
411.625	1	7
411.795	1	0
411.966	1	21
412.137	1	7
412.307	1	5
412.478	1	11
412.649	1	-5
412.819	1	10
412.990	1	3
413.161	1	0
413.332	1	9
413.502	1	-6
413.673	1	11
413.844	1	6
414.014	1	-2
414.185	1	6
414.356	1	0
414.526	1	0
414.697	1	6
414.868	1	4
415.038	1	2
415.209	1	2
415.380	1	14
415.550	1	11
415.721	1	3
415.892	1	7
416.063	1	11
416.233	1	6
416.404	1	-9
416.575	1	-6
416.745	1	-2
416.916	1	5
417.087	1	4
417.257	1	8
417.428	1	5
417.599	1	12
417.769	1	-4
417.940	1	10
418.111	1	6
418.281	1	3
418.452	1	11
418.623	1	-3
418.793	1	0
418.964	1	2
419.135	1	9
419.305	1	11
419.476	1	4
419.647	1	-2
419.817	1	14
419.988	1	-2
420.159	1	3
420.329	1	3
420.500	1	13
420.671	1	3
420.841	1	-1
421.012	1	-4
421.183	1	16
421.353	1	9
421.524	1	5
421.695	1	5
421.865	1	14
422.036	1	5
422.206	1	1
422.377	1	3
422.548	1	-2
422.718	1	-3
422.889	1	-6
423.060	1	2
423.230	1	-1
423.401	1	8
423.572	1	20
423.742	1	2
423.913	1	6
424.084	1	12
424.254	1	0
424.425	1	-10
424.595	1	-2
424.766	1	3
424.937	1	2
425.107	1	4
425.278	1	12
425.449	1	1
425.619	1	4
425.790	1	11
425.961	1	-2
426.131	1	1
426.302	1	8
426.472	1	-4
426.643	1	-8
426.814	1	3
426.984	1	14
427.155	1	8
427.326	1	2
427.496	1	1
427.667	1	5
427.837	1	4
428.008	1	-7
428.179	1	0
428.349	1	0
428.520	1	10
428.691	1	-4
428.861	1	-3
429.032	1	6
429.202	1	5
429.373	1	6
429.544	1	11
429.714	1	-1
429.885	1	7
430.055	1	7
430.226	1	-9
430.397	1	0
430.567	1	11
430.738	1	-1
430.909	1	-6
431.079	1	-1
431.250	1	-11
431.420	1	2
431.591	1	-14
431.762	1	-3
431.932	1	-6
432.103	1	4
432.273	1	9
432.444	1	-13
432.615	1	-4
432.785	1	0
432.956	1	7
433.126	1	6
433.297	1	5
433.468	1	-2
433.638	1	-1
433.809	1	1
433.979	1	0
434.150	1	7
434.320	1	4
434.491	1	6
434.662	1	5
434.832	1	-1
435.003	1	5
435.173	1	-1
435.344	1	2
435.515	1	-3
435.685	1	-1
435.856	1	-4
436.026	1	1
436.197	1	-6
436.368	1	-4
436.538	1	-7
436.709	1	-8
436.879	1	0
437.050	1	14
437.220	1	1
437.391	1	9
437.562	1	4
437.732	1	1
437.903	1	-2
438.073	1	2
438.244	1	-5
438.414	1	4
438.585	1	-4
438.756	1	7
438.926	1	-3
439.097	1	17
439.267	1	-6
439.438	1	-1
439.608	1	0
439.779	1	-4
439.949	1	-4
440.120	1	-7
440.291	1	-1
440.461	1	7
440.632	1	3
440.802	1	10
440.973	1	6
441.143	1	-2
441.314	1	-8
441.485	1	-2
441.655	1	-1
441.826	1	-2
441.996	1	4
442.167	1	-1
442.337	1	15
442.508	1	-1
442.678	1	-8
442.849	1	1
443.019	1	8
443.190	1	5
443.361	1	7
443.531	1	-3
443.702	1	-5
443.872	1	0
444.043	1	8
444.213	1	11
444.384	1	9
444.554	1	2
444.725	1	2
444.895	1	-1
445.066	1	-5
445.237	1	2
445.407	1	1
445.578	1	-1
445.748	1	2
445.919	1	3
446.089	1	6
446.260	1	2
446.430	1	-6
446.601	1	11
446.771	1	-3
446.942	1	-1
447.112	1	5
447.283	1	-6
447.453	1	2
447.624	1	-6
447.794	1	9
447.965	1	-1
448.135	1	8
448.306	1	-3
448.477	1	10
448.647	1	6
448.818	1	-3
448.988	1	-2
449.159	1	7
449.329	1	4
449.500	1	2
449.670	1	0
449.841	1	-3
450.011	1	1
450.182	1	-10
450.352	1	10
450.523	1	8
450.693	1	13
450.864	1	1
451.034	1	9
451.205	1	5
451.375	1	5
451.546	1	-7
451.716	1	2
451.887	1	4
452.057	1	6
452.228	1	5
452.398	1	16
452.569	1	-6
452.739	1	-1
452.910	1	1
453.080	1	-1
453.251	1	10
453.421	1	-7
453.592	1	-1
453.762	1	9
453.933	1	2
454.103	1	0
454.274	1	6
454.444	1	5
454.615	1	9
454.785	1	4
454.956	1	-2
455.126	1	2
455.297	1	1
455.467	1	-12
455.638	1	11
455.808	1	1
455.979	1	2
456.149	1	2
456.320	1	6
456.490	1	-4
456.661	1	-1
456.831	1	5
457.001	1	6
457.172	1	6
457.342	1	1
457.513	1	11
457.683	1	5
457.854	1	1
458.024	1	-8
458.195	1	-10
458.365	1	16
458.536	1	9
458.706	1	12
458.877	1	0
459.047	1	0
459.218	1	2
459.388	1	6
459.559	1	1
459.729	1	-3
459.899	1	-2
460.070	1	0
460.240	1	-2
460.411	1	-3
460.581	1	6
460.752	1	1
460.922	1	15
461.093	1	2
461.263	1	-5
461.434	1	5
461.604	1	12
461.775	1	3
461.945	1	1
462.115	1	-3
462.286	1	-6
462.456	1	4
462.627	1	6
462.797	1	-12
462.968	1	-4
463.138	1	-5
463.309	1	6
463.479	1	-1
463.649	1	3
463.820	1	2
463.990	1	8
464.161	1	2
464.331	1	0
464.502	1	5
464.672	1	-5
464.843	1	-4
465.013	1	-10
465.183	1	-7
465.354	1	14
465.524	1	4
465.695	1	4
465.865	1	6
466.036	1	9
466.206	1	-3
466.376	1	0
466.547	1	0
466.717	1	2
466.888	1	-3
467.058	1	-3
467.229	1	12
467.399	1	-2
467.569	1	5
467.740	1	-1
467.910	1	2
468.081	1	-2
468.251	1	2
468.422	1	-3
468.592	1	9
468.762	1	-5
468.933	1	-6
469.103	1	4
469.274	1	0
469.444	1	12
469.614	1	4
469.785	1	11
469.955	1	2
470.126	1	-2
470.296	1	0
470.467	1	-13
470.637	1	0
470.807	1	12
470.978	1	5
471.148	1	-5
471.319	1	3
471.489	1	-6
471.659	1	7
471.830	1	6
472.000	1	2
472.171	1	5
472.341	1	-10
472.511	1	8
472.682	1	-7
472.852	1	-2
473.023	1	-1
473.193	1	2
473.363	1	-2
473.534	1	-3
473.704	1	0
473.875	1	-8
474.045	1	0
474.215	1	16
474.386	1	8
474.556	1	4
474.727	1	7
474.897	1	-2
475.067	1	1
475.238	1	-13
475.408	1	0
475.578	1	-3
475.749	1	10
475.919	1	4
476.090	1	8
476.260	1	5
476.430	1	6
476.601	1	8
476.771	1	4
476.942	1	6
477.112	1	4
477.282	1	10
477.453	1	2
477.623	1	-2
477.793	1	1
477.964	1	2
478.134	1	1
478.305	1	4
478.475	1	-4
478.645	1	0
478.816	1	-1
478.986	1	-1
479.156	1	-4
479.327	1	2
479.497	1	13
479.667	1	17
479.838	1	-1
480.008	1	-1
480.179	1	-7
480.349	1	-5
480.519	1	-6
480.690	1	-4
480.860	1	0
481.030	1	4
481.201	1	1
481.371	1	11
481.541	1	2
481.712	1	-8
481.882	1	-8
482.053	1	3
482.223	1	2
482.393	1	3
482.564	1	2
482.734	1	0
482.904	1	-6
483.075	1	4
483.245	1	7
483.415	1	-4
483.586	1	11
483.756	1	3
483.926	1	-2
484.097	1	2
484.267	1	-4
484.437	1	2
484.608	1	2
484.778	1	-2
484.948	1	2
485.119	1	-4
485.289	1	3
485.459	1	4
485.630	1	11
485.800	1	-2
485.970	1	2
486.141	1	-3
486.311	1	9
486.481	1	-1
486.652	1	-6
486.822	1	-1
486.992	1	8
487.163	1	6
487.333	1	-5
487.503	1	5
487.674	1	-2
487.844	1	3
488.014	1	4
488.185	1	-1
488.355	1	4
488.525	1	-3
488.696	1	3
488.866	1	-3
489.036	1	6
489.207	1	-6
489.377	1	4
489.547	1	-1
489.718	1	-2
489.888	1	7
490.058	1	5
490.228	1	-3
490.399	1	2
490.569	1	0
490.739	1	11
490.910	1	-3
491.080	1	-8
491.250	1	5
491.421	1	3
491.591	1	-3
491.761	1	-8
491.932	1	4
492.102	1	-1
492.272	1	2
492.442	1	6
492.613	1	6
492.783	1	-5
492.953	1	-1
493.124	1	9
493.294	1	12
493.464	1	7
493.635	1	-1
493.805	1	11
493.975	1	2
494.145	1	3
494.316	1	4
494.486	1	2
494.656	1	0
494.827	1	4
494.997	1	0
495.167	1	12
495.337	1	-6
495.508	1	-5
495.678	1	5
495.848	1	6
496.019	1	8
496.189	1	1
496.359	1	6
496.529	1	5
496.700	1	-4
496.870	1	8
497.040	1	4
497.211	1	4
497.381	1	-3
497.551	1	2
497.721	1	-2
497.892	1	0
498.062	1	7
498.232	1	7
498.403	1	0
498.573	1	6
498.743	1	0
498.913	1	16
499.084	1	0
499.254	1	-4
499.424	1	-1
499.594	1	4
499.765	1	3
499.935	1	-13
500.105	1	11
500.275	1	9
500.446	1	8
500.616	1	-2
500.786	1	6
500.956	1	9
501.127	1	7
501.297	1	1
501.467	1	5
501.638	1	17
501.808	1	6
501.978	1	10
502.148	1	-8
502.319	1	12
502.489	1	5
502.659	1	10
502.829	1	6
503.000	1	1
503.170	1	8
503.340	1	16
503.510	1	1
503.681	1	-1
503.851	1	1
504.021	1	15
504.191	1	2
504.362	1	1
504.532	1	11
504.702	1	8
504.872	1	-11
505.042	1	7
505.213	1	6
505.383	1	3
505.553	1	6
505.723	1	5
505.894	1	-3
506.064	1	1
506.234	1	2
506.404	1	2
506.575	1	-1
506.745	1	15
506.915	1	5
507.085	1	-3
507.256	1	16
507.426	1	5
507.596	1	4
507.766	1	6
507.936	1	-3
508.107	1	11
508.277	1	0
508.447	1	-4
508.617	1	5
508.788	1	14
508.958	1	10
509.128	1	11
509.298	1	-1
509.468	1	12
509.639	1	4
509.809	1	13
509.979	1	10
510.149	1	16
510.319	1	5
510.490	1	6
510.660	1	4
510.830	1	4
511.000	1	1
511.171	1	4
511.341	1	6
511.511	1	7
511.681	1	14
511.851	1	7
512.022	1	1
512.192	1	11
512.362	1	10
512.532	1	0
512.702	1	4
512.873	1	14
513.043	1	11
513.213	1	3
513.383	1	-1
513.553	1	14
513.724	1	3
513.894	1	5
514.064	1	9
514.234	1	11
514.404	1	6
514.575	1	4
514.745	1	5
514.915	1	-12
515.085	1	5
515.255	1	5
515.425	1	13
515.596	1	12
515.766	1	6
515.936	1	4
516.106	1	17
516.276	1	0
516.447	1	8
516.617	1	9
516.787	1	9
516.957	1	10
517.127	1	6
517.297	1	6
517.468	1	6
517.638	1	-5
517.808	1	6
517.978	1	11
518.148	1	3
518.319	1	12
518.489	1	3
518.659	1	3
518.829	1	10
518.999	1	22
519.169	1	3
519.340	1	7
519.510	1	14
519.680	1	7
519.850	1	2
520.020	1	11
520.190	1	5
520.361	1	3
520.531	1	16
520.701	1	15
520.871	1	14
521.041	1	8
521.211	1	16
521.382	1	7
521.552	1	4
521.722	1	10
521.892	1	16
522.062	1	11
522.232	1	19
522.402	1	6
522.573	1	9
522.743	1	11
522.913	1	13
523.083	1	11
523.253	1	10
523.423	1	4
523.593	1	5
523.764	1	7
523.934	1	7
524.104	1	1
524.274	1	7
524.444	1	2
524.614	1	14
524.784	1	10
524.955	1	15
525.125	1	14
525.295	1	5
525.465	1	2
525.635	1	13
525.805	1	15
525.975	1	-4
526.146	1	-2
526.316	1	7
526.486	1	5
526.656	1	12
526.826	1	21
526.996	1	7
527.166	1	6
527.337	1	-1
527.507	1	11
527.677	1	11
527.847	1	5
528.017	1	2
528.187	1	11
528.357	1	10
528.527	1	13
528.698	1	5
528.868	1	2
529.038	1	7
529.208	1	-5
529.378	1	12
529.548	1	2
529.718	1	11
529.888	1	9
530.058	1	9
530.229	1	16
530.399	1	0
530.569	1	6
530.739	1	3
530.909	1	10
531.079	1	-8
531.249	1	4
531.419	1	12
531.589	1	10
531.760	1	13
531.930	1	15
532.100	1	7
532.270	1	16
532.440	1	7
532.610	1	12
532.780	1	9
532.950	1	10
533.120	1	26
533.290	1	8
533.461	1	15
533.631	1	9
533.801	1	5
533.971	1	4
534.141	1	4
534.311	1	11
534.481	1	10
534.651	1	1
534.821	1	5
534.991	1	7
535.162	1	2
535.332	1	11
535.502	1	10
535.672	1	6
535.842	1	15
536.012	1	5
536.182	1	9
536.352	1	-4
536.522	1	1
536.692	1	4
536.862	1	11
537.032	1	-2
537.203	1	13
537.373	1	10
537.543	1	1
537.713	1	6
537.883	1	6
538.053	1	6
538.223	1	10
538.393	1	11
538.563	1	16
538.733	1	15
538.903	1	6
539.073	1	15
539.243	1	6
539.413	1	6
539.584	1	12
539.754	1	14
539.924	1	5
540.094	1	11
540.264	1	-2
540.434	1	15
540.604	1	14
540.774	1	16
540.944	1	5
541.114	1	2
541.284	1	6
541.454	1	7
541.624	1	14
541.794	1	6
541.964	1	-3
542.134	1	7
542.305	1	18
542.475	1	0
542.645	1	8
542.815	1	-12
542.985	1	11
543.155	1	-2
543.325	1	7
543.495	1	17
543.665	1	1
543.835	1	1
544.005	1	6
544.175	1	4
544.345	1	-6
544.515	1	6
544.685	1	14
544.855	1	-1
545.025	1	10
545.195	1	7
545.365	1	9
545.535	1	8
545.705	1	23
545.875	1	2
546.045	1	11
546.216	1	0
546.386	1	10
546.556	1	0
546.726	1	9
546.896	1	14
547.066	1	13
547.236	1	9
547.406	1	-2
547.576	1	5
547.746	1	4
547.916	1	5
548.086	1	6
548.256	1	3
548.426	1	3
548.596	1	13
548.766	1	22
548.936	1	15
549.106	1	15
549.276	1	20
549.446	1	4
549.616	1	5
549.786	1	2
549.956	1	-7
550.126	1	4
550.296	1	6
550.466	1	9
550.636	1	10
550.806	1	10
550.976	1	7
551.146	1	-6
551.316	1	0
551.486	1	3
551.656	1	9
551.826	1	18
551.996	1	4
552.166	1	8
552.336	1	7
552.506	1	12
552.676	1	10
552.846	1	6
553.016	1	12
553.186	1	12
553.356	1	12
553.526	1	2
553.696	1	16
553.866	1	11
554.036	1	8
554.206	1	5
554.376	1	-5
554.546	1	5
554.716	1	6
554.886	1	18
555.056	1	10
555.226	1	3
555.396	1	6
555.566	1	5
555.736	1	12
555.906	1	7
556.076	1	14
556.246	1	7
556.416	1	-8
556.586	1	-3
556.756	1	3
556.926	1	2
557.096	1	12
557.266	1	-1
557.436	1	3
557.606	1	1
557.776	1	11
557.946	1	10
558.116	1	6
558.286	1	6
558.456	1	6
558.626	1	-4
558.796	1	3
558.966	1	9
559.136	1	11
559.306	1	1
559.476	1	5
559.646	1	-2
559.816	1	13
559.986	1	-1
560.155	1	-2
560.325	1	2
560.495	1	2
560.665	1	8
560.835	1	14
561.005	1	5
561.175	1	10
561.345	1	3
561.515	1	-8
561.685	1	-3
561.855	1	7
562.025	1	9
562.195	1	0
562.365	1	6
562.535	1	2
562.705	1	2
562.875	1	4
563.045	1	7
563.215	1	5
563.385	1	-2
563.555	1	6
563.725	1	12
563.895	1	6
564.064	1	-2
564.234	1	4
564.404	1	9
564.574	1	15
564.744	1	13
564.914	1	5
565.084	1	-5
565.254	1	11
565.424	1	10
565.594	1	-1
565.764	1	-7
565.934	1	17
566.104	1	7
566.274	1	9
566.444	1	-5
566.614	1	4
566.783	1	6
566.953	1	5
567.123	1	5
567.293	1	-3
567.463	1	0
567.633	1	8
567.803	1	17
567.973	1	8
568.143	1	-1
568.313	1	2
568.483	1	8
568.653	1	-5
568.823	1	0
568.993	1	0
569.162	1	3
569.332	1	7
569.502	1	10
569.672	1	-3
569.842	1	2
570.012	1	-7
570.182	1	-1
570.352	1	-7
570.522	1	0
570.692	1	7
570.862	1	5
571.031	1	-6
571.201	1	12
571.371	1	8
571.541	1	4
571.711	1	7
571.881	1	9
572.051	1	1
572.221	1	4
572.391	1	13
572.561	1	8
572.731	1	7
572.900	1	1
573.070	1	7
573.240	1	-2
573.410	1	5
573.580	1	-8
573.750	1	7
573.920	1	3
574.090	1	11
574.260	1	-7
574.430	1	8
574.599	1	1
574.769	1	5
574.939	1	-9
575.109	1	1
575.279	1	6
575.449	1	14
575.619	1	7
575.789	1	1
575.959	1	9
576.128	1	3
576.298	1	0
576.468	1	2
576.638	1	-2
576.808	1	-1
576.978	1	2
577.148	1	-1
577.318	1	23
577.487	1	-5
577.657	1	7
577.827	1	3
577.997	1	11
578.167	1	0
578.337	1	3
578.507	1	3
578.677	1	4
578.846	1	-1
579.016	1	1
579.186	1	12
579.356	1	8
579.526	1	-2
579.696	1	15
579.866	1	-5
580.036	1	2
580.205	1	0
580.375	1	18
580.545	1	-4
580.715	1	3
580.885	1	13
581.055	1	1
581.225	1	4
581.394	1	-1
581.564	1	0
581.734	1	-9
581.904	1	-1
582.074	1	0
582.244	1	8
582.414	1	3
582.583	1	10
582.753	1	15
582.923	1	11
583.093	1	0
583.263	1	8
583.433	1	4
583.603	1	-5
583.772	1	-10
583.942	1	3
584.112	1	6
584.282	1	7
584.452	1	-3
584.622	1	-1
584.791	1	4
584.961	1	-15
585.131	1	8
585.301	1	-5
585.471	1	3
585.641	1	7
585.811	1	0
585.980	1	-3
586.150	1	-3
586.320	1	-4
586.490	1	10
586.660	1	16
586.830	1	1
586.999	1	-2
587.169	1	10
587.339	1	1
587.509	1	7
587.679	1	-2
587.849	1	9
588.018	1	-7
588.188	1	10
588.358	1	6
588.528	1	0
588.698	1	-2
588.867	1	0
589.037	1	-4
589.207	1	3
589.377	1	9
589.547	1	3
589.717	1	-7
589.886	1	0
590.056	1	2
590.226	1	-6
590.396	1	-6
590.566	1	-6
590.735	1	-8
590.905	1	12
591.075	1	1
591.245	1	7
591.415	1	6
591.585	1	16
591.754	1	3
591.924	1	8
592.094	1	-5
592.264	1	-4
592.434	1	-6
592.603	1	-5
592.773	1	2
592.943	1	12
593.113	1	-3
593.283	1	-5
593.452	1	-1
593.622	1	5
593.792	1	14
593.962	1	-4
594.132	1	6
594.301	1	9
594.471	1	2
594.641	1	5
594.811	1	-6
594.981	1	0
595.150	1	5
595.320	1	-3
595.490	1	3
595.660	1	2
595.829	1	-2
595.999	1	5
596.169	1	9
596.339	1	10
596.509	1	5
596.678	1	7
596.848	1	-7
597.018	1	5
597.188	1	-4
597.358	1	-1
597.527	1	-10
597.697	1	-7
597.867	1	9
598.037	1	3
598.206	1	7
598.376	1	-2
598.546	1	2
598.716	1	-4
598.885	1	8
599.055	1	-1
599.225	1	8
599.395	1	8
599.565	1	1
599.734	1	3
599.904	1	-7
600.074	1	9
600.244	1	-5
600.413	1	1
600.583	1	1
600.753	1	2
600.923	1	4
601.092	1	-3
601.262	1	-4
601.432	1	9
601.602	1	16
601.771	1	-1
601.941	1	7
602.111	1	4
602.281	1	-3
602.451	1	-2
602.620	1	8
602.790	1	-10
602.960	1	-1
603.130	1	-12
603.299	1	3
603.469	1	6
603.639	1	-6
603.809	1	9
603.978	1	-9
604.148	1	2
604.318	1	2
604.487	1	-1
604.657	1	-4
604.827	1	10
604.997	1	1
605.166	1	10
605.336	1	0
605.506	1	-2
605.676	1	10
605.845	1	3
606.015	1	-5
606.185	1	-3
606.355	1	-4
606.524	1	4
606.694	1	15
606.864	1	-3
607.034	1	5
607.203	1	10
607.373	1	2
607.543	1	-1
607.712	1	0
607.882	1	0
608.052	1	-4
608.222	1	6
608.391	1	9
608.561	1	-13
608.731	1	-1
608.901	1	6
609.070	1	-11
609.240	1	5
609.410	1	12
609.579	1	5
609.749	1	9
609.919	1	0
610.089	1	-2
610.258	1	-2
610.428	1	-1
610.598	1	8
610.767	1	13
610.937	1	-4
611.107	1	1
611.277	1	-5
611.446	1	2
611.616	1	9
611.786	1	5
611.955	1	2
612.125	1	5
612.295	1	4
612.465	1	-1
612.634	1	3
612.804	1	3
612.974	1	-14
613.143	1	3
613.313	1	5
613.483	1	10
613.652	1	-1
613.822	1	7
613.992	1	0
614.162	1	1
614.331	1	0
614.501	1	-6
614.671	1	-1
614.840	1	-1
615.010	1	0
615.180	1	10
615.349	1	19
615.519	1	-5
615.689	1	-9
615.858	1	8
616.028	1	4
616.198	1	8
616.368	1	-5
616.537	1	0
616.707	1	-1
616.877	1	10
617.046	1	13
617.216	1	9
617.386	1	2
617.555	1	1
617.725	1	11
617.895	1	0
618.064	1	2
618.234	1	-6
618.404	1	-5
618.573	1	10
618.743	1	12
618.913	1	9
619.082	1	-1
619.252	1	4
619.422	1	-7
619.591	1	-3
619.761	1	-6
619.931	1	7
620.100	1	8
620.270	1	11
620.440	1	7
620.609	1	6
620.779	1	4
620.949	1	2
621.118	1	6
621.288	1	-9
621.458	1	9
621.627	1	-3
621.797	1	-5
621.967	1	-1
622.136	1	14
622.306	1	5
622.476	1	-4
622.645	1	-3
622.815	1	-1
622.985	1	1
623.154	1	-2
623.324	1	4
623.494	1	-6
623.663	1	-3
623.833	1	3
624.002	1	5
624.172	1	6
624.342	1	12
624.511	1	5
624.681	1	-6
624.851	1	-1
625.020	1	-6
625.190	1	-1
625.360	1	-3
625.529	1	-8
625.699	1	1
625.869	1	4
626.038	1	0
626.208	1	6
626.377	1	4
626.547	1	-4
626.717	1	-7
626.886	1	-6
627.056	1	7
627.226	1	7
627.395	1	-3
627.565	1	2
627.735	1	3
627.904	1	10
628.074	1	7
628.243	1	0
628.413	1	-7
628.583	1	-1
628.752	1	-7
628.922	1	0
629.091	1	-1
629.261	1	10
629.431	1	9
629.600	1	1
629.770	1	1
629.940	1	-6
630.109	1	2
630.279	1	5
630.448	1	0
630.618	1	7
630.788	1	6
630.957	1	-1
631.127	1	2
631.297	1	2
631.466	1	4
631.636	1	9
631.805	1	5
631.975	1	-4
632.145	1	-1
632.314	1	-6
632.484	1	9
632.653	1	-5
632.823	1	-3
632.993	1	3
633.162	1	-1
633.332	1	-6
633.501	1	-3
633.671	1	-4
633.841	1	2
634.010	1	14
634.180	1	8
634.349	1	10
634.519	1	4
634.689	1	11
634.858	1	-9
635.028	1	-2
635.197	1	2
635.367	1	5
635.537	1	-3
635.706	1	4
635.876	1	3
636.045	1	8
636.215	1	8
636.384	1	-2
636.554	1	0
636.724	1	-1
636.893	1	4
637.063	1	0
637.232	1	1
637.402	1	-5
637.572	1	5
637.741	1	-3
637.911	1	-3
638.080	1	14
638.250	1	3
638.419	1	-3
638.589	1	1
638.759	1	4
638.928	1	11
639.098	1	-4
639.267	1	4
639.437	1	1
639.606	1	11
639.776	1	13
639.946	1	6
640.115	1	-1
640.285	1	3
640.454	1	2
640.624	1	-3
640.793	1	-3
640.963	1	1
641.132	1	9
641.302	1	7
641.472	1	12
641.641	1	2
641.811	1	-3
641.980	1	10
642.150	1	-3
642.319	1	12
642.489	1	-12
642.659	1	-2
642.828	1	-2
642.998	1	7
643.167	1	6
643.337	1	2
643.506	1	1
643.676	1	-2
643.845	1	3
644.015	1	-3
644.184	1	-12
644.354	1	-4
644.524	1	-6
644.693	1	4
644.863	1	10
645.032	1	4
645.202	1	0
645.371	1	-3
645.541	1	4
645.710	1	-2
645.880	1	-6
646.049	1	0
646.219	1	-2
646.388	1	6
646.558	1	3
646.728	1	7
646.897	1	-1
647.067	1	3
647.236	1	7
647.406	1	1
647.575	1	13
647.745	1	9
647.914	1	4
648.084	1	-2
648.253	1	1
648.423	1	-1
648.592	1	-5
648.762	1	12
648.931	1	8
649.101	1	2
649.270	1	-5
649.440	1	3
649.610	1	10
649.779	1	-5
649.949	1	0
650.118	1	-6
650.288	1	4
650.457	1	5
650.627	1	10
650.796	1	-3
650.966	1	-14
651.135	1	6
651.305	1	0
651.474	1	8
651.644	1	5
651.813	1	2
651.983	1	6
652.152	1	5
652.322	1	6
652.491	1	3
652.661	1	-6
652.830	1	-1
653.000	1	0
653.169	1	7
653.339	1	7
653.508	1	9
653.678	1	5
653.847	1	-10
654.017	1	6
654.186	1	-5
654.356	1	-5
654.525	1	0
654.695	1	4
654.864	1	-3
655.034	1	10
655.203	1	-1
655.373	1	15
655.542	1	-7
655.712	1	1
655.881	1	6
656.051	1	2
656.220	1	0
656.390	1	0
656.559	1	-6
656.729	1	8
656.898	1	2
657.068	1	-3
657.237	1	6
657.406	1	-3
657.576	1	0
657.745	1	4
657.915	1	-4
658.084	1	1
658.254	1	-6
658.423	1	7
658.593	1	13
658.762	1	-3
658.932	1	-5
659.101	1	-4
659.271	1	12
659.440	1	4
659.610	1	-10
659.779	1	9
659.949	1	1
660.118	1	7
660.288	1	1
660.457	1	8
660.626	1	6
660.796	1	5
660.965	1	7
661.135	1	-6
661.304	1	-6
661.474	1	9
661.643	1	1
661.813	1	4
661.982	1	5
662.152	1	5
662.321	1	1
662.491	1	-3
662.660	1	4
662.829	1	2
662.999	1	0
663.168	1	6
663.338	1	12
663.507	1	-2
663.677	1	1
663.846	1	-4
664.016	1	1
664.185	1	1
664.354	1	3
664.524	1	1
664.693	1	4
664.863	1	-3
665.032	1	7
665.202	1	-6
665.371	1	-5
665.541	1	16
665.710	1	6
665.879	1	3
666.049	1	-4
666.218	1	1
666.388	1	-2
666.557	1	4
666.727	1	-8
666.896	1	10
667.065	1	4
667.235	1	18
667.404	1	-8
667.574	1	2
667.743	1	-2
667.913	1	3
668.082	1	-6
668.251	1	-5
668.421	1	5
668.590	1	-2
668.760	1	-6
668.929	1	10
669.099	1	8
669.268	1	-5
669.437	1	0
669.607	1	9
669.776	1	3
669.946	1	1
670.115	1	-22
670.285	1	-1
670.454	1	-3
670.623	1	3
670.793	1	2
670.962	1	0
671.132	1	-9
671.301	1	2
671.470	1	-2
671.640	1	-5
671.809	1	-2
671.979	1	8
672.148	1	12
672.317	1	5
672.487	1	-8
672.656	1	-2
672.826	1	1
672.995	1	8
673.164	1	-18
673.334	1	1
673.503	1	-9
673.673	1	11
673.842	1	5
674.011	1	8
674.181	1	3
674.350	1	3
674.520	1	5
674.689	1	-6
674.858	1	-4
675.028	1	-1
675.197	1	7
675.367	1	-7
675.536	1	1
675.705	1	-7
675.875	1	-2
676.044	1	-7
676.214	1	3
676.383	1	13
676.552	1	4
676.722	1	-7
676.891	1	-7
677.060	1	-4
677.230	1	6
677.399	1	-3
677.569	1	11
677.738	1	3
677.907	1	-4
678.077	1	-2
678.246	1	5
678.416	1	-1
678.585	1	-3
678.754	1	3
678.924	1	15
679.093	1	-1
679.262	1	0
679.432	1	12
679.601	1	-5
679.771	1	-4
679.940	1	-2
680.109	1	-3
680.279	1	2
680.448	1	7
680.617	1	-3
680.787	1	1
680.956	1	6
681.125	1	11
681.295	1	-2
681.464	1	-10
681.634	1	1
681.803	1	-2
681.972	1	-6
682.142	1	3
682.311	1	5
682.480	1	2
682.650	1	5
682.819	1	3
682.988	1	-4
683.158	1	1
683.327	1	3
683.496	1	4
683.666	1	6
683.835	1	-4
684.004	1	15
684.174	1	5
684.343	1	1
684.512	1	-8
684.682	1	-5
684.851	1	4
685.021	1	2
685.190	1	-4
685.359	1	-9
685.529	1	0
685.698	1	3
685.867	1	5
686.037	1	2
686.206	1	0
686.375	1	3
686.545	1	7
686.714	1	-7
686.883	1	13
687.053	1	-5
687.222	1	-1
687.391	1	-5
687.561	1	15
687.730	1	6
687.899	1	-6
688.069	1	7
688.238	1	-3
688.407	1	1
688.577	1	-5
688.746	1	14
