340.368	1	1
340.539	1	4
340.710	1	3
340.881	1	-5
341.052	1	-6
341.223	1	14
341.394	1	-8
341.565	1	5
341.737	1	-2
341.908	1	-11
342.079	1	-8
342.250	1	-4
342.421	1	0
342.592	1	5
342.763	1	-1
342.934	1	2
343.105	1	6
343.276	1	4
343.447	1	0
343.618	1	-4
343.789	1	-9
343.960	1	-7
344.131	1	-6
344.302	1	-11
344.473	1	-4
344.644	1	-8
344.815	1	-4
344.986	1	2
345.157	1	10
345.328	1	-7
345.499	1	0
345.670	1	-13
345.841	1	-4
346.012	1	7
346.183	1	2
346.354	1	4
346.526	1	-4
346.697	1	-2
346.868	1	-9
347.039	1	-2
347.210	1	3
347.381	1	-5
347.552	1	1
347.723	1	1
347.894	1	3
348.065	1	0
348.236	1	-3
348.407	1	-3
348.578	1	-2
348.749	1	1
348.920	1	-1
349.091	1	8
349.262	1	-5
349.433	1	-8
349.604	1	8
349.775	1	-1
349.946	1	-11
350.117	1	-4
350.288	1	-1
350.459	1	0
350.630	1	1
350.801	1	10
350.972	1	7
351.143	1	4
351.314	1	-8
351.485	1	-4
351.656	1	-9
351.827	1	6
351.998	1	1
352.169	1	-4
352.340	1	-1
352.511	1	-3
352.682	1	-6
352.853	1	3
353.024	1	-5
353.195	1	3
353.366	1	-5
353.537	1	3
353.708	1	11
353.879	1	-9
354.050	1	-3
354.221	1	-12
354.392	1	8
354.563	1	7
354.734	1	-1
354.905	1	5
355.076	1	-2
355.247	1	4
355.418	1	-9
355.589	1	-7
355.760	1	-7
355.931	1	8
356.102	1	2
356.273	1	-5
356.444	1	0
356.615	1	1
356.785	1	0
356.956	1	-4
357.127	1	-2
357.298	1	-3
357.469	1	-4
357.640	1	-4
357.811	1	-6
357.982	1	-2
358.153	1	4
358.324	1	3
358.495	1	1
358.666	1	-2
358.837	1	8
359.008	1	8
359.179	1	-2
359.350	1	-3
359.521	1	8
359.692	1	-5
359.863	1	-1
360.034	1	9
360.205	1	-7
360.376	1	-4
360.547	1	-5
360.718	1	10
360.889	1	4
361.060	1	-2
361.231	1	-8
361.401	1	-6
361.572	1	1
361.743	1	14
361.914	1	6
362.085	1	-2
362.256	1	-7
362.427	1	-12
362.598	1	-1
362.769	1	2
362.940	1	0
363.111	1	-1
363.282	1	-1
363.453	1	-8
363.624	1	-3
363.795	1	-1
363.966	1	3
364.137	1	4
364.308	1	8
364.478	1	2
364.649	1	0
364.820	1	-4
364.991	1	4
365.162	1	-10
365.333	1	-7
365.504	1	-9
365.675	1	4
365.846	1	-2
366.017	1	-6
366.188	1	-5
366.359	1	1
366.530	1	-3
366.701	1	-2
366.871	1	7
367.042	1	12
367.213	1	-2
367.384	1	-17
367.555	1	-4
367.726	1	-5
367.897	1	10
368.068	1	6
368.239	1	0
368.410	1	-4
368.581	1	1
368.752	1	11
368.923	1	4
369.093	1	1
369.264	1	-8
369.435	1	-2
369.606	1	2
369.777	1	5
369.948	1	-4
370.119	1	1
370.290	1	-6
370.461	1	-1
370.632	1	5
370.803	1	4
370.973	1	-5
371.144	1	2
371.315	1	-5
371.486	1	5
371.657	1	0
371.828	1	14
371.999	1	-12
372.170	1	5
372.341	1	-3
372.512	1	-5
372.682	1	-5
372.853	1	0
373.024	1	-1
373.195	1	0
373.366	1	-6
373.537	1	3
373.708	1	-8
373.879	1	-10
374.050	1	-1
374.220	1	-6
374.391	1	2
374.562	1	-11
374.733	1	-9
374.904	1	8
375.075	1	-1
375.246	1	-15
375.417	1	5
375.588	1	6
375.758	1	-9
375.929	1	-12
376.100	1	-2
376.271	1	-2
376.442	1	-13
376.613	1	-2
376.784	1	3
376.955	1	-13
377.125	1	7
377.296	1	-7
377.467	1	-5
377.638	1	-9
377.809	1	0
377.980	1	2
378.151	1	2
378.321	1	2
378.492	1	9
378.663	1	3
378.834	1	6
379.005	1	-1
379.176	1	-9
379.347	1	8
379.518	1	1
379.688	1	-1
379.859	1	-1
380.030	1	7
380.201	1	6
380.372	1	-5
380.543	1	9
380.714	1	-3
380.884	1	11
381.055	1	-7
381.226	1	-2
381.397	1	0
381.568	1	1
381.739	1	-1
381.910	1	-1
382.080	1	5
382.251	1	-8
382.422	1	-1
382.593	1	1
382.764	1	-11
382.935	1	-3
383.105	1	-10
383.276	1	-4
383.447	1	-3
383.618	1	12
383.789	1	1
383.960	1	-5
384.130	1	-4
384.301	1	4
384.472	1	3
384.643	1	-2
384.814	1	-2
384.985	1	-6
385.156	1	8
385.326	1	1
385.497	1	-8
385.668	1	7
385.839	1	9
386.010	1	5
386.180	1	-3
386.351	1	-7
386.522	1	4
386.693	1	0
386.864	1	8
387.035	1	7
387.205	1	-4
387.376	1	-9
387.547	1	9
387.718	1	6
387.889	1	-2
388.060	1	-4
388.230	1	7
388.401	1	-7
388.572	1	1
388.743	1	-5
388.914	1	-10
389.084	1	12
389.255	1	-4
389.426	1	-3
389.597	1	-1
389.768	1	0
389.939	1	2
390.109	1	-4
390.280	1	-9
390.451	1	-1
390.622	1	5
390.793	1	-2
390.963	1	3
391.134	1	-3
391.305	1	-3
391.476	1	4
391.647	1	4
391.817	1	-7
391.988	1	-17
392.159	1	-5
392.330	1	-7
392.501	1	-2
392.671	1	-5
392.842	1	1
393.013	1	6
393.184	1	-8
393.355	1	10
393.525	1	2
393.696	1	-4
393.867	1	9
394.038	1	-8
394.208	1	9
394.379	1	-17
394.550	1	-2
394.721	1	-4
394.892	1	-4
395.062	1	6
395.233	1	-3
395.404	1	-2
395.575	1	-4
395.746	1	3
395.916	1	-1
396.087	1	-4
396.258	1	-1
396.429	1	2
396.599	1	8
396.770	1	8
396.941	1	-3
397.112	1	-11
397.283	1	-2
397.453	1	3
397.624	1	-1
397.795	1	-4
397.966	1	3
398.136	1	-9
398.307	1	-3
398.478	1	2
398.649	1	-6
398.819	1	1
398.990	1	-9
399.161	1	4
399.332	1	5
399.503	1	5
399.673	1	-17
399.844	1	0
400.015	1	-4
400.186	1	0
400.356	1	7
400.527	1	10
400.698	1	-9
400.869	1	-16
401.039	1	-11
401.210	1	0
401.381	1	-2
401.552	1	1
401.722	1	-6
401.893	1	2
402.064	1	-1
402.235	1	-10
402.405	1	1
402.576	1	-9
402.747	1	7
402.918	1	-1
403.088	1	1
403.259	1	-2
403.430	1	0
403.601	1	3
403.771	1	7
403.942	1	-5
404.113	1	3
404.284	1	3
404.454	1	8
404.625	1	-2
404.796	1	-7
404.967	1	1
405.137	1	-1
405.308	1	8
405.479	1	4
405.649	1	7
405.820	1	-2
405.991	1	0
406.162	1	4
406.332	1	-16
406.503	1	1
406.674	1	2
406.845	1	-3
407.015	1	-7
407.186	1	-1
407.357	1	2
407.527	1	-1
407.698	1	0
407.869	1	6
408.040	1	2
408.210	1	-1
408.381	1	-12
408.552	1	-1
408.722	1	-11
408.893	1	-2
409.064	1	-2
409.235	1	0
409.405	1	3
409.576	1	2
409.747	1	10
409.917	1	9
410.088	1	4
410.259	1	-9
410.430	1	-11
410.600	1	-7
410.771	1	3
410.942	1	2
411.112	1	0
411.283	1	-9
411.454	1	-5
411.625	1	-11
411.795	1	4
411.966	1	7
412.137	1	14
412.307	1	6
412.478	1	-3
412.649	1	-7
412.819	1	2
412.990	1	-7
413.161	1	-13
413.332	1	-4
413.502	1	7
413.673	1	20
413.844	1	10
414.014	1	-6
414.185	1	-1
414.356	1	0
414.526	1	1
414.697	1	12
414.868	1	-6
415.038	1	11
415.209	1	-10
415.380	1	7
415.550	1	-2
415.721	1	2
415.892	1	0
416.063	1	8
416.233	1	-3
416.404	1	-2
416.575	1	-5
416.745	1	-7
416.916	1	-7
417.087	1	3
417.257	1	7
417.428	1	-2
417.599	1	-3
417.769	1	0
417.940	1	-2
418.111	1	5
418.281	1	-3
418.452	1	1
418.623	1	-8
418.793	1	2
418.964	1	-8
419.135	1	-3
419.305	1	-10
419.476	1	4
419.647	1	3
419.817	1	9
419.988	1	-12
420.159	1	0
420.329	1	-10
420.500	1	6
420.671	1	-6
420.841	1	4
421.012	1	-4
421.183	1	6
421.353	1	2
421.524	1	4
421.695	1	3
421.865	1	6
422.036	1	5
422.206	1	-1
422.377	1	2
422.548	1	6
422.718	1	-6
422.889	1	-1
423.060	1	-8
423.230	1	2
423.401	1	-8
423.572	1	16
423.742	1	-9
423.913	1	-6
424.084	1	-3
424.254	1	-3
424.425	1	-8
424.595	1	-4
424.766	1	6
424.937	1	8
425.107	1	-2
425.278	1	-6
425.449	1	-5
425.619	1	-2
425.790	1	-4
425.961	1	-1
426.131	1	-5
426.302	1	0
426.472	1	-10
426.643	1	-8
426.814	1	-3
426.984	1	-3
427.155	1	-19
427.326	1	1
427.496	1	-6
427.667	1	3
427.837	1	-6
428.008	1	3
428.179	1	-6
428.349	1	-6
428.520	1	8
428.691	1	-1
428.861	1	-1
429.032	1	-7
429.202	1	-1
429.373	1	3
429.544	1	2
429.714	1	-5
429.885	1	-2
430.055	1	-4
430.226	1	5
430.397	1	-5
430.567	1	1
430.738	1	1
430.909	1	-5
431.079	1	-1
431.250	1	-5
431.420	1	-7
431.591	1	-10
431.762	1	-4
431.932	1	-6
432.103	1	5
432.273	1	1
432.444	1	-6
432.615	1	-6
432.785	1	-2
432.956	1	1
433.126	1	4
433.297	1	-3
433.468	1	-4
433.638	1	4
433.809	1	-7
433.979	1	4
434.150	1	10
434.320	1	11
434.491	1	-1
434.662	1	-3
434.832	1	-1
435.003	1	10
435.173	1	-9
435.344	1	5
435.515	1	-9
435.685	1	-10
435.856	1	-7
436.026	1	4
436.197	1	-5
436.368	1	8
436.538	1	-3
436.709	1	-8
436.879	1	5
437.050	1	-2
437.220	1	-11
437.391	1	7
437.562	1	4
437.732	1	-3
437.903	1	-15
438.073	1	-5
438.244	1	-6
438.414	1	-8
438.585	1	-5
438.756	1	4
438.926	1	0
439.097	1	8
439.267	1	-7
439.438	1	2
439.608	1	3
439.779	1	-4
439.949	1	-6
440.120	1	-7
440.291	1	-3
440.461	1	9
440.632	1	2
440.802	1	7
440.973	1	3
441.143	1	5
441.314	1	-6
441.485	1	2
441.655	1	-6
441.826	1	-7
441.996	1	-6
442.167	1	8
442.337	1	-6
442.508	1	-5
442.678	1	-5
442.849	1	-14
443.019	1	0
443.190	1	10
443.361	1	3
443.531	1	2
443.702	1	-13
443.872	1	3
444.043	1	-1
444.213	1	2
444.384	1	-16
444.554	1	-4
444.725	1	6
444.895	1	-9
445.066	1	4
445.237	1	-2
445.407	1	6
445.578	1	6
445.748	1	-2
445.919	1	-1
446.089	1	-4
446.260	1	-10
446.430	1	-10
446.601	1	1
446.771	1	-10
446.942	1	-5
447.112	1	2
447.283	1	-2
447.453	1	-3
447.624	1	-6
447.794	1	10
447.965	1	-4
448.135	1	-5
448.306	1	-9
448.477	1	4
448.647	1	-1
448.818	1	-2
448.988	1	-9
449.159	1	10
449.329	1	4
449.500	1	-2
449.670	1	3
449.841	1	-3
450.011	1	-2
450.182	1	-11
450.352	1	8
450.523	1	5
450.693	1	3
450.864	1	-8
451.034	1	12
451.205	1	-5
451.375	1	1
451.546	1	-4
451.716	1	9
451.887	1	-4
452.057	1	2
452.228	1	4
452.398	1	6
452.569	1	-9
452.739	1	1
452.910	1	-2
453.080	1	-4
453.251	1	-3
453.421	1	-5
453.592	1	7
453.762	1	-5
453.933	1	2
454.103	1	-1
454.274	1	-2
454.444	1	1
454.615	1	12
454.785	1	-5
454.956	1	6
455.126	1	-6
455.297	1	2
455.467	1	-18
455.638	1	5
455.808	1	-6
455.979	1	-6
456.149	1	5
456.320	1	12
456.490	1	-10
456.661	1	-19
456.831	1	-1
457.001	1	7
457.172	1	4
457.342	1	0
457.513	1	2
457.683	1	4
457.854	1	5
458.024	1	-10
458.195	1	-3
458.365	1	10
458.536	1	-5
458.706	1	-1
458.877	1	0
459.047	1	5
459.218	1	-3
459.388	1	-4
459.559	1	2
459.729	1	-8
459.899	1	-8
460.070	1	-6
460.240	1	8
460.411	1	2
460.581	1	2
460.752	1	3
460.922	1	4
461.093	1	5
461.263	1	-1
461.434	1	5
461.604	1	2
461.775	1	-4
461.945	1	-1
462.115	1	-2
462.286	1	2
462.456	1	0
462.627	1	5
462.797	1	-12
462.968	1	-10
463.138	1	-2
463.309	1	1
463.479	1	3
463.649	1	-5
463.820	1	-1
463.990	1	7
464.161	1	0
464.331	1	14
464.502	1	1
464.672	1	-3
464.843	1	-5
465.013	1	-7
465.183	1	-1
465.354	1	9
465.524	1	-6
465.695	1	0
465.865	1	3
466.036	1	-1
466.206	1	-3
466.376	1	-14
466.547	1	-4
466.717	1	-6
466.888	1	-1
467.058	1	-4
467.229	1	5
467.399	1	-4
467.569	1	3
467.740	1	10
467.910	1	2
468.081	1	-8
468.251	1	0
468.422	1	-9
468.592	1	10
468.762	1	-6
468.933	1	10
469.103	1	3
469.274	1	1
469.444	1	2
469.614	1	1
469.785	1	3
469.955	1	9
470.126	1	-8
470.296	1	-7
470.467	1	-22
470.637	1	0
470.807	1	12
470.978	1	2
471.148	1	-8
471.319	1	8
471.489	1	-10
471.659	1	-1
471.830	1	5
472.000	1	-10
472.171	1	2
472.341	1	-6
472.511	1	5
472.682	1	-4
472.852	1	-3
473.023	1	1
473.193	1	-3
473.363	1	-3
473.534	1	-7
473.704	1	-1
473.875	1	-3
474.045	1	-9
474.215	1	8
474.386	1	0
474.556	1	3
474.727	1	-5
474.897	1	4
475.067	1	-8
475.238	1	-10
475.408	1	-8
475.578	1	1
475.749	1	-2
475.919	1	-2
476.090	1	-3
476.260	1	-2
476.430	1	13
476.601	1	10
476.771	1	-1
476.942	1	7
477.112	1	-6
477.282	1	-5
477.453	1	-1
477.623	1	0
477.793	1	-6
477.964	1	-3
478.134	1	4
478.305	1	-1
478.475	1	3
478.645	1	1
478.816	1	2
478.986	1	-5
479.156	1	-10
479.327	1	-2
479.497	1	-5
479.667	1	9
479.838	1	-9
480.008	1	-10
480.179	1	-15
480.349	1	-2
480.519	1	-8
480.690	1	-1
480.860	1	0
481.030	1	4
481.201	1	-9
481.371	1	5
481.541	1	7
481.712	1	7
481.882	1	-10
482.053	1	2
482.223	1	-3
482.393	1	1
482.564	1	0
482.734	1	4
482.904	1	3
483.075	1	-5
483.245	1	0
483.415	1	2
483.586	1	2
483.756	1	7
483.926	1	-1
484.097	1	-1
484.267	1	-10
484.437	1	-1
484.608	1	1
484.778	1	-4
484.948	1	1
485.119	1	-9
485.289	1	6
485.459	1	-2
485.630	1	3
485.800	1	-3
485.970	1	0
486.141	1	3
486.311	1	-2
486.481	1	9
486.652	1	-5
486.822	1	-7
486.992	1	10
487.163	1	-1
487.333	1	-2
487.503	1	1
487.674	1	5
487.844	1	-16
488.014	1	5
488.185	1	-3
488.355	1	-2
488.525	1	-1
488.696	1	-10
488.866	1	-12
489.036	1	9
489.207	1	-1
489.377	1	-3
489.547	1	-8
489.718	1	-3
489.888	1	3
490.058	1	6
490.228	1	-4
490.399	1	-6
490.569	1	-1
490.739	1	6
490.910	1	-3
491.080	1	-8
491.250	1	0
491.421	1	2
491.591	1	-9
491.761	1	3
491.932	1	3
492.102	1	-9
492.272	1	6
492.442	1	-2
492.613	1	8
492.783	1	-3
492.953	1	-9
493.124	1	5
493.294	1	3
493.464	1	5
493.635	1	-5
493.805	1	7
493.975	1	-5
494.145	1	7
494.316	1	8
494.486	1	2
494.656	1	-7
494.827	1	2
494.997	1	-1
495.167	1	3
495.337	1	-7
495.508	1	-4
495.678	1	-2
495.848	1	3
496.019	1	-1
496.189	1	-5
496.359	1	-2
496.529	1	-2
496.700	1	-5
496.870	1	5
497.040	1	0
497.211	1	-1
497.381	1	-3
497.551	1	-3
497.721	1	-1
497.892	1	11
498.062	1	6
498.232	1	8
498.403	1	-1
498.573	1	-7
498.743	1	5
498.913	1	5
499.084	1	0
499.254	1	-7
499.424	1	-4
499.594	1	-3
499.765	1	5
499.935	1	-2
500.105	1	5
500.275	1	-1
500.446	1	-4
500.616	1	-2
500.786	1	2
500.956	1	0
501.127	1	0
501.297	1	-6
501.467	1	-3
501.638	1	6
501.808	1	-11
501.978	1	-8
502.148	1	-11
502.319	1	9
502.489	1	0
502.659	1	5
502.829	1	-2
503.000	1	-1
503.170	1	-3
503.340	1	10
503.510	1	-6
503.681	1	0
503.851	1	-1
504.021	1	-2
504.191	1	0
504.362	1	-1
504.532	1	-3
504.702	1	-2
504.872	1	-10
505.042	1	-9
505.213	1	5
505.383	1	1
505.553	1	2
505.723	1	10
505.894	1	-11
506.064	1	2
506.234	1	-5
506.404	1	-1
506.575	1	-7
506.745	1	14
506.915	1	5
507.085	1	-6
507.256	1	-6
507.426	1	-5
507.596	1	-1
507.766	1	6
507.936	1	-3
508.107	1	8
508.277	1	-9
508.447	1	-10
508.617	1	1
508.788	1	5
508.958	1	2
509.128	1	5
509.298	1	-5
509.468	1	3
509.639	1	-8
509.809	1	5
509.979	1	-5
510.149	1	10
510.319	1	-5
510.490	1	-3
510.660	1	4
510.830	1	3
511.000	1	-7
511.171	1	0
511.341	1	-2
511.511	1	-2
511.681	1	3
511.851	1	0
512.022	1	-10
512.192	1	3
512.362	1	-1
512.532	1	-12
512.702	1	-3
512.873	1	5
513.043	1	3
513.213	1	12
513.383	1	-1
513.553	1	8
513.724	1	-5
513.894	1	2
514.064	1	6
514.234	1	9
514.404	1	12
514.575	1	0
514.745	1	-5
514.915	1	-15
515.085	1	-7
515.255	1	0
515.425	1	-1
515.596	1	5
515.766	1	-2
515.936	1	4
516.106	1	6
516.276	1	1
516.447	1	-1
516.617	1	-5
516.787	1	2
516.957	1	2
517.127	1	0
517.297	1	2
517.468	1	-6
517.638	1	-6
517.808	1	3
517.978	1	5
518.148	1	-5
518.319	1	-1
518.489	1	2
518.659	1	0
518.829	1	-4
518.999	1	11
519.169	1	2
519.340	1	1
519.510	1	4
519.680	1	0
519.850	1	-6
520.020	1	-9
520.190	1	-6
520.361	1	-3
520.531	1	9
520.701	1	6
520.871	1	-2
521.041	1	6
521.211	1	2
521.382	1	-6
521.552	1	6
521.722	1	6
521.892	1	3
522.062	1	-3
522.232	1	2
522.402	1	6
522.573	1	2
522.743	1	3
522.913	1	-4
523.083	1	3
523.253	1	1
523.423	1	-8
523.593	1	-4
523.764	1	-4
523.934	1	-5
524.104	1	-6
524.274	1	-5
524.444	1	7
524.614	1	9
524.784	1	-2
524.955	1	12
525.125	1	3
525.295	1	-5
525.465	1	3
525.635	1	3
525.805	1	10
525.975	1	-10
526.146	1	-5
526.316	1	-10
526.486	1	-7
526.656	1	0
526.826	1	-5
526.996	1	-4
527.166	1	-8
527.337	1	-6
527.507	1	4
527.677	1	2
527.847	1	4
528.017	1	-10
528.187	1	5
528.357	1	12
528.527	1	4
528.698	1	-12
528.868	1	-9
529.038	1	2
529.208	1	-10
529.378	1	2
529.548	1	-2
529.718	1	2
529.888	1	-3
530.058	1	0
530.229	1	5
530.399	1	-13
530.569	1	2
530.739	1	-5
530.909	1	-10
531.079	1	-13
531.249	1	-5
531.419	1	2
531.589	1	2
531.760	1	-4
531.930	1	-1
532.100	1	-8
532.270	1	2
532.440	1	-5
532.610	1	3
532.780	1	2
532.950	1	1
533.120	1	12
533.290	1	-3
533.461	1	-10
533.631	1	0
533.801	1	0
533.971	1	-4
534.141	1	-2
534.311	1	2
534.481	1	4
534.651	1	-9
534.821	1	-3
534.991	1	-1
535.162	1	-3
535.332	1	0
535.502	1	-11
535.672	1	-7
535.842	1	-6
536.012	1	-6
536.182	1	2
536.352	1	2
536.522	1	1
536.692	1	0
536.862	1	-9
537.032	1	3
537.203	1	-5
537.373	1	7
537.543	1	-11
537.713	1	3
537.883	1	4
538.053	1	-3
538.223	1	4
538.393	1	-1
538.563	1	11
538.733	1	10
538.903	1	-4
539.073	1	-5
539.243	1	2
539.413	1	-4
539.584	1	6
539.754	1	10
539.924	1	13
540.094	1	-8
540.264	1	-10
540.434	1	2
540.604	1	8
540.774	1	-3
540.944	1	-2
541.114	1	-2
541.284	1	-3
541.454	1	1
541.624	1	10
541.794	1	3
541.964	1	-7
542.134	1	0
542.305	1	1
542.475	1	-8
542.645	1	0
542.815	1	-8
542.985	1	-6
543.155	1	-12
543.325	1	4
543.495	1	15
543.665	1	-4
543.835	1	-6
544.005	1	1
544.175	1	-4
544.345	1	-10
544.515	1	-6
544.685	1	12
544.855	1	3
545.025	1	0
545.195	1	-3
545.365	1	-8
545.535	1	-4
545.705	1	11
545.875	1	-2
546.045	1	-6
546.216	1	-13
546.386	1	2
546.556	1	-4
546.726	1	-3
546.896	1	2
547.066	1	2
547.236	1	0
547.406	1	-3
547.576	1	-4
547.746	1	15
547.916	1	4
548.086	1	-1
548.256	1	-10
548.426	1	-1
548.596	1	-2
548.766	1	6
548.936	1	6
549.106	1	0
549.276	1	20
549.446	1	-7
549.616	1	0
549.786	1	-2
549.956	1	-7
550.126	1	-7
550.296	1	2
550.466	1	7
550.636	1	7
550.806	1	6
550.976	1	-2
551.146	1	-7
551.316	1	-1
551.486	1	-3
551.656	1	3
551.826	1	9
551.996	1	-7
552.166	1	-6
552.336	1	0
552.506	1	7
552.676	1	1
552.846	1	-4
553.016	1	5
553.186	1	5
553.356	1	1
553.526	1	-4
553.696	1	18
553.866	1	5
554.036	1	-10
554.206	1	-3
554.376	1	-13
554.546	1	-2
554.716	1	-9
554.886	1	18
555.056	1	2
555.226	1	3
555.396	1	-4
555.566	1	-1
555.736	1	0
555.906	1	1
556.076	1	1
556.246	1	3
556.416	1	-7
556.586	1	-6
556.756	1	-11
556.926	1	-5
557.096	1	-3
557.266	1	-1
557.436	1	-4
557.606	1	-6
557.776	1	8
557.946	1	-6
558.116	1	-1
558.286	1	-3
558.456	1	-3
558.626	1	-7
558.796	1	-9
558.966	1	-8
559.136	1	-5
559.306	1	-3
559.476	1	9
559.646	1	-2
559.816	1	3
559.986	1	-15
560.155	1	9
560.325	1	3
560.495	1	5
560.665	1	-7
560.835	1	1
561.005	1	1
561.175	1	5
561.345	1	-12
561.515	1	-11
561.685	1	-8
561.855	1	-1
562.025	1	2
562.195	1	5
562.365	1	1
562.535	1	-9
562.705	1	-9
562.875	1	-3
563.045	1	-5
563.215	1	2
563.385	1	-12
563.555	1	-1
563.725	1	5
563.895	1	0
564.064	1	-14
564.234	1	-10
564.404	1	-3
564.574	1	18
564.744	1	-1
564.914	1	-2
565.084	1	-12
565.254	1	-1
565.424	1	-2
565.594	1	-7
565.764	1	-12
565.934	1	7
566.104	1	0
566.274	1	7
566.444	1	-12
566.614	1	1
566.783	1	-6
566.953	1	3
567.123	1	3
567.293	1	1
567.463	1	2
567.633	1	4
567.803	1	12
567.973	1	6
568.143	1	1
568.313	1	0
568.483	1	10
568.653	1	-10
568.823	1	-9
568.993	1	-7
569.162	1	-8
569.332	1	3
569.502	1	1
569.672	1	9
569.842	1	-2
570.012	1	3
570.182	1	-2
570.352	1	-5
570.522	1	-4
570.692	1	-3
570.862	1	0
571.031	1	3
571.201	1	3
571.371	1	-4
571.541	1	-12
571.711	1	-2
571.881	1	1
572.051	1	4
572.221	1	8
572.391	1	1
572.561	1	4
572.731	1	0
572.900	1	-2
573.070	1	11
573.240	1	-2
573.410	1	4
573.580	1	-9
573.750	1	-3
573.920	1	-1
574.090	1	0
574.260	1	0
574.430	1	6
574.599	1	10
574.769	1	0
574.939	1	-1
575.109	1	-13
575.279	1	1
575.449	1	9
575.619	1	8
575.789	1	-8
575.959	1	-1
576.128	1	3
576.298	1	-9
576.468	1	1
576.638	1	-11
576.808	1	-1
576.978	1	-2
577.148	1	-1
577.318	1	14
577.487	1	-5
577.657	1	1
577.827	1	-1
577.997	1	5
578.167	1	0
578.337	1	-4
578.507	1	-5
578.677	1	-9
578.846	1	11
579.016	1	-4
579.186	1	0
579.356	1	4
579.526	1	0
579.696	1	7
579.866	1	-12
580.036	1	2
580.205	1	-8
580.375	1	4
580.545	1	-13
580.715	1	-2
580.885	1	2
581.055	1	-2
581.225	1	-1
581.394	1	-11
581.564	1	-5
581.734	1	-9
581.904	1	-1
582.074	1	-2
582.244	1	-4
582.414	1	0
582.583	1	8
582.753	1	11
582.923	1	0
583.093	1	-1
583.263	1	-4
583.433	1	-5
583.603	1	-12
583.772	1	-6
583.942	1	0
584.112	1	-7
584.282	1	2
584.452	1	-1
584.622	1	5
584.791	1	-7
584.961	1	-14
585.131	1	2
585.301	1	-8
585.471	1	-15
585.641	1	4
585.811	1	-1
585.980	1	1
586.150	1	-2
586.320	1	0
586.490	1	2
586.660	1	7
586.830	1	-10
586.999	1	-5
587.169	1	7
587.339	1	-3
587.509	1	-2
587.679	1	-3
587.849	1	5
588.018	1	-6
588.188	1	6
588.358	1	0
588.528	1	-10
588.698	1	-8
588.867	1	-6
589.037	1	-6
589.207	1	-6
589.377	1	0
589.547	1	0
589.717	1	-6
589.886	1	1
590.056	1	-1
590.226	1	-4
590.396	1	-12
590.566	1	-7
590.735	1	-8
590.905	1	5
591.075	1	-9
591.245	1	6
591.415	1	8
591.585	1	1
591.754	1	1
591.924	1	-5
592.094	1	-10
592.264	1	-6
592.434	1	-5
592.603	1	-4
592.773	1	6
592.943	1	2
593.113	1	0
593.283	1	-1
593.452	1	-10
593.622	1	-9
593.792	1	-2
593.962	1	4
594.132	1	-3
594.301	1	11
594.471	1	0
594.641	1	4
594.811	1	-16
594.981	1	-1
595.150	1	5
595.320	1	-4
595.490	1	4
595.660	1	-5
595.829	1	-14
595.999	1	-6
596.169	1	7
596.339	1	6
596.509	1	-4
596.678	1	1
596.848	1	5
597.018	1	-3
597.188	1	0
597.358	1	-2
597.527	1	4
597.697	1	-8
597.867	1	5
598.037	1	1
598.206	1	5
598.376	1	-5
598.546	1	5
598.716	1	-11
598.885	1	-9
599.055	1	0
599.225	1	6
599.395	1	4
599.565	1	-7
599.734	1	2
599.904	1	-10
600.074	1	3
600.244	1	2
600.413	1	1
600.583	1	-5
600.753	1	-4
600.923	1	-8
601.092	1	1
601.262	1	-4
601.432	1	3
601.602	1	13
601.771	1	1
601.941	1	4
602.111	1	6
602.281	1	-1
602.451	1	-6
602.620	1	-2
602.790	1	0
602.960	1	-10
603.130	1	2
603.299	1	0
603.469	1	-3
603.639	1	-12
603.809	1	4
603.978	1	-5
604.148	1	1
604.318	1	-4
604.487	1	2
604.657	1	-7
604.827	1	-3
604.997	1	6
605.166	1	3
605.336	1	-9
605.506	1	-13
605.676	1	4
605.845	1	-8
606.015	1	-6
606.185	1	0
606.355	1	-8
606.524	1	-5
606.694	1	-5
606.864	1	-12
607.034	1	7
607.203	1	14
607.373	1	-1
607.543	1	-3
607.712	1	-5
607.882	1	1
608.052	1	0
608.222	1	6
608.391	1	3
608.561	1	-11
608.731	1	-5
608.901	1	2
609.070	1	-7
609.240	1	-6
609.410	1	-3
609.579	1	-2
609.749	1	2
609.919	1	-6
610.089	1	-5
610.258	1	-4
610.428	1	3
610.598	1	5
610.767	1	3
610.937	1	3
611.107	1	-6
611.277	1	-7
611.446	1	-2
611.616	1	8
611.786	1	-5
611.955	1	-5
612.125	1	6
612.295	1	3
612.465	1	2
612.634	1	-2
612.804	1	-5
612.974	1	-8
613.143	1	-4
613.313	1	-2
613.483	1	7
613.652	1	7
613.822	1	4
613.992	1	-7
614.162	1	3
614.331	1	-5
614.501	1	-3
614.671	1	-1
614.840	1	-1
615.010	1	1
615.180	1	5
615.349	1	10
615.519	1	2
615.689	1	-17
615.858	1	8
616.028	1	-1
616.198	1	11
616.368	1	-4
616.537	1	-1
616.707	1	-4
616.877	1	-4
617.046	1	11
617.216	1	0
617.386	1	3
617.555	1	-7
617.725	1	6
617.895	1	2
618.064	1	4
618.234	1	-5
618.404	1	-7
618.573	1	3
618.743	1	16
618.913	1	14
619.082	1	-5
619.252	1	-9
619.422	1	-6
619.591	1	-1
619.761	1	4
619.931	1	5
620.100	1	8
620.270	1	0
620.440	1	4
620.609	1	11
620.779	1	7
620.949	1	0
621.118	1	-3
621.288	1	5
621.458	1	0
621.627	1	-5
621.797	1	-4
621.967	1	3
622.136	1	-4
622.306	1	2
622.476	1	-10
622.645	1	7
622.815	1	-5
622.985	1	-2
623.154	1	-3
623.324	1	2
623.494	1	-5
623.663	1	1
623.833	1	2
624.002	1	-8
624.172	1	-1
624.342	1	2
624.511	1	0
624.681	1	-7
624.851	1	-5
625.020	1	2
625.190	1	-3
625.360	1	-8
625.529	1	-13
625.699	1	-4
625.869	1	0
626.038	1	-6
626.208	1	5
626.377	1	-1
626.547	1	-2
626.717	1	-11
626.886	1	5
627.056	1	-1
627.226	1	-3
627.395	1	-2
627.565	1	4
627.735	1	1
627.904	1	1
628.074	1	1
628.243	1	2
628.413	1	-4
628.583	1	5
628.752	1	-3
628.922	1	6
629.091	1	-3
629.261	1	5
629.431	1	-3
629.600	1	5
629.770	1	-4
629.940	1	-8
630.109	1	3
630.279	1	10
630.448	1	-1
630.618	1	2
630.788	1	-2
630.957	1	8
631.127	1	-3
631.297	1	-8
631.466	1	-3
631.636	1	9
631.805	1	-2
631.975	1	-6
632.145	1	8
632.314	1	7
632.484	1	5
632.653	1	-4
632.823	1	-2
632.993	1	6
633.162	1	-7
633.332	1	-3
633.501	1	-2
633.671	1	-5
633.841	1	-1
634.010	1	9
634.180	1	11
634.349	1	0
634.519	1	6
634.689	1	-10
634.858	1	-12
635.028	1	0
635.197	1	4
635.367	1	-6
635.537	1	-2
635.706	1	0
635.876	1	1
636.045	1	1
636.215	1	16
636.384	1	-3
636.554	1	6
636.724	1	2
636.893	1	-5
637.063	1	3
637.232	1	10
637.402	1	0
637.572	1	-2
637.741	1	-9
637.911	1	-4
638.080	1	-3
638.250	1	4
638.419	1	2
638.589	1	0
638.759	1	3
638.928	1	-2
639.098	1	-1
639.267	1	9
639.437	1	-6
639.606	1	11
639.776	1	5
639.946	1	8
640.115	1	-5
640.285	1	2
640.454	1	0
640.624	1	1
640.793	1	3
640.963	1	0
641.132	1	5
641.302	1	2
641.472	1	-6
641.641	1	-8
641.811	1	-6
641.980	1	0
642.150	1	-11
642.319	1	4
642.489	1	-6
642.659	1	4
642.828	1	4
642.998	1	6
643.167	1	-12
643.337	1	-7
643.506	1	-3
643.676	1	-5
643.845	1	10
644.015	1	-6
644.184	1	-12
644.354	1	-9
644.524	1	4
644.693	1	-6
644.863	1	7
645.032	1	-6
645.202	1	-2
645.371	1	-3
645.541	1	2
645.710	1	1
645.880	1	-5
646.049	1	10
646.219	1	-9
646.388	1	-2
646.558	1	-3
646.728	1	-5
646.897	1	-4
647.067	1	-4
647.236	1	6
647.406	1	9
647.575	1	3
647.745	1	-5
647.914	1	-8
648.084	1	-6
648.253	1	-10
648.423	1	2
648.592	1	-6
648.762	1	10
648.931	1	6
649.101	1	0
649.270	1	-2
649.440	1	0
649.610	1	-1
649.779	1	-2
649.949	1	0
650.118	1	-5
650.288	1	0
650.457	1	3
650.627	1	-3
650.796	1	-2
650.966	1	-20
651.135	1	-5
651.305	1	-3
651.474	1	4
651.644	1	10
651.813	1	-2
651.983	1	-3
652.152	1	11
652.322	1	4
652.491	1	-3
652.661	1	-4
652.830	1	2
653.000	1	-1
653.169	1	4
653.339	1	2
653.508	1	-9
653.678	1	-6
653.847	1	-8
654.017	1	3
654.186	1	-5
654.356	1	-16
654.525	1	-11
654.695	1	-4
654.864	1	-16
655.034	1	0
655.203	1	2
655.373	1	5
655.542	1	-2
655.712	1	4
655.881	1	18
656.051	1	1
656.220	1	-2
656.390	1	1
656.559	1	-11
656.729	1	-3
656.898	1	-4
657.068	1	-5
657.237	1	2
657.406	1	3
657.576	1	-8
657.745	1	-2
657.915	1	-4
658.084	1	5
658.254	1	-2
658.423	1	2
658.593	1	3
658.762	1	1
658.932	1	-3
659.101	1	-14
659.271	1	-2
659.440	1	1
659.610	1	-3
659.779	1	14
659.949	1	2
660.118	1	1
660.288	1	-14
660.457	1	0
660.626	1	1
660.796	1	-2
660.965	1	-6
661.135	1	3
661.304	1	-10
661.474	1	-6
661.643	1	1
661.813	1	-1
661.982	1	-2
662.152	1	2
662.321	1	-11
662.491	1	-12
662.660	1	7
662.829	1	8
662.999	1	-2
663.168	1	3
663.338	1	3
663.507	1	4
663.677	1	10
663.846	1	4
664.016	1	-2
664.185	1	-7
664.354	1	12
664.524	1	-2
664.693	1	-2
664.863	1	-10
665.032	1	3
665.202	1	-3
665.371	1	-13
665.541	1	14
665.710	1	1
665.879	1	-1
666.049	1	-1
666.218	1	-1
666.388	1	0
666.557	1	3
666.727	1	-6
666.896	1	4
667.065	1	-5
667.235	1	16
667.404	1	-3
667.574	1	-7
667.743	1	-6
667.913	1	12
668.082	1	-6
668.251	1	7
668.421	1	-2
668.590	1	2
668.760	1	1
668.929	1	1
669.099	1	-13
669.268	1	1
669.437	1	0
669.607	1	4
669.776	1	15
669.946	1	-2
670.115	1	-16
670.285	1	6
670.454	1	-1
670.623	1	-5
670.793	1	-5
670.962	1	2
671.132	1	-10
671.301	1	5
671.470	1	1
671.640	1	0
671.809	1	-8
671.979	1	3
672.148	1	5
672.317	1	-7
672.487	1	-3
672.656	1	-12
672.826	1	-2
672.995	1	6
673.164	1	-10
673.334	1	-4
673.503	1	-7
673.673	1	-4
673.842	1	-3
674.011	1	13
674.181	1	-3
674.350	1	-2
674.520	1	5
674.689	1	-12
674.858	1	-10
675.028	1	1
675.197	1	5
675.367	1	-12
675.536	1	8
675.705	1	2
675.875	1	-7
676.044	1	-10
676.214	1	0
676.383	1	8
676.552	1	-3
676.722	1	-11
676.891	1	-1
677.060	1	1
677.230	1	10
677.399	1	-13
677.569	1	11
677.738	1	6
677.907	1	-8
678.077	1	-4
678.246	1	2
678.416	1	3
678.585	1	-2
678.754	1	0
678.924	1	15
679.093	1	3
679.262	1	0
679.432	1	6
679.601	1	-7
679.771	1	-1
679.940	1	4
680.109	1	-1
680.279	1	-1
680.448	1	0
680.617	1	1
680.787	1	0
680.956	1	0
681.125	1	-3
681.295	1	0
681.464	1	-12
681.634	1	4
681.803	1	2
681.972	1	-6
682.142	1	3
682.311	1	6
682.480	1	-7
682.650	1	1
682.819	1	-2
682.988	1	-18
683.158	1	3
683.327	1	11
683.496	1	6
683.666	1	4
683.835	1	-6
684.004	1	0
684.174	1	-2
684.343	1	2
684.512	1	-5
684.682	1	-2
684.851	1	6
685.021	1	0
685.190	1	-5
685.359	1	-8
685.529	1	0
685.698	1	-1
685.867	1	-1
686.037	1	1
686.206	1	-8
686.375	1	2
686.545	1	11
686.714	1	-5
686.883	1	9
687.053	1	-4
687.222	1	-8
687.391	1	-7
687.561	1	0
687.730	1	0
687.899	1	-5
688.069	1	8
688.238	1	0
688.407	1	6
688.577	1	-5
688.746	1	8
