340.368	1	5
340.539	1	8
340.710	1	-2
340.881	1	2
341.052	1	-1
341.223	1	-1
341.394	1	0
341.565	1	5
341.737	1	0
341.908	1	-6
342.079	1	-9
342.250	1	7
342.421	1	8
342.592	1	5
342.763	1	2
342.934	1	1
343.105	1	0
343.276	1	0
343.447	1	-11
343.618	1	-2
343.789	1	-5
343.960	1	2
344.131	1	12
344.302	1	-11
344.473	1	1
344.644	1	-1
344.815	1	3
344.986	1	0
345.157	1	2
345.328	1	-4
345.499	1	0
345.670	1	-11
345.841	1	-7
346.012	1	7
346.183	1	17
346.354	1	7
346.526	1	2
346.697	1	11
346.868	1	-2
347.039	1	-9
347.210	1	-7
347.381	1	10
347.552	1	5
347.723	1	6
347.894	1	1
348.065	1	9
348.236	1	17
348.407	1	-5
348.578	1	-1
348.749	1	-4
348.920	1	1
349.091	1	10
349.262	1	-8
349.433	1	6
349.604	1	11
349.775	1	8
349.946	1	-5
350.117	1	2
350.288	1	14
350.459	1	-2
350.630	1	7
350.801	1	10
350.972	1	0
351.143	1	4
351.314	1	12
351.485	1	5
351.656	1	6
351.827	1	8
351.998	1	4
352.169	1	6
352.340	1	4
352.511	1	5
352.682	1	12
352.853	1	6
353.024	1	3
353.195	1	1
353.366	1	5
353.537	1	0
353.708	1	6
353.879	1	-5
354.050	1	5
354.221	1	-1
354.392	1	9
354.563	1	15
354.734	1	5
354.905	1	3
355.076	1	10
355.247	1	14
355.418	1	3
355.589	1	2
355.760	1	12
355.931	1	4
356.102	1	-3
356.273	1	4
356.444	1	2
356.615	1	8
356.785	1	9
356.956	1	9
357.127	1	0
357.298	1	4
357.469	1	2
357.640	1	2
357.811	1	11
357.982	1	16
358.153	1	23
358.324	1	17
358.495	1	7
358.666	1	3
358.837	1	18
359.008	1	15
359.179	1	8
359.350	1	15
359.521	1	11
359.692	1	18
359.863	1	10
360.034	1	23
360.205	1	11
360.376	1	17
360.547	1	16
360.718	1	18
360.889	1	11
361.060	1	21
361.231	1	20
361.401	1	24
361.572	1	23
361.743	1	35
361.914	1	25
362.085	1	25
362.256	1	32
362.427	1	14
362.598	1	22
362.769	1	37
362.940	1	26
363.111	1	48
363.282	1	35
363.453	1	40
363.624	1	34
363.795	1	42
363.966	1	43
364.137	1	45
364.308	1	50
364.478	1	52
364.649	1	50
364.820	1	57
364.991	1	49
365.162	1	54
365.333	1	57
365.504	1	56
365.675	1	48
365.846	1	62
366.017	1	69
366.188	1	68
366.359	1	69
366.530	1	78
366.701	1	65
366.871	1	69
367.042	1	70
367.213	1	75
367.384	1	57
367.555	1	77
367.726	1	67
367.897	1	69
368.068	1	69
368.239	1	63
368.410	1	59
368.581	1	64
368.752	1	68
368.923	1	60
369.093	1	60
369.264	1	51
369.435	1	55
369.606	1	53
369.777	1	59
369.948	1	51
370.119	1	56
370.290	1	55
370.461	1	54
370.632	1	48
370.803	1	65
370.973	1	46
371.144	1	40
371.315	1	41
371.486	1	40
371.657	1	41
371.828	1	43
371.999	1	24
372.170	1	31
372.341	1	41
372.512	1	37
372.682	1	41
372.853	1	32
373.024	1	38
373.195	1	22
373.366	1	26
373.537	1	34
373.708	1	30
373.879	1	30
374.050	1	27
374.220	1	38
374.391	1	29
374.562	1	19
374.733	1	22
374.904	1	34
375.075	1	27
375.246	1	13
375.417	1	25
375.588	1	31
375.758	1	22
375.929	1	19
376.100	1	31
376.271	1	24
376.442	1	15
376.613	1	20
376.784	1	25
376.955	1	14
377.125	1	18
377.296	1	26
377.467	1	13
377.638	1	25
377.809	1	25
377.980	1	22
378.151	1	29
378.321	1	20
378.492	1	19
378.663	1	20
378.834	1	30
379.005	1	23
379.176	1	11
379.347	1	27
379.518	1	28
379.688	1	12
379.859	1	25
380.030	1	35
380.201	1	22
380.372	1	25
380.543	1	27
380.714	1	23
380.884	1	15
381.055	1	16
381.226	1	17
381.397	1	19
381.568	1	9
381.739	1	22
381.910	1	16
382.080	1	25
382.251	1	19
382.422	1	15
382.593	1	22
382.764	1	18
382.935	1	19
383.105	1	18
383.276	1	30
383.447	1	22
383.618	1	28
383.789	1	29
383.960	1	16
384.130	1	17
384.301	1	35
384.472	1	25
384.643	1	18
384.814	1	35
384.985	1	34
385.156	1	29
385.326	1	29
385.497	1	22
385.668	1	26
385.839	1	42
386.010	1	38
386.180	1	26
386.351	1	26
386.522	1	28
386.693	1	41
386.864	1	40
387.035	1	33
387.205	1	36
387.376	1	45
387.547	1	37
387.718	1	36
387.889	1	40
388.060	1	42
388.230	1	49
388.401	1	37
388.572	1	38
388.743	1	30
388.914	1	26
389.084	1	51
389.255	1	25
389.426	1	27
389.597	1	30
389.768	1	33
389.939	1	30
390.109	1	28
390.280	1	29
390.451	1	28
390.622	1	35
390.793	1	40
390.963	1	30
391.134	1	27
391.305	1	21
391.476	1	35
391.647	1	27
391.817	1	27
391.988	1	27
392.159	1	42
392.330	1	26
392.501	1	20
392.671	1	22
392.842	1	35
393.013	1	16
393.184	1	26
393.355	1	30
393.525	1	19
393.696	1	22
393.867	1	36
394.038	1	30
394.208	1	32
394.379	1	25
394.550	1	24
394.721	1	20
394.892	1	22
395.062	1	33
395.233	1	18
395.404	1	29
395.575	1	27
395.746	1	26
395.916	1	37
396.087	1	30
396.258	1	29
396.429	1	22
396.599	1	31
396.770	1	36
396.941	1	30
397.112	1	21
397.283	1	22
397.453	1	27
397.624	1	35
397.795	1	38
397.966	1	34
398.136	1	29
398.307	1	36
398.478	1	20
398.649	1	19
398.819	1	26
398.990	1	28
399.161	1	13
399.332	1	38
399.503	1	39
399.673	1	10
399.844	1	19
400.015	1	27
400.186	1	20
400.356	1	30
400.527	1	32
400.698	1	14
400.869	1	19
401.039	1	25
401.210	1	20
401.381	1	24
401.552	1	21
401.722	1	15
401.893	1	25
402.064	1	24
402.235	1	4
402.405	1	25
402.576	1	26
402.747	1	21
402.918	1	30
403.088	1	13
403.259	1	14
403.430	1	19
403.601	1	20
403.771	1	27
403.942	1	23
404.113	1	27
404.284	1	19
404.454	1	19
404.625	1	14
404.796	1	8
404.967	1	17
405.137	1	20
405.308	1	14
405.479	1	25
405.649	1	14
405.820	1	22
405.991	1	17
406.162	1	31
406.332	1	7
406.503	1	9
406.674	1	27
406.845	1	14
407.015	1	17
407.186	1	25
407.357	1	16
407.527	1	10
407.698	1	24
407.869	1	26
408.040	1	22
408.210	1	22
408.381	1	14
408.552	1	9
408.722	1	9
408.893	1	3
409.064	1	13
409.235	1	11
409.405	1	20
409.576	1	12
409.747	1	22
409.917	1	12
410.088	1	16
410.259	1	8
410.430	1	8
410.600	1	3
410.771	1	18
410.942	1	10
411.112	1	14
411.283	1	8
411.454	1	15
411.625	1	15
411.795	1	14
411.966	1	24
412.137	1	24
412.307	1	17
412.478	1	21
412.649	1	9
412.819	1	16
412.990	1	8
413.161	1	5
413.332	1	16
413.502	1	4
413.673	1	29
413.844	1	23
414.014	1	7
414.185	1	15
414.356	1	9
414.526	1	7
414.697	1	17
414.868	1	8
415.038	1	10
415.209	1	9
415.380	1	15
415.550	1	15
415.721	1	9
415.892	1	9
416.063	1	15
416.233	1	8
416.404	1	6
416.575	1	17
416.745	1	4
416.916	1	-2
417.087	1	12
417.257	1	25
417.428	1	4
417.599	1	18
417.769	1	0
417.940	1	22
418.111	1	10
418.281	1	2
418.452	1	13
418.623	1	3
418.793	1	7
418.964	1	3
419.135	1	26
419.305	1	6
419.476	1	13
419.647	1	15
419.817	1	12
419.988	1	5
420.159	1	2
420.329	1	-2
420.500	1	14
420.671	1	6
420.841	1	11
421.012	1	16
421.183	1	12
421.353	1	15
421.524	1	14
421.695	1	8
421.865	1	16
422.036	1	8
422.206	1	10
422.377	1	9
422.548	1	13
422.718	1	0
422.889	1	4
423.060	1	1
423.230	1	10
423.401	1	12
423.572	1	21
423.742	1	5
423.913	1	-2
424.084	1	6
424.254	1	12
424.425	1	-2
424.595	1	4
424.766	1	3
424.937	1	12
425.107	1	10
425.278	1	15
425.449	1	-2
425.619	1	6
425.790	1	10
425.961	1	6
426.131	1	4
426.302	1	13
426.472	1	2
426.643	1	2
426.814	1	5
426.984	1	4
427.155	1	-3
427.326	1	6
427.496	1	-2
427.667	1	20
427.837	1	13
428.008	1	1
428.179	1	11
428.349	1	1
428.520	1	12
428.691	1	-2
428.861	1	5
429.032	1	11
429.202	1	10
429.373	1	7
429.544	1	5
429.714	1	-4
429.885	1	5
430.055	1	9
430.226	1	6
430.397	1	15
430.567	1	4
430.738	1	2
430.909	1	-3
431.079	1	2
431.250	1	2
431.420	1	6
431.591	1	2
431.762	1	11
431.932	1	-4
432.103	1	4
432.273	1	18
432.444	1	-2
432.615	1	-2
432.785	1	8
432.956	1	5
433.126	1	12
433.297	1	0
433.468	1	0
433.638	1	12
433.809	1	4
433.979	1	8
434.150	1	9
434.320	1	8
434.491	1	8
434.662	1	5
434.832	1	7
435.003	1	5
435.173	1	9
435.344	1	-2
435.515	1	7
435.685	1	7
435.856	1	8
436.026	1	4
436.197	1	3
436.368	1	5
436.538	1	-4
436.709	1	-4
436.879	1	2
437.050	1	10
437.220	1	-5
437.391	1	11
437.562	1	5
437.732	1	9
437.903	1	-5
438.073	1	7
438.244	1	-1
438.414	1	6
438.585	1	9
438.756	1	12
438.926	1	3
439.097	1	10
439.267	1	6
439.438	1	9
439.608	1	5
439.779	1	6
439.949	1	-3
440.120	1	4
440.291	1	10
440.461	1	0
440.632	1	12
440.802	1	0
440.973	1	4
441.143	1	5
441.314	1	3
441.485	1	5
441.655	1	1
441.826	1	5
441.996	1	-10
442.167	1	7
442.337	1	6
442.508	1	8
442.678	1	-3
442.849	1	-9
443.019	1	8
443.190	1	13
443.361	1	11
443.531	1	7
443.702	1	-7
443.872	1	2
444.043	1	8
444.213	1	14
444.384	1	12
444.554	1	6
444.725	1	7
444.895	1	4
445.066	1	-2
445.237	1	-3
445.407	1	-2
445.578	1	3
445.748	1	1
445.919	1	3
446.089	1	6
446.260	1	4
446.430	1	-6
446.601	1	6
446.771	1	2
446.942	1	1
447.112	1	4
447.283	1	-4
447.453	1	6
447.624	1	-5
447.794	1	7
447.965	1	7
448.135	1	7
448.306	1	0
448.477	1	12
448.647	1	-2
448.818	1	-1
448.988	1	3
449.159	1	9
449.329	1	6
449.500	1	12
449.670	1	5
449.841	1	9
450.011	1	5
450.182	1	-7
450.352	1	4
450.523	1	-2
450.693	1	8
450.864	1	4
451.034	1	15
451.205	1	0
451.375	1	5
451.546	1	-8
451.716	1	11
451.887	1	3
452.057	1	15
452.228	1	5
452.398	1	8
452.569	1	2
452.739	1	7
452.910	1	4
453.080	1	-2
453.251	1	10
453.421	1	-1
453.592	1	4
453.762	1	5
453.933	1	-1
454.103	1	-2
454.274	1	5
454.444	1	7
454.615	1	14
454.785	1	9
454.956	1	5
455.126	1	1
455.297	1	-2
455.467	1	0
455.638	1	17
455.808	1	2
455.979	1	3
456.149	1	5
456.320	1	10
456.490	1	2
456.661	1	-1
456.831	1	6
457.001	1	11
457.172	1	7
457.342	1	5
457.513	1	17
457.683	1	3
457.854	1	4
458.024	1	5
458.195	1	1
458.365	1	10
458.536	1	-5
458.706	1	5
458.877	1	10
459.047	1	7
459.218	1	2
459.388	1	14
459.559	1	4
459.729	1	-1
459.899	1	2
460.070	1	5
460.240	1	5
460.411	1	-5
460.581	1	7
460.752	1	-7
460.922	1	20
461.093	1	-3
461.263	1	5
461.434	1	8
461.604	1	4
461.775	1	2
461.945	1	-8
462.115	1	9
462.286	1	13
462.456	1	9
462.627	1	9
462.797	1	-2
462.968	1	-5
463.138	1	7
463.309	1	13
463.479	1	-3
463.649	1	-5
463.820	1	-5
463.990	1	8
464.161	1	6
464.331	1	11
464.502	1	8
464.672	1	-12
464.843	1	-1
465.013	1	-4
465.183	1	1
465.354	1	8
465.524	1	-6
465.695	1	8
465.865	1	7
466.036	1	2
466.206	1	5
466.376	1	1
466.547	1	7
466.717	1	3
466.888	1	-4
467.058	1	7
467.229	1	11
467.399	1	5
467.569	1	2
467.740	1	10
467.910	1	5
468.081	1	6
468.251	1	10
468.422	1	4
468.592	1	3
468.762	1	-14
468.933	1	11
469.103	1	8
469.274	1	2
469.444	1	10
469.614	1	2
469.785	1	18
469.955	1	-2
470.126	1	-5
470.296	1	16
470.467	1	-1
470.637	1	2
470.807	1	10
470.978	1	15
471.148	1	-10
471.319	1	9
471.489	1	-5
471.659	1	5
471.830	1	13
472.000	1	6
472.171	1	-3
472.341	1	-2
472.511	1	13
472.682	1	2
472.852	1	-2
473.023	1	4
473.193	1	8
473.363	1	8
473.534	1	-5
473.704	1	-6
473.875	1	-5
474.045	1	-5
474.215	1	9
474.386	1	8
474.556	1	4
474.727	1	-4
474.897	1	0
475.067	1	-2
475.238	1	-5
475.408	1	7
475.578	1	9
475.749	1	3
475.919	1	-4
476.090	1	10
476.260	1	-5
476.430	1	7
476.601	1	11
476.771	1	-4
476.942	1	4
477.112	1	1
477.282	1	11
477.453	1	0
477.623	1	7
477.793	1	9
477.964	1	3
478.134	1	2
478.305	1	11
478.475	1	2
478.645	1	3
478.816	1	8
478.986	1	7
479.156	1	-3
479.327	1	-4
479.497	1	18
479.667	1	9
479.838	1	-6
480.008	1	-1
480.179	1	-10
480.349	1	-6
480.519	1	7
480.690	1	-2
480.860	1	11
481.030	1	11
481.201	1	3
481.371	1	12
481.541	1	-1
481.712	1	8
481.882	1	1
482.053	1	-1
482.223	1	-1
482.393	1	5
482.564	1	2
482.734	1	4
482.904	1	6
483.075	1	5
483.245	1	1
483.415	1	7
483.586	1	5
483.756	1	1
483.926	1	-1
484.097	1	-1
484.267	1	1
484.437	1	0
484.608	1	6
484.778	1	5
484.948	1	-2
485.119	1	-7
485.289	1	10
485.459	1	0
485.630	1	3
485.800	1	7
485.970	1	2
486.141	1	7
486.311	1	4
486.481	1	14
486.652	1	6
486.822	1	1
486.992	1	5
487.163	1	6
487.333	1	1
487.503	1	1
487.674	1	5
487.844	1	6
488.014	1	4
488.185	1	-3
488.355	1	14
488.525	1	4
488.696	1	1
488.866	1	-9
489.036	1	10
489.207	1	6
489.377	1	-2
489.547	1	9
489.718	1	9
489.888	1	10
490.058	1	10
490.228	1	0
490.399	1	4
490.569	1	9
490.739	1	8
490.910	1	1
491.080	1	0
491.250	1	13
491.421	1	12
491.591	1	5
491.761	1	-1
491.932	1	4
492.102	1	0
492.272	1	15
492.442	1	10
492.613	1	9
492.783	1	-4
492.953	1	8
493.124	1	15
493.294	1	20
493.464	1	4
493.635	1	-7
493.805	1	12
493.975	1	8
494.145	1	10
494.316	1	7
494.486	1	12
494.656	1	9
494.827	1	16
494.997	1	7
495.167	1	13
495.337	1	14
495.508	1	9
495.678	1	13
495.848	1	10
496.019	1	13
496.189	1	7
496.359	1	5
496.529	1	7
496.700	1	3
496.870	1	15
497.040	1	10
497.211	1	6
497.381	1	7
497.551	1	14
497.721	1	4
497.892	1	19
498.062	1	-2
498.232	1	9
498.403	1	16
498.573	1	7
498.743	1	12
498.913	1	10
499.084	1	8
499.254	1	3
499.424	1	17
499.594	1	1
499.765	1	8
499.935	1	-3
500.105	1	18
500.275	1	11
500.446	1	18
500.616	1	1
500.786	1	17
500.956	1	11
501.127	1	9
501.297	1	11
501.467	1	22
501.638	1	22
501.808	1	17
501.978	1	8
502.148	1	4
502.319	1	23
502.489	1	3
502.659	1	32
502.829	1	15
503.000	1	10
503.170	1	23
503.340	1	10
503.510	1	9
503.681	1	5
503.851	1	13
504.021	1	23
504.191	1	18
504.362	1	19
504.532	1	14
504.702	1	6
504.872	1	0
505.042	1	3
505.213	1	20
505.383	1	10
505.553	1	19
505.723	1	16
505.894	1	6
506.064	1	17
506.234	1	16
506.404	1	8
506.575	1	10
506.745	1	25
506.915	1	16
507.085	1	2
507.256	1	16
507.426	1	12
507.596	1	20
507.766	1	23
507.936	1	16
508.107	1	28
508.277	1	0
508.447	1	13
508.617	1	-1
508.788	1	16
508.958	1	22
509.128	1	24
509.298	1	9
509.468	1	15
509.639	1	13
509.809	1	28
509.979	1	23
510.149	1	29
510.319	1	19
510.490	1	9
510.660	1	30
510.830	1	19
511.000	1	16
511.171	1	20
511.341	1	26
511.511	1	19
511.681	1	19
511.851	1	38
512.022	1	9
512.192	1	21
512.362	1	14
512.532	1	10
512.702	1	23
512.873	1	19
513.043	1	18
513.213	1	25
513.383	1	21
513.553	1	22
513.724	1	10
513.894	1	25
514.064	1	28
514.234	1	32
514.404	1	24
514.575	1	30
514.745	1	24
514.915	1	9
515.085	1	24
515.255	1	25
515.425	1	35
515.596	1	37
515.766	1	30
515.936	1	26
516.106	1	26
516.276	1	29
516.447	1	37
516.617	1	20
516.787	1	24
516.957	1	35
517.127	1	16
517.297	1	30
517.468	1	22
517.638	1	14
517.808	1	31
517.978	1	32
518.148	1	16
518.319	1	29
518.489	1	16
518.659	1	26
518.829	1	16
518.999	1	14
519.169	1	25
519.340	1	24
519.510	1	20
519.680	1	28
519.850	1	27
520.020	1	20
520.190	1	23
520.361	1	21
520.531	1	24
520.701	1	31
520.871	1	24
521.041	1	26
521.211	1	36
521.382	1	21
521.552	1	21
521.722	1	27
521.892	1	37
522.062	1	29
522.232	1	26
522.402	1	32
522.573	1	26
522.743	1	25
522.913	1	26
523.083	1	29
523.253	1	36
523.423	1	29
523.593	1	29
523.764	1	20
523.934	1	37
524.104	1	30
524.274	1	27
524.444	1	38
524.614	1	30
524.784	1	25
524.955	1	35
525.125	1	32
525.295	1	25
525.465	1	21
525.635	1	27
525.805	1	39
525.975	1	15
526.146	1	22
526.316	1	34
526.486	1	30
526.656	1	24
526.826	1	23
526.996	1	34
527.166	1	18
527.337	1	15
527.507	1	30
527.677	1	42
527.847	1	28
528.017	1	30
528.187	1	23
528.357	1	35
528.527	1	25
528.698	1	17
528.868	1	27
529.038	1	27
529.208	1	17
529.378	1	34
529.548	1	19
529.718	1	40
529.888	1	36
530.058	1	19
530.229	1	28
530.399	1	28
530.569	1	22
530.739	1	26
530.909	1	30
531.079	1	21
531.249	1	18
531.419	1	27
531.589	1	31
531.760	1	28
531.930	1	25
532.100	1	27
532.270	1	37
532.440	1	18
532.610	1	35
532.780	1	32
532.950	1	30
533.120	1	42
533.290	1	34
533.461	1	31
533.631	1	31
533.801	1	23
533.971	1	30
534.141	1	32
534.311	1	33
534.481	1	38
534.651	1	15
534.821	1	23
534.991	1	29
535.162	1	18
535.332	1	38
535.502	1	20
535.672	1	22
535.842	1	19
536.012	1	31
536.182	1	31
536.352	1	17
536.522	1	24
536.692	1	32
536.862	1	18
537.032	1	20
537.203	1	29
537.373	1	26
537.543	1	9
537.713	1	34
537.883	1	16
538.053	1	19
538.223	1	31
538.393	1	16
538.563	1	27
538.733	1	30
538.903	1	17
539.073	1	29
539.243	1	28
539.413	1	30
539.584	1	28
539.754	1	38
539.924	1	35
540.094	1	26
540.264	1	13
540.434	1	32
540.604	1	26
540.774	1	24
540.944	1	27
541.114	1	23
541.284	1	14
541.454	1	21
541.624	1	37
541.794	1	17
541.964	1	18
542.134	1	27
542.305	1	29
542.475	1	16
542.645	1	19
542.815	1	20
542.985	1	17
543.155	1	2
543.325	1	33
543.495	1	36
543.665	1	14
543.835	1	17
544.005	1	15
544.175	1	18
544.345	1	19
544.515	1	15
544.685	1	29
544.855	1	24
545.025	1	17
545.195	1	25
545.365	1	19
545.535	1	14
545.705	1	31
545.875	1	12
546.045	1	22
546.216	1	19
546.386	1	15
546.556	1	15
546.726	1	17
546.896	1	20
547.066	1	28
547.236	1	12
547.406	1	12
547.576	1	29
547.746	1	26
547.916	1	12
548.086	1	30
548.256	1	6
548.426	1	18
548.596	1	21
548.766	1	27
548.936	1	28
549.106	1	28
549.276	1	27
549.446	1	18
549.616	1	31
549.786	1	10
549.956	1	15
550.126	1	23
550.296	1	25
550.466	1	27
550.636	1	34
550.806	1	32
550.976	1	11
551.146	1	19
551.316	1	24
551.486	1	20
551.656	1	25
551.826	1	30
551.996	1	20
552.166	1	18
552.336	1	-1
552.506	1	34
552.676	1	16
552.846	1	17
553.016	1	27
553.186	1	17
553.356	1	16
553.526	1	18
553.696	1	27
553.866	1	16
554.036	1	19
554.206	1	23
554.376	1	12
554.546	1	22
554.716	1	25
554.886	1	20
555.056	1	25
555.226	1	30
555.396	1	24
555.566	1	22
555.736	1	32
555.906	1	25
556.076	1	24
556.246	1	23
556.416	1	15
556.586	1	10
556.756	1	13
556.926	1	19
557.096	1	24
557.266	1	10
557.436	1	22
557.606	1	12
557.776	1	18
557.946	1	9
558.116	1	10
558.286	1	14
558.456	1	4
558.626	1	9
558.796	1	19
558.966	1	17
559.136	1	5
559.306	1	23
559.476	1	16
559.646	1	11
559.816	1	15
559.986	1	13
560.155	1	18
560.325	1	9
560.495	1	20
560.665	1	21
560.835	1	9
561.005	1	9
561.175	1	26
561.345	1	6
561.515	1	6
561.685	1	20
561.855	1	13
562.025	1	11
562.195	1	18
562.365	1	20
562.535	1	12
562.705	1	4
562.875	1	5
563.045	1	11
563.215	1	24
563.385	1	-3
563.555	1	8
563.725	1	21
563.895	1	18
564.064	1	22
564.234	1	14
564.404	1	13
564.574	1	19
564.744	1	11
564.914	1	13
565.084	1	2
565.254	1	19
565.424	1	14
565.594	1	14
565.764	1	12
565.934	1	13
566.104	1	15
566.274	1	19
566.444	1	-1
566.614	1	13
566.783	1	19
566.953	1	8
567.123	1	17
567.293	1	3
567.463	1	11
567.633	1	8
567.803	1	23
567.973	1	18
568.143	1	13
568.313	1	15
568.483	1	15
568.653	1	-1
568.823	1	12
568.993	1	9
569.162	1	10
569.332	1	15
569.502	1	20
569.672	1	11
569.842	1	9
570.012	1	7
570.182	1	14
570.352	1	13
570.522	1	5
570.692	1	17
570.862	1	11
571.031	1	10
571.201	1	15
571.371	1	16
571.541	1	7
571.711	1	11
571.881	1	20
572.051	1	4
572.221	1	6
572.391	1	17
572.561	1	23
572.731	1	12
572.900	1	-3
573.070	1	13
573.240	1	-3
573.410	1	10
573.580	1	9
573.750	1	7
573.920	1	7
574.090	1	19
574.260	1	5
574.430	1	9
574.599	1	11
574.769	1	13
574.939	1	-5
575.109	1	16
575.279	1	9
575.449	1	25
575.619	1	18
575.789	1	22
575.959	1	12
576.128	1	9
576.298	1	18
576.468	1	11
576.638	1	7
576.808	1	1
576.978	1	4
577.148	1	5
577.318	1	26
577.487	1	8
577.657	1	8
577.827	1	7
577.997	1	14
578.167	1	10
578.337	1	2
578.507	1	11
578.677	1	2
578.846	1	9
579.016	1	1
579.186	1	9
579.356	1	15
579.526	1	10
579.696	1	11
579.866	1	-6
580.036	1	12
580.205	1	2
580.375	1	24
580.545	1	8
580.715	1	7
580.885	1	12
581.055	1	-2
581.225	1	10
581.394	1	-6
581.564	1	-3
581.734	1	5
581.904	1	5
582.074	1	8
582.244	1	14
582.414	1	7
582.583	1	8
582.753	1	16
582.923	1	9
583.093	1	18
583.263	1	13
583.433	1	16
583.603	1	5
583.772	1	-10
583.942	1	16
584.112	1	2
584.282	1	5
584.452	1	1
584.622	1	1
584.791	1	0
584.961	1	-4
585.131	1	7
585.301	1	6
585.471	1	-4
585.641	1	9
585.811	1	0
585.980	1	3
586.150	1	10
586.320	1	-3
586.490	1	12
586.660	1	14
586.830	1	3
586.999	1	14
587.169	1	12
587.339	1	-1
587.509	1	4
587.679	1	-2
587.849	1	3
588.018	1	-3
588.188	1	13
588.358	1	2
588.528	1	1
588.698	1	5
588.867	1	1
589.037	1	1
589.207	1	4
589.377	1	9
589.547	1	14
589.717	1	-6
589.886	1	11
590.056	1	6
590.226	1	-5
590.396	1	-5
590.566	1	2
590.735	1	1
590.905	1	16
591.075	1	-2
591.245	1	9
591.415	1	11
591.585	1	10
591.754	1	3
591.924	1	14
592.094	1	5
592.264	1	-4
592.434	1	4
592.603	1	1
592.773	1	10
592.943	1	0
593.113	1	4
593.283	1	2
593.452	1	2
593.622	1	0
593.792	1	11
593.962	1	11
594.132	1	3
594.301	1	11
594.471	1	14
594.641	1	9
594.811	1	1
594.981	1	6
595.150	1	7
595.320	1	2
595.490	1	13
595.660	1	9
595.829	1	-3
595.999	1	10
596.169	1	10
596.339	1	14
596.509	1	-6
596.678	1	13
596.848	1	10
597.018	1	8
597.188	1	3
597.358	1	6
597.527	1	11
597.697	1	-1
597.867	1	6
598.037	1	4
598.206	1	4
598.376	1	-4
598.546	1	16
598.716	1	1
598.885	1	8
599.055	1	11
599.225	1	4
599.395	1	12
599.565	1	3
599.734	1	11
599.904	1	1
600.074	1	9
600.244	1	2
600.413	1	-1
600.583	1	1
600.753	1	4
600.923	1	6
601.092	1	12
601.262	1	10
601.432	1	5
601.602	1	18
601.771	1	9
601.941	1	12
602.111	1	14
602.281	1	10
602.451	1	3
602.620	1	0
602.790	1	2
602.960	1	1
603.130	1	2
603.299	1	6
603.469	1	9
603.639	1	-16
603.809	1	12
603.978	1	2
604.148	1	3
604.318	1	3
604.487	1	4
604.657	1	-8
604.827	1	6
604.997	1	13
605.166	1	11
605.336	1	-4
605.506	1	1
605.676	1	15
605.845	1	2
606.015	1	-5
606.185	1	7
606.355	1	1
606.524	1	3
606.694	1	7
606.864	1	-6
607.034	1	-2
607.203	1	5
607.373	1	3
607.543	1	-1
607.712	1	3
607.882	1	2
608.052	1	6
608.222	1	3
608.391	1	13
608.561	1	-2
608.731	1	-4
608.901	1	-1
609.070	1	7
609.240	1	-4
609.410	1	13
609.579	1	2
609.749	1	7
609.919	1	-6
610.089	1	8
610.258	1	-2
610.428	1	5
610.598	1	6
610.767	1	15
610.937	1	10
611.107	1	-3
611.277	1	3
611.446	1	6
611.616	1	3
611.786	1	11
611.955	1	4
612.125	1	8
612.295	1	-1
612.465	1	7
612.634	1	-3
612.804	1	3
612.974	1	5
613.143	1	8
613.313	1	9
613.483	1	8
613.652	1	8
613.822	1	13
613.992	1	-2
614.162	1	4
614.331	1	4
614.501	1	6
614.671	1	0
614.840	1	-1
615.010	1	1
615.180	1	-1
615.349	1	17
615.519	1	0
615.689	1	-4
615.858	1	11
616.028	1	6
616.198	1	-8
616.368	1	7
616.537	1	-1
616.707	1	9
616.877	1	5
617.046	1	4
617.216	1	4
617.386	1	8
617.555	1	-6
617.725	1	8
617.895	1	3
618.064	1	1
618.234	1	5
618.404	1	-4
618.573	1	6
618.743	1	13
618.913	1	12
619.082	1	5
619.252	1	-1
619.422	1	-5
619.591	1	-4
619.761	1	6
619.931	1	12
620.100	1	30
620.270	1	8
620.440	1	10
620.609	1	3
620.779	1	5
620.949	1	3
621.118	1	7
621.288	1	0
621.458	1	4
621.627	1	6
621.797	1	-16
621.967	1	6
622.136	1	4
622.306	1	4
622.476	1	-2
622.645	1	6
622.815	1	-4
622.985	1	-1
623.154	1	-2
623.324	1	8
623.494	1	-1
623.663	1	4
623.833	1	5
624.002	1	5
624.172	1	2
624.342	1	14
624.511	1	8
624.681	1	8
624.851	1	0
625.020	1	9
625.190	1	7
625.360	1	-3
625.529	1	-8
625.699	1	-1
625.869	1	8
626.038	1	10
626.208	1	8
626.377	1	7
626.547	1	-5
626.717	1	-11
626.886	1	-1
627.056	1	5
627.226	1	17
627.395	1	1
627.565	1	9
627.735	1	1
627.904	1	8
628.074	1	10
628.243	1	12
628.413	1	3
628.583	1	4
628.752	1	-1
628.922	1	11
629.091	1	3
629.261	1	8
629.431	1	11
629.600	1	6
629.770	1	-1
629.940	1	-3
630.109	1	5
630.279	1	8
630.448	1	-5
630.618	1	10
630.788	1	-4
630.957	1	9
631.127	1	-2
631.297	1	-12
631.466	1	-2
631.636	1	6
631.805	1	8
631.975	1	0
632.145	1	10
632.314	1	1
632.484	1	8
632.653	1	-6
632.823	1	1
632.993	1	10
633.162	1	2
633.332	1	-5
633.501	1	4
633.671	1	-1
633.841	1	9
634.010	1	9
634.180	1	1
634.349	1	15
634.519	1	11
634.689	1	-5
634.858	1	-11
635.028	1	-7
635.197	1	4
635.367	1	4
635.537	1	7
635.706	1	11
635.876	1	7
636.045	1	11
636.215	1	17
636.384	1	6
636.554	1	-3
636.724	1	-3
636.893	1	1
637.063	1	-2
637.232	1	-2
637.402	1	0
637.572	1	5
637.741	1	4
637.911	1	-1
638.080	1	7
638.250	1	3
638.419	1	-2
638.589	1	-4
638.759	1	4
638.928	1	7
639.098	1	7
639.267	1	6
639.437	1	3
639.606	1	6
639.776	1	1
639.946	1	2
640.115	1	-6
640.285	1	5
640.454	1	10
640.624	1	14
640.793	1	6
640.963	1	4
641.132	1	6
641.302	1	4
641.472	1	8
641.641	1	-3
641.811	1	-7
641.980	1	0
642.150	1	3
642.319	1	10
642.489	1	-6
642.659	1	17
642.828	1	2
642.998	1	-4
643.167	1	-9
643.337	1	4
643.506	1	4
643.676	1	-4
643.845	1	5
644.015	1	5
644.184	1	1
644.354	1	4
644.524	1	5
644.693	1	12
644.863	1	4
645.032	1	10
645.202	1	0
645.371	1	0
645.541	1	8
645.710	1	4
645.880	1	-2
646.049	1	-7
646.219	1	3
646.388	1	-10
646.558	1	8
646.728	1	-3
646.897	1	-2
647.067	1	2
647.236	1	8
647.406	1	6
647.575	1	16
647.745	1	8
647.914	1	1
648.084	1	2
648.253	1	3
648.423	1	3
648.592	1	-7
648.762	1	9
648.931	1	7
649.101	1	1
649.270	1	1
649.440	1	11
649.610	1	4
649.779	1	9
649.949	1	3
650.118	1	-8
650.288	1	6
650.457	1	12
650.627	1	7
650.796	1	2
650.966	1	-1
651.135	1	1
651.305	1	4
651.474	1	11
651.644	1	18
651.813	1	8
651.983	1	-1
652.152	1	5
652.322	1	2
652.491	1	11
652.661	1	3
652.830	1	2
653.000	1	4
653.169	1	15
653.339	1	8
653.508	1	-4
653.678	1	-2
653.847	1	-3
654.017	1	12
654.186	1	3
654.356	1	-5
654.525	1	7
654.695	1	1
654.864	1	2
655.034	1	6
655.203	1	12
655.373	1	9
655.542	1	8
655.712	1	8
655.881	1	11
656.051	1	3
656.220	1	5
656.390	1	3
656.559	1	-2
656.729	1	-3
656.898	1	3
657.068	1	-1
657.237	1	3
657.406	1	0
657.576	1	-1
657.745	1	8
657.915	1	1
658.084	1	-1
658.254	1	1
658.423	1	7
658.593	1	6
658.762	1	4
658.932	1	-1
659.101	1	-9
659.271	1	7
659.440	1	4
659.610	1	3
659.779	1	20
659.949	1	7
660.118	1	5
660.288	1	-6
660.457	1	3
660.626	1	7
660.796	1	2
660.965	1	0
661.135	1	0
661.304	1	4
661.474	1	-1
661.643	1	0
661.813	1	-3
661.982	1	9
662.152	1	-2
662.321	1	0
662.491	1	1
662.660	1	7
662.829	1	10
662.999	1	0
663.168	1	7
663.338	1	2
663.507	1	-1
663.677	1	1
663.846	1	-6
664.016	1	-1
664.185	1	-1
664.354	1	13
664.524	1	3
664.693	1	0
664.863	1	-3
665.032	1	3
665.202	1	0
665.371	1	-7
665.541	1	13
665.710	1	-1
665.879	1	1
666.049	1	-8
666.218	1	-6
666.388	1	9
666.557	1	10
666.727	1	2
666.896	1	4
667.065	1	5
667.235	1	11
667.404	1	3
667.574	1	3
667.743	1	-1
667.913	1	13
668.082	1	4
668.251	1	1
668.421	1	0
668.590	1	4
668.760	1	6
668.929	1	2
669.099	1	2
669.268	1	2
669.437	1	5
669.607	1	8
669.776	1	7
669.946	1	-3
670.115	1	-16
670.285	1	7
670.454	1	0
670.623	1	1
670.793	1	3
670.962	1	-2
671.132	1	-3
671.301	1	7
671.470	1	-1
671.640	1	-5
671.809	1	-8
671.979	1	10
672.148	1	-2
672.317	1	3
672.487	1	0
672.656	1	-5
672.826	1	2
672.995	1	-4
673.164	1	-5
673.334	1	6
673.503	1	-1
673.673	1	2
673.842	1	6
674.011	1	16
674.181	1	11
674.350	1	10
674.520	1	6
674.689	1	-3
674.858	1	-12
675.028	1	4
675.197	1	11
675.367	1	-6
675.536	1	5
675.705	1	12
675.875	1	-7
676.044	1	-10
676.214	1	-1
676.383	1	7
676.552	1	-4
676.722	1	-7
676.891	1	0
677.060	1	3
677.230	1	10
677.399	1	1
677.569	1	7
677.738	1	3
677.907	1	-1
678.077	1	3
678.246	1	4
678.416	1	1
678.585	1	-4
678.754	1	-4
678.924	1	17
679.093	1	4
679.262	1	1
679.432	1	6
679.601	1	-2
679.771	1	-2
679.940	1	5
680.109	1	-6
680.279	1	13
680.448	1	-1
680.617	1	-4
680.787	1	-4
680.956	1	9
681.125	1	4
681.295	1	0
681.464	1	-7
681.634	1	11
681.803	1	-4
681.972	1	0
682.142	1	8
682.311	1	6
682.480	1	12
682.650	1	3
682.819	1	-4
682.988	1	-1
683.158	1	1
683.327	1	3
683.496	1	4
683.666	1	7
683.835	1	1
684.004	1	9
684.174	1	9
684.343	1	7
684.512	1	-1
684.682	1	8
684.851	1	3
685.021	1	-1
685.190	1	1
685.359	1	-4
685.529	1	9
685.698	1	0
685.867	1	5
686.037	1	3
686.206	1	-3
686.375	1	10
686.545	1	13
686.714	1	-1
686.883	1	3
687.053	1	1
687.222	1	9
687.391	1	5
687.561	1	13
687.730	1	5
687.899	1	1
688.069	1	10
688.238	1	7
688.407	1	10
688.577	1	5
688.746	1	17
