340.368	1	0
340.539	1	11
340.710	1	-1
340.881	1	1
341.052	1	-3
341.223	1	1
341.394	1	-7
341.565	1	9
341.737	1	4
341.908	1	-3
342.079	1	-9
342.250	1	-4
342.421	1	-1
342.592	1	2
342.763	1	11
342.934	1	-2
343.105	1	5
343.276	1	0
343.447	1	-17
343.618	1	-2
343.789	1	0
343.960	1	-2
344.131	1	3
344.302	1	-5
344.473	1	-7
344.644	1	-5
344.815	1	-5
344.986	1	-9
345.157	1	6
345.328	1	-1
345.499	1	4
345.670	1	-6
345.841	1	1
346.012	1	-1
346.183	1	13
346.354	1	3
346.526	1	1
346.697	1	-1
346.868	1	-4
347.039	1	0
347.210	1	-3
347.381	1	1
347.552	1	4
347.723	1	1
347.894	1	2
348.065	1	12
348.236	1	5
348.407	1	-4
348.578	1	-4
348.749	1	-6
348.920	1	1
349.091	1	-2
349.262	1	-7
349.433	1	8
349.604	1	9
349.775	1	7
349.946	1	-16
350.117	1	3
350.288	1	11
350.459	1	-3
350.630	1	8
350.801	1	-5
350.972	1	-1
351.143	1	5
351.314	1	4
351.485	1	5
351.656	1	3
351.827	1	-4
351.998	1	3
352.169	1	-3
352.340	1	-2
352.511	1	-1
352.682	1	1
352.853	1	6
353.024	1	7
353.195	1	-3
353.366	1	6
353.537	1	-3
353.708	1	4
353.879	1	-9
354.050	1	-2
354.221	1	-2
354.392	1	5
354.563	1	5
354.734	1	0
354.905	1	6
355.076	1	10
355.247	1	-2
355.418	1	-5
355.589	1	-7
355.760	1	6
355.931	1	0
356.102	1	-2
356.273	1	-4
356.444	1	-6
356.615	1	-3
356.785	1	4
356.956	1	6
357.127	1	-1
357.298	1	4
357.469	1	-1
357.640	1	7
357.811	1	-5
357.982	1	1
358.153	1	7
358.324	1	-1
358.495	1	-11
358.666	1	1
358.837	1	1
359.008	1	0
359.179	1	-3
359.350	1	0
359.521	1	11
359.692	1	7
359.863	1	2
360.034	1	4
360.205	1	-1
360.376	1	0
360.547	1	-5
360.718	1	5
360.889	1	-5
361.060	1	-2
361.231	1	-2
361.401	1	-1
361.572	1	-5
361.743	1	3
361.914	1	6
362.085	1	6
362.256	1	-2
362.427	1	-10
362.598	1	0
362.769	1	-1
362.940	1	3
363.111	1	7
363.282	1	-5
363.453	1	-5
363.624	1	-2
363.795	1	4
363.966	1	1
364.137	1	1
364.308	1	0
364.478	1	4
364.649	1	-1
364.820	1	-5
364.991	1	0
365.162	1	-2
365.333	1	-7
365.504	1	5
365.675	1	-5
365.846	1	-2
366.017	1	-2
366.188	1	6
366.359	1	3
366.530	1	3
366.701	1	13
366.871	1	-3
367.042	1	13
367.213	1	7
367.384	1	-4
367.555	1	5
367.726	1	-5
367.897	1	15
368.068	1	3
368.239	1	-1
368.410	1	4
368.581	1	5
368.752	1	6
368.923	1	-6
369.093	1	1
369.264	1	-6
369.435	1	2
369.606	1	8
369.777	1	2
369.948	1	-5
370.119	1	-2
370.290	1	6
370.461	1	1
370.632	1	1
370.803	1	11
370.973	1	-8
371.144	1	-1
371.315	1	-6
371.486	1	-3
371.657	1	-14
371.828	1	2
371.999	1	-9
372.170	1	-14
372.341	1	0
372.512	1	4
372.682	1	-11
372.853	1	-2
373.024	1	6
373.195	1	-7
373.366	1	2
373.537	1	10
373.708	1	-11
373.879	1	-7
374.050	1	-1
374.220	1	8
374.391	1	13
374.562	1	-2
374.733	1	5
374.904	1	6
375.075	1	-6
375.246	1	-4
375.417	1	0
375.588	1	2
375.758	1	-6
375.929	1	3
376.100	1	0
376.271	1	-2
376.442	1	0
376.613	1	3
376.784	1	5
376.955	1	-2
377.125	1	2
377.296	1	1
377.467	1	-6
377.638	1	4
377.809	1	-4
377.980	1	6
378.151	1	0
378.321	1	6
378.492	1	-1
378.663	1	-8
378.834	1	12
379.005	1	5
379.176	1	-2
379.347	1	4
379.518	1	1
379.688	1	-5
379.859	1	6
380.030	1	23
380.201	1	6
380.372	1	3
380.543	1	10
380.714	1	1
380.884	1	7
381.055	1	-7
381.226	1	2
381.397	1	8
381.568	1	9
381.739	1	-3
381.910	1	-7
382.080	1	4
382.251	1	-7
382.422	1	-3
382.593	1	6
382.764	1	0
382.935	1	2
383.105	1	-5
383.276	1	-1
383.447	1	3
383.618	1	5
383.789	1	2
383.960	1	-11
384.130	1	-3
384.301	1	-4
384.472	1	-5
384.643	1	-12
384.814	1	3
384.985	1	-3
385.156	1	15
385.326	1	6
385.497	1	-6
385.668	1	2
385.839	1	5
386.010	1	13
386.180	1	4
386.351	1	3
386.522	1	-1
386.693	1	5
386.864	1	8
387.035	1	14
387.205	1	1
387.376	1	8
387.547	1	11
387.718	1	-2
387.889	1	1
388.060	1	4
388.230	1	5
388.401	1	-4
388.572	1	7
388.743	1	-7
388.914	1	0
389.084	1	8
389.255	1	-5
389.426	1	-8
389.597	1	4
389.768	1	-1
389.939	1	5
390.109	1	-3
390.280	1	-9
390.451	1	-4
390.622	1	-3
390.793	1	5
390.963	1	4
391.134	1	-3
391.305	1	3
391.476	1	1
391.647	1	0
391.817	1	-2
391.988	1	-4
392.159	1	8
392.330	1	1
392.501	1	-10
392.671	1	7
392.842	1	-3
393.013	1	14
393.184	1	0
393.355	1	1
393.525	1	6
393.696	1	-2
393.867	1	7
394.038	1	-3
394.208	1	6
394.379	1	0
394.550	1	-3
394.721	1	-4
394.892	1	-1
395.062	1	6
395.233	1	5
395.404	1	-9
395.575	1	-5
395.746	1	0
395.916	1	1
396.087	1	-1
396.258	1	3
396.429	1	6
396.599	1	11
396.770	1	9
396.941	1	-6
397.112	1	5
397.283	1	-5
397.453	1	-1
397.624	1	3
397.795	1	-1
397.966	1	9
398.136	1	-5
398.307	1	-5
398.478	1	4
398.649	1	4
398.819	1	3
398.990	1	5
399.161	1	-5
399.332	1	-2
399.503	1	5
399.673	1	-14
399.844	1	1
400.015	1	3
400.186	1	4
400.356	1	4
400.527	1	15
400.698	1	-5
400.869	1	-9
401.039	1	-14
401.210	1	6
401.381	1	-8
401.552	1	5
401.722	1	-1
401.893	1	11
402.064	1	1
402.235	1	-4
402.405	1	-6
402.576	1	0
402.747	1	1
402.918	1	8
403.088	1	2
403.259	1	-4
403.430	1	-1
403.601	1	0
403.771	1	18
403.942	1	1
404.113	1	-2
404.284	1	-3
404.454	1	0
404.625	1	3
404.796	1	-2
404.967	1	1
405.137	1	1
405.308	1	10
405.479	1	5
405.649	1	6
405.820	1	-1
405.991	1	1
406.162	1	9
406.332	1	-7
406.503	1	-3
406.674	1	0
406.845	1	9
407.015	1	-5
407.186	1	0
407.357	1	-5
407.527	1	0
407.698	1	3
407.869	1	11
408.040	1	2
408.210	1	7
408.381	1	-5
408.552	1	-9
408.722	1	-8
408.893	1	0
409.064	1	-6
409.235	1	1
409.405	1	11
409.576	1	8
409.747	1	7
409.917	1	-2
410.088	1	7
410.259	1	-6
410.430	1	-6
410.600	1	-7
410.771	1	5
410.942	1	-4
411.112	1	-8
411.283	1	0
411.454	1	-2
411.625	1	-5
411.795	1	-1
411.966	1	5
412.137	1	9
412.307	1	6
412.478	1	6
412.649	1	-15
412.819	1	4
412.990	1	-5
413.161	1	-10
413.332	1	3
413.502	1	-7
413.673	1	19
413.844	1	5
414.014	1	3
414.185	1	1
414.356	1	1
414.526	1	4
414.697	1	8
414.868	1	0
415.038	1	5
415.209	1	-9
415.380	1	12
415.550	1	7
415.721	1	2
415.892	1	-2
416.063	1	4
416.233	1	-2
416.404	1	-9
416.575	1	-4
416.745	1	5
416.916	1	-4
417.087	1	7
417.257	1	13
417.428	1	-3
417.599	1	3
417.769	1	-9
417.940	1	-1
418.111	1	-1
418.281	1	-7
418.452	1	2
418.623	1	3
418.793	1	0
418.964	1	10
419.135	1	10
419.305	1	-1
419.476	1	-12
419.647	1	3
419.817	1	8
419.988	1	-11
420.159	1	0
420.329	1	5
420.500	1	4
420.671	1	2
420.841	1	5
421.012	1	2
421.183	1	-2
421.353	1	4
421.524	1	3
421.695	1	10
421.865	1	10
422.036	1	1
422.206	1	3
422.377	1	-2
422.548	1	5
422.718	1	-9
422.889	1	-11
423.060	1	-5
423.230	1	0
423.401	1	-7
423.572	1	15
423.742	1	0
423.913	1	4
424.084	1	10
424.254	1	-4
424.425	1	-5
424.595	1	-8
424.766	1	3
424.937	1	7
425.107	1	-1
425.278	1	-2
425.449	1	4
425.619	1	7
425.790	1	7
425.961	1	-2
426.131	1	-3
426.302	1	6
426.472	1	1
426.643	1	-5
426.814	1	-6
426.984	1	1
427.155	1	-8
427.326	1	-4
427.496	1	4
427.667	1	7
427.837	1	6
428.008	1	0
428.179	1	-1
428.349	1	-6
428.520	1	8
428.691	1	-2
428.861	1	-3
429.032	1	-2
429.202	1	4
429.373	1	-1
429.544	1	-1
429.714	1	-2
429.885	1	2
430.055	1	6
430.226	1	-6
430.397	1	1
430.567	1	5
430.738	1	-3
430.909	1	-4
431.079	1	-8
431.250	1	-4
431.420	1	-1
431.591	1	3
431.762	1	0
431.932	1	-8
432.103	1	-1
432.273	1	3
432.444	1	-5
432.615	1	-9
432.785	1	-6
432.956	1	1
433.126	1	-4
433.297	1	-3
433.468	1	0
433.638	1	-1
433.809	1	4
433.979	1	3
434.150	1	13
434.320	1	7
434.491	1	12
434.662	1	13
434.832	1	-1
435.003	1	7
435.173	1	1
435.344	1	-5
435.515	1	5
435.685	1	0
435.856	1	-4
436.026	1	-1
436.197	1	3
436.368	1	2
436.538	1	-4
436.709	1	-8
436.879	1	-8
437.050	1	6
437.220	1	-18
437.391	1	9
437.562	1	-2
437.732	1	8
437.903	1	3
438.073	1	5
438.244	1	-6
438.414	1	4
438.585	1	-5
438.756	1	7
438.926	1	-4
439.097	1	7
439.267	1	-3
439.438	1	7
439.608	1	6
439.779	1	-11
439.949	1	4
440.120	1	-6
440.291	1	13
440.461	1	1
440.632	1	4
440.802	1	-1
440.973	1	5
441.143	1	-6
441.314	1	-9
441.485	1	2
441.655	1	2
441.826	1	-1
441.996	1	-5
442.167	1	-2
442.337	1	4
442.508	1	-1
442.678	1	-12
442.849	1	-10
443.019	1	4
443.190	1	6
443.361	1	0
443.531	1	7
443.702	1	-12
443.872	1	-4
444.043	1	5
444.213	1	7
444.384	1	-4
444.554	1	-4
444.725	1	7
444.895	1	-7
445.066	1	7
445.237	1	-2
445.407	1	3
445.578	1	-1
445.748	1	4
445.919	1	-11
446.089	1	2
446.260	1	-3
446.430	1	-1
446.601	1	9
446.771	1	-8
446.942	1	2
447.112	1	5
447.283	1	-1
447.453	1	-1
447.624	1	-4
447.794	1	-1
447.965	1	6
448.135	1	-2
448.306	1	-1
448.477	1	4
448.647	1	-10
448.818	1	-2
448.988	1	-10
449.159	1	1
449.329	1	2
449.500	1	-7
449.670	1	0
449.841	1	-6
450.011	1	-2
450.182	1	-1
450.352	1	4
450.523	1	5
450.693	1	0
450.864	1	4
451.034	1	9
451.205	1	4
451.375	1	-8
451.546	1	-5
451.716	1	8
451.887	1	-2
452.057	1	10
452.228	1	-2
452.398	1	7
452.569	1	-3
452.739	1	-4
452.910	1	2
453.080	1	-10
453.251	1	9
453.421	1	-7
453.592	1	7
453.762	1	9
453.933	1	-6
454.103	1	-4
454.274	1	8
454.444	1	0
454.615	1	6
454.785	1	4
454.956	1	6
455.126	1	4
455.297	1	-2
455.467	1	-19
455.638	1	11
455.808	1	-5
455.979	1	2
456.149	1	-1
456.320	1	7
456.490	1	-1
456.661	1	0
456.831	1	-3
457.001	1	5
457.172	1	3
457.342	1	-2
457.513	1	10
457.683	1	1
457.854	1	3
458.024	1	-3
458.195	1	-7
458.365	1	13
458.536	1	-9
458.706	1	2
458.877	1	-1
459.047	1	13
459.218	1	0
459.388	1	11
459.559	1	-2
459.729	1	-11
459.899	1	-10
460.070	1	4
460.240	1	8
460.411	1	-4
460.581	1	-1
460.752	1	6
460.922	1	7
461.093	1	0
461.263	1	3
461.434	1	9
461.604	1	1
461.775	1	-4
461.945	1	9
462.115	1	4
462.286	1	-2
462.456	1	14
462.627	1	4
462.797	1	-16
462.968	1	-4
463.138	1	-3
463.309	1	2
463.479	1	-5
463.649	1	-7
463.820	1	-4
463.990	1	10
464.161	1	11
464.331	1	9
464.502	1	4
464.672	1	-11
464.843	1	-1
465.013	1	-6
465.183	1	-5
465.354	1	11
465.524	1	0
465.695	1	-3
465.865	1	0
466.036	1	2
466.206	1	-10
466.376	1	-7
466.547	1	-7
466.717	1	3
466.888	1	-15
467.058	1	-1
467.229	1	16
467.399	1	-3
467.569	1	4
467.740	1	-1
467.910	1	2
468.081	1	-4
468.251	1	6
468.422	1	-6
468.592	1	0
468.762	1	-15
468.933	1	9
469.103	1	-7
469.274	1	5
469.444	1	4
469.614	1	5
469.785	1	12
469.955	1	0
470.126	1	3
470.296	1	-2
470.467	1	-12
470.637	1	0
470.807	1	1
470.978	1	5
471.148	1	-15
471.319	1	5
471.489	1	-7
471.659	1	0
471.830	1	2
472.000	1	-1
472.171	1	3
472.341	1	-6
472.511	1	13
472.682	1	-15
472.852	1	-3
473.023	1	-1
473.193	1	12
473.363	1	5
473.534	1	-8
473.704	1	-5
473.875	1	4
474.045	1	-1
474.215	1	5
474.386	1	3
474.556	1	-3
474.727	1	-1
474.897	1	1
475.067	1	-7
475.238	1	-5
475.408	1	-5
475.578	1	9
475.749	1	1
475.919	1	1
476.090	1	5
476.260	1	-7
476.430	1	5
476.601	1	7
476.771	1	-7
476.942	1	11
477.112	1	3
477.282	1	3
477.453	1	5
477.623	1	-5
477.793	1	-6
477.964	1	7
478.134	1	7
478.305	1	5
478.475	1	4
478.645	1	-1
478.816	1	3
478.986	1	-5
479.156	1	-5
479.327	1	-5
479.497	1	-2
479.667	1	17
479.838	1	-10
480.008	1	-1
480.179	1	-10
480.349	1	-2
480.519	1	2
480.690	1	2
480.860	1	10
481.030	1	3
481.201	1	-3
481.371	1	15
481.541	1	6
481.712	1	4
481.882	1	0
482.053	1	-2
482.223	1	-8
482.393	1	5
482.564	1	-1
482.734	1	7
482.904	1	2
483.075	1	1
483.245	1	-3
483.415	1	3
483.586	1	-5
483.756	1	-5
483.926	1	-4
484.097	1	5
484.267	1	2
484.437	1	6
484.608	1	-2
484.778	1	0
484.948	1	2
485.119	1	-6
485.289	1	0
485.459	1	-1
485.630	1	12
485.800	1	7
485.970	1	3
486.141	1	7
486.311	1	5
486.481	1	1
486.652	1	-6
486.822	1	-7
486.992	1	1
487.163	1	0
487.333	1	-7
487.503	1	8
487.674	1	2
487.844	1	-2
488.014	1	6
488.185	1	0
488.355	1	-2
488.525	1	-2
488.696	1	-2
488.866	1	-14
489.036	1	8
489.207	1	9
489.377	1	4
489.547	1	-1
489.718	1	8
489.888	1	4
490.058	1	6
490.228	1	-2
490.399	1	-3
490.569	1	5
490.739	1	1
490.910	1	-7
491.080	1	-3
491.250	1	4
491.421	1	9
491.591	1	-13
491.761	1	-6
491.932	1	-2
492.102	1	-11
492.272	1	-2
492.442	1	7
492.613	1	5
492.783	1	5
492.953	1	0
493.124	1	0
493.294	1	6
493.464	1	5
493.635	1	-3
493.805	1	7
493.975	1	-2
494.145	1	0
494.316	1	-4
494.486	1	-4
494.656	1	14
494.827	1	5
494.997	1	-1
495.167	1	1
495.337	1	-3
495.508	1	4
495.678	1	5
495.848	1	0
496.019	1	7
496.189	1	-5
496.359	1	-7
496.529	1	2
496.700	1	1
496.870	1	8
497.040	1	-3
497.211	1	7
497.381	1	4
497.551	1	0
497.721	1	-7
497.892	1	-3
498.062	1	5
498.232	1	5
498.403	1	-4
498.573	1	-3
498.743	1	7
498.913	1	14
499.084	1	2
499.254	1	-12
499.424	1	-5
499.594	1	-4
499.765	1	8
499.935	1	-11
500.105	1	5
500.275	1	-3
500.446	1	2
500.616	1	-6
500.786	1	3
500.956	1	1
501.127	1	3
501.297	1	-3
501.467	1	-7
501.638	1	10
501.808	1	0
501.978	1	3
502.148	1	0
502.319	1	15
502.489	1	-3
502.659	1	11
502.829	1	-1
503.000	1	-1
503.170	1	0
503.340	1	0
503.510	1	-12
503.681	1	-3
503.851	1	2
504.021	1	10
504.191	1	-3
504.362	1	9
504.532	1	-3
504.702	1	0
504.872	1	-14
505.042	1	-6
505.213	1	10
505.383	1	-5
505.553	1	4
505.723	1	1
505.894	1	0
506.064	1	7
506.234	1	2
506.404	1	2
506.575	1	-1
506.745	1	5
506.915	1	4
507.085	1	-13
507.256	1	6
507.426	1	-6
507.596	1	1
507.766	1	-5
507.936	1	4
508.107	1	6
508.277	1	4
508.447	1	-3
508.617	1	-2
508.788	1	1
508.958	1	4
509.128	1	-4
509.298	1	-4
509.468	1	7
509.639	1	0
509.809	1	6
509.979	1	1
510.149	1	11
510.319	1	-5
510.490	1	0
510.660	1	9
510.830	1	-4
511.000	1	-5
511.171	1	0
511.341	1	9
511.511	1	1
511.681	1	7
511.851	1	3
512.022	1	-4
512.192	1	0
512.362	1	1
512.532	1	-5
512.702	1	5
512.873	1	9
513.043	1	6
513.213	1	4
513.383	1	-5
513.553	1	10
513.724	1	-8
513.894	1	-2
514.064	1	8
514.234	1	9
514.404	1	10
514.575	1	-2
514.745	1	1
514.915	1	-19
515.085	1	-1
515.255	1	6
515.425	1	5
515.596	1	3
515.766	1	1
515.936	1	4
516.106	1	0
516.276	1	8
516.447	1	8
516.617	1	-5
516.787	1	6
516.957	1	-2
517.127	1	2
517.297	1	1
517.468	1	-7
517.638	1	-5
517.808	1	-1
517.978	1	14
518.148	1	-6
518.319	1	3
518.489	1	-2
518.659	1	-4
518.829	1	-11
518.999	1	2
519.169	1	3
519.340	1	7
519.510	1	0
519.680	1	-9
519.850	1	-2
520.020	1	9
520.190	1	-9
520.361	1	-6
520.531	1	2
520.701	1	16
520.871	1	-8
521.041	1	4
521.211	1	-1
521.382	1	-2
521.552	1	-3
521.722	1	13
521.892	1	12
522.062	1	-6
522.232	1	14
522.402	1	2
522.573	1	-7
522.743	1	-2
522.913	1	3
523.083	1	-3
523.253	1	-1
523.423	1	-4
523.593	1	0
523.764	1	3
523.934	1	0
524.104	1	0
524.274	1	-5
524.444	1	4
524.614	1	2
524.784	1	-12
524.955	1	8
525.125	1	2
525.295	1	4
525.465	1	3
525.635	1	5
525.805	1	8
525.975	1	-2
526.146	1	-6
526.316	1	-7
526.486	1	-1
526.656	1	-4
526.826	1	5
526.996	1	2
527.166	1	-6
527.337	1	-12
527.507	1	5
527.677	1	9
527.847	1	2
528.017	1	-5
528.187	1	-1
528.357	1	9
528.527	1	6
528.698	1	1
528.868	1	3
529.038	1	2
529.208	1	-2
529.378	1	9
529.548	1	3
529.718	1	3
529.888	1	7
530.058	1	3
530.229	1	5
530.399	1	-12
530.569	1	-12
530.739	1	-2
530.909	1	-6
531.079	1	-17
531.249	1	-6
531.419	1	10
531.589	1	5
531.760	1	-2
531.930	1	4
532.100	1	-5
532.270	1	2
532.440	1	2
532.610	1	4
532.780	1	3
532.950	1	-8
533.120	1	8
533.290	1	-4
533.461	1	1
533.631	1	1
533.801	1	6
533.971	1	-5
534.141	1	1
534.311	1	12
534.481	1	3
534.651	1	-4
534.821	1	-6
534.991	1	0
535.162	1	-7
535.332	1	-1
535.502	1	-4
535.672	1	-2
535.842	1	3
536.012	1	-4
536.182	1	3
536.352	1	-5
536.522	1	-10
536.692	1	-6
536.862	1	1
537.032	1	-1
537.203	1	5
537.373	1	5
537.543	1	-8
537.713	1	2
537.883	1	0
538.053	1	-5
538.223	1	6
538.393	1	2
538.563	1	5
538.733	1	-3
538.903	1	-3
539.073	1	3
539.243	1	3
539.413	1	3
539.584	1	-2
539.754	1	6
539.924	1	-5
540.094	1	1
540.264	1	-10
540.434	1	-2
540.604	1	-5
540.774	1	9
540.944	1	0
541.114	1	-3
541.284	1	-2
541.454	1	6
541.624	1	3
541.794	1	-3
541.964	1	-4
542.134	1	6
542.305	1	5
542.475	1	3
542.645	1	8
542.815	1	-5
542.985	1	4
543.155	1	-9
543.325	1	1
543.495	1	12
543.665	1	2
543.835	1	-13
544.005	1	-10
544.175	1	-8
544.345	1	2
544.515	1	3
544.685	1	6
544.855	1	-6
545.025	1	8
545.195	1	4
545.365	1	7
545.535	1	3
545.705	1	13
545.875	1	-7
546.045	1	5
546.216	1	-15
546.386	1	4
546.556	1	-2
546.726	1	9
546.896	1	7
547.066	1	5
547.236	1	3
547.406	1	-6
547.576	1	5
547.746	1	2
547.916	1	5
548.086	1	5
548.256	1	-5
548.426	1	-8
548.596	1	4
548.766	1	12
548.936	1	3
549.106	1	3
549.276	1	9
549.446	1	5
549.616	1	-7
549.786	1	-14
549.956	1	-1
550.126	1	-4
550.296	1	-9
550.466	1	4
550.636	1	7
550.806	1	8
550.976	1	-6
551.146	1	-6
551.316	1	0
551.486	1	6
551.656	1	4
551.826	1	12
551.996	1	0
552.166	1	7
552.336	1	-7
552.506	1	5
552.676	1	0
552.846	1	-6
553.016	1	10
553.186	1	0
553.356	1	-4
553.526	1	-3
553.696	1	12
553.866	1	4
554.036	1	1
554.206	1	1
554.376	1	-5
554.546	1	4
554.716	1	-3
554.886	1	12
555.056	1	-4
555.226	1	6
555.396	1	-3
555.566	1	7
555.736	1	8
555.906	1	5
556.076	1	10
556.246	1	0
556.416	1	-8
556.586	1	-6
556.756	1	-2
556.926	1	-3
557.096	1	0
557.266	1	1
557.436	1	3
557.606	1	-3
557.776	1	3
557.946	1	0
558.116	1	6
558.286	1	1
558.456	1	1
558.626	1	2
558.796	1	5
558.966	1	1
559.136	1	-4
559.306	1	-2
559.476	1	8
559.646	1	-2
559.816	1	1
559.986	1	-6
560.155	1	4
560.325	1	3
560.495	1	-2
560.665	1	-8
560.835	1	1
561.005	1	11
561.175	1	-4
561.345	1	-1
561.515	1	-1
561.685	1	-1
561.855	1	2
562.025	1	3
562.195	1	1
562.365	1	1
562.535	1	4
562.705	1	-3
562.875	1	-5
563.045	1	-1
563.215	1	2
563.385	1	-2
563.555	1	-2
563.725	1	0
563.895	1	2
564.064	1	-6
564.234	1	1
564.404	1	-5
564.574	1	14
564.744	1	-2
564.914	1	3
565.084	1	-13
565.254	1	5
565.424	1	1
565.594	1	5
565.764	1	-7
565.934	1	5
566.104	1	0
566.274	1	3
566.444	1	-9
566.614	1	10
566.783	1	2
566.953	1	4
567.123	1	8
567.293	1	5
567.463	1	-5
567.633	1	-7
567.803	1	13
567.973	1	2
568.143	1	-4
568.313	1	-3
568.483	1	9
568.653	1	0
568.823	1	-6
568.993	1	-11
569.162	1	-3
569.332	1	7
569.502	1	5
569.672	1	3
569.842	1	-5
570.012	1	4
570.182	1	-11
570.352	1	-5
570.522	1	-8
570.692	1	5
570.862	1	1
571.031	1	3
571.201	1	11
571.371	1	1
571.541	1	-8
571.711	1	3
571.881	1	5
572.051	1	11
572.221	1	7
572.391	1	19
572.561	1	2
572.731	1	-1
572.900	1	-5
573.070	1	-1
573.240	1	-12
573.410	1	-3
573.580	1	-1
573.750	1	7
573.920	1	-5
574.090	1	1
574.260	1	-2
574.430	1	2
574.599	1	1
574.769	1	-3
574.939	1	-10
575.109	1	-7
575.279	1	6
575.449	1	19
575.619	1	7
575.789	1	2
575.959	1	-1
576.128	1	-13
576.298	1	-1
576.468	1	7
576.638	1	-1
576.808	1	-2
576.978	1	5
577.148	1	2
577.318	1	10
577.487	1	7
577.657	1	-4
577.827	1	-4
577.997	1	5
578.167	1	2
578.337	1	2
578.507	1	-2
578.677	1	0
578.846	1	-3
579.016	1	7
579.186	1	10
579.356	1	0
579.526	1	-3
579.696	1	10
579.866	1	-1
580.036	1	1
580.205	1	-6
580.375	1	7
580.545	1	4
580.715	1	7
580.885	1	9
581.055	1	-5
581.225	1	1
581.394	1	-16
581.564	1	-9
581.734	1	-3
581.904	1	1
582.074	1	2
582.244	1	3
582.414	1	2
582.583	1	0
582.753	1	11
582.923	1	4
583.093	1	1
583.263	1	5
583.433	1	1
583.603	1	-8
583.772	1	-16
583.942	1	6
584.112	1	-3
584.282	1	-2
584.452	1	0
584.622	1	3
584.791	1	0
584.961	1	-12
585.131	1	2
585.301	1	-6
585.471	1	-12
585.641	1	1
585.811	1	-8
585.980	1	6
586.150	1	5
586.320	1	-6
586.490	1	10
586.660	1	8
586.830	1	-6
586.999	1	-3
587.169	1	8
587.339	1	0
587.509	1	0
587.679	1	-5
587.849	1	5
588.018	1	-2
588.188	1	7
588.358	1	-9
588.528	1	-3
588.698	1	-6
588.867	1	1
589.037	1	-6
589.207	1	5
589.377	1	7
589.547	1	10
589.717	1	-7
589.886	1	-3
590.056	1	1
590.226	1	-7
590.396	1	-6
590.566	1	-11
590.735	1	4
590.905	1	5
591.075	1	-6
591.245	1	0
591.415	1	-5
591.585	1	7
591.754	1	-5
591.924	1	8
592.094	1	-6
592.264	1	-12
592.434	1	1
592.603	1	-3
592.773	1	0
592.943	1	11
593.113	1	1
593.283	1	-5
593.452	1	2
593.622	1	-5
593.792	1	10
593.962	1	8
594.132	1	2
594.301	1	3
594.471	1	12
594.641	1	4
594.811	1	-7
594.981	1	-5
595.150	1	2
595.320	1	-3
595.490	1	1
595.660	1	8
595.829	1	-8
595.999	1	-6
596.169	1	8
596.339	1	6
596.509	1	5
596.678	1	6
596.848	1	5
597.018	1	2
597.188	1	0
597.358	1	-7
597.527	1	5
597.697	1	-3
597.867	1	1
598.037	1	4
598.206	1	5
598.376	1	-4
598.546	1	4
598.716	1	-4
598.885	1	-4
599.055	1	9
599.225	1	12
599.395	1	0
599.565	1	-6
599.734	1	7
599.904	1	-12
600.074	1	5
600.244	1	-3
600.413	1	-3
600.583	1	2
600.753	1	18
600.923	1	2
601.092	1	14
601.262	1	4
601.432	1	6
601.602	1	16
601.771	1	-1
601.941	1	3
602.111	1	3
602.281	1	-1
602.451	1	2
602.620	1	6
602.790	1	-4
602.960	1	-3
603.130	1	-5
603.299	1	-2
603.469	1	4
603.639	1	-9
603.809	1	9
603.978	1	-3
604.148	1	-6
604.318	1	2
604.487	1	8
604.657	1	1
604.827	1	5
604.997	1	-2
605.166	1	2
605.336	1	-3
605.506	1	-6
605.676	1	10
605.845	1	2
606.015	1	-10
606.185	1	2
606.355	1	-4
606.524	1	0
606.694	1	2
606.864	1	1
607.034	1	3
607.203	1	6
607.373	1	-2
607.543	1	-4
607.712	1	0
607.882	1	-5
608.052	1	4
608.222	1	10
608.391	1	11
608.561	1	-8
608.731	1	-5
608.901	1	5
609.070	1	-4
609.240	1	-11
609.410	1	-2
609.579	1	0
609.749	1	6
609.919	1	-5
610.089	1	7
610.258	1	5
610.428	1	10
610.598	1	-5
610.767	1	7
610.937	1	1
611.107	1	-3
611.277	1	-9
611.446	1	-3
611.616	1	0
611.786	1	9
611.955	1	2
612.125	1	4
612.295	1	-3
612.465	1	-4
612.634	1	-4
612.804	1	0
612.974	1	-4
613.143	1	6
613.313	1	2
613.483	1	7
613.652	1	8
613.822	1	0
613.992	1	-9
614.162	1	-1
614.331	1	3
614.501	1	-1
614.671	1	2
614.840	1	-5
615.010	1	1
615.180	1	2
615.349	1	12
615.519	1	-3
615.689	1	-15
615.858	1	3
616.028	1	1
616.198	1	-3
616.368	1	1
616.537	1	0
616.707	1	8
616.877	1	-1
617.046	1	-2
617.216	1	0
617.386	1	4
617.555	1	1
617.725	1	-1
617.895	1	4
618.064	1	1
618.234	1	-8
618.404	1	-15
618.573	1	6
618.743	1	9
618.913	1	5
619.082	1	-1
619.252	1	-6
619.422	1	-7
619.591	1	-1
619.761	1	-3
619.931	1	8
620.100	1	11
620.270	1	9
620.440	1	1
620.609	1	9
620.779	1	7
620.949	1	4
621.118	1	10
621.288	1	7
621.458	1	2
621.627	1	-3
621.797	1	-6
621.967	1	-6
622.136	1	3
622.306	1	-4
622.476	1	2
622.645	1	2
622.815	1	1
622.985	1	-10
623.154	1	-5
623.324	1	4
623.494	1	-3
623.663	1	-3
623.833	1	-4
624.002	1	-3
624.172	1	4
624.342	1	5
624.511	1	8
624.681	1	-6
624.851	1	-5
625.020	1	6
625.190	1	9
625.360	1	-1
625.529	1	-8
625.699	1	-6
625.869	1	-1
626.038	1	-4
626.208	1	11
626.377	1	1
626.547	1	-4
626.717	1	-7
626.886	1	-7
627.056	1	2
627.226	1	1
627.395	1	-5
627.565	1	8
627.735	1	2
627.904	1	-2
628.074	1	8
628.243	1	11
628.413	1	-1
628.583	1	11
628.752	1	-14
628.922	1	-4
629.091	1	1
629.261	1	9
629.431	1	-6
629.600	1	1
629.770	1	8
629.940	1	4
630.109	1	3
630.279	1	5
630.448	1	-4
630.618	1	6
630.788	1	0
630.957	1	6
631.127	1	7
631.297	1	2
631.466	1	0
631.636	1	5
631.805	1	-1
631.975	1	-2
632.145	1	3
632.314	1	-2
632.484	1	1
632.653	1	-7
632.823	1	2
632.993	1	1
633.162	1	-1
633.332	1	-6
633.501	1	-1
633.671	1	2
633.841	1	14
634.010	1	14
634.180	1	-2
634.349	1	8
634.519	1	3
634.689	1	-4
634.858	1	-3
635.028	1	-8
635.197	1	2
635.367	1	3
635.537	1	0
635.706	1	7
635.876	1	2
636.045	1	6
636.215	1	12
636.384	1	4
636.554	1	-6
636.724	1	5
636.893	1	-4
637.063	1	1
637.232	1	1
637.402	1	-9
637.572	1	-2
637.741	1	4
637.911	1	-1
638.080	1	0
638.250	1	2
638.419	1	-11
638.589	1	6
638.759	1	0
638.928	1	6
639.098	1	-2
639.267	1	1
639.437	1	-2
639.606	1	6
639.776	1	-2
639.946	1	10
640.115	1	-8
640.285	1	8
640.454	1	7
640.624	1	7
640.793	1	1
640.963	1	9
641.132	1	2
641.302	1	4
641.472	1	2
641.641	1	-4
641.811	1	-7
641.980	1	5
642.150	1	0
642.319	1	10
642.489	1	-8
642.659	1	2
642.828	1	8
642.998	1	9
643.167	1	-5
643.337	1	0
643.506	1	-7
643.676	1	-4
643.845	1	-3
644.015	1	3
644.184	1	-6
644.354	1	-2
644.524	1	-1
644.693	1	0
644.863	1	6
645.032	1	0
645.202	1	6
645.371	1	-2
645.541	1	7
645.710	1	-4
645.880	1	-12
646.049	1	-4
646.219	1	-2
646.388	1	-1
646.558	1	1
646.728	1	-6
646.897	1	1
647.067	1	8
647.236	1	15
647.406	1	14
647.575	1	0
647.745	1	6
647.914	1	-10
648.084	1	-1
648.253	1	-4
648.423	1	-1
648.592	1	-19
648.762	1	3
648.931	1	15
649.101	1	2
649.270	1	-1
649.440	1	-1
649.610	1	3
649.779	1	3
649.949	1	3
650.118	1	7
650.288	1	7
650.457	1	13
650.627	1	7
650.796	1	5
650.966	1	-8
651.135	1	-4
651.305	1	-3
651.474	1	9
651.644	1	12
651.813	1	6
651.983	1	-4
652.152	1	6
652.322	1	0
652.491	1	7
652.661	1	-5
652.830	1	-1
653.000	1	-2
653.169	1	-2
653.339	1	14
653.508	1	-4
653.678	1	-2
653.847	1	-7
654.017	1	5
654.186	1	5
654.356	1	-8
654.525	1	-10
654.695	1	3
654.864	1	-2
655.034	1	5
655.203	1	7
655.373	1	8
655.542	1	-3
655.712	1	-4
655.881	1	4
656.051	1	3
656.220	1	-5
656.390	1	3
656.559	1	-7
656.729	1	4
656.898	1	4
657.068	1	2
657.237	1	11
657.406	1	-4
657.576	1	1
657.745	1	1
657.915	1	-11
658.084	1	6
658.254	1	5
658.423	1	7
658.593	1	11
658.762	1	5
658.932	1	-6
659.101	1	-5
659.271	1	7
659.440	1	7
659.610	1	-4
659.779	1	18
659.949	1	-3
660.118	1	5
660.288	1	-10
660.457	1	5
660.626	1	1
660.796	1	-2
660.965	1	5
661.135	1	-9
661.304	1	-4
661.474	1	-3
661.643	1	6
661.813	1	3
661.982	1	4
662.152	1	6
662.321	1	-2
662.491	1	-7
662.660	1	1
662.829	1	4
662.999	1	-6
663.168	1	1
663.338	1	7
663.507	1	-4
663.677	1	2
663.846	1	-3
664.016	1	-6
664.185	1	-4
664.354	1	12
664.524	1	1
664.693	1	3
664.863	1	-2
665.032	1	-7
665.202	1	-8
665.371	1	-4
665.541	1	15
665.710	1	-1
665.879	1	-6
666.049	1	0
666.218	1	-9
666.388	1	11
666.557	1	2
666.727	1	3
666.896	1	8
667.065	1	3
667.235	1	11
667.404	1	-1
667.574	1	0
667.743	1	0
667.913	1	4
668.082	1	-3
668.251	1	4
668.421	1	0
668.590	1	-3
668.760	1	4
668.929	1	6
669.099	1	-2
669.268	1	-6
669.437	1	-1
669.607	1	11
669.776	1	8
669.946	1	-5
670.115	1	-14
670.285	1	10
670.454	1	-5
670.623	1	2
670.793	1	4
670.962	1	-5
671.132	1	-1
671.301	1	-4
671.470	1	4
671.640	1	-4
671.809	1	6
671.979	1	11
672.148	1	3
672.317	1	1
672.487	1	-5
672.656	1	-6
672.826	1	2
672.995	1	1
673.164	1	-9
673.334	1	2
673.503	1	-4
673.673	1	6
673.842	1	6
674.011	1	3
674.181	1	7
674.350	1	0
674.520	1	3
674.689	1	-6
674.858	1	-6
675.028	1	9
675.197	1	1
675.367	1	4
675.536	1	3
675.705	1	1
675.875	1	-6
676.044	1	-6
676.214	1	4
676.383	1	2
676.552	1	5
676.722	1	-14
676.891	1	3
677.060	1	-3
677.230	1	8
677.399	1	-9
677.569	1	2
677.738	1	-1
677.907	1	-15
678.077	1	3
678.246	1	0
678.416	1	7
678.585	1	-3
678.754	1	-1
678.924	1	9
679.093	1	9
679.262	1	0
679.432	1	11
679.601	1	-1
679.771	1	-1
679.940	1	1
680.109	1	-3
680.279	1	-2
680.448	1	2
680.617	1	-3
680.787	1	2
680.956	1	3
681.125	1	8
681.295	1	-7
681.464	1	-2
681.634	1	-1
681.803	1	3
681.972	1	-5
682.142	1	9
682.311	1	-7
682.480	1	-5
682.650	1	0
682.819	1	6
682.988	1	0
683.158	1	2
683.327	1	8
683.496	1	-1
683.666	1	-1
683.835	1	-6
684.004	1	7
684.174	1	9
684.343	1	8
684.512	1	5
684.682	1	2
684.851	1	6
685.021	1	-4
685.190	1	6
685.359	1	-14
685.529	1	7
685.698	1	0
685.867	1	6
686.037	1	2
686.206	1	-2
686.375	1	1
686.545	1	9
686.714	1	-6
686.883	1	3
687.053	1	-6
687.222	1	0
687.391	1	9
687.561	1	8
687.730	1	5
687.899	1	-5
688.069	1	4
688.238	1	-7
688.407	1	6
688.577	1	0
688.746	1	11
