340.368	1	6
340.539	1	16
340.710	1	2
340.881	1	2
341.052	1	-8
341.223	1	16
341.394	1	-5
341.565	1	5
341.737	1	0
341.908	1	0
342.079	1	-4
342.250	1	7
342.421	1	10
342.592	1	7
342.763	1	0
342.934	1	2
343.105	1	8
343.276	1	-3
343.447	1	-8
343.618	1	-8
343.789	1	2
343.960	1	-5
344.131	1	6
344.302	1	-3
344.473	1	2
344.644	1	2
344.815	1	7
344.986	1	2
345.157	1	9
345.328	1	1
345.499	1	3
345.670	1	2
345.841	1	-5
346.012	1	7
346.183	1	15
346.354	1	11
346.526	1	5
346.697	1	4
346.868	1	-4
347.039	1	2
347.210	1	-2
347.381	1	5
347.552	1	4
347.723	1	2
347.894	1	4
348.065	1	10
348.236	1	16
348.407	1	1
348.578	1	-1
348.749	1	-2
348.920	1	2
349.091	1	11
349.262	1	-2
349.433	1	5
349.604	1	9
349.775	1	2
349.946	1	-2
350.117	1	5
350.288	1	-1
350.459	1	6
350.630	1	14
350.801	1	4
350.972	1	3
351.143	1	13
351.314	1	0
351.485	1	11
351.656	1	1
351.827	1	1
351.998	1	7
352.169	1	1
352.340	1	1
352.511	1	5
352.682	1	8
352.853	1	1
353.024	1	7
353.195	1	5
353.366	1	3
353.537	1	11
353.708	1	7
353.879	1	-6
354.050	1	7
354.221	1	5
354.392	1	1
354.563	1	8
354.734	1	14
354.905	1	14
355.076	1	6
355.247	1	10
355.418	1	11
355.589	1	-1
355.760	1	13
355.931	1	6
356.102	1	4
356.273	1	11
356.444	1	20
356.615	1	7
356.785	1	13
356.956	1	2
357.127	1	14
357.298	1	10
357.469	1	12
357.640	1	8
357.811	1	8
357.982	1	7
358.153	1	21
358.324	1	12
358.495	1	7
358.666	1	5
358.837	1	12
359.008	1	17
359.179	1	17
359.350	1	16
359.521	1	19
359.692	1	12
359.863	1	22
360.034	1	31
360.205	1	16
360.376	1	7
360.547	1	28
360.718	1	19
360.889	1	23
361.060	1	24
361.231	1	27
361.401	1	30
361.572	1	25
361.743	1	40
361.914	1	44
362.085	1	40
362.256	1	24
362.427	1	30
362.598	1	32
362.769	1	43
362.940	1	38
363.111	1	52
363.282	1	47
363.453	1	45
363.624	1	45
363.795	1	53
363.966	1	49
364.137	1	53
364.308	1	71
364.478	1	60
364.649	1	65
364.820	1	70
364.991	1	71
365.162	1	59
365.333	1	77
365.504	1	78
365.675	1	62
365.846	1	76
366.017	1	81
366.188	1	78
366.359	1	77
366.530	1	86
366.701	1	90
366.871	1	87
367.042	1	107
367.213	1	86
367.384	1	60
367.555	1	96
367.726	1	84
367.897	1	89
368.068	1	85
368.239	1	75
368.410	1	83
368.581	1	82
368.752	1	84
368.923	1	75
369.093	1	80
369.264	1	69
369.435	1	74
369.606	1	71
369.777	1	74
369.948	1	52
370.119	1	64
370.290	1	67
370.461	1	58
370.632	1	67
370.803	1	63
370.973	1	58
371.144	1	56
371.315	1	44
371.486	1	44
371.657	1	50
371.828	1	62
371.999	1	42
372.170	1	47
372.341	1	50
372.512	1	40
372.682	1	48
372.853	1	39
373.024	1	47
373.195	1	39
373.366	1	34
373.537	1	51
373.708	1	36
373.879	1	33
374.050	1	31
374.220	1	30
374.391	1	38
374.562	1	40
374.733	1	37
374.904	1	41
375.075	1	27
375.246	1	24
375.417	1	34
375.588	1	35
375.758	1	18
375.929	1	28
376.100	1	40
376.271	1	26
376.442	1	12
376.613	1	35
376.784	1	35
376.955	1	8
377.125	1	20
377.296	1	20
377.467	1	24
377.638	1	17
377.809	1	31
377.980	1	29
378.151	1	17
378.321	1	24
378.492	1	36
378.663	1	16
378.834	1	33
379.005	1	19
379.176	1	8
379.347	1	27
379.518	1	20
379.688	1	21
379.859	1	23
380.030	1	35
380.201	1	38
380.372	1	19
380.543	1	41
380.714	1	29
380.884	1	15
381.055	1	17
381.226	1	21
381.397	1	30
381.568	1	36
381.739	1	17
381.910	1	28
382.080	1	23
382.251	1	25
382.422	1	30
382.593	1	31
382.764	1	28
382.935	1	38
383.105	1	22
383.276	1	43
383.447	1	33
383.618	1	41
383.789	1	39
383.960	1	28
384.130	1	38
384.301	1	42
384.472	1	37
384.643	1	43
384.814	1	42
384.985	1	34
385.156	1	57
385.326	1	41
385.497	1	45
385.668	1	47
385.839	1	58
386.010	1	59
386.180	1	45
386.351	1	38
386.522	1	55
386.693	1	44
386.864	1	50
387.035	1	58
387.205	1	52
387.376	1	50
387.547	1	57
387.718	1	50
387.889	1	46
388.060	1	53
388.230	1	47
388.401	1	45
388.572	1	48
388.743	1	41
388.914	1	41
389.084	1	56
389.255	1	44
389.426	1	50
389.597	1	46
389.768	1	51
389.939	1	48
390.109	1	38
390.280	1	45
390.451	1	46
390.622	1	47
390.793	1	42
390.963	1	42
391.134	1	33
391.305	1	38
391.476	1	49
391.647	1	51
391.817	1	39
391.988	1	27
392.159	1	47
392.330	1	34
392.501	1	34
392.671	1	34
392.842	1	46
393.013	1	46
393.184	1	48
393.355	1	49
393.525	1	48
393.696	1	34
393.867	1	34
394.038	1	31
394.208	1	46
394.379	1	29
394.550	1	44
394.721	1	34
394.892	1	31
395.062	1	41
395.233	1	43
395.404	1	49
395.575	1	36
395.746	1	38
395.916	1	49
396.087	1	33
396.258	1	43
396.429	1	36
396.599	1	39
396.770	1	52
396.941	1	39
397.112	1	28
397.283	1	33
397.453	1	56
397.624	1	43
397.795	1	37
397.966	1	42
398.136	1	45
398.307	1	37
398.478	1	39
398.649	1	50
398.819	1	55
398.990	1	39
399.161	1	45
399.332	1	44
399.503	1	44
399.673	1	26
399.844	1	45
400.015	1	45
400.186	1	35
400.356	1	48
400.527	1	44
400.698	1	28
400.869	1	28
401.039	1	33
401.210	1	28
401.381	1	24
401.552	1	41
401.722	1	28
401.893	1	36
402.064	1	32
402.235	1	17
402.405	1	25
402.576	1	23
402.747	1	38
402.918	1	38
403.088	1	36
403.259	1	23
403.430	1	33
403.601	1	23
403.771	1	34
403.942	1	29
404.113	1	35
404.284	1	30
404.454	1	38
404.625	1	31
404.796	1	24
404.967	1	31
405.137	1	30
405.308	1	31
405.479	1	33
405.649	1	31
405.820	1	26
405.991	1	25
406.162	1	35
406.332	1	29
406.503	1	24
406.674	1	27
406.845	1	27
407.015	1	27
407.186	1	34
407.357	1	30
407.527	1	24
407.698	1	36
407.869	1	29
408.040	1	31
408.210	1	29
408.381	1	15
408.552	1	26
408.722	1	23
408.893	1	20
409.064	1	23
409.235	1	16
409.405	1	32
409.576	1	26
409.747	1	30
409.917	1	24
410.088	1	19
410.259	1	21
410.430	1	15
410.600	1	8
410.771	1	19
410.942	1	18
411.112	1	14
411.283	1	21
411.454	1	12
411.625	1	12
411.795	1	23
411.966	1	24
412.137	1	22
412.307	1	17
412.478	1	17
412.649	1	16
412.819	1	19
412.990	1	15
413.161	1	8
413.332	1	22
413.502	1	12
413.673	1	31
413.844	1	37
414.014	1	7
414.185	1	12
414.356	1	15
414.526	1	18
414.697	1	19
414.868	1	8
415.038	1	14
415.209	1	12
415.380	1	21
415.550	1	17
415.721	1	14
415.892	1	14
416.063	1	26
416.233	1	12
416.404	1	9
416.575	1	10
416.745	1	8
416.916	1	5
417.087	1	12
417.257	1	17
417.428	1	12
417.599	1	25
417.769	1	14
417.940	1	19
418.111	1	12
418.281	1	11
418.452	1	21
418.623	1	8
418.793	1	13
418.964	1	11
419.135	1	17
419.305	1	7
419.476	1	5
419.647	1	18
419.817	1	18
419.988	1	1
420.159	1	24
420.329	1	11
420.500	1	27
420.671	1	13
420.841	1	6
421.012	1	12
421.183	1	20
421.353	1	11
421.524	1	17
421.695	1	17
421.865	1	26
422.036	1	9
422.206	1	3
422.377	1	15
422.548	1	24
422.718	1	2
422.889	1	12
423.060	1	7
423.230	1	10
423.401	1	14
423.572	1	25
423.742	1	17
423.913	1	19
424.084	1	11
424.254	1	9
424.425	1	6
424.595	1	5
424.766	1	11
424.937	1	11
425.107	1	2
425.278	1	5
425.449	1	15
425.619	1	11
425.790	1	2
425.961	1	5
426.131	1	8
426.302	1	14
426.472	1	6
426.643	1	8
426.814	1	1
426.984	1	11
427.155	1	4
427.326	1	14
427.496	1	7
427.667	1	12
427.837	1	10
428.008	1	8
428.179	1	2
428.349	1	0
428.520	1	10
428.691	1	12
428.861	1	7
429.032	1	14
429.202	1	12
429.373	1	11
429.544	1	13
429.714	1	5
429.885	1	9
430.055	1	11
430.226	1	4
430.397	1	-3
430.567	1	16
430.738	1	2
430.909	1	-1
431.079	1	5
431.250	1	3
431.420	1	8
431.591	1	7
431.762	1	6
431.932	1	-1
432.103	1	17
432.273	1	13
432.444	1	-13
432.615	1	1
432.785	1	6
432.956	1	9
433.126	1	10
433.297	1	8
433.468	1	5
433.638	1	4
433.809	1	11
433.979	1	7
434.150	1	13
434.320	1	9
434.491	1	10
434.662	1	20
434.832	1	9
435.003	1	10
435.173	1	12
435.344	1	-1
435.515	1	2
435.685	1	15
435.856	1	-2
436.026	1	2
436.197	1	3
436.368	1	6
436.538	1	-4
436.709	1	-1
436.879	1	9
437.050	1	11
437.220	1	-6
437.391	1	16
437.562	1	6
437.732	1	3
437.903	1	-7
438.073	1	0
438.244	1	1
438.414	1	4
438.585	1	3
438.756	1	15
438.926	1	11
439.097	1	5
439.267	1	2
439.438	1	11
439.608	1	3
439.779	1	2
439.949	1	4
440.120	1	-1
440.291	1	12
440.461	1	13
440.632	1	9
440.802	1	16
440.973	1	6
441.143	1	-1
441.314	1	-3
441.485	1	11
441.655	1	6
441.826	1	-4
441.996	1	-4
442.167	1	-3
442.337	1	7
442.508	1	3
442.678	1	-1
442.849	1	-5
443.019	1	1
443.190	1	19
443.361	1	10
443.531	1	2
443.702	1	-1
443.872	1	1
444.043	1	13
444.213	1	8
444.384	1	2
444.554	1	9
444.725	1	4
444.895	1	0
445.066	1	4
445.237	1	11
445.407	1	7
445.578	1	12
445.748	1	1
445.919	1	10
446.089	1	3
446.260	1	-4
446.430	1	0
446.601	1	19
446.771	1	2
446.942	1	-1
447.112	1	8
447.283	1	3
447.453	1	11
447.624	1	1
447.794	1	12
447.965	1	10
448.135	1	-2
448.306	1	0
448.477	1	12
448.647	1	0
448.818	1	-4
448.988	1	-3
449.159	1	9
449.329	1	6
449.500	1	1
449.670	1	19
449.841	1	3
450.011	1	12
450.182	1	0
450.352	1	8
450.523	1	12
450.693	1	4
450.864	1	8
451.034	1	11
451.205	1	-7
451.375	1	3
451.546	1	-5
451.716	1	17
451.887	1	1
452.057	1	14
452.228	1	12
452.398	1	11
452.569	1	-3
452.739	1	-4
452.910	1	4
453.080	1	11
453.251	1	9
453.421	1	-1
453.592	1	11
453.762	1	12
453.933	1	1
454.103	1	5
454.274	1	15
454.444	1	9
454.615	1	3
454.785	1	2
454.956	1	10
455.126	1	9
455.297	1	-3
455.467	1	-3
455.638	1	11
455.808	1	3
455.979	1	-2
456.149	1	7
456.320	1	6
456.490	1	2
456.661	1	-5
456.831	1	10
457.001	1	6
457.172	1	10
457.342	1	4
457.513	1	17
457.683	1	6
457.854	1	3
458.024	1	-8
458.195	1	8
458.365	1	14
458.536	1	-3
458.706	1	19
458.877	1	9
459.047	1	10
459.218	1	8
459.388	1	12
459.559	1	3
459.729	1	0
459.899	1	-1
460.070	1	-1
460.240	1	7
460.411	1	-1
460.581	1	11
460.752	1	1
460.922	1	21
461.093	1	4
461.263	1	0
461.434	1	6
461.604	1	8
461.775	1	7
461.945	1	-2
462.115	1	11
462.286	1	2
462.456	1	8
462.627	1	7
462.797	1	-5
462.968	1	-2
463.138	1	-3
463.309	1	8
463.479	1	-1
463.649	1	8
463.820	1	0
463.990	1	12
464.161	1	1
464.331	1	16
464.502	1	10
464.672	1	-11
464.843	1	4
465.013	1	-4
465.183	1	0
465.354	1	7
465.524	1	2
465.695	1	3
465.865	1	3
466.036	1	3
466.206	1	0
466.376	1	2
466.547	1	1
466.717	1	13
466.888	1	5
467.058	1	9
467.229	1	3
467.399	1	6
467.569	1	10
467.740	1	0
467.910	1	5
468.081	1	1
468.251	1	9
468.422	1	-3
468.592	1	9
468.762	1	-7
468.933	1	10
469.103	1	4
469.274	1	-2
469.444	1	17
469.614	1	1
469.785	1	11
469.955	1	5
470.126	1	-3
470.296	1	0
470.467	1	-5
470.637	1	3
470.807	1	12
470.978	1	2
471.148	1	-1
471.319	1	4
471.489	1	2
471.659	1	3
471.830	1	3
472.000	1	5
472.171	1	0
472.341	1	-1
472.511	1	17
472.682	1	-7
472.852	1	3
473.023	1	4
473.193	1	0
473.363	1	-2
473.534	1	1
473.704	1	3
473.875	1	0
474.045	1	6
474.215	1	9
474.386	1	9
474.556	1	2
474.727	1	2
474.897	1	9
475.067	1	-5
475.238	1	-9
475.408	1	1
475.578	1	8
475.749	1	5
475.919	1	2
476.090	1	3
476.260	1	9
476.430	1	5
476.601	1	16
476.771	1	7
476.942	1	1
477.112	1	9
477.282	1	5
477.453	1	-7
477.623	1	2
477.793	1	2
477.964	1	7
478.134	1	2
478.305	1	8
478.475	1	11
478.645	1	3
478.816	1	16
478.986	1	-7
479.156	1	-3
479.327	1	2
479.497	1	8
479.667	1	5
479.838	1	0
480.008	1	7
480.179	1	-1
480.349	1	1
480.519	1	9
480.690	1	2
480.860	1	18
481.030	1	4
481.201	1	-2
481.371	1	17
481.541	1	10
481.712	1	3
481.882	1	2
482.053	1	5
482.223	1	4
482.393	1	6
482.564	1	3
482.734	1	8
482.904	1	4
483.075	1	0
483.245	1	11
483.415	1	11
483.586	1	6
483.756	1	11
483.926	1	0
484.097	1	9
484.267	1	0
484.437	1	12
484.608	1	-1
484.778	1	4
484.948	1	5
485.119	1	-7
485.289	1	13
485.459	1	5
485.630	1	3
485.800	1	7
485.970	1	7
486.141	1	2
486.311	1	6
486.481	1	6
486.652	1	4
486.822	1	-1
486.992	1	9
487.163	1	15
487.333	1	2
487.503	1	5
487.674	1	12
487.844	1	3
488.014	1	15
488.185	1	9
488.355	1	9
488.525	1	10
488.696	1	4
488.866	1	-9
489.036	1	11
489.207	1	-1
489.377	1	7
489.547	1	2
489.718	1	13
489.888	1	5
490.058	1	8
490.228	1	-6
490.399	1	14
490.569	1	13
490.739	1	7
490.910	1	-7
491.080	1	8
491.250	1	11
491.421	1	15
491.591	1	4
491.761	1	10
491.932	1	-2
492.102	1	6
492.272	1	4
492.442	1	14
492.613	1	13
492.783	1	7
492.953	1	5
493.124	1	7
493.294	1	11
493.464	1	10
493.635	1	7
493.805	1	13
493.975	1	0
494.145	1	15
494.316	1	20
494.486	1	7
494.656	1	4
494.827	1	19
494.997	1	4
495.167	1	10
495.337	1	4
495.508	1	9
495.678	1	9
495.848	1	8
496.019	1	19
496.189	1	5
496.359	1	8
496.529	1	11
496.700	1	17
496.870	1	20
497.040	1	2
497.211	1	6
497.381	1	4
497.551	1	11
497.721	1	8
497.892	1	13
498.062	1	11
498.232	1	20
498.403	1	14
498.573	1	11
498.743	1	25
498.913	1	17
499.084	1	10
499.254	1	0
499.424	1	11
499.594	1	10
499.765	1	14
499.935	1	2
500.105	1	18
500.275	1	13
500.446	1	15
500.616	1	2
500.786	1	23
500.956	1	17
501.127	1	23
501.297	1	16
501.467	1	17
501.638	1	19
501.808	1	10
501.978	1	20
502.148	1	13
502.319	1	23
502.489	1	3
502.659	1	26
502.829	1	19
503.000	1	21
503.170	1	15
503.340	1	22
503.510	1	7
503.681	1	10
503.851	1	21
504.021	1	22
504.191	1	22
504.362	1	11
504.532	1	18
504.702	1	26
504.872	1	16
505.042	1	9
505.213	1	34
505.383	1	21
505.553	1	13
505.723	1	33
505.894	1	31
506.064	1	22
506.234	1	28
506.404	1	21
506.575	1	10
506.745	1	40
506.915	1	27
507.085	1	11
507.256	1	23
507.426	1	26
507.596	1	13
507.766	1	31
507.936	1	26
508.107	1	33
508.277	1	22
508.447	1	26
508.617	1	23
508.788	1	31
508.958	1	20
509.128	1	39
509.298	1	23
509.468	1	39
509.639	1	19
509.809	1	37
509.979	1	29
510.149	1	19
510.319	1	16
510.490	1	27
510.660	1	24
510.830	1	22
511.000	1	23
511.171	1	16
511.341	1	29
511.511	1	24
511.681	1	27
511.851	1	40
512.022	1	22
512.192	1	27
512.362	1	31
512.532	1	26
512.702	1	29
512.873	1	35
513.043	1	26
513.213	1	31
513.383	1	20
513.553	1	25
513.724	1	25
513.894	1	31
514.064	1	38
514.234	1	40
514.404	1	28
514.575	1	26
514.745	1	27
514.915	1	12
515.085	1	32
515.255	1	29
515.425	1	30
515.596	1	33
515.766	1	38
515.936	1	25
516.106	1	34
516.276	1	25
516.447	1	35
516.617	1	33
516.787	1	35
516.957	1	37
517.127	1	26
517.297	1	29
517.468	1	28
517.638	1	28
517.808	1	39
517.978	1	38
518.148	1	27
518.319	1	52
518.489	1	28
518.659	1	32
518.829	1	17
518.999	1	41
519.169	1	31
519.340	1	33
519.510	1	42
519.680	1	39
519.850	1	29
520.020	1	38
520.190	1	33
520.361	1	30
520.531	1	33
520.701	1	43
520.871	1	30
521.041	1	42
521.211	1	39
521.382	1	27
521.552	1	25
521.722	1	44
521.892	1	44
522.062	1	36
522.232	1	45
522.402	1	36
522.573	1	37
522.743	1	35
522.913	1	36
523.083	1	46
523.253	1	36
523.423	1	33
523.593	1	40
523.764	1	38
523.934	1	47
524.104	1	29
524.274	1	29
524.444	1	38
524.614	1	39
524.784	1	26
524.955	1	41
525.125	1	33
525.295	1	42
525.465	1	40
525.635	1	30
525.805	1	40
525.975	1	28
526.146	1	35
526.316	1	34
526.486	1	35
526.656	1	35
526.826	1	43
526.996	1	42
527.166	1	32
527.337	1	29
527.507	1	38
527.677	1	46
527.847	1	32
528.017	1	36
528.187	1	45
528.357	1	36
528.527	1	41
528.698	1	32
528.868	1	33
529.038	1	35
529.208	1	35
529.378	1	41
529.548	1	29
529.718	1	33
529.888	1	43
530.058	1	46
530.229	1	46
530.399	1	33
530.569	1	41
530.739	1	33
530.909	1	30
531.079	1	23
531.249	1	34
531.419	1	44
531.589	1	40
531.760	1	38
531.930	1	42
532.100	1	32
532.270	1	48
532.440	1	38
532.610	1	40
532.780	1	43
532.950	1	47
533.120	1	58
533.290	1	31
533.461	1	42
533.631	1	47
533.801	1	33
533.971	1	36
534.141	1	39
534.311	1	51
534.481	1	39
534.651	1	25
534.821	1	32
534.991	1	35
535.162	1	30
535.332	1	27
535.502	1	40
535.672	1	34
535.842	1	33
536.012	1	32
536.182	1	36
536.352	1	30
536.522	1	25
536.692	1	35
536.862	1	29
537.032	1	33
537.203	1	42
537.373	1	46
537.543	1	29
537.713	1	44
537.883	1	26
538.053	1	32
538.223	1	39
538.393	1	48
538.563	1	32
538.733	1	37
538.903	1	34
539.073	1	42
539.243	1	29
539.413	1	36
539.584	1	26
539.754	1	35
539.924	1	34
540.094	1	42
540.264	1	26
540.434	1	40
540.604	1	26
540.774	1	41
540.944	1	34
541.114	1	30
541.284	1	28
541.454	1	27
541.624	1	38
541.794	1	27
541.964	1	24
542.134	1	38
542.305	1	25
542.475	1	21
542.645	1	34
542.815	1	14
542.985	1	35
543.155	1	19
543.325	1	46
543.495	1	40
543.665	1	32
543.835	1	23
544.005	1	35
544.175	1	31
544.345	1	28
544.515	1	29
544.685	1	47
544.855	1	24
545.025	1	38
545.195	1	30
545.365	1	32
545.535	1	31
545.705	1	50
545.875	1	33
546.045	1	26
546.216	1	21
546.386	1	35
546.556	1	26
546.726	1	25
546.896	1	29
547.066	1	36
547.236	1	34
547.406	1	24
547.576	1	27
547.746	1	41
547.916	1	28
548.086	1	30
548.256	1	17
548.426	1	31
548.596	1	26
548.766	1	49
548.936	1	47
549.106	1	35
549.276	1	37
549.446	1	41
549.616	1	31
549.786	1	25
549.956	1	33
550.126	1	30
550.296	1	36
550.466	1	39
550.636	1	33
550.806	1	32
550.976	1	34
551.146	1	24
551.316	1	30
551.486	1	32
551.656	1	35
551.826	1	35
551.996	1	23
552.166	1	24
552.336	1	32
552.506	1	31
552.676	1	22
552.846	1	29
553.016	1	35
553.186	1	27
553.356	1	29
553.526	1	38
553.696	1	35
553.866	1	37
554.036	1	31
554.206	1	33
554.376	1	16
554.546	1	32
554.716	1	25
554.886	1	40
555.056	1	22
555.226	1	34
555.396	1	28
555.566	1	17
555.736	1	37
555.906	1	26
556.076	1	23
556.246	1	30
556.416	1	17
556.586	1	6
556.756	1	20
556.926	1	31
557.096	1	23
557.266	1	24
557.436	1	27
557.606	1	12
557.776	1	31
557.946	1	24
558.116	1	19
558.286	1	29
558.456	1	25
558.626	1	8
558.796	1	27
558.966	1	19
559.136	1	14
559.306	1	30
559.476	1	25
559.646	1	11
559.816	1	30
559.986	1	8
560.155	1	25
560.325	1	22
560.495	1	13
560.665	1	10
560.835	1	24
561.005	1	29
561.175	1	19
561.345	1	24
561.515	1	19
561.685	1	17
561.855	1	20
562.025	1	24
562.195	1	13
562.365	1	16
562.535	1	12
562.705	1	16
562.875	1	12
563.045	1	13
563.215	1	13
563.385	1	9
563.555	1	2
563.725	1	27
563.895	1	14
564.064	1	5
564.234	1	29
564.404	1	19
564.574	1	30
564.744	1	18
564.914	1	10
565.084	1	10
565.254	1	21
565.424	1	23
565.594	1	15
565.764	1	21
565.934	1	20
566.104	1	18
566.274	1	27
566.444	1	9
566.614	1	16
566.783	1	17
566.953	1	19
567.123	1	22
567.293	1	15
567.463	1	15
567.633	1	15
567.803	1	20
567.973	1	23
568.143	1	20
568.313	1	11
568.483	1	25
568.653	1	12
568.823	1	7
568.993	1	11
569.162	1	17
569.332	1	24
569.502	1	23
569.672	1	14
569.842	1	14
570.012	1	14
570.182	1	16
570.352	1	12
570.522	1	15
570.692	1	20
570.862	1	24
571.031	1	9
571.201	1	14
571.371	1	17
571.541	1	10
571.711	1	7
571.881	1	13
572.051	1	8
572.221	1	14
572.391	1	27
572.561	1	17
572.731	1	18
572.900	1	3
573.070	1	19
573.240	1	3
573.410	1	16
573.580	1	3
573.750	1	19
573.920	1	15
574.090	1	21
574.260	1	2
574.430	1	13
574.599	1	20
574.769	1	10
574.939	1	1
575.109	1	11
575.279	1	13
575.449	1	23
575.619	1	18
575.789	1	6
575.959	1	1
576.128	1	7
576.298	1	6
576.468	1	7
576.638	1	4
576.808	1	9
576.978	1	19
577.148	1	17
577.318	1	26
577.487	1	11
577.657	1	12
577.827	1	13
577.997	1	19
578.167	1	11
578.337	1	8
578.507	1	17
578.677	1	-2
578.846	1	21
579.016	1	12
579.186	1	15
579.356	1	6
579.526	1	4
579.696	1	17
579.866	1	5
580.036	1	19
580.205	1	6
580.375	1	18
580.545	1	4
580.715	1	8
580.885	1	23
581.055	1	5
581.225	1	8
581.394	1	1
581.564	1	8
581.734	1	12
581.904	1	5
582.074	1	9
582.244	1	12
582.414	1	9
582.583	1	9
582.753	1	12
582.923	1	15
583.093	1	15
583.263	1	12
583.433	1	10
583.603	1	5
583.772	1	4
583.942	1	19
584.112	1	2
584.282	1	9
584.452	1	4
584.622	1	13
584.791	1	9
584.961	1	-4
585.131	1	10
585.301	1	7
585.471	1	4
585.641	1	11
585.811	1	13
585.980	1	7
586.150	1	6
586.320	1	9
586.490	1	14
586.660	1	14
586.830	1	3
586.999	1	6
587.169	1	26
587.339	1	-1
587.509	1	16
587.679	1	9
587.849	1	15
588.018	1	-1
588.188	1	2
588.358	1	13
588.528	1	1
588.698	1	0
588.867	1	4
589.037	1	4
589.207	1	8
589.377	1	10
589.547	1	7
589.717	1	15
589.886	1	9
590.056	1	20
590.226	1	1
590.396	1	-3
590.566	1	3
590.735	1	3
590.905	1	14
591.075	1	4
591.245	1	12
591.415	1	10
591.585	1	8
591.754	1	18
591.924	1	17
592.094	1	4
592.264	1	6
592.434	1	6
592.603	1	6
592.773	1	12
592.943	1	13
593.113	1	4
593.283	1	3
593.452	1	7
593.622	1	9
593.792	1	20
593.962	1	1
594.132	1	16
594.301	1	10
594.471	1	3
594.641	1	8
594.811	1	3
594.981	1	15
595.150	1	21
595.320	1	3
595.490	1	7
595.660	1	4
595.829	1	-7
595.999	1	-10
596.169	1	13
596.339	1	11
596.509	1	3
596.678	1	15
596.848	1	12
597.018	1	4
597.188	1	-1
597.358	1	5
597.527	1	7
597.697	1	-6
597.867	1	10
598.037	1	11
598.206	1	17
598.376	1	0
598.546	1	14
598.716	1	-5
598.885	1	1
599.055	1	4
599.225	1	2
599.395	1	14
599.565	1	-1
599.734	1	11
599.904	1	0
600.074	1	4
600.244	1	8
600.413	1	13
600.583	1	6
600.753	1	5
600.923	1	-1
601.092	1	12
601.262	1	2
601.432	1	14
601.602	1	20
601.771	1	-1
601.941	1	20
602.111	1	13
602.281	1	12
602.451	1	-8
602.620	1	11
602.790	1	-1
602.960	1	0
603.130	1	10
603.299	1	7
603.469	1	5
603.639	1	-4
603.809	1	12
603.978	1	2
604.148	1	6
604.318	1	0
604.487	1	12
604.657	1	-5
604.827	1	7
604.997	1	11
605.166	1	4
605.336	1	-2
605.506	1	1
605.676	1	16
605.845	1	2
606.015	1	-6
606.185	1	0
606.355	1	2
606.524	1	1
606.694	1	9
606.864	1	1
607.034	1	8
607.203	1	18
607.373	1	5
607.543	1	3
607.712	1	3
607.882	1	-1
608.052	1	3
608.222	1	14
608.391	1	13
608.561	1	7
608.731	1	8
608.901	1	7
609.070	1	5
609.240	1	-3
609.410	1	9
609.579	1	7
609.749	1	6
609.919	1	-1
610.089	1	5
610.258	1	4
610.428	1	11
610.598	1	8
610.767	1	13
610.937	1	14
611.107	1	7
611.277	1	4
611.446	1	8
611.616	1	14
611.786	1	7
611.955	1	3
612.125	1	5
612.295	1	2
612.465	1	4
612.634	1	3
612.804	1	6
612.974	1	4
613.143	1	8
613.313	1	-3
613.483	1	9
613.652	1	8
613.822	1	10
613.992	1	-3
614.162	1	0
614.331	1	4
614.501	1	1
614.671	1	-5
614.840	1	5
615.010	1	7
615.180	1	15
615.349	1	13
615.519	1	6
615.689	1	-7
615.858	1	10
616.028	1	0
616.198	1	4
616.368	1	-1
616.537	1	6
616.707	1	-2
616.877	1	12
617.046	1	13
617.216	1	3
617.386	1	14
617.555	1	-7
617.725	1	11
617.895	1	10
618.064	1	2
618.234	1	-4
618.404	1	3
618.573	1	3
618.743	1	15
618.913	1	17
619.082	1	2
619.252	1	2
619.422	1	4
619.591	1	10
619.761	1	0
619.931	1	7
620.100	1	16
620.270	1	-5
620.440	1	5
620.609	1	10
620.779	1	10
620.949	1	2
621.118	1	6
621.288	1	0
621.458	1	5
621.627	1	4
621.797	1	-6
621.967	1	6
622.136	1	3
622.306	1	6
622.476	1	0
622.645	1	3
622.815	1	-4
622.985	1	-3
623.154	1	1
623.324	1	5
623.494	1	2
623.663	1	1
623.833	1	0
624.002	1	0
624.172	1	-1
624.342	1	3
624.511	1	6
624.681	1	6
624.851	1	-2
625.020	1	2
625.190	1	10
625.360	1	-6
625.529	1	-10
625.699	1	2
625.869	1	7
626.038	1	-8
626.208	1	8
626.377	1	8
626.547	1	-1
626.717	1	-5
626.886	1	4
627.056	1	4
627.226	1	5
627.395	1	-2
627.565	1	4
627.735	1	11
627.904	1	14
628.074	1	18
628.243	1	7
628.413	1	-2
628.583	1	6
628.752	1	-9
628.922	1	-2
629.091	1	4
629.261	1	7
629.431	1	4
629.600	1	6
629.770	1	2
629.940	1	-2
630.109	1	13
630.279	1	11
630.448	1	2
630.618	1	7
630.788	1	2
630.957	1	11
631.127	1	-2
631.297	1	1
631.466	1	2
631.636	1	6
631.805	1	5
631.975	1	8
632.145	1	3
632.314	1	-1
632.484	1	8
632.653	1	1
632.823	1	6
632.993	1	-3
633.162	1	8
633.332	1	-8
633.501	1	6
633.671	1	4
633.841	1	4
634.010	1	13
634.180	1	10
634.349	1	13
634.519	1	18
634.689	1	1
634.858	1	-5
635.028	1	4
635.197	1	4
635.367	1	3
635.537	1	6
635.706	1	-2
635.876	1	5
636.045	1	-4
636.215	1	11
636.384	1	2
636.554	1	8
636.724	1	10
636.893	1	2
637.063	1	-2
637.232	1	0
637.402	1	-7
637.572	1	3
637.741	1	10
637.911	1	1
638.080	1	14
638.250	1	6
638.419	1	4
638.589	1	12
638.759	1	4
638.928	1	3
639.098	1	3
639.267	1	-4
639.437	1	12
639.606	1	4
639.776	1	9
639.946	1	7
640.115	1	-2
640.285	1	9
640.454	1	8
640.624	1	9
640.793	1	-3
640.963	1	2
641.132	1	7
641.302	1	0
641.472	1	4
641.641	1	0
641.811	1	9
641.980	1	9
642.150	1	-5
642.319	1	9
642.489	1	1
642.659	1	3
642.828	1	1
642.998	1	9
643.167	1	-2
643.337	1	-1
643.506	1	1
643.676	1	6
643.845	1	8
644.015	1	12
644.184	1	0
644.354	1	6
644.524	1	10
644.693	1	8
644.863	1	9
645.032	1	8
645.202	1	9
645.371	1	2
645.541	1	9
645.710	1	3
645.880	1	-12
646.049	1	-6
646.219	1	-14
646.388	1	7
646.558	1	4
646.728	1	1
646.897	1	7
647.067	1	5
647.236	1	8
647.406	1	16
647.575	1	4
647.745	1	10
647.914	1	4
648.084	1	8
648.253	1	-3
648.423	1	9
648.592	1	-6
648.762	1	15
648.931	1	18
649.101	1	-7
649.270	1	1
649.440	1	6
649.610	1	0
649.779	1	6
649.949	1	9
650.118	1	5
650.288	1	2
650.457	1	12
650.627	1	6
650.796	1	-3
650.966	1	0
651.135	1	6
651.305	1	-7
651.474	1	14
651.644	1	13
651.813	1	14
651.983	1	4
652.152	1	11
652.322	1	7
652.491	1	3
652.661	1	8
652.830	1	7
653.000	1	7
653.169	1	19
653.339	1	10
653.508	1	-6
653.678	1	-4
653.847	1	3
654.017	1	7
654.186	1	0
654.356	1	1
654.525	1	-7
654.695	1	-1
654.864	1	2
655.034	1	0
655.203	1	8
655.373	1	8
655.542	1	6
655.712	1	12
655.881	1	11
656.051	1	5
656.220	1	1
656.390	1	3
656.559	1	-6
656.729	1	3
656.898	1	1
657.068	1	4
657.237	1	9
657.406	1	8
657.576	1	-8
657.745	1	1
657.915	1	6
658.084	1	4
658.254	1	8
658.423	1	10
658.593	1	12
658.762	1	5
658.932	1	8
659.101	1	-6
659.271	1	5
659.440	1	2
659.610	1	-3
659.779	1	9
659.949	1	-5
660.118	1	3
660.288	1	1
660.457	1	14
660.626	1	7
660.796	1	6
660.965	1	1
661.135	1	-10
661.304	1	4
661.474	1	6
661.643	1	7
661.813	1	3
661.982	1	8
662.152	1	11
662.321	1	-1
662.491	1	3
662.660	1	6
662.829	1	7
662.999	1	-2
663.168	1	3
663.338	1	7
663.507	1	5
663.677	1	6
663.846	1	1
664.016	1	1
664.185	1	-2
664.354	1	10
664.524	1	-2
664.693	1	0
664.863	1	9
665.032	1	-3
665.202	1	7
665.371	1	-9
665.541	1	14
665.710	1	-6
665.879	1	9
666.049	1	-4
666.218	1	-5
666.388	1	13
666.557	1	9
666.727	1	-5
666.896	1	5
667.065	1	0
667.235	1	15
667.404	1	1
667.574	1	1
667.743	1	0
667.913	1	10
668.082	1	-4
668.251	1	3
668.421	1	7
668.590	1	2
668.760	1	1
668.929	1	11
669.099	1	0
669.268	1	2
669.437	1	3
669.607	1	8
669.776	1	5
669.946	1	2
670.115	1	-7
670.285	1	8
670.454	1	-8
670.623	1	-6
670.793	1	9
670.962	1	-1
671.132	1	-5
671.301	1	3
671.470	1	1
671.640	1	-5
671.809	1	-3
671.979	1	11
672.148	1	9
672.317	1	-2
672.487	1	9
672.656	1	-8
672.826	1	3
672.995	1	8
673.164	1	-1
673.334	1	7
673.503	1	2
673.673	1	3
673.842	1	7
674.011	1	9
674.181	1	8
674.350	1	-8
674.520	1	6
674.689	1	-3
674.858	1	-1
675.028	1	7
675.197	1	6
675.367	1	-4
675.536	1	9
675.705	1	12
675.875	1	-3
676.044	1	-10
676.214	1	-1
676.383	1	12
676.552	1	3
676.722	1	-1
676.891	1	1
677.060	1	8
677.230	1	14
677.399	1	-3
677.569	1	5
677.738	1	4
677.907	1	-1
678.077	1	13
678.246	1	2
678.416	1	5
678.585	1	4
678.754	1	3
678.924	1	2
679.093	1	5
679.262	1	3
679.432	1	9
679.601	1	-2
679.771	1	8
679.940	1	0
680.109	1	-8
680.279	1	16
680.448	1	1
680.617	1	-5
680.787	1	-7
680.956	1	9
681.125	1	10
681.295	1	0
681.464	1	-4
681.634	1	13
681.803	1	7
681.972	1	3
682.142	1	2
682.311	1	3
682.480	1	0
682.650	1	2
682.819	1	0
682.988	1	2
683.158	1	3
683.327	1	12
683.496	1	1
683.666	1	9
683.835	1	3
684.004	1	10
684.174	1	9
684.343	1	8
684.512	1	5
684.682	1	13
684.851	1	10
685.021	1	8
685.190	1	8
685.359	1	-10
685.529	1	12
685.698	1	1
685.867	1	2
686.037	1	9
686.206	1	2
686.375	1	2
686.545	1	10
686.714	1	-3
686.883	1	10
687.053	1	7
687.222	1	5
687.391	1	-2
687.561	1	21
687.730	1	6
687.899	1	1
688.069	1	13
688.238	1	0
688.407	1	14
688.577	1	1
688.746	1	6
