340.368	1	11
340.539	1	9
340.710	1	-2
340.881	1	-4
341.052	1	-2
341.223	1	11
341.394	1	-8
341.565	1	3
341.737	1	2
341.908	1	-5
342.079	1	-6
342.250	1	6
342.421	1	-4
342.592	1	7
342.763	1	3
342.934	1	1
343.105	1	-2
343.276	1	1
343.447	1	-9
343.618	1	-4
343.789	1	0
343.960	1	-4
344.131	1	-3
344.302	1	-11
344.473	1	2
344.644	1	2
344.815	1	1
344.986	1	-1
345.157	1	12
345.328	1	-1
345.499	1	2
345.670	1	-3
345.841	1	-2
346.012	1	0
346.183	1	9
346.354	1	3
346.526	1	-1
346.697	1	0
346.868	1	-14
347.039	1	4
347.210	1	-9
347.381	1	-4
347.552	1	-9
347.723	1	0
347.894	1	2
348.065	1	10
348.236	1	9
348.407	1	1
348.578	1	8
348.749	1	-2
348.920	1	0
349.091	1	6
349.262	1	-9
349.433	1	-2
349.604	1	8
349.775	1	6
349.946	1	-12
350.117	1	8
350.288	1	6
350.459	1	-9
350.630	1	11
350.801	1	7
350.972	1	6
351.143	1	15
351.314	1	-9
351.485	1	6
351.656	1	3
351.827	1	5
351.998	1	-11
352.169	1	0
352.340	1	5
352.511	1	-5
352.682	1	-2
352.853	1	3
353.024	1	-2
353.195	1	-1
353.366	1	-3
353.537	1	6
353.708	1	5
353.879	1	-6
354.050	1	10
354.221	1	-4
354.392	1	17
354.563	1	6
354.734	1	5
354.905	1	8
355.076	1	6
355.247	1	11
355.418	1	4
355.589	1	-8
355.760	1	6
355.931	1	7
356.102	1	-5
356.273	1	-7
356.444	1	5
356.615	1	-1
356.785	1	7
356.956	1	0
357.127	1	1
357.298	1	5
357.469	1	7
357.640	1	4
357.811	1	1
357.982	1	2
358.153	1	0
358.324	1	5
358.495	1	-3
358.666	1	-4
358.837	1	10
359.008	1	9
359.179	1	3
359.350	1	-5
359.521	1	9
359.692	1	-1
359.863	1	3
360.034	1	14
360.205	1	6
360.376	1	-3
360.547	1	-2
360.718	1	8
360.889	1	2
361.060	1	3
361.231	1	-3
361.401	1	-5
361.572	1	0
361.743	1	10
361.914	1	12
362.085	1	7
362.256	1	15
362.427	1	-4
362.598	1	1
362.769	1	10
362.940	1	4
363.111	1	17
363.282	1	5
363.453	1	1
363.624	1	1
363.795	1	7
363.966	1	4
364.137	1	11
364.308	1	13
364.478	1	-2
364.649	1	8
364.820	1	7
364.991	1	8
365.162	1	5
365.333	1	10
365.504	1	1
365.675	1	11
365.846	1	6
366.017	1	6
366.188	1	18
366.359	1	14
366.530	1	16
366.701	1	12
366.871	1	9
367.042	1	14
367.213	1	18
367.384	1	1
367.555	1	16
367.726	1	14
367.897	1	22
368.068	1	10
368.239	1	14
368.410	1	2
368.581	1	5
368.752	1	14
368.923	1	4
369.093	1	9
369.264	1	16
369.435	1	7
369.606	1	16
369.777	1	15
369.948	1	10
370.119	1	0
370.290	1	8
370.461	1	13
370.632	1	14
370.803	1	14
370.973	1	12
371.144	1	8
371.315	1	8
371.486	1	0
371.657	1	16
371.828	1	7
371.999	1	3
372.170	1	12
372.341	1	1
372.512	1	0
372.682	1	3
372.853	1	3
373.024	1	18
373.195	1	4
373.366	1	8
373.537	1	14
373.708	1	0
373.879	1	5
374.050	1	6
374.220	1	7
374.391	1	14
374.562	1	7
374.733	1	4
374.904	1	10
375.075	1	9
375.246	1	-7
375.417	1	7
375.588	1	4
375.758	1	-5
375.929	1	-3
376.100	1	10
376.271	1	4
376.442	1	-3
376.613	1	9
376.784	1	20
376.955	1	-3
377.125	1	12
377.296	1	0
377.467	1	5
377.638	1	-2
377.809	1	11
377.980	1	7
378.151	1	9
378.321	1	6
378.492	1	1
378.663	1	5
378.834	1	13
379.005	1	0
379.176	1	-5
379.347	1	6
379.518	1	4
379.688	1	8
379.859	1	-1
380.030	1	11
380.201	1	13
380.372	1	6
380.543	1	11
380.714	1	1
380.884	1	10
381.055	1	-11
381.226	1	0
381.397	1	14
381.568	1	9
381.739	1	7
381.910	1	-8
382.080	1	13
382.251	1	-1
382.422	1	-1
382.593	1	9
382.764	1	-3
382.935	1	8
383.105	1	7
383.276	1	8
383.447	1	9
383.618	1	14
383.789	1	1
383.960	1	1
384.130	1	1
384.301	1	14
384.472	1	5
384.643	1	-4
384.814	1	1
384.985	1	5
385.156	1	18
385.326	1	7
385.497	1	6
385.668	1	10
385.839	1	5
386.010	1	10
386.180	1	10
386.351	1	6
386.522	1	13
386.693	1	6
386.864	1	6
387.035	1	13
387.205	1	4
387.376	1	7
387.547	1	14
387.718	1	9
387.889	1	8
388.060	1	8
388.230	1	4
388.401	1	11
388.572	1	8
388.743	1	8
388.914	1	3
389.084	1	13
389.255	1	7
389.426	1	7
389.597	1	16
389.768	1	8
389.939	1	7
390.109	1	-2
390.280	1	-2
390.451	1	-2
390.622	1	12
390.793	1	9
390.963	1	5
391.134	1	3
391.305	1	6
391.476	1	17
391.647	1	2
391.817	1	10
391.988	1	-4
392.159	1	11
392.330	1	-3
392.501	1	0
392.671	1	3
392.842	1	7
393.013	1	9
393.184	1	7
393.355	1	7
393.525	1	10
393.696	1	3
393.867	1	11
394.038	1	3
394.208	1	14
394.379	1	2
394.550	1	-11
394.721	1	2
394.892	1	7
395.062	1	15
395.233	1	2
395.404	1	3
395.575	1	-1
395.746	1	0
395.916	1	7
396.087	1	6
396.258	1	7
396.429	1	-2
396.599	1	14
396.770	1	11
396.941	1	1
397.112	1	4
397.283	1	-12
397.453	1	7
397.624	1	5
397.795	1	0
397.966	1	19
398.136	1	7
398.307	1	2
398.478	1	-3
398.649	1	-2
398.819	1	1
398.990	1	4
399.161	1	11
399.332	1	13
399.503	1	8
399.673	1	-13
399.844	1	4
400.015	1	10
400.186	1	2
400.356	1	13
400.527	1	13
400.698	1	0
400.869	1	-4
401.039	1	-2
401.210	1	2
401.381	1	-3
401.552	1	3
401.722	1	4
401.893	1	15
402.064	1	1
402.235	1	1
402.405	1	-5
402.576	1	1
402.747	1	6
402.918	1	6
403.088	1	2
403.259	1	-2
403.430	1	11
403.601	1	8
403.771	1	23
403.942	1	9
404.113	1	4
404.284	1	4
404.454	1	1
404.625	1	5
404.796	1	-2
404.967	1	-1
405.137	1	-5
405.308	1	4
405.479	1	4
405.649	1	13
405.820	1	19
405.991	1	5
406.162	1	7
406.332	1	-15
406.503	1	-2
406.674	1	-6
406.845	1	10
407.015	1	1
407.186	1	5
407.357	1	6
407.527	1	1
407.698	1	9
407.869	1	1
408.040	1	8
408.210	1	0
408.381	1	-12
408.552	1	-5
408.722	1	-3
408.893	1	2
409.064	1	-3
409.235	1	3
409.405	1	9
409.576	1	7
409.747	1	10
409.917	1	2
410.088	1	-4
410.259	1	-3
410.430	1	2
410.600	1	0
410.771	1	-4
410.942	1	1
411.112	1	-4
411.283	1	1
411.454	1	1
411.625	1	-1
411.795	1	-1
411.966	1	13
412.137	1	4
412.307	1	7
412.478	1	9
412.649	1	1
412.819	1	4
412.990	1	-8
413.161	1	-12
413.332	1	0
413.502	1	1
413.673	1	21
413.844	1	15
414.014	1	2
414.185	1	12
414.356	1	-2
414.526	1	6
414.697	1	3
414.868	1	3
415.038	1	-2
415.209	1	-4
415.380	1	20
415.550	1	5
415.721	1	6
415.892	1	0
416.063	1	7
416.233	1	1
416.404	1	2
416.575	1	8
416.745	1	-2
416.916	1	2
417.087	1	12
417.257	1	10
417.428	1	-4
417.599	1	7
417.769	1	-6
417.940	1	7
418.111	1	0
418.281	1	-10
418.452	1	-3
418.623	1	0
418.793	1	2
418.964	1	1
419.135	1	-1
419.305	1	-7
419.476	1	-3
419.647	1	6
419.817	1	7
419.988	1	-12
420.159	1	4
420.329	1	3
420.500	1	9
420.671	1	5
420.841	1	1
421.012	1	-2
421.183	1	9
421.353	1	2
421.524	1	3
421.695	1	-1
421.865	1	12
422.036	1	6
422.206	1	3
422.377	1	-3
422.548	1	15
422.718	1	-7
422.889	1	-3
423.060	1	-8
423.230	1	5
423.401	1	-1
423.572	1	11
423.742	1	-2
423.913	1	2
424.084	1	9
424.254	1	-2
424.425	1	-2
424.595	1	-2
424.766	1	-3
424.937	1	7
425.107	1	8
425.278	1	-5
425.449	1	-2
425.619	1	6
425.790	1	4
425.961	1	4
426.131	1	-5
426.302	1	5
426.472	1	-5
426.643	1	-5
426.814	1	-2
426.984	1	5
427.155	1	1
427.326	1	-1
427.496	1	-6
427.667	1	1
427.837	1	-5
428.008	1	4
428.179	1	2
428.349	1	-3
428.520	1	1
428.691	1	-6
428.861	1	6
429.032	1	4
429.202	1	12
429.373	1	-5
429.544	1	1
429.714	1	-3
429.885	1	1
430.055	1	-1
430.226	1	2
430.397	1	-4
430.567	1	4
430.738	1	-4
430.909	1	3
431.079	1	-3
431.250	1	-1
431.420	1	-2
431.591	1	-1
431.762	1	-8
431.932	1	-6
432.103	1	12
432.273	1	1
432.444	1	-5
432.615	1	-4
432.785	1	-1
432.956	1	7
433.126	1	0
433.297	1	7
433.468	1	-5
433.638	1	4
433.809	1	4
433.979	1	0
434.150	1	15
434.320	1	6
434.491	1	7
434.662	1	4
434.832	1	-4
435.003	1	3
435.173	1	7
435.344	1	3
435.515	1	-7
435.685	1	9
435.856	1	2
436.026	1	3
436.197	1	0
436.368	1	0
436.538	1	-10
436.709	1	-6
436.879	1	-4
437.050	1	9
437.220	1	-3
437.391	1	8
437.562	1	6
437.732	1	-1
437.903	1	0
438.073	1	-1
438.244	1	-8
438.414	1	2
438.585	1	-3
438.756	1	12
438.926	1	-7
439.097	1	11
439.267	1	2
439.438	1	2
439.608	1	5
439.779	1	-4
439.949	1	-4
440.120	1	-2
440.291	1	8
440.461	1	2
440.632	1	4
440.802	1	0
440.973	1	4
441.143	1	-4
441.314	1	-9
441.485	1	1
441.655	1	0
441.826	1	-6
441.996	1	-3
442.167	1	8
442.337	1	6
442.508	1	-5
442.678	1	-4
442.849	1	-12
443.019	1	10
443.190	1	4
443.361	1	0
443.531	1	1
443.702	1	-5
443.872	1	11
444.043	1	15
444.213	1	0
444.384	1	2
444.554	1	-7
444.725	1	1
444.895	1	-4
445.066	1	-1
445.237	1	2
445.407	1	-6
445.578	1	16
445.748	1	-1
445.919	1	-3
446.089	1	-4
446.260	1	-4
446.430	1	-6
446.601	1	4
446.771	1	-11
446.942	1	-4
447.112	1	5
447.283	1	-6
447.453	1	1
447.624	1	-12
447.794	1	6
447.965	1	7
448.135	1	-2
448.306	1	-9
448.477	1	6
448.647	1	5
448.818	1	6
448.988	1	2
449.159	1	11
449.329	1	5
449.500	1	-5
449.670	1	4
449.841	1	-2
450.011	1	1
450.182	1	-4
450.352	1	8
450.523	1	-2
450.693	1	9
450.864	1	-5
451.034	1	6
451.205	1	5
451.375	1	2
451.546	1	-8
451.716	1	2
451.887	1	-7
452.057	1	5
452.228	1	5
452.398	1	5
452.569	1	-12
452.739	1	-1
452.910	1	-3
453.080	1	10
453.251	1	-4
453.421	1	2
453.592	1	2
453.762	1	-3
453.933	1	-11
454.103	1	4
454.274	1	-7
454.444	1	6
454.615	1	10
454.785	1	5
454.956	1	2
455.126	1	2
455.297	1	-5
455.467	1	-6
455.638	1	14
455.808	1	-3
455.979	1	-8
456.149	1	2
456.320	1	8
456.490	1	-1
456.661	1	1
456.831	1	-7
457.001	1	4
457.172	1	13
457.342	1	-3
457.513	1	14
457.683	1	0
457.854	1	5
458.024	1	-3
458.195	1	1
458.365	1	10
458.536	1	-2
458.706	1	4
458.877	1	5
459.047	1	4
459.218	1	-3
459.388	1	3
459.559	1	2
459.729	1	-8
459.899	1	-14
460.070	1	0
460.240	1	9
460.411	1	-1
460.581	1	2
460.752	1	1
460.922	1	19
461.093	1	0
461.263	1	3
461.434	1	10
461.604	1	3
461.775	1	-4
461.945	1	-1
462.115	1	-2
462.286	1	-1
462.456	1	0
462.627	1	3
462.797	1	-10
462.968	1	-1
463.138	1	0
463.309	1	-1
463.479	1	2
463.649	1	-3
463.820	1	-1
463.990	1	5
464.161	1	1
464.331	1	11
464.502	1	6
464.672	1	-7
464.843	1	-2
465.013	1	-10
465.183	1	-7
465.354	1	1
465.524	1	2
465.695	1	5
465.865	1	8
466.036	1	10
466.206	1	-6
466.376	1	2
466.547	1	-3
466.717	1	0
466.888	1	-5
467.058	1	3
467.229	1	6
467.399	1	-9
467.569	1	9
467.740	1	7
467.910	1	14
468.081	1	-8
468.251	1	6
468.422	1	-3
468.592	1	-9
468.762	1	-18
468.933	1	2
469.103	1	4
469.274	1	3
469.444	1	7
469.614	1	9
469.785	1	4
469.955	1	-9
470.126	1	-1
470.296	1	1
470.467	1	-14
470.637	1	7
470.807	1	12
470.978	1	-4
471.148	1	-5
471.319	1	6
471.489	1	-2
471.659	1	-1
471.830	1	4
472.000	1	-5
472.171	1	2
472.341	1	-4
472.511	1	9
472.682	1	-4
472.852	1	3
473.023	1	3
473.193	1	0
473.363	1	-12
473.534	1	8
473.704	1	0
473.875	1	-6
474.045	1	-5
474.215	1	6
474.386	1	10
474.556	1	7
474.727	1	-2
474.897	1	-5
475.067	1	-3
475.238	1	-7
475.408	1	-2
475.578	1	7
475.749	1	9
475.919	1	5
476.090	1	2
476.260	1	-6
476.430	1	4
476.601	1	6
476.771	1	-4
476.942	1	8
477.112	1	-2
477.282	1	-3
477.453	1	1
477.623	1	9
477.793	1	1
477.964	1	1
478.134	1	-1
478.305	1	6
478.475	1	-2
478.645	1	-7
478.816	1	0
478.986	1	3
479.156	1	-7
479.327	1	4
479.497	1	4
479.667	1	10
479.838	1	-11
480.008	1	3
480.179	1	-11
480.349	1	4
480.519	1	6
480.690	1	0
480.860	1	6
481.030	1	-1
481.201	1	-6
481.371	1	7
481.541	1	7
481.712	1	0
481.882	1	-8
482.053	1	4
482.223	1	-2
482.393	1	-6
482.564	1	1
482.734	1	-11
482.904	1	0
483.075	1	-5
483.245	1	11
483.415	1	3
483.586	1	4
483.756	1	5
483.926	1	7
484.097	1	2
484.267	1	-11
484.437	1	0
484.608	1	9
484.778	1	-9
484.948	1	1
485.119	1	-2
485.289	1	7
485.459	1	-1
485.630	1	3
485.800	1	3
485.970	1	0
486.141	1	2
486.311	1	1
486.481	1	-2
486.652	1	-4
486.822	1	-3
486.992	1	-1
487.163	1	4
487.333	1	-2
487.503	1	-3
487.674	1	2
487.844	1	0
488.014	1	1
488.185	1	-1
488.355	1	-5
488.525	1	2
488.696	1	-2
488.866	1	-8
489.036	1	4
489.207	1	1
489.377	1	-6
489.547	1	5
489.718	1	-2
489.888	1	9
490.058	1	10
490.228	1	0
490.399	1	8
490.569	1	7
490.739	1	8
490.910	1	-4
491.080	1	-10
491.250	1	4
491.421	1	5
491.591	1	-1
491.761	1	-8
491.932	1	5
492.102	1	-10
492.272	1	5
492.442	1	6
492.613	1	2
492.783	1	6
492.953	1	-4
493.124	1	12
493.294	1	5
493.464	1	7
493.635	1	-5
493.805	1	9
493.975	1	-5
494.145	1	3
494.316	1	-5
494.486	1	6
494.656	1	-12
494.827	1	8
494.997	1	0
495.167	1	5
495.337	1	-3
495.508	1	2
495.678	1	4
495.848	1	7
496.019	1	-7
496.189	1	-3
496.359	1	-7
496.529	1	-2
496.700	1	1
496.870	1	8
497.040	1	-1
497.211	1	5
497.381	1	0
497.551	1	5
497.721	1	-10
497.892	1	1
498.062	1	0
498.232	1	4
498.403	1	-5
498.573	1	1
498.743	1	7
498.913	1	7
499.084	1	2
499.254	1	-2
499.424	1	-7
499.594	1	-8
499.765	1	2
499.935	1	-9
500.105	1	5
500.275	1	4
500.446	1	8
500.616	1	-5
500.786	1	8
500.956	1	6
501.127	1	12
501.297	1	-3
501.467	1	0
501.638	1	7
501.808	1	-3
501.978	1	-10
502.148	1	-5
502.319	1	21
502.489	1	1
502.659	1	11
502.829	1	11
503.000	1	5
503.170	1	5
503.340	1	13
503.510	1	-6
503.681	1	3
503.851	1	4
504.021	1	5
504.191	1	15
504.362	1	-1
504.532	1	7
504.702	1	3
504.872	1	-5
505.042	1	-3
505.213	1	3
505.383	1	0
505.553	1	3
505.723	1	-2
505.894	1	-9
506.064	1	6
506.234	1	-7
506.404	1	0
506.575	1	-10
506.745	1	12
506.915	1	6
507.085	1	1
507.256	1	2
507.426	1	2
507.596	1	1
507.766	1	-1
507.936	1	-5
508.107	1	6
508.277	1	-8
508.447	1	-2
508.617	1	11
508.788	1	13
508.958	1	-1
509.128	1	5
509.298	1	-6
509.468	1	5
509.639	1	4
509.809	1	7
509.979	1	9
510.149	1	15
510.319	1	-3
510.490	1	1
510.660	1	11
510.830	1	-3
511.000	1	6
511.171	1	-3
511.341	1	4
511.511	1	11
511.681	1	11
511.851	1	13
512.022	1	0
512.192	1	1
512.362	1	3
512.532	1	1
512.702	1	10
512.873	1	9
513.043	1	3
513.213	1	15
513.383	1	-1
513.553	1	11
513.724	1	0
513.894	1	-5
514.064	1	16
514.234	1	15
514.404	1	0
514.575	1	8
514.745	1	2
514.915	1	-8
515.085	1	6
515.255	1	-1
515.425	1	2
515.596	1	10
515.766	1	3
515.936	1	9
516.106	1	5
516.276	1	6
516.447	1	5
516.617	1	-2
516.787	1	3
516.957	1	10
517.127	1	2
517.297	1	3
517.468	1	4
517.638	1	-4
517.808	1	9
517.978	1	13
518.148	1	-1
518.319	1	5
518.489	1	-2
518.659	1	2
518.829	1	6
518.999	1	4
519.169	1	4
519.340	1	12
519.510	1	3
519.680	1	12
519.850	1	3
520.020	1	3
520.190	1	3
520.361	1	1
520.531	1	7
520.701	1	9
520.871	1	7
521.041	1	15
521.211	1	7
521.382	1	7
521.552	1	-4
521.722	1	13
521.892	1	7
522.062	1	6
522.232	1	9
522.402	1	6
522.573	1	7
522.743	1	3
522.913	1	9
523.083	1	3
523.253	1	5
523.423	1	10
523.593	1	-2
523.764	1	8
523.934	1	2
524.104	1	0
524.274	1	9
524.444	1	5
524.614	1	5
524.784	1	3
524.955	1	12
525.125	1	13
525.295	1	2
525.465	1	8
525.635	1	4
525.805	1	12
525.975	1	-6
526.146	1	2
526.316	1	-2
526.486	1	6
526.656	1	6
526.826	1	8
526.996	1	7
527.166	1	3
527.337	1	-3
527.507	1	16
527.677	1	8
527.847	1	-1
528.017	1	-4
528.187	1	9
528.357	1	9
528.527	1	8
528.698	1	-4
528.868	1	-2
529.038	1	7
529.208	1	-5
529.378	1	8
529.548	1	11
529.718	1	8
529.888	1	11
530.058	1	-3
530.229	1	7
530.399	1	11
530.569	1	-9
530.739	1	-2
530.909	1	-7
531.079	1	-5
531.249	1	-1
531.419	1	10
531.589	1	11
531.760	1	-5
531.930	1	4
532.100	1	4
532.270	1	15
532.440	1	0
532.610	1	8
532.780	1	8
532.950	1	7
533.120	1	24
533.290	1	5
533.461	1	10
533.631	1	10
533.801	1	3
533.971	1	3
534.141	1	3
534.311	1	12
534.481	1	9
534.651	1	-4
534.821	1	-1
534.991	1	2
535.162	1	-3
535.332	1	0
535.502	1	0
535.672	1	-6
535.842	1	1
536.012	1	-2
536.182	1	14
536.352	1	2
536.522	1	-1
536.692	1	7
536.862	1	-6
537.032	1	1
537.203	1	6
537.373	1	7
537.543	1	-3
537.713	1	4
537.883	1	-1
538.053	1	4
538.223	1	1
538.393	1	5
538.563	1	8
538.733	1	18
538.903	1	0
539.073	1	10
539.243	1	3
539.413	1	1
539.584	1	1
539.754	1	2
539.924	1	11
540.094	1	-1
540.264	1	3
540.434	1	8
540.604	1	0
540.774	1	6
540.944	1	0
541.114	1	2
541.284	1	-3
541.454	1	7
541.624	1	1
541.794	1	2
541.964	1	-8
542.134	1	18
542.305	1	1
542.475	1	-3
542.645	1	0
542.815	1	1
542.985	1	9
543.155	1	-9
543.325	1	3
543.495	1	10
543.665	1	-3
543.835	1	-2
544.005	1	5
544.175	1	11
544.345	1	5
544.515	1	6
544.685	1	15
544.855	1	9
545.025	1	7
545.195	1	-3
545.365	1	5
545.535	1	-2
545.705	1	18
545.875	1	-6
546.045	1	0
546.216	1	-4
546.386	1	-5
546.556	1	5
546.726	1	2
546.896	1	6
547.066	1	-1
547.236	1	4
547.406	1	-6
547.576	1	4
547.746	1	16
547.916	1	13
548.086	1	7
548.256	1	2
548.426	1	-1
548.596	1	-6
548.766	1	11
548.936	1	14
549.106	1	11
549.276	1	11
549.446	1	-3
549.616	1	6
549.786	1	-4
549.956	1	0
550.126	1	9
550.296	1	8
550.466	1	3
550.636	1	14
550.806	1	7
550.976	1	8
551.146	1	-8
551.316	1	9
551.486	1	10
551.656	1	6
551.826	1	5
551.996	1	-1
552.166	1	7
552.336	1	-4
552.506	1	15
552.676	1	-1
552.846	1	-2
553.016	1	5
553.186	1	4
553.356	1	1
553.526	1	2
553.696	1	14
553.866	1	15
554.036	1	-5
554.206	1	-1
554.376	1	-10
554.546	1	3
554.716	1	0
554.886	1	10
555.056	1	1
555.226	1	7
555.396	1	3
555.566	1	5
555.736	1	2
555.906	1	0
556.076	1	6
556.246	1	5
556.416	1	-11
556.586	1	-6
556.756	1	-6
556.926	1	2
557.096	1	7
557.266	1	-1
557.436	1	1
557.606	1	6
557.776	1	11
557.946	1	1
558.116	1	7
558.286	1	-1
558.456	1	-2
558.626	1	-17
558.796	1	4
558.966	1	-5
559.136	1	2
559.306	1	2
559.476	1	3
559.646	1	2
559.816	1	3
559.986	1	-5
560.155	1	3
560.325	1	5
560.495	1	0
560.665	1	3
560.835	1	-5
561.005	1	7
561.175	1	-4
561.345	1	5
561.515	1	-9
561.685	1	5
561.855	1	6
562.025	1	9
562.195	1	6
562.365	1	2
562.535	1	7
562.705	1	-2
562.875	1	0
563.045	1	0
563.215	1	-2
563.385	1	-16
563.555	1	-5
563.725	1	-1
563.895	1	7
564.064	1	0
564.234	1	1
564.404	1	3
564.574	1	1
564.744	1	2
564.914	1	6
565.084	1	-5
565.254	1	6
565.424	1	-3
565.594	1	-4
565.764	1	-2
565.934	1	8
566.104	1	7
566.274	1	6
566.444	1	-16
566.614	1	1
566.783	1	0
566.953	1	10
567.123	1	7
567.293	1	6
567.463	1	0
567.633	1	2
567.803	1	9
567.973	1	2
568.143	1	6
568.313	1	2
568.483	1	4
568.653	1	-5
568.823	1	-10
568.993	1	-3
569.162	1	1
569.332	1	12
569.502	1	6
569.672	1	8
569.842	1	-2
570.012	1	4
570.182	1	-4
570.352	1	0
570.522	1	-2
570.692	1	11
570.862	1	12
571.031	1	-4
571.201	1	13
571.371	1	1
571.541	1	2
571.711	1	3
571.881	1	7
572.051	1	-1
572.221	1	3
572.391	1	11
572.561	1	4
572.731	1	1
572.900	1	-9
573.070	1	13
573.240	1	-6
573.410	1	-6
573.580	1	-5
573.750	1	1
573.920	1	1
574.090	1	6
574.260	1	2
574.430	1	7
574.599	1	-12
574.769	1	7
574.939	1	2
575.109	1	-3
575.279	1	1
575.449	1	18
575.619	1	7
575.789	1	-7
575.959	1	2
576.128	1	-1
576.298	1	4
576.468	1	1
576.638	1	-6
576.808	1	-2
576.978	1	-2
577.148	1	0
577.318	1	12
577.487	1	0
577.657	1	4
577.827	1	-6
577.997	1	1
578.167	1	-2
578.337	1	3
578.507	1	3
578.677	1	4
578.846	1	3
579.016	1	-2
579.186	1	9
579.356	1	0
579.526	1	1
579.696	1	6
579.866	1	-6
580.036	1	8
580.205	1	7
580.375	1	9
580.545	1	4
580.715	1	-3
580.885	1	7
581.055	1	-9
581.225	1	4
581.394	1	-11
581.564	1	-2
581.734	1	-10
581.904	1	-6
582.074	1	-1
582.244	1	7
582.414	1	-2
582.583	1	-3
582.753	1	2
582.923	1	-1
583.093	1	5
583.263	1	-4
583.433	1	-2
583.603	1	-3
583.772	1	-9
583.942	1	3
584.112	1	4
584.282	1	2
584.452	1	-5
584.622	1	4
584.791	1	1
584.961	1	-9
585.131	1	6
585.301	1	4
585.471	1	-4
585.641	1	3
585.811	1	-4
585.980	1	-7
586.150	1	-5
586.320	1	-1
586.490	1	9
586.660	1	13
586.830	1	-1
586.999	1	0
587.169	1	11
587.339	1	-5
587.509	1	7
587.679	1	2
587.849	1	7
588.018	1	-3
588.188	1	1
588.358	1	0
588.528	1	-5
588.698	1	-5
588.867	1	0
589.037	1	-9
589.207	1	5
589.377	1	10
589.547	1	4
589.717	1	-7
589.886	1	2
590.056	1	9
590.226	1	0
590.396	1	-2
590.566	1	1
590.735	1	-2
590.905	1	11
591.075	1	-4
591.245	1	-3
591.415	1	3
591.585	1	-5
591.754	1	4
591.924	1	10
592.094	1	-5
592.264	1	2
592.434	1	-4
592.603	1	-11
592.773	1	-1
592.943	1	2
593.113	1	-1
593.283	1	-10
593.452	1	-8
593.622	1	6
593.792	1	10
593.962	1	-1
594.132	1	3
594.301	1	5
594.471	1	-2
594.641	1	2
594.811	1	2
594.981	1	-2
595.150	1	4
595.320	1	-4
595.490	1	3
595.660	1	-2
595.829	1	-11
595.999	1	-5
596.169	1	14
596.339	1	13
596.509	1	1
596.678	1	10
596.848	1	10
597.018	1	4
597.188	1	-10
597.358	1	-2
597.527	1	-5
597.697	1	4
597.867	1	3
598.037	1	7
598.206	1	11
598.376	1	-4
598.546	1	7
598.716	1	-13
598.885	1	2
599.055	1	1
599.225	1	-2
599.395	1	3
599.565	1	-3
599.734	1	0
599.904	1	-6
600.074	1	3
600.244	1	4
600.413	1	-3
600.583	1	-4
600.753	1	1
600.923	1	4
601.092	1	11
601.262	1	-4
601.432	1	1
601.602	1	5
601.771	1	7
601.941	1	6
602.111	1	4
602.281	1	1
602.451	1	-8
602.620	1	2
602.790	1	-4
602.960	1	-11
603.130	1	-2
603.299	1	1
603.469	1	6
603.639	1	-7
603.809	1	4
603.978	1	-2
604.148	1	-1
604.318	1	-2
604.487	1	-2
604.657	1	-3
604.827	1	-1
604.997	1	3
605.166	1	-1
605.336	1	-2
605.506	1	3
605.676	1	6
605.845	1	0
606.015	1	-9
606.185	1	-1
606.355	1	-6
606.524	1	6
606.694	1	3
606.864	1	2
607.034	1	0
607.203	1	8
607.373	1	2
607.543	1	4
607.712	1	2
607.882	1	-1
608.052	1	-5
608.222	1	1
608.391	1	9
608.561	1	-6
608.731	1	-5
608.901	1	4
609.070	1	-3
609.240	1	-4
609.410	1	5
609.579	1	6
609.749	1	7
609.919	1	-16
610.089	1	-2
610.258	1	-8
610.428	1	8
610.598	1	5
610.767	1	8
610.937	1	-5
611.107	1	-6
611.277	1	-3
611.446	1	5
611.616	1	7
611.786	1	-1
611.955	1	10
612.125	1	1
612.295	1	6
612.465	1	-5
612.634	1	4
612.804	1	-4
612.974	1	0
613.143	1	-7
613.313	1	0
613.483	1	0
613.652	1	1
613.822	1	2
613.992	1	0
614.162	1	5
614.331	1	0
614.501	1	-5
614.671	1	4
614.840	1	-3
615.010	1	6
615.180	1	8
615.349	1	15
615.519	1	-1
615.689	1	-8
615.858	1	2
616.028	1	1
616.198	1	-3
616.368	1	2
616.537	1	2
616.707	1	1
616.877	1	4
617.046	1	5
617.216	1	2
617.386	1	9
617.555	1	1
617.725	1	9
617.895	1	3
618.064	1	6
618.234	1	-8
618.404	1	-10
618.573	1	11
618.743	1	0
618.913	1	10
619.082	1	1
619.252	1	-3
619.422	1	-6
619.591	1	-5
619.761	1	-2
619.931	1	8
620.100	1	12
620.270	1	6
620.440	1	5
620.609	1	7
620.779	1	15
620.949	1	-4
621.118	1	8
621.288	1	3
621.458	1	2
621.627	1	-6
621.797	1	-11
621.967	1	2
622.136	1	2
622.306	1	7
622.476	1	2
622.645	1	4
622.815	1	3
622.985	1	-3
623.154	1	-4
623.324	1	7
623.494	1	-1
623.663	1	5
623.833	1	-9
624.002	1	-7
624.172	1	-4
624.342	1	11
624.511	1	0
624.681	1	1
624.851	1	-5
625.020	1	1
625.190	1	-4
625.360	1	-6
625.529	1	1
625.699	1	-3
625.869	1	-2
626.038	1	-13
626.208	1	13
626.377	1	1
626.547	1	3
626.717	1	-20
626.886	1	-4
627.056	1	-2
627.226	1	-1
627.395	1	-7
627.565	1	10
627.735	1	4
627.904	1	5
628.074	1	6
628.243	1	3
628.413	1	-13
628.583	1	7
628.752	1	-9
628.922	1	5
629.091	1	3
629.261	1	-4
629.431	1	5
629.600	1	3
629.770	1	8
629.940	1	-12
630.109	1	3
630.279	1	-1
630.448	1	-4
630.618	1	11
630.788	1	-7
630.957	1	5
631.127	1	-10
631.297	1	-5
631.466	1	3
631.636	1	4
631.805	1	-1
631.975	1	-9
632.145	1	-6
632.314	1	3
632.484	1	6
632.653	1	2
632.823	1	0
632.993	1	-1
633.162	1	-5
633.332	1	-7
633.501	1	-8
633.671	1	1
633.841	1	1
634.010	1	6
634.180	1	-1
634.349	1	8
634.519	1	1
634.689	1	2
634.858	1	-5
635.028	1	-2
635.197	1	-7
635.367	1	5
635.537	1	6
635.706	1	2
635.876	1	10
636.045	1	0
636.215	1	13
636.384	1	1
636.554	1	-3
636.724	1	-3
636.893	1	-7
637.063	1	-12
637.232	1	-9
637.402	1	-4
637.572	1	-3
637.741	1	-4
637.911	1	2
638.080	1	2
638.250	1	0
638.419	1	5
638.589	1	5
638.759	1	-1
638.928	1	3
639.098	1	0
639.267	1	7
639.437	1	6
639.606	1	3
639.776	1	6
639.946	1	12
640.115	1	4
640.285	1	5
640.454	1	-3
640.624	1	9
640.793	1	-9
640.963	1	-2
641.132	1	1
641.302	1	9
641.472	1	1
641.641	1	-1
641.811	1	-6
641.980	1	-1
642.150	1	-11
642.319	1	4
642.489	1	-5
642.659	1	5
642.828	1	3
642.998	1	1
643.167	1	-7
643.337	1	-3
643.506	1	3
643.676	1	-2
643.845	1	3
644.015	1	1
644.184	1	-2
644.354	1	8
644.524	1	3
644.693	1	4
644.863	1	13
645.032	1	4
645.202	1	-4
645.371	1	0
645.541	1	12
645.710	1	-3
645.880	1	-14
646.049	1	-4
646.219	1	-8
646.388	1	-3
646.558	1	4
646.728	1	-5
646.897	1	6
647.067	1	2
647.236	1	4
647.406	1	3
647.575	1	7
647.745	1	13
647.914	1	-7
648.084	1	5
648.253	1	-3
648.423	1	6
648.592	1	-16
648.762	1	14
648.931	1	7
649.101	1	6
649.270	1	6
649.440	1	3
649.610	1	5
649.779	1	2
649.949	1	5
650.118	1	-4
650.288	1	1
650.457	1	8
650.627	1	0
650.796	1	3
650.966	1	-5
651.135	1	-2
651.305	1	-2
651.474	1	11
651.644	1	10
651.813	1	9
651.983	1	-3
652.152	1	6
652.322	1	8
652.491	1	-3
652.661	1	5
652.830	1	8
653.000	1	3
653.169	1	5
653.339	1	-2
653.508	1	2
653.678	1	-9
653.847	1	4
654.017	1	6
654.186	1	3
654.356	1	-9
654.525	1	-9
654.695	1	1
654.864	1	-3
655.034	1	0
655.203	1	4
655.373	1	7
655.542	1	-8
655.712	1	6
655.881	1	12
656.051	1	7
656.220	1	-5
656.390	1	4
656.559	1	1
656.729	1	0
656.898	1	5
657.068	1	0
657.237	1	8
657.406	1	7
657.576	1	1
657.745	1	0
657.915	1	-1
658.084	1	-6
658.254	1	5
658.423	1	2
658.593	1	13
658.762	1	4
658.932	1	-5
659.101	1	-9
659.271	1	-1
659.440	1	-6
659.610	1	-8
659.779	1	16
659.949	1	10
660.118	1	3
660.288	1	-9
660.457	1	5
660.626	1	5
660.796	1	1
660.965	1	7
661.135	1	-1
661.304	1	-5
661.474	1	3
661.643	1	-6
661.813	1	12
661.982	1	0
662.152	1	5
662.321	1	-5
662.491	1	-2
662.660	1	6
662.829	1	11
662.999	1	-4
663.168	1	-2
663.338	1	12
663.507	1	-8
663.677	1	0
663.846	1	1
664.016	1	-2
664.185	1	-2
664.354	1	4
664.524	1	-6
664.693	1	2
664.863	1	-9
665.032	1	2
665.202	1	-1
665.371	1	-8
665.541	1	17
665.710	1	-6
665.879	1	-3
666.049	1	-4
666.218	1	-8
666.388	1	6
666.557	1	1
666.727	1	0
666.896	1	11
667.065	1	-14
667.235	1	16
667.404	1	6
667.574	1	-4
667.743	1	-3
667.913	1	9
668.082	1	-8
668.251	1	4
668.421	1	3
668.590	1	3
668.760	1	2
668.929	1	5
669.099	1	-2
669.268	1	-3
669.437	1	-8
669.607	1	7
669.776	1	3
669.946	1	-6
670.115	1	-12
670.285	1	5
670.454	1	0
670.623	1	3
670.793	1	1
670.962	1	-3
671.132	1	-4
671.301	1	5
671.470	1	5
671.640	1	-8
671.809	1	-11
671.979	1	0
672.148	1	7
672.317	1	0
672.487	1	-3
672.656	1	-14
672.826	1	2
672.995	1	8
673.164	1	-2
673.334	1	5
673.503	1	-7
673.673	1	4
673.842	1	5
674.011	1	14
674.181	1	-5
674.350	1	11
674.520	1	4
674.689	1	-2
674.858	1	-4
675.028	1	4
675.197	1	-4
675.367	1	-2
675.536	1	-6
675.705	1	2
675.875	1	-2
676.044	1	-1
676.214	1	4
676.383	1	5
676.552	1	0
676.722	1	-8
676.891	1	0
677.060	1	-2
677.230	1	4
677.399	1	-1
677.569	1	5
677.738	1	5
677.907	1	-11
678.077	1	6
678.246	1	3
678.416	1	-4
678.585	1	-5
678.754	1	2
678.924	1	7
679.093	1	-2
679.262	1	0
679.432	1	9
679.601	1	-8
679.771	1	1
679.940	1	0
680.109	1	-13
680.279	1	-4
680.448	1	-7
680.617	1	2
680.787	1	-1
680.956	1	-4
681.125	1	-1
681.295	1	0
681.464	1	-7
681.634	1	14
681.803	1	0
681.972	1	-6
682.142	1	1
682.311	1	3
682.480	1	-2
682.650	1	9
682.819	1	-6
682.988	1	-2
683.158	1	3
683.327	1	22
683.496	1	-1
683.666	1	10
683.835	1	-4
684.004	1	8
684.174	1	1
684.343	1	5
684.512	1	3
684.682	1	0
684.851	1	3
685.021	1	-3
685.190	1	1
685.359	1	-7
685.529	1	6
685.698	1	0
685.867	1	-3
686.037	1	-2
686.206	1	-6
686.375	1	3
686.545	1	15
686.714	1	-11
686.883	1	9
687.053	1	-1
687.222	1	-2
687.391	1	-2
687.561	1	3
687.730	1	-8
687.899	1	-2
688.069	1	6
688.238	1	-2
688.407	1	9
688.577	1	-10
688.746	1	16
