340.368	1	0
340.539	1	5
340.710	1	2
340.881	1	-2
341.052	1	-5
341.223	1	5
341.394	1	-1
341.565	1	3
341.737	1	4
341.908	1	-3
342.079	1	-1
342.250	1	-4
342.421	1	0
342.592	1	-4
342.763	1	-4
342.934	1	-3
343.105	1	2
343.276	1	0
343.447	1	-15
343.618	1	9
343.789	1	-6
343.960	1	-3
344.131	1	3
344.302	1	-5
344.473	1	-3
344.644	1	-6
344.815	1	9
344.986	1	0
345.157	1	-3
345.328	1	-6
345.499	1	4
345.670	1	1
345.841	1	-5
346.012	1	-2
346.183	1	14
346.354	1	1
346.526	1	1
346.697	1	-2
346.868	1	-9
347.039	1	3
347.210	1	-4
347.381	1	-1
347.552	1	3
347.723	1	2
347.894	1	7
348.065	1	10
348.236	1	11
348.407	1	-11
348.578	1	-5
348.749	1	-8
348.920	1	-2
349.091	1	4
349.262	1	-2
349.433	1	3
349.604	1	1
349.775	1	0
349.946	1	-5
350.117	1	4
350.288	1	7
350.459	1	-4
350.630	1	12
350.801	1	3
350.972	1	6
351.143	1	2
351.314	1	-5
351.485	1	-3
351.656	1	-5
351.827	1	0
351.998	1	2
352.169	1	-2
352.340	1	-1
352.511	1	1
352.682	1	7
352.853	1	-7
353.024	1	0
353.195	1	3
353.366	1	0
353.537	1	1
353.708	1	9
353.879	1	-7
354.050	1	11
354.221	1	0
354.392	1	7
354.563	1	14
354.734	1	6
354.905	1	1
355.076	1	7
355.247	1	-3
355.418	1	2
355.589	1	-5
355.760	1	3
355.931	1	3
356.102	1	-7
356.273	1	8
356.444	1	11
356.615	1	5
356.785	1	1
356.956	1	5
357.127	1	8
357.298	1	4
357.469	1	3
357.640	1	3
357.811	1	-4
357.982	1	5
358.153	1	9
358.324	1	10
358.495	1	-4
358.666	1	2
358.837	1	8
359.008	1	6
359.179	1	10
359.350	1	2
359.521	1	22
359.692	1	8
359.863	1	9
360.034	1	11
360.205	1	4
360.376	1	-2
360.547	1	-2
360.718	1	18
360.889	1	7
361.060	1	5
361.231	1	6
361.401	1	14
361.572	1	1
361.743	1	18
361.914	1	8
362.085	1	11
362.256	1	14
362.427	1	6
362.598	1	-4
362.769	1	11
362.940	1	16
363.111	1	22
363.282	1	1
363.453	1	10
363.624	1	10
363.795	1	9
363.966	1	18
364.137	1	16
364.308	1	27
364.478	1	8
364.649	1	26
364.820	1	14
364.991	1	24
365.162	1	19
365.333	1	11
365.504	1	9
365.675	1	21
365.846	1	20
366.017	1	10
366.188	1	34
366.359	1	26
366.530	1	17
366.701	1	35
366.871	1	27
367.042	1	28
367.213	1	29
367.384	1	15
367.555	1	25
367.726	1	29
367.897	1	39
368.068	1	32
368.239	1	18
368.410	1	26
368.581	1	28
368.752	1	37
368.923	1	24
369.093	1	25
369.264	1	11
369.435	1	21
369.606	1	18
369.777	1	16
369.948	1	27
370.119	1	15
370.290	1	17
370.461	1	19
370.632	1	21
370.803	1	26
370.973	1	5
371.144	1	16
371.315	1	9
371.486	1	18
371.657	1	12
371.828	1	20
371.999	1	1
372.170	1	13
372.341	1	17
372.512	1	13
372.682	1	5
372.853	1	6
373.024	1	13
373.195	1	6
373.366	1	10
373.537	1	10
373.708	1	9
373.879	1	7
374.050	1	6
374.220	1	21
374.391	1	2
374.562	1	12
374.733	1	7
374.904	1	14
375.075	1	3
375.246	1	-5
375.417	1	10
375.588	1	17
375.758	1	1
375.929	1	15
376.100	1	14
376.271	1	16
376.442	1	-1
376.613	1	15
376.784	1	19
376.955	1	0
377.125	1	5
377.296	1	3
377.467	1	8
377.638	1	5
377.809	1	7
377.980	1	21
378.151	1	12
378.321	1	7
378.492	1	12
378.663	1	9
378.834	1	16
379.005	1	9
379.176	1	2
379.347	1	10
379.518	1	-2
379.688	1	15
379.859	1	14
380.030	1	13
380.201	1	14
380.372	1	8
380.543	1	12
380.714	1	9
380.884	1	5
381.055	1	2
381.226	1	4
381.397	1	7
381.568	1	9
381.739	1	8
381.910	1	2
382.080	1	5
382.251	1	-3
382.422	1	1
382.593	1	14
382.764	1	-10
382.935	1	10
383.105	1	9
383.276	1	5
383.447	1	12
383.618	1	15
383.789	1	-2
383.960	1	9
384.130	1	6
384.301	1	6
384.472	1	5
384.643	1	8
384.814	1	12
384.985	1	7
385.156	1	24
385.326	1	15
385.497	1	10
385.668	1	11
385.839	1	16
386.010	1	12
386.180	1	13
386.351	1	13
386.522	1	15
386.693	1	11
386.864	1	13
387.035	1	19
387.205	1	14
387.376	1	17
387.547	1	14
387.718	1	14
387.889	1	20
388.060	1	21
388.230	1	23
388.401	1	15
388.572	1	14
388.743	1	7
388.914	1	2
389.084	1	20
389.255	1	4
389.426	1	8
389.597	1	16
389.768	1	15
389.939	1	12
390.109	1	6
390.280	1	11
390.451	1	8
390.622	1	11
390.793	1	12
390.963	1	10
391.134	1	4
391.305	1	3
391.476	1	22
391.647	1	2
391.817	1	3
391.988	1	0
392.159	1	18
392.330	1	15
392.501	1	16
392.671	1	12
392.842	1	11
393.013	1	16
393.184	1	11
393.355	1	18
393.525	1	9
393.696	1	7
393.867	1	16
394.038	1	11
394.208	1	11
394.379	1	0
394.550	1	6
394.721	1	7
394.892	1	-1
395.062	1	9
395.233	1	10
395.404	1	15
395.575	1	3
395.746	1	6
395.916	1	9
396.087	1	11
396.258	1	6
396.429	1	4
396.599	1	15
396.770	1	17
396.941	1	19
397.112	1	4
397.283	1	-3
397.453	1	24
397.624	1	2
397.795	1	6
397.966	1	10
398.136	1	6
398.307	1	15
398.478	1	2
398.649	1	6
398.819	1	12
398.990	1	4
399.161	1	16
399.332	1	12
399.503	1	18
399.673	1	-5
399.844	1	10
400.015	1	10
400.186	1	10
400.356	1	15
400.527	1	12
400.698	1	4
400.869	1	9
401.039	1	-5
401.210	1	4
401.381	1	-1
401.552	1	4
401.722	1	8
401.893	1	16
402.064	1	2
402.235	1	-10
402.405	1	9
402.576	1	1
402.747	1	8
402.918	1	11
403.088	1	8
403.259	1	9
403.430	1	7
403.601	1	11
403.771	1	22
403.942	1	8
404.113	1	14
404.284	1	4
404.454	1	0
404.625	1	-3
404.796	1	6
404.967	1	9
405.137	1	20
405.308	1	1
405.479	1	14
405.649	1	7
405.820	1	9
405.991	1	6
406.162	1	4
406.332	1	0
406.503	1	-5
406.674	1	1
406.845	1	16
407.015	1	3
407.186	1	4
407.357	1	3
407.527	1	10
407.698	1	15
407.869	1	7
408.040	1	12
408.210	1	10
408.381	1	1
408.552	1	2
408.722	1	-1
408.893	1	8
409.064	1	9
409.235	1	-5
409.405	1	9
409.576	1	12
409.747	1	11
409.917	1	2
410.088	1	3
410.259	1	-6
410.430	1	0
410.600	1	-1
410.771	1	5
410.942	1	1
411.112	1	8
411.283	1	3
411.454	1	13
411.625	1	3
411.795	1	8
411.966	1	20
412.137	1	8
412.307	1	7
412.478	1	8
412.649	1	-2
412.819	1	16
412.990	1	0
413.161	1	4
413.332	1	0
413.502	1	9
413.673	1	19
413.844	1	8
414.014	1	3
414.185	1	1
414.356	1	3
414.526	1	9
414.697	1	9
414.868	1	-8
415.038	1	12
415.209	1	-5
415.380	1	15
415.550	1	11
415.721	1	8
415.892	1	-1
416.063	1	12
416.233	1	13
416.404	1	0
416.575	1	4
416.745	1	0
416.916	1	2
417.087	1	4
417.257	1	12
417.428	1	-7
417.599	1	10
417.769	1	6
417.940	1	1
418.111	1	6
418.281	1	0
418.452	1	-4
418.623	1	5
418.793	1	-4
418.964	1	3
419.135	1	12
419.305	1	15
419.476	1	4
419.647	1	3
419.817	1	6
419.988	1	0
420.159	1	5
420.329	1	-1
420.500	1	16
420.671	1	-13
420.841	1	6
421.012	1	2
421.183	1	11
421.353	1	5
421.524	1	6
421.695	1	10
421.865	1	2
422.036	1	5
422.206	1	-2
422.377	1	9
422.548	1	2
422.718	1	-8
422.889	1	-3
423.060	1	2
423.230	1	10
423.401	1	4
423.572	1	15
423.742	1	0
423.913	1	2
424.084	1	5
424.254	1	3
424.425	1	-10
424.595	1	-1
424.766	1	1
424.937	1	2
425.107	1	4
425.278	1	4
425.449	1	6
425.619	1	6
425.790	1	5
425.961	1	-3
426.131	1	-2
426.302	1	-4
426.472	1	-2
426.643	1	-3
426.814	1	6
426.984	1	1
427.155	1	-4
427.326	1	1
427.496	1	-9
427.667	1	5
427.837	1	-3
428.008	1	13
428.179	1	-2
428.349	1	-4
428.520	1	8
428.691	1	4
428.861	1	5
429.032	1	7
429.202	1	12
429.373	1	-2
429.544	1	6
429.714	1	-3
429.885	1	5
430.055	1	3
430.226	1	-6
430.397	1	-1
430.567	1	3
430.738	1	-3
430.909	1	0
431.079	1	2
431.250	1	-10
431.420	1	-4
431.591	1	3
431.762	1	1
431.932	1	-8
432.103	1	2
432.273	1	14
432.444	1	-7
432.615	1	-2
432.785	1	-3
432.956	1	2
433.126	1	2
433.297	1	-1
433.468	1	2
433.638	1	2
433.809	1	7
433.979	1	0
434.150	1	8
434.320	1	8
434.491	1	3
434.662	1	9
434.832	1	3
435.003	1	4
435.173	1	4
435.344	1	-3
435.515	1	1
435.685	1	4
435.856	1	0
436.026	1	4
436.197	1	3
436.368	1	-3
436.538	1	-4
436.709	1	-4
436.879	1	1
437.050	1	-1
437.220	1	-11
437.391	1	7
437.562	1	7
437.732	1	5
437.903	1	-2
438.073	1	-7
438.244	1	-3
438.414	1	-1
438.585	1	2
438.756	1	5
438.926	1	3
439.097	1	3
439.267	1	-6
439.438	1	-2
439.608	1	6
439.779	1	1
439.949	1	-7
440.120	1	-4
440.291	1	-2
440.461	1	-1
440.632	1	7
440.802	1	6
440.973	1	6
441.143	1	3
441.314	1	-15
441.485	1	2
441.655	1	0
441.826	1	-11
441.996	1	-9
442.167	1	4
442.337	1	3
442.508	1	0
442.678	1	-3
442.849	1	-3
443.019	1	-2
443.190	1	4
443.361	1	10
443.531	1	6
443.702	1	-3
443.872	1	3
444.043	1	9
444.213	1	0
444.384	1	2
444.554	1	-6
444.725	1	4
444.895	1	-1
445.066	1	-4
445.237	1	5
445.407	1	3
445.578	1	10
445.748	1	-6
445.919	1	-7
446.089	1	-4
446.260	1	-1
446.430	1	-15
446.601	1	13
446.771	1	-7
446.942	1	-2
447.112	1	7
447.283	1	-10
447.453	1	1
447.624	1	-9
447.794	1	5
447.965	1	2
448.135	1	-7
448.306	1	-4
448.477	1	5
448.647	1	6
448.818	1	1
448.988	1	3
449.159	1	-7
449.329	1	-1
449.500	1	2
449.670	1	3
449.841	1	-12
450.011	1	3
450.182	1	-12
450.352	1	4
450.523	1	6
450.693	1	-2
450.864	1	3
451.034	1	3
451.205	1	-1
451.375	1	6
451.546	1	-6
451.716	1	9
451.887	1	-2
452.057	1	9
452.228	1	0
452.398	1	0
452.569	1	-14
452.739	1	-1
452.910	1	-5
453.080	1	3
453.251	1	1
453.421	1	-6
453.592	1	4
453.762	1	7
453.933	1	-7
454.103	1	6
454.274	1	5
454.444	1	11
454.615	1	14
454.785	1	-2
454.956	1	10
455.126	1	-1
455.297	1	-1
455.467	1	-10
455.638	1	8
455.808	1	-2
455.979	1	-2
456.149	1	18
456.320	1	12
456.490	1	4
456.661	1	-7
456.831	1	3
457.001	1	4
457.172	1	11
457.342	1	-6
457.513	1	9
457.683	1	10
457.854	1	4
458.024	1	0
458.195	1	6
458.365	1	4
458.536	1	4
458.706	1	9
458.877	1	1
459.047	1	7
459.218	1	-2
459.388	1	8
459.559	1	4
459.729	1	-3
459.899	1	0
460.070	1	3
460.240	1	2
460.411	1	6
460.581	1	4
460.752	1	1
460.922	1	15
461.093	1	-4
461.263	1	0
461.434	1	0
461.604	1	9
461.775	1	0
461.945	1	2
462.115	1	-2
462.286	1	-4
462.456	1	7
462.627	1	11
462.797	1	-4
462.968	1	-4
463.138	1	0
463.309	1	7
463.479	1	6
463.649	1	-5
463.820	1	0
463.990	1	6
464.161	1	3
464.331	1	6
464.502	1	-2
464.672	1	-16
464.843	1	-2
465.013	1	-5
465.183	1	2
465.354	1	6
465.524	1	-4
465.695	1	2
465.865	1	4
466.036	1	7
466.206	1	4
466.376	1	-8
466.547	1	-2
466.717	1	8
466.888	1	1
467.058	1	5
467.229	1	17
467.399	1	-8
467.569	1	-4
467.740	1	-3
467.910	1	-2
468.081	1	-4
468.251	1	-1
468.422	1	-2
468.592	1	2
468.762	1	-13
468.933	1	3
469.103	1	5
469.274	1	-2
469.444	1	7
469.614	1	3
469.785	1	5
469.955	1	2
470.126	1	-2
470.296	1	6
470.467	1	-4
470.637	1	6
470.807	1	13
470.978	1	1
471.148	1	8
471.319	1	2
471.489	1	-6
471.659	1	1
471.830	1	3
472.000	1	-3
472.171	1	2
472.341	1	-6
472.511	1	11
472.682	1	-4
472.852	1	1
473.023	1	2
473.193	1	2
473.363	1	-2
473.534	1	-1
473.704	1	-1
473.875	1	-3
474.045	1	6
474.215	1	10
474.386	1	9
474.556	1	1
474.727	1	-5
474.897	1	-2
475.067	1	-6
475.238	1	-14
475.408	1	2
475.578	1	1
475.749	1	-5
475.919	1	-2
476.090	1	-1
476.260	1	1
476.430	1	12
476.601	1	10
476.771	1	-7
476.942	1	12
477.112	1	-5
477.282	1	6
477.453	1	3
477.623	1	0
477.793	1	-3
477.964	1	-4
478.134	1	2
478.305	1	6
478.475	1	-5
478.645	1	1
478.816	1	1
478.986	1	1
479.156	1	-2
479.327	1	4
479.497	1	9
479.667	1	-2
479.838	1	-14
480.008	1	-5
480.179	1	-4
480.349	1	9
480.519	1	5
480.690	1	-5
480.860	1	5
481.030	1	8
481.201	1	-2
481.371	1	7
481.541	1	7
481.712	1	2
481.882	1	-1
482.053	1	5
482.223	1	6
482.393	1	-2
482.564	1	-1
482.734	1	9
482.904	1	6
483.075	1	-3
483.245	1	10
483.415	1	7
483.586	1	13
483.756	1	-2
483.926	1	-5
484.097	1	8
484.267	1	-9
484.437	1	-2
484.608	1	1
484.778	1	-4
484.948	1	-6
485.119	1	-8
485.289	1	9
485.459	1	3
485.630	1	11
485.800	1	1
485.970	1	2
486.141	1	3
486.311	1	4
486.481	1	-2
486.652	1	5
486.822	1	0
486.992	1	3
487.163	1	2
487.333	1	3
487.503	1	7
487.674	1	5
487.844	1	-1
488.014	1	0
488.185	1	-4
488.355	1	1
488.525	1	-2
488.696	1	2
488.866	1	-5
489.036	1	9
489.207	1	6
489.377	1	1
489.547	1	-3
489.718	1	-1
489.888	1	5
490.058	1	6
490.228	1	-6
490.399	1	9
490.569	1	-2
490.739	1	12
490.910	1	-6
491.080	1	-5
491.250	1	-2
491.421	1	1
491.591	1	-9
491.761	1	-3
491.932	1	-5
492.102	1	-7
492.272	1	11
492.442	1	2
492.613	1	9
492.783	1	2
492.953	1	6
493.124	1	2
493.294	1	0
493.464	1	7
493.635	1	-12
493.805	1	13
493.975	1	2
494.145	1	7
494.316	1	-2
494.486	1	-3
494.656	1	-2
494.827	1	14
494.997	1	-3
495.167	1	-1
495.337	1	5
495.508	1	7
495.678	1	2
495.848	1	3
496.019	1	2
496.189	1	-2
496.359	1	0
496.529	1	10
496.700	1	2
496.870	1	10
497.040	1	0
497.211	1	10
497.381	1	2
497.551	1	8
497.721	1	2
497.892	1	13
498.062	1	3
498.232	1	9
498.403	1	1
498.573	1	7
498.743	1	3
498.913	1	5
499.084	1	-9
499.254	1	-17
499.424	1	-5
499.594	1	-1
499.765	1	13
499.935	1	-4
500.105	1	11
500.275	1	-1
500.446	1	-1
500.616	1	0
500.786	1	13
500.956	1	14
501.127	1	4
501.297	1	1
501.467	1	-1
501.638	1	4
501.808	1	5
501.978	1	2
502.148	1	-4
502.319	1	11
502.489	1	-2
502.659	1	15
502.829	1	11
503.000	1	4
503.170	1	0
503.340	1	14
503.510	1	4
503.681	1	0
503.851	1	-4
504.021	1	13
504.191	1	8
504.362	1	6
504.532	1	7
504.702	1	-4
504.872	1	-11
505.042	1	6
505.213	1	3
505.383	1	0
505.553	1	4
505.723	1	10
505.894	1	-4
506.064	1	13
506.234	1	11
506.404	1	-5
506.575	1	2
506.745	1	17
506.915	1	8
507.085	1	4
507.256	1	10
507.426	1	3
507.596	1	7
507.766	1	9
507.936	1	5
508.107	1	17
508.277	1	-2
508.447	1	0
508.617	1	3
508.788	1	6
508.958	1	12
509.128	1	6
509.298	1	3
509.468	1	8
509.639	1	-2
509.809	1	13
509.979	1	1
510.149	1	20
510.319	1	-7
510.490	1	3
510.660	1	4
510.830	1	11
511.000	1	-2
511.171	1	7
511.341	1	7
511.511	1	13
511.681	1	16
511.851	1	8
512.022	1	-6
512.192	1	12
512.362	1	2
512.532	1	1
512.702	1	10
512.873	1	9
513.043	1	13
513.213	1	21
513.383	1	-2
513.553	1	13
513.724	1	2
513.894	1	-2
514.064	1	14
514.234	1	19
514.404	1	16
514.575	1	1
514.745	1	14
514.915	1	-2
515.085	1	4
515.255	1	10
515.425	1	20
515.596	1	16
515.766	1	6
515.936	1	6
516.106	1	8
516.276	1	7
516.447	1	11
516.617	1	-2
516.787	1	6
516.957	1	11
517.127	1	17
517.297	1	1
517.468	1	0
517.638	1	-1
517.808	1	9
517.978	1	17
518.148	1	-2
518.319	1	12
518.489	1	4
518.659	1	11
518.829	1	10
518.999	1	11
519.169	1	-1
519.340	1	13
519.510	1	5
519.680	1	12
519.850	1	7
520.020	1	6
520.190	1	-1
520.361	1	13
520.531	1	4
520.701	1	17
520.871	1	-1
521.041	1	12
521.211	1	14
521.382	1	3
521.552	1	0
521.722	1	8
521.892	1	9
522.062	1	5
522.232	1	18
522.402	1	18
522.573	1	4
522.743	1	2
522.913	1	10
523.083	1	1
523.253	1	16
523.423	1	4
523.593	1	6
523.764	1	10
523.934	1	8
524.104	1	13
524.274	1	8
524.444	1	6
524.614	1	12
524.784	1	5
524.955	1	22
525.125	1	5
525.295	1	9
525.465	1	12
525.635	1	1
525.805	1	16
525.975	1	-5
526.146	1	4
526.316	1	4
526.486	1	12
526.656	1	4
526.826	1	14
526.996	1	10
527.166	1	0
527.337	1	-1
527.507	1	17
527.677	1	7
527.847	1	0
528.017	1	6
528.187	1	13
528.357	1	16
528.527	1	9
528.698	1	-7
528.868	1	14
529.038	1	4
529.208	1	-4
529.378	1	3
529.548	1	-1
529.718	1	7
529.888	1	14
530.058	1	11
530.229	1	17
530.399	1	3
530.569	1	1
530.739	1	2
530.909	1	4
531.079	1	-8
531.249	1	4
531.419	1	11
531.589	1	6
531.760	1	6
531.930	1	15
532.100	1	3
532.270	1	23
532.440	1	10
532.610	1	17
532.780	1	11
532.950	1	0
533.120	1	17
533.290	1	5
533.461	1	4
533.631	1	1
533.801	1	15
533.971	1	-4
534.141	1	12
534.311	1	14
534.481	1	12
534.651	1	-2
534.821	1	1
534.991	1	9
535.162	1	1
535.332	1	1
535.502	1	10
535.672	1	2
535.842	1	14
536.012	1	3
536.182	1	18
536.352	1	3
536.522	1	-6
536.692	1	5
536.862	1	-2
537.032	1	1
537.203	1	14
537.373	1	8
537.543	1	8
537.713	1	15
537.883	1	-5
538.053	1	12
538.223	1	11
538.393	1	14
538.563	1	8
538.733	1	16
538.903	1	3
539.073	1	10
539.243	1	6
539.413	1	10
539.584	1	6
539.754	1	17
539.924	1	7
540.094	1	4
540.264	1	1
540.434	1	10
540.604	1	6
540.774	1	12
540.944	1	13
541.114	1	11
541.284	1	4
541.454	1	13
541.624	1	5
541.794	1	11
541.964	1	-4
542.134	1	13
542.305	1	11
542.475	1	11
542.645	1	14
542.815	1	-9
542.985	1	11
543.155	1	-6
543.325	1	11
543.495	1	18
543.665	1	-4
543.835	1	1
544.005	1	3
544.175	1	8
544.345	1	-2
544.515	1	9
544.685	1	14
544.855	1	8
545.025	1	5
545.195	1	0
545.365	1	6
545.535	1	-2
545.705	1	3
545.875	1	6
546.045	1	10
546.216	1	-4
546.386	1	4
546.556	1	6
546.726	1	6
546.896	1	10
547.066	1	15
547.236	1	3
547.406	1	-1
547.576	1	4
547.746	1	10
547.916	1	9
548.086	1	10
548.256	1	3
548.426	1	1
548.596	1	0
548.766	1	16
548.936	1	14
549.106	1	5
549.276	1	12
549.446	1	-4
549.616	1	9
549.786	1	-2
549.956	1	8
550.126	1	1
550.296	1	8
550.466	1	10
550.636	1	11
550.806	1	13
550.976	1	7
551.146	1	3
551.316	1	2
551.486	1	16
551.656	1	15
551.826	1	14
551.996	1	9
552.166	1	17
552.336	1	1
552.506	1	12
552.676	1	3
552.846	1	7
553.016	1	16
553.186	1	4
553.356	1	10
553.526	1	10
553.696	1	16
553.866	1	6
554.036	1	10
554.206	1	10
554.376	1	2
554.546	1	7
554.716	1	9
554.886	1	4
555.056	1	1
555.226	1	17
555.396	1	6
555.566	1	3
555.736	1	8
555.906	1	12
556.076	1	5
556.246	1	2
556.416	1	0
556.586	1	-6
556.756	1	-2
556.926	1	7
557.096	1	11
557.266	1	4
557.436	1	14
557.606	1	9
557.776	1	0
557.946	1	-2
558.116	1	6
558.286	1	7
558.456	1	1
558.626	1	-1
558.796	1	8
558.966	1	10
559.136	1	9
559.306	1	9
559.476	1	8
559.646	1	16
559.816	1	10
559.986	1	-7
560.155	1	0
560.325	1	12
560.495	1	12
560.665	1	3
560.835	1	9
561.005	1	12
561.175	1	0
561.345	1	2
561.515	1	0
561.685	1	3
561.855	1	-1
562.025	1	10
562.195	1	13
562.365	1	11
562.535	1	5
562.705	1	5
562.875	1	10
563.045	1	-4
563.215	1	3
563.385	1	-1
563.555	1	-2
563.725	1	12
563.895	1	5
564.064	1	3
564.234	1	8
564.404	1	3
564.574	1	13
564.744	1	7
564.914	1	8
565.084	1	-9
565.254	1	14
565.424	1	8
565.594	1	1
565.764	1	-4
565.934	1	12
566.104	1	-2
566.274	1	10
566.444	1	7
566.614	1	8
566.783	1	13
566.953	1	4
567.123	1	4
567.293	1	2
567.463	1	6
567.633	1	3
567.803	1	11
567.973	1	20
568.143	1	5
568.313	1	0
568.483	1	9
568.653	1	-10
568.823	1	7
568.993	1	-5
569.162	1	3
569.332	1	12
569.502	1	7
569.672	1	7
569.842	1	-3
570.012	1	3
570.182	1	-3
570.352	1	2
570.522	1	-4
570.692	1	8
570.862	1	8
571.031	1	9
571.201	1	1
571.371	1	-1
571.541	1	10
571.711	1	6
571.881	1	9
572.051	1	1
572.221	1	5
572.391	1	4
572.561	1	1
572.731	1	1
572.900	1	-7
573.070	1	12
573.240	1	3
573.410	1	4
573.580	1	3
573.750	1	12
573.920	1	-1
574.090	1	6
574.260	1	12
574.430	1	0
574.599	1	1
574.769	1	-5
574.939	1	-3
575.109	1	2
575.279	1	3
575.449	1	19
575.619	1	15
575.789	1	2
575.959	1	-1
576.128	1	1
576.298	1	6
576.468	1	7
576.638	1	-11
576.808	1	5
576.978	1	4
577.148	1	6
577.318	1	17
577.487	1	6
577.657	1	1
577.827	1	-2
577.997	1	-2
578.167	1	0
578.337	1	0
578.507	1	1
578.677	1	10
578.846	1	1
579.016	1	2
579.186	1	4
579.356	1	13
579.526	1	-1
579.696	1	6
579.866	1	-2
580.036	1	15
580.205	1	0
580.375	1	21
580.545	1	0
580.715	1	-2
580.885	1	13
581.055	1	-6
581.225	1	12
581.394	1	-7
581.564	1	-6
581.734	1	-5
581.904	1	3
582.074	1	-1
582.244	1	3
582.414	1	-1
582.583	1	-4
582.753	1	9
582.923	1	7
583.093	1	7
583.263	1	1
583.433	1	7
583.603	1	-8
583.772	1	-12
583.942	1	0
584.112	1	2
584.282	1	-3
584.452	1	11
584.622	1	0
584.791	1	0
584.961	1	-9
585.131	1	11
585.301	1	0
585.471	1	-3
585.641	1	3
585.811	1	-4
585.980	1	4
586.150	1	5
586.320	1	3
586.490	1	8
586.660	1	14
586.830	1	-8
586.999	1	3
587.169	1	13
587.339	1	-6
587.509	1	3
587.679	1	-4
587.849	1	10
588.018	1	-7
588.188	1	10
588.358	1	-3
588.528	1	-1
588.698	1	-7
588.867	1	3
589.037	1	-6
589.207	1	9
589.377	1	-6
589.547	1	2
589.717	1	-2
589.886	1	1
590.056	1	2
590.226	1	0
590.396	1	3
590.566	1	-9
590.735	1	1
590.905	1	9
591.075	1	-2
591.245	1	5
591.415	1	-3
591.585	1	10
591.754	1	7
591.924	1	11
592.094	1	-2
592.264	1	-13
592.434	1	3
592.603	1	0
592.773	1	6
592.943	1	1
593.113	1	-2
593.283	1	-2
593.452	1	5
593.622	1	11
593.792	1	5
593.962	1	6
594.132	1	1
594.301	1	11
594.471	1	-5
594.641	1	-8
594.811	1	-1
594.981	1	1
595.150	1	4
595.320	1	-5
595.490	1	6
595.660	1	7
595.829	1	-8
595.999	1	-9
596.169	1	9
596.339	1	5
596.509	1	2
596.678	1	6
596.848	1	9
597.018	1	7
597.188	1	7
597.358	1	1
597.527	1	7
597.697	1	-4
597.867	1	6
598.037	1	0
598.206	1	6
598.376	1	-11
598.546	1	-3
598.716	1	-7
598.885	1	6
599.055	1	4
599.225	1	-1
599.395	1	4
599.565	1	-7
599.734	1	9
599.904	1	-14
600.074	1	10
600.244	1	-1
600.413	1	6
600.583	1	-4
600.753	1	10
600.923	1	-2
601.092	1	8
601.262	1	2
601.432	1	0
601.602	1	20
601.771	1	2
601.941	1	3
602.111	1	2
602.281	1	1
602.451	1	-6
602.620	1	8
602.790	1	3
602.960	1	-8
603.130	1	-3
603.299	1	1
603.469	1	4
603.639	1	-10
603.809	1	11
603.978	1	-1
604.148	1	3
604.318	1	1
604.487	1	3
604.657	1	-13
604.827	1	6
604.997	1	7
605.166	1	4
605.336	1	0
605.506	1	-4
605.676	1	1
605.845	1	-2
606.015	1	-11
606.185	1	-2
606.355	1	-1
606.524	1	4
606.694	1	3
606.864	1	7
607.034	1	1
607.203	1	9
607.373	1	-2
607.543	1	-5
607.712	1	-1
607.882	1	2
608.052	1	4
608.222	1	0
608.391	1	10
608.561	1	-2
608.731	1	-4
608.901	1	13
609.070	1	-2
609.240	1	-10
609.410	1	3
609.579	1	6
609.749	1	3
609.919	1	-9
610.089	1	0
610.258	1	-3
610.428	1	8
610.598	1	-1
610.767	1	9
610.937	1	1
611.107	1	-7
611.277	1	-2
611.446	1	4
611.616	1	5
611.786	1	4
611.955	1	-4
612.125	1	7
612.295	1	6
612.465	1	1
612.634	1	7
612.804	1	6
612.974	1	0
613.143	1	-6
613.313	1	-3
613.483	1	1
613.652	1	0
613.822	1	0
613.992	1	1
614.162	1	3
614.331	1	9
614.501	1	0
614.671	1	10
614.840	1	2
615.010	1	1
615.180	1	4
615.349	1	3
615.519	1	-10
615.689	1	-18
615.858	1	10
616.028	1	5
616.198	1	2
616.368	1	-3
616.537	1	-1
616.707	1	4
616.877	1	2
617.046	1	9
617.216	1	2
617.386	1	0
617.555	1	-13
617.725	1	-2
617.895	1	5
618.064	1	-2
618.234	1	1
618.404	1	-9
618.573	1	9
618.743	1	5
618.913	1	3
619.082	1	2
619.252	1	4
619.422	1	-12
619.591	1	5
619.761	1	-1
619.931	1	4
620.100	1	10
620.270	1	3
620.440	1	7
620.609	1	5
620.779	1	14
620.949	1	-3
621.118	1	4
621.288	1	-5
621.458	1	7
621.627	1	3
621.797	1	-11
621.967	1	0
622.136	1	4
622.306	1	5
622.476	1	-2
622.645	1	0
622.815	1	-1
622.985	1	-7
623.154	1	10
623.324	1	-8
623.494	1	-5
623.663	1	7
623.833	1	8
624.002	1	-7
624.172	1	-3
624.342	1	5
624.511	1	3
624.681	1	4
624.851	1	-5
625.020	1	2
625.190	1	3
625.360	1	-1
625.529	1	2
625.699	1	4
625.869	1	5
626.038	1	-5
626.208	1	11
626.377	1	5
626.547	1	-2
626.717	1	-4
626.886	1	-11
627.056	1	-1
627.226	1	6
627.395	1	11
627.565	1	7
627.735	1	10
627.904	1	3
628.074	1	15
628.243	1	9
628.413	1	-10
628.583	1	-2
628.752	1	-3
628.922	1	3
629.091	1	2
629.261	1	8
629.431	1	8
629.600	1	-1
629.770	1	14
629.940	1	-13
630.109	1	6
630.279	1	5
630.448	1	-2
630.618	1	7
630.788	1	-5
630.957	1	12
631.127	1	-5
631.297	1	-5
631.466	1	6
631.636	1	10
631.805	1	-1
631.975	1	-6
632.145	1	1
632.314	1	3
632.484	1	8
632.653	1	-4
632.823	1	-1
632.993	1	4
633.162	1	6
633.332	1	-1
633.501	1	-3
633.671	1	-5
633.841	1	2
634.010	1	8
634.180	1	6
634.349	1	4
634.519	1	10
634.689	1	1
634.858	1	-14
635.028	1	-4
635.197	1	-4
635.367	1	3
635.537	1	4
635.706	1	7
635.876	1	3
636.045	1	-2
636.215	1	14
636.384	1	-2
636.554	1	-2
636.724	1	2
636.893	1	3
637.063	1	-6
637.232	1	-3
637.402	1	9
637.572	1	9
637.741	1	-2
637.911	1	-5
638.080	1	8
638.250	1	1
638.419	1	-7
638.589	1	5
638.759	1	2
638.928	1	-4
639.098	1	-2
639.267	1	5
639.437	1	6
639.606	1	11
639.776	1	2
639.946	1	4
640.115	1	0
640.285	1	-1
640.454	1	6
640.624	1	10
640.793	1	4
640.963	1	1
641.132	1	2
641.302	1	-4
641.472	1	3
641.641	1	2
641.811	1	-6
641.980	1	0
642.150	1	-7
642.319	1	3
642.489	1	-7
642.659	1	13
642.828	1	0
642.998	1	4
643.167	1	-4
643.337	1	5
643.506	1	4
643.676	1	7
643.845	1	7
644.015	1	7
644.184	1	-10
644.354	1	-3
644.524	1	-2
644.693	1	1
644.863	1	4
645.032	1	1
645.202	1	3
645.371	1	-8
645.541	1	-1
645.710	1	-5
645.880	1	-5
646.049	1	-4
646.219	1	0
646.388	1	-4
646.558	1	-4
646.728	1	-4
646.897	1	-2
647.067	1	2
647.236	1	10
647.406	1	7
647.575	1	11
647.745	1	5
647.914	1	-1
648.084	1	-5
648.253	1	-2
648.423	1	-2
648.592	1	-14
648.762	1	7
648.931	1	6
649.101	1	2
649.270	1	-1
649.440	1	1
649.610	1	5
649.779	1	0
649.949	1	4
650.118	1	4
650.288	1	7
650.457	1	3
650.627	1	0
650.796	1	3
650.966	1	-12
651.135	1	8
651.305	1	2
651.474	1	12
651.644	1	7
651.813	1	9
651.983	1	-6
652.152	1	8
652.322	1	-1
652.491	1	10
652.661	1	-4
652.830	1	5
653.000	1	7
653.169	1	5
653.339	1	9
653.508	1	-9
653.678	1	7
653.847	1	0
654.017	1	11
654.186	1	-5
654.356	1	-11
654.525	1	-2
654.695	1	-5
654.864	1	4
655.034	1	1
655.203	1	11
655.373	1	7
655.542	1	11
655.712	1	4
655.881	1	8
656.051	1	11
656.220	1	5
656.390	1	2
656.559	1	0
656.729	1	7
656.898	1	3
657.068	1	1
657.237	1	1
657.406	1	6
657.576	1	1
657.745	1	9
657.915	1	-9
658.084	1	-5
658.254	1	8
658.423	1	12
658.593	1	13
658.762	1	5
658.932	1	4
659.101	1	-12
659.271	1	10
659.440	1	1
659.610	1	-5
659.779	1	12
659.949	1	5
660.118	1	4
660.288	1	0
660.457	1	5
660.626	1	9
660.796	1	-6
660.965	1	2
661.135	1	-7
661.304	1	-5
661.474	1	-3
661.643	1	-3
661.813	1	8
661.982	1	6
662.152	1	2
662.321	1	2
662.491	1	-12
662.660	1	4
662.829	1	5
662.999	1	5
663.168	1	-5
663.338	1	15
663.507	1	-4
663.677	1	7
663.846	1	-3
664.016	1	-4
664.185	1	-2
664.354	1	8
664.524	1	0
664.693	1	-5
664.863	1	-4
665.032	1	-7
665.202	1	-1
665.371	1	0
665.541	1	21
665.710	1	-7
665.879	1	1
666.049	1	-3
666.218	1	-6
666.388	1	6
666.557	1	10
666.727	1	5
666.896	1	-3
667.065	1	-5
667.235	1	13
667.404	1	4
667.574	1	-5
667.743	1	-7
667.913	1	3
668.082	1	-2
668.251	1	3
668.421	1	7
668.590	1	3
668.760	1	7
668.929	1	9
669.099	1	-7
669.268	1	-8
669.437	1	-3
669.607	1	9
669.776	1	4
669.946	1	2
670.115	1	-14
670.285	1	12
670.454	1	-6
670.623	1	-4
670.793	1	-3
670.962	1	1
671.132	1	-7
671.301	1	12
671.470	1	-1
671.640	1	-2
671.809	1	-1
671.979	1	13
672.148	1	7
672.317	1	-1
672.487	1	-6
672.656	1	-12
672.826	1	1
672.995	1	2
673.164	1	-9
673.334	1	0
673.503	1	-7
673.673	1	2
673.842	1	2
674.011	1	13
674.181	1	8
674.350	1	2
674.520	1	2
674.689	1	-6
674.858	1	-3
675.028	1	7
675.197	1	1
675.367	1	-1
675.536	1	6
675.705	1	10
675.875	1	1
676.044	1	-6
676.214	1	-1
676.383	1	15
676.552	1	6
676.722	1	-1
676.891	1	2
677.060	1	-3
677.230	1	10
677.399	1	-5
677.569	1	3
677.738	1	4
677.907	1	-7
678.077	1	-2
678.246	1	4
678.416	1	2
678.585	1	5
678.754	1	5
678.924	1	14
679.093	1	3
679.262	1	7
679.432	1	5
679.601	1	-6
679.771	1	0
679.940	1	1
680.109	1	-10
680.279	1	4
680.448	1	3
680.617	1	-3
680.787	1	-6
680.956	1	7
681.125	1	-2
681.295	1	-2
681.464	1	-2
681.634	1	4
681.803	1	-2
681.972	1	1
682.142	1	3
682.311	1	2
682.480	1	9
682.650	1	3
682.819	1	4
682.988	1	-5
683.158	1	1
683.327	1	16
683.496	1	9
683.666	1	6
683.835	1	-2
684.004	1	1
684.174	1	-4
684.343	1	1
684.512	1	1
684.682	1	-8
684.851	1	12
685.021	1	0
685.190	1	1
685.359	1	-7
685.529	1	-1
685.698	1	4
685.867	1	0
686.037	1	7
686.206	1	-3
686.375	1	5
686.545	1	19
686.714	1	-1
686.883	1	6
687.053	1	0
687.222	1	2
687.391	1	7
687.561	1	17
687.730	1	8
687.899	1	-6
688.069	1	11
688.238	1	1
688.407	1	5
688.577	1	-11
688.746	1	-4
