340.368	1	8
340.539	1	15
340.710	1	6
340.881	1	-3
341.052	1	-12
341.223	1	11
341.394	1	-4
341.565	1	-2
341.737	1	3
341.908	1	-5
342.079	1	-11
342.250	1	-2
342.421	1	7
342.592	1	10
342.763	1	5
342.934	1	2
343.105	1	1
343.276	1	1
343.447	1	-11
343.618	1	-5
343.789	1	-3
343.960	1	-3
344.131	1	4
344.302	1	-11
344.473	1	-4
344.644	1	-2
344.815	1	5
344.986	1	2
345.157	1	4
345.328	1	-2
345.499	1	2
345.670	1	-8
345.841	1	-1
346.012	1	0
346.183	1	10
346.354	1	-2
346.526	1	-9
346.697	1	-7
346.868	1	-6
347.039	1	-2
347.210	1	-1
347.381	1	5
347.552	1	3
347.723	1	-7
347.894	1	-4
348.065	1	9
348.236	1	3
348.407	1	-1
348.578	1	-6
348.749	1	-3
348.920	1	-5
349.091	1	2
349.262	1	0
349.433	1	10
349.604	1	6
349.775	1	3
349.946	1	-5
350.117	1	1
350.288	1	3
350.459	1	-5
350.630	1	9
350.801	1	8
350.972	1	5
351.143	1	12
351.314	1	1
351.485	1	-1
351.656	1	3
351.827	1	-1
351.998	1	2
352.169	1	2
352.340	1	1
352.511	1	3
352.682	1	-1
352.853	1	-2
353.024	1	5
353.195	1	2
353.366	1	-2
353.537	1	5
353.708	1	-2
353.879	1	-6
354.050	1	-2
354.221	1	2
354.392	1	10
354.563	1	8
354.734	1	7
354.905	1	2
355.076	1	4
355.247	1	7
355.418	1	1
355.589	1	-4
355.760	1	4
355.931	1	5
356.102	1	-6
356.273	1	-3
356.444	1	0
356.615	1	8
356.785	1	6
356.956	1	-7
357.127	1	0
357.298	1	0
357.469	1	3
357.640	1	4
357.811	1	0
357.982	1	-1
358.153	1	-2
358.324	1	13
358.495	1	-2
358.666	1	-4
358.837	1	7
359.008	1	3
359.179	1	4
359.350	1	7
359.521	1	0
359.692	1	10
359.863	1	3
360.034	1	6
360.205	1	4
360.376	1	-5
360.547	1	-3
360.718	1	3
360.889	1	6
361.060	1	2
361.231	1	-7
361.401	1	-4
361.572	1	0
361.743	1	16
361.914	1	5
362.085	1	5
362.256	1	-1
362.427	1	-17
362.598	1	-5
362.769	1	0
362.940	1	7
363.111	1	-4
363.282	1	4
363.453	1	-6
363.624	1	-3
363.795	1	-2
363.966	1	-5
364.137	1	9
364.308	1	0
364.478	1	4
364.649	1	6
364.820	1	6
364.991	1	-1
365.162	1	-13
365.333	1	2
365.504	1	-1
365.675	1	0
365.846	1	-3
366.017	1	-7
366.188	1	2
366.359	1	4
366.530	1	3
366.701	1	6
366.871	1	3
367.042	1	20
367.213	1	13
367.384	1	-8
367.555	1	2
367.726	1	1
367.897	1	10
368.068	1	5
368.239	1	-4
368.410	1	1
368.581	1	1
368.752	1	18
368.923	1	-1
369.093	1	6
369.264	1	-2
369.435	1	-6
369.606	1	-2
369.777	1	3
369.948	1	6
370.119	1	7
370.290	1	-5
370.461	1	11
370.632	1	6
370.803	1	5
370.973	1	-3
371.144	1	1
371.315	1	-2
371.486	1	1
371.657	1	-1
371.828	1	7
371.999	1	-4
372.170	1	5
372.341	1	2
372.512	1	-9
372.682	1	2
372.853	1	1
373.024	1	9
373.195	1	1
373.366	1	-5
373.537	1	5
373.708	1	-6
373.879	1	-3
374.050	1	4
374.220	1	-2
374.391	1	0
374.562	1	-1
374.733	1	-5
374.904	1	7
375.075	1	-2
375.246	1	-7
375.417	1	1
375.588	1	5
375.758	1	-5
375.929	1	1
376.100	1	7
376.271	1	2
376.442	1	-5
376.613	1	-9
376.784	1	7
376.955	1	-12
377.125	1	3
377.296	1	-2
377.467	1	6
377.638	1	4
377.809	1	6
377.980	1	13
378.151	1	-1
378.321	1	1
378.492	1	2
378.663	1	0
378.834	1	21
379.005	1	-3
379.176	1	-6
379.347	1	6
379.518	1	5
379.688	1	3
379.859	1	5
380.030	1	11
380.201	1	8
380.372	1	0
380.543	1	11
380.714	1	6
380.884	1	5
381.055	1	-4
381.226	1	9
381.397	1	8
381.568	1	5
381.739	1	1
381.910	1	-13
382.080	1	-4
382.251	1	-8
382.422	1	4
382.593	1	2
382.764	1	-3
382.935	1	10
383.105	1	-5
383.276	1	-3
383.447	1	2
383.618	1	5
383.789	1	-3
383.960	1	1
384.130	1	-4
384.301	1	9
384.472	1	-5
384.643	1	2
384.814	1	10
384.985	1	-1
385.156	1	4
385.326	1	0
385.497	1	1
385.668	1	1
385.839	1	7
386.010	1	8
386.180	1	-3
386.351	1	3
386.522	1	-4
386.693	1	-7
386.864	1	9
387.035	1	8
387.205	1	7
387.376	1	4
387.547	1	4
387.718	1	1
387.889	1	5
388.060	1	3
388.230	1	7
388.401	1	1
388.572	1	-2
388.743	1	-3
388.914	1	-7
389.084	1	6
389.255	1	0
389.426	1	0
389.597	1	12
389.768	1	4
389.939	1	-9
390.109	1	-3
390.280	1	-6
390.451	1	1
390.622	1	-2
390.793	1	3
390.963	1	-2
391.134	1	-4
391.305	1	2
391.476	1	9
391.647	1	0
391.817	1	-7
391.988	1	-10
392.159	1	9
392.330	1	-3
392.501	1	-3
392.671	1	3
392.842	1	4
393.013	1	5
393.184	1	-6
393.355	1	15
393.525	1	2
393.696	1	-6
393.867	1	6
394.038	1	-6
394.208	1	10
394.379	1	-3
394.550	1	-3
394.721	1	2
394.892	1	-9
395.062	1	8
395.233	1	-4
395.404	1	-3
395.575	1	-6
395.746	1	2
395.916	1	2
396.087	1	6
396.258	1	8
396.429	1	0
396.599	1	10
396.770	1	5
396.941	1	-4
397.112	1	-7
397.283	1	-11
397.453	1	1
397.624	1	2
397.795	1	-5
397.966	1	13
398.136	1	-1
398.307	1	2
398.478	1	8
398.649	1	3
398.819	1	-5
398.990	1	-10
399.161	1	-5
399.332	1	1
399.503	1	7
399.673	1	-10
399.844	1	-1
400.015	1	4
400.186	1	-2
400.356	1	15
400.527	1	8
400.698	1	-5
400.869	1	-14
401.039	1	-5
401.210	1	2
401.381	1	-5
401.552	1	-7
401.722	1	0
401.893	1	14
402.064	1	6
402.235	1	-5
402.405	1	-1
402.576	1	-3
402.747	1	-4
402.918	1	-3
403.088	1	3
403.259	1	0
403.430	1	8
403.601	1	-3
403.771	1	14
403.942	1	3
404.113	1	12
404.284	1	-7
404.454	1	-1
404.625	1	-5
404.796	1	-7
404.967	1	3
405.137	1	2
405.308	1	10
405.479	1	6
405.649	1	4
405.820	1	-4
405.991	1	2
406.162	1	8
406.332	1	-14
406.503	1	-7
406.674	1	-2
406.845	1	8
407.015	1	1
407.186	1	4
407.357	1	-3
407.527	1	-1
407.698	1	9
407.869	1	5
408.040	1	11
408.210	1	-1
408.381	1	-5
408.552	1	1
408.722	1	-4
408.893	1	4
409.064	1	3
409.235	1	-4
409.405	1	6
409.576	1	10
409.747	1	4
409.917	1	3
410.088	1	2
410.259	1	1
410.430	1	-7
410.600	1	-14
410.771	1	-5
410.942	1	6
411.112	1	5
411.283	1	-1
411.454	1	-2
411.625	1	-4
411.795	1	5
411.966	1	7
412.137	1	3
412.307	1	4
412.478	1	9
412.649	1	-1
412.819	1	6
412.990	1	0
413.161	1	-8
413.332	1	1
413.502	1	0
413.673	1	8
413.844	1	9
414.014	1	-16
414.185	1	3
414.356	1	8
414.526	1	-2
414.697	1	7
414.868	1	-1
415.038	1	0
415.209	1	-7
415.380	1	4
415.550	1	1
415.721	1	4
415.892	1	0
416.063	1	11
416.233	1	-1
416.404	1	0
416.575	1	-6
416.745	1	-9
416.916	1	2
417.087	1	-5
417.257	1	8
417.428	1	3
417.599	1	3
417.769	1	-14
417.940	1	-6
418.111	1	7
418.281	1	-11
418.452	1	5
418.623	1	1
418.793	1	5
418.964	1	9
419.135	1	11
419.305	1	4
419.476	1	4
419.647	1	4
419.817	1	11
419.988	1	-8
420.159	1	-10
420.329	1	2
420.500	1	2
420.671	1	-8
420.841	1	0
421.012	1	-1
421.183	1	9
421.353	1	4
421.524	1	14
421.695	1	3
421.865	1	3
422.036	1	-3
422.206	1	1
422.377	1	4
422.548	1	1
422.718	1	-8
422.889	1	-1
423.060	1	-4
423.230	1	3
423.401	1	0
423.572	1	17
423.742	1	-2
423.913	1	5
424.084	1	-4
424.254	1	1
424.425	1	-8
424.595	1	6
424.766	1	-2
424.937	1	5
425.107	1	-1
425.278	1	-6
425.449	1	0
425.619	1	2
425.790	1	13
425.961	1	1
426.131	1	-4
426.302	1	7
426.472	1	-1
426.643	1	0
426.814	1	2
426.984	1	-6
427.155	1	-16
427.326	1	1
427.496	1	-8
427.667	1	5
427.837	1	4
428.008	1	-3
428.179	1	3
428.349	1	-8
428.520	1	1
428.691	1	-3
428.861	1	3
429.032	1	-2
429.202	1	4
429.373	1	3
429.544	1	10
429.714	1	-2
429.885	1	-5
430.055	1	5
430.226	1	0
430.397	1	-5
430.567	1	-1
430.738	1	-7
430.909	1	2
431.079	1	4
431.250	1	-11
431.420	1	-1
431.591	1	2
431.762	1	1
431.932	1	-10
432.103	1	-3
432.273	1	6
432.444	1	-8
432.615	1	-2
432.785	1	-3
432.956	1	10
433.126	1	6
433.297	1	3
433.468	1	-3
433.638	1	1
433.809	1	0
433.979	1	-1
434.150	1	8
434.320	1	2
434.491	1	9
434.662	1	7
434.832	1	-7
435.003	1	4
435.173	1	6
435.344	1	1
435.515	1	0
435.685	1	-5
435.856	1	-5
436.026	1	0
436.197	1	-3
436.368	1	3
436.538	1	-10
436.709	1	-4
436.879	1	5
437.050	1	12
437.220	1	-14
437.391	1	17
437.562	1	4
437.732	1	4
437.903	1	-10
438.073	1	-9
438.244	1	-7
438.414	1	5
438.585	1	1
438.756	1	5
438.926	1	-3
439.097	1	11
439.267	1	5
439.438	1	15
439.608	1	-2
439.779	1	-9
439.949	1	-11
440.120	1	-5
440.291	1	3
440.461	1	6
440.632	1	7
440.802	1	6
440.973	1	6
441.143	1	-3
441.314	1	-8
441.485	1	-2
441.655	1	-9
441.826	1	-10
441.996	1	-4
442.167	1	4
442.337	1	7
442.508	1	4
442.678	1	1
442.849	1	-15
443.019	1	1
443.190	1	8
443.361	1	6
443.531	1	2
443.702	1	-8
443.872	1	6
444.043	1	9
444.213	1	10
444.384	1	-3
444.554	1	-1
444.725	1	-6
444.895	1	-4
445.066	1	0
445.237	1	7
445.407	1	-7
445.578	1	5
445.748	1	-1
445.919	1	-2
446.089	1	-2
446.260	1	0
446.430	1	-4
446.601	1	9
446.771	1	-1
446.942	1	1
447.112	1	4
447.283	1	-3
447.453	1	3
447.624	1	-4
447.794	1	3
447.965	1	1
448.135	1	-2
448.306	1	-6
448.477	1	4
448.647	1	-7
448.818	1	-2
448.988	1	-8
449.159	1	13
449.329	1	5
449.500	1	-2
449.670	1	-4
449.841	1	-1
450.011	1	1
450.182	1	-6
450.352	1	7
450.523	1	0
450.693	1	-1
450.864	1	6
451.034	1	9
451.205	1	2
451.375	1	7
451.546	1	-6
451.716	1	6
451.887	1	-7
452.057	1	16
452.228	1	7
452.398	1	5
452.569	1	-9
452.739	1	-7
452.910	1	1
453.080	1	1
453.251	1	3
453.421	1	-1
453.592	1	5
453.762	1	13
453.933	1	-6
454.103	1	-3
454.274	1	7
454.444	1	-2
454.615	1	8
454.785	1	-8
454.956	1	0
455.126	1	0
455.297	1	1
455.467	1	-2
455.638	1	10
455.808	1	-2
455.979	1	-5
456.149	1	7
456.320	1	6
456.490	1	-4
456.661	1	-10
456.831	1	2
457.001	1	2
457.172	1	4
457.342	1	-2
457.513	1	8
457.683	1	3
457.854	1	5
458.024	1	-10
458.195	1	-8
458.365	1	9
458.536	1	-15
458.706	1	8
458.877	1	0
459.047	1	21
459.218	1	0
459.388	1	19
459.559	1	-1
459.729	1	-3
459.899	1	-11
460.070	1	2
460.240	1	4
460.411	1	-1
460.581	1	11
460.752	1	4
460.922	1	12
461.093	1	0
461.263	1	-8
461.434	1	8
461.604	1	4
461.775	1	-3
461.945	1	-10
462.115	1	7
462.286	1	-11
462.456	1	10
462.627	1	12
462.797	1	-13
462.968	1	-15
463.138	1	-3
463.309	1	3
463.479	1	-2
463.649	1	-5
463.820	1	4
463.990	1	8
464.161	1	-2
464.331	1	5
464.502	1	6
464.672	1	-9
464.843	1	-12
465.013	1	-8
465.183	1	-1
465.354	1	7
465.524	1	-10
465.695	1	8
465.865	1	0
466.036	1	9
466.206	1	1
466.376	1	-5
466.547	1	-6
466.717	1	8
466.888	1	-7
467.058	1	13
467.229	1	7
467.399	1	-3
467.569	1	10
467.740	1	10
467.910	1	-1
468.081	1	-2
468.251	1	9
468.422	1	-2
468.592	1	1
468.762	1	-12
468.933	1	3
469.103	1	0
469.274	1	8
469.444	1	10
469.614	1	9
469.785	1	9
469.955	1	0
470.126	1	3
470.296	1	4
470.467	1	-6
470.637	1	1
470.807	1	8
470.978	1	1
471.148	1	-2
471.319	1	6
471.489	1	-6
471.659	1	2
471.830	1	4
472.000	1	-5
472.171	1	-6
472.341	1	-2
472.511	1	10
472.682	1	-3
472.852	1	-1
473.023	1	0
473.193	1	8
473.363	1	-4
473.534	1	-5
473.704	1	-3
473.875	1	-4
474.045	1	4
474.215	1	9
474.386	1	2
474.556	1	0
474.727	1	-10
474.897	1	3
475.067	1	-7
475.238	1	-6
475.408	1	-7
475.578	1	7
475.749	1	5
475.919	1	-2
476.090	1	4
476.260	1	-5
476.430	1	5
476.601	1	3
476.771	1	10
476.942	1	9
477.112	1	-1
477.282	1	1
477.453	1	0
477.623	1	4
477.793	1	3
477.964	1	0
478.134	1	0
478.305	1	10
478.475	1	0
478.645	1	0
478.816	1	-1
478.986	1	-2
479.156	1	-6
479.327	1	3
479.497	1	3
479.667	1	15
479.838	1	-6
480.008	1	-2
480.179	1	-8
480.349	1	10
480.519	1	-1
480.690	1	-4
480.860	1	8
481.030	1	5
481.201	1	-4
481.371	1	7
481.541	1	2
481.712	1	8
481.882	1	-13
482.053	1	4
482.223	1	-1
482.393	1	-1
482.564	1	5
482.734	1	-5
482.904	1	0
483.075	1	-6
483.245	1	7
483.415	1	-6
483.586	1	-2
483.756	1	-8
483.926	1	-3
484.097	1	4
484.267	1	-9
484.437	1	4
484.608	1	7
484.778	1	2
484.948	1	3
485.119	1	-6
485.289	1	-4
485.459	1	3
485.630	1	5
485.800	1	3
485.970	1	3
486.141	1	-4
486.311	1	-1
486.481	1	-2
486.652	1	1
486.822	1	-11
486.992	1	4
487.163	1	0
487.333	1	-5
487.503	1	7
487.674	1	0
487.844	1	-6
488.014	1	-2
488.185	1	2
488.355	1	11
488.525	1	4
488.696	1	3
488.866	1	-13
489.036	1	3
489.207	1	-9
489.377	1	-5
489.547	1	-3
489.718	1	9
489.888	1	2
490.058	1	9
490.228	1	-3
490.399	1	7
490.569	1	-2
490.739	1	2
490.910	1	-8
491.080	1	-3
491.250	1	6
491.421	1	6
491.591	1	-5
491.761	1	-7
491.932	1	5
492.102	1	-4
492.272	1	-5
492.442	1	-5
492.613	1	5
492.783	1	6
492.953	1	3
493.124	1	-1
493.294	1	3
493.464	1	6
493.635	1	-6
493.805	1	1
493.975	1	5
494.145	1	6
494.316	1	-4
494.486	1	8
494.656	1	-4
494.827	1	7
494.997	1	2
495.167	1	-4
495.337	1	-4
495.508	1	5
495.678	1	-3
495.848	1	-1
496.019	1	-3
496.189	1	11
496.359	1	-6
496.529	1	3
496.700	1	4
496.870	1	9
497.040	1	4
497.211	1	-2
497.381	1	8
497.551	1	-6
497.721	1	-12
497.892	1	15
498.062	1	1
498.232	1	13
498.403	1	-6
498.573	1	2
498.743	1	9
498.913	1	7
499.084	1	-4
499.254	1	-12
499.424	1	-7
499.594	1	-1
499.765	1	6
499.935	1	-1
500.105	1	17
500.275	1	-9
500.446	1	2
500.616	1	-1
500.786	1	-1
500.956	1	-7
501.127	1	8
501.297	1	4
501.467	1	7
501.638	1	12
501.808	1	5
501.978	1	6
502.148	1	-3
502.319	1	7
502.489	1	-6
502.659	1	12
502.829	1	4
503.000	1	-2
503.170	1	-2
503.340	1	6
503.510	1	-4
503.681	1	-15
503.851	1	3
504.021	1	6
504.191	1	4
504.362	1	4
504.532	1	6
504.702	1	-6
504.872	1	-10
505.042	1	-2
505.213	1	8
505.383	1	-6
505.553	1	-7
505.723	1	-1
505.894	1	-13
506.064	1	5
506.234	1	-1
506.404	1	7
506.575	1	-7
506.745	1	9
506.915	1	1
507.085	1	-8
507.256	1	2
507.426	1	-2
507.596	1	-7
507.766	1	7
507.936	1	7
508.107	1	9
508.277	1	-8
508.447	1	-4
508.617	1	0
508.788	1	7
508.958	1	9
509.128	1	-10
509.298	1	5
509.468	1	5
509.639	1	-3
509.809	1	9
509.979	1	6
510.149	1	11
510.319	1	-9
510.490	1	0
510.660	1	2
510.830	1	-3
511.000	1	-4
511.171	1	2
511.341	1	12
511.511	1	3
511.681	1	4
511.851	1	8
512.022	1	-12
512.192	1	2
512.362	1	-1
512.532	1	-6
512.702	1	-5
512.873	1	9
513.043	1	11
513.213	1	13
513.383	1	-1
513.553	1	7
513.724	1	-6
513.894	1	1
514.064	1	2
514.234	1	7
514.404	1	6
514.575	1	-4
514.745	1	1
514.915	1	-16
515.085	1	3
515.255	1	-9
515.425	1	4
515.596	1	6
515.766	1	5
515.936	1	-1
516.106	1	4
516.276	1	8
516.447	1	2
516.617	1	2
516.787	1	-2
516.957	1	7
517.127	1	1
517.297	1	-4
517.468	1	-13
517.638	1	-8
517.808	1	6
517.978	1	13
518.148	1	-3
518.319	1	2
518.489	1	0
518.659	1	-4
518.829	1	-1
518.999	1	4
519.169	1	-10
519.340	1	14
519.510	1	0
519.680	1	0
519.850	1	-10
520.020	1	-7
520.190	1	4
520.361	1	-2
520.531	1	5
520.701	1	2
520.871	1	-6
521.041	1	4
521.211	1	3
521.382	1	-6
521.552	1	-6
521.722	1	9
521.892	1	7
522.062	1	2
522.232	1	16
522.402	1	4
522.573	1	-5
522.743	1	-4
522.913	1	-4
523.083	1	8
523.253	1	12
523.423	1	-5
523.593	1	-1
523.764	1	7
523.934	1	5
524.104	1	-2
524.274	1	11
524.444	1	-2
524.614	1	6
524.784	1	-11
524.955	1	10
525.125	1	3
525.295	1	2
525.465	1	2
525.635	1	7
525.805	1	1
525.975	1	-12
526.146	1	-3
526.316	1	-7
526.486	1	-1
526.656	1	4
526.826	1	6
526.996	1	4
527.166	1	-9
527.337	1	-5
527.507	1	0
527.677	1	10
527.847	1	0
528.017	1	-1
528.187	1	6
528.357	1	2
528.527	1	-2
528.698	1	-13
528.868	1	2
529.038	1	-2
529.208	1	-10
529.378	1	4
529.548	1	5
529.718	1	1
529.888	1	12
530.058	1	0
530.229	1	-2
530.399	1	-4
530.569	1	-7
530.739	1	-6
530.909	1	-8
531.079	1	-21
531.249	1	-2
531.419	1	1
531.589	1	4
531.760	1	0
531.930	1	8
532.100	1	1
532.270	1	6
532.440	1	-2
532.610	1	2
532.780	1	5
532.950	1	1
533.120	1	18
533.290	1	-6
533.461	1	-8
533.631	1	0
533.801	1	-6
533.971	1	1
534.141	1	4
534.311	1	3
534.481	1	6
534.651	1	-3
534.821	1	-12
534.991	1	-5
535.162	1	-14
535.332	1	6
535.502	1	-3
535.672	1	-10
535.842	1	-9
536.012	1	1
536.182	1	10
536.352	1	-6
536.522	1	-11
536.692	1	4
536.862	1	2
537.032	1	-1
537.203	1	5
537.373	1	0
537.543	1	-13
537.713	1	-1
537.883	1	-1
538.053	1	-4
538.223	1	0
538.393	1	0
538.563	1	5
538.733	1	11
538.903	1	1
539.073	1	4
539.243	1	1
539.413	1	-3
539.584	1	0
539.754	1	8
539.924	1	6
540.094	1	-2
540.264	1	-23
540.434	1	1
540.604	1	-1
540.774	1	4
540.944	1	-4
541.114	1	-3
541.284	1	-5
541.454	1	-4
541.624	1	6
541.794	1	-5
541.964	1	-9
542.134	1	2
542.305	1	3
542.475	1	-1
542.645	1	15
542.815	1	-17
542.985	1	0
543.155	1	-17
543.325	1	12
543.495	1	7
543.665	1	3
543.835	1	-10
544.005	1	0
544.175	1	-4
544.345	1	5
544.515	1	2
544.685	1	14
544.855	1	8
545.025	1	1
545.195	1	-6
545.365	1	2
545.535	1	-5
545.705	1	13
545.875	1	-1
546.045	1	2
546.216	1	-13
546.386	1	12
546.556	1	-2
546.726	1	-1
546.896	1	0
547.066	1	6
547.236	1	3
547.406	1	-2
547.576	1	1
547.746	1	8
547.916	1	0
548.086	1	-3
548.256	1	-3
548.426	1	0
548.596	1	1
548.766	1	6
548.936	1	4
549.106	1	3
549.276	1	12
549.446	1	-1
549.616	1	1
549.786	1	-6
549.956	1	2
550.126	1	-7
550.296	1	6
550.466	1	2
550.636	1	11
550.806	1	6
550.976	1	1
551.146	1	-8
551.316	1	0
551.486	1	-3
551.656	1	-1
551.826	1	11
551.996	1	3
552.166	1	5
552.336	1	-3
552.506	1	5
552.676	1	4
552.846	1	-2
553.016	1	13
553.186	1	-1
553.356	1	-4
553.526	1	-2
553.696	1	10
553.866	1	7
554.036	1	2
554.206	1	-3
554.376	1	0
554.546	1	1
554.716	1	-5
554.886	1	6
555.056	1	-7
555.226	1	7
555.396	1	1
555.566	1	4
555.736	1	11
555.906	1	3
556.076	1	2
556.246	1	-2
556.416	1	-15
556.586	1	-6
556.756	1	-1
556.926	1	-4
557.096	1	3
557.266	1	-2
557.436	1	10
557.606	1	2
557.776	1	9
557.946	1	-6
558.116	1	3
558.286	1	3
558.456	1	0
558.626	1	-13
558.796	1	3
558.966	1	-2
559.136	1	-3
559.306	1	-7
559.476	1	10
559.646	1	-2
559.816	1	-3
559.986	1	1
560.155	1	0
560.325	1	-4
560.495	1	-1
560.665	1	-4
560.835	1	5
561.005	1	1
561.175	1	-4
561.345	1	-4
561.515	1	-3
561.685	1	1
561.855	1	4
562.025	1	2
562.195	1	1
562.365	1	1
562.535	1	4
562.705	1	-4
562.875	1	-11
563.045	1	-3
563.215	1	8
563.385	1	-7
563.555	1	-9
563.725	1	3
563.895	1	5
564.064	1	-9
564.234	1	10
564.404	1	0
564.574	1	9
564.744	1	-1
564.914	1	2
565.084	1	-8
565.254	1	13
565.424	1	8
565.594	1	8
565.764	1	-5
565.934	1	13
566.104	1	6
566.274	1	-1
566.444	1	0
566.614	1	3
566.783	1	-2
566.953	1	1
567.123	1	-1
567.293	1	-1
567.463	1	-5
567.633	1	9
567.803	1	16
567.973	1	6
568.143	1	0
568.313	1	3
568.483	1	0
568.653	1	-12
568.823	1	-9
568.993	1	-2
569.162	1	-2
569.332	1	5
569.502	1	11
569.672	1	-3
569.842	1	-5
570.012	1	-7
570.182	1	-3
570.352	1	5
570.522	1	-4
570.692	1	1
570.862	1	2
571.031	1	4
571.201	1	2
571.371	1	3
571.541	1	-3
571.711	1	2
571.881	1	7
572.051	1	-4
572.221	1	3
572.391	1	8
572.561	1	3
572.731	1	1
572.900	1	-9
573.070	1	0
573.240	1	-10
573.410	1	0
573.580	1	-11
573.750	1	12
573.920	1	4
574.090	1	8
574.260	1	-2
574.430	1	0
574.599	1	2
574.769	1	-10
574.939	1	-2
575.109	1	-3
575.279	1	2
575.449	1	7
575.619	1	8
575.789	1	6
575.959	1	3
576.128	1	-7
576.298	1	1
576.468	1	-2
576.638	1	-5
576.808	1	1
576.978	1	-8
577.148	1	1
577.318	1	12
577.487	1	-1
577.657	1	7
577.827	1	-2
577.997	1	7
578.167	1	-4
578.337	1	-1
578.507	1	-1
578.677	1	-1
578.846	1	10
579.016	1	-1
579.186	1	3
579.356	1	7
579.526	1	-4
579.696	1	9
579.866	1	-4
580.036	1	6
580.205	1	-7
580.375	1	7
580.545	1	-1
580.715	1	1
580.885	1	5
581.055	1	-3
581.225	1	3
581.394	1	4
581.564	1	3
581.734	1	-4
581.904	1	1
582.074	1	-8
582.244	1	-2
582.414	1	-5
582.583	1	2
582.753	1	5
582.923	1	-1
583.093	1	4
583.263	1	4
583.433	1	-2
583.603	1	-10
583.772	1	-18
583.942	1	-1
584.112	1	-8
584.282	1	2
584.452	1	-1
584.622	1	4
584.791	1	-2
584.961	1	-6
585.131	1	7
585.301	1	-7
585.471	1	-7
585.641	1	-10
585.811	1	-3
585.980	1	0
586.150	1	-3
586.320	1	-2
586.490	1	9
586.660	1	5
586.830	1	-4
586.999	1	3
587.169	1	8
587.339	1	5
587.509	1	-4
587.679	1	0
587.849	1	5
588.018	1	-7
588.188	1	7
588.358	1	-4
588.528	1	-3
588.698	1	-8
588.867	1	2
589.037	1	2
589.207	1	3
589.377	1	-2
589.547	1	13
589.717	1	-4
589.886	1	-6
590.056	1	4
590.226	1	-4
590.396	1	-4
590.566	1	-11
590.735	1	-6
590.905	1	11
591.075	1	1
591.245	1	4
591.415	1	5
591.585	1	8
591.754	1	-6
591.924	1	4
592.094	1	-6
592.264	1	-5
592.434	1	-5
592.603	1	-7
592.773	1	1
592.943	1	5
593.113	1	-6
593.283	1	-5
593.452	1	-6
593.622	1	13
593.792	1	9
593.962	1	3
594.132	1	7
594.301	1	5
594.471	1	-10
594.641	1	-9
594.811	1	-8
594.981	1	-7
595.150	1	0
595.320	1	-6
595.490	1	5
595.660	1	-6
595.829	1	-6
595.999	1	-3
596.169	1	11
596.339	1	7
596.509	1	-5
596.678	1	4
596.848	1	10
597.018	1	1
597.188	1	-11
597.358	1	-6
597.527	1	-1
597.697	1	0
597.867	1	1
598.037	1	-4
598.206	1	9
598.376	1	-5
598.546	1	4
598.716	1	-10
598.885	1	-3
599.055	1	2
599.225	1	-1
599.395	1	2
599.565	1	-6
599.734	1	4
599.904	1	-12
600.074	1	6
600.244	1	-2
600.413	1	0
600.583	1	-1
600.753	1	6
600.923	1	3
601.092	1	5
601.262	1	0
601.432	1	2
601.602	1	7
601.771	1	-3
601.941	1	6
602.111	1	11
602.281	1	4
602.451	1	-2
602.620	1	-1
602.790	1	-5
602.960	1	-15
603.130	1	-9
603.299	1	4
603.469	1	0
603.639	1	-12
603.809	1	0
603.978	1	-1
604.148	1	0
604.318	1	4
604.487	1	-4
604.657	1	-7
604.827	1	0
604.997	1	5
605.166	1	1
605.336	1	-1
605.506	1	-2
605.676	1	7
605.845	1	1
606.015	1	-13
606.185	1	-3
606.355	1	-10
606.524	1	0
606.694	1	5
606.864	1	1
607.034	1	6
607.203	1	18
607.373	1	0
607.543	1	6
607.712	1	-8
607.882	1	-2
608.052	1	5
608.222	1	6
608.391	1	1
608.561	1	-2
608.731	1	3
608.901	1	7
609.070	1	-9
609.240	1	-4
609.410	1	1
609.579	1	-4
609.749	1	1
609.919	1	-12
610.089	1	-3
610.258	1	1
610.428	1	11
610.598	1	0
610.767	1	-1
610.937	1	4
611.107	1	6
611.277	1	1
611.446	1	-2
611.616	1	2
611.786	1	2
611.955	1	1
612.125	1	5
612.295	1	-4
612.465	1	-3
612.634	1	1
612.804	1	11
612.974	1	-5
613.143	1	3
613.313	1	9
613.483	1	12
613.652	1	3
613.822	1	8
613.992	1	-5
614.162	1	1
614.331	1	0
614.501	1	-4
614.671	1	6
614.840	1	0
615.010	1	0
615.180	1	1
615.349	1	12
615.519	1	3
615.689	1	-11
615.858	1	6
616.028	1	6
616.198	1	-6
616.368	1	-3
616.537	1	-4
616.707	1	-3
616.877	1	-5
617.046	1	6
617.216	1	8
617.386	1	12
617.555	1	5
617.725	1	-2
617.895	1	4
618.064	1	1
618.234	1	-2
618.404	1	-3
618.573	1	8
618.743	1	5
618.913	1	9
619.082	1	1
619.252	1	-1
619.422	1	-9
619.591	1	1
619.761	1	-8
619.931	1	1
620.100	1	14
620.270	1	3
620.440	1	10
620.609	1	10
620.779	1	11
620.949	1	-1
621.118	1	8
621.288	1	1
621.458	1	4
621.627	1	1
621.797	1	-8
621.967	1	5
622.136	1	0
622.306	1	-4
622.476	1	-13
622.645	1	-4
622.815	1	3
622.985	1	5
623.154	1	3
623.324	1	2
623.494	1	-9
623.663	1	0
623.833	1	-10
624.002	1	-1
624.172	1	-5
624.342	1	1
624.511	1	5
624.681	1	1
624.851	1	1
625.020	1	3
625.190	1	-1
625.360	1	-13
625.529	1	-8
625.699	1	-7
625.869	1	5
626.038	1	4
626.208	1	13
626.377	1	1
626.547	1	-4
626.717	1	-8
626.886	1	-4
627.056	1	0
627.226	1	11
627.395	1	-3
627.565	1	9
627.735	1	0
627.904	1	12
628.074	1	4
628.243	1	4
628.413	1	-5
628.583	1	2
628.752	1	-6
628.922	1	-5
629.091	1	-3
629.261	1	5
629.431	1	16
629.600	1	3
629.770	1	7
629.940	1	-11
630.109	1	3
630.279	1	-2
630.448	1	3
630.618	1	5
630.788	1	1
630.957	1	2
631.127	1	-4
631.297	1	-6
631.466	1	1
631.636	1	6
631.805	1	-4
631.975	1	-4
632.145	1	10
632.314	1	-1
632.484	1	13
632.653	1	5
632.823	1	-1
632.993	1	5
633.162	1	0
633.332	1	-3
633.501	1	-10
633.671	1	-2
633.841	1	0
634.010	1	10
634.180	1	4
634.349	1	0
634.519	1	2
634.689	1	-2
634.858	1	-17
635.028	1	-8
635.197	1	-10
635.367	1	5
635.537	1	-5
635.706	1	7
635.876	1	11
636.045	1	6
636.215	1	9
636.384	1	0
636.554	1	-7
636.724	1	2
636.893	1	-2
637.063	1	1
637.232	1	5
637.402	1	-6
637.572	1	2
637.741	1	4
637.911	1	0
638.080	1	0
638.250	1	-3
638.419	1	-1
638.589	1	6
638.759	1	3
638.928	1	-2
639.098	1	-1
639.267	1	3
639.437	1	-2
639.606	1	11
639.776	1	2
639.946	1	9
640.115	1	-4
640.285	1	1
640.454	1	0
640.624	1	10
640.793	1	4
640.963	1	0
641.132	1	3
641.302	1	2
641.472	1	1
641.641	1	6
641.811	1	-3
641.980	1	6
642.150	1	-8
642.319	1	15
642.489	1	-10
642.659	1	7
642.828	1	3
642.998	1	-4
643.167	1	-6
643.337	1	-3
643.506	1	1
643.676	1	-4
643.845	1	3
644.015	1	3
644.184	1	-4
644.354	1	3
644.524	1	4
644.693	1	0
644.863	1	7
645.032	1	-2
645.202	1	-5
645.371	1	-8
645.541	1	0
645.710	1	-7
645.880	1	2
646.049	1	3
646.219	1	5
646.388	1	1
646.558	1	5
646.728	1	-2
646.897	1	1
647.067	1	1
647.236	1	8
647.406	1	5
647.575	1	8
647.745	1	6
647.914	1	3
648.084	1	4
648.253	1	-5
648.423	1	3
648.592	1	-12
648.762	1	5
648.931	1	9
649.101	1	7
649.270	1	-2
649.440	1	-1
649.610	1	3
649.779	1	1
649.949	1	0
650.118	1	-7
650.288	1	8
650.457	1	1
650.627	1	-5
650.796	1	-1
650.966	1	-9
651.135	1	1
651.305	1	-5
651.474	1	4
651.644	1	8
651.813	1	13
651.983	1	-2
652.152	1	9
652.322	1	2
652.491	1	0
652.661	1	-2
652.830	1	-1
653.000	1	-3
653.169	1	4
653.339	1	7
653.508	1	-2
653.678	1	-2
653.847	1	-8
654.017	1	-2
654.186	1	-4
654.356	1	1
654.525	1	-5
654.695	1	2
654.864	1	-9
655.034	1	1
655.203	1	2
655.373	1	10
655.542	1	7
655.712	1	7
655.881	1	7
656.051	1	1
656.220	1	8
656.390	1	4
656.559	1	-12
656.729	1	-10
656.898	1	2
657.068	1	5
657.237	1	9
657.406	1	6
657.576	1	1
657.745	1	1
657.915	1	-7
658.084	1	1
658.254	1	2
658.423	1	0
658.593	1	-2
658.762	1	-3
658.932	1	-8
659.101	1	-7
659.271	1	5
659.440	1	9
659.610	1	-6
659.779	1	6
659.949	1	7
660.118	1	11
660.288	1	-2
660.457	1	9
660.626	1	9
660.796	1	-7
660.965	1	-7
661.135	1	-2
661.304	1	5
661.474	1	-3
661.643	1	-4
661.813	1	4
661.982	1	8
662.152	1	6
662.321	1	-8
662.491	1	-4
662.660	1	-3
662.829	1	6
662.999	1	-3
663.168	1	8
663.338	1	6
663.507	1	-3
663.677	1	-3
663.846	1	-1
664.016	1	1
664.185	1	3
664.354	1	1
664.524	1	-5
664.693	1	7
664.863	1	-2
665.032	1	-4
665.202	1	-2
665.371	1	-2
665.541	1	12
665.710	1	0
665.879	1	5
666.049	1	-13
666.218	1	-3
666.388	1	-1
666.557	1	15
666.727	1	0
666.896	1	2
667.065	1	4
667.235	1	24
667.404	1	-10
667.574	1	1
667.743	1	-6
667.913	1	12
668.082	1	0
668.251	1	5
668.421	1	3
668.590	1	3
668.760	1	7
668.929	1	6
669.099	1	-5
669.268	1	-2
669.437	1	1
669.607	1	1
669.776	1	8
669.946	1	-1
670.115	1	-17
670.285	1	7
670.454	1	2
670.623	1	0
670.793	1	4
670.962	1	3
671.132	1	2
671.301	1	-2
671.470	1	-4
671.640	1	2
671.809	1	6
671.979	1	-1
672.148	1	-1
672.317	1	-7
672.487	1	-7
672.656	1	-5
672.826	1	2
672.995	1	6
673.164	1	-16
673.334	1	1
673.503	1	-7
673.673	1	-3
673.842	1	4
674.011	1	7
674.181	1	10
674.350	1	3
674.520	1	6
674.689	1	3
674.858	1	-4
675.028	1	7
675.197	1	4
675.367	1	5
675.536	1	-2
675.705	1	1
675.875	1	0
676.044	1	-5
676.214	1	4
676.383	1	7
676.552	1	6
676.722	1	-6
676.891	1	-1
677.060	1	-4
677.230	1	7
677.399	1	-12
677.569	1	3
677.738	1	11
677.907	1	-6
678.077	1	9
678.246	1	7
678.416	1	6
678.585	1	-12
678.754	1	1
678.924	1	15
679.093	1	6
679.262	1	-1
679.432	1	5
679.601	1	3
679.771	1	4
679.940	1	0
680.109	1	2
680.279	1	6
680.448	1	6
680.617	1	-7
680.787	1	-6
680.956	1	-2
681.125	1	5
681.295	1	2
681.464	1	-4
681.634	1	14
681.803	1	-5
681.972	1	-1
682.142	1	-9
682.311	1	6
682.480	1	3
682.650	1	8
682.819	1	-5
682.988	1	-2
683.158	1	-5
683.327	1	13
683.496	1	-2
683.666	1	0
683.835	1	0
684.004	1	10
684.174	1	-3
684.343	1	6
684.512	1	4
684.682	1	-3
684.851	1	2
685.021	1	-13
685.190	1	2
685.359	1	-15
685.529	1	12
685.698	1	2
685.867	1	2
686.037	1	1
686.206	1	0
686.375	1	5
686.545	1	15
686.714	1	-4
686.883	1	1
687.053	1	0
687.222	1	-10
687.391	1	-2
687.561	1	4
687.730	1	3
687.899	1	-4
688.069	1	3
688.238	1	-9
688.407	1	5
688.577	1	-1
688.746	1	0
