340.368	1	3
340.539	1	7
340.710	1	3
340.881	1	-5
341.052	1	-5
341.223	1	11
341.394	1	-6
341.565	1	2
341.737	1	-7
341.908	1	-11
342.079	1	-8
342.250	1	-2
342.421	1	2
342.592	1	4
342.763	1	2
342.934	1	6
343.105	1	7
343.276	1	-7
343.447	1	-14
343.618	1	-2
343.789	1	3
343.960	1	-2
344.131	1	7
344.302	1	-13
344.473	1	-2
344.644	1	1
344.815	1	-3
344.986	1	0
345.157	1	2
345.328	1	-11
345.499	1	1
345.670	1	-3
345.841	1	-9
346.012	1	9
346.183	1	8
346.354	1	10
346.526	1	-3
346.697	1	4
346.868	1	-7
347.039	1	-10
347.210	1	0
347.381	1	-1
347.552	1	4
347.723	1	-4
347.894	1	-9
348.065	1	5
348.236	1	6
348.407	1	1
348.578	1	-1
348.749	1	-7
348.920	1	4
349.091	1	6
349.262	1	-7
349.433	1	-8
349.604	1	8
349.775	1	5
349.946	1	-12
350.117	1	6
350.288	1	4
350.459	1	1
350.630	1	5
350.801	1	4
350.972	1	14
351.143	1	11
351.314	1	3
351.485	1	8
351.656	1	6
351.827	1	7
351.998	1	5
352.169	1	-3
352.340	1	3
352.511	1	1
352.682	1	1
352.853	1	2
353.024	1	-6
353.195	1	-1
353.366	1	-2
353.537	1	13
353.708	1	3
353.879	1	-3
354.050	1	8
354.221	1	-2
354.392	1	7
354.563	1	12
354.734	1	8
354.905	1	13
355.076	1	6
355.247	1	7
355.418	1	1
355.589	1	-6
355.760	1	9
355.931	1	6
356.102	1	-9
356.273	1	-7
356.444	1	7
356.615	1	0
356.785	1	10
356.956	1	-6
357.127	1	11
357.298	1	6
357.469	1	10
357.640	1	3
357.811	1	-7
357.982	1	6
358.153	1	2
358.324	1	10
358.495	1	5
358.666	1	0
358.837	1	9
359.008	1	5
359.179	1	13
359.350	1	2
359.521	1	13
359.692	1	9
359.863	1	10
360.034	1	17
360.205	1	3
360.376	1	0
360.547	1	13
360.718	1	10
360.889	1	9
361.060	1	4
361.231	1	3
361.401	1	7
361.572	1	4
361.743	1	21
361.914	1	11
362.085	1	25
362.256	1	6
362.427	1	-3
362.598	1	2
362.769	1	11
362.940	1	7
363.111	1	14
363.282	1	9
363.453	1	10
363.624	1	17
363.795	1	14
363.966	1	24
364.137	1	22
364.308	1	29
364.478	1	30
364.649	1	18
364.820	1	23
364.991	1	32
365.162	1	11
365.333	1	20
365.504	1	17
365.675	1	26
365.846	1	27
366.017	1	18
366.188	1	32
366.359	1	35
366.530	1	26
366.701	1	34
366.871	1	33
367.042	1	36
367.213	1	30
367.384	1	24
367.555	1	33
367.726	1	35
367.897	1	37
368.068	1	43
368.239	1	25
368.410	1	19
368.581	1	34
368.752	1	30
368.923	1	20
369.093	1	30
369.264	1	25
369.435	1	17
369.606	1	27
369.777	1	29
369.948	1	18
370.119	1	29
370.290	1	24
370.461	1	12
370.632	1	19
370.803	1	29
370.973	1	7
371.144	1	20
371.315	1	1
371.486	1	26
371.657	1	12
371.828	1	28
371.999	1	9
372.170	1	10
372.341	1	21
372.512	1	7
372.682	1	16
372.853	1	9
373.024	1	18
373.195	1	12
373.366	1	4
373.537	1	19
373.708	1	9
373.879	1	3
374.050	1	4
374.220	1	17
374.391	1	11
374.562	1	8
374.733	1	8
374.904	1	21
375.075	1	9
375.246	1	-8
375.417	1	19
375.588	1	12
375.758	1	4
375.929	1	9
376.100	1	19
376.271	1	13
376.442	1	0
376.613	1	3
376.784	1	17
376.955	1	7
377.125	1	8
377.296	1	4
377.467	1	7
377.638	1	5
377.809	1	13
377.980	1	14
378.151	1	11
378.321	1	13
378.492	1	12
378.663	1	15
378.834	1	16
379.005	1	3
379.176	1	3
379.347	1	2
379.518	1	11
379.688	1	7
379.859	1	8
380.030	1	16
380.201	1	18
380.372	1	11
380.543	1	11
380.714	1	2
380.884	1	15
381.055	1	8
381.226	1	14
381.397	1	9
381.568	1	11
381.739	1	2
381.910	1	9
382.080	1	7
382.251	1	8
382.422	1	5
382.593	1	12
382.764	1	10
382.935	1	12
383.105	1	7
383.276	1	11
383.447	1	10
383.618	1	12
383.789	1	10
383.960	1	9
384.130	1	9
384.301	1	11
384.472	1	17
384.643	1	6
384.814	1	14
384.985	1	3
385.156	1	28
385.326	1	16
385.497	1	10
385.668	1	8
385.839	1	13
386.010	1	19
386.180	1	18
386.351	1	12
386.522	1	5
386.693	1	7
386.864	1	28
387.035	1	19
387.205	1	20
387.376	1	26
387.547	1	28
387.718	1	15
387.889	1	14
388.060	1	16
388.230	1	18
388.401	1	12
388.572	1	12
388.743	1	15
388.914	1	15
389.084	1	12
389.255	1	5
389.426	1	16
389.597	1	15
389.768	1	18
389.939	1	18
390.109	1	10
390.280	1	3
390.451	1	15
390.622	1	21
390.793	1	17
390.963	1	11
391.134	1	7
391.305	1	11
391.476	1	16
391.647	1	10
391.817	1	14
391.988	1	3
392.159	1	25
392.330	1	17
392.501	1	20
392.671	1	9
392.842	1	10
393.013	1	20
393.184	1	13
393.355	1	6
393.525	1	3
393.696	1	14
393.867	1	26
394.038	1	10
394.208	1	5
394.379	1	7
394.550	1	14
394.721	1	4
394.892	1	10
395.062	1	9
395.233	1	2
395.404	1	18
395.575	1	10
395.746	1	11
395.916	1	4
396.087	1	10
396.258	1	19
396.429	1	4
396.599	1	20
396.770	1	13
396.941	1	17
397.112	1	3
397.283	1	3
397.453	1	16
397.624	1	9
397.795	1	12
397.966	1	16
398.136	1	10
398.307	1	4
398.478	1	8
398.649	1	10
398.819	1	13
398.990	1	9
399.161	1	13
399.332	1	14
399.503	1	20
399.673	1	-3
399.844	1	5
400.015	1	13
400.186	1	15
400.356	1	17
400.527	1	21
400.698	1	5
400.869	1	3
401.039	1	3
401.210	1	23
401.381	1	2
401.552	1	7
401.722	1	24
401.893	1	9
402.064	1	10
402.235	1	-5
402.405	1	8
402.576	1	8
402.747	1	0
402.918	1	14
403.088	1	8
403.259	1	5
403.430	1	15
403.601	1	5
403.771	1	17
403.942	1	12
404.113	1	13
404.284	1	5
404.454	1	5
404.625	1	14
404.796	1	9
404.967	1	6
405.137	1	6
405.308	1	21
405.479	1	12
405.649	1	7
405.820	1	8
405.991	1	1
406.162	1	17
406.332	1	-5
406.503	1	8
406.674	1	3
406.845	1	6
407.015	1	3
407.186	1	5
407.357	1	9
407.527	1	8
407.698	1	4
407.869	1	8
408.040	1	9
408.210	1	15
408.381	1	1
408.552	1	-5
408.722	1	4
408.893	1	7
409.064	1	9
409.235	1	3
409.405	1	20
409.576	1	5
409.747	1	12
409.917	1	4
410.088	1	4
410.259	1	6
410.430	1	0
410.600	1	4
410.771	1	6
410.942	1	0
411.112	1	7
411.283	1	9
411.454	1	4
411.625	1	11
411.795	1	5
411.966	1	15
412.137	1	11
412.307	1	11
412.478	1	4
412.649	1	4
412.819	1	10
412.990	1	-3
413.161	1	0
413.332	1	9
413.502	1	4
413.673	1	11
413.844	1	22
414.014	1	-1
414.185	1	10
414.356	1	5
414.526	1	1
414.697	1	14
414.868	1	-2
415.038	1	7
415.209	1	2
415.380	1	14
415.550	1	7
415.721	1	3
415.892	1	0
416.063	1	7
416.233	1	4
416.404	1	6
416.575	1	3
416.745	1	0
416.916	1	0
417.087	1	2
417.257	1	12
417.428	1	6
417.599	1	14
417.769	1	8
417.940	1	0
418.111	1	-3
418.281	1	-2
418.452	1	7
418.623	1	-2
418.793	1	3
418.964	1	8
419.135	1	9
419.305	1	1
419.476	1	10
419.647	1	8
419.817	1	8
419.988	1	-5
420.159	1	5
420.329	1	5
420.500	1	12
420.671	1	-4
420.841	1	8
421.012	1	0
421.183	1	8
421.353	1	6
421.524	1	7
421.695	1	6
421.865	1	8
422.036	1	4
422.206	1	8
422.377	1	-6
422.548	1	8
422.718	1	1
422.889	1	-2
423.060	1	5
423.230	1	6
423.401	1	5
423.572	1	20
423.742	1	-2
423.913	1	6
424.084	1	6
424.254	1	-2
424.425	1	-2
424.595	1	-2
424.766	1	8
424.937	1	4
425.107	1	5
425.278	1	12
425.449	1	3
425.619	1	13
425.790	1	3
425.961	1	12
426.131	1	-7
426.302	1	11
426.472	1	5
426.643	1	-2
426.814	1	2
426.984	1	6
427.155	1	-5
427.326	1	1
427.496	1	-12
427.667	1	12
427.837	1	5
428.008	1	-2
428.179	1	3
428.349	1	-10
428.520	1	4
428.691	1	5
428.861	1	2
429.032	1	9
429.202	1	11
429.373	1	5
429.544	1	7
429.714	1	5
429.885	1	-1
430.055	1	2
430.226	1	11
430.397	1	-6
430.567	1	1
430.738	1	-2
430.909	1	7
431.079	1	-5
431.250	1	-4
431.420	1	3
431.591	1	-1
431.762	1	0
431.932	1	2
432.103	1	8
432.273	1	3
432.444	1	3
432.615	1	-2
432.785	1	0
432.956	1	2
433.126	1	10
433.297	1	5
433.468	1	3
433.638	1	0
433.809	1	7
433.979	1	5
434.150	1	17
434.320	1	0
434.491	1	10
434.662	1	3
434.832	1	0
435.003	1	3
435.173	1	4
435.344	1	-4
435.515	1	6
435.685	1	8
435.856	1	2
436.026	1	4
436.197	1	2
436.368	1	1
436.538	1	1
436.709	1	-3
436.879	1	1
437.050	1	8
437.220	1	-11
437.391	1	8
437.562	1	0
437.732	1	2
437.903	1	-5
438.073	1	-5
438.244	1	-6
438.414	1	5
438.585	1	6
438.756	1	4
438.926	1	-6
439.097	1	7
439.267	1	5
439.438	1	7
439.608	1	5
439.779	1	-7
439.949	1	-8
440.120	1	1
440.291	1	2
440.461	1	7
440.632	1	15
440.802	1	12
440.973	1	8
441.143	1	4
441.314	1	-3
441.485	1	1
441.655	1	2
441.826	1	-11
441.996	1	6
442.167	1	7
442.337	1	2
442.508	1	2
442.678	1	-6
442.849	1	-3
443.019	1	0
443.190	1	10
443.361	1	3
443.531	1	9
443.702	1	-7
443.872	1	13
444.043	1	9
444.213	1	1
444.384	1	4
444.554	1	-3
444.725	1	1
444.895	1	-4
445.066	1	-2
445.237	1	-7
445.407	1	3
445.578	1	-3
445.748	1	-2
445.919	1	3
446.089	1	3
446.260	1	2
446.430	1	-11
446.601	1	9
446.771	1	-15
446.942	1	0
447.112	1	11
447.283	1	-2
447.453	1	-5
447.624	1	-6
447.794	1	15
447.965	1	6
448.135	1	-7
448.306	1	5
448.477	1	11
448.647	1	-3
448.818	1	-6
448.988	1	-14
449.159	1	7
449.329	1	9
449.500	1	1
449.670	1	2
449.841	1	-7
450.011	1	1
450.182	1	-10
450.352	1	5
450.523	1	-2
450.693	1	11
450.864	1	3
451.034	1	8
451.205	1	5
451.375	1	0
451.546	1	-2
451.716	1	9
451.887	1	-4
452.057	1	6
452.228	1	3
452.398	1	6
452.569	1	-6
452.739	1	1
452.910	1	-5
453.080	1	9
453.251	1	7
453.421	1	-5
453.592	1	4
453.762	1	4
453.933	1	-3
454.103	1	3
454.274	1	-1
454.444	1	-3
454.615	1	14
454.785	1	4
454.956	1	10
455.126	1	-7
455.297	1	0
455.467	1	-10
455.638	1	7
455.808	1	-1
455.979	1	1
456.149	1	0
456.320	1	18
456.490	1	3
456.661	1	-14
456.831	1	7
457.001	1	0
457.172	1	7
457.342	1	5
457.513	1	3
457.683	1	2
457.854	1	3
458.024	1	-7
458.195	1	-2
458.365	1	14
458.536	1	-11
458.706	1	7
458.877	1	-2
459.047	1	10
459.218	1	3
459.388	1	11
459.559	1	0
459.729	1	4
459.899	1	-1
460.070	1	-1
460.240	1	-3
460.411	1	-5
460.581	1	4
460.752	1	0
460.922	1	11
461.093	1	-5
461.263	1	5
461.434	1	5
461.604	1	9
461.775	1	4
461.945	1	2
462.115	1	4
462.286	1	-10
462.456	1	12
462.627	1	5
462.797	1	1
462.968	1	-3
463.138	1	4
463.309	1	0
463.479	1	-2
463.649	1	-8
463.820	1	0
463.990	1	3
464.161	1	0
464.331	1	10
464.502	1	6
464.672	1	-7
464.843	1	0
465.013	1	-3
465.183	1	3
465.354	1	0
465.524	1	-4
465.695	1	8
465.865	1	8
466.036	1	6
466.206	1	10
466.376	1	-6
466.547	1	-6
466.717	1	10
466.888	1	-3
467.058	1	6
467.229	1	-3
467.399	1	-4
467.569	1	5
467.740	1	7
467.910	1	3
468.081	1	-2
468.251	1	9
468.422	1	-3
468.592	1	5
468.762	1	-6
468.933	1	11
469.103	1	-6
469.274	1	-2
469.444	1	0
469.614	1	9
469.785	1	5
469.955	1	1
470.126	1	1
470.296	1	2
470.467	1	-8
470.637	1	0
470.807	1	13
470.978	1	2
471.148	1	-1
471.319	1	3
471.489	1	2
471.659	1	3
471.830	1	7
472.000	1	-3
472.171	1	6
472.341	1	-9
472.511	1	12
472.682	1	2
472.852	1	-4
473.023	1	-4
473.193	1	11
473.363	1	4
473.534	1	-4
473.704	1	-1
473.875	1	-4
474.045	1	4
474.215	1	8
474.386	1	14
474.556	1	-1
474.727	1	0
474.897	1	-1
475.067	1	3
475.238	1	-19
475.408	1	4
475.578	1	5
475.749	1	7
475.919	1	2
476.090	1	-1
476.260	1	1
476.430	1	7
476.601	1	11
476.771	1	0
476.942	1	1
477.112	1	5
477.282	1	3
477.453	1	-5
477.623	1	9
477.793	1	1
477.964	1	-2
478.134	1	7
478.305	1	7
478.475	1	-8
478.645	1	-4
478.816	1	1
478.986	1	-2
479.156	1	0
479.327	1	2
479.497	1	5
479.667	1	11
479.838	1	-14
480.008	1	-6
480.179	1	-6
480.349	1	6
480.519	1	7
480.690	1	-5
480.860	1	7
481.030	1	15
481.201	1	-8
481.371	1	6
481.541	1	9
481.712	1	6
481.882	1	-8
482.053	1	4
482.223	1	3
482.393	1	10
482.564	1	-4
482.734	1	10
482.904	1	2
483.075	1	0
483.245	1	13
483.415	1	16
483.586	1	6
483.756	1	4
483.926	1	7
484.097	1	4
484.267	1	2
484.437	1	-1
484.608	1	4
484.778	1	3
484.948	1	-2
485.119	1	0
485.289	1	5
485.459	1	5
485.630	1	-1
485.800	1	4
485.970	1	-1
486.141	1	5
486.311	1	4
486.481	1	6
486.652	1	5
486.822	1	-9
486.992	1	7
487.163	1	8
487.333	1	4
487.503	1	-1
487.674	1	-1
487.844	1	-6
488.014	1	-2
488.185	1	-1
488.355	1	3
488.525	1	1
488.696	1	4
488.866	1	-2
489.036	1	8
489.207	1	-6
489.377	1	-1
489.547	1	-5
489.718	1	-2
489.888	1	2
490.058	1	10
490.228	1	-7
490.399	1	2
490.569	1	7
490.739	1	2
490.910	1	-4
491.080	1	-1
491.250	1	5
491.421	1	8
491.591	1	-9
491.761	1	2
491.932	1	-3
492.102	1	2
492.272	1	3
492.442	1	4
492.613	1	10
492.783	1	-3
492.953	1	0
493.124	1	17
493.294	1	4
493.464	1	6
493.635	1	-2
493.805	1	4
493.975	1	-6
494.145	1	7
494.316	1	4
494.486	1	2
494.656	1	0
494.827	1	6
494.997	1	1
495.167	1	1
495.337	1	4
495.508	1	3
495.678	1	6
495.848	1	-9
496.019	1	0
496.189	1	12
496.359	1	1
496.529	1	3
496.700	1	-4
496.870	1	8
497.040	1	3
497.211	1	1
497.381	1	2
497.551	1	-3
497.721	1	3
497.892	1	5
498.062	1	-3
498.232	1	10
498.403	1	-4
498.573	1	8
498.743	1	5
498.913	1	4
499.084	1	0
499.254	1	-8
499.424	1	6
499.594	1	8
499.765	1	14
499.935	1	0
500.105	1	6
500.275	1	5
500.446	1	9
500.616	1	-4
500.786	1	10
500.956	1	13
501.127	1	9
501.297	1	1
501.467	1	-2
501.638	1	11
501.808	1	6
501.978	1	-3
502.148	1	-5
502.319	1	15
502.489	1	1
502.659	1	15
502.829	1	16
503.000	1	6
503.170	1	2
503.340	1	2
503.510	1	1
503.681	1	-2
503.851	1	5
504.021	1	18
504.191	1	4
504.362	1	5
504.532	1	8
504.702	1	12
504.872	1	-9
505.042	1	-4
505.213	1	1
505.383	1	6
505.553	1	14
505.723	1	7
505.894	1	4
506.064	1	1
506.234	1	12
506.404	1	6
506.575	1	1
506.745	1	13
506.915	1	5
507.085	1	-12
507.256	1	7
507.426	1	5
507.596	1	6
507.766	1	16
507.936	1	5
508.107	1	18
508.277	1	4
508.447	1	2
508.617	1	-1
508.788	1	15
508.958	1	11
509.128	1	15
509.298	1	4
509.468	1	12
509.639	1	3
509.809	1	17
509.979	1	9
510.149	1	12
510.319	1	2
510.490	1	2
510.660	1	4
510.830	1	5
511.000	1	8
511.171	1	4
511.341	1	14
511.511	1	12
511.681	1	14
511.851	1	25
512.022	1	6
512.192	1	3
512.362	1	4
512.532	1	1
512.702	1	15
512.873	1	9
513.043	1	20
513.213	1	22
513.383	1	9
513.553	1	16
513.724	1	-4
513.894	1	9
514.064	1	6
514.234	1	13
514.404	1	8
514.575	1	9
514.745	1	12
514.915	1	-3
515.085	1	6
515.255	1	6
515.425	1	4
515.596	1	23
515.766	1	13
515.936	1	8
516.106	1	13
516.276	1	5
516.447	1	9
516.617	1	-1
516.787	1	15
516.957	1	14
517.127	1	14
517.297	1	4
517.468	1	3
517.638	1	-1
517.808	1	8
517.978	1	16
518.148	1	14
518.319	1	10
518.489	1	-1
518.659	1	12
518.829	1	9
518.999	1	8
519.169	1	2
519.340	1	12
519.510	1	11
519.680	1	22
519.850	1	2
520.020	1	13
520.190	1	15
520.361	1	-2
520.531	1	12
520.701	1	10
520.871	1	2
521.041	1	15
521.211	1	7
521.382	1	-2
521.552	1	5
521.722	1	13
521.892	1	13
522.062	1	0
522.232	1	29
522.402	1	9
522.573	1	1
522.743	1	8
522.913	1	12
523.083	1	12
523.253	1	11
523.423	1	11
523.593	1	10
523.764	1	6
523.934	1	9
524.104	1	7
524.274	1	7
524.444	1	10
524.614	1	18
524.784	1	10
524.955	1	13
525.125	1	12
525.295	1	7
525.465	1	13
525.635	1	6
525.805	1	12
525.975	1	5
526.146	1	5
526.316	1	5
526.486	1	10
526.656	1	7
526.826	1	17
526.996	1	14
527.166	1	13
527.337	1	3
527.507	1	14
527.677	1	12
527.847	1	0
528.017	1	9
528.187	1	11
528.357	1	16
528.527	1	13
528.698	1	-1
528.868	1	10
529.038	1	11
529.208	1	-3
529.378	1	16
529.548	1	6
529.718	1	14
529.888	1	14
530.058	1	19
530.229	1	13
530.399	1	5
530.569	1	4
530.739	1	5
530.909	1	0
531.079	1	-13
531.249	1	5
531.419	1	6
531.589	1	11
531.760	1	4
531.930	1	17
532.100	1	11
532.270	1	15
532.440	1	13
532.610	1	16
532.780	1	8
532.950	1	6
533.120	1	20
533.290	1	7
533.461	1	11
533.631	1	9
533.801	1	7
533.971	1	6
534.141	1	9
534.311	1	15
534.481	1	8
534.651	1	-5
534.821	1	8
534.991	1	5
535.162	1	3
535.332	1	3
535.502	1	8
535.672	1	2
535.842	1	14
536.012	1	4
536.182	1	17
536.352	1	6
536.522	1	4
536.692	1	1
536.862	1	3
537.032	1	2
537.203	1	7
537.373	1	16
537.543	1	4
537.713	1	17
537.883	1	14
538.053	1	3
538.223	1	16
538.393	1	10
538.563	1	25
538.733	1	25
538.903	1	9
539.073	1	8
539.243	1	5
539.413	1	16
539.584	1	9
539.754	1	12
539.924	1	10
540.094	1	1
540.264	1	-3
540.434	1	14
540.604	1	7
540.774	1	16
540.944	1	11
541.114	1	14
541.284	1	3
541.454	1	7
541.624	1	23
541.794	1	5
541.964	1	-5
542.134	1	13
542.305	1	21
542.475	1	3
542.645	1	13
542.815	1	-2
542.985	1	12
543.155	1	-7
543.325	1	15
543.495	1	14
543.665	1	7
543.835	1	-2
544.005	1	5
544.175	1	13
544.345	1	-5
544.515	1	10
544.685	1	17
544.855	1	10
545.025	1	11
545.195	1	10
545.365	1	5
545.535	1	12
545.705	1	14
545.875	1	3
546.045	1	15
546.216	1	-4
546.386	1	21
546.556	1	9
546.726	1	6
546.896	1	7
547.066	1	16
547.236	1	2
547.406	1	2
547.576	1	6
547.746	1	8
547.916	1	4
548.086	1	13
548.256	1	7
548.426	1	12
548.596	1	11
548.766	1	24
548.936	1	15
549.106	1	14
549.276	1	17
549.446	1	6
549.616	1	4
549.786	1	-5
549.956	1	12
550.126	1	4
550.296	1	11
550.466	1	11
550.636	1	10
550.806	1	18
550.976	1	3
551.146	1	6
551.316	1	-2
551.486	1	3
551.656	1	12
551.826	1	23
551.996	1	2
552.166	1	16
552.336	1	14
552.506	1	24
552.676	1	7
552.846	1	-1
553.016	1	14
553.186	1	11
553.356	1	8
553.526	1	0
553.696	1	24
553.866	1	17
554.036	1	3
554.206	1	-2
554.376	1	-6
554.546	1	3
554.716	1	7
554.886	1	14
555.056	1	6
555.226	1	13
555.396	1	7
555.566	1	1
555.736	1	13
555.906	1	0
556.076	1	9
556.246	1	7
556.416	1	-6
556.586	1	-4
556.756	1	-4
556.926	1	6
557.096	1	7
557.266	1	10
557.436	1	9
557.606	1	8
557.776	1	11
557.946	1	-2
558.116	1	18
558.286	1	7
558.456	1	7
558.626	1	-8
558.796	1	12
558.966	1	14
559.136	1	10
559.306	1	15
559.476	1	6
559.646	1	3
559.816	1	10
559.986	1	2
560.155	1	6
560.325	1	8
560.495	1	2
560.665	1	5
560.835	1	3
561.005	1	14
561.175	1	6
561.345	1	7
561.515	1	7
561.685	1	6
561.855	1	8
562.025	1	10
562.195	1	7
562.365	1	9
562.535	1	7
562.705	1	5
562.875	1	4
563.045	1	-5
563.215	1	10
563.385	1	3
563.555	1	1
563.725	1	7
563.895	1	5
564.064	1	0
564.234	1	11
564.404	1	-2
564.574	1	14
564.744	1	-3
564.914	1	11
565.084	1	-6
565.254	1	15
565.424	1	-2
565.594	1	6
565.764	1	0
565.934	1	7
566.104	1	3
566.274	1	9
566.444	1	-3
566.614	1	5
566.783	1	9
566.953	1	7
567.123	1	5
567.293	1	6
567.463	1	5
567.633	1	6
567.803	1	11
567.973	1	18
568.143	1	5
568.313	1	12
568.483	1	7
568.653	1	-4
568.823	1	8
568.993	1	2
569.162	1	4
569.332	1	17
569.502	1	9
569.672	1	12
569.842	1	-2
570.012	1	8
570.182	1	8
570.352	1	9
570.522	1	8
570.692	1	9
570.862	1	2
571.031	1	0
571.201	1	12
571.371	1	6
571.541	1	6
571.711	1	11
571.881	1	6
572.051	1	6
572.221	1	8
572.391	1	9
572.561	1	10
572.731	1	6
572.900	1	-4
573.070	1	7
573.240	1	-4
573.410	1	9
573.580	1	3
573.750	1	4
573.920	1	7
574.090	1	14
574.260	1	7
574.430	1	-3
574.599	1	16
574.769	1	0
574.939	1	-2
575.109	1	-6
575.279	1	5
575.449	1	14
575.619	1	8
575.789	1	-1
575.959	1	5
576.128	1	4
576.298	1	2
576.468	1	0
576.638	1	0
576.808	1	8
576.978	1	3
577.148	1	6
577.318	1	16
577.487	1	-5
577.657	1	1
577.827	1	8
577.997	1	7
578.167	1	3
578.337	1	2
578.507	1	1
578.677	1	9
578.846	1	3
579.016	1	9
579.186	1	8
579.356	1	11
579.526	1	2
579.696	1	13
579.866	1	-1
580.036	1	5
580.205	1	-6
580.375	1	15
580.545	1	3
580.715	1	6
580.885	1	4
581.055	1	2
581.225	1	8
581.394	1	3
581.564	1	1
581.734	1	1
581.904	1	0
582.074	1	-1
582.244	1	9
582.414	1	0
582.583	1	-2
582.753	1	13
582.923	1	10
583.093	1	7
583.263	1	7
583.433	1	6
583.603	1	-1
583.772	1	-8
583.942	1	2
584.112	1	-2
584.282	1	-1
584.452	1	7
584.622	1	0
584.791	1	6
584.961	1	-6
585.131	1	7
585.301	1	-2
585.471	1	-3
585.641	1	3
585.811	1	-1
585.980	1	-3
586.150	1	8
586.320	1	3
586.490	1	9
586.660	1	6
586.830	1	-10
586.999	1	4
587.169	1	8
587.339	1	5
587.509	1	9
587.679	1	-4
587.849	1	10
588.018	1	-8
588.188	1	5
588.358	1	-3
588.528	1	-3
588.698	1	-13
588.867	1	1
589.037	1	1
589.207	1	1
589.377	1	5
589.547	1	4
589.717	1	-5
589.886	1	-2
590.056	1	4
590.226	1	-10
590.396	1	-8
590.566	1	-7
590.735	1	-13
590.905	1	4
591.075	1	-2
591.245	1	19
591.415	1	7
591.585	1	12
591.754	1	1
591.924	1	8
592.094	1	-1
592.264	1	-3
592.434	1	2
592.603	1	2
592.773	1	-2
592.943	1	10
593.113	1	-1
593.283	1	-1
593.452	1	-16
593.622	1	6
593.792	1	9
593.962	1	-3
594.132	1	7
594.301	1	16
594.471	1	2
594.641	1	1
594.811	1	-1
594.981	1	-2
595.150	1	2
595.320	1	-4
595.490	1	2
595.660	1	10
595.829	1	-3
595.999	1	-5
596.169	1	12
596.339	1	6
596.509	1	0
596.678	1	5
596.848	1	10
597.018	1	-1
597.188	1	-1
597.358	1	13
597.527	1	-6
597.697	1	-12
597.867	1	13
598.037	1	5
598.206	1	6
598.376	1	-1
598.546	1	7
598.716	1	4
598.885	1	3
599.055	1	4
599.225	1	6
599.395	1	3
599.565	1	-1
599.734	1	4
599.904	1	-1
600.074	1	8
600.244	1	6
600.413	1	2
600.583	1	-10
600.753	1	6
600.923	1	-2
601.092	1	7
601.262	1	8
601.432	1	8
601.602	1	7
601.771	1	9
601.941	1	4
602.111	1	7
602.281	1	9
602.451	1	-4
602.620	1	1
602.790	1	-6
602.960	1	-3
603.130	1	2
603.299	1	5
603.469	1	8
603.639	1	-9
603.809	1	14
603.978	1	-3
604.148	1	6
604.318	1	2
604.487	1	9
604.657	1	-6
604.827	1	10
604.997	1	14
605.166	1	-4
605.336	1	1
605.506	1	-2
605.676	1	12
605.845	1	-6
606.015	1	-6
606.185	1	-14
606.355	1	-1
606.524	1	3
606.694	1	12
606.864	1	9
607.034	1	8
607.203	1	6
607.373	1	1
607.543	1	-2
607.712	1	5
607.882	1	3
608.052	1	7
608.222	1	-1
608.391	1	15
608.561	1	-1
608.731	1	0
608.901	1	4
609.070	1	-5
609.240	1	-5
609.410	1	1
609.579	1	8
609.749	1	16
609.919	1	12
610.089	1	-1
610.258	1	1
610.428	1	8
610.598	1	3
610.767	1	5
610.937	1	-2
611.107	1	-5
611.277	1	-5
611.446	1	3
611.616	1	5
611.786	1	6
611.955	1	-1
612.125	1	9
612.295	1	5
612.465	1	-3
612.634	1	4
612.804	1	-2
612.974	1	-4
613.143	1	-1
613.313	1	2
613.483	1	5
613.652	1	9
613.822	1	3
613.992	1	-4
614.162	1	3
614.331	1	4
614.501	1	-1
614.671	1	4
614.840	1	0
615.010	1	6
615.180	1	7
615.349	1	14
615.519	1	1
615.689	1	0
615.858	1	8
616.028	1	1
616.198	1	12
616.368	1	3
616.537	1	-5
616.707	1	1
616.877	1	-5
617.046	1	7
617.216	1	9
617.386	1	12
617.555	1	0
617.725	1	9
617.895	1	-4
618.064	1	1
618.234	1	-13
618.404	1	-4
618.573	1	6
618.743	1	10
618.913	1	4
619.082	1	2
619.252	1	-2
619.422	1	-3
619.591	1	3
619.761	1	-9
619.931	1	1
620.100	1	5
620.270	1	9
620.440	1	14
620.609	1	5
620.779	1	3
620.949	1	1
621.118	1	3
621.288	1	3
621.458	1	10
621.627	1	5
621.797	1	-12
621.967	1	-6
622.136	1	-4
622.306	1	11
622.476	1	1
622.645	1	4
622.815	1	3
622.985	1	5
623.154	1	1
623.324	1	11
623.494	1	-1
623.663	1	3
623.833	1	5
624.002	1	-5
624.172	1	-2
624.342	1	-2
624.511	1	6
624.681	1	-2
624.851	1	1
625.020	1	2
625.190	1	1
625.360	1	-3
625.529	1	-7
625.699	1	1
625.869	1	1
626.038	1	0
626.208	1	9
626.377	1	7
626.547	1	-9
626.717	1	-15
626.886	1	-2
627.056	1	-5
627.226	1	2
627.395	1	-3
627.565	1	4
627.735	1	2
627.904	1	-1
628.074	1	1
628.243	1	6
628.413	1	-1
628.583	1	9
628.752	1	-6
628.922	1	0
629.091	1	-3
629.261	1	9
629.431	1	-1
629.600	1	11
629.770	1	8
629.940	1	-2
630.109	1	4
630.279	1	5
630.448	1	-3
630.618	1	9
630.788	1	0
630.957	1	4
631.127	1	-3
631.297	1	-6
631.466	1	7
631.636	1	15
631.805	1	3
631.975	1	-6
632.145	1	9
632.314	1	-10
632.484	1	0
632.653	1	3
632.823	1	-4
632.993	1	2
633.162	1	2
633.332	1	-8
633.501	1	7
633.671	1	4
633.841	1	0
634.010	1	14
634.180	1	11
634.349	1	7
634.519	1	4
634.689	1	-6
634.858	1	-4
635.028	1	-4
635.197	1	0
635.367	1	6
635.537	1	1
635.706	1	9
635.876	1	3
636.045	1	4
636.215	1	16
636.384	1	-2
636.554	1	-12
636.724	1	2
636.893	1	11
637.063	1	4
637.232	1	6
637.402	1	-2
637.572	1	3
637.741	1	6
637.911	1	-6
638.080	1	7
638.250	1	2
638.419	1	4
638.589	1	0
638.759	1	0
638.928	1	7
639.098	1	1
639.267	1	8
639.437	1	1
639.606	1	-1
639.776	1	7
639.946	1	7
640.115	1	-4
640.285	1	8
640.454	1	5
640.624	1	7
640.793	1	-3
640.963	1	-2
641.132	1	4
641.302	1	-1
641.472	1	5
641.641	1	9
641.811	1	-2
641.980	1	0
642.150	1	5
642.319	1	8
642.489	1	-1
642.659	1	11
642.828	1	4
642.998	1	4
643.167	1	-10
643.337	1	-10
643.506	1	5
643.676	1	-5
643.845	1	10
644.015	1	4
644.184	1	-6
644.354	1	0
644.524	1	6
644.693	1	8
644.863	1	1
645.032	1	7
645.202	1	-4
645.371	1	-4
645.541	1	-1
645.710	1	7
645.880	1	-10
646.049	1	-8
646.219	1	-1
646.388	1	-2
646.558	1	8
646.728	1	2
646.897	1	0
647.067	1	-4
647.236	1	10
647.406	1	4
647.575	1	9
647.745	1	7
647.914	1	-7
648.084	1	4
648.253	1	1
648.423	1	6
648.592	1	-11
648.762	1	12
648.931	1	5
649.101	1	4
649.270	1	-5
649.440	1	-3
649.610	1	2
649.779	1	6
649.949	1	7
650.118	1	-1
650.288	1	3
650.457	1	4
650.627	1	8
650.796	1	-3
650.966	1	-9
651.135	1	2
651.305	1	-6
651.474	1	9
651.644	1	12
651.813	1	7
651.983	1	3
652.152	1	9
652.322	1	-5
652.491	1	0
652.661	1	-8
652.830	1	8
653.000	1	2
653.169	1	9
653.339	1	-2
653.508	1	-5
653.678	1	-2
653.847	1	-7
654.017	1	8
654.186	1	0
654.356	1	2
654.525	1	-9
654.695	1	-4
654.864	1	2
655.034	1	7
655.203	1	6
655.373	1	4
655.542	1	-5
655.712	1	-6
655.881	1	6
656.051	1	13
656.220	1	0
656.390	1	-4
656.559	1	-3
656.729	1	-2
656.898	1	2
657.068	1	15
657.237	1	4
657.406	1	-1
657.576	1	-6
657.745	1	5
657.915	1	-4
658.084	1	2
658.254	1	4
658.423	1	16
658.593	1	8
658.762	1	9
658.932	1	-6
659.101	1	-7
659.271	1	-3
659.440	1	-2
659.610	1	-1
659.779	1	13
659.949	1	3
660.118	1	1
660.288	1	0
660.457	1	8
660.626	1	12
660.796	1	5
660.965	1	-5
661.135	1	-16
661.304	1	-2
661.474	1	-3
661.643	1	-2
661.813	1	0
661.982	1	0
662.152	1	6
662.321	1	-5
662.491	1	2
662.660	1	6
662.829	1	3
662.999	1	7
663.168	1	-1
663.338	1	8
663.507	1	6
663.677	1	5
663.846	1	3
664.016	1	-3
664.185	1	-5
664.354	1	6
664.524	1	-4
664.693	1	-8
664.863	1	3
665.032	1	-2
665.202	1	-2
665.371	1	-6
665.541	1	18
665.710	1	-3
665.879	1	8
666.049	1	-20
666.218	1	-5
666.388	1	8
666.557	1	9
666.727	1	-6
666.896	1	10
667.065	1	0
667.235	1	15
667.404	1	-10
667.574	1	-4
667.743	1	-3
667.913	1	11
668.082	1	-4
668.251	1	7
668.421	1	3
668.590	1	2
668.760	1	-1
668.929	1	11
669.099	1	-5
669.268	1	-6
669.437	1	2
669.607	1	5
669.776	1	9
669.946	1	-5
670.115	1	-12
670.285	1	7
670.454	1	3
670.623	1	-5
670.793	1	1
670.962	1	-2
671.132	1	-4
671.301	1	4
671.470	1	1
671.640	1	2
671.809	1	0
671.979	1	8
672.148	1	2
672.317	1	-3
672.487	1	-2
672.656	1	-15
672.826	1	5
672.995	1	3
673.164	1	-7
673.334	1	5
673.503	1	-1
673.673	1	8
673.842	1	-5
674.011	1	7
674.181	1	3
674.350	1	-2
674.520	1	8
674.689	1	-1
674.858	1	-12
675.028	1	0
675.197	1	3
675.367	1	7
675.536	1	0
675.705	1	3
675.875	1	-1
676.044	1	-2
676.214	1	-7
676.383	1	5
676.552	1	-1
676.722	1	-5
676.891	1	3
677.060	1	-2
677.230	1	6
677.399	1	-10
677.569	1	5
677.738	1	0
677.907	1	-3
678.077	1	8
678.246	1	10
678.416	1	7
678.585	1	-5
678.754	1	4
678.924	1	5
679.093	1	2
679.262	1	2
679.432	1	-6
679.601	1	-6
679.771	1	5
679.940	1	5
680.109	1	10
680.279	1	5
680.448	1	4
680.617	1	-6
680.787	1	-9
680.956	1	3
681.125	1	-2
681.295	1	-2
681.464	1	0
681.634	1	10
681.803	1	5
681.972	1	3
682.142	1	-5
682.311	1	2
682.480	1	5
682.650	1	15
682.819	1	4
682.988	1	1
683.158	1	-5
683.327	1	6
683.496	1	1
683.666	1	7
683.835	1	-8
684.004	1	6
684.174	1	6
684.343	1	5
684.512	1	3
684.682	1	1
684.851	1	2
685.021	1	-7
685.190	1	-2
685.359	1	-8
685.529	1	9
685.698	1	-6
685.867	1	6
686.037	1	-1
686.206	1	-5
686.375	1	-5
686.545	1	13
686.714	1	-6
686.883	1	1
687.053	1	-1
687.222	1	7
687.391	1	7
687.561	1	11
687.730	1	10
687.899	1	-1
688.069	1	7
688.238	1	-6
688.407	1	10
688.577	1	-5
688.746	1	12
