340.368	1	11
340.539	1	9
340.710	1	-7
340.881	1	-7
341.052	1	-13
341.223	1	4
341.394	1	-5
341.565	1	4
341.737	1	7
341.908	1	-9
342.079	1	-13
342.250	1	3
342.421	1	3
342.592	1	-6
342.763	1	6
342.934	1	-1
343.105	1	3
343.276	1	-6
343.447	1	-20
343.618	1	-14
343.789	1	-5
343.960	1	-6
344.131	1	3
344.302	1	-13
344.473	1	-5
344.644	1	0
344.815	1	5
344.986	1	-3
345.157	1	1
345.328	1	-7
345.499	1	-1
345.670	1	-2
345.841	1	-3
346.012	1	2
346.183	1	12
346.354	1	-2
346.526	1	2
346.697	1	3
346.868	1	-4
347.039	1	-2
347.210	1	-3
347.381	1	-1
347.552	1	-2
347.723	1	-4
347.894	1	1
348.065	1	9
348.236	1	10
348.407	1	-1
348.578	1	3
348.749	1	0
348.920	1	-7
349.091	1	6
349.262	1	-12
349.433	1	3
349.604	1	9
349.775	1	-1
349.946	1	-3
350.117	1	-4
350.288	1	0
350.459	1	-10
350.630	1	9
350.801	1	8
350.972	1	6
351.143	1	14
351.314	1	5
351.485	1	3
351.656	1	-6
351.827	1	-2
351.998	1	6
352.169	1	-6
352.340	1	0
352.511	1	2
352.682	1	3
352.853	1	1
353.024	1	-4
353.195	1	-5
353.366	1	-2
353.537	1	0
353.708	1	3
353.879	1	-9
354.050	1	3
354.221	1	-3
354.392	1	5
354.563	1	8
354.734	1	-2
354.905	1	7
355.076	1	3
355.247	1	5
355.418	1	-5
355.589	1	-7
355.760	1	-4
355.931	1	7
356.102	1	-4
356.273	1	-4
356.444	1	4
356.615	1	0
356.785	1	7
356.956	1	3
357.127	1	-1
357.298	1	9
357.469	1	-2
357.640	1	-3
357.811	1	-7
357.982	1	-4
358.153	1	3
358.324	1	10
358.495	1	0
358.666	1	8
358.837	1	5
359.008	1	4
359.179	1	8
359.350	1	-4
359.521	1	8
359.692	1	3
359.863	1	9
360.034	1	9
360.205	1	-5
360.376	1	5
360.547	1	-8
360.718	1	7
360.889	1	-5
361.060	1	3
361.231	1	1
361.401	1	1
361.572	1	2
361.743	1	7
361.914	1	17
362.085	1	9
362.256	1	5
362.427	1	-13
362.598	1	3
362.769	1	7
362.940	1	6
363.111	1	8
363.282	1	3
363.453	1	10
363.624	1	1
363.795	1	10
363.966	1	7
364.137	1	7
364.308	1	2
364.478	1	7
364.649	1	13
364.820	1	16
364.991	1	15
365.162	1	3
365.333	1	11
365.504	1	6
365.675	1	0
365.846	1	1
366.017	1	7
366.188	1	0
366.359	1	11
366.530	1	14
366.701	1	16
366.871	1	9
367.042	1	26
367.213	1	10
367.384	1	0
367.555	1	3
367.726	1	15
367.897	1	16
368.068	1	14
368.239	1	10
368.410	1	12
368.581	1	9
368.752	1	15
368.923	1	7
369.093	1	8
369.264	1	9
369.435	1	0
369.606	1	15
369.777	1	8
369.948	1	4
370.119	1	9
370.290	1	10
370.461	1	6
370.632	1	12
370.803	1	12
370.973	1	1
371.144	1	2
371.315	1	-2
371.486	1	3
371.657	1	13
371.828	1	21
371.999	1	3
372.170	1	10
372.341	1	-1
372.512	1	12
372.682	1	14
372.853	1	10
373.024	1	6
373.195	1	5
373.366	1	1
373.537	1	13
373.708	1	-7
373.879	1	8
374.050	1	5
374.220	1	0
374.391	1	3
374.562	1	8
374.733	1	10
374.904	1	3
375.075	1	-2
375.246	1	-15
375.417	1	11
375.588	1	9
375.758	1	5
375.929	1	11
376.100	1	5
376.271	1	7
376.442	1	-6
376.613	1	-1
376.784	1	18
376.955	1	-11
377.125	1	4
377.296	1	7
377.467	1	2
377.638	1	-1
377.809	1	1
377.980	1	11
378.151	1	4
378.321	1	9
378.492	1	4
378.663	1	4
378.834	1	21
379.005	1	-1
379.176	1	0
379.347	1	12
379.518	1	6
379.688	1	-5
379.859	1	15
380.030	1	20
380.201	1	12
380.372	1	6
380.543	1	16
380.714	1	-2
380.884	1	1
381.055	1	-1
381.226	1	12
381.397	1	10
381.568	1	11
381.739	1	2
381.910	1	-3
382.080	1	10
382.251	1	-2
382.422	1	2
382.593	1	11
382.764	1	1
382.935	1	2
383.105	1	3
383.276	1	4
383.447	1	11
383.618	1	12
383.789	1	4
383.960	1	-2
384.130	1	3
384.301	1	6
384.472	1	4
384.643	1	10
384.814	1	14
384.985	1	7
385.156	1	12
385.326	1	-4
385.497	1	6
385.668	1	12
385.839	1	12
386.010	1	13
386.180	1	9
386.351	1	7
386.522	1	12
386.693	1	8
386.864	1	10
387.035	1	11
387.205	1	9
387.376	1	8
387.547	1	19
387.718	1	5
387.889	1	9
388.060	1	2
388.230	1	7
388.401	1	8
388.572	1	11
388.743	1	-4
388.914	1	10
389.084	1	18
389.255	1	10
389.426	1	-4
389.597	1	11
389.768	1	4
389.939	1	6
390.109	1	6
390.280	1	0
390.451	1	4
390.622	1	10
390.793	1	15
390.963	1	11
391.134	1	6
391.305	1	0
391.476	1	17
391.647	1	4
391.817	1	7
391.988	1	-9
392.159	1	8
392.330	1	3
392.501	1	3
392.671	1	4
392.842	1	11
393.013	1	11
393.184	1	8
393.355	1	6
393.525	1	3
393.696	1	-6
393.867	1	8
394.038	1	10
394.208	1	12
394.379	1	-3
394.550	1	-4
394.721	1	3
394.892	1	-3
395.062	1	1
395.233	1	3
395.404	1	10
395.575	1	0
395.746	1	8
395.916	1	19
396.087	1	1
396.258	1	7
396.429	1	3
396.599	1	7
396.770	1	7
396.941	1	2
397.112	1	-1
397.283	1	-1
397.453	1	10
397.624	1	8
397.795	1	-3
397.966	1	9
398.136	1	4
398.307	1	-7
398.478	1	-1
398.649	1	-1
398.819	1	25
398.990	1	4
399.161	1	2
399.332	1	15
399.503	1	15
399.673	1	-8
399.844	1	2
400.015	1	9
400.186	1	2
400.356	1	10
400.527	1	17
400.698	1	4
400.869	1	0
401.039	1	-4
401.210	1	2
401.381	1	-1
401.552	1	2
401.722	1	13
401.893	1	13
402.064	1	7
402.235	1	-3
402.405	1	6
402.576	1	-6
402.747	1	3
402.918	1	0
403.088	1	6
403.259	1	-4
403.430	1	14
403.601	1	13
403.771	1	11
403.942	1	-1
404.113	1	15
404.284	1	3
404.454	1	6
404.625	1	4
404.796	1	-2
404.967	1	10
405.137	1	1
405.308	1	1
405.479	1	8
405.649	1	14
405.820	1	-2
405.991	1	4
406.162	1	12
406.332	1	-11
406.503	1	5
406.674	1	-1
406.845	1	13
407.015	1	2
407.186	1	-2
407.357	1	6
407.527	1	8
407.698	1	2
407.869	1	-1
408.040	1	3
408.210	1	8
408.381	1	4
408.552	1	-1
408.722	1	-1
408.893	1	4
409.064	1	-4
409.235	1	-6
409.405	1	9
409.576	1	8
409.747	1	6
409.917	1	6
410.088	1	4
410.259	1	4
410.430	1	-5
410.600	1	7
410.771	1	6
410.942	1	3
411.112	1	-8
411.283	1	7
411.454	1	-6
411.625	1	2
411.795	1	8
411.966	1	9
412.137	1	10
412.307	1	5
412.478	1	11
412.649	1	4
412.819	1	1
412.990	1	-6
413.161	1	1
413.332	1	1
413.502	1	-2
413.673	1	9
413.844	1	12
414.014	1	-10
414.185	1	4
414.356	1	0
414.526	1	5
414.697	1	0
414.868	1	2
415.038	1	7
415.209	1	-3
415.380	1	16
415.550	1	2
415.721	1	-5
415.892	1	8
416.063	1	10
416.233	1	1
416.404	1	0
416.575	1	1
416.745	1	4
416.916	1	-2
417.087	1	6
417.257	1	12
417.428	1	2
417.599	1	7
417.769	1	-3
417.940	1	-3
418.111	1	2
418.281	1	-5
418.452	1	0
418.623	1	-4
418.793	1	3
418.964	1	6
419.135	1	13
419.305	1	-4
419.476	1	-1
419.647	1	-3
419.817	1	3
419.988	1	-6
420.159	1	9
420.329	1	1
420.500	1	9
420.671	1	-6
420.841	1	6
421.012	1	-3
421.183	1	1
421.353	1	-7
421.524	1	8
421.695	1	1
421.865	1	14
422.036	1	1
422.206	1	7
422.377	1	6
422.548	1	4
422.718	1	-8
422.889	1	-13
423.060	1	-6
423.230	1	6
423.401	1	-4
423.572	1	12
423.742	1	-2
423.913	1	1
424.084	1	13
424.254	1	0
424.425	1	2
424.595	1	-7
424.766	1	-4
424.937	1	9
425.107	1	7
425.278	1	-6
425.449	1	2
425.619	1	12
425.790	1	3
425.961	1	-5
426.131	1	-3
426.302	1	3
426.472	1	-7
426.643	1	-1
426.814	1	1
426.984	1	4
427.155	1	-11
427.326	1	-4
427.496	1	3
427.667	1	8
427.837	1	8
428.008	1	1
428.179	1	-4
428.349	1	-9
428.520	1	6
428.691	1	-5
428.861	1	8
429.032	1	2
429.202	1	9
429.373	1	-7
429.544	1	3
429.714	1	-4
429.885	1	2
430.055	1	4
430.226	1	0
430.397	1	-1
430.567	1	6
430.738	1	-6
430.909	1	-3
431.079	1	-5
431.250	1	-6
431.420	1	1
431.591	1	-3
431.762	1	1
431.932	1	0
432.103	1	9
432.273	1	7
432.444	1	-6
432.615	1	-6
432.785	1	-7
432.956	1	1
433.126	1	1
433.297	1	1
433.468	1	3
433.638	1	11
433.809	1	6
433.979	1	3
434.150	1	4
434.320	1	6
434.491	1	5
434.662	1	2
434.832	1	-4
435.003	1	10
435.173	1	1
435.344	1	7
435.515	1	-11
435.685	1	8
435.856	1	1
436.026	1	4
436.197	1	-6
436.368	1	0
436.538	1	1
436.709	1	-5
436.879	1	4
437.050	1	2
437.220	1	-19
437.391	1	3
437.562	1	-1
437.732	1	2
437.903	1	-4
438.073	1	-7
438.244	1	-5
438.414	1	1
438.585	1	1
438.756	1	-2
438.926	1	6
439.097	1	4
439.267	1	-3
439.438	1	-6
439.608	1	6
439.779	1	-7
439.949	1	-3
440.120	1	-8
440.291	1	6
440.461	1	8
440.632	1	2
440.802	1	-6
440.973	1	3
441.143	1	3
441.314	1	-10
441.485	1	8
441.655	1	-9
441.826	1	-14
441.996	1	-7
442.167	1	4
442.337	1	13
442.508	1	-2
442.678	1	-6
442.849	1	0
443.019	1	7
443.190	1	1
443.361	1	4
443.531	1	3
443.702	1	-3
443.872	1	-1
444.043	1	4
444.213	1	14
444.384	1	-1
444.554	1	-2
444.725	1	0
444.895	1	1
445.066	1	0
445.237	1	-3
445.407	1	-2
445.578	1	-1
445.748	1	-4
445.919	1	3
446.089	1	-5
446.260	1	-6
446.430	1	-13
446.601	1	12
446.771	1	-16
446.942	1	1
447.112	1	2
447.283	1	-8
447.453	1	6
447.624	1	0
447.794	1	8
447.965	1	2
448.135	1	-6
448.306	1	-7
448.477	1	8
448.647	1	-8
448.818	1	-4
448.988	1	-4
449.159	1	13
449.329	1	1
449.500	1	1
449.670	1	-4
449.841	1	5
450.011	1	0
450.182	1	-9
450.352	1	6
450.523	1	-2
450.693	1	11
450.864	1	-2
451.034	1	9
451.205	1	3
451.375	1	0
451.546	1	-5
451.716	1	10
451.887	1	3
452.057	1	11
452.228	1	3
452.398	1	1
452.569	1	0
452.739	1	6
452.910	1	-2
453.080	1	0
453.251	1	-8
453.421	1	-3
453.592	1	-1
453.762	1	-1
453.933	1	-10
454.103	1	-5
454.274	1	-2
454.444	1	1
454.615	1	11
454.785	1	2
454.956	1	8
455.126	1	0
455.297	1	-3
455.467	1	-10
455.638	1	6
455.808	1	2
455.979	1	2
456.149	1	4
456.320	1	12
456.490	1	-2
456.661	1	-7
456.831	1	1
457.001	1	10
457.172	1	5
457.342	1	4
457.513	1	8
457.683	1	-2
457.854	1	1
458.024	1	-12
458.195	1	0
458.365	1	11
458.536	1	-3
458.706	1	5
458.877	1	2
459.047	1	3
459.218	1	1
459.388	1	9
459.559	1	5
459.729	1	-6
459.899	1	-6
460.070	1	2
460.240	1	3
460.411	1	-1
460.581	1	1
460.752	1	-2
460.922	1	11
461.093	1	2
461.263	1	0
461.434	1	5
461.604	1	11
461.775	1	5
461.945	1	0
462.115	1	3
462.286	1	-7
462.456	1	1
462.627	1	0
462.797	1	-12
462.968	1	-6
463.138	1	1
463.309	1	2
463.479	1	2
463.649	1	-6
463.820	1	0
463.990	1	13
464.161	1	-2
464.331	1	6
464.502	1	8
464.672	1	-9
464.843	1	0
465.013	1	-9
465.183	1	1
465.354	1	3
465.524	1	1
465.695	1	-2
465.865	1	4
466.036	1	3
466.206	1	-5
466.376	1	-3
466.547	1	-5
466.717	1	3
466.888	1	-2
467.058	1	2
467.229	1	8
467.399	1	-2
467.569	1	2
467.740	1	-7
467.910	1	8
468.081	1	-2
468.251	1	3
468.422	1	-1
468.592	1	5
468.762	1	-11
468.933	1	2
469.103	1	-3
469.274	1	-4
469.444	1	1
469.614	1	2
469.785	1	4
469.955	1	14
470.126	1	1
470.296	1	-2
470.467	1	-2
470.637	1	2
470.807	1	10
470.978	1	3
471.148	1	-2
471.319	1	5
471.489	1	-11
471.659	1	5
471.830	1	10
472.000	1	1
472.171	1	2
472.341	1	-2
472.511	1	9
472.682	1	-3
472.852	1	-11
473.023	1	2
473.193	1	-6
473.363	1	6
473.534	1	-2
473.704	1	1
473.875	1	4
474.045	1	-1
474.215	1	1
474.386	1	0
474.556	1	2
474.727	1	0
474.897	1	-2
475.067	1	-6
475.238	1	7
475.408	1	-3
475.578	1	8
475.749	1	13
475.919	1	-4
476.090	1	4
476.260	1	-9
476.430	1	5
476.601	1	7
476.771	1	-3
476.942	1	-3
477.112	1	-6
477.282	1	3
477.453	1	-6
477.623	1	3
477.793	1	-6
477.964	1	11
478.134	1	0
478.305	1	8
478.475	1	4
478.645	1	1
478.816	1	9
478.986	1	0
479.156	1	3
479.327	1	1
479.497	1	10
479.667	1	13
479.838	1	-10
480.008	1	5
480.179	1	-13
480.349	1	0
480.519	1	-3
480.690	1	-2
480.860	1	-3
481.030	1	10
481.201	1	-8
481.371	1	-1
481.541	1	12
481.712	1	4
481.882	1	-7
482.053	1	-1
482.223	1	0
482.393	1	4
482.564	1	7
482.734	1	5
482.904	1	3
483.075	1	-4
483.245	1	0
483.415	1	-1
483.586	1	3
483.756	1	5
483.926	1	1
484.097	1	2
484.267	1	-12
484.437	1	-1
484.608	1	4
484.778	1	-5
484.948	1	2
485.119	1	1
485.289	1	3
485.459	1	2
485.630	1	2
485.800	1	7
485.970	1	7
486.141	1	5
486.311	1	6
486.481	1	1
486.652	1	-8
486.822	1	-7
486.992	1	4
487.163	1	-1
487.333	1	-1
487.503	1	8
487.674	1	5
487.844	1	-13
488.014	1	3
488.185	1	-2
488.355	1	9
488.525	1	-1
488.696	1	-10
488.866	1	-8
489.036	1	-1
489.207	1	6
489.377	1	-8
489.547	1	0
489.718	1	-2
489.888	1	8
490.058	1	0
490.228	1	-6
490.399	1	-4
490.569	1	6
490.739	1	4
490.910	1	-14
491.080	1	-6
491.250	1	10
491.421	1	7
491.591	1	-1
491.761	1	-3
491.932	1	-1
492.102	1	-1
492.272	1	0
492.442	1	5
492.613	1	4
492.783	1	3
492.953	1	-7
493.124	1	11
493.294	1	-6
493.464	1	10
493.635	1	-5
493.805	1	12
493.975	1	-2
494.145	1	4
494.316	1	4
494.486	1	3
494.656	1	-7
494.827	1	6
494.997	1	3
495.167	1	1
495.337	1	-1
495.508	1	-2
495.678	1	-3
495.848	1	-4
496.019	1	3
496.189	1	-7
496.359	1	0
496.529	1	-7
496.700	1	-2
496.870	1	13
497.040	1	5
497.211	1	0
497.381	1	0
497.551	1	-1
497.721	1	0
497.892	1	15
498.062	1	0
498.232	1	6
498.403	1	3
498.573	1	2
498.743	1	3
498.913	1	-3
499.084	1	-7
499.254	1	-6
499.424	1	-3
499.594	1	2
499.765	1	7
499.935	1	-4
500.105	1	8
500.275	1	-3
500.446	1	5
500.616	1	4
500.786	1	12
500.956	1	-6
501.127	1	3
501.297	1	-10
501.467	1	0
501.638	1	11
501.808	1	-1
501.978	1	0
502.148	1	-7
502.319	1	15
502.489	1	3
502.659	1	13
502.829	1	6
503.000	1	4
503.170	1	-9
503.340	1	5
503.510	1	-5
503.681	1	-3
503.851	1	-2
504.021	1	2
504.191	1	10
504.362	1	1
504.532	1	2
504.702	1	0
504.872	1	-10
505.042	1	-6
505.213	1	0
505.383	1	-1
505.553	1	5
505.723	1	8
505.894	1	-6
506.064	1	3
506.234	1	-5
506.404	1	9
506.575	1	-6
506.745	1	8
506.915	1	3
507.085	1	-5
507.256	1	-5
507.426	1	-4
507.596	1	5
507.766	1	3
507.936	1	-3
508.107	1	3
508.277	1	7
508.447	1	-1
508.617	1	1
508.788	1	2
508.958	1	4
509.128	1	3
509.298	1	0
509.468	1	12
509.639	1	1
509.809	1	5
509.979	1	12
510.149	1	2
510.319	1	2
510.490	1	10
510.660	1	1
510.830	1	0
511.000	1	4
511.171	1	7
511.341	1	0
511.511	1	6
511.681	1	3
511.851	1	6
512.022	1	-6
512.192	1	4
512.362	1	-1
512.532	1	-12
512.702	1	8
512.873	1	7
513.043	1	9
513.213	1	13
513.383	1	2
513.553	1	10
513.724	1	-9
513.894	1	7
514.064	1	17
514.234	1	6
514.404	1	5
514.575	1	3
514.745	1	5
514.915	1	-8
515.085	1	12
515.255	1	-6
515.425	1	5
515.596	1	4
515.766	1	6
515.936	1	5
516.106	1	7
516.276	1	2
516.447	1	5
516.617	1	8
516.787	1	-5
516.957	1	5
517.127	1	-1
517.297	1	10
517.468	1	0
517.638	1	1
517.808	1	6
517.978	1	10
518.148	1	1
518.319	1	0
518.489	1	-4
518.659	1	12
518.829	1	7
518.999	1	4
519.169	1	-11
519.340	1	7
519.510	1	3
519.680	1	11
519.850	1	-1
520.020	1	-1
520.190	1	3
520.361	1	-1
520.531	1	4
520.701	1	7
520.871	1	0
521.041	1	1
521.211	1	10
521.382	1	4
521.552	1	-5
521.722	1	8
521.892	1	7
522.062	1	0
522.232	1	9
522.402	1	1
522.573	1	-1
522.743	1	8
522.913	1	0
523.083	1	7
523.253	1	12
523.423	1	0
523.593	1	4
523.764	1	9
523.934	1	6
524.104	1	5
524.274	1	14
524.444	1	1
524.614	1	14
524.784	1	8
524.955	1	8
525.125	1	6
525.295	1	4
525.465	1	7
525.635	1	-3
525.805	1	5
525.975	1	7
526.146	1	-2
526.316	1	-3
526.486	1	11
526.656	1	4
526.826	1	9
526.996	1	6
527.166	1	-2
527.337	1	3
527.507	1	4
527.677	1	2
527.847	1	9
528.017	1	1
528.187	1	3
528.357	1	9
528.527	1	18
528.698	1	3
528.868	1	2
529.038	1	9
529.208	1	-4
529.378	1	11
529.548	1	5
529.718	1	6
529.888	1	18
530.058	1	4
530.229	1	5
530.399	1	-3
530.569	1	7
530.739	1	-1
530.909	1	4
531.079	1	-8
531.249	1	-3
531.419	1	-4
531.589	1	7
531.760	1	1
531.930	1	13
532.100	1	-6
532.270	1	10
532.440	1	13
532.610	1	10
532.780	1	0
532.950	1	-3
533.120	1	22
533.290	1	-3
533.461	1	9
533.631	1	5
533.801	1	1
533.971	1	0
534.141	1	15
534.311	1	11
534.481	1	4
534.651	1	-4
534.821	1	2
534.991	1	-4
535.162	1	3
535.332	1	7
535.502	1	4
535.672	1	-5
535.842	1	8
536.012	1	0
536.182	1	12
536.352	1	12
536.522	1	-4
536.692	1	1
536.862	1	4
537.032	1	-2
537.203	1	3
537.373	1	5
537.543	1	-10
537.713	1	0
537.883	1	1
538.053	1	1
538.223	1	-6
538.393	1	0
538.563	1	15
538.733	1	11
538.903	1	7
539.073	1	-6
539.243	1	4
539.413	1	6
539.584	1	6
539.754	1	9
539.924	1	3
540.094	1	3
540.264	1	-8
540.434	1	8
540.604	1	4
540.774	1	9
540.944	1	-4
541.114	1	-2
541.284	1	-10
541.454	1	1
541.624	1	3
541.794	1	5
541.964	1	-4
542.134	1	9
542.305	1	14
542.475	1	3
542.645	1	8
542.815	1	-7
542.985	1	11
543.155	1	-6
543.325	1	13
543.495	1	6
543.665	1	7
543.835	1	-1
544.005	1	1
544.175	1	8
544.345	1	-7
544.515	1	5
544.685	1	11
544.855	1	12
545.025	1	5
545.195	1	-3
545.365	1	2
545.535	1	3
545.705	1	18
545.875	1	1
546.045	1	3
546.216	1	-12
546.386	1	0
546.556	1	0
546.726	1	-4
546.896	1	5
547.066	1	8
547.236	1	8
547.406	1	-7
547.576	1	8
547.746	1	15
547.916	1	7
548.086	1	8
548.256	1	-2
548.426	1	-1
548.596	1	-2
548.766	1	22
548.936	1	9
549.106	1	5
549.276	1	12
549.446	1	2
549.616	1	7
549.786	1	-4
549.956	1	6
550.126	1	-3
550.296	1	3
550.466	1	14
550.636	1	4
550.806	1	10
550.976	1	0
551.146	1	-7
551.316	1	3
551.486	1	8
551.656	1	9
551.826	1	4
551.996	1	-1
552.166	1	3
552.336	1	-6
552.506	1	-2
552.676	1	9
552.846	1	2
553.016	1	18
553.186	1	3
553.356	1	1
553.526	1	-1
553.696	1	16
553.866	1	7
554.036	1	-4
554.206	1	-8
554.376	1	-7
554.546	1	-2
554.716	1	0
554.886	1	7
555.056	1	0
555.226	1	1
555.396	1	13
555.566	1	2
555.736	1	4
555.906	1	5
556.076	1	9
556.246	1	-2
556.416	1	-14
556.586	1	-10
556.756	1	-7
556.926	1	0
557.096	1	3
557.266	1	1
557.436	1	7
557.606	1	-5
557.776	1	11
557.946	1	0
558.116	1	-1
558.286	1	-3
558.456	1	-1
558.626	1	-16
558.796	1	-2
558.966	1	4
559.136	1	2
559.306	1	4
559.476	1	4
559.646	1	4
559.816	1	5
559.986	1	-4
560.155	1	2
560.325	1	-1
560.495	1	-3
560.665	1	-2
560.835	1	2
561.005	1	10
561.175	1	-7
561.345	1	-1
561.515	1	-3
561.685	1	2
561.855	1	-5
562.025	1	6
562.195	1	2
562.365	1	8
562.535	1	-1
562.705	1	-6
562.875	1	8
563.045	1	1
563.215	1	5
563.385	1	-15
563.555	1	-12
563.725	1	15
563.895	1	2
564.064	1	-1
564.234	1	2
564.404	1	-4
564.574	1	6
564.744	1	8
564.914	1	13
565.084	1	-6
565.254	1	11
565.424	1	1
565.594	1	-3
565.764	1	-7
565.934	1	6
566.104	1	-3
566.274	1	15
566.444	1	-6
566.614	1	2
566.783	1	-5
566.953	1	7
567.123	1	3
567.293	1	1
567.463	1	-1
567.633	1	6
567.803	1	7
567.973	1	4
568.143	1	0
568.313	1	5
568.483	1	3
568.653	1	-9
568.823	1	-5
568.993	1	1
569.162	1	-1
569.332	1	10
569.502	1	17
569.672	1	3
569.842	1	-9
570.012	1	5
570.182	1	-6
570.352	1	5
570.522	1	-5
570.692	1	4
570.862	1	4
571.031	1	2
571.201	1	8
571.371	1	5
571.541	1	5
571.711	1	-5
571.881	1	4
572.051	1	-1
572.221	1	-6
572.391	1	10
572.561	1	0
572.731	1	5
572.900	1	-10
573.070	1	10
573.240	1	-14
573.410	1	3
573.580	1	-1
573.750	1	12
573.920	1	-2
574.090	1	-4
574.260	1	-7
574.430	1	4
574.599	1	7
574.769	1	-9
574.939	1	-7
575.109	1	0
575.279	1	12
575.449	1	12
575.619	1	6
575.789	1	1
575.959	1	-1
576.128	1	-8
576.298	1	3
576.468	1	3
576.638	1	-6
576.808	1	0
576.978	1	1
577.148	1	10
577.318	1	10
577.487	1	-3
577.657	1	0
577.827	1	-3
577.997	1	3
578.167	1	0
578.337	1	-1
578.507	1	-5
578.677	1	-7
578.846	1	1
579.016	1	6
579.186	1	4
579.356	1	3
579.526	1	-9
579.696	1	3
579.866	1	-4
580.036	1	-3
580.205	1	-2
580.375	1	17
580.545	1	5
580.715	1	4
580.885	1	10
581.055	1	2
581.225	1	-3
581.394	1	-16
581.564	1	0
581.734	1	-8
581.904	1	-1
582.074	1	4
582.244	1	2
582.414	1	-3
582.583	1	1
582.753	1	11
582.923	1	-2
583.093	1	6
583.263	1	8
583.433	1	7
583.603	1	-11
583.772	1	-19
583.942	1	1
584.112	1	-1
584.282	1	8
584.452	1	-5
584.622	1	-2
584.791	1	6
584.961	1	-8
585.131	1	3
585.301	1	-2
585.471	1	-8
585.641	1	7
585.811	1	0
585.980	1	-7
586.150	1	-3
586.320	1	4
586.490	1	1
586.660	1	6
586.830	1	2
586.999	1	-1
587.169	1	4
587.339	1	0
587.509	1	-1
587.679	1	1
587.849	1	6
588.018	1	-14
588.188	1	1
588.358	1	-14
588.528	1	1
588.698	1	-10
588.867	1	-4
589.037	1	-4
589.207	1	7
589.377	1	4
589.547	1	13
589.717	1	-15
589.886	1	-4
590.056	1	5
590.226	1	-8
590.396	1	0
590.566	1	-5
590.735	1	-1
590.905	1	-1
591.075	1	-11
591.245	1	-1
591.415	1	7
591.585	1	14
591.754	1	5
591.924	1	3
592.094	1	-8
592.264	1	-4
592.434	1	-14
592.603	1	0
592.773	1	1
592.943	1	3
593.113	1	-6
593.283	1	0
593.452	1	3
593.622	1	7
593.792	1	6
593.962	1	-5
594.132	1	-3
594.301	1	10
594.471	1	-3
594.641	1	6
594.811	1	-2
594.981	1	-4
595.150	1	-3
595.320	1	-6
595.490	1	8
595.660	1	3
595.829	1	-6
595.999	1	-1
596.169	1	5
596.339	1	2
596.509	1	1
596.678	1	4
596.848	1	11
597.018	1	1
597.188	1	-4
597.358	1	-2
597.527	1	-3
597.697	1	-2
597.867	1	3
598.037	1	-2
598.206	1	12
598.376	1	1
598.546	1	8
598.716	1	-9
598.885	1	4
599.055	1	8
599.225	1	0
599.395	1	5
599.565	1	3
599.734	1	9
599.904	1	-3
600.074	1	0
600.244	1	6
600.413	1	-5
600.583	1	1
600.753	1	1
600.923	1	-5
601.092	1	-5
601.262	1	0
601.432	1	2
601.602	1	12
601.771	1	4
601.941	1	7
602.111	1	-4
602.281	1	7
602.451	1	6
602.620	1	-1
602.790	1	-2
602.960	1	-11
603.130	1	1
603.299	1	2
603.469	1	2
603.639	1	-10
603.809	1	4
603.978	1	-10
604.148	1	2
604.318	1	1
604.487	1	5
604.657	1	-7
604.827	1	3
604.997	1	7
605.166	1	1
605.336	1	-4
605.506	1	-3
605.676	1	4
605.845	1	0
606.015	1	-9
606.185	1	-1
606.355	1	-5
606.524	1	-1
606.694	1	7
606.864	1	0
607.034	1	5
607.203	1	1
607.373	1	0
607.543	1	-3
607.712	1	10
607.882	1	-1
608.052	1	-3
608.222	1	5
608.391	1	7
608.561	1	-6
608.731	1	-11
608.901	1	4
609.070	1	-3
609.240	1	1
609.410	1	7
609.579	1	3
609.749	1	14
609.919	1	-3
610.089	1	-2
610.258	1	-3
610.428	1	7
610.598	1	-3
610.767	1	-2
610.937	1	-1
611.107	1	-3
611.277	1	2
611.446	1	2
611.616	1	11
611.786	1	3
611.955	1	-2
612.125	1	3
612.295	1	2
612.465	1	-4
612.634	1	3
612.804	1	4
612.974	1	-4
613.143	1	-4
613.313	1	4
613.483	1	5
613.652	1	-4
613.822	1	0
613.992	1	-7
614.162	1	4
614.331	1	-3
614.501	1	-8
614.671	1	3
614.840	1	4
615.010	1	7
615.180	1	1
615.349	1	-3
615.519	1	-3
615.689	1	-9
615.858	1	13
616.028	1	5
616.198	1	2
616.368	1	-1
616.537	1	-3
616.707	1	1
616.877	1	6
617.046	1	3
617.216	1	2
617.386	1	7
617.555	1	-14
617.725	1	5
617.895	1	-1
618.064	1	6
618.234	1	-2
618.404	1	-8
618.573	1	11
618.743	1	7
618.913	1	6
619.082	1	-6
619.252	1	6
619.422	1	-11
619.591	1	-2
619.761	1	4
619.931	1	6
620.100	1	14
620.270	1	6
620.440	1	6
620.609	1	6
620.779	1	6
620.949	1	1
621.118	1	13
621.288	1	-2
621.458	1	1
621.627	1	6
621.797	1	-4
621.967	1	9
622.136	1	0
622.306	1	4
622.476	1	-3
622.645	1	-6
622.815	1	-6
622.985	1	2
623.154	1	3
623.324	1	5
623.494	1	-2
623.663	1	-4
623.833	1	-1
624.002	1	-4
624.172	1	-8
624.342	1	9
624.511	1	0
624.681	1	1
624.851	1	-11
625.020	1	4
625.190	1	-3
625.360	1	-7
625.529	1	-6
625.699	1	-8
625.869	1	0
626.038	1	-2
626.208	1	6
626.377	1	-3
626.547	1	-5
626.717	1	-12
626.886	1	0
627.056	1	-8
627.226	1	6
627.395	1	-1
627.565	1	8
627.735	1	8
627.904	1	2
628.074	1	2
628.243	1	0
628.413	1	-7
628.583	1	5
628.752	1	-3
628.922	1	6
629.091	1	0
629.261	1	14
629.431	1	3
629.600	1	-3
629.770	1	4
629.940	1	-14
630.109	1	3
630.279	1	5
630.448	1	3
630.618	1	12
630.788	1	0
630.957	1	2
631.127	1	-2
631.297	1	-4
631.466	1	-2
631.636	1	0
631.805	1	6
631.975	1	0
632.145	1	7
632.314	1	-2
632.484	1	10
632.653	1	-6
632.823	1	0
632.993	1	6
633.162	1	-3
633.332	1	-10
633.501	1	-8
633.671	1	-5
633.841	1	6
634.010	1	13
634.180	1	13
634.349	1	9
634.519	1	3
634.689	1	-3
634.858	1	-8
635.028	1	-5
635.197	1	-5
635.367	1	0
635.537	1	10
635.706	1	1
635.876	1	10
636.045	1	-1
636.215	1	5
636.384	1	-7
636.554	1	3
636.724	1	-9
636.893	1	-1
637.063	1	1
637.232	1	4
637.402	1	0
637.572	1	4
637.741	1	7
637.911	1	-7
638.080	1	6
638.250	1	6
638.419	1	-4
638.589	1	4
638.759	1	1
638.928	1	15
639.098	1	5
639.267	1	3
639.437	1	6
639.606	1	7
639.776	1	-2
639.946	1	5
640.115	1	-9
640.285	1	8
640.454	1	6
640.624	1	1
640.793	1	1
640.963	1	9
641.132	1	3
641.302	1	3
641.472	1	-1
641.641	1	-5
641.811	1	-3
641.980	1	-4
642.150	1	-5
642.319	1	9
642.489	1	2
642.659	1	9
642.828	1	-8
642.998	1	6
643.167	1	-9
643.337	1	-5
643.506	1	2
643.676	1	3
643.845	1	9
644.015	1	3
644.184	1	-7
644.354	1	7
644.524	1	-7
644.693	1	4
644.863	1	11
645.032	1	2
645.202	1	-6
645.371	1	1
645.541	1	0
645.710	1	-3
645.880	1	-5
646.049	1	-12
646.219	1	-4
646.388	1	-1
646.558	1	0
646.728	1	-7
646.897	1	6
647.067	1	-2
647.236	1	10
647.406	1	7
647.575	1	2
647.745	1	8
647.914	1	-8
648.084	1	-6
648.253	1	-4
648.423	1	4
648.592	1	-6
648.762	1	8
648.931	1	3
649.101	1	-4
649.270	1	-1
649.440	1	4
649.610	1	1
649.779	1	-3
649.949	1	-3
650.118	1	8
650.288	1	-3
650.457	1	11
650.627	1	7
650.796	1	0
650.966	1	-14
651.135	1	2
651.305	1	-2
651.474	1	8
651.644	1	13
651.813	1	1
651.983	1	-1
652.152	1	0
652.322	1	2
652.491	1	7
652.661	1	-1
652.830	1	-1
653.000	1	5
653.169	1	9
653.339	1	8
653.508	1	-9
653.678	1	-2
653.847	1	-4
654.017	1	-3
654.186	1	3
654.356	1	0
654.525	1	-11
654.695	1	-3
654.864	1	-1
655.034	1	8
655.203	1	6
655.373	1	13
655.542	1	-6
655.712	1	-2
655.881	1	7
656.051	1	5
656.220	1	-7
656.390	1	4
656.559	1	-12
656.729	1	-1
656.898	1	-2
657.068	1	3
657.237	1	7
657.406	1	-6
657.576	1	-9
657.745	1	-2
657.915	1	-2
658.084	1	-14
658.254	1	2
658.423	1	1
658.593	1	13
658.762	1	11
658.932	1	-11
659.101	1	-14
659.271	1	6
659.440	1	0
659.610	1	-5
659.779	1	14
659.949	1	-4
660.118	1	11
660.288	1	-9
660.457	1	6
660.626	1	7
660.796	1	-4
660.965	1	5
661.135	1	-8
661.304	1	-3
661.474	1	-6
661.643	1	0
661.813	1	1
661.982	1	1
662.152	1	7
662.321	1	-1
662.491	1	-8
662.660	1	-1
662.829	1	4
662.999	1	6
663.168	1	2
663.338	1	5
663.507	1	5
663.677	1	7
663.846	1	-2
664.016	1	-1
664.185	1	-1
664.354	1	6
664.524	1	3
664.693	1	-3
664.863	1	-5
665.032	1	-1
665.202	1	-1
665.371	1	-5
665.541	1	13
665.710	1	-4
665.879	1	-3
666.049	1	-8
666.218	1	-6
666.388	1	4
666.557	1	4
666.727	1	2
666.896	1	8
667.065	1	-2
667.235	1	12
667.404	1	-1
667.574	1	2
667.743	1	-6
667.913	1	4
668.082	1	-6
668.251	1	-1
668.421	1	5
668.590	1	1
668.760	1	-2
668.929	1	7
669.099	1	-9
669.268	1	-9
669.437	1	-4
669.607	1	9
669.776	1	9
669.946	1	-1
670.115	1	-12
670.285	1	10
670.454	1	0
670.623	1	1
670.793	1	6
670.962	1	-9
671.132	1	-6
671.301	1	4
671.470	1	4
671.640	1	-1
671.809	1	-1
671.979	1	3
672.148	1	4
672.317	1	2
672.487	1	-1
672.656	1	-9
672.826	1	-4
672.995	1	1
673.164	1	-14
673.334	1	-1
673.503	1	-6
673.673	1	3
673.842	1	3
674.011	1	5
674.181	1	6
674.350	1	1
674.520	1	8
674.689	1	-8
674.858	1	-9
675.028	1	-3
675.197	1	2
675.367	1	-5
675.536	1	4
675.705	1	2
675.875	1	-7
676.044	1	-3
676.214	1	5
676.383	1	16
676.552	1	4
676.722	1	-3
676.891	1	-3
677.060	1	-4
677.230	1	-2
677.399	1	-13
677.569	1	5
677.738	1	8
677.907	1	-7
678.077	1	8
678.246	1	-5
678.416	1	8
678.585	1	-5
678.754	1	2
678.924	1	5
679.093	1	-1
679.262	1	3
679.432	1	-2
679.601	1	1
679.771	1	-2
679.940	1	2
680.109	1	-5
680.279	1	5
680.448	1	0
680.617	1	-5
680.787	1	-17
680.956	1	1
681.125	1	4
681.295	1	-5
681.464	1	-9
681.634	1	10
681.803	1	-2
681.972	1	3
682.142	1	-9
682.311	1	-1
682.480	1	2
682.650	1	6
682.819	1	-2
682.988	1	0
683.158	1	-6
683.327	1	12
683.496	1	2
683.666	1	8
683.835	1	-10
684.004	1	6
684.174	1	-5
684.343	1	7
684.512	1	-3
684.682	1	-1
684.851	1	-3
685.021	1	-7
685.190	1	9
685.359	1	-4
685.529	1	5
685.698	1	-10
685.867	1	7
686.037	1	2
686.206	1	-5
686.375	1	0
686.545	1	7
686.714	1	4
686.883	1	1
687.053	1	-2
687.222	1	-4
687.391	1	6
687.561	1	5
687.730	1	2
687.899	1	0
688.069	1	2
688.238	1	3
688.407	1	3
688.577	1	0
688.746	1	5
