340.368	1	8
340.539	1	8
340.710	1	1
340.881	1	11
341.052	1	-5
341.223	1	23
341.394	1	-5
341.565	1	1
341.737	1	11
341.908	1	-5
342.079	1	-7
342.250	1	-7
342.421	1	1
342.592	1	-1
342.763	1	0
342.934	1	-4
343.105	1	7
343.276	1	5
343.447	1	-6
343.618	1	-1
343.789	1	2
343.960	1	4
344.131	1	2
344.302	1	-6
344.473	1	-2
344.644	1	-7
344.815	1	-8
344.986	1	-2
345.157	1	9
345.328	1	-8
345.499	1	4
345.670	1	2
345.841	1	-5
346.012	1	3
346.183	1	13
346.354	1	5
346.526	1	-5
346.697	1	3
346.868	1	-6
347.039	1	-2
347.210	1	-9
347.381	1	5
347.552	1	6
347.723	1	7
347.894	1	3
348.065	1	16
348.236	1	9
348.407	1	-12
348.578	1	-2
348.749	1	-3
348.920	1	-1
349.091	1	0
349.262	1	-3
349.433	1	3
349.604	1	5
349.775	1	-3
349.946	1	4
350.117	1	0
350.288	1	11
350.459	1	-5
350.630	1	5
350.801	1	4
350.972	1	15
351.143	1	7
351.314	1	1
351.485	1	7
351.656	1	7
351.827	1	6
351.998	1	12
352.169	1	2
352.340	1	6
352.511	1	9
352.682	1	1
352.853	1	3
353.024	1	5
353.195	1	-2
353.366	1	7
353.537	1	2
353.708	1	3
353.879	1	-5
354.050	1	12
354.221	1	-7
354.392	1	5
354.563	1	16
354.734	1	3
354.905	1	8
355.076	1	5
355.247	1	6
355.418	1	8
355.589	1	1
355.760	1	9
355.931	1	9
356.102	1	-7
356.273	1	1
356.444	1	9
356.615	1	3
356.785	1	4
356.956	1	6
357.127	1	8
357.298	1	2
357.469	1	11
357.640	1	10
357.811	1	5
357.982	1	-1
358.153	1	14
358.324	1	18
358.495	1	0
358.666	1	11
358.837	1	14
359.008	1	13
359.179	1	6
359.350	1	9
359.521	1	14
359.692	1	2
359.863	1	7
360.034	1	18
360.205	1	3
360.376	1	6
360.547	1	-1
360.718	1	23
360.889	1	13
361.060	1	10
361.231	1	9
361.401	1	10
361.572	1	8
361.743	1	19
361.914	1	20
362.085	1	25
362.256	1	24
362.427	1	14
362.598	1	11
362.769	1	28
362.940	1	22
363.111	1	24
363.282	1	23
363.453	1	30
363.624	1	28
363.795	1	33
363.966	1	29
364.137	1	33
364.308	1	34
364.478	1	36
364.649	1	27
364.820	1	25
364.991	1	37
365.162	1	36
365.333	1	33
365.504	1	39
365.675	1	38
365.846	1	36
366.017	1	43
366.188	1	45
366.359	1	42
366.530	1	41
366.701	1	47
366.871	1	46
367.042	1	50
367.213	1	60
367.384	1	39
367.555	1	50
367.726	1	42
367.897	1	58
368.068	1	45
368.239	1	43
368.410	1	36
368.581	1	52
368.752	1	47
368.923	1	41
369.093	1	35
369.264	1	37
369.435	1	37
369.606	1	43
369.777	1	39
369.948	1	34
370.119	1	32
370.290	1	30
370.461	1	35
370.632	1	36
370.803	1	44
370.973	1	27
371.144	1	30
371.315	1	26
371.486	1	31
371.657	1	32
371.828	1	33
371.999	1	23
372.170	1	23
372.341	1	32
372.512	1	25
372.682	1	13
372.853	1	31
373.024	1	31
373.195	1	16
373.366	1	22
373.537	1	33
373.708	1	15
373.879	1	20
374.050	1	19
374.220	1	16
374.391	1	15
374.562	1	9
374.733	1	12
374.904	1	18
375.075	1	11
375.246	1	9
375.417	1	16
375.588	1	16
375.758	1	0
375.929	1	10
376.100	1	24
376.271	1	16
376.442	1	9
376.613	1	21
376.784	1	21
376.955	1	3
377.125	1	20
377.296	1	7
377.467	1	14
377.638	1	6
377.809	1	7
377.980	1	15
378.151	1	14
378.321	1	12
378.492	1	15
378.663	1	11
378.834	1	17
379.005	1	17
379.176	1	9
379.347	1	15
379.518	1	13
379.688	1	19
379.859	1	20
380.030	1	26
380.201	1	9
380.372	1	11
380.543	1	24
380.714	1	4
380.884	1	15
381.055	1	5
381.226	1	15
381.397	1	13
381.568	1	24
381.739	1	9
381.910	1	2
382.080	1	12
382.251	1	20
382.422	1	7
382.593	1	11
382.764	1	13
382.935	1	22
383.105	1	7
383.276	1	15
383.447	1	16
383.618	1	20
383.789	1	5
383.960	1	17
384.130	1	15
384.301	1	26
384.472	1	9
384.643	1	18
384.814	1	33
384.985	1	6
385.156	1	20
385.326	1	32
385.497	1	10
385.668	1	19
385.839	1	19
386.010	1	26
386.180	1	20
386.351	1	16
386.522	1	23
386.693	1	17
386.864	1	22
387.035	1	32
387.205	1	23
387.376	1	23
387.547	1	36
387.718	1	17
387.889	1	28
388.060	1	26
388.230	1	22
388.401	1	29
388.572	1	29
388.743	1	5
388.914	1	16
389.084	1	35
389.255	1	12
389.426	1	21
389.597	1	38
389.768	1	22
389.939	1	41
390.109	1	16
390.280	1	10
390.451	1	23
390.622	1	12
390.793	1	24
390.963	1	28
391.134	1	15
391.305	1	17
391.476	1	32
391.647	1	18
391.817	1	15
391.988	1	10
392.159	1	22
392.330	1	6
392.501	1	12
392.671	1	11
392.842	1	20
393.013	1	26
393.184	1	29
393.355	1	24
393.525	1	12
393.696	1	18
393.867	1	21
394.038	1	17
394.208	1	33
394.379	1	12
394.550	1	17
394.721	1	11
394.892	1	15
395.062	1	18
395.233	1	11
395.404	1	9
395.575	1	8
395.746	1	13
395.916	1	11
396.087	1	20
396.258	1	19
396.429	1	7
396.599	1	32
396.770	1	27
396.941	1	17
397.112	1	19
397.283	1	8
397.453	1	23
397.624	1	21
397.795	1	15
397.966	1	21
398.136	1	21
398.307	1	16
398.478	1	13
398.649	1	19
398.819	1	25
398.990	1	13
399.161	1	9
399.332	1	29
399.503	1	27
399.673	1	7
399.844	1	22
400.015	1	19
400.186	1	18
400.356	1	25
400.527	1	29
400.698	1	6
400.869	1	-5
401.039	1	7
401.210	1	23
401.381	1	7
401.552	1	11
401.722	1	24
401.893	1	15
402.064	1	16
402.235	1	-1
402.405	1	18
402.576	1	13
402.747	1	21
402.918	1	13
403.088	1	6
403.259	1	10
403.430	1	18
403.601	1	15
403.771	1	15
403.942	1	16
404.113	1	12
404.284	1	6
404.454	1	9
404.625	1	10
404.796	1	6
404.967	1	6
405.137	1	9
405.308	1	17
405.479	1	18
405.649	1	20
405.820	1	6
405.991	1	14
406.162	1	14
406.332	1	0
406.503	1	5
406.674	1	10
406.845	1	3
407.015	1	11
407.186	1	12
407.357	1	9
407.527	1	12
407.698	1	20
407.869	1	11
408.040	1	14
408.210	1	15
408.381	1	1
408.552	1	1
408.722	1	4
408.893	1	13
409.064	1	9
409.235	1	14
409.405	1	7
409.576	1	4
409.747	1	16
409.917	1	7
410.088	1	7
410.259	1	11
410.430	1	6
410.600	1	2
410.771	1	15
410.942	1	6
411.112	1	4
411.283	1	10
411.454	1	1
411.625	1	10
411.795	1	9
411.966	1	14
412.137	1	11
412.307	1	13
412.478	1	11
412.649	1	4
412.819	1	11
412.990	1	2
413.161	1	11
413.332	1	8
413.502	1	8
413.673	1	19
413.844	1	18
414.014	1	3
414.185	1	18
414.356	1	4
414.526	1	9
414.697	1	10
414.868	1	3
415.038	1	11
415.209	1	-4
415.380	1	10
415.550	1	10
415.721	1	4
415.892	1	5
416.063	1	17
416.233	1	8
416.404	1	4
416.575	1	9
416.745	1	1
416.916	1	13
417.087	1	9
417.257	1	16
417.428	1	0
417.599	1	12
417.769	1	3
417.940	1	7
418.111	1	5
418.281	1	3
418.452	1	2
418.623	1	4
418.793	1	16
418.964	1	13
419.135	1	11
419.305	1	4
419.476	1	10
419.647	1	9
419.817	1	11
419.988	1	-1
420.159	1	7
420.329	1	2
420.500	1	13
420.671	1	-2
420.841	1	14
421.012	1	-3
421.183	1	7
421.353	1	3
421.524	1	25
421.695	1	4
421.865	1	10
422.036	1	7
422.206	1	5
422.377	1	-3
422.548	1	12
422.718	1	-5
422.889	1	1
423.060	1	2
423.230	1	2
423.401	1	10
423.572	1	21
423.742	1	9
423.913	1	4
424.084	1	3
424.254	1	9
424.425	1	-8
424.595	1	-5
424.766	1	0
424.937	1	1
425.107	1	10
425.278	1	2
425.449	1	3
425.619	1	10
425.790	1	13
425.961	1	3
426.131	1	3
426.302	1	9
426.472	1	-4
426.643	1	-1
426.814	1	-7
426.984	1	8
427.155	1	-2
427.326	1	-5
427.496	1	-4
427.667	1	7
427.837	1	6
428.008	1	3
428.179	1	0
428.349	1	-9
428.520	1	9
428.691	1	3
428.861	1	5
429.032	1	-1
429.202	1	18
429.373	1	9
429.544	1	7
429.714	1	-6
429.885	1	2
430.055	1	9
430.226	1	3
430.397	1	5
430.567	1	8
430.738	1	-1
430.909	1	5
431.079	1	-6
431.250	1	-3
431.420	1	4
431.591	1	7
431.762	1	0
431.932	1	-9
432.103	1	8
432.273	1	14
432.444	1	-3
432.615	1	-7
432.785	1	1
432.956	1	11
433.126	1	8
433.297	1	8
433.468	1	-2
433.638	1	8
433.809	1	3
433.979	1	9
434.150	1	10
434.320	1	9
434.491	1	5
434.662	1	5
434.832	1	-6
435.003	1	8
435.173	1	13
435.344	1	4
435.515	1	2
435.685	1	14
435.856	1	-2
436.026	1	0
436.197	1	0
436.368	1	1
436.538	1	0
436.709	1	-7
436.879	1	3
437.050	1	14
437.220	1	-6
437.391	1	6
437.562	1	11
437.732	1	6
437.903	1	2
438.073	1	-1
438.244	1	5
438.414	1	12
438.585	1	-3
438.756	1	14
438.926	1	2
439.097	1	16
439.267	1	8
439.438	1	13
439.608	1	9
439.779	1	-2
439.949	1	-4
440.120	1	0
440.291	1	3
440.461	1	5
440.632	1	12
440.802	1	2
440.973	1	5
441.143	1	5
441.314	1	2
441.485	1	-3
441.655	1	0
441.826	1	-12
441.996	1	-4
442.167	1	7
442.337	1	-1
442.508	1	9
442.678	1	-7
442.849	1	-3
443.019	1	1
443.190	1	10
443.361	1	-3
443.531	1	1
443.702	1	-9
443.872	1	6
444.043	1	11
444.213	1	11
444.384	1	4
444.554	1	-4
444.725	1	8
444.895	1	0
445.066	1	-1
445.237	1	-1
445.407	1	2
445.578	1	14
445.748	1	-5
445.919	1	-3
446.089	1	10
446.260	1	-5
446.430	1	0
446.601	1	1
446.771	1	-3
446.942	1	-2
447.112	1	15
447.283	1	-5
447.453	1	8
447.624	1	-8
447.794	1	7
447.965	1	1
448.135	1	-4
448.306	1	1
448.477	1	7
448.647	1	2
448.818	1	-5
448.988	1	0
449.159	1	5
449.329	1	2
449.500	1	-1
449.670	1	8
449.841	1	0
450.011	1	-4
450.182	1	-8
450.352	1	5
450.523	1	5
450.693	1	5
450.864	1	7
451.034	1	15
451.205	1	0
451.375	1	-1
451.546	1	-9
451.716	1	11
451.887	1	-4
452.057	1	5
452.228	1	6
452.398	1	13
452.569	1	-12
452.739	1	10
452.910	1	6
453.080	1	4
453.251	1	0
453.421	1	-1
453.592	1	4
453.762	1	4
453.933	1	-6
454.103	1	-2
454.274	1	3
454.444	1	2
454.615	1	9
454.785	1	-1
454.956	1	7
455.126	1	6
455.297	1	1
455.467	1	-6
455.638	1	6
455.808	1	3
455.979	1	4
456.149	1	7
456.320	1	11
456.490	1	4
456.661	1	-6
456.831	1	7
457.001	1	5
457.172	1	6
457.342	1	8
457.513	1	6
457.683	1	2
457.854	1	8
458.024	1	-10
458.195	1	2
458.365	1	14
458.536	1	-4
458.706	1	13
458.877	1	0
459.047	1	12
459.218	1	-1
459.388	1	16
459.559	1	2
459.729	1	7
459.899	1	3
460.070	1	1
460.240	1	4
460.411	1	-2
460.581	1	6
460.752	1	2
460.922	1	15
461.093	1	-3
461.263	1	0
461.434	1	5
461.604	1	7
461.775	1	4
461.945	1	6
462.115	1	10
462.286	1	-3
462.456	1	0
462.627	1	4
462.797	1	-10
462.968	1	-5
463.138	1	-1
463.309	1	3
463.479	1	5
463.649	1	5
463.820	1	6
463.990	1	7
464.161	1	3
464.331	1	10
464.502	1	10
464.672	1	-14
464.843	1	4
465.013	1	-3
465.183	1	0
465.354	1	7
465.524	1	-5
465.695	1	7
465.865	1	-1
466.036	1	9
466.206	1	4
466.376	1	-3
466.547	1	-11
466.717	1	2
466.888	1	-1
467.058	1	6
467.229	1	5
467.399	1	3
467.569	1	13
467.740	1	3
467.910	1	0
468.081	1	-3
468.251	1	1
468.422	1	1
468.592	1	2
468.762	1	-1
468.933	1	4
469.103	1	-5
469.274	1	2
469.444	1	9
469.614	1	7
469.785	1	12
469.955	1	4
470.126	1	5
470.296	1	1
470.467	1	-7
470.637	1	14
470.807	1	15
470.978	1	7
471.148	1	-3
471.319	1	3
471.489	1	-10
471.659	1	7
471.830	1	7
472.000	1	5
472.171	1	0
472.341	1	-8
472.511	1	10
472.682	1	-1
472.852	1	-2
473.023	1	8
473.193	1	2
473.363	1	0
473.534	1	-3
473.704	1	-1
473.875	1	-9
474.045	1	1
474.215	1	15
474.386	1	3
474.556	1	5
474.727	1	-4
474.897	1	-3
475.067	1	-12
475.238	1	-5
475.408	1	-12
475.578	1	10
475.749	1	2
475.919	1	2
476.090	1	-3
476.260	1	-1
476.430	1	12
476.601	1	5
476.771	1	6
476.942	1	4
477.112	1	-5
477.282	1	3
477.453	1	-2
477.623	1	5
477.793	1	6
477.964	1	5
478.134	1	4
478.305	1	2
478.475	1	0
478.645	1	4
478.816	1	5
478.986	1	2
479.156	1	-1
479.327	1	-5
479.497	1	12
479.667	1	15
479.838	1	-10
480.008	1	-2
480.179	1	-7
480.349	1	-1
480.519	1	-11
480.690	1	-2
480.860	1	4
481.030	1	10
481.201	1	-8
481.371	1	7
481.541	1	12
481.712	1	1
481.882	1	-1
482.053	1	3
482.223	1	3
482.393	1	-1
482.564	1	3
482.734	1	8
482.904	1	6
483.075	1	1
483.245	1	8
483.415	1	5
483.586	1	3
483.756	1	0
483.926	1	-4
484.097	1	9
484.267	1	-3
484.437	1	13
484.608	1	6
484.778	1	2
484.948	1	6
485.119	1	7
485.289	1	-2
485.459	1	1
485.630	1	4
485.800	1	4
485.970	1	-1
486.141	1	3
486.311	1	-2
486.481	1	9
486.652	1	-6
486.822	1	2
486.992	1	13
487.163	1	-1
487.333	1	6
487.503	1	4
487.674	1	-3
487.844	1	1
488.014	1	13
488.185	1	3
488.355	1	-3
488.525	1	9
488.696	1	1
488.866	1	2
489.036	1	0
489.207	1	-7
489.377	1	4
489.547	1	1
489.718	1	8
489.888	1	6
490.058	1	12
490.228	1	9
490.399	1	6
490.569	1	9
490.739	1	7
490.910	1	-10
491.080	1	3
491.250	1	8
491.421	1	2
491.591	1	-1
491.761	1	1
491.932	1	6
492.102	1	-4
492.272	1	7
492.442	1	12
492.613	1	2
492.783	1	4
492.953	1	6
493.124	1	13
493.294	1	13
493.464	1	13
493.635	1	5
493.805	1	12
493.975	1	2
494.145	1	3
494.316	1	0
494.486	1	-1
494.656	1	4
494.827	1	6
494.997	1	4
495.167	1	2
495.337	1	1
495.508	1	7
495.678	1	10
495.848	1	6
496.019	1	3
496.189	1	8
496.359	1	3
496.529	1	3
496.700	1	0
496.870	1	12
497.040	1	1
497.211	1	1
497.381	1	1
497.551	1	4
497.721	1	2
497.892	1	7
498.062	1	7
498.232	1	18
498.403	1	6
498.573	1	17
498.743	1	11
498.913	1	11
499.084	1	8
499.254	1	9
499.424	1	4
499.594	1	3
499.765	1	19
499.935	1	-5
500.105	1	12
500.275	1	12
500.446	1	6
500.616	1	4
500.786	1	13
500.956	1	11
501.127	1	1
501.297	1	9
501.467	1	10
501.638	1	9
501.808	1	7
501.978	1	7
502.148	1	3
502.319	1	25
502.489	1	9
502.659	1	16
502.829	1	13
503.000	1	4
503.170	1	12
503.340	1	13
503.510	1	5
503.681	1	-1
503.851	1	7
504.021	1	12
504.191	1	8
504.362	1	7
504.532	1	18
504.702	1	12
504.872	1	13
505.042	1	4
505.213	1	9
505.383	1	12
505.553	1	14
505.723	1	12
505.894	1	7
506.064	1	8
506.234	1	13
506.404	1	10
506.575	1	-1
506.745	1	21
506.915	1	12
507.085	1	-4
507.256	1	6
507.426	1	5
507.596	1	7
507.766	1	17
507.936	1	7
508.107	1	23
508.277	1	9
508.447	1	11
508.617	1	0
508.788	1	23
508.958	1	8
509.128	1	11
509.298	1	12
509.468	1	13
509.639	1	7
509.809	1	14
509.979	1	17
510.149	1	17
510.319	1	7
510.490	1	1
510.660	1	14
510.830	1	9
511.000	1	12
511.171	1	13
511.341	1	19
511.511	1	16
511.681	1	17
511.851	1	19
512.022	1	-3
512.192	1	11
512.362	1	14
512.532	1	1
512.702	1	12
512.873	1	19
513.043	1	18
513.213	1	22
513.383	1	3
513.553	1	9
513.724	1	4
513.894	1	7
514.064	1	18
514.234	1	16
514.404	1	18
514.575	1	10
514.745	1	8
514.915	1	-7
515.085	1	12
515.255	1	16
515.425	1	6
515.596	1	11
515.766	1	16
515.936	1	18
516.106	1	17
516.276	1	19
516.447	1	18
516.617	1	14
516.787	1	10
516.957	1	15
517.127	1	12
517.297	1	18
517.468	1	5
517.638	1	5
517.808	1	11
517.978	1	21
518.148	1	9
518.319	1	16
518.489	1	15
518.659	1	14
518.829	1	15
518.999	1	16
519.169	1	4
519.340	1	15
519.510	1	8
519.680	1	19
519.850	1	17
520.020	1	14
520.190	1	15
520.361	1	17
520.531	1	19
520.701	1	6
520.871	1	15
521.041	1	23
521.211	1	16
521.382	1	12
521.552	1	12
521.722	1	19
521.892	1	7
522.062	1	17
522.232	1	23
522.402	1	24
522.573	1	15
522.743	1	13
522.913	1	13
523.083	1	19
523.253	1	16
523.423	1	13
523.593	1	12
523.764	1	12
523.934	1	21
524.104	1	7
524.274	1	9
524.444	1	15
524.614	1	22
524.784	1	9
524.955	1	22
525.125	1	12
525.295	1	12
525.465	1	19
525.635	1	17
525.805	1	18
525.975	1	10
526.146	1	15
526.316	1	14
526.486	1	26
526.656	1	19
526.826	1	24
526.996	1	24
527.166	1	7
527.337	1	18
527.507	1	28
527.677	1	28
527.847	1	20
528.017	1	19
528.187	1	15
528.357	1	28
528.527	1	32
528.698	1	10
528.868	1	20
529.038	1	17
529.208	1	6
529.378	1	20
529.548	1	14
529.718	1	25
529.888	1	23
530.058	1	20
530.229	1	27
530.399	1	13
530.569	1	13
530.739	1	22
530.909	1	15
531.079	1	5
531.249	1	15
531.419	1	15
531.589	1	13
531.760	1	9
531.930	1	23
532.100	1	9
532.270	1	19
532.440	1	18
532.610	1	26
532.780	1	14
532.950	1	14
533.120	1	23
533.290	1	17
533.461	1	16
533.631	1	22
533.801	1	28
533.971	1	16
534.141	1	14
534.311	1	28
534.481	1	18
534.651	1	9
534.821	1	20
534.991	1	15
535.162	1	16
535.332	1	20
535.502	1	15
535.672	1	22
535.842	1	15
536.012	1	17
536.182	1	25
536.352	1	11
536.522	1	1
536.692	1	15
536.862	1	16
537.032	1	12
537.203	1	22
537.373	1	20
537.543	1	10
537.713	1	13
537.883	1	8
538.053	1	18
538.223	1	9
538.393	1	25
538.563	1	26
538.733	1	23
538.903	1	11
539.073	1	7
539.243	1	15
539.413	1	12
539.584	1	16
539.754	1	17
539.924	1	16
540.094	1	26
540.264	1	11
540.434	1	20
540.604	1	15
540.774	1	21
540.944	1	9
541.114	1	7
541.284	1	8
541.454	1	22
541.624	1	19
541.794	1	12
541.964	1	10
542.134	1	27
542.305	1	18
542.475	1	11
542.645	1	13
542.815	1	2
542.985	1	13
543.155	1	-3
543.325	1	20
543.495	1	28
543.665	1	14
543.835	1	5
544.005	1	8
544.175	1	14
544.345	1	4
544.515	1	17
544.685	1	22
544.855	1	12
545.025	1	12
545.195	1	15
545.365	1	22
545.535	1	13
545.705	1	28
545.875	1	16
546.045	1	12
546.216	1	-4
546.386	1	12
546.556	1	15
546.726	1	15
546.896	1	8
547.066	1	23
547.236	1	15
547.406	1	8
547.576	1	18
547.746	1	23
547.916	1	16
548.086	1	16
548.256	1	12
548.426	1	18
548.596	1	16
548.766	1	20
548.936	1	21
549.106	1	22
549.276	1	25
549.446	1	4
549.616	1	12
549.786	1	8
549.956	1	9
550.126	1	8
550.296	1	15
550.466	1	27
550.636	1	13
550.806	1	19
550.976	1	20
551.146	1	7
551.316	1	16
551.486	1	14
551.656	1	15
551.826	1	22
551.996	1	7
552.166	1	15
552.336	1	6
552.506	1	20
552.676	1	15
552.846	1	11
553.016	1	23
553.186	1	13
553.356	1	13
553.526	1	8
553.696	1	22
553.866	1	22
554.036	1	15
554.206	1	9
554.376	1	7
554.546	1	13
554.716	1	15
554.886	1	20
555.056	1	13
555.226	1	15
555.396	1	14
555.566	1	15
555.736	1	19
555.906	1	23
556.076	1	16
556.246	1	6
556.416	1	-3
556.586	1	5
556.756	1	1
556.926	1	17
557.096	1	12
557.266	1	11
557.436	1	14
557.606	1	9
557.776	1	13
557.946	1	20
558.116	1	7
558.286	1	15
558.456	1	9
558.626	1	-6
558.796	1	6
558.966	1	13
559.136	1	-1
559.306	1	20
559.476	1	14
559.646	1	11
559.816	1	14
559.986	1	7
560.155	1	17
560.325	1	6
560.495	1	11
560.665	1	1
560.835	1	13
561.005	1	10
561.175	1	7
561.345	1	4
561.515	1	13
561.685	1	2
561.855	1	11
562.025	1	9
562.195	1	8
562.365	1	13
562.535	1	22
562.705	1	4
562.875	1	10
563.045	1	5
563.215	1	10
563.385	1	4
563.555	1	5
563.725	1	12
563.895	1	11
564.064	1	6
564.234	1	8
564.404	1	14
564.574	1	26
564.744	1	10
564.914	1	5
565.084	1	6
565.254	1	11
565.424	1	12
565.594	1	5
565.764	1	2
565.934	1	16
566.104	1	12
566.274	1	22
566.444	1	-3
566.614	1	6
566.783	1	3
566.953	1	10
567.123	1	9
567.293	1	-4
567.463	1	10
567.633	1	8
567.803	1	16
567.973	1	7
568.143	1	8
568.313	1	11
568.483	1	11
568.653	1	2
568.823	1	4
568.993	1	2
569.162	1	-1
569.332	1	11
569.502	1	17
569.672	1	5
569.842	1	4
570.012	1	14
570.182	1	3
570.352	1	13
570.522	1	17
570.692	1	14
570.862	1	2
571.031	1	-3
571.201	1	12
571.371	1	9
571.541	1	15
571.711	1	9
571.881	1	16
572.051	1	14
572.221	1	14
572.391	1	16
572.561	1	7
572.731	1	1
572.900	1	-6
573.070	1	9
573.240	1	4
573.410	1	1
573.580	1	0
573.750	1	14
573.920	1	7
574.090	1	6
574.260	1	1
574.430	1	0
574.599	1	8
574.769	1	7
574.939	1	9
575.109	1	6
575.279	1	10
575.449	1	17
575.619	1	11
575.789	1	4
575.959	1	6
576.128	1	-10
576.298	1	0
576.468	1	10
576.638	1	-4
576.808	1	2
576.978	1	8
577.148	1	8
577.318	1	22
577.487	1	13
577.657	1	6
577.827	1	1
577.997	1	7
578.167	1	7
578.337	1	-3
578.507	1	7
578.677	1	2
578.846	1	14
579.016	1	1
579.186	1	3
579.356	1	13
579.526	1	-5
579.696	1	11
579.866	1	0
580.036	1	13
580.205	1	-2
580.375	1	16
580.545	1	7
580.715	1	3
580.885	1	8
581.055	1	10
581.225	1	7
581.394	1	-4
581.564	1	0
581.734	1	-5
581.904	1	7
582.074	1	2
582.244	1	10
582.414	1	4
582.583	1	6
582.753	1	12
582.923	1	-2
583.093	1	4
583.263	1	6
583.433	1	15
583.603	1	-6
583.772	1	-11
583.942	1	10
584.112	1	0
584.282	1	0
584.452	1	6
584.622	1	6
584.791	1	0
584.961	1	-4
585.131	1	7
585.301	1	4
585.471	1	-5
585.641	1	-4
585.811	1	10
585.980	1	4
586.150	1	-4
586.320	1	2
586.490	1	15
586.660	1	11
586.830	1	-10
586.999	1	-4
587.169	1	6
587.339	1	6
587.509	1	8
587.679	1	-3
587.849	1	10
588.018	1	-9
588.188	1	8
588.358	1	0
588.528	1	5
588.698	1	-6
588.867	1	-10
589.037	1	0
589.207	1	11
589.377	1	7
589.547	1	4
589.717	1	-3
589.886	1	-2
590.056	1	10
590.226	1	-8
590.396	1	3
590.566	1	-6
590.735	1	-4
590.905	1	7
591.075	1	-3
591.245	1	7
591.415	1	9
591.585	1	9
591.754	1	14
591.924	1	16
592.094	1	-3
592.264	1	-5
592.434	1	-2
592.603	1	7
592.773	1	3
592.943	1	11
593.113	1	6
593.283	1	-4
593.452	1	-6
593.622	1	5
593.792	1	17
593.962	1	1
594.132	1	-2
594.301	1	4
594.471	1	-1
594.641	1	6
594.811	1	-5
594.981	1	4
595.150	1	1
595.320	1	0
595.490	1	14
595.660	1	5
595.829	1	1
595.999	1	4
596.169	1	12
596.339	1	9
596.509	1	-3
596.678	1	5
596.848	1	7
597.018	1	9
597.188	1	3
597.358	1	3
597.527	1	1
597.697	1	-2
597.867	1	11
598.037	1	5
598.206	1	13
598.376	1	2
598.546	1	10
598.716	1	-14
598.885	1	12
599.055	1	6
599.225	1	-1
599.395	1	7
599.565	1	4
599.734	1	8
599.904	1	-3
600.074	1	9
600.244	1	2
600.413	1	5
600.583	1	-2
600.753	1	7
600.923	1	7
601.092	1	12
601.262	1	7
601.432	1	-1
601.602	1	22
601.771	1	2
601.941	1	18
602.111	1	3
602.281	1	0
602.451	1	-6
602.620	1	12
602.790	1	5
602.960	1	-15
603.130	1	-3
603.299	1	3
603.469	1	11
603.639	1	-13
603.809	1	10
603.978	1	-12
604.148	1	2
604.318	1	-1
604.487	1	10
604.657	1	-5
604.827	1	12
604.997	1	14
605.166	1	-5
605.336	1	-1
605.506	1	-3
605.676	1	6
605.845	1	9
606.015	1	-5
606.185	1	5
606.355	1	-7
606.524	1	1
606.694	1	7
606.864	1	0
607.034	1	11
607.203	1	18
607.373	1	5
607.543	1	4
607.712	1	0
607.882	1	0
608.052	1	-3
608.222	1	9
608.391	1	15
608.561	1	3
608.731	1	-4
608.901	1	7
609.070	1	-7
609.240	1	0
609.410	1	2
609.579	1	2
609.749	1	7
609.919	1	-1
610.089	1	5
610.258	1	-1
610.428	1	7
610.598	1	6
610.767	1	3
610.937	1	0
611.107	1	-2
611.277	1	-5
611.446	1	0
611.616	1	6
611.786	1	2
611.955	1	5
612.125	1	4
612.295	1	10
612.465	1	1
612.634	1	9
612.804	1	8
612.974	1	-4
613.143	1	2
613.313	1	1
613.483	1	5
613.652	1	-3
613.822	1	9
613.992	1	1
614.162	1	2
614.331	1	7
614.501	1	-7
614.671	1	1
614.840	1	1
615.010	1	2
615.180	1	7
615.349	1	7
615.519	1	8
615.689	1	-1
615.858	1	12
616.028	1	16
616.198	1	-1
616.368	1	-5
616.537	1	-1
616.707	1	3
616.877	1	5
617.046	1	18
617.216	1	5
617.386	1	8
617.555	1	7
617.725	1	15
617.895	1	-1
618.064	1	-1
618.234	1	-6
618.404	1	-5
618.573	1	10
618.743	1	19
618.913	1	14
619.082	1	3
619.252	1	3
619.422	1	0
619.591	1	2
619.761	1	0
619.931	1	4
620.100	1	12
620.270	1	3
620.440	1	8
620.609	1	10
620.779	1	7
620.949	1	1
621.118	1	2
621.288	1	12
621.458	1	0
621.627	1	5
621.797	1	1
621.967	1	3
622.136	1	3
622.306	1	2
622.476	1	-8
622.645	1	9
622.815	1	-3
622.985	1	4
623.154	1	1
623.324	1	0
623.494	1	-7
623.663	1	10
623.833	1	5
624.002	1	2
624.172	1	2
624.342	1	12
624.511	1	3
624.681	1	3
624.851	1	-1
625.020	1	1
625.190	1	-1
625.360	1	-5
625.529	1	-5
625.699	1	3
625.869	1	0
626.038	1	-1
626.208	1	6
626.377	1	3
626.547	1	-7
626.717	1	-11
626.886	1	7
627.056	1	-1
627.226	1	-2
627.395	1	-4
627.565	1	16
627.735	1	5
627.904	1	16
628.074	1	3
628.243	1	0
628.413	1	-1
628.583	1	0
628.752	1	-4
628.922	1	-1
629.091	1	5
629.261	1	6
629.431	1	7
629.600	1	3
629.770	1	4
629.940	1	-14
630.109	1	5
630.279	1	5
630.448	1	4
630.618	1	9
630.788	1	1
630.957	1	8
631.127	1	1
631.297	1	-6
631.466	1	0
631.636	1	8
631.805	1	4
631.975	1	-3
632.145	1	-2
632.314	1	-3
632.484	1	10
632.653	1	0
632.823	1	2
632.993	1	-4
633.162	1	2
633.332	1	1
633.501	1	2
633.671	1	-7
633.841	1	-1
634.010	1	14
634.180	1	7
634.349	1	9
634.519	1	12
634.689	1	10
634.858	1	-13
635.028	1	-1
635.197	1	-7
635.367	1	8
635.537	1	9
635.706	1	11
635.876	1	3
636.045	1	6
636.215	1	11
636.384	1	9
636.554	1	4
636.724	1	-2
636.893	1	0
637.063	1	2
637.232	1	0
637.402	1	-7
637.572	1	6
637.741	1	2
637.911	1	-5
638.080	1	-2
638.250	1	5
638.419	1	-3
638.589	1	6
638.759	1	8
638.928	1	2
639.098	1	-8
639.267	1	5
639.437	1	11
639.606	1	11
639.776	1	10
639.946	1	7
640.115	1	5
640.285	1	11
640.454	1	2
640.624	1	8
640.793	1	1
640.963	1	-10
641.132	1	12
641.302	1	3
641.472	1	9
641.641	1	4
641.811	1	0
641.980	1	1
642.150	1	1
642.319	1	1
642.489	1	-1
642.659	1	-2
642.828	1	2
642.998	1	8
643.167	1	2
643.337	1	-4
643.506	1	8
643.676	1	-9
643.845	1	4
644.015	1	7
644.184	1	-7
644.354	1	1
644.524	1	-7
644.693	1	4
644.863	1	0
645.032	1	7
645.202	1	2
645.371	1	0
645.541	1	0
645.710	1	7
645.880	1	-9
646.049	1	4
646.219	1	-4
646.388	1	8
646.558	1	4
646.728	1	2
646.897	1	10
647.067	1	-9
647.236	1	11
647.406	1	6
647.575	1	13
647.745	1	9
647.914	1	-3
648.084	1	-5
648.253	1	-4
648.423	1	4
648.592	1	-10
648.762	1	4
648.931	1	2
649.101	1	2
649.270	1	0
649.440	1	13
649.610	1	2
649.779	1	3
649.949	1	3
650.118	1	-1
650.288	1	7
650.457	1	3
650.627	1	8
650.796	1	4
650.966	1	-11
651.135	1	-2
651.305	1	-3
651.474	1	4
651.644	1	6
651.813	1	9
651.983	1	-1
652.152	1	4
652.322	1	-3
652.491	1	5
652.661	1	-2
652.830	1	9
653.000	1	0
653.169	1	9
653.339	1	8
653.508	1	-4
653.678	1	-2
653.847	1	4
654.017	1	8
654.186	1	1
654.356	1	3
654.525	1	-1
654.695	1	3
654.864	1	-3
655.034	1	-1
655.203	1	3
655.373	1	5
655.542	1	3
655.712	1	1
655.881	1	7
656.051	1	3
656.220	1	8
656.390	1	2
656.559	1	-8
656.729	1	8
656.898	1	2
657.068	1	3
657.237	1	11
657.406	1	5
657.576	1	-6
657.745	1	0
657.915	1	3
658.084	1	1
658.254	1	-2
658.423	1	11
658.593	1	11
658.762	1	7
658.932	1	-3
659.101	1	-9
659.271	1	2
659.440	1	5
659.610	1	-7
659.779	1	11
659.949	1	2
660.118	1	-1
660.288	1	2
660.457	1	10
660.626	1	6
660.796	1	8
660.965	1	3
661.135	1	-5
661.304	1	1
661.474	1	2
661.643	1	6
661.813	1	-5
661.982	1	3
662.152	1	2
662.321	1	-6
662.491	1	7
662.660	1	-1
662.829	1	8
662.999	1	-1
663.168	1	6
663.338	1	8
663.507	1	4
663.677	1	5
663.846	1	4
664.016	1	-6
664.185	1	3
664.354	1	10
664.524	1	8
664.693	1	-2
664.863	1	-3
665.032	1	0
665.202	1	5
665.371	1	2
665.541	1	7
665.710	1	-1
665.879	1	8
666.049	1	-1
666.218	1	-9
666.388	1	16
666.557	1	9
666.727	1	-1
666.896	1	3
667.065	1	-2
667.235	1	13
667.404	1	4
667.574	1	2
667.743	1	-5
667.913	1	6
668.082	1	-3
668.251	1	10
668.421	1	6
668.590	1	-3
668.760	1	9
668.929	1	9
669.099	1	1
669.268	1	-2
669.437	1	10
669.607	1	8
669.776	1	5
669.946	1	-7
670.115	1	-11
670.285	1	9
670.454	1	-2
670.623	1	-2
670.793	1	6
670.962	1	4
671.132	1	4
671.301	1	-1
671.470	1	-4
671.640	1	-4
671.809	1	0
671.979	1	10
672.148	1	7
672.317	1	-3
672.487	1	-3
672.656	1	-10
672.826	1	3
672.995	1	14
673.164	1	-13
673.334	1	6
673.503	1	-3
673.673	1	0
673.842	1	7
674.011	1	14
674.181	1	9
674.350	1	4
674.520	1	-2
674.689	1	-11
674.858	1	-3
675.028	1	14
675.197	1	10
675.367	1	-9
675.536	1	-2
675.705	1	10
675.875	1	2
676.044	1	2
676.214	1	-4
676.383	1	9
676.552	1	11
676.722	1	5
676.891	1	-2
677.060	1	-10
677.230	1	7
677.399	1	-6
677.569	1	19
677.738	1	9
677.907	1	-8
678.077	1	4
678.246	1	3
678.416	1	11
678.585	1	-5
678.754	1	7
678.924	1	7
679.093	1	3
679.262	1	-2
679.432	1	9
679.601	1	-1
679.771	1	11
679.940	1	9
680.109	1	0
680.279	1	9
680.448	1	0
680.617	1	-8
680.787	1	-6
680.956	1	2
681.125	1	9
681.295	1	1
681.464	1	-2
681.634	1	4
681.803	1	0
681.972	1	-5
682.142	1	-2
682.311	1	4
682.480	1	2
682.650	1	7
682.819	1	7
682.988	1	7
683.158	1	2
683.327	1	6
683.496	1	2
683.666	1	1
683.835	1	-1
684.004	1	6
684.174	1	-1
684.343	1	-2
684.512	1	11
684.682	1	5
684.851	1	10
685.021	1	-9
685.190	1	-1
685.359	1	-18
685.529	1	1
685.698	1	6
685.867	1	8
686.037	1	8
686.206	1	4
686.375	1	7
686.545	1	10
686.714	1	-1
686.883	1	11
687.053	1	3
687.222	1	-6
687.391	1	15
687.561	1	15
687.730	1	7
687.899	1	-4
688.069	1	10
688.238	1	5
688.407	1	13
688.577	1	2
688.746	1	10
