340.368	1	8
340.539	1	9
340.710	1	-3
340.881	1	4
341.052	1	-11
341.223	1	6
341.394	1	-8
341.565	1	14
341.737	1	2
341.908	1	-7
342.079	1	-15
342.250	1	-2
342.421	1	6
342.592	1	7
342.763	1	6
342.934	1	2
343.105	1	5
343.276	1	1
343.447	1	-7
343.618	1	1
343.789	1	2
343.960	1	-4
344.131	1	1
344.302	1	-12
344.473	1	0
344.644	1	0
344.815	1	4
344.986	1	5
345.157	1	-7
345.328	1	-1
345.499	1	-2
345.670	1	-12
345.841	1	2
346.012	1	-4
346.183	1	16
346.354	1	7
346.526	1	0
346.697	1	0
346.868	1	-8
347.039	1	-3
347.210	1	-3
347.381	1	5
347.552	1	-3
347.723	1	0
347.894	1	-1
348.065	1	11
348.236	1	6
348.407	1	-3
348.578	1	3
348.749	1	-9
348.920	1	-4
349.091	1	4
349.262	1	-2
349.433	1	-4
349.604	1	8
349.775	1	-2
349.946	1	-4
350.117	1	1
350.288	1	10
350.459	1	-4
350.630	1	6
350.801	1	2
350.972	1	-7
351.143	1	6
351.314	1	-7
351.485	1	5
351.656	1	-2
351.827	1	1
351.998	1	0
352.169	1	-6
352.340	1	3
352.511	1	3
352.682	1	10
352.853	1	-1
353.024	1	0
353.195	1	-9
353.366	1	3
353.537	1	2
353.708	1	4
353.879	1	-8
354.050	1	-7
354.221	1	-3
354.392	1	7
354.563	1	14
354.734	1	-6
354.905	1	12
355.076	1	10
355.247	1	5
355.418	1	3
355.589	1	-4
355.760	1	6
355.931	1	-4
356.102	1	-3
356.273	1	0
356.444	1	4
356.615	1	0
356.785	1	7
356.956	1	7
357.127	1	2
357.298	1	4
357.469	1	4
357.640	1	-3
357.811	1	-2
357.982	1	3
358.153	1	5
358.324	1	14
358.495	1	-4
358.666	1	-3
358.837	1	7
359.008	1	6
359.179	1	6
359.350	1	-3
359.521	1	8
359.692	1	0
359.863	1	4
360.034	1	5
360.205	1	-4
360.376	1	6
360.547	1	-5
360.718	1	18
360.889	1	1
361.060	1	6
361.231	1	0
361.401	1	9
361.572	1	5
361.743	1	14
361.914	1	6
362.085	1	6
362.256	1	6
362.427	1	-2
362.598	1	2
362.769	1	4
362.940	1	5
363.111	1	13
363.282	1	7
363.453	1	-3
363.624	1	9
363.795	1	9
363.966	1	14
364.137	1	7
364.308	1	13
364.478	1	8
364.649	1	11
364.820	1	1
364.991	1	15
365.162	1	10
365.333	1	6
365.504	1	2
365.675	1	1
365.846	1	2
366.017	1	9
366.188	1	8
366.359	1	7
366.530	1	14
366.701	1	13
366.871	1	12
367.042	1	23
367.213	1	19
367.384	1	11
367.555	1	13
367.726	1	15
367.897	1	13
368.068	1	12
368.239	1	10
368.410	1	2
368.581	1	8
368.752	1	21
368.923	1	17
369.093	1	18
369.264	1	3
369.435	1	7
369.606	1	12
369.777	1	16
369.948	1	15
370.119	1	8
370.290	1	15
370.461	1	14
370.632	1	20
370.803	1	17
370.973	1	-2
371.144	1	7
371.315	1	4
371.486	1	1
371.657	1	-7
371.828	1	11
371.999	1	1
372.170	1	5
372.341	1	5
372.512	1	4
372.682	1	7
372.853	1	4
373.024	1	7
373.195	1	6
373.366	1	-4
373.537	1	10
373.708	1	5
373.879	1	-2
374.050	1	3
374.220	1	3
374.391	1	9
374.562	1	0
374.733	1	6
374.904	1	7
375.075	1	10
375.246	1	-3
375.417	1	4
375.588	1	15
375.758	1	-7
375.929	1	0
376.100	1	-1
376.271	1	6
376.442	1	5
376.613	1	3
376.784	1	14
376.955	1	-2
377.125	1	8
377.296	1	-6
377.467	1	10
377.638	1	6
377.809	1	5
377.980	1	13
378.151	1	8
378.321	1	9
378.492	1	5
378.663	1	-1
378.834	1	21
379.005	1	9
379.176	1	2
379.347	1	2
379.518	1	6
379.688	1	5
379.859	1	7
380.030	1	11
380.201	1	22
380.372	1	5
380.543	1	11
380.714	1	-10
380.884	1	-4
381.055	1	5
381.226	1	12
381.397	1	10
381.568	1	8
381.739	1	4
381.910	1	2
382.080	1	1
382.251	1	-1
382.422	1	3
382.593	1	12
382.764	1	-6
382.935	1	0
383.105	1	0
383.276	1	10
383.447	1	6
383.618	1	7
383.789	1	-1
383.960	1	7
384.130	1	-4
384.301	1	9
384.472	1	2
384.643	1	0
384.814	1	6
384.985	1	6
385.156	1	12
385.326	1	9
385.497	1	6
385.668	1	4
385.839	1	14
386.010	1	9
386.180	1	6
386.351	1	2
386.522	1	5
386.693	1	11
386.864	1	17
387.035	1	13
387.205	1	9
387.376	1	8
387.547	1	17
387.718	1	11
387.889	1	9
388.060	1	16
388.230	1	10
388.401	1	6
388.572	1	8
388.743	1	4
388.914	1	4
389.084	1	8
389.255	1	4
389.426	1	5
389.597	1	4
389.768	1	17
389.939	1	4
390.109	1	4
390.280	1	-1
390.451	1	3
390.622	1	12
390.793	1	11
390.963	1	9
391.134	1	-2
391.305	1	2
391.476	1	12
391.647	1	1
391.817	1	7
391.988	1	-4
392.159	1	14
392.330	1	-2
392.501	1	3
392.671	1	9
392.842	1	14
393.013	1	9
393.184	1	4
393.355	1	14
393.525	1	10
393.696	1	-7
393.867	1	14
394.038	1	5
394.208	1	0
394.379	1	6
394.550	1	10
394.721	1	9
394.892	1	7
395.062	1	11
395.233	1	3
395.404	1	14
395.575	1	8
395.746	1	9
395.916	1	7
396.087	1	4
396.258	1	7
396.429	1	6
396.599	1	12
396.770	1	4
396.941	1	3
397.112	1	-1
397.283	1	-2
397.453	1	14
397.624	1	6
397.795	1	15
397.966	1	21
398.136	1	-2
398.307	1	-1
398.478	1	5
398.649	1	0
398.819	1	9
398.990	1	1
399.161	1	0
399.332	1	18
399.503	1	6
399.673	1	-3
399.844	1	2
400.015	1	6
400.186	1	0
400.356	1	10
400.527	1	10
400.698	1	1
400.869	1	-10
401.039	1	-4
401.210	1	8
401.381	1	-3
401.552	1	1
401.722	1	7
401.893	1	14
402.064	1	4
402.235	1	-5
402.405	1	0
402.576	1	0
402.747	1	9
402.918	1	1
403.088	1	6
403.259	1	-3
403.430	1	7
403.601	1	5
403.771	1	13
403.942	1	8
404.113	1	8
404.284	1	2
404.454	1	9
404.625	1	4
404.796	1	-6
404.967	1	4
405.137	1	2
405.308	1	8
405.479	1	12
405.649	1	5
405.820	1	10
405.991	1	0
406.162	1	8
406.332	1	-8
406.503	1	1
406.674	1	3
406.845	1	5
407.015	1	-3
407.186	1	5
407.357	1	8
407.527	1	7
407.698	1	5
407.869	1	1
408.040	1	13
408.210	1	10
408.381	1	-6
408.552	1	-5
408.722	1	-5
408.893	1	0
409.064	1	0
409.235	1	-5
409.405	1	10
409.576	1	-6
409.747	1	6
409.917	1	8
410.088	1	5
410.259	1	-1
410.430	1	6
410.600	1	-1
410.771	1	2
410.942	1	6
411.112	1	-4
411.283	1	-1
411.454	1	-2
411.625	1	2
411.795	1	6
411.966	1	8
412.137	1	5
412.307	1	9
412.478	1	3
412.649	1	-8
412.819	1	4
412.990	1	4
413.161	1	0
413.332	1	3
413.502	1	0
413.673	1	14
413.844	1	22
414.014	1	-4
414.185	1	8
414.356	1	1
414.526	1	10
414.697	1	9
414.868	1	-3
415.038	1	5
415.209	1	-4
415.380	1	8
415.550	1	1
415.721	1	2
415.892	1	4
416.063	1	10
416.233	1	6
416.404	1	-6
416.575	1	4
416.745	1	-3
416.916	1	-5
417.087	1	7
417.257	1	0
417.428	1	4
417.599	1	4
417.769	1	0
417.940	1	5
418.111	1	4
418.281	1	-6
418.452	1	1
418.623	1	-10
418.793	1	4
418.964	1	4
419.135	1	7
419.305	1	-6
419.476	1	7
419.647	1	11
419.817	1	5
419.988	1	-4
420.159	1	5
420.329	1	7
420.500	1	14
420.671	1	1
420.841	1	4
421.012	1	3
421.183	1	4
421.353	1	6
421.524	1	7
421.695	1	5
421.865	1	7
422.036	1	2
422.206	1	-4
422.377	1	-2
422.548	1	15
422.718	1	-5
422.889	1	-8
423.060	1	-12
423.230	1	3
423.401	1	1
423.572	1	10
423.742	1	-1
423.913	1	2
424.084	1	-2
424.254	1	0
424.425	1	-7
424.595	1	-4
424.766	1	-6
424.937	1	7
425.107	1	8
425.278	1	0
425.449	1	2
425.619	1	2
425.790	1	0
425.961	1	-1
426.131	1	3
426.302	1	8
426.472	1	-5
426.643	1	-1
426.814	1	-11
426.984	1	4
427.155	1	-8
427.326	1	-2
427.496	1	-1
427.667	1	0
427.837	1	8
428.008	1	1
428.179	1	-2
428.349	1	-7
428.520	1	9
428.691	1	5
428.861	1	-1
429.032	1	-1
429.202	1	7
429.373	1	-1
429.544	1	0
429.714	1	-6
429.885	1	2
430.055	1	5
430.226	1	-3
430.397	1	0
430.567	1	-5
430.738	1	-4
430.909	1	-5
431.079	1	-5
431.250	1	-8
431.420	1	-2
431.591	1	-4
431.762	1	-2
431.932	1	-12
432.103	1	1
432.273	1	6
432.444	1	3
432.615	1	-9
432.785	1	-1
432.956	1	5
433.126	1	-4
433.297	1	-6
433.468	1	-7
433.638	1	4
433.809	1	-4
433.979	1	2
434.150	1	3
434.320	1	10
434.491	1	-1
434.662	1	10
434.832	1	1
435.003	1	9
435.173	1	-1
435.344	1	-4
435.515	1	2
435.685	1	2
435.856	1	-8
436.026	1	-8
436.197	1	-2
436.368	1	-4
436.538	1	-2
436.709	1	-9
436.879	1	-6
437.050	1	-2
437.220	1	-3
437.391	1	3
437.562	1	4
437.732	1	1
437.903	1	-7
438.073	1	-1
438.244	1	-9
438.414	1	0
438.585	1	-5
438.756	1	5
438.926	1	0
439.097	1	5
439.267	1	0
439.438	1	-2
439.608	1	0
439.779	1	-2
439.949	1	-3
440.120	1	4
440.291	1	-4
440.461	1	2
440.632	1	14
440.802	1	5
440.973	1	-1
441.143	1	5
441.314	1	-6
441.485	1	1
441.655	1	-4
441.826	1	-18
441.996	1	-6
442.167	1	5
442.337	1	8
442.508	1	-5
442.678	1	-6
442.849	1	-8
443.019	1	5
443.190	1	13
443.361	1	5
443.531	1	-1
443.702	1	-11
443.872	1	5
444.043	1	8
444.213	1	4
444.384	1	11
444.554	1	-3
444.725	1	3
444.895	1	-1
445.066	1	6
445.237	1	2
445.407	1	-6
445.578	1	2
445.748	1	0
445.919	1	-1
446.089	1	4
446.260	1	-6
446.430	1	-8
446.601	1	12
446.771	1	-7
446.942	1	-2
447.112	1	4
447.283	1	-11
447.453	1	-2
447.624	1	-8
447.794	1	7
447.965	1	1
448.135	1	1
448.306	1	0
448.477	1	6
448.647	1	-6
448.818	1	-2
448.988	1	9
449.159	1	9
449.329	1	-8
449.500	1	0
449.670	1	2
449.841	1	-12
450.011	1	-3
450.182	1	-9
450.352	1	14
450.523	1	-1
450.693	1	5
450.864	1	-2
451.034	1	10
451.205	1	-2
451.375	1	-9
451.546	1	4
451.716	1	2
451.887	1	-2
452.057	1	15
452.228	1	6
452.398	1	2
452.569	1	-5
452.739	1	2
452.910	1	-7
453.080	1	4
453.251	1	-2
453.421	1	-6
453.592	1	4
453.762	1	3
453.933	1	-4
454.103	1	0
454.274	1	6
454.444	1	8
454.615	1	12
454.785	1	4
454.956	1	6
455.126	1	4
455.297	1	-5
455.467	1	-9
455.638	1	2
455.808	1	3
455.979	1	4
456.149	1	8
456.320	1	7
456.490	1	-1
456.661	1	-9
456.831	1	11
457.001	1	7
457.172	1	7
457.342	1	0
457.513	1	13
457.683	1	-2
457.854	1	2
458.024	1	-4
458.195	1	0
458.365	1	16
458.536	1	-3
458.706	1	-2
458.877	1	0
459.047	1	6
459.218	1	-1
459.388	1	16
459.559	1	8
459.729	1	-3
459.899	1	-8
460.070	1	-2
460.240	1	4
460.411	1	-1
460.581	1	-6
460.752	1	0
460.922	1	16
461.093	1	2
461.263	1	1
461.434	1	4
461.604	1	5
461.775	1	2
461.945	1	-1
462.115	1	-1
462.286	1	-4
462.456	1	1
462.627	1	0
462.797	1	-11
462.968	1	-4
463.138	1	6
463.309	1	2
463.479	1	4
463.649	1	-1
463.820	1	-4
463.990	1	-2
464.161	1	-1
464.331	1	8
464.502	1	9
464.672	1	-13
464.843	1	4
465.013	1	-14
465.183	1	-5
465.354	1	12
465.524	1	0
465.695	1	2
465.865	1	6
466.036	1	4
466.206	1	4
466.376	1	-6
466.547	1	-8
466.717	1	-1
466.888	1	-4
467.058	1	8
467.229	1	8
467.399	1	3
467.569	1	5
467.740	1	2
467.910	1	-1
468.081	1	-1
468.251	1	0
468.422	1	5
468.592	1	-7
468.762	1	-3
468.933	1	0
469.103	1	0
469.274	1	2
469.444	1	5
469.614	1	2
469.785	1	0
469.955	1	11
470.126	1	1
470.296	1	0
470.467	1	-10
470.637	1	3
470.807	1	9
470.978	1	-2
471.148	1	-3
471.319	1	8
471.489	1	-9
471.659	1	2
471.830	1	7
472.000	1	2
472.171	1	0
472.341	1	-8
472.511	1	8
472.682	1	0
472.852	1	4
473.023	1	-5
473.193	1	-2
473.363	1	4
473.534	1	0
473.704	1	-6
473.875	1	-4
474.045	1	-4
474.215	1	5
474.386	1	6
474.556	1	7
474.727	1	3
474.897	1	-1
475.067	1	-6
475.238	1	-6
475.408	1	-6
475.578	1	4
475.749	1	-7
475.919	1	-4
476.090	1	2
476.260	1	-8
476.430	1	8
476.601	1	1
476.771	1	-4
476.942	1	10
477.112	1	4
477.282	1	-1
477.453	1	-2
477.623	1	-4
477.793	1	1
477.964	1	2
478.134	1	13
478.305	1	7
478.475	1	-3
478.645	1	2
478.816	1	3
478.986	1	5
479.156	1	-1
479.327	1	-6
479.497	1	11
479.667	1	8
479.838	1	-9
480.008	1	-5
480.179	1	-3
480.349	1	3
480.519	1	1
480.690	1	-3
480.860	1	2
481.030	1	7
481.201	1	-1
481.371	1	2
481.541	1	1
481.712	1	-4
481.882	1	1
482.053	1	0
482.223	1	0
482.393	1	2
482.564	1	4
482.734	1	-2
482.904	1	-3
483.075	1	-1
483.245	1	0
483.415	1	-1
483.586	1	-3
483.756	1	2
483.926	1	-2
484.097	1	2
484.267	1	-9
484.437	1	-6
484.608	1	3
484.778	1	-5
484.948	1	-7
485.119	1	-4
485.289	1	-1
485.459	1	3
485.630	1	10
485.800	1	-1
485.970	1	2
486.141	1	0
486.311	1	3
486.481	1	1
486.652	1	-4
486.822	1	5
486.992	1	-1
487.163	1	7
487.333	1	4
487.503	1	-1
487.674	1	6
487.844	1	-9
488.014	1	8
488.185	1	-6
488.355	1	5
488.525	1	-2
488.696	1	8
488.866	1	-8
489.036	1	9
489.207	1	-1
489.377	1	-8
489.547	1	-7
489.718	1	2
489.888	1	6
490.058	1	11
490.228	1	-5
490.399	1	3
490.569	1	11
490.739	1	3
490.910	1	-14
491.080	1	-5
491.250	1	5
491.421	1	5
491.591	1	-8
491.761	1	-7
491.932	1	-5
492.102	1	-2
492.272	1	-3
492.442	1	5
492.613	1	2
492.783	1	2
492.953	1	-4
493.124	1	13
493.294	1	-3
493.464	1	2
493.635	1	1
493.805	1	5
493.975	1	-10
494.145	1	5
494.316	1	0
494.486	1	11
494.656	1	-10
494.827	1	5
494.997	1	3
495.167	1	3
495.337	1	0
495.508	1	-7
495.678	1	3
495.848	1	5
496.019	1	-4
496.189	1	-1
496.359	1	-3
496.529	1	4
496.700	1	0
496.870	1	10
497.040	1	-5
497.211	1	-4
497.381	1	4
497.551	1	4
497.721	1	-10
497.892	1	8
498.062	1	-8
498.232	1	9
498.403	1	-1
498.573	1	5
498.743	1	1
498.913	1	0
499.084	1	-1
499.254	1	-2
499.424	1	-7
499.594	1	1
499.765	1	7
499.935	1	3
500.105	1	3
500.275	1	4
500.446	1	6
500.616	1	1
500.786	1	7
500.956	1	3
501.127	1	4
501.297	1	5
501.467	1	0
501.638	1	2
501.808	1	5
501.978	1	-1
502.148	1	4
502.319	1	7
502.489	1	0
502.659	1	10
502.829	1	11
503.000	1	6
503.170	1	4
503.340	1	3
503.510	1	-5
503.681	1	-8
503.851	1	0
504.021	1	13
504.191	1	4
504.362	1	6
504.532	1	3
504.702	1	5
504.872	1	-17
505.042	1	-5
505.213	1	6
505.383	1	-2
505.553	1	4
505.723	1	9
505.894	1	2
506.064	1	1
506.234	1	-1
506.404	1	1
506.575	1	-6
506.745	1	6
506.915	1	2
507.085	1	0
507.256	1	4
507.426	1	-4
507.596	1	-4
507.766	1	2
507.936	1	1
508.107	1	12
508.277	1	-3
508.447	1	0
508.617	1	-4
508.788	1	3
508.958	1	5
509.128	1	12
509.298	1	9
509.468	1	3
509.639	1	6
509.809	1	11
509.979	1	14
510.149	1	10
510.319	1	-3
510.490	1	11
510.660	1	4
510.830	1	-7
511.000	1	3
511.171	1	-1
511.341	1	9
511.511	1	-1
511.681	1	13
511.851	1	4
512.022	1	-8
512.192	1	4
512.362	1	-3
512.532	1	-9
512.702	1	6
512.873	1	19
513.043	1	12
513.213	1	10
513.383	1	2
513.553	1	18
513.724	1	-15
513.894	1	5
514.064	1	4
514.234	1	10
514.404	1	12
514.575	1	-2
514.745	1	0
514.915	1	-10
515.085	1	4
515.255	1	-9
515.425	1	11
515.596	1	9
515.766	1	11
515.936	1	-3
516.106	1	1
516.276	1	3
516.447	1	6
516.617	1	6
516.787	1	4
516.957	1	5
517.127	1	-1
517.297	1	2
517.468	1	-1
517.638	1	2
517.808	1	7
517.978	1	10
518.148	1	2
518.319	1	7
518.489	1	-11
518.659	1	1
518.829	1	0
518.999	1	11
519.169	1	9
519.340	1	11
519.510	1	-1
519.680	1	-4
519.850	1	5
520.020	1	-2
520.190	1	3
520.361	1	-4
520.531	1	1
520.701	1	13
520.871	1	1
521.041	1	17
521.211	1	12
521.382	1	0
521.552	1	2
521.722	1	15
521.892	1	7
522.062	1	5
522.232	1	27
522.402	1	6
522.573	1	10
522.743	1	6
522.913	1	-2
523.083	1	4
523.253	1	4
523.423	1	10
523.593	1	5
523.764	1	8
523.934	1	4
524.104	1	5
524.274	1	6
524.444	1	6
524.614	1	13
524.784	1	9
524.955	1	17
525.125	1	12
525.295	1	-6
525.465	1	0
525.635	1	-1
525.805	1	8
525.975	1	-2
526.146	1	2
526.316	1	10
526.486	1	0
526.656	1	-1
526.826	1	5
526.996	1	3
527.166	1	-3
527.337	1	-3
527.507	1	12
527.677	1	13
527.847	1	-1
528.017	1	-5
528.187	1	9
528.357	1	14
528.527	1	10
528.698	1	-2
528.868	1	5
529.038	1	3
529.208	1	-12
529.378	1	7
529.548	1	10
529.718	1	7
529.888	1	11
530.058	1	8
530.229	1	6
530.399	1	-1
530.569	1	-6
530.739	1	-3
530.909	1	-2
531.079	1	-8
531.249	1	1
531.419	1	5
531.589	1	10
531.760	1	-2
531.930	1	7
532.100	1	1
532.270	1	8
532.440	1	5
532.610	1	9
532.780	1	10
532.950	1	-5
533.120	1	15
533.290	1	3
533.461	1	1
533.631	1	-4
533.801	1	1
533.971	1	1
534.141	1	10
534.311	1	13
534.481	1	3
534.651	1	-3
534.821	1	2
534.991	1	2
535.162	1	-1
535.332	1	4
535.502	1	2
535.672	1	-5
535.842	1	11
536.012	1	2
536.182	1	4
536.352	1	-2
536.522	1	-2
536.692	1	5
536.862	1	-6
537.032	1	-5
537.203	1	9
537.373	1	16
537.543	1	-1
537.713	1	2
537.883	1	-7
538.053	1	-6
538.223	1	0
538.393	1	3
538.563	1	12
538.733	1	9
538.903	1	0
539.073	1	7
539.243	1	-3
539.413	1	1
539.584	1	7
539.754	1	10
539.924	1	-1
540.094	1	4
540.264	1	-11
540.434	1	11
540.604	1	3
540.774	1	9
540.944	1	4
541.114	1	5
541.284	1	-8
541.454	1	3
541.624	1	10
541.794	1	-7
541.964	1	-8
542.134	1	5
542.305	1	9
542.475	1	3
542.645	1	10
542.815	1	-7
542.985	1	15
543.155	1	-5
543.325	1	7
543.495	1	8
543.665	1	-4
543.835	1	-10
544.005	1	0
544.175	1	2
544.345	1	-2
544.515	1	3
544.685	1	12
544.855	1	0
545.025	1	10
545.195	1	1
545.365	1	5
545.535	1	0
545.705	1	15
545.875	1	1
546.045	1	10
546.216	1	-4
546.386	1	5
546.556	1	2
546.726	1	1
546.896	1	3
547.066	1	14
547.236	1	11
547.406	1	-2
547.576	1	8
547.746	1	12
547.916	1	1
548.086	1	4
548.256	1	-4
548.426	1	3
548.596	1	-4
548.766	1	10
548.936	1	6
549.106	1	14
549.276	1	12
549.446	1	2
549.616	1	2
549.786	1	-4
549.956	1	-1
550.126	1	8
550.296	1	-6
550.466	1	2
550.636	1	6
550.806	1	7
550.976	1	3
551.146	1	-1
551.316	1	8
551.486	1	4
551.656	1	4
551.826	1	11
551.996	1	-1
552.166	1	0
552.336	1	-7
552.506	1	7
552.676	1	-2
552.846	1	8
553.016	1	9
553.186	1	8
553.356	1	-5
553.526	1	-8
553.696	1	18
553.866	1	12
554.036	1	3
554.206	1	4
554.376	1	2
554.546	1	-3
554.716	1	4
554.886	1	14
555.056	1	5
555.226	1	1
555.396	1	-2
555.566	1	4
555.736	1	7
555.906	1	6
556.076	1	8
556.246	1	2
556.416	1	-9
556.586	1	-1
556.756	1	-3
556.926	1	2
557.096	1	9
557.266	1	-2
557.436	1	7
557.606	1	10
557.776	1	4
557.946	1	2
558.116	1	8
558.286	1	-2
558.456	1	-1
558.626	1	-9
558.796	1	3
558.966	1	7
559.136	1	3
559.306	1	3
559.476	1	1
559.646	1	1
559.816	1	15
559.986	1	-7
560.155	1	10
560.325	1	2
560.495	1	1
560.665	1	-8
560.835	1	3
561.005	1	6
561.175	1	-6
561.345	1	1
561.515	1	-1
561.685	1	-4
561.855	1	-3
562.025	1	15
562.195	1	3
562.365	1	5
562.535	1	4
562.705	1	-8
562.875	1	1
563.045	1	1
563.215	1	5
563.385	1	-2
563.555	1	-4
563.725	1	11
563.895	1	1
564.064	1	-10
564.234	1	5
564.404	1	4
564.574	1	15
564.744	1	4
564.914	1	5
565.084	1	-2
565.254	1	15
565.424	1	6
565.594	1	-1
565.764	1	-4
565.934	1	7
566.104	1	-3
566.274	1	7
566.444	1	-11
566.614	1	0
566.783	1	7
566.953	1	2
567.123	1	2
567.293	1	-11
567.463	1	0
567.633	1	2
567.803	1	11
567.973	1	6
568.143	1	-3
568.313	1	-4
568.483	1	9
568.653	1	-14
568.823	1	-4
568.993	1	-7
569.162	1	4
569.332	1	9
569.502	1	8
569.672	1	2
569.842	1	-5
570.012	1	7
570.182	1	-7
570.352	1	2
570.522	1	1
570.692	1	6
570.862	1	1
571.031	1	4
571.201	1	0
571.371	1	6
571.541	1	6
571.711	1	3
571.881	1	7
572.051	1	5
572.221	1	-2
572.391	1	12
572.561	1	9
572.731	1	12
572.900	1	-9
573.070	1	5
573.240	1	0
573.410	1	4
573.580	1	1
573.750	1	6
573.920	1	-6
574.090	1	12
574.260	1	-6
574.430	1	5
574.599	1	-1
574.769	1	-2
574.939	1	-12
575.109	1	-9
575.279	1	4
575.449	1	15
575.619	1	7
575.789	1	2
575.959	1	7
576.128	1	-1
576.298	1	-5
576.468	1	1
576.638	1	-7
576.808	1	-2
576.978	1	2
577.148	1	7
577.318	1	5
577.487	1	0
577.657	1	4
577.827	1	3
577.997	1	9
578.167	1	3
578.337	1	-3
578.507	1	-9
578.677	1	0
578.846	1	4
579.016	1	5
579.186	1	8
579.356	1	6
579.526	1	-2
579.696	1	9
579.866	1	-5
580.036	1	4
580.205	1	-4
580.375	1	4
580.545	1	3
580.715	1	-10
580.885	1	1
581.055	1	-3
581.225	1	12
581.394	1	-4
581.564	1	-1
581.734	1	1
581.904	1	-7
582.074	1	5
582.244	1	2
582.414	1	-4
582.583	1	1
582.753	1	12
582.923	1	4
583.093	1	9
583.263	1	0
583.433	1	5
583.603	1	-10
583.772	1	-10
583.942	1	5
584.112	1	6
584.282	1	-2
584.452	1	-1
584.622	1	4
584.791	1	7
584.961	1	-13
585.131	1	1
585.301	1	-7
585.471	1	-6
585.641	1	7
585.811	1	-5
585.980	1	2
586.150	1	2
586.320	1	-6
586.490	1	7
586.660	1	3
586.830	1	2
586.999	1	-3
587.169	1	-3
587.339	1	4
587.509	1	9
587.679	1	-5
587.849	1	2
588.018	1	-2
588.188	1	-2
588.358	1	-1
588.528	1	4
588.698	1	-1
588.867	1	2
589.037	1	4
589.207	1	2
589.377	1	3
589.547	1	10
589.717	1	2
589.886	1	-3
590.056	1	-1
590.226	1	-16
590.396	1	-5
590.566	1	-11
590.735	1	1
590.905	1	12
591.075	1	3
591.245	1	11
591.415	1	-2
591.585	1	7
591.754	1	5
591.924	1	10
592.094	1	-3
592.264	1	-5
592.434	1	3
592.603	1	1
592.773	1	-3
592.943	1	5
593.113	1	3
593.283	1	-5
593.452	1	0
593.622	1	4
593.792	1	10
593.962	1	-2
594.132	1	5
594.301	1	7
594.471	1	2
594.641	1	-2
594.811	1	-5
594.981	1	-3
595.150	1	6
595.320	1	5
595.490	1	1
595.660	1	0
595.829	1	-11
595.999	1	-6
596.169	1	4
596.339	1	10
596.509	1	-6
596.678	1	8
596.848	1	0
597.018	1	-3
597.188	1	-8
597.358	1	5
597.527	1	-8
597.697	1	-4
597.867	1	5
598.037	1	14
598.206	1	10
598.376	1	4
598.546	1	7
598.716	1	-17
598.885	1	0
599.055	1	6
599.225	1	-1
599.395	1	11
599.565	1	-2
599.734	1	7
599.904	1	-9
600.074	1	6
600.244	1	5
600.413	1	0
600.583	1	-6
600.753	1	6
600.923	1	-7
601.092	1	0
601.262	1	-6
601.432	1	-2
601.602	1	14
601.771	1	13
601.941	1	2
602.111	1	2
602.281	1	-1
602.451	1	-7
602.620	1	-1
602.790	1	-6
602.960	1	-4
603.130	1	-7
603.299	1	3
603.469	1	-2
603.639	1	-8
603.809	1	8
603.978	1	3
604.148	1	-5
604.318	1	7
604.487	1	5
604.657	1	-2
604.827	1	-4
604.997	1	8
605.166	1	-8
605.336	1	-4
605.506	1	-3
605.676	1	12
605.845	1	2
606.015	1	-4
606.185	1	0
606.355	1	-7
606.524	1	8
606.694	1	9
606.864	1	-3
607.034	1	6
607.203	1	15
607.373	1	3
607.543	1	0
607.712	1	11
607.882	1	4
608.052	1	3
608.222	1	1
608.391	1	8
608.561	1	-4
608.731	1	-8
608.901	1	2
609.070	1	-7
609.240	1	3
609.410	1	7
609.579	1	-1
609.749	1	4
609.919	1	-10
610.089	1	6
610.258	1	1
610.428	1	9
610.598	1	-1
610.767	1	7
610.937	1	2
611.107	1	-8
611.277	1	-4
611.446	1	-1
611.616	1	12
611.786	1	-2
611.955	1	1
612.125	1	10
612.295	1	8
612.465	1	-4
612.634	1	5
612.804	1	6
612.974	1	-3
613.143	1	4
613.313	1	-4
613.483	1	17
613.652	1	-3
613.822	1	-2
613.992	1	6
614.162	1	7
614.331	1	2
614.501	1	-4
614.671	1	-1
614.840	1	0
615.010	1	6
615.180	1	1
615.349	1	17
615.519	1	-4
615.689	1	-8
615.858	1	16
616.028	1	-4
616.198	1	4
616.368	1	0
616.537	1	0
616.707	1	2
616.877	1	2
617.046	1	9
617.216	1	1
617.386	1	6
617.555	1	-7
617.725	1	8
617.895	1	-3
618.064	1	5
618.234	1	-10
618.404	1	-6
618.573	1	8
618.743	1	13
618.913	1	-2
619.082	1	-1
619.252	1	-9
619.422	1	0
619.591	1	-8
619.761	1	-8
619.931	1	5
620.100	1	15
620.270	1	-1
620.440	1	10
620.609	1	4
620.779	1	5
620.949	1	-3
621.118	1	6
621.288	1	0
621.458	1	9
621.627	1	1
621.797	1	-6
621.967	1	-1
622.136	1	-2
622.306	1	0
622.476	1	-5
622.645	1	-4
622.815	1	-7
622.985	1	2
623.154	1	8
623.324	1	1
623.494	1	-10
623.663	1	3
623.833	1	4
624.002	1	5
624.172	1	-2
624.342	1	4
624.511	1	9
624.681	1	11
624.851	1	3
625.020	1	8
625.190	1	-2
625.360	1	-9
625.529	1	-2
625.699	1	0
625.869	1	-6
626.038	1	-10
626.208	1	6
626.377	1	-1
626.547	1	-3
626.717	1	-13
626.886	1	0
627.056	1	1
627.226	1	2
627.395	1	-4
627.565	1	7
627.735	1	7
627.904	1	5
628.074	1	2
628.243	1	7
628.413	1	-5
628.583	1	7
628.752	1	-7
628.922	1	-3
629.091	1	3
629.261	1	8
629.431	1	-10
629.600	1	4
629.770	1	8
629.940	1	-13
630.109	1	5
630.279	1	0
630.448	1	4
630.618	1	5
630.788	1	4
630.957	1	3
631.127	1	2
631.297	1	-10
631.466	1	11
631.636	1	2
631.805	1	2
631.975	1	-7
632.145	1	4
632.314	1	-2
632.484	1	2
632.653	1	-6
632.823	1	-4
632.993	1	1
633.162	1	-7
633.332	1	-1
633.501	1	-6
633.671	1	-1
633.841	1	2
634.010	1	11
634.180	1	5
634.349	1	1
634.519	1	13
634.689	1	-1
634.858	1	-11
635.028	1	-5
635.197	1	-5
635.367	1	2
635.537	1	4
635.706	1	-1
635.876	1	0
636.045	1	2
636.215	1	12
636.384	1	-1
636.554	1	4
636.724	1	0
636.893	1	0
637.063	1	-10
637.232	1	-7
637.402	1	-12
637.572	1	3
637.741	1	5
637.911	1	-6
638.080	1	14
638.250	1	1
638.419	1	3
638.589	1	3
638.759	1	4
638.928	1	9
639.098	1	1
639.267	1	2
639.437	1	13
639.606	1	6
639.776	1	8
639.946	1	9
640.115	1	-6
640.285	1	4
640.454	1	3
640.624	1	9
640.793	1	9
640.963	1	8
641.132	1	4
641.302	1	7
641.472	1	3
641.641	1	4
641.811	1	-8
641.980	1	0
642.150	1	4
642.319	1	7
642.489	1	-7
642.659	1	6
642.828	1	-1
642.998	1	10
643.167	1	-9
643.337	1	-5
643.506	1	3
643.676	1	-7
643.845	1	12
644.015	1	-3
644.184	1	-7
644.354	1	-7
644.524	1	2
644.693	1	4
644.863	1	11
645.032	1	-3
645.202	1	-10
645.371	1	-7
645.541	1	5
645.710	1	4
645.880	1	1
646.049	1	-1
646.219	1	-2
646.388	1	0
646.558	1	3
646.728	1	-3
646.897	1	2
647.067	1	7
647.236	1	3
647.406	1	1
647.575	1	9
647.745	1	5
647.914	1	-2
648.084	1	3
648.253	1	1
648.423	1	-6
648.592	1	-10
648.762	1	10
648.931	1	8
649.101	1	-4
649.270	1	-5
649.440	1	0
649.610	1	0
649.779	1	7
649.949	1	4
650.118	1	-1
650.288	1	2
650.457	1	5
650.627	1	2
650.796	1	-3
650.966	1	-12
651.135	1	2
651.305	1	-6
651.474	1	8
651.644	1	9
651.813	1	-3
651.983	1	-4
652.152	1	5
652.322	1	-1
652.491	1	5
652.661	1	0
652.830	1	3
653.000	1	1
653.169	1	-1
653.339	1	7
653.508	1	-6
653.678	1	0
653.847	1	-8
654.017	1	10
654.186	1	-7
654.356	1	-12
654.525	1	-13
654.695	1	4
654.864	1	3
655.034	1	-1
655.203	1	1
655.373	1	7
655.542	1	-4
655.712	1	10
655.881	1	10
656.051	1	5
656.220	1	-3
656.390	1	-7
656.559	1	-6
656.729	1	-7
656.898	1	-2
657.068	1	4
657.237	1	10
657.406	1	9
657.576	1	-1
657.745	1	-2
657.915	1	-2
658.084	1	-1
658.254	1	6
658.423	1	-3
658.593	1	2
658.762	1	2
658.932	1	-3
659.101	1	-6
659.271	1	6
659.440	1	1
659.610	1	-1
659.779	1	10
659.949	1	-8
660.118	1	-6
660.288	1	-8
660.457	1	8
660.626	1	0
660.796	1	-2
660.965	1	1
661.135	1	-9
661.304	1	-8
661.474	1	1
661.643	1	-3
661.813	1	7
661.982	1	-3
662.152	1	4
662.321	1	-7
662.491	1	0
662.660	1	6
662.829	1	4
662.999	1	0
663.168	1	-8
663.338	1	16
663.507	1	10
663.677	1	-3
663.846	1	3
664.016	1	-6
664.185	1	-3
664.354	1	7
664.524	1	5
664.693	1	4
664.863	1	0
665.032	1	0
665.202	1	-4
665.371	1	-2
665.541	1	8
665.710	1	1
665.879	1	-4
666.049	1	-6
666.218	1	-9
666.388	1	10
666.557	1	12
666.727	1	-2
666.896	1	9
667.065	1	0
667.235	1	11
667.404	1	0
667.574	1	-1
667.743	1	1
667.913	1	5
668.082	1	-5
668.251	1	5
668.421	1	4
668.590	1	7
668.760	1	5
668.929	1	2
669.099	1	-4
669.268	1	-5
669.437	1	1
669.607	1	8
669.776	1	8
669.946	1	-1
670.115	1	-13
670.285	1	3
670.454	1	4
670.623	1	-1
670.793	1	8
670.962	1	-1
671.132	1	-9
671.301	1	-2
671.470	1	1
671.640	1	2
671.809	1	-7
671.979	1	11
672.148	1	6
672.317	1	-4
672.487	1	-1
672.656	1	-4
672.826	1	-4
672.995	1	2
673.164	1	-2
673.334	1	2
673.503	1	-10
673.673	1	5
673.842	1	7
674.011	1	12
674.181	1	15
674.350	1	-6
674.520	1	5
674.689	1	-9
674.858	1	-4
675.028	1	7
675.197	1	1
675.367	1	2
675.536	1	8
675.705	1	1
675.875	1	-8
676.044	1	-9
676.214	1	1
676.383	1	8
676.552	1	4
676.722	1	-8
676.891	1	6
677.060	1	1
677.230	1	12
677.399	1	1
677.569	1	8
677.738	1	1
677.907	1	-1
678.077	1	5
678.246	1	3
678.416	1	2
678.585	1	2
678.754	1	8
678.924	1	7
679.093	1	1
679.262	1	-11
679.432	1	5
679.601	1	-2
679.771	1	-9
679.940	1	6
680.109	1	-12
680.279	1	5
680.448	1	1
680.617	1	1
680.787	1	-5
680.956	1	7
681.125	1	-1
681.295	1	2
681.464	1	-10
681.634	1	11
681.803	1	1
681.972	1	-9
682.142	1	-8
682.311	1	4
682.480	1	6
682.650	1	14
682.819	1	3
682.988	1	-6
683.158	1	3
683.327	1	1
683.496	1	6
683.666	1	10
683.835	1	2
684.004	1	1
684.174	1	-5
684.343	1	7
684.512	1	-3
684.682	1	11
684.851	1	11
685.021	1	-2
685.190	1	3
685.359	1	-9
685.529	1	-3
685.698	1	-2
685.867	1	6
686.037	1	3
686.206	1	-5
686.375	1	11
686.545	1	13
686.714	1	1
686.883	1	9
687.053	1	-6
687.222	1	-3
687.391	1	-2
687.561	1	9
687.730	1	5
687.899	1	2
688.069	1	2
688.238	1	5
688.407	1	15
688.577	1	-12
688.746	1	4
