340.368	1	6
340.539	1	8
340.710	1	5
340.881	1	5
341.052	1	-2
341.223	1	17
341.394	1	-11
341.565	1	1
341.737	1	13
341.908	1	-15
342.079	1	-2
342.250	1	3
342.421	1	8
342.592	1	12
342.763	1	4
342.934	1	-2
343.105	1	2
343.276	1	3
343.447	1	-15
343.618	1	3
343.789	1	-2
343.960	1	-1
344.131	1	0
344.302	1	-9
344.473	1	-6
344.644	1	-3
344.815	1	0
344.986	1	2
345.157	1	1
345.328	1	-11
345.499	1	-2
345.670	1	-3
345.841	1	5
346.012	1	2
346.183	1	15
346.354	1	5
346.526	1	3
346.697	1	6
346.868	1	-11
347.039	1	4
347.210	1	2
347.381	1	-9
347.552	1	5
347.723	1	2
347.894	1	-1
348.065	1	3
348.236	1	12
348.407	1	-4
348.578	1	7
348.749	1	3
348.920	1	-2
349.091	1	5
349.262	1	-6
349.433	1	-1
349.604	1	-2
349.775	1	2
349.946	1	3
350.117	1	5
350.288	1	16
350.459	1	-2
350.630	1	5
350.801	1	5
350.972	1	-1
351.143	1	9
351.314	1	0
351.485	1	7
351.656	1	-5
351.827	1	18
351.998	1	8
352.169	1	1
352.340	1	5
352.511	1	1
352.682	1	-1
352.853	1	4
353.024	1	5
353.195	1	10
353.366	1	-2
353.537	1	12
353.708	1	1
353.879	1	0
354.050	1	3
354.221	1	7
354.392	1	9
354.563	1	8
354.734	1	2
354.905	1	8
355.076	1	11
355.247	1	5
355.418	1	2
355.589	1	-2
355.760	1	2
355.931	1	7
356.102	1	2
356.273	1	-5
356.444	1	6
356.615	1	4
356.785	1	15
356.956	1	12
357.127	1	4
357.298	1	11
357.469	1	10
357.640	1	4
357.811	1	9
357.982	1	4
358.153	1	5
358.324	1	14
358.495	1	3
358.666	1	6
358.837	1	15
359.008	1	18
359.179	1	17
359.350	1	12
359.521	1	9
359.692	1	5
359.863	1	10
360.034	1	20
360.205	1	6
360.376	1	10
360.547	1	2
360.718	1	21
360.889	1	14
361.060	1	13
361.231	1	7
361.401	1	6
361.572	1	10
361.743	1	16
361.914	1	16
362.085	1	25
362.256	1	22
362.427	1	18
362.598	1	20
362.769	1	17
362.940	1	28
363.111	1	24
363.282	1	11
363.453	1	27
363.624	1	18
363.795	1	17
363.966	1	32
364.137	1	18
364.308	1	23
364.478	1	35
364.649	1	26
364.820	1	23
364.991	1	30
365.162	1	27
365.333	1	36
365.504	1	26
365.675	1	36
365.846	1	36
366.017	1	44
366.188	1	42
366.359	1	37
366.530	1	44
366.701	1	46
366.871	1	45
367.042	1	56
367.213	1	46
367.384	1	27
367.555	1	47
367.726	1	52
367.897	1	38
368.068	1	39
368.239	1	30
368.410	1	45
368.581	1	33
368.752	1	57
368.923	1	37
369.093	1	39
369.264	1	27
369.435	1	38
369.606	1	40
369.777	1	36
369.948	1	30
370.119	1	26
370.290	1	30
370.461	1	32
370.632	1	38
370.803	1	34
370.973	1	23
371.144	1	24
371.315	1	33
371.486	1	33
371.657	1	29
371.828	1	30
371.999	1	11
372.170	1	34
372.341	1	13
372.512	1	18
372.682	1	27
372.853	1	21
373.024	1	22
373.195	1	18
373.366	1	10
373.537	1	33
373.708	1	13
373.879	1	13
374.050	1	25
374.220	1	12
374.391	1	15
374.562	1	18
374.733	1	9
374.904	1	13
375.075	1	22
375.246	1	11
375.417	1	26
375.588	1	24
375.758	1	4
375.929	1	24
376.100	1	18
376.271	1	12
376.442	1	11
376.613	1	10
376.784	1	22
376.955	1	7
377.125	1	19
377.296	1	9
377.467	1	14
377.638	1	10
377.809	1	10
377.980	1	15
378.151	1	8
378.321	1	14
378.492	1	9
378.663	1	10
378.834	1	21
379.005	1	12
379.176	1	10
379.347	1	19
379.518	1	8
379.688	1	10
379.859	1	14
380.030	1	26
380.201	1	19
380.372	1	13
380.543	1	21
380.714	1	9
380.884	1	11
381.055	1	0
381.226	1	12
381.397	1	5
381.568	1	12
381.739	1	7
381.910	1	8
382.080	1	18
382.251	1	13
382.422	1	13
382.593	1	16
382.764	1	5
382.935	1	14
383.105	1	18
383.276	1	15
383.447	1	7
383.618	1	17
383.789	1	11
383.960	1	5
384.130	1	17
384.301	1	19
384.472	1	17
384.643	1	15
384.814	1	15
384.985	1	9
385.156	1	25
385.326	1	20
385.497	1	21
385.668	1	21
385.839	1	18
386.010	1	21
386.180	1	16
386.351	1	17
386.522	1	19
386.693	1	15
386.864	1	21
387.035	1	23
387.205	1	20
387.376	1	23
387.547	1	33
387.718	1	12
387.889	1	16
388.060	1	27
388.230	1	33
388.401	1	22
388.572	1	30
388.743	1	24
388.914	1	3
389.084	1	21
389.255	1	25
389.426	1	18
389.597	1	28
389.768	1	29
389.939	1	13
390.109	1	24
390.280	1	13
390.451	1	17
390.622	1	24
390.793	1	17
390.963	1	21
391.134	1	13
391.305	1	8
391.476	1	16
391.647	1	28
391.817	1	19
391.988	1	-1
392.159	1	26
392.330	1	5
392.501	1	8
392.671	1	17
392.842	1	12
393.013	1	28
393.184	1	22
393.355	1	21
393.525	1	11
393.696	1	8
393.867	1	21
394.038	1	7
394.208	1	13
394.379	1	16
394.550	1	16
394.721	1	6
394.892	1	17
395.062	1	15
395.233	1	17
395.404	1	21
395.575	1	15
395.746	1	18
395.916	1	14
396.087	1	12
396.258	1	24
396.429	1	17
396.599	1	24
396.770	1	5
396.941	1	8
397.112	1	11
397.283	1	10
397.453	1	27
397.624	1	19
397.795	1	11
397.966	1	27
398.136	1	12
398.307	1	12
398.478	1	15
398.649	1	14
398.819	1	13
398.990	1	5
399.161	1	13
399.332	1	20
399.503	1	25
399.673	1	2
399.844	1	15
400.015	1	21
400.186	1	19
400.356	1	18
400.527	1	25
400.698	1	7
400.869	1	6
401.039	1	3
401.210	1	14
401.381	1	10
401.552	1	23
401.722	1	14
401.893	1	18
402.064	1	17
402.235	1	1
402.405	1	5
402.576	1	2
402.747	1	13
402.918	1	9
403.088	1	7
403.259	1	9
403.430	1	17
403.601	1	15
403.771	1	24
403.942	1	6
404.113	1	18
404.284	1	7
404.454	1	8
404.625	1	11
404.796	1	6
404.967	1	17
405.137	1	12
405.308	1	13
405.479	1	20
405.649	1	10
405.820	1	9
405.991	1	10
406.162	1	15
406.332	1	-1
406.503	1	-3
406.674	1	13
406.845	1	17
407.015	1	6
407.186	1	10
407.357	1	7
407.527	1	2
407.698	1	16
407.869	1	6
408.040	1	6
408.210	1	11
408.381	1	8
408.552	1	5
408.722	1	9
408.893	1	2
409.064	1	2
409.235	1	7
409.405	1	16
409.576	1	11
409.747	1	16
409.917	1	13
410.088	1	6
410.259	1	10
410.430	1	3
410.600	1	-1
410.771	1	2
410.942	1	14
411.112	1	5
411.283	1	0
411.454	1	8
411.625	1	4
411.795	1	8
411.966	1	19
412.137	1	12
412.307	1	12
412.478	1	6
412.649	1	6
412.819	1	8
412.990	1	-6
413.161	1	2
413.332	1	8
413.502	1	-1
413.673	1	22
413.844	1	21
414.014	1	9
414.185	1	6
414.356	1	3
414.526	1	17
414.697	1	9
414.868	1	0
415.038	1	13
415.209	1	-1
415.380	1	15
415.550	1	7
415.721	1	1
415.892	1	-1
416.063	1	10
416.233	1	9
416.404	1	-2
416.575	1	5
416.745	1	-3
416.916	1	8
417.087	1	9
417.257	1	14
417.428	1	5
417.599	1	4
417.769	1	-7
417.940	1	5
418.111	1	-1
418.281	1	4
418.452	1	2
418.623	1	3
418.793	1	11
418.964	1	8
419.135	1	13
419.305	1	1
419.476	1	8
419.647	1	3
419.817	1	9
419.988	1	3
420.159	1	4
420.329	1	10
420.500	1	23
420.671	1	13
420.841	1	5
421.012	1	4
421.183	1	9
421.353	1	8
421.524	1	7
421.695	1	7
421.865	1	14
422.036	1	0
422.206	1	11
422.377	1	8
422.548	1	13
422.718	1	-7
422.889	1	3
423.060	1	-6
423.230	1	8
423.401	1	10
423.572	1	26
423.742	1	8
423.913	1	2
424.084	1	8
424.254	1	-7
424.425	1	-8
424.595	1	-6
424.766	1	3
424.937	1	8
425.107	1	7
425.278	1	-1
425.449	1	-6
425.619	1	17
425.790	1	15
425.961	1	0
426.131	1	4
426.302	1	10
426.472	1	6
426.643	1	6
426.814	1	1
426.984	1	3
427.155	1	-1
427.326	1	-3
427.496	1	0
427.667	1	12
427.837	1	5
428.008	1	2
428.179	1	3
428.349	1	-3
428.520	1	4
428.691	1	-2
428.861	1	7
429.032	1	0
429.202	1	5
429.373	1	4
429.544	1	2
429.714	1	6
429.885	1	3
430.055	1	-2
430.226	1	3
430.397	1	-2
430.567	1	11
430.738	1	-2
430.909	1	3
431.079	1	4
431.250	1	-10
431.420	1	-3
431.591	1	3
431.762	1	7
431.932	1	4
432.103	1	3
432.273	1	12
432.444	1	-9
432.615	1	-4
432.785	1	3
432.956	1	-2
433.126	1	5
433.297	1	0
433.468	1	-3
433.638	1	-1
433.809	1	3
433.979	1	9
434.150	1	12
434.320	1	10
434.491	1	7
434.662	1	-3
434.832	1	3
435.003	1	7
435.173	1	2
435.344	1	2
435.515	1	2
435.685	1	5
435.856	1	6
436.026	1	2
436.197	1	8
436.368	1	9
436.538	1	-5
436.709	1	-5
436.879	1	-2
437.050	1	16
437.220	1	-2
437.391	1	8
437.562	1	12
437.732	1	19
437.903	1	0
438.073	1	3
438.244	1	-1
438.414	1	-4
438.585	1	1
438.756	1	8
438.926	1	3
439.097	1	12
439.267	1	-3
439.438	1	11
439.608	1	7
439.779	1	-10
439.949	1	-6
440.120	1	-7
440.291	1	11
440.461	1	11
440.632	1	6
440.802	1	10
440.973	1	2
441.143	1	5
441.314	1	-3
441.485	1	-1
441.655	1	2
441.826	1	-14
441.996	1	3
442.167	1	-2
442.337	1	8
442.508	1	8
442.678	1	5
442.849	1	-11
443.019	1	11
443.190	1	11
443.361	1	-4
443.531	1	6
443.702	1	-10
443.872	1	-2
444.043	1	3
444.213	1	15
444.384	1	-4
444.554	1	6
444.725	1	8
444.895	1	4
445.066	1	-2
445.237	1	7
445.407	1	-5
445.578	1	12
445.748	1	-2
445.919	1	-2
446.089	1	3
446.260	1	-3
446.430	1	-4
446.601	1	12
446.771	1	-4
446.942	1	-6
447.112	1	6
447.283	1	-3
447.453	1	6
447.624	1	-1
447.794	1	-1
447.965	1	6
448.135	1	-6
448.306	1	-3
448.477	1	7
448.647	1	7
448.818	1	0
448.988	1	2
449.159	1	4
449.329	1	9
449.500	1	-3
449.670	1	1
449.841	1	3
450.011	1	5
450.182	1	-13
450.352	1	5
450.523	1	6
450.693	1	-1
450.864	1	2
451.034	1	8
451.205	1	7
451.375	1	-1
451.546	1	3
451.716	1	7
451.887	1	-1
452.057	1	11
452.228	1	10
452.398	1	5
452.569	1	-6
452.739	1	17
452.910	1	0
453.080	1	5
453.251	1	1
453.421	1	-1
453.592	1	8
453.762	1	1
453.933	1	-2
454.103	1	5
454.274	1	4
454.444	1	0
454.615	1	11
454.785	1	8
454.956	1	-1
455.126	1	5
455.297	1	-4
455.467	1	-6
455.638	1	-1
455.808	1	3
455.979	1	0
456.149	1	8
456.320	1	12
456.490	1	0
456.661	1	-2
456.831	1	-6
457.001	1	6
457.172	1	11
457.342	1	-8
457.513	1	3
457.683	1	4
457.854	1	7
458.024	1	-2
458.195	1	-3
458.365	1	12
458.536	1	6
458.706	1	3
458.877	1	0
459.047	1	12
459.218	1	4
459.388	1	15
459.559	1	1
459.729	1	-2
459.899	1	-1
460.070	1	0
460.240	1	2
460.411	1	2
460.581	1	3
460.752	1	-3
460.922	1	12
461.093	1	4
461.263	1	2
461.434	1	9
461.604	1	7
461.775	1	9
461.945	1	3
462.115	1	-1
462.286	1	5
462.456	1	1
462.627	1	13
462.797	1	-14
462.968	1	-2
463.138	1	6
463.309	1	6
463.479	1	3
463.649	1	4
463.820	1	3
463.990	1	5
464.161	1	8
464.331	1	12
464.502	1	2
464.672	1	-5
464.843	1	-8
465.013	1	2
465.183	1	-2
465.354	1	8
465.524	1	3
465.695	1	9
465.865	1	11
466.036	1	9
466.206	1	-1
466.376	1	1
466.547	1	-9
466.717	1	-3
466.888	1	-7
467.058	1	12
467.229	1	9
467.399	1	-3
467.569	1	13
467.740	1	0
467.910	1	6
468.081	1	0
468.251	1	7
468.422	1	-3
468.592	1	1
468.762	1	-9
468.933	1	3
469.103	1	-1
469.274	1	2
469.444	1	6
469.614	1	5
469.785	1	13
469.955	1	-2
470.126	1	1
470.296	1	7
470.467	1	-3
470.637	1	10
470.807	1	12
470.978	1	4
471.148	1	-5
471.319	1	0
471.489	1	-6
471.659	1	-1
471.830	1	15
472.000	1	-2
472.171	1	-1
472.341	1	-3
472.511	1	12
472.682	1	-2
472.852	1	-1
473.023	1	4
473.193	1	7
473.363	1	1
473.534	1	-5
473.704	1	-4
473.875	1	-6
474.045	1	4
474.215	1	3
474.386	1	12
474.556	1	3
474.727	1	4
474.897	1	6
475.067	1	-9
475.238	1	-13
475.408	1	0
475.578	1	11
475.749	1	1
475.919	1	4
476.090	1	9
476.260	1	-10
476.430	1	5
476.601	1	15
476.771	1	1
476.942	1	7
477.112	1	-4
477.282	1	9
477.453	1	-2
477.623	1	-1
477.793	1	-1
477.964	1	5
478.134	1	-1
478.305	1	8
478.475	1	0
478.645	1	3
478.816	1	8
478.986	1	0
479.156	1	-4
479.327	1	4
479.497	1	3
479.667	1	2
479.838	1	-2
480.008	1	-1
480.179	1	-1
480.349	1	8
480.519	1	-1
480.690	1	-2
480.860	1	7
481.030	1	8
481.201	1	-3
481.371	1	9
481.541	1	8
481.712	1	4
481.882	1	-1
482.053	1	-2
482.223	1	-7
482.393	1	0
482.564	1	3
482.734	1	7
482.904	1	-3
483.075	1	-3
483.245	1	3
483.415	1	5
483.586	1	10
483.756	1	3
483.926	1	-2
484.097	1	3
484.267	1	-8
484.437	1	6
484.608	1	2
484.778	1	0
484.948	1	3
485.119	1	6
485.289	1	7
485.459	1	2
485.630	1	8
485.800	1	8
485.970	1	3
486.141	1	-2
486.311	1	0
486.481	1	6
486.652	1	0
486.822	1	8
486.992	1	5
487.163	1	3
487.333	1	0
487.503	1	8
487.674	1	-6
487.844	1	2
488.014	1	3
488.185	1	0
488.355	1	9
488.525	1	14
488.696	1	1
488.866	1	-10
489.036	1	8
489.207	1	4
489.377	1	7
489.547	1	1
489.718	1	-4
489.888	1	9
490.058	1	7
490.228	1	-1
490.399	1	6
490.569	1	3
490.739	1	6
490.910	1	-10
491.080	1	-2
491.250	1	12
491.421	1	12
491.591	1	2
491.761	1	-2
491.932	1	2
492.102	1	5
492.272	1	3
492.442	1	-1
492.613	1	13
492.783	1	2
492.953	1	9
493.124	1	9
493.294	1	16
493.464	1	14
493.635	1	-1
493.805	1	13
493.975	1	-2
494.145	1	4
494.316	1	2
494.486	1	7
494.656	1	6
494.827	1	7
494.997	1	-2
495.167	1	8
495.337	1	-4
495.508	1	1
495.678	1	3
495.848	1	5
496.019	1	4
496.189	1	0
496.359	1	-2
496.529	1	4
496.700	1	3
496.870	1	11
497.040	1	3
497.211	1	9
497.381	1	6
497.551	1	4
497.721	1	3
497.892	1	11
498.062	1	-6
498.232	1	9
498.403	1	3
498.573	1	14
498.743	1	9
498.913	1	10
499.084	1	10
499.254	1	0
499.424	1	5
499.594	1	-7
499.765	1	14
499.935	1	1
500.105	1	6
500.275	1	8
500.446	1	4
500.616	1	3
500.786	1	10
500.956	1	7
501.127	1	12
501.297	1	-2
501.467	1	11
501.638	1	17
501.808	1	16
501.978	1	9
502.148	1	-4
502.319	1	20
502.489	1	0
502.659	1	19
502.829	1	18
503.000	1	11
503.170	1	3
503.340	1	17
503.510	1	1
503.681	1	-2
503.851	1	4
504.021	1	15
504.191	1	11
504.362	1	3
504.532	1	7
504.702	1	6
504.872	1	2
505.042	1	7
505.213	1	18
505.383	1	7
505.553	1	10
505.723	1	7
505.894	1	-1
506.064	1	14
506.234	1	6
506.404	1	7
506.575	1	4
506.745	1	22
506.915	1	4
507.085	1	9
507.256	1	15
507.426	1	10
507.596	1	4
507.766	1	13
507.936	1	8
508.107	1	15
508.277	1	3
508.447	1	10
508.617	1	8
508.788	1	21
508.958	1	10
509.128	1	12
509.298	1	7
509.468	1	16
509.639	1	11
509.809	1	1
509.979	1	12
510.149	1	9
510.319	1	-4
510.490	1	17
510.660	1	15
510.830	1	5
511.000	1	3
511.171	1	11
511.341	1	16
511.511	1	9
511.681	1	18
511.851	1	12
512.022	1	3
512.192	1	12
512.362	1	7
512.532	1	10
512.702	1	10
512.873	1	21
513.043	1	14
513.213	1	24
513.383	1	9
513.553	1	14
513.724	1	4
513.894	1	6
514.064	1	23
514.234	1	24
514.404	1	19
514.575	1	5
514.745	1	19
514.915	1	-7
515.085	1	13
515.255	1	7
515.425	1	14
515.596	1	9
515.766	1	16
515.936	1	7
516.106	1	17
516.276	1	18
516.447	1	19
516.617	1	12
516.787	1	12
516.957	1	9
517.127	1	13
517.297	1	9
517.468	1	17
517.638	1	10
517.808	1	12
517.978	1	28
518.148	1	14
518.319	1	22
518.489	1	3
518.659	1	19
518.829	1	13
518.999	1	18
519.169	1	10
519.340	1	22
519.510	1	25
519.680	1	13
519.850	1	5
520.020	1	21
520.190	1	11
520.361	1	13
520.531	1	16
520.701	1	15
520.871	1	13
521.041	1	20
521.211	1	13
521.382	1	18
521.552	1	2
521.722	1	25
521.892	1	9
522.062	1	14
522.232	1	23
522.402	1	19
522.573	1	14
522.743	1	19
522.913	1	16
523.083	1	13
523.253	1	16
523.423	1	20
523.593	1	17
523.764	1	14
523.934	1	21
524.104	1	17
524.274	1	8
524.444	1	7
524.614	1	23
524.784	1	13
524.955	1	24
525.125	1	21
525.295	1	20
525.465	1	16
525.635	1	10
525.805	1	17
525.975	1	8
526.146	1	11
526.316	1	17
526.486	1	14
526.656	1	18
526.826	1	19
526.996	1	11
527.166	1	17
527.337	1	5
527.507	1	21
527.677	1	25
527.847	1	13
528.017	1	12
528.187	1	27
528.357	1	17
528.527	1	18
528.698	1	19
528.868	1	15
529.038	1	14
529.208	1	4
529.378	1	18
529.548	1	17
529.718	1	23
529.888	1	7
530.058	1	14
530.229	1	19
530.399	1	7
530.569	1	9
530.739	1	16
530.909	1	5
531.079	1	-1
531.249	1	10
531.419	1	20
531.589	1	11
531.760	1	15
531.930	1	23
532.100	1	11
532.270	1	17
532.440	1	16
532.610	1	22
532.780	1	24
532.950	1	13
533.120	1	29
533.290	1	17
533.461	1	12
533.631	1	13
533.801	1	15
533.971	1	8
534.141	1	11
534.311	1	20
534.481	1	15
534.651	1	5
534.821	1	9
534.991	1	24
535.162	1	13
535.332	1	20
535.502	1	23
535.672	1	6
535.842	1	13
536.012	1	9
536.182	1	15
536.352	1	11
536.522	1	5
536.692	1	6
536.862	1	6
537.032	1	15
537.203	1	15
537.373	1	21
537.543	1	6
537.713	1	15
537.883	1	6
538.053	1	10
538.223	1	14
538.393	1	17
538.563	1	19
538.733	1	23
538.903	1	10
539.073	1	14
539.243	1	13
539.413	1	6
539.584	1	12
539.754	1	11
539.924	1	15
540.094	1	9
540.264	1	5
540.434	1	17
540.604	1	21
540.774	1	15
540.944	1	8
541.114	1	11
541.284	1	12
541.454	1	20
541.624	1	16
541.794	1	11
541.964	1	5
542.134	1	13
542.305	1	11
542.475	1	10
542.645	1	10
542.815	1	2
542.985	1	13
543.155	1	3
543.325	1	11
543.495	1	25
543.665	1	14
543.835	1	7
544.005	1	9
544.175	1	17
544.345	1	1
544.515	1	15
544.685	1	24
544.855	1	13
545.025	1	10
545.195	1	11
545.365	1	14
545.535	1	9
545.705	1	24
545.875	1	12
546.045	1	12
546.216	1	3
546.386	1	14
546.556	1	15
546.726	1	10
546.896	1	19
547.066	1	17
547.236	1	18
547.406	1	4
547.576	1	15
547.746	1	22
547.916	1	10
548.086	1	17
548.256	1	4
548.426	1	14
548.596	1	3
548.766	1	20
548.936	1	19
549.106	1	23
549.276	1	21
549.446	1	15
549.616	1	12
549.786	1	0
549.956	1	5
550.126	1	11
550.296	1	23
550.466	1	31
550.636	1	15
550.806	1	15
550.976	1	19
551.146	1	5
551.316	1	6
551.486	1	13
551.656	1	12
551.826	1	23
551.996	1	6
552.166	1	22
552.336	1	4
552.506	1	9
552.676	1	10
552.846	1	15
553.016	1	26
553.186	1	16
553.356	1	10
553.526	1	6
553.696	1	21
553.866	1	13
554.036	1	12
554.206	1	13
554.376	1	-2
554.546	1	8
554.716	1	9
554.886	1	25
555.056	1	15
555.226	1	16
555.396	1	5
555.566	1	15
555.736	1	17
555.906	1	12
556.076	1	18
556.246	1	7
556.416	1	0
556.586	1	5
556.756	1	-1
556.926	1	-2
557.096	1	5
557.266	1	5
557.436	1	11
557.606	1	11
557.776	1	17
557.946	1	7
558.116	1	5
558.286	1	6
558.456	1	5
558.626	1	2
558.796	1	14
558.966	1	5
559.136	1	1
559.306	1	12
559.476	1	14
559.646	1	7
559.816	1	8
559.986	1	2
560.155	1	14
560.325	1	1
560.495	1	9
560.665	1	-2
560.835	1	9
561.005	1	18
561.175	1	-2
561.345	1	2
561.515	1	7
561.685	1	1
561.855	1	11
562.025	1	13
562.195	1	16
562.365	1	14
562.535	1	15
562.705	1	10
562.875	1	5
563.045	1	-7
563.215	1	6
563.385	1	-2
563.555	1	3
563.725	1	14
563.895	1	10
564.064	1	0
564.234	1	1
564.404	1	2
564.574	1	20
564.744	1	9
564.914	1	8
565.084	1	10
565.254	1	16
565.424	1	10
565.594	1	-4
565.764	1	0
565.934	1	9
566.104	1	5
566.274	1	13
566.444	1	-5
566.614	1	4
566.783	1	16
566.953	1	2
567.123	1	9
567.293	1	5
567.463	1	1
567.633	1	9
567.803	1	24
567.973	1	15
568.143	1	12
568.313	1	4
568.483	1	20
568.653	1	-6
568.823	1	6
568.993	1	-6
569.162	1	1
569.332	1	7
569.502	1	8
569.672	1	5
569.842	1	14
570.012	1	5
570.182	1	9
570.352	1	1
570.522	1	3
570.692	1	10
570.862	1	7
571.031	1	8
571.201	1	6
571.371	1	3
571.541	1	19
571.711	1	5
571.881	1	14
572.051	1	-5
572.221	1	13
572.391	1	11
572.561	1	15
572.731	1	4
572.900	1	0
573.070	1	9
573.240	1	2
573.410	1	1
573.580	1	0
573.750	1	8
573.920	1	9
574.090	1	11
574.260	1	10
574.430	1	12
574.599	1	3
574.769	1	4
574.939	1	-6
575.109	1	1
575.279	1	10
575.449	1	15
575.619	1	9
575.789	1	9
575.959	1	8
576.128	1	-2
576.298	1	6
576.468	1	8
576.638	1	-5
576.808	1	14
576.978	1	6
577.148	1	5
577.318	1	9
577.487	1	7
577.657	1	-7
577.827	1	4
577.997	1	6
578.167	1	8
578.337	1	7
578.507	1	4
578.677	1	5
578.846	1	7
579.016	1	10
579.186	1	14
579.356	1	-1
579.526	1	3
579.696	1	16
579.866	1	0
580.036	1	9
580.205	1	3
580.375	1	10
580.545	1	9
580.715	1	8
580.885	1	20
581.055	1	6
581.225	1	5
581.394	1	-5
581.564	1	11
581.734	1	5
581.904	1	-1
582.074	1	2
582.244	1	2
582.414	1	7
582.583	1	5
582.753	1	18
582.923	1	7
583.093	1	8
583.263	1	12
583.433	1	-1
583.603	1	-7
583.772	1	3
583.942	1	10
584.112	1	-2
584.282	1	2
584.452	1	16
584.622	1	4
584.791	1	3
584.961	1	-9
585.131	1	8
585.301	1	6
585.471	1	-1
585.641	1	0
585.811	1	3
585.980	1	-1
586.150	1	-3
586.320	1	0
586.490	1	10
586.660	1	12
586.830	1	-6
586.999	1	-3
587.169	1	20
587.339	1	8
587.509	1	9
587.679	1	2
587.849	1	16
588.018	1	-5
588.188	1	6
588.358	1	-3
588.528	1	3
588.698	1	1
588.867	1	-4
589.037	1	-4
589.207	1	5
589.377	1	9
589.547	1	5
589.717	1	-9
589.886	1	6
590.056	1	3
590.226	1	-12
590.396	1	4
590.566	1	-6
590.735	1	2
590.905	1	8
591.075	1	1
591.245	1	8
591.415	1	7
591.585	1	10
591.754	1	6
591.924	1	4
592.094	1	-4
592.264	1	4
592.434	1	3
592.603	1	0
592.773	1	3
592.943	1	1
593.113	1	2
593.283	1	-1
593.452	1	4
593.622	1	6
593.792	1	15
593.962	1	6
594.132	1	0
594.301	1	4
594.471	1	3
594.641	1	6
594.811	1	7
594.981	1	4
595.150	1	0
595.320	1	-2
595.490	1	13
595.660	1	4
595.829	1	-10
595.999	1	1
596.169	1	10
596.339	1	6
596.509	1	-1
596.678	1	10
596.848	1	9
597.018	1	3
597.188	1	-3
597.358	1	10
597.527	1	-2
597.697	1	1
597.867	1	3
598.037	1	2
598.206	1	4
598.376	1	0
598.546	1	12
598.716	1	-9
598.885	1	5
599.055	1	5
599.225	1	1
599.395	1	13
599.565	1	2
599.734	1	9
599.904	1	-4
600.074	1	8
600.244	1	6
600.413	1	7
600.583	1	-5
600.753	1	15
600.923	1	2
601.092	1	7
601.262	1	-2
601.432	1	5
601.602	1	10
601.771	1	7
601.941	1	5
602.111	1	17
602.281	1	7
602.451	1	3
602.620	1	11
602.790	1	-2
602.960	1	-5
603.130	1	1
603.299	1	7
603.469	1	4
603.639	1	-13
603.809	1	8
603.978	1	-3
604.148	1	5
604.318	1	0
604.487	1	7
604.657	1	-4
604.827	1	15
604.997	1	12
605.166	1	1
605.336	1	-2
605.506	1	-7
605.676	1	0
605.845	1	-2
606.015	1	-8
606.185	1	3
606.355	1	2
606.524	1	11
606.694	1	0
606.864	1	11
607.034	1	4
607.203	1	9
607.373	1	-3
607.543	1	-2
607.712	1	6
607.882	1	8
608.052	1	8
608.222	1	6
608.391	1	17
608.561	1	1
608.731	1	9
608.901	1	0
609.070	1	-9
609.240	1	-9
609.410	1	4
609.579	1	-2
609.749	1	10
609.919	1	3
610.089	1	5
610.258	1	2
610.428	1	11
610.598	1	5
610.767	1	16
610.937	1	1
611.107	1	-3
611.277	1	0
611.446	1	4
611.616	1	9
611.786	1	8
611.955	1	7
612.125	1	10
612.295	1	8
612.465	1	7
612.634	1	9
612.804	1	7
612.974	1	-10
613.143	1	9
613.313	1	6
613.483	1	16
613.652	1	9
613.822	1	14
613.992	1	2
614.162	1	3
614.331	1	-2
614.501	1	1
614.671	1	2
614.840	1	-7
615.010	1	-1
615.180	1	12
615.349	1	14
615.519	1	3
615.689	1	-6
615.858	1	3
616.028	1	3
616.198	1	-5
616.368	1	8
616.537	1	3
616.707	1	6
616.877	1	14
617.046	1	14
617.216	1	3
617.386	1	6
617.555	1	3
617.725	1	8
617.895	1	0
618.064	1	1
618.234	1	0
618.404	1	-11
618.573	1	7
618.743	1	9
618.913	1	8
619.082	1	10
619.252	1	4
619.422	1	-6
619.591	1	-1
619.761	1	-2
619.931	1	6
620.100	1	13
620.270	1	9
620.440	1	8
620.609	1	16
620.779	1	10
620.949	1	1
621.118	1	5
621.288	1	-1
621.458	1	9
621.627	1	0
621.797	1	-4
621.967	1	7
622.136	1	3
622.306	1	-2
622.476	1	-8
622.645	1	-6
622.815	1	-1
622.985	1	-2
623.154	1	2
623.324	1	8
623.494	1	-8
623.663	1	1
623.833	1	7
624.002	1	-2
624.172	1	0
624.342	1	12
624.511	1	5
624.681	1	0
624.851	1	1
625.020	1	-2
625.190	1	-1
625.360	1	-9
625.529	1	-3
625.699	1	-8
625.869	1	0
626.038	1	-1
626.208	1	5
626.377	1	7
626.547	1	-7
626.717	1	-11
626.886	1	-7
627.056	1	-4
627.226	1	15
627.395	1	-5
627.565	1	3
627.735	1	6
627.904	1	9
628.074	1	7
628.243	1	7
628.413	1	-4
628.583	1	6
628.752	1	-5
628.922	1	2
629.091	1	-4
629.261	1	9
629.431	1	3
629.600	1	7
629.770	1	10
629.940	1	-3
630.109	1	8
630.279	1	3
630.448	1	-1
630.618	1	5
630.788	1	-3
630.957	1	8
631.127	1	0
631.297	1	-5
631.466	1	7
631.636	1	11
631.805	1	12
631.975	1	-5
632.145	1	1
632.314	1	-2
632.484	1	8
632.653	1	-1
632.823	1	-3
632.993	1	5
633.162	1	7
633.332	1	0
633.501	1	-2
633.671	1	11
633.841	1	8
634.010	1	10
634.180	1	1
634.349	1	2
634.519	1	9
634.689	1	1
634.858	1	-6
635.028	1	2
635.197	1	9
635.367	1	8
635.537	1	-4
635.706	1	1
635.876	1	0
636.045	1	-4
636.215	1	20
636.384	1	3
636.554	1	2
636.724	1	5
636.893	1	0
637.063	1	3
637.232	1	4
637.402	1	2
637.572	1	1
637.741	1	10
637.911	1	-10
638.080	1	7
638.250	1	2
638.419	1	0
638.589	1	6
638.759	1	3
638.928	1	7
639.098	1	6
639.267	1	6
639.437	1	4
639.606	1	10
639.776	1	-4
639.946	1	7
640.115	1	-6
640.285	1	8
640.454	1	5
640.624	1	10
640.793	1	3
640.963	1	0
641.132	1	7
641.302	1	3
641.472	1	1
641.641	1	7
641.811	1	-1
641.980	1	5
642.150	1	-4
642.319	1	14
642.489	1	-1
642.659	1	13
642.828	1	12
642.998	1	4
643.167	1	-3
643.337	1	-5
643.506	1	1
643.676	1	-4
643.845	1	13
644.015	1	7
644.184	1	-11
644.354	1	5
644.524	1	-2
644.693	1	-1
644.863	1	6
645.032	1	4
645.202	1	1
645.371	1	-1
645.541	1	4
645.710	1	-6
645.880	1	-10
646.049	1	-2
646.219	1	-6
646.388	1	7
646.558	1	0
646.728	1	-2
646.897	1	1
647.067	1	-3
647.236	1	16
647.406	1	9
647.575	1	14
647.745	1	6
647.914	1	-6
648.084	1	9
648.253	1	-7
648.423	1	1
648.592	1	-10
648.762	1	10
648.931	1	7
649.101	1	4
649.270	1	2
649.440	1	-2
649.610	1	3
649.779	1	3
649.949	1	2
650.118	1	-1
650.288	1	1
650.457	1	9
650.627	1	7
650.796	1	9
650.966	1	-1
651.135	1	-7
651.305	1	-1
651.474	1	3
651.644	1	16
651.813	1	-2
651.983	1	-7
652.152	1	6
652.322	1	7
652.491	1	3
652.661	1	-3
652.830	1	0
653.000	1	4
653.169	1	6
653.339	1	8
653.508	1	-7
653.678	1	0
653.847	1	-1
654.017	1	-4
654.186	1	-5
654.356	1	-4
654.525	1	0
654.695	1	-2
654.864	1	5
655.034	1	5
655.203	1	1
655.373	1	4
655.542	1	0
655.712	1	2
655.881	1	9
656.051	1	2
656.220	1	1
656.390	1	5
656.559	1	-13
656.729	1	4
656.898	1	-7
657.068	1	7
657.237	1	8
657.406	1	0
657.576	1	-1
657.745	1	1
657.915	1	-1
658.084	1	-1
658.254	1	5
658.423	1	0
658.593	1	5
658.762	1	-1
658.932	1	2
659.101	1	-7
659.271	1	2
659.440	1	-1
659.610	1	8
659.779	1	8
659.949	1	2
660.118	1	6
660.288	1	-3
660.457	1	12
660.626	1	0
660.796	1	3
660.965	1	-2
661.135	1	-9
661.304	1	-6
661.474	1	-6
661.643	1	-1
661.813	1	3
661.982	1	0
662.152	1	2
662.321	1	-4
662.491	1	3
662.660	1	8
662.829	1	5
662.999	1	-1
663.168	1	-3
663.338	1	10
663.507	1	-6
663.677	1	11
663.846	1	-4
664.016	1	4
664.185	1	1
664.354	1	11
664.524	1	-3
664.693	1	-1
664.863	1	3
665.032	1	3
665.202	1	2
665.371	1	-3
665.541	1	11
665.710	1	2
665.879	1	4
666.049	1	5
666.218	1	2
666.388	1	1
666.557	1	13
666.727	1	4
666.896	1	7
667.065	1	-4
667.235	1	10
667.404	1	6
667.574	1	-6
667.743	1	2
667.913	1	17
668.082	1	0
668.251	1	5
668.421	1	2
668.590	1	5
668.760	1	-1
668.929	1	5
669.099	1	0
669.268	1	-6
669.437	1	-6
669.607	1	9
669.776	1	6
669.946	1	-7
670.115	1	-17
670.285	1	11
670.454	1	0
670.623	1	5
670.793	1	4
670.962	1	0
671.132	1	-8
671.301	1	2
671.470	1	2
671.640	1	2
671.809	1	-2
671.979	1	13
672.148	1	3
672.317	1	-4
672.487	1	-7
672.656	1	-3
672.826	1	2
672.995	1	11
673.164	1	-9
673.334	1	7
673.503	1	3
673.673	1	-1
673.842	1	6
674.011	1	8
674.181	1	3
674.350	1	3
674.520	1	6
674.689	1	-7
674.858	1	-11
675.028	1	8
675.197	1	8
675.367	1	1
675.536	1	9
675.705	1	-2
675.875	1	0
676.044	1	-8
676.214	1	0
676.383	1	4
676.552	1	4
676.722	1	-1
676.891	1	7
677.060	1	2
677.230	1	15
677.399	1	-8
677.569	1	5
677.738	1	10
677.907	1	-4
678.077	1	3
678.246	1	-5
678.416	1	-4
678.585	1	-5
678.754	1	7
678.924	1	13
679.093	1	6
679.262	1	-3
679.432	1	1
679.601	1	4
679.771	1	-4
679.940	1	4
680.109	1	-1
680.279	1	-4
680.448	1	13
680.617	1	-3
680.787	1	4
680.956	1	2
681.125	1	11
681.295	1	3
681.464	1	-5
681.634	1	8
681.803	1	1
681.972	1	7
682.142	1	2
682.311	1	1
682.480	1	-2
682.650	1	11
682.819	1	11
682.988	1	8
683.158	1	2
683.327	1	11
683.496	1	4
683.666	1	-1
683.835	1	-10
684.004	1	9
684.174	1	1
684.343	1	-1
684.512	1	5
684.682	1	2
684.851	1	12
685.021	1	-2
685.190	1	5
685.359	1	-6
685.529	1	3
685.698	1	-5
685.867	1	3
686.037	1	9
686.206	1	-3
686.375	1	7
686.545	1	23
686.714	1	3
686.883	1	4
687.053	1	-11
687.222	1	9
687.391	1	7
687.561	1	3
687.730	1	-3
687.899	1	-3
688.069	1	11
688.238	1	-4
688.407	1	11
688.577	1	2
688.746	1	6
