340.368	1	9
340.539	1	0
340.710	1	-1
340.881	1	-2
341.052	1	-7
341.223	1	2
341.394	1	-5
341.565	1	-7
341.737	1	0
341.908	1	-9
342.079	1	-3
342.250	1	6
342.421	1	4
342.592	1	-3
342.763	1	3
342.934	1	0
343.105	1	0
343.276	1	-1
343.447	1	-8
343.618	1	-5
343.789	1	-9
343.960	1	2
344.131	1	3
344.302	1	-12
344.473	1	-7
344.644	1	-9
344.815	1	-6
344.986	1	5
345.157	1	2
345.328	1	-7
345.499	1	0
345.670	1	-12
345.841	1	-7
346.012	1	1
346.183	1	10
346.354	1	4
346.526	1	-5
346.697	1	1
346.868	1	-16
347.039	1	-9
347.210	1	-7
347.381	1	6
347.552	1	-4
347.723	1	1
347.894	1	-3
348.065	1	5
348.236	1	3
348.407	1	-9
348.578	1	-9
348.749	1	-4
348.920	1	-7
349.091	1	7
349.262	1	-7
349.433	1	1
349.604	1	-5
349.775	1	3
349.946	1	-6
350.117	1	-2
350.288	1	0
350.459	1	-10
350.630	1	9
350.801	1	3
350.972	1	-3
351.143	1	10
351.314	1	-2
351.485	1	7
351.656	1	-3
351.827	1	4
351.998	1	4
352.169	1	-5
352.340	1	-7
352.511	1	-2
352.682	1	-1
352.853	1	7
353.024	1	-1
353.195	1	-4
353.366	1	-5
353.537	1	2
353.708	1	3
353.879	1	-11
354.050	1	4
354.221	1	-6
354.392	1	12
354.563	1	4
354.734	1	-4
354.905	1	-4
355.076	1	3
355.247	1	7
355.418	1	-12
355.589	1	-6
355.760	1	6
355.931	1	2
356.102	1	-8
356.273	1	-5
356.444	1	6
356.615	1	5
356.785	1	-4
356.956	1	7
357.127	1	2
357.298	1	-1
357.469	1	0
357.640	1	-5
357.811	1	-3
357.982	1	-4
358.153	1	8
358.324	1	2
358.495	1	-6
358.666	1	-7
358.837	1	5
359.008	1	6
359.179	1	6
359.350	1	-7
359.521	1	7
359.692	1	1
359.863	1	5
360.034	1	2
360.205	1	-5
360.376	1	-11
360.547	1	-4
360.718	1	2
360.889	1	7
361.060	1	-1
361.231	1	-5
361.401	1	-3
361.572	1	-5
361.743	1	5
361.914	1	1
362.085	1	5
362.256	1	5
362.427	1	-10
362.598	1	-4
362.769	1	-2
362.940	1	-2
363.111	1	9
363.282	1	-10
363.453	1	-8
363.624	1	-11
363.795	1	-3
363.966	1	6
364.137	1	6
364.308	1	10
364.478	1	-6
364.649	1	-1
364.820	1	-3
364.991	1	2
365.162	1	-5
365.333	1	-7
365.504	1	0
365.675	1	-6
365.846	1	-6
366.017	1	-3
366.188	1	-3
366.359	1	3
366.530	1	3
366.701	1	-4
366.871	1	1
367.042	1	2
367.213	1	-3
367.384	1	-2
367.555	1	6
367.726	1	-7
367.897	1	7
368.068	1	8
368.239	1	-1
368.410	1	-1
368.581	1	-1
368.752	1	8
368.923	1	4
369.093	1	7
369.264	1	-3
369.435	1	-5
369.606	1	7
369.777	1	2
369.948	1	-7
370.119	1	-11
370.290	1	7
370.461	1	0
370.632	1	0
370.803	1	8
370.973	1	-1
371.144	1	2
371.315	1	-18
371.486	1	-2
371.657	1	-2
371.828	1	8
371.999	1	-2
372.170	1	-2
372.341	1	-2
372.512	1	-9
372.682	1	-4
372.853	1	1
373.024	1	5
373.195	1	-2
373.366	1	-5
373.537	1	-2
373.708	1	-8
373.879	1	5
374.050	1	-1
374.220	1	-1
374.391	1	0
374.562	1	-8
374.733	1	4
374.904	1	7
375.075	1	-4
375.246	1	-10
375.417	1	-3
375.588	1	-2
375.758	1	-13
375.929	1	-9
376.100	1	-2
376.271	1	-8
376.442	1	-7
376.613	1	0
376.784	1	4
376.955	1	-6
377.125	1	-2
377.296	1	4
377.467	1	-5
377.638	1	5
377.809	1	-1
377.980	1	2
378.151	1	6
378.321	1	-12
378.492	1	13
378.663	1	-2
378.834	1	12
379.005	1	4
379.176	1	-12
379.347	1	0
379.518	1	-2
379.688	1	1
379.859	1	2
380.030	1	8
380.201	1	10
380.372	1	-6
380.543	1	-1
380.714	1	-3
380.884	1	5
381.055	1	-7
381.226	1	3
381.397	1	3
381.568	1	8
381.739	1	-5
381.910	1	-8
382.080	1	0
382.251	1	-7
382.422	1	-6
382.593	1	-8
382.764	1	-13
382.935	1	-3
383.105	1	-5
383.276	1	3
383.447	1	0
383.618	1	0
383.789	1	-7
383.960	1	-6
384.130	1	-10
384.301	1	-4
384.472	1	-7
384.643	1	0
384.814	1	-8
384.985	1	-9
385.156	1	10
385.326	1	0
385.497	1	-3
385.668	1	0
385.839	1	2
386.010	1	0
386.180	1	-1
386.351	1	0
386.522	1	6
386.693	1	-3
386.864	1	4
387.035	1	0
387.205	1	-3
387.376	1	7
387.547	1	5
387.718	1	0
387.889	1	3
388.060	1	7
388.230	1	2
388.401	1	-2
388.572	1	5
388.743	1	-3
388.914	1	-18
389.084	1	7
389.255	1	-11
389.426	1	-7
389.597	1	3
389.768	1	3
389.939	1	3
390.109	1	-1
390.280	1	-1
390.451	1	3
390.622	1	4
390.793	1	5
390.963	1	4
391.134	1	-6
391.305	1	-4
391.476	1	-7
391.647	1	-3
391.817	1	1
391.988	1	-10
392.159	1	15
392.330	1	-9
392.501	1	-3
392.671	1	0
392.842	1	5
393.013	1	-3
393.184	1	-3
393.355	1	-2
393.525	1	-1
393.696	1	-4
393.867	1	7
394.038	1	-4
394.208	1	2
394.379	1	-12
394.550	1	2
394.721	1	-1
394.892	1	-3
395.062	1	0
395.233	1	-2
395.404	1	-3
395.575	1	-4
395.746	1	-1
395.916	1	2
396.087	1	2
396.258	1	2
396.429	1	-7
396.599	1	4
396.770	1	-2
396.941	1	-4
397.112	1	-9
397.283	1	-13
397.453	1	9
397.624	1	0
397.795	1	-3
397.966	1	10
398.136	1	0
398.307	1	-4
398.478	1	-7
398.649	1	-3
398.819	1	-1
398.990	1	-2
399.161	1	2
399.332	1	5
399.503	1	3
399.673	1	-16
399.844	1	3
400.015	1	4
400.186	1	-5
400.356	1	9
400.527	1	2
400.698	1	-6
400.869	1	-13
401.039	1	-5
401.210	1	1
401.381	1	7
401.552	1	-8
401.722	1	3
401.893	1	3
402.064	1	-4
402.235	1	-3
402.405	1	-6
402.576	1	-6
402.747	1	-2
402.918	1	3
403.088	1	-5
403.259	1	-5
403.430	1	-4
403.601	1	2
403.771	1	4
403.942	1	2
404.113	1	7
404.284	1	-9
404.454	1	1
404.625	1	2
404.796	1	-6
404.967	1	-2
405.137	1	4
405.308	1	-4
405.479	1	6
405.649	1	0
405.820	1	6
405.991	1	6
406.162	1	7
406.332	1	-14
406.503	1	2
406.674	1	-2
406.845	1	1
407.015	1	-5
407.186	1	6
407.357	1	-4
407.527	1	2
407.698	1	-1
407.869	1	2
408.040	1	5
408.210	1	11
408.381	1	-7
408.552	1	-5
408.722	1	0
408.893	1	-3
409.064	1	-7
409.235	1	8
409.405	1	5
409.576	1	3
409.747	1	1
409.917	1	-8
410.088	1	1
410.259	1	-12
410.430	1	-6
410.600	1	-9
410.771	1	0
410.942	1	-2
411.112	1	-3
411.283	1	-3
411.454	1	0
411.625	1	-13
411.795	1	5
411.966	1	1
412.137	1	6
412.307	1	2
412.478	1	1
412.649	1	-8
412.819	1	-3
412.990	1	-7
413.161	1	-10
413.332	1	-9
413.502	1	-4
413.673	1	11
413.844	1	3
414.014	1	-10
414.185	1	3
414.356	1	3
414.526	1	-1
414.697	1	5
414.868	1	-4
415.038	1	4
415.209	1	-6
415.380	1	9
415.550	1	-1
415.721	1	3
415.892	1	-7
416.063	1	9
416.233	1	-1
416.404	1	-7
416.575	1	9
416.745	1	-7
416.916	1	0
417.087	1	-5
417.257	1	-2
417.428	1	-7
417.599	1	0
417.769	1	2
417.940	1	5
418.111	1	0
418.281	1	-3
418.452	1	-4
418.623	1	4
418.793	1	2
418.964	1	-7
419.135	1	4
419.305	1	-7
419.476	1	-12
419.647	1	4
419.817	1	1
419.988	1	-12
420.159	1	-3
420.329	1	0
420.500	1	12
420.671	1	-2
420.841	1	-2
421.012	1	2
421.183	1	5
421.353	1	2
421.524	1	9
421.695	1	-8
421.865	1	9
422.036	1	-2
422.206	1	0
422.377	1	-6
422.548	1	4
422.718	1	-4
422.889	1	-6
423.060	1	-5
423.230	1	7
423.401	1	3
423.572	1	7
423.742	1	-8
423.913	1	-2
424.084	1	-1
424.254	1	-2
424.425	1	-7
424.595	1	-4
424.766	1	2
424.937	1	0
425.107	1	0
425.278	1	1
425.449	1	0
425.619	1	-2
425.790	1	2
425.961	1	-11
426.131	1	1
426.302	1	5
426.472	1	-7
426.643	1	-10
426.814	1	3
426.984	1	8
427.155	1	-9
427.326	1	1
427.496	1	4
427.667	1	-2
427.837	1	-2
428.008	1	6
428.179	1	-6
428.349	1	-9
428.520	1	-4
428.691	1	-1
428.861	1	0
429.032	1	-3
429.202	1	4
429.373	1	-6
429.544	1	-7
429.714	1	-9
429.885	1	1
430.055	1	5
430.226	1	-1
430.397	1	-5
430.567	1	-10
430.738	1	-5
430.909	1	-2
431.079	1	6
431.250	1	-7
431.420	1	-7
431.591	1	-4
431.762	1	-8
431.932	1	-8
432.103	1	-5
432.273	1	4
432.444	1	-8
432.615	1	-6
432.785	1	-1
432.956	1	-7
433.126	1	10
433.297	1	-3
433.468	1	-2
433.638	1	-1
433.809	1	10
433.979	1	4
434.150	1	6
434.320	1	13
434.491	1	6
434.662	1	-2
434.832	1	-8
435.003	1	-3
435.173	1	4
435.344	1	3
435.515	1	5
435.685	1	8
435.856	1	-8
436.026	1	1
436.197	1	6
436.368	1	-7
436.538	1	-4
436.709	1	-14
436.879	1	-5
437.050	1	8
437.220	1	-2
437.391	1	2
437.562	1	-1
437.732	1	0
437.903	1	-8
438.073	1	-6
438.244	1	2
438.414	1	-5
438.585	1	-4
438.756	1	7
438.926	1	-1
439.097	1	9
439.267	1	3
439.438	1	-1
439.608	1	-12
439.779	1	-9
439.949	1	-1
440.120	1	-8
440.291	1	-1
440.461	1	3
440.632	1	9
440.802	1	1
440.973	1	2
441.143	1	-3
441.314	1	-6
441.485	1	-4
441.655	1	-17
441.826	1	-12
441.996	1	-4
442.167	1	1
442.337	1	3
442.508	1	-6
442.678	1	-4
442.849	1	-9
443.019	1	-8
443.190	1	7
443.361	1	2
443.531	1	-3
443.702	1	-12
443.872	1	-2
444.043	1	13
444.213	1	10
444.384	1	-1
444.554	1	-5
444.725	1	5
444.895	1	-1
445.066	1	-7
445.237	1	-1
445.407	1	-1
445.578	1	7
445.748	1	-1
445.919	1	-3
446.089	1	2
446.260	1	-5
446.430	1	-1
446.601	1	3
446.771	1	-11
446.942	1	-2
447.112	1	1
447.283	1	-6
447.453	1	-1
447.624	1	-7
447.794	1	-3
447.965	1	4
448.135	1	-9
448.306	1	0
448.477	1	-3
448.647	1	3
448.818	1	-13
448.988	1	-5
449.159	1	-3
449.329	1	1
449.500	1	-2
449.670	1	7
449.841	1	-5
450.011	1	-6
450.182	1	-9
450.352	1	1
450.523	1	3
450.693	1	8
450.864	1	9
451.034	1	14
451.205	1	5
451.375	1	-2
451.546	1	-4
451.716	1	4
451.887	1	-4
452.057	1	9
452.228	1	1
452.398	1	8
452.569	1	-6
452.739	1	-7
452.910	1	-7
453.080	1	4
453.251	1	-3
453.421	1	-5
453.592	1	7
453.762	1	-6
453.933	1	-1
454.103	1	-5
454.274	1	8
454.444	1	-3
454.615	1	8
454.785	1	-1
454.956	1	10
455.126	1	2
455.297	1	3
455.467	1	-9
455.638	1	-7
455.808	1	1
455.979	1	1
456.149	1	2
456.320	1	9
456.490	1	-6
456.661	1	-11
456.831	1	-2
457.001	1	3
457.172	1	12
457.342	1	0
457.513	1	11
457.683	1	1
457.854	1	2
458.024	1	-9
458.195	1	-7
458.365	1	9
458.536	1	-2
458.706	1	4
458.877	1	2
459.047	1	6
459.218	1	4
459.388	1	1
459.559	1	-3
459.729	1	-9
459.899	1	-9
460.070	1	-9
460.240	1	8
460.411	1	0
460.581	1	2
460.752	1	5
460.922	1	6
461.093	1	-4
461.263	1	-2
461.434	1	10
461.604	1	3
461.775	1	4
461.945	1	-2
462.115	1	-1
462.286	1	-2
462.456	1	-5
462.627	1	11
462.797	1	-11
462.968	1	-5
463.138	1	-5
463.309	1	5
463.479	1	-6
463.649	1	-4
463.820	1	-1
463.990	1	5
464.161	1	-7
464.331	1	8
464.502	1	3
464.672	1	-9
464.843	1	-8
465.013	1	-9
465.183	1	-6
465.354	1	1
465.524	1	-4
465.695	1	7
465.865	1	1
466.036	1	0
466.206	1	2
466.376	1	-6
466.547	1	2
466.717	1	6
466.888	1	-8
467.058	1	2
467.229	1	4
467.399	1	2
467.569	1	6
467.740	1	-2
467.910	1	-2
468.081	1	-2
468.251	1	-3
468.422	1	-11
468.592	1	-5
468.762	1	-6
468.933	1	6
469.103	1	-5
469.274	1	-3
469.444	1	3
469.614	1	8
469.785	1	6
469.955	1	-10
470.126	1	-1
470.296	1	6
470.467	1	-13
470.637	1	8
470.807	1	9
470.978	1	5
471.148	1	-4
471.319	1	-2
471.489	1	-9
471.659	1	-6
471.830	1	4
472.000	1	4
472.171	1	-7
472.341	1	-3
472.511	1	11
472.682	1	-4
472.852	1	-8
473.023	1	-5
473.193	1	-4
473.363	1	-1
473.534	1	-8
473.704	1	-7
473.875	1	-8
474.045	1	1
474.215	1	4
474.386	1	4
474.556	1	2
474.727	1	7
474.897	1	-4
475.067	1	-5
475.238	1	-12
475.408	1	-4
475.578	1	1
475.749	1	-1
475.919	1	3
476.090	1	7
476.260	1	2
476.430	1	2
476.601	1	1
476.771	1	-7
476.942	1	5
477.112	1	-2
477.282	1	-6
477.453	1	4
477.623	1	5
477.793	1	4
477.964	1	5
478.134	1	2
478.305	1	-3
478.475	1	-1
478.645	1	1
478.816	1	4
478.986	1	-2
479.156	1	-4
479.327	1	6
479.497	1	2
479.667	1	10
479.838	1	-17
480.008	1	-3
480.179	1	-18
480.349	1	2
480.519	1	-4
480.690	1	-5
480.860	1	4
481.030	1	8
481.201	1	-6
481.371	1	-1
481.541	1	-2
481.712	1	1
481.882	1	-13
482.053	1	-2
482.223	1	-3
482.393	1	1
482.564	1	-1
482.734	1	10
482.904	1	0
483.075	1	-7
483.245	1	4
483.415	1	-4
483.586	1	3
483.756	1	-4
483.926	1	-4
484.097	1	5
484.267	1	-2
484.437	1	3
484.608	1	-2
484.778	1	0
484.948	1	0
485.119	1	-5
485.289	1	6
485.459	1	-2
485.630	1	7
485.800	1	-2
485.970	1	-2
486.141	1	-3
486.311	1	-8
486.481	1	-3
486.652	1	-5
486.822	1	7
486.992	1	0
487.163	1	-5
487.333	1	-2
487.503	1	5
487.674	1	6
487.844	1	-5
488.014	1	10
488.185	1	-5
488.355	1	6
488.525	1	6
488.696	1	-3
488.866	1	-1
489.036	1	2
489.207	1	-7
489.377	1	-6
489.547	1	-6
489.718	1	6
489.888	1	3
490.058	1	3
490.228	1	-8
490.399	1	9
490.569	1	-4
490.739	1	6
490.910	1	-9
491.080	1	-2
491.250	1	-2
491.421	1	2
491.591	1	-13
491.761	1	-6
491.932	1	-12
492.102	1	-4
492.272	1	2
492.442	1	2
492.613	1	-1
492.783	1	3
492.953	1	-4
493.124	1	9
493.294	1	9
493.464	1	1
493.635	1	-5
493.805	1	6
493.975	1	-9
494.145	1	7
494.316	1	3
494.486	1	2
494.656	1	-11
494.827	1	6
494.997	1	-1
495.167	1	1
495.337	1	3
495.508	1	-1
495.678	1	3
495.848	1	-4
496.019	1	2
496.189	1	-2
496.359	1	2
496.529	1	0
496.700	1	0
496.870	1	8
497.040	1	-6
497.211	1	-9
497.381	1	1
497.551	1	4
497.721	1	-14
497.892	1	5
498.062	1	-6
498.232	1	5
498.403	1	-4
498.573	1	4
498.743	1	2
498.913	1	1
499.084	1	-10
499.254	1	-11
499.424	1	-6
499.594	1	2
499.765	1	4
499.935	1	-5
500.105	1	1
500.275	1	4
500.446	1	-11
500.616	1	-5
500.786	1	0
500.956	1	4
501.127	1	-1
501.297	1	-2
501.467	1	-5
501.638	1	4
501.808	1	-1
501.978	1	-5
502.148	1	-9
502.319	1	8
502.489	1	-5
502.659	1	4
502.829	1	8
503.000	1	-4
503.170	1	-1
503.340	1	-2
503.510	1	-5
503.681	1	-9
503.851	1	-2
504.021	1	6
504.191	1	2
504.362	1	-5
504.532	1	3
504.702	1	-1
504.872	1	-12
505.042	1	-6
505.213	1	0
505.383	1	1
505.553	1	-5
505.723	1	-3
505.894	1	-4
506.064	1	-2
506.234	1	-1
506.404	1	2
506.575	1	-9
506.745	1	6
506.915	1	-7
507.085	1	-5
507.256	1	3
507.426	1	-5
507.596	1	-3
507.766	1	5
507.936	1	-6
508.107	1	7
508.277	1	-6
508.447	1	-5
508.617	1	-7
508.788	1	-2
508.958	1	4
509.128	1	4
509.298	1	-8
509.468	1	-1
509.639	1	-5
509.809	1	3
509.979	1	2
510.149	1	-1
510.319	1	-9
510.490	1	3
510.660	1	-2
510.830	1	-2
511.000	1	-6
511.171	1	-4
511.341	1	2
511.511	1	-2
511.681	1	2
511.851	1	5
512.022	1	-9
512.192	1	0
512.362	1	-3
512.532	1	-9
512.702	1	2
512.873	1	12
513.043	1	0
513.213	1	14
513.383	1	-7
513.553	1	10
513.724	1	-8
513.894	1	-7
514.064	1	0
514.234	1	5
514.404	1	2
514.575	1	-5
514.745	1	5
514.915	1	-10
515.085	1	0
515.255	1	-1
515.425	1	-7
515.596	1	3
515.766	1	0
515.936	1	1
516.106	1	-2
516.276	1	12
516.447	1	-3
516.617	1	-5
516.787	1	-2
516.957	1	-2
517.127	1	-2
517.297	1	-2
517.468	1	-8
517.638	1	-12
517.808	1	-6
517.978	1	5
518.148	1	-2
518.319	1	-8
518.489	1	2
518.659	1	-14
518.829	1	-11
518.999	1	2
519.169	1	-6
519.340	1	12
519.510	1	4
519.680	1	-9
519.850	1	-4
520.020	1	-1
520.190	1	-1
520.361	1	-9
520.531	1	3
520.701	1	6
520.871	1	0
521.041	1	8
521.211	1	12
521.382	1	-6
521.552	1	-4
521.722	1	10
521.892	1	-2
522.062	1	-3
522.232	1	3
522.402	1	6
522.573	1	-6
522.743	1	7
522.913	1	5
523.083	1	6
523.253	1	-4
523.423	1	-6
523.593	1	-10
523.764	1	-2
523.934	1	7
524.104	1	5
524.274	1	3
524.444	1	2
524.614	1	2
524.784	1	-5
524.955	1	10
525.125	1	0
525.295	1	-6
525.465	1	-1
525.635	1	-2
525.805	1	-2
525.975	1	-5
526.146	1	-5
526.316	1	4
526.486	1	1
526.656	1	1
526.826	1	-2
526.996	1	6
527.166	1	-12
527.337	1	-3
527.507	1	3
527.677	1	14
527.847	1	-1
528.017	1	-7
528.187	1	11
528.357	1	4
528.527	1	0
528.698	1	-5
528.868	1	-4
529.038	1	2
529.208	1	-6
529.378	1	-3
529.548	1	-10
529.718	1	-4
529.888	1	9
530.058	1	-2
530.229	1	-1
530.399	1	-11
530.569	1	-9
530.739	1	-6
530.909	1	-5
531.079	1	-14
531.249	1	-4
531.419	1	0
531.589	1	3
531.760	1	0
531.930	1	3
532.100	1	-12
532.270	1	2
532.440	1	1
532.610	1	7
532.780	1	6
532.950	1	2
533.120	1	7
533.290	1	-2
533.461	1	4
533.631	1	6
533.801	1	-1
533.971	1	-11
534.141	1	-5
534.311	1	-2
534.481	1	2
534.651	1	-5
534.821	1	-6
534.991	1	-5
535.162	1	-4
535.332	1	0
535.502	1	-1
535.672	1	-5
535.842	1	6
536.012	1	-8
536.182	1	-1
536.352	1	-4
536.522	1	-9
536.692	1	2
536.862	1	0
537.032	1	-6
537.203	1	3
537.373	1	-3
537.543	1	-6
537.713	1	-1
537.883	1	-2
538.053	1	-11
538.223	1	2
538.393	1	9
538.563	1	7
538.733	1	8
538.903	1	-10
539.073	1	-5
539.243	1	-2
539.413	1	6
539.584	1	-7
539.754	1	-1
539.924	1	-3
540.094	1	-5
540.264	1	-9
540.434	1	2
540.604	1	-6
540.774	1	5
540.944	1	-8
541.114	1	4
541.284	1	-12
541.454	1	5
541.624	1	1
541.794	1	2
541.964	1	-6
542.134	1	-1
542.305	1	2
542.475	1	2
542.645	1	5
542.815	1	-11
542.985	1	3
543.155	1	-13
543.325	1	-4
543.495	1	17
543.665	1	-4
543.835	1	-1
544.005	1	3
544.175	1	0
544.345	1	-11
544.515	1	1
544.685	1	7
544.855	1	-2
545.025	1	0
545.195	1	-2
545.365	1	0
545.535	1	5
545.705	1	-4
545.875	1	1
546.045	1	-1
546.216	1	-17
546.386	1	1
546.556	1	-7
546.726	1	5
546.896	1	2
547.066	1	-1
547.236	1	-12
547.406	1	-12
547.576	1	7
547.746	1	9
547.916	1	2
548.086	1	-1
548.256	1	-10
548.426	1	-7
548.596	1	5
548.766	1	12
548.936	1	13
549.106	1	0
549.276	1	1
549.446	1	1
549.616	1	1
549.786	1	-16
549.956	1	-4
550.126	1	-7
550.296	1	2
550.466	1	2
550.636	1	7
550.806	1	6
550.976	1	-6
551.146	1	-7
551.316	1	-6
551.486	1	4
551.656	1	6
551.826	1	2
551.996	1	-4
552.166	1	5
552.336	1	-8
552.506	1	8
552.676	1	4
552.846	1	-1
553.016	1	9
553.186	1	2
553.356	1	-8
553.526	1	-2
553.696	1	14
553.866	1	3
554.036	1	-2
554.206	1	-4
554.376	1	-8
554.546	1	1
554.716	1	6
554.886	1	0
555.056	1	-3
555.226	1	1
555.396	1	-8
555.566	1	3
555.736	1	0
555.906	1	0
556.076	1	4
556.246	1	-6
556.416	1	-10
556.586	1	-18
556.756	1	-9
556.926	1	-5
557.096	1	-4
557.266	1	-4
557.436	1	5
557.606	1	-9
557.776	1	7
557.946	1	-7
558.116	1	-3
558.286	1	-2
558.456	1	-2
558.626	1	-12
558.796	1	4
558.966	1	3
559.136	1	3
559.306	1	5
559.476	1	2
559.646	1	-4
559.816	1	5
559.986	1	-7
560.155	1	2
560.325	1	-4
560.495	1	-6
560.665	1	-7
560.835	1	-3
561.005	1	1
561.175	1	-9
561.345	1	-4
561.515	1	-12
561.685	1	-6
561.855	1	1
562.025	1	1
562.195	1	-3
562.365	1	9
562.535	1	1
562.705	1	-2
562.875	1	-8
563.045	1	-8
563.215	1	-2
563.385	1	-14
563.555	1	-3
563.725	1	9
563.895	1	-2
564.064	1	-11
564.234	1	3
564.404	1	9
564.574	1	12
564.744	1	-8
564.914	1	3
565.084	1	-13
565.254	1	-1
565.424	1	4
565.594	1	-6
565.764	1	-7
565.934	1	4
566.104	1	7
566.274	1	7
566.444	1	-9
566.614	1	-2
566.783	1	4
566.953	1	-5
567.123	1	2
567.293	1	-3
567.463	1	-4
567.633	1	-1
567.803	1	8
567.973	1	7
568.143	1	-10
568.313	1	7
568.483	1	7
568.653	1	-5
568.823	1	-6
568.993	1	-12
569.162	1	3
569.332	1	6
569.502	1	11
569.672	1	-2
569.842	1	-6
570.012	1	1
570.182	1	-4
570.352	1	1
570.522	1	-4
570.692	1	7
570.862	1	1
571.031	1	-1
571.201	1	5
571.371	1	4
571.541	1	-1
571.711	1	-3
571.881	1	3
572.051	1	-3
572.221	1	-9
572.391	1	12
572.561	1	1
572.731	1	-4
572.900	1	-13
573.070	1	5
573.240	1	-4
573.410	1	-1
573.580	1	4
573.750	1	5
573.920	1	4
574.090	1	6
574.260	1	-4
574.430	1	6
574.599	1	-3
574.769	1	-2
574.939	1	-2
575.109	1	-7
575.279	1	-3
575.449	1	7
575.619	1	6
575.789	1	-8
575.959	1	-7
576.128	1	-4
576.298	1	-1
576.468	1	-1
576.638	1	-11
576.808	1	-3
576.978	1	-6
577.148	1	-4
577.318	1	16
577.487	1	1
577.657	1	-2
577.827	1	2
577.997	1	4
578.167	1	-7
578.337	1	-5
578.507	1	-7
578.677	1	-2
578.846	1	-2
579.016	1	2
579.186	1	2
579.356	1	7
579.526	1	-11
579.696	1	18
579.866	1	-4
580.036	1	-2
580.205	1	-5
580.375	1	6
580.545	1	-6
580.715	1	-1
580.885	1	-2
581.055	1	-7
581.225	1	2
581.394	1	-9
581.564	1	-4
581.734	1	-15
581.904	1	-9
582.074	1	-8
582.244	1	5
582.414	1	-4
582.583	1	3
582.753	1	13
582.923	1	2
583.093	1	0
583.263	1	5
583.433	1	3
583.603	1	-10
583.772	1	-7
583.942	1	-5
584.112	1	-10
584.282	1	-6
584.452	1	-6
584.622	1	-2
584.791	1	-2
584.961	1	-12
585.131	1	5
585.301	1	-3
585.471	1	-10
585.641	1	3
585.811	1	1
585.980	1	-6
586.150	1	-1
586.320	1	-4
586.490	1	11
586.660	1	1
586.830	1	-2
586.999	1	-2
587.169	1	4
587.339	1	-1
587.509	1	-2
587.679	1	2
587.849	1	6
588.018	1	-11
588.188	1	0
588.358	1	-11
588.528	1	1
588.698	1	-7
588.867	1	6
589.037	1	-18
589.207	1	-1
589.377	1	0
589.547	1	6
589.717	1	-8
589.886	1	6
590.056	1	-1
590.226	1	-5
590.396	1	-8
590.566	1	-9
590.735	1	-8
590.905	1	8
591.075	1	-6
591.245	1	1
591.415	1	3
591.585	1	-2
591.754	1	-2
591.924	1	7
592.094	1	-1
592.264	1	0
592.434	1	-13
592.603	1	-13
592.773	1	-6
592.943	1	6
593.113	1	3
593.283	1	-6
593.452	1	-6
593.622	1	1
593.792	1	6
593.962	1	2
594.132	1	2
594.301	1	2
594.471	1	6
594.641	1	-5
594.811	1	-2
594.981	1	-9
595.150	1	3
595.320	1	3
595.490	1	2
595.660	1	-2
595.829	1	-20
595.999	1	-12
596.169	1	10
596.339	1	6
596.509	1	-1
596.678	1	5
596.848	1	4
597.018	1	-6
597.188	1	-4
597.358	1	1
597.527	1	-2
597.697	1	2
597.867	1	0
598.037	1	1
598.206	1	6
598.376	1	-1
598.546	1	10
598.716	1	-13
598.885	1	-6
599.055	1	2
599.225	1	-7
599.395	1	3
599.565	1	-1
599.734	1	5
599.904	1	-9
600.074	1	3
600.244	1	1
600.413	1	1
600.583	1	-1
600.753	1	3
600.923	1	-1
601.092	1	5
601.262	1	-8
601.432	1	5
601.602	1	16
601.771	1	3
601.941	1	6
602.111	1	-13
602.281	1	8
602.451	1	1
602.620	1	-4
602.790	1	-5
602.960	1	-21
603.130	1	-9
603.299	1	-4
603.469	1	-1
603.639	1	-8
603.809	1	4
603.978	1	-6
604.148	1	-1
604.318	1	-3
604.487	1	-2
604.657	1	-4
604.827	1	0
604.997	1	12
605.166	1	-3
605.336	1	-13
605.506	1	-16
605.676	1	6
605.845	1	-6
606.015	1	-10
606.185	1	-1
606.355	1	0
606.524	1	-6
606.694	1	7
606.864	1	2
607.034	1	-6
607.203	1	3
607.373	1	-7
607.543	1	-3
607.712	1	-9
607.882	1	2
608.052	1	-6
608.222	1	3
608.391	1	5
608.561	1	-4
608.731	1	-7
608.901	1	0
609.070	1	-1
609.240	1	-7
609.410	1	-8
609.579	1	4
609.749	1	1
609.919	1	2
610.089	1	-4
610.258	1	-4
610.428	1	11
610.598	1	-2
610.767	1	4
610.937	1	-6
611.107	1	-5
611.277	1	-7
611.446	1	5
611.616	1	7
611.786	1	0
611.955	1	-2
612.125	1	4
612.295	1	-1
612.465	1	-8
612.634	1	6
612.804	1	1
612.974	1	2
613.143	1	-1
613.313	1	0
613.483	1	10
613.652	1	1
613.822	1	-11
613.992	1	-5
614.162	1	-4
614.331	1	4
614.501	1	-4
614.671	1	0
614.840	1	4
615.010	1	-2
615.180	1	1
615.349	1	3
615.519	1	0
615.689	1	-13
615.858	1	13
616.028	1	7
616.198	1	0
616.368	1	-6
616.537	1	-6
616.707	1	-6
616.877	1	5
617.046	1	7
617.216	1	-1
617.386	1	10
617.555	1	-4
617.725	1	3
617.895	1	-1
618.064	1	-2
618.234	1	-8
618.404	1	-9
618.573	1	5
618.743	1	10
618.913	1	12
619.082	1	-7
619.252	1	-1
619.422	1	-12
619.591	1	-1
619.761	1	1
619.931	1	3
620.100	1	7
620.270	1	0
620.440	1	2
620.609	1	9
620.779	1	10
620.949	1	-2
621.118	1	-1
621.288	1	-4
621.458	1	5
621.627	1	-5
621.797	1	-9
621.967	1	-5
622.136	1	3
622.306	1	-6
622.476	1	-11
622.645	1	2
622.815	1	2
622.985	1	-5
623.154	1	1
623.324	1	-1
623.494	1	-14
623.663	1	4
623.833	1	0
624.002	1	-1
624.172	1	-1
624.342	1	11
624.511	1	1
624.681	1	-6
624.851	1	-6
625.020	1	1
625.190	1	-4
625.360	1	-6
625.529	1	-10
625.699	1	-8
625.869	1	-1
626.038	1	-6
626.208	1	13
626.377	1	1
626.547	1	-5
626.717	1	-12
626.886	1	-2
627.056	1	-9
627.226	1	10
627.395	1	-4
627.565	1	5
627.735	1	-2
627.904	1	11
628.074	1	10
628.243	1	1
628.413	1	-8
628.583	1	4
628.752	1	-4
628.922	1	-6
629.091	1	-2
629.261	1	3
629.431	1	-1
629.600	1	0
629.770	1	-8
629.940	1	-7
630.109	1	-1
630.279	1	2
630.448	1	0
630.618	1	6
630.788	1	-4
630.957	1	0
631.127	1	-1
631.297	1	-12
631.466	1	-2
631.636	1	0
631.805	1	2
631.975	1	3
632.145	1	3
632.314	1	6
632.484	1	5
632.653	1	-5
632.823	1	-5
632.993	1	-1
633.162	1	-4
633.332	1	-7
633.501	1	-8
633.671	1	-1
633.841	1	9
634.010	1	10
634.180	1	1
634.349	1	0
634.519	1	3
634.689	1	-1
634.858	1	-13
635.028	1	-17
635.197	1	-1
635.367	1	3
635.537	1	-7
635.706	1	-1
635.876	1	3
636.045	1	3
636.215	1	14
636.384	1	-3
636.554	1	0
636.724	1	2
636.893	1	1
637.063	1	5
637.232	1	-3
637.402	1	-8
637.572	1	-7
637.741	1	-3
637.911	1	1
638.080	1	6
638.250	1	-6
638.419	1	-2
638.589	1	2
638.759	1	-1
638.928	1	-3
639.098	1	-4
639.267	1	5
639.437	1	2
639.606	1	7
639.776	1	4
639.946	1	5
640.115	1	-9
640.285	1	1
640.454	1	8
640.624	1	6
640.793	1	8
640.963	1	-9
641.132	1	3
641.302	1	0
641.472	1	3
641.641	1	-6
641.811	1	-3
641.980	1	-6
642.150	1	-1
642.319	1	12
642.489	1	-13
642.659	1	5
642.828	1	-4
642.998	1	-1
643.167	1	-4
643.337	1	-5
643.506	1	3
643.676	1	-2
643.845	1	5
644.015	1	-6
644.184	1	-10
644.354	1	-5
644.524	1	4
644.693	1	7
644.863	1	6
645.032	1	3
645.202	1	-4
645.371	1	-3
645.541	1	6
645.710	1	-6
645.880	1	-5
646.049	1	0
646.219	1	2
646.388	1	5
646.558	1	1
646.728	1	-3
646.897	1	-3
647.067	1	-2
647.236	1	2
647.406	1	5
647.575	1	9
647.745	1	8
647.914	1	-9
648.084	1	-2
648.253	1	-11
648.423	1	-4
648.592	1	-7
648.762	1	6
648.931	1	0
649.101	1	-7
649.270	1	-5
649.440	1	8
649.610	1	4
649.779	1	-2
649.949	1	9
650.118	1	-7
650.288	1	1
650.457	1	2
650.627	1	1
650.796	1	2
650.966	1	-11
651.135	1	1
651.305	1	8
651.474	1	5
651.644	1	8
651.813	1	6
651.983	1	-4
652.152	1	-1
652.322	1	-6
652.491	1	5
652.661	1	-6
652.830	1	5
653.000	1	-5
653.169	1	12
653.339	1	4
653.508	1	-8
653.678	1	1
653.847	1	-9
654.017	1	5
654.186	1	-7
654.356	1	-8
654.525	1	-10
654.695	1	3
654.864	1	-2
655.034	1	5
655.203	1	9
655.373	1	1
655.542	1	0
655.712	1	-9
655.881	1	11
656.051	1	4
656.220	1	-3
656.390	1	-6
656.559	1	-12
656.729	1	-8
656.898	1	-3
657.068	1	-4
657.237	1	3
657.406	1	-3
657.576	1	-2
657.745	1	-7
657.915	1	-4
658.084	1	3
658.254	1	4
658.423	1	3
658.593	1	1
658.762	1	-1
658.932	1	-3
659.101	1	-7
659.271	1	-2
659.440	1	1
659.610	1	-6
659.779	1	-1
659.949	1	-1
660.118	1	2
660.288	1	-14
660.457	1	9
660.626	1	4
660.796	1	1
660.965	1	-6
661.135	1	-10
661.304	1	-7
661.474	1	-5
661.643	1	0
661.813	1	7
661.982	1	-1
662.152	1	2
662.321	1	-8
662.491	1	-10
662.660	1	-7
662.829	1	3
662.999	1	-1
663.168	1	10
663.338	1	9
663.507	1	-3
663.677	1	-2
663.846	1	-5
664.016	1	-6
664.185	1	-1
664.354	1	2
664.524	1	-2
664.693	1	-10
664.863	1	6
665.032	1	-5
665.202	1	-3
665.371	1	-5
665.541	1	9
665.710	1	-5
665.879	1	3
666.049	1	-3
666.218	1	-13
666.388	1	-2
666.557	1	11
666.727	1	-9
666.896	1	6
667.065	1	-6
667.235	1	18
667.404	1	-3
667.574	1	-2
667.743	1	-1
667.913	1	5
668.082	1	-12
668.251	1	-4
668.421	1	-2
668.590	1	3
668.760	1	4
668.929	1	1
669.099	1	-6
669.268	1	-9
669.437	1	3
669.607	1	5
669.776	1	3
669.946	1	-3
670.115	1	-19
670.285	1	-4
670.454	1	1
670.623	1	-5
670.793	1	-4
670.962	1	3
671.132	1	-13
671.301	1	1
671.470	1	-3
671.640	1	-4
671.809	1	-7
671.979	1	4
672.148	1	-1
672.317	1	2
672.487	1	-2
672.656	1	-10
672.826	1	-1
672.995	1	-6
673.164	1	-16
673.334	1	1
673.503	1	-15
673.673	1	0
673.842	1	11
674.011	1	9
674.181	1	5
674.350	1	-3
674.520	1	6
674.689	1	-17
674.858	1	-4
675.028	1	7
675.197	1	2
675.367	1	-2
675.536	1	-2
675.705	1	3
675.875	1	-8
676.044	1	-13
676.214	1	-4
676.383	1	1
676.552	1	-2
676.722	1	-4
676.891	1	-1
677.060	1	-1
677.230	1	4
677.399	1	-15
677.569	1	1
677.738	1	8
677.907	1	0
678.077	1	2
678.246	1	5
678.416	1	-5
678.585	1	-8
678.754	1	-2
678.924	1	10
679.093	1	1
679.262	1	5
679.432	1	4
679.601	1	-3
679.771	1	-1
679.940	1	4
680.109	1	-8
680.279	1	2
680.448	1	6
680.617	1	-8
680.787	1	-3
680.956	1	5
681.125	1	2
681.295	1	-6
681.464	1	-4
681.634	1	7
681.803	1	3
681.972	1	-1
682.142	1	-2
682.311	1	1
682.480	1	5
682.650	1	2
682.819	1	4
682.988	1	-5
683.158	1	1
683.327	1	6
683.496	1	1
683.666	1	1
683.835	1	-5
684.004	1	-4
684.174	1	-3
684.343	1	-1
684.512	1	-3
684.682	1	-4
684.851	1	1
685.021	1	-2
685.190	1	-3
685.359	1	-14
685.529	1	2
685.698	1	0
685.867	1	-9
686.037	1	0
686.206	1	-12
686.375	1	13
686.545	1	12
686.714	1	5
686.883	1	6
687.053	1	-7
687.222	1	-6
687.391	1	2
687.561	1	6
687.730	1	-2
687.899	1	1
688.069	1	-3
688.238	1	-9
688.407	1	5
688.577	1	-8
688.746	1	3
