340.368	1	6
340.539	1	14
340.710	1	2
340.881	1	1
341.052	1	2
341.223	1	18
341.394	1	-13
341.565	1	6
341.737	1	3
341.908	1	-2
342.079	1	0
342.250	1	-3
342.421	1	4
342.592	1	9
342.763	1	6
342.934	1	-2
343.105	1	-4
343.276	1	6
343.447	1	-11
343.618	1	-4
343.789	1	1
343.960	1	-7
344.131	1	-2
344.302	1	-7
344.473	1	6
344.644	1	6
344.815	1	-9
344.986	1	7
345.157	1	14
345.328	1	-6
345.499	1	1
345.670	1	-6
345.841	1	-10
346.012	1	6
346.183	1	10
346.354	1	9
346.526	1	5
346.697	1	2
346.868	1	-9
347.039	1	-6
347.210	1	-9
347.381	1	2
347.552	1	-1
347.723	1	5
347.894	1	6
348.065	1	8
348.236	1	14
348.407	1	-1
348.578	1	-3
348.749	1	-1
348.920	1	-6
349.091	1	11
349.262	1	-1
349.433	1	-2
349.604	1	10
349.775	1	11
349.946	1	2
350.117	1	1
350.288	1	-4
350.459	1	-7
350.630	1	13
350.801	1	2
350.972	1	14
351.143	1	15
351.314	1	0
351.485	1	0
351.656	1	5
351.827	1	11
351.998	1	3
352.169	1	-2
352.340	1	-1
352.511	1	6
352.682	1	-2
352.853	1	4
353.024	1	12
353.195	1	5
353.366	1	8
353.537	1	4
353.708	1	13
353.879	1	0
354.050	1	-3
354.221	1	3
354.392	1	10
354.563	1	11
354.734	1	5
354.905	1	12
355.076	1	11
355.247	1	6
355.418	1	2
355.589	1	3
355.760	1	11
355.931	1	-1
356.102	1	4
356.273	1	0
356.444	1	1
356.615	1	8
356.785	1	4
356.956	1	0
357.127	1	9
357.298	1	8
357.469	1	3
357.640	1	7
357.811	1	0
357.982	1	0
358.153	1	10
358.324	1	13
358.495	1	-5
358.666	1	7
358.837	1	15
359.008	1	17
359.179	1	10
359.350	1	10
359.521	1	16
359.692	1	9
359.863	1	13
360.034	1	21
360.205	1	14
360.376	1	3
360.547	1	7
360.718	1	27
360.889	1	22
361.060	1	14
361.231	1	6
361.401	1	4
361.572	1	11
361.743	1	23
361.914	1	21
362.085	1	7
362.256	1	15
362.427	1	7
362.598	1	15
362.769	1	16
362.940	1	18
363.111	1	21
363.282	1	17
363.453	1	16
363.624	1	16
363.795	1	10
363.966	1	19
364.137	1	26
364.308	1	30
364.478	1	19
364.649	1	33
364.820	1	25
364.991	1	38
365.162	1	29
365.333	1	28
365.504	1	26
365.675	1	29
365.846	1	35
366.017	1	43
366.188	1	30
366.359	1	40
366.530	1	46
366.701	1	47
366.871	1	33
367.042	1	44
367.213	1	38
367.384	1	13
367.555	1	46
367.726	1	37
367.897	1	49
368.068	1	43
368.239	1	32
368.410	1	39
368.581	1	42
368.752	1	36
368.923	1	36
369.093	1	38
369.264	1	22
369.435	1	35
369.606	1	38
369.777	1	45
369.948	1	29
370.119	1	35
370.290	1	34
370.461	1	23
370.632	1	29
370.803	1	33
370.973	1	15
371.144	1	28
371.315	1	26
371.486	1	22
371.657	1	30
371.828	1	25
371.999	1	9
372.170	1	33
372.341	1	14
372.512	1	16
372.682	1	22
372.853	1	25
373.024	1	17
373.195	1	19
373.366	1	17
373.537	1	22
373.708	1	4
373.879	1	19
374.050	1	14
374.220	1	22
374.391	1	17
374.562	1	11
374.733	1	2
374.904	1	18
375.075	1	17
375.246	1	8
375.417	1	11
375.588	1	13
375.758	1	7
375.929	1	20
376.100	1	17
376.271	1	14
376.442	1	4
376.613	1	19
376.784	1	11
376.955	1	-1
377.125	1	12
377.296	1	7
377.467	1	17
377.638	1	9
377.809	1	10
377.980	1	10
378.151	1	17
378.321	1	13
378.492	1	16
378.663	1	7
378.834	1	21
379.005	1	10
379.176	1	6
379.347	1	9
379.518	1	7
379.688	1	11
379.859	1	18
380.030	1	30
380.201	1	16
380.372	1	8
380.543	1	14
380.714	1	10
380.884	1	8
381.055	1	5
381.226	1	8
381.397	1	10
381.568	1	14
381.739	1	0
381.910	1	11
382.080	1	16
382.251	1	-2
382.422	1	10
382.593	1	5
382.764	1	7
382.935	1	14
383.105	1	2
383.276	1	9
383.447	1	9
383.618	1	26
383.789	1	9
383.960	1	14
384.130	1	7
384.301	1	9
384.472	1	12
384.643	1	0
384.814	1	28
384.985	1	12
385.156	1	25
385.326	1	34
385.497	1	18
385.668	1	22
385.839	1	28
386.010	1	22
386.180	1	10
386.351	1	16
386.522	1	14
386.693	1	15
386.864	1	17
387.035	1	24
387.205	1	27
387.376	1	16
387.547	1	26
387.718	1	11
387.889	1	12
388.060	1	15
388.230	1	21
388.401	1	13
388.572	1	32
388.743	1	11
388.914	1	12
389.084	1	24
389.255	1	17
389.426	1	4
389.597	1	21
389.768	1	24
389.939	1	16
390.109	1	16
390.280	1	7
390.451	1	11
390.622	1	20
390.793	1	18
390.963	1	12
391.134	1	7
391.305	1	5
391.476	1	18
391.647	1	20
391.817	1	23
391.988	1	10
392.159	1	17
392.330	1	14
392.501	1	11
392.671	1	10
392.842	1	16
393.013	1	10
393.184	1	10
393.355	1	10
393.525	1	18
393.696	1	10
393.867	1	24
394.038	1	10
394.208	1	17
394.379	1	10
394.550	1	17
394.721	1	11
394.892	1	1
395.062	1	14
395.233	1	10
395.404	1	3
395.575	1	10
395.746	1	17
395.916	1	18
396.087	1	17
396.258	1	14
396.429	1	7
396.599	1	24
396.770	1	20
396.941	1	15
397.112	1	5
397.283	1	7
397.453	1	16
397.624	1	14
397.795	1	8
397.966	1	20
398.136	1	12
398.307	1	14
398.478	1	16
398.649	1	16
398.819	1	16
398.990	1	11
399.161	1	13
399.332	1	16
399.503	1	18
399.673	1	-2
399.844	1	20
400.015	1	14
400.186	1	16
400.356	1	16
400.527	1	23
400.698	1	9
400.869	1	6
401.039	1	6
401.210	1	10
401.381	1	0
401.552	1	8
401.722	1	8
401.893	1	8
402.064	1	11
402.235	1	1
402.405	1	11
402.576	1	2
402.747	1	6
402.918	1	14
403.088	1	7
403.259	1	5
403.430	1	13
403.601	1	14
403.771	1	18
403.942	1	10
404.113	1	9
404.284	1	3
404.454	1	11
404.625	1	5
404.796	1	7
404.967	1	14
405.137	1	10
405.308	1	12
405.479	1	16
405.649	1	19
405.820	1	7
405.991	1	14
406.162	1	16
406.332	1	-4
406.503	1	6
406.674	1	6
406.845	1	19
407.015	1	10
407.186	1	14
407.357	1	8
407.527	1	4
407.698	1	9
407.869	1	5
408.040	1	16
408.210	1	13
408.381	1	4
408.552	1	1
408.722	1	-1
408.893	1	3
409.064	1	2
409.235	1	0
409.405	1	15
409.576	1	9
409.747	1	18
409.917	1	4
410.088	1	7
410.259	1	-2
410.430	1	-3
410.600	1	0
410.771	1	13
410.942	1	11
411.112	1	8
411.283	1	6
411.454	1	2
411.625	1	4
411.795	1	10
411.966	1	16
412.137	1	13
412.307	1	9
412.478	1	8
412.649	1	2
412.819	1	4
412.990	1	-11
413.161	1	2
413.332	1	6
413.502	1	-6
413.673	1	21
413.844	1	19
414.014	1	1
414.185	1	11
414.356	1	0
414.526	1	11
414.697	1	16
414.868	1	7
415.038	1	5
415.209	1	0
415.380	1	11
415.550	1	4
415.721	1	8
415.892	1	5
416.063	1	11
416.233	1	5
416.404	1	-2
416.575	1	0
416.745	1	-3
416.916	1	-1
417.087	1	15
417.257	1	8
417.428	1	3
417.599	1	7
417.769	1	4
417.940	1	8
418.111	1	14
418.281	1	7
418.452	1	11
418.623	1	0
418.793	1	-1
418.964	1	8
419.135	1	4
419.305	1	2
419.476	1	8
419.647	1	10
419.817	1	6
419.988	1	5
420.159	1	13
420.329	1	0
420.500	1	4
420.671	1	4
420.841	1	6
421.012	1	-3
421.183	1	13
421.353	1	2
421.524	1	13
421.695	1	7
421.865	1	14
422.036	1	1
422.206	1	12
422.377	1	6
422.548	1	7
422.718	1	3
422.889	1	-9
423.060	1	11
423.230	1	9
423.401	1	4
423.572	1	21
423.742	1	1
423.913	1	0
424.084	1	7
424.254	1	0
424.425	1	0
424.595	1	5
424.766	1	-2
424.937	1	8
425.107	1	5
425.278	1	8
425.449	1	-1
425.619	1	2
425.790	1	10
425.961	1	-1
426.131	1	-6
426.302	1	10
426.472	1	13
426.643	1	-4
426.814	1	-7
426.984	1	12
427.155	1	-10
427.326	1	-2
427.496	1	0
427.667	1	7
427.837	1	7
428.008	1	0
428.179	1	-3
428.349	1	-8
428.520	1	12
428.691	1	-3
428.861	1	10
429.032	1	3
429.202	1	6
429.373	1	-3
429.544	1	1
429.714	1	-1
429.885	1	-1
430.055	1	10
430.226	1	3
430.397	1	3
430.567	1	5
430.738	1	-2
430.909	1	-4
431.079	1	-1
431.250	1	-2
431.420	1	-5
431.591	1	-5
431.762	1	3
431.932	1	-1
432.103	1	9
432.273	1	8
432.444	1	-8
432.615	1	-10
432.785	1	-1
432.956	1	12
433.126	1	2
433.297	1	0
433.468	1	-7
433.638	1	3
433.809	1	1
433.979	1	2
434.150	1	11
434.320	1	6
434.491	1	5
434.662	1	14
434.832	1	0
435.003	1	9
435.173	1	5
435.344	1	5
435.515	1	-2
435.685	1	-5
435.856	1	5
436.026	1	10
436.197	1	-9
436.368	1	7
436.538	1	-8
436.709	1	-6
436.879	1	-3
437.050	1	16
437.220	1	-6
437.391	1	13
437.562	1	1
437.732	1	8
437.903	1	4
438.073	1	0
438.244	1	-5
438.414	1	5
438.585	1	-1
438.756	1	3
438.926	1	0
439.097	1	15
439.267	1	1
439.438	1	8
439.608	1	9
439.779	1	-4
439.949	1	1
440.120	1	-1
440.291	1	1
440.461	1	3
440.632	1	12
440.802	1	9
440.973	1	11
441.143	1	-6
441.314	1	-5
441.485	1	14
441.655	1	1
441.826	1	-9
441.996	1	9
442.167	1	-2
442.337	1	4
442.508	1	6
442.678	1	-5
442.849	1	-2
443.019	1	-2
443.190	1	1
443.361	1	3
443.531	1	4
443.702	1	-6
443.872	1	3
444.043	1	2
444.213	1	9
444.384	1	4
444.554	1	6
444.725	1	6
444.895	1	7
445.066	1	7
445.237	1	-5
445.407	1	0
445.578	1	7
445.748	1	3
445.919	1	-5
446.089	1	7
446.260	1	-5
446.430	1	0
446.601	1	3
446.771	1	-1
446.942	1	0
447.112	1	-1
447.283	1	-6
447.453	1	0
447.624	1	1
447.794	1	8
447.965	1	6
448.135	1	0
448.306	1	0
448.477	1	1
448.647	1	1
448.818	1	1
448.988	1	-3
449.159	1	4
449.329	1	3
449.500	1	10
449.670	1	5
449.841	1	0
450.011	1	3
450.182	1	-9
450.352	1	3
450.523	1	5
450.693	1	2
450.864	1	2
451.034	1	4
451.205	1	-2
451.375	1	3
451.546	1	6
451.716	1	6
451.887	1	-2
452.057	1	16
452.228	1	4
452.398	1	6
452.569	1	-6
452.739	1	-5
452.910	1	-4
453.080	1	-3
453.251	1	4
453.421	1	1
453.592	1	13
453.762	1	4
453.933	1	-5
454.103	1	-6
454.274	1	-4
454.444	1	2
454.615	1	15
454.785	1	0
454.956	1	8
455.126	1	3
455.297	1	7
455.467	1	-6
455.638	1	10
455.808	1	1
455.979	1	3
456.149	1	1
456.320	1	10
456.490	1	8
456.661	1	-4
456.831	1	12
457.001	1	-1
457.172	1	-3
457.342	1	1
457.513	1	12
457.683	1	2
457.854	1	8
458.024	1	-5
458.195	1	3
458.365	1	10
458.536	1	0
458.706	1	12
458.877	1	5
459.047	1	5
459.218	1	5
459.388	1	2
459.559	1	1
459.729	1	-3
459.899	1	3
460.070	1	3
460.240	1	10
460.411	1	6
460.581	1	3
460.752	1	-5
460.922	1	10
461.093	1	1
461.263	1	5
461.434	1	18
461.604	1	12
461.775	1	3
461.945	1	11
462.115	1	7
462.286	1	-6
462.456	1	4
462.627	1	6
462.797	1	0
462.968	1	-4
463.138	1	-2
463.309	1	-2
463.479	1	9
463.649	1	0
463.820	1	3
463.990	1	4
464.161	1	-3
464.331	1	6
464.502	1	12
464.672	1	-10
464.843	1	3
465.013	1	-3
465.183	1	1
465.354	1	12
465.524	1	4
465.695	1	1
465.865	1	10
466.036	1	5
466.206	1	-6
466.376	1	-5
466.547	1	-2
466.717	1	0
466.888	1	0
467.058	1	8
467.229	1	9
467.399	1	3
467.569	1	6
467.740	1	9
467.910	1	-5
468.081	1	-4
468.251	1	-3
468.422	1	-4
468.592	1	0
468.762	1	-4
468.933	1	5
469.103	1	3
469.274	1	-1
469.444	1	6
469.614	1	0
469.785	1	10
469.955	1	2
470.126	1	2
470.296	1	5
470.467	1	-3
470.637	1	9
470.807	1	8
470.978	1	7
471.148	1	5
471.319	1	7
471.489	1	-6
471.659	1	1
471.830	1	0
472.000	1	-3
472.171	1	3
472.341	1	0
472.511	1	12
472.682	1	1
472.852	1	3
473.023	1	4
473.193	1	9
473.363	1	-5
473.534	1	3
473.704	1	8
473.875	1	-1
474.045	1	10
474.215	1	10
474.386	1	7
474.556	1	-9
474.727	1	-6
474.897	1	-3
475.067	1	-10
475.238	1	-12
475.408	1	-6
475.578	1	3
475.749	1	9
475.919	1	7
476.090	1	4
476.260	1	2
476.430	1	6
476.601	1	5
476.771	1	-17
476.942	1	13
477.112	1	4
477.282	1	-1
477.453	1	2
477.623	1	4
477.793	1	5
477.964	1	4
478.134	1	1
478.305	1	2
478.475	1	-1
478.645	1	2
478.816	1	3
478.986	1	5
479.156	1	-10
479.327	1	6
479.497	1	7
479.667	1	14
479.838	1	-11
480.008	1	-6
480.179	1	-9
480.349	1	6
480.519	1	0
480.690	1	-8
480.860	1	9
481.030	1	7
481.201	1	3
481.371	1	10
481.541	1	10
481.712	1	10
481.882	1	-3
482.053	1	-2
482.223	1	-1
482.393	1	7
482.564	1	4
482.734	1	4
482.904	1	8
483.075	1	3
483.245	1	5
483.415	1	5
483.586	1	6
483.756	1	-5
483.926	1	-5
484.097	1	6
484.267	1	0
484.437	1	1
484.608	1	0
484.778	1	5
484.948	1	0
485.119	1	0
485.289	1	22
485.459	1	-1
485.630	1	7
485.800	1	5
485.970	1	5
486.141	1	2
486.311	1	-2
486.481	1	-2
486.652	1	8
486.822	1	4
486.992	1	8
487.163	1	6
487.333	1	8
487.503	1	8
487.674	1	-1
487.844	1	8
488.014	1	4
488.185	1	-1
488.355	1	3
488.525	1	4
488.696	1	9
488.866	1	-3
489.036	1	4
489.207	1	5
489.377	1	-2
489.547	1	4
489.718	1	-1
489.888	1	14
490.058	1	-5
490.228	1	-1
490.399	1	2
490.569	1	23
490.739	1	2
490.910	1	1
491.080	1	-1
491.250	1	11
491.421	1	4
491.591	1	4
491.761	1	-3
491.932	1	7
492.102	1	-2
492.272	1	5
492.442	1	10
492.613	1	-4
492.783	1	7
492.953	1	0
493.124	1	14
493.294	1	12
493.464	1	21
493.635	1	-1
493.805	1	7
493.975	1	7
494.145	1	7
494.316	1	4
494.486	1	6
494.656	1	-5
494.827	1	5
494.997	1	0
495.167	1	8
495.337	1	-5
495.508	1	-2
495.678	1	4
495.848	1	8
496.019	1	13
496.189	1	8
496.359	1	0
496.529	1	4
496.700	1	-2
496.870	1	7
497.040	1	5
497.211	1	0
497.381	1	10
497.551	1	10
497.721	1	4
497.892	1	9
498.062	1	2
498.232	1	13
498.403	1	-4
498.573	1	5
498.743	1	15
498.913	1	11
499.084	1	4
499.254	1	-10
499.424	1	-2
499.594	1	12
499.765	1	4
499.935	1	0
500.105	1	10
500.275	1	10
500.446	1	3
500.616	1	6
500.786	1	12
500.956	1	12
501.127	1	10
501.297	1	3
501.467	1	0
501.638	1	11
501.808	1	15
501.978	1	9
502.148	1	-2
502.319	1	19
502.489	1	3
502.659	1	21
502.829	1	13
503.000	1	10
503.170	1	6
503.340	1	11
503.510	1	9
503.681	1	4
503.851	1	6
504.021	1	10
504.191	1	15
504.362	1	7
504.532	1	7
504.702	1	13
504.872	1	6
505.042	1	4
505.213	1	6
505.383	1	6
505.553	1	5
505.723	1	11
505.894	1	2
506.064	1	13
506.234	1	9
506.404	1	9
506.575	1	1
506.745	1	20
506.915	1	12
507.085	1	5
507.256	1	16
507.426	1	7
507.596	1	4
507.766	1	16
507.936	1	18
508.107	1	17
508.277	1	3
508.447	1	4
508.617	1	5
508.788	1	14
508.958	1	11
509.128	1	15
509.298	1	7
509.468	1	10
509.639	1	11
509.809	1	18
509.979	1	11
510.149	1	14
510.319	1	3
510.490	1	14
510.660	1	12
510.830	1	3
511.000	1	11
511.171	1	8
511.341	1	13
511.511	1	15
511.681	1	12
511.851	1	19
512.022	1	1
512.192	1	18
512.362	1	13
512.532	1	8
512.702	1	11
512.873	1	19
513.043	1	12
513.213	1	23
513.383	1	9
513.553	1	20
513.724	1	8
513.894	1	1
514.064	1	9
514.234	1	18
514.404	1	10
514.575	1	6
514.745	1	15
514.915	1	3
515.085	1	14
515.255	1	5
515.425	1	10
515.596	1	16
515.766	1	16
515.936	1	12
516.106	1	17
516.276	1	16
516.447	1	19
516.617	1	6
516.787	1	7
516.957	1	12
517.127	1	23
517.297	1	12
517.468	1	5
517.638	1	14
517.808	1	7
517.978	1	17
518.148	1	6
518.319	1	10
518.489	1	15
518.659	1	7
518.829	1	13
518.999	1	13
519.169	1	6
519.340	1	13
519.510	1	16
519.680	1	8
519.850	1	20
520.020	1	14
520.190	1	11
520.361	1	17
520.531	1	16
520.701	1	14
520.871	1	4
521.041	1	17
521.211	1	25
521.382	1	8
521.552	1	11
521.722	1	24
521.892	1	16
522.062	1	10
522.232	1	17
522.402	1	11
522.573	1	9
522.743	1	13
522.913	1	20
523.083	1	23
523.253	1	11
523.423	1	15
523.593	1	10
523.764	1	10
523.934	1	11
524.104	1	18
524.274	1	8
524.444	1	6
524.614	1	5
524.784	1	15
524.955	1	17
525.125	1	18
525.295	1	8
525.465	1	12
525.635	1	19
525.805	1	22
525.975	1	0
526.146	1	4
526.316	1	12
526.486	1	14
526.656	1	20
526.826	1	18
526.996	1	13
527.166	1	1
527.337	1	14
527.507	1	6
527.677	1	20
527.847	1	13
528.017	1	5
528.187	1	18
528.357	1	15
528.527	1	28
528.698	1	8
528.868	1	11
529.038	1	17
529.208	1	1
529.378	1	18
529.548	1	6
529.718	1	12
529.888	1	18
530.058	1	21
530.229	1	18
530.399	1	12
530.569	1	12
530.739	1	3
530.909	1	12
531.079	1	3
531.249	1	11
531.419	1	13
531.589	1	16
531.760	1	11
531.930	1	25
532.100	1	19
532.270	1	18
532.440	1	11
532.610	1	18
532.780	1	18
532.950	1	11
533.120	1	23
533.290	1	9
533.461	1	14
533.631	1	12
533.801	1	14
533.971	1	9
534.141	1	23
534.311	1	16
534.481	1	19
534.651	1	4
534.821	1	8
534.991	1	19
535.162	1	7
535.332	1	20
535.502	1	8
535.672	1	11
535.842	1	8
536.012	1	7
536.182	1	17
536.352	1	19
536.522	1	1
536.692	1	9
536.862	1	11
537.032	1	9
537.203	1	27
537.373	1	15
537.543	1	3
537.713	1	23
537.883	1	19
538.053	1	6
538.223	1	20
538.393	1	15
538.563	1	27
538.733	1	17
538.903	1	15
539.073	1	12
539.243	1	13
539.413	1	12
539.584	1	11
539.754	1	22
539.924	1	17
540.094	1	14
540.264	1	3
540.434	1	9
540.604	1	10
540.774	1	20
540.944	1	5
541.114	1	18
541.284	1	13
541.454	1	22
541.624	1	10
541.794	1	13
541.964	1	3
542.134	1	17
542.305	1	16
542.475	1	10
542.645	1	10
542.815	1	12
542.985	1	18
543.155	1	3
543.325	1	21
543.495	1	19
543.665	1	4
543.835	1	5
544.005	1	6
544.175	1	13
544.345	1	1
544.515	1	17
544.685	1	26
544.855	1	3
545.025	1	12
545.195	1	15
545.365	1	6
545.535	1	14
545.705	1	17
545.875	1	14
546.045	1	10
546.216	1	5
546.386	1	11
546.556	1	10
546.726	1	2
546.896	1	15
547.066	1	26
547.236	1	11
547.406	1	-3
547.576	1	9
547.746	1	16
547.916	1	6
548.086	1	14
548.256	1	17
548.426	1	2
548.596	1	3
548.766	1	26
548.936	1	17
549.106	1	21
549.276	1	30
549.446	1	17
549.616	1	8
549.786	1	0
549.956	1	14
550.126	1	6
550.296	1	17
550.466	1	13
550.636	1	18
550.806	1	16
550.976	1	10
551.146	1	4
551.316	1	8
551.486	1	11
551.656	1	14
551.826	1	18
551.996	1	17
552.166	1	21
552.336	1	10
552.506	1	5
552.676	1	7
552.846	1	7
553.016	1	19
553.186	1	12
553.356	1	9
553.526	1	16
553.696	1	22
553.866	1	17
554.036	1	5
554.206	1	21
554.376	1	1
554.546	1	1
554.716	1	7
554.886	1	17
555.056	1	14
555.226	1	13
555.396	1	11
555.566	1	16
555.736	1	19
555.906	1	4
556.076	1	16
556.246	1	4
556.416	1	-1
556.586	1	6
556.756	1	13
556.926	1	14
557.096	1	14
557.266	1	13
557.436	1	12
557.606	1	12
557.776	1	11
557.946	1	10
558.116	1	8
558.286	1	6
558.456	1	1
558.626	1	1
558.796	1	13
558.966	1	1
559.136	1	-1
559.306	1	11
559.476	1	9
559.646	1	11
559.816	1	17
559.986	1	2
560.155	1	9
560.325	1	-2
560.495	1	11
560.665	1	-7
560.835	1	7
561.005	1	15
561.175	1	2
561.345	1	8
561.515	1	4
561.685	1	10
561.855	1	6
562.025	1	8
562.195	1	3
562.365	1	14
562.535	1	1
562.705	1	9
562.875	1	10
563.045	1	6
563.215	1	4
563.385	1	-7
563.555	1	8
563.725	1	1
563.895	1	2
564.064	1	-4
564.234	1	13
564.404	1	12
564.574	1	15
564.744	1	8
564.914	1	9
565.084	1	-3
565.254	1	10
565.424	1	3
565.594	1	9
565.764	1	2
565.934	1	14
566.104	1	8
566.274	1	21
566.444	1	5
566.614	1	3
566.783	1	18
566.953	1	3
567.123	1	8
567.293	1	6
567.463	1	6
567.633	1	8
567.803	1	21
567.973	1	8
568.143	1	8
568.313	1	7
568.483	1	6
568.653	1	1
568.823	1	-4
568.993	1	3
569.162	1	3
569.332	1	8
569.502	1	15
569.672	1	2
569.842	1	10
570.012	1	18
570.182	1	7
570.352	1	9
570.522	1	7
570.692	1	19
570.862	1	12
571.031	1	8
571.201	1	7
571.371	1	14
571.541	1	12
571.711	1	1
571.881	1	12
572.051	1	6
572.221	1	4
572.391	1	22
572.561	1	11
572.731	1	2
572.900	1	-3
573.070	1	20
573.240	1	2
573.410	1	3
573.580	1	-4
573.750	1	11
573.920	1	8
574.090	1	12
574.260	1	-4
574.430	1	11
574.599	1	2
574.769	1	7
574.939	1	-1
575.109	1	-4
575.279	1	6
575.449	1	18
575.619	1	10
575.789	1	1
575.959	1	13
576.128	1	1
576.298	1	1
576.468	1	4
576.638	1	-5
576.808	1	0
576.978	1	-2
577.148	1	3
577.318	1	17
577.487	1	0
577.657	1	11
577.827	1	5
577.997	1	5
578.167	1	3
578.337	1	3
578.507	1	1
578.677	1	5
578.846	1	1
579.016	1	3
579.186	1	6
579.356	1	10
579.526	1	5
579.696	1	14
579.866	1	-8
580.036	1	7
580.205	1	-2
580.375	1	10
580.545	1	0
580.715	1	7
580.885	1	17
581.055	1	3
581.225	1	6
581.394	1	1
581.564	1	-13
581.734	1	-11
581.904	1	-2
582.074	1	0
582.244	1	13
582.414	1	4
582.583	1	3
582.753	1	8
582.923	1	1
583.093	1	0
583.263	1	14
583.433	1	1
583.603	1	-7
583.772	1	-5
583.942	1	12
584.112	1	-3
584.282	1	6
584.452	1	1
584.622	1	0
584.791	1	-1
584.961	1	-5
585.131	1	6
585.301	1	2
585.471	1	1
585.641	1	0
585.811	1	1
585.980	1	8
586.150	1	-1
586.320	1	6
586.490	1	7
586.660	1	12
586.830	1	-1
586.999	1	-8
587.169	1	15
587.339	1	2
587.509	1	12
587.679	1	7
587.849	1	12
588.018	1	-2
588.188	1	9
588.358	1	-5
588.528	1	8
588.698	1	-4
588.867	1	10
589.037	1	3
589.207	1	9
589.377	1	8
589.547	1	9
589.717	1	-6
589.886	1	1
590.056	1	7
590.226	1	-4
590.396	1	-8
590.566	1	-12
590.735	1	-9
590.905	1	12
591.075	1	-3
591.245	1	2
591.415	1	8
591.585	1	8
591.754	1	12
591.924	1	10
592.094	1	-8
592.264	1	0
592.434	1	-2
592.603	1	4
592.773	1	12
592.943	1	7
593.113	1	11
593.283	1	-5
593.452	1	5
593.622	1	4
593.792	1	11
593.962	1	7
594.132	1	6
594.301	1	4
594.471	1	6
594.641	1	7
594.811	1	0
594.981	1	-4
595.150	1	0
595.320	1	4
595.490	1	8
595.660	1	1
595.829	1	1
595.999	1	-2
596.169	1	13
596.339	1	15
596.509	1	10
596.678	1	7
596.848	1	15
597.018	1	8
597.188	1	1
597.358	1	1
597.527	1	4
597.697	1	-2
597.867	1	9
598.037	1	6
598.206	1	16
598.376	1	1
598.546	1	1
598.716	1	-7
598.885	1	-5
599.055	1	13
599.225	1	-2
599.395	1	8
599.565	1	2
599.734	1	11
599.904	1	2
600.074	1	3
600.244	1	-4
600.413	1	12
600.583	1	5
600.753	1	10
600.923	1	6
601.092	1	7
601.262	1	6
601.432	1	16
601.602	1	11
601.771	1	11
601.941	1	6
602.111	1	5
602.281	1	8
602.451	1	0
602.620	1	0
602.790	1	-4
602.960	1	-11
603.130	1	-3
603.299	1	10
603.469	1	6
603.639	1	-6
603.809	1	15
603.978	1	-11
604.148	1	1
604.318	1	-4
604.487	1	10
604.657	1	-4
604.827	1	5
604.997	1	8
605.166	1	12
605.336	1	-2
605.506	1	-2
605.676	1	14
605.845	1	5
606.015	1	-6
606.185	1	0
606.355	1	-4
606.524	1	0
606.694	1	7
606.864	1	7
607.034	1	6
607.203	1	6
607.373	1	12
607.543	1	-1
607.712	1	4
607.882	1	7
608.052	1	1
608.222	1	8
608.391	1	12
608.561	1	6
608.731	1	0
608.901	1	3
609.070	1	-5
609.240	1	-4
609.410	1	7
609.579	1	1
609.749	1	11
609.919	1	-11
610.089	1	15
610.258	1	3
610.428	1	16
610.598	1	5
610.767	1	9
610.937	1	2
611.107	1	3
611.277	1	2
611.446	1	-3
611.616	1	7
611.786	1	16
611.955	1	0
612.125	1	8
612.295	1	2
612.465	1	14
612.634	1	4
612.804	1	2
612.974	1	3
613.143	1	4
613.313	1	7
613.483	1	15
613.652	1	-1
613.822	1	5
613.992	1	2
614.162	1	7
614.331	1	2
614.501	1	-5
614.671	1	3
614.840	1	1
615.010	1	5
615.180	1	4
615.349	1	4
615.519	1	-2
615.689	1	3
615.858	1	9
616.028	1	0
616.198	1	5
616.368	1	-1
616.537	1	0
616.707	1	8
616.877	1	8
617.046	1	5
617.216	1	-1
617.386	1	5
617.555	1	-7
617.725	1	14
617.895	1	-4
618.064	1	1
618.234	1	0
618.404	1	-5
618.573	1	1
618.743	1	20
618.913	1	18
619.082	1	-1
619.252	1	0
619.422	1	-4
619.591	1	1
619.761	1	-1
619.931	1	3
620.100	1	14
620.270	1	3
620.440	1	11
620.609	1	16
620.779	1	12
620.949	1	-2
621.118	1	8
621.288	1	-3
621.458	1	13
621.627	1	-1
621.797	1	0
621.967	1	7
622.136	1	12
622.306	1	7
622.476	1	-6
622.645	1	0
622.815	1	3
622.985	1	-2
623.154	1	-2
623.324	1	2
623.494	1	-9
623.663	1	0
623.833	1	5
624.002	1	-1
624.172	1	-2
624.342	1	13
624.511	1	7
624.681	1	5
624.851	1	-1
625.020	1	-5
625.190	1	3
625.360	1	1
625.529	1	2
625.699	1	0
625.869	1	8
626.038	1	-4
626.208	1	4
626.377	1	4
626.547	1	-4
626.717	1	-7
626.886	1	-2
627.056	1	5
627.226	1	8
627.395	1	2
627.565	1	17
627.735	1	2
627.904	1	7
628.074	1	12
628.243	1	11
628.413	1	-9
628.583	1	2
628.752	1	-8
628.922	1	-1
629.091	1	-1
629.261	1	9
629.431	1	8
629.600	1	4
629.770	1	2
629.940	1	1
630.109	1	5
630.279	1	7
630.448	1	-2
630.618	1	8
630.788	1	0
630.957	1	10
631.127	1	-3
631.297	1	-5
631.466	1	-1
631.636	1	8
631.805	1	11
631.975	1	-3
632.145	1	0
632.314	1	-1
632.484	1	3
632.653	1	-6
632.823	1	-7
632.993	1	5
633.162	1	1
633.332	1	-7
633.501	1	0
633.671	1	-1
633.841	1	2
634.010	1	12
634.180	1	9
634.349	1	8
634.519	1	6
634.689	1	2
634.858	1	-14
635.028	1	4
635.197	1	-1
635.367	1	7
635.537	1	3
635.706	1	-3
635.876	1	4
636.045	1	2
636.215	1	16
636.384	1	5
636.554	1	14
636.724	1	5
636.893	1	11
637.063	1	8
637.232	1	-3
637.402	1	-1
637.572	1	5
637.741	1	-2
637.911	1	-3
638.080	1	5
638.250	1	13
638.419	1	5
638.589	1	1
638.759	1	-1
638.928	1	2
639.098	1	-7
639.267	1	10
639.437	1	12
639.606	1	4
639.776	1	-2
639.946	1	9
640.115	1	-10
640.285	1	9
640.454	1	7
640.624	1	16
640.793	1	4
640.963	1	-3
641.132	1	4
641.302	1	-3
641.472	1	5
641.641	1	3
641.811	1	-2
641.980	1	3
642.150	1	-2
642.319	1	15
642.489	1	-10
642.659	1	5
642.828	1	6
642.998	1	4
643.167	1	0
643.337	1	7
643.506	1	-2
643.676	1	3
643.845	1	14
644.015	1	0
644.184	1	-11
644.354	1	0
644.524	1	10
644.693	1	4
644.863	1	6
645.032	1	3
645.202	1	-5
645.371	1	0
645.541	1	1
645.710	1	-4
645.880	1	-5
646.049	1	3
646.219	1	-3
646.388	1	0
646.558	1	7
646.728	1	-2
646.897	1	3
647.067	1	0
647.236	1	2
647.406	1	6
647.575	1	9
647.745	1	5
647.914	1	-1
648.084	1	6
648.253	1	1
648.423	1	1
648.592	1	-9
648.762	1	9
648.931	1	5
649.101	1	-7
649.270	1	3
649.440	1	-5
649.610	1	9
649.779	1	5
649.949	1	8
650.118	1	-6
650.288	1	-1
650.457	1	5
650.627	1	0
650.796	1	-1
650.966	1	-7
651.135	1	7
651.305	1	-4
651.474	1	5
651.644	1	21
651.813	1	9
651.983	1	-1
652.152	1	6
652.322	1	0
652.491	1	-2
652.661	1	2
652.830	1	8
653.000	1	8
653.169	1	7
653.339	1	8
653.508	1	-1
653.678	1	4
653.847	1	-7
654.017	1	14
654.186	1	-2
654.356	1	2
654.525	1	-9
654.695	1	-1
654.864	1	-11
655.034	1	-3
655.203	1	6
655.373	1	9
655.542	1	6
655.712	1	-1
655.881	1	14
656.051	1	13
656.220	1	2
656.390	1	1
656.559	1	-7
656.729	1	1
656.898	1	0
657.068	1	0
657.237	1	2
657.406	1	6
657.576	1	-4
657.745	1	0
657.915	1	-6
658.084	1	2
658.254	1	7
658.423	1	-2
658.593	1	11
658.762	1	6
658.932	1	-3
659.101	1	-14
659.271	1	-1
659.440	1	4
659.610	1	0
659.779	1	15
659.949	1	-6
660.118	1	5
660.288	1	4
660.457	1	7
660.626	1	-1
660.796	1	-3
660.965	1	7
661.135	1	-4
661.304	1	-1
661.474	1	-4
661.643	1	14
661.813	1	5
661.982	1	-2
662.152	1	-1
662.321	1	-13
662.491	1	-10
662.660	1	-4
662.829	1	11
662.999	1	1
663.168	1	3
663.338	1	11
663.507	1	-4
663.677	1	6
663.846	1	-2
664.016	1	-6
664.185	1	-2
664.354	1	8
664.524	1	3
664.693	1	-5
664.863	1	0
665.032	1	-6
665.202	1	1
665.371	1	-3
665.541	1	12
665.710	1	-11
665.879	1	-3
666.049	1	-1
666.218	1	2
666.388	1	0
666.557	1	5
666.727	1	0
666.896	1	11
667.065	1	-11
667.235	1	17
667.404	1	-2
667.574	1	3
667.743	1	1
667.913	1	12
668.082	1	1
668.251	1	4
668.421	1	-3
668.590	1	-1
668.760	1	3
668.929	1	8
669.099	1	-11
669.268	1	0
669.437	1	10
669.607	1	14
669.776	1	-1
669.946	1	-1
670.115	1	-11
670.285	1	9
670.454	1	-6
670.623	1	-11
670.793	1	3
670.962	1	8
671.132	1	-11
671.301	1	4
671.470	1	3
671.640	1	-3
671.809	1	-8
671.979	1	5
672.148	1	0
672.317	1	-8
672.487	1	-3
672.656	1	-6
672.826	1	12
672.995	1	10
673.164	1	-5
673.334	1	-5
673.503	1	-2
673.673	1	0
673.842	1	4
674.011	1	7
674.181	1	5
674.350	1	9
674.520	1	7
674.689	1	-6
674.858	1	-7
675.028	1	4
675.197	1	1
675.367	1	2
675.536	1	-4
675.705	1	-5
675.875	1	-6
676.044	1	-1
676.214	1	2
676.383	1	12
676.552	1	0
676.722	1	-8
676.891	1	1
677.060	1	8
677.230	1	10
677.399	1	-10
677.569	1	9
677.738	1	2
677.907	1	3
678.077	1	10
678.246	1	5
678.416	1	4
678.585	1	-1
678.754	1	2
678.924	1	7
679.093	1	1
679.262	1	2
679.432	1	9
679.601	1	1
679.771	1	2
679.940	1	9
680.109	1	-2
680.279	1	8
680.448	1	10
680.617	1	-3
680.787	1	-4
680.956	1	7
681.125	1	8
681.295	1	-1
681.464	1	2
681.634	1	9
681.803	1	5
681.972	1	2
682.142	1	-2
682.311	1	10
682.480	1	6
682.650	1	5
682.819	1	7
682.988	1	-3
683.158	1	8
683.327	1	6
683.496	1	0
683.666	1	8
683.835	1	-2
684.004	1	6
684.174	1	1
684.343	1	1
684.512	1	0
684.682	1	-4
684.851	1	6
685.021	1	8
685.190	1	3
685.359	1	-17
685.529	1	6
685.698	1	-6
685.867	1	7
686.037	1	-2
686.206	1	-2
686.375	1	2
686.545	1	16
686.714	1	0
686.883	1	9
687.053	1	-6
687.222	1	-1
687.391	1	-3
687.561	1	9
687.730	1	-3
687.899	1	-6
688.069	1	10
688.238	1	2
688.407	1	11
688.577	1	-1
688.746	1	6
