340.368	1	16
340.539	1	13
340.710	1	13
340.881	1	4
341.052	1	1
341.223	1	20
341.394	1	-8
341.565	1	4
341.737	1	15
341.908	1	3
342.079	1	7
342.250	1	0
342.421	1	12
342.592	1	9
342.763	1	11
342.934	1	-2
343.105	1	2
343.276	1	1
343.447	1	-7
343.618	1	6
343.789	1	4
343.960	1	11
344.131	1	14
344.302	1	1
344.473	1	-2
344.644	1	5
344.815	1	1
344.986	1	11
345.157	1	10
345.328	1	2
345.499	1	5
345.670	1	3
345.841	1	0
346.012	1	11
346.183	1	20
346.354	1	-2
346.526	1	0
346.697	1	16
346.868	1	3
347.039	1	3
347.210	1	8
347.381	1	4
347.552	1	12
347.723	1	3
347.894	1	8
348.065	1	17
348.236	1	9
348.407	1	6
348.578	1	1
348.749	1	1
348.920	1	6
349.091	1	12
349.262	1	2
349.433	1	7
349.604	1	12
349.775	1	13
349.946	1	3
350.117	1	8
350.288	1	8
350.459	1	7
350.630	1	27
350.801	1	15
350.972	1	14
351.143	1	18
351.314	1	12
351.485	1	8
351.656	1	6
351.827	1	10
351.998	1	18
352.169	1	9
352.340	1	9
352.511	1	25
352.682	1	18
352.853	1	16
353.024	1	19
353.195	1	9
353.366	1	12
353.537	1	12
353.708	1	21
353.879	1	11
354.050	1	25
354.221	1	17
354.392	1	27
354.563	1	37
354.734	1	6
354.905	1	22
355.076	1	27
355.247	1	22
355.418	1	21
355.589	1	22
355.760	1	20
355.931	1	31
356.102	1	18
356.273	1	19
356.444	1	30
356.615	1	23
356.785	1	33
356.956	1	22
357.127	1	31
357.298	1	33
357.469	1	31
357.640	1	33
357.811	1	28
357.982	1	34
358.153	1	38
358.324	1	44
358.495	1	33
358.666	1	43
358.837	1	42
359.008	1	61
359.179	1	38
359.350	1	44
359.521	1	51
359.692	1	53
359.863	1	64
360.034	1	67
360.205	1	63
360.376	1	65
360.547	1	81
360.718	1	82
360.889	1	78
361.060	1	86
361.231	1	83
361.401	1	84
361.572	1	108
361.743	1	129
361.914	1	126
362.085	1	148
362.256	1	140
362.427	1	167
362.598	1	169
362.769	1	200
362.940	1	211
363.111	1	214
363.282	1	254
363.453	1	260
363.624	1	289
363.795	1	291
363.966	1	317
364.137	1	374
364.308	1	386
364.478	1	422
364.649	1	440
364.820	1	491
364.991	1	535
365.162	1	547
365.333	1	574
365.504	1	638
365.675	1	648
365.846	1	665
366.017	1	694
366.188	1	765
366.359	1	743
366.530	1	791
366.701	1	830
366.871	1	818
367.042	1	817
367.213	1	843
367.384	1	803
367.555	1	822
367.726	1	785
367.897	1	800
368.068	1	757
368.239	1	732
368.410	1	727
368.581	1	669
368.752	1	658
368.923	1	635
369.093	1	613
369.264	1	572
369.435	1	570
369.606	1	519
369.777	1	494
369.948	1	475
370.119	1	467
370.290	1	422
370.461	1	419
370.632	1	413
370.803	1	381
370.973	1	367
371.144	1	351
371.315	1	324
371.486	1	336
371.657	1	307
371.828	1	318
371.999	1	295
372.170	1	300
372.341	1	299
372.512	1	270
372.682	1	263
372.853	1	267
373.024	1	257
373.195	1	248
373.366	1	236
373.537	1	247
373.708	1	242
373.879	1	217
374.050	1	221
374.220	1	221
374.391	1	207
374.562	1	203
374.733	1	194
374.904	1	197
375.075	1	177
375.246	1	182
375.417	1	192
375.588	1	185
375.758	1	153
375.929	1	171
376.100	1	171
376.271	1	148
376.442	1	153
376.613	1	150
376.784	1	159
376.955	1	140
377.125	1	149
377.296	1	157
377.467	1	140
377.638	1	139
377.809	1	141
377.980	1	151
378.151	1	150
378.321	1	145
378.492	1	147
378.663	1	146
378.834	1	175
379.005	1	152
379.176	1	143
379.347	1	174
379.518	1	166
379.688	1	168
379.859	1	178
380.030	1	208
380.201	1	211
380.372	1	209
380.543	1	221
380.714	1	236
380.884	1	248
381.055	1	253
381.226	1	278
381.397	1	273
381.568	1	308
381.739	1	317
381.910	1	342
382.080	1	369
382.251	1	374
382.422	1	431
382.593	1	438
382.764	1	465
382.935	1	493
383.105	1	515
383.276	1	542
383.447	1	571
383.618	1	612
383.789	1	640
383.960	1	661
384.130	1	692
384.301	1	744
384.472	1	764
384.643	1	825
384.814	1	829
384.985	1	853
385.156	1	890
385.326	1	929
385.497	1	964
385.668	1	986
385.839	1	1011
386.010	1	1038
386.180	1	1032
386.351	1	1025
386.522	1	1049
386.693	1	1051
386.864	1	1047
387.035	1	1061
387.205	1	1038
387.376	1	1048
387.547	1	1021
387.718	1	1011
387.889	1	1007
388.060	1	1036
388.230	1	985
388.401	1	989
388.572	1	992
388.743	1	961
388.914	1	962
389.084	1	952
389.255	1	924
389.426	1	926
389.597	1	927
389.768	1	905
389.939	1	920
390.109	1	861
390.280	1	897
390.451	1	886
390.622	1	900
390.793	1	923
390.963	1	897
391.134	1	898
391.305	1	913
391.476	1	903
391.647	1	865
391.817	1	872
391.988	1	855
392.159	1	889
392.330	1	875
392.501	1	854
392.671	1	833
392.842	1	836
393.013	1	831
393.184	1	829
393.355	1	837
393.525	1	816
393.696	1	786
393.867	1	802
394.038	1	797
394.208	1	805
394.379	1	773
394.550	1	787
394.721	1	805
394.892	1	798
395.062	1	792
395.233	1	803
395.404	1	825
395.575	1	797
395.746	1	827
395.916	1	837
396.087	1	852
396.258	1	848
396.429	1	865
396.599	1	881
396.770	1	877
396.941	1	886
397.112	1	897
397.283	1	941
397.453	1	942
397.624	1	967
397.795	1	961
397.966	1	970
398.136	1	953
398.307	1	953
398.478	1	949
398.649	1	935
398.819	1	956
398.990	1	934
399.161	1	937
399.332	1	885
399.503	1	919
399.673	1	881
399.844	1	873
400.015	1	851
400.186	1	837
400.356	1	813
400.527	1	796
400.698	1	778
400.869	1	736
401.039	1	718
401.210	1	730
401.381	1	706
401.552	1	685
401.722	1	674
401.893	1	687
402.064	1	653
402.235	1	652
402.405	1	616
402.576	1	615
402.747	1	596
402.918	1	632
403.088	1	599
403.259	1	614
403.430	1	606
403.601	1	609
403.771	1	640
403.942	1	611
404.113	1	620
404.284	1	600
404.454	1	610
404.625	1	586
404.796	1	617
404.967	1	584
405.137	1	581
405.308	1	589
405.479	1	596
405.649	1	593
405.820	1	585
405.991	1	607
406.162	1	591
406.332	1	566
406.503	1	571
406.674	1	596
406.845	1	577
407.015	1	567
407.186	1	558
407.357	1	579
407.527	1	549
407.698	1	548
407.869	1	545
408.040	1	548
408.210	1	535
408.381	1	512
408.552	1	547
408.722	1	500
408.893	1	520
409.064	1	517
409.235	1	521
409.405	1	513
409.576	1	514
409.747	1	515
409.917	1	520
410.088	1	501
410.259	1	481
410.430	1	509
410.600	1	506
410.771	1	476
410.942	1	463
411.112	1	452
411.283	1	477
411.454	1	465
411.625	1	477
411.795	1	457
411.966	1	449
412.137	1	456
412.307	1	448
412.478	1	436
412.649	1	402
412.819	1	420
412.990	1	402
413.161	1	412
413.332	1	401
413.502	1	394
413.673	1	396
413.844	1	387
414.014	1	384
414.185	1	375
414.356	1	356
414.526	1	348
414.697	1	379
414.868	1	344
415.038	1	352
415.209	1	342
415.380	1	344
415.550	1	342
415.721	1	337
415.892	1	335
416.063	1	335
416.233	1	325
416.404	1	340
416.575	1	339
416.745	1	318
416.916	1	309
417.087	1	338
417.257	1	333
417.428	1	323
417.599	1	321
417.769	1	320
417.940	1	328
418.111	1	334
418.281	1	323
418.452	1	352
418.623	1	313
418.793	1	326
418.964	1	322
419.135	1	335
419.305	1	326
419.476	1	322
419.647	1	316
419.817	1	316
419.988	1	310
420.159	1	306
420.329	1	299
420.500	1	314
420.671	1	290
420.841	1	304
421.012	1	290
421.183	1	297
421.353	1	284
421.524	1	287
421.695	1	274
421.865	1	284
422.036	1	265
422.206	1	246
422.377	1	247
422.548	1	250
422.718	1	237
422.889	1	246
423.060	1	238
423.230	1	237
423.401	1	232
423.572	1	237
423.742	1	218
423.913	1	214
424.084	1	231
424.254	1	223
424.425	1	208
424.595	1	213
424.766	1	209
424.937	1	216
425.107	1	207
425.278	1	212
425.449	1	204
425.619	1	218
425.790	1	205
425.961	1	203
426.131	1	203
426.302	1	209
426.472	1	201
426.643	1	189
426.814	1	191
426.984	1	207
427.155	1	190
427.326	1	189
427.496	1	183
427.667	1	205
427.837	1	203
428.008	1	196
428.179	1	189
428.349	1	193
428.520	1	196
428.691	1	189
428.861	1	194
429.032	1	185
429.202	1	194
429.373	1	184
429.544	1	188
429.714	1	170
429.885	1	177
430.055	1	184
430.226	1	190
430.397	1	167
430.567	1	180
430.738	1	155
430.909	1	163
431.079	1	154
431.250	1	152
431.420	1	147
431.591	1	159
431.762	1	152
431.932	1	139
432.103	1	146
432.273	1	152
432.444	1	134
432.615	1	135
432.785	1	125
432.956	1	137
433.126	1	145
433.297	1	130
433.468	1	141
433.638	1	127
433.809	1	138
433.979	1	135
434.150	1	142
434.320	1	132
434.491	1	121
434.662	1	130
434.832	1	123
435.003	1	124
435.173	1	114
435.344	1	110
435.515	1	120
435.685	1	127
435.856	1	105
436.026	1	122
436.197	1	105
436.368	1	117
436.538	1	109
436.709	1	112
436.879	1	105
437.050	1	129
437.220	1	106
437.391	1	126
437.562	1	120
437.732	1	107
437.903	1	109
438.073	1	102
438.244	1	100
438.414	1	106
438.585	1	102
438.756	1	104
438.926	1	100
439.097	1	101
439.267	1	103
439.438	1	106
439.608	1	93
439.779	1	100
439.949	1	98
440.120	1	84
440.291	1	92
440.461	1	98
440.632	1	107
440.802	1	94
440.973	1	94
441.143	1	86
441.314	1	72
441.485	1	88
441.655	1	87
441.826	1	71
441.996	1	84
442.167	1	97
442.337	1	86
442.508	1	96
442.678	1	75
442.849	1	71
443.019	1	88
443.190	1	84
443.361	1	90
443.531	1	85
443.702	1	73
443.872	1	83
444.043	1	86
444.213	1	88
444.384	1	72
444.554	1	79
444.725	1	85
444.895	1	66
445.066	1	67
445.237	1	78
445.407	1	76
445.578	1	89
445.748	1	77
445.919	1	72
446.089	1	73
446.260	1	77
446.430	1	61
446.601	1	84
446.771	1	68
446.942	1	65
447.112	1	68
447.283	1	67
447.453	1	69
447.624	1	71
447.794	1	75
447.965	1	76
448.135	1	68
448.306	1	56
448.477	1	67
448.647	1	67
448.818	1	57
448.988	1	68
449.159	1	59
449.329	1	62
449.500	1	65
449.670	1	62
449.841	1	60
450.011	1	66
450.182	1	48
450.352	1	71
450.523	1	59
450.693	1	60
450.864	1	56
451.034	1	67
451.205	1	55
451.375	1	69
451.546	1	57
451.716	1	67
451.887	1	54
452.057	1	54
452.228	1	62
452.398	1	62
452.569	1	40
452.739	1	57
452.910	1	44
453.080	1	59
453.251	1	59
453.421	1	54
453.592	1	64
453.762	1	64
453.933	1	48
454.103	1	54
454.274	1	59
454.444	1	57
454.615	1	62
454.785	1	45
454.956	1	63
455.126	1	49
455.297	1	56
455.467	1	40
455.638	1	50
455.808	1	51
455.979	1	52
456.149	1	59
456.320	1	62
456.490	1	47
456.661	1	47
456.831	1	62
457.001	1	45
457.172	1	44
457.342	1	45
457.513	1	56
457.683	1	45
457.854	1	46
458.024	1	46
458.195	1	38
458.365	1	61
458.536	1	36
458.706	1	47
458.877	1	46
459.047	1	50
459.218	1	52
459.388	1	59
459.559	1	45
459.729	1	36
459.899	1	36
460.070	1	42
460.240	1	44
460.411	1	43
460.581	1	41
460.752	1	42
460.922	1	54
461.093	1	45
461.263	1	48
461.434	1	57
461.604	1	44
461.775	1	38
461.945	1	45
462.115	1	45
462.286	1	38
462.456	1	40
462.627	1	37
462.797	1	37
462.968	1	35
463.138	1	45
463.309	1	38
463.479	1	39
463.649	1	26
463.820	1	37
463.990	1	40
464.161	1	30
464.331	1	44
464.502	1	44
464.672	1	28
464.843	1	30
465.013	1	32
465.183	1	47
465.354	1	39
465.524	1	30
465.695	1	34
465.865	1	29
466.036	1	36
466.206	1	39
466.376	1	39
466.547	1	34
466.717	1	29
466.888	1	29
467.058	1	38
467.229	1	43
467.399	1	43
467.569	1	39
467.740	1	40
467.910	1	38
468.081	1	27
468.251	1	43
468.422	1	36
468.592	1	42
468.762	1	26
468.933	1	33
469.103	1	26
469.274	1	33
469.444	1	40
469.614	1	39
469.785	1	39
469.955	1	37
470.126	1	30
470.296	1	35
470.467	1	26
470.637	1	46
470.807	1	51
470.978	1	34
471.148	1	26
471.319	1	37
471.489	1	21
471.659	1	35
471.830	1	38
472.000	1	31
472.171	1	29
472.341	1	32
472.511	1	46
472.682	1	13
472.852	1	35
473.023	1	30
473.193	1	28
473.363	1	26
473.534	1	26
473.704	1	28
473.875	1	19
474.045	1	21
474.215	1	33
474.386	1	35
474.556	1	38
474.727	1	34
474.897	1	38
475.067	1	30
475.238	1	25
475.408	1	28
475.578	1	30
475.749	1	36
475.919	1	27
476.090	1	42
476.260	1	27
476.430	1	42
476.601	1	31
476.771	1	26
476.942	1	30
477.112	1	35
477.282	1	28
477.453	1	34
477.623	1	29
477.793	1	33
477.964	1	30
478.134	1	38
478.305	1	32
478.475	1	34
478.645	1	35
478.816	1	39
478.986	1	24
479.156	1	37
479.327	1	23
479.497	1	39
479.667	1	44
479.838	1	23
480.008	1	26
480.179	1	20
480.349	1	38
480.519	1	40
480.690	1	25
480.860	1	39
481.030	1	41
481.201	1	22
481.371	1	36
481.541	1	36
481.712	1	37
481.882	1	24
482.053	1	37
482.223	1	33
482.393	1	43
482.564	1	38
482.734	1	31
482.904	1	36
483.075	1	34
483.245	1	34
483.415	1	38
483.586	1	39
483.756	1	43
483.926	1	23
484.097	1	50
484.267	1	38
484.437	1	36
484.608	1	35
484.778	1	32
484.948	1	39
485.119	1	30
485.289	1	40
485.459	1	46
485.630	1	53
485.800	1	45
485.970	1	37
486.141	1	42
486.311	1	41
486.481	1	41
486.652	1	36
486.822	1	35
486.992	1	45
487.163	1	54
487.333	1	47
487.503	1	53
487.674	1	42
487.844	1	44
488.014	1	40
488.185	1	41
488.355	1	48
488.525	1	45
488.696	1	54
488.866	1	36
489.036	1	59
489.207	1	57
489.377	1	57
489.547	1	41
489.718	1	61
489.888	1	50
490.058	1	54
490.228	1	51
490.399	1	60
490.569	1	66
490.739	1	60
490.910	1	54
491.080	1	52
491.250	1	71
491.421	1	70
491.591	1	49
491.761	1	66
491.932	1	62
492.102	1	56
492.272	1	69
492.442	1	67
492.613	1	65
492.783	1	73
492.953	1	64
493.124	1	80
493.294	1	68
493.464	1	74
493.635	1	69
493.805	1	80
493.975	1	62
494.145	1	66
494.316	1	68
494.486	1	73
494.656	1	69
494.827	1	78
494.997	1	75
495.167	1	83
495.337	1	69
495.508	1	73
495.678	1	78
495.848	1	73
496.019	1	78
496.189	1	69
496.359	1	74
496.529	1	72
496.700	1	85
496.870	1	86
497.040	1	80
497.211	1	81
497.381	1	78
497.551	1	84
497.721	1	82
497.892	1	88
498.062	1	77
498.232	1	97
498.403	1	81
498.573	1	84
498.743	1	88
498.913	1	87
499.084	1	87
499.254	1	86
499.424	1	89
499.594	1	93
499.765	1	104
499.935	1	91
500.105	1	106
500.275	1	88
500.446	1	114
500.616	1	91
500.786	1	119
500.956	1	96
501.127	1	93
501.297	1	92
501.467	1	106
501.638	1	113
501.808	1	96
501.978	1	114
502.148	1	112
502.319	1	124
502.489	1	115
502.659	1	129
502.829	1	117
503.000	1	118
503.170	1	108
503.340	1	138
503.510	1	106
503.681	1	116
503.851	1	117
504.021	1	136
504.191	1	138
504.362	1	138
504.532	1	140
504.702	1	141
504.872	1	116
505.042	1	130
505.213	1	150
505.383	1	159
505.553	1	148
505.723	1	146
505.894	1	136
506.064	1	148
506.234	1	137
506.404	1	168
506.575	1	138
506.745	1	174
506.915	1	153
507.085	1	160
507.256	1	152
507.426	1	173
507.596	1	165
507.766	1	179
507.936	1	162
508.107	1	181
508.277	1	164
508.447	1	174
508.617	1	171
508.788	1	172
508.958	1	173
509.128	1	182
509.298	1	162
509.468	1	175
509.639	1	173
509.809	1	182
509.979	1	174
510.149	1	175
510.319	1	161
510.490	1	173
510.660	1	178
510.830	1	166
511.000	1	177
511.171	1	183
511.341	1	198
511.511	1	176
511.681	1	185
511.851	1	182
512.022	1	182
512.192	1	192
512.362	1	190
512.532	1	178
512.702	1	191
512.873	1	197
513.043	1	190
513.213	1	186
513.383	1	180
513.553	1	200
513.724	1	182
513.894	1	197
514.064	1	193
514.234	1	206
514.404	1	206
514.575	1	202
514.745	1	193
514.915	1	182
515.085	1	182
515.255	1	199
515.425	1	205
515.596	1	220
515.766	1	208
515.936	1	203
516.106	1	221
516.276	1	204
516.447	1	210
516.617	1	222
516.787	1	213
516.957	1	218
517.127	1	226
517.297	1	209
517.468	1	210
517.638	1	220
517.808	1	232
517.978	1	226
518.148	1	222
518.319	1	225
518.489	1	214
518.659	1	226
518.829	1	238
518.999	1	243
519.169	1	226
519.340	1	241
519.510	1	244
519.680	1	237
519.850	1	251
520.020	1	229
520.190	1	242
520.361	1	237
520.531	1	236
520.701	1	262
520.871	1	252
521.041	1	274
521.211	1	257
521.382	1	260
521.552	1	239
521.722	1	253
521.892	1	255
522.062	1	262
522.232	1	256
522.402	1	249
522.573	1	253
522.743	1	250
522.913	1	240
523.083	1	245
523.253	1	268
523.423	1	246
523.593	1	256
523.764	1	249
523.934	1	264
524.104	1	253
524.274	1	251
524.444	1	253
524.614	1	246
524.784	1	239
524.955	1	268
525.125	1	256
525.295	1	247
525.465	1	245
525.635	1	251
525.805	1	270
525.975	1	234
526.146	1	248
526.316	1	239
526.486	1	265
526.656	1	248
526.826	1	246
526.996	1	256
527.166	1	239
527.337	1	242
527.507	1	251
527.677	1	271
527.847	1	252
528.017	1	254
528.187	1	270
528.357	1	255
528.527	1	264
528.698	1	248
528.868	1	268
529.038	1	272
529.208	1	254
529.378	1	271
529.548	1	268
529.718	1	272
529.888	1	261
530.058	1	265
530.229	1	289
530.399	1	270
530.569	1	261
530.739	1	288
530.909	1	269
531.079	1	252
531.249	1	267
531.419	1	275
531.589	1	271
531.760	1	266
531.930	1	279
532.100	1	272
532.270	1	290
532.440	1	280
532.610	1	283
532.780	1	280
532.950	1	287
533.120	1	293
533.290	1	265
533.461	1	280
533.631	1	273
533.801	1	286
533.971	1	281
534.141	1	277
534.311	1	292
534.481	1	291
534.651	1	263
534.821	1	280
534.991	1	292
535.162	1	258
535.332	1	281
535.502	1	254
535.672	1	281
535.842	1	272
536.012	1	265
536.182	1	262
536.352	1	262
536.522	1	266
536.692	1	258
536.862	1	257
537.032	1	237
537.203	1	255
537.373	1	284
537.543	1	262
537.713	1	249
537.883	1	246
538.053	1	267
538.223	1	261
538.393	1	253
538.563	1	265
538.733	1	256
538.903	1	233
539.073	1	264
539.243	1	244
539.413	1	250
539.584	1	250
539.754	1	242
539.924	1	259
540.094	1	240
540.264	1	244
540.434	1	246
540.604	1	238
540.774	1	227
540.944	1	252
541.114	1	241
541.284	1	236
541.454	1	234
541.624	1	241
541.794	1	240
541.964	1	232
542.134	1	245
542.305	1	242
542.475	1	227
542.645	1	231
542.815	1	215
542.985	1	226
543.155	1	208
543.325	1	237
543.495	1	227
543.665	1	213
543.835	1	211
544.005	1	232
544.175	1	227
544.345	1	220
544.515	1	239
544.685	1	232
544.855	1	227
545.025	1	232
545.195	1	232
545.365	1	228
545.535	1	230
545.705	1	222
545.875	1	218
546.045	1	235
546.216	1	212
546.386	1	233
546.556	1	231
546.726	1	215
546.896	1	244
547.066	1	222
547.236	1	221
547.406	1	223
547.576	1	240
547.746	1	243
547.916	1	233
548.086	1	232
548.256	1	218
548.426	1	239
548.596	1	221
548.766	1	240
548.936	1	247
549.106	1	236
549.276	1	233
549.446	1	228
549.616	1	239
549.786	1	227
549.956	1	232
550.126	1	241
550.296	1	238
550.466	1	244
550.636	1	250
550.806	1	245
550.976	1	232
551.146	1	232
551.316	1	240
551.486	1	229
551.656	1	228
551.826	1	239
551.996	1	223
552.166	1	228
552.336	1	225
552.506	1	238
552.676	1	234
552.846	1	222
553.016	1	230
553.186	1	226
553.356	1	212
553.526	1	215
553.696	1	237
553.866	1	214
554.036	1	212
554.206	1	206
554.376	1	206
554.546	1	228
554.716	1	203
554.886	1	230
555.056	1	205
555.226	1	219
555.396	1	204
555.566	1	217
555.736	1	212
555.906	1	201
556.076	1	221
556.246	1	197
556.416	1	201
556.586	1	186
556.756	1	183
556.926	1	192
557.096	1	200
557.266	1	189
557.436	1	194
557.606	1	184
557.776	1	194
557.946	1	192
558.116	1	186
558.286	1	192
558.456	1	173
558.626	1	183
558.796	1	200
558.966	1	179
559.136	1	189
559.306	1	181
559.476	1	182
559.646	1	179
559.816	1	186
559.986	1	160
560.155	1	160
560.325	1	168
560.495	1	170
560.665	1	163
560.835	1	172
561.005	1	176
561.175	1	167
561.345	1	168
561.515	1	166
561.685	1	158
561.855	1	173
562.025	1	172
562.195	1	161
562.365	1	172
562.535	1	163
562.705	1	164
562.875	1	149
563.045	1	151
563.215	1	173
563.385	1	150
563.555	1	144
563.725	1	170
563.895	1	164
564.064	1	141
564.234	1	161
564.404	1	147
564.574	1	169
564.744	1	160
564.914	1	146
565.084	1	136
565.254	1	174
565.424	1	158
565.594	1	133
565.764	1	145
565.934	1	157
566.104	1	160
566.274	1	156
566.444	1	139
566.614	1	140
566.783	1	143
566.953	1	151
567.123	1	153
567.293	1	145
567.463	1	147
567.633	1	143
567.803	1	144
567.973	1	157
568.143	1	149
568.313	1	147
568.483	1	144
568.653	1	135
568.823	1	136
568.993	1	136
569.162	1	131
569.332	1	144
569.502	1	148
569.672	1	128
569.842	1	122
570.012	1	137
570.182	1	131
570.352	1	120
570.522	1	128
570.692	1	145
570.862	1	145
571.031	1	131
571.201	1	147
571.371	1	142
571.541	1	134
571.711	1	135
571.881	1	124
572.051	1	125
572.221	1	137
572.391	1	135
572.561	1	125
572.731	1	118
572.900	1	106
573.070	1	127
573.240	1	107
573.410	1	122
573.580	1	119
573.750	1	126
573.920	1	114
574.090	1	123
574.260	1	110
574.430	1	114
574.599	1	112
574.769	1	116
574.939	1	103
575.109	1	121
575.279	1	115
575.449	1	131
575.619	1	120
575.789	1	109
575.959	1	121
576.128	1	104
576.298	1	110
576.468	1	113
576.638	1	109
576.808	1	108
576.978	1	106
577.148	1	101
577.318	1	125
577.487	1	98
577.657	1	105
577.827	1	104
577.997	1	112
578.167	1	100
578.337	1	107
578.507	1	102
578.677	1	107
578.846	1	107
579.016	1	107
579.186	1	109
579.356	1	98
579.526	1	99
579.696	1	118
579.866	1	101
580.036	1	110
580.205	1	98
580.375	1	113
580.545	1	101
580.715	1	102
580.885	1	112
581.055	1	93
581.225	1	102
581.394	1	97
581.564	1	93
581.734	1	89
581.904	1	88
582.074	1	101
582.244	1	101
582.414	1	97
582.583	1	102
582.753	1	107
582.923	1	95
583.093	1	96
583.263	1	100
583.433	1	99
583.603	1	92
583.772	1	85
583.942	1	102
584.112	1	76
584.282	1	96
584.452	1	102
584.622	1	95
584.791	1	91
584.961	1	91
585.131	1	95
585.301	1	99
585.471	1	90
585.641	1	96
585.811	1	80
585.980	1	95
586.150	1	74
586.320	1	79
586.490	1	99
586.660	1	96
586.830	1	66
586.999	1	90
587.169	1	97
587.339	1	87
587.509	1	85
587.679	1	87
587.849	1	97
588.018	1	78
588.188	1	92
588.358	1	87
588.528	1	77
588.698	1	88
588.867	1	85
589.037	1	84
589.207	1	86
589.377	1	94
589.547	1	89
589.717	1	82
589.886	1	78
590.056	1	79
590.226	1	70
590.396	1	68
590.566	1	64
590.735	1	79
590.905	1	75
591.075	1	79
591.245	1	74
591.415	1	83
591.585	1	78
591.754	1	69
591.924	1	83
592.094	1	66
592.264	1	67
592.434	1	67
592.603	1	57
592.773	1	72
592.943	1	74
593.113	1	71
593.283	1	71
593.452	1	64
593.622	1	72
593.792	1	60
593.962	1	69
594.132	1	62
594.301	1	77
594.471	1	73
594.641	1	76
594.811	1	64
594.981	1	59
595.150	1	72
595.320	1	54
595.490	1	69
595.660	1	77
595.829	1	50
595.999	1	61
596.169	1	73
596.339	1	70
596.509	1	55
596.678	1	76
596.848	1	59
597.018	1	68
597.188	1	60
597.358	1	59
597.527	1	60
597.697	1	45
597.867	1	63
598.037	1	64
598.206	1	69
598.376	1	51
598.546	1	71
598.716	1	48
598.885	1	65
599.055	1	67
599.225	1	59
599.395	1	60
599.565	1	65
599.734	1	76
599.904	1	56
600.074	1	62
600.244	1	67
600.413	1	69
600.583	1	55
600.753	1	60
600.923	1	56
601.092	1	67
601.262	1	58
601.432	1	62
601.602	1	64
601.771	1	61
601.941	1	63
602.111	1	61
602.281	1	60
602.451	1	63
602.620	1	70
602.790	1	61
602.960	1	54
603.130	1	56
603.299	1	52
603.469	1	55
603.639	1	45
603.809	1	68
603.978	1	48
604.148	1	63
604.318	1	57
604.487	1	57
604.657	1	62
604.827	1	63
604.997	1	79
605.166	1	49
605.336	1	53
605.506	1	53
605.676	1	58
605.845	1	65
606.015	1	51
606.185	1	57
606.355	1	51
606.524	1	56
606.694	1	52
606.864	1	59
607.034	1	54
607.203	1	60
607.373	1	68
607.543	1	59
607.712	1	56
607.882	1	64
608.052	1	63
608.222	1	68
608.391	1	56
608.561	1	48
608.731	1	56
608.901	1	62
609.070	1	49
609.240	1	51
609.410	1	62
609.579	1	59
609.749	1	73
609.919	1	61
610.089	1	65
610.258	1	45
610.428	1	66
610.598	1	61
610.767	1	63
610.937	1	52
611.107	1	59
611.277	1	56
611.446	1	56
611.616	1	61
611.786	1	56
611.955	1	45
612.125	1	47
612.295	1	55
612.465	1	43
612.634	1	57
612.804	1	55
612.974	1	41
613.143	1	56
613.313	1	54
613.483	1	61
613.652	1	48
613.822	1	48
613.992	1	44
614.162	1	49
614.331	1	51
614.501	1	45
614.671	1	44
614.840	1	44
615.010	1	49
615.180	1	45
615.349	1	66
615.519	1	45
615.689	1	42
615.858	1	54
616.028	1	53
616.198	1	44
616.368	1	40
616.537	1	47
616.707	1	45
616.877	1	50
617.046	1	57
617.216	1	38
617.386	1	53
617.555	1	26
617.725	1	42
617.895	1	39
618.064	1	33
618.234	1	35
618.404	1	36
618.573	1	42
618.743	1	59
618.913	1	59
619.082	1	41
619.252	1	42
619.422	1	37
619.591	1	38
619.761	1	49
619.931	1	48
620.100	1	47
620.270	1	47
620.440	1	45
620.609	1	49
620.779	1	47
620.949	1	39
621.118	1	55
621.288	1	43
621.458	1	58
621.627	1	41
621.797	1	36
621.967	1	42
622.136	1	47
622.306	1	41
622.476	1	37
622.645	1	40
622.815	1	38
622.985	1	33
623.154	1	31
623.324	1	34
623.494	1	30
623.663	1	38
623.833	1	43
624.002	1	33
624.172	1	36
624.342	1	39
624.511	1	39
624.681	1	42
624.851	1	35
625.020	1	42
625.190	1	40
625.360	1	26
625.529	1	32
625.699	1	34
625.869	1	36
626.038	1	33
626.208	1	42
626.377	1	40
626.547	1	37
626.717	1	36
626.886	1	53
627.056	1	34
627.226	1	37
627.395	1	29
627.565	1	51
627.735	1	29
627.904	1	46
628.074	1	35
628.243	1	54
628.413	1	42
628.583	1	30
628.752	1	25
628.922	1	39
629.091	1	35
629.261	1	41
629.431	1	39
629.600	1	45
629.770	1	33
629.940	1	22
630.109	1	39
630.279	1	40
630.448	1	30
630.618	1	39
630.788	1	41
630.957	1	39
631.127	1	33
631.297	1	23
631.466	1	44
631.636	1	37
631.805	1	36
631.975	1	31
632.145	1	30
632.314	1	38
632.484	1	38
632.653	1	24
632.823	1	31
632.993	1	41
633.162	1	34
633.332	1	25
633.501	1	26
633.671	1	27
633.841	1	36
634.010	1	44
634.180	1	45
634.349	1	39
634.519	1	40
634.689	1	38
634.858	1	22
635.028	1	30
635.197	1	34
635.367	1	44
635.537	1	32
635.706	1	28
635.876	1	41
636.045	1	29
636.215	1	46
636.384	1	26
636.554	1	28
636.724	1	38
636.893	1	45
637.063	1	34
637.232	1	35
637.402	1	25
637.572	1	28
637.741	1	30
637.911	1	40
638.080	1	40
638.250	1	35
638.419	1	31
638.589	1	36
638.759	1	21
638.928	1	32
639.098	1	33
639.267	1	33
639.437	1	32
639.606	1	39
639.776	1	42
639.946	1	39
640.115	1	27
640.285	1	37
640.454	1	38
640.624	1	36
640.793	1	28
640.963	1	23
641.132	1	38
641.302	1	29
641.472	1	38
641.641	1	35
641.811	1	30
641.980	1	28
642.150	1	22
642.319	1	45
642.489	1	18
642.659	1	35
642.828	1	25
642.998	1	40
643.167	1	17
643.337	1	26
643.506	1	31
643.676	1	29
643.845	1	28
644.015	1	30
644.184	1	21
644.354	1	17
644.524	1	37
644.693	1	27
644.863	1	37
645.032	1	33
645.202	1	24
645.371	1	24
645.541	1	34
645.710	1	19
645.880	1	23
646.049	1	29
646.219	1	28
646.388	1	31
646.558	1	27
646.728	1	29
646.897	1	24
647.067	1	29
647.236	1	43
647.406	1	31
647.575	1	37
647.745	1	32
647.914	1	31
648.084	1	27
648.253	1	25
648.423	1	27
648.592	1	22
648.762	1	38
648.931	1	31
649.101	1	27
649.270	1	25
649.440	1	30
649.610	1	29
649.779	1	37
649.949	1	31
650.118	1	24
650.288	1	36
650.457	1	35
650.627	1	29
650.796	1	16
650.966	1	16
651.135	1	20
651.305	1	15
651.474	1	30
651.644	1	32
651.813	1	27
651.983	1	25
652.152	1	17
652.322	1	22
652.491	1	30
652.661	1	23
652.830	1	41
653.000	1	23
653.169	1	33
653.339	1	31
653.508	1	19
653.678	1	23
653.847	1	25
654.017	1	41
654.186	1	21
654.356	1	31
654.525	1	16
654.695	1	34
654.864	1	24
655.034	1	30
655.203	1	23
655.373	1	31
655.542	1	28
655.712	1	15
655.881	1	38
656.051	1	23
656.220	1	27
656.390	1	26
656.559	1	10
656.729	1	18
656.898	1	26
657.068	1	25
657.237	1	27
657.406	1	28
657.576	1	21
657.745	1	21
657.915	1	23
658.084	1	21
658.254	1	31
658.423	1	29
658.593	1	32
658.762	1	29
658.932	1	24
659.101	1	21
659.271	1	21
659.440	1	31
659.610	1	21
659.779	1	26
659.949	1	24
660.118	1	24
660.288	1	13
660.457	1	32
660.626	1	21
660.796	1	22
660.965	1	33
661.135	1	7
661.304	1	17
661.474	1	22
661.643	1	16
661.813	1	20
661.982	1	31
662.152	1	15
662.321	1	17
662.491	1	23
662.660	1	10
662.829	1	22
662.999	1	18
663.168	1	28
663.338	1	25
663.507	1	18
663.677	1	31
663.846	1	21
664.016	1	13
664.185	1	18
664.354	1	20
664.524	1	17
664.693	1	11
664.863	1	13
665.032	1	17
665.202	1	16
665.371	1	9
665.541	1	31
665.710	1	19
665.879	1	19
666.049	1	8
666.218	1	15
666.388	1	18
666.557	1	23
666.727	1	12
666.896	1	26
667.065	1	15
667.235	1	26
667.404	1	18
667.574	1	13
667.743	1	21
667.913	1	19
668.082	1	11
668.251	1	31
668.421	1	18
668.590	1	13
668.760	1	24
668.929	1	29
669.099	1	17
669.268	1	3
669.437	1	7
669.607	1	27
669.776	1	19
669.946	1	16
670.115	1	8
670.285	1	25
670.454	1	10
670.623	1	17
670.793	1	21
670.962	1	11
671.132	1	6
671.301	1	25
671.470	1	11
671.640	1	13
671.809	1	13
671.979	1	25
672.148	1	22
672.317	1	21
672.487	1	10
672.656	1	2
672.826	1	16
672.995	1	21
673.164	1	14
673.334	1	19
673.503	1	4
673.673	1	23
673.842	1	24
674.011	1	23
674.181	1	18
674.350	1	22
674.520	1	14
674.689	1	13
674.858	1	-2
675.028	1	23
675.197	1	20
675.367	1	14
675.536	1	17
675.705	1	27
675.875	1	13
676.044	1	8
676.214	1	22
676.383	1	20
676.552	1	19
676.722	1	15
676.891	1	17
677.060	1	8
677.230	1	24
677.399	1	16
677.569	1	32
677.738	1	18
677.907	1	18
678.077	1	22
678.246	1	16
678.416	1	17
678.585	1	6
678.754	1	17
678.924	1	25
679.093	1	17
679.262	1	17
679.432	1	22
679.601	1	8
679.771	1	11
679.940	1	18
680.109	1	12
680.279	1	21
680.448	1	24
680.617	1	18
680.787	1	18
680.956	1	13
681.125	1	17
681.295	1	9
681.464	1	15
681.634	1	22
681.803	1	14
681.972	1	10
682.142	1	17
682.311	1	18
682.480	1	25
682.650	1	21
682.819	1	17
682.988	1	13
683.158	1	16
683.327	1	22
683.496	1	14
683.666	1	18
683.835	1	6
684.004	1	25
684.174	1	13
684.343	1	27
684.512	1	8
684.682	1	19
684.851	1	30
685.021	1	8
685.190	1	21
685.359	1	9
685.529	1	22
685.698	1	13
685.867	1	20
686.037	1	13
686.206	1	14
686.375	1	15
686.545	1	30
686.714	1	16
686.883	1	15
687.053	1	12
687.222	1	17
687.391	1	24
687.561	1	30
687.730	1	26
687.899	1	23
688.069	1	18
688.238	1	15
688.407	1	26
688.577	1	14
688.746	1	24
