340.368	1	16
340.539	1	10
340.710	1	-3
340.881	1	-4
341.052	1	-5
341.223	1	9
341.394	1	-2
341.565	1	8
341.737	1	4
341.908	1	-1
342.079	1	-6
342.250	1	4
342.421	1	0
342.592	1	7
342.763	1	0
342.934	1	-1
343.105	1	7
343.276	1	-1
343.447	1	-12
343.618	1	-13
343.789	1	-3
343.960	1	2
344.131	1	4
344.302	1	-9
344.473	1	6
344.644	1	3
344.815	1	6
344.986	1	4
345.157	1	8
345.328	1	-6
345.499	1	5
345.670	1	-4
345.841	1	-3
346.012	1	9
346.183	1	9
346.354	1	11
346.526	1	5
346.697	1	5
346.868	1	0
347.039	1	-2
347.210	1	0
347.381	1	3
347.552	1	-2
347.723	1	1
347.894	1	12
348.065	1	6
348.236	1	1
348.407	1	-1
348.578	1	2
348.749	1	-6
348.920	1	-13
349.091	1	5
349.262	1	-5
349.433	1	3
349.604	1	8
349.775	1	3
349.946	1	6
350.117	1	9
350.288	1	5
350.459	1	-3
350.630	1	11
350.801	1	2
350.972	1	8
351.143	1	8
351.314	1	5
351.485	1	12
351.656	1	1
351.827	1	15
351.998	1	7
352.169	1	-6
352.340	1	4
352.511	1	8
352.682	1	10
352.853	1	13
353.024	1	8
353.195	1	6
353.366	1	9
353.537	1	11
353.708	1	6
353.879	1	-8
354.050	1	5
354.221	1	1
354.392	1	14
354.563	1	5
354.734	1	4
354.905	1	6
355.076	1	7
355.247	1	14
355.418	1	2
355.589	1	12
355.760	1	14
355.931	1	3
356.102	1	-1
356.273	1	3
356.444	1	8
356.615	1	7
356.785	1	15
356.956	1	5
357.127	1	17
357.298	1	11
357.469	1	5
357.640	1	9
357.811	1	8
357.982	1	9
358.153	1	19
358.324	1	26
358.495	1	1
358.666	1	3
358.837	1	26
359.008	1	16
359.179	1	18
359.350	1	-5
359.521	1	19
359.692	1	8
359.863	1	14
360.034	1	26
360.205	1	19
360.376	1	14
360.547	1	10
360.718	1	34
360.889	1	14
361.060	1	19
361.231	1	13
361.401	1	16
361.572	1	23
361.743	1	32
361.914	1	34
362.085	1	39
362.256	1	34
362.427	1	27
362.598	1	29
362.769	1	39
362.940	1	39
363.111	1	45
363.282	1	37
363.453	1	37
363.624	1	49
363.795	1	49
363.966	1	56
364.137	1	51
364.308	1	53
364.478	1	56
364.649	1	58
364.820	1	61
364.991	1	67
365.162	1	68
365.333	1	65
365.504	1	66
365.675	1	67
365.846	1	73
366.017	1	74
366.188	1	76
366.359	1	79
366.530	1	79
366.701	1	77
366.871	1	82
367.042	1	84
367.213	1	84
367.384	1	75
367.555	1	75
367.726	1	79
367.897	1	85
368.068	1	88
368.239	1	69
368.410	1	69
368.581	1	75
368.752	1	84
368.923	1	74
369.093	1	72
369.264	1	65
369.435	1	65
369.606	1	66
369.777	1	66
369.948	1	53
370.119	1	55
370.290	1	59
370.461	1	68
370.632	1	62
370.803	1	61
370.973	1	57
371.144	1	58
371.315	1	45
371.486	1	51
371.657	1	48
371.828	1	42
371.999	1	33
372.170	1	51
372.341	1	47
372.512	1	45
372.682	1	48
372.853	1	44
373.024	1	46
373.195	1	34
373.366	1	37
373.537	1	46
373.708	1	30
373.879	1	45
374.050	1	28
374.220	1	40
374.391	1	31
374.562	1	26
374.733	1	30
374.904	1	30
375.075	1	32
375.246	1	24
375.417	1	35
375.588	1	30
375.758	1	16
375.929	1	30
376.100	1	30
376.271	1	17
376.442	1	27
376.613	1	26
376.784	1	26
376.955	1	20
377.125	1	25
377.296	1	23
377.467	1	23
377.638	1	14
377.809	1	30
377.980	1	27
378.151	1	22
378.321	1	21
378.492	1	36
378.663	1	13
378.834	1	27
379.005	1	21
379.176	1	10
379.347	1	25
379.518	1	27
379.688	1	18
379.859	1	17
380.030	1	38
380.201	1	28
380.372	1	23
380.543	1	34
380.714	1	20
380.884	1	27
381.055	1	24
381.226	1	22
381.397	1	31
381.568	1	27
381.739	1	10
381.910	1	23
382.080	1	28
382.251	1	19
382.422	1	25
382.593	1	23
382.764	1	21
382.935	1	27
383.105	1	23
383.276	1	33
383.447	1	38
383.618	1	38
383.789	1	34
383.960	1	30
384.130	1	30
384.301	1	34
384.472	1	34
384.643	1	34
384.814	1	33
384.985	1	27
385.156	1	39
385.326	1	43
385.497	1	32
385.668	1	47
385.839	1	43
386.010	1	48
386.180	1	40
386.351	1	39
386.522	1	43
386.693	1	49
386.864	1	50
387.035	1	50
387.205	1	39
387.376	1	47
387.547	1	48
387.718	1	36
387.889	1	49
388.060	1	38
388.230	1	49
388.401	1	29
388.572	1	52
388.743	1	36
388.914	1	37
389.084	1	35
389.255	1	37
389.426	1	31
389.597	1	39
389.768	1	35
389.939	1	38
390.109	1	33
390.280	1	39
390.451	1	24
390.622	1	42
390.793	1	40
390.963	1	38
391.134	1	22
391.305	1	26
391.476	1	30
391.647	1	38
391.817	1	38
391.988	1	36
392.159	1	38
392.330	1	37
392.501	1	31
392.671	1	35
392.842	1	35
393.013	1	41
393.184	1	40
393.355	1	37
393.525	1	32
393.696	1	28
393.867	1	29
394.038	1	28
394.208	1	37
394.379	1	34
394.550	1	31
394.721	1	26
394.892	1	34
395.062	1	37
395.233	1	31
395.404	1	34
395.575	1	34
395.746	1	38
395.916	1	32
396.087	1	33
396.258	1	32
396.429	1	32
396.599	1	40
396.770	1	39
396.941	1	29
397.112	1	26
397.283	1	31
397.453	1	46
397.624	1	40
397.795	1	33
397.966	1	40
398.136	1	34
398.307	1	39
398.478	1	29
398.649	1	25
398.819	1	38
398.990	1	26
399.161	1	39
399.332	1	36
399.503	1	31
399.673	1	14
399.844	1	36
400.015	1	31
400.186	1	37
400.356	1	30
400.527	1	42
400.698	1	37
400.869	1	24
401.039	1	18
401.210	1	31
401.381	1	15
401.552	1	33
401.722	1	28
401.893	1	28
402.064	1	34
402.235	1	28
402.405	1	30
402.576	1	30
402.747	1	25
402.918	1	38
403.088	1	31
403.259	1	25
403.430	1	24
403.601	1	31
403.771	1	40
403.942	1	21
404.113	1	33
404.284	1	19
404.454	1	24
404.625	1	25
404.796	1	13
404.967	1	20
405.137	1	25
405.308	1	15
405.479	1	25
405.649	1	33
405.820	1	18
405.991	1	19
406.162	1	31
406.332	1	7
406.503	1	28
406.674	1	29
406.845	1	22
407.015	1	16
407.186	1	29
407.357	1	20
407.527	1	12
407.698	1	32
407.869	1	25
408.040	1	15
408.210	1	28
408.381	1	21
408.552	1	14
408.722	1	9
408.893	1	15
409.064	1	17
409.235	1	17
409.405	1	31
409.576	1	18
409.747	1	15
409.917	1	27
410.088	1	17
410.259	1	7
410.430	1	18
410.600	1	11
410.771	1	20
410.942	1	13
411.112	1	12
411.283	1	12
411.454	1	18
411.625	1	9
411.795	1	21
411.966	1	31
412.137	1	19
412.307	1	16
412.478	1	20
412.649	1	13
412.819	1	21
412.990	1	6
413.161	1	3
413.332	1	18
413.502	1	4
413.673	1	36
413.844	1	28
414.014	1	9
414.185	1	16
414.356	1	12
414.526	1	25
414.697	1	17
414.868	1	12
415.038	1	16
415.209	1	7
415.380	1	22
415.550	1	18
415.721	1	8
415.892	1	15
416.063	1	20
416.233	1	6
416.404	1	12
416.575	1	10
416.745	1	9
416.916	1	7
417.087	1	22
417.257	1	13
417.428	1	12
417.599	1	20
417.769	1	13
417.940	1	11
418.111	1	13
418.281	1	6
418.452	1	6
418.623	1	2
418.793	1	13
418.964	1	9
419.135	1	15
419.305	1	15
419.476	1	17
419.647	1	13
419.817	1	15
419.988	1	5
420.159	1	14
420.329	1	7
420.500	1	22
420.671	1	12
420.841	1	18
421.012	1	13
421.183	1	16
421.353	1	4
421.524	1	16
421.695	1	11
421.865	1	17
422.036	1	13
422.206	1	8
422.377	1	7
422.548	1	9
422.718	1	12
422.889	1	9
423.060	1	2
423.230	1	12
423.401	1	12
423.572	1	22
423.742	1	14
423.913	1	10
424.084	1	11
424.254	1	2
424.425	1	0
424.595	1	6
424.766	1	8
424.937	1	14
425.107	1	6
425.278	1	7
425.449	1	2
425.619	1	13
425.790	1	16
425.961	1	4
426.131	1	9
426.302	1	7
426.472	1	6
426.643	1	-4
426.814	1	4
426.984	1	2
427.155	1	4
427.326	1	10
427.496	1	-3
427.667	1	8
427.837	1	8
428.008	1	17
428.179	1	3
428.349	1	2
428.520	1	11
428.691	1	13
428.861	1	-2
429.032	1	16
429.202	1	21
429.373	1	5
429.544	1	2
429.714	1	2
429.885	1	-4
430.055	1	8
430.226	1	7
430.397	1	7
430.567	1	12
430.738	1	7
430.909	1	9
431.079	1	-1
431.250	1	6
431.420	1	4
431.591	1	5
431.762	1	4
431.932	1	-8
432.103	1	8
432.273	1	11
432.444	1	5
432.615	1	-1
432.785	1	-6
432.956	1	5
433.126	1	2
433.297	1	-3
433.468	1	-1
433.638	1	1
433.809	1	11
433.979	1	11
434.150	1	20
434.320	1	9
434.491	1	10
434.662	1	0
434.832	1	13
435.003	1	8
435.173	1	7
435.344	1	5
435.515	1	3
435.685	1	19
435.856	1	7
436.026	1	3
436.197	1	0
436.368	1	4
436.538	1	7
436.709	1	-4
436.879	1	5
437.050	1	14
437.220	1	-7
437.391	1	8
437.562	1	13
437.732	1	4
437.903	1	-1
438.073	1	5
438.244	1	0
438.414	1	1
438.585	1	8
438.756	1	7
438.926	1	11
439.097	1	17
439.267	1	-3
439.438	1	2
439.608	1	1
439.779	1	-9
439.949	1	-2
440.120	1	-2
440.291	1	12
440.461	1	12
440.632	1	8
440.802	1	11
440.973	1	8
441.143	1	-3
441.314	1	-6
441.485	1	8
441.655	1	4
441.826	1	-6
441.996	1	6
442.167	1	4
442.337	1	6
442.508	1	2
442.678	1	-4
442.849	1	-4
443.019	1	10
443.190	1	13
443.361	1	7
443.531	1	12
443.702	1	0
443.872	1	2
444.043	1	15
444.213	1	16
444.384	1	4
444.554	1	4
444.725	1	14
444.895	1	2
445.066	1	7
445.237	1	9
445.407	1	-3
445.578	1	14
445.748	1	5
445.919	1	8
446.089	1	-3
446.260	1	-1
446.430	1	-2
446.601	1	24
446.771	1	-2
446.942	1	1
447.112	1	8
447.283	1	1
447.453	1	9
447.624	1	4
447.794	1	9
447.965	1	9
448.135	1	5
448.306	1	3
448.477	1	6
448.647	1	5
448.818	1	2
448.988	1	-3
449.159	1	5
449.329	1	6
449.500	1	-1
449.670	1	4
449.841	1	7
450.011	1	3
450.182	1	-6
450.352	1	-4
450.523	1	5
450.693	1	10
450.864	1	9
451.034	1	11
451.205	1	7
451.375	1	9
451.546	1	1
451.716	1	20
451.887	1	-3
452.057	1	14
452.228	1	2
452.398	1	16
452.569	1	0
452.739	1	13
452.910	1	0
453.080	1	2
453.251	1	6
453.421	1	0
453.592	1	12
453.762	1	7
453.933	1	14
454.103	1	0
454.274	1	3
454.444	1	1
454.615	1	13
454.785	1	-3
454.956	1	14
455.126	1	-5
455.297	1	8
455.467	1	5
455.638	1	10
455.808	1	-2
455.979	1	8
456.149	1	7
456.320	1	14
456.490	1	4
456.661	1	-5
456.831	1	8
457.001	1	4
457.172	1	15
457.342	1	6
457.513	1	4
457.683	1	0
457.854	1	0
458.024	1	-9
458.195	1	-5
458.365	1	9
458.536	1	5
458.706	1	21
458.877	1	4
459.047	1	17
459.218	1	3
459.388	1	-1
459.559	1	2
459.729	1	-9
459.899	1	6
460.070	1	1
460.240	1	6
460.411	1	-6
460.581	1	10
460.752	1	1
460.922	1	17
461.093	1	4
461.263	1	3
461.434	1	4
461.604	1	15
461.775	1	-4
461.945	1	11
462.115	1	8
462.286	1	2
462.456	1	12
462.627	1	9
462.797	1	-8
462.968	1	-2
463.138	1	4
463.309	1	0
463.479	1	10
463.649	1	2
463.820	1	-3
463.990	1	17
464.161	1	5
464.331	1	15
464.502	1	9
464.672	1	-9
464.843	1	1
465.013	1	-4
465.183	1	-7
465.354	1	10
465.524	1	4
465.695	1	10
465.865	1	1
466.036	1	13
466.206	1	13
466.376	1	0
466.547	1	-1
466.717	1	1
466.888	1	0
467.058	1	-1
467.229	1	11
467.399	1	7
467.569	1	11
467.740	1	2
467.910	1	8
468.081	1	-1
468.251	1	11
468.422	1	-7
468.592	1	4
468.762	1	-11
468.933	1	8
469.103	1	3
469.274	1	4
469.444	1	11
469.614	1	9
469.785	1	3
469.955	1	4
470.126	1	4
470.296	1	5
470.467	1	-7
470.637	1	-2
470.807	1	20
470.978	1	11
471.148	1	-4
471.319	1	8
471.489	1	0
471.659	1	-4
471.830	1	10
472.000	1	4
472.171	1	7
472.341	1	0
472.511	1	12
472.682	1	-3
472.852	1	8
473.023	1	3
473.193	1	2
473.363	1	2
473.534	1	1
473.704	1	4
473.875	1	1
474.045	1	6
474.215	1	3
474.386	1	3
474.556	1	6
474.727	1	1
474.897	1	10
475.067	1	-11
475.238	1	-9
475.408	1	1
475.578	1	7
475.749	1	11
475.919	1	-10
476.090	1	4
476.260	1	3
476.430	1	15
476.601	1	8
476.771	1	2
476.942	1	-1
477.112	1	-7
477.282	1	13
477.453	1	-2
477.623	1	3
477.793	1	9
477.964	1	6
478.134	1	4
478.305	1	-4
478.475	1	2
478.645	1	7
478.816	1	10
478.986	1	4
479.156	1	5
479.327	1	-1
479.497	1	10
479.667	1	16
479.838	1	0
480.008	1	-6
480.179	1	-3
480.349	1	6
480.519	1	1
480.690	1	-1
480.860	1	3
481.030	1	11
481.201	1	-3
481.371	1	10
481.541	1	6
481.712	1	6
481.882	1	-6
482.053	1	1
482.223	1	0
482.393	1	7
482.564	1	-2
482.734	1	6
482.904	1	12
483.075	1	0
483.245	1	3
483.415	1	4
483.586	1	10
483.756	1	6
483.926	1	0
484.097	1	11
484.267	1	-6
484.437	1	12
484.608	1	8
484.778	1	0
484.948	1	0
485.119	1	0
485.289	1	10
485.459	1	2
485.630	1	4
485.800	1	1
485.970	1	12
486.141	1	4
486.311	1	9
486.481	1	4
486.652	1	-5
486.822	1	-3
486.992	1	5
487.163	1	6
487.333	1	4
487.503	1	6
487.674	1	10
487.844	1	7
488.014	1	12
488.185	1	6
488.355	1	16
488.525	1	9
488.696	1	7
488.866	1	-1
489.036	1	8
489.207	1	4
489.377	1	5
489.547	1	7
489.718	1	7
489.888	1	7
490.058	1	19
490.228	1	5
490.399	1	4
490.569	1	5
490.739	1	4
490.910	1	-4
491.080	1	6
491.250	1	8
491.421	1	13
491.591	1	5
491.761	1	7
491.932	1	8
492.102	1	3
492.272	1	7
492.442	1	8
492.613	1	10
492.783	1	9
492.953	1	13
493.124	1	12
493.294	1	19
493.464	1	11
493.635	1	4
493.805	1	15
493.975	1	5
494.145	1	17
494.316	1	10
494.486	1	6
494.656	1	11
494.827	1	17
494.997	1	13
495.167	1	13
495.337	1	6
495.508	1	5
495.678	1	11
495.848	1	15
496.019	1	8
496.189	1	6
496.359	1	16
496.529	1	6
496.700	1	6
496.870	1	18
497.040	1	7
497.211	1	20
497.381	1	-1
497.551	1	8
497.721	1	6
497.892	1	18
498.062	1	15
498.232	1	21
498.403	1	16
498.573	1	9
498.743	1	21
498.913	1	18
499.084	1	9
499.254	1	0
499.424	1	9
499.594	1	10
499.765	1	15
499.935	1	8
500.105	1	20
500.275	1	10
500.446	1	11
500.616	1	1
500.786	1	17
500.956	1	19
501.127	1	17
501.297	1	12
501.467	1	12
501.638	1	25
501.808	1	10
501.978	1	16
502.148	1	3
502.319	1	28
502.489	1	6
502.659	1	31
502.829	1	13
503.000	1	18
503.170	1	10
503.340	1	24
503.510	1	9
503.681	1	14
503.851	1	15
504.021	1	26
504.191	1	9
504.362	1	17
504.532	1	17
504.702	1	14
504.872	1	5
505.042	1	16
505.213	1	12
505.383	1	13
505.553	1	27
505.723	1	16
505.894	1	8
506.064	1	20
506.234	1	17
506.404	1	18
506.575	1	9
506.745	1	31
506.915	1	15
507.085	1	17
507.256	1	24
507.426	1	20
507.596	1	17
507.766	1	27
507.936	1	18
508.107	1	32
508.277	1	13
508.447	1	16
508.617	1	32
508.788	1	24
508.958	1	26
509.128	1	22
509.298	1	14
509.468	1	36
509.639	1	19
509.809	1	31
509.979	1	36
510.149	1	27
510.319	1	23
510.490	1	24
510.660	1	20
510.830	1	22
511.000	1	33
511.171	1	11
511.341	1	30
511.511	1	31
511.681	1	33
511.851	1	32
512.022	1	27
512.192	1	26
512.362	1	25
512.532	1	16
512.702	1	30
512.873	1	44
513.043	1	26
513.213	1	42
513.383	1	19
513.553	1	30
513.724	1	20
513.894	1	29
514.064	1	31
514.234	1	40
514.404	1	29
514.575	1	20
514.745	1	35
514.915	1	7
515.085	1	22
515.255	1	27
515.425	1	32
515.596	1	39
515.766	1	30
515.936	1	34
516.106	1	28
516.276	1	31
516.447	1	35
516.617	1	26
516.787	1	31
516.957	1	30
517.127	1	35
517.297	1	37
517.468	1	23
517.638	1	25
517.808	1	25
517.978	1	41
518.148	1	24
518.319	1	37
518.489	1	32
518.659	1	29
518.829	1	32
518.999	1	31
519.169	1	27
519.340	1	24
519.510	1	41
519.680	1	35
519.850	1	26
520.020	1	28
520.190	1	33
520.361	1	27
520.531	1	28
520.701	1	34
520.871	1	26
521.041	1	41
521.211	1	37
521.382	1	28
521.552	1	22
521.722	1	47
521.892	1	38
522.062	1	30
522.232	1	35
522.402	1	33
522.573	1	37
522.743	1	39
522.913	1	28
523.083	1	39
523.253	1	32
523.423	1	34
523.593	1	30
523.764	1	38
523.934	1	45
524.104	1	33
524.274	1	26
524.444	1	37
524.614	1	31
524.784	1	42
524.955	1	35
525.125	1	35
525.295	1	27
525.465	1	36
525.635	1	21
525.805	1	39
525.975	1	25
526.146	1	27
526.316	1	43
526.486	1	43
526.656	1	34
526.826	1	38
526.996	1	34
527.166	1	32
527.337	1	34
527.507	1	27
527.677	1	35
527.847	1	36
528.017	1	29
528.187	1	46
528.357	1	45
528.527	1	43
528.698	1	24
528.868	1	37
529.038	1	22
529.208	1	27
529.378	1	39
529.548	1	37
529.718	1	30
529.888	1	44
530.058	1	37
530.229	1	36
530.399	1	35
530.569	1	26
530.739	1	34
530.909	1	31
531.079	1	19
531.249	1	38
531.419	1	41
531.589	1	35
531.760	1	37
531.930	1	42
532.100	1	33
532.270	1	36
532.440	1	38
532.610	1	48
532.780	1	43
532.950	1	44
533.120	1	47
533.290	1	36
533.461	1	27
533.631	1	37
533.801	1	26
533.971	1	36
534.141	1	35
534.311	1	39
534.481	1	30
534.651	1	30
534.821	1	29
534.991	1	38
535.162	1	31
535.332	1	38
535.502	1	31
535.672	1	31
535.842	1	34
536.012	1	27
536.182	1	29
536.352	1	26
536.522	1	32
536.692	1	37
536.862	1	35
537.032	1	29
537.203	1	37
537.373	1	30
537.543	1	28
537.713	1	37
537.883	1	27
538.053	1	35
538.223	1	32
538.393	1	39
538.563	1	28
538.733	1	37
538.903	1	27
539.073	1	36
539.243	1	33
539.413	1	31
539.584	1	31
539.754	1	31
539.924	1	30
540.094	1	38
540.264	1	28
540.434	1	31
540.604	1	34
540.774	1	36
540.944	1	25
541.114	1	34
541.284	1	25
541.454	1	42
541.624	1	37
541.794	1	30
541.964	1	30
542.134	1	37
542.305	1	30
542.475	1	27
542.645	1	39
542.815	1	21
542.985	1	40
543.155	1	12
543.325	1	31
543.495	1	40
543.665	1	33
543.835	1	27
544.005	1	26
544.175	1	25
544.345	1	31
544.515	1	26
544.685	1	34
544.855	1	25
545.025	1	29
545.195	1	24
545.365	1	30
545.535	1	27
545.705	1	36
545.875	1	24
546.045	1	21
546.216	1	22
546.386	1	25
546.556	1	21
546.726	1	34
546.896	1	27
547.066	1	25
547.236	1	33
547.406	1	22
547.576	1	28
547.746	1	37
547.916	1	29
548.086	1	38
548.256	1	24
548.426	1	23
548.596	1	27
548.766	1	29
548.936	1	36
549.106	1	41
549.276	1	29
549.446	1	25
549.616	1	24
549.786	1	13
549.956	1	30
550.126	1	27
550.296	1	16
550.466	1	40
550.636	1	54
550.806	1	35
550.976	1	25
551.146	1	17
551.316	1	24
551.486	1	31
551.656	1	36
551.826	1	45
551.996	1	24
552.166	1	44
552.336	1	23
552.506	1	28
552.676	1	26
552.846	1	21
553.016	1	26
553.186	1	36
553.356	1	34
553.526	1	13
553.696	1	40
553.866	1	33
554.036	1	21
554.206	1	25
554.376	1	23
554.546	1	13
554.716	1	22
554.886	1	41
555.056	1	26
555.226	1	20
555.396	1	21
555.566	1	30
555.736	1	28
555.906	1	27
556.076	1	32
556.246	1	25
556.416	1	15
556.586	1	15
556.756	1	22
556.926	1	32
557.096	1	33
557.266	1	28
557.436	1	26
557.606	1	28
557.776	1	22
557.946	1	32
558.116	1	29
558.286	1	11
558.456	1	12
558.626	1	14
558.796	1	22
558.966	1	23
559.136	1	19
559.306	1	27
559.476	1	26
559.646	1	24
559.816	1	27
559.986	1	20
560.155	1	24
560.325	1	20
560.495	1	24
560.665	1	9
560.835	1	10
561.005	1	31
561.175	1	15
561.345	1	14
561.515	1	14
561.685	1	7
561.855	1	25
562.025	1	18
562.195	1	20
562.365	1	26
562.535	1	10
562.705	1	12
562.875	1	22
563.045	1	18
563.215	1	16
563.385	1	18
563.555	1	17
563.725	1	14
563.895	1	23
564.064	1	18
564.234	1	17
564.404	1	14
564.574	1	32
564.744	1	23
564.914	1	23
565.084	1	9
565.254	1	23
565.424	1	23
565.594	1	14
565.764	1	7
565.934	1	15
566.104	1	11
566.274	1	26
566.444	1	10
566.614	1	21
566.783	1	20
566.953	1	14
567.123	1	18
567.293	1	16
567.463	1	5
567.633	1	11
567.803	1	21
567.973	1	20
568.143	1	20
568.313	1	10
568.483	1	22
568.653	1	8
568.823	1	10
568.993	1	4
569.162	1	13
569.332	1	15
569.502	1	25
569.672	1	18
569.842	1	13
570.012	1	12
570.182	1	18
570.352	1	6
570.522	1	16
570.692	1	12
570.862	1	11
571.031	1	6
571.201	1	21
571.371	1	19
571.541	1	17
571.711	1	10
571.881	1	19
572.051	1	11
572.221	1	14
572.391	1	30
572.561	1	12
572.731	1	14
572.900	1	-2
573.070	1	23
573.240	1	6
573.410	1	16
573.580	1	3
573.750	1	11
573.920	1	9
574.090	1	14
574.260	1	9
574.430	1	12
574.599	1	18
574.769	1	10
574.939	1	4
575.109	1	-6
575.279	1	14
575.449	1	23
575.619	1	22
575.789	1	6
575.959	1	8
576.128	1	4
576.298	1	7
576.468	1	13
576.638	1	6
576.808	1	15
576.978	1	9
577.148	1	12
577.318	1	26
577.487	1	12
577.657	1	5
577.827	1	4
577.997	1	16
578.167	1	8
578.337	1	16
578.507	1	9
578.677	1	1
578.846	1	6
579.016	1	8
579.186	1	4
579.356	1	15
579.526	1	15
579.696	1	20
579.866	1	13
580.036	1	15
580.205	1	9
580.375	1	21
580.545	1	3
580.715	1	12
580.885	1	15
581.055	1	11
581.225	1	8
581.394	1	1
581.564	1	0
581.734	1	4
581.904	1	9
582.074	1	13
582.244	1	12
582.414	1	17
582.583	1	9
582.753	1	20
582.923	1	7
583.093	1	19
583.263	1	13
583.433	1	5
583.603	1	-3
583.772	1	3
583.942	1	14
584.112	1	9
584.282	1	13
584.452	1	6
584.622	1	9
584.791	1	2
584.961	1	-1
585.131	1	6
585.301	1	10
585.471	1	4
585.641	1	8
585.811	1	2
585.980	1	5
586.150	1	3
586.320	1	-1
586.490	1	11
586.660	1	18
586.830	1	3
586.999	1	7
587.169	1	18
587.339	1	7
587.509	1	2
587.679	1	-2
587.849	1	19
588.018	1	-1
588.188	1	11
588.358	1	2
588.528	1	7
588.698	1	-4
588.867	1	6
589.037	1	3
589.207	1	11
589.377	1	15
589.547	1	15
589.717	1	1
589.886	1	2
590.056	1	9
590.226	1	3
590.396	1	-1
590.566	1	0
590.735	1	-1
590.905	1	11
591.075	1	4
591.245	1	18
591.415	1	3
591.585	1	11
591.754	1	7
591.924	1	17
592.094	1	-3
592.264	1	-4
592.434	1	3
592.603	1	3
592.773	1	9
592.943	1	19
593.113	1	3
593.283	1	0
593.452	1	1
593.622	1	11
593.792	1	9
593.962	1	15
594.132	1	15
594.301	1	8
594.471	1	1
594.641	1	4
594.811	1	7
594.981	1	-2
595.150	1	12
595.320	1	-3
595.490	1	13
595.660	1	9
595.829	1	-11
595.999	1	-3
596.169	1	8
596.339	1	8
596.509	1	10
596.678	1	9
596.848	1	11
597.018	1	5
597.188	1	-4
597.358	1	6
597.527	1	3
597.697	1	-2
597.867	1	9
598.037	1	3
598.206	1	12
598.376	1	-1
598.546	1	10
598.716	1	-11
598.885	1	7
599.055	1	4
599.225	1	8
599.395	1	9
599.565	1	-1
599.734	1	8
599.904	1	-2
600.074	1	2
600.244	1	2
600.413	1	5
600.583	1	0
600.753	1	11
600.923	1	8
601.092	1	16
601.262	1	10
601.432	1	7
601.602	1	17
601.771	1	1
601.941	1	4
602.111	1	8
602.281	1	3
602.451	1	0
602.620	1	7
602.790	1	-1
602.960	1	-2
603.130	1	8
603.299	1	11
603.469	1	-3
603.639	1	3
603.809	1	19
603.978	1	-4
604.148	1	0
604.318	1	5
604.487	1	11
604.657	1	3
604.827	1	7
604.997	1	17
605.166	1	11
605.336	1	2
605.506	1	0
605.676	1	11
605.845	1	6
606.015	1	-6
606.185	1	5
606.355	1	6
606.524	1	1
606.694	1	7
606.864	1	9
607.034	1	9
607.203	1	6
607.373	1	5
607.543	1	0
607.712	1	6
607.882	1	1
608.052	1	4
608.222	1	7
608.391	1	23
608.561	1	12
608.731	1	0
608.901	1	8
609.070	1	-10
609.240	1	4
609.410	1	3
609.579	1	6
609.749	1	9
609.919	1	5
610.089	1	-1
610.258	1	6
610.428	1	18
610.598	1	9
610.767	1	15
610.937	1	8
611.107	1	2
611.277	1	0
611.446	1	3
611.616	1	14
611.786	1	14
611.955	1	11
612.125	1	8
612.295	1	8
612.465	1	0
612.634	1	9
612.804	1	13
612.974	1	3
613.143	1	7
613.313	1	9
613.483	1	18
613.652	1	10
613.822	1	8
613.992	1	-2
614.162	1	3
614.331	1	-3
614.501	1	2
614.671	1	4
614.840	1	4
615.010	1	1
615.180	1	5
615.349	1	13
615.519	1	5
615.689	1	-6
615.858	1	14
616.028	1	8
616.198	1	-5
616.368	1	4
616.537	1	-2
616.707	1	-1
616.877	1	6
617.046	1	15
617.216	1	2
617.386	1	7
617.555	1	0
617.725	1	8
617.895	1	-2
618.064	1	7
618.234	1	3
618.404	1	-3
618.573	1	6
618.743	1	18
618.913	1	13
619.082	1	3
619.252	1	2
619.422	1	2
619.591	1	6
619.761	1	-1
619.931	1	5
620.100	1	16
620.270	1	21
620.440	1	1
620.609	1	13
620.779	1	9
620.949	1	3
621.118	1	7
621.288	1	-2
621.458	1	-2
621.627	1	12
621.797	1	-6
621.967	1	11
622.136	1	-1
622.306	1	6
622.476	1	4
622.645	1	-1
622.815	1	7
622.985	1	4
623.154	1	-2
623.324	1	7
623.494	1	-2
623.663	1	1
623.833	1	7
624.002	1	4
624.172	1	2
624.342	1	15
624.511	1	3
624.681	1	8
624.851	1	-4
625.020	1	9
625.190	1	2
625.360	1	-6
625.529	1	-3
625.699	1	4
625.869	1	4
626.038	1	-5
626.208	1	18
626.377	1	6
626.547	1	-1
626.717	1	-8
626.886	1	0
627.056	1	-1
627.226	1	4
627.395	1	-8
627.565	1	8
627.735	1	5
627.904	1	3
628.074	1	2
628.243	1	0
628.413	1	-6
628.583	1	2
628.752	1	-1
628.922	1	2
629.091	1	9
629.261	1	19
629.431	1	2
629.600	1	11
629.770	1	6
629.940	1	2
630.109	1	2
630.279	1	10
630.448	1	0
630.618	1	6
630.788	1	-2
630.957	1	7
631.127	1	3
631.297	1	-2
631.466	1	19
631.636	1	13
631.805	1	5
631.975	1	-2
632.145	1	15
632.314	1	-2
632.484	1	8
632.653	1	-7
632.823	1	1
632.993	1	1
633.162	1	1
633.332	1	-2
633.501	1	-5
633.671	1	0
633.841	1	6
634.010	1	17
634.180	1	12
634.349	1	3
634.519	1	3
634.689	1	-1
634.858	1	0
635.028	1	-3
635.197	1	-1
635.367	1	8
635.537	1	-2
635.706	1	11
635.876	1	7
636.045	1	7
636.215	1	11
636.384	1	-1
636.554	1	-12
636.724	1	1
636.893	1	1
637.063	1	3
637.232	1	-1
637.402	1	-3
637.572	1	3
637.741	1	1
637.911	1	3
638.080	1	13
638.250	1	9
638.419	1	-7
638.589	1	4
638.759	1	-1
638.928	1	1
639.098	1	4
639.267	1	1
639.437	1	9
639.606	1	9
639.776	1	10
639.946	1	6
640.115	1	0
640.285	1	5
640.454	1	13
640.624	1	8
640.793	1	8
640.963	1	3
641.132	1	12
641.302	1	7
641.472	1	5
641.641	1	12
641.811	1	-6
641.980	1	-1
642.150	1	-7
642.319	1	2
642.489	1	2
642.659	1	8
642.828	1	1
642.998	1	16
643.167	1	1
643.337	1	1
643.506	1	3
643.676	1	-3
643.845	1	2
644.015	1	2
644.184	1	-4
644.354	1	2
644.524	1	1
644.693	1	2
644.863	1	10
645.032	1	9
645.202	1	5
645.371	1	3
645.541	1	1
645.710	1	-7
645.880	1	-5
646.049	1	0
646.219	1	-5
646.388	1	4
646.558	1	1
646.728	1	-3
646.897	1	2
647.067	1	9
647.236	1	17
647.406	1	12
647.575	1	19
647.745	1	10
647.914	1	-2
648.084	1	5
648.253	1	-7
648.423	1	-4
648.592	1	-7
648.762	1	13
648.931	1	14
649.101	1	7
649.270	1	-2
649.440	1	1
649.610	1	1
649.779	1	4
649.949	1	5
650.118	1	3
650.288	1	8
650.457	1	1
650.627	1	9
650.796	1	-1
650.966	1	-6
651.135	1	8
651.305	1	-1
651.474	1	11
651.644	1	10
651.813	1	7
651.983	1	-5
652.152	1	10
652.322	1	1
652.491	1	4
652.661	1	1
652.830	1	12
653.000	1	6
653.169	1	6
653.339	1	3
653.508	1	4
653.678	1	1
653.847	1	-3
654.017	1	14
654.186	1	4
654.356	1	3
654.525	1	7
654.695	1	-1
654.864	1	-4
655.034	1	1
655.203	1	7
655.373	1	8
655.542	1	-2
655.712	1	4
655.881	1	7
656.051	1	5
656.220	1	11
656.390	1	-3
656.559	1	-7
656.729	1	0
656.898	1	4
657.068	1	2
657.237	1	3
657.406	1	3
657.576	1	-5
657.745	1	4
657.915	1	0
658.084	1	10
658.254	1	7
658.423	1	6
658.593	1	2
658.762	1	9
658.932	1	-6
659.101	1	-8
659.271	1	-11
659.440	1	0
659.610	1	-1
659.779	1	10
659.949	1	-2
660.118	1	13
660.288	1	-1
660.457	1	3
660.626	1	5
660.796	1	0
660.965	1	5
661.135	1	-7
661.304	1	-3
661.474	1	4
661.643	1	-2
661.813	1	6
661.982	1	2
662.152	1	4
662.321	1	-6
662.491	1	-1
662.660	1	9
662.829	1	14
662.999	1	0
663.168	1	0
663.338	1	12
663.507	1	11
663.677	1	1
663.846	1	-1
664.016	1	-1
664.185	1	1
664.354	1	16
664.524	1	8
664.693	1	1
664.863	1	4
665.032	1	10
665.202	1	4
665.371	1	-8
665.541	1	9
665.710	1	3
665.879	1	5
666.049	1	1
666.218	1	-9
666.388	1	13
666.557	1	15
666.727	1	-2
666.896	1	5
667.065	1	1
667.235	1	16
667.404	1	5
667.574	1	8
667.743	1	-9
667.913	1	10
668.082	1	1
668.251	1	5
668.421	1	8
668.590	1	-1
668.760	1	8
668.929	1	6
669.099	1	-8
669.268	1	-6
669.437	1	7
669.607	1	12
669.776	1	-2
669.946	1	-1
670.115	1	-16
670.285	1	10
670.454	1	-2
670.623	1	3
670.793	1	3
670.962	1	-1
671.132	1	-6
671.301	1	11
671.470	1	-1
671.640	1	1
671.809	1	-3
671.979	1	11
672.148	1	5
672.317	1	1
672.487	1	-6
672.656	1	0
672.826	1	4
672.995	1	10
673.164	1	-9
673.334	1	-2
673.503	1	-8
673.673	1	6
673.842	1	9
674.011	1	14
674.181	1	9
674.350	1	5
674.520	1	-5
674.689	1	-6
674.858	1	-6
675.028	1	4
675.197	1	2
675.367	1	0
675.536	1	15
675.705	1	1
675.875	1	-1
676.044	1	-2
676.214	1	0
676.383	1	6
676.552	1	10
676.722	1	-1
676.891	1	5
677.060	1	4
677.230	1	6
677.399	1	-3
677.569	1	5
677.738	1	3
677.907	1	-9
678.077	1	9
678.246	1	13
678.416	1	9
678.585	1	-4
678.754	1	4
678.924	1	14
679.093	1	6
679.262	1	10
679.432	1	10
679.601	1	6
679.771	1	4
679.940	1	11
680.109	1	-3
680.279	1	4
680.448	1	13
680.617	1	-8
680.787	1	0
680.956	1	12
681.125	1	11
681.295	1	-2
681.464	1	-7
681.634	1	16
681.803	1	3
681.972	1	0
682.142	1	0
682.311	1	2
682.480	1	6
682.650	1	3
682.819	1	13
682.988	1	2
683.158	1	6
683.327	1	10
683.496	1	1
683.666	1	16
683.835	1	-5
684.004	1	4
684.174	1	5
684.343	1	4
684.512	1	4
684.682	1	1
684.851	1	2
685.021	1	-2
685.190	1	-3
685.359	1	-6
685.529	1	6
685.698	1	2
685.867	1	2
686.037	1	9
686.206	1	0
686.375	1	4
686.545	1	15
686.714	1	-7
686.883	1	5
687.053	1	0
687.222	1	5
687.391	1	4
687.561	1	15
687.730	1	6
687.899	1	-5
688.069	1	16
688.238	1	-3
688.407	1	23
688.577	1	-3
688.746	1	10
