340.368	1	1
340.539	1	13
340.710	1	-2
340.881	1	3
341.052	1	-2
341.223	1	8
341.394	1	1
341.565	1	7
341.737	1	-6
341.908	1	-9
342.079	1	0
342.250	1	-4
342.421	1	5
342.592	1	9
342.763	1	0
342.934	1	4
343.105	1	2
343.276	1	3
343.447	1	-14
343.618	1	-1
343.789	1	-9
343.960	1	1
344.131	1	11
344.302	1	-8
344.473	1	1
344.644	1	-4
344.815	1	4
344.986	1	6
345.157	1	3
345.328	1	-11
345.499	1	3
345.670	1	-1
345.841	1	4
346.012	1	4
346.183	1	21
346.354	1	-5
346.526	1	-5
346.697	1	9
346.868	1	1
347.039	1	1
347.210	1	-7
347.381	1	-4
347.552	1	8
347.723	1	2
347.894	1	9
348.065	1	13
348.236	1	12
348.407	1	1
348.578	1	-1
348.749	1	-5
348.920	1	0
349.091	1	1
349.262	1	-1
349.433	1	-2
349.604	1	0
349.775	1	7
349.946	1	4
350.117	1	5
350.288	1	5
350.459	1	-1
350.630	1	1
350.801	1	9
350.972	1	12
351.143	1	15
351.314	1	-3
351.485	1	-2
351.656	1	0
351.827	1	3
351.998	1	6
352.169	1	-4
352.340	1	2
352.511	1	2
352.682	1	-5
352.853	1	8
353.024	1	8
353.195	1	0
353.366	1	-1
353.537	1	11
353.708	1	7
353.879	1	-1
354.050	1	10
354.221	1	-4
354.392	1	14
354.563	1	9
354.734	1	3
354.905	1	3
355.076	1	9
355.247	1	10
355.418	1	0
355.589	1	10
355.760	1	8
355.931	1	9
356.102	1	4
356.273	1	-3
356.444	1	13
356.615	1	3
356.785	1	9
356.956	1	11
357.127	1	12
357.298	1	4
357.469	1	10
357.640	1	11
357.811	1	6
357.982	1	-2
358.153	1	9
358.324	1	16
358.495	1	8
358.666	1	-1
358.837	1	16
359.008	1	15
359.179	1	18
359.350	1	10
359.521	1	21
359.692	1	12
359.863	1	11
360.034	1	19
360.205	1	3
360.376	1	12
360.547	1	17
360.718	1	24
360.889	1	17
361.060	1	21
361.231	1	7
361.401	1	15
361.572	1	23
361.743	1	29
361.914	1	26
362.085	1	37
362.256	1	23
362.427	1	17
362.598	1	25
362.769	1	16
362.940	1	30
363.111	1	38
363.282	1	31
363.453	1	29
363.624	1	26
363.795	1	31
363.966	1	34
364.137	1	42
364.308	1	39
364.478	1	32
364.649	1	50
364.820	1	39
364.991	1	48
365.162	1	39
365.333	1	45
365.504	1	37
365.675	1	45
365.846	1	44
366.017	1	42
366.188	1	53
366.359	1	53
366.530	1	66
366.701	1	64
366.871	1	58
367.042	1	65
367.213	1	66
367.384	1	51
367.555	1	61
367.726	1	55
367.897	1	60
368.068	1	59
368.239	1	54
368.410	1	43
368.581	1	52
368.752	1	64
368.923	1	50
369.093	1	52
369.264	1	46
369.435	1	53
369.606	1	46
369.777	1	47
369.948	1	42
370.119	1	42
370.290	1	43
370.461	1	44
370.632	1	35
370.803	1	47
370.973	1	33
371.144	1	33
371.315	1	28
371.486	1	36
371.657	1	38
371.828	1	36
371.999	1	32
372.170	1	32
372.341	1	27
372.512	1	29
372.682	1	37
372.853	1	26
373.024	1	32
373.195	1	27
373.366	1	29
373.537	1	38
373.708	1	18
373.879	1	28
374.050	1	27
374.220	1	29
374.391	1	21
374.562	1	21
374.733	1	21
374.904	1	23
375.075	1	29
375.246	1	20
375.417	1	24
375.588	1	26
375.758	1	10
375.929	1	19
376.100	1	11
376.271	1	13
376.442	1	7
376.613	1	19
376.784	1	31
376.955	1	10
377.125	1	12
377.296	1	24
377.467	1	14
377.638	1	9
377.809	1	23
377.980	1	20
378.151	1	19
378.321	1	18
378.492	1	18
378.663	1	18
378.834	1	25
379.005	1	14
379.176	1	6
379.347	1	17
379.518	1	12
379.688	1	13
379.859	1	14
380.030	1	23
380.201	1	28
380.372	1	15
380.543	1	11
380.714	1	9
380.884	1	13
381.055	1	7
381.226	1	13
381.397	1	14
381.568	1	15
381.739	1	12
381.910	1	11
382.080	1	21
382.251	1	8
382.422	1	10
382.593	1	16
382.764	1	11
382.935	1	18
383.105	1	10
383.276	1	15
383.447	1	18
383.618	1	20
383.789	1	13
383.960	1	15
384.130	1	12
384.301	1	26
384.472	1	14
384.643	1	18
384.814	1	30
384.985	1	22
385.156	1	34
385.326	1	28
385.497	1	21
385.668	1	26
385.839	1	39
386.010	1	37
386.180	1	29
386.351	1	19
386.522	1	21
386.693	1	23
386.864	1	40
387.035	1	30
387.205	1	35
387.376	1	29
387.547	1	37
387.718	1	31
387.889	1	27
388.060	1	31
388.230	1	34
388.401	1	27
388.572	1	48
388.743	1	29
388.914	1	29
389.084	1	34
389.255	1	32
389.426	1	24
389.597	1	31
389.768	1	32
389.939	1	32
390.109	1	22
390.280	1	27
390.451	1	24
390.622	1	25
390.793	1	37
390.963	1	32
391.134	1	24
391.305	1	24
391.476	1	36
391.647	1	18
391.817	1	25
391.988	1	16
392.159	1	22
392.330	1	17
392.501	1	21
392.671	1	18
392.842	1	22
393.013	1	43
393.184	1	19
393.355	1	27
393.525	1	13
393.696	1	11
393.867	1	34
394.038	1	13
394.208	1	11
394.379	1	24
394.550	1	18
394.721	1	24
394.892	1	22
395.062	1	21
395.233	1	17
395.404	1	33
395.575	1	14
395.746	1	21
395.916	1	31
396.087	1	21
396.258	1	19
396.429	1	25
396.599	1	23
396.770	1	33
396.941	1	19
397.112	1	15
397.283	1	18
397.453	1	38
397.624	1	25
397.795	1	22
397.966	1	25
398.136	1	21
398.307	1	29
398.478	1	15
398.649	1	23
398.819	1	25
398.990	1	19
399.161	1	33
399.332	1	33
399.503	1	28
399.673	1	13
399.844	1	17
400.015	1	27
400.186	1	21
400.356	1	21
400.527	1	27
400.698	1	26
400.869	1	6
401.039	1	10
401.210	1	24
401.381	1	16
401.552	1	22
401.722	1	28
401.893	1	22
402.064	1	25
402.235	1	10
402.405	1	12
402.576	1	14
402.747	1	12
402.918	1	20
403.088	1	19
403.259	1	10
403.430	1	15
403.601	1	14
403.771	1	18
403.942	1	11
404.113	1	26
404.284	1	15
404.454	1	16
404.625	1	7
404.796	1	7
404.967	1	17
405.137	1	12
405.308	1	15
405.479	1	22
405.649	1	19
405.820	1	13
405.991	1	24
406.162	1	24
406.332	1	-5
406.503	1	14
406.674	1	7
406.845	1	18
407.015	1	17
407.186	1	9
407.357	1	18
407.527	1	8
407.698	1	20
407.869	1	14
408.040	1	20
408.210	1	8
408.381	1	6
408.552	1	2
408.722	1	1
408.893	1	6
409.064	1	17
409.235	1	13
409.405	1	20
409.576	1	14
409.747	1	19
409.917	1	8
410.088	1	6
410.259	1	1
410.430	1	16
410.600	1	2
410.771	1	11
410.942	1	8
411.112	1	8
411.283	1	12
411.454	1	11
411.625	1	11
411.795	1	13
411.966	1	24
412.137	1	19
412.307	1	15
412.478	1	16
412.649	1	16
412.819	1	12
412.990	1	7
413.161	1	-3
413.332	1	14
413.502	1	-4
413.673	1	24
413.844	1	31
414.014	1	5
414.185	1	1
414.356	1	4
414.526	1	10
414.697	1	11
414.868	1	2
415.038	1	8
415.209	1	4
415.380	1	23
415.550	1	7
415.721	1	3
415.892	1	17
416.063	1	12
416.233	1	15
416.404	1	5
416.575	1	11
416.745	1	0
416.916	1	3
417.087	1	9
417.257	1	8
417.428	1	7
417.599	1	10
417.769	1	7
417.940	1	5
418.111	1	9
418.281	1	7
418.452	1	11
418.623	1	-2
418.793	1	9
418.964	1	7
419.135	1	11
419.305	1	8
419.476	1	20
419.647	1	14
419.817	1	22
419.988	1	-5
420.159	1	11
420.329	1	-4
420.500	1	16
420.671	1	9
420.841	1	11
421.012	1	7
421.183	1	12
421.353	1	7
421.524	1	16
421.695	1	12
421.865	1	16
422.036	1	2
422.206	1	5
422.377	1	15
422.548	1	15
422.718	1	4
422.889	1	0
423.060	1	0
423.230	1	13
423.401	1	7
423.572	1	18
423.742	1	2
423.913	1	10
424.084	1	0
424.254	1	0
424.425	1	-1
424.595	1	2
424.766	1	2
424.937	1	7
425.107	1	5
425.278	1	4
425.449	1	5
425.619	1	4
425.790	1	3
425.961	1	9
426.131	1	4
426.302	1	13
426.472	1	12
426.643	1	1
426.814	1	5
426.984	1	-3
427.155	1	-10
427.326	1	-2
427.496	1	-11
427.667	1	12
427.837	1	0
428.008	1	13
428.179	1	10
428.349	1	-4
428.520	1	8
428.691	1	-5
428.861	1	3
429.032	1	4
429.202	1	18
429.373	1	-1
429.544	1	10
429.714	1	-2
429.885	1	6
430.055	1	6
430.226	1	-2
430.397	1	9
430.567	1	6
430.738	1	2
430.909	1	2
431.079	1	1
431.250	1	2
431.420	1	3
431.591	1	0
431.762	1	10
431.932	1	-2
432.103	1	1
432.273	1	8
432.444	1	-2
432.615	1	-2
432.785	1	5
432.956	1	5
433.126	1	2
433.297	1	2
433.468	1	-1
433.638	1	-2
433.809	1	10
433.979	1	2
434.150	1	9
434.320	1	7
434.491	1	4
434.662	1	9
434.832	1	5
435.003	1	9
435.173	1	-1
435.344	1	4
435.515	1	-2
435.685	1	15
435.856	1	-1
436.026	1	6
436.197	1	-1
436.368	1	-1
436.538	1	-9
436.709	1	-7
436.879	1	6
437.050	1	9
437.220	1	-3
437.391	1	12
437.562	1	2
437.732	1	4
437.903	1	1
438.073	1	0
438.244	1	-5
438.414	1	2
438.585	1	3
438.756	1	6
438.926	1	6
439.097	1	10
439.267	1	7
439.438	1	14
439.608	1	3
439.779	1	1
439.949	1	-4
440.120	1	-12
440.291	1	11
440.461	1	9
440.632	1	14
440.802	1	7
440.973	1	6
441.143	1	3
441.314	1	-3
441.485	1	5
441.655	1	6
441.826	1	-3
441.996	1	-3
442.167	1	6
442.337	1	3
442.508	1	-1
442.678	1	-5
442.849	1	1
443.019	1	7
443.190	1	10
443.361	1	4
443.531	1	1
443.702	1	-11
443.872	1	7
444.043	1	12
444.213	1	9
444.384	1	6
444.554	1	7
444.725	1	8
444.895	1	4
445.066	1	-2
445.237	1	3
445.407	1	1
445.578	1	2
445.748	1	0
445.919	1	2
446.089	1	1
446.260	1	3
446.430	1	-4
446.601	1	7
446.771	1	1
446.942	1	-8
447.112	1	11
447.283	1	-4
447.453	1	3
447.624	1	-5
447.794	1	3
447.965	1	15
448.135	1	-2
448.306	1	5
448.477	1	11
448.647	1	-3
448.818	1	-5
448.988	1	-2
449.159	1	-1
449.329	1	-1
449.500	1	2
449.670	1	6
449.841	1	0
450.011	1	5
450.182	1	-6
450.352	1	10
450.523	1	1
450.693	1	6
450.864	1	-1
451.034	1	21
451.205	1	1
451.375	1	7
451.546	1	1
451.716	1	12
451.887	1	-7
452.057	1	13
452.228	1	8
452.398	1	3
452.569	1	-2
452.739	1	7
452.910	1	5
453.080	1	-2
453.251	1	9
453.421	1	1
453.592	1	8
453.762	1	7
453.933	1	-5
454.103	1	2
454.274	1	5
454.444	1	4
454.615	1	22
454.785	1	5
454.956	1	2
455.126	1	0
455.297	1	5
455.467	1	-9
455.638	1	7
455.808	1	5
455.979	1	7
456.149	1	0
456.320	1	10
456.490	1	0
456.661	1	-4
456.831	1	8
457.001	1	15
457.172	1	10
457.342	1	2
457.513	1	9
457.683	1	1
457.854	1	1
458.024	1	-6
458.195	1	-2
458.365	1	21
458.536	1	3
458.706	1	13
458.877	1	3
459.047	1	12
459.218	1	3
459.388	1	6
459.559	1	1
459.729	1	4
459.899	1	1
460.070	1	8
460.240	1	3
460.411	1	1
460.581	1	4
460.752	1	-2
460.922	1	13
461.093	1	4
461.263	1	2
461.434	1	13
461.604	1	13
461.775	1	2
461.945	1	5
462.115	1	7
462.286	1	-3
462.456	1	11
462.627	1	13
462.797	1	-5
462.968	1	6
463.138	1	2
463.309	1	2
463.479	1	15
463.649	1	-2
463.820	1	7
463.990	1	15
464.161	1	3
464.331	1	12
464.502	1	-4
464.672	1	-8
464.843	1	-7
465.013	1	-7
465.183	1	6
465.354	1	11
465.524	1	1
465.695	1	4
465.865	1	3
466.036	1	-3
466.206	1	6
466.376	1	1
466.547	1	-2
466.717	1	-1
466.888	1	-7
467.058	1	6
467.229	1	16
467.399	1	1
467.569	1	7
467.740	1	8
467.910	1	0
468.081	1	-1
468.251	1	-2
468.422	1	-3
468.592	1	3
468.762	1	-4
468.933	1	9
469.103	1	4
469.274	1	7
469.444	1	7
469.614	1	5
469.785	1	9
469.955	1	5
470.126	1	3
470.296	1	-2
470.467	1	-7
470.637	1	4
470.807	1	13
470.978	1	1
471.148	1	1
471.319	1	7
471.489	1	-4
471.659	1	-3
471.830	1	8
472.000	1	0
472.171	1	4
472.341	1	-8
472.511	1	14
472.682	1	-7
472.852	1	3
473.023	1	-8
473.193	1	12
473.363	1	7
473.534	1	7
473.704	1	-11
473.875	1	-5
474.045	1	4
474.215	1	5
474.386	1	13
474.556	1	3
474.727	1	-1
474.897	1	-3
475.067	1	-1
475.238	1	-14
475.408	1	-1
475.578	1	2
475.749	1	-1
475.919	1	-1
476.090	1	4
476.260	1	-1
476.430	1	7
476.601	1	8
476.771	1	-6
476.942	1	10
477.112	1	-1
477.282	1	10
477.453	1	6
477.623	1	4
477.793	1	-4
477.964	1	10
478.134	1	-1
478.305	1	6
478.475	1	3
478.645	1	3
478.816	1	8
478.986	1	-3
479.156	1	0
479.327	1	1
479.497	1	3
479.667	1	13
479.838	1	-5
480.008	1	-10
480.179	1	-4
480.349	1	-5
480.519	1	9
480.690	1	-14
480.860	1	4
481.030	1	13
481.201	1	-2
481.371	1	9
481.541	1	5
481.712	1	3
481.882	1	-9
482.053	1	4
482.223	1	0
482.393	1	-2
482.564	1	5
482.734	1	0
482.904	1	3
483.075	1	-1
483.245	1	-1
483.415	1	0
483.586	1	-2
483.756	1	10
483.926	1	5
484.097	1	6
484.267	1	-4
484.437	1	-3
484.608	1	13
484.778	1	8
484.948	1	7
485.119	1	-3
485.289	1	6
485.459	1	9
485.630	1	7
485.800	1	10
485.970	1	4
486.141	1	3
486.311	1	2
486.481	1	7
486.652	1	4
486.822	1	-5
486.992	1	13
487.163	1	6
487.333	1	2
487.503	1	8
487.674	1	3
487.844	1	6
488.014	1	6
488.185	1	-1
488.355	1	9
488.525	1	8
488.696	1	-3
488.866	1	-1
489.036	1	14
489.207	1	-1
489.377	1	10
489.547	1	-2
489.718	1	4
489.888	1	8
490.058	1	3
490.228	1	-6
490.399	1	6
490.569	1	10
490.739	1	7
490.910	1	-3
491.080	1	-1
491.250	1	1
491.421	1	7
491.591	1	-3
491.761	1	-4
491.932	1	6
492.102	1	0
492.272	1	0
492.442	1	0
492.613	1	0
492.783	1	2
492.953	1	14
493.124	1	12
493.294	1	6
493.464	1	11
493.635	1	3
493.805	1	6
493.975	1	3
494.145	1	-4
494.316	1	-2
494.486	1	9
494.656	1	4
494.827	1	13
494.997	1	14
495.167	1	13
495.337	1	4
495.508	1	8
495.678	1	14
495.848	1	2
496.019	1	5
496.189	1	1
496.359	1	7
496.529	1	10
496.700	1	7
496.870	1	6
497.040	1	3
497.211	1	11
497.381	1	6
497.551	1	8
497.721	1	5
497.892	1	10
498.062	1	10
498.232	1	8
498.403	1	4
498.573	1	12
498.743	1	8
498.913	1	12
499.084	1	6
499.254	1	7
499.424	1	10
499.594	1	7
499.765	1	15
499.935	1	2
500.105	1	15
500.275	1	14
500.446	1	9
500.616	1	3
500.786	1	14
500.956	1	13
501.127	1	17
501.297	1	5
501.467	1	12
501.638	1	16
501.808	1	10
501.978	1	7
502.148	1	1
502.319	1	17
502.489	1	7
502.659	1	9
502.829	1	10
503.000	1	12
503.170	1	7
503.340	1	21
503.510	1	5
503.681	1	1
503.851	1	6
504.021	1	18
504.191	1	11
504.362	1	14
504.532	1	13
504.702	1	11
504.872	1	-8
505.042	1	15
505.213	1	24
505.383	1	10
505.553	1	17
505.723	1	16
505.894	1	2
506.064	1	19
506.234	1	10
506.404	1	8
506.575	1	3
506.745	1	27
506.915	1	18
507.085	1	9
507.256	1	17
507.426	1	14
507.596	1	12
507.766	1	22
507.936	1	12
508.107	1	15
508.277	1	-4
508.447	1	12
508.617	1	15
508.788	1	19
508.958	1	10
509.128	1	24
509.298	1	6
509.468	1	19
509.639	1	5
509.809	1	25
509.979	1	8
510.149	1	25
510.319	1	11
510.490	1	14
510.660	1	14
510.830	1	12
511.000	1	15
511.171	1	8
511.341	1	16
511.511	1	12
511.681	1	21
511.851	1	20
512.022	1	5
512.192	1	22
512.362	1	7
512.532	1	10
512.702	1	8
512.873	1	23
513.043	1	16
513.213	1	22
513.383	1	15
513.553	1	24
513.724	1	8
513.894	1	18
514.064	1	13
514.234	1	21
514.404	1	28
514.575	1	11
514.745	1	14
514.915	1	4
515.085	1	21
515.255	1	18
515.425	1	17
515.596	1	18
515.766	1	16
515.936	1	14
516.106	1	12
516.276	1	14
516.447	1	28
516.617	1	14
516.787	1	16
516.957	1	32
517.127	1	20
517.297	1	9
517.468	1	11
517.638	1	13
517.808	1	20
517.978	1	22
518.148	1	9
518.319	1	17
518.489	1	15
518.659	1	19
518.829	1	14
518.999	1	20
519.169	1	16
519.340	1	16
519.510	1	21
519.680	1	25
519.850	1	17
520.020	1	22
520.190	1	16
520.361	1	14
520.531	1	23
520.701	1	27
520.871	1	9
521.041	1	29
521.211	1	35
521.382	1	20
521.552	1	24
521.722	1	37
521.892	1	19
522.062	1	26
522.232	1	27
522.402	1	23
522.573	1	22
522.743	1	15
522.913	1	21
523.083	1	28
523.253	1	26
523.423	1	14
523.593	1	29
523.764	1	13
523.934	1	24
524.104	1	22
524.274	1	12
524.444	1	11
524.614	1	27
524.784	1	18
524.955	1	25
525.125	1	30
525.295	1	26
525.465	1	15
525.635	1	29
525.805	1	33
525.975	1	17
526.146	1	10
526.316	1	14
526.486	1	23
526.656	1	19
526.826	1	27
526.996	1	15
527.166	1	14
527.337	1	14
527.507	1	27
527.677	1	25
527.847	1	22
528.017	1	23
528.187	1	26
528.357	1	35
528.527	1	31
528.698	1	8
528.868	1	25
529.038	1	26
529.208	1	13
529.378	1	33
529.548	1	24
529.718	1	16
529.888	1	26
530.058	1	23
530.229	1	20
530.399	1	16
530.569	1	13
530.739	1	15
530.909	1	30
531.079	1	7
531.249	1	24
531.419	1	22
531.589	1	22
531.760	1	20
531.930	1	23
532.100	1	18
532.270	1	25
532.440	1	18
532.610	1	32
532.780	1	21
532.950	1	27
533.120	1	35
533.290	1	24
533.461	1	20
533.631	1	19
533.801	1	21
533.971	1	18
534.141	1	29
534.311	1	30
534.481	1	27
534.651	1	15
534.821	1	14
534.991	1	27
535.162	1	8
535.332	1	10
535.502	1	30
535.672	1	10
535.842	1	23
536.012	1	18
536.182	1	18
536.352	1	12
536.522	1	22
536.692	1	22
536.862	1	13
537.032	1	9
537.203	1	27
537.373	1	28
537.543	1	10
537.713	1	24
537.883	1	16
538.053	1	17
538.223	1	21
538.393	1	14
538.563	1	30
538.733	1	26
538.903	1	23
539.073	1	20
539.243	1	20
539.413	1	29
539.584	1	14
539.754	1	25
539.924	1	32
540.094	1	16
540.264	1	12
540.434	1	25
540.604	1	20
540.774	1	17
540.944	1	11
541.114	1	14
541.284	1	12
541.454	1	18
541.624	1	24
541.794	1	12
541.964	1	10
542.134	1	21
542.305	1	30
542.475	1	18
542.645	1	16
542.815	1	11
542.985	1	18
543.155	1	13
543.325	1	17
543.495	1	25
543.665	1	25
543.835	1	5
544.005	1	12
544.175	1	23
544.345	1	11
544.515	1	11
544.685	1	37
544.855	1	15
545.025	1	12
545.195	1	18
545.365	1	11
545.535	1	17
545.705	1	23
545.875	1	14
546.045	1	10
546.216	1	9
546.386	1	13
546.556	1	17
546.726	1	14
546.896	1	10
547.066	1	13
547.236	1	17
547.406	1	12
547.576	1	31
547.746	1	22
547.916	1	17
548.086	1	24
548.256	1	15
548.426	1	3
548.596	1	15
548.766	1	22
548.936	1	30
549.106	1	16
549.276	1	29
549.446	1	21
549.616	1	23
549.786	1	12
549.956	1	25
550.126	1	26
550.296	1	17
550.466	1	30
550.636	1	26
550.806	1	18
550.976	1	32
551.146	1	7
551.316	1	23
551.486	1	26
551.656	1	14
551.826	1	20
551.996	1	10
552.166	1	18
552.336	1	11
552.506	1	26
552.676	1	20
552.846	1	18
553.016	1	23
553.186	1	15
553.356	1	12
553.526	1	9
553.696	1	27
553.866	1	20
554.036	1	17
554.206	1	20
554.376	1	3
554.546	1	16
554.716	1	13
554.886	1	29
555.056	1	14
555.226	1	19
555.396	1	11
555.566	1	10
555.736	1	16
555.906	1	12
556.076	1	11
556.246	1	6
556.416	1	12
556.586	1	2
556.756	1	11
556.926	1	5
557.096	1	17
557.266	1	6
557.436	1	21
557.606	1	10
557.776	1	21
557.946	1	6
558.116	1	14
558.286	1	10
558.456	1	19
558.626	1	-4
558.796	1	17
558.966	1	19
559.136	1	9
559.306	1	16
559.476	1	16
559.646	1	8
559.816	1	9
559.986	1	5
560.155	1	18
560.325	1	1
560.495	1	9
560.665	1	0
560.835	1	9
561.005	1	15
561.175	1	8
561.345	1	7
561.515	1	12
561.685	1	10
561.855	1	13
562.025	1	11
562.195	1	15
562.365	1	12
562.535	1	20
562.705	1	10
562.875	1	21
563.045	1	5
563.215	1	10
563.385	1	0
563.555	1	9
563.725	1	16
563.895	1	15
564.064	1	2
564.234	1	18
564.404	1	15
564.574	1	15
564.744	1	8
564.914	1	4
565.084	1	6
565.254	1	13
565.424	1	9
565.594	1	3
565.764	1	9
565.934	1	18
566.104	1	11
566.274	1	21
566.444	1	8
566.614	1	16
566.783	1	12
566.953	1	16
567.123	1	12
567.293	1	5
567.463	1	13
567.633	1	13
567.803	1	26
567.973	1	17
568.143	1	9
568.313	1	6
568.483	1	16
568.653	1	8
568.823	1	12
568.993	1	7
569.162	1	9
569.332	1	16
569.502	1	23
569.672	1	7
569.842	1	2
570.012	1	12
570.182	1	5
570.352	1	0
570.522	1	5
570.692	1	22
570.862	1	9
571.031	1	7
571.201	1	12
571.371	1	14
571.541	1	17
571.711	1	5
571.881	1	11
572.051	1	6
572.221	1	8
572.391	1	23
572.561	1	14
572.731	1	19
572.900	1	-3
573.070	1	11
573.240	1	-7
573.410	1	15
573.580	1	0
573.750	1	15
573.920	1	12
574.090	1	13
574.260	1	8
574.430	1	4
574.599	1	11
574.769	1	12
574.939	1	-5
575.109	1	-4
575.279	1	9
575.449	1	23
575.619	1	18
575.789	1	8
575.959	1	14
576.128	1	4
576.298	1	4
576.468	1	6
576.638	1	-2
576.808	1	5
576.978	1	3
577.148	1	11
577.318	1	18
577.487	1	5
577.657	1	14
577.827	1	5
577.997	1	5
578.167	1	5
578.337	1	5
578.507	1	-1
578.677	1	13
578.846	1	17
579.016	1	10
579.186	1	9
579.356	1	3
579.526	1	4
579.696	1	12
579.866	1	2
580.036	1	13
580.205	1	-6
580.375	1	20
580.545	1	12
580.715	1	3
580.885	1	17
581.055	1	2
581.225	1	8
581.394	1	-4
581.564	1	5
581.734	1	1
581.904	1	-3
582.074	1	11
582.244	1	7
582.414	1	8
582.583	1	6
582.753	1	11
582.923	1	14
583.093	1	14
583.263	1	11
583.433	1	11
583.603	1	-4
583.772	1	3
583.942	1	12
584.112	1	4
584.282	1	-1
584.452	1	2
584.622	1	2
584.791	1	8
584.961	1	-3
585.131	1	5
585.301	1	4
585.471	1	9
585.641	1	14
585.811	1	6
585.980	1	3
586.150	1	6
586.320	1	3
586.490	1	6
586.660	1	6
586.830	1	-2
586.999	1	-2
587.169	1	14
587.339	1	4
587.509	1	11
587.679	1	5
587.849	1	14
588.018	1	-7
588.188	1	13
588.358	1	-2
588.528	1	6
588.698	1	2
588.867	1	1
589.037	1	1
589.207	1	10
589.377	1	3
589.547	1	10
589.717	1	-3
589.886	1	8
590.056	1	9
590.226	1	-4
590.396	1	6
590.566	1	-3
590.735	1	-6
590.905	1	12
591.075	1	3
591.245	1	10
591.415	1	1
591.585	1	9
591.754	1	9
591.924	1	5
592.094	1	-5
592.264	1	0
592.434	1	11
592.603	1	-1
592.773	1	0
592.943	1	10
593.113	1	4
593.283	1	7
593.452	1	-10
593.622	1	7
593.792	1	5
593.962	1	14
594.132	1	5
594.301	1	6
594.471	1	-3
594.641	1	2
594.811	1	7
594.981	1	6
595.150	1	0
595.320	1	-4
595.490	1	12
595.660	1	3
595.829	1	-9
595.999	1	3
596.169	1	9
596.339	1	12
596.509	1	13
596.678	1	0
596.848	1	9
597.018	1	2
597.188	1	-3
597.358	1	1
597.527	1	1
597.697	1	-2
597.867	1	1
598.037	1	8
598.206	1	13
598.376	1	6
598.546	1	9
598.716	1	-4
598.885	1	6
599.055	1	2
599.225	1	10
599.395	1	2
599.565	1	9
599.734	1	15
599.904	1	4
600.074	1	7
600.244	1	10
600.413	1	3
600.583	1	4
600.753	1	7
600.923	1	8
601.092	1	10
601.262	1	2
601.432	1	8
601.602	1	5
601.771	1	6
601.941	1	6
602.111	1	12
602.281	1	1
602.451	1	-5
602.620	1	8
602.790	1	-1
602.960	1	-4
603.130	1	0
603.299	1	0
603.469	1	5
603.639	1	-2
603.809	1	9
603.978	1	-3
604.148	1	7
604.318	1	7
604.487	1	4
604.657	1	0
604.827	1	6
604.997	1	17
605.166	1	7
605.336	1	-4
605.506	1	0
605.676	1	14
605.845	1	4
606.015	1	-1
606.185	1	8
606.355	1	-6
606.524	1	10
606.694	1	10
606.864	1	7
607.034	1	5
607.203	1	16
607.373	1	9
607.543	1	2
607.712	1	-1
607.882	1	4
608.052	1	-3
608.222	1	1
608.391	1	14
608.561	1	0
608.731	1	-1
608.901	1	9
609.070	1	-2
609.240	1	-3
609.410	1	-3
609.579	1	6
609.749	1	14
609.919	1	-10
610.089	1	1
610.258	1	14
610.428	1	13
610.598	1	1
610.767	1	19
610.937	1	11
611.107	1	-1
611.277	1	2
611.446	1	6
611.616	1	6
611.786	1	7
611.955	1	5
612.125	1	9
612.295	1	7
612.465	1	-5
612.634	1	8
612.804	1	-1
612.974	1	-3
613.143	1	-4
613.313	1	8
613.483	1	11
613.652	1	12
613.822	1	-7
613.992	1	-1
614.162	1	4
614.331	1	18
614.501	1	8
614.671	1	11
614.840	1	-3
615.010	1	1
615.180	1	9
615.349	1	21
615.519	1	4
615.689	1	-8
615.858	1	18
616.028	1	11
616.198	1	1
616.368	1	0
616.537	1	5
616.707	1	5
616.877	1	-2
617.046	1	7
617.216	1	-1
617.386	1	14
617.555	1	-1
617.725	1	3
617.895	1	1
618.064	1	-2
618.234	1	-1
618.404	1	-8
618.573	1	15
618.743	1	11
618.913	1	10
619.082	1	-4
619.252	1	4
619.422	1	-3
619.591	1	9
619.761	1	-9
619.931	1	4
620.100	1	11
620.270	1	8
620.440	1	9
620.609	1	13
620.779	1	5
620.949	1	0
621.118	1	9
621.288	1	5
621.458	1	9
621.627	1	-4
621.797	1	-7
621.967	1	2
622.136	1	6
622.306	1	7
622.476	1	5
622.645	1	-1
622.815	1	5
622.985	1	-3
623.154	1	-6
623.324	1	-2
623.494	1	0
623.663	1	5
623.833	1	2
624.002	1	-1
624.172	1	-1
624.342	1	9
624.511	1	1
624.681	1	-3
624.851	1	-5
625.020	1	-4
625.190	1	1
625.360	1	1
625.529	1	-6
625.699	1	-4
625.869	1	3
626.038	1	2
626.208	1	17
626.377	1	7
626.547	1	4
626.717	1	-13
626.886	1	1
627.056	1	3
627.226	1	6
627.395	1	-1
627.565	1	10
627.735	1	6
627.904	1	10
628.074	1	11
628.243	1	13
628.413	1	1
628.583	1	1
628.752	1	-7
628.922	1	5
629.091	1	3
629.261	1	14
629.431	1	1
629.600	1	9
629.770	1	6
629.940	1	-9
630.109	1	10
630.279	1	2
630.448	1	10
630.618	1	13
630.788	1	-2
630.957	1	14
631.127	1	-2
631.297	1	-3
631.466	1	6
631.636	1	15
631.805	1	9
631.975	1	-15
632.145	1	14
632.314	1	0
632.484	1	7
632.653	1	-3
632.823	1	3
632.993	1	7
633.162	1	-3
633.332	1	-5
633.501	1	5
633.671	1	6
633.841	1	2
634.010	1	9
634.180	1	7
634.349	1	8
634.519	1	12
634.689	1	-6
634.858	1	-6
635.028	1	2
635.197	1	-3
635.367	1	9
635.537	1	-5
635.706	1	4
635.876	1	2
636.045	1	-1
636.215	1	15
636.384	1	4
636.554	1	0
636.724	1	3
636.893	1	3
637.063	1	2
637.232	1	7
637.402	1	1
637.572	1	5
637.741	1	-4
637.911	1	-6
638.080	1	8
638.250	1	9
638.419	1	4
638.589	1	7
638.759	1	8
638.928	1	12
639.098	1	4
639.267	1	12
639.437	1	4
639.606	1	10
639.776	1	8
639.946	1	6
640.115	1	-2
640.285	1	11
640.454	1	12
640.624	1	4
640.793	1	2
640.963	1	0
641.132	1	8
641.302	1	8
641.472	1	9
641.641	1	-1
641.811	1	2
641.980	1	4
642.150	1	0
642.319	1	2
642.489	1	1
642.659	1	7
642.828	1	-1
642.998	1	14
643.167	1	-14
643.337	1	0
643.506	1	1
643.676	1	-3
643.845	1	6
644.015	1	4
644.184	1	-2
644.354	1	6
644.524	1	-1
644.693	1	4
644.863	1	10
645.032	1	1
645.202	1	1
645.371	1	-1
645.541	1	7
645.710	1	-5
645.880	1	-5
646.049	1	-6
646.219	1	-8
646.388	1	5
646.558	1	3
646.728	1	-5
646.897	1	4
647.067	1	6
647.236	1	9
647.406	1	9
647.575	1	6
647.745	1	10
647.914	1	4
648.084	1	5
648.253	1	-1
648.423	1	3
648.592	1	-9
648.762	1	14
648.931	1	-2
649.101	1	1
649.270	1	4
649.440	1	4
649.610	1	7
649.779	1	1
649.949	1	8
650.118	1	0
650.288	1	6
650.457	1	1
650.627	1	12
650.796	1	-3
650.966	1	-6
651.135	1	5
651.305	1	-3
651.474	1	10
651.644	1	11
651.813	1	12
651.983	1	8
652.152	1	5
652.322	1	5
652.491	1	7
652.661	1	-3
652.830	1	7
653.000	1	6
653.169	1	12
653.339	1	2
653.508	1	0
653.678	1	2
653.847	1	-3
654.017	1	3
654.186	1	-2
654.356	1	1
654.525	1	-6
654.695	1	-1
654.864	1	-7
655.034	1	0
655.203	1	2
655.373	1	16
655.542	1	4
655.712	1	1
655.881	1	9
656.051	1	2
656.220	1	4
656.390	1	0
656.559	1	-11
656.729	1	4
656.898	1	6
657.068	1	7
657.237	1	3
657.406	1	2
657.576	1	-8
657.745	1	0
657.915	1	12
658.084	1	3
658.254	1	-3
658.423	1	6
658.593	1	2
658.762	1	4
658.932	1	-4
659.101	1	-4
659.271	1	10
659.440	1	7
659.610	1	-6
659.779	1	10
659.949	1	-5
660.118	1	5
660.288	1	-12
660.457	1	9
660.626	1	8
660.796	1	6
660.965	1	9
661.135	1	7
661.304	1	-2
661.474	1	-1
661.643	1	1
661.813	1	2
661.982	1	3
662.152	1	5
662.321	1	-4
662.491	1	-8
662.660	1	6
662.829	1	7
662.999	1	1
663.168	1	7
663.338	1	4
663.507	1	-6
663.677	1	6
663.846	1	0
664.016	1	-7
664.185	1	-2
664.354	1	5
664.524	1	-1
664.693	1	0
664.863	1	2
665.032	1	1
665.202	1	3
665.371	1	-11
665.541	1	16
665.710	1	-3
665.879	1	2
666.049	1	-7
666.218	1	2
666.388	1	7
666.557	1	11
666.727	1	-2
666.896	1	6
667.065	1	2
667.235	1	6
667.404	1	5
667.574	1	-2
667.743	1	5
667.913	1	10
668.082	1	2
668.251	1	17
668.421	1	6
668.590	1	-2
668.760	1	1
668.929	1	5
669.099	1	-8
669.268	1	2
669.437	1	0
669.607	1	16
669.776	1	13
669.946	1	4
670.115	1	-12
670.285	1	4
670.454	1	4
670.623	1	-7
670.793	1	-1
670.962	1	-3
671.132	1	3
671.301	1	-2
671.470	1	6
671.640	1	-2
671.809	1	1
671.979	1	14
672.148	1	8
672.317	1	-11
672.487	1	-3
672.656	1	-9
672.826	1	2
672.995	1	10
673.164	1	-3
673.334	1	4
673.503	1	-5
673.673	1	0
673.842	1	10
674.011	1	14
674.181	1	8
674.350	1	-6
674.520	1	-6
674.689	1	-9
674.858	1	-2
675.028	1	10
675.197	1	3
675.367	1	0
675.536	1	2
675.705	1	1
675.875	1	-4
676.044	1	-4
676.214	1	2
676.383	1	15
676.552	1	-1
676.722	1	-2
676.891	1	7
677.060	1	3
677.230	1	10
677.399	1	-11
677.569	1	5
677.738	1	13
677.907	1	-3
678.077	1	-1
678.246	1	11
678.416	1	14
678.585	1	0
678.754	1	7
678.924	1	7
679.093	1	1
679.262	1	-1
679.432	1	2
679.601	1	-1
679.771	1	0
679.940	1	3
680.109	1	-3
680.279	1	0
680.448	1	9
680.617	1	1
680.787	1	-3
680.956	1	-7
681.125	1	-1
681.295	1	-2
681.464	1	-12
681.634	1	14
681.803	1	4
681.972	1	3
682.142	1	6
682.311	1	6
682.480	1	4
682.650	1	3
682.819	1	-1
682.988	1	-3
683.158	1	5
683.327	1	11
683.496	1	6
683.666	1	11
683.835	1	-9
684.004	1	2
684.174	1	7
684.343	1	8
684.512	1	4
684.682	1	2
684.851	1	5
685.021	1	-2
685.190	1	-2
685.359	1	3
685.529	1	6
685.698	1	5
685.867	1	5
686.037	1	2
686.206	1	-6
686.375	1	6
686.545	1	10
686.714	1	-4
686.883	1	9
687.053	1	-2
687.222	1	-7
687.391	1	5
687.561	1	6
687.730	1	0
687.899	1	-9
688.069	1	7
688.238	1	9
688.407	1	5
688.577	1	1
688.746	1	14
