340.368	1	6
340.539	1	9
340.710	1	3
340.881	1	3
341.052	1	2
341.223	1	5
341.394	1	-9
341.565	1	8
341.737	1	12
341.908	1	-6
342.079	1	-6
342.250	1	9
342.421	1	5
342.592	1	3
342.763	1	3
342.934	1	-2
343.105	1	10
343.276	1	3
343.447	1	-12
343.618	1	-3
343.789	1	-5
343.960	1	-6
344.131	1	-1
344.302	1	-18
344.473	1	3
344.644	1	-1
344.815	1	1
344.986	1	8
345.157	1	8
345.328	1	-5
345.499	1	5
345.670	1	-4
345.841	1	3
346.012	1	7
346.183	1	16
346.354	1	0
346.526	1	-9
346.697	1	11
346.868	1	1
347.039	1	-1
347.210	1	-12
347.381	1	-2
347.552	1	9
347.723	1	4
347.894	1	-3
348.065	1	5
348.236	1	10
348.407	1	-5
348.578	1	2
348.749	1	0
348.920	1	-1
349.091	1	2
349.262	1	-1
349.433	1	3
349.604	1	8
349.775	1	5
349.946	1	3
350.117	1	5
350.288	1	-6
350.459	1	-1
350.630	1	10
350.801	1	9
350.972	1	14
351.143	1	10
351.314	1	6
351.485	1	9
351.656	1	0
351.827	1	9
351.998	1	4
352.169	1	7
352.340	1	5
352.511	1	4
352.682	1	10
352.853	1	3
353.024	1	1
353.195	1	2
353.366	1	9
353.537	1	1
353.708	1	6
353.879	1	-12
354.050	1	0
354.221	1	4
354.392	1	13
354.563	1	12
354.734	1	13
354.905	1	15
355.076	1	7
355.247	1	4
355.418	1	-1
355.589	1	2
355.760	1	12
355.931	1	6
356.102	1	5
356.273	1	2
356.444	1	10
356.615	1	3
356.785	1	4
356.956	1	10
357.127	1	7
357.298	1	4
357.469	1	10
357.640	1	7
357.811	1	10
357.982	1	9
358.153	1	12
358.324	1	15
358.495	1	3
358.666	1	4
358.837	1	23
359.008	1	9
359.179	1	6
359.350	1	9
359.521	1	12
359.692	1	14
359.863	1	8
360.034	1	14
360.205	1	8
360.376	1	3
360.547	1	6
360.718	1	16
360.889	1	16
361.060	1	14
361.231	1	5
361.401	1	12
361.572	1	10
361.743	1	23
361.914	1	21
362.085	1	27
362.256	1	19
362.427	1	15
362.598	1	13
362.769	1	19
362.940	1	33
363.111	1	25
363.282	1	21
363.453	1	28
363.624	1	24
363.795	1	31
363.966	1	36
364.137	1	36
364.308	1	35
364.478	1	40
364.649	1	42
364.820	1	41
364.991	1	42
365.162	1	37
365.333	1	38
365.504	1	40
365.675	1	51
365.846	1	39
366.017	1	54
366.188	1	48
366.359	1	52
366.530	1	61
366.701	1	62
366.871	1	54
367.042	1	57
367.213	1	59
367.384	1	37
367.555	1	62
367.726	1	56
367.897	1	52
368.068	1	53
368.239	1	50
368.410	1	39
368.581	1	50
368.752	1	59
368.923	1	51
369.093	1	48
369.264	1	40
369.435	1	47
369.606	1	43
369.777	1	51
369.948	1	41
370.119	1	37
370.290	1	44
370.461	1	44
370.632	1	35
370.803	1	52
370.973	1	39
371.144	1	37
371.315	1	32
371.486	1	36
371.657	1	29
371.828	1	36
371.999	1	24
372.170	1	23
372.341	1	33
372.512	1	27
372.682	1	28
372.853	1	32
373.024	1	36
373.195	1	26
373.366	1	27
373.537	1	32
373.708	1	27
373.879	1	30
374.050	1	27
374.220	1	22
374.391	1	29
374.562	1	30
374.733	1	7
374.904	1	29
375.075	1	18
375.246	1	9
375.417	1	29
375.588	1	18
375.758	1	8
375.929	1	24
376.100	1	13
376.271	1	17
376.442	1	18
376.613	1	12
376.784	1	24
376.955	1	20
377.125	1	22
377.296	1	15
377.467	1	16
377.638	1	12
377.809	1	10
377.980	1	22
378.151	1	5
378.321	1	17
378.492	1	14
378.663	1	9
378.834	1	24
379.005	1	18
379.176	1	6
379.347	1	23
379.518	1	8
379.688	1	12
379.859	1	9
380.030	1	26
380.201	1	29
380.372	1	29
380.543	1	23
380.714	1	14
380.884	1	16
381.055	1	9
381.226	1	22
381.397	1	9
381.568	1	14
381.739	1	12
381.910	1	15
382.080	1	21
382.251	1	14
382.422	1	13
382.593	1	15
382.764	1	14
382.935	1	24
383.105	1	13
383.276	1	17
383.447	1	27
383.618	1	30
383.789	1	15
383.960	1	13
384.130	1	15
384.301	1	20
384.472	1	15
384.643	1	16
384.814	1	19
384.985	1	23
385.156	1	31
385.326	1	20
385.497	1	17
385.668	1	28
385.839	1	31
386.010	1	30
386.180	1	35
386.351	1	21
386.522	1	30
386.693	1	23
386.864	1	30
387.035	1	32
387.205	1	29
387.376	1	26
387.547	1	34
387.718	1	28
387.889	1	18
388.060	1	33
388.230	1	31
388.401	1	19
388.572	1	24
388.743	1	16
388.914	1	17
389.084	1	27
389.255	1	11
389.426	1	25
389.597	1	19
389.768	1	24
389.939	1	34
390.109	1	25
390.280	1	14
390.451	1	20
390.622	1	31
390.793	1	26
390.963	1	9
391.134	1	17
391.305	1	12
391.476	1	28
391.647	1	25
391.817	1	12
391.988	1	10
392.159	1	32
392.330	1	16
392.501	1	19
392.671	1	21
392.842	1	11
393.013	1	19
393.184	1	21
393.355	1	21
393.525	1	27
393.696	1	6
393.867	1	19
394.038	1	25
394.208	1	23
394.379	1	6
394.550	1	22
394.721	1	16
394.892	1	18
395.062	1	24
395.233	1	15
395.404	1	15
395.575	1	13
395.746	1	19
395.916	1	15
396.087	1	18
396.258	1	29
396.429	1	17
396.599	1	24
396.770	1	32
396.941	1	8
397.112	1	9
397.283	1	26
397.453	1	27
397.624	1	19
397.795	1	22
397.966	1	30
398.136	1	19
398.307	1	27
398.478	1	19
398.649	1	25
398.819	1	18
398.990	1	17
399.161	1	27
399.332	1	31
399.503	1	24
399.673	1	11
399.844	1	24
400.015	1	17
400.186	1	18
400.356	1	34
400.527	1	27
400.698	1	10
400.869	1	14
401.039	1	4
401.210	1	9
401.381	1	19
401.552	1	11
401.722	1	13
401.893	1	28
402.064	1	11
402.235	1	13
402.405	1	21
402.576	1	0
402.747	1	15
402.918	1	6
403.088	1	7
403.259	1	13
403.430	1	6
403.601	1	15
403.771	1	27
403.942	1	22
404.113	1	27
404.284	1	9
404.454	1	14
404.625	1	6
404.796	1	5
404.967	1	14
405.137	1	11
405.308	1	8
405.479	1	15
405.649	1	22
405.820	1	21
405.991	1	10
406.162	1	25
406.332	1	6
406.503	1	6
406.674	1	8
406.845	1	18
407.015	1	13
407.186	1	16
407.357	1	19
407.527	1	16
407.698	1	26
407.869	1	11
408.040	1	7
408.210	1	14
408.381	1	6
408.552	1	2
408.722	1	8
408.893	1	9
409.064	1	16
409.235	1	14
409.405	1	21
409.576	1	19
409.747	1	11
409.917	1	9
410.088	1	7
410.259	1	2
410.430	1	2
410.600	1	5
410.771	1	17
410.942	1	4
411.112	1	16
411.283	1	3
411.454	1	2
411.625	1	0
411.795	1	13
411.966	1	23
412.137	1	9
412.307	1	13
412.478	1	10
412.649	1	8
412.819	1	12
412.990	1	3
413.161	1	-1
413.332	1	8
413.502	1	4
413.673	1	29
413.844	1	24
414.014	1	2
414.185	1	14
414.356	1	13
414.526	1	12
414.697	1	10
414.868	1	1
415.038	1	19
415.209	1	-3
415.380	1	19
415.550	1	3
415.721	1	9
415.892	1	9
416.063	1	11
416.233	1	9
416.404	1	4
416.575	1	6
416.745	1	4
416.916	1	11
417.087	1	16
417.257	1	14
417.428	1	-5
417.599	1	12
417.769	1	-1
417.940	1	12
418.111	1	8
418.281	1	-3
418.452	1	6
418.623	1	3
418.793	1	10
418.964	1	3
419.135	1	17
419.305	1	2
419.476	1	8
419.647	1	10
419.817	1	17
419.988	1	-5
420.159	1	11
420.329	1	-2
420.500	1	20
420.671	1	0
420.841	1	9
421.012	1	3
421.183	1	8
421.353	1	6
421.524	1	7
421.695	1	4
421.865	1	2
422.036	1	7
422.206	1	18
422.377	1	0
422.548	1	11
422.718	1	2
422.889	1	0
423.060	1	-4
423.230	1	13
423.401	1	6
423.572	1	22
423.742	1	7
423.913	1	6
424.084	1	10
424.254	1	6
424.425	1	-4
424.595	1	-3
424.766	1	3
424.937	1	9
425.107	1	4
425.278	1	5
425.449	1	1
425.619	1	11
425.790	1	10
425.961	1	6
426.131	1	8
426.302	1	8
426.472	1	5
426.643	1	3
426.814	1	-2
426.984	1	16
427.155	1	5
427.326	1	5
427.496	1	5
427.667	1	14
427.837	1	1
428.008	1	3
428.179	1	-4
428.349	1	-5
428.520	1	13
428.691	1	-3
428.861	1	8
429.032	1	10
429.202	1	8
429.373	1	15
429.544	1	4
429.714	1	1
429.885	1	0
430.055	1	9
430.226	1	-2
430.397	1	3
430.567	1	2
430.738	1	3
430.909	1	-4
431.079	1	9
431.250	1	-2
431.420	1	-7
431.591	1	0
431.762	1	2
431.932	1	-4
432.103	1	0
432.273	1	9
432.444	1	-6
432.615	1	-2
432.785	1	-5
432.956	1	5
433.126	1	8
433.297	1	7
433.468	1	-2
433.638	1	0
433.809	1	2
433.979	1	3
434.150	1	9
434.320	1	11
434.491	1	7
434.662	1	8
434.832	1	13
435.003	1	8
435.173	1	-2
435.344	1	2
435.515	1	5
435.685	1	6
435.856	1	-3
436.026	1	8
436.197	1	-3
436.368	1	12
436.538	1	-5
436.709	1	3
436.879	1	1
437.050	1	12
437.220	1	-7
437.391	1	7
437.562	1	6
437.732	1	13
437.903	1	2
438.073	1	0
438.244	1	2
438.414	1	8
438.585	1	3
438.756	1	8
438.926	1	3
439.097	1	6
439.267	1	1
439.438	1	3
439.608	1	7
439.779	1	-8
439.949	1	-10
440.120	1	-2
440.291	1	5
440.461	1	16
440.632	1	10
440.802	1	3
440.973	1	1
441.143	1	0
441.314	1	-5
441.485	1	-3
441.655	1	10
441.826	1	-5
441.996	1	-1
442.167	1	7
442.337	1	5
442.508	1	7
442.678	1	1
442.849	1	-2
443.019	1	11
443.190	1	11
443.361	1	16
443.531	1	0
443.702	1	-15
443.872	1	0
444.043	1	5
444.213	1	5
444.384	1	9
444.554	1	-2
444.725	1	8
444.895	1	1
445.066	1	8
445.237	1	1
445.407	1	1
445.578	1	6
445.748	1	-1
445.919	1	-1
446.089	1	-4
446.260	1	-6
446.430	1	-3
446.601	1	2
446.771	1	3
446.942	1	6
447.112	1	13
447.283	1	-5
447.453	1	4
447.624	1	0
447.794	1	3
447.965	1	5
448.135	1	4
448.306	1	-5
448.477	1	3
448.647	1	10
448.818	1	3
448.988	1	2
449.159	1	7
449.329	1	10
449.500	1	3
449.670	1	5
449.841	1	1
450.011	1	4
450.182	1	-3
450.352	1	12
450.523	1	3
450.693	1	9
450.864	1	7
451.034	1	15
451.205	1	9
451.375	1	11
451.546	1	-3
451.716	1	3
451.887	1	8
452.057	1	5
452.228	1	2
452.398	1	4
452.569	1	-7
452.739	1	9
452.910	1	-3
453.080	1	10
453.251	1	3
453.421	1	0
453.592	1	8
453.762	1	14
453.933	1	1
454.103	1	1
454.274	1	2
454.444	1	-1
454.615	1	5
454.785	1	-9
454.956	1	11
455.126	1	9
455.297	1	1
455.467	1	-9
455.638	1	13
455.808	1	-6
455.979	1	8
456.149	1	4
456.320	1	15
456.490	1	2
456.661	1	-5
456.831	1	-2
457.001	1	2
457.172	1	1
457.342	1	-1
457.513	1	11
457.683	1	-1
457.854	1	3
458.024	1	-5
458.195	1	-5
458.365	1	10
458.536	1	-7
458.706	1	6
458.877	1	5
459.047	1	11
459.218	1	6
459.388	1	14
459.559	1	3
459.729	1	-1
459.899	1	-1
460.070	1	0
460.240	1	0
460.411	1	2
460.581	1	-1
460.752	1	9
460.922	1	16
461.093	1	-5
461.263	1	0
461.434	1	10
461.604	1	10
461.775	1	8
461.945	1	1
462.115	1	5
462.286	1	1
462.456	1	3
462.627	1	9
462.797	1	-5
462.968	1	5
463.138	1	-1
463.309	1	4
463.479	1	-8
463.649	1	1
463.820	1	2
463.990	1	9
464.161	1	2
464.331	1	7
464.502	1	1
464.672	1	-6
464.843	1	-2
465.013	1	8
465.183	1	2
465.354	1	0
465.524	1	0
465.695	1	12
465.865	1	17
466.036	1	5
466.206	1	5
466.376	1	-4
466.547	1	3
466.717	1	-2
466.888	1	-3
467.058	1	7
467.229	1	6
467.399	1	-1
467.569	1	4
467.740	1	18
467.910	1	3
468.081	1	-1
468.251	1	9
468.422	1	1
468.592	1	-2
468.762	1	-8
468.933	1	4
469.103	1	-1
469.274	1	6
469.444	1	15
469.614	1	3
469.785	1	16
469.955	1	6
470.126	1	7
470.296	1	11
470.467	1	-14
470.637	1	2
470.807	1	12
470.978	1	6
471.148	1	-2
471.319	1	13
471.489	1	-3
471.659	1	9
471.830	1	6
472.000	1	-7
472.171	1	-8
472.341	1	0
472.511	1	16
472.682	1	-4
472.852	1	2
473.023	1	-1
473.193	1	5
473.363	1	6
473.534	1	-5
473.704	1	9
473.875	1	-2
474.045	1	0
474.215	1	11
474.386	1	15
474.556	1	9
474.727	1	-3
474.897	1	-2
475.067	1	2
475.238	1	-12
475.408	1	1
475.578	1	11
475.749	1	-1
475.919	1	2
476.090	1	5
476.260	1	5
476.430	1	10
476.601	1	9
476.771	1	-2
476.942	1	-1
477.112	1	11
477.282	1	2
477.453	1	2
477.623	1	12
477.793	1	9
477.964	1	4
478.134	1	2
478.305	1	7
478.475	1	2
478.645	1	5
478.816	1	0
478.986	1	-5
479.156	1	2
479.327	1	1
479.497	1	8
479.667	1	14
479.838	1	-5
480.008	1	-2
480.179	1	-6
480.349	1	9
480.519	1	-7
480.690	1	-7
480.860	1	6
481.030	1	7
481.201	1	-2
481.371	1	6
481.541	1	4
481.712	1	0
481.882	1	-6
482.053	1	-1
482.223	1	-3
482.393	1	5
482.564	1	-1
482.734	1	10
482.904	1	3
483.075	1	-4
483.245	1	8
483.415	1	-2
483.586	1	3
483.756	1	5
483.926	1	4
484.097	1	8
484.267	1	-7
484.437	1	1
484.608	1	4
484.778	1	-3
484.948	1	6
485.119	1	7
485.289	1	4
485.459	1	-3
485.630	1	12
485.800	1	5
485.970	1	5
486.141	1	10
486.311	1	1
486.481	1	7
486.652	1	3
486.822	1	3
486.992	1	13
487.163	1	3
487.333	1	1
487.503	1	6
487.674	1	1
487.844	1	3
488.014	1	9
488.185	1	-1
488.355	1	4
488.525	1	10
488.696	1	7
488.866	1	0
489.036	1	13
489.207	1	5
489.377	1	-1
489.547	1	11
489.718	1	5
489.888	1	8
490.058	1	9
490.228	1	-4
490.399	1	-2
490.569	1	3
490.739	1	8
490.910	1	-12
491.080	1	-1
491.250	1	11
491.421	1	18
491.591	1	-1
491.761	1	1
491.932	1	0
492.102	1	0
492.272	1	0
492.442	1	7
492.613	1	8
492.783	1	8
492.953	1	6
493.124	1	14
493.294	1	10
493.464	1	15
493.635	1	2
493.805	1	14
493.975	1	9
494.145	1	6
494.316	1	11
494.486	1	9
494.656	1	5
494.827	1	17
494.997	1	7
495.167	1	0
495.337	1	6
495.508	1	14
495.678	1	6
495.848	1	5
496.019	1	6
496.189	1	0
496.359	1	3
496.529	1	3
496.700	1	11
496.870	1	9
497.040	1	5
497.211	1	3
497.381	1	10
497.551	1	11
497.721	1	-5
497.892	1	5
498.062	1	9
498.232	1	9
498.403	1	-1
498.573	1	7
498.743	1	18
498.913	1	13
499.084	1	5
499.254	1	7
499.424	1	6
499.594	1	6
499.765	1	11
499.935	1	2
500.105	1	9
500.275	1	11
500.446	1	-2
500.616	1	4
500.786	1	18
500.956	1	7
501.127	1	10
501.297	1	-1
501.467	1	16
501.638	1	9
501.808	1	10
501.978	1	5
502.148	1	1
502.319	1	12
502.489	1	7
502.659	1	23
502.829	1	11
503.000	1	8
503.170	1	10
503.340	1	10
503.510	1	5
503.681	1	3
503.851	1	9
504.021	1	22
504.191	1	10
504.362	1	14
504.532	1	13
504.702	1	15
504.872	1	-3
505.042	1	5
505.213	1	11
505.383	1	11
505.553	1	12
505.723	1	15
505.894	1	9
506.064	1	10
506.234	1	18
506.404	1	10
506.575	1	9
506.745	1	29
506.915	1	15
507.085	1	1
507.256	1	11
507.426	1	9
507.596	1	15
507.766	1	15
507.936	1	11
508.107	1	33
508.277	1	-2
508.447	1	11
508.617	1	16
508.788	1	23
508.958	1	15
509.128	1	15
509.298	1	10
509.468	1	20
509.639	1	9
509.809	1	24
509.979	1	22
510.149	1	17
510.319	1	7
510.490	1	11
510.660	1	12
510.830	1	16
511.000	1	14
511.171	1	16
511.341	1	17
511.511	1	17
511.681	1	17
511.851	1	21
512.022	1	10
512.192	1	13
512.362	1	13
512.532	1	4
512.702	1	17
512.873	1	28
513.043	1	20
513.213	1	22
513.383	1	6
513.553	1	24
513.724	1	10
513.894	1	14
514.064	1	22
514.234	1	16
514.404	1	19
514.575	1	6
514.745	1	18
514.915	1	-6
515.085	1	14
515.255	1	23
515.425	1	15
515.596	1	10
515.766	1	18
515.936	1	6
516.106	1	11
516.276	1	13
516.447	1	16
516.617	1	20
516.787	1	11
516.957	1	17
517.127	1	15
517.297	1	16
517.468	1	12
517.638	1	12
517.808	1	16
517.978	1	23
518.148	1	13
518.319	1	13
518.489	1	7
518.659	1	19
518.829	1	9
518.999	1	25
519.169	1	14
519.340	1	17
519.510	1	23
519.680	1	17
519.850	1	12
520.020	1	18
520.190	1	10
520.361	1	19
520.531	1	15
520.701	1	26
520.871	1	19
521.041	1	25
521.211	1	17
521.382	1	32
521.552	1	7
521.722	1	20
521.892	1	22
522.062	1	1
522.232	1	25
522.402	1	19
522.573	1	23
522.743	1	16
522.913	1	21
523.083	1	21
523.253	1	21
523.423	1	11
523.593	1	14
523.764	1	20
523.934	1	23
524.104	1	21
524.274	1	16
524.444	1	18
524.614	1	30
524.784	1	17
524.955	1	25
525.125	1	28
525.295	1	11
525.465	1	19
525.635	1	24
525.805	1	19
525.975	1	13
526.146	1	20
526.316	1	5
526.486	1	26
526.656	1	22
526.826	1	23
526.996	1	26
527.166	1	23
527.337	1	10
527.507	1	27
527.677	1	30
527.847	1	16
528.017	1	25
528.187	1	38
528.357	1	23
528.527	1	32
528.698	1	19
528.868	1	16
529.038	1	29
529.208	1	15
529.378	1	25
529.548	1	29
529.718	1	21
529.888	1	10
530.058	1	29
530.229	1	27
530.399	1	22
530.569	1	18
530.739	1	13
530.909	1	16
531.079	1	18
531.249	1	10
531.419	1	23
531.589	1	30
531.760	1	15
531.930	1	28
532.100	1	22
532.270	1	21
532.440	1	19
532.610	1	36
532.780	1	12
532.950	1	15
533.120	1	46
533.290	1	18
533.461	1	19
533.631	1	31
533.801	1	19
533.971	1	15
534.141	1	29
534.311	1	20
534.481	1	13
534.651	1	18
534.821	1	13
534.991	1	20
535.162	1	14
535.332	1	18
535.502	1	15
535.672	1	18
535.842	1	21
536.012	1	15
536.182	1	28
536.352	1	15
536.522	1	5
536.692	1	20
536.862	1	20
537.032	1	13
537.203	1	19
537.373	1	31
537.543	1	4
537.713	1	13
537.883	1	21
538.053	1	19
538.223	1	16
538.393	1	13
538.563	1	19
538.733	1	30
538.903	1	18
539.073	1	19
539.243	1	28
539.413	1	17
539.584	1	12
539.754	1	16
539.924	1	30
540.094	1	15
540.264	1	9
540.434	1	24
540.604	1	18
540.774	1	16
540.944	1	14
541.114	1	8
541.284	1	11
541.454	1	23
541.624	1	20
541.794	1	5
541.964	1	5
542.134	1	21
542.305	1	20
542.475	1	17
542.645	1	15
542.815	1	14
542.985	1	10
543.155	1	6
543.325	1	27
543.495	1	25
543.665	1	17
543.835	1	16
544.005	1	15
544.175	1	9
544.345	1	24
544.515	1	16
544.685	1	21
544.855	1	23
545.025	1	22
545.195	1	24
545.365	1	23
545.535	1	17
545.705	1	35
545.875	1	15
546.045	1	14
546.216	1	10
546.386	1	12
546.556	1	7
546.726	1	10
546.896	1	22
547.066	1	20
547.236	1	14
547.406	1	10
547.576	1	27
547.746	1	27
547.916	1	7
548.086	1	18
548.256	1	7
548.426	1	11
548.596	1	17
548.766	1	27
548.936	1	29
549.106	1	16
549.276	1	34
549.446	1	9
549.616	1	16
549.786	1	9
549.956	1	9
550.126	1	12
550.296	1	18
550.466	1	24
550.636	1	27
550.806	1	23
550.976	1	14
551.146	1	10
551.316	1	10
551.486	1	13
551.656	1	18
551.826	1	23
551.996	1	5
552.166	1	20
552.336	1	13
552.506	1	14
552.676	1	12
552.846	1	15
553.016	1	21
553.186	1	19
553.356	1	6
553.526	1	15
553.696	1	28
553.866	1	25
554.036	1	7
554.206	1	14
554.376	1	0
554.546	1	16
554.716	1	15
554.886	1	28
555.056	1	19
555.226	1	16
555.396	1	16
555.566	1	16
555.736	1	21
555.906	1	7
556.076	1	15
556.246	1	9
556.416	1	-1
556.586	1	3
556.756	1	11
556.926	1	20
557.096	1	15
557.266	1	11
557.436	1	11
557.606	1	13
557.776	1	23
557.946	1	14
558.116	1	5
558.286	1	7
558.456	1	14
558.626	1	4
558.796	1	20
558.966	1	18
559.136	1	11
559.306	1	11
559.476	1	14
559.646	1	14
559.816	1	20
559.986	1	9
560.155	1	7
560.325	1	20
560.495	1	14
560.665	1	9
560.835	1	10
561.005	1	12
561.175	1	3
561.345	1	8
561.515	1	11
561.685	1	3
561.855	1	13
562.025	1	18
562.195	1	16
562.365	1	16
562.535	1	15
562.705	1	6
562.875	1	11
563.045	1	-1
563.215	1	6
563.385	1	3
563.555	1	5
563.725	1	17
563.895	1	12
564.064	1	5
564.234	1	7
564.404	1	8
564.574	1	19
564.744	1	12
564.914	1	17
565.084	1	-5
565.254	1	11
565.424	1	11
565.594	1	6
565.764	1	2
565.934	1	10
566.104	1	14
566.274	1	19
566.444	1	-2
566.614	1	10
566.783	1	11
566.953	1	6
567.123	1	8
567.293	1	5
567.463	1	-2
567.633	1	5
567.803	1	14
567.973	1	13
568.143	1	10
568.313	1	0
568.483	1	18
568.653	1	7
568.823	1	2
568.993	1	4
569.162	1	2
569.332	1	18
569.502	1	26
569.672	1	13
569.842	1	3
570.012	1	11
570.182	1	3
570.352	1	7
570.522	1	7
570.692	1	16
570.862	1	15
571.031	1	11
571.201	1	14
571.371	1	17
571.541	1	5
571.711	1	13
571.881	1	8
572.051	1	8
572.221	1	13
572.391	1	18
572.561	1	16
572.731	1	4
572.900	1	-1
573.070	1	12
573.240	1	-4
573.410	1	14
573.580	1	-2
573.750	1	9
573.920	1	14
574.090	1	6
574.260	1	6
574.430	1	5
574.599	1	8
574.769	1	8
574.939	1	-3
575.109	1	5
575.279	1	5
575.449	1	18
575.619	1	9
575.789	1	12
575.959	1	10
576.128	1	-10
576.298	1	9
576.468	1	5
576.638	1	7
576.808	1	8
576.978	1	2
577.148	1	2
577.318	1	18
577.487	1	6
577.657	1	12
577.827	1	5
577.997	1	6
578.167	1	6
578.337	1	9
578.507	1	-3
578.677	1	5
578.846	1	11
579.016	1	4
579.186	1	3
579.356	1	8
579.526	1	-6
579.696	1	15
579.866	1	2
580.036	1	12
580.205	1	5
580.375	1	14
580.545	1	6
580.715	1	-3
580.885	1	11
581.055	1	2
581.225	1	12
581.394	1	-1
581.564	1	-1
581.734	1	-2
581.904	1	4
582.074	1	8
582.244	1	3
582.414	1	5
582.583	1	5
582.753	1	15
582.923	1	4
583.093	1	13
583.263	1	9
583.433	1	1
583.603	1	-10
583.772	1	3
583.942	1	14
584.112	1	-9
584.282	1	2
584.452	1	1
584.622	1	13
584.791	1	-1
584.961	1	-6
585.131	1	9
585.301	1	1
585.471	1	-5
585.641	1	19
585.811	1	4
585.980	1	6
586.150	1	4
586.320	1	2
586.490	1	9
586.660	1	12
586.830	1	-1
586.999	1	-1
587.169	1	13
587.339	1	-1
587.509	1	9
587.679	1	0
587.849	1	15
588.018	1	-7
588.188	1	2
588.358	1	-1
588.528	1	1
588.698	1	0
588.867	1	6
589.037	1	-2
589.207	1	9
589.377	1	16
589.547	1	8
589.717	1	-3
589.886	1	9
590.056	1	6
590.226	1	5
590.396	1	3
590.566	1	-6
590.735	1	-9
590.905	1	11
591.075	1	-4
591.245	1	12
591.415	1	11
591.585	1	6
591.754	1	4
591.924	1	7
592.094	1	-4
592.264	1	-1
592.434	1	9
592.603	1	3
592.773	1	7
592.943	1	8
593.113	1	0
593.283	1	-2
593.452	1	1
593.622	1	4
593.792	1	8
593.962	1	11
594.132	1	5
594.301	1	15
594.471	1	-1
594.641	1	9
594.811	1	-6
594.981	1	8
595.150	1	3
595.320	1	0
595.490	1	6
595.660	1	10
595.829	1	-3
595.999	1	1
596.169	1	6
596.339	1	13
596.509	1	2
596.678	1	12
596.848	1	11
597.018	1	-4
597.188	1	-8
597.358	1	9
597.527	1	3
597.697	1	-6
597.867	1	7
598.037	1	-3
598.206	1	15
598.376	1	0
598.546	1	11
598.716	1	-7
598.885	1	7
599.055	1	9
599.225	1	4
599.395	1	15
599.565	1	-1
599.734	1	6
599.904	1	0
600.074	1	14
600.244	1	8
600.413	1	5
600.583	1	-2
600.753	1	7
600.923	1	1
601.092	1	9
601.262	1	5
601.432	1	1
601.602	1	11
601.771	1	7
601.941	1	17
602.111	1	7
602.281	1	-1
602.451	1	6
602.620	1	4
602.790	1	-2
602.960	1	-1
603.130	1	-1
603.299	1	10
603.469	1	5
603.639	1	-7
603.809	1	10
603.978	1	-2
604.148	1	1
604.318	1	10
604.487	1	7
604.657	1	-3
604.827	1	7
604.997	1	4
605.166	1	-3
605.336	1	-8
605.506	1	-1
605.676	1	6
605.845	1	9
606.015	1	-2
606.185	1	4
606.355	1	-2
606.524	1	-2
606.694	1	-5
606.864	1	8
607.034	1	7
607.203	1	12
607.373	1	7
607.543	1	4
607.712	1	8
607.882	1	8
608.052	1	1
608.222	1	15
608.391	1	14
608.561	1	0
608.731	1	2
608.901	1	14
609.070	1	-5
609.240	1	1
609.410	1	5
609.579	1	4
609.749	1	8
609.919	1	-3
610.089	1	3
610.258	1	1
610.428	1	7
610.598	1	6
610.767	1	4
610.937	1	10
611.107	1	-2
611.277	1	3
611.446	1	3
611.616	1	11
611.786	1	11
611.955	1	8
612.125	1	11
612.295	1	5
612.465	1	5
612.634	1	10
612.804	1	2
612.974	1	1
613.143	1	4
613.313	1	2
613.483	1	23
613.652	1	4
613.822	1	4
613.992	1	-1
614.162	1	4
614.331	1	-1
614.501	1	-1
614.671	1	6
614.840	1	-7
615.010	1	7
615.180	1	11
615.349	1	13
615.519	1	1
615.689	1	-6
615.858	1	5
616.028	1	9
616.198	1	3
616.368	1	3
616.537	1	-2
616.707	1	-1
616.877	1	8
617.046	1	7
617.216	1	11
617.386	1	5
617.555	1	-2
617.725	1	8
617.895	1	9
618.064	1	-2
618.234	1	3
618.404	1	-5
618.573	1	5
618.743	1	13
618.913	1	9
619.082	1	-7
619.252	1	6
619.422	1	-3
619.591	1	10
619.761	1	1
619.931	1	18
620.100	1	14
620.270	1	2
620.440	1	6
620.609	1	7
620.779	1	2
620.949	1	-8
621.118	1	8
621.288	1	-5
621.458	1	7
621.627	1	3
621.797	1	4
621.967	1	5
622.136	1	2
622.306	1	-1
622.476	1	-12
622.645	1	11
622.815	1	1
622.985	1	2
623.154	1	-2
623.324	1	3
623.494	1	-5
623.663	1	3
623.833	1	0
624.002	1	-11
624.172	1	-3
624.342	1	10
624.511	1	3
624.681	1	1
624.851	1	-12
625.020	1	1
625.190	1	3
625.360	1	-7
625.529	1	-1
625.699	1	1
625.869	1	4
626.038	1	-2
626.208	1	3
626.377	1	7
626.547	1	0
626.717	1	-13
626.886	1	-8
627.056	1	1
627.226	1	7
627.395	1	-2
627.565	1	8
627.735	1	5
627.904	1	7
628.074	1	5
628.243	1	11
628.413	1	-4
628.583	1	5
628.752	1	-8
628.922	1	-2
629.091	1	0
629.261	1	3
629.431	1	4
629.600	1	6
629.770	1	11
629.940	1	-5
630.109	1	3
630.279	1	1
630.448	1	-3
630.618	1	7
630.788	1	5
630.957	1	10
631.127	1	7
631.297	1	-3
631.466	1	1
631.636	1	14
631.805	1	13
631.975	1	0
632.145	1	10
632.314	1	0
632.484	1	0
632.653	1	-7
632.823	1	-8
632.993	1	6
633.162	1	3
633.332	1	3
633.501	1	11
633.671	1	-4
633.841	1	5
634.010	1	3
634.180	1	7
634.349	1	6
634.519	1	15
634.689	1	1
634.858	1	-8
635.028	1	-6
635.197	1	3
635.367	1	5
635.537	1	7
635.706	1	-1
635.876	1	4
636.045	1	7
636.215	1	14
636.384	1	1
636.554	1	2
636.724	1	1
636.893	1	5
637.063	1	6
637.232	1	2
637.402	1	-4
637.572	1	12
637.741	1	3
637.911	1	0
638.080	1	4
638.250	1	4
638.419	1	-6
638.589	1	6
638.759	1	7
638.928	1	2
639.098	1	1
639.267	1	8
639.437	1	8
639.606	1	0
639.776	1	6
639.946	1	10
640.115	1	-2
640.285	1	8
640.454	1	8
640.624	1	6
640.793	1	1
640.963	1	-4
641.132	1	6
641.302	1	-2
641.472	1	13
641.641	1	4
641.811	1	1
641.980	1	-1
642.150	1	0
642.319	1	14
642.489	1	-8
642.659	1	10
642.828	1	5
642.998	1	7
643.167	1	-11
643.337	1	2
643.506	1	-7
643.676	1	6
643.845	1	1
644.015	1	8
644.184	1	-7
644.354	1	1
644.524	1	5
644.693	1	10
644.863	1	8
645.032	1	5
645.202	1	8
645.371	1	-2
645.541	1	1
645.710	1	-4
645.880	1	-15
646.049	1	0
646.219	1	0
646.388	1	0
646.558	1	9
646.728	1	0
646.897	1	3
647.067	1	-1
647.236	1	4
647.406	1	5
647.575	1	8
647.745	1	12
647.914	1	5
648.084	1	0
648.253	1	-6
648.423	1	2
648.592	1	-2
648.762	1	12
648.931	1	7
649.101	1	4
649.270	1	0
649.440	1	2
649.610	1	1
649.779	1	-1
649.949	1	2
650.118	1	4
650.288	1	10
650.457	1	4
650.627	1	-5
650.796	1	2
650.966	1	-8
651.135	1	7
651.305	1	-4
651.474	1	9
651.644	1	19
651.813	1	6
651.983	1	1
652.152	1	10
652.322	1	4
652.491	1	5
652.661	1	-2
652.830	1	5
653.000	1	2
653.169	1	6
653.339	1	7
653.508	1	1
653.678	1	4
653.847	1	-8
654.017	1	6
654.186	1	-1
654.356	1	1
654.525	1	-5
654.695	1	-5
654.864	1	-2
655.034	1	7
655.203	1	14
655.373	1	0
655.542	1	0
655.712	1	13
655.881	1	13
656.051	1	4
656.220	1	-9
656.390	1	2
656.559	1	-2
656.729	1	2
656.898	1	-4
657.068	1	1
657.237	1	5
657.406	1	-1
657.576	1	5
657.745	1	10
657.915	1	-5
658.084	1	7
658.254	1	9
658.423	1	9
658.593	1	18
658.762	1	8
658.932	1	-3
659.101	1	-4
659.271	1	1
659.440	1	0
659.610	1	0
659.779	1	11
659.949	1	0
660.118	1	-2
660.288	1	-1
660.457	1	8
660.626	1	1
660.796	1	3
660.965	1	1
661.135	1	-8
661.304	1	1
661.474	1	8
661.643	1	2
661.813	1	4
661.982	1	9
662.152	1	7
662.321	1	-8
662.491	1	-8
662.660	1	-5
662.829	1	13
662.999	1	3
663.168	1	8
663.338	1	17
663.507	1	1
663.677	1	-8
663.846	1	14
664.016	1	-3
664.185	1	-3
664.354	1	8
664.524	1	7
664.693	1	8
664.863	1	-5
665.032	1	5
665.202	1	1
665.371	1	-1
665.541	1	12
665.710	1	3
665.879	1	3
666.049	1	-5
666.218	1	-2
666.388	1	4
666.557	1	2
666.727	1	2
666.896	1	6
667.065	1	4
667.235	1	9
667.404	1	-7
667.574	1	6
667.743	1	1
667.913	1	16
668.082	1	12
668.251	1	2
668.421	1	3
668.590	1	2
668.760	1	-3
668.929	1	4
669.099	1	-1
669.268	1	1
669.437	1	4
669.607	1	12
669.776	1	4
669.946	1	0
670.115	1	-11
670.285	1	15
670.454	1	-2
670.623	1	-9
670.793	1	3
670.962	1	0
671.132	1	-8
671.301	1	9
671.470	1	-5
671.640	1	1
671.809	1	-6
671.979	1	10
672.148	1	9
672.317	1	0
672.487	1	5
672.656	1	-3
672.826	1	-2
672.995	1	6
673.164	1	-4
673.334	1	5
673.503	1	-1
673.673	1	7
673.842	1	7
674.011	1	9
674.181	1	0
674.350	1	-4
674.520	1	7
674.689	1	-9
674.858	1	1
675.028	1	10
675.197	1	0
675.367	1	3
675.536	1	4
675.705	1	4
675.875	1	3
676.044	1	1
676.214	1	1
676.383	1	5
676.552	1	1
676.722	1	-2
676.891	1	2
677.060	1	6
677.230	1	10
677.399	1	-2
677.569	1	8
677.738	1	5
677.907	1	-5
678.077	1	8
678.246	1	5
678.416	1	2
678.585	1	3
678.754	1	6
678.924	1	11
679.093	1	1
679.262	1	2
679.432	1	5
679.601	1	4
679.771	1	-1
679.940	1	13
680.109	1	-7
680.279	1	1
680.448	1	10
680.617	1	3
680.787	1	-5
680.956	1	8
681.125	1	7
681.295	1	-6
681.464	1	-15
681.634	1	5
681.803	1	5
681.972	1	6
682.142	1	1
682.311	1	5
682.480	1	8
682.650	1	9
682.819	1	8
682.988	1	1
683.158	1	-2
683.327	1	9
683.496	1	4
683.666	1	10
683.835	1	-4
684.004	1	12
684.174	1	-5
684.343	1	5
684.512	1	4
684.682	1	7
684.851	1	11
685.021	1	-2
685.190	1	1
685.359	1	-2
685.529	1	8
685.698	1	6
685.867	1	13
686.037	1	4
686.206	1	0
686.375	1	6
686.545	1	10
686.714	1	6
686.883	1	9
687.053	1	-4
687.222	1	2
687.391	1	3
687.561	1	16
687.730	1	-1
687.899	1	-2
688.069	1	10
688.238	1	2
688.407	1	9
688.577	1	0
688.746	1	8
