340.368	1	7
340.539	1	10
340.710	1	-1
340.881	1	-3
341.052	1	-3
341.223	1	5
341.394	1	-3
341.565	1	-3
341.737	1	13
341.908	1	-11
342.079	1	-4
342.250	1	0
342.421	1	11
342.592	1	-4
342.763	1	9
342.934	1	-1
343.105	1	7
343.276	1	6
343.447	1	-13
343.618	1	-3
343.789	1	2
343.960	1	1
344.131	1	-8
344.302	1	0
344.473	1	1
344.644	1	3
344.815	1	-1
344.986	1	4
345.157	1	10
345.328	1	5
345.499	1	11
345.670	1	1
345.841	1	-1
346.012	1	2
346.183	1	18
346.354	1	5
346.526	1	-4
346.697	1	8
346.868	1	-9
347.039	1	-6
347.210	1	-13
347.381	1	1
347.552	1	7
347.723	1	2
347.894	1	5
348.065	1	13
348.236	1	19
348.407	1	12
348.578	1	1
348.749	1	-9
348.920	1	6
349.091	1	2
349.262	1	3
349.433	1	-7
349.604	1	5
349.775	1	1
349.946	1	-2
350.117	1	-2
350.288	1	0
350.459	1	4
350.630	1	4
350.801	1	7
350.972	1	9
351.143	1	13
351.314	1	-4
351.485	1	4
351.656	1	11
351.827	1	5
351.998	1	3
352.169	1	0
352.340	1	9
352.511	1	0
352.682	1	-1
352.853	1	2
353.024	1	4
353.195	1	1
353.366	1	-7
353.537	1	11
353.708	1	0
353.879	1	-4
354.050	1	8
354.221	1	4
354.392	1	6
354.563	1	10
354.734	1	5
354.905	1	3
355.076	1	4
355.247	1	6
355.418	1	1
355.589	1	-3
355.760	1	2
355.931	1	12
356.102	1	0
356.273	1	4
356.444	1	7
356.615	1	3
356.785	1	1
356.956	1	6
357.127	1	13
357.298	1	5
357.469	1	5
357.640	1	7
357.811	1	8
357.982	1	5
358.153	1	14
358.324	1	8
358.495	1	-7
358.666	1	6
358.837	1	17
359.008	1	17
359.179	1	11
359.350	1	9
359.521	1	13
359.692	1	12
359.863	1	21
360.034	1	17
360.205	1	10
360.376	1	4
360.547	1	6
360.718	1	27
360.889	1	13
361.060	1	13
361.231	1	5
361.401	1	9
361.572	1	16
361.743	1	20
361.914	1	21
362.085	1	26
362.256	1	19
362.427	1	17
362.598	1	21
362.769	1	26
362.940	1	29
363.111	1	32
363.282	1	22
363.453	1	22
363.624	1	23
363.795	1	25
363.966	1	34
364.137	1	36
364.308	1	41
364.478	1	25
364.649	1	34
364.820	1	29
364.991	1	37
365.162	1	30
365.333	1	31
365.504	1	42
365.675	1	37
365.846	1	26
366.017	1	39
366.188	1	42
366.359	1	41
366.530	1	38
366.701	1	49
366.871	1	49
367.042	1	54
367.213	1	50
367.384	1	44
367.555	1	53
367.726	1	36
367.897	1	48
368.068	1	50
368.239	1	43
368.410	1	39
368.581	1	48
368.752	1	51
368.923	1	50
369.093	1	34
369.264	1	39
369.435	1	39
369.606	1	41
369.777	1	35
369.948	1	34
370.119	1	34
370.290	1	30
370.461	1	37
370.632	1	34
370.803	1	46
370.973	1	32
371.144	1	36
371.315	1	25
371.486	1	31
371.657	1	26
371.828	1	38
371.999	1	15
372.170	1	27
372.341	1	22
372.512	1	29
372.682	1	28
372.853	1	24
373.024	1	30
373.195	1	17
373.366	1	23
373.537	1	30
373.708	1	16
373.879	1	30
374.050	1	22
374.220	1	12
374.391	1	21
374.562	1	17
374.733	1	19
374.904	1	20
375.075	1	22
375.246	1	9
375.417	1	20
375.588	1	24
375.758	1	5
375.929	1	11
376.100	1	9
376.271	1	16
376.442	1	0
376.613	1	18
376.784	1	21
376.955	1	15
377.125	1	11
377.296	1	12
377.467	1	20
377.638	1	7
377.809	1	19
377.980	1	9
378.151	1	17
378.321	1	7
378.492	1	21
378.663	1	12
378.834	1	18
379.005	1	11
379.176	1	10
379.347	1	18
379.518	1	7
379.688	1	15
379.859	1	9
380.030	1	22
380.201	1	19
380.372	1	12
380.543	1	28
380.714	1	7
380.884	1	15
381.055	1	2
381.226	1	4
381.397	1	13
381.568	1	13
381.739	1	8
381.910	1	12
382.080	1	18
382.251	1	9
382.422	1	13
382.593	1	12
382.764	1	12
382.935	1	16
383.105	1	11
383.276	1	16
383.447	1	20
383.618	1	20
383.789	1	7
383.960	1	10
384.130	1	12
384.301	1	29
384.472	1	19
384.643	1	18
384.814	1	26
384.985	1	10
385.156	1	28
385.326	1	27
385.497	1	12
385.668	1	21
385.839	1	33
386.010	1	26
386.180	1	17
386.351	1	30
386.522	1	23
386.693	1	16
386.864	1	31
387.035	1	37
387.205	1	16
387.376	1	27
387.547	1	28
387.718	1	21
387.889	1	27
388.060	1	28
388.230	1	38
388.401	1	29
388.572	1	23
388.743	1	21
388.914	1	20
389.084	1	6
389.255	1	19
389.426	1	22
389.597	1	27
389.768	1	25
389.939	1	29
390.109	1	15
390.280	1	13
390.451	1	22
390.622	1	18
390.793	1	25
390.963	1	11
391.134	1	15
391.305	1	12
391.476	1	26
391.647	1	15
391.817	1	18
391.988	1	5
392.159	1	23
392.330	1	7
392.501	1	18
392.671	1	13
392.842	1	24
393.013	1	19
393.184	1	21
393.355	1	22
393.525	1	12
393.696	1	14
393.867	1	21
394.038	1	13
394.208	1	16
394.379	1	9
394.550	1	14
394.721	1	13
394.892	1	9
395.062	1	23
395.233	1	11
395.404	1	17
395.575	1	17
395.746	1	20
395.916	1	20
396.087	1	19
396.258	1	17
396.429	1	15
396.599	1	18
396.770	1	27
396.941	1	11
397.112	1	14
397.283	1	6
397.453	1	21
397.624	1	10
397.795	1	11
397.966	1	33
398.136	1	17
398.307	1	10
398.478	1	18
398.649	1	9
398.819	1	24
398.990	1	5
399.161	1	25
399.332	1	21
399.503	1	23
399.673	1	10
399.844	1	16
400.015	1	17
400.186	1	17
400.356	1	16
400.527	1	28
400.698	1	7
400.869	1	11
401.039	1	5
401.210	1	21
401.381	1	10
401.552	1	14
401.722	1	13
401.893	1	13
402.064	1	11
402.235	1	-1
402.405	1	14
402.576	1	1
402.747	1	16
402.918	1	11
403.088	1	7
403.259	1	6
403.430	1	21
403.601	1	14
403.771	1	12
403.942	1	15
404.113	1	16
404.284	1	7
404.454	1	17
404.625	1	10
404.796	1	-1
404.967	1	13
405.137	1	12
405.308	1	7
405.479	1	19
405.649	1	15
405.820	1	5
405.991	1	4
406.162	1	15
406.332	1	2
406.503	1	11
406.674	1	10
406.845	1	6
407.015	1	12
407.186	1	17
407.357	1	10
407.527	1	2
407.698	1	17
407.869	1	13
408.040	1	5
408.210	1	12
408.381	1	6
408.552	1	6
408.722	1	8
408.893	1	4
409.064	1	7
409.235	1	4
409.405	1	12
409.576	1	14
409.747	1	7
409.917	1	8
410.088	1	9
410.259	1	3
410.430	1	7
410.600	1	6
410.771	1	10
410.942	1	15
411.112	1	8
411.283	1	8
411.454	1	15
411.625	1	6
411.795	1	12
411.966	1	20
412.137	1	21
412.307	1	10
412.478	1	17
412.649	1	7
412.819	1	14
412.990	1	4
413.161	1	11
413.332	1	13
413.502	1	1
413.673	1	18
413.844	1	15
414.014	1	6
414.185	1	12
414.356	1	12
414.526	1	11
414.697	1	12
414.868	1	7
415.038	1	12
415.209	1	6
415.380	1	21
415.550	1	10
415.721	1	5
415.892	1	6
416.063	1	22
416.233	1	1
416.404	1	9
416.575	1	0
416.745	1	7
416.916	1	0
417.087	1	13
417.257	1	14
417.428	1	0
417.599	1	11
417.769	1	2
417.940	1	1
418.111	1	17
418.281	1	6
418.452	1	1
418.623	1	-3
418.793	1	10
418.964	1	8
419.135	1	14
419.305	1	9
419.476	1	8
419.647	1	8
419.817	1	4
419.988	1	4
420.159	1	13
420.329	1	0
420.500	1	14
420.671	1	4
420.841	1	8
421.012	1	-1
421.183	1	6
421.353	1	5
421.524	1	7
421.695	1	10
421.865	1	18
422.036	1	5
422.206	1	15
422.377	1	3
422.548	1	5
422.718	1	-4
422.889	1	2
423.060	1	0
423.230	1	3
423.401	1	1
423.572	1	18
423.742	1	-2
423.913	1	8
424.084	1	3
424.254	1	9
424.425	1	2
424.595	1	2
424.766	1	5
424.937	1	4
425.107	1	3
425.278	1	-1
425.449	1	2
425.619	1	15
425.790	1	9
425.961	1	-7
426.131	1	10
426.302	1	1
426.472	1	6
426.643	1	-1
426.814	1	6
426.984	1	6
427.155	1	-13
427.326	1	9
427.496	1	-2
427.667	1	14
427.837	1	3
428.008	1	9
428.179	1	-2
428.349	1	0
428.520	1	14
428.691	1	0
428.861	1	4
429.032	1	15
429.202	1	5
429.373	1	2
429.544	1	10
429.714	1	2
429.885	1	0
430.055	1	4
430.226	1	5
430.397	1	7
430.567	1	11
430.738	1	-1
430.909	1	8
431.079	1	2
431.250	1	-8
431.420	1	-5
431.591	1	3
431.762	1	8
431.932	1	-4
432.103	1	6
432.273	1	9
432.444	1	-1
432.615	1	-4
432.785	1	7
432.956	1	15
433.126	1	3
433.297	1	2
433.468	1	-2
433.638	1	9
433.809	1	2
433.979	1	5
434.150	1	9
434.320	1	8
434.491	1	13
434.662	1	11
434.832	1	4
435.003	1	18
435.173	1	-2
435.344	1	-6
435.515	1	-4
435.685	1	7
435.856	1	4
436.026	1	2
436.197	1	2
436.368	1	0
436.538	1	4
436.709	1	0
436.879	1	4
437.050	1	8
437.220	1	-9
437.391	1	4
437.562	1	5
437.732	1	10
437.903	1	1
438.073	1	-1
438.244	1	0
438.414	1	-2
438.585	1	-4
438.756	1	-5
438.926	1	0
439.097	1	12
439.267	1	3
439.438	1	5
439.608	1	-2
439.779	1	-6
439.949	1	3
440.120	1	4
440.291	1	2
440.461	1	0
440.632	1	8
440.802	1	1
440.973	1	7
441.143	1	1
441.314	1	-6
441.485	1	-2
441.655	1	0
441.826	1	-6
441.996	1	3
442.167	1	9
442.337	1	3
442.508	1	5
442.678	1	-1
442.849	1	-5
443.019	1	9
443.190	1	11
443.361	1	6
443.531	1	2
443.702	1	-2
443.872	1	4
444.043	1	3
444.213	1	13
444.384	1	2
444.554	1	-7
444.725	1	4
444.895	1	0
445.066	1	2
445.237	1	3
445.407	1	-1
445.578	1	4
445.748	1	-2
445.919	1	1
446.089	1	2
446.260	1	6
446.430	1	-6
446.601	1	2
446.771	1	-3
446.942	1	8
447.112	1	1
447.283	1	-8
447.453	1	-1
447.624	1	2
447.794	1	9
447.965	1	11
448.135	1	1
448.306	1	-5
448.477	1	11
448.647	1	1
448.818	1	3
448.988	1	3
449.159	1	6
449.329	1	8
449.500	1	-3
449.670	1	-2
449.841	1	-1
450.011	1	6
450.182	1	-9
450.352	1	5
450.523	1	11
450.693	1	2
450.864	1	6
451.034	1	12
451.205	1	7
451.375	1	4
451.546	1	-5
451.716	1	13
451.887	1	-1
452.057	1	15
452.228	1	11
452.398	1	9
452.569	1	-1
452.739	1	-1
452.910	1	-4
453.080	1	4
453.251	1	2
453.421	1	0
453.592	1	4
453.762	1	-1
453.933	1	4
454.103	1	-2
454.274	1	3
454.444	1	7
454.615	1	14
454.785	1	0
454.956	1	14
455.126	1	3
455.297	1	-1
455.467	1	-8
455.638	1	9
455.808	1	6
455.979	1	-1
456.149	1	-3
456.320	1	9
456.490	1	2
456.661	1	-2
456.831	1	0
457.001	1	3
457.172	1	5
457.342	1	6
457.513	1	13
457.683	1	0
457.854	1	10
458.024	1	-4
458.195	1	2
458.365	1	14
458.536	1	-2
458.706	1	15
458.877	1	1
459.047	1	11
459.218	1	4
459.388	1	7
459.559	1	3
459.729	1	-5
459.899	1	-9
460.070	1	0
460.240	1	5
460.411	1	4
460.581	1	7
460.752	1	7
460.922	1	1
461.093	1	-1
461.263	1	2
461.434	1	12
461.604	1	11
461.775	1	5
461.945	1	2
462.115	1	6
462.286	1	0
462.456	1	13
462.627	1	7
462.797	1	-9
462.968	1	-8
463.138	1	5
463.309	1	6
463.479	1	0
463.649	1	-6
463.820	1	5
463.990	1	9
464.161	1	2
464.331	1	13
464.502	1	5
464.672	1	-13
464.843	1	-10
465.013	1	-3
465.183	1	-3
465.354	1	12
465.524	1	2
465.695	1	9
465.865	1	6
466.036	1	7
466.206	1	-7
466.376	1	-1
466.547	1	-6
466.717	1	8
466.888	1	-6
467.058	1	2
467.229	1	9
467.399	1	0
467.569	1	12
467.740	1	7
467.910	1	-2
468.081	1	2
468.251	1	3
468.422	1	-1
468.592	1	4
468.762	1	-14
468.933	1	11
469.103	1	2
469.274	1	-2
469.444	1	5
469.614	1	4
469.785	1	15
469.955	1	8
470.126	1	4
470.296	1	4
470.467	1	-8
470.637	1	2
470.807	1	9
470.978	1	7
471.148	1	-4
471.319	1	1
471.489	1	-8
471.659	1	2
471.830	1	13
472.000	1	5
472.171	1	-4
472.341	1	-3
472.511	1	10
472.682	1	-11
472.852	1	0
473.023	1	7
473.193	1	5
473.363	1	4
473.534	1	-1
473.704	1	5
473.875	1	-7
474.045	1	2
474.215	1	19
474.386	1	4
474.556	1	4
474.727	1	1
474.897	1	-2
475.067	1	-4
475.238	1	-9
475.408	1	4
475.578	1	3
475.749	1	4
475.919	1	5
476.090	1	3
476.260	1	4
476.430	1	0
476.601	1	10
476.771	1	-8
476.942	1	12
477.112	1	-1
477.282	1	5
477.453	1	-4
477.623	1	13
477.793	1	-5
477.964	1	-4
478.134	1	8
478.305	1	11
478.475	1	4
478.645	1	5
478.816	1	1
478.986	1	3
479.156	1	-4
479.327	1	-5
479.497	1	11
479.667	1	10
479.838	1	-6
480.008	1	1
480.179	1	-9
480.349	1	8
480.519	1	6
480.690	1	-10
480.860	1	0
481.030	1	0
481.201	1	3
481.371	1	9
481.541	1	11
481.712	1	4
481.882	1	-6
482.053	1	12
482.223	1	2
482.393	1	7
482.564	1	3
482.734	1	1
482.904	1	1
483.075	1	-10
483.245	1	10
483.415	1	-1
483.586	1	1
483.756	1	5
483.926	1	0
484.097	1	9
484.267	1	-1
484.437	1	12
484.608	1	1
484.778	1	-7
484.948	1	-1
485.119	1	4
485.289	1	-2
485.459	1	13
485.630	1	13
485.800	1	9
485.970	1	1
486.141	1	-7
486.311	1	5
486.481	1	1
486.652	1	-6
486.822	1	0
486.992	1	13
487.163	1	0
487.333	1	3
487.503	1	9
487.674	1	11
487.844	1	-1
488.014	1	4
488.185	1	2
488.355	1	11
488.525	1	8
488.696	1	-8
488.866	1	2
489.036	1	13
489.207	1	1
489.377	1	0
489.547	1	2
489.718	1	-1
489.888	1	-3
490.058	1	3
490.228	1	-3
490.399	1	21
490.569	1	14
490.739	1	-1
490.910	1	1
491.080	1	1
491.250	1	12
491.421	1	12
491.591	1	-10
491.761	1	2
491.932	1	10
492.102	1	8
492.272	1	4
492.442	1	10
492.613	1	-4
492.783	1	10
492.953	1	0
493.124	1	12
493.294	1	7
493.464	1	14
493.635	1	6
493.805	1	12
493.975	1	5
494.145	1	8
494.316	1	6
494.486	1	7
494.656	1	3
494.827	1	9
494.997	1	-2
495.167	1	10
495.337	1	0
495.508	1	9
495.678	1	12
495.848	1	13
496.019	1	10
496.189	1	10
496.359	1	-4
496.529	1	1
496.700	1	12
496.870	1	14
497.040	1	5
497.211	1	9
497.381	1	9
497.551	1	9
497.721	1	-1
497.892	1	9
498.062	1	4
498.232	1	5
498.403	1	2
498.573	1	4
498.743	1	9
498.913	1	12
499.084	1	1
499.254	1	-4
499.424	1	5
499.594	1	-1
499.765	1	15
499.935	1	7
500.105	1	8
500.275	1	7
500.446	1	7
500.616	1	1
500.786	1	13
500.956	1	10
501.127	1	8
501.297	1	3
501.467	1	6
501.638	1	12
501.808	1	10
501.978	1	-3
502.148	1	1
502.319	1	13
502.489	1	9
502.659	1	17
502.829	1	11
503.000	1	5
503.170	1	4
503.340	1	10
503.510	1	3
503.681	1	6
503.851	1	5
504.021	1	15
504.191	1	11
504.362	1	5
504.532	1	4
504.702	1	8
504.872	1	-3
505.042	1	5
505.213	1	9
505.383	1	9
505.553	1	9
505.723	1	13
505.894	1	7
506.064	1	12
506.234	1	4
506.404	1	14
506.575	1	9
506.745	1	18
506.915	1	13
507.085	1	3
507.256	1	8
507.426	1	18
507.596	1	9
507.766	1	20
507.936	1	5
508.107	1	12
508.277	1	10
508.447	1	6
508.617	1	11
508.788	1	20
508.958	1	12
509.128	1	18
509.298	1	4
509.468	1	23
509.639	1	7
509.809	1	20
509.979	1	12
510.149	1	13
510.319	1	3
510.490	1	16
510.660	1	16
510.830	1	14
511.000	1	14
511.171	1	3
511.341	1	15
511.511	1	14
511.681	1	12
511.851	1	17
512.022	1	-6
512.192	1	11
512.362	1	9
512.532	1	8
512.702	1	23
512.873	1	22
513.043	1	23
513.213	1	17
513.383	1	6
513.553	1	14
513.724	1	-2
513.894	1	10
514.064	1	20
514.234	1	18
514.404	1	17
514.575	1	9
514.745	1	15
514.915	1	-3
515.085	1	14
515.255	1	12
515.425	1	14
515.596	1	18
515.766	1	12
515.936	1	16
516.106	1	10
516.276	1	19
516.447	1	20
516.617	1	14
516.787	1	8
516.957	1	22
517.127	1	14
517.297	1	18
517.468	1	2
517.638	1	11
517.808	1	17
517.978	1	20
518.148	1	16
518.319	1	17
518.489	1	2
518.659	1	6
518.829	1	5
518.999	1	15
519.169	1	7
519.340	1	25
519.510	1	23
519.680	1	17
519.850	1	8
520.020	1	7
520.190	1	12
520.361	1	10
520.531	1	19
520.701	1	17
520.871	1	14
521.041	1	20
521.211	1	21
521.382	1	18
521.552	1	9
521.722	1	18
521.892	1	15
522.062	1	13
522.232	1	28
522.402	1	21
522.573	1	16
522.743	1	4
522.913	1	16
523.083	1	17
523.253	1	24
523.423	1	3
523.593	1	24
523.764	1	8
523.934	1	22
524.104	1	12
524.274	1	14
524.444	1	22
524.614	1	15
524.784	1	16
524.955	1	24
525.125	1	21
525.295	1	13
525.465	1	14
525.635	1	10
525.805	1	17
525.975	1	5
526.146	1	7
526.316	1	15
526.486	1	23
526.656	1	9
526.826	1	9
526.996	1	16
527.166	1	5
527.337	1	11
527.507	1	17
527.677	1	23
527.847	1	7
528.017	1	14
528.187	1	26
528.357	1	25
528.527	1	15
528.698	1	5
528.868	1	17
529.038	1	17
529.208	1	11
529.378	1	17
529.548	1	15
529.718	1	18
529.888	1	21
530.058	1	17
530.229	1	16
530.399	1	9
530.569	1	10
530.739	1	11
530.909	1	14
531.079	1	6
531.249	1	16
531.419	1	24
531.589	1	24
531.760	1	8
531.930	1	19
532.100	1	15
532.270	1	9
532.440	1	11
532.610	1	21
532.780	1	19
532.950	1	18
533.120	1	29
533.290	1	25
533.461	1	10
533.631	1	7
533.801	1	20
533.971	1	14
534.141	1	16
534.311	1	19
534.481	1	16
534.651	1	5
534.821	1	9
534.991	1	21
535.162	1	10
535.332	1	22
535.502	1	15
535.672	1	15
535.842	1	20
536.012	1	14
536.182	1	16
536.352	1	10
536.522	1	2
536.692	1	13
536.862	1	12
537.032	1	15
537.203	1	21
537.373	1	21
537.543	1	-3
537.713	1	10
537.883	1	11
538.053	1	16
538.223	1	18
538.393	1	22
538.563	1	19
538.733	1	28
538.903	1	11
539.073	1	18
539.243	1	14
539.413	1	21
539.584	1	13
539.754	1	11
539.924	1	23
540.094	1	11
540.264	1	10
540.434	1	14
540.604	1	15
540.774	1	18
540.944	1	13
541.114	1	9
541.284	1	11
541.454	1	11
541.624	1	25
541.794	1	15
541.964	1	9
542.134	1	9
542.305	1	19
542.475	1	11
542.645	1	17
542.815	1	5
542.985	1	13
543.155	1	1
543.325	1	17
543.495	1	21
543.665	1	17
543.835	1	0
544.005	1	3
544.175	1	14
544.345	1	8
544.515	1	16
544.685	1	24
544.855	1	5
545.025	1	10
545.195	1	12
545.365	1	9
545.535	1	16
545.705	1	16
545.875	1	12
546.045	1	11
546.216	1	7
546.386	1	20
546.556	1	9
546.726	1	11
546.896	1	21
547.066	1	16
547.236	1	10
547.406	1	8
547.576	1	25
547.746	1	23
547.916	1	12
548.086	1	11
548.256	1	6
548.426	1	9
548.596	1	11
548.766	1	26
548.936	1	28
549.106	1	24
549.276	1	21
549.446	1	14
549.616	1	15
549.786	1	3
549.956	1	5
550.126	1	12
550.296	1	21
550.466	1	23
550.636	1	14
550.806	1	19
550.976	1	13
551.146	1	9
551.316	1	8
551.486	1	10
551.656	1	17
551.826	1	16
551.996	1	12
552.166	1	16
552.336	1	13
552.506	1	24
552.676	1	16
552.846	1	8
553.016	1	25
553.186	1	8
553.356	1	10
553.526	1	8
553.696	1	27
553.866	1	20
554.036	1	9
554.206	1	10
554.376	1	10
554.546	1	3
554.716	1	14
554.886	1	26
555.056	1	9
555.226	1	13
555.396	1	9
555.566	1	23
555.736	1	17
555.906	1	5
556.076	1	13
556.246	1	5
556.416	1	4
556.586	1	0
556.756	1	11
556.926	1	0
557.096	1	7
557.266	1	8
557.436	1	16
557.606	1	9
557.776	1	15
557.946	1	14
558.116	1	5
558.286	1	8
558.456	1	3
558.626	1	-3
558.796	1	11
558.966	1	12
559.136	1	10
559.306	1	13
559.476	1	18
559.646	1	11
559.816	1	8
559.986	1	7
560.155	1	16
560.325	1	-1
560.495	1	12
560.665	1	6
560.835	1	10
561.005	1	7
561.175	1	12
561.345	1	7
561.515	1	5
561.685	1	5
561.855	1	8
562.025	1	8
562.195	1	12
562.365	1	5
562.535	1	10
562.705	1	1
562.875	1	2
563.045	1	6
563.215	1	11
563.385	1	-5
563.555	1	4
563.725	1	3
563.895	1	8
564.064	1	5
564.234	1	20
564.404	1	8
564.574	1	22
564.744	1	2
564.914	1	9
565.084	1	-3
565.254	1	7
565.424	1	11
565.594	1	6
565.764	1	1
565.934	1	6
566.104	1	11
566.274	1	19
566.444	1	-5
566.614	1	3
566.783	1	6
566.953	1	9
567.123	1	16
567.293	1	-1
567.463	1	5
567.633	1	5
567.803	1	18
567.973	1	23
568.143	1	6
568.313	1	3
568.483	1	9
568.653	1	8
568.823	1	6
568.993	1	11
569.162	1	1
569.332	1	15
569.502	1	9
569.672	1	3
569.842	1	7
570.012	1	9
570.182	1	-3
570.352	1	8
570.522	1	7
570.692	1	8
570.862	1	13
571.031	1	6
571.201	1	7
571.371	1	11
571.541	1	7
571.711	1	4
571.881	1	19
572.051	1	1
572.221	1	12
572.391	1	18
572.561	1	8
572.731	1	9
572.900	1	13
573.070	1	10
573.240	1	4
573.410	1	12
573.580	1	-5
573.750	1	2
573.920	1	4
574.090	1	8
574.260	1	-2
574.430	1	9
574.599	1	7
574.769	1	6
574.939	1	1
575.109	1	6
575.279	1	6
575.449	1	18
575.619	1	9
575.789	1	3
575.959	1	8
576.128	1	-3
576.298	1	0
576.468	1	0
576.638	1	3
576.808	1	3
576.978	1	4
577.148	1	-2
577.318	1	15
577.487	1	3
577.657	1	7
577.827	1	-2
577.997	1	14
578.167	1	7
578.337	1	5
578.507	1	9
578.677	1	1
578.846	1	11
579.016	1	11
579.186	1	3
579.356	1	9
579.526	1	1
579.696	1	11
579.866	1	-3
580.036	1	9
580.205	1	-5
580.375	1	14
580.545	1	-3
580.715	1	1
580.885	1	14
581.055	1	-1
581.225	1	10
581.394	1	-5
581.564	1	6
581.734	1	2
581.904	1	0
582.074	1	12
582.244	1	7
582.414	1	7
582.583	1	5
582.753	1	9
582.923	1	10
583.093	1	5
583.263	1	6
583.433	1	8
583.603	1	-4
583.772	1	-3
583.942	1	9
584.112	1	4
584.282	1	2
584.452	1	3
584.622	1	9
584.791	1	8
584.961	1	-12
585.131	1	6
585.301	1	7
585.471	1	-9
585.641	1	3
585.811	1	1
585.980	1	2
586.150	1	2
586.320	1	2
586.490	1	9
586.660	1	12
586.830	1	-3
586.999	1	-2
587.169	1	17
587.339	1	4
587.509	1	4
587.679	1	4
587.849	1	7
588.018	1	-6
588.188	1	10
588.358	1	-1
588.528	1	8
588.698	1	6
588.867	1	4
589.037	1	-5
589.207	1	3
589.377	1	2
589.547	1	10
589.717	1	-7
589.886	1	0
590.056	1	-1
590.226	1	2
590.396	1	1
590.566	1	-16
590.735	1	-3
590.905	1	9
591.075	1	-6
591.245	1	2
591.415	1	9
591.585	1	10
591.754	1	8
591.924	1	8
592.094	1	6
592.264	1	12
592.434	1	7
592.603	1	-10
592.773	1	10
592.943	1	11
593.113	1	-6
593.283	1	-3
593.452	1	8
593.622	1	7
593.792	1	13
593.962	1	9
594.132	1	0
594.301	1	11
594.471	1	11
594.641	1	10
594.811	1	-3
594.981	1	0
595.150	1	6
595.320	1	-3
595.490	1	7
595.660	1	6
595.829	1	-13
595.999	1	6
596.169	1	11
596.339	1	7
596.509	1	-1
596.678	1	9
596.848	1	11
597.018	1	4
597.188	1	0
597.358	1	3
597.527	1	-1
597.697	1	-6
597.867	1	14
598.037	1	4
598.206	1	14
598.376	1	-5
598.546	1	9
598.716	1	-12
598.885	1	5
599.055	1	10
599.225	1	13
599.395	1	2
599.565	1	5
599.734	1	3
599.904	1	-2
600.074	1	7
600.244	1	-1
600.413	1	0
600.583	1	-10
600.753	1	4
600.923	1	-7
601.092	1	14
601.262	1	-1
601.432	1	9
601.602	1	24
601.771	1	10
601.941	1	12
602.111	1	2
602.281	1	1
602.451	1	-7
602.620	1	4
602.790	1	4
602.960	1	-3
603.130	1	-2
603.299	1	5
603.469	1	-3
603.639	1	-9
603.809	1	7
603.978	1	-8
604.148	1	-2
604.318	1	3
604.487	1	6
604.657	1	-1
604.827	1	7
604.997	1	14
605.166	1	5
605.336	1	-1
605.506	1	-2
605.676	1	13
605.845	1	5
606.015	1	-6
606.185	1	3
606.355	1	-3
606.524	1	2
606.694	1	6
606.864	1	1
607.034	1	8
607.203	1	10
607.373	1	9
607.543	1	4
607.712	1	5
607.882	1	9
608.052	1	0
608.222	1	8
608.391	1	8
608.561	1	-4
608.731	1	-7
608.901	1	2
609.070	1	-1
609.240	1	-2
609.410	1	7
609.579	1	0
609.749	1	1
609.919	1	-4
610.089	1	0
610.258	1	7
610.428	1	9
610.598	1	-6
610.767	1	13
610.937	1	-3
611.107	1	5
611.277	1	5
611.446	1	0
611.616	1	1
611.786	1	-2
611.955	1	8
612.125	1	1
612.295	1	1
612.465	1	-1
612.634	1	-2
612.804	1	4
612.974	1	-3
613.143	1	10
613.313	1	1
613.483	1	6
613.652	1	2
613.822	1	3
613.992	1	1
614.162	1	0
614.331	1	3
614.501	1	5
614.671	1	-1
614.840	1	0
615.010	1	6
615.180	1	6
615.349	1	11
615.519	1	-8
615.689	1	-5
615.858	1	24
616.028	1	10
616.198	1	5
616.368	1	-2
616.537	1	7
616.707	1	7
616.877	1	5
617.046	1	14
617.216	1	2
617.386	1	13
617.555	1	0
617.725	1	4
617.895	1	3
618.064	1	0
618.234	1	-9
618.404	1	4
618.573	1	3
618.743	1	13
618.913	1	17
619.082	1	1
619.252	1	8
619.422	1	-2
619.591	1	-5
619.761	1	7
619.931	1	8
620.100	1	12
620.270	1	10
620.440	1	4
620.609	1	12
620.779	1	10
620.949	1	4
621.118	1	0
621.288	1	7
621.458	1	5
621.627	1	8
621.797	1	-1
621.967	1	-1
622.136	1	7
622.306	1	9
622.476	1	4
622.645	1	-2
622.815	1	7
622.985	1	-7
623.154	1	-3
623.324	1	5
623.494	1	4
623.663	1	1
623.833	1	-3
624.002	1	2
624.172	1	-2
624.342	1	9
624.511	1	4
624.681	1	6
624.851	1	5
625.020	1	-8
625.190	1	-6
625.360	1	-5
625.529	1	-6
625.699	1	-2
625.869	1	1
626.038	1	-6
626.208	1	7
626.377	1	1
626.547	1	-1
626.717	1	-4
626.886	1	3
627.056	1	3
627.226	1	10
627.395	1	-3
627.565	1	11
627.735	1	6
627.904	1	11
628.074	1	7
628.243	1	3
628.413	1	-10
628.583	1	5
628.752	1	-9
628.922	1	-3
629.091	1	4
629.261	1	9
629.431	1	-2
629.600	1	-4
629.770	1	7
629.940	1	-20
630.109	1	2
630.279	1	3
630.448	1	1
630.618	1	5
630.788	1	3
630.957	1	9
631.127	1	1
631.297	1	-2
631.466	1	3
631.636	1	9
631.805	1	1
631.975	1	-5
632.145	1	6
632.314	1	-3
632.484	1	9
632.653	1	2
632.823	1	7
632.993	1	15
633.162	1	-4
633.332	1	-3
633.501	1	-3
633.671	1	-1
633.841	1	3
634.010	1	12
634.180	1	11
634.349	1	14
634.519	1	11
634.689	1	-8
634.858	1	-2
635.028	1	3
635.197	1	3
635.367	1	7
635.537	1	0
635.706	1	2
635.876	1	6
636.045	1	5
636.215	1	18
636.384	1	3
636.554	1	1
636.724	1	-1
636.893	1	3
637.063	1	-4
637.232	1	-6
637.402	1	-2
637.572	1	6
637.741	1	7
637.911	1	-6
638.080	1	5
638.250	1	4
638.419	1	-1
638.589	1	-3
638.759	1	7
638.928	1	-8
639.098	1	-4
639.267	1	5
639.437	1	6
639.606	1	14
639.776	1	1
639.946	1	6
640.115	1	-6
640.285	1	3
640.454	1	10
640.624	1	10
640.793	1	2
640.963	1	0
641.132	1	8
641.302	1	11
641.472	1	5
641.641	1	1
641.811	1	4
641.980	1	-1
642.150	1	3
642.319	1	9
642.489	1	-15
642.659	1	6
642.828	1	8
642.998	1	10
643.167	1	0
643.337	1	-2
643.506	1	6
643.676	1	-2
643.845	1	3
644.015	1	1
644.184	1	3
644.354	1	-4
644.524	1	8
644.693	1	1
644.863	1	8
645.032	1	3
645.202	1	2
645.371	1	4
645.541	1	7
645.710	1	-4
645.880	1	-5
646.049	1	6
646.219	1	3
646.388	1	4
646.558	1	10
646.728	1	-1
646.897	1	-3
647.067	1	2
647.236	1	11
647.406	1	11
647.575	1	1
647.745	1	7
647.914	1	-1
648.084	1	4
648.253	1	-1
648.423	1	0
648.592	1	-8
648.762	1	11
648.931	1	-1
649.101	1	3
649.270	1	4
649.440	1	-2
649.610	1	3
649.779	1	3
649.949	1	5
650.118	1	0
650.288	1	7
650.457	1	11
650.627	1	4
650.796	1	2
650.966	1	-13
651.135	1	-5
651.305	1	1
651.474	1	7
651.644	1	16
651.813	1	7
651.983	1	6
652.152	1	6
652.322	1	6
652.491	1	4
652.661	1	-5
652.830	1	7
653.000	1	-2
653.169	1	11
653.339	1	3
653.508	1	-1
653.678	1	10
653.847	1	-4
654.017	1	10
654.186	1	2
654.356	1	-9
654.525	1	-4
654.695	1	2
654.864	1	-12
655.034	1	9
655.203	1	-7
655.373	1	10
655.542	1	1
655.712	1	1
655.881	1	11
656.051	1	8
656.220	1	5
656.390	1	1
656.559	1	-3
656.729	1	-5
656.898	1	-1
657.068	1	7
657.237	1	2
657.406	1	1
657.576	1	-7
657.745	1	12
657.915	1	-5
658.084	1	6
658.254	1	6
658.423	1	-2
658.593	1	10
658.762	1	4
658.932	1	-1
659.101	1	-3
659.271	1	4
659.440	1	8
659.610	1	-2
659.779	1	8
659.949	1	-4
660.118	1	6
660.288	1	-6
660.457	1	13
660.626	1	-2
660.796	1	-1
660.965	1	7
661.135	1	-3
661.304	1	-7
661.474	1	5
661.643	1	-4
661.813	1	5
661.982	1	-9
662.152	1	-4
662.321	1	-2
662.491	1	4
662.660	1	2
662.829	1	11
662.999	1	3
663.168	1	2
663.338	1	4
663.507	1	3
663.677	1	5
663.846	1	1
664.016	1	-14
664.185	1	1
664.354	1	7
664.524	1	-1
664.693	1	4
664.863	1	6
665.032	1	-4
665.202	1	-7
665.371	1	-3
665.541	1	9
665.710	1	-5
665.879	1	-2
666.049	1	0
666.218	1	-6
666.388	1	15
666.557	1	1
666.727	1	-7
666.896	1	3
667.065	1	4
667.235	1	15
667.404	1	1
667.574	1	-5
667.743	1	1
667.913	1	19
668.082	1	7
668.251	1	0
668.421	1	1
668.590	1	-3
668.760	1	-4
668.929	1	4
669.099	1	-2
669.268	1	-4
669.437	1	4
669.607	1	9
669.776	1	4
669.946	1	1
670.115	1	-10
670.285	1	11
670.454	1	0
670.623	1	-10
670.793	1	3
670.962	1	-1
671.132	1	-6
671.301	1	5
671.470	1	-3
671.640	1	-4
671.809	1	-13
671.979	1	4
672.148	1	12
672.317	1	6
672.487	1	-7
672.656	1	-6
672.826	1	-1
672.995	1	4
673.164	1	-10
673.334	1	9
673.503	1	1
673.673	1	7
673.842	1	8
674.011	1	12
674.181	1	6
674.350	1	5
674.520	1	-1
674.689	1	-8
674.858	1	-4
675.028	1	13
675.197	1	1
675.367	1	-4
675.536	1	6
675.705	1	4
675.875	1	1
676.044	1	-1
676.214	1	7
676.383	1	11
676.552	1	3
676.722	1	3
676.891	1	12
677.060	1	3
677.230	1	8
677.399	1	-3
677.569	1	5
677.738	1	-4
677.907	1	-3
678.077	1	-3
678.246	1	3
678.416	1	5
678.585	1	-4
678.754	1	11
678.924	1	13
679.093	1	1
679.262	1	5
679.432	1	1
679.601	1	-1
679.771	1	-4
679.940	1	10
680.109	1	-3
680.279	1	7
680.448	1	8
680.617	1	7
680.787	1	2
680.956	1	4
681.125	1	11
681.295	1	-4
681.464	1	-8
681.634	1	6
681.803	1	4
681.972	1	-1
682.142	1	-1
682.311	1	1
682.480	1	8
682.650	1	1
682.819	1	4
682.988	1	-2
683.158	1	10
683.327	1	-1
683.496	1	-2
683.666	1	10
683.835	1	2
684.004	1	8
684.174	1	-1
684.343	1	8
684.512	1	-1
684.682	1	5
684.851	1	-2
685.021	1	0
685.190	1	4
685.359	1	3
685.529	1	9
685.698	1	3
685.867	1	0
686.037	1	2
686.206	1	-2
686.375	1	-3
686.545	1	11
686.714	1	-5
686.883	1	6
687.053	1	3
687.222	1	0
687.391	1	3
687.561	1	15
687.730	1	1
687.899	1	0
688.069	1	13
688.238	1	1
688.407	1	0
688.577	1	5
688.746	1	5
