340.368	1	5
340.539	1	6
340.710	1	3
340.881	1	3
341.052	1	0
341.223	1	9
341.394	1	-7
341.565	1	9
341.737	1	10
341.908	1	-8
342.079	1	-8
342.250	1	0
342.421	1	-2
342.592	1	11
342.763	1	5
342.934	1	-3
343.105	1	5
343.276	1	1
343.447	1	-10
343.618	1	-6
343.789	1	1
343.960	1	6
344.131	1	-3
344.302	1	-6
344.473	1	4
344.644	1	0
344.815	1	-10
344.986	1	4
345.157	1	14
345.328	1	-5
345.499	1	11
345.670	1	-7
345.841	1	4
346.012	1	0
346.183	1	6
346.354	1	4
346.526	1	4
346.697	1	-1
346.868	1	-5
347.039	1	-6
347.210	1	2
347.381	1	-1
347.552	1	2
347.723	1	-3
347.894	1	0
348.065	1	2
348.236	1	1
348.407	1	-5
348.578	1	1
348.749	1	-3
348.920	1	1
349.091	1	0
349.262	1	2
349.433	1	-2
349.604	1	5
349.775	1	3
349.946	1	-6
350.117	1	0
350.288	1	8
350.459	1	-8
350.630	1	9
350.801	1	4
350.972	1	1
351.143	1	2
351.314	1	0
351.485	1	1
351.656	1	-1
351.827	1	9
351.998	1	4
352.169	1	2
352.340	1	-1
352.511	1	-1
352.682	1	0
352.853	1	-1
353.024	1	-4
353.195	1	-1
353.366	1	-7
353.537	1	5
353.708	1	6
353.879	1	-10
354.050	1	-2
354.221	1	2
354.392	1	11
354.563	1	7
354.734	1	11
354.905	1	-3
355.076	1	0
355.247	1	0
355.418	1	5
355.589	1	-4
355.760	1	4
355.931	1	7
356.102	1	-8
356.273	1	2
356.444	1	1
356.615	1	6
356.785	1	1
356.956	1	13
357.127	1	12
357.298	1	10
357.469	1	7
357.640	1	-1
357.811	1	-3
357.982	1	-2
358.153	1	4
358.324	1	9
358.495	1	4
358.666	1	8
358.837	1	5
359.008	1	10
359.179	1	7
359.350	1	-3
359.521	1	13
359.692	1	8
359.863	1	9
360.034	1	14
360.205	1	3
360.376	1	7
360.547	1	0
360.718	1	18
360.889	1	3
361.060	1	4
361.231	1	-2
361.401	1	6
361.572	1	0
361.743	1	5
361.914	1	19
362.085	1	8
362.256	1	7
362.427	1	-5
362.598	1	9
362.769	1	2
362.940	1	2
363.111	1	21
363.282	1	3
363.453	1	3
363.624	1	10
363.795	1	13
363.966	1	1
364.137	1	12
364.308	1	19
364.478	1	9
364.649	1	13
364.820	1	11
364.991	1	26
365.162	1	0
365.333	1	6
365.504	1	9
365.675	1	5
365.846	1	8
366.017	1	15
366.188	1	6
366.359	1	20
366.530	1	20
366.701	1	20
366.871	1	9
367.042	1	29
367.213	1	17
367.384	1	9
367.555	1	20
367.726	1	12
367.897	1	24
368.068	1	19
368.239	1	19
368.410	1	22
368.581	1	11
368.752	1	25
368.923	1	19
369.093	1	12
369.264	1	8
369.435	1	13
369.606	1	16
369.777	1	21
369.948	1	13
370.119	1	12
370.290	1	2
370.461	1	13
370.632	1	21
370.803	1	23
370.973	1	2
371.144	1	5
371.315	1	2
371.486	1	10
371.657	1	1
371.828	1	16
371.999	1	13
372.170	1	18
372.341	1	5
372.512	1	8
372.682	1	8
372.853	1	-3
373.024	1	10
373.195	1	3
373.366	1	1
373.537	1	17
373.708	1	2
373.879	1	11
374.050	1	6
374.220	1	-2
374.391	1	2
374.562	1	1
374.733	1	3
374.904	1	12
375.075	1	7
375.246	1	0
375.417	1	15
375.588	1	12
375.758	1	-1
375.929	1	4
376.100	1	7
376.271	1	2
376.442	1	1
376.613	1	0
376.784	1	21
376.955	1	6
377.125	1	12
377.296	1	3
377.467	1	2
377.638	1	4
377.809	1	1
377.980	1	10
378.151	1	5
378.321	1	10
378.492	1	13
378.663	1	1
378.834	1	24
379.005	1	1
379.176	1	-3
379.347	1	1
379.518	1	9
379.688	1	5
379.859	1	3
380.030	1	10
380.201	1	22
380.372	1	5
380.543	1	9
380.714	1	-2
380.884	1	9
381.055	1	-3
381.226	1	9
381.397	1	10
381.568	1	18
381.739	1	2
381.910	1	-2
382.080	1	2
382.251	1	5
382.422	1	0
382.593	1	1
382.764	1	-2
382.935	1	1
383.105	1	3
383.276	1	-1
383.447	1	6
383.618	1	9
383.789	1	3
383.960	1	-4
384.130	1	2
384.301	1	10
384.472	1	2
384.643	1	7
384.814	1	17
384.985	1	1
385.156	1	20
385.326	1	12
385.497	1	8
385.668	1	9
385.839	1	10
386.010	1	11
386.180	1	2
386.351	1	5
386.522	1	11
386.693	1	11
386.864	1	14
387.035	1	15
387.205	1	5
387.376	1	6
387.547	1	17
387.718	1	7
387.889	1	6
388.060	1	24
388.230	1	12
388.401	1	5
388.572	1	10
388.743	1	21
388.914	1	2
389.084	1	17
389.255	1	9
389.426	1	2
389.597	1	17
389.768	1	5
389.939	1	12
390.109	1	3
390.280	1	3
390.451	1	13
390.622	1	9
390.793	1	18
390.963	1	6
391.134	1	6
391.305	1	3
391.476	1	17
391.647	1	9
391.817	1	0
391.988	1	-3
392.159	1	11
392.330	1	2
392.501	1	9
392.671	1	8
392.842	1	6
393.013	1	12
393.184	1	9
393.355	1	6
393.525	1	10
393.696	1	11
393.867	1	6
394.038	1	-4
394.208	1	14
394.379	1	4
394.550	1	2
394.721	1	7
394.892	1	5
395.062	1	5
395.233	1	6
395.404	1	5
395.575	1	7
395.746	1	6
395.916	1	5
396.087	1	2
396.258	1	17
396.429	1	13
396.599	1	11
396.770	1	15
396.941	1	12
397.112	1	3
397.283	1	-5
397.453	1	17
397.624	1	13
397.795	1	-1
397.966	1	16
398.136	1	9
398.307	1	13
398.478	1	7
398.649	1	4
398.819	1	15
398.990	1	2
399.161	1	4
399.332	1	7
399.503	1	11
399.673	1	-12
399.844	1	1
400.015	1	-2
400.186	1	3
400.356	1	17
400.527	1	14
400.698	1	-1
400.869	1	-5
401.039	1	-9
401.210	1	3
401.381	1	1
401.552	1	1
401.722	1	1
401.893	1	11
402.064	1	7
402.235	1	3
402.405	1	-3
402.576	1	0
402.747	1	9
402.918	1	2
403.088	1	1
403.259	1	6
403.430	1	8
403.601	1	3
403.771	1	21
403.942	1	8
404.113	1	12
404.284	1	-5
404.454	1	0
404.625	1	0
404.796	1	-5
404.967	1	0
405.137	1	5
405.308	1	9
405.479	1	11
405.649	1	11
405.820	1	15
405.991	1	0
406.162	1	6
406.332	1	-2
406.503	1	-3
406.674	1	8
406.845	1	9
407.015	1	3
407.186	1	16
407.357	1	9
407.527	1	-3
407.698	1	11
407.869	1	2
408.040	1	11
408.210	1	17
408.381	1	5
408.552	1	3
408.722	1	-2
408.893	1	5
409.064	1	2
409.235	1	-1
409.405	1	18
409.576	1	11
409.747	1	6
409.917	1	7
410.088	1	5
410.259	1	2
410.430	1	3
410.600	1	-3
410.771	1	8
410.942	1	7
411.112	1	-3
411.283	1	3
411.454	1	6
411.625	1	-2
411.795	1	8
411.966	1	11
412.137	1	5
412.307	1	-1
412.478	1	10
412.649	1	-6
412.819	1	6
412.990	1	0
413.161	1	-5
413.332	1	1
413.502	1	-2
413.673	1	23
413.844	1	11
414.014	1	0
414.185	1	-2
414.356	1	-2
414.526	1	3
414.697	1	6
414.868	1	9
415.038	1	2
415.209	1	-2
415.380	1	11
415.550	1	2
415.721	1	-3
415.892	1	-1
416.063	1	8
416.233	1	-1
416.404	1	-1
416.575	1	-6
416.745	1	-1
416.916	1	-1
417.087	1	11
417.257	1	11
417.428	1	-1
417.599	1	8
417.769	1	-3
417.940	1	6
418.111	1	-3
418.281	1	-6
418.452	1	6
418.623	1	0
418.793	1	-2
418.964	1	1
419.135	1	14
419.305	1	3
419.476	1	0
419.647	1	5
419.817	1	13
419.988	1	-9
420.159	1	5
420.329	1	-2
420.500	1	24
420.671	1	-4
420.841	1	2
421.012	1	1
421.183	1	8
421.353	1	-3
421.524	1	7
421.695	1	4
421.865	1	13
422.036	1	-11
422.206	1	14
422.377	1	-1
422.548	1	6
422.718	1	1
422.889	1	-3
423.060	1	-7
423.230	1	5
423.401	1	2
423.572	1	23
423.742	1	5
423.913	1	2
424.084	1	6
424.254	1	-5
424.425	1	-11
424.595	1	-3
424.766	1	-7
424.937	1	12
425.107	1	4
425.278	1	-4
425.449	1	-2
425.619	1	4
425.790	1	7
425.961	1	1
426.131	1	-6
426.302	1	5
426.472	1	-3
426.643	1	-1
426.814	1	-9
426.984	1	8
427.155	1	-3
427.326	1	-3
427.496	1	2
427.667	1	5
427.837	1	-2
428.008	1	2
428.179	1	0
428.349	1	-7
428.520	1	8
428.691	1	-1
428.861	1	-2
429.032	1	0
429.202	1	7
429.373	1	4
429.544	1	4
429.714	1	-5
429.885	1	-1
430.055	1	1
430.226	1	3
430.397	1	-3
430.567	1	4
430.738	1	-6
430.909	1	-4
431.079	1	-3
431.250	1	-4
431.420	1	1
431.591	1	3
431.762	1	3
431.932	1	-8
432.103	1	1
432.273	1	1
432.444	1	-9
432.615	1	-5
432.785	1	-2
432.956	1	1
433.126	1	-1
433.297	1	5
433.468	1	10
433.638	1	2
433.809	1	-1
433.979	1	-4
434.150	1	6
434.320	1	5
434.491	1	3
434.662	1	3
434.832	1	5
435.003	1	8
435.173	1	10
435.344	1	-4
435.515	1	-7
435.685	1	0
435.856	1	-1
436.026	1	-10
436.197	1	-3
436.368	1	1
436.538	1	-9
436.709	1	-3
436.879	1	-4
437.050	1	9
437.220	1	-13
437.391	1	5
437.562	1	7
437.732	1	5
437.903	1	-9
438.073	1	-3
438.244	1	-3
438.414	1	4
438.585	1	-2
438.756	1	4
438.926	1	-1
439.097	1	15
439.267	1	-5
439.438	1	3
439.608	1	8
439.779	1	-1
439.949	1	-2
440.120	1	-6
440.291	1	-1
440.461	1	2
440.632	1	20
440.802	1	6
440.973	1	5
441.143	1	-1
441.314	1	-4
441.485	1	3
441.655	1	-2
441.826	1	-11
441.996	1	-3
442.167	1	6
442.337	1	5
442.508	1	1
442.678	1	-3
442.849	1	-6
443.019	1	6
443.190	1	13
443.361	1	9
443.531	1	9
443.702	1	-8
443.872	1	8
444.043	1	1
444.213	1	8
444.384	1	6
444.554	1	-8
444.725	1	-5
444.895	1	0
445.066	1	3
445.237	1	-1
445.407	1	3
445.578	1	7
445.748	1	3
445.919	1	-7
446.089	1	2
446.260	1	-6
446.430	1	-4
446.601	1	9
446.771	1	-9
446.942	1	0
447.112	1	11
447.283	1	-7
447.453	1	1
447.624	1	-6
447.794	1	5
447.965	1	-3
448.135	1	2
448.306	1	-4
448.477	1	3
448.647	1	-5
448.818	1	-4
448.988	1	-6
449.159	1	0
449.329	1	2
449.500	1	-4
449.670	1	-2
449.841	1	1
450.011	1	5
450.182	1	-9
450.352	1	6
450.523	1	2
450.693	1	5
450.864	1	-2
451.034	1	7
451.205	1	0
451.375	1	1
451.546	1	-11
451.716	1	3
451.887	1	0
452.057	1	0
452.228	1	6
452.398	1	6
452.569	1	3
452.739	1	-2
452.910	1	-5
453.080	1	1
453.251	1	0
453.421	1	-4
453.592	1	15
453.762	1	4
453.933	1	-7
454.103	1	3
454.274	1	-10
454.444	1	-1
454.615	1	2
454.785	1	-3
454.956	1	2
455.126	1	-2
455.297	1	0
455.467	1	-8
455.638	1	2
455.808	1	-2
455.979	1	-6
456.149	1	-5
456.320	1	5
456.490	1	-2
456.661	1	-2
456.831	1	1
457.001	1	3
457.172	1	4
457.342	1	1
457.513	1	5
457.683	1	-3
457.854	1	-3
458.024	1	-8
458.195	1	-9
458.365	1	14
458.536	1	-2
458.706	1	7
458.877	1	2
459.047	1	5
459.218	1	-7
459.388	1	4
459.559	1	-1
459.729	1	-7
459.899	1	-12
460.070	1	1
460.240	1	2
460.411	1	4
460.581	1	4
460.752	1	-7
460.922	1	11
461.093	1	-2
461.263	1	3
461.434	1	1
461.604	1	-1
461.775	1	-2
461.945	1	-1
462.115	1	6
462.286	1	3
462.456	1	0
462.627	1	8
462.797	1	-11
462.968	1	-6
463.138	1	-1
463.309	1	3
463.479	1	6
463.649	1	-5
463.820	1	1
463.990	1	-4
464.161	1	6
464.331	1	11
464.502	1	10
464.672	1	-13
464.843	1	-3
465.013	1	-10
465.183	1	-2
465.354	1	7
465.524	1	-8
465.695	1	13
465.865	1	5
466.036	1	1
466.206	1	1
466.376	1	-8
466.547	1	-3
466.717	1	-4
466.888	1	-2
467.058	1	6
467.229	1	6
467.399	1	3
467.569	1	10
467.740	1	10
467.910	1	2
468.081	1	6
468.251	1	3
468.422	1	1
468.592	1	-4
468.762	1	-17
468.933	1	3
469.103	1	6
469.274	1	2
469.444	1	12
469.614	1	5
469.785	1	7
469.955	1	-1
470.126	1	5
470.296	1	1
470.467	1	-10
470.637	1	3
470.807	1	14
470.978	1	5
471.148	1	3
471.319	1	-6
471.489	1	-6
471.659	1	4
471.830	1	0
472.000	1	4
472.171	1	-2
472.341	1	-4
472.511	1	8
472.682	1	-3
472.852	1	-2
473.023	1	1
473.193	1	3
473.363	1	-2
473.534	1	-8
473.704	1	-3
473.875	1	-1
474.045	1	5
474.215	1	10
474.386	1	12
474.556	1	3
474.727	1	-9
474.897	1	-2
475.067	1	-14
475.238	1	-9
475.408	1	2
475.578	1	6
475.749	1	8
475.919	1	-5
476.090	1	5
476.260	1	0
476.430	1	8
476.601	1	7
476.771	1	-12
476.942	1	2
477.112	1	-8
477.282	1	4
477.453	1	7
477.623	1	6
477.793	1	-4
477.964	1	-3
478.134	1	6
478.305	1	0
478.475	1	-4
478.645	1	2
478.816	1	9
478.986	1	3
479.156	1	-3
479.327	1	-6
479.497	1	-6
479.667	1	4
479.838	1	-13
480.008	1	4
480.179	1	-13
480.349	1	6
480.519	1	3
480.690	1	-10
480.860	1	-2
481.030	1	11
481.201	1	-2
481.371	1	9
481.541	1	6
481.712	1	0
481.882	1	-2
482.053	1	4
482.223	1	-4
482.393	1	0
482.564	1	7
482.734	1	4
482.904	1	3
483.075	1	1
483.245	1	4
483.415	1	-2
483.586	1	-1
483.756	1	14
483.926	1	-6
484.097	1	3
484.267	1	-6
484.437	1	5
484.608	1	4
484.778	1	-2
484.948	1	1
485.119	1	-8
485.289	1	-2
485.459	1	6
485.630	1	2
485.800	1	4
485.970	1	-11
486.141	1	5
486.311	1	3
486.481	1	-4
486.652	1	-2
486.822	1	-7
486.992	1	9
487.163	1	1
487.333	1	-1
487.503	1	-2
487.674	1	-8
487.844	1	1
488.014	1	4
488.185	1	5
488.355	1	-4
488.525	1	4
488.696	1	2
488.866	1	-8
489.036	1	14
489.207	1	0
489.377	1	-4
489.547	1	-1
489.718	1	5
489.888	1	4
490.058	1	8
490.228	1	-5
490.399	1	5
490.569	1	3
490.739	1	0
490.910	1	-8
491.080	1	-1
491.250	1	-1
491.421	1	1
491.591	1	-5
491.761	1	-4
491.932	1	8
492.102	1	-1
492.272	1	-1
492.442	1	7
492.613	1	0
492.783	1	9
492.953	1	0
493.124	1	13
493.294	1	6
493.464	1	3
493.635	1	1
493.805	1	8
493.975	1	-3
494.145	1	9
494.316	1	5
494.486	1	-1
494.656	1	-6
494.827	1	6
494.997	1	-5
495.167	1	-6
495.337	1	-1
495.508	1	0
495.678	1	5
495.848	1	9
496.019	1	8
496.189	1	4
496.359	1	-9
496.529	1	3
496.700	1	-3
496.870	1	5
497.040	1	-5
497.211	1	2
497.381	1	-4
497.551	1	7
497.721	1	0
497.892	1	4
498.062	1	5
498.232	1	4
498.403	1	2
498.573	1	-1
498.743	1	7
498.913	1	5
499.084	1	-7
499.254	1	-4
499.424	1	2
499.594	1	3
499.765	1	-7
499.935	1	-7
500.105	1	10
500.275	1	0
500.446	1	1
500.616	1	-1
500.786	1	10
500.956	1	6
501.127	1	3
501.297	1	1
501.467	1	3
501.638	1	14
501.808	1	-3
501.978	1	2
502.148	1	-8
502.319	1	9
502.489	1	0
502.659	1	19
502.829	1	3
503.000	1	2
503.170	1	4
503.340	1	5
503.510	1	-9
503.681	1	-1
503.851	1	7
504.021	1	9
504.191	1	5
504.362	1	-1
504.532	1	7
504.702	1	2
504.872	1	-3
505.042	1	5
505.213	1	0
505.383	1	5
505.553	1	5
505.723	1	15
505.894	1	0
506.064	1	2
506.234	1	7
506.404	1	1
506.575	1	-6
506.745	1	11
506.915	1	1
507.085	1	-3
507.256	1	2
507.426	1	3
507.596	1	7
507.766	1	5
507.936	1	-4
508.107	1	10
508.277	1	-7
508.447	1	0
508.617	1	2
508.788	1	5
508.958	1	10
509.128	1	8
509.298	1	4
509.468	1	13
509.639	1	-2
509.809	1	4
509.979	1	17
510.149	1	15
510.319	1	-2
510.490	1	-3
510.660	1	2
510.830	1	8
511.000	1	4
511.171	1	7
511.341	1	8
511.511	1	0
511.681	1	17
511.851	1	8
512.022	1	-3
512.192	1	11
512.362	1	-8
512.532	1	-1
512.702	1	11
512.873	1	13
513.043	1	14
513.213	1	13
513.383	1	1
513.553	1	16
513.724	1	-5
513.894	1	-5
514.064	1	11
514.234	1	11
514.404	1	11
514.575	1	-1
514.745	1	0
514.915	1	-7
515.085	1	5
515.255	1	5
515.425	1	1
515.596	1	12
515.766	1	7
515.936	1	8
516.106	1	15
516.276	1	5
516.447	1	11
516.617	1	11
516.787	1	1
516.957	1	7
517.127	1	9
517.297	1	1
517.468	1	1
517.638	1	-7
517.808	1	10
517.978	1	9
518.148	1	1
518.319	1	9
518.489	1	-6
518.659	1	-2
518.829	1	5
518.999	1	8
519.169	1	1
519.340	1	16
519.510	1	6
519.680	1	8
519.850	1	4
520.020	1	12
520.190	1	7
520.361	1	2
520.531	1	6
520.701	1	2
520.871	1	-1
521.041	1	12
521.211	1	11
521.382	1	10
521.552	1	-3
521.722	1	10
521.892	1	7
522.062	1	-1
522.232	1	15
522.402	1	5
522.573	1	-3
522.743	1	9
522.913	1	13
523.083	1	7
523.253	1	6
523.423	1	5
523.593	1	2
523.764	1	10
523.934	1	6
524.104	1	8
524.274	1	0
524.444	1	10
524.614	1	1
524.784	1	8
524.955	1	18
525.125	1	11
525.295	1	11
525.465	1	6
525.635	1	2
525.805	1	8
525.975	1	-8
526.146	1	-2
526.316	1	6
526.486	1	7
526.656	1	4
526.826	1	7
526.996	1	1
527.166	1	1
527.337	1	-2
527.507	1	3
527.677	1	14
527.847	1	8
528.017	1	3
528.187	1	11
528.357	1	9
528.527	1	4
528.698	1	2
528.868	1	8
529.038	1	7
529.208	1	-5
529.378	1	9
529.548	1	4
529.718	1	3
529.888	1	7
530.058	1	12
530.229	1	6
530.399	1	-5
530.569	1	-1
530.739	1	-1
530.909	1	-3
531.079	1	-6
531.249	1	7
531.419	1	10
531.589	1	12
531.760	1	2
531.930	1	10
532.100	1	4
532.270	1	17
532.440	1	6
532.610	1	7
532.780	1	11
532.950	1	13
533.120	1	19
533.290	1	3
533.461	1	-3
533.631	1	3
533.801	1	12
533.971	1	0
534.141	1	11
534.311	1	6
534.481	1	9
534.651	1	1
534.821	1	3
534.991	1	1
535.162	1	3
535.332	1	14
535.502	1	0
535.672	1	4
535.842	1	9
536.012	1	-2
536.182	1	11
536.352	1	3
536.522	1	-2
536.692	1	4
536.862	1	7
537.032	1	-7
537.203	1	0
537.373	1	6
537.543	1	-3
537.713	1	9
537.883	1	2
538.053	1	12
538.223	1	1
538.393	1	11
538.563	1	13
538.733	1	5
538.903	1	5
539.073	1	9
539.243	1	5
539.413	1	20
539.584	1	3
539.754	1	15
539.924	1	11
540.094	1	-7
540.264	1	-2
540.434	1	9
540.604	1	8
540.774	1	11
540.944	1	5
541.114	1	6
541.284	1	-1
541.454	1	6
541.624	1	5
541.794	1	8
541.964	1	-4
542.134	1	11
542.305	1	7
542.475	1	6
542.645	1	7
542.815	1	-5
542.985	1	4
543.155	1	-21
543.325	1	13
543.495	1	7
543.665	1	-3
543.835	1	-4
544.005	1	7
544.175	1	3
544.345	1	0
544.515	1	0
544.685	1	15
544.855	1	5
545.025	1	-3
545.195	1	-2
545.365	1	3
545.535	1	7
545.705	1	7
545.875	1	1
546.045	1	6
546.216	1	-3
546.386	1	5
546.556	1	-3
546.726	1	5
546.896	1	-1
547.066	1	8
547.236	1	9
547.406	1	1
547.576	1	14
547.746	1	13
547.916	1	9
548.086	1	16
548.256	1	1
548.426	1	-1
548.596	1	0
548.766	1	14
548.936	1	9
549.106	1	11
549.276	1	12
549.446	1	-2
549.616	1	7
549.786	1	-6
549.956	1	-3
550.126	1	1
550.296	1	13
550.466	1	7
550.636	1	11
550.806	1	16
550.976	1	3
551.146	1	-2
551.316	1	-1
551.486	1	13
551.656	1	8
551.826	1	15
551.996	1	4
552.166	1	7
552.336	1	2
552.506	1	20
552.676	1	4
552.846	1	-4
553.016	1	10
553.186	1	3
553.356	1	2
553.526	1	-1
553.696	1	16
553.866	1	15
554.036	1	8
554.206	1	2
554.376	1	-4
554.546	1	7
554.716	1	1
554.886	1	7
555.056	1	6
555.226	1	3
555.396	1	-4
555.566	1	5
555.736	1	10
555.906	1	8
556.076	1	7
556.246	1	1
556.416	1	-9
556.586	1	-15
556.756	1	-7
556.926	1	-1
557.096	1	7
557.266	1	1
557.436	1	12
557.606	1	5
557.776	1	14
557.946	1	0
558.116	1	10
558.286	1	1
558.456	1	-2
558.626	1	-13
558.796	1	-2
558.966	1	0
559.136	1	2
559.306	1	6
559.476	1	9
559.646	1	9
559.816	1	5
559.986	1	-6
560.155	1	15
560.325	1	-4
560.495	1	6
560.665	1	-4
560.835	1	10
561.005	1	9
561.175	1	1
561.345	1	0
561.515	1	-1
561.685	1	-4
561.855	1	6
562.025	1	8
562.195	1	5
562.365	1	6
562.535	1	10
562.705	1	0
562.875	1	6
563.045	1	-8
563.215	1	-2
563.385	1	-3
563.555	1	-5
563.725	1	10
563.895	1	4
564.064	1	-8
564.234	1	10
564.404	1	-2
564.574	1	12
564.744	1	10
564.914	1	8
565.084	1	-5
565.254	1	14
565.424	1	4
565.594	1	-3
565.764	1	-3
565.934	1	10
566.104	1	-2
566.274	1	15
566.444	1	2
566.614	1	6
566.783	1	6
566.953	1	10
567.123	1	0
567.293	1	-1
567.463	1	1
567.633	1	1
567.803	1	12
567.973	1	12
568.143	1	6
568.313	1	5
568.483	1	11
568.653	1	-4
568.823	1	-3
568.993	1	-1
569.162	1	-5
569.332	1	7
569.502	1	5
569.672	1	3
569.842	1	-2
570.012	1	11
570.182	1	-2
570.352	1	2
570.522	1	-1
570.692	1	2
570.862	1	7
571.031	1	-3
571.201	1	5
571.371	1	2
571.541	1	14
571.711	1	6
571.881	1	7
572.051	1	-7
572.221	1	1
572.391	1	13
572.561	1	6
572.731	1	3
572.900	1	-5
573.070	1	13
573.240	1	-3
573.410	1	-1
573.580	1	-4
573.750	1	0
573.920	1	2
574.090	1	10
574.260	1	-1
574.430	1	8
574.599	1	1
574.769	1	-2
574.939	1	-5
575.109	1	0
575.279	1	7
575.449	1	11
575.619	1	1
575.789	1	3
575.959	1	5
576.128	1	4
576.298	1	1
576.468	1	11
576.638	1	-2
576.808	1	-1
576.978	1	-3
577.148	1	3
577.318	1	24
577.487	1	6
577.657	1	11
577.827	1	1
577.997	1	-4
578.167	1	-7
578.337	1	-3
578.507	1	9
578.677	1	-2
578.846	1	7
579.016	1	-1
579.186	1	11
579.356	1	0
579.526	1	1
579.696	1	11
579.866	1	-2
580.036	1	0
580.205	1	-5
580.375	1	13
580.545	1	-2
580.715	1	-13
580.885	1	8
581.055	1	-3
581.225	1	-3
581.394	1	-6
581.564	1	2
581.734	1	-1
581.904	1	1
582.074	1	1
582.244	1	2
582.414	1	8
582.583	1	-4
582.753	1	10
582.923	1	1
583.093	1	6
583.263	1	4
583.433	1	6
583.603	1	-10
583.772	1	-5
583.942	1	16
584.112	1	1
584.282	1	3
584.452	1	1
584.622	1	6
584.791	1	-2
584.961	1	-10
585.131	1	7
585.301	1	6
585.471	1	-6
585.641	1	4
585.811	1	5
585.980	1	-7
586.150	1	-11
586.320	1	0
586.490	1	2
586.660	1	15
586.830	1	-1
586.999	1	-4
587.169	1	17
587.339	1	-4
587.509	1	7
587.679	1	1
587.849	1	13
588.018	1	-18
588.188	1	7
588.358	1	1
588.528	1	1
588.698	1	-11
588.867	1	-1
589.037	1	1
589.207	1	2
589.377	1	-2
589.547	1	9
589.717	1	-4
589.886	1	-7
590.056	1	-2
590.226	1	-3
590.396	1	0
590.566	1	-4
590.735	1	-10
590.905	1	10
591.075	1	-3
591.245	1	3
591.415	1	1
591.585	1	6
591.754	1	4
591.924	1	14
592.094	1	3
592.264	1	-7
592.434	1	3
592.603	1	1
592.773	1	0
592.943	1	2
593.113	1	-8
593.283	1	-1
593.452	1	-7
593.622	1	1
593.792	1	2
593.962	1	9
594.132	1	7
594.301	1	4
594.471	1	-2
594.641	1	-11
594.811	1	-6
594.981	1	-1
595.150	1	5
595.320	1	-4
595.490	1	-3
595.660	1	2
595.829	1	-2
595.999	1	-3
596.169	1	2
596.339	1	12
596.509	1	2
596.678	1	6
596.848	1	14
597.018	1	2
597.188	1	-5
597.358	1	1
597.527	1	-2
597.697	1	2
597.867	1	-2
598.037	1	9
598.206	1	19
598.376	1	-3
598.546	1	6
598.716	1	-2
598.885	1	2
599.055	1	3
599.225	1	6
599.395	1	6
599.565	1	7
599.734	1	1
599.904	1	-6
600.074	1	11
600.244	1	5
600.413	1	-1
600.583	1	-3
600.753	1	8
600.923	1	-8
601.092	1	6
601.262	1	1
601.432	1	9
601.602	1	14
601.771	1	-1
601.941	1	10
602.111	1	8
602.281	1	1
602.451	1	-6
602.620	1	6
602.790	1	-4
602.960	1	-2
603.130	1	-4
603.299	1	-4
603.469	1	2
603.639	1	-10
603.809	1	5
603.978	1	-2
604.148	1	4
604.318	1	2
604.487	1	5
604.657	1	-13
604.827	1	8
604.997	1	9
605.166	1	0
605.336	1	-3
605.506	1	2
605.676	1	11
605.845	1	6
606.015	1	-1
606.185	1	-7
606.355	1	0
606.524	1	9
606.694	1	5
606.864	1	0
607.034	1	9
607.203	1	10
607.373	1	4
607.543	1	1
607.712	1	-3
607.882	1	-1
608.052	1	-9
608.222	1	6
608.391	1	17
608.561	1	0
608.731	1	-2
608.901	1	4
609.070	1	4
609.240	1	-1
609.410	1	0
609.579	1	2
609.749	1	11
609.919	1	-7
610.089	1	-4
610.258	1	3
610.428	1	8
610.598	1	2
610.767	1	3
610.937	1	2
611.107	1	-6
611.277	1	-10
611.446	1	-2
611.616	1	7
611.786	1	0
611.955	1	-6
612.125	1	8
612.295	1	1
612.465	1	-4
612.634	1	4
612.804	1	9
612.974	1	-1
613.143	1	-1
613.313	1	3
613.483	1	2
613.652	1	8
613.822	1	6
613.992	1	-4
614.162	1	7
614.331	1	-7
614.501	1	2
614.671	1	4
614.840	1	2
615.010	1	1
615.180	1	4
615.349	1	17
615.519	1	-5
615.689	1	-5
615.858	1	13
616.028	1	4
616.198	1	1
616.368	1	6
616.537	1	4
616.707	1	-2
616.877	1	4
617.046	1	13
617.216	1	6
617.386	1	6
617.555	1	-8
617.725	1	6
617.895	1	1
618.064	1	0
618.234	1	0
618.404	1	-8
618.573	1	3
618.743	1	4
618.913	1	8
619.082	1	-2
619.252	1	6
619.422	1	-9
619.591	1	1
619.761	1	0
619.931	1	1
620.100	1	13
620.270	1	9
620.440	1	10
620.609	1	16
620.779	1	15
620.949	1	-1
621.118	1	-5
621.288	1	-5
621.458	1	10
621.627	1	0
621.797	1	-6
621.967	1	4
622.136	1	7
622.306	1	6
622.476	1	-9
622.645	1	1
622.815	1	-5
622.985	1	3
623.154	1	-1
623.324	1	3
623.494	1	-9
623.663	1	4
623.833	1	-1
624.002	1	1
624.172	1	-1
624.342	1	12
624.511	1	10
624.681	1	2
624.851	1	-7
625.020	1	4
625.190	1	-5
625.360	1	-3
625.529	1	-4
625.699	1	-8
625.869	1	7
626.038	1	-1
626.208	1	10
626.377	1	-6
626.547	1	-1
626.717	1	-8
626.886	1	-1
627.056	1	0
627.226	1	0
627.395	1	-6
627.565	1	1
627.735	1	4
627.904	1	5
628.074	1	8
628.243	1	4
628.413	1	-1
628.583	1	9
628.752	1	-2
628.922	1	5
629.091	1	4
629.261	1	8
629.431	1	-1
629.600	1	-6
629.770	1	5
629.940	1	-4
630.109	1	5
630.279	1	0
630.448	1	-4
630.618	1	11
630.788	1	1
630.957	1	8
631.127	1	-3
631.297	1	-2
631.466	1	-2
631.636	1	2
631.805	1	9
631.975	1	-3
632.145	1	2
632.314	1	-2
632.484	1	12
632.653	1	5
632.823	1	-4
632.993	1	9
633.162	1	-6
633.332	1	-3
633.501	1	-3
633.671	1	-6
633.841	1	-4
634.010	1	8
634.180	1	6
634.349	1	5
634.519	1	2
634.689	1	-5
634.858	1	-8
635.028	1	3
635.197	1	0
635.367	1	12
635.537	1	2
635.706	1	-4
635.876	1	1
636.045	1	-1
636.215	1	19
636.384	1	-1
636.554	1	10
636.724	1	0
636.893	1	-2
637.063	1	3
637.232	1	10
637.402	1	-4
637.572	1	9
637.741	1	6
637.911	1	-4
638.080	1	4
638.250	1	3
638.419	1	0
638.589	1	6
638.759	1	-3
638.928	1	6
639.098	1	6
639.267	1	5
639.437	1	6
639.606	1	9
639.776	1	5
639.946	1	11
640.115	1	3
640.285	1	10
640.454	1	5
640.624	1	6
640.793	1	0
640.963	1	-4
641.132	1	0
641.302	1	-1
641.472	1	4
641.641	1	2
641.811	1	3
641.980	1	1
642.150	1	6
642.319	1	4
642.489	1	-6
642.659	1	11
642.828	1	6
642.998	1	5
643.167	1	-3
643.337	1	-1
643.506	1	-3
643.676	1	-7
643.845	1	9
644.015	1	2
644.184	1	-8
644.354	1	2
644.524	1	-7
644.693	1	2
644.863	1	5
645.032	1	10
645.202	1	5
645.371	1	-4
645.541	1	-4
645.710	1	-8
645.880	1	0
646.049	1	3
646.219	1	-8
646.388	1	1
646.558	1	-1
646.728	1	-7
646.897	1	0
647.067	1	-1
647.236	1	16
647.406	1	5
647.575	1	9
647.745	1	8
647.914	1	-8
648.084	1	1
648.253	1	1
648.423	1	2
648.592	1	-15
648.762	1	9
648.931	1	7
649.101	1	-4
649.270	1	-2
649.440	1	4
649.610	1	-4
649.779	1	0
649.949	1	11
650.118	1	6
650.288	1	-2
650.457	1	6
650.627	1	-5
650.796	1	-4
650.966	1	-7
651.135	1	7
651.305	1	-4
651.474	1	11
651.644	1	13
651.813	1	7
651.983	1	-5
652.152	1	0
652.322	1	4
652.491	1	5
652.661	1	-1
652.830	1	-7
653.000	1	4
653.169	1	8
653.339	1	16
653.508	1	-5
653.678	1	6
653.847	1	3
654.017	1	3
654.186	1	-5
654.356	1	-9
654.525	1	-6
654.695	1	5
654.864	1	0
655.034	1	1
655.203	1	5
655.373	1	10
655.542	1	0
655.712	1	-2
655.881	1	1
656.051	1	3
656.220	1	3
656.390	1	7
656.559	1	-1
656.729	1	-2
656.898	1	5
657.068	1	2
657.237	1	1
657.406	1	4
657.576	1	7
657.745	1	5
657.915	1	-1
658.084	1	-6
658.254	1	-1
658.423	1	5
658.593	1	15
658.762	1	9
658.932	1	1
659.101	1	-2
659.271	1	-3
659.440	1	11
659.610	1	-2
659.779	1	3
659.949	1	1
660.118	1	1
660.288	1	-6
660.457	1	7
660.626	1	9
660.796	1	9
660.965	1	-6
661.135	1	-8
661.304	1	-7
661.474	1	-4
661.643	1	5
661.813	1	1
661.982	1	-6
662.152	1	4
662.321	1	-6
662.491	1	2
662.660	1	-1
662.829	1	6
662.999	1	0
663.168	1	-5
663.338	1	11
663.507	1	-1
663.677	1	5
663.846	1	-2
664.016	1	-4
664.185	1	-2
664.354	1	7
664.524	1	-3
664.693	1	7
664.863	1	-12
665.032	1	2
665.202	1	-9
665.371	1	-7
665.541	1	14
665.710	1	-2
665.879	1	-9
666.049	1	-6
666.218	1	1
666.388	1	3
666.557	1	9
666.727	1	-3
666.896	1	8
667.065	1	-5
667.235	1	20
667.404	1	2
667.574	1	-5
667.743	1	-5
667.913	1	8
668.082	1	5
668.251	1	-1
668.421	1	-1
668.590	1	-2
668.760	1	-1
668.929	1	3
669.099	1	-2
669.268	1	-1
669.437	1	-2
669.607	1	8
669.776	1	1
669.946	1	1
670.115	1	-25
670.285	1	5
670.454	1	2
670.623	1	-2
670.793	1	6
670.962	1	-2
671.132	1	8
671.301	1	2
671.470	1	-7
671.640	1	-3
671.809	1	-7
671.979	1	11
672.148	1	-6
672.317	1	7
672.487	1	1
672.656	1	-14
672.826	1	-3
672.995	1	8
673.164	1	-5
673.334	1	3
673.503	1	-12
673.673	1	-4
673.842	1	5
674.011	1	-1
674.181	1	8
674.350	1	0
674.520	1	1
674.689	1	0
674.858	1	-12
675.028	1	9
675.197	1	4
675.367	1	8
675.536	1	11
675.705	1	8
675.875	1	-2
676.044	1	-13
676.214	1	7
676.383	1	10
676.552	1	2
676.722	1	1
676.891	1	1
677.060	1	-5
677.230	1	11
677.399	1	-2
677.569	1	3
677.738	1	2
677.907	1	-8
678.077	1	3
678.246	1	0
678.416	1	-4
678.585	1	4
678.754	1	4
678.924	1	7
679.093	1	1
679.262	1	0
679.432	1	8
679.601	1	3
679.771	1	-5
679.940	1	8
680.109	1	-7
680.279	1	3
680.448	1	3
680.617	1	0
680.787	1	6
680.956	1	3
681.125	1	8
681.295	1	-2
681.464	1	-6
681.634	1	2
681.803	1	5
681.972	1	5
682.142	1	-3
682.311	1	-4
682.480	1	4
682.650	1	4
682.819	1	1
682.988	1	-11
683.158	1	-5
683.327	1	9
683.496	1	8
683.666	1	2
683.835	1	1
684.004	1	6
684.174	1	-2
684.343	1	3
684.512	1	-6
684.682	1	-2
684.851	1	5
685.021	1	-6
685.190	1	0
685.359	1	-8
685.529	1	5
685.698	1	2
685.867	1	12
686.037	1	6
686.206	1	-12
686.375	1	6
686.545	1	5
686.714	1	0
686.883	1	1
687.053	1	-4
687.222	1	-3
687.391	1	6
687.561	1	4
687.730	1	3
687.899	1	1
688.069	1	5
688.238	1	-1
688.407	1	16
688.577	1	-2
688.746	1	0
