340.368	1	6
340.539	1	6
340.710	1	7
340.881	1	-5
341.052	1	-2
341.223	1	14
341.394	1	5
341.565	1	-7
341.737	1	-2
341.908	1	-8
342.079	1	-6
342.250	1	-7
342.421	1	-5
342.592	1	-2
342.763	1	2
342.934	1	-2
343.105	1	-1
343.276	1	-4
343.447	1	-7
343.618	1	-4
343.789	1	-2
343.960	1	-4
344.131	1	4
344.302	1	-11
344.473	1	-3
344.644	1	-2
344.815	1	-7
344.986	1	5
345.157	1	0
345.328	1	-12
345.499	1	6
345.670	1	-1
345.841	1	-4
346.012	1	1
346.183	1	16
346.354	1	3
346.526	1	-6
346.697	1	2
346.868	1	-3
347.039	1	-5
347.210	1	2
347.381	1	-7
347.552	1	0
347.723	1	-5
347.894	1	2
348.065	1	9
348.236	1	4
348.407	1	2
348.578	1	-2
348.749	1	-9
348.920	1	-2
349.091	1	1
349.262	1	-5
349.433	1	1
349.604	1	1
349.775	1	6
349.946	1	0
350.117	1	6
350.288	1	5
350.459	1	-3
350.630	1	6
350.801	1	8
350.972	1	0
351.143	1	6
351.314	1	1
351.485	1	6
351.656	1	-3
351.827	1	-1
351.998	1	-3
352.169	1	-4
352.340	1	1
352.511	1	-6
352.682	1	-1
352.853	1	4
353.024	1	2
353.195	1	-1
353.366	1	-3
353.537	1	-1
353.708	1	4
353.879	1	-10
354.050	1	5
354.221	1	5
354.392	1	7
354.563	1	5
354.734	1	-2
354.905	1	6
355.076	1	4
355.247	1	-1
355.418	1	-8
355.589	1	3
355.760	1	6
355.931	1	3
356.102	1	0
356.273	1	-3
356.444	1	6
356.615	1	4
356.785	1	1
356.956	1	1
357.127	1	10
357.298	1	3
357.469	1	-5
357.640	1	-3
357.811	1	-4
357.982	1	-2
358.153	1	18
358.324	1	8
358.495	1	-4
358.666	1	0
358.837	1	-1
359.008	1	14
359.179	1	3
359.350	1	2
359.521	1	13
359.692	1	0
359.863	1	4
360.034	1	14
360.205	1	3
360.376	1	-4
360.547	1	-1
360.718	1	8
360.889	1	6
361.060	1	2
361.231	1	-1
361.401	1	-3
361.572	1	2
361.743	1	14
361.914	1	9
362.085	1	8
362.256	1	11
362.427	1	-3
362.598	1	1
362.769	1	5
362.940	1	4
363.111	1	8
363.282	1	-4
363.453	1	3
363.624	1	-1
363.795	1	7
363.966	1	5
364.137	1	14
364.308	1	5
364.478	1	16
364.649	1	9
364.820	1	10
364.991	1	10
365.162	1	5
365.333	1	4
365.504	1	3
365.675	1	6
365.846	1	6
366.017	1	4
366.188	1	5
366.359	1	6
366.530	1	21
366.701	1	1
366.871	1	12
367.042	1	11
367.213	1	13
367.384	1	-2
367.555	1	9
367.726	1	3
367.897	1	17
368.068	1	16
368.239	1	-3
368.410	1	6
368.581	1	11
368.752	1	14
368.923	1	8
369.093	1	9
369.264	1	5
369.435	1	15
369.606	1	11
369.777	1	15
369.948	1	7
370.119	1	3
370.290	1	-3
370.461	1	7
370.632	1	8
370.803	1	14
370.973	1	2
371.144	1	9
371.315	1	6
371.486	1	6
371.657	1	8
371.828	1	11
371.999	1	-5
372.170	1	7
372.341	1	4
372.512	1	7
372.682	1	1
372.853	1	-2
373.024	1	10
373.195	1	9
373.366	1	3
373.537	1	19
373.708	1	-3
373.879	1	3
374.050	1	3
374.220	1	1
374.391	1	4
374.562	1	-6
374.733	1	2
374.904	1	6
375.075	1	5
375.246	1	-7
375.417	1	2
375.588	1	10
375.758	1	-4
375.929	1	6
376.100	1	2
376.271	1	-2
376.442	1	-1
376.613	1	2
376.784	1	7
376.955	1	0
377.125	1	2
377.296	1	-1
377.467	1	4
377.638	1	5
377.809	1	3
377.980	1	7
378.151	1	11
378.321	1	2
378.492	1	10
378.663	1	0
378.834	1	15
379.005	1	-4
379.176	1	-5
379.347	1	5
379.518	1	2
379.688	1	-6
379.859	1	11
380.030	1	10
380.201	1	11
380.372	1	6
380.543	1	15
380.714	1	5
380.884	1	6
381.055	1	-5
381.226	1	3
381.397	1	4
381.568	1	7
381.739	1	-2
381.910	1	2
382.080	1	7
382.251	1	-3
382.422	1	5
382.593	1	5
382.764	1	-3
382.935	1	8
383.105	1	-9
383.276	1	4
383.447	1	1
383.618	1	3
383.789	1	0
383.960	1	-1
384.130	1	3
384.301	1	7
384.472	1	0
384.643	1	-1
384.814	1	8
384.985	1	-3
385.156	1	12
385.326	1	1
385.497	1	9
385.668	1	11
385.839	1	16
386.010	1	6
386.180	1	-1
386.351	1	0
386.522	1	13
386.693	1	12
386.864	1	11
387.035	1	9
387.205	1	7
387.376	1	15
387.547	1	11
387.718	1	-2
387.889	1	7
388.060	1	6
388.230	1	12
388.401	1	-1
388.572	1	11
388.743	1	7
388.914	1	-4
389.084	1	6
389.255	1	-6
389.426	1	2
389.597	1	12
389.768	1	9
389.939	1	2
390.109	1	7
390.280	1	1
390.451	1	7
390.622	1	9
390.793	1	12
390.963	1	-2
391.134	1	6
391.305	1	-1
391.476	1	16
391.647	1	2
391.817	1	13
391.988	1	-3
392.159	1	8
392.330	1	-7
392.501	1	7
392.671	1	0
392.842	1	7
393.013	1	7
393.184	1	2
393.355	1	7
393.525	1	4
393.696	1	-1
393.867	1	-2
394.038	1	3
394.208	1	4
394.379	1	2
394.550	1	3
394.721	1	-1
394.892	1	-6
395.062	1	10
395.233	1	6
395.404	1	7
395.575	1	-6
395.746	1	10
395.916	1	3
396.087	1	13
396.258	1	1
396.429	1	5
396.599	1	12
396.770	1	17
396.941	1	-3
397.112	1	-5
397.283	1	4
397.453	1	12
397.624	1	9
397.795	1	2
397.966	1	10
398.136	1	7
398.307	1	4
398.478	1	-3
398.649	1	8
398.819	1	2
398.990	1	5
399.161	1	6
399.332	1	11
399.503	1	9
399.673	1	-13
399.844	1	7
400.015	1	8
400.186	1	-1
400.356	1	14
400.527	1	6
400.698	1	9
400.869	1	-6
401.039	1	0
401.210	1	-2
401.381	1	-10
401.552	1	1
401.722	1	1
401.893	1	12
402.064	1	5
402.235	1	-1
402.405	1	4
402.576	1	-5
402.747	1	-2
402.918	1	9
403.088	1	1
403.259	1	-4
403.430	1	8
403.601	1	12
403.771	1	17
403.942	1	-1
404.113	1	4
404.284	1	8
404.454	1	9
404.625	1	2
404.796	1	1
404.967	1	-5
405.137	1	7
405.308	1	8
405.479	1	4
405.649	1	14
405.820	1	5
405.991	1	2
406.162	1	12
406.332	1	-11
406.503	1	-3
406.674	1	-14
406.845	1	8
407.015	1	2
407.186	1	1
407.357	1	7
407.527	1	3
407.698	1	6
407.869	1	14
408.040	1	11
408.210	1	6
408.381	1	-5
408.552	1	0
408.722	1	-2
408.893	1	-4
409.064	1	3
409.235	1	-9
409.405	1	9
409.576	1	6
409.747	1	4
409.917	1	-6
410.088	1	-13
410.259	1	7
410.430	1	-2
410.600	1	-10
410.771	1	-5
410.942	1	-3
411.112	1	5
411.283	1	5
411.454	1	4
411.625	1	-5
411.795	1	8
411.966	1	5
412.137	1	10
412.307	1	0
412.478	1	5
412.649	1	3
412.819	1	7
412.990	1	-7
413.161	1	-5
413.332	1	-8
413.502	1	-7
413.673	1	21
413.844	1	13
414.014	1	-2
414.185	1	7
414.356	1	4
414.526	1	-4
414.697	1	6
414.868	1	0
415.038	1	1
415.209	1	-6
415.380	1	8
415.550	1	-3
415.721	1	0
415.892	1	1
416.063	1	14
416.233	1	-2
416.404	1	1
416.575	1	7
416.745	1	0
416.916	1	-4
417.087	1	0
417.257	1	11
417.428	1	-2
417.599	1	7
417.769	1	-11
417.940	1	0
418.111	1	2
418.281	1	5
418.452	1	3
418.623	1	-6
418.793	1	8
418.964	1	2
419.135	1	9
419.305	1	-1
419.476	1	-3
419.647	1	11
419.817	1	2
419.988	1	-10
420.159	1	2
420.329	1	3
420.500	1	9
420.671	1	2
420.841	1	10
421.012	1	-1
421.183	1	-6
421.353	1	-3
421.524	1	9
421.695	1	-3
421.865	1	2
422.036	1	-11
422.206	1	-4
422.377	1	4
422.548	1	3
422.718	1	2
422.889	1	-9
423.060	1	-4
423.230	1	2
423.401	1	12
423.572	1	13
423.742	1	4
423.913	1	1
424.084	1	2
424.254	1	-5
424.425	1	-6
424.595	1	-8
424.766	1	-7
424.937	1	10
425.107	1	1
425.278	1	3
425.449	1	1
425.619	1	5
425.790	1	6
425.961	1	-3
426.131	1	2
426.302	1	3
426.472	1	5
426.643	1	-2
426.814	1	-3
426.984	1	2
427.155	1	-6
427.326	1	-3
427.496	1	-7
427.667	1	2
427.837	1	-3
428.008	1	1
428.179	1	-9
428.349	1	-7
428.520	1	7
428.691	1	-4
428.861	1	0
429.032	1	-3
429.202	1	4
429.373	1	1
429.544	1	-9
429.714	1	0
429.885	1	-4
430.055	1	7
430.226	1	-1
430.397	1	-6
430.567	1	9
430.738	1	-4
430.909	1	-6
431.079	1	-2
431.250	1	1
431.420	1	-12
431.591	1	1
431.762	1	-8
431.932	1	-2
432.103	1	6
432.273	1	2
432.444	1	-9
432.615	1	-11
432.785	1	-6
432.956	1	5
433.126	1	1
433.297	1	5
433.468	1	5
433.638	1	1
433.809	1	0
433.979	1	4
434.150	1	4
434.320	1	6
434.491	1	4
434.662	1	8
434.832	1	0
435.003	1	2
435.173	1	2
435.344	1	-2
435.515	1	14
435.685	1	0
435.856	1	-9
436.026	1	0
436.197	1	-3
436.368	1	1
436.538	1	-4
436.709	1	-15
436.879	1	-1
437.050	1	11
437.220	1	-6
437.391	1	13
437.562	1	0
437.732	1	0
437.903	1	0
438.073	1	-6
438.244	1	-1
438.414	1	2
438.585	1	2
438.756	1	2
438.926	1	1
439.097	1	17
439.267	1	4
439.438	1	7
439.608	1	2
439.779	1	-6
439.949	1	-7
440.120	1	-6
440.291	1	7
440.461	1	9
440.632	1	10
440.802	1	0
440.973	1	0
441.143	1	2
441.314	1	-12
441.485	1	-3
441.655	1	-5
441.826	1	-3
441.996	1	-1
442.167	1	4
442.337	1	-2
442.508	1	3
442.678	1	-5
442.849	1	-9
443.019	1	6
443.190	1	2
443.361	1	6
443.531	1	-2
443.702	1	-8
443.872	1	-2
444.043	1	3
444.213	1	13
444.384	1	-6
444.554	1	-4
444.725	1	9
444.895	1	-4
445.066	1	3
445.237	1	-5
445.407	1	-3
445.578	1	7
445.748	1	-8
445.919	1	3
446.089	1	1
446.260	1	5
446.430	1	-11
446.601	1	11
446.771	1	-11
446.942	1	-6
447.112	1	5
447.283	1	-14
447.453	1	-2
447.624	1	-2
447.794	1	4
447.965	1	10
448.135	1	-11
448.306	1	-5
448.477	1	8
448.647	1	-4
448.818	1	2
448.988	1	-9
449.159	1	12
449.329	1	2
449.500	1	1
449.670	1	4
449.841	1	-7
450.011	1	4
450.182	1	-6
450.352	1	7
450.523	1	1
450.693	1	7
450.864	1	-1
451.034	1	19
451.205	1	5
451.375	1	7
451.546	1	-5
451.716	1	8
451.887	1	-11
452.057	1	10
452.228	1	-2
452.398	1	2
452.569	1	-13
452.739	1	5
452.910	1	0
453.080	1	-2
453.251	1	-3
453.421	1	-10
453.592	1	-1
453.762	1	-1
453.933	1	-5
454.103	1	-2
454.274	1	1
454.444	1	1
454.615	1	11
454.785	1	-2
454.956	1	5
455.126	1	-1
455.297	1	-7
455.467	1	-6
455.638	1	6
455.808	1	1
455.979	1	-4
456.149	1	6
456.320	1	3
456.490	1	-4
456.661	1	-3
456.831	1	-2
457.001	1	3
457.172	1	1
457.342	1	0
457.513	1	5
457.683	1	3
457.854	1	2
458.024	1	-6
458.195	1	-1
458.365	1	12
458.536	1	-2
458.706	1	4
458.877	1	1
459.047	1	14
459.218	1	4
459.388	1	6
459.559	1	4
459.729	1	-6
459.899	1	0
460.070	1	-8
460.240	1	3
460.411	1	3
460.581	1	5
460.752	1	2
460.922	1	14
461.093	1	0
461.263	1	3
461.434	1	6
461.604	1	5
461.775	1	2
461.945	1	5
462.115	1	5
462.286	1	0
462.456	1	4
462.627	1	6
462.797	1	-12
462.968	1	-10
463.138	1	-1
463.309	1	-1
463.479	1	5
463.649	1	1
463.820	1	3
463.990	1	8
464.161	1	-1
464.331	1	10
464.502	1	4
464.672	1	-12
464.843	1	-2
465.013	1	-5
465.183	1	0
465.354	1	11
465.524	1	-4
465.695	1	6
465.865	1	2
466.036	1	7
466.206	1	2
466.376	1	-8
466.547	1	-11
466.717	1	1
466.888	1	-10
467.058	1	3
467.229	1	7
467.399	1	-12
467.569	1	2
467.740	1	1
467.910	1	1
468.081	1	-4
468.251	1	3
468.422	1	0
468.592	1	4
468.762	1	-8
468.933	1	3
469.103	1	-1
469.274	1	-3
469.444	1	4
469.614	1	4
469.785	1	7
469.955	1	-1
470.126	1	4
470.296	1	1
470.467	1	-11
470.637	1	-5
470.807	1	6
470.978	1	5
471.148	1	-4
471.319	1	3
471.489	1	-6
471.659	1	-1
471.830	1	6
472.000	1	-3
472.171	1	1
472.341	1	-7
472.511	1	17
472.682	1	-8
472.852	1	-6
473.023	1	-1
473.193	1	2
473.363	1	-3
473.534	1	-1
473.704	1	0
473.875	1	-8
474.045	1	-4
474.215	1	-2
474.386	1	9
474.556	1	-2
474.727	1	4
474.897	1	1
475.067	1	1
475.238	1	-5
475.408	1	-5
475.578	1	8
475.749	1	-1
475.919	1	0
476.090	1	-6
476.260	1	6
476.430	1	9
476.601	1	4
476.771	1	-4
476.942	1	-1
477.112	1	1
477.282	1	4
477.453	1	-5
477.623	1	3
477.793	1	2
477.964	1	2
478.134	1	-6
478.305	1	3
478.475	1	-2
478.645	1	-3
478.816	1	1
478.986	1	3
479.156	1	-5
479.327	1	-7
479.497	1	-4
479.667	1	8
479.838	1	-5
480.008	1	-7
480.179	1	-9
480.349	1	-4
480.519	1	6
480.690	1	-10
480.860	1	5
481.030	1	-1
481.201	1	-1
481.371	1	5
481.541	1	8
481.712	1	-1
481.882	1	-8
482.053	1	0
482.223	1	2
482.393	1	0
482.564	1	4
482.734	1	5
482.904	1	-1
483.075	1	1
483.245	1	3
483.415	1	-8
483.586	1	7
483.756	1	11
483.926	1	-3
484.097	1	4
484.267	1	-8
484.437	1	-2
484.608	1	2
484.778	1	7
484.948	1	-3
485.119	1	-1
485.289	1	7
485.459	1	1
485.630	1	3
485.800	1	-2
485.970	1	-7
486.141	1	3
486.311	1	4
486.481	1	1
486.652	1	-1
486.822	1	3
486.992	1	5
487.163	1	-5
487.333	1	8
487.503	1	4
487.674	1	-3
487.844	1	-4
488.014	1	3
488.185	1	-4
488.355	1	4
488.525	1	4
488.696	1	-5
488.866	1	-12
489.036	1	4
489.207	1	1
489.377	1	-3
489.547	1	-3
489.718	1	5
489.888	1	5
490.058	1	0
490.228	1	-9
490.399	1	5
490.569	1	7
490.739	1	6
490.910	1	-5
491.080	1	-8
491.250	1	-2
491.421	1	2
491.591	1	0
491.761	1	-1
491.932	1	-9
492.102	1	0
492.272	1	3
492.442	1	3
492.613	1	-3
492.783	1	1
492.953	1	-2
493.124	1	6
493.294	1	5
493.464	1	4
493.635	1	-2
493.805	1	2
493.975	1	-3
494.145	1	-2
494.316	1	-6
494.486	1	-3
494.656	1	0
494.827	1	8
494.997	1	-1
495.167	1	2
495.337	1	-8
495.508	1	-3
495.678	1	3
495.848	1	2
496.019	1	4
496.189	1	0
496.359	1	3
496.529	1	-1
496.700	1	-1
496.870	1	-4
497.040	1	4
497.211	1	8
497.381	1	-1
497.551	1	-3
497.721	1	6
497.892	1	9
498.062	1	0
498.232	1	4
498.403	1	8
498.573	1	4
498.743	1	11
498.913	1	6
499.084	1	-1
499.254	1	-12
499.424	1	-5
499.594	1	-5
499.765	1	5
499.935	1	-8
500.105	1	13
500.275	1	2
500.446	1	1
500.616	1	-4
500.786	1	4
500.956	1	-1
501.127	1	9
501.297	1	-1
501.467	1	0
501.638	1	10
501.808	1	1
501.978	1	-2
502.148	1	-6
502.319	1	11
502.489	1	-3
502.659	1	11
502.829	1	0
503.000	1	7
503.170	1	-8
503.340	1	3
503.510	1	-6
503.681	1	-4
503.851	1	2
504.021	1	6
504.191	1	0
504.362	1	2
504.532	1	1
504.702	1	4
504.872	1	-8
505.042	1	3
505.213	1	4
505.383	1	6
505.553	1	5
505.723	1	2
505.894	1	-2
506.064	1	0
506.234	1	-2
506.404	1	-11
506.575	1	-4
506.745	1	14
506.915	1	10
507.085	1	-4
507.256	1	3
507.426	1	4
507.596	1	-3
507.766	1	6
507.936	1	-5
508.107	1	10
508.277	1	-4
508.447	1	9
508.617	1	6
508.788	1	0
508.958	1	-2
509.128	1	12
509.298	1	-6
509.468	1	12
509.639	1	3
509.809	1	5
509.979	1	3
510.149	1	2
510.319	1	2
510.490	1	2
510.660	1	3
510.830	1	-2
511.000	1	0
511.171	1	-4
511.341	1	3
511.511	1	4
511.681	1	1
511.851	1	3
512.022	1	-5
512.192	1	1
512.362	1	5
512.532	1	-7
512.702	1	2
512.873	1	8
513.043	1	3
513.213	1	3
513.383	1	3
513.553	1	8
513.724	1	1
513.894	1	-1
514.064	1	3
514.234	1	4
514.404	1	3
514.575	1	-2
514.745	1	0
514.915	1	-17
515.085	1	-1
515.255	1	3
515.425	1	2
515.596	1	6
515.766	1	9
515.936	1	1
516.106	1	1
516.276	1	2
516.447	1	11
516.617	1	6
516.787	1	7
516.957	1	5
517.127	1	0
517.297	1	5
517.468	1	0
517.638	1	-4
517.808	1	-2
517.978	1	8
518.148	1	-7
518.319	1	2
518.489	1	4
518.659	1	2
518.829	1	-4
518.999	1	2
519.169	1	-4
519.340	1	14
519.510	1	12
519.680	1	0
519.850	1	-1
520.020	1	4
520.190	1	2
520.361	1	4
520.531	1	3
520.701	1	10
520.871	1	1
521.041	1	13
521.211	1	10
521.382	1	-1
521.552	1	0
521.722	1	0
521.892	1	3
522.062	1	-2
522.232	1	12
522.402	1	4
522.573	1	1
522.743	1	5
522.913	1	5
523.083	1	5
523.253	1	10
523.423	1	-2
523.593	1	6
523.764	1	-5
523.934	1	2
524.104	1	5
524.274	1	8
524.444	1	9
524.614	1	12
524.784	1	1
524.955	1	4
525.125	1	8
525.295	1	-9
525.465	1	6
525.635	1	-1
525.805	1	12
525.975	1	-4
526.146	1	-3
526.316	1	6
526.486	1	6
526.656	1	3
526.826	1	0
526.996	1	5
527.166	1	-4
527.337	1	-3
527.507	1	-3
527.677	1	5
527.847	1	4
528.017	1	-2
528.187	1	8
528.357	1	7
528.527	1	8
528.698	1	-12
528.868	1	2
529.038	1	-3
529.208	1	1
529.378	1	5
529.548	1	4
529.718	1	3
529.888	1	1
530.058	1	3
530.229	1	10
530.399	1	-2
530.569	1	5
530.739	1	1
530.909	1	-9
531.079	1	-5
531.249	1	0
531.419	1	10
531.589	1	1
531.760	1	1
531.930	1	11
532.100	1	4
532.270	1	13
532.440	1	-1
532.610	1	2
532.780	1	1
532.950	1	3
533.120	1	18
533.290	1	2
533.461	1	-7
533.631	1	4
533.801	1	2
533.971	1	-4
534.141	1	0
534.311	1	13
534.481	1	-5
534.651	1	-8
534.821	1	-9
534.991	1	9
535.162	1	-6
535.332	1	11
535.502	1	4
535.672	1	2
535.842	1	7
536.012	1	-3
536.182	1	7
536.352	1	-5
536.522	1	-10
536.692	1	-6
536.862	1	-2
537.032	1	2
537.203	1	8
537.373	1	11
537.543	1	-8
537.713	1	-2
537.883	1	11
538.053	1	5
538.223	1	6
538.393	1	-2
538.563	1	11
538.733	1	6
538.903	1	-1
539.073	1	-3
539.243	1	-1
539.413	1	1
539.584	1	5
539.754	1	14
539.924	1	12
540.094	1	4
540.264	1	-3
540.434	1	11
540.604	1	2
540.774	1	13
540.944	1	-2
541.114	1	2
541.284	1	4
541.454	1	5
541.624	1	9
541.794	1	-1
541.964	1	-7
542.134	1	8
542.305	1	11
542.475	1	-2
542.645	1	2
542.815	1	-8
542.985	1	1
543.155	1	-5
543.325	1	2
543.495	1	11
543.665	1	1
543.835	1	-3
544.005	1	-6
544.175	1	0
544.345	1	0
544.515	1	-1
544.685	1	11
544.855	1	-4
545.025	1	3
545.195	1	9
545.365	1	0
545.535	1	-5
545.705	1	22
545.875	1	-3
546.045	1	7
546.216	1	-14
546.386	1	4
546.556	1	2
546.726	1	8
546.896	1	-1
547.066	1	7
547.236	1	9
547.406	1	-6
547.576	1	0
547.746	1	9
547.916	1	3
548.086	1	5
548.256	1	-7
548.426	1	-2
548.596	1	5
548.766	1	21
548.936	1	11
549.106	1	9
549.276	1	2
549.446	1	9
549.616	1	-1
549.786	1	-5
549.956	1	7
550.126	1	-2
550.296	1	4
550.466	1	12
550.636	1	7
550.806	1	5
550.976	1	1
551.146	1	-4
551.316	1	-2
551.486	1	2
551.656	1	4
551.826	1	6
551.996	1	-9
552.166	1	6
552.336	1	3
552.506	1	8
552.676	1	-1
552.846	1	2
553.016	1	6
553.186	1	7
553.356	1	2
553.526	1	-2
553.696	1	15
553.866	1	6
554.036	1	-4
554.206	1	1
554.376	1	-8
554.546	1	3
554.716	1	-2
554.886	1	16
555.056	1	7
555.226	1	6
555.396	1	0
555.566	1	-1
555.736	1	1
555.906	1	5
556.076	1	13
556.246	1	2
556.416	1	-10
556.586	1	-1
556.756	1	2
556.926	1	3
557.096	1	1
557.266	1	2
557.436	1	-3
557.606	1	5
557.776	1	9
557.946	1	-3
558.116	1	8
558.286	1	3
558.456	1	-6
558.626	1	-9
558.796	1	-2
558.966	1	6
559.136	1	3
559.306	1	5
559.476	1	9
559.646	1	4
559.816	1	13
559.986	1	-1
560.155	1	2
560.325	1	4
560.495	1	1
560.665	1	-7
560.835	1	1
561.005	1	4
561.175	1	-3
561.345	1	-3
561.515	1	0
561.685	1	2
561.855	1	1
562.025	1	1
562.195	1	-4
562.365	1	10
562.535	1	7
562.705	1	-2
562.875	1	-2
563.045	1	-14
563.215	1	-2
563.385	1	-7
563.555	1	4
563.725	1	4
563.895	1	5
564.064	1	-10
564.234	1	-1
564.404	1	4
564.574	1	10
564.744	1	-1
564.914	1	0
565.084	1	2
565.254	1	9
565.424	1	2
565.594	1	-2
565.764	1	-11
565.934	1	14
566.104	1	3
566.274	1	4
566.444	1	-6
566.614	1	-2
566.783	1	4
566.953	1	4
567.123	1	7
567.293	1	-1
567.463	1	1
567.633	1	5
567.803	1	7
567.973	1	1
568.143	1	1
568.313	1	6
568.483	1	1
568.653	1	-6
568.823	1	6
568.993	1	2
569.162	1	-6
569.332	1	9
569.502	1	17
569.672	1	4
569.842	1	-3
570.012	1	10
570.182	1	-3
570.352	1	5
570.522	1	0
570.692	1	9
570.862	1	3
571.031	1	1
571.201	1	-2
571.371	1	13
571.541	1	1
571.711	1	-6
571.881	1	7
572.051	1	-4
572.221	1	1
572.391	1	10
572.561	1	9
572.731	1	6
572.900	1	-9
573.070	1	9
573.240	1	-8
573.410	1	9
573.580	1	-8
573.750	1	11
573.920	1	1
574.090	1	3
574.260	1	-16
574.430	1	3
574.599	1	1
574.769	1	0
574.939	1	-4
575.109	1	1
575.279	1	6
575.449	1	8
575.619	1	5
575.789	1	4
575.959	1	2
576.128	1	-4
576.298	1	0
576.468	1	-4
576.638	1	-9
576.808	1	-3
576.978	1	-1
577.148	1	-1
577.318	1	15
577.487	1	-1
577.657	1	1
577.827	1	-9
577.997	1	-2
578.167	1	4
578.337	1	0
578.507	1	5
578.677	1	-2
578.846	1	-5
579.016	1	-6
579.186	1	6
579.356	1	5
579.526	1	-7
579.696	1	10
579.866	1	-6
580.036	1	2
580.205	1	-11
580.375	1	10
580.545	1	-4
580.715	1	12
580.885	1	5
581.055	1	-5
581.225	1	8
581.394	1	-10
581.564	1	2
581.734	1	1
581.904	1	5
582.074	1	-5
582.244	1	1
582.414	1	-2
582.583	1	5
582.753	1	19
582.923	1	3
583.093	1	11
583.263	1	5
583.433	1	5
583.603	1	-9
583.772	1	-13
583.942	1	7
584.112	1	-2
584.282	1	-2
584.452	1	-6
584.622	1	-1
584.791	1	-1
584.961	1	-11
585.131	1	3
585.301	1	-2
585.471	1	-8
585.641	1	6
585.811	1	-1
585.980	1	-3
586.150	1	-7
586.320	1	3
586.490	1	1
586.660	1	10
586.830	1	-8
586.999	1	-5
587.169	1	3
587.339	1	1
587.509	1	4
587.679	1	0
587.849	1	8
588.018	1	-1
588.188	1	2
588.358	1	-6
588.528	1	-3
588.698	1	-3
588.867	1	-1
589.037	1	-7
589.207	1	9
589.377	1	-1
589.547	1	14
589.717	1	-12
589.886	1	-2
590.056	1	0
590.226	1	-3
590.396	1	-5
590.566	1	-10
590.735	1	-11
590.905	1	2
591.075	1	-2
591.245	1	10
591.415	1	7
591.585	1	9
591.754	1	-2
591.924	1	6
592.094	1	-10
592.264	1	-2
592.434	1	-6
592.603	1	-3
592.773	1	-6
592.943	1	6
593.113	1	-1
593.283	1	-2
593.452	1	-3
593.622	1	-1
593.792	1	13
593.962	1	3
594.132	1	2
594.301	1	11
594.471	1	6
594.641	1	2
594.811	1	-3
594.981	1	-3
595.150	1	-1
595.320	1	-1
595.490	1	7
595.660	1	2
595.829	1	-6
595.999	1	-8
596.169	1	10
596.339	1	12
596.509	1	-1
596.678	1	-2
596.848	1	3
597.018	1	-6
597.188	1	-11
597.358	1	-2
597.527	1	-5
597.697	1	-3
597.867	1	3
598.037	1	4
598.206	1	6
598.376	1	1
598.546	1	0
598.716	1	-12
598.885	1	9
599.055	1	4
599.225	1	7
599.395	1	5
599.565	1	-2
599.734	1	-1
599.904	1	-12
600.074	1	1
600.244	1	-2
600.413	1	1
600.583	1	-8
600.753	1	11
600.923	1	-3
601.092	1	0
601.262	1	-12
601.432	1	4
601.602	1	17
601.771	1	-1
601.941	1	-2
602.111	1	-4
602.281	1	4
602.451	1	-2
602.620	1	1
602.790	1	-11
602.960	1	-7
603.130	1	0
603.299	1	1
603.469	1	-3
603.639	1	-8
603.809	1	13
603.978	1	1
604.148	1	4
604.318	1	-1
604.487	1	-1
604.657	1	-11
604.827	1	3
604.997	1	5
605.166	1	0
605.336	1	3
605.506	1	-5
605.676	1	3
605.845	1	-15
606.015	1	-7
606.185	1	-2
606.355	1	-7
606.524	1	-2
606.694	1	10
606.864	1	4
607.034	1	1
607.203	1	6
607.373	1	-1
607.543	1	-1
607.712	1	7
607.882	1	-7
608.052	1	-1
608.222	1	1
608.391	1	15
608.561	1	-4
608.731	1	-2
608.901	1	5
609.070	1	-7
609.240	1	-3
609.410	1	0
609.579	1	14
609.749	1	-7
609.919	1	1
610.089	1	-1
610.258	1	-5
610.428	1	14
610.598	1	10
610.767	1	0
610.937	1	5
611.107	1	-6
611.277	1	-6
611.446	1	-6
611.616	1	2
611.786	1	9
611.955	1	-3
612.125	1	0
612.295	1	0
612.465	1	-2
612.634	1	9
612.804	1	-1
612.974	1	-1
613.143	1	-2
613.313	1	6
613.483	1	11
613.652	1	9
613.822	1	7
613.992	1	-2
614.162	1	10
614.331	1	-2
614.501	1	-13
614.671	1	-5
614.840	1	-5
615.010	1	-6
615.180	1	9
615.349	1	7
615.519	1	-6
615.689	1	-8
615.858	1	12
616.028	1	0
616.198	1	-5
616.368	1	0
616.537	1	-6
616.707	1	-1
616.877	1	-2
617.046	1	2
617.216	1	7
617.386	1	8
617.555	1	-6
617.725	1	1
617.895	1	0
618.064	1	0
618.234	1	-6
618.404	1	-7
618.573	1	1
618.743	1	13
618.913	1	10
619.082	1	-3
619.252	1	-3
619.422	1	-6
619.591	1	-8
619.761	1	-6
619.931	1	5
620.100	1	13
620.270	1	7
620.440	1	2
620.609	1	-3
620.779	1	4
620.949	1	-10
621.118	1	5
621.288	1	-2
621.458	1	6
621.627	1	1
621.797	1	-2
621.967	1	-4
622.136	1	-1
622.306	1	1
622.476	1	3
622.645	1	-4
622.815	1	2
622.985	1	-1
623.154	1	2
623.324	1	2
623.494	1	-8
623.663	1	2
623.833	1	-8
624.002	1	2
624.172	1	-2
624.342	1	3
624.511	1	-5
624.681	1	0
624.851	1	-7
625.020	1	3
625.190	1	3
625.360	1	-8
625.529	1	-10
625.699	1	4
625.869	1	2
626.038	1	-3
626.208	1	8
626.377	1	-1
626.547	1	1
626.717	1	-10
626.886	1	-2
627.056	1	-4
627.226	1	-1
627.395	1	0
627.565	1	4
627.735	1	-5
627.904	1	6
628.074	1	4
628.243	1	3
628.413	1	-6
628.583	1	3
628.752	1	-8
628.922	1	5
629.091	1	-1
629.261	1	6
629.431	1	5
629.600	1	10
629.770	1	-2
629.940	1	-6
630.109	1	1
630.279	1	5
630.448	1	-7
630.618	1	5
630.788	1	-1
630.957	1	13
631.127	1	-9
631.297	1	5
631.466	1	-3
631.636	1	6
631.805	1	-5
631.975	1	-4
632.145	1	6
632.314	1	3
632.484	1	6
632.653	1	-4
632.823	1	-4
632.993	1	2
633.162	1	-2
633.332	1	-10
633.501	1	-2
633.671	1	-1
633.841	1	3
634.010	1	9
634.180	1	4
634.349	1	6
634.519	1	2
634.689	1	-8
634.858	1	-21
635.028	1	3
635.197	1	-1
635.367	1	9
635.537	1	6
635.706	1	7
635.876	1	-4
636.045	1	-4
636.215	1	9
636.384	1	-2
636.554	1	-3
636.724	1	-1
636.893	1	3
637.063	1	-1
637.232	1	2
637.402	1	-6
637.572	1	0
637.741	1	0
637.911	1	-2
638.080	1	3
638.250	1	3
638.419	1	-5
638.589	1	5
638.759	1	4
638.928	1	-2
639.098	1	-2
639.267	1	5
639.437	1	1
639.606	1	5
639.776	1	2
639.946	1	2
640.115	1	-1
640.285	1	8
640.454	1	4
640.624	1	2
640.793	1	-5
640.963	1	0
641.132	1	4
641.302	1	1
641.472	1	-2
641.641	1	-2
641.811	1	-2
641.980	1	-3
642.150	1	-3
642.319	1	5
642.489	1	-5
642.659	1	7
642.828	1	-1
642.998	1	4
643.167	1	0
643.337	1	-5
643.506	1	-1
643.676	1	-1
643.845	1	4
644.015	1	0
644.184	1	-10
644.354	1	-13
644.524	1	-1
644.693	1	-6
644.863	1	5
645.032	1	12
645.202	1	0
645.371	1	-2
645.541	1	-3
645.710	1	1
645.880	1	-6
646.049	1	-1
646.219	1	-5
646.388	1	-1
646.558	1	3
646.728	1	-6
646.897	1	8
647.067	1	-5
647.236	1	6
647.406	1	7
647.575	1	14
647.745	1	0
647.914	1	-4
648.084	1	0
648.253	1	2
648.423	1	2
648.592	1	-7
648.762	1	1
648.931	1	0
649.101	1	-7
649.270	1	-2
649.440	1	1
649.610	1	6
649.779	1	0
649.949	1	7
650.118	1	-1
650.288	1	2
650.457	1	6
650.627	1	4
650.796	1	-2
650.966	1	-13
651.135	1	-1
651.305	1	0
651.474	1	-1
651.644	1	14
651.813	1	3
651.983	1	1
652.152	1	4
652.322	1	-6
652.491	1	-7
652.661	1	2
652.830	1	-2
653.000	1	7
653.169	1	2
653.339	1	10
653.508	1	-6
653.678	1	-5
653.847	1	1
654.017	1	6
654.186	1	0
654.356	1	-2
654.525	1	-4
654.695	1	-2
654.864	1	-5
655.034	1	7
655.203	1	5
655.373	1	10
655.542	1	3
655.712	1	-3
655.881	1	11
656.051	1	1
656.220	1	-12
656.390	1	3
656.559	1	-8
656.729	1	-10
656.898	1	-1
657.068	1	0
657.237	1	10
657.406	1	1
657.576	1	-5
657.745	1	-1
657.915	1	-6
658.084	1	-11
658.254	1	3
658.423	1	-5
658.593	1	7
658.762	1	2
658.932	1	6
659.101	1	-8
659.271	1	4
659.440	1	6
659.610	1	-7
659.779	1	1
659.949	1	-1
660.118	1	4
660.288	1	-2
660.457	1	7
660.626	1	2
660.796	1	-1
660.965	1	4
661.135	1	-9
661.304	1	-2
661.474	1	-6
661.643	1	2
661.813	1	-6
661.982	1	4
662.152	1	5
662.321	1	-2
662.491	1	-7
662.660	1	1
662.829	1	0
662.999	1	-1
663.168	1	2
663.338	1	10
663.507	1	0
663.677	1	2
663.846	1	-1
664.016	1	-2
664.185	1	6
664.354	1	1
664.524	1	-6
664.693	1	6
664.863	1	0
665.032	1	8
665.202	1	-5
665.371	1	-3
665.541	1	11
665.710	1	-3
665.879	1	8
666.049	1	-5
666.218	1	-5
666.388	1	7
666.557	1	13
666.727	1	-4
666.896	1	-4
667.065	1	-5
667.235	1	11
667.404	1	0
667.574	1	-5
667.743	1	-3
667.913	1	9
668.082	1	-11
668.251	1	3
668.421	1	1
668.590	1	1
668.760	1	-2
668.929	1	14
669.099	1	2
669.268	1	-2
669.437	1	0
669.607	1	9
669.776	1	2
669.946	1	-1
670.115	1	-19
670.285	1	9
670.454	1	0
670.623	1	1
670.793	1	1
670.962	1	0
671.132	1	-6
671.301	1	-5
671.470	1	4
671.640	1	-4
671.809	1	2
671.979	1	13
672.148	1	3
672.317	1	0
672.487	1	-2
672.656	1	-4
672.826	1	2
672.995	1	9
673.164	1	-12
673.334	1	-5
673.503	1	-11
673.673	1	1
673.842	1	5
674.011	1	12
674.181	1	12
674.350	1	3
674.520	1	5
674.689	1	-3
674.858	1	-9
675.028	1	-2
675.197	1	2
675.367	1	-8
675.536	1	10
675.705	1	-1
675.875	1	-2
676.044	1	-6
676.214	1	4
676.383	1	7
676.552	1	3
676.722	1	-11
676.891	1	1
677.060	1	-6
677.230	1	9
677.399	1	-5
677.569	1	7
677.738	1	5
677.907	1	-5
678.077	1	2
678.246	1	-2
678.416	1	3
678.585	1	1
678.754	1	8
678.924	1	4
679.093	1	-2
679.262	1	-1
679.432	1	1
679.601	1	-4
679.771	1	-4
679.940	1	1
680.109	1	-4
680.279	1	0
680.448	1	5
680.617	1	-5
680.787	1	-4
680.956	1	2
681.125	1	3
681.295	1	1
681.464	1	-8
681.634	1	5
681.803	1	-3
681.972	1	-10
682.142	1	3
682.311	1	3
682.480	1	7
682.650	1	8
682.819	1	5
682.988	1	-13
683.158	1	-7
683.327	1	1
683.496	1	3
683.666	1	14
683.835	1	-6
684.004	1	11
684.174	1	1
684.343	1	10
684.512	1	-2
684.682	1	2
684.851	1	5
685.021	1	-3
685.190	1	1
685.359	1	-9
685.529	1	3
685.698	1	-1
685.867	1	2
686.037	1	5
686.206	1	0
686.375	1	8
686.545	1	11
686.714	1	-5
686.883	1	-3
687.053	1	0
687.222	1	-9
687.391	1	5
687.561	1	5
687.730	1	8
687.899	1	-9
688.069	1	6
688.238	1	-4
688.407	1	10
688.577	1	-6
688.746	1	5
