340.368	1	4
340.539	1	6
340.710	1	-1
340.881	1	-2
341.052	1	-7
341.223	1	11
341.394	1	-6
341.565	1	6
341.737	1	0
341.908	1	-4
342.079	1	-13
342.250	1	3
342.421	1	6
342.592	1	1
342.763	1	5
342.934	1	-1
343.105	1	1
343.276	1	-7
343.447	1	-5
343.618	1	-3
343.789	1	4
343.960	1	-11
344.131	1	2
344.302	1	-2
344.473	1	1
344.644	1	-1
344.815	1	-3
344.986	1	1
345.157	1	0
345.328	1	1
345.499	1	5
345.670	1	-2
345.841	1	-3
346.012	1	7
346.183	1	6
346.354	1	4
346.526	1	2
346.697	1	5
346.868	1	-5
347.039	1	-2
347.210	1	-4
347.381	1	-1
347.552	1	6
347.723	1	3
347.894	1	10
348.065	1	7
348.236	1	3
348.407	1	-8
348.578	1	-4
348.749	1	-8
348.920	1	-7
349.091	1	8
349.262	1	-9
349.433	1	3
349.604	1	11
349.775	1	7
349.946	1	0
350.117	1	-6
350.288	1	0
350.459	1	-4
350.630	1	5
350.801	1	7
350.972	1	3
351.143	1	5
351.314	1	-8
351.485	1	9
351.656	1	3
351.827	1	3
351.998	1	9
352.169	1	6
352.340	1	1
352.511	1	3
352.682	1	5
352.853	1	4
353.024	1	5
353.195	1	5
353.366	1	-4
353.537	1	3
353.708	1	5
353.879	1	-10
354.050	1	1
354.221	1	-5
354.392	1	8
354.563	1	12
354.734	1	1
354.905	1	0
355.076	1	12
355.247	1	8
355.418	1	4
355.589	1	2
355.760	1	5
355.931	1	2
356.102	1	-1
356.273	1	-5
356.444	1	7
356.615	1	-4
356.785	1	0
356.956	1	2
357.127	1	4
357.298	1	6
357.469	1	-5
357.640	1	6
357.811	1	-8
357.982	1	2
358.153	1	9
358.324	1	12
358.495	1	-7
358.666	1	-3
358.837	1	11
359.008	1	0
359.179	1	4
359.350	1	9
359.521	1	10
359.692	1	0
359.863	1	7
360.034	1	10
360.205	1	0
360.376	1	2
360.547	1	1
360.718	1	14
360.889	1	-5
361.060	1	7
361.231	1	-7
361.401	1	4
361.572	1	4
361.743	1	12
361.914	1	16
362.085	1	9
362.256	1	8
362.427	1	4
362.598	1	3
362.769	1	9
362.940	1	7
363.111	1	11
363.282	1	3
363.453	1	4
363.624	1	0
363.795	1	12
363.966	1	5
364.137	1	12
364.308	1	11
364.478	1	5
364.649	1	-1
364.820	1	10
364.991	1	14
365.162	1	3
365.333	1	4
365.504	1	10
365.675	1	18
365.846	1	5
366.017	1	9
366.188	1	21
366.359	1	16
366.530	1	16
366.701	1	11
366.871	1	16
367.042	1	19
367.213	1	19
367.384	1	9
367.555	1	20
367.726	1	5
367.897	1	26
368.068	1	7
368.239	1	-5
368.410	1	3
368.581	1	10
368.752	1	21
368.923	1	18
369.093	1	12
369.264	1	5
369.435	1	12
369.606	1	7
369.777	1	10
369.948	1	6
370.119	1	10
370.290	1	10
370.461	1	10
370.632	1	16
370.803	1	24
370.973	1	1
371.144	1	12
371.315	1	8
371.486	1	7
371.657	1	7
371.828	1	7
371.999	1	0
372.170	1	3
372.341	1	1
372.512	1	-1
372.682	1	11
372.853	1	4
373.024	1	12
373.195	1	8
373.366	1	4
373.537	1	16
373.708	1	0
373.879	1	9
374.050	1	8
374.220	1	-2
374.391	1	2
374.562	1	6
374.733	1	1
374.904	1	11
375.075	1	2
375.246	1	-8
375.417	1	10
375.588	1	2
375.758	1	-4
375.929	1	9
376.100	1	11
376.271	1	-2
376.442	1	2
376.613	1	-5
376.784	1	11
376.955	1	2
377.125	1	10
377.296	1	3
377.467	1	5
377.638	1	2
377.809	1	6
377.980	1	9
378.151	1	4
378.321	1	2
378.492	1	10
378.663	1	10
378.834	1	18
379.005	1	-3
379.176	1	3
379.347	1	18
379.518	1	4
379.688	1	-1
379.859	1	-7
380.030	1	11
380.201	1	17
380.372	1	5
380.543	1	6
380.714	1	11
380.884	1	3
381.055	1	-4
381.226	1	5
381.397	1	12
381.568	1	2
381.739	1	4
381.910	1	0
382.080	1	8
382.251	1	-6
382.422	1	0
382.593	1	6
382.764	1	4
382.935	1	4
383.105	1	3
383.276	1	7
383.447	1	6
383.618	1	5
383.789	1	13
383.960	1	1
384.130	1	-3
384.301	1	1
384.472	1	1
384.643	1	0
384.814	1	7
384.985	1	-5
385.156	1	16
385.326	1	17
385.497	1	9
385.668	1	9
385.839	1	18
386.010	1	8
386.180	1	7
386.351	1	7
386.522	1	12
386.693	1	12
386.864	1	13
387.035	1	10
387.205	1	4
387.376	1	8
387.547	1	9
387.718	1	6
387.889	1	9
388.060	1	19
388.230	1	16
388.401	1	10
388.572	1	8
388.743	1	3
388.914	1	0
389.084	1	16
389.255	1	5
389.426	1	11
389.597	1	6
389.768	1	12
389.939	1	8
390.109	1	5
390.280	1	3
390.451	1	9
390.622	1	11
390.793	1	6
390.963	1	14
391.134	1	3
391.305	1	5
391.476	1	1
391.647	1	8
391.817	1	1
391.988	1	-2
392.159	1	10
392.330	1	2
392.501	1	8
392.671	1	0
392.842	1	18
393.013	1	12
393.184	1	9
393.355	1	0
393.525	1	8
393.696	1	2
393.867	1	6
394.038	1	5
394.208	1	14
394.379	1	1
394.550	1	5
394.721	1	5
394.892	1	7
395.062	1	18
395.233	1	12
395.404	1	3
395.575	1	5
395.746	1	15
395.916	1	3
396.087	1	10
396.258	1	11
396.429	1	0
396.599	1	19
396.770	1	17
396.941	1	6
397.112	1	0
397.283	1	-3
397.453	1	5
397.624	1	-3
397.795	1	7
397.966	1	10
398.136	1	7
398.307	1	8
398.478	1	5
398.649	1	1
398.819	1	8
398.990	1	-3
399.161	1	6
399.332	1	-1
399.503	1	11
399.673	1	-18
399.844	1	2
400.015	1	5
400.186	1	16
400.356	1	11
400.527	1	21
400.698	1	1
400.869	1	-5
401.039	1	1
401.210	1	1
401.381	1	9
401.552	1	4
401.722	1	10
401.893	1	8
402.064	1	3
402.235	1	4
402.405	1	7
402.576	1	3
402.747	1	-2
402.918	1	2
403.088	1	-3
403.259	1	-5
403.430	1	9
403.601	1	9
403.771	1	8
403.942	1	0
404.113	1	15
404.284	1	3
404.454	1	10
404.625	1	3
404.796	1	-2
404.967	1	7
405.137	1	10
405.308	1	9
405.479	1	9
405.649	1	7
405.820	1	0
405.991	1	4
406.162	1	12
406.332	1	-3
406.503	1	4
406.674	1	5
406.845	1	8
407.015	1	-4
407.186	1	9
407.357	1	-6
407.527	1	-1
407.698	1	11
407.869	1	9
408.040	1	8
408.210	1	15
408.381	1	-3
408.552	1	-1
408.722	1	-7
408.893	1	8
409.064	1	1
409.235	1	10
409.405	1	13
409.576	1	6
409.747	1	3
409.917	1	5
410.088	1	-7
410.259	1	-4
410.430	1	-2
410.600	1	-1
410.771	1	-3
410.942	1	8
411.112	1	-1
411.283	1	1
411.454	1	1
411.625	1	-2
411.795	1	10
411.966	1	10
412.137	1	7
412.307	1	6
412.478	1	5
412.649	1	-2
412.819	1	16
412.990	1	-5
413.161	1	-4
413.332	1	8
413.502	1	-5
413.673	1	13
413.844	1	7
414.014	1	-3
414.185	1	5
414.356	1	5
414.526	1	4
414.697	1	13
414.868	1	-3
415.038	1	3
415.209	1	2
415.380	1	13
415.550	1	1
415.721	1	8
415.892	1	0
416.063	1	12
416.233	1	-3
416.404	1	-1
416.575	1	0
416.745	1	-3
416.916	1	-9
417.087	1	7
417.257	1	10
417.428	1	3
417.599	1	15
417.769	1	-2
417.940	1	10
418.111	1	3
418.281	1	3
418.452	1	0
418.623	1	-12
418.793	1	11
418.964	1	3
419.135	1	4
419.305	1	4
419.476	1	6
419.647	1	-1
419.817	1	7
419.988	1	2
420.159	1	-7
420.329	1	-3
420.500	1	3
420.671	1	1
420.841	1	0
421.012	1	-4
421.183	1	9
421.353	1	4
421.524	1	2
421.695	1	-3
421.865	1	0
422.036	1	4
422.206	1	8
422.377	1	0
422.548	1	5
422.718	1	0
422.889	1	-9
423.060	1	2
423.230	1	3
423.401	1	-6
423.572	1	17
423.742	1	2
423.913	1	-1
424.084	1	12
424.254	1	1
424.425	1	-1
424.595	1	-3
424.766	1	7
424.937	1	9
425.107	1	8
425.278	1	5
425.449	1	-4
425.619	1	6
425.790	1	-3
425.961	1	-3
426.131	1	-4
426.302	1	9
426.472	1	-2
426.643	1	-1
426.814	1	1
426.984	1	-4
427.155	1	-8
427.326	1	-9
427.496	1	-4
427.667	1	7
427.837	1	0
428.008	1	-7
428.179	1	-1
428.349	1	-5
428.520	1	13
428.691	1	-9
428.861	1	7
429.032	1	4
429.202	1	8
429.373	1	8
429.544	1	4
429.714	1	-7
429.885	1	-3
430.055	1	-3
430.226	1	-2
430.397	1	-7
430.567	1	3
430.738	1	-3
430.909	1	0
431.079	1	0
431.250	1	-2
431.420	1	1
431.591	1	7
431.762	1	-2
431.932	1	-8
432.103	1	3
432.273	1	6
432.444	1	-11
432.615	1	-1
432.785	1	4
432.956	1	7
433.126	1	-8
433.297	1	10
433.468	1	4
433.638	1	15
433.809	1	-11
433.979	1	11
434.150	1	0
434.320	1	-2
434.491	1	10
434.662	1	4
434.832	1	4
435.003	1	4
435.173	1	10
435.344	1	2
435.515	1	-4
435.685	1	-2
435.856	1	-4
436.026	1	3
436.197	1	-2
436.368	1	-6
436.538	1	-2
436.709	1	-15
436.879	1	6
437.050	1	5
437.220	1	-1
437.391	1	8
437.562	1	5
437.732	1	6
437.903	1	-5
438.073	1	-6
438.244	1	-7
438.414	1	4
438.585	1	-7
438.756	1	8
438.926	1	-3
439.097	1	12
439.267	1	0
439.438	1	1
439.608	1	3
439.779	1	-8
439.949	1	-8
440.120	1	2
440.291	1	1
440.461	1	9
440.632	1	8
440.802	1	0
440.973	1	5
441.143	1	3
441.314	1	0
441.485	1	0
441.655	1	2
441.826	1	-7
441.996	1	-8
442.167	1	2
442.337	1	1
442.508	1	8
442.678	1	-2
442.849	1	-8
443.019	1	6
443.190	1	0
443.361	1	11
443.531	1	1
443.702	1	-7
443.872	1	-3
444.043	1	15
444.213	1	3
444.384	1	-3
444.554	1	-4
444.725	1	-2
444.895	1	-2
445.066	1	8
445.237	1	-3
445.407	1	4
445.578	1	13
445.748	1	-5
445.919	1	0
446.089	1	-2
446.260	1	-2
446.430	1	0
446.601	1	9
446.771	1	-9
446.942	1	-11
447.112	1	5
447.283	1	-4
447.453	1	7
447.624	1	-6
447.794	1	0
447.965	1	11
448.135	1	-6
448.306	1	-4
448.477	1	2
448.647	1	-8
448.818	1	-2
448.988	1	3
449.159	1	1
449.329	1	-1
449.500	1	3
449.670	1	6
449.841	1	-7
450.011	1	-7
450.182	1	-10
450.352	1	2
450.523	1	-1
450.693	1	4
450.864	1	-7
451.034	1	9
451.205	1	-3
451.375	1	-1
451.546	1	-3
451.716	1	-1
451.887	1	-5
452.057	1	5
452.228	1	6
452.398	1	5
452.569	1	-7
452.739	1	-3
452.910	1	-6
453.080	1	4
453.251	1	2
453.421	1	-13
453.592	1	4
453.762	1	-7
453.933	1	-1
454.103	1	-1
454.274	1	4
454.444	1	-4
454.615	1	8
454.785	1	0
454.956	1	12
455.126	1	4
455.297	1	1
455.467	1	-6
455.638	1	2
455.808	1	-1
455.979	1	1
456.149	1	5
456.320	1	13
456.490	1	0
456.661	1	-9
456.831	1	2
457.001	1	2
457.172	1	3
457.342	1	-2
457.513	1	10
457.683	1	-1
457.854	1	6
458.024	1	-6
458.195	1	-9
458.365	1	9
458.536	1	-5
458.706	1	9
458.877	1	-1
459.047	1	11
459.218	1	2
459.388	1	13
459.559	1	0
459.729	1	-2
459.899	1	2
460.070	1	4
460.240	1	-2
460.411	1	-9
460.581	1	-3
460.752	1	9
460.922	1	14
461.093	1	-6
461.263	1	4
461.434	1	6
461.604	1	6
461.775	1	2
461.945	1	8
462.115	1	1
462.286	1	-8
462.456	1	6
462.627	1	7
462.797	1	-8
462.968	1	1
463.138	1	-4
463.309	1	4
463.479	1	-1
463.649	1	-2
463.820	1	1
463.990	1	3
464.161	1	1
464.331	1	9
464.502	1	2
464.672	1	-10
464.843	1	-5
465.013	1	-13
465.183	1	-4
465.354	1	11
465.524	1	-3
465.695	1	2
465.865	1	-3
466.036	1	-5
466.206	1	9
466.376	1	-10
466.547	1	-5
466.717	1	-7
466.888	1	-2
467.058	1	1
467.229	1	15
467.399	1	5
467.569	1	5
467.740	1	6
467.910	1	-2
468.081	1	2
468.251	1	-3
468.422	1	-2
468.592	1	4
468.762	1	-11
468.933	1	-2
469.103	1	-3
469.274	1	2
469.444	1	4
469.614	1	0
469.785	1	12
469.955	1	-2
470.126	1	-3
470.296	1	7
470.467	1	-7
470.637	1	-8
470.807	1	9
470.978	1	4
471.148	1	-10
471.319	1	3
471.489	1	-14
471.659	1	-3
471.830	1	10
472.000	1	3
472.171	1	-7
472.341	1	-7
472.511	1	17
472.682	1	-1
472.852	1	-9
473.023	1	6
473.193	1	2
473.363	1	4
473.534	1	-6
473.704	1	3
473.875	1	-6
474.045	1	-4
474.215	1	4
474.386	1	6
474.556	1	-4
474.727	1	2
474.897	1	7
475.067	1	-4
475.238	1	-6
475.408	1	-3
475.578	1	5
475.749	1	2
475.919	1	-5
476.090	1	9
476.260	1	-2
476.430	1	9
476.601	1	14
476.771	1	-7
476.942	1	-1
477.112	1	6
477.282	1	-7
477.453	1	-6
477.623	1	4
477.793	1	5
477.964	1	-6
478.134	1	3
478.305	1	7
478.475	1	-2
478.645	1	-4
478.816	1	-3
478.986	1	2
479.156	1	-2
479.327	1	-4
479.497	1	6
479.667	1	5
479.838	1	-7
480.008	1	0
480.179	1	-7
480.349	1	8
480.519	1	3
480.690	1	-3
480.860	1	-5
481.030	1	4
481.201	1	-15
481.371	1	9
481.541	1	8
481.712	1	-5
481.882	1	-3
482.053	1	5
482.223	1	3
482.393	1	2
482.564	1	-3
482.734	1	0
482.904	1	-4
483.075	1	4
483.245	1	-1
483.415	1	1
483.586	1	9
483.756	1	1
483.926	1	-7
484.097	1	0
484.267	1	-6
484.437	1	2
484.608	1	0
484.778	1	-4
484.948	1	-4
485.119	1	2
485.289	1	3
485.459	1	2
485.630	1	16
485.800	1	0
485.970	1	-2
486.141	1	3
486.311	1	7
486.481	1	5
486.652	1	-8
486.822	1	-6
486.992	1	10
487.163	1	1
487.333	1	7
487.503	1	7
487.674	1	4
487.844	1	-10
488.014	1	8
488.185	1	-1
488.355	1	7
488.525	1	4
488.696	1	-3
488.866	1	-9
489.036	1	8
489.207	1	-2
489.377	1	-2
489.547	1	-4
489.718	1	1
489.888	1	5
490.058	1	5
490.228	1	-5
490.399	1	4
490.569	1	3
490.739	1	3
490.910	1	-7
491.080	1	-1
491.250	1	6
491.421	1	3
491.591	1	-2
491.761	1	4
491.932	1	8
492.102	1	0
492.272	1	-1
492.442	1	13
492.613	1	3
492.783	1	-1
492.953	1	4
493.124	1	7
493.294	1	1
493.464	1	3
493.635	1	-8
493.805	1	5
493.975	1	-4
494.145	1	1
494.316	1	3
494.486	1	2
494.656	1	1
494.827	1	4
494.997	1	-1
495.167	1	5
495.337	1	3
495.508	1	-2
495.678	1	-3
495.848	1	-1
496.019	1	8
496.189	1	2
496.359	1	1
496.529	1	-2
496.700	1	1
496.870	1	7
497.040	1	-1
497.211	1	1
497.381	1	7
497.551	1	-1
497.721	1	-1
497.892	1	12
498.062	1	4
498.232	1	5
498.403	1	-1
498.573	1	-1
498.743	1	6
498.913	1	13
499.084	1	1
499.254	1	0
499.424	1	4
499.594	1	-8
499.765	1	-3
499.935	1	-9
500.105	1	9
500.275	1	5
500.446	1	2
500.616	1	-1
500.786	1	11
500.956	1	2
501.127	1	1
501.297	1	-11
501.467	1	-2
501.638	1	11
501.808	1	4
501.978	1	2
502.148	1	-6
502.319	1	12
502.489	1	-3
502.659	1	18
502.829	1	-3
503.000	1	1
503.170	1	-10
503.340	1	7
503.510	1	-4
503.681	1	5
503.851	1	9
504.021	1	6
504.191	1	11
504.362	1	10
504.532	1	1
504.702	1	-4
504.872	1	-16
505.042	1	1
505.213	1	0
505.383	1	3
505.553	1	-4
505.723	1	5
505.894	1	0
506.064	1	13
506.234	1	-6
506.404	1	-5
506.575	1	-3
506.745	1	13
506.915	1	-3
507.085	1	-7
507.256	1	3
507.426	1	0
507.596	1	4
507.766	1	2
507.936	1	2
508.107	1	14
508.277	1	-7
508.447	1	3
508.617	1	-5
508.788	1	11
508.958	1	5
509.128	1	6
509.298	1	-7
509.468	1	11
509.639	1	-1
509.809	1	22
509.979	1	4
510.149	1	9
510.319	1	-7
510.490	1	-1
510.660	1	7
510.830	1	1
511.000	1	6
511.171	1	1
511.341	1	6
511.511	1	4
511.681	1	11
511.851	1	7
512.022	1	-9
512.192	1	-4
512.362	1	3
512.532	1	-1
512.702	1	1
512.873	1	11
513.043	1	12
513.213	1	5
513.383	1	-2
513.553	1	12
513.724	1	-1
513.894	1	-6
514.064	1	5
514.234	1	9
514.404	1	2
514.575	1	2
514.745	1	2
514.915	1	-9
515.085	1	6
515.255	1	11
515.425	1	9
515.596	1	15
515.766	1	3
515.936	1	5
516.106	1	6
516.276	1	1
516.447	1	6
516.617	1	3
516.787	1	2
516.957	1	1
517.127	1	3
517.297	1	5
517.468	1	3
517.638	1	-3
517.808	1	6
517.978	1	12
518.148	1	6
518.319	1	3
518.489	1	1
518.659	1	2
518.829	1	-7
518.999	1	13
519.169	1	3
519.340	1	12
519.510	1	9
519.680	1	1
519.850	1	9
520.020	1	6
520.190	1	-1
520.361	1	1
520.531	1	3
520.701	1	4
520.871	1	-2
521.041	1	10
521.211	1	3
521.382	1	1
521.552	1	1
521.722	1	19
521.892	1	10
522.062	1	1
522.232	1	7
522.402	1	1
522.573	1	-10
522.743	1	9
522.913	1	-3
523.083	1	1
523.253	1	15
523.423	1	3
523.593	1	6
523.764	1	4
523.934	1	11
524.104	1	3
524.274	1	-3
524.444	1	3
524.614	1	4
524.784	1	-8
524.955	1	14
525.125	1	6
525.295	1	4
525.465	1	5
525.635	1	1
525.805	1	6
525.975	1	-1
526.146	1	-3
526.316	1	9
526.486	1	4
526.656	1	-2
526.826	1	10
526.996	1	2
527.166	1	2
527.337	1	3
527.507	1	9
527.677	1	15
527.847	1	8
528.017	1	-5
528.187	1	6
528.357	1	5
528.527	1	10
528.698	1	-5
528.868	1	10
529.038	1	5
529.208	1	1
529.378	1	19
529.548	1	5
529.718	1	13
529.888	1	10
530.058	1	5
530.229	1	1
530.399	1	0
530.569	1	2
530.739	1	4
530.909	1	4
531.079	1	-8
531.249	1	7
531.419	1	7
531.589	1	-2
531.760	1	-9
531.930	1	9
532.100	1	-7
532.270	1	15
532.440	1	-1
532.610	1	6
532.780	1	10
532.950	1	0
533.120	1	16
533.290	1	1
533.461	1	7
533.631	1	3
533.801	1	3
533.971	1	-5
534.141	1	11
534.311	1	17
534.481	1	6
534.651	1	-6
534.821	1	-5
534.991	1	3
535.162	1	0
535.332	1	3
535.502	1	-5
535.672	1	-2
535.842	1	7
536.012	1	1
536.182	1	13
536.352	1	0
536.522	1	-3
536.692	1	3
536.862	1	3
537.032	1	-3
537.203	1	8
537.373	1	-2
537.543	1	-2
537.713	1	3
537.883	1	8
538.053	1	1
538.223	1	-2
538.393	1	1
538.563	1	10
538.733	1	8
538.903	1	1
539.073	1	6
539.243	1	2
539.413	1	5
539.584	1	5
539.754	1	5
539.924	1	5
540.094	1	9
540.264	1	0
540.434	1	6
540.604	1	8
540.774	1	16
540.944	1	8
541.114	1	0
541.284	1	2
541.454	1	5
541.624	1	10
541.794	1	7
541.964	1	-4
542.134	1	7
542.305	1	7
542.475	1	-1
542.645	1	6
542.815	1	-6
542.985	1	1
543.155	1	-7
543.325	1	9
543.495	1	16
543.665	1	-3
543.835	1	2
544.005	1	3
544.175	1	10
544.345	1	-2
544.515	1	0
544.685	1	14
544.855	1	-1
545.025	1	9
545.195	1	4
545.365	1	2
545.535	1	7
545.705	1	9
545.875	1	0
546.045	1	1
546.216	1	-10
546.386	1	2
546.556	1	0
546.726	1	5
546.896	1	-3
547.066	1	7
547.236	1	6
547.406	1	-1
547.576	1	7
547.746	1	15
547.916	1	4
548.086	1	17
548.256	1	0
548.426	1	9
548.596	1	-5
548.766	1	17
548.936	1	19
549.106	1	12
549.276	1	0
549.446	1	3
549.616	1	3
549.786	1	8
549.956	1	2
550.126	1	1
550.296	1	6
550.466	1	11
550.636	1	6
550.806	1	12
550.976	1	6
551.146	1	-3
551.316	1	-1
551.486	1	3
551.656	1	3
551.826	1	14
551.996	1	-9
552.166	1	9
552.336	1	-6
552.506	1	8
552.676	1	4
552.846	1	2
553.016	1	13
553.186	1	-9
553.356	1	-2
553.526	1	0
553.696	1	13
553.866	1	11
554.036	1	6
554.206	1	5
554.376	1	-14
554.546	1	2
554.716	1	-3
554.886	1	15
555.056	1	4
555.226	1	9
555.396	1	3
555.566	1	-3
555.736	1	15
555.906	1	2
556.076	1	17
556.246	1	1
556.416	1	0
556.586	1	-8
556.756	1	-2
556.926	1	4
557.096	1	1
557.266	1	7
557.436	1	7
557.606	1	6
557.776	1	11
557.946	1	1
558.116	1	0
558.286	1	7
558.456	1	-7
558.626	1	-9
558.796	1	7
558.966	1	5
559.136	1	7
559.306	1	-2
559.476	1	7
559.646	1	7
559.816	1	7
559.986	1	-9
560.155	1	15
560.325	1	2
560.495	1	-1
560.665	1	-10
560.835	1	0
561.005	1	8
561.175	1	-2
561.345	1	-6
561.515	1	3
561.685	1	0
561.855	1	3
562.025	1	8
562.195	1	5
562.365	1	6
562.535	1	-3
562.705	1	-6
562.875	1	8
563.045	1	-3
563.215	1	5
563.385	1	-7
563.555	1	-6
563.725	1	5
563.895	1	2
564.064	1	-5
564.234	1	5
564.404	1	-2
564.574	1	18
564.744	1	-6
564.914	1	5
565.084	1	-4
565.254	1	7
565.424	1	5
565.594	1	-2
565.764	1	-5
565.934	1	5
566.104	1	-2
566.274	1	15
566.444	1	-3
566.614	1	-1
566.783	1	3
566.953	1	6
567.123	1	7
567.293	1	-5
567.463	1	-5
567.633	1	4
567.803	1	15
567.973	1	5
568.143	1	5
568.313	1	0
568.483	1	8
568.653	1	-7
568.823	1	0
568.993	1	-1
569.162	1	0
569.332	1	3
569.502	1	2
569.672	1	5
569.842	1	-1
570.012	1	4
570.182	1	-3
570.352	1	4
570.522	1	-11
570.692	1	9
570.862	1	2
571.031	1	-3
571.201	1	2
571.371	1	7
571.541	1	5
571.711	1	3
571.881	1	9
572.051	1	-5
572.221	1	1
572.391	1	15
572.561	1	6
572.731	1	-1
572.900	1	-10
573.070	1	0
573.240	1	-5
573.410	1	-2
573.580	1	-3
573.750	1	11
573.920	1	-3
574.090	1	18
574.260	1	-3
574.430	1	1
574.599	1	-4
574.769	1	-3
574.939	1	-8
575.109	1	-1
575.279	1	5
575.449	1	11
575.619	1	6
575.789	1	-4
575.959	1	2
576.128	1	3
576.298	1	-2
576.468	1	-1
576.638	1	-4
576.808	1	-9
576.978	1	0
577.148	1	2
577.318	1	19
577.487	1	-2
577.657	1	4
577.827	1	2
577.997	1	1
578.167	1	-4
578.337	1	-1
578.507	1	-6
578.677	1	3
578.846	1	-4
579.016	1	-4
579.186	1	-4
579.356	1	10
579.526	1	4
579.696	1	14
579.866	1	-10
580.036	1	1
580.205	1	-6
580.375	1	8
580.545	1	-10
580.715	1	1
580.885	1	9
581.055	1	4
581.225	1	7
581.394	1	-6
581.564	1	-2
581.734	1	-9
581.904	1	2
582.074	1	2
582.244	1	4
582.414	1	-3
582.583	1	-1
582.753	1	4
582.923	1	1
583.093	1	4
583.263	1	1
583.433	1	3
583.603	1	-12
583.772	1	-9
583.942	1	-3
584.112	1	5
584.282	1	1
584.452	1	0
584.622	1	-1
584.791	1	2
584.961	1	-5
585.131	1	7
585.301	1	-2
585.471	1	-6
585.641	1	-3
585.811	1	-5
585.980	1	0
586.150	1	3
586.320	1	-3
586.490	1	3
586.660	1	7
586.830	1	-7
586.999	1	-14
587.169	1	5
587.339	1	-1
587.509	1	4
587.679	1	1
587.849	1	7
588.018	1	-7
588.188	1	10
588.358	1	0
588.528	1	-7
588.698	1	-4
588.867	1	-4
589.037	1	3
589.207	1	2
589.377	1	2
589.547	1	6
589.717	1	1
589.886	1	-1
590.056	1	7
590.226	1	-8
590.396	1	-7
590.566	1	-8
590.735	1	-5
590.905	1	8
591.075	1	-8
591.245	1	0
591.415	1	4
591.585	1	5
591.754	1	3
591.924	1	3
592.094	1	-8
592.264	1	-9
592.434	1	-1
592.603	1	-5
592.773	1	3
592.943	1	8
593.113	1	1
593.283	1	-9
593.452	1	-3
593.622	1	2
593.792	1	6
593.962	1	-4
594.132	1	5
594.301	1	8
594.471	1	3
594.641	1	7
594.811	1	-5
594.981	1	-2
595.150	1	-2
595.320	1	-1
595.490	1	6
595.660	1	-2
595.829	1	-19
595.999	1	-1
596.169	1	5
596.339	1	1
596.509	1	-7
596.678	1	6
596.848	1	12
597.018	1	1
597.188	1	-5
597.358	1	-3
597.527	1	-7
597.697	1	-10
597.867	1	7
598.037	1	2
598.206	1	9
598.376	1	1
598.546	1	11
598.716	1	-7
598.885	1	4
599.055	1	7
599.225	1	1
599.395	1	-2
599.565	1	-7
599.734	1	10
599.904	1	-14
600.074	1	14
600.244	1	1
600.413	1	-5
600.583	1	-5
600.753	1	8
600.923	1	2
601.092	1	0
601.262	1	1
601.432	1	3
601.602	1	11
601.771	1	-1
601.941	1	19
602.111	1	-1
602.281	1	1
602.451	1	-4
602.620	1	4
602.790	1	-6
602.960	1	-9
603.130	1	5
603.299	1	0
603.469	1	11
603.639	1	-9
603.809	1	0
603.978	1	-2
604.148	1	2
604.318	1	9
604.487	1	-7
604.657	1	-12
604.827	1	4
604.997	1	12
605.166	1	-6
605.336	1	-4
605.506	1	-17
605.676	1	8
605.845	1	0
606.015	1	-13
606.185	1	5
606.355	1	-6
606.524	1	-4
606.694	1	5
606.864	1	1
607.034	1	2
607.203	1	8
607.373	1	9
607.543	1	5
607.712	1	3
607.882	1	-2
608.052	1	1
608.222	1	2
608.391	1	4
608.561	1	-5
608.731	1	-4
608.901	1	0
609.070	1	-13
609.240	1	3
609.410	1	5
609.579	1	5
609.749	1	11
609.919	1	-11
610.089	1	-1
610.258	1	0
610.428	1	15
610.598	1	1
610.767	1	7
610.937	1	8
611.107	1	1
611.277	1	-7
611.446	1	-3
611.616	1	5
611.786	1	1
611.955	1	0
612.125	1	6
612.295	1	1
612.465	1	1
612.634	1	3
612.804	1	5
612.974	1	-6
613.143	1	1
613.313	1	-3
613.483	1	10
613.652	1	6
613.822	1	6
613.992	1	-1
614.162	1	4
614.331	1	0
614.501	1	-4
614.671	1	-3
614.840	1	2
615.010	1	2
615.180	1	-2
615.349	1	11
615.519	1	2
615.689	1	-9
615.858	1	8
616.028	1	-4
616.198	1	2
616.368	1	-4
616.537	1	2
616.707	1	-3
616.877	1	-2
617.046	1	11
617.216	1	9
617.386	1	-1
617.555	1	-9
617.725	1	3
617.895	1	-1
618.064	1	-6
618.234	1	-3
618.404	1	-10
618.573	1	4
618.743	1	4
618.913	1	8
619.082	1	1
619.252	1	3
619.422	1	-6
619.591	1	-4
619.761	1	-1
619.931	1	5
620.100	1	15
620.270	1	7
620.440	1	11
620.609	1	6
620.779	1	3
620.949	1	2
621.118	1	6
621.288	1	5
621.458	1	5
621.627	1	-3
621.797	1	-4
621.967	1	5
622.136	1	0
622.306	1	8
622.476	1	-12
622.645	1	0
622.815	1	1
622.985	1	2
623.154	1	-7
623.324	1	2
623.494	1	-15
623.663	1	9
623.833	1	3
624.002	1	4
624.172	1	-1
624.342	1	-3
624.511	1	1
624.681	1	-9
624.851	1	-2
625.020	1	4
625.190	1	-6
625.360	1	-3
625.529	1	-4
625.699	1	3
625.869	1	13
626.038	1	-7
626.208	1	10
626.377	1	-6
626.547	1	-7
626.717	1	-7
626.886	1	-3
627.056	1	-10
627.226	1	0
627.395	1	-4
627.565	1	4
627.735	1	-3
627.904	1	10
628.074	1	6
628.243	1	4
628.413	1	-11
628.583	1	0
628.752	1	-3
628.922	1	4
629.091	1	4
629.261	1	5
629.431	1	-3
629.600	1	-2
629.770	1	-3
629.940	1	-12
630.109	1	3
630.279	1	-1
630.448	1	-2
630.618	1	10
630.788	1	-2
630.957	1	2
631.127	1	-10
631.297	1	-4
631.466	1	-2
631.636	1	10
631.805	1	1
631.975	1	-1
632.145	1	-5
632.314	1	5
632.484	1	7
632.653	1	-5
632.823	1	-5
632.993	1	6
633.162	1	4
633.332	1	-6
633.501	1	-4
633.671	1	-1
633.841	1	9
634.010	1	14
634.180	1	4
634.349	1	6
634.519	1	5
634.689	1	-2
634.858	1	-7
635.028	1	-5
635.197	1	-3
635.367	1	0
635.537	1	11
635.706	1	9
635.876	1	6
636.045	1	-3
636.215	1	19
636.384	1	0
636.554	1	-1
636.724	1	2
636.893	1	0
637.063	1	0
637.232	1	4
637.402	1	-10
637.572	1	5
637.741	1	5
637.911	1	-9
638.080	1	4
638.250	1	-3
638.419	1	-3
638.589	1	3
638.759	1	-4
638.928	1	7
639.098	1	-3
639.267	1	3
639.437	1	-3
639.606	1	4
639.776	1	-4
639.946	1	3
640.115	1	-4
640.285	1	3
640.454	1	3
640.624	1	3
640.793	1	0
640.963	1	5
641.132	1	2
641.302	1	0
641.472	1	2
641.641	1	7
641.811	1	2
641.980	1	-4
642.150	1	-4
642.319	1	11
642.489	1	-9
642.659	1	10
642.828	1	2
642.998	1	13
643.167	1	-12
643.337	1	-3
643.506	1	0
643.676	1	-2
643.845	1	13
644.015	1	2
644.184	1	-4
644.354	1	-6
644.524	1	-6
644.693	1	6
644.863	1	4
645.032	1	2
645.202	1	-1
645.371	1	-7
645.541	1	3
645.710	1	0
645.880	1	-6
646.049	1	1
646.219	1	-4
646.388	1	-1
646.558	1	2
646.728	1	-5
646.897	1	5
647.067	1	8
647.236	1	6
647.406	1	6
647.575	1	15
647.745	1	4
647.914	1	-8
648.084	1	4
648.253	1	0
648.423	1	-11
648.592	1	-3
648.762	1	6
648.931	1	3
649.101	1	7
649.270	1	-3
649.440	1	2
649.610	1	7
649.779	1	4
649.949	1	2
650.118	1	0
650.288	1	2
650.457	1	10
650.627	1	9
650.796	1	-3
650.966	1	-12
651.135	1	-1
651.305	1	-8
651.474	1	4
651.644	1	11
651.813	1	13
651.983	1	0
652.152	1	2
652.322	1	2
652.491	1	7
652.661	1	0
652.830	1	0
653.000	1	0
653.169	1	2
653.339	1	-1
653.508	1	-4
653.678	1	-8
653.847	1	-2
654.017	1	1
654.186	1	-4
654.356	1	-1
654.525	1	-2
654.695	1	0
654.864	1	-2
655.034	1	2
655.203	1	5
655.373	1	4
655.542	1	-1
655.712	1	-1
655.881	1	7
656.051	1	9
656.220	1	0
656.390	1	-5
656.559	1	-5
656.729	1	2
656.898	1	0
657.068	1	-3
657.237	1	8
657.406	1	0
657.576	1	-4
657.745	1	3
657.915	1	4
658.084	1	1
658.254	1	2
658.423	1	13
658.593	1	10
658.762	1	5
658.932	1	0
659.101	1	-2
659.271	1	-5
659.440	1	1
659.610	1	-1
659.779	1	15
659.949	1	0
660.118	1	3
660.288	1	5
660.457	1	10
660.626	1	-6
660.796	1	0
660.965	1	-2
661.135	1	-2
661.304	1	-8
661.474	1	-2
661.643	1	5
661.813	1	3
661.982	1	7
662.152	1	-5
662.321	1	-12
662.491	1	-5
662.660	1	0
662.829	1	4
662.999	1	1
663.168	1	6
663.338	1	6
663.507	1	8
663.677	1	-2
663.846	1	4
664.016	1	-5
664.185	1	-2
664.354	1	2
664.524	1	1
664.693	1	2
664.863	1	-5
665.032	1	3
665.202	1	-2
665.371	1	0
665.541	1	14
665.710	1	-3
665.879	1	-2
666.049	1	-7
666.218	1	-5
666.388	1	4
666.557	1	6
666.727	1	4
666.896	1	11
667.065	1	-5
667.235	1	16
667.404	1	7
667.574	1	-5
667.743	1	-2
667.913	1	6
668.082	1	-8
668.251	1	-4
668.421	1	7
668.590	1	-1
668.760	1	0
668.929	1	4
669.099	1	-4
669.268	1	-7
669.437	1	4
669.607	1	5
669.776	1	10
669.946	1	0
670.115	1	-13
670.285	1	5
670.454	1	-4
670.623	1	1
670.793	1	12
670.962	1	-4
671.132	1	1
671.301	1	3
671.470	1	-3
671.640	1	-3
671.809	1	-5
671.979	1	3
672.148	1	3
672.317	1	1
672.487	1	1
672.656	1	0
672.826	1	-6
672.995	1	5
673.164	1	-4
673.334	1	-9
673.503	1	-10
673.673	1	0
673.842	1	5
674.011	1	6
674.181	1	7
674.350	1	-1
674.520	1	-3
674.689	1	-9
674.858	1	-9
675.028	1	0
675.197	1	4
675.367	1	3
675.536	1	7
675.705	1	5
675.875	1	4
676.044	1	-7
676.214	1	2
676.383	1	7
676.552	1	5
676.722	1	-9
676.891	1	-7
677.060	1	-2
677.230	1	11
677.399	1	-8
677.569	1	4
677.738	1	3
677.907	1	1
678.077	1	5
678.246	1	-3
678.416	1	2
678.585	1	-7
678.754	1	4
678.924	1	10
679.093	1	5
679.262	1	8
679.432	1	10
679.601	1	1
679.771	1	3
679.940	1	1
680.109	1	-8
680.279	1	1
680.448	1	0
680.617	1	-6
680.787	1	-7
680.956	1	11
681.125	1	1
681.295	1	-5
681.464	1	0
681.634	1	9
681.803	1	-1
681.972	1	-6
682.142	1	-3
682.311	1	11
682.480	1	9
682.650	1	4
682.819	1	7
682.988	1	-4
683.158	1	-5
683.327	1	4
683.496	1	1
683.666	1	6
683.835	1	-3
684.004	1	3
684.174	1	-3
684.343	1	6
684.512	1	3
684.682	1	1
684.851	1	11
685.021	1	-4
685.190	1	0
685.359	1	-7
685.529	1	8
685.698	1	-4
685.867	1	-3
686.037	1	4
686.206	1	0
686.375	1	11
686.545	1	10
686.714	1	-6
686.883	1	7
687.053	1	-4
687.222	1	2
687.391	1	7
687.561	1	8
687.730	1	-2
687.899	1	-1
688.069	1	9
688.238	1	-4
688.407	1	1
688.577	1	-4
688.746	1	8
