340.368	1	9
340.539	1	5
340.710	1	-6
340.881	1	11
341.052	1	-3
341.223	1	-1
341.394	1	1
341.565	1	6
341.737	1	4
341.908	1	-11
342.079	1	-2
342.250	1	-2
342.421	1	0
342.592	1	4
342.763	1	5
342.934	1	0
343.105	1	-1
343.276	1	8
343.447	1	-6
343.618	1	-3
343.789	1	-7
343.960	1	-3
344.131	1	1
344.302	1	-5
344.473	1	2
344.644	1	4
344.815	1	2
344.986	1	11
345.157	1	12
345.328	1	-14
345.499	1	3
345.670	1	-5
345.841	1	-4
346.012	1	4
346.183	1	10
346.354	1	-1
346.526	1	-3
346.697	1	-5
346.868	1	-1
347.039	1	-10
347.210	1	-1
347.381	1	9
347.552	1	9
347.723	1	-3
347.894	1	1
348.065	1	6
348.236	1	7
348.407	1	-4
348.578	1	3
348.749	1	-2
348.920	1	-4
349.091	1	5
349.262	1	-8
349.433	1	-3
349.604	1	-1
349.775	1	9
349.946	1	-2
350.117	1	7
350.288	1	10
350.459	1	-3
350.630	1	8
350.801	1	7
350.972	1	10
351.143	1	2
351.314	1	-6
351.485	1	8
351.656	1	-5
351.827	1	11
351.998	1	9
352.169	1	0
352.340	1	-3
352.511	1	-5
352.682	1	6
352.853	1	4
353.024	1	2
353.195	1	-4
353.366	1	0
353.537	1	2
353.708	1	6
353.879	1	-3
354.050	1	9
354.221	1	3
354.392	1	17
354.563	1	17
354.734	1	2
354.905	1	3
355.076	1	-1
355.247	1	10
355.418	1	1
355.589	1	6
355.760	1	8
355.931	1	12
356.102	1	-7
356.273	1	1
356.444	1	6
356.615	1	5
356.785	1	6
356.956	1	6
357.127	1	10
357.298	1	0
357.469	1	7
357.640	1	5
357.811	1	4
357.982	1	4
358.153	1	8
358.324	1	14
358.495	1	-2
358.666	1	9
358.837	1	21
359.008	1	16
359.179	1	7
359.350	1	11
359.521	1	17
359.692	1	13
359.863	1	11
360.034	1	21
360.205	1	7
360.376	1	15
360.547	1	8
360.718	1	23
360.889	1	7
361.060	1	14
361.231	1	9
361.401	1	12
361.572	1	13
361.743	1	13
361.914	1	19
362.085	1	22
362.256	1	19
362.427	1	4
362.598	1	15
362.769	1	20
362.940	1	16
363.111	1	20
363.282	1	14
363.453	1	15
363.624	1	9
363.795	1	17
363.966	1	26
364.137	1	25
364.308	1	34
364.478	1	35
364.649	1	37
364.820	1	33
364.991	1	47
365.162	1	22
365.333	1	27
365.504	1	24
365.675	1	35
365.846	1	29
366.017	1	33
366.188	1	41
366.359	1	46
366.530	1	49
366.701	1	48
366.871	1	43
367.042	1	47
367.213	1	41
367.384	1	28
367.555	1	45
367.726	1	36
367.897	1	38
368.068	1	52
368.239	1	29
368.410	1	43
368.581	1	39
368.752	1	43
368.923	1	37
369.093	1	36
369.264	1	40
369.435	1	35
369.606	1	36
369.777	1	34
369.948	1	26
370.119	1	28
370.290	1	33
370.461	1	31
370.632	1	34
370.803	1	31
370.973	1	28
371.144	1	41
371.315	1	29
371.486	1	26
371.657	1	23
371.828	1	30
371.999	1	16
372.170	1	27
372.341	1	23
372.512	1	21
372.682	1	21
372.853	1	29
373.024	1	35
373.195	1	18
373.366	1	20
373.537	1	32
373.708	1	12
373.879	1	22
374.050	1	15
374.220	1	16
374.391	1	15
374.562	1	11
374.733	1	16
374.904	1	25
375.075	1	11
375.246	1	4
375.417	1	19
375.588	1	26
375.758	1	-2
375.929	1	15
376.100	1	13
376.271	1	19
376.442	1	4
376.613	1	17
376.784	1	21
376.955	1	13
377.125	1	5
377.296	1	11
377.467	1	9
377.638	1	11
377.809	1	12
377.980	1	18
378.151	1	15
378.321	1	15
378.492	1	19
378.663	1	8
378.834	1	22
379.005	1	11
379.176	1	5
379.347	1	6
379.518	1	10
379.688	1	14
379.859	1	14
380.030	1	23
380.201	1	12
380.372	1	8
380.543	1	14
380.714	1	8
380.884	1	15
381.055	1	5
381.226	1	12
381.397	1	15
381.568	1	22
381.739	1	15
381.910	1	1
382.080	1	4
382.251	1	12
382.422	1	9
382.593	1	13
382.764	1	3
382.935	1	11
383.105	1	15
383.276	1	10
383.447	1	11
383.618	1	23
383.789	1	16
383.960	1	16
384.130	1	11
384.301	1	24
384.472	1	13
384.643	1	20
384.814	1	14
384.985	1	12
385.156	1	35
385.326	1	15
385.497	1	17
385.668	1	25
385.839	1	23
386.010	1	21
386.180	1	26
386.351	1	21
386.522	1	16
386.693	1	22
386.864	1	35
387.035	1	19
387.205	1	18
387.376	1	39
387.547	1	23
387.718	1	17
387.889	1	30
388.060	1	20
388.230	1	16
388.401	1	29
388.572	1	19
388.743	1	22
388.914	1	17
389.084	1	23
389.255	1	27
389.426	1	15
389.597	1	31
389.768	1	26
389.939	1	16
390.109	1	13
390.280	1	8
390.451	1	15
390.622	1	16
390.793	1	20
390.963	1	21
391.134	1	11
391.305	1	12
391.476	1	22
391.647	1	21
391.817	1	15
391.988	1	13
392.159	1	30
392.330	1	12
392.501	1	14
392.671	1	23
392.842	1	18
393.013	1	19
393.184	1	22
393.355	1	21
393.525	1	22
393.696	1	15
393.867	1	22
394.038	1	8
394.208	1	24
394.379	1	17
394.550	1	11
394.721	1	4
394.892	1	8
395.062	1	20
395.233	1	9
395.404	1	19
395.575	1	12
395.746	1	14
395.916	1	11
396.087	1	19
396.258	1	21
396.429	1	15
396.599	1	19
396.770	1	25
396.941	1	6
397.112	1	16
397.283	1	4
397.453	1	23
397.624	1	14
397.795	1	15
397.966	1	20
398.136	1	15
398.307	1	16
398.478	1	12
398.649	1	18
398.819	1	21
398.990	1	13
399.161	1	7
399.332	1	22
399.503	1	14
399.673	1	-6
399.844	1	14
400.015	1	14
400.186	1	17
400.356	1	19
400.527	1	33
400.698	1	12
400.869	1	6
401.039	1	13
401.210	1	9
401.381	1	9
401.552	1	6
401.722	1	15
401.893	1	16
402.064	1	17
402.235	1	1
402.405	1	14
402.576	1	2
402.747	1	7
402.918	1	26
403.088	1	13
403.259	1	10
403.430	1	26
403.601	1	13
403.771	1	25
403.942	1	18
404.113	1	11
404.284	1	13
404.454	1	14
404.625	1	11
404.796	1	6
404.967	1	15
405.137	1	13
405.308	1	17
405.479	1	18
405.649	1	21
405.820	1	6
405.991	1	12
406.162	1	11
406.332	1	-4
406.503	1	6
406.674	1	7
406.845	1	19
407.015	1	12
407.186	1	17
407.357	1	15
407.527	1	12
407.698	1	16
407.869	1	6
408.040	1	13
408.210	1	13
408.381	1	2
408.552	1	-1
408.722	1	5
408.893	1	6
409.064	1	1
409.235	1	4
409.405	1	25
409.576	1	13
409.747	1	9
409.917	1	17
410.088	1	0
410.259	1	2
410.430	1	-7
410.600	1	4
410.771	1	12
410.942	1	9
411.112	1	1
411.283	1	11
411.454	1	10
411.625	1	-2
411.795	1	23
411.966	1	12
412.137	1	10
412.307	1	2
412.478	1	9
412.649	1	7
412.819	1	5
412.990	1	5
413.161	1	3
413.332	1	13
413.502	1	7
413.673	1	23
413.844	1	13
414.014	1	-1
414.185	1	8
414.356	1	7
414.526	1	5
414.697	1	8
414.868	1	2
415.038	1	2
415.209	1	1
415.380	1	11
415.550	1	13
415.721	1	8
415.892	1	13
416.063	1	12
416.233	1	4
416.404	1	9
416.575	1	1
416.745	1	8
416.916	1	2
417.087	1	24
417.257	1	14
417.428	1	4
417.599	1	8
417.769	1	5
417.940	1	8
418.111	1	5
418.281	1	1
418.452	1	16
418.623	1	6
418.793	1	-1
418.964	1	6
419.135	1	10
419.305	1	4
419.476	1	3
419.647	1	8
419.817	1	1
419.988	1	-5
420.159	1	7
420.329	1	9
420.500	1	21
420.671	1	-5
420.841	1	6
421.012	1	3
421.183	1	11
421.353	1	4
421.524	1	4
421.695	1	8
421.865	1	13
422.036	1	12
422.206	1	5
422.377	1	12
422.548	1	4
422.718	1	-2
422.889	1	-2
423.060	1	-1
423.230	1	7
423.401	1	3
423.572	1	11
423.742	1	1
423.913	1	-1
424.084	1	2
424.254	1	2
424.425	1	3
424.595	1	2
424.766	1	4
424.937	1	13
425.107	1	4
425.278	1	8
425.449	1	-3
425.619	1	8
425.790	1	15
425.961	1	5
426.131	1	-7
426.302	1	6
426.472	1	-2
426.643	1	-4
426.814	1	4
426.984	1	8
427.155	1	5
427.326	1	3
427.496	1	3
427.667	1	10
427.837	1	-2
428.008	1	5
428.179	1	-7
428.349	1	-5
428.520	1	5
428.691	1	-2
428.861	1	10
429.032	1	9
429.202	1	8
429.373	1	1
429.544	1	4
429.714	1	-3
429.885	1	-2
430.055	1	3
430.226	1	4
430.397	1	3
430.567	1	18
430.738	1	-7
430.909	1	3
431.079	1	5
431.250	1	2
431.420	1	-3
431.591	1	6
431.762	1	3
431.932	1	-1
432.103	1	7
432.273	1	3
432.444	1	-5
432.615	1	-2
432.785	1	-11
432.956	1	7
433.126	1	4
433.297	1	9
433.468	1	-4
433.638	1	5
433.809	1	4
433.979	1	11
434.150	1	-1
434.320	1	3
434.491	1	9
434.662	1	8
434.832	1	-6
435.003	1	8
435.173	1	8
435.344	1	-1
435.515	1	-4
435.685	1	11
435.856	1	1
436.026	1	8
436.197	1	0
436.368	1	8
436.538	1	-6
436.709	1	-11
436.879	1	-3
437.050	1	11
437.220	1	-13
437.391	1	9
437.562	1	8
437.732	1	8
437.903	1	-5
438.073	1	2
438.244	1	-2
438.414	1	9
438.585	1	1
438.756	1	6
438.926	1	-5
439.097	1	3
439.267	1	-1
439.438	1	4
439.608	1	0
439.779	1	-3
439.949	1	0
440.120	1	5
440.291	1	0
440.461	1	8
440.632	1	10
440.802	1	2
440.973	1	-1
441.143	1	-5
441.314	1	2
441.485	1	8
441.655	1	-3
441.826	1	-11
441.996	1	4
442.167	1	11
442.337	1	0
442.508	1	-2
442.678	1	0
442.849	1	-3
443.019	1	3
443.190	1	0
443.361	1	7
443.531	1	14
443.702	1	-1
443.872	1	-3
444.043	1	11
444.213	1	12
444.384	1	3
444.554	1	0
444.725	1	3
444.895	1	-2
445.066	1	-1
445.237	1	-1
445.407	1	3
445.578	1	12
445.748	1	8
445.919	1	-7
446.089	1	0
446.260	1	-5
446.430	1	2
446.601	1	12
446.771	1	0
446.942	1	-2
447.112	1	4
447.283	1	-3
447.453	1	1
447.624	1	2
447.794	1	12
447.965	1	8
448.135	1	-1
448.306	1	-1
448.477	1	-3
448.647	1	1
448.818	1	-6
448.988	1	-3
449.159	1	1
449.329	1	8
449.500	1	-2
449.670	1	5
449.841	1	0
450.011	1	2
450.182	1	-5
450.352	1	7
450.523	1	-4
450.693	1	4
450.864	1	-1
451.034	1	5
451.205	1	-1
451.375	1	0
451.546	1	-5
451.716	1	7
451.887	1	7
452.057	1	17
452.228	1	6
452.398	1	6
452.569	1	-3
452.739	1	5
452.910	1	-2
453.080	1	7
453.251	1	4
453.421	1	0
453.592	1	2
453.762	1	7
453.933	1	-5
454.103	1	4
454.274	1	-1
454.444	1	-2
454.615	1	4
454.785	1	8
454.956	1	7
455.126	1	1
455.297	1	6
455.467	1	-15
455.638	1	11
455.808	1	-4
455.979	1	-1
456.149	1	5
456.320	1	7
456.490	1	4
456.661	1	-2
456.831	1	-5
457.001	1	-1
457.172	1	5
457.342	1	4
457.513	1	8
457.683	1	1
457.854	1	-1
458.024	1	-4
458.195	1	-5
458.365	1	9
458.536	1	-1
458.706	1	6
458.877	1	1
459.047	1	9
459.218	1	3
459.388	1	8
459.559	1	4
459.729	1	-4
459.899	1	-4
460.070	1	-3
460.240	1	3
460.411	1	1
460.581	1	1
460.752	1	-5
460.922	1	16
461.093	1	-2
461.263	1	5
461.434	1	6
461.604	1	10
461.775	1	-1
461.945	1	-2
462.115	1	2
462.286	1	-1
462.456	1	-1
462.627	1	9
462.797	1	-7
462.968	1	0
463.138	1	2
463.309	1	8
463.479	1	3
463.649	1	-2
463.820	1	0
463.990	1	15
464.161	1	0
464.331	1	1
464.502	1	-1
464.672	1	-1
464.843	1	-2
465.013	1	5
465.183	1	-2
465.354	1	9
465.524	1	4
465.695	1	5
465.865	1	10
466.036	1	5
466.206	1	-6
466.376	1	-3
466.547	1	0
466.717	1	-1
466.888	1	-5
467.058	1	-1
467.229	1	13
467.399	1	-3
467.569	1	7
467.740	1	8
467.910	1	3
468.081	1	-3
468.251	1	7
468.422	1	-5
468.592	1	4
468.762	1	-16
468.933	1	2
469.103	1	-4
469.274	1	4
469.444	1	10
469.614	1	7
469.785	1	8
469.955	1	3
470.126	1	7
470.296	1	11
470.467	1	-11
470.637	1	-2
470.807	1	17
470.978	1	5
471.148	1	-3
471.319	1	8
471.489	1	-12
471.659	1	3
471.830	1	1
472.000	1	-3
472.171	1	-5
472.341	1	-2
472.511	1	19
472.682	1	-8
472.852	1	2
473.023	1	11
473.193	1	8
473.363	1	5
473.534	1	-2
473.704	1	3
473.875	1	-8
474.045	1	6
474.215	1	2
474.386	1	9
474.556	1	2
474.727	1	-3
474.897	1	-6
475.067	1	-5
475.238	1	-3
475.408	1	-4
475.578	1	1
475.749	1	7
475.919	1	2
476.090	1	6
476.260	1	7
476.430	1	18
476.601	1	19
476.771	1	1
476.942	1	3
477.112	1	1
477.282	1	2
477.453	1	0
477.623	1	8
477.793	1	7
477.964	1	7
478.134	1	-2
478.305	1	8
478.475	1	4
478.645	1	-1
478.816	1	4
478.986	1	3
479.156	1	1
479.327	1	-1
479.497	1	3
479.667	1	14
479.838	1	-13
480.008	1	0
480.179	1	-10
480.349	1	7
480.519	1	-1
480.690	1	-3
480.860	1	1
481.030	1	2
481.201	1	-7
481.371	1	9
481.541	1	6
481.712	1	-4
481.882	1	-4
482.053	1	3
482.223	1	8
482.393	1	0
482.564	1	5
482.734	1	10
482.904	1	-6
483.075	1	4
483.245	1	5
483.415	1	1
483.586	1	1
483.756	1	4
483.926	1	-2
484.097	1	9
484.267	1	-11
484.437	1	4
484.608	1	2
484.778	1	1
484.948	1	4
485.119	1	-3
485.289	1	-3
485.459	1	1
485.630	1	5
485.800	1	-2
485.970	1	5
486.141	1	6
486.311	1	2
486.481	1	3
486.652	1	-8
486.822	1	4
486.992	1	6
487.163	1	4
487.333	1	7
487.503	1	7
487.674	1	3
487.844	1	-5
488.014	1	7
488.185	1	-7
488.355	1	5
488.525	1	1
488.696	1	2
488.866	1	-9
489.036	1	10
489.207	1	3
489.377	1	-1
489.547	1	4
489.718	1	0
489.888	1	5
490.058	1	3
490.228	1	-4
490.399	1	7
490.569	1	5
490.739	1	10
490.910	1	-3
491.080	1	-4
491.250	1	8
491.421	1	-1
491.591	1	-4
491.761	1	-6
491.932	1	1
492.102	1	2
492.272	1	9
492.442	1	6
492.613	1	14
492.783	1	4
492.953	1	-5
493.124	1	13
493.294	1	12
493.464	1	5
493.635	1	0
493.805	1	12
493.975	1	-1
494.145	1	3
494.316	1	6
494.486	1	5
494.656	1	1
494.827	1	17
494.997	1	5
495.167	1	10
495.337	1	4
495.508	1	4
495.678	1	10
495.848	1	4
496.019	1	7
496.189	1	0
496.359	1	-5
496.529	1	11
496.700	1	6
496.870	1	16
497.040	1	7
497.211	1	7
497.381	1	7
497.551	1	2
497.721	1	-1
497.892	1	3
498.062	1	6
498.232	1	8
498.403	1	2
498.573	1	11
498.743	1	15
498.913	1	16
499.084	1	2
499.254	1	1
499.424	1	7
499.594	1	2
499.765	1	11
499.935	1	3
500.105	1	9
500.275	1	6
500.446	1	18
500.616	1	8
500.786	1	12
500.956	1	1
501.127	1	8
501.297	1	-2
501.467	1	-1
501.638	1	6
501.808	1	12
501.978	1	16
502.148	1	9
502.319	1	16
502.489	1	5
502.659	1	19
502.829	1	14
503.000	1	11
503.170	1	8
503.340	1	13
503.510	1	3
503.681	1	4
503.851	1	12
504.021	1	8
504.191	1	10
504.362	1	16
504.532	1	12
504.702	1	16
504.872	1	-2
505.042	1	2
505.213	1	10
505.383	1	9
505.553	1	8
505.723	1	8
505.894	1	12
506.064	1	15
506.234	1	5
506.404	1	6
506.575	1	2
506.745	1	26
506.915	1	4
507.085	1	11
507.256	1	9
507.426	1	7
507.596	1	7
507.766	1	9
507.936	1	14
508.107	1	18
508.277	1	5
508.447	1	10
508.617	1	6
508.788	1	13
508.958	1	2
509.128	1	1
509.298	1	4
509.468	1	22
509.639	1	8
509.809	1	13
509.979	1	16
510.149	1	19
510.319	1	1
510.490	1	8
510.660	1	14
510.830	1	8
511.000	1	14
511.171	1	17
511.341	1	11
511.511	1	14
511.681	1	19
511.851	1	16
512.022	1	8
512.192	1	5
512.362	1	16
512.532	1	5
512.702	1	1
512.873	1	24
513.043	1	19
513.213	1	25
513.383	1	11
513.553	1	19
513.724	1	-2
513.894	1	4
514.064	1	14
514.234	1	18
514.404	1	19
514.575	1	10
514.745	1	11
514.915	1	-3
515.085	1	9
515.255	1	6
515.425	1	8
515.596	1	14
515.766	1	5
515.936	1	11
516.106	1	9
516.276	1	4
516.447	1	13
516.617	1	10
516.787	1	10
516.957	1	22
517.127	1	14
517.297	1	20
517.468	1	6
517.638	1	7
517.808	1	14
517.978	1	20
518.148	1	10
518.319	1	6
518.489	1	7
518.659	1	7
518.829	1	1
518.999	1	20
519.169	1	12
519.340	1	13
519.510	1	17
519.680	1	18
519.850	1	11
520.020	1	17
520.190	1	14
520.361	1	13
520.531	1	15
520.701	1	18
520.871	1	8
521.041	1	20
521.211	1	6
521.382	1	13
521.552	1	4
521.722	1	18
521.892	1	18
522.062	1	9
522.232	1	23
522.402	1	19
522.573	1	20
522.743	1	20
522.913	1	16
523.083	1	15
523.253	1	21
523.423	1	14
523.593	1	10
523.764	1	18
523.934	1	20
524.104	1	20
524.274	1	17
524.444	1	13
524.614	1	14
524.784	1	11
524.955	1	16
525.125	1	17
525.295	1	17
525.465	1	18
525.635	1	9
525.805	1	16
525.975	1	11
526.146	1	12
526.316	1	7
526.486	1	18
526.656	1	21
526.826	1	24
526.996	1	8
527.166	1	1
527.337	1	22
527.507	1	12
527.677	1	18
527.847	1	16
528.017	1	12
528.187	1	23
528.357	1	17
528.527	1	18
528.698	1	13
528.868	1	14
529.038	1	13
529.208	1	5
529.378	1	21
529.548	1	12
529.718	1	16
529.888	1	18
530.058	1	17
530.229	1	15
530.399	1	12
530.569	1	10
530.739	1	11
530.909	1	19
531.079	1	-2
531.249	1	3
531.419	1	23
531.589	1	19
531.760	1	8
531.930	1	23
532.100	1	2
532.270	1	20
532.440	1	20
532.610	1	21
532.780	1	17
532.950	1	15
533.120	1	31
533.290	1	17
533.461	1	19
533.631	1	20
533.801	1	8
533.971	1	2
534.141	1	13
534.311	1	15
534.481	1	19
534.651	1	15
534.821	1	15
534.991	1	26
535.162	1	-1
535.332	1	16
535.502	1	9
535.672	1	9
535.842	1	17
536.012	1	11
536.182	1	10
536.352	1	24
536.522	1	4
536.692	1	18
536.862	1	6
537.032	1	10
537.203	1	9
537.373	1	21
537.543	1	4
537.713	1	11
537.883	1	5
538.053	1	19
538.223	1	19
538.393	1	18
538.563	1	20
538.733	1	24
538.903	1	11
539.073	1	13
539.243	1	12
539.413	1	16
539.584	1	6
539.754	1	14
539.924	1	13
540.094	1	7
540.264	1	2
540.434	1	12
540.604	1	12
540.774	1	18
540.944	1	15
541.114	1	17
541.284	1	20
541.454	1	19
541.624	1	19
541.794	1	17
541.964	1	7
542.134	1	9
542.305	1	19
542.475	1	8
542.645	1	15
542.815	1	3
542.985	1	11
543.155	1	4
543.325	1	14
543.495	1	25
543.665	1	9
543.835	1	-2
544.005	1	14
544.175	1	22
544.345	1	9
544.515	1	12
544.685	1	23
544.855	1	15
545.025	1	13
545.195	1	1
545.365	1	16
545.535	1	7
545.705	1	14
545.875	1	12
546.045	1	20
546.216	1	-1
546.386	1	21
546.556	1	12
546.726	1	15
546.896	1	11
547.066	1	14
547.236	1	3
547.406	1	10
547.576	1	26
547.746	1	15
547.916	1	13
548.086	1	22
548.256	1	10
548.426	1	6
548.596	1	6
548.766	1	19
548.936	1	22
549.106	1	18
549.276	1	31
549.446	1	14
549.616	1	18
549.786	1	-6
549.956	1	11
550.126	1	12
550.296	1	17
550.466	1	10
550.636	1	17
550.806	1	20
550.976	1	12
551.146	1	6
551.316	1	11
551.486	1	10
551.656	1	14
551.826	1	21
551.996	1	6
552.166	1	24
552.336	1	10
552.506	1	24
552.676	1	2
552.846	1	13
553.016	1	22
553.186	1	16
553.356	1	7
553.526	1	7
553.696	1	27
553.866	1	25
554.036	1	19
554.206	1	12
554.376	1	-2
554.546	1	8
554.716	1	6
554.886	1	18
555.056	1	19
555.226	1	18
555.396	1	13
555.566	1	8
555.736	1	21
555.906	1	13
556.076	1	6
556.246	1	14
556.416	1	4
556.586	1	-4
556.756	1	-1
556.926	1	3
557.096	1	10
557.266	1	1
557.436	1	15
557.606	1	10
557.776	1	12
557.946	1	-1
558.116	1	17
558.286	1	8
558.456	1	8
558.626	1	-1
558.796	1	3
558.966	1	7
559.136	1	7
559.306	1	13
559.476	1	13
559.646	1	15
559.816	1	5
559.986	1	-5
560.155	1	9
560.325	1	4
560.495	1	6
560.665	1	3
560.835	1	12
561.005	1	14
561.175	1	8
561.345	1	2
561.515	1	4
561.685	1	7
561.855	1	4
562.025	1	8
562.195	1	7
562.365	1	19
562.535	1	10
562.705	1	6
562.875	1	15
563.045	1	2
563.215	1	13
563.385	1	-4
563.555	1	16
563.725	1	14
563.895	1	-2
564.064	1	4
564.234	1	9
564.404	1	3
564.574	1	12
564.744	1	11
564.914	1	9
565.084	1	-1
565.254	1	12
565.424	1	12
565.594	1	7
565.764	1	4
565.934	1	13
566.104	1	6
566.274	1	18
566.444	1	2
566.614	1	9
566.783	1	7
566.953	1	14
567.123	1	18
567.293	1	9
567.463	1	10
567.633	1	8
567.803	1	8
567.973	1	13
568.143	1	8
568.313	1	9
568.483	1	9
568.653	1	-2
568.823	1	-1
568.993	1	7
569.162	1	10
569.332	1	11
569.502	1	9
569.672	1	5
569.842	1	1
570.012	1	6
570.182	1	4
570.352	1	5
570.522	1	5
570.692	1	25
570.862	1	2
571.031	1	2
571.201	1	1
571.371	1	17
571.541	1	9
571.711	1	0
571.881	1	7
572.051	1	8
572.221	1	7
572.391	1	15
572.561	1	15
572.731	1	0
572.900	1	1
573.070	1	17
573.240	1	5
573.410	1	16
573.580	1	-4
573.750	1	12
573.920	1	4
574.090	1	15
574.260	1	6
574.430	1	0
574.599	1	8
574.769	1	1
574.939	1	-2
575.109	1	-4
575.279	1	8
575.449	1	17
575.619	1	25
575.789	1	5
575.959	1	-1
576.128	1	4
576.298	1	1
576.468	1	9
576.638	1	2
576.808	1	5
576.978	1	8
577.148	1	7
577.318	1	8
577.487	1	12
577.657	1	5
577.827	1	7
577.997	1	8
578.167	1	7
578.337	1	4
578.507	1	1
578.677	1	-2
578.846	1	14
579.016	1	2
579.186	1	10
579.356	1	8
579.526	1	-2
579.696	1	18
579.866	1	5
580.036	1	10
580.205	1	1
580.375	1	11
580.545	1	-2
580.715	1	4
580.885	1	8
581.055	1	7
581.225	1	3
581.394	1	-7
581.564	1	-2
581.734	1	-1
581.904	1	10
582.074	1	7
582.244	1	11
582.414	1	1
582.583	1	4
582.753	1	5
582.923	1	12
583.093	1	7
583.263	1	4
583.433	1	4
583.603	1	-11
583.772	1	-7
583.942	1	9
584.112	1	7
584.282	1	4
584.452	1	-4
584.622	1	8
584.791	1	4
584.961	1	-7
585.131	1	14
585.301	1	7
585.471	1	1
585.641	1	2
585.811	1	1
585.980	1	5
586.150	1	3
586.320	1	-7
586.490	1	7
586.660	1	8
586.830	1	4
586.999	1	3
587.169	1	16
587.339	1	8
587.509	1	6
587.679	1	5
587.849	1	9
588.018	1	6
588.188	1	14
588.358	1	-2
588.528	1	1
588.698	1	-5
588.867	1	0
589.037	1	-4
589.207	1	5
589.377	1	2
589.547	1	7
589.717	1	3
589.886	1	-2
590.056	1	5
590.226	1	-4
590.396	1	5
590.566	1	-6
590.735	1	1
590.905	1	10
591.075	1	-2
591.245	1	6
591.415	1	4
591.585	1	7
591.754	1	4
591.924	1	9
592.094	1	0
592.264	1	5
592.434	1	7
592.603	1	7
592.773	1	-5
592.943	1	10
593.113	1	5
593.283	1	4
593.452	1	3
593.622	1	5
593.792	1	14
593.962	1	4
594.132	1	-1
594.301	1	8
594.471	1	8
594.641	1	0
594.811	1	-4
594.981	1	-1
595.150	1	4
595.320	1	7
595.490	1	5
595.660	1	-2
595.829	1	-10
595.999	1	-8
596.169	1	7
596.339	1	2
596.509	1	5
596.678	1	14
596.848	1	11
597.018	1	7
597.188	1	-1
597.358	1	-1
597.527	1	-3
597.697	1	-10
597.867	1	11
598.037	1	5
598.206	1	13
598.376	1	4
598.546	1	5
598.716	1	-6
598.885	1	6
599.055	1	6
599.225	1	4
599.395	1	5
599.565	1	0
599.734	1	7
599.904	1	-7
600.074	1	10
600.244	1	7
600.413	1	4
600.583	1	5
600.753	1	6
600.923	1	-5
601.092	1	2
601.262	1	7
601.432	1	12
601.602	1	14
601.771	1	7
601.941	1	18
602.111	1	14
602.281	1	-4
602.451	1	0
602.620	1	6
602.790	1	5
602.960	1	-8
603.130	1	-2
603.299	1	7
603.469	1	4
603.639	1	-5
603.809	1	1
603.978	1	4
604.148	1	-3
604.318	1	1
604.487	1	2
604.657	1	-4
604.827	1	1
604.997	1	9
605.166	1	-1
605.336	1	-1
605.506	1	-3
605.676	1	13
605.845	1	0
606.015	1	-5
606.185	1	-1
606.355	1	5
606.524	1	0
606.694	1	1
606.864	1	5
607.034	1	8
607.203	1	9
607.373	1	8
607.543	1	1
607.712	1	-1
607.882	1	2
608.052	1	6
608.222	1	6
608.391	1	13
608.561	1	-4
608.731	1	2
608.901	1	0
609.070	1	-5
609.240	1	6
609.410	1	2
609.579	1	6
609.749	1	12
609.919	1	-5
610.089	1	-5
610.258	1	-2
610.428	1	10
610.598	1	12
610.767	1	10
610.937	1	3
611.107	1	-2
611.277	1	-2
611.446	1	5
611.616	1	16
611.786	1	7
611.955	1	4
612.125	1	6
612.295	1	-1
612.465	1	1
612.634	1	10
612.804	1	-7
612.974	1	-4
613.143	1	0
613.313	1	8
613.483	1	6
613.652	1	4
613.822	1	-6
613.992	1	5
614.162	1	-3
614.331	1	3
614.501	1	-4
614.671	1	4
614.840	1	-2
615.010	1	6
615.180	1	6
615.349	1	14
615.519	1	-5
615.689	1	-6
615.858	1	10
616.028	1	2
616.198	1	-3
616.368	1	2
616.537	1	-4
616.707	1	3
616.877	1	6
617.046	1	5
617.216	1	6
617.386	1	11
617.555	1	-7
617.725	1	14
617.895	1	4
618.064	1	12
618.234	1	-3
618.404	1	-5
618.573	1	-5
618.743	1	7
618.913	1	11
619.082	1	1
619.252	1	5
619.422	1	2
619.591	1	1
619.761	1	0
619.931	1	9
620.100	1	16
620.270	1	12
620.440	1	7
620.609	1	9
620.779	1	13
620.949	1	-1
621.118	1	9
621.288	1	2
621.458	1	9
621.627	1	-1
621.797	1	1
621.967	1	-1
622.136	1	6
622.306	1	0
622.476	1	-3
622.645	1	-4
622.815	1	-1
622.985	1	-3
623.154	1	6
623.324	1	2
623.494	1	-2
623.663	1	11
623.833	1	-2
624.002	1	2
624.172	1	4
624.342	1	5
624.511	1	4
624.681	1	0
624.851	1	-4
625.020	1	1
625.190	1	6
625.360	1	-3
625.529	1	0
625.699	1	-7
625.869	1	3
626.038	1	-6
626.208	1	17
626.377	1	-1
626.547	1	3
626.717	1	-13
626.886	1	1
627.056	1	-3
627.226	1	6
627.395	1	-3
627.565	1	14
627.735	1	-3
627.904	1	6
628.074	1	5
628.243	1	9
628.413	1	2
628.583	1	2
628.752	1	-3
628.922	1	5
629.091	1	6
629.261	1	-4
629.431	1	6
629.600	1	7
629.770	1	8
629.940	1	-13
630.109	1	8
630.279	1	-1
630.448	1	1
630.618	1	5
630.788	1	3
630.957	1	-3
631.127	1	-3
631.297	1	1
631.466	1	3
631.636	1	14
631.805	1	9
631.975	1	-2
632.145	1	2
632.314	1	-3
632.484	1	11
632.653	1	-5
632.823	1	0
632.993	1	4
633.162	1	2
633.332	1	-6
633.501	1	3
633.671	1	8
633.841	1	1
634.010	1	11
634.180	1	11
634.349	1	9
634.519	1	7
634.689	1	3
634.858	1	-8
635.028	1	-4
635.197	1	5
635.367	1	4
635.537	1	6
635.706	1	3
635.876	1	9
636.045	1	4
636.215	1	16
636.384	1	-4
636.554	1	4
636.724	1	8
636.893	1	3
637.063	1	3
637.232	1	-1
637.402	1	-3
637.572	1	0
637.741	1	2
637.911	1	-1
638.080	1	1
638.250	1	4
638.419	1	1
638.589	1	2
638.759	1	1
638.928	1	0
639.098	1	-1
639.267	1	13
639.437	1	6
639.606	1	1
639.776	1	4
639.946	1	7
640.115	1	-3
640.285	1	8
640.454	1	5
640.624	1	8
640.793	1	6
640.963	1	-4
641.132	1	6
641.302	1	5
641.472	1	2
641.641	1	-2
641.811	1	-2
641.980	1	3
642.150	1	-3
642.319	1	5
642.489	1	-3
642.659	1	5
642.828	1	-2
642.998	1	3
643.167	1	-7
643.337	1	0
643.506	1	2
643.676	1	5
643.845	1	7
644.015	1	0
644.184	1	-4
644.354	1	2
644.524	1	2
644.693	1	4
644.863	1	8
645.032	1	1
645.202	1	0
645.371	1	6
645.541	1	8
645.710	1	3
645.880	1	-6
646.049	1	4
646.219	1	-5
646.388	1	-6
646.558	1	-5
646.728	1	-4
646.897	1	-1
647.067	1	6
647.236	1	17
647.406	1	10
647.575	1	2
647.745	1	14
647.914	1	-6
648.084	1	3
648.253	1	6
648.423	1	-3
648.592	1	-9
648.762	1	12
648.931	1	10
649.101	1	1
649.270	1	-4
649.440	1	-1
649.610	1	3
649.779	1	5
649.949	1	7
650.118	1	11
650.288	1	2
650.457	1	8
650.627	1	4
650.796	1	3
650.966	1	-6
651.135	1	2
651.305	1	-8
651.474	1	5
651.644	1	9
651.813	1	4
651.983	1	4
652.152	1	21
652.322	1	8
652.491	1	11
652.661	1	8
652.830	1	9
653.000	1	1
653.169	1	5
653.339	1	8
653.508	1	-4
653.678	1	4
653.847	1	8
654.017	1	18
654.186	1	2
654.356	1	0
654.525	1	-7
654.695	1	3
654.864	1	-5
655.034	1	2
655.203	1	6
655.373	1	9
655.542	1	2
655.712	1	-4
655.881	1	11
656.051	1	0
656.220	1	1
656.390	1	-2
656.559	1	-9
656.729	1	0
656.898	1	7
657.068	1	1
657.237	1	-6
657.406	1	5
657.576	1	-8
657.745	1	0
657.915	1	-4
658.084	1	-4
658.254	1	5
658.423	1	4
658.593	1	11
658.762	1	4
658.932	1	-2
659.101	1	-4
659.271	1	-2
659.440	1	3
659.610	1	-10
659.779	1	15
659.949	1	0
660.118	1	3
660.288	1	-6
660.457	1	0
660.626	1	3
660.796	1	3
660.965	1	7
661.135	1	-12
661.304	1	-5
661.474	1	2
661.643	1	-4
661.813	1	-4
661.982	1	7
662.152	1	7
662.321	1	2
662.491	1	-2
662.660	1	10
662.829	1	1
662.999	1	-1
663.168	1	-8
663.338	1	15
663.507	1	2
663.677	1	-3
663.846	1	0
664.016	1	-5
664.185	1	6
664.354	1	15
664.524	1	5
664.693	1	-6
664.863	1	10
665.032	1	-9
665.202	1	0
665.371	1	-8
665.541	1	16
665.710	1	-1
665.879	1	2
666.049	1	0
666.218	1	0
666.388	1	1
666.557	1	6
666.727	1	7
666.896	1	8
667.065	1	2
667.235	1	11
667.404	1	-7
667.574	1	2
667.743	1	6
667.913	1	12
668.082	1	-1
668.251	1	0
668.421	1	6
668.590	1	2
668.760	1	2
668.929	1	2
669.099	1	0
669.268	1	-10
669.437	1	-5
669.607	1	-6
669.776	1	3
669.946	1	-2
670.115	1	-12
670.285	1	-2
670.454	1	-7
670.623	1	-5
670.793	1	4
670.962	1	-1
671.132	1	-5
671.301	1	2
671.470	1	0
671.640	1	-4
671.809	1	-6
671.979	1	9
672.148	1	5
672.317	1	-4
672.487	1	-4
672.656	1	-8
672.826	1	4
672.995	1	4
673.164	1	-11
673.334	1	7
673.503	1	0
673.673	1	5
673.842	1	5
674.011	1	12
674.181	1	15
674.350	1	0
674.520	1	6
674.689	1	-2
674.858	1	-3
675.028	1	8
675.197	1	3
675.367	1	3
675.536	1	-1
675.705	1	9
675.875	1	6
676.044	1	-13
676.214	1	4
676.383	1	10
676.552	1	-1
676.722	1	-9
676.891	1	1
677.060	1	2
677.230	1	10
677.399	1	0
677.569	1	-1
677.738	1	2
677.907	1	-2
678.077	1	6
678.246	1	5
678.416	1	0
678.585	1	-1
678.754	1	6
678.924	1	12
679.093	1	4
679.262	1	1
679.432	1	7
679.601	1	0
679.771	1	0
679.940	1	14
680.109	1	-10
680.279	1	-3
680.448	1	12
680.617	1	-7
680.787	1	-1
680.956	1	-2
681.125	1	5
681.295	1	1
681.464	1	-4
681.634	1	7
681.803	1	-5
681.972	1	-2
682.142	1	-3
682.311	1	3
682.480	1	6
682.650	1	12
682.819	1	6
682.988	1	-1
683.158	1	3
683.327	1	7
683.496	1	4
683.666	1	16
683.835	1	-10
684.004	1	6
684.174	1	-2
684.343	1	6
684.512	1	0
684.682	1	0
684.851	1	14
685.021	1	4
685.190	1	1
685.359	1	-5
685.529	1	7
685.698	1	-5
685.867	1	2
686.037	1	2
686.206	1	1
686.375	1	3
686.545	1	10
686.714	1	1
686.883	1	8
687.053	1	-7
687.222	1	-8
687.391	1	2
687.561	1	9
687.730	1	9
687.899	1	0
688.069	1	15
688.238	1	3
688.407	1	2
688.577	1	4
688.746	1	5
