340.368	1	11
340.539	1	-1
340.710	1	1
340.881	1	-3
341.052	1	-5
341.223	1	12
341.394	1	-6
341.565	1	10
341.737	1	1
341.908	1	-3
342.079	1	-3
342.250	1	-1
342.421	1	2
342.592	1	9
342.763	1	8
342.934	1	-4
343.105	1	-3
343.276	1	0
343.447	1	-6
343.618	1	-9
343.789	1	-3
343.960	1	0
344.131	1	3
344.302	1	-10
344.473	1	9
344.644	1	0
344.815	1	-2
344.986	1	1
345.157	1	2
345.328	1	-10
345.499	1	2
345.670	1	-4
345.841	1	-3
346.012	1	4
346.183	1	12
346.354	1	10
346.526	1	-1
346.697	1	3
346.868	1	-8
347.039	1	6
347.210	1	-2
347.381	1	-2
347.552	1	8
347.723	1	2
347.894	1	2
348.065	1	14
348.236	1	14
348.407	1	-15
348.578	1	2
348.749	1	-9
348.920	1	7
349.091	1	3
349.262	1	0
349.433	1	4
349.604	1	4
349.775	1	3
349.946	1	1
350.117	1	4
350.288	1	8
350.459	1	-2
350.630	1	7
350.801	1	11
350.972	1	5
351.143	1	21
351.314	1	2
351.485	1	2
351.656	1	7
351.827	1	6
351.998	1	6
352.169	1	-3
352.340	1	12
352.511	1	4
352.682	1	5
352.853	1	3
353.024	1	3
353.195	1	6
353.366	1	-1
353.537	1	5
353.708	1	8
353.879	1	-3
354.050	1	8
354.221	1	4
354.392	1	11
354.563	1	4
354.734	1	8
354.905	1	7
355.076	1	5
355.247	1	10
355.418	1	3
355.589	1	1
355.760	1	9
355.931	1	2
356.102	1	2
356.273	1	6
356.444	1	2
356.615	1	5
356.785	1	7
356.956	1	6
357.127	1	11
357.298	1	9
357.469	1	4
357.640	1	3
357.811	1	4
357.982	1	11
358.153	1	2
358.324	1	17
358.495	1	-4
358.666	1	4
358.837	1	8
359.008	1	9
359.179	1	14
359.350	1	5
359.521	1	13
359.692	1	2
359.863	1	11
360.034	1	17
360.205	1	-2
360.376	1	7
360.547	1	7
360.718	1	12
360.889	1	16
361.060	1	17
361.231	1	0
361.401	1	7
361.572	1	12
361.743	1	16
361.914	1	16
362.085	1	22
362.256	1	14
362.427	1	4
362.598	1	9
362.769	1	11
362.940	1	18
363.111	1	17
363.282	1	12
363.453	1	24
363.624	1	19
363.795	1	17
363.966	1	27
364.137	1	35
364.308	1	22
364.478	1	30
364.649	1	23
364.820	1	17
364.991	1	32
365.162	1	20
365.333	1	18
365.504	1	33
365.675	1	33
365.846	1	29
366.017	1	28
366.188	1	39
366.359	1	37
366.530	1	50
366.701	1	42
366.871	1	42
367.042	1	38
367.213	1	35
367.384	1	23
367.555	1	39
367.726	1	36
367.897	1	39
368.068	1	42
368.239	1	32
368.410	1	33
368.581	1	35
368.752	1	42
368.923	1	32
369.093	1	28
369.264	1	24
369.435	1	38
369.606	1	41
369.777	1	38
369.948	1	23
370.119	1	29
370.290	1	32
370.461	1	25
370.632	1	24
370.803	1	38
370.973	1	22
371.144	1	23
371.315	1	18
371.486	1	23
371.657	1	10
371.828	1	27
371.999	1	6
372.170	1	24
372.341	1	14
372.512	1	15
372.682	1	25
372.853	1	18
373.024	1	12
373.195	1	18
373.366	1	15
373.537	1	22
373.708	1	5
373.879	1	10
374.050	1	15
374.220	1	25
374.391	1	7
374.562	1	13
374.733	1	15
374.904	1	14
375.075	1	0
375.246	1	7
375.417	1	20
375.588	1	26
375.758	1	-1
375.929	1	13
376.100	1	11
376.271	1	11
376.442	1	4
376.613	1	4
376.784	1	18
376.955	1	6
377.125	1	8
377.296	1	13
377.467	1	6
377.638	1	4
377.809	1	14
377.980	1	18
378.151	1	16
378.321	1	10
378.492	1	17
378.663	1	12
378.834	1	25
379.005	1	16
379.176	1	0
379.347	1	13
379.518	1	7
379.688	1	8
379.859	1	9
380.030	1	18
380.201	1	16
380.372	1	11
380.543	1	17
380.714	1	15
380.884	1	14
381.055	1	8
381.226	1	7
381.397	1	10
381.568	1	7
381.739	1	6
381.910	1	11
382.080	1	7
382.251	1	6
382.422	1	13
382.593	1	11
382.764	1	13
382.935	1	10
383.105	1	20
383.276	1	9
383.447	1	16
383.618	1	28
383.789	1	4
383.960	1	4
384.130	1	7
384.301	1	17
384.472	1	14
384.643	1	21
384.814	1	19
384.985	1	15
385.156	1	24
385.326	1	16
385.497	1	10
385.668	1	19
385.839	1	22
386.010	1	15
386.180	1	19
386.351	1	19
386.522	1	20
386.693	1	19
386.864	1	26
387.035	1	21
387.205	1	18
387.376	1	23
387.547	1	23
387.718	1	10
387.889	1	16
388.060	1	18
388.230	1	13
388.401	1	26
388.572	1	24
388.743	1	12
388.914	1	13
389.084	1	19
389.255	1	9
389.426	1	12
389.597	1	18
389.768	1	22
389.939	1	21
390.109	1	16
390.280	1	10
390.451	1	19
390.622	1	9
390.793	1	19
390.963	1	16
391.134	1	5
391.305	1	7
391.476	1	21
391.647	1	8
391.817	1	17
391.988	1	6
392.159	1	24
392.330	1	5
392.501	1	12
392.671	1	18
392.842	1	14
393.013	1	16
393.184	1	12
393.355	1	19
393.525	1	9
393.696	1	5
393.867	1	22
394.038	1	19
394.208	1	21
394.379	1	-1
394.550	1	16
394.721	1	12
394.892	1	6
395.062	1	13
395.233	1	3
395.404	1	19
395.575	1	12
395.746	1	7
395.916	1	15
396.087	1	16
396.258	1	15
396.429	1	8
396.599	1	15
396.770	1	19
396.941	1	10
397.112	1	13
397.283	1	9
397.453	1	30
397.624	1	16
397.795	1	9
397.966	1	19
398.136	1	12
398.307	1	9
398.478	1	11
398.649	1	2
398.819	1	19
398.990	1	8
399.161	1	13
399.332	1	18
399.503	1	21
399.673	1	-2
399.844	1	10
400.015	1	15
400.186	1	18
400.356	1	12
400.527	1	25
400.698	1	9
400.869	1	0
401.039	1	7
401.210	1	22
401.381	1	6
401.552	1	11
401.722	1	5
401.893	1	19
402.064	1	7
402.235	1	4
402.405	1	8
402.576	1	4
402.747	1	8
402.918	1	18
403.088	1	2
403.259	1	6
403.430	1	8
403.601	1	9
403.771	1	24
403.942	1	6
404.113	1	24
404.284	1	4
404.454	1	17
404.625	1	9
404.796	1	4
404.967	1	10
405.137	1	15
405.308	1	9
405.479	1	6
405.649	1	16
405.820	1	9
405.991	1	9
406.162	1	16
406.332	1	-4
406.503	1	0
406.674	1	17
406.845	1	15
407.015	1	9
407.186	1	13
407.357	1	12
407.527	1	16
407.698	1	14
407.869	1	19
408.040	1	8
408.210	1	12
408.381	1	-8
408.552	1	0
408.722	1	6
408.893	1	4
409.064	1	6
409.235	1	7
409.405	1	11
409.576	1	18
409.747	1	17
409.917	1	6
410.088	1	3
410.259	1	0
410.430	1	8
410.600	1	-4
410.771	1	6
410.942	1	2
411.112	1	6
411.283	1	11
411.454	1	6
411.625	1	5
411.795	1	10
411.966	1	26
412.137	1	10
412.307	1	16
412.478	1	2
412.649	1	0
412.819	1	11
412.990	1	7
413.161	1	-1
413.332	1	6
413.502	1	0
413.673	1	16
413.844	1	15
414.014	1	-1
414.185	1	4
414.356	1	0
414.526	1	5
414.697	1	8
414.868	1	5
415.038	1	7
415.209	1	-5
415.380	1	16
415.550	1	6
415.721	1	1
415.892	1	9
416.063	1	11
416.233	1	4
416.404	1	3
416.575	1	1
416.745	1	-4
416.916	1	-2
417.087	1	10
417.257	1	9
417.428	1	3
417.599	1	20
417.769	1	1
417.940	1	12
418.111	1	1
418.281	1	-5
418.452	1	9
418.623	1	-4
418.793	1	2
418.964	1	3
419.135	1	10
419.305	1	4
419.476	1	5
419.647	1	10
419.817	1	12
419.988	1	-10
420.159	1	10
420.329	1	12
420.500	1	6
420.671	1	4
420.841	1	4
421.012	1	7
421.183	1	12
421.353	1	8
421.524	1	14
421.695	1	4
421.865	1	4
422.036	1	15
422.206	1	3
422.377	1	4
422.548	1	15
422.718	1	4
422.889	1	-1
423.060	1	0
423.230	1	11
423.401	1	5
423.572	1	16
423.742	1	3
423.913	1	8
424.084	1	5
424.254	1	-7
424.425	1	4
424.595	1	1
424.766	1	9
424.937	1	0
425.107	1	2
425.278	1	4
425.449	1	3
425.619	1	2
425.790	1	2
425.961	1	7
426.131	1	2
426.302	1	13
426.472	1	1
426.643	1	3
426.814	1	0
426.984	1	3
427.155	1	-9
427.326	1	4
427.496	1	-5
427.667	1	9
427.837	1	11
428.008	1	4
428.179	1	-1
428.349	1	-3
428.520	1	-1
428.691	1	-3
428.861	1	2
429.032	1	5
429.202	1	12
429.373	1	7
429.544	1	3
429.714	1	2
429.885	1	0
430.055	1	11
430.226	1	-1
430.397	1	4
430.567	1	6
430.738	1	1
430.909	1	4
431.079	1	-1
431.250	1	-8
431.420	1	3
431.591	1	0
431.762	1	3
431.932	1	6
432.103	1	-3
432.273	1	6
432.444	1	-2
432.615	1	-2
432.785	1	-3
432.956	1	0
433.126	1	4
433.297	1	3
433.468	1	-5
433.638	1	3
433.809	1	6
433.979	1	9
434.150	1	7
434.320	1	1
434.491	1	6
434.662	1	12
434.832	1	8
435.003	1	3
435.173	1	8
435.344	1	2
435.515	1	0
435.685	1	9
435.856	1	7
436.026	1	-2
436.197	1	7
436.368	1	9
436.538	1	-3
436.709	1	-10
436.879	1	4
437.050	1	12
437.220	1	-3
437.391	1	6
437.562	1	3
437.732	1	8
437.903	1	7
438.073	1	9
438.244	1	-5
438.414	1	9
438.585	1	5
438.756	1	6
438.926	1	7
439.097	1	10
439.267	1	-2
439.438	1	8
439.608	1	11
439.779	1	4
439.949	1	-1
440.120	1	-3
440.291	1	8
440.461	1	2
440.632	1	8
440.802	1	3
440.973	1	6
441.143	1	5
441.314	1	-6
441.485	1	1
441.655	1	3
441.826	1	-8
441.996	1	-6
442.167	1	12
442.337	1	7
442.508	1	-1
442.678	1	-8
442.849	1	-2
443.019	1	12
443.190	1	7
443.361	1	19
443.531	1	13
443.702	1	2
443.872	1	3
444.043	1	12
444.213	1	1
444.384	1	-3
444.554	1	-3
444.725	1	12
444.895	1	-2
445.066	1	2
445.237	1	2
445.407	1	4
445.578	1	9
445.748	1	9
445.919	1	0
446.089	1	-4
446.260	1	-2
446.430	1	-1
446.601	1	7
446.771	1	-9
446.942	1	2
447.112	1	6
447.283	1	-6
447.453	1	-6
447.624	1	-5
447.794	1	3
447.965	1	10
448.135	1	-4
448.306	1	3
448.477	1	18
448.647	1	3
448.818	1	3
448.988	1	-8
449.159	1	6
449.329	1	3
449.500	1	1
449.670	1	6
449.841	1	2
450.011	1	1
450.182	1	-11
450.352	1	5
450.523	1	0
450.693	1	7
450.864	1	11
451.034	1	8
451.205	1	3
451.375	1	3
451.546	1	-4
451.716	1	16
451.887	1	-3
452.057	1	14
452.228	1	2
452.398	1	2
452.569	1	-9
452.739	1	4
452.910	1	1
453.080	1	9
453.251	1	4
453.421	1	1
453.592	1	3
453.762	1	7
453.933	1	-2
454.103	1	2
454.274	1	1
454.444	1	3
454.615	1	4
454.785	1	2
454.956	1	-3
455.126	1	3
455.297	1	6
455.467	1	-5
455.638	1	6
455.808	1	4
455.979	1	6
456.149	1	8
456.320	1	5
456.490	1	1
456.661	1	3
456.831	1	-1
457.001	1	3
457.172	1	6
457.342	1	-3
457.513	1	12
457.683	1	-1
457.854	1	4
458.024	1	-8
458.195	1	-1
458.365	1	19
458.536	1	2
458.706	1	5
458.877	1	-2
459.047	1	10
459.218	1	3
459.388	1	15
459.559	1	14
459.729	1	-3
459.899	1	7
460.070	1	-1
460.240	1	7
460.411	1	4
460.581	1	4
460.752	1	-2
460.922	1	21
461.093	1	1
461.263	1	4
461.434	1	4
461.604	1	8
461.775	1	10
461.945	1	0
462.115	1	-2
462.286	1	-3
462.456	1	5
462.627	1	-3
462.797	1	-10
462.968	1	-8
463.138	1	13
463.309	1	6
463.479	1	6
463.649	1	-3
463.820	1	-2
463.990	1	-4
464.161	1	6
464.331	1	11
464.502	1	6
464.672	1	-11
464.843	1	0
465.013	1	-6
465.183	1	-3
465.354	1	2
465.524	1	2
465.695	1	3
465.865	1	-2
466.036	1	7
466.206	1	0
466.376	1	-5
466.547	1	-3
466.717	1	-7
466.888	1	0
467.058	1	2
467.229	1	8
467.399	1	2
467.569	1	5
467.740	1	3
467.910	1	3
468.081	1	0
468.251	1	5
468.422	1	-2
468.592	1	5
468.762	1	-5
468.933	1	1
469.103	1	0
469.274	1	-2
469.444	1	14
469.614	1	2
469.785	1	12
469.955	1	2
470.126	1	5
470.296	1	3
470.467	1	-20
470.637	1	6
470.807	1	16
470.978	1	-2
471.148	1	-3
471.319	1	13
471.489	1	-6
471.659	1	-4
471.830	1	12
472.000	1	-2
472.171	1	1
472.341	1	-3
472.511	1	13
472.682	1	-10
472.852	1	-4
473.023	1	0
473.193	1	6
473.363	1	8
473.534	1	0
473.704	1	-1
473.875	1	-3
474.045	1	-3
474.215	1	4
474.386	1	7
474.556	1	11
474.727	1	2
474.897	1	0
475.067	1	-7
475.238	1	1
475.408	1	4
475.578	1	3
475.749	1	-3
475.919	1	-4
476.090	1	13
476.260	1	-1
476.430	1	4
476.601	1	8
476.771	1	0
476.942	1	2
477.112	1	-4
477.282	1	1
477.453	1	0
477.623	1	1
477.793	1	6
477.964	1	6
478.134	1	12
478.305	1	-2
478.475	1	-3
478.645	1	5
478.816	1	5
478.986	1	-5
479.156	1	3
479.327	1	0
479.497	1	2
479.667	1	14
479.838	1	-17
480.008	1	-1
480.179	1	-10
480.349	1	10
480.519	1	3
480.690	1	-7
480.860	1	9
481.030	1	7
481.201	1	-10
481.371	1	5
481.541	1	6
481.712	1	2
481.882	1	-8
482.053	1	1
482.223	1	6
482.393	1	2
482.564	1	12
482.734	1	10
482.904	1	1
483.075	1	2
483.245	1	5
483.415	1	-5
483.586	1	4
483.756	1	2
483.926	1	2
484.097	1	12
484.267	1	-11
484.437	1	-1
484.608	1	11
484.778	1	-5
484.948	1	6
485.119	1	-8
485.289	1	2
485.459	1	-5
485.630	1	10
485.800	1	4
485.970	1	2
486.141	1	8
486.311	1	-6
486.481	1	3
486.652	1	0
486.822	1	-3
486.992	1	-2
487.163	1	-1
487.333	1	5
487.503	1	2
487.674	1	4
487.844	1	-4
488.014	1	10
488.185	1	0
488.355	1	-1
488.525	1	6
488.696	1	-4
488.866	1	0
489.036	1	7
489.207	1	4
489.377	1	1
489.547	1	3
489.718	1	6
489.888	1	7
490.058	1	9
490.228	1	-8
490.399	1	4
490.569	1	7
490.739	1	8
490.910	1	-3
491.080	1	-2
491.250	1	2
491.421	1	14
491.591	1	-3
491.761	1	-3
491.932	1	3
492.102	1	-2
492.272	1	9
492.442	1	-6
492.613	1	3
492.783	1	3
492.953	1	-5
493.124	1	8
493.294	1	0
493.464	1	4
493.635	1	4
493.805	1	10
493.975	1	5
494.145	1	6
494.316	1	6
494.486	1	14
494.656	1	-3
494.827	1	9
494.997	1	-4
495.167	1	9
495.337	1	6
495.508	1	7
495.678	1	5
495.848	1	4
496.019	1	11
496.189	1	-6
496.359	1	7
496.529	1	2
496.700	1	0
496.870	1	10
497.040	1	-1
497.211	1	14
497.381	1	5
497.551	1	10
497.721	1	-5
497.892	1	11
498.062	1	3
498.232	1	13
498.403	1	9
498.573	1	4
498.743	1	18
498.913	1	11
499.084	1	-7
499.254	1	4
499.424	1	6
499.594	1	3
499.765	1	11
499.935	1	-1
500.105	1	11
500.275	1	6
500.446	1	-1
500.616	1	7
500.786	1	23
500.956	1	13
501.127	1	-4
501.297	1	-6
501.467	1	16
501.638	1	9
501.808	1	2
501.978	1	2
502.148	1	-5
502.319	1	10
502.489	1	-2
502.659	1	12
502.829	1	6
503.000	1	7
503.170	1	7
503.340	1	11
503.510	1	-3
503.681	1	4
503.851	1	14
504.021	1	8
504.191	1	9
504.362	1	3
504.532	1	15
504.702	1	1
504.872	1	2
505.042	1	10
505.213	1	16
505.383	1	3
505.553	1	15
505.723	1	14
505.894	1	-3
506.064	1	11
506.234	1	7
506.404	1	8
506.575	1	6
506.745	1	20
506.915	1	4
507.085	1	3
507.256	1	15
507.426	1	8
507.596	1	1
507.766	1	11
507.936	1	14
508.107	1	18
508.277	1	-1
508.447	1	11
508.617	1	-3
508.788	1	6
508.958	1	12
509.128	1	10
509.298	1	4
509.468	1	17
509.639	1	16
509.809	1	12
509.979	1	17
510.149	1	21
510.319	1	5
510.490	1	3
510.660	1	11
510.830	1	10
511.000	1	18
511.171	1	14
511.341	1	14
511.511	1	14
511.681	1	20
511.851	1	16
512.022	1	5
512.192	1	7
512.362	1	14
512.532	1	8
512.702	1	19
512.873	1	13
513.043	1	15
513.213	1	22
513.383	1	-1
513.553	1	17
513.724	1	-4
513.894	1	6
514.064	1	10
514.234	1	19
514.404	1	20
514.575	1	-2
514.745	1	5
514.915	1	-2
515.085	1	12
515.255	1	3
515.425	1	17
515.596	1	13
515.766	1	14
515.936	1	8
516.106	1	15
516.276	1	17
516.447	1	19
516.617	1	10
516.787	1	12
516.957	1	14
517.127	1	12
517.297	1	7
517.468	1	1
517.638	1	4
517.808	1	19
517.978	1	22
518.148	1	13
518.319	1	9
518.489	1	0
518.659	1	10
518.829	1	12
518.999	1	8
519.169	1	10
519.340	1	23
519.510	1	13
519.680	1	6
519.850	1	12
520.020	1	19
520.190	1	20
520.361	1	10
520.531	1	13
520.701	1	14
520.871	1	9
521.041	1	26
521.211	1	15
521.382	1	10
521.552	1	4
521.722	1	24
521.892	1	11
522.062	1	7
522.232	1	16
522.402	1	13
522.573	1	6
522.743	1	13
522.913	1	15
523.083	1	7
523.253	1	13
523.423	1	10
523.593	1	10
523.764	1	15
523.934	1	17
524.104	1	7
524.274	1	6
524.444	1	7
524.614	1	10
524.784	1	11
524.955	1	23
525.125	1	12
525.295	1	14
525.465	1	11
525.635	1	16
525.805	1	22
525.975	1	14
526.146	1	8
526.316	1	6
526.486	1	14
526.656	1	15
526.826	1	18
526.996	1	16
527.166	1	-3
527.337	1	4
527.507	1	10
527.677	1	32
527.847	1	8
528.017	1	13
528.187	1	21
528.357	1	19
528.527	1	10
528.698	1	-2
528.868	1	12
529.038	1	16
529.208	1	-8
529.378	1	17
529.548	1	4
529.718	1	15
529.888	1	15
530.058	1	5
530.229	1	15
530.399	1	11
530.569	1	11
530.739	1	9
530.909	1	7
531.079	1	7
531.249	1	7
531.419	1	19
531.589	1	16
531.760	1	8
531.930	1	14
532.100	1	4
532.270	1	20
532.440	1	11
532.610	1	18
532.780	1	16
532.950	1	5
533.120	1	18
533.290	1	9
533.461	1	16
533.631	1	15
533.801	1	10
533.971	1	4
534.141	1	17
534.311	1	21
534.481	1	20
534.651	1	14
534.821	1	7
534.991	1	13
535.162	1	8
535.332	1	18
535.502	1	11
535.672	1	9
535.842	1	7
536.012	1	12
536.182	1	16
536.352	1	11
536.522	1	5
536.692	1	12
536.862	1	3
537.032	1	10
537.203	1	16
537.373	1	13
537.543	1	4
537.713	1	7
537.883	1	11
538.053	1	9
538.223	1	9
538.393	1	17
538.563	1	18
538.733	1	12
538.903	1	10
539.073	1	11
539.243	1	9
539.413	1	16
539.584	1	14
539.754	1	17
539.924	1	10
540.094	1	9
540.264	1	16
540.434	1	20
540.604	1	11
540.774	1	23
540.944	1	14
541.114	1	11
541.284	1	-4
541.454	1	17
541.624	1	13
541.794	1	7
541.964	1	8
542.134	1	20
542.305	1	12
542.475	1	11
542.645	1	8
542.815	1	1
542.985	1	8
543.155	1	2
543.325	1	15
543.495	1	21
543.665	1	4
543.835	1	-1
544.005	1	8
544.175	1	5
544.345	1	6
544.515	1	12
544.685	1	17
544.855	1	14
545.025	1	4
545.195	1	13
545.365	1	13
545.535	1	10
545.705	1	26
545.875	1	4
546.045	1	17
546.216	1	-5
546.386	1	18
546.556	1	5
546.726	1	16
546.896	1	11
547.066	1	11
547.236	1	11
547.406	1	3
547.576	1	7
547.746	1	18
547.916	1	16
548.086	1	11
548.256	1	1
548.426	1	2
548.596	1	5
548.766	1	22
548.936	1	26
549.106	1	20
549.276	1	26
549.446	1	7
549.616	1	4
549.786	1	4
549.956	1	6
550.126	1	6
550.296	1	16
550.466	1	18
550.636	1	10
550.806	1	16
550.976	1	12
551.146	1	10
551.316	1	14
551.486	1	10
551.656	1	17
551.826	1	25
551.996	1	5
552.166	1	10
552.336	1	8
552.506	1	20
552.676	1	20
552.846	1	15
553.016	1	17
553.186	1	18
553.356	1	11
553.526	1	8
553.696	1	18
553.866	1	26
554.036	1	11
554.206	1	8
554.376	1	0
554.546	1	5
554.716	1	14
554.886	1	22
555.056	1	19
555.226	1	9
555.396	1	9
555.566	1	10
555.736	1	16
555.906	1	14
556.076	1	7
556.246	1	12
556.416	1	1
556.586	1	-1
556.756	1	3
556.926	1	-7
557.096	1	16
557.266	1	-1
557.436	1	12
557.606	1	4
557.776	1	14
557.946	1	7
558.116	1	7
558.286	1	9
558.456	1	2
558.626	1	0
558.796	1	7
558.966	1	8
559.136	1	9
559.306	1	7
559.476	1	7
559.646	1	11
559.816	1	15
559.986	1	7
560.155	1	9
560.325	1	3
560.495	1	5
560.665	1	-6
560.835	1	5
561.005	1	15
561.175	1	1
561.345	1	2
561.515	1	13
561.685	1	1
561.855	1	4
562.025	1	5
562.195	1	11
562.365	1	7
562.535	1	10
562.705	1	6
562.875	1	2
563.045	1	5
563.215	1	9
563.385	1	-1
563.555	1	2
563.725	1	11
563.895	1	2
564.064	1	0
564.234	1	8
564.404	1	6
564.574	1	19
564.744	1	11
564.914	1	8
565.084	1	-2
565.254	1	10
565.424	1	13
565.594	1	2
565.764	1	-4
565.934	1	6
566.104	1	6
566.274	1	4
566.444	1	0
566.614	1	16
566.783	1	5
566.953	1	12
567.123	1	6
567.293	1	7
567.463	1	4
567.633	1	8
567.803	1	14
567.973	1	8
568.143	1	5
568.313	1	2
568.483	1	14
568.653	1	-2
568.823	1	-1
568.993	1	0
569.162	1	2
569.332	1	13
569.502	1	8
569.672	1	13
569.842	1	9
570.012	1	10
570.182	1	-3
570.352	1	5
570.522	1	7
570.692	1	14
570.862	1	-5
571.031	1	-1
571.201	1	8
571.371	1	9
571.541	1	10
571.711	1	4
571.881	1	16
572.051	1	5
572.221	1	11
572.391	1	14
572.561	1	16
572.731	1	6
572.900	1	-11
573.070	1	10
573.240	1	-4
573.410	1	4
573.580	1	4
573.750	1	2
573.920	1	6
574.090	1	13
574.260	1	7
574.430	1	5
574.599	1	9
574.769	1	3
574.939	1	-5
575.109	1	-1
575.279	1	2
575.449	1	18
575.619	1	12
575.789	1	6
575.959	1	9
576.128	1	1
576.298	1	5
576.468	1	11
576.638	1	-8
576.808	1	6
576.978	1	-3
577.148	1	13
577.318	1	14
577.487	1	10
577.657	1	4
577.827	1	0
577.997	1	1
578.167	1	4
578.337	1	6
578.507	1	-5
578.677	1	-2
578.846	1	1
579.016	1	2
579.186	1	9
579.356	1	12
579.526	1	-2
579.696	1	10
579.866	1	7
580.036	1	9
580.205	1	-3
580.375	1	14
580.545	1	0
580.715	1	5
580.885	1	10
581.055	1	1
581.225	1	4
581.394	1	-11
581.564	1	-3
581.734	1	5
581.904	1	-5
582.074	1	5
582.244	1	3
582.414	1	4
582.583	1	-4
582.753	1	10
582.923	1	4
583.093	1	10
583.263	1	8
583.433	1	10
583.603	1	-4
583.772	1	-9
583.942	1	8
584.112	1	1
584.282	1	3
584.452	1	8
584.622	1	13
584.791	1	-2
584.961	1	-3
585.131	1	-2
585.301	1	1
585.471	1	3
585.641	1	14
585.811	1	0
585.980	1	5
586.150	1	-2
586.320	1	2
586.490	1	2
586.660	1	2
586.830	1	-3
586.999	1	-1
587.169	1	11
587.339	1	-4
587.509	1	-1
587.679	1	3
587.849	1	10
588.018	1	-4
588.188	1	3
588.358	1	6
588.528	1	0
588.698	1	4
588.867	1	0
589.037	1	0
589.207	1	3
589.377	1	7
589.547	1	5
589.717	1	11
589.886	1	4
590.056	1	10
590.226	1	-13
590.396	1	-9
590.566	1	-5
590.735	1	-2
590.905	1	4
591.075	1	-4
591.245	1	0
591.415	1	6
591.585	1	16
591.754	1	15
591.924	1	10
592.094	1	2
592.264	1	-1
592.434	1	3
592.603	1	-5
592.773	1	1
592.943	1	0
593.113	1	1
593.283	1	-2
593.452	1	-1
593.622	1	11
593.792	1	10
593.962	1	3
594.132	1	6
594.301	1	9
594.471	1	8
594.641	1	2
594.811	1	1
594.981	1	-2
595.150	1	7
595.320	1	-3
595.490	1	11
595.660	1	-4
595.829	1	-10
595.999	1	1
596.169	1	11
596.339	1	9
596.509	1	4
596.678	1	3
596.848	1	7
597.018	1	3
597.188	1	3
597.358	1	7
597.527	1	11
597.697	1	-1
597.867	1	11
598.037	1	4
598.206	1	14
598.376	1	0
598.546	1	5
598.716	1	-12
598.885	1	1
599.055	1	8
599.225	1	5
599.395	1	8
599.565	1	0
599.734	1	7
599.904	1	-3
600.074	1	0
600.244	1	-11
600.413	1	7
600.583	1	-5
600.753	1	17
600.923	1	-5
601.092	1	5
601.262	1	3
601.432	1	14
601.602	1	12
601.771	1	4
601.941	1	11
602.111	1	7
602.281	1	5
602.451	1	-8
602.620	1	9
602.790	1	-8
602.960	1	-6
603.130	1	-2
603.299	1	1
603.469	1	5
603.639	1	-12
603.809	1	9
603.978	1	4
604.148	1	8
604.318	1	7
604.487	1	7
604.657	1	-8
604.827	1	7
604.997	1	6
605.166	1	11
605.336	1	-1
605.506	1	0
605.676	1	4
605.845	1	-4
606.015	1	-2
606.185	1	2
606.355	1	2
606.524	1	3
606.694	1	5
606.864	1	11
607.034	1	7
607.203	1	9
607.373	1	0
607.543	1	0
607.712	1	12
607.882	1	-3
608.052	1	-1
608.222	1	9
608.391	1	12
608.561	1	2
608.731	1	-9
608.901	1	4
609.070	1	-6
609.240	1	0
609.410	1	12
609.579	1	-4
609.749	1	8
609.919	1	-5
610.089	1	3
610.258	1	0
610.428	1	11
610.598	1	4
610.767	1	14
610.937	1	3
611.107	1	4
611.277	1	-5
611.446	1	0
611.616	1	9
611.786	1	-1
611.955	1	-2
612.125	1	4
612.295	1	7
612.465	1	-2
612.634	1	5
612.804	1	4
612.974	1	-4
613.143	1	-2
613.313	1	6
613.483	1	17
613.652	1	5
613.822	1	12
613.992	1	-5
614.162	1	4
614.331	1	-2
614.501	1	1
614.671	1	8
614.840	1	0
615.010	1	1
615.180	1	9
615.349	1	13
615.519	1	-7
615.689	1	-3
615.858	1	13
616.028	1	3
616.198	1	-2
616.368	1	-2
616.537	1	8
616.707	1	-4
616.877	1	1
617.046	1	9
617.216	1	6
617.386	1	9
617.555	1	-10
617.725	1	3
617.895	1	-2
618.064	1	9
618.234	1	-12
618.404	1	-3
618.573	1	5
618.743	1	13
618.913	1	1
619.082	1	-4
619.252	1	0
619.422	1	-2
619.591	1	6
619.761	1	-3
619.931	1	6
620.100	1	15
620.270	1	9
620.440	1	15
620.609	1	0
620.779	1	6
620.949	1	7
621.118	1	-1
621.288	1	-1
621.458	1	6
621.627	1	6
621.797	1	-10
621.967	1	7
622.136	1	5
622.306	1	13
622.476	1	-4
622.645	1	2
622.815	1	-2
622.985	1	-1
623.154	1	2
623.324	1	4
623.494	1	-6
623.663	1	-2
623.833	1	3
624.002	1	0
624.172	1	1
624.342	1	9
624.511	1	5
624.681	1	1
624.851	1	-4
625.020	1	5
625.190	1	2
625.360	1	-3
625.529	1	-2
625.699	1	6
625.869	1	7
626.038	1	-5
626.208	1	10
626.377	1	1
626.547	1	-2
626.717	1	-9
626.886	1	4
627.056	1	3
627.226	1	13
627.395	1	-2
627.565	1	-5
627.735	1	3
627.904	1	5
628.074	1	3
628.243	1	7
628.413	1	-3
628.583	1	4
628.752	1	-7
628.922	1	2
629.091	1	-3
629.261	1	7
629.431	1	-2
629.600	1	13
629.770	1	1
629.940	1	-7
630.109	1	1
630.279	1	4
630.448	1	-3
630.618	1	17
630.788	1	-1
630.957	1	15
631.127	1	1
631.297	1	0
631.466	1	-1
631.636	1	11
631.805	1	4
631.975	1	-2
632.145	1	2
632.314	1	8
632.484	1	8
632.653	1	-1
632.823	1	1
632.993	1	7
633.162	1	0
633.332	1	-2
633.501	1	4
633.671	1	5
633.841	1	1
634.010	1	10
634.180	1	12
634.349	1	11
634.519	1	8
634.689	1	5
634.858	1	-4
635.028	1	2
635.197	1	6
635.367	1	6
635.537	1	-4
635.706	1	7
635.876	1	1
636.045	1	-2
636.215	1	15
636.384	1	-6
636.554	1	-6
636.724	1	3
636.893	1	0
637.063	1	5
637.232	1	7
637.402	1	-1
637.572	1	4
637.741	1	-4
637.911	1	-1
638.080	1	11
638.250	1	3
638.419	1	1
638.589	1	2
638.759	1	1
638.928	1	-4
639.098	1	1
639.267	1	2
639.437	1	-2
639.606	1	6
639.776	1	12
639.946	1	7
640.115	1	-6
640.285	1	12
640.454	1	8
640.624	1	7
640.793	1	1
640.963	1	5
641.132	1	6
641.302	1	10
641.472	1	2
641.641	1	1
641.811	1	-3
641.980	1	4
642.150	1	-4
642.319	1	15
642.489	1	-5
642.659	1	6
642.828	1	7
642.998	1	1
643.167	1	-3
643.337	1	1
643.506	1	3
643.676	1	-4
643.845	1	9
644.015	1	-1
644.184	1	-7
644.354	1	-3
644.524	1	0
644.693	1	6
644.863	1	4
645.032	1	7
645.202	1	1
645.371	1	2
645.541	1	-4
645.710	1	0
645.880	1	-10
646.049	1	-1
646.219	1	-2
646.388	1	-3
646.558	1	1
646.728	1	-2
646.897	1	2
647.067	1	8
647.236	1	9
647.406	1	3
647.575	1	5
647.745	1	13
647.914	1	4
648.084	1	1
648.253	1	2
648.423	1	9
648.592	1	-9
648.762	1	13
648.931	1	7
649.101	1	-10
649.270	1	-3
649.440	1	3
649.610	1	8
649.779	1	2
649.949	1	1
650.118	1	4
650.288	1	4
650.457	1	12
650.627	1	0
650.796	1	8
650.966	1	-7
651.135	1	-4
651.305	1	3
651.474	1	11
651.644	1	7
651.813	1	8
651.983	1	-1
652.152	1	-2
652.322	1	5
652.491	1	9
652.661	1	5
652.830	1	4
653.000	1	6
653.169	1	1
653.339	1	-1
653.508	1	7
653.678	1	1
653.847	1	-7
654.017	1	9
654.186	1	-2
654.356	1	-4
654.525	1	-6
654.695	1	2
654.864	1	-1
655.034	1	2
655.203	1	7
655.373	1	5
655.542	1	4
655.712	1	-11
655.881	1	19
656.051	1	5
656.220	1	-3
656.390	1	-1
656.559	1	-4
656.729	1	-2
656.898	1	-1
657.068	1	5
657.237	1	7
657.406	1	3
657.576	1	-3
657.745	1	2
657.915	1	1
658.084	1	5
658.254	1	4
658.423	1	-4
658.593	1	9
658.762	1	2
658.932	1	-4
659.101	1	-4
659.271	1	-3
659.440	1	9
659.610	1	0
659.779	1	6
659.949	1	6
660.118	1	6
660.288	1	0
660.457	1	3
660.626	1	3
660.796	1	-2
660.965	1	0
661.135	1	-8
661.304	1	-2
661.474	1	4
661.643	1	5
661.813	1	7
661.982	1	-3
662.152	1	1
662.321	1	0
662.491	1	-5
662.660	1	3
662.829	1	7
662.999	1	2
663.168	1	5
663.338	1	7
663.507	1	0
663.677	1	9
663.846	1	-6
664.016	1	2
664.185	1	-6
664.354	1	6
664.524	1	9
664.693	1	-1
664.863	1	-4
665.032	1	-1
665.202	1	-4
665.371	1	-7
665.541	1	11
665.710	1	4
665.879	1	-5
666.049	1	0
666.218	1	6
666.388	1	8
666.557	1	3
666.727	1	-2
666.896	1	0
667.065	1	-3
667.235	1	14
667.404	1	0
667.574	1	-1
667.743	1	5
667.913	1	8
668.082	1	-9
668.251	1	4
668.421	1	7
668.590	1	9
668.760	1	2
668.929	1	3
669.099	1	1
669.268	1	-8
669.437	1	-4
669.607	1	6
669.776	1	3
669.946	1	1
670.115	1	-19
670.285	1	9
670.454	1	7
670.623	1	4
670.793	1	1
670.962	1	3
671.132	1	-5
671.301	1	4
671.470	1	5
671.640	1	-8
671.809	1	2
671.979	1	12
672.148	1	10
672.317	1	-7
672.487	1	-8
672.656	1	-3
672.826	1	8
672.995	1	6
673.164	1	-10
673.334	1	0
673.503	1	-2
673.673	1	9
673.842	1	2
674.011	1	12
674.181	1	11
674.350	1	10
674.520	1	0
674.689	1	-11
674.858	1	-7
675.028	1	2
675.197	1	3
675.367	1	0
675.536	1	10
675.705	1	9
675.875	1	3
676.044	1	-5
676.214	1	-1
676.383	1	5
676.552	1	7
676.722	1	-6
676.891	1	5
677.060	1	0
677.230	1	6
677.399	1	-8
677.569	1	4
677.738	1	4
677.907	1	-5
678.077	1	11
678.246	1	0
678.416	1	2
678.585	1	-4
678.754	1	-2
678.924	1	7
679.093	1	5
679.262	1	2
679.432	1	-3
679.601	1	-2
679.771	1	-3
679.940	1	3
680.109	1	-3
680.279	1	8
680.448	1	11
680.617	1	-5
680.787	1	-2
680.956	1	5
681.125	1	7
681.295	1	-4
681.464	1	0
681.634	1	3
681.803	1	-1
681.972	1	2
682.142	1	1
682.311	1	1
682.480	1	3
682.650	1	13
682.819	1	3
682.988	1	0
683.158	1	5
683.327	1	13
683.496	1	1
683.666	1	9
683.835	1	-6
684.004	1	4
684.174	1	1
684.343	1	8
684.512	1	4
684.682	1	3
684.851	1	4
685.021	1	0
685.190	1	5
685.359	1	-8
685.529	1	6
685.698	1	-4
685.867	1	6
686.037	1	3
686.206	1	3
686.375	1	-4
686.545	1	8
686.714	1	10
686.883	1	9
687.053	1	4
687.222	1	-1
687.391	1	0
687.561	1	11
687.730	1	-1
687.899	1	-2
688.069	1	10
688.238	1	7
688.407	1	7
688.577	1	-7
688.746	1	6
