340.368	1	15
340.539	1	9
340.710	1	-1
340.881	1	-8
341.052	1	-5
341.223	1	2
341.394	1	-6
341.565	1	-1
341.737	1	13
341.908	1	-10
342.079	1	-14
342.250	1	-7
342.421	1	-2
342.592	1	3
342.763	1	2
342.934	1	7
343.105	1	1
343.276	1	0
343.447	1	-6
343.618	1	-6
343.789	1	-5
343.960	1	2
344.131	1	0
344.302	1	-10
344.473	1	-1
344.644	1	-5
344.815	1	-9
344.986	1	4
345.157	1	11
345.328	1	0
345.499	1	0
345.670	1	-1
345.841	1	-4
346.012	1	0
346.183	1	10
346.354	1	0
346.526	1	4
346.697	1	-8
346.868	1	4
347.039	1	-4
347.210	1	-3
347.381	1	3
347.552	1	0
347.723	1	0
347.894	1	0
348.065	1	10
348.236	1	4
348.407	1	7
348.578	1	0
348.749	1	-4
348.920	1	-6
349.091	1	-10
349.262	1	-10
349.433	1	5
349.604	1	9
349.775	1	3
349.946	1	-12
350.117	1	7
350.288	1	8
350.459	1	1
350.630	1	8
350.801	1	7
350.972	1	6
351.143	1	4
351.314	1	-9
351.485	1	7
351.656	1	0
351.827	1	-7
351.998	1	9
352.169	1	-4
352.340	1	-2
352.511	1	-1
352.682	1	-4
352.853	1	1
353.024	1	4
353.195	1	5
353.366	1	2
353.537	1	1
353.708	1	6
353.879	1	-3
354.050	1	4
354.221	1	-2
354.392	1	10
354.563	1	1
354.734	1	4
354.905	1	4
355.076	1	9
355.247	1	2
355.418	1	6
355.589	1	4
355.760	1	2
355.931	1	11
356.102	1	-3
356.273	1	0
356.444	1	-2
356.615	1	6
356.785	1	-1
356.956	1	0
357.127	1	7
357.298	1	8
357.469	1	-5
357.640	1	14
357.811	1	-3
357.982	1	8
358.153	1	10
358.324	1	17
358.495	1	-4
358.666	1	4
358.837	1	13
359.008	1	5
359.179	1	9
359.350	1	1
359.521	1	8
359.692	1	7
359.863	1	1
360.034	1	15
360.205	1	-3
360.376	1	8
360.547	1	-10
360.718	1	18
360.889	1	-1
361.060	1	4
361.231	1	7
361.401	1	2
361.572	1	-8
361.743	1	16
361.914	1	9
362.085	1	12
362.256	1	7
362.427	1	-1
362.598	1	11
362.769	1	12
362.940	1	19
363.111	1	11
363.282	1	4
363.453	1	-2
363.624	1	8
363.795	1	6
363.966	1	8
364.137	1	12
364.308	1	14
364.478	1	9
364.649	1	19
364.820	1	15
364.991	1	18
365.162	1	6
365.333	1	10
365.504	1	12
365.675	1	11
365.846	1	10
366.017	1	9
366.188	1	13
366.359	1	11
366.530	1	25
366.701	1	21
366.871	1	18
367.042	1	22
367.213	1	19
367.384	1	11
367.555	1	14
367.726	1	24
367.897	1	22
368.068	1	21
368.239	1	17
368.410	1	23
368.581	1	20
368.752	1	25
368.923	1	25
369.093	1	18
369.264	1	5
369.435	1	20
369.606	1	11
369.777	1	15
369.948	1	12
370.119	1	18
370.290	1	9
370.461	1	21
370.632	1	10
370.803	1	27
370.973	1	12
371.144	1	22
371.315	1	9
371.486	1	5
371.657	1	4
371.828	1	21
371.999	1	-2
372.170	1	9
372.341	1	10
372.512	1	8
372.682	1	11
372.853	1	4
373.024	1	11
373.195	1	4
373.366	1	-2
373.537	1	10
373.708	1	5
373.879	1	7
374.050	1	7
374.220	1	11
374.391	1	9
374.562	1	9
374.733	1	0
374.904	1	10
375.075	1	1
375.246	1	6
375.417	1	4
375.588	1	15
375.758	1	-3
375.929	1	4
376.100	1	14
376.271	1	11
376.442	1	-8
376.613	1	4
376.784	1	10
376.955	1	1
377.125	1	3
377.296	1	3
377.467	1	3
377.638	1	6
377.809	1	-1
377.980	1	-2
378.151	1	10
378.321	1	6
378.492	1	7
378.663	1	11
378.834	1	12
379.005	1	2
379.176	1	2
379.347	1	13
379.518	1	2
379.688	1	5
379.859	1	8
380.030	1	16
380.201	1	16
380.372	1	16
380.543	1	9
380.714	1	7
380.884	1	13
381.055	1	1
381.226	1	-1
381.397	1	10
381.568	1	5
381.739	1	-1
381.910	1	5
382.080	1	14
382.251	1	5
382.422	1	2
382.593	1	0
382.764	1	-3
382.935	1	-3
383.105	1	3
383.276	1	2
383.447	1	0
383.618	1	8
383.789	1	8
383.960	1	4
384.130	1	-1
384.301	1	11
384.472	1	5
384.643	1	1
384.814	1	13
384.985	1	-1
385.156	1	13
385.326	1	5
385.497	1	18
385.668	1	11
385.839	1	16
386.010	1	17
386.180	1	12
386.351	1	9
386.522	1	9
386.693	1	8
386.864	1	20
387.035	1	8
387.205	1	9
387.376	1	13
387.547	1	7
387.718	1	0
387.889	1	16
388.060	1	16
388.230	1	23
388.401	1	11
388.572	1	11
388.743	1	1
388.914	1	5
389.084	1	16
389.255	1	1
389.426	1	6
389.597	1	12
389.768	1	13
389.939	1	2
390.109	1	11
390.280	1	0
390.451	1	12
390.622	1	7
390.793	1	7
390.963	1	0
391.134	1	-6
391.305	1	4
391.476	1	12
391.647	1	13
391.817	1	7
391.988	1	-2
392.159	1	13
392.330	1	6
392.501	1	9
392.671	1	4
392.842	1	6
393.013	1	12
393.184	1	11
393.355	1	9
393.525	1	-3
393.696	1	14
393.867	1	4
394.038	1	8
394.208	1	5
394.379	1	10
394.550	1	-2
394.721	1	-1
394.892	1	-3
395.062	1	6
395.233	1	4
395.404	1	12
395.575	1	2
395.746	1	1
395.916	1	11
396.087	1	3
396.258	1	21
396.429	1	-3
396.599	1	11
396.770	1	4
396.941	1	9
397.112	1	-3
397.283	1	9
397.453	1	14
397.624	1	7
397.795	1	1
397.966	1	9
398.136	1	-9
398.307	1	8
398.478	1	8
398.649	1	13
398.819	1	18
398.990	1	1
399.161	1	9
399.332	1	11
399.503	1	15
399.673	1	-5
399.844	1	12
400.015	1	7
400.186	1	1
400.356	1	18
400.527	1	10
400.698	1	10
400.869	1	-4
401.039	1	4
401.210	1	5
401.381	1	5
401.552	1	5
401.722	1	11
401.893	1	15
402.064	1	2
402.235	1	-11
402.405	1	2
402.576	1	3
402.747	1	2
402.918	1	8
403.088	1	4
403.259	1	9
403.430	1	5
403.601	1	10
403.771	1	16
403.942	1	4
404.113	1	12
404.284	1	7
404.454	1	4
404.625	1	2
404.796	1	5
404.967	1	12
405.137	1	4
405.308	1	3
405.479	1	19
405.649	1	9
405.820	1	3
405.991	1	-5
406.162	1	8
406.332	1	-11
406.503	1	0
406.674	1	0
406.845	1	15
407.015	1	1
407.186	1	11
407.357	1	9
407.527	1	7
407.698	1	13
407.869	1	-5
408.040	1	3
408.210	1	3
408.381	1	-4
408.552	1	4
408.722	1	-1
408.893	1	-1
409.064	1	-1
409.235	1	1
409.405	1	11
409.576	1	8
409.747	1	6
409.917	1	4
410.088	1	-2
410.259	1	9
410.430	1	0
410.600	1	-8
410.771	1	-2
410.942	1	2
411.112	1	5
411.283	1	5
411.454	1	-3
411.625	1	-8
411.795	1	10
411.966	1	16
412.137	1	7
412.307	1	16
412.478	1	3
412.649	1	-3
412.819	1	10
412.990	1	-4
413.161	1	-12
413.332	1	4
413.502	1	1
413.673	1	13
413.844	1	10
414.014	1	3
414.185	1	4
414.356	1	-5
414.526	1	8
414.697	1	1
414.868	1	3
415.038	1	3
415.209	1	-5
415.380	1	14
415.550	1	8
415.721	1	3
415.892	1	2
416.063	1	7
416.233	1	2
416.404	1	0
416.575	1	-1
416.745	1	8
416.916	1	8
417.087	1	5
417.257	1	10
417.428	1	7
417.599	1	7
417.769	1	-8
417.940	1	-1
418.111	1	4
418.281	1	-5
418.452	1	7
418.623	1	1
418.793	1	9
418.964	1	7
419.135	1	9
419.305	1	4
419.476	1	-3
419.647	1	4
419.817	1	7
419.988	1	-6
420.159	1	7
420.329	1	8
420.500	1	7
420.671	1	-7
420.841	1	1
421.012	1	-1
421.183	1	5
421.353	1	9
421.524	1	14
421.695	1	4
421.865	1	13
422.036	1	-1
422.206	1	4
422.377	1	4
422.548	1	7
422.718	1	6
422.889	1	-2
423.060	1	-3
423.230	1	5
423.401	1	1
423.572	1	13
423.742	1	-3
423.913	1	-3
424.084	1	-1
424.254	1	2
424.425	1	4
424.595	1	-4
424.766	1	10
424.937	1	10
425.107	1	3
425.278	1	2
425.449	1	-3
425.619	1	8
425.790	1	1
425.961	1	1
426.131	1	-5
426.302	1	5
426.472	1	-4
426.643	1	-6
426.814	1	-5
426.984	1	6
427.155	1	-3
427.326	1	2
427.496	1	-3
427.667	1	4
427.837	1	-11
428.008	1	1
428.179	1	-2
428.349	1	-6
428.520	1	2
428.691	1	-8
428.861	1	0
429.032	1	0
429.202	1	5
429.373	1	2
429.544	1	4
429.714	1	-2
429.885	1	-5
430.055	1	1
430.226	1	1
430.397	1	3
430.567	1	2
430.738	1	2
430.909	1	-5
431.079	1	-9
431.250	1	0
431.420	1	-10
431.591	1	-6
431.762	1	5
431.932	1	-6
432.103	1	-2
432.273	1	10
432.444	1	-4
432.615	1	-2
432.785	1	-3
432.956	1	2
433.126	1	0
433.297	1	6
433.468	1	-4
433.638	1	4
433.809	1	-4
433.979	1	-1
434.150	1	4
434.320	1	4
434.491	1	8
434.662	1	11
434.832	1	0
435.003	1	7
435.173	1	-3
435.344	1	0
435.515	1	3
435.685	1	-2
435.856	1	-3
436.026	1	-3
436.197	1	5
436.368	1	-2
436.538	1	-3
436.709	1	0
436.879	1	-3
437.050	1	9
437.220	1	-10
437.391	1	16
437.562	1	8
437.732	1	2
437.903	1	-1
438.073	1	-2
438.244	1	0
438.414	1	-3
438.585	1	-5
438.756	1	1
438.926	1	3
439.097	1	13
439.267	1	-2
439.438	1	8
439.608	1	1
439.779	1	7
439.949	1	-13
440.120	1	2
440.291	1	0
440.461	1	11
440.632	1	10
440.802	1	3
440.973	1	5
441.143	1	-2
441.314	1	-15
441.485	1	1
441.655	1	4
441.826	1	-13
441.996	1	-8
442.167	1	6
442.337	1	7
442.508	1	-3
442.678	1	-8
442.849	1	-11
443.019	1	8
443.190	1	6
443.361	1	-1
443.531	1	-4
443.702	1	-9
443.872	1	11
444.043	1	9
444.213	1	4
444.384	1	-2
444.554	1	-3
444.725	1	0
444.895	1	-2
445.066	1	0
445.237	1	3
445.407	1	-3
445.578	1	6
445.748	1	-1
445.919	1	-1
446.089	1	3
446.260	1	-4
446.430	1	-7
446.601	1	3
446.771	1	-11
446.942	1	3
447.112	1	15
447.283	1	-9
447.453	1	0
447.624	1	1
447.794	1	7
447.965	1	4
448.135	1	2
448.306	1	3
448.477	1	10
448.647	1	0
448.818	1	9
448.988	1	4
449.159	1	1
449.329	1	1
449.500	1	1
449.670	1	3
449.841	1	2
450.011	1	-3
450.182	1	-18
450.352	1	5
450.523	1	0
450.693	1	3
450.864	1	4
451.034	1	0
451.205	1	1
451.375	1	5
451.546	1	-2
451.716	1	-5
451.887	1	-10
452.057	1	4
452.228	1	5
452.398	1	7
452.569	1	-9
452.739	1	7
452.910	1	-5
453.080	1	9
453.251	1	10
453.421	1	-11
453.592	1	8
453.762	1	-4
453.933	1	-1
454.103	1	-1
454.274	1	6
454.444	1	-3
454.615	1	10
454.785	1	2
454.956	1	8
455.126	1	-3
455.297	1	0
455.467	1	-14
455.638	1	8
455.808	1	0
455.979	1	-4
456.149	1	9
456.320	1	6
456.490	1	-5
456.661	1	-9
456.831	1	7
457.001	1	-2
457.172	1	3
457.342	1	6
457.513	1	10
457.683	1	-8
457.854	1	5
458.024	1	0
458.195	1	-3
458.365	1	11
458.536	1	-7
458.706	1	7
458.877	1	-2
459.047	1	14
459.218	1	2
459.388	1	17
459.559	1	7
459.729	1	-6
459.899	1	-5
460.070	1	0
460.240	1	2
460.411	1	-7
460.581	1	-5
460.752	1	-5
460.922	1	12
461.093	1	-1
461.263	1	5
461.434	1	7
461.604	1	7
461.775	1	2
461.945	1	5
462.115	1	-11
462.286	1	3
462.456	1	-6
462.627	1	4
462.797	1	-7
462.968	1	-11
463.138	1	6
463.309	1	7
463.479	1	4
463.649	1	-1
463.820	1	-3
463.990	1	12
464.161	1	-6
464.331	1	10
464.502	1	-2
464.672	1	-8
464.843	1	-5
465.013	1	-8
465.183	1	-6
465.354	1	5
465.524	1	-1
465.695	1	7
465.865	1	11
466.036	1	-2
466.206	1	2
466.376	1	-4
466.547	1	-6
466.717	1	6
466.888	1	-8
467.058	1	8
467.229	1	9
467.399	1	-1
467.569	1	5
467.740	1	2
467.910	1	2
468.081	1	-8
468.251	1	7
468.422	1	-3
468.592	1	6
468.762	1	-18
468.933	1	6
469.103	1	1
469.274	1	-3
469.444	1	7
469.614	1	10
469.785	1	15
469.955	1	-2
470.126	1	6
470.296	1	5
470.467	1	-14
470.637	1	5
470.807	1	13
470.978	1	1
471.148	1	-8
471.319	1	6
471.489	1	1
471.659	1	-5
471.830	1	8
472.000	1	-2
472.171	1	2
472.341	1	-1
472.511	1	4
472.682	1	1
472.852	1	-7
473.023	1	7
473.193	1	7
473.363	1	1
473.534	1	-6
473.704	1	-2
473.875	1	-6
474.045	1	5
474.215	1	3
474.386	1	8
474.556	1	4
474.727	1	-4
474.897	1	-1
475.067	1	-4
475.238	1	-8
475.408	1	-10
475.578	1	9
475.749	1	10
475.919	1	-4
476.090	1	3
476.260	1	5
476.430	1	9
476.601	1	10
476.771	1	-2
476.942	1	7
477.112	1	-4
477.282	1	4
477.453	1	0
477.623	1	0
477.793	1	-2
477.964	1	1
478.134	1	5
478.305	1	6
478.475	1	-3
478.645	1	1
478.816	1	1
478.986	1	5
479.156	1	-5
479.327	1	-3
479.497	1	5
479.667	1	6
479.838	1	-8
480.008	1	-7
480.179	1	-10
480.349	1	-2
480.519	1	-2
480.690	1	-5
480.860	1	-1
481.030	1	5
481.201	1	-5
481.371	1	6
481.541	1	12
481.712	1	13
481.882	1	-11
482.053	1	3
482.223	1	-1
482.393	1	-1
482.564	1	-2
482.734	1	-4
482.904	1	9
483.075	1	-8
483.245	1	4
483.415	1	-2
483.586	1	17
483.756	1	7
483.926	1	2
484.097	1	8
484.267	1	2
484.437	1	1
484.608	1	2
484.778	1	-1
484.948	1	-3
485.119	1	-4
485.289	1	2
485.459	1	-3
485.630	1	10
485.800	1	3
485.970	1	-3
486.141	1	0
486.311	1	3
486.481	1	3
486.652	1	3
486.822	1	-6
486.992	1	14
487.163	1	-2
487.333	1	10
487.503	1	0
487.674	1	-7
487.844	1	-2
488.014	1	1
488.185	1	5
488.355	1	-2
488.525	1	9
488.696	1	3
488.866	1	0
489.036	1	5
489.207	1	-2
489.377	1	3
489.547	1	-2
489.718	1	7
489.888	1	-1
490.058	1	5
490.228	1	-13
490.399	1	4
490.569	1	16
490.739	1	6
490.910	1	-8
491.080	1	1
491.250	1	-3
491.421	1	9
491.591	1	-7
491.761	1	6
491.932	1	-4
492.102	1	-2
492.272	1	2
492.442	1	0
492.613	1	6
492.783	1	3
492.953	1	-2
493.124	1	8
493.294	1	7
493.464	1	4
493.635	1	-4
493.805	1	10
493.975	1	7
494.145	1	4
494.316	1	-5
494.486	1	7
494.656	1	-5
494.827	1	5
494.997	1	-9
495.167	1	3
495.337	1	2
495.508	1	-2
495.678	1	2
495.848	1	-1
496.019	1	13
496.189	1	-2
496.359	1	-3
496.529	1	6
496.700	1	3
496.870	1	-3
497.040	1	8
497.211	1	1
497.381	1	2
497.551	1	2
497.721	1	-7
497.892	1	-5
498.062	1	-9
498.232	1	4
498.403	1	-5
498.573	1	5
498.743	1	11
498.913	1	10
499.084	1	5
499.254	1	-4
499.424	1	0
499.594	1	0
499.765	1	2
499.935	1	-3
500.105	1	1
500.275	1	1
500.446	1	4
500.616	1	-7
500.786	1	8
500.956	1	-1
501.127	1	9
501.297	1	-2
501.467	1	4
501.638	1	7
501.808	1	-3
501.978	1	0
502.148	1	0
502.319	1	16
502.489	1	5
502.659	1	15
502.829	1	12
503.000	1	0
503.170	1	-4
503.340	1	11
503.510	1	-10
503.681	1	7
503.851	1	16
504.021	1	5
504.191	1	8
504.362	1	4
504.532	1	1
504.702	1	-4
504.872	1	-8
505.042	1	-3
505.213	1	10
505.383	1	5
505.553	1	5
505.723	1	7
505.894	1	6
506.064	1	7
506.234	1	8
506.404	1	0
506.575	1	3
506.745	1	17
506.915	1	4
507.085	1	-4
507.256	1	-1
507.426	1	-3
507.596	1	1
507.766	1	8
507.936	1	2
508.107	1	19
508.277	1	5
508.447	1	-1
508.617	1	-3
508.788	1	7
508.958	1	5
509.128	1	4
509.298	1	-4
509.468	1	10
509.639	1	3
509.809	1	8
509.979	1	4
510.149	1	18
510.319	1	0
510.490	1	2
510.660	1	3
510.830	1	-7
511.000	1	1
511.171	1	0
511.341	1	5
511.511	1	3
511.681	1	11
511.851	1	14
512.022	1	-2
512.192	1	0
512.362	1	7
512.532	1	-7
512.702	1	3
512.873	1	19
513.043	1	8
513.213	1	19
513.383	1	-3
513.553	1	12
513.724	1	2
513.894	1	5
514.064	1	13
514.234	1	8
514.404	1	10
514.575	1	4
514.745	1	2
514.915	1	-18
515.085	1	4
515.255	1	3
515.425	1	4
515.596	1	16
515.766	1	8
515.936	1	2
516.106	1	11
516.276	1	6
516.447	1	4
516.617	1	5
516.787	1	5
516.957	1	6
517.127	1	-2
517.297	1	2
517.468	1	-6
517.638	1	7
517.808	1	6
517.978	1	13
518.148	1	9
518.319	1	7
518.489	1	5
518.659	1	-1
518.829	1	2
518.999	1	7
519.169	1	0
519.340	1	2
519.510	1	5
519.680	1	8
519.850	1	8
520.020	1	3
520.190	1	1
520.361	1	3
520.531	1	17
520.701	1	9
520.871	1	3
521.041	1	17
521.211	1	5
521.382	1	8
521.552	1	4
521.722	1	15
521.892	1	8
522.062	1	12
522.232	1	13
522.402	1	5
522.573	1	6
522.743	1	7
522.913	1	7
523.083	1	11
523.253	1	9
523.423	1	2
523.593	1	3
523.764	1	11
523.934	1	10
524.104	1	0
524.274	1	8
524.444	1	3
524.614	1	7
524.784	1	4
524.955	1	18
525.125	1	5
525.295	1	6
525.465	1	0
525.635	1	8
525.805	1	24
525.975	1	-1
526.146	1	-1
526.316	1	5
526.486	1	9
526.656	1	8
526.826	1	18
526.996	1	1
527.166	1	-3
527.337	1	-1
527.507	1	11
527.677	1	19
527.847	1	3
528.017	1	5
528.187	1	12
528.357	1	14
528.527	1	7
528.698	1	4
528.868	1	16
529.038	1	11
529.208	1	-2
529.378	1	7
529.548	1	14
529.718	1	11
529.888	1	13
530.058	1	10
530.229	1	5
530.399	1	-1
530.569	1	-4
530.739	1	1
530.909	1	2
531.079	1	-3
531.249	1	0
531.419	1	12
531.589	1	7
531.760	1	2
531.930	1	10
532.100	1	4
532.270	1	7
532.440	1	1
532.610	1	14
532.780	1	9
532.950	1	3
533.120	1	26
533.290	1	5
533.461	1	4
533.631	1	10
533.801	1	1
533.971	1	5
534.141	1	9
534.311	1	10
534.481	1	19
534.651	1	4
534.821	1	9
534.991	1	12
535.162	1	-1
535.332	1	6
535.502	1	6
535.672	1	-3
535.842	1	12
536.012	1	-1
536.182	1	4
536.352	1	7
536.522	1	1
536.692	1	12
536.862	1	-6
537.032	1	3
537.203	1	9
537.373	1	16
537.543	1	-1
537.713	1	2
537.883	1	6
538.053	1	4
538.223	1	16
538.393	1	3
538.563	1	18
538.733	1	12
538.903	1	4
539.073	1	9
539.243	1	-1
539.413	1	7
539.584	1	8
539.754	1	7
539.924	1	9
540.094	1	6
540.264	1	0
540.434	1	6
540.604	1	-9
540.774	1	6
540.944	1	5
541.114	1	6
541.284	1	4
541.454	1	7
541.624	1	10
541.794	1	5
541.964	1	-3
542.134	1	14
542.305	1	15
542.475	1	7
542.645	1	16
542.815	1	-8
542.985	1	9
543.155	1	3
543.325	1	13
543.495	1	17
543.665	1	-4
543.835	1	-2
544.005	1	7
544.175	1	3
544.345	1	1
544.515	1	16
544.685	1	15
544.855	1	2
545.025	1	7
545.195	1	-4
545.365	1	-5
545.535	1	6
545.705	1	13
545.875	1	3
546.045	1	6
546.216	1	-5
546.386	1	19
546.556	1	-5
546.726	1	5
546.896	1	4
547.066	1	18
547.236	1	5
547.406	1	-3
547.576	1	9
547.746	1	7
547.916	1	11
548.086	1	2
548.256	1	-1
548.426	1	3
548.596	1	-2
548.766	1	16
548.936	1	13
549.106	1	14
549.276	1	17
549.446	1	-2
549.616	1	2
549.786	1	-5
549.956	1	0
550.126	1	1
550.296	1	3
550.466	1	9
550.636	1	9
550.806	1	14
550.976	1	5
551.146	1	-6
551.316	1	2
551.486	1	-2
551.656	1	5
551.826	1	14
551.996	1	8
552.166	1	11
552.336	1	8
552.506	1	8
552.676	1	8
552.846	1	2
553.016	1	14
553.186	1	9
553.356	1	5
553.526	1	0
553.696	1	21
553.866	1	13
554.036	1	3
554.206	1	3
554.376	1	1
554.546	1	8
554.716	1	13
554.886	1	14
555.056	1	4
555.226	1	6
555.396	1	7
555.566	1	4
555.736	1	13
555.906	1	3
556.076	1	3
556.246	1	5
556.416	1	-2
556.586	1	-7
556.756	1	1
556.926	1	0
557.096	1	7
557.266	1	9
557.436	1	5
557.606	1	10
557.776	1	12
557.946	1	8
558.116	1	2
558.286	1	-1
558.456	1	2
558.626	1	-11
558.796	1	7
558.966	1	7
559.136	1	10
559.306	1	5
559.476	1	12
559.646	1	9
559.816	1	13
559.986	1	-2
560.155	1	16
560.325	1	-4
560.495	1	6
560.665	1	-4
560.835	1	-1
561.005	1	7
561.175	1	-1
561.345	1	2
561.515	1	-7
561.685	1	-1
561.855	1	2
562.025	1	13
562.195	1	6
562.365	1	10
562.535	1	8
562.705	1	-8
562.875	1	7
563.045	1	0
563.215	1	10
563.385	1	-10
563.555	1	-6
563.725	1	4
563.895	1	1
564.064	1	-2
564.234	1	2
564.404	1	0
564.574	1	15
564.744	1	-3
564.914	1	6
565.084	1	3
565.254	1	6
565.424	1	3
565.594	1	-1
565.764	1	1
565.934	1	7
566.104	1	-2
566.274	1	16
566.444	1	-11
566.614	1	4
566.783	1	12
566.953	1	8
567.123	1	8
567.293	1	-1
567.463	1	4
567.633	1	4
567.803	1	19
567.973	1	4
568.143	1	-2
568.313	1	-1
568.483	1	3
568.653	1	6
568.823	1	-5
568.993	1	-2
569.162	1	0
569.332	1	12
569.502	1	9
569.672	1	-1
569.842	1	2
570.012	1	1
570.182	1	3
570.352	1	-1
570.522	1	9
570.692	1	17
570.862	1	0
571.031	1	-3
571.201	1	4
571.371	1	6
571.541	1	10
571.711	1	5
571.881	1	9
572.051	1	2
572.221	1	9
572.391	1	11
572.561	1	-1
572.731	1	5
572.900	1	-3
573.070	1	6
573.240	1	-3
573.410	1	4
573.580	1	-9
573.750	1	10
573.920	1	3
574.090	1	12
574.260	1	-2
574.430	1	-2
574.599	1	-1
574.769	1	2
574.939	1	3
575.109	1	-7
575.279	1	-1
575.449	1	19
575.619	1	10
575.789	1	3
575.959	1	7
576.128	1	-9
576.298	1	-1
576.468	1	1
576.638	1	-11
576.808	1	-4
576.978	1	-3
577.148	1	1
577.318	1	14
577.487	1	0
577.657	1	18
577.827	1	2
577.997	1	3
578.167	1	-1
578.337	1	-9
578.507	1	-8
578.677	1	2
578.846	1	2
579.016	1	-3
579.186	1	1
579.356	1	8
579.526	1	4
579.696	1	9
579.866	1	-6
580.036	1	9
580.205	1	-11
580.375	1	22
580.545	1	3
580.715	1	6
580.885	1	7
581.055	1	1
581.225	1	11
581.394	1	-2
581.564	1	-1
581.734	1	-1
581.904	1	-2
582.074	1	-6
582.244	1	3
582.414	1	8
582.583	1	8
582.753	1	12
582.923	1	8
583.093	1	10
583.263	1	14
583.433	1	-1
583.603	1	-5
583.772	1	-12
583.942	1	1
584.112	1	-7
584.282	1	1
584.452	1	-2
584.622	1	2
584.791	1	4
584.961	1	-1
585.131	1	2
585.301	1	-8
585.471	1	-3
585.641	1	4
585.811	1	1
585.980	1	5
586.150	1	-1
586.320	1	2
586.490	1	9
586.660	1	8
586.830	1	-5
586.999	1	1
587.169	1	19
587.339	1	-5
587.509	1	0
587.679	1	-1
587.849	1	9
588.018	1	-4
588.188	1	3
588.358	1	4
588.528	1	-3
588.698	1	-5
588.867	1	-5
589.037	1	-3
589.207	1	-2
589.377	1	4
589.547	1	8
589.717	1	-8
589.886	1	2
590.056	1	1
590.226	1	-6
590.396	1	-7
590.566	1	-1
590.735	1	-15
590.905	1	11
591.075	1	3
591.245	1	7
591.415	1	3
591.585	1	6
591.754	1	1
591.924	1	7
592.094	1	2
592.264	1	-4
592.434	1	3
592.603	1	-4
592.773	1	8
592.943	1	4
593.113	1	7
593.283	1	-5
593.452	1	-4
593.622	1	5
593.792	1	-2
593.962	1	-2
594.132	1	9
594.301	1	3
594.471	1	1
594.641	1	2
594.811	1	-8
594.981	1	1
595.150	1	12
595.320	1	0
595.490	1	2
595.660	1	3
595.829	1	-7
595.999	1	-2
596.169	1	-1
596.339	1	11
596.509	1	2
596.678	1	22
596.848	1	14
597.018	1	-5
597.188	1	2
597.358	1	9
597.527	1	-10
597.697	1	-8
597.867	1	7
598.037	1	11
598.206	1	15
598.376	1	-10
598.546	1	3
598.716	1	-5
598.885	1	5
599.055	1	1
599.225	1	-2
599.395	1	5
599.565	1	-1
599.734	1	4
599.904	1	-3
600.074	1	0
600.244	1	1
600.413	1	4
600.583	1	-6
600.753	1	3
600.923	1	0
601.092	1	6
601.262	1	-7
601.432	1	3
601.602	1	6
601.771	1	2
601.941	1	5
602.111	1	-4
602.281	1	5
602.451	1	5
602.620	1	4
602.790	1	-13
602.960	1	-6
603.130	1	-8
603.299	1	4
603.469	1	-2
603.639	1	-4
603.809	1	9
603.978	1	2
604.148	1	0
604.318	1	-5
604.487	1	11
604.657	1	-5
604.827	1	0
604.997	1	4
605.166	1	4
605.336	1	-2
605.506	1	-1
605.676	1	-1
605.845	1	7
606.015	1	-10
606.185	1	3
606.355	1	-3
606.524	1	2
606.694	1	-1
606.864	1	-3
607.034	1	5
607.203	1	4
607.373	1	12
607.543	1	-5
607.712	1	1
607.882	1	1
608.052	1	-4
608.222	1	1
608.391	1	5
608.561	1	2
608.731	1	-4
608.901	1	4
609.070	1	-4
609.240	1	-1
609.410	1	3
609.579	1	1
609.749	1	4
609.919	1	-11
610.089	1	1
610.258	1	-3
610.428	1	6
610.598	1	2
610.767	1	7
610.937	1	2
611.107	1	-2
611.277	1	-10
611.446	1	5
611.616	1	13
611.786	1	8
611.955	1	2
612.125	1	9
612.295	1	0
612.465	1	1
612.634	1	8
612.804	1	5
612.974	1	-5
613.143	1	-3
613.313	1	2
613.483	1	16
613.652	1	4
613.822	1	4
613.992	1	4
614.162	1	6
614.331	1	-3
614.501	1	-5
614.671	1	-5
614.840	1	-5
615.010	1	7
615.180	1	-2
615.349	1	10
615.519	1	-8
615.689	1	-6
615.858	1	12
616.028	1	3
616.198	1	-7
616.368	1	0
616.537	1	3
616.707	1	1
616.877	1	-5
617.046	1	12
617.216	1	12
617.386	1	9
617.555	1	-6
617.725	1	4
617.895	1	1
618.064	1	-3
618.234	1	-1
618.404	1	-9
618.573	1	-1
618.743	1	6
618.913	1	13
619.082	1	1
619.252	1	-1
619.422	1	-8
619.591	1	-7
619.761	1	-2
619.931	1	4
620.100	1	18
620.270	1	11
620.440	1	3
620.609	1	12
620.779	1	11
620.949	1	0
621.118	1	4
621.288	1	2
621.458	1	4
621.627	1	1
621.797	1	-9
621.967	1	1
622.136	1	8
622.306	1	0
622.476	1	-7
622.645	1	2
622.815	1	6
622.985	1	2
623.154	1	3
623.324	1	-3
623.494	1	-5
623.663	1	-4
623.833	1	-14
624.002	1	0
624.172	1	2
624.342	1	10
624.511	1	5
624.681	1	-1
624.851	1	1
625.020	1	3
625.190	1	-3
625.360	1	-9
625.529	1	-7
625.699	1	2
625.869	1	1
626.038	1	-11
626.208	1	6
626.377	1	-2
626.547	1	-6
626.717	1	-10
626.886	1	3
627.056	1	-3
627.226	1	7
627.395	1	-7
627.565	1	11
627.735	1	-5
627.904	1	11
628.074	1	5
628.243	1	4
628.413	1	-11
628.583	1	-4
628.752	1	-1
628.922	1	0
629.091	1	-2
629.261	1	2
629.431	1	0
629.600	1	1
629.770	1	3
629.940	1	-5
630.109	1	13
630.279	1	3
630.448	1	3
630.618	1	7
630.788	1	-7
630.957	1	2
631.127	1	-3
631.297	1	-4
631.466	1	0
631.636	1	9
631.805	1	2
631.975	1	-4
632.145	1	-4
632.314	1	-2
632.484	1	8
632.653	1	-7
632.823	1	0
632.993	1	9
633.162	1	0
633.332	1	-9
633.501	1	-5
633.671	1	3
633.841	1	7
634.010	1	10
634.180	1	7
634.349	1	7
634.519	1	-1
634.689	1	-6
634.858	1	-13
635.028	1	-9
635.197	1	7
635.367	1	2
635.537	1	7
635.706	1	8
635.876	1	4
636.045	1	11
636.215	1	11
636.384	1	-1
636.554	1	4
636.724	1	-1
636.893	1	7
637.063	1	1
637.232	1	4
637.402	1	7
637.572	1	11
637.741	1	-1
637.911	1	3
638.080	1	7
638.250	1	-2
638.419	1	-3
638.589	1	-5
638.759	1	1
638.928	1	8
639.098	1	-4
639.267	1	-2
639.437	1	-1
639.606	1	5
639.776	1	8
639.946	1	5
640.115	1	-6
640.285	1	8
640.454	1	8
640.624	1	11
640.793	1	2
640.963	1	2
641.132	1	6
641.302	1	3
641.472	1	-2
641.641	1	2
641.811	1	-6
641.980	1	2
642.150	1	-4
642.319	1	3
642.489	1	-4
642.659	1	8
642.828	1	-2
642.998	1	7
643.167	1	-9
643.337	1	3
643.506	1	-7
643.676	1	-6
643.845	1	6
644.015	1	-2
644.184	1	-8
644.354	1	-7
644.524	1	-3
644.693	1	2
644.863	1	8
645.032	1	-4
645.202	1	4
645.371	1	-7
645.541	1	1
645.710	1	-6
645.880	1	2
646.049	1	-8
646.219	1	-1
646.388	1	4
646.558	1	7
646.728	1	-7
646.897	1	2
647.067	1	5
647.236	1	14
647.406	1	2
647.575	1	13
647.745	1	1
647.914	1	-6
648.084	1	-8
648.253	1	-1
648.423	1	-3
648.592	1	-4
648.762	1	9
648.931	1	1
649.101	1	-3
649.270	1	-5
649.440	1	-3
649.610	1	-1
649.779	1	5
649.949	1	0
650.118	1	4
650.288	1	4
650.457	1	10
650.627	1	5
650.796	1	-5
650.966	1	-14
651.135	1	-4
651.305	1	-2
651.474	1	8
651.644	1	11
651.813	1	6
651.983	1	4
652.152	1	13
652.322	1	-6
652.491	1	0
652.661	1	9
652.830	1	-1
653.000	1	4
653.169	1	2
653.339	1	2
653.508	1	-7
653.678	1	1
653.847	1	-1
654.017	1	7
654.186	1	-9
654.356	1	-8
654.525	1	-7
654.695	1	-3
654.864	1	0
655.034	1	-4
655.203	1	9
655.373	1	10
655.542	1	-3
655.712	1	-4
655.881	1	-2
656.051	1	12
656.220	1	-8
656.390	1	-2
656.559	1	-10
656.729	1	0
656.898	1	2
657.068	1	1
657.237	1	-4
657.406	1	2
657.576	1	1
657.745	1	1
657.915	1	0
658.084	1	-4
658.254	1	0
658.423	1	-2
658.593	1	7
658.762	1	4
658.932	1	2
659.101	1	-1
659.271	1	-7
659.440	1	7
659.610	1	-8
659.779	1	25
659.949	1	-1
660.118	1	0
660.288	1	-5
660.457	1	14
660.626	1	8
660.796	1	-2
660.965	1	2
661.135	1	-4
661.304	1	-7
661.474	1	-9
661.643	1	-9
661.813	1	6
661.982	1	3
662.152	1	5
662.321	1	-2
662.491	1	3
662.660	1	-1
662.829	1	3
662.999	1	6
663.168	1	3
663.338	1	8
663.507	1	12
663.677	1	2
663.846	1	1
664.016	1	-6
664.185	1	10
664.354	1	11
664.524	1	7
664.693	1	-1
664.863	1	-3
665.032	1	-7
665.202	1	0
665.371	1	-5
665.541	1	23
665.710	1	-2
665.879	1	2
666.049	1	4
666.218	1	2
666.388	1	5
666.557	1	9
666.727	1	2
666.896	1	0
667.065	1	-12
667.235	1	16
667.404	1	-3
667.574	1	-7
667.743	1	1
667.913	1	16
668.082	1	-2
668.251	1	0
668.421	1	3
668.590	1	-3
668.760	1	-2
668.929	1	9
669.099	1	-1
669.268	1	5
669.437	1	1
669.607	1	11
669.776	1	3
669.946	1	-3
670.115	1	-20
670.285	1	6
670.454	1	-4
670.623	1	-9
670.793	1	6
670.962	1	2
671.132	1	1
671.301	1	2
671.470	1	6
671.640	1	-1
671.809	1	-2
671.979	1	15
672.148	1	7
672.317	1	-4
672.487	1	-4
672.656	1	-9
672.826	1	1
672.995	1	0
673.164	1	-10
673.334	1	-6
673.503	1	-2
673.673	1	-1
673.842	1	5
674.011	1	8
674.181	1	6
674.350	1	0
674.520	1	5
674.689	1	-5
674.858	1	-7
675.028	1	9
675.197	1	5
675.367	1	-3
675.536	1	1
675.705	1	3
675.875	1	0
676.044	1	-5
676.214	1	5
676.383	1	5
676.552	1	3
676.722	1	-2
676.891	1	-5
677.060	1	-1
677.230	1	8
677.399	1	-4
677.569	1	7
677.738	1	1
677.907	1	-11
678.077	1	8
678.246	1	1
678.416	1	5
678.585	1	-8
678.754	1	0
678.924	1	2
679.093	1	-1
679.262	1	2
679.432	1	10
679.601	1	-1
679.771	1	4
679.940	1	8
680.109	1	0
680.279	1	4
680.448	1	6
680.617	1	-5
680.787	1	1
680.956	1	1
681.125	1	5
681.295	1	-5
681.464	1	-2
681.634	1	10
681.803	1	-2
681.972	1	-6
682.142	1	-6
682.311	1	-2
682.480	1	7
682.650	1	0
682.819	1	8
682.988	1	-6
683.158	1	1
683.327	1	13
683.496	1	5
683.666	1	4
683.835	1	3
684.004	1	7
684.174	1	-2
684.343	1	5
684.512	1	4
684.682	1	-3
684.851	1	0
685.021	1	-3
685.190	1	-3
685.359	1	-17
685.529	1	5
685.698	1	-4
685.867	1	6
686.037	1	0
686.206	1	-2
686.375	1	5
686.545	1	8
686.714	1	5
686.883	1	3
687.053	1	-6
687.222	1	-1
687.391	1	4
687.561	1	2
687.730	1	3
687.899	1	4
688.069	1	3
688.238	1	-2
688.407	1	2
688.577	1	1
688.746	1	12
