340.368	1	3
340.539	1	9
340.710	1	0
340.881	1	-5
341.052	1	-3
341.223	1	6
341.394	1	1
341.565	1	1
341.737	1	-2
341.908	1	-7
342.079	1	-2
342.250	1	-2
342.421	1	6
342.592	1	0
342.763	1	3
342.934	1	8
343.105	1	10
343.276	1	8
343.447	1	-9
343.618	1	-8
343.789	1	-3
343.960	1	-6
344.131	1	5
344.302	1	-12
344.473	1	-3
344.644	1	9
344.815	1	-10
344.986	1	0
345.157	1	11
345.328	1	-11
345.499	1	6
345.670	1	9
345.841	1	0
346.012	1	-3
346.183	1	12
346.354	1	13
346.526	1	-5
346.697	1	2
346.868	1	1
347.039	1	2
347.210	1	-6
347.381	1	-4
347.552	1	5
347.723	1	0
347.894	1	1
348.065	1	7
348.236	1	10
348.407	1	-9
348.578	1	-1
348.749	1	-4
348.920	1	-6
349.091	1	4
349.262	1	5
349.433	1	3
349.604	1	-1
349.775	1	8
349.946	1	-6
350.117	1	0
350.288	1	6
350.459	1	-5
350.630	1	13
350.801	1	4
350.972	1	3
351.143	1	13
351.314	1	-5
351.485	1	7
351.656	1	0
351.827	1	3
351.998	1	12
352.169	1	-2
352.340	1	3
352.511	1	10
352.682	1	0
352.853	1	-7
353.024	1	3
353.195	1	2
353.366	1	-1
353.537	1	3
353.708	1	7
353.879	1	-1
354.050	1	3
354.221	1	-1
354.392	1	15
354.563	1	9
354.734	1	4
354.905	1	6
355.076	1	16
355.247	1	6
355.418	1	2
355.589	1	-7
355.760	1	5
355.931	1	10
356.102	1	0
356.273	1	0
356.444	1	6
356.615	1	9
356.785	1	9
356.956	1	12
357.127	1	8
357.298	1	16
357.469	1	4
357.640	1	8
357.811	1	6
357.982	1	5
358.153	1	7
358.324	1	17
358.495	1	1
358.666	1	7
358.837	1	17
359.008	1	13
359.179	1	13
359.350	1	7
359.521	1	18
359.692	1	14
359.863	1	8
360.034	1	19
360.205	1	9
360.376	1	9
360.547	1	12
360.718	1	21
360.889	1	21
361.060	1	16
361.231	1	19
361.401	1	5
361.572	1	15
361.743	1	26
361.914	1	17
362.085	1	21
362.256	1	22
362.427	1	10
362.598	1	13
362.769	1	29
362.940	1	23
363.111	1	26
363.282	1	18
363.453	1	23
363.624	1	29
363.795	1	33
363.966	1	32
364.137	1	39
364.308	1	43
364.478	1	35
364.649	1	42
364.820	1	32
364.991	1	52
365.162	1	35
365.333	1	40
365.504	1	44
365.675	1	43
365.846	1	53
366.017	1	40
366.188	1	55
366.359	1	55
366.530	1	54
366.701	1	62
366.871	1	55
367.042	1	63
367.213	1	52
367.384	1	43
367.555	1	56
367.726	1	53
367.897	1	54
368.068	1	53
368.239	1	40
368.410	1	50
368.581	1	49
368.752	1	56
368.923	1	49
369.093	1	57
369.264	1	40
369.435	1	47
369.606	1	49
369.777	1	39
369.948	1	41
370.119	1	41
370.290	1	36
370.461	1	44
370.632	1	42
370.803	1	46
370.973	1	39
371.144	1	41
371.315	1	38
371.486	1	37
371.657	1	33
371.828	1	38
371.999	1	18
372.170	1	34
372.341	1	30
372.512	1	24
372.682	1	35
372.853	1	34
373.024	1	34
373.195	1	16
373.366	1	22
373.537	1	29
373.708	1	18
373.879	1	20
374.050	1	19
374.220	1	28
374.391	1	22
374.562	1	19
374.733	1	29
374.904	1	29
375.075	1	27
375.246	1	10
375.417	1	29
375.588	1	27
375.758	1	14
375.929	1	15
376.100	1	30
376.271	1	24
376.442	1	9
376.613	1	21
376.784	1	34
376.955	1	11
377.125	1	28
377.296	1	9
377.467	1	13
377.638	1	25
377.809	1	28
377.980	1	15
378.151	1	27
378.321	1	18
378.492	1	26
378.663	1	20
378.834	1	19
379.005	1	9
379.176	1	6
379.347	1	18
379.518	1	9
379.688	1	24
379.859	1	19
380.030	1	21
380.201	1	28
380.372	1	19
380.543	1	17
380.714	1	13
380.884	1	16
381.055	1	9
381.226	1	18
381.397	1	10
381.568	1	17
381.739	1	8
381.910	1	10
382.080	1	24
382.251	1	6
382.422	1	14
382.593	1	12
382.764	1	21
382.935	1	15
383.105	1	12
383.276	1	20
383.447	1	17
383.618	1	26
383.789	1	11
383.960	1	7
384.130	1	12
384.301	1	25
384.472	1	20
384.643	1	14
384.814	1	29
384.985	1	22
385.156	1	30
385.326	1	29
385.497	1	21
385.668	1	18
385.839	1	43
386.010	1	29
386.180	1	23
386.351	1	16
386.522	1	26
386.693	1	23
386.864	1	26
387.035	1	43
387.205	1	38
387.376	1	23
387.547	1	33
387.718	1	22
387.889	1	22
388.060	1	35
388.230	1	37
388.401	1	22
388.572	1	37
388.743	1	24
388.914	1	14
389.084	1	35
389.255	1	30
389.426	1	12
389.597	1	30
389.768	1	26
389.939	1	18
390.109	1	18
390.280	1	20
390.451	1	20
390.622	1	15
390.793	1	29
390.963	1	17
391.134	1	16
391.305	1	22
391.476	1	20
391.647	1	23
391.817	1	23
391.988	1	4
392.159	1	29
392.330	1	27
392.501	1	14
392.671	1	17
392.842	1	23
393.013	1	22
393.184	1	23
393.355	1	21
393.525	1	17
393.696	1	26
393.867	1	14
394.038	1	21
394.208	1	28
394.379	1	9
394.550	1	25
394.721	1	22
394.892	1	12
395.062	1	26
395.233	1	18
395.404	1	20
395.575	1	17
395.746	1	21
395.916	1	19
396.087	1	20
396.258	1	22
396.429	1	18
396.599	1	26
396.770	1	31
396.941	1	19
397.112	1	26
397.283	1	17
397.453	1	35
397.624	1	27
397.795	1	15
397.966	1	36
398.136	1	22
398.307	1	23
398.478	1	17
398.649	1	20
398.819	1	21
398.990	1	16
399.161	1	17
399.332	1	22
399.503	1	26
399.673	1	5
399.844	1	24
400.015	1	12
400.186	1	20
400.356	1	29
400.527	1	20
400.698	1	13
400.869	1	2
401.039	1	21
401.210	1	18
401.381	1	13
401.552	1	22
401.722	1	14
401.893	1	29
402.064	1	23
402.235	1	11
402.405	1	21
402.576	1	-5
402.747	1	11
402.918	1	8
403.088	1	26
403.259	1	11
403.430	1	16
403.601	1	18
403.771	1	17
403.942	1	17
404.113	1	14
404.284	1	16
404.454	1	14
404.625	1	16
404.796	1	12
404.967	1	18
405.137	1	20
405.308	1	20
405.479	1	17
405.649	1	15
405.820	1	3
405.991	1	10
406.162	1	24
406.332	1	-1
406.503	1	8
406.674	1	9
406.845	1	11
407.015	1	7
407.186	1	16
407.357	1	18
407.527	1	18
407.698	1	16
407.869	1	22
408.040	1	12
408.210	1	18
408.381	1	4
408.552	1	7
408.722	1	-3
408.893	1	10
409.064	1	2
409.235	1	12
409.405	1	13
409.576	1	16
409.747	1	28
409.917	1	8
410.088	1	5
410.259	1	11
410.430	1	11
410.600	1	9
410.771	1	7
410.942	1	12
411.112	1	13
411.283	1	9
411.454	1	5
411.625	1	5
411.795	1	14
411.966	1	22
412.137	1	13
412.307	1	10
412.478	1	15
412.649	1	2
412.819	1	9
412.990	1	4
413.161	1	-4
413.332	1	2
413.502	1	5
413.673	1	21
413.844	1	12
414.014	1	3
414.185	1	13
414.356	1	2
414.526	1	15
414.697	1	16
414.868	1	5
415.038	1	12
415.209	1	2
415.380	1	21
415.550	1	3
415.721	1	3
415.892	1	4
416.063	1	16
416.233	1	9
416.404	1	11
416.575	1	10
416.745	1	3
416.916	1	1
417.087	1	14
417.257	1	14
417.428	1	-1
417.599	1	18
417.769	1	7
417.940	1	15
418.111	1	11
418.281	1	-4
418.452	1	10
418.623	1	6
418.793	1	13
418.964	1	12
419.135	1	17
419.305	1	-3
419.476	1	6
419.647	1	14
419.817	1	13
419.988	1	2
420.159	1	12
420.329	1	4
420.500	1	19
420.671	1	11
420.841	1	7
421.012	1	5
421.183	1	7
421.353	1	17
421.524	1	13
421.695	1	3
421.865	1	7
422.036	1	6
422.206	1	8
422.377	1	-1
422.548	1	18
422.718	1	3
422.889	1	6
423.060	1	0
423.230	1	15
423.401	1	11
423.572	1	15
423.742	1	2
423.913	1	5
424.084	1	11
424.254	1	6
424.425	1	3
424.595	1	2
424.766	1	9
424.937	1	11
425.107	1	7
425.278	1	-5
425.449	1	-4
425.619	1	7
425.790	1	11
425.961	1	0
426.131	1	-3
426.302	1	19
426.472	1	0
426.643	1	6
426.814	1	7
426.984	1	5
427.155	1	0
427.326	1	2
427.496	1	-1
427.667	1	10
427.837	1	5
428.008	1	5
428.179	1	-3
428.349	1	-6
428.520	1	9
428.691	1	-3
428.861	1	10
429.032	1	0
429.202	1	9
429.373	1	7
429.544	1	9
429.714	1	5
429.885	1	4
430.055	1	1
430.226	1	-1
430.397	1	0
430.567	1	6
430.738	1	1
430.909	1	4
431.079	1	0
431.250	1	-7
431.420	1	0
431.591	1	8
431.762	1	2
431.932	1	-3
432.103	1	-3
432.273	1	6
432.444	1	-7
432.615	1	1
432.785	1	-3
432.956	1	8
433.126	1	-6
433.297	1	7
433.468	1	4
433.638	1	4
433.809	1	1
433.979	1	0
434.150	1	9
434.320	1	13
434.491	1	12
434.662	1	9
434.832	1	1
435.003	1	14
435.173	1	8
435.344	1	-6
435.515	1	-1
435.685	1	8
435.856	1	-1
436.026	1	-6
436.197	1	-5
436.368	1	9
436.538	1	-2
436.709	1	-5
436.879	1	4
437.050	1	13
437.220	1	-6
437.391	1	0
437.562	1	9
437.732	1	9
437.903	1	0
438.073	1	2
438.244	1	-11
438.414	1	6
438.585	1	-4
438.756	1	13
438.926	1	3
439.097	1	17
439.267	1	0
439.438	1	8
439.608	1	4
439.779	1	-5
439.949	1	-9
440.120	1	1
440.291	1	5
440.461	1	7
440.632	1	9
440.802	1	13
440.973	1	13
441.143	1	3
441.314	1	-6
441.485	1	6
441.655	1	-5
441.826	1	-10
441.996	1	2
442.167	1	2
442.337	1	13
442.508	1	10
442.678	1	6
442.849	1	-6
443.019	1	3
443.190	1	9
443.361	1	19
443.531	1	-2
443.702	1	-4
443.872	1	3
444.043	1	5
444.213	1	9
444.384	1	13
444.554	1	7
444.725	1	6
444.895	1	3
445.066	1	1
445.237	1	4
445.407	1	-3
445.578	1	4
445.748	1	6
445.919	1	4
446.089	1	8
446.260	1	7
446.430	1	3
446.601	1	5
446.771	1	-3
446.942	1	0
447.112	1	13
447.283	1	-2
447.453	1	3
447.624	1	-4
447.794	1	9
447.965	1	9
448.135	1	-1
448.306	1	1
448.477	1	7
448.647	1	0
448.818	1	4
448.988	1	5
449.159	1	3
449.329	1	3
449.500	1	-1
449.670	1	9
449.841	1	3
450.011	1	9
450.182	1	-7
450.352	1	2
450.523	1	15
450.693	1	-5
450.864	1	6
451.034	1	11
451.205	1	9
451.375	1	8
451.546	1	-8
451.716	1	11
451.887	1	-1
452.057	1	-2
452.228	1	2
452.398	1	2
452.569	1	-5
452.739	1	10
452.910	1	5
453.080	1	1
453.251	1	8
453.421	1	-5
453.592	1	11
453.762	1	13
453.933	1	1
454.103	1	1
454.274	1	5
454.444	1	3
454.615	1	18
454.785	1	1
454.956	1	12
455.126	1	4
455.297	1	-1
455.467	1	-2
455.638	1	7
455.808	1	-7
455.979	1	-4
456.149	1	3
456.320	1	12
456.490	1	3
456.661	1	-4
456.831	1	2
457.001	1	14
457.172	1	12
457.342	1	-3
457.513	1	4
457.683	1	2
457.854	1	-2
458.024	1	-8
458.195	1	-1
458.365	1	17
458.536	1	-1
458.706	1	5
458.877	1	-2
459.047	1	12
459.218	1	8
459.388	1	6
459.559	1	7
459.729	1	0
459.899	1	-2
460.070	1	-7
460.240	1	6
460.411	1	-5
460.581	1	3
460.752	1	-1
460.922	1	23
461.093	1	0
461.263	1	8
461.434	1	3
461.604	1	6
461.775	1	8
461.945	1	7
462.115	1	0
462.286	1	1
462.456	1	-1
462.627	1	6
462.797	1	-10
462.968	1	2
463.138	1	1
463.309	1	3
463.479	1	2
463.649	1	-1
463.820	1	10
463.990	1	8
464.161	1	3
464.331	1	15
464.502	1	-1
464.672	1	-11
464.843	1	-1
465.013	1	-1
465.183	1	-6
465.354	1	10
465.524	1	0
465.695	1	10
465.865	1	1
466.036	1	13
466.206	1	6
466.376	1	-7
466.547	1	0
466.717	1	0
466.888	1	3
467.058	1	-6
467.229	1	14
467.399	1	9
467.569	1	12
467.740	1	7
467.910	1	0
468.081	1	1
468.251	1	-4
468.422	1	4
468.592	1	-3
468.762	1	-9
468.933	1	7
469.103	1	2
469.274	1	-3
469.444	1	14
469.614	1	17
469.785	1	12
469.955	1	-2
470.126	1	-1
470.296	1	1
470.467	1	-3
470.637	1	2
470.807	1	16
470.978	1	8
471.148	1	-6
471.319	1	14
471.489	1	-12
471.659	1	-2
471.830	1	5
472.000	1	11
472.171	1	2
472.341	1	-7
472.511	1	15
472.682	1	-2
472.852	1	-1
473.023	1	2
473.193	1	3
473.363	1	4
473.534	1	-2
473.704	1	3
473.875	1	-11
474.045	1	4
474.215	1	8
474.386	1	16
474.556	1	1
474.727	1	-4
474.897	1	-1
475.067	1	-5
475.238	1	-5
475.408	1	2
475.578	1	9
475.749	1	9
475.919	1	10
476.090	1	-5
476.260	1	-4
476.430	1	6
476.601	1	7
476.771	1	-5
476.942	1	4
477.112	1	-1
477.282	1	9
477.453	1	7
477.623	1	6
477.793	1	11
477.964	1	2
478.134	1	4
478.305	1	4
478.475	1	1
478.645	1	1
478.816	1	7
478.986	1	8
479.156	1	-4
479.327	1	1
479.497	1	4
479.667	1	8
479.838	1	0
480.008	1	8
480.179	1	-1
480.349	1	5
480.519	1	8
480.690	1	-1
480.860	1	10
481.030	1	4
481.201	1	0
481.371	1	10
481.541	1	6
481.712	1	-5
481.882	1	-7
482.053	1	7
482.223	1	0
482.393	1	6
482.564	1	5
482.734	1	6
482.904	1	-6
483.075	1	-3
483.245	1	3
483.415	1	8
483.586	1	3
483.756	1	6
483.926	1	-3
484.097	1	11
484.267	1	-10
484.437	1	8
484.608	1	7
484.778	1	1
484.948	1	6
485.119	1	-6
485.289	1	7
485.459	1	-6
485.630	1	10
485.800	1	7
485.970	1	2
486.141	1	-5
486.311	1	6
486.481	1	5
486.652	1	2
486.822	1	-5
486.992	1	11
487.163	1	3
487.333	1	6
487.503	1	7
487.674	1	6
487.844	1	-4
488.014	1	7
488.185	1	0
488.355	1	12
488.525	1	8
488.696	1	0
488.866	1	-6
489.036	1	18
489.207	1	8
489.377	1	0
489.547	1	8
489.718	1	10
489.888	1	7
490.058	1	7
490.228	1	2
490.399	1	5
490.569	1	-1
490.739	1	8
490.910	1	1
491.080	1	-3
491.250	1	9
491.421	1	13
491.591	1	6
491.761	1	-7
491.932	1	4
492.102	1	3
492.272	1	8
492.442	1	7
492.613	1	15
492.783	1	14
492.953	1	5
493.124	1	8
493.294	1	14
493.464	1	1
493.635	1	4
493.805	1	14
493.975	1	2
494.145	1	9
494.316	1	1
494.486	1	14
494.656	1	7
494.827	1	11
494.997	1	7
495.167	1	5
495.337	1	2
495.508	1	9
495.678	1	9
495.848	1	8
496.019	1	-2
496.189	1	18
496.359	1	-2
496.529	1	10
496.700	1	1
496.870	1	16
497.040	1	2
497.211	1	6
497.381	1	10
497.551	1	7
497.721	1	1
497.892	1	13
498.062	1	16
498.232	1	13
498.403	1	16
498.573	1	17
498.743	1	16
498.913	1	9
499.084	1	10
499.254	1	1
499.424	1	-5
499.594	1	1
499.765	1	15
499.935	1	1
500.105	1	14
500.275	1	12
500.446	1	12
500.616	1	4
500.786	1	21
500.956	1	8
501.127	1	11
501.297	1	10
501.467	1	14
501.638	1	18
501.808	1	8
501.978	1	6
502.148	1	1
502.319	1	17
502.489	1	4
502.659	1	10
502.829	1	12
503.000	1	13
503.170	1	9
503.340	1	17
503.510	1	3
503.681	1	7
503.851	1	12
504.021	1	19
504.191	1	11
504.362	1	20
504.532	1	13
504.702	1	9
504.872	1	3
505.042	1	8
505.213	1	21
505.383	1	8
505.553	1	14
505.723	1	6
505.894	1	4
506.064	1	16
506.234	1	4
506.404	1	12
506.575	1	17
506.745	1	24
506.915	1	8
507.085	1	9
507.256	1	12
507.426	1	9
507.596	1	8
507.766	1	12
507.936	1	7
508.107	1	26
508.277	1	4
508.447	1	12
508.617	1	12
508.788	1	16
508.958	1	15
509.128	1	11
509.298	1	4
509.468	1	22
509.639	1	15
509.809	1	17
509.979	1	19
510.149	1	28
510.319	1	6
510.490	1	21
510.660	1	15
510.830	1	16
511.000	1	2
511.171	1	19
511.341	1	24
511.511	1	13
511.681	1	24
511.851	1	16
512.022	1	5
512.192	1	7
512.362	1	11
512.532	1	5
512.702	1	23
512.873	1	20
513.043	1	21
513.213	1	29
513.383	1	11
513.553	1	21
513.724	1	5
513.894	1	12
514.064	1	25
514.234	1	21
514.404	1	16
514.575	1	8
514.745	1	13
514.915	1	-2
515.085	1	17
515.255	1	8
515.425	1	21
515.596	1	23
515.766	1	12
515.936	1	22
516.106	1	18
516.276	1	14
516.447	1	30
516.617	1	20
516.787	1	17
516.957	1	20
517.127	1	17
517.297	1	23
517.468	1	12
517.638	1	13
517.808	1	24
517.978	1	20
518.148	1	13
518.319	1	27
518.489	1	7
518.659	1	19
518.829	1	16
518.999	1	26
519.169	1	13
519.340	1	13
519.510	1	28
519.680	1	22
519.850	1	16
520.020	1	18
520.190	1	14
520.361	1	19
520.531	1	23
520.701	1	19
520.871	1	21
521.041	1	27
521.211	1	24
521.382	1	25
521.552	1	18
521.722	1	17
521.892	1	33
522.062	1	24
522.232	1	22
522.402	1	26
522.573	1	13
522.743	1	18
522.913	1	28
523.083	1	24
523.253	1	30
523.423	1	15
523.593	1	22
523.764	1	19
523.934	1	24
524.104	1	28
524.274	1	20
524.444	1	15
524.614	1	28
524.784	1	10
524.955	1	28
525.125	1	19
525.295	1	34
525.465	1	28
525.635	1	18
525.805	1	29
525.975	1	15
526.146	1	4
526.316	1	18
526.486	1	16
526.656	1	26
526.826	1	18
526.996	1	14
527.166	1	28
527.337	1	15
527.507	1	20
527.677	1	25
527.847	1	23
528.017	1	12
528.187	1	26
528.357	1	35
528.527	1	23
528.698	1	10
528.868	1	31
529.038	1	20
529.208	1	4
529.378	1	28
529.548	1	16
529.718	1	30
529.888	1	40
530.058	1	23
530.229	1	32
530.399	1	16
530.569	1	4
530.739	1	17
530.909	1	18
531.079	1	7
531.249	1	10
531.419	1	34
531.589	1	24
531.760	1	23
531.930	1	26
532.100	1	29
532.270	1	29
532.440	1	15
532.610	1	35
532.780	1	26
532.950	1	19
533.120	1	42
533.290	1	23
533.461	1	19
533.631	1	30
533.801	1	29
533.971	1	7
534.141	1	21
534.311	1	30
534.481	1	24
534.651	1	5
534.821	1	22
534.991	1	18
535.162	1	13
535.332	1	21
535.502	1	19
535.672	1	12
535.842	1	16
536.012	1	16
536.182	1	20
536.352	1	26
536.522	1	4
536.692	1	18
536.862	1	12
537.032	1	5
537.203	1	25
537.373	1	21
537.543	1	15
537.713	1	12
537.883	1	7
538.053	1	20
538.223	1	29
538.393	1	14
538.563	1	25
538.733	1	36
538.903	1	11
539.073	1	15
539.243	1	16
539.413	1	16
539.584	1	26
539.754	1	23
539.924	1	26
540.094	1	17
540.264	1	7
540.434	1	32
540.604	1	11
540.774	1	17
540.944	1	19
541.114	1	19
541.284	1	13
541.454	1	18
541.624	1	27
541.794	1	18
541.964	1	8
542.134	1	33
542.305	1	21
542.475	1	11
542.645	1	19
542.815	1	5
542.985	1	27
543.155	1	2
543.325	1	22
543.495	1	26
543.665	1	12
543.835	1	13
544.005	1	3
544.175	1	14
544.345	1	13
544.515	1	23
544.685	1	25
544.855	1	11
545.025	1	24
545.195	1	25
545.365	1	13
545.535	1	21
545.705	1	32
545.875	1	18
546.045	1	25
546.216	1	11
546.386	1	11
546.556	1	26
546.726	1	13
546.896	1	19
547.066	1	29
547.236	1	16
547.406	1	10
547.576	1	25
547.746	1	24
547.916	1	10
548.086	1	18
548.256	1	10
548.426	1	19
548.596	1	15
548.766	1	25
548.936	1	31
549.106	1	25
549.276	1	21
549.446	1	14
549.616	1	11
549.786	1	14
549.956	1	7
550.126	1	11
550.296	1	33
550.466	1	24
550.636	1	22
550.806	1	31
550.976	1	21
551.146	1	13
551.316	1	15
551.486	1	11
551.656	1	22
551.826	1	23
551.996	1	17
552.166	1	26
552.336	1	20
552.506	1	21
552.676	1	23
552.846	1	22
553.016	1	28
553.186	1	14
553.356	1	23
553.526	1	11
553.696	1	20
553.866	1	22
554.036	1	8
554.206	1	14
554.376	1	2
554.546	1	21
554.716	1	20
554.886	1	28
555.056	1	16
555.226	1	12
555.396	1	17
555.566	1	14
555.736	1	21
555.906	1	22
556.076	1	20
556.246	1	12
556.416	1	3
556.586	1	7
556.756	1	15
556.926	1	9
557.096	1	19
557.266	1	12
557.436	1	20
557.606	1	11
557.776	1	15
557.946	1	18
558.116	1	12
558.286	1	18
558.456	1	12
558.626	1	12
558.796	1	17
558.966	1	21
559.136	1	17
559.306	1	16
559.476	1	19
559.646	1	12
559.816	1	18
559.986	1	16
560.155	1	12
560.325	1	8
560.495	1	0
560.665	1	2
560.835	1	12
561.005	1	17
561.175	1	9
561.345	1	5
561.515	1	2
561.685	1	5
561.855	1	14
562.025	1	12
562.195	1	12
562.365	1	8
562.535	1	13
562.705	1	12
562.875	1	7
563.045	1	8
563.215	1	10
563.385	1	5
563.555	1	3
563.725	1	16
563.895	1	11
564.064	1	9
564.234	1	15
564.404	1	15
564.574	1	24
564.744	1	14
564.914	1	6
565.084	1	0
565.254	1	8
565.424	1	10
565.594	1	10
565.764	1	7
565.934	1	20
566.104	1	9
566.274	1	30
566.444	1	8
566.614	1	8
566.783	1	21
566.953	1	12
567.123	1	20
567.293	1	4
567.463	1	8
567.633	1	7
567.803	1	22
567.973	1	18
568.143	1	10
568.313	1	15
568.483	1	15
568.653	1	7
568.823	1	4
568.993	1	6
569.162	1	0
569.332	1	8
569.502	1	10
569.672	1	6
569.842	1	9
570.012	1	5
570.182	1	2
570.352	1	8
570.522	1	2
570.692	1	9
570.862	1	13
571.031	1	2
571.201	1	15
571.371	1	15
571.541	1	8
571.711	1	10
571.881	1	17
572.051	1	9
572.221	1	16
572.391	1	18
572.561	1	12
572.731	1	6
572.900	1	-3
573.070	1	16
573.240	1	9
573.410	1	15
573.580	1	0
573.750	1	15
573.920	1	12
574.090	1	11
574.260	1	8
574.430	1	10
574.599	1	3
574.769	1	3
574.939	1	4
575.109	1	10
575.279	1	7
575.449	1	16
575.619	1	17
575.789	1	5
575.959	1	12
576.128	1	2
576.298	1	6
576.468	1	7
576.638	1	-8
576.808	1	5
576.978	1	17
577.148	1	11
577.318	1	25
577.487	1	9
577.657	1	10
577.827	1	3
577.997	1	5
578.167	1	9
578.337	1	-4
578.507	1	3
578.677	1	13
578.846	1	7
579.016	1	10
579.186	1	8
579.356	1	10
579.526	1	4
579.696	1	21
579.866	1	2
580.036	1	13
580.205	1	-3
580.375	1	15
580.545	1	6
580.715	1	7
580.885	1	7
581.055	1	-4
581.225	1	14
581.394	1	-2
581.564	1	7
581.734	1	-2
581.904	1	11
582.074	1	4
582.244	1	-5
582.414	1	0
582.583	1	12
582.753	1	19
582.923	1	6
583.093	1	8
583.263	1	11
583.433	1	9
583.603	1	7
583.772	1	-9
583.942	1	2
584.112	1	1
584.282	1	5
584.452	1	12
584.622	1	0
584.791	1	5
584.961	1	1
585.131	1	16
585.301	1	2
585.471	1	2
585.641	1	10
585.811	1	5
585.980	1	6
586.150	1	4
586.320	1	1
586.490	1	13
586.660	1	14
586.830	1	5
586.999	1	8
587.169	1	10
587.339	1	-2
587.509	1	-1
587.679	1	0
587.849	1	8
588.018	1	-10
588.188	1	3
588.358	1	0
588.528	1	4
588.698	1	-5
588.867	1	0
589.037	1	11
589.207	1	18
589.377	1	14
589.547	1	4
589.717	1	-7
589.886	1	6
590.056	1	10
590.226	1	-4
590.396	1	-1
590.566	1	-4
590.735	1	2
590.905	1	1
591.075	1	-12
591.245	1	13
591.415	1	9
591.585	1	18
591.754	1	3
591.924	1	14
592.094	1	0
592.264	1	-4
592.434	1	8
592.603	1	0
592.773	1	6
592.943	1	6
593.113	1	8
593.283	1	8
593.452	1	0
593.622	1	10
593.792	1	2
593.962	1	1
594.132	1	6
594.301	1	15
594.471	1	1
594.641	1	11
594.811	1	0
594.981	1	-3
595.150	1	6
595.320	1	-1
595.490	1	7
595.660	1	4
595.829	1	0
595.999	1	-14
596.169	1	8
596.339	1	9
596.509	1	-5
596.678	1	14
596.848	1	15
597.018	1	1
597.188	1	-5
597.358	1	1
597.527	1	4
597.697	1	-2
597.867	1	-3
598.037	1	12
598.206	1	13
598.376	1	2
598.546	1	9
598.716	1	-7
598.885	1	10
599.055	1	5
599.225	1	0
599.395	1	8
599.565	1	3
599.734	1	14
599.904	1	-7
600.074	1	7
600.244	1	1
600.413	1	5
600.583	1	-3
600.753	1	11
600.923	1	2
601.092	1	9
601.262	1	2
601.432	1	9
601.602	1	17
601.771	1	9
601.941	1	12
602.111	1	-4
602.281	1	12
602.451	1	0
602.620	1	13
602.790	1	-1
602.960	1	0
603.130	1	-2
603.299	1	4
603.469	1	2
603.639	1	-2
603.809	1	8
603.978	1	-3
604.148	1	5
604.318	1	-2
604.487	1	9
604.657	1	-11
604.827	1	12
604.997	1	15
605.166	1	0
605.336	1	1
605.506	1	2
605.676	1	15
605.845	1	8
606.015	1	0
606.185	1	-5
606.355	1	0
606.524	1	2
606.694	1	3
606.864	1	2
607.034	1	9
607.203	1	13
607.373	1	5
607.543	1	9
607.712	1	2
607.882	1	5
608.052	1	1
608.222	1	-1
608.391	1	5
608.561	1	7
608.731	1	4
608.901	1	2
609.070	1	3
609.240	1	3
609.410	1	6
609.579	1	7
609.749	1	12
609.919	1	-2
610.089	1	5
610.258	1	9
610.428	1	6
610.598	1	2
610.767	1	18
610.937	1	4
611.107	1	0
611.277	1	0
611.446	1	-4
611.616	1	7
611.786	1	7
611.955	1	8
612.125	1	9
612.295	1	3
612.465	1	3
612.634	1	6
612.804	1	7
612.974	1	-6
613.143	1	-4
613.313	1	9
613.483	1	12
613.652	1	1
613.822	1	14
613.992	1	-4
614.162	1	8
614.331	1	2
614.501	1	-2
614.671	1	2
614.840	1	1
615.010	1	1
615.180	1	3
615.349	1	14
615.519	1	4
615.689	1	2
615.858	1	19
616.028	1	5
616.198	1	-2
616.368	1	-2
616.537	1	0
616.707	1	8
616.877	1	-4
617.046	1	14
617.216	1	6
617.386	1	9
617.555	1	4
617.725	1	11
617.895	1	1
618.064	1	3
618.234	1	-15
618.404	1	1
618.573	1	6
618.743	1	8
618.913	1	12
619.082	1	-2
619.252	1	3
619.422	1	-1
619.591	1	4
619.761	1	4
619.931	1	4
620.100	1	11
620.270	1	2
620.440	1	9
620.609	1	8
620.779	1	9
620.949	1	2
621.118	1	8
621.288	1	7
621.458	1	7
621.627	1	-2
621.797	1	-6
621.967	1	12
622.136	1	1
622.306	1	4
622.476	1	-1
622.645	1	9
622.815	1	1
622.985	1	4
623.154	1	2
623.324	1	0
623.494	1	-12
623.663	1	-2
623.833	1	1
624.002	1	4
624.172	1	2
624.342	1	16
624.511	1	7
624.681	1	8
624.851	1	-6
625.020	1	-6
625.190	1	2
625.360	1	-1
625.529	1	-5
625.699	1	-3
625.869	1	3
626.038	1	1
626.208	1	13
626.377	1	10
626.547	1	1
626.717	1	-12
626.886	1	-6
627.056	1	6
627.226	1	11
627.395	1	-3
627.565	1	11
627.735	1	4
627.904	1	15
628.074	1	9
628.243	1	8
628.413	1	-4
628.583	1	5
628.752	1	-3
628.922	1	-2
629.091	1	10
629.261	1	12
629.431	1	6
629.600	1	11
629.770	1	6
629.940	1	-12
630.109	1	4
630.279	1	10
630.448	1	4
630.618	1	10
630.788	1	0
630.957	1	1
631.127	1	-3
631.297	1	-3
631.466	1	7
631.636	1	6
631.805	1	12
631.975	1	-3
632.145	1	5
632.314	1	2
632.484	1	5
632.653	1	-3
632.823	1	2
632.993	1	8
633.162	1	0
633.332	1	-1
633.501	1	-5
633.671	1	7
633.841	1	6
634.010	1	13
634.180	1	5
634.349	1	7
634.519	1	5
634.689	1	3
634.858	1	-9
635.028	1	1
635.197	1	-5
635.367	1	7
635.537	1	2
635.706	1	9
635.876	1	13
636.045	1	3
636.215	1	13
636.384	1	-1
636.554	1	-2
636.724	1	1
636.893	1	1
637.063	1	8
637.232	1	-2
637.402	1	7
637.572	1	7
637.741	1	6
637.911	1	-4
638.080	1	-2
638.250	1	2
638.419	1	-6
638.589	1	1
638.759	1	1
638.928	1	7
639.098	1	3
639.267	1	15
639.437	1	3
639.606	1	2
639.776	1	0
639.946	1	10
640.115	1	-3
640.285	1	12
640.454	1	-2
640.624	1	13
640.793	1	-1
640.963	1	0
641.132	1	9
641.302	1	3
641.472	1	6
641.641	1	-2
641.811	1	-9
641.980	1	-1
642.150	1	-6
642.319	1	10
642.489	1	6
642.659	1	9
642.828	1	-1
642.998	1	-3
643.167	1	-5
643.337	1	-1
643.506	1	0
643.676	1	1
643.845	1	4
644.015	1	4
644.184	1	-4
644.354	1	6
644.524	1	4
644.693	1	4
644.863	1	6
645.032	1	0
645.202	1	1
645.371	1	0
645.541	1	11
645.710	1	-3
645.880	1	-4
646.049	1	-5
646.219	1	1
646.388	1	-6
646.558	1	2
646.728	1	-11
646.897	1	3
647.067	1	3
647.236	1	21
647.406	1	5
647.575	1	14
647.745	1	10
647.914	1	3
648.084	1	15
648.253	1	2
648.423	1	5
648.592	1	-14
648.762	1	13
648.931	1	5
649.101	1	-6
649.270	1	1
649.440	1	2
649.610	1	0
649.779	1	10
649.949	1	1
650.118	1	8
650.288	1	6
650.457	1	10
650.627	1	11
650.796	1	2
650.966	1	-11
651.135	1	-1
651.305	1	5
651.474	1	8
651.644	1	13
651.813	1	0
651.983	1	3
652.152	1	12
652.322	1	1
652.491	1	9
652.661	1	10
652.830	1	7
653.000	1	11
653.169	1	8
653.339	1	4
653.508	1	-7
653.678	1	-6
653.847	1	7
654.017	1	12
654.186	1	0
654.356	1	1
654.525	1	-4
654.695	1	2
654.864	1	-1
655.034	1	7
655.203	1	5
655.373	1	10
655.542	1	0
655.712	1	5
655.881	1	8
656.051	1	4
656.220	1	4
656.390	1	0
656.559	1	-9
656.729	1	-2
656.898	1	-3
657.068	1	-3
657.237	1	5
657.406	1	9
657.576	1	5
657.745	1	7
657.915	1	2
658.084	1	5
658.254	1	8
658.423	1	8
658.593	1	8
658.762	1	4
658.932	1	0
659.101	1	4
659.271	1	3
659.440	1	3
659.610	1	-3
659.779	1	13
659.949	1	6
660.118	1	3
660.288	1	4
660.457	1	3
660.626	1	8
660.796	1	4
660.965	1	7
661.135	1	-15
661.304	1	-7
661.474	1	5
661.643	1	0
661.813	1	5
661.982	1	6
662.152	1	8
662.321	1	3
662.491	1	-8
662.660	1	-4
662.829	1	9
662.999	1	3
663.168	1	3
663.338	1	9
663.507	1	2
663.677	1	1
663.846	1	-1
664.016	1	8
664.185	1	-5
664.354	1	10
664.524	1	10
664.693	1	4
664.863	1	0
665.032	1	-1
665.202	1	-5
665.371	1	-9
665.541	1	13
665.710	1	-3
665.879	1	4
666.049	1	-2
666.218	1	3
666.388	1	6
666.557	1	5
666.727	1	-5
666.896	1	10
667.065	1	5
667.235	1	20
667.404	1	0
667.574	1	-2
667.743	1	-2
667.913	1	6
668.082	1	2
668.251	1	1
668.421	1	7
668.590	1	3
668.760	1	3
668.929	1	6
669.099	1	-5
669.268	1	-8
669.437	1	-5
669.607	1	6
669.776	1	3
669.946	1	4
670.115	1	-16
670.285	1	9
670.454	1	-5
670.623	1	6
670.793	1	2
670.962	1	-5
671.132	1	-3
671.301	1	5
671.470	1	6
671.640	1	-3
671.809	1	-3
671.979	1	17
672.148	1	9
672.317	1	1
672.487	1	-7
672.656	1	-11
672.826	1	6
672.995	1	10
673.164	1	-5
673.334	1	6
673.503	1	-7
673.673	1	3
673.842	1	7
674.011	1	7
674.181	1	7
674.350	1	2
674.520	1	2
674.689	1	-1
674.858	1	-11
675.028	1	3
675.197	1	-8
675.367	1	-5
675.536	1	18
675.705	1	1
675.875	1	-2
676.044	1	-7
676.214	1	1
676.383	1	9
676.552	1	4
676.722	1	2
676.891	1	1
677.060	1	2
677.230	1	10
677.399	1	-12
677.569	1	11
677.738	1	2
677.907	1	1
678.077	1	2
678.246	1	15
678.416	1	3
678.585	1	1
678.754	1	6
678.924	1	5
679.093	1	1
679.262	1	2
679.432	1	6
679.601	1	3
679.771	1	1
679.940	1	7
680.109	1	-3
680.279	1	3
680.448	1	5
680.617	1	-5
680.787	1	1
680.956	1	9
681.125	1	5
681.295	1	1
681.464	1	-6
681.634	1	10
681.803	1	3
681.972	1	2
682.142	1	-6
682.311	1	12
682.480	1	9
682.650	1	4
682.819	1	-1
682.988	1	-6
683.158	1	0
683.327	1	12
683.496	1	6
683.666	1	11
683.835	1	2
684.004	1	10
684.174	1	3
684.343	1	5
684.512	1	8
684.682	1	7
684.851	1	12
685.021	1	4
685.190	1	6
685.359	1	-14
685.529	1	10
685.698	1	3
685.867	1	5
686.037	1	7
686.206	1	-6
686.375	1	-7
686.545	1	7
686.714	1	3
686.883	1	7
687.053	1	-5
687.222	1	2
687.391	1	5
687.561	1	17
687.730	1	5
687.899	1	11
688.069	1	14
688.238	1	-5
688.407	1	10
688.577	1	2
688.746	1	1
