340.368	1	8
340.539	1	10
340.710	1	1
340.881	1	0
341.052	1	-6
341.223	1	16
341.394	1	-3
341.565	1	2
341.737	1	-9
341.908	1	-8
342.079	1	-10
342.250	1	2
342.421	1	3
342.592	1	2
342.763	1	9
342.934	1	-2
343.105	1	0
343.276	1	2
343.447	1	-9
343.618	1	-4
343.789	1	0
343.960	1	-3
344.131	1	1
344.302	1	-3
344.473	1	-12
344.644	1	-1
344.815	1	7
344.986	1	12
345.157	1	7
345.328	1	-10
345.499	1	8
345.670	1	1
345.841	1	3
346.012	1	8
346.183	1	15
346.354	1	6
346.526	1	-5
346.697	1	6
346.868	1	-5
347.039	1	-11
347.210	1	-5
347.381	1	-6
347.552	1	-1
347.723	1	-7
347.894	1	-8
348.065	1	4
348.236	1	0
348.407	1	-1
348.578	1	4
348.749	1	-5
348.920	1	-4
349.091	1	8
349.262	1	-4
349.433	1	8
349.604	1	-6
349.775	1	1
349.946	1	-15
350.117	1	2
350.288	1	-1
350.459	1	-1
350.630	1	9
350.801	1	7
350.972	1	9
351.143	1	16
351.314	1	-4
351.485	1	6
351.656	1	2
351.827	1	8
351.998	1	2
352.169	1	-1
352.340	1	2
352.511	1	5
352.682	1	-9
352.853	1	1
353.024	1	11
353.195	1	-2
353.366	1	2
353.537	1	0
353.708	1	6
353.879	1	-3
354.050	1	-4
354.221	1	-2
354.392	1	14
354.563	1	-3
354.734	1	3
354.905	1	-1
355.076	1	6
355.247	1	6
355.418	1	-2
355.589	1	0
355.760	1	4
355.931	1	5
356.102	1	-12
356.273	1	-3
356.444	1	9
356.615	1	6
356.785	1	8
356.956	1	7
357.127	1	7
357.298	1	14
357.469	1	6
357.640	1	4
357.811	1	-2
357.982	1	-2
358.153	1	0
358.324	1	5
358.495	1	-7
358.666	1	-6
358.837	1	5
359.008	1	6
359.179	1	1
359.350	1	3
359.521	1	14
359.692	1	3
359.863	1	-1
360.034	1	8
360.205	1	-1
360.376	1	-2
360.547	1	-1
360.718	1	15
360.889	1	4
361.060	1	6
361.231	1	2
361.401	1	-1
361.572	1	1
361.743	1	11
361.914	1	10
362.085	1	2
362.256	1	16
362.427	1	-5
362.598	1	3
362.769	1	7
362.940	1	9
363.111	1	5
363.282	1	4
363.453	1	5
363.624	1	8
363.795	1	10
363.966	1	11
364.137	1	13
364.308	1	17
364.478	1	8
364.649	1	15
364.820	1	6
364.991	1	16
365.162	1	4
365.333	1	11
365.504	1	2
365.675	1	8
365.846	1	7
366.017	1	20
366.188	1	16
366.359	1	13
366.530	1	22
366.701	1	15
366.871	1	13
367.042	1	16
367.213	1	15
367.384	1	3
367.555	1	10
367.726	1	18
367.897	1	28
368.068	1	19
368.239	1	6
368.410	1	5
368.581	1	16
368.752	1	19
368.923	1	22
369.093	1	15
369.264	1	8
369.435	1	13
369.606	1	10
369.777	1	8
369.948	1	18
370.119	1	18
370.290	1	8
370.461	1	12
370.632	1	9
370.803	1	16
370.973	1	-6
371.144	1	0
371.315	1	-4
371.486	1	7
371.657	1	9
371.828	1	16
371.999	1	7
372.170	1	11
372.341	1	10
372.512	1	5
372.682	1	9
372.853	1	7
373.024	1	13
373.195	1	13
373.366	1	6
373.537	1	16
373.708	1	9
373.879	1	7
374.050	1	1
374.220	1	2
374.391	1	-1
374.562	1	1
374.733	1	2
374.904	1	15
375.075	1	6
375.246	1	-2
375.417	1	7
375.588	1	10
375.758	1	0
375.929	1	3
376.100	1	-1
376.271	1	3
376.442	1	-1
376.613	1	-1
376.784	1	16
376.955	1	-4
377.125	1	4
377.296	1	2
377.467	1	6
377.638	1	12
377.809	1	4
377.980	1	9
378.151	1	18
378.321	1	12
378.492	1	10
378.663	1	1
378.834	1	19
379.005	1	0
379.176	1	2
379.347	1	7
379.518	1	6
379.688	1	2
379.859	1	0
380.030	1	7
380.201	1	13
380.372	1	17
380.543	1	12
380.714	1	2
380.884	1	6
381.055	1	-2
381.226	1	0
381.397	1	3
381.568	1	6
381.739	1	4
381.910	1	0
382.080	1	-1
382.251	1	5
382.422	1	2
382.593	1	11
382.764	1	2
382.935	1	5
383.105	1	-2
383.276	1	4
383.447	1	13
383.618	1	10
383.789	1	-4
383.960	1	-5
384.130	1	-2
384.301	1	8
384.472	1	8
384.643	1	1
384.814	1	5
384.985	1	6
385.156	1	14
385.326	1	9
385.497	1	4
385.668	1	9
385.839	1	20
386.010	1	14
386.180	1	4
386.351	1	6
386.522	1	7
386.693	1	11
386.864	1	11
387.035	1	12
387.205	1	10
387.376	1	12
387.547	1	8
387.718	1	10
387.889	1	10
388.060	1	9
388.230	1	22
388.401	1	14
388.572	1	6
388.743	1	1
388.914	1	1
389.084	1	14
389.255	1	11
389.426	1	4
389.597	1	13
389.768	1	13
389.939	1	4
390.109	1	8
390.280	1	-2
390.451	1	4
390.622	1	3
390.793	1	16
390.963	1	10
391.134	1	3
391.305	1	2
391.476	1	9
391.647	1	4
391.817	1	-2
391.988	1	-2
392.159	1	9
392.330	1	-3
392.501	1	8
392.671	1	6
392.842	1	6
393.013	1	13
393.184	1	10
393.355	1	9
393.525	1	14
393.696	1	5
393.867	1	5
394.038	1	2
394.208	1	15
394.379	1	4
394.550	1	6
394.721	1	8
394.892	1	4
395.062	1	18
395.233	1	1
395.404	1	17
395.575	1	-2
395.746	1	12
395.916	1	4
396.087	1	8
396.258	1	10
396.429	1	4
396.599	1	14
396.770	1	13
396.941	1	12
397.112	1	4
397.283	1	8
397.453	1	19
397.624	1	1
397.795	1	6
397.966	1	18
398.136	1	8
398.307	1	7
398.478	1	1
398.649	1	5
398.819	1	9
398.990	1	-3
399.161	1	11
399.332	1	10
399.503	1	9
399.673	1	-6
399.844	1	4
400.015	1	13
400.186	1	7
400.356	1	4
400.527	1	17
400.698	1	12
400.869	1	3
401.039	1	-1
401.210	1	0
401.381	1	-4
401.552	1	10
401.722	1	15
401.893	1	12
402.064	1	3
402.235	1	-4
402.405	1	11
402.576	1	-8
402.747	1	6
402.918	1	0
403.088	1	9
403.259	1	-1
403.430	1	7
403.601	1	8
403.771	1	7
403.942	1	9
404.113	1	14
404.284	1	-2
404.454	1	4
404.625	1	1
404.796	1	2
404.967	1	4
405.137	1	2
405.308	1	11
405.479	1	4
405.649	1	12
405.820	1	0
405.991	1	1
406.162	1	8
406.332	1	-4
406.503	1	-6
406.674	1	4
406.845	1	1
407.015	1	6
407.186	1	-2
407.357	1	4
407.527	1	6
407.698	1	6
407.869	1	2
408.040	1	4
408.210	1	1
408.381	1	-2
408.552	1	1
408.722	1	-2
408.893	1	-2
409.064	1	2
409.235	1	0
409.405	1	20
409.576	1	5
409.747	1	15
409.917	1	3
410.088	1	0
410.259	1	-1
410.430	1	-1
410.600	1	-4
410.771	1	2
410.942	1	6
411.112	1	-2
411.283	1	5
411.454	1	-1
411.625	1	3
411.795	1	6
411.966	1	20
412.137	1	16
412.307	1	5
412.478	1	5
412.649	1	3
412.819	1	9
412.990	1	-8
413.161	1	2
413.332	1	-2
413.502	1	-5
413.673	1	22
413.844	1	11
414.014	1	-2
414.185	1	3
414.356	1	-3
414.526	1	-1
414.697	1	9
414.868	1	0
415.038	1	5
415.209	1	-1
415.380	1	12
415.550	1	13
415.721	1	-4
415.892	1	-2
416.063	1	3
416.233	1	9
416.404	1	0
416.575	1	5
416.745	1	-5
416.916	1	2
417.087	1	10
417.257	1	9
417.428	1	-2
417.599	1	16
417.769	1	-4
417.940	1	-1
418.111	1	-3
418.281	1	-1
418.452	1	1
418.623	1	-5
418.793	1	9
418.964	1	3
419.135	1	0
419.305	1	-1
419.476	1	10
419.647	1	4
419.817	1	2
419.988	1	-5
420.159	1	1
420.329	1	1
420.500	1	9
420.671	1	-2
420.841	1	-6
421.012	1	-5
421.183	1	11
421.353	1	4
421.524	1	10
421.695	1	5
421.865	1	11
422.036	1	-1
422.206	1	-2
422.377	1	4
422.548	1	15
422.718	1	-3
422.889	1	-5
423.060	1	1
423.230	1	4
423.401	1	3
423.572	1	17
423.742	1	4
423.913	1	-4
424.084	1	3
424.254	1	-2
424.425	1	-1
424.595	1	-4
424.766	1	1
424.937	1	8
425.107	1	1
425.278	1	-7
425.449	1	-1
425.619	1	8
425.790	1	5
425.961	1	-4
426.131	1	1
426.302	1	14
426.472	1	-4
426.643	1	-3
426.814	1	-6
426.984	1	2
427.155	1	-13
427.326	1	3
427.496	1	-3
427.667	1	12
427.837	1	2
428.008	1	3
428.179	1	-4
428.349	1	-8
428.520	1	10
428.691	1	0
428.861	1	8
429.032	1	0
429.202	1	8
429.373	1	3
429.544	1	0
429.714	1	-1
429.885	1	-9
430.055	1	3
430.226	1	12
430.397	1	6
430.567	1	4
430.738	1	-5
430.909	1	1
431.079	1	0
431.250	1	-12
431.420	1	-4
431.591	1	0
431.762	1	-1
431.932	1	-3
432.103	1	-6
432.273	1	10
432.444	1	-10
432.615	1	-10
432.785	1	-2
432.956	1	10
433.126	1	3
433.297	1	5
433.468	1	2
433.638	1	4
433.809	1	0
433.979	1	-3
434.150	1	7
434.320	1	7
434.491	1	12
434.662	1	3
434.832	1	-1
435.003	1	8
435.173	1	5
435.344	1	-3
435.515	1	-1
435.685	1	3
435.856	1	0
436.026	1	-1
436.197	1	-7
436.368	1	-5
436.538	1	2
436.709	1	-6
436.879	1	2
437.050	1	9
437.220	1	0
437.391	1	8
437.562	1	-3
437.732	1	5
437.903	1	-7
438.073	1	7
438.244	1	-7
438.414	1	1
438.585	1	-4
438.756	1	7
438.926	1	3
439.097	1	7
439.267	1	-7
439.438	1	5
439.608	1	0
439.779	1	-8
439.949	1	1
440.120	1	4
440.291	1	2
440.461	1	3
440.632	1	12
440.802	1	1
440.973	1	2
441.143	1	-12
441.314	1	-4
441.485	1	-3
441.655	1	-4
441.826	1	-12
441.996	1	1
442.167	1	3
442.337	1	8
442.508	1	0
442.678	1	-5
442.849	1	-5
443.019	1	7
443.190	1	3
443.361	1	1
443.531	1	4
443.702	1	-6
443.872	1	0
444.043	1	8
444.213	1	10
444.384	1	12
444.554	1	-6
444.725	1	4
444.895	1	-5
445.066	1	-1
445.237	1	4
445.407	1	-6
445.578	1	12
445.748	1	-7
445.919	1	1
446.089	1	-1
446.260	1	-1
446.430	1	-9
446.601	1	10
446.771	1	-6
446.942	1	0
447.112	1	7
447.283	1	-7
447.453	1	5
447.624	1	2
447.794	1	6
447.965	1	3
448.135	1	-1
448.306	1	-3
448.477	1	10
448.647	1	1
448.818	1	2
448.988	1	-7
449.159	1	5
449.329	1	10
449.500	1	1
449.670	1	3
449.841	1	-1
450.011	1	6
450.182	1	-6
450.352	1	4
450.523	1	-2
450.693	1	4
450.864	1	2
451.034	1	13
451.205	1	5
451.375	1	2
451.546	1	-6
451.716	1	4
451.887	1	-9
452.057	1	12
452.228	1	7
452.398	1	11
452.569	1	-8
452.739	1	-2
452.910	1	-3
453.080	1	7
453.251	1	1
453.421	1	-9
453.592	1	3
453.762	1	7
453.933	1	5
454.103	1	-3
454.274	1	1
454.444	1	-3
454.615	1	11
454.785	1	0
454.956	1	3
455.126	1	7
455.297	1	-4
455.467	1	-10
455.638	1	4
455.808	1	0
455.979	1	-1
456.149	1	10
456.320	1	10
456.490	1	-4
456.661	1	-6
456.831	1	4
457.001	1	1
457.172	1	4
457.342	1	-3
457.513	1	11
457.683	1	0
457.854	1	4
458.024	1	-10
458.195	1	-3
458.365	1	11
458.536	1	-6
458.706	1	6
458.877	1	1
459.047	1	17
459.218	1	-3
459.388	1	15
459.559	1	-1
459.729	1	-7
459.899	1	-5
460.070	1	-10
460.240	1	-2
460.411	1	6
460.581	1	3
460.752	1	5
460.922	1	15
461.093	1	-3
461.263	1	-3
461.434	1	6
461.604	1	0
461.775	1	4
461.945	1	0
462.115	1	-1
462.286	1	2
462.456	1	7
462.627	1	8
462.797	1	-9
462.968	1	-1
463.138	1	7
463.309	1	-1
463.479	1	-9
463.649	1	5
463.820	1	1
463.990	1	10
464.161	1	1
464.331	1	12
464.502	1	3
464.672	1	-17
464.843	1	-5
465.013	1	2
465.183	1	-5
465.354	1	3
465.524	1	-2
465.695	1	0
465.865	1	8
466.036	1	7
466.206	1	7
466.376	1	-2
466.547	1	-1
466.717	1	-3
466.888	1	-3
467.058	1	0
467.229	1	11
467.399	1	4
467.569	1	4
467.740	1	-1
467.910	1	0
468.081	1	4
468.251	1	7
468.422	1	-3
468.592	1	1
468.762	1	-14
468.933	1	0
469.103	1	-3
469.274	1	1
469.444	1	-1
469.614	1	5
469.785	1	7
469.955	1	6
470.126	1	-2
470.296	1	3
470.467	1	-13
470.637	1	-2
470.807	1	11
470.978	1	5
471.148	1	-3
471.319	1	1
471.489	1	2
471.659	1	1
471.830	1	9
472.000	1	-6
472.171	1	2
472.341	1	-17
472.511	1	12
472.682	1	-1
472.852	1	-3
473.023	1	-4
473.193	1	3
473.363	1	-5
473.534	1	2
473.704	1	8
473.875	1	0
474.045	1	-6
474.215	1	11
474.386	1	0
474.556	1	10
474.727	1	0
474.897	1	1
475.067	1	-11
475.238	1	-7
475.408	1	-6
475.578	1	7
475.749	1	-1
475.919	1	8
476.090	1	6
476.260	1	1
476.430	1	7
476.601	1	6
476.771	1	-4
476.942	1	7
477.112	1	4
477.282	1	2
477.453	1	0
477.623	1	1
477.793	1	3
477.964	1	0
478.134	1	0
478.305	1	3
478.475	1	-3
478.645	1	2
478.816	1	2
478.986	1	-2
479.156	1	-7
479.327	1	-7
479.497	1	5
479.667	1	10
479.838	1	-8
480.008	1	-5
480.179	1	-11
480.349	1	1
480.519	1	4
480.690	1	-5
480.860	1	15
481.030	1	5
481.201	1	-3
481.371	1	-2
481.541	1	5
481.712	1	5
481.882	1	-5
482.053	1	0
482.223	1	-1
482.393	1	6
482.564	1	8
482.734	1	5
482.904	1	-8
483.075	1	1
483.245	1	2
483.415	1	6
483.586	1	-2
483.756	1	3
483.926	1	-2
484.097	1	7
484.267	1	-1
484.437	1	5
484.608	1	6
484.778	1	-5
484.948	1	-4
485.119	1	-13
485.289	1	10
485.459	1	0
485.630	1	4
485.800	1	8
485.970	1	5
486.141	1	-2
486.311	1	1
486.481	1	-4
486.652	1	0
486.822	1	-10
486.992	1	3
487.163	1	5
487.333	1	4
487.503	1	4
487.674	1	3
487.844	1	-3
488.014	1	2
488.185	1	-1
488.355	1	7
488.525	1	-2
488.696	1	4
488.866	1	2
489.036	1	-1
489.207	1	0
489.377	1	0
489.547	1	0
489.718	1	6
489.888	1	6
490.058	1	3
490.228	1	-5
490.399	1	5
490.569	1	0
490.739	1	7
490.910	1	-6
491.080	1	-1
491.250	1	4
491.421	1	8
491.591	1	-5
491.761	1	-8
491.932	1	-4
492.102	1	-10
492.272	1	7
492.442	1	7
492.613	1	5
492.783	1	0
492.953	1	11
493.124	1	4
493.294	1	3
493.464	1	1
493.635	1	-3
493.805	1	6
493.975	1	3
494.145	1	6
494.316	1	-2
494.486	1	-4
494.656	1	-11
494.827	1	9
494.997	1	2
495.167	1	10
495.337	1	-5
495.508	1	-10
495.678	1	5
495.848	1	8
496.019	1	-1
496.189	1	-5
496.359	1	2
496.529	1	0
496.700	1	-1
496.870	1	7
497.040	1	-1
497.211	1	2
497.381	1	6
497.551	1	12
497.721	1	-2
497.892	1	2
498.062	1	2
498.232	1	6
498.403	1	-1
498.573	1	5
498.743	1	9
498.913	1	2
499.084	1	-4
499.254	1	-6
499.424	1	0
499.594	1	1
499.765	1	11
499.935	1	7
500.105	1	5
500.275	1	3
500.446	1	-11
500.616	1	-5
500.786	1	7
500.956	1	3
501.127	1	5
501.297	1	-2
501.467	1	4
501.638	1	4
501.808	1	-1
501.978	1	0
502.148	1	-11
502.319	1	14
502.489	1	1
502.659	1	4
502.829	1	4
503.000	1	8
503.170	1	2
503.340	1	3
503.510	1	5
503.681	1	-1
503.851	1	9
504.021	1	9
504.191	1	-3
504.362	1	5
504.532	1	1
504.702	1	3
504.872	1	-7
505.042	1	3
505.213	1	5
505.383	1	-2
505.553	1	3
505.723	1	4
505.894	1	0
506.064	1	11
506.234	1	9
506.404	1	1
506.575	1	-5
506.745	1	13
506.915	1	-2
507.085	1	-4
507.256	1	0
507.426	1	5
507.596	1	3
507.766	1	6
507.936	1	7
508.107	1	9
508.277	1	-4
508.447	1	4
508.617	1	-1
508.788	1	6
508.958	1	8
509.128	1	10
509.298	1	-1
509.468	1	9
509.639	1	-2
509.809	1	4
509.979	1	13
510.149	1	9
510.319	1	-2
510.490	1	1
510.660	1	0
510.830	1	2
511.000	1	7
511.171	1	-1
511.341	1	7
511.511	1	7
511.681	1	5
511.851	1	5
512.022	1	0
512.192	1	3
512.362	1	-5
512.532	1	-12
512.702	1	8
512.873	1	12
513.043	1	12
513.213	1	8
513.383	1	-8
513.553	1	8
513.724	1	-2
513.894	1	-8
514.064	1	16
514.234	1	10
514.404	1	17
514.575	1	2
514.745	1	0
514.915	1	-17
515.085	1	9
515.255	1	3
515.425	1	12
515.596	1	14
515.766	1	-1
515.936	1	2
516.106	1	-1
516.276	1	2
516.447	1	11
516.617	1	4
516.787	1	1
516.957	1	9
517.127	1	12
517.297	1	2
517.468	1	9
517.638	1	-4
517.808	1	-6
517.978	1	11
518.148	1	8
518.319	1	4
518.489	1	-2
518.659	1	-2
518.829	1	-6
518.999	1	3
519.169	1	9
519.340	1	7
519.510	1	11
519.680	1	9
519.850	1	2
520.020	1	9
520.190	1	7
520.361	1	-6
520.531	1	11
520.701	1	8
520.871	1	-3
521.041	1	12
521.211	1	8
521.382	1	7
521.552	1	-11
521.722	1	10
521.892	1	3
522.062	1	-3
522.232	1	15
522.402	1	6
522.573	1	2
522.743	1	16
522.913	1	8
523.083	1	0
523.253	1	7
523.423	1	-10
523.593	1	5
523.764	1	5
523.934	1	16
524.104	1	0
524.274	1	5
524.444	1	3
524.614	1	10
524.784	1	7
524.955	1	13
525.125	1	14
525.295	1	2
525.465	1	10
525.635	1	6
525.805	1	13
525.975	1	0
526.146	1	-2
526.316	1	-1
526.486	1	7
526.656	1	-4
526.826	1	-4
526.996	1	10
527.166	1	-3
527.337	1	-2
527.507	1	14
527.677	1	14
527.847	1	8
528.017	1	1
528.187	1	11
528.357	1	18
528.527	1	5
528.698	1	1
528.868	1	9
529.038	1	4
529.208	1	-7
529.378	1	9
529.548	1	1
529.718	1	8
529.888	1	3
530.058	1	8
530.229	1	-1
530.399	1	3
530.569	1	2
530.739	1	2
530.909	1	-1
531.079	1	-13
531.249	1	7
531.419	1	9
531.589	1	-2
531.760	1	6
531.930	1	4
532.100	1	-1
532.270	1	7
532.440	1	9
532.610	1	4
532.780	1	7
532.950	1	-1
533.120	1	23
533.290	1	6
533.461	1	1
533.631	1	9
533.801	1	4
533.971	1	0
534.141	1	6
534.311	1	7
534.481	1	17
534.651	1	-7
534.821	1	5
534.991	1	8
535.162	1	-4
535.332	1	5
535.502	1	3
535.672	1	0
535.842	1	6
536.012	1	-3
536.182	1	11
536.352	1	1
536.522	1	-3
536.692	1	5
536.862	1	4
537.032	1	-3
537.203	1	23
537.373	1	17
537.543	1	-5
537.713	1	0
537.883	1	-1
538.053	1	2
538.223	1	7
538.393	1	7
538.563	1	11
538.733	1	10
538.903	1	3
539.073	1	12
539.243	1	12
539.413	1	5
539.584	1	11
539.754	1	9
539.924	1	21
540.094	1	7
540.264	1	-7
540.434	1	10
540.604	1	10
540.774	1	1
540.944	1	3
541.114	1	1
541.284	1	-3
541.454	1	3
541.624	1	7
541.794	1	1
541.964	1	-4
542.134	1	15
542.305	1	11
542.475	1	2
542.645	1	5
542.815	1	-7
542.985	1	2
543.155	1	-3
543.325	1	1
543.495	1	11
543.665	1	3
543.835	1	-7
544.005	1	2
544.175	1	10
544.345	1	-7
544.515	1	-3
544.685	1	18
544.855	1	7
545.025	1	6
545.195	1	7
545.365	1	8
545.535	1	0
545.705	1	10
545.875	1	0
546.045	1	7
546.216	1	-7
546.386	1	6
546.556	1	8
546.726	1	10
546.896	1	-3
547.066	1	4
547.236	1	7
547.406	1	-9
547.576	1	1
547.746	1	18
547.916	1	6
548.086	1	1
548.256	1	-1
548.426	1	8
548.596	1	8
548.766	1	13
548.936	1	11
549.106	1	10
549.276	1	9
549.446	1	5
549.616	1	1
549.786	1	-4
549.956	1	2
550.126	1	4
550.296	1	3
550.466	1	7
550.636	1	13
550.806	1	8
550.976	1	3
551.146	1	4
551.316	1	0
551.486	1	-4
551.656	1	14
551.826	1	15
551.996	1	-3
552.166	1	9
552.336	1	4
552.506	1	11
552.676	1	13
552.846	1	4
553.016	1	16
553.186	1	13
553.356	1	-3
553.526	1	-1
553.696	1	19
553.866	1	11
554.036	1	1
554.206	1	7
554.376	1	-6
554.546	1	0
554.716	1	3
554.886	1	8
555.056	1	2
555.226	1	5
555.396	1	-3
555.566	1	3
555.736	1	11
555.906	1	2
556.076	1	12
556.246	1	-6
556.416	1	-6
556.586	1	-4
556.756	1	4
556.926	1	-6
557.096	1	4
557.266	1	6
557.436	1	10
557.606	1	3
557.776	1	10
557.946	1	8
558.116	1	5
558.286	1	4
558.456	1	3
558.626	1	-7
558.796	1	5
558.966	1	7
559.136	1	-1
559.306	1	6
559.476	1	7
559.646	1	5
559.816	1	2
559.986	1	-1
560.155	1	9
560.325	1	8
560.495	1	-2
560.665	1	-8
560.835	1	0
561.005	1	10
561.175	1	-1
561.345	1	9
561.515	1	2
561.685	1	-4
561.855	1	4
562.025	1	3
562.195	1	8
562.365	1	8
562.535	1	6
562.705	1	0
562.875	1	0
563.045	1	-1
563.215	1	8
563.385	1	-3
563.555	1	6
563.725	1	1
563.895	1	-3
564.064	1	-1
564.234	1	3
564.404	1	0
564.574	1	8
564.744	1	8
564.914	1	10
565.084	1	-5
565.254	1	12
565.424	1	8
565.594	1	-4
565.764	1	-5
565.934	1	3
566.104	1	7
566.274	1	7
566.444	1	-5
566.614	1	10
566.783	1	13
566.953	1	1
567.123	1	5
567.293	1	-2
567.463	1	-4
567.633	1	4
567.803	1	12
567.973	1	12
568.143	1	-4
568.313	1	4
568.483	1	17
568.653	1	-1
568.823	1	-8
568.993	1	4
569.162	1	-6
569.332	1	2
569.502	1	7
569.672	1	8
569.842	1	-3
570.012	1	2
570.182	1	8
570.352	1	5
570.522	1	1
570.692	1	9
570.862	1	3
571.031	1	-10
571.201	1	1
571.371	1	5
571.541	1	5
571.711	1	-1
571.881	1	9
572.051	1	-2
572.221	1	-5
572.391	1	11
572.561	1	10
572.731	1	0
572.900	1	-8
573.070	1	5
573.240	1	-4
573.410	1	3
573.580	1	0
573.750	1	5
573.920	1	8
574.090	1	-4
574.260	1	6
574.430	1	6
574.599	1	7
574.769	1	1
574.939	1	6
575.109	1	7
575.279	1	5
575.449	1	15
575.619	1	2
575.789	1	0
575.959	1	5
576.128	1	-2
576.298	1	-1
576.468	1	6
576.638	1	-2
576.808	1	0
576.978	1	-5
577.148	1	4
577.318	1	15
577.487	1	4
577.657	1	4
577.827	1	-7
577.997	1	7
578.167	1	9
578.337	1	0
578.507	1	-1
578.677	1	2
578.846	1	2
579.016	1	0
579.186	1	3
579.356	1	11
579.526	1	1
579.696	1	14
579.866	1	2
580.036	1	4
580.205	1	-3
580.375	1	9
580.545	1	4
580.715	1	-4
580.885	1	1
581.055	1	-8
581.225	1	3
581.394	1	-12
581.564	1	2
581.734	1	-4
581.904	1	5
582.074	1	4
582.244	1	4
582.414	1	9
582.583	1	-1
582.753	1	7
582.923	1	0
583.093	1	-1
583.263	1	6
583.433	1	3
583.603	1	-3
583.772	1	-12
583.942	1	1
584.112	1	0
584.282	1	-3
584.452	1	-1
584.622	1	-2
584.791	1	7
584.961	1	-8
585.131	1	2
585.301	1	2
585.471	1	3
585.641	1	0
585.811	1	-2
585.980	1	3
586.150	1	-6
586.320	1	4
586.490	1	5
586.660	1	8
586.830	1	-7
586.999	1	-1
587.169	1	14
587.339	1	-1
587.509	1	-4
587.679	1	7
587.849	1	12
588.018	1	-7
588.188	1	11
588.358	1	0
588.528	1	-1
588.698	1	-6
588.867	1	-8
589.037	1	0
589.207	1	6
589.377	1	7
589.547	1	-2
589.717	1	-9
589.886	1	3
590.056	1	3
590.226	1	-6
590.396	1	0
590.566	1	-3
590.735	1	-10
590.905	1	3
591.075	1	0
591.245	1	4
591.415	1	11
591.585	1	-3
591.754	1	7
591.924	1	11
592.094	1	-3
592.264	1	-10
592.434	1	1
592.603	1	-7
592.773	1	1
592.943	1	8
593.113	1	-3
593.283	1	2
593.452	1	-7
593.622	1	1
593.792	1	7
593.962	1	3
594.132	1	6
594.301	1	7
594.471	1	-9
594.641	1	-7
594.811	1	-6
594.981	1	5
595.150	1	4
595.320	1	-8
595.490	1	8
595.660	1	8
595.829	1	-10
595.999	1	-4
596.169	1	11
596.339	1	5
596.509	1	-4
596.678	1	3
596.848	1	13
597.018	1	5
597.188	1	-7
597.358	1	2
597.527	1	4
597.697	1	-1
597.867	1	-2
598.037	1	3
598.206	1	14
598.376	1	1
598.546	1	5
598.716	1	-14
598.885	1	-8
599.055	1	3
599.225	1	-7
599.395	1	9
599.565	1	-2
599.734	1	5
599.904	1	-7
600.074	1	10
600.244	1	-1
600.413	1	0
600.583	1	-2
600.753	1	10
600.923	1	0
601.092	1	8
601.262	1	-4
601.432	1	1
601.602	1	15
601.771	1	4
601.941	1	12
602.111	1	-1
602.281	1	0
602.451	1	-7
602.620	1	8
602.790	1	-5
602.960	1	-13
603.130	1	-4
603.299	1	-1
603.469	1	7
603.639	1	-18
603.809	1	11
603.978	1	-4
604.148	1	5
604.318	1	7
604.487	1	7
604.657	1	-7
604.827	1	3
604.997	1	9
605.166	1	0
605.336	1	-5
605.506	1	-8
605.676	1	13
605.845	1	0
606.015	1	-6
606.185	1	-7
606.355	1	0
606.524	1	3
606.694	1	2
606.864	1	1
607.034	1	3
607.203	1	8
607.373	1	-8
607.543	1	-4
607.712	1	1
607.882	1	5
608.052	1	5
608.222	1	6
608.391	1	10
608.561	1	-1
608.731	1	-1
608.901	1	0
609.070	1	-2
609.240	1	-10
609.410	1	-2
609.579	1	0
609.749	1	4
609.919	1	0
610.089	1	1
610.258	1	4
610.428	1	3
610.598	1	3
610.767	1	1
610.937	1	0
611.107	1	0
611.277	1	1
611.446	1	0
611.616	1	8
611.786	1	-5
611.955	1	-2
612.125	1	2
612.295	1	-2
612.465	1	0
612.634	1	-1
612.804	1	-1
612.974	1	-2
613.143	1	5
613.313	1	0
613.483	1	12
613.652	1	-2
613.822	1	4
613.992	1	3
614.162	1	3
614.331	1	3
614.501	1	2
614.671	1	2
614.840	1	5
615.010	1	-3
615.180	1	8
615.349	1	20
615.519	1	-6
615.689	1	-2
615.858	1	11
616.028	1	5
616.198	1	4
616.368	1	0
616.537	1	2
616.707	1	-8
616.877	1	12
617.046	1	8
617.216	1	1
617.386	1	1
617.555	1	-6
617.725	1	-2
617.895	1	2
618.064	1	-6
618.234	1	-11
618.404	1	-6
618.573	1	9
618.743	1	13
618.913	1	0
619.082	1	-4
619.252	1	-6
619.422	1	-4
619.591	1	-11
619.761	1	-2
619.931	1	0
620.100	1	12
620.270	1	5
620.440	1	5
620.609	1	10
620.779	1	12
620.949	1	2
621.118	1	6
621.288	1	2
621.458	1	3
621.627	1	-5
621.797	1	-10
621.967	1	2
622.136	1	1
622.306	1	9
622.476	1	-1
622.645	1	0
622.815	1	3
622.985	1	2
623.154	1	-5
623.324	1	-3
623.494	1	-10
623.663	1	-4
623.833	1	1
624.002	1	-1
624.172	1	7
624.342	1	2
624.511	1	5
624.681	1	-3
624.851	1	-3
625.020	1	2
625.190	1	-1
625.360	1	1
625.529	1	2
625.699	1	4
625.869	1	10
626.038	1	-8
626.208	1	13
626.377	1	7
626.547	1	0
626.717	1	-7
626.886	1	-5
627.056	1	-2
627.226	1	12
627.395	1	6
627.565	1	4
627.735	1	5
627.904	1	7
628.074	1	6
628.243	1	-2
628.413	1	-6
628.583	1	1
628.752	1	-9
628.922	1	8
629.091	1	4
629.261	1	6
629.431	1	0
629.600	1	-2
629.770	1	10
629.940	1	-3
630.109	1	5
630.279	1	14
630.448	1	-5
630.618	1	7
630.788	1	-1
630.957	1	-1
631.127	1	-3
631.297	1	-8
631.466	1	4
631.636	1	5
631.805	1	0
631.975	1	-6
632.145	1	-1
632.314	1	1
632.484	1	10
632.653	1	-9
632.823	1	-3
632.993	1	-2
633.162	1	5
633.332	1	-14
633.501	1	-4
633.671	1	-7
633.841	1	7
634.010	1	6
634.180	1	12
634.349	1	3
634.519	1	2
634.689	1	3
634.858	1	-9
635.028	1	-3
635.197	1	-7
635.367	1	0
635.537	1	-4
635.706	1	-8
635.876	1	3
636.045	1	2
636.215	1	13
636.384	1	4
636.554	1	-3
636.724	1	-5
636.893	1	12
637.063	1	-4
637.232	1	4
637.402	1	-3
637.572	1	5
637.741	1	-1
637.911	1	-1
638.080	1	3
638.250	1	-2
638.419	1	-11
638.589	1	9
638.759	1	-3
638.928	1	3
639.098	1	-3
639.267	1	3
639.437	1	2
639.606	1	3
639.776	1	6
639.946	1	4
640.115	1	0
640.285	1	6
640.454	1	1
640.624	1	5
640.793	1	-3
640.963	1	-4
641.132	1	2
641.302	1	-1
641.472	1	6
641.641	1	3
641.811	1	-9
641.980	1	3
642.150	1	-8
642.319	1	4
642.489	1	3
642.659	1	4
642.828	1	3
642.998	1	0
643.167	1	-5
643.337	1	-3
643.506	1	1
643.676	1	1
643.845	1	7
644.015	1	3
644.184	1	-1
644.354	1	5
644.524	1	-2
644.693	1	5
644.863	1	17
645.032	1	-4
645.202	1	8
645.371	1	-4
645.541	1	-2
645.710	1	0
645.880	1	-9
646.049	1	-4
646.219	1	-2
646.388	1	3
646.558	1	0
646.728	1	4
646.897	1	0
647.067	1	-3
647.236	1	10
647.406	1	5
647.575	1	5
647.745	1	4
647.914	1	-3
648.084	1	-2
648.253	1	1
648.423	1	-1
648.592	1	-8
648.762	1	5
648.931	1	14
649.101	1	-3
649.270	1	-4
649.440	1	2
649.610	1	5
649.779	1	11
649.949	1	3
650.118	1	7
650.288	1	5
650.457	1	8
650.627	1	5
650.796	1	1
650.966	1	-14
651.135	1	1
651.305	1	-13
651.474	1	9
651.644	1	6
651.813	1	4
651.983	1	3
652.152	1	5
652.322	1	-6
652.491	1	1
652.661	1	4
652.830	1	10
653.000	1	6
653.169	1	-8
653.339	1	10
653.508	1	-5
653.678	1	3
653.847	1	-6
654.017	1	6
654.186	1	-1
654.356	1	-1
654.525	1	-5
654.695	1	2
654.864	1	-2
655.034	1	1
655.203	1	8
655.373	1	12
655.542	1	-2
655.712	1	0
655.881	1	6
656.051	1	5
656.220	1	-1
656.390	1	-2
656.559	1	-3
656.729	1	1
656.898	1	2
657.068	1	1
657.237	1	9
657.406	1	0
657.576	1	-2
657.745	1	3
657.915	1	-7
658.084	1	2
658.254	1	2
658.423	1	-1
658.593	1	7
658.762	1	4
658.932	1	2
659.101	1	-3
659.271	1	3
659.440	1	1
659.610	1	-9
659.779	1	5
659.949	1	-8
660.118	1	13
660.288	1	-7
660.457	1	6
660.626	1	0
660.796	1	2
660.965	1	5
661.135	1	-11
661.304	1	-8
661.474	1	-2
661.643	1	0
661.813	1	8
661.982	1	0
662.152	1	-2
662.321	1	2
662.491	1	1
662.660	1	2
662.829	1	5
662.999	1	-7
663.168	1	3
663.338	1	10
663.507	1	-3
663.677	1	0
663.846	1	-6
664.016	1	-3
664.185	1	-6
664.354	1	4
664.524	1	-1
664.693	1	-2
664.863	1	-3
665.032	1	0
665.202	1	-8
665.371	1	-3
665.541	1	15
665.710	1	-2
665.879	1	0
666.049	1	-5
666.218	1	-9
666.388	1	0
666.557	1	6
666.727	1	4
666.896	1	2
667.065	1	-2
667.235	1	9
667.404	1	-9
667.574	1	-6
667.743	1	-6
667.913	1	13
668.082	1	-5
668.251	1	12
668.421	1	1
668.590	1	5
668.760	1	-2
668.929	1	11
669.099	1	-5
669.268	1	-4
669.437	1	2
669.607	1	12
669.776	1	1
669.946	1	-3
670.115	1	-22
670.285	1	1
670.454	1	1
670.623	1	3
670.793	1	4
670.962	1	-1
671.132	1	-8
671.301	1	4
671.470	1	-4
671.640	1	1
671.809	1	-1
671.979	1	9
672.148	1	3
672.317	1	-2
672.487	1	-1
672.656	1	-5
672.826	1	3
672.995	1	1
673.164	1	-20
673.334	1	-5
673.503	1	8
673.673	1	2
673.842	1	4
674.011	1	4
674.181	1	7
674.350	1	1
674.520	1	1
674.689	1	-4
674.858	1	-5
675.028	1	5
675.197	1	1
675.367	1	-1
675.536	1	5
675.705	1	8
675.875	1	-9
676.044	1	-4
676.214	1	-8
676.383	1	3
676.552	1	3
676.722	1	4
676.891	1	-3
677.060	1	-4
677.230	1	11
677.399	1	-4
677.569	1	8
677.738	1	5
677.907	1	-2
678.077	1	-1
678.246	1	-1
678.416	1	1
678.585	1	-4
678.754	1	0
678.924	1	5
679.093	1	-2
679.262	1	6
679.432	1	-2
679.601	1	-5
679.771	1	3
679.940	1	5
680.109	1	-13
680.279	1	4
680.448	1	8
680.617	1	1
680.787	1	-5
680.956	1	5
681.125	1	5
681.295	1	-3
681.464	1	0
681.634	1	12
681.803	1	2
681.972	1	-6
682.142	1	-5
682.311	1	1
682.480	1	6
682.650	1	8
682.819	1	3
682.988	1	-7
683.158	1	-14
683.327	1	8
683.496	1	1
683.666	1	1
683.835	1	-7
684.004	1	6
684.174	1	4
684.343	1	-3
684.512	1	-5
684.682	1	-6
684.851	1	9
685.021	1	-9
685.190	1	-2
685.359	1	-8
685.529	1	11
685.698	1	5
685.867	1	4
686.037	1	3
686.206	1	0
686.375	1	0
686.545	1	11
686.714	1	-4
686.883	1	7
687.053	1	-1
687.222	1	1
687.391	1	3
687.561	1	14
687.730	1	-11
687.899	1	2
688.069	1	10
688.238	1	-4
688.407	1	-2
688.577	1	-4
688.746	1	0
