340.368	1	-1
340.539	1	5
340.710	1	3
340.881	1	1
341.052	1	-8
341.223	1	14
341.394	1	-9
341.565	1	2
341.737	1	-2
341.908	1	-12
342.079	1	-8
342.250	1	-3
342.421	1	-4
342.592	1	1
342.763	1	4
342.934	1	5
343.105	1	4
343.276	1	4
343.447	1	-7
343.618	1	-4
343.789	1	-5
343.960	1	-2
344.131	1	-1
344.302	1	-15
344.473	1	-9
344.644	1	6
344.815	1	3
344.986	1	-1
345.157	1	6
345.328	1	-4
345.499	1	1
345.670	1	1
345.841	1	-5
346.012	1	3
346.183	1	19
346.354	1	7
346.526	1	-4
346.697	1	1
346.868	1	-12
347.039	1	1
347.210	1	-10
347.381	1	5
347.552	1	-3
347.723	1	-1
347.894	1	-1
348.065	1	1
348.236	1	0
348.407	1	-2
348.578	1	-5
348.749	1	-8
348.920	1	1
349.091	1	9
349.262	1	-5
349.433	1	0
349.604	1	5
349.775	1	5
349.946	1	-13
350.117	1	-8
350.288	1	4
350.459	1	-6
350.630	1	2
350.801	1	4
350.972	1	1
351.143	1	2
351.314	1	-2
351.485	1	9
351.656	1	1
351.827	1	1
351.998	1	-3
352.169	1	2
352.340	1	6
352.511	1	-5
352.682	1	1
352.853	1	2
353.024	1	-3
353.195	1	-2
353.366	1	1
353.537	1	0
353.708	1	5
353.879	1	-3
354.050	1	5
354.221	1	-6
354.392	1	1
354.563	1	6
354.734	1	9
354.905	1	5
355.076	1	1
355.247	1	-1
355.418	1	1
355.589	1	-7
355.760	1	7
355.931	1	3
356.102	1	-2
356.273	1	-1
356.444	1	-2
356.615	1	-2
356.785	1	5
356.956	1	-2
357.127	1	1
357.298	1	-1
357.469	1	-4
357.640	1	5
357.811	1	2
357.982	1	12
358.153	1	18
358.324	1	8
358.495	1	-6
358.666	1	-2
358.837	1	2
359.008	1	2
359.179	1	2
359.350	1	-1
359.521	1	9
359.692	1	-6
359.863	1	7
360.034	1	8
360.205	1	-1
360.376	1	9
360.547	1	0
360.718	1	16
360.889	1	-4
361.060	1	11
361.231	1	2
361.401	1	-2
361.572	1	11
361.743	1	-2
361.914	1	9
362.085	1	6
362.256	1	9
362.427	1	-1
362.598	1	3
362.769	1	9
362.940	1	2
363.111	1	5
363.282	1	8
363.453	1	6
363.624	1	5
363.795	1	2
363.966	1	11
364.137	1	11
364.308	1	5
364.478	1	8
364.649	1	8
364.820	1	5
364.991	1	8
365.162	1	0
365.333	1	-4
365.504	1	3
365.675	1	18
365.846	1	8
366.017	1	11
366.188	1	23
366.359	1	-2
366.530	1	6
366.701	1	26
366.871	1	10
367.042	1	19
367.213	1	7
367.384	1	2
367.555	1	11
367.726	1	10
367.897	1	16
368.068	1	9
368.239	1	0
368.410	1	13
368.581	1	6
368.752	1	14
368.923	1	14
369.093	1	14
369.264	1	13
369.435	1	8
369.606	1	6
369.777	1	15
369.948	1	10
370.119	1	-2
370.290	1	4
370.461	1	22
370.632	1	4
370.803	1	17
370.973	1	0
371.144	1	8
371.315	1	-1
371.486	1	6
371.657	1	1
371.828	1	11
371.999	1	-13
372.170	1	15
372.341	1	3
372.512	1	12
372.682	1	-3
372.853	1	7
373.024	1	10
373.195	1	-4
373.366	1	-1
373.537	1	17
373.708	1	-3
373.879	1	3
374.050	1	6
374.220	1	-3
374.391	1	8
374.562	1	-3
374.733	1	2
374.904	1	8
375.075	1	-5
375.246	1	-7
375.417	1	4
375.588	1	4
375.758	1	-4
375.929	1	4
376.100	1	6
376.271	1	3
376.442	1	-5
376.613	1	-3
376.784	1	5
376.955	1	-7
377.125	1	8
377.296	1	4
377.467	1	0
377.638	1	7
377.809	1	9
377.980	1	2
378.151	1	3
378.321	1	5
378.492	1	9
378.663	1	4
378.834	1	18
379.005	1	-6
379.176	1	-2
379.347	1	7
379.518	1	5
379.688	1	5
379.859	1	9
380.030	1	7
380.201	1	14
380.372	1	4
380.543	1	11
380.714	1	3
380.884	1	9
381.055	1	-5
381.226	1	4
381.397	1	12
381.568	1	9
381.739	1	-2
381.910	1	-5
382.080	1	5
382.251	1	2
382.422	1	-3
382.593	1	0
382.764	1	-1
382.935	1	3
383.105	1	7
383.276	1	3
383.447	1	6
383.618	1	18
383.789	1	-3
383.960	1	-2
384.130	1	-7
384.301	1	8
384.472	1	2
384.643	1	4
384.814	1	2
384.985	1	2
385.156	1	9
385.326	1	3
385.497	1	3
385.668	1	0
385.839	1	12
386.010	1	0
386.180	1	7
386.351	1	-10
386.522	1	7
386.693	1	4
386.864	1	9
387.035	1	11
387.205	1	3
387.376	1	-1
387.547	1	10
387.718	1	-1
387.889	1	11
388.060	1	8
388.230	1	5
388.401	1	4
388.572	1	12
388.743	1	0
388.914	1	1
389.084	1	3
389.255	1	-2
389.426	1	-1
389.597	1	16
389.768	1	2
389.939	1	10
390.109	1	-6
390.280	1	0
390.451	1	13
390.622	1	5
390.793	1	2
390.963	1	6
391.134	1	0
391.305	1	3
391.476	1	2
391.647	1	4
391.817	1	3
391.988	1	2
392.159	1	13
392.330	1	-3
392.501	1	1
392.671	1	-3
392.842	1	4
393.013	1	12
393.184	1	4
393.355	1	11
393.525	1	-2
393.696	1	5
393.867	1	9
394.038	1	2
394.208	1	8
394.379	1	-1
394.550	1	3
394.721	1	-1
394.892	1	-3
395.062	1	8
395.233	1	3
395.404	1	7
395.575	1	-2
395.746	1	5
395.916	1	-4
396.087	1	3
396.258	1	12
396.429	1	-3
396.599	1	10
396.770	1	7
396.941	1	6
397.112	1	-1
397.283	1	-4
397.453	1	12
397.624	1	17
397.795	1	2
397.966	1	4
398.136	1	0
398.307	1	11
398.478	1	-6
398.649	1	-1
398.819	1	6
398.990	1	-1
399.161	1	4
399.332	1	12
399.503	1	7
399.673	1	-7
399.844	1	2
400.015	1	5
400.186	1	-5
400.356	1	18
400.527	1	13
400.698	1	3
400.869	1	-3
401.039	1	-4
401.210	1	2
401.381	1	2
401.552	1	-4
401.722	1	8
401.893	1	0
402.064	1	0
402.235	1	-7
402.405	1	4
402.576	1	-3
402.747	1	4
402.918	1	3
403.088	1	4
403.259	1	-3
403.430	1	11
403.601	1	5
403.771	1	20
403.942	1	7
404.113	1	12
404.284	1	6
404.454	1	5
404.625	1	-6
404.796	1	3
404.967	1	-7
405.137	1	-2
405.308	1	11
405.479	1	3
405.649	1	14
405.820	1	1
405.991	1	-5
406.162	1	11
406.332	1	-6
406.503	1	1
406.674	1	3
406.845	1	-5
407.015	1	10
407.186	1	0
407.357	1	7
407.527	1	5
407.698	1	10
407.869	1	1
408.040	1	10
408.210	1	6
408.381	1	-6
408.552	1	-11
408.722	1	-10
408.893	1	-6
409.064	1	1
409.235	1	-3
409.405	1	7
409.576	1	0
409.747	1	9
409.917	1	-2
410.088	1	-2
410.259	1	-3
410.430	1	-3
410.600	1	0
410.771	1	-9
410.942	1	-2
411.112	1	-7
411.283	1	2
411.454	1	4
411.625	1	-3
411.795	1	4
411.966	1	9
412.137	1	9
412.307	1	3
412.478	1	8
412.649	1	-3
412.819	1	11
412.990	1	-13
413.161	1	-8
413.332	1	5
413.502	1	2
413.673	1	15
413.844	1	13
414.014	1	-3
414.185	1	6
414.356	1	-4
414.526	1	2
414.697	1	2
414.868	1	2
415.038	1	2
415.209	1	-9
415.380	1	12
415.550	1	6
415.721	1	9
415.892	1	0
416.063	1	2
416.233	1	1
416.404	1	-7
416.575	1	6
416.745	1	-7
416.916	1	-3
417.087	1	7
417.257	1	7
417.428	1	-3
417.599	1	7
417.769	1	-3
417.940	1	3
418.111	1	0
418.281	1	-6
418.452	1	-1
418.623	1	-8
418.793	1	-4
418.964	1	9
419.135	1	15
419.305	1	0
419.476	1	5
419.647	1	9
419.817	1	2
419.988	1	-8
420.159	1	6
420.329	1	-4
420.500	1	10
420.671	1	-6
420.841	1	-2
421.012	1	3
421.183	1	6
421.353	1	6
421.524	1	10
421.695	1	5
421.865	1	11
422.036	1	1
422.206	1	-1
422.377	1	-2
422.548	1	4
422.718	1	-11
422.889	1	1
423.060	1	-1
423.230	1	-2
423.401	1	7
423.572	1	11
423.742	1	7
423.913	1	-2
424.084	1	-3
424.254	1	0
424.425	1	-3
424.595	1	-7
424.766	1	8
424.937	1	8
425.107	1	2
425.278	1	5
425.449	1	-5
425.619	1	4
425.790	1	-2
425.961	1	-4
426.131	1	-1
426.302	1	10
426.472	1	-8
426.643	1	-1
426.814	1	-13
426.984	1	3
427.155	1	-3
427.326	1	6
427.496	1	-7
427.667	1	12
427.837	1	4
428.008	1	6
428.179	1	-6
428.349	1	-8
428.520	1	-5
428.691	1	-1
428.861	1	6
429.032	1	0
429.202	1	5
429.373	1	2
429.544	1	3
429.714	1	-8
429.885	1	-3
430.055	1	5
430.226	1	2
430.397	1	3
430.567	1	3
430.738	1	-6
430.909	1	5
431.079	1	-14
431.250	1	-4
431.420	1	-6
431.591	1	-2
431.762	1	1
431.932	1	-14
432.103	1	2
432.273	1	-2
432.444	1	-5
432.615	1	-10
432.785	1	1
432.956	1	0
433.126	1	6
433.297	1	6
433.468	1	-2
433.638	1	8
433.809	1	-1
433.979	1	-1
434.150	1	18
434.320	1	7
434.491	1	9
434.662	1	7
434.832	1	2
435.003	1	1
435.173	1	2
435.344	1	4
435.515	1	4
435.685	1	12
435.856	1	2
436.026	1	0
436.197	1	-1
436.368	1	-1
436.538	1	-7
436.709	1	-12
436.879	1	-1
437.050	1	15
437.220	1	-10
437.391	1	7
437.562	1	9
437.732	1	10
437.903	1	-8
438.073	1	9
438.244	1	2
438.414	1	0
438.585	1	-1
438.756	1	5
438.926	1	0
439.097	1	12
439.267	1	3
439.438	1	-1
439.608	1	4
439.779	1	-5
439.949	1	-3
440.120	1	2
440.291	1	4
440.461	1	2
440.632	1	10
440.802	1	11
440.973	1	5
441.143	1	4
441.314	1	-7
441.485	1	2
441.655	1	-11
441.826	1	-10
441.996	1	-4
442.167	1	9
442.337	1	6
442.508	1	-4
442.678	1	4
442.849	1	-8
443.019	1	5
443.190	1	13
443.361	1	6
443.531	1	-2
443.702	1	-4
443.872	1	12
444.043	1	7
444.213	1	6
444.384	1	-5
444.554	1	-4
444.725	1	1
444.895	1	-2
445.066	1	2
445.237	1	-5
445.407	1	-3
445.578	1	3
445.748	1	-3
445.919	1	1
446.089	1	0
446.260	1	-6
446.430	1	-7
446.601	1	5
446.771	1	-12
446.942	1	-2
447.112	1	15
447.283	1	-6
447.453	1	-3
447.624	1	-4
447.794	1	6
447.965	1	2
448.135	1	-3
448.306	1	-3
448.477	1	11
448.647	1	1
448.818	1	-6
448.988	1	0
449.159	1	-2
449.329	1	2
449.500	1	4
449.670	1	-9
449.841	1	-1
450.011	1	6
450.182	1	-16
450.352	1	7
450.523	1	-7
450.693	1	6
450.864	1	1
451.034	1	15
451.205	1	-1
451.375	1	-4
451.546	1	-8
451.716	1	11
451.887	1	-5
452.057	1	12
452.228	1	3
452.398	1	3
452.569	1	-7
452.739	1	7
452.910	1	5
453.080	1	5
453.251	1	4
453.421	1	-4
453.592	1	9
453.762	1	7
453.933	1	-7
454.103	1	-4
454.274	1	3
454.444	1	4
454.615	1	10
454.785	1	8
454.956	1	1
455.126	1	-1
455.297	1	2
455.467	1	-5
455.638	1	2
455.808	1	-7
455.979	1	-4
456.149	1	2
456.320	1	5
456.490	1	1
456.661	1	-7
456.831	1	-2
457.001	1	2
457.172	1	8
457.342	1	-8
457.513	1	5
457.683	1	6
457.854	1	0
458.024	1	-7
458.195	1	-13
458.365	1	5
458.536	1	1
458.706	1	5
458.877	1	2
459.047	1	11
459.218	1	-5
459.388	1	6
459.559	1	-3
459.729	1	-4
459.899	1	-1
460.070	1	-3
460.240	1	1
460.411	1	-3
460.581	1	1
460.752	1	-2
460.922	1	19
461.093	1	-8
461.263	1	10
461.434	1	7
461.604	1	4
461.775	1	-6
461.945	1	8
462.115	1	3
462.286	1	3
462.456	1	8
462.627	1	8
462.797	1	-15
462.968	1	0
463.138	1	6
463.309	1	6
463.479	1	4
463.649	1	-9
463.820	1	1
463.990	1	0
464.161	1	0
464.331	1	8
464.502	1	7
464.672	1	-11
464.843	1	-1
465.013	1	-2
465.183	1	-4
465.354	1	6
465.524	1	-9
465.695	1	6
465.865	1	14
466.036	1	7
466.206	1	-2
466.376	1	-5
466.547	1	-14
466.717	1	4
466.888	1	-6
467.058	1	10
467.229	1	2
467.399	1	-2
467.569	1	6
467.740	1	2
467.910	1	0
468.081	1	-1
468.251	1	1
468.422	1	-1
468.592	1	-8
468.762	1	-10
468.933	1	-13
469.103	1	3
469.274	1	-3
469.444	1	15
469.614	1	7
469.785	1	5
469.955	1	2
470.126	1	-6
470.296	1	10
470.467	1	-9
470.637	1	5
470.807	1	14
470.978	1	2
471.148	1	0
471.319	1	1
471.489	1	-7
471.659	1	1
471.830	1	12
472.000	1	-5
472.171	1	2
472.341	1	-5
472.511	1	18
472.682	1	-10
472.852	1	-6
473.023	1	-3
473.193	1	-3
473.363	1	-4
473.534	1	-5
473.704	1	3
473.875	1	-8
474.045	1	-1
474.215	1	9
474.386	1	1
474.556	1	1
474.727	1	-8
474.897	1	-4
475.067	1	-7
475.238	1	-2
475.408	1	-2
475.578	1	1
475.749	1	-1
475.919	1	2
476.090	1	5
476.260	1	-1
476.430	1	4
476.601	1	0
476.771	1	-3
476.942	1	3
477.112	1	-8
477.282	1	4
477.453	1	-4
477.623	1	10
477.793	1	3
477.964	1	1
478.134	1	-1
478.305	1	-8
478.475	1	-4
478.645	1	-13
478.816	1	1
478.986	1	-7
479.156	1	-2
479.327	1	-3
479.497	1	15
479.667	1	11
479.838	1	-7
480.008	1	-10
480.179	1	-10
480.349	1	-1
480.519	1	-2
480.690	1	-2
480.860	1	7
481.030	1	5
481.201	1	0
481.371	1	1
481.541	1	4
481.712	1	-4
481.882	1	-13
482.053	1	1
482.223	1	-1
482.393	1	3
482.564	1	2
482.734	1	5
482.904	1	3
483.075	1	-2
483.245	1	3
483.415	1	1
483.586	1	5
483.756	1	7
483.926	1	5
484.097	1	-2
484.267	1	-8
484.437	1	3
484.608	1	-3
484.778	1	-2
484.948	1	-3
485.119	1	-8
485.289	1	-5
485.459	1	5
485.630	1	5
485.800	1	0
485.970	1	-2
486.141	1	-1
486.311	1	2
486.481	1	9
486.652	1	0
486.822	1	-2
486.992	1	2
487.163	1	5
487.333	1	-2
487.503	1	14
487.674	1	-2
487.844	1	-8
488.014	1	-2
488.185	1	-2
488.355	1	8
488.525	1	-9
488.696	1	-3
488.866	1	-9
489.036	1	-2
489.207	1	2
489.377	1	3
489.547	1	-3
489.718	1	2
489.888	1	3
490.058	1	7
490.228	1	-1
490.399	1	0
490.569	1	-7
490.739	1	-4
490.910	1	-2
491.080	1	-4
491.250	1	10
491.421	1	1
491.591	1	-3
491.761	1	4
491.932	1	-1
492.102	1	-4
492.272	1	6
492.442	1	-5
492.613	1	3
492.783	1	0
492.953	1	-4
493.124	1	-2
493.294	1	6
493.464	1	1
493.635	1	-14
493.805	1	1
493.975	1	-4
494.145	1	3
494.316	1	-2
494.486	1	4
494.656	1	-7
494.827	1	15
494.997	1	-1
495.167	1	8
495.337	1	-1
495.508	1	1
495.678	1	2
495.848	1	3
496.019	1	2
496.189	1	-2
496.359	1	-9
496.529	1	2
496.700	1	3
496.870	1	5
497.040	1	3
497.211	1	8
497.381	1	0
497.551	1	-8
497.721	1	3
497.892	1	8
498.062	1	-2
498.232	1	7
498.403	1	7
498.573	1	3
498.743	1	2
498.913	1	6
499.084	1	-7
499.254	1	0
499.424	1	2
499.594	1	4
499.765	1	3
499.935	1	-13
500.105	1	3
500.275	1	3
500.446	1	2
500.616	1	-1
500.786	1	3
500.956	1	8
501.127	1	-1
501.297	1	-7
501.467	1	6
501.638	1	10
501.808	1	-3
501.978	1	1
502.148	1	1
502.319	1	12
502.489	1	4
502.659	1	0
502.829	1	-3
503.000	1	-3
503.170	1	-12
503.340	1	11
503.510	1	-8
503.681	1	-1
503.851	1	3
504.021	1	7
504.191	1	14
504.362	1	1
504.532	1	8
504.702	1	6
504.872	1	-3
505.042	1	-5
505.213	1	9
505.383	1	0
505.553	1	2
505.723	1	7
505.894	1	0
506.064	1	2
506.234	1	5
506.404	1	-6
506.575	1	-11
506.745	1	12
506.915	1	-3
507.085	1	-8
507.256	1	3
507.426	1	2
507.596	1	1
507.766	1	6
507.936	1	4
508.107	1	10
508.277	1	1
508.447	1	-7
508.617	1	1
508.788	1	15
508.958	1	-2
509.128	1	-2
509.298	1	-4
509.468	1	3
509.639	1	7
509.809	1	13
509.979	1	7
510.149	1	10
510.319	1	0
510.490	1	-3
510.660	1	0
510.830	1	-6
511.000	1	-3
511.171	1	8
511.341	1	3
511.511	1	0
511.681	1	7
511.851	1	9
512.022	1	-2
512.192	1	3
512.362	1	-9
512.532	1	-5
512.702	1	6
512.873	1	12
513.043	1	10
513.213	1	14
513.383	1	-7
513.553	1	10
513.724	1	-1
513.894	1	-7
514.064	1	7
514.234	1	5
514.404	1	10
514.575	1	-2
514.745	1	-5
514.915	1	-9
515.085	1	8
515.255	1	-3
515.425	1	7
515.596	1	16
515.766	1	1
515.936	1	-6
516.106	1	4
516.276	1	2
516.447	1	9
516.617	1	1
516.787	1	1
516.957	1	6
517.127	1	2
517.297	1	9
517.468	1	-4
517.638	1	-4
517.808	1	-7
517.978	1	13
518.148	1	7
518.319	1	8
518.489	1	-3
518.659	1	2
518.829	1	0
518.999	1	2
519.169	1	4
519.340	1	5
519.510	1	10
519.680	1	7
519.850	1	11
520.020	1	7
520.190	1	-3
520.361	1	8
520.531	1	9
520.701	1	4
520.871	1	1
521.041	1	16
521.211	1	8
521.382	1	-5
521.552	1	3
521.722	1	9
521.892	1	7
522.062	1	-3
522.232	1	12
522.402	1	6
522.573	1	7
522.743	1	4
522.913	1	2
523.083	1	-2
523.253	1	6
523.423	1	0
523.593	1	3
523.764	1	1
523.934	1	5
524.104	1	-2
524.274	1	5
524.444	1	6
524.614	1	10
524.784	1	-5
524.955	1	4
525.125	1	14
525.295	1	13
525.465	1	8
525.635	1	-8
525.805	1	13
525.975	1	-7
526.146	1	-1
526.316	1	1
526.486	1	-1
526.656	1	6
526.826	1	-3
526.996	1	2
527.166	1	5
527.337	1	-4
527.507	1	3
527.677	1	15
527.847	1	9
528.017	1	0
528.187	1	7
528.357	1	15
528.527	1	14
528.698	1	-12
528.868	1	2
529.038	1	5
529.208	1	-12
529.378	1	6
529.548	1	7
529.718	1	9
529.888	1	-4
530.058	1	7
530.229	1	6
530.399	1	0
530.569	1	-11
530.739	1	0
530.909	1	6
531.079	1	-7
531.249	1	-1
531.419	1	3
531.589	1	10
531.760	1	-1
531.930	1	5
532.100	1	-8
532.270	1	6
532.440	1	2
532.610	1	8
532.780	1	10
532.950	1	6
533.120	1	22
533.290	1	3
533.461	1	-1
533.631	1	2
533.801	1	5
533.971	1	-10
534.141	1	9
534.311	1	5
534.481	1	10
534.651	1	1
534.821	1	-2
534.991	1	5
535.162	1	-12
535.332	1	4
535.502	1	-9
535.672	1	1
535.842	1	0
536.012	1	7
536.182	1	6
536.352	1	-4
536.522	1	-9
536.692	1	5
536.862	1	4
537.032	1	2
537.203	1	4
537.373	1	9
537.543	1	-4
537.713	1	2
537.883	1	1
538.053	1	4
538.223	1	14
538.393	1	-3
538.563	1	9
538.733	1	13
538.903	1	5
539.073	1	-3
539.243	1	-3
539.413	1	7
539.584	1	1
539.754	1	8
539.924	1	12
540.094	1	3
540.264	1	-8
540.434	1	6
540.604	1	2
540.774	1	6
540.944	1	-4
541.114	1	-4
541.284	1	-3
541.454	1	3
541.624	1	6
541.794	1	7
541.964	1	2
542.134	1	-1
542.305	1	12
542.475	1	6
542.645	1	8
542.815	1	-6
542.985	1	6
543.155	1	-1
543.325	1	-1
543.495	1	9
543.665	1	11
543.835	1	3
544.005	1	-1
544.175	1	3
544.345	1	-9
544.515	1	2
544.685	1	14
544.855	1	8
545.025	1	8
545.195	1	1
545.365	1	5
545.535	1	1
545.705	1	11
545.875	1	-3
546.045	1	0
546.216	1	-12
546.386	1	5
546.556	1	7
546.726	1	0
546.896	1	0
547.066	1	8
547.236	1	0
547.406	1	-1
547.576	1	-1
547.746	1	12
547.916	1	5
548.086	1	5
548.256	1	-1
548.426	1	4
548.596	1	10
548.766	1	4
548.936	1	11
549.106	1	4
549.276	1	9
549.446	1	2
549.616	1	7
549.786	1	-5
549.956	1	0
550.126	1	1
550.296	1	-3
550.466	1	7
550.636	1	7
550.806	1	14
550.976	1	-10
551.146	1	-8
551.316	1	3
551.486	1	5
551.656	1	10
551.826	1	6
551.996	1	-1
552.166	1	12
552.336	1	0
552.506	1	4
552.676	1	10
552.846	1	-7
553.016	1	14
553.186	1	4
553.356	1	-2
553.526	1	-2
553.696	1	20
553.866	1	11
554.036	1	-2
554.206	1	-1
554.376	1	-14
554.546	1	2
554.716	1	4
554.886	1	16
555.056	1	0
555.226	1	-1
555.396	1	7
555.566	1	2
555.736	1	6
555.906	1	1
556.076	1	2
556.246	1	1
556.416	1	-15
556.586	1	-8
556.756	1	-4
556.926	1	5
557.096	1	2
557.266	1	-1
557.436	1	6
557.606	1	-1
557.776	1	3
557.946	1	2
558.116	1	5
558.286	1	-2
558.456	1	1
558.626	1	-11
558.796	1	8
558.966	1	-10
559.136	1	3
559.306	1	11
559.476	1	10
559.646	1	4
559.816	1	7
559.986	1	3
560.155	1	2
560.325	1	-3
560.495	1	-1
560.665	1	-3
560.835	1	9
561.005	1	4
561.175	1	1
561.345	1	-3
561.515	1	-8
561.685	1	-3
561.855	1	5
562.025	1	1
562.195	1	7
562.365	1	6
562.535	1	6
562.705	1	6
562.875	1	-3
563.045	1	-5
563.215	1	-3
563.385	1	-5
563.555	1	-5
563.725	1	8
563.895	1	3
564.064	1	2
564.234	1	5
564.404	1	4
564.574	1	16
564.744	1	6
564.914	1	-2
565.084	1	-5
565.254	1	4
565.424	1	1
565.594	1	2
565.764	1	-5
565.934	1	10
566.104	1	5
566.274	1	3
566.444	1	-10
566.614	1	-2
566.783	1	-3
566.953	1	2
567.123	1	6
567.293	1	-5
567.463	1	-1
567.633	1	3
567.803	1	14
567.973	1	9
568.143	1	5
568.313	1	-2
568.483	1	4
568.653	1	-7
568.823	1	-4
568.993	1	-11
569.162	1	3
569.332	1	4
569.502	1	11
569.672	1	7
569.842	1	1
570.012	1	4
570.182	1	-4
570.352	1	-4
570.522	1	-9
570.692	1	4
570.862	1	1
571.031	1	4
571.201	1	15
571.371	1	10
571.541	1	5
571.711	1	-4
571.881	1	0
572.051	1	-2
572.221	1	12
572.391	1	7
572.561	1	11
572.731	1	5
572.900	1	-15
573.070	1	11
573.240	1	-5
573.410	1	4
573.580	1	-20
573.750	1	12
573.920	1	1
574.090	1	-1
574.260	1	8
574.430	1	-1
574.599	1	3
574.769	1	-2
574.939	1	-5
575.109	1	0
575.279	1	1
575.449	1	11
575.619	1	6
575.789	1	-8
575.959	1	1
576.128	1	-1
576.298	1	-3
576.468	1	4
576.638	1	0
576.808	1	5
576.978	1	0
577.148	1	-1
577.318	1	13
577.487	1	1
577.657	1	3
577.827	1	-6
577.997	1	3
578.167	1	8
578.337	1	-2
578.507	1	5
578.677	1	-1
578.846	1	6
579.016	1	5
579.186	1	4
579.356	1	-1
579.526	1	-1
579.696	1	8
579.866	1	-9
580.036	1	7
580.205	1	-2
580.375	1	16
580.545	1	0
580.715	1	-4
580.885	1	2
581.055	1	-1
581.225	1	7
581.394	1	-10
581.564	1	-8
581.734	1	-5
581.904	1	4
582.074	1	-2
582.244	1	8
582.414	1	-4
582.583	1	2
582.753	1	4
582.923	1	1
583.093	1	-1
583.263	1	5
583.433	1	1
583.603	1	-11
583.772	1	-15
583.942	1	9
584.112	1	-1
584.282	1	-2
584.452	1	-6
584.622	1	5
584.791	1	-4
584.961	1	-13
585.131	1	0
585.301	1	0
585.471	1	1
585.641	1	-7
585.811	1	-8
585.980	1	2
586.150	1	2
586.320	1	-6
586.490	1	8
586.660	1	5
586.830	1	-9
586.999	1	6
587.169	1	5
587.339	1	0
587.509	1	6
587.679	1	2
587.849	1	5
588.018	1	-6
588.188	1	1
588.358	1	-9
588.528	1	0
588.698	1	4
588.867	1	1
589.037	1	-8
589.207	1	2
589.377	1	3
589.547	1	4
589.717	1	-6
589.886	1	-7
590.056	1	1
590.226	1	-9
590.396	1	-2
590.566	1	-1
590.735	1	-13
590.905	1	9
591.075	1	-2
591.245	1	6
591.415	1	1
591.585	1	8
591.754	1	5
591.924	1	12
592.094	1	-10
592.264	1	-8
592.434	1	-4
592.603	1	2
592.773	1	-2
592.943	1	0
593.113	1	-5
593.283	1	-3
593.452	1	-8
593.622	1	-2
593.792	1	-2
593.962	1	-3
594.132	1	-3
594.301	1	9
594.471	1	8
594.641	1	10
594.811	1	1
594.981	1	-3
595.150	1	5
595.320	1	-5
595.490	1	-4
595.660	1	1
595.829	1	-10
595.999	1	2
596.169	1	10
596.339	1	3
596.509	1	-5
596.678	1	13
596.848	1	12
597.018	1	-5
597.188	1	-1
597.358	1	-1
597.527	1	4
597.697	1	-8
597.867	1	10
598.037	1	7
598.206	1	1
598.376	1	-5
598.546	1	10
598.716	1	-2
598.885	1	4
599.055	1	-2
599.225	1	1
599.395	1	3
599.565	1	-10
599.734	1	1
599.904	1	-10
600.074	1	8
600.244	1	0
600.413	1	0
600.583	1	-7
600.753	1	5
600.923	1	3
601.092	1	11
601.262	1	3
601.432	1	6
601.602	1	10
601.771	1	6
601.941	1	7
602.111	1	1
602.281	1	-6
602.451	1	-5
602.620	1	5
602.790	1	-9
602.960	1	-4
603.130	1	3
603.299	1	2
603.469	1	-8
603.639	1	-16
603.809	1	7
603.978	1	1
604.148	1	3
604.318	1	-6
604.487	1	19
604.657	1	-12
604.827	1	3
604.997	1	5
605.166	1	-1
605.336	1	-3
605.506	1	-5
605.676	1	1
605.845	1	5
606.015	1	-12
606.185	1	3
606.355	1	-6
606.524	1	-3
606.694	1	8
606.864	1	3
607.034	1	10
607.203	1	3
607.373	1	2
607.543	1	0
607.712	1	4
607.882	1	7
608.052	1	-4
608.222	1	6
608.391	1	14
608.561	1	-2
608.731	1	0
608.901	1	6
609.070	1	-1
609.240	1	-8
609.410	1	6
609.579	1	-2
609.749	1	6
609.919	1	-8
610.089	1	-1
610.258	1	-2
610.428	1	2
610.598	1	-3
610.767	1	7
610.937	1	-5
611.107	1	-2
611.277	1	-3
611.446	1	1
611.616	1	11
611.786	1	6
611.955	1	5
612.125	1	2
612.295	1	1
612.465	1	-4
612.634	1	3
612.804	1	9
612.974	1	-9
613.143	1	-2
613.313	1	2
613.483	1	8
613.652	1	6
613.822	1	-5
613.992	1	-3
614.162	1	-5
614.331	1	-2
614.501	1	-6
614.671	1	2
614.840	1	-8
615.010	1	5
615.180	1	-1
615.349	1	12
615.519	1	-10
615.689	1	-8
615.858	1	4
616.028	1	6
616.198	1	11
616.368	1	-1
616.537	1	-6
616.707	1	0
616.877	1	-1
617.046	1	10
617.216	1	0
617.386	1	3
617.555	1	-4
617.725	1	0
617.895	1	7
618.064	1	6
618.234	1	-10
618.404	1	-4
618.573	1	3
618.743	1	8
618.913	1	1
619.082	1	4
619.252	1	-4
619.422	1	-3
619.591	1	-2
619.761	1	-3
619.931	1	4
620.100	1	4
620.270	1	7
620.440	1	-1
620.609	1	18
620.779	1	5
620.949	1	1
621.118	1	4
621.288	1	-1
621.458	1	1
621.627	1	-2
621.797	1	-9
621.967	1	3
622.136	1	-6
622.306	1	-3
622.476	1	-5
622.645	1	7
622.815	1	5
622.985	1	-2
623.154	1	-7
623.324	1	-2
623.494	1	-3
623.663	1	0
623.833	1	1
624.002	1	-10
624.172	1	-1
624.342	1	9
624.511	1	4
624.681	1	0
624.851	1	4
625.020	1	0
625.190	1	-12
625.360	1	-13
625.529	1	3
625.699	1	-2
625.869	1	1
626.038	1	-5
626.208	1	7
626.377	1	-3
626.547	1	-3
626.717	1	-14
626.886	1	-5
627.056	1	3
627.226	1	4
627.395	1	-9
627.565	1	3
627.735	1	2
627.904	1	-4
628.074	1	5
628.243	1	-2
628.413	1	1
628.583	1	5
628.752	1	0
628.922	1	-6
629.091	1	-3
629.261	1	6
629.431	1	-6
629.600	1	1
629.770	1	3
629.940	1	-2
630.109	1	6
630.279	1	4
630.448	1	-6
630.618	1	3
630.788	1	3
630.957	1	-1
631.127	1	-10
631.297	1	-2
631.466	1	13
631.636	1	14
631.805	1	-2
631.975	1	-4
632.145	1	1
632.314	1	11
632.484	1	4
632.653	1	6
632.823	1	-1
632.993	1	0
633.162	1	-7
633.332	1	-2
633.501	1	-1
633.671	1	-4
633.841	1	1
634.010	1	7
634.180	1	4
634.349	1	-1
634.519	1	4
634.689	1	-2
634.858	1	-5
635.028	1	-5
635.197	1	-3
635.367	1	8
635.537	1	4
635.706	1	-2
635.876	1	3
636.045	1	-2
636.215	1	3
636.384	1	6
636.554	1	-6
636.724	1	5
636.893	1	0
637.063	1	4
637.232	1	1
637.402	1	0
637.572	1	-4
637.741	1	-3
637.911	1	-7
638.080	1	7
638.250	1	0
638.419	1	-4
638.589	1	2
638.759	1	0
638.928	1	-2
639.098	1	-7
639.267	1	6
639.437	1	0
639.606	1	2
639.776	1	5
639.946	1	9
640.115	1	-8
640.285	1	2
640.454	1	4
640.624	1	13
640.793	1	5
640.963	1	-9
641.132	1	9
641.302	1	-3
641.472	1	-2
641.641	1	-4
641.811	1	0
641.980	1	-6
642.150	1	-3
642.319	1	7
642.489	1	-6
642.659	1	6
642.828	1	-1
642.998	1	7
643.167	1	-10
643.337	1	0
643.506	1	-1
643.676	1	-11
643.845	1	6
644.015	1	1
644.184	1	-4
644.354	1	4
644.524	1	3
644.693	1	-1
644.863	1	4
645.032	1	7
645.202	1	3
645.371	1	-4
645.541	1	-4
645.710	1	-3
645.880	1	-6
646.049	1	-3
646.219	1	-3
646.388	1	11
646.558	1	12
646.728	1	-3
646.897	1	0
647.067	1	0
647.236	1	15
647.406	1	4
647.575	1	7
647.745	1	5
647.914	1	-8
648.084	1	-3
648.253	1	2
648.423	1	-3
648.592	1	-12
648.762	1	6
648.931	1	9
649.101	1	-1
649.270	1	4
649.440	1	-2
649.610	1	6
649.779	1	0
649.949	1	1
650.118	1	2
650.288	1	0
650.457	1	9
650.627	1	-3
650.796	1	1
650.966	1	-7
651.135	1	8
651.305	1	-9
651.474	1	6
651.644	1	11
651.813	1	-2
651.983	1	1
652.152	1	6
652.322	1	6
652.491	1	9
652.661	1	-1
652.830	1	15
653.000	1	4
653.169	1	7
653.339	1	1
653.508	1	-4
653.678	1	1
653.847	1	2
654.017	1	9
654.186	1	-5
654.356	1	2
654.525	1	-13
654.695	1	0
654.864	1	-5
655.034	1	-3
655.203	1	3
655.373	1	7
655.542	1	-4
655.712	1	-3
655.881	1	15
656.051	1	4
656.220	1	0
656.390	1	-6
656.559	1	-9
656.729	1	-6
656.898	1	2
657.068	1	4
657.237	1	6
657.406	1	-9
657.576	1	3
657.745	1	2
657.915	1	-12
658.084	1	-5
658.254	1	8
658.423	1	8
658.593	1	15
658.762	1	-2
658.932	1	-6
659.101	1	-11
659.271	1	-1
659.440	1	-1
659.610	1	3
659.779	1	13
659.949	1	-1
660.118	1	9
660.288	1	-10
660.457	1	6
660.626	1	-4
660.796	1	-2
660.965	1	3
661.135	1	-9
661.304	1	-5
661.474	1	-2
661.643	1	-2
661.813	1	5
661.982	1	7
662.152	1	3
662.321	1	-9
662.491	1	-6
662.660	1	3
662.829	1	3
662.999	1	10
663.168	1	3
663.338	1	10
663.507	1	2
663.677	1	-2
663.846	1	-3
664.016	1	0
664.185	1	-1
664.354	1	7
664.524	1	1
664.693	1	-7
664.863	1	-5
665.032	1	-3
665.202	1	4
665.371	1	3
665.541	1	8
665.710	1	-1
665.879	1	-3
666.049	1	-10
666.218	1	-8
666.388	1	3
666.557	1	6
666.727	1	-7
666.896	1	-7
667.065	1	3
667.235	1	14
667.404	1	-9
667.574	1	-4
667.743	1	-3
667.913	1	4
668.082	1	1
668.251	1	1
668.421	1	-1
668.590	1	7
668.760	1	5
668.929	1	6
669.099	1	-8
669.268	1	-4
669.437	1	6
669.607	1	13
669.776	1	13
669.946	1	1
670.115	1	-20
670.285	1	8
670.454	1	-1
670.623	1	-2
670.793	1	3
670.962	1	-7
671.132	1	-11
671.301	1	1
671.470	1	1
671.640	1	-7
671.809	1	-11
671.979	1	19
672.148	1	9
672.317	1	-3
672.487	1	-7
672.656	1	-12
672.826	1	1
672.995	1	1
673.164	1	-11
673.334	1	4
673.503	1	-13
673.673	1	2
673.842	1	2
674.011	1	10
674.181	1	7
674.350	1	3
674.520	1	-3
674.689	1	5
674.858	1	-11
675.028	1	7
675.197	1	3
675.367	1	-6
675.536	1	8
675.705	1	2
675.875	1	5
676.044	1	-4
676.214	1	-2
676.383	1	12
676.552	1	-1
676.722	1	-5
676.891	1	4
677.060	1	-4
677.230	1	4
677.399	1	-4
677.569	1	7
677.738	1	7
677.907	1	-2
678.077	1	4
678.246	1	-3
678.416	1	0
678.585	1	2
678.754	1	6
678.924	1	7
679.093	1	-1
679.262	1	-3
679.432	1	5
679.601	1	2
679.771	1	-5
679.940	1	1
680.109	1	-11
680.279	1	2
680.448	1	14
680.617	1	-5
680.787	1	-4
680.956	1	5
681.125	1	2
681.295	1	-5
681.464	1	-10
681.634	1	0
681.803	1	-1
681.972	1	0
682.142	1	2
682.311	1	4
682.480	1	5
682.650	1	3
682.819	1	6
682.988	1	-5
683.158	1	-4
683.327	1	11
683.496	1	6
683.666	1	0
683.835	1	-3
684.004	1	5
684.174	1	-1
684.343	1	-3
684.512	1	5
684.682	1	8
684.851	1	11
685.021	1	-10
685.190	1	5
685.359	1	-6
685.529	1	9
685.698	1	-8
685.867	1	1
686.037	1	-2
686.206	1	-2
686.375	1	4
686.545	1	10
686.714	1	8
686.883	1	2
687.053	1	-3
687.222	1	-3
687.391	1	-7
687.561	1	11
687.730	1	-4
687.899	1	-1
688.069	1	8
688.238	1	-6
688.407	1	10
688.577	1	-4
688.746	1	2
