340.368	1	9
340.539	1	8
340.710	1	-1
340.881	1	0
341.052	1	0
341.223	1	4
341.394	1	-5
341.565	1	1
341.737	1	-3
341.908	1	-16
342.079	1	-12
342.250	1	-3
342.421	1	0
342.592	1	6
342.763	1	1
342.934	1	3
343.105	1	2
343.276	1	-2
343.447	1	-16
343.618	1	-8
343.789	1	-5
343.960	1	6
344.131	1	0
344.302	1	-7
344.473	1	-1
344.644	1	1
344.815	1	5
344.986	1	-5
345.157	1	7
345.328	1	-6
345.499	1	1
345.670	1	-1
345.841	1	-9
346.012	1	2
346.183	1	9
346.354	1	3
346.526	1	-6
346.697	1	0
346.868	1	0
347.039	1	-5
347.210	1	4
347.381	1	6
347.552	1	7
347.723	1	-1
347.894	1	-4
348.065	1	7
348.236	1	7
348.407	1	-1
348.578	1	-8
348.749	1	-4
348.920	1	-5
349.091	1	0
349.262	1	-18
349.433	1	-8
349.604	1	2
349.775	1	1
349.946	1	-7
350.117	1	11
350.288	1	-1
350.459	1	-5
350.630	1	3
350.801	1	11
350.972	1	-4
351.143	1	7
351.314	1	-3
351.485	1	0
351.656	1	-1
351.827	1	0
351.998	1	8
352.169	1	-3
352.340	1	-10
352.511	1	1
352.682	1	4
352.853	1	5
353.024	1	-5
353.195	1	1
353.366	1	9
353.537	1	6
353.708	1	3
353.879	1	-13
354.050	1	8
354.221	1	-1
354.392	1	7
354.563	1	8
354.734	1	5
354.905	1	7
355.076	1	5
355.247	1	3
355.418	1	-6
355.589	1	-10
355.760	1	5
355.931	1	6
356.102	1	-4
356.273	1	-7
356.444	1	6
356.615	1	0
356.785	1	5
356.956	1	-6
357.127	1	-4
357.298	1	1
357.469	1	7
357.640	1	-2
357.811	1	1
357.982	1	-1
358.153	1	5
358.324	1	8
358.495	1	3
358.666	1	0
358.837	1	4
359.008	1	9
359.179	1	4
359.350	1	-7
359.521	1	13
359.692	1	3
359.863	1	2
360.034	1	5
360.205	1	3
360.376	1	-1
360.547	1	4
360.718	1	5
360.889	1	8
361.060	1	-4
361.231	1	-3
361.401	1	-1
361.572	1	4
361.743	1	13
361.914	1	2
362.085	1	7
362.256	1	9
362.427	1	-1
362.598	1	0
362.769	1	5
362.940	1	7
363.111	1	2
363.282	1	-5
363.453	1	1
363.624	1	3
363.795	1	10
363.966	1	10
364.137	1	21
364.308	1	19
364.478	1	15
364.649	1	6
364.820	1	1
364.991	1	1
365.162	1	6
365.333	1	-11
365.504	1	3
365.675	1	1
365.846	1	9
366.017	1	9
366.188	1	1
366.359	1	14
366.530	1	12
366.701	1	13
366.871	1	8
367.042	1	23
367.213	1	12
367.384	1	-3
367.555	1	5
367.726	1	18
367.897	1	14
368.068	1	9
368.239	1	0
368.410	1	13
368.581	1	6
368.752	1	9
368.923	1	3
369.093	1	6
369.264	1	3
369.435	1	7
369.606	1	11
369.777	1	17
369.948	1	9
370.119	1	9
370.290	1	-4
370.461	1	6
370.632	1	16
370.803	1	16
370.973	1	6
371.144	1	8
371.315	1	-5
371.486	1	7
371.657	1	5
371.828	1	4
371.999	1	4
372.170	1	12
372.341	1	3
372.512	1	-4
372.682	1	4
372.853	1	3
373.024	1	9
373.195	1	1
373.366	1	0
373.537	1	8
373.708	1	-3
373.879	1	2
374.050	1	5
374.220	1	-1
374.391	1	-1
374.562	1	7
374.733	1	-4
374.904	1	10
375.075	1	6
375.246	1	-6
375.417	1	2
375.588	1	-1
375.758	1	-11
375.929	1	8
376.100	1	10
376.271	1	9
376.442	1	-3
376.613	1	6
376.784	1	15
376.955	1	-11
377.125	1	7
377.296	1	0
377.467	1	6
377.638	1	-7
377.809	1	8
377.980	1	6
378.151	1	10
378.321	1	11
378.492	1	3
378.663	1	8
378.834	1	18
379.005	1	5
379.176	1	0
379.347	1	12
379.518	1	-3
379.688	1	1
379.859	1	2
380.030	1	19
380.201	1	15
380.372	1	7
380.543	1	12
380.714	1	4
380.884	1	8
381.055	1	6
381.226	1	4
381.397	1	-4
381.568	1	-2
381.739	1	-1
381.910	1	-1
382.080	1	6
382.251	1	-7
382.422	1	1
382.593	1	5
382.764	1	5
382.935	1	3
383.105	1	3
383.276	1	4
383.447	1	12
383.618	1	5
383.789	1	-3
383.960	1	1
384.130	1	0
384.301	1	14
384.472	1	-6
384.643	1	0
384.814	1	5
384.985	1	10
385.156	1	12
385.326	1	10
385.497	1	-3
385.668	1	4
385.839	1	13
386.010	1	0
386.180	1	7
386.351	1	5
386.522	1	5
386.693	1	10
386.864	1	6
387.035	1	12
387.205	1	3
387.376	1	12
387.547	1	14
387.718	1	1
387.889	1	6
388.060	1	6
388.230	1	8
388.401	1	10
388.572	1	7
388.743	1	5
388.914	1	-2
389.084	1	11
389.255	1	0
389.426	1	-2
389.597	1	7
389.768	1	12
389.939	1	12
390.109	1	7
390.280	1	0
390.451	1	-1
390.622	1	-9
390.793	1	5
390.963	1	-2
391.134	1	-9
391.305	1	1
391.476	1	11
391.647	1	1
391.817	1	8
391.988	1	-4
392.159	1	6
392.330	1	-3
392.501	1	7
392.671	1	6
392.842	1	5
393.013	1	12
393.184	1	14
393.355	1	10
393.525	1	3
393.696	1	-1
393.867	1	8
394.038	1	-1
394.208	1	4
394.379	1	-2
394.550	1	5
394.721	1	6
394.892	1	-9
395.062	1	11
395.233	1	4
395.404	1	-2
395.575	1	9
395.746	1	0
395.916	1	4
396.087	1	8
396.258	1	0
396.429	1	1
396.599	1	12
396.770	1	3
396.941	1	-1
397.112	1	-8
397.283	1	-12
397.453	1	14
397.624	1	0
397.795	1	2
397.966	1	7
398.136	1	6
398.307	1	5
398.478	1	2
398.649	1	-2
398.819	1	10
398.990	1	0
399.161	1	2
399.332	1	6
399.503	1	7
399.673	1	-5
399.844	1	2
400.015	1	8
400.186	1	0
400.356	1	7
400.527	1	21
400.698	1	4
400.869	1	-10
401.039	1	-3
401.210	1	-3
401.381	1	3
401.552	1	1
401.722	1	8
401.893	1	4
402.064	1	6
402.235	1	-20
402.405	1	10
402.576	1	-5
402.747	1	0
402.918	1	3
403.088	1	2
403.259	1	0
403.430	1	7
403.601	1	4
403.771	1	13
403.942	1	-1
404.113	1	-1
404.284	1	-6
404.454	1	-2
404.625	1	5
404.796	1	5
404.967	1	3
405.137	1	4
405.308	1	3
405.479	1	6
405.649	1	11
405.820	1	-4
405.991	1	-1
406.162	1	4
406.332	1	-12
406.503	1	3
406.674	1	-2
406.845	1	13
407.015	1	7
407.186	1	6
407.357	1	-1
407.527	1	6
407.698	1	-1
407.869	1	1
408.040	1	6
408.210	1	8
408.381	1	-3
408.552	1	-7
408.722	1	-7
408.893	1	3
409.064	1	3
409.235	1	6
409.405	1	-1
409.576	1	3
409.747	1	16
409.917	1	-4
410.088	1	-2
410.259	1	3
410.430	1	-4
410.600	1	-2
410.771	1	0
410.942	1	4
411.112	1	6
411.283	1	-1
411.454	1	-8
411.625	1	-2
411.795	1	5
411.966	1	16
412.137	1	4
412.307	1	2
412.478	1	-7
412.649	1	-1
412.819	1	1
412.990	1	-3
413.161	1	0
413.332	1	1
413.502	1	3
413.673	1	12
413.844	1	9
414.014	1	1
414.185	1	1
414.356	1	-3
414.526	1	6
414.697	1	6
414.868	1	-2
415.038	1	5
415.209	1	-7
415.380	1	19
415.550	1	4
415.721	1	0
415.892	1	3
416.063	1	3
416.233	1	-2
416.404	1	-1
416.575	1	-7
416.745	1	3
416.916	1	2
417.087	1	15
417.257	1	-1
417.428	1	-4
417.599	1	3
417.769	1	-6
417.940	1	2
418.111	1	3
418.281	1	-5
418.452	1	4
418.623	1	-3
418.793	1	2
418.964	1	-2
419.135	1	15
419.305	1	-1
419.476	1	-3
419.647	1	0
419.817	1	-1
419.988	1	-6
420.159	1	0
420.329	1	-5
420.500	1	8
420.671	1	-3
420.841	1	6
421.012	1	-8
421.183	1	5
421.353	1	-5
421.524	1	5
421.695	1	4
421.865	1	8
422.036	1	-2
422.206	1	3
422.377	1	-2
422.548	1	3
422.718	1	-7
422.889	1	-9
423.060	1	-6
423.230	1	0
423.401	1	5
423.572	1	17
423.742	1	3
423.913	1	7
424.084	1	-5
424.254	1	-7
424.425	1	-11
424.595	1	5
424.766	1	-1
424.937	1	9
425.107	1	-3
425.278	1	2
425.449	1	-10
425.619	1	-7
425.790	1	7
425.961	1	-4
426.131	1	2
426.302	1	2
426.472	1	-5
426.643	1	-8
426.814	1	-7
426.984	1	5
427.155	1	-11
427.326	1	-2
427.496	1	-7
427.667	1	3
427.837	1	-1
428.008	1	6
428.179	1	-7
428.349	1	-10
428.520	1	6
428.691	1	-6
428.861	1	-7
429.032	1	2
429.202	1	-3
429.373	1	1
429.544	1	5
429.714	1	4
429.885	1	-3
430.055	1	3
430.226	1	4
430.397	1	-2
430.567	1	-2
430.738	1	-5
430.909	1	6
431.079	1	3
431.250	1	-9
431.420	1	0
431.591	1	-4
431.762	1	-4
431.932	1	-5
432.103	1	-2
432.273	1	6
432.444	1	-15
432.615	1	-11
432.785	1	3
432.956	1	9
433.126	1	-1
433.297	1	5
433.468	1	-11
433.638	1	7
433.809	1	0
433.979	1	7
434.150	1	9
434.320	1	4
434.491	1	0
434.662	1	10
434.832	1	4
435.003	1	-9
435.173	1	-9
435.344	1	-5
435.515	1	0
435.685	1	0
435.856	1	4
436.026	1	3
436.197	1	4
436.368	1	-6
436.538	1	-7
436.709	1	-5
436.879	1	-4
437.050	1	4
437.220	1	-16
437.391	1	-1
437.562	1	2
437.732	1	14
437.903	1	-1
438.073	1	6
438.244	1	-7
438.414	1	-1
438.585	1	-5
438.756	1	5
438.926	1	1
439.097	1	6
439.267	1	1
439.438	1	2
439.608	1	9
439.779	1	-8
439.949	1	1
440.120	1	-1
440.291	1	1
440.461	1	3
440.632	1	5
440.802	1	2
440.973	1	8
441.143	1	-1
441.314	1	-10
441.485	1	1
441.655	1	-8
441.826	1	-9
441.996	1	-9
442.167	1	-2
442.337	1	1
442.508	1	5
442.678	1	-2
442.849	1	-4
443.019	1	0
443.190	1	14
443.361	1	-2
443.531	1	5
443.702	1	-15
443.872	1	-4
444.043	1	6
444.213	1	2
444.384	1	-2
444.554	1	-3
444.725	1	3
444.895	1	7
445.066	1	-2
445.237	1	-4
445.407	1	-5
445.578	1	-1
445.748	1	-6
445.919	1	-4
446.089	1	6
446.260	1	-5
446.430	1	-11
446.601	1	3
446.771	1	-13
446.942	1	-4
447.112	1	8
447.283	1	-9
447.453	1	-7
447.624	1	-3
447.794	1	-1
447.965	1	1
448.135	1	-5
448.306	1	-4
448.477	1	10
448.647	1	-5
448.818	1	-3
448.988	1	-9
449.159	1	0
449.329	1	-2
449.500	1	2
449.670	1	-1
449.841	1	-3
450.011	1	0
450.182	1	-5
450.352	1	-1
450.523	1	3
450.693	1	-3
450.864	1	1
451.034	1	9
451.205	1	7
451.375	1	4
451.546	1	-5
451.716	1	3
451.887	1	5
452.057	1	6
452.228	1	8
452.398	1	8
452.569	1	-11
452.739	1	-4
452.910	1	-5
453.080	1	11
453.251	1	0
453.421	1	-9
453.592	1	10
453.762	1	7
453.933	1	-3
454.103	1	2
454.274	1	6
454.444	1	-6
454.615	1	13
454.785	1	-4
454.956	1	7
455.126	1	-4
455.297	1	-8
455.467	1	1
455.638	1	5
455.808	1	2
455.979	1	3
456.149	1	-5
456.320	1	6
456.490	1	3
456.661	1	-1
456.831	1	2
457.001	1	4
457.172	1	0
457.342	1	-7
457.513	1	6
457.683	1	-1
457.854	1	11
458.024	1	-9
458.195	1	-3
458.365	1	7
458.536	1	-2
458.706	1	10
458.877	1	-2
459.047	1	9
459.218	1	-9
459.388	1	3
459.559	1	3
459.729	1	-10
459.899	1	-10
460.070	1	-6
460.240	1	3
460.411	1	0
460.581	1	5
460.752	1	-10
460.922	1	10
461.093	1	-1
461.263	1	3
461.434	1	2
461.604	1	3
461.775	1	-3
461.945	1	5
462.115	1	-4
462.286	1	0
462.456	1	4
462.627	1	5
462.797	1	-9
462.968	1	-3
463.138	1	-4
463.309	1	5
463.479	1	-1
463.649	1	-6
463.820	1	-2
463.990	1	6
464.161	1	4
464.331	1	8
464.502	1	6
464.672	1	-16
464.843	1	-6
465.013	1	-14
465.183	1	-5
465.354	1	7
465.524	1	-6
465.695	1	6
465.865	1	7
466.036	1	12
466.206	1	5
466.376	1	0
466.547	1	-10
466.717	1	-1
466.888	1	-6
467.058	1	-1
467.229	1	4
467.399	1	-10
467.569	1	3
467.740	1	0
467.910	1	10
468.081	1	-13
468.251	1	3
468.422	1	-6
468.592	1	2
468.762	1	-16
468.933	1	-5
469.103	1	0
469.274	1	3
469.444	1	8
469.614	1	4
469.785	1	11
469.955	1	4
470.126	1	1
470.296	1	-2
470.467	1	-15
470.637	1	-3
470.807	1	13
470.978	1	0
471.148	1	2
471.319	1	4
471.489	1	0
471.659	1	-1
471.830	1	-2
472.000	1	6
472.171	1	0
472.341	1	1
472.511	1	0
472.682	1	-3
472.852	1	-1
473.023	1	0
473.193	1	4
473.363	1	0
473.534	1	-4
473.704	1	-5
473.875	1	-1
474.045	1	4
474.215	1	4
474.386	1	2
474.556	1	-4
474.727	1	0
474.897	1	3
475.067	1	-15
475.238	1	-7
475.408	1	-7
475.578	1	0
475.749	1	5
475.919	1	-1
476.090	1	8
476.260	1	-5
476.430	1	12
476.601	1	-2
476.771	1	-11
476.942	1	2
477.112	1	-3
477.282	1	4
477.453	1	0
477.623	1	7
477.793	1	-4
477.964	1	-5
478.134	1	-2
478.305	1	-1
478.475	1	2
478.645	1	-1
478.816	1	-1
478.986	1	-3
479.156	1	1
479.327	1	-6
479.497	1	7
479.667	1	8
479.838	1	-3
480.008	1	-3
480.179	1	-9
480.349	1	4
480.519	1	-5
480.690	1	0
480.860	1	-1
481.030	1	12
481.201	1	-13
481.371	1	10
481.541	1	3
481.712	1	4
481.882	1	-7
482.053	1	3
482.223	1	-3
482.393	1	2
482.564	1	1
482.734	1	2
482.904	1	6
483.075	1	2
483.245	1	12
483.415	1	5
483.586	1	7
483.756	1	5
483.926	1	-1
484.097	1	9
484.267	1	-14
484.437	1	1
484.608	1	2
484.778	1	-5
484.948	1	3
485.119	1	-12
485.289	1	-4
485.459	1	1
485.630	1	13
485.800	1	6
485.970	1	-8
486.141	1	-7
486.311	1	-10
486.481	1	6
486.652	1	-5
486.822	1	-5
486.992	1	1
487.163	1	10
487.333	1	8
487.503	1	-3
487.674	1	-1
487.844	1	3
488.014	1	0
488.185	1	-1
488.355	1	0
488.525	1	-2
488.696	1	-2
488.866	1	2
489.036	1	16
489.207	1	2
489.377	1	-7
489.547	1	-2
489.718	1	1
489.888	1	4
490.058	1	2
490.228	1	-4
490.399	1	0
490.569	1	7
490.739	1	1
490.910	1	-6
491.080	1	-4
491.250	1	6
491.421	1	-3
491.591	1	3
491.761	1	-2
491.932	1	6
492.102	1	-3
492.272	1	4
492.442	1	1
492.613	1	8
492.783	1	3
492.953	1	1
493.124	1	5
493.294	1	-5
493.464	1	6
493.635	1	-4
493.805	1	-2
493.975	1	-1
494.145	1	4
494.316	1	-2
494.486	1	3
494.656	1	-6
494.827	1	5
494.997	1	-9
495.167	1	-4
495.337	1	-5
495.508	1	-5
495.678	1	8
495.848	1	-1
496.019	1	4
496.189	1	3
496.359	1	-2
496.529	1	-4
496.700	1	1
496.870	1	10
497.040	1	-10
497.211	1	4
497.381	1	-1
497.551	1	8
497.721	1	-6
497.892	1	8
498.062	1	-7
498.232	1	4
498.403	1	2
498.573	1	5
498.743	1	9
498.913	1	11
499.084	1	1
499.254	1	-1
499.424	1	-2
499.594	1	1
499.765	1	16
499.935	1	-6
500.105	1	1
500.275	1	-5
500.446	1	4
500.616	1	-2
500.786	1	10
500.956	1	-4
501.127	1	3
501.297	1	-6
501.467	1	-2
501.638	1	0
501.808	1	-5
501.978	1	-3
502.148	1	-6
502.319	1	8
502.489	1	0
502.659	1	11
502.829	1	10
503.000	1	0
503.170	1	7
503.340	1	1
503.510	1	0
503.681	1	-16
503.851	1	1
504.021	1	1
504.191	1	5
504.362	1	1
504.532	1	1
504.702	1	2
504.872	1	-12
505.042	1	-1
505.213	1	-1
505.383	1	2
505.553	1	1
505.723	1	8
505.894	1	-3
506.064	1	0
506.234	1	-8
506.404	1	2
506.575	1	-7
506.745	1	8
506.915	1	0
507.085	1	6
507.256	1	8
507.426	1	3
507.596	1	-4
507.766	1	5
507.936	1	0
508.107	1	15
508.277	1	-12
508.447	1	-3
508.617	1	1
508.788	1	9
508.958	1	8
509.128	1	5
509.298	1	4
509.468	1	6
509.639	1	-5
509.809	1	10
509.979	1	7
510.149	1	-6
510.319	1	-8
510.490	1	5
510.660	1	0
510.830	1	-4
511.000	1	-1
511.171	1	-3
511.341	1	6
511.511	1	0
511.681	1	14
511.851	1	3
512.022	1	-11
512.192	1	8
512.362	1	1
512.532	1	-3
512.702	1	4
512.873	1	16
513.043	1	3
513.213	1	8
513.383	1	-3
513.553	1	16
513.724	1	-6
513.894	1	-8
514.064	1	4
514.234	1	7
514.404	1	10
514.575	1	0
514.745	1	0
514.915	1	-9
515.085	1	4
515.255	1	3
515.425	1	-5
515.596	1	13
515.766	1	-4
515.936	1	-6
516.106	1	5
516.276	1	5
516.447	1	10
516.617	1	1
516.787	1	-3
516.957	1	6
517.127	1	-2
517.297	1	9
517.468	1	-1
517.638	1	-6
517.808	1	4
517.978	1	11
518.148	1	6
518.319	1	7
518.489	1	-7
518.659	1	5
518.829	1	-3
518.999	1	1
519.169	1	2
519.340	1	5
519.510	1	2
519.680	1	8
519.850	1	5
520.020	1	1
520.190	1	7
520.361	1	-2
520.531	1	-2
520.701	1	14
520.871	1	-6
521.041	1	3
521.211	1	10
521.382	1	0
521.552	1	-7
521.722	1	7
521.892	1	4
522.062	1	1
522.232	1	7
522.402	1	6
522.573	1	2
522.743	1	2
522.913	1	9
523.083	1	8
523.253	1	12
523.423	1	5
523.593	1	-1
523.764	1	0
523.934	1	5
524.104	1	0
524.274	1	5
524.444	1	3
524.614	1	3
524.784	1	2
524.955	1	9
525.125	1	8
525.295	1	3
525.465	1	3
525.635	1	0
525.805	1	13
525.975	1	-1
526.146	1	2
526.316	1	3
526.486	1	7
526.656	1	1
526.826	1	6
526.996	1	-2
527.166	1	-12
527.337	1	1
527.507	1	3
527.677	1	12
527.847	1	-4
528.017	1	7
528.187	1	6
528.357	1	11
528.527	1	9
528.698	1	-7
528.868	1	2
529.038	1	-7
529.208	1	0
529.378	1	11
529.548	1	10
529.718	1	9
529.888	1	1
530.058	1	2
530.229	1	8
530.399	1	-8
530.569	1	-5
530.739	1	-2
530.909	1	9
531.079	1	-10
531.249	1	0
531.419	1	9
531.589	1	8
531.760	1	-8
531.930	1	12
532.100	1	0
532.270	1	11
532.440	1	3
532.610	1	5
532.780	1	10
532.950	1	3
533.120	1	15
533.290	1	4
533.461	1	4
533.631	1	-8
533.801	1	-1
533.971	1	0
534.141	1	13
534.311	1	11
534.481	1	12
534.651	1	-4
534.821	1	-1
534.991	1	10
535.162	1	-3
535.332	1	-1
535.502	1	3
535.672	1	-2
535.842	1	7
536.012	1	-9
536.182	1	15
536.352	1	-1
536.522	1	-8
536.692	1	-4
536.862	1	-2
537.032	1	-8
537.203	1	11
537.373	1	12
537.543	1	-6
537.713	1	9
537.883	1	1
538.053	1	5
538.223	1	2
538.393	1	2
538.563	1	19
538.733	1	5
538.903	1	1
539.073	1	9
539.243	1	1
539.413	1	12
539.584	1	4
539.754	1	3
539.924	1	9
540.094	1	9
540.264	1	-13
540.434	1	1
540.604	1	-5
540.774	1	11
540.944	1	-4
541.114	1	6
541.284	1	-1
541.454	1	7
541.624	1	9
541.794	1	0
541.964	1	-7
542.134	1	10
542.305	1	4
542.475	1	-3
542.645	1	0
542.815	1	-7
542.985	1	3
543.155	1	-8
543.325	1	1
543.495	1	12
543.665	1	1
543.835	1	-8
544.005	1	-4
544.175	1	2
544.345	1	-10
544.515	1	-4
544.685	1	17
544.855	1	-2
545.025	1	0
545.195	1	10
545.365	1	1
545.535	1	1
545.705	1	10
545.875	1	2
546.045	1	2
546.216	1	-1
546.386	1	1
546.556	1	2
546.726	1	10
546.896	1	6
547.066	1	9
547.236	1	5
547.406	1	-5
547.576	1	8
547.746	1	11
547.916	1	0
548.086	1	9
548.256	1	-7
548.426	1	-2
548.596	1	-6
548.766	1	19
548.936	1	13
549.106	1	6
549.276	1	14
549.446	1	-2
549.616	1	4
549.786	1	-10
549.956	1	-5
550.126	1	-11
550.296	1	6
550.466	1	-2
550.636	1	19
550.806	1	6
550.976	1	9
551.146	1	-8
551.316	1	5
551.486	1	3
551.656	1	6
551.826	1	4
551.996	1	-2
552.166	1	8
552.336	1	-15
552.506	1	13
552.676	1	6
552.846	1	5
553.016	1	14
553.186	1	8
553.356	1	11
553.526	1	-11
553.696	1	22
553.866	1	0
554.036	1	5
554.206	1	2
554.376	1	-2
554.546	1	-5
554.716	1	9
554.886	1	9
555.056	1	5
555.226	1	11
555.396	1	-8
555.566	1	5
555.736	1	5
555.906	1	5
556.076	1	10
556.246	1	0
556.416	1	-3
556.586	1	-13
556.756	1	0
556.926	1	1
557.096	1	8
557.266	1	5
557.436	1	6
557.606	1	-3
557.776	1	8
557.946	1	0
558.116	1	11
558.286	1	-4
558.456	1	0
558.626	1	-8
558.796	1	11
558.966	1	0
559.136	1	3
559.306	1	1
559.476	1	2
559.646	1	-3
559.816	1	5
559.986	1	-14
560.155	1	10
560.325	1	-5
560.495	1	4
560.665	1	-9
560.835	1	8
561.005	1	3
561.175	1	-3
561.345	1	-4
561.515	1	5
561.685	1	0
561.855	1	3
562.025	1	8
562.195	1	3
562.365	1	6
562.535	1	-3
562.705	1	3
562.875	1	-7
563.045	1	-6
563.215	1	-6
563.385	1	-5
563.555	1	-5
563.725	1	7
563.895	1	4
564.064	1	4
564.234	1	-5
564.404	1	-2
564.574	1	7
564.744	1	4
564.914	1	6
565.084	1	-8
565.254	1	2
565.424	1	4
565.594	1	-2
565.764	1	-8
565.934	1	10
566.104	1	0
566.274	1	5
566.444	1	-8
566.614	1	3
566.783	1	0
566.953	1	5
567.123	1	9
567.293	1	1
567.463	1	-4
567.633	1	1
567.803	1	7
567.973	1	3
568.143	1	2
568.313	1	0
568.483	1	2
568.653	1	-7
568.823	1	-4
568.993	1	-9
569.162	1	-6
569.332	1	5
569.502	1	6
569.672	1	10
569.842	1	-4
570.012	1	3
570.182	1	1
570.352	1	-2
570.522	1	3
570.692	1	1
570.862	1	6
571.031	1	0
571.201	1	2
571.371	1	12
571.541	1	-1
571.711	1	-4
571.881	1	3
572.051	1	-7
572.221	1	13
572.391	1	10
572.561	1	1
572.731	1	0
572.900	1	-3
573.070	1	6
573.240	1	1
573.410	1	8
573.580	1	6
573.750	1	9
573.920	1	4
574.090	1	6
574.260	1	-9
574.430	1	0
574.599	1	-1
574.769	1	-1
574.939	1	-12
575.109	1	-5
575.279	1	5
575.449	1	14
575.619	1	9
575.789	1	2
575.959	1	3
576.128	1	-1
576.298	1	6
576.468	1	0
576.638	1	-4
576.808	1	-5
576.978	1	2
577.148	1	0
577.318	1	24
577.487	1	-3
577.657	1	5
577.827	1	-3
577.997	1	3
578.167	1	2
578.337	1	1
578.507	1	-3
578.677	1	-6
578.846	1	-2
579.016	1	-1
579.186	1	8
579.356	1	8
579.526	1	5
579.696	1	4
579.866	1	-9
580.036	1	7
580.205	1	-6
580.375	1	7
580.545	1	3
580.715	1	1
580.885	1	6
581.055	1	-2
581.225	1	1
581.394	1	-7
581.564	1	-5
581.734	1	-13
581.904	1	-1
582.074	1	-5
582.244	1	7
582.414	1	-2
582.583	1	4
582.753	1	9
582.923	1	3
583.093	1	-3
583.263	1	6
583.433	1	-2
583.603	1	-4
583.772	1	-13
583.942	1	2
584.112	1	5
584.282	1	6
584.452	1	7
584.622	1	6
584.791	1	-2
584.961	1	-9
585.131	1	-3
585.301	1	0
585.471	1	-4
585.641	1	5
585.811	1	-2
585.980	1	3
586.150	1	1
586.320	1	-7
586.490	1	3
586.660	1	1
586.830	1	-8
586.999	1	1
587.169	1	-2
587.339	1	3
587.509	1	-1
587.679	1	0
587.849	1	11
588.018	1	-10
588.188	1	3
588.358	1	-1
588.528	1	3
588.698	1	-6
588.867	1	-12
589.037	1	-13
589.207	1	5
589.377	1	6
589.547	1	8
589.717	1	-8
589.886	1	0
590.056	1	4
590.226	1	-5
590.396	1	-2
590.566	1	-10
590.735	1	-7
590.905	1	8
591.075	1	0
591.245	1	8
591.415	1	1
591.585	1	-1
591.754	1	1
591.924	1	9
592.094	1	0
592.264	1	-2
592.434	1	-9
592.603	1	-1
592.773	1	-2
592.943	1	7
593.113	1	-3
593.283	1	3
593.452	1	0
593.622	1	2
593.792	1	16
593.962	1	-2
594.132	1	8
594.301	1	10
594.471	1	-5
594.641	1	6
594.811	1	-3
594.981	1	3
595.150	1	3
595.320	1	-3
595.490	1	3
595.660	1	10
595.829	1	-5
595.999	1	0
596.169	1	13
596.339	1	3
596.509	1	-7
596.678	1	3
596.848	1	4
597.018	1	-3
597.188	1	-5
597.358	1	1
597.527	1	-10
597.697	1	-6
597.867	1	10
598.037	1	-2
598.206	1	20
598.376	1	-1
598.546	1	2
598.716	1	-15
598.885	1	4
599.055	1	1
599.225	1	-2
599.395	1	1
599.565	1	3
599.734	1	2
599.904	1	-19
600.074	1	10
600.244	1	-1
600.413	1	2
600.583	1	-5
600.753	1	6
600.923	1	-2
601.092	1	0
601.262	1	-3
601.432	1	4
601.602	1	16
601.771	1	-1
601.941	1	11
602.111	1	6
602.281	1	5
602.451	1	-6
602.620	1	5
602.790	1	-7
602.960	1	-9
603.130	1	-2
603.299	1	-3
603.469	1	2
603.639	1	-9
603.809	1	16
603.978	1	-14
604.148	1	1
604.318	1	-5
604.487	1	-5
604.657	1	-4
604.827	1	9
604.997	1	-5
605.166	1	-1
605.336	1	-6
605.506	1	-4
605.676	1	12
605.845	1	-2
606.015	1	-4
606.185	1	-3
606.355	1	2
606.524	1	0
606.694	1	5
606.864	1	6
607.034	1	-3
607.203	1	9
607.373	1	-1
607.543	1	2
607.712	1	5
607.882	1	-6
608.052	1	-1
608.222	1	6
608.391	1	13
608.561	1	1
608.731	1	1
608.901	1	14
609.070	1	-10
609.240	1	-8
609.410	1	-3
609.579	1	0
609.749	1	4
609.919	1	-4
610.089	1	-13
610.258	1	-2
610.428	1	2
610.598	1	2
610.767	1	5
610.937	1	1
611.107	1	-11
611.277	1	-2
611.446	1	-5
611.616	1	14
611.786	1	7
611.955	1	1
612.125	1	6
612.295	1	1
612.465	1	2
612.634	1	-1
612.804	1	7
612.974	1	-5
613.143	1	-5
613.313	1	3
613.483	1	10
613.652	1	8
613.822	1	-2
613.992	1	-5
614.162	1	-8
614.331	1	0
614.501	1	-2
614.671	1	-1
614.840	1	-3
615.010	1	5
615.180	1	10
615.349	1	4
615.519	1	2
615.689	1	-13
615.858	1	7
616.028	1	1
616.198	1	-3
616.368	1	-1
616.537	1	0
616.707	1	-1
616.877	1	-1
617.046	1	14
617.216	1	-1
617.386	1	7
617.555	1	-3
617.725	1	7
617.895	1	-5
618.064	1	-1
618.234	1	-6
618.404	1	-8
618.573	1	0
618.743	1	14
618.913	1	5
619.082	1	0
619.252	1	-8
619.422	1	-2
619.591	1	-5
619.761	1	2
619.931	1	3
620.100	1	7
620.270	1	3
620.440	1	7
620.609	1	1
620.779	1	8
620.949	1	-7
621.118	1	11
621.288	1	-2
621.458	1	6
621.627	1	9
621.797	1	-8
621.967	1	5
622.136	1	7
622.306	1	8
622.476	1	-3
622.645	1	-2
622.815	1	-3
622.985	1	-1
623.154	1	0
623.324	1	-3
623.494	1	-3
623.663	1	-1
623.833	1	11
624.002	1	-9
624.172	1	2
624.342	1	5
624.511	1	3
624.681	1	-3
624.851	1	-10
625.020	1	-3
625.190	1	-2
625.360	1	2
625.529	1	-8
625.699	1	-2
625.869	1	5
626.038	1	-5
626.208	1	13
626.377	1	-2
626.547	1	1
626.717	1	-21
626.886	1	-2
627.056	1	-4
627.226	1	25
627.395	1	-3
627.565	1	0
627.735	1	-4
627.904	1	16
628.074	1	6
628.243	1	0
628.413	1	3
628.583	1	1
628.752	1	-7
628.922	1	-7
629.091	1	-1
629.261	1	5
629.431	1	3
629.600	1	5
629.770	1	2
629.940	1	-12
630.109	1	0
630.279	1	3
630.448	1	-8
630.618	1	4
630.788	1	6
630.957	1	6
631.127	1	-5
631.297	1	-8
631.466	1	-1
631.636	1	3
631.805	1	1
631.975	1	-1
632.145	1	7
632.314	1	-2
632.484	1	10
632.653	1	-9
632.823	1	-4
632.993	1	4
633.162	1	7
633.332	1	-7
633.501	1	0
633.671	1	2
633.841	1	5
634.010	1	5
634.180	1	3
634.349	1	5
634.519	1	-3
634.689	1	-4
634.858	1	-7
635.028	1	-10
635.197	1	1
635.367	1	10
635.537	1	8
635.706	1	-1
635.876	1	0
636.045	1	2
636.215	1	14
636.384	1	-3
636.554	1	-1
636.724	1	0
636.893	1	6
637.063	1	-5
637.232	1	7
637.402	1	-2
637.572	1	-3
637.741	1	-9
637.911	1	-5
638.080	1	5
638.250	1	-1
638.419	1	-5
638.589	1	2
638.759	1	-12
638.928	1	1
639.098	1	0
639.267	1	7
639.437	1	6
639.606	1	9
639.776	1	-6
639.946	1	1
640.115	1	-5
640.285	1	5
640.454	1	5
640.624	1	4
640.793	1	9
640.963	1	-1
641.132	1	4
641.302	1	4
641.472	1	6
641.641	1	6
641.811	1	1
641.980	1	-5
642.150	1	-6
642.319	1	6
642.489	1	5
642.659	1	11
642.828	1	-7
642.998	1	6
643.167	1	-10
643.337	1	0
643.506	1	-3
643.676	1	-8
643.845	1	9
644.015	1	1
644.184	1	-13
644.354	1	5
644.524	1	-7
644.693	1	1
644.863	1	2
645.032	1	4
645.202	1	2
645.371	1	-8
645.541	1	-5
645.710	1	-3
645.880	1	-12
646.049	1	2
646.219	1	-14
646.388	1	3
646.558	1	-15
646.728	1	-3
646.897	1	1
647.067	1	-1
647.236	1	16
647.406	1	4
647.575	1	5
647.745	1	-3
647.914	1	-6
648.084	1	1
648.253	1	4
648.423	1	-1
648.592	1	-10
648.762	1	0
648.931	1	2
649.101	1	-7
649.270	1	2
649.440	1	-1
649.610	1	0
649.779	1	2
649.949	1	0
650.118	1	-7
650.288	1	5
650.457	1	3
650.627	1	12
650.796	1	-2
650.966	1	-6
651.135	1	-1
651.305	1	-3
651.474	1	12
651.644	1	15
651.813	1	3
651.983	1	-7
652.152	1	4
652.322	1	-2
652.491	1	1
652.661	1	-1
652.830	1	4
653.000	1	4
653.169	1	3
653.339	1	3
653.508	1	-3
653.678	1	-3
653.847	1	-10
654.017	1	4
654.186	1	0
654.356	1	-4
654.525	1	-11
654.695	1	3
654.864	1	-1
655.034	1	0
655.203	1	5
655.373	1	2
655.542	1	-8
655.712	1	-2
655.881	1	7
656.051	1	11
656.220	1	0
656.390	1	-4
656.559	1	-2
656.729	1	0
656.898	1	3
657.068	1	-5
657.237	1	4
657.406	1	1
657.576	1	-8
657.745	1	0
657.915	1	-1
658.084	1	-4
658.254	1	3
658.423	1	0
658.593	1	3
658.762	1	3
658.932	1	-6
659.101	1	-7
659.271	1	3
659.440	1	9
659.610	1	-5
659.779	1	11
659.949	1	5
660.118	1	3
660.288	1	-6
660.457	1	3
660.626	1	1
660.796	1	2
660.965	1	3
661.135	1	-8
661.304	1	-4
661.474	1	2
661.643	1	-1
661.813	1	9
661.982	1	3
662.152	1	-8
662.321	1	-4
662.491	1	-8
662.660	1	3
662.829	1	4
662.999	1	-6
663.168	1	4
663.338	1	11
663.507	1	1
663.677	1	5
663.846	1	1
664.016	1	-6
664.185	1	-5
664.354	1	7
664.524	1	8
664.693	1	-3
664.863	1	6
665.032	1	-4
665.202	1	-11
665.371	1	-9
665.541	1	13
665.710	1	0
665.879	1	-6
666.049	1	-4
666.218	1	-3
666.388	1	-2
666.557	1	4
666.727	1	1
666.896	1	10
667.065	1	1
667.235	1	15
667.404	1	-10
667.574	1	4
667.743	1	-2
667.913	1	10
668.082	1	1
668.251	1	5
668.421	1	4
668.590	1	1
668.760	1	-1
668.929	1	15
669.099	1	1
669.268	1	-2
669.437	1	1
669.607	1	9
669.776	1	-1
669.946	1	-6
670.115	1	-12
670.285	1	6
670.454	1	-5
670.623	1	-5
670.793	1	7
670.962	1	-4
671.132	1	-3
671.301	1	5
671.470	1	4
671.640	1	-4
671.809	1	-8
671.979	1	13
672.148	1	9
672.317	1	-11
672.487	1	-2
672.656	1	0
672.826	1	1
672.995	1	1
673.164	1	-8
673.334	1	5
673.503	1	-9
673.673	1	0
673.842	1	5
674.011	1	13
674.181	1	10
674.350	1	-2
674.520	1	-1
674.689	1	-8
674.858	1	-4
675.028	1	7
675.197	1	8
675.367	1	5
675.536	1	1
675.705	1	-7
675.875	1	0
676.044	1	-12
676.214	1	3
676.383	1	6
676.552	1	5
676.722	1	-1
676.891	1	11
677.060	1	-9
677.230	1	4
677.399	1	-10
677.569	1	8
677.738	1	4
677.907	1	1
678.077	1	0
678.246	1	0
678.416	1	-2
678.585	1	-4
678.754	1	2
678.924	1	7
679.093	1	-6
679.262	1	-8
679.432	1	4
679.601	1	-1
679.771	1	1
679.940	1	-6
680.109	1	2
680.279	1	-3
680.448	1	11
680.617	1	-6
680.787	1	-1
680.956	1	0
681.125	1	3
681.295	1	-3
681.464	1	-3
681.634	1	4
681.803	1	1
681.972	1	-6
682.142	1	3
682.311	1	-10
682.480	1	6
682.650	1	3
682.819	1	10
682.988	1	2
683.158	1	-1
683.327	1	4
683.496	1	-1
683.666	1	7
683.835	1	-3
684.004	1	12
684.174	1	-5
684.343	1	1
684.512	1	4
684.682	1	-4
684.851	1	1
685.021	1	-7
685.190	1	-5
685.359	1	-11
685.529	1	6
685.698	1	3
685.867	1	-1
686.037	1	5
686.206	1	-3
686.375	1	5
686.545	1	-2
686.714	1	3
686.883	1	3
687.053	1	-9
687.222	1	-3
687.391	1	16
687.561	1	8
687.730	1	-2
687.899	1	-5
688.069	1	2
688.238	1	-11
688.407	1	0
688.577	1	3
688.746	1	2
