340.368	1	5
340.539	1	9
340.710	1	1
340.881	1	8
341.052	1	3
341.223	1	12
341.394	1	-2
341.565	1	8
341.737	1	6
341.908	1	8
342.079	1	-1
342.250	1	7
342.421	1	9
342.592	1	-6
342.763	1	4
342.934	1	9
343.105	1	-8
343.276	1	4
343.447	1	-5
343.618	1	10
343.789	1	4
343.960	1	1
344.131	1	9
344.302	1	3
344.473	1	-7
344.644	1	9
344.815	1	-11
344.986	1	4
345.157	1	10
345.328	1	-3
345.499	1	14
345.670	1	5
345.841	1	4
346.012	1	12
346.183	1	16
346.354	1	6
346.526	1	5
346.697	1	14
346.868	1	9
347.039	1	-1
347.210	1	3
347.381	1	-1
347.552	1	12
347.723	1	7
347.894	1	7
348.065	1	11
348.236	1	17
348.407	1	5
348.578	1	12
348.749	1	5
348.920	1	1
349.091	1	5
349.262	1	0
349.433	1	10
349.604	1	-1
349.775	1	14
349.946	1	1
350.117	1	8
350.288	1	3
350.459	1	5
350.630	1	12
350.801	1	12
350.972	1	8
351.143	1	14
351.314	1	3
351.485	1	11
351.656	1	-1
351.827	1	2
351.998	1	14
352.169	1	10
352.340	1	8
352.511	1	11
352.682	1	12
352.853	1	10
353.024	1	16
353.195	1	8
353.366	1	9
353.537	1	11
353.708	1	14
353.879	1	2
354.050	1	21
354.221	1	9
354.392	1	21
354.563	1	17
354.734	1	6
354.905	1	20
355.076	1	21
355.247	1	9
355.418	1	9
355.589	1	14
355.760	1	26
355.931	1	25
356.102	1	15
356.273	1	15
356.444	1	27
356.615	1	12
356.785	1	13
356.956	1	25
357.127	1	19
357.298	1	32
357.469	1	29
357.640	1	22
357.811	1	25
357.982	1	32
358.153	1	27
358.324	1	38
358.495	1	28
358.666	1	30
358.837	1	37
359.008	1	40
359.179	1	44
359.350	1	39
359.521	1	49
359.692	1	48
359.863	1	43
360.034	1	56
360.205	1	45
360.376	1	58
360.547	1	49
360.718	1	59
360.889	1	65
361.060	1	77
361.231	1	70
361.401	1	77
361.572	1	96
361.743	1	100
361.914	1	107
362.085	1	113
362.256	1	126
362.427	1	98
362.598	1	132
362.769	1	141
362.940	1	138
363.111	1	170
363.282	1	182
363.453	1	186
363.624	1	201
363.795	1	223
363.966	1	240
364.137	1	257
364.308	1	269
364.478	1	281
364.649	1	302
364.820	1	322
364.991	1	367
365.162	1	364
365.333	1	404
365.504	1	411
365.675	1	430
365.846	1	453
366.017	1	471
366.188	1	481
366.359	1	504
366.530	1	528
366.701	1	522
366.871	1	548
367.042	1	536
367.213	1	525
367.384	1	509
367.555	1	545
367.726	1	510
367.897	1	510
368.068	1	509
368.239	1	492
368.410	1	479
368.581	1	459
368.752	1	465
368.923	1	431
369.093	1	402
369.264	1	370
369.435	1	380
369.606	1	352
369.777	1	354
369.948	1	337
370.119	1	315
370.290	1	300
370.461	1	290
370.632	1	275
370.803	1	273
370.973	1	262
371.144	1	255
371.315	1	238
371.486	1	251
371.657	1	219
371.828	1	219
371.999	1	200
372.170	1	209
372.341	1	190
372.512	1	194
372.682	1	181
372.853	1	192
373.024	1	173
373.195	1	173
373.366	1	161
373.537	1	179
373.708	1	157
373.879	1	170
374.050	1	165
374.220	1	161
374.391	1	152
374.562	1	139
374.733	1	127
374.904	1	142
375.075	1	125
375.246	1	117
375.417	1	124
375.588	1	126
375.758	1	114
375.929	1	110
376.100	1	111
376.271	1	117
376.442	1	98
376.613	1	100
376.784	1	108
376.955	1	93
377.125	1	104
377.296	1	104
377.467	1	107
377.638	1	99
377.809	1	103
377.980	1	93
378.151	1	97
378.321	1	94
378.492	1	113
378.663	1	93
378.834	1	114
379.005	1	85
379.176	1	95
379.347	1	108
379.518	1	96
379.688	1	105
379.859	1	116
380.030	1	110
380.201	1	117
380.372	1	110
380.543	1	135
380.714	1	123
380.884	1	138
381.055	1	126
381.226	1	143
381.397	1	161
381.568	1	175
381.739	1	166
381.910	1	182
382.080	1	186
382.251	1	192
382.422	1	205
382.593	1	219
382.764	1	230
382.935	1	242
383.105	1	241
383.276	1	272
383.447	1	287
383.618	1	301
383.789	1	302
383.960	1	306
384.130	1	328
384.301	1	355
384.472	1	369
384.643	1	363
384.814	1	395
384.985	1	388
385.156	1	407
385.326	1	433
385.497	1	416
385.668	1	464
385.839	1	453
386.010	1	465
386.180	1	469
386.351	1	482
386.522	1	453
386.693	1	490
386.864	1	462
387.035	1	470
387.205	1	466
387.376	1	481
387.547	1	486
387.718	1	460
387.889	1	449
388.060	1	460
388.230	1	465
388.401	1	434
388.572	1	440
388.743	1	421
388.914	1	418
389.084	1	433
389.255	1	420
389.426	1	427
389.597	1	425
389.768	1	433
389.939	1	415
390.109	1	408
390.280	1	408
390.451	1	433
390.622	1	421
390.793	1	432
390.963	1	413
391.134	1	415
391.305	1	400
391.476	1	424
391.647	1	405
391.817	1	414
391.988	1	397
392.159	1	413
392.330	1	386
392.501	1	393
392.671	1	397
392.842	1	388
393.013	1	369
393.184	1	378
393.355	1	371
393.525	1	369
393.696	1	356
393.867	1	362
394.038	1	366
394.208	1	373
394.379	1	353
394.550	1	364
394.721	1	352
394.892	1	345
395.062	1	365
395.233	1	368
395.404	1	365
395.575	1	368
395.746	1	376
395.916	1	388
396.087	1	387
396.258	1	394
396.429	1	405
396.599	1	398
396.770	1	392
396.941	1	413
397.112	1	399
397.283	1	416
397.453	1	434
397.624	1	429
397.795	1	425
397.966	1	452
398.136	1	420
398.307	1	421
398.478	1	416
398.649	1	418
398.819	1	429
398.990	1	409
399.161	1	419
399.332	1	405
399.503	1	402
399.673	1	379
399.844	1	388
400.015	1	376
400.186	1	361
400.356	1	371
400.527	1	365
400.698	1	350
400.869	1	315
401.039	1	340
401.210	1	335
401.381	1	311
401.552	1	305
401.722	1	293
401.893	1	296
402.064	1	296
402.235	1	277
402.405	1	304
402.576	1	278
402.747	1	272
402.918	1	302
403.088	1	272
403.259	1	279
403.430	1	282
403.601	1	283
403.771	1	295
403.942	1	286
404.113	1	292
404.284	1	262
404.454	1	275
404.625	1	269
404.796	1	284
404.967	1	261
405.137	1	259
405.308	1	275
405.479	1	266
405.649	1	273
405.820	1	269
405.991	1	270
406.162	1	262
406.332	1	253
406.503	1	268
406.674	1	264
406.845	1	261
407.015	1	253
407.186	1	264
407.357	1	248
407.527	1	239
407.698	1	244
407.869	1	250
408.040	1	262
408.210	1	232
408.381	1	237
408.552	1	228
408.722	1	239
408.893	1	239
409.064	1	235
409.235	1	228
409.405	1	236
409.576	1	223
409.747	1	229
409.917	1	225
410.088	1	228
410.259	1	219
410.430	1	222
410.600	1	212
410.771	1	219
410.942	1	211
411.112	1	196
411.283	1	219
411.454	1	207
411.625	1	209
411.795	1	210
411.966	1	210
412.137	1	200
412.307	1	213
412.478	1	198
412.649	1	199
412.819	1	187
412.990	1	179
413.161	1	171
413.332	1	188
413.502	1	161
413.673	1	193
413.844	1	181
414.014	1	168
414.185	1	161
414.356	1	161
414.526	1	160
414.697	1	172
414.868	1	145
415.038	1	161
415.209	1	155
415.380	1	170
415.550	1	156
415.721	1	148
415.892	1	168
416.063	1	167
416.233	1	151
416.404	1	155
416.575	1	152
416.745	1	158
416.916	1	152
417.087	1	146
417.257	1	153
417.428	1	156
417.599	1	146
417.769	1	138
417.940	1	135
418.111	1	156
418.281	1	143
418.452	1	149
418.623	1	140
418.793	1	150
418.964	1	143
419.135	1	150
419.305	1	144
419.476	1	144
419.647	1	145
419.817	1	148
419.988	1	143
420.159	1	139
420.329	1	139
420.500	1	150
420.671	1	128
420.841	1	122
421.012	1	122
421.183	1	135
421.353	1	132
421.524	1	143
421.695	1	108
421.865	1	130
422.036	1	117
422.206	1	114
422.377	1	112
422.548	1	110
422.718	1	105
422.889	1	101
423.060	1	101
423.230	1	112
423.401	1	102
423.572	1	118
423.742	1	106
423.913	1	95
424.084	1	97
424.254	1	98
424.425	1	102
424.595	1	95
424.766	1	99
424.937	1	100
425.107	1	98
425.278	1	85
425.449	1	94
425.619	1	96
425.790	1	93
425.961	1	104
426.131	1	92
426.302	1	103
426.472	1	88
426.643	1	100
426.814	1	92
426.984	1	103
427.155	1	89
427.326	1	96
427.496	1	92
427.667	1	89
427.837	1	97
428.008	1	97
428.179	1	81
428.349	1	86
428.520	1	86
428.691	1	88
428.861	1	90
429.032	1	89
429.202	1	85
429.373	1	83
429.544	1	79
429.714	1	87
429.885	1	85
430.055	1	81
430.226	1	82
430.397	1	75
430.567	1	71
430.738	1	80
430.909	1	71
431.079	1	73
431.250	1	68
431.420	1	71
431.591	1	70
431.762	1	73
431.932	1	73
432.103	1	75
432.273	1	74
432.444	1	56
432.615	1	62
432.785	1	72
432.956	1	71
433.126	1	62
433.297	1	64
433.468	1	68
433.638	1	61
433.809	1	69
433.979	1	60
434.150	1	66
434.320	1	60
434.491	1	66
434.662	1	64
434.832	1	65
435.003	1	68
435.173	1	67
435.344	1	57
435.515	1	53
435.685	1	55
435.856	1	59
436.026	1	57
436.197	1	55
436.368	1	46
436.538	1	66
436.709	1	47
436.879	1	55
437.050	1	63
437.220	1	43
437.391	1	59
437.562	1	56
437.732	1	53
437.903	1	46
438.073	1	46
438.244	1	41
438.414	1	54
438.585	1	54
438.756	1	54
438.926	1	50
439.097	1	59
439.267	1	51
439.438	1	55
439.608	1	44
439.779	1	38
439.949	1	37
440.120	1	47
440.291	1	50
440.461	1	50
440.632	1	57
440.802	1	46
440.973	1	45
441.143	1	45
441.314	1	39
441.485	1	38
441.655	1	41
441.826	1	45
441.996	1	50
442.167	1	36
442.337	1	47
442.508	1	43
442.678	1	31
442.849	1	27
443.019	1	46
443.190	1	50
443.361	1	52
443.531	1	44
443.702	1	34
443.872	1	44
444.043	1	56
444.213	1	48
444.384	1	43
444.554	1	40
444.725	1	36
444.895	1	39
445.066	1	43
445.237	1	32
445.407	1	31
445.578	1	40
445.748	1	35
445.919	1	35
446.089	1	38
446.260	1	41
446.430	1	28
446.601	1	44
446.771	1	37
446.942	1	38
447.112	1	38
447.283	1	29
447.453	1	36
447.624	1	29
447.794	1	41
447.965	1	33
448.135	1	30
448.306	1	34
448.477	1	38
448.647	1	26
448.818	1	33
448.988	1	29
449.159	1	38
449.329	1	27
449.500	1	25
449.670	1	30
449.841	1	32
450.011	1	36
450.182	1	27
450.352	1	39
450.523	1	34
450.693	1	32
450.864	1	41
451.034	1	49
451.205	1	32
451.375	1	35
451.546	1	24
451.716	1	37
451.887	1	19
452.057	1	36
452.228	1	33
452.398	1	29
452.569	1	17
452.739	1	28
452.910	1	15
453.080	1	27
453.251	1	24
453.421	1	22
453.592	1	38
453.762	1	33
453.933	1	19
454.103	1	29
454.274	1	32
454.444	1	15
454.615	1	40
454.785	1	31
454.956	1	33
455.126	1	31
455.297	1	30
455.467	1	22
455.638	1	31
455.808	1	38
455.979	1	36
456.149	1	31
456.320	1	41
456.490	1	26
456.661	1	25
456.831	1	33
457.001	1	31
457.172	1	32
457.342	1	41
457.513	1	35
457.683	1	28
457.854	1	28
458.024	1	21
458.195	1	22
458.365	1	40
458.536	1	21
458.706	1	28
458.877	1	23
459.047	1	39
459.218	1	26
459.388	1	34
459.559	1	29
459.729	1	16
459.899	1	24
460.070	1	28
460.240	1	17
460.411	1	23
460.581	1	26
460.752	1	23
460.922	1	43
461.093	1	26
461.263	1	29
461.434	1	28
461.604	1	26
461.775	1	25
461.945	1	24
462.115	1	16
462.286	1	20
462.456	1	44
462.627	1	27
462.797	1	13
462.968	1	20
463.138	1	19
463.309	1	26
463.479	1	25
463.649	1	12
463.820	1	25
463.990	1	25
464.161	1	18
464.331	1	33
464.502	1	22
464.672	1	10
464.843	1	13
465.013	1	18
465.183	1	22
465.354	1	27
465.524	1	18
465.695	1	34
465.865	1	19
466.036	1	31
466.206	1	28
466.376	1	14
466.547	1	23
466.717	1	22
466.888	1	18
467.058	1	20
467.229	1	15
467.399	1	20
467.569	1	18
467.740	1	24
467.910	1	18
468.081	1	21
468.251	1	19
468.422	1	9
468.592	1	27
468.762	1	8
468.933	1	14
469.103	1	20
469.274	1	11
469.444	1	26
469.614	1	22
469.785	1	24
469.955	1	18
470.126	1	19
470.296	1	23
470.467	1	12
470.637	1	12
470.807	1	26
470.978	1	16
471.148	1	10
471.319	1	21
471.489	1	13
471.659	1	19
471.830	1	28
472.000	1	17
472.171	1	17
472.341	1	11
472.511	1	29
472.682	1	-7
472.852	1	9
473.023	1	16
473.193	1	21
473.363	1	16
473.534	1	12
473.704	1	18
473.875	1	4
474.045	1	22
474.215	1	21
474.386	1	29
474.556	1	25
474.727	1	15
474.897	1	17
475.067	1	4
475.238	1	7
475.408	1	10
475.578	1	17
475.749	1	27
475.919	1	22
476.090	1	27
476.260	1	31
476.430	1	30
476.601	1	29
476.771	1	20
476.942	1	19
477.112	1	24
477.282	1	24
477.453	1	14
477.623	1	26
477.793	1	26
477.964	1	26
478.134	1	28
478.305	1	23
478.475	1	15
478.645	1	29
478.816	1	11
478.986	1	16
479.156	1	20
479.327	1	19
479.497	1	19
479.667	1	41
479.838	1	4
480.008	1	20
480.179	1	11
480.349	1	8
480.519	1	24
480.690	1	19
480.860	1	22
481.030	1	27
481.201	1	16
481.371	1	28
481.541	1	32
481.712	1	17
481.882	1	19
482.053	1	31
482.223	1	18
482.393	1	25
482.564	1	26
482.734	1	22
482.904	1	18
483.075	1	29
483.245	1	26
483.415	1	22
483.586	1	27
483.756	1	23
483.926	1	11
484.097	1	32
484.267	1	21
484.437	1	23
484.608	1	30
484.778	1	23
484.948	1	28
485.119	1	24
485.289	1	26
485.459	1	29
485.630	1	37
485.800	1	26
485.970	1	24
486.141	1	30
486.311	1	31
486.481	1	31
486.652	1	25
486.822	1	15
486.992	1	42
487.163	1	27
487.333	1	26
487.503	1	33
487.674	1	29
487.844	1	30
488.014	1	41
488.185	1	32
488.355	1	37
488.525	1	30
488.696	1	35
488.866	1	24
489.036	1	39
489.207	1	38
489.377	1	42
489.547	1	38
489.718	1	27
489.888	1	41
490.058	1	51
490.228	1	34
490.399	1	41
490.569	1	52
490.739	1	47
490.910	1	29
491.080	1	38
491.250	1	42
491.421	1	43
491.591	1	36
491.761	1	48
491.932	1	46
492.102	1	50
492.272	1	43
492.442	1	46
492.613	1	47
492.783	1	49
492.953	1	49
493.124	1	58
493.294	1	57
493.464	1	48
493.635	1	42
493.805	1	56
493.975	1	43
494.145	1	50
494.316	1	52
494.486	1	56
494.656	1	51
494.827	1	55
494.997	1	52
495.167	1	52
495.337	1	52
495.508	1	44
495.678	1	58
495.848	1	48
496.019	1	58
496.189	1	57
496.359	1	50
496.529	1	58
496.700	1	52
496.870	1	60
497.040	1	61
497.211	1	52
497.381	1	65
497.551	1	54
497.721	1	54
497.892	1	64
498.062	1	58
498.232	1	68
498.403	1	56
498.573	1	74
498.743	1	62
498.913	1	62
499.084	1	69
499.254	1	60
499.424	1	54
499.594	1	59
499.765	1	72
499.935	1	68
500.105	1	68
500.275	1	71
500.446	1	76
500.616	1	59
500.786	1	81
500.956	1	76
501.127	1	84
501.297	1	74
501.467	1	79
501.638	1	79
501.808	1	80
501.978	1	75
502.148	1	79
502.319	1	90
502.489	1	74
502.659	1	83
502.829	1	87
503.000	1	83
503.170	1	89
503.340	1	93
503.510	1	75
503.681	1	84
503.851	1	100
504.021	1	90
504.191	1	96
504.362	1	96
504.532	1	90
504.702	1	92
504.872	1	87
505.042	1	90
505.213	1	102
505.383	1	101
505.553	1	102
505.723	1	106
505.894	1	104
506.064	1	115
506.234	1	108
506.404	1	102
506.575	1	107
506.745	1	117
506.915	1	113
507.085	1	107
507.256	1	113
507.426	1	112
507.596	1	107
507.766	1	112
507.936	1	121
508.107	1	125
508.277	1	116
508.447	1	114
508.617	1	112
508.788	1	135
508.958	1	120
509.128	1	117
509.298	1	114
509.468	1	129
509.639	1	121
509.809	1	122
509.979	1	134
510.149	1	135
510.319	1	113
510.490	1	118
510.660	1	120
510.830	1	139
511.000	1	122
511.171	1	113
511.341	1	129
511.511	1	132
511.681	1	134
511.851	1	122
512.022	1	123
512.192	1	119
512.362	1	126
512.532	1	123
512.702	1	146
512.873	1	120
513.043	1	136
513.213	1	148
513.383	1	120
513.553	1	132
513.724	1	127
513.894	1	130
514.064	1	140
514.234	1	132
514.404	1	137
514.575	1	125
514.745	1	144
514.915	1	122
515.085	1	133
515.255	1	141
515.425	1	146
515.596	1	145
515.766	1	156
515.936	1	145
516.106	1	152
516.276	1	143
516.447	1	152
516.617	1	139
516.787	1	152
516.957	1	149
517.127	1	156
517.297	1	163
517.468	1	140
517.638	1	154
517.808	1	141
517.978	1	149
518.148	1	178
518.319	1	149
518.489	1	156
518.659	1	166
518.829	1	160
518.999	1	164
519.169	1	167
519.340	1	179
519.510	1	153
519.680	1	170
519.850	1	162
520.020	1	185
520.190	1	170
520.361	1	170
520.531	1	173
520.701	1	185
520.871	1	177
521.041	1	191
521.211	1	185
521.382	1	171
521.552	1	166
521.722	1	174
521.892	1	186
522.062	1	186
522.232	1	185
522.402	1	187
522.573	1	181
522.743	1	177
522.913	1	179
523.083	1	177
523.253	1	186
523.423	1	177
523.593	1	188
523.764	1	182
523.934	1	186
524.104	1	178
524.274	1	166
524.444	1	181
524.614	1	168
524.784	1	176
524.955	1	181
525.125	1	194
525.295	1	185
525.465	1	183
525.635	1	181
525.805	1	181
525.975	1	149
526.146	1	166
526.316	1	179
526.486	1	186
526.656	1	181
526.826	1	183
526.996	1	185
527.166	1	177
527.337	1	185
527.507	1	181
527.677	1	195
527.847	1	177
528.017	1	182
528.187	1	192
528.357	1	200
528.527	1	188
528.698	1	181
528.868	1	183
529.038	1	188
529.208	1	181
529.378	1	197
529.548	1	195
529.718	1	194
529.888	1	199
530.058	1	193
530.229	1	181
530.399	1	169
530.569	1	184
530.739	1	192
530.909	1	196
531.079	1	190
531.249	1	194
531.419	1	206
531.589	1	202
531.760	1	196
531.930	1	193
532.100	1	184
532.270	1	196
532.440	1	194
532.610	1	207
532.780	1	196
532.950	1	204
533.120	1	203
533.290	1	204
533.461	1	198
533.631	1	198
533.801	1	204
533.971	1	201
534.141	1	199
534.311	1	206
534.481	1	210
534.651	1	191
534.821	1	191
534.991	1	195
535.162	1	178
535.332	1	204
535.502	1	193
535.672	1	180
535.842	1	193
536.012	1	172
536.182	1	196
536.352	1	194
536.522	1	166
536.692	1	187
536.862	1	178
537.032	1	174
537.203	1	191
537.373	1	196
537.543	1	175
537.713	1	180
537.883	1	175
538.053	1	178
538.223	1	183
538.393	1	172
538.563	1	190
538.733	1	176
538.903	1	168
539.073	1	163
539.243	1	169
539.413	1	174
539.584	1	174
539.754	1	164
539.924	1	169
540.094	1	171
540.264	1	161
540.434	1	173
540.604	1	171
540.774	1	173
540.944	1	164
541.114	1	150
541.284	1	163
541.454	1	165
541.624	1	163
541.794	1	182
541.964	1	156
542.134	1	169
542.305	1	175
542.475	1	146
542.645	1	168
542.815	1	150
542.985	1	147
543.155	1	154
543.325	1	173
543.495	1	168
543.665	1	147
543.835	1	150
544.005	1	163
544.175	1	152
544.345	1	156
544.515	1	158
544.685	1	161
544.855	1	143
545.025	1	167
545.195	1	153
545.365	1	156
545.535	1	154
545.705	1	165
545.875	1	161
546.045	1	155
546.216	1	150
546.386	1	144
546.556	1	160
546.726	1	142
546.896	1	160
547.066	1	164
547.236	1	160
547.406	1	148
547.576	1	155
547.746	1	162
547.916	1	162
548.086	1	169
548.256	1	145
548.426	1	159
548.596	1	165
548.766	1	164
548.936	1	175
549.106	1	158
549.276	1	156
549.446	1	162
549.616	1	167
549.786	1	153
549.956	1	162
550.126	1	155
550.296	1	167
550.466	1	178
550.636	1	173
550.806	1	160
550.976	1	166
551.146	1	156
551.316	1	158
551.486	1	168
551.656	1	146
551.826	1	180
551.996	1	155
552.166	1	161
552.336	1	156
552.506	1	156
552.676	1	142
552.846	1	149
553.016	1	148
553.186	1	164
553.356	1	160
553.526	1	147
553.696	1	160
553.866	1	153
554.036	1	136
554.206	1	146
554.376	1	127
554.546	1	147
554.716	1	136
554.886	1	144
555.056	1	124
555.226	1	141
555.396	1	128
555.566	1	144
555.736	1	135
555.906	1	130
556.076	1	134
556.246	1	125
556.416	1	131
556.586	1	124
556.756	1	124
556.926	1	117
557.096	1	137
557.266	1	113
557.436	1	130
557.606	1	125
557.776	1	131
557.946	1	132
558.116	1	117
558.286	1	121
558.456	1	112
558.626	1	110
558.796	1	122
558.966	1	119
559.136	1	122
559.306	1	118
559.476	1	122
559.646	1	119
559.816	1	109
559.986	1	119
560.155	1	116
560.325	1	109
560.495	1	110
560.665	1	104
560.835	1	107
561.005	1	113
561.175	1	109
561.345	1	99
561.515	1	102
561.685	1	94
561.855	1	102
562.025	1	102
562.195	1	109
562.365	1	99
562.535	1	108
562.705	1	110
562.875	1	103
563.045	1	96
563.215	1	98
563.385	1	97
563.555	1	100
563.725	1	104
563.895	1	95
564.064	1	98
564.234	1	98
564.404	1	112
564.574	1	107
564.744	1	97
564.914	1	98
565.084	1	90
565.254	1	108
565.424	1	99
565.594	1	84
565.764	1	91
565.934	1	96
566.104	1	94
566.274	1	96
566.444	1	89
566.614	1	98
566.783	1	97
566.953	1	83
567.123	1	97
567.293	1	93
567.463	1	90
567.633	1	94
567.803	1	89
567.973	1	105
568.143	1	85
568.313	1	87
568.483	1	97
568.653	1	81
568.823	1	89
568.993	1	91
569.162	1	90
569.332	1	93
569.502	1	103
569.672	1	90
569.842	1	85
570.012	1	85
570.182	1	86
570.352	1	92
570.522	1	82
570.692	1	99
570.862	1	91
571.031	1	76
571.201	1	91
571.371	1	80
571.541	1	84
571.711	1	78
571.881	1	87
572.051	1	81
572.221	1	76
572.391	1	87
572.561	1	84
572.731	1	86
572.900	1	68
573.070	1	87
573.240	1	78
573.410	1	71
573.580	1	68
573.750	1	92
573.920	1	79
574.090	1	83
574.260	1	73
574.430	1	76
574.599	1	78
574.769	1	73
574.939	1	67
575.109	1	63
575.279	1	75
575.449	1	72
575.619	1	70
575.789	1	74
575.959	1	79
576.128	1	64
576.298	1	75
576.468	1	78
576.638	1	65
576.808	1	63
576.978	1	62
577.148	1	63
577.318	1	78
577.487	1	63
577.657	1	70
577.827	1	61
577.997	1	76
578.167	1	72
578.337	1	60
578.507	1	58
578.677	1	68
578.846	1	64
579.016	1	60
579.186	1	78
579.356	1	57
579.526	1	57
579.696	1	77
579.866	1	62
580.036	1	72
580.205	1	56
580.375	1	74
580.545	1	67
580.715	1	59
580.885	1	54
581.055	1	55
581.225	1	72
581.394	1	45
581.564	1	58
581.734	1	58
581.904	1	48
582.074	1	57
582.244	1	46
582.414	1	56
582.583	1	60
582.753	1	75
582.923	1	65
583.093	1	71
583.263	1	53
583.433	1	64
583.603	1	39
583.772	1	44
583.942	1	63
584.112	1	58
584.282	1	59
584.452	1	62
584.622	1	56
584.791	1	48
584.961	1	47
585.131	1	67
585.301	1	51
585.471	1	49
585.641	1	58
585.811	1	48
585.980	1	58
586.150	1	52
586.320	1	53
586.490	1	67
586.660	1	49
586.830	1	40
586.999	1	47
587.169	1	57
587.339	1	57
587.509	1	54
587.679	1	51
587.849	1	67
588.018	1	50
588.188	1	58
588.358	1	40
588.528	1	56
588.698	1	34
588.867	1	52
589.037	1	45
589.207	1	52
589.377	1	52
589.547	1	47
589.717	1	43
589.886	1	54
590.056	1	50
590.226	1	43
590.396	1	40
590.566	1	34
590.735	1	38
590.905	1	49
591.075	1	37
591.245	1	52
591.415	1	52
591.585	1	53
591.754	1	42
591.924	1	49
592.094	1	36
592.264	1	38
592.434	1	40
592.603	1	34
592.773	1	36
592.943	1	47
593.113	1	42
593.283	1	39
593.452	1	35
593.622	1	48
593.792	1	55
593.962	1	46
594.132	1	46
594.301	1	48
594.471	1	43
594.641	1	40
594.811	1	41
594.981	1	29
595.150	1	57
595.320	1	38
595.490	1	42
595.660	1	41
595.829	1	28
595.999	1	36
596.169	1	41
596.339	1	41
596.509	1	40
596.678	1	40
596.848	1	48
597.018	1	37
597.188	1	23
597.358	1	36
597.527	1	34
597.697	1	32
597.867	1	34
598.037	1	39
598.206	1	44
598.376	1	26
598.546	1	36
598.716	1	15
598.885	1	42
599.055	1	40
599.225	1	38
599.395	1	41
599.565	1	30
599.734	1	39
599.904	1	20
600.074	1	41
600.244	1	32
600.413	1	35
600.583	1	28
600.753	1	40
600.923	1	35
601.092	1	47
601.262	1	39
601.432	1	45
601.602	1	49
601.771	1	36
601.941	1	46
602.111	1	30
602.281	1	31
602.451	1	34
602.620	1	37
602.790	1	33
602.960	1	34
603.130	1	25
603.299	1	36
603.469	1	35
603.639	1	27
603.809	1	47
603.978	1	28
604.148	1	22
604.318	1	36
604.487	1	28
604.657	1	22
604.827	1	38
604.997	1	39
605.166	1	35
605.336	1	38
605.506	1	38
605.676	1	42
605.845	1	43
606.015	1	32
606.185	1	32
606.355	1	22
606.524	1	34
606.694	1	35
606.864	1	40
607.034	1	44
607.203	1	52
607.373	1	38
607.543	1	44
607.712	1	35
607.882	1	37
608.052	1	29
608.222	1	37
608.391	1	37
608.561	1	30
608.731	1	29
608.901	1	35
609.070	1	32
609.240	1	25
609.410	1	40
609.579	1	40
609.749	1	48
609.919	1	22
610.089	1	31
610.258	1	27
610.428	1	35
610.598	1	28
610.767	1	43
610.937	1	32
611.107	1	35
611.277	1	32
611.446	1	37
611.616	1	36
611.786	1	31
611.955	1	26
612.125	1	37
612.295	1	34
612.465	1	31
612.634	1	36
612.804	1	29
612.974	1	19
613.143	1	31
613.313	1	26
613.483	1	48
613.652	1	38
613.822	1	31
613.992	1	20
614.162	1	30
614.331	1	28
614.501	1	29
614.671	1	32
614.840	1	31
615.010	1	31
615.180	1	33
615.349	1	30
615.519	1	24
615.689	1	21
615.858	1	30
616.028	1	29
616.198	1	22
616.368	1	13
616.537	1	24
616.707	1	29
616.877	1	19
617.046	1	40
617.216	1	32
617.386	1	28
617.555	1	27
617.725	1	22
617.895	1	27
618.064	1	21
618.234	1	10
618.404	1	19
618.573	1	15
618.743	1	31
618.913	1	29
619.082	1	26
619.252	1	32
619.422	1	10
619.591	1	25
619.761	1	24
619.931	1	25
620.100	1	38
620.270	1	29
620.440	1	31
620.609	1	39
620.779	1	30
620.949	1	18
621.118	1	27
621.288	1	12
621.458	1	31
621.627	1	33
621.797	1	15
621.967	1	23
622.136	1	35
622.306	1	22
622.476	1	13
622.645	1	25
622.815	1	19
622.985	1	17
623.154	1	29
623.324	1	16
623.494	1	12
623.663	1	28
623.833	1	15
624.002	1	25
624.172	1	32
624.342	1	19
624.511	1	17
624.681	1	23
624.851	1	15
625.020	1	18
625.190	1	19
625.360	1	-1
625.529	1	12
625.699	1	14
625.869	1	18
626.038	1	17
626.208	1	32
626.377	1	23
626.547	1	24
626.717	1	5
626.886	1	2
627.056	1	23
627.226	1	14
627.395	1	12
627.565	1	28
627.735	1	23
627.904	1	25
628.074	1	18
628.243	1	22
628.413	1	9
628.583	1	16
628.752	1	11
628.922	1	29
629.091	1	21
629.261	1	34
629.431	1	31
629.600	1	19
629.770	1	34
629.940	1	8
630.109	1	15
630.279	1	33
630.448	1	19
630.618	1	26
630.788	1	20
630.957	1	21
631.127	1	13
631.297	1	11
631.466	1	19
631.636	1	23
631.805	1	17
631.975	1	13
632.145	1	16
632.314	1	11
632.484	1	20
632.653	1	24
632.823	1	19
632.993	1	20
633.162	1	26
633.332	1	13
633.501	1	16
633.671	1	13
633.841	1	21
634.010	1	28
634.180	1	23
634.349	1	20
634.519	1	15
634.689	1	15
634.858	1	8
635.028	1	11
635.197	1	13
635.367	1	16
635.537	1	21
635.706	1	21
635.876	1	9
636.045	1	15
636.215	1	29
636.384	1	16
636.554	1	18
636.724	1	14
636.893	1	18
637.063	1	16
637.232	1	13
637.402	1	15
637.572	1	21
637.741	1	18
637.911	1	8
638.080	1	16
638.250	1	17
638.419	1	9
638.589	1	24
638.759	1	12
638.928	1	19
639.098	1	18
639.267	1	23
639.437	1	18
639.606	1	14
639.776	1	12
639.946	1	20
640.115	1	13
640.285	1	21
640.454	1	12
640.624	1	21
640.793	1	8
640.963	1	13
641.132	1	17
641.302	1	11
641.472	1	15
641.641	1	15
641.811	1	12
641.980	1	19
642.150	1	8
642.319	1	16
642.489	1	13
642.659	1	21
642.828	1	12
642.998	1	19
643.167	1	14
643.337	1	14
643.506	1	18
643.676	1	10
643.845	1	19
644.015	1	9
644.184	1	8
644.354	1	11
644.524	1	21
644.693	1	15
644.863	1	28
645.032	1	17
645.202	1	15
645.371	1	8
645.541	1	21
645.710	1	17
645.880	1	1
646.049	1	13
646.219	1	11
646.388	1	13
646.558	1	24
646.728	1	14
646.897	1	7
647.067	1	9
647.236	1	21
647.406	1	26
647.575	1	26
647.745	1	22
647.914	1	7
648.084	1	22
648.253	1	9
648.423	1	15
648.592	1	-4
648.762	1	27
648.931	1	20
649.101	1	18
649.270	1	7
649.440	1	12
649.610	1	8
649.779	1	16
649.949	1	16
650.118	1	9
650.288	1	21
650.457	1	15
650.627	1	16
650.796	1	11
650.966	1	8
651.135	1	10
651.305	1	12
651.474	1	23
651.644	1	21
651.813	1	15
651.983	1	7
652.152	1	23
652.322	1	14
652.491	1	18
652.661	1	17
652.830	1	21
653.000	1	12
653.169	1	21
653.339	1	19
653.508	1	11
653.678	1	14
653.847	1	2
654.017	1	23
654.186	1	7
654.356	1	13
654.525	1	6
654.695	1	19
654.864	1	11
655.034	1	15
655.203	1	12
655.373	1	16
655.542	1	15
655.712	1	14
655.881	1	27
656.051	1	3
656.220	1	12
656.390	1	10
656.559	1	7
656.729	1	8
656.898	1	9
657.068	1	9
657.237	1	17
657.406	1	18
657.576	1	6
657.745	1	17
657.915	1	10
658.084	1	19
658.254	1	14
658.423	1	11
658.593	1	17
658.762	1	21
658.932	1	8
659.101	1	8
659.271	1	12
659.440	1	15
659.610	1	9
659.779	1	20
659.949	1	9
660.118	1	16
660.288	1	8
660.457	1	22
660.626	1	12
660.796	1	5
660.965	1	-1
661.135	1	3
661.304	1	15
661.474	1	3
661.643	1	9
661.813	1	13
661.982	1	8
662.152	1	8
662.321	1	1
662.491	1	6
662.660	1	14
662.829	1	14
662.999	1	16
663.168	1	14
663.338	1	21
663.507	1	10
663.677	1	14
663.846	1	12
664.016	1	6
664.185	1	11
664.354	1	15
664.524	1	12
664.693	1	9
664.863	1	12
665.032	1	10
665.202	1	5
665.371	1	4
665.541	1	28
665.710	1	5
665.879	1	10
666.049	1	9
666.218	1	7
666.388	1	19
666.557	1	23
666.727	1	15
666.896	1	12
667.065	1	7
667.235	1	23
667.404	1	1
667.574	1	6
667.743	1	11
667.913	1	23
668.082	1	5
668.251	1	16
668.421	1	6
668.590	1	17
668.760	1	10
668.929	1	19
669.099	1	3
669.268	1	0
669.437	1	7
669.607	1	11
669.776	1	7
669.946	1	10
670.115	1	-9
670.285	1	20
670.454	1	13
670.623	1	18
670.793	1	10
670.962	1	4
671.132	1	2
671.301	1	23
671.470	1	0
671.640	1	6
671.809	1	6
671.979	1	20
672.148	1	22
672.317	1	-3
672.487	1	10
672.656	1	-2
672.826	1	8
672.995	1	15
673.164	1	-3
673.334	1	10
673.503	1	6
673.673	1	7
673.842	1	18
674.011	1	16
674.181	1	17
674.350	1	6
674.520	1	16
674.689	1	5
674.858	1	-3
675.028	1	13
675.197	1	21
675.367	1	4
675.536	1	19
675.705	1	4
675.875	1	4
676.044	1	2
676.214	1	8
676.383	1	26
676.552	1	11
676.722	1	4
676.891	1	9
677.060	1	2
677.230	1	20
677.399	1	1
677.569	1	10
677.738	1	17
677.907	1	2
678.077	1	11
678.246	1	12
678.416	1	14
678.585	1	0
678.754	1	18
678.924	1	18
679.093	1	7
679.262	1	12
679.432	1	12
679.601	1	14
679.771	1	9
679.940	1	18
680.109	1	6
680.279	1	17
680.448	1	11
680.617	1	7
680.787	1	2
680.956	1	14
681.125	1	17
681.295	1	3
681.464	1	-6
681.634	1	10
681.803	1	4
681.972	1	14
682.142	1	3
682.311	1	22
682.480	1	15
682.650	1	18
682.819	1	12
682.988	1	6
683.158	1	7
683.327	1	13
683.496	1	13
683.666	1	5
683.835	1	4
684.004	1	12
684.174	1	6
684.343	1	14
684.512	1	15
684.682	1	12
684.851	1	16
685.021	1	2
685.190	1	8
685.359	1	0
685.529	1	8
685.698	1	14
685.867	1	11
686.037	1	20
686.206	1	1
686.375	1	24
686.545	1	11
686.714	1	8
686.883	1	14
687.053	1	6
687.222	1	14
687.391	1	8
687.561	1	16
687.730	1	12
687.899	1	18
688.069	1	13
688.238	1	16
688.407	1	18
688.577	1	10
688.746	1	13
