340.368	1	6
340.539	1	11
340.710	1	-5
340.881	1	-3
341.052	1	-13
341.223	1	-1
341.394	1	-6
341.565	1	4
341.737	1	-1
341.908	1	-4
342.079	1	-5
342.250	1	-6
342.421	1	3
342.592	1	6
342.763	1	5
342.934	1	-1
343.105	1	2
343.276	1	-2
343.447	1	-15
343.618	1	-2
343.789	1	-2
343.960	1	-2
344.131	1	1
344.302	1	-18
344.473	1	-2
344.644	1	2
344.815	1	2
344.986	1	-4
345.157	1	5
345.328	1	-1
345.499	1	6
345.670	1	-11
345.841	1	-5
346.012	1	10
346.183	1	14
346.354	1	11
346.526	1	-5
346.697	1	7
346.868	1	5
347.039	1	0
347.210	1	7
347.381	1	-1
347.552	1	9
347.723	1	0
347.894	1	5
348.065	1	6
348.236	1	9
348.407	1	1
348.578	1	-2
348.749	1	5
348.920	1	1
349.091	1	1
349.262	1	-9
349.433	1	-2
349.604	1	3
349.775	1	8
349.946	1	-5
350.117	1	-9
350.288	1	0
350.459	1	0
350.630	1	1
350.801	1	9
350.972	1	5
351.143	1	11
351.314	1	-2
351.485	1	-4
351.656	1	1
351.827	1	7
351.998	1	8
352.169	1	0
352.340	1	-1
352.511	1	3
352.682	1	-4
352.853	1	3
353.024	1	-1
353.195	1	1
353.366	1	4
353.537	1	5
353.708	1	2
353.879	1	1
354.050	1	-6
354.221	1	2
354.392	1	10
354.563	1	9
354.734	1	7
354.905	1	1
355.076	1	5
355.247	1	7
355.418	1	-1
355.589	1	3
355.760	1	8
355.931	1	12
356.102	1	-7
356.273	1	5
356.444	1	-2
356.615	1	-3
356.785	1	-7
356.956	1	3
357.127	1	14
357.298	1	13
357.469	1	-6
357.640	1	-4
357.811	1	2
357.982	1	4
358.153	1	3
358.324	1	10
358.495	1	-1
358.666	1	0
358.837	1	6
359.008	1	2
359.179	1	0
359.350	1	3
359.521	1	15
359.692	1	9
359.863	1	6
360.034	1	16
360.205	1	1
360.376	1	-2
360.547	1	2
360.718	1	4
360.889	1	6
361.060	1	7
361.231	1	2
361.401	1	6
361.572	1	9
361.743	1	5
361.914	1	17
362.085	1	1
362.256	1	7
362.427	1	1
362.598	1	14
362.769	1	8
362.940	1	8
363.111	1	20
363.282	1	4
363.453	1	7
363.624	1	8
363.795	1	10
363.966	1	7
364.137	1	10
364.308	1	13
364.478	1	8
364.649	1	14
364.820	1	12
364.991	1	17
365.162	1	4
365.333	1	12
365.504	1	14
365.675	1	10
365.846	1	7
366.017	1	12
366.188	1	17
366.359	1	14
366.530	1	15
366.701	1	25
366.871	1	18
367.042	1	19
367.213	1	17
367.384	1	14
367.555	1	16
367.726	1	13
367.897	1	31
368.068	1	16
368.239	1	7
368.410	1	13
368.581	1	17
368.752	1	27
368.923	1	21
369.093	1	14
369.264	1	13
369.435	1	14
369.606	1	20
369.777	1	17
369.948	1	11
370.119	1	13
370.290	1	12
370.461	1	16
370.632	1	16
370.803	1	15
370.973	1	8
371.144	1	15
371.315	1	3
371.486	1	22
371.657	1	10
371.828	1	23
371.999	1	0
372.170	1	18
372.341	1	6
372.512	1	9
372.682	1	3
372.853	1	15
373.024	1	15
373.195	1	0
373.366	1	18
373.537	1	18
373.708	1	-3
373.879	1	6
374.050	1	11
374.220	1	10
374.391	1	6
374.562	1	3
374.733	1	11
374.904	1	14
375.075	1	10
375.246	1	-6
375.417	1	5
375.588	1	10
375.758	1	-5
375.929	1	13
376.100	1	10
376.271	1	8
376.442	1	-5
376.613	1	2
376.784	1	19
376.955	1	0
377.125	1	9
377.296	1	7
377.467	1	12
377.638	1	-5
377.809	1	13
377.980	1	4
378.151	1	12
378.321	1	2
378.492	1	19
378.663	1	10
378.834	1	19
379.005	1	8
379.176	1	2
379.347	1	8
379.518	1	7
379.688	1	2
379.859	1	9
380.030	1	17
380.201	1	12
380.372	1	4
380.543	1	8
380.714	1	3
380.884	1	5
381.055	1	-2
381.226	1	4
381.397	1	9
381.568	1	8
381.739	1	0
381.910	1	4
382.080	1	8
382.251	1	-1
382.422	1	9
382.593	1	4
382.764	1	1
382.935	1	14
383.105	1	8
383.276	1	3
383.447	1	7
383.618	1	20
383.789	1	6
383.960	1	4
384.130	1	2
384.301	1	11
384.472	1	2
384.643	1	7
384.814	1	18
384.985	1	0
385.156	1	20
385.326	1	9
385.497	1	10
385.668	1	9
385.839	1	22
386.010	1	17
386.180	1	11
386.351	1	10
386.522	1	2
386.693	1	12
386.864	1	14
387.035	1	8
387.205	1	14
387.376	1	20
387.547	1	8
387.718	1	5
387.889	1	16
388.060	1	10
388.230	1	12
388.401	1	13
388.572	1	17
388.743	1	10
388.914	1	1
389.084	1	14
389.255	1	7
389.426	1	0
389.597	1	12
389.768	1	10
389.939	1	7
390.109	1	4
390.280	1	-6
390.451	1	3
390.622	1	11
390.793	1	18
390.963	1	3
391.134	1	2
391.305	1	-4
391.476	1	14
391.647	1	5
391.817	1	13
391.988	1	-4
392.159	1	18
392.330	1	10
392.501	1	6
392.671	1	11
392.842	1	13
393.013	1	14
393.184	1	10
393.355	1	16
393.525	1	16
393.696	1	1
393.867	1	5
394.038	1	7
394.208	1	8
394.379	1	6
394.550	1	11
394.721	1	5
394.892	1	-5
395.062	1	9
395.233	1	9
395.404	1	12
395.575	1	9
395.746	1	5
395.916	1	2
396.087	1	13
396.258	1	18
396.429	1	-1
396.599	1	14
396.770	1	16
396.941	1	3
397.112	1	-2
397.283	1	-3
397.453	1	15
397.624	1	7
397.795	1	10
397.966	1	16
398.136	1	-3
398.307	1	13
398.478	1	0
398.649	1	13
398.819	1	18
398.990	1	-2
399.161	1	14
399.332	1	15
399.503	1	13
399.673	1	1
399.844	1	9
400.015	1	15
400.186	1	-4
400.356	1	11
400.527	1	15
400.698	1	3
400.869	1	0
401.039	1	-2
401.210	1	0
401.381	1	5
401.552	1	-2
401.722	1	11
401.893	1	13
402.064	1	5
402.235	1	1
402.405	1	14
402.576	1	4
402.747	1	10
402.918	1	6
403.088	1	2
403.259	1	2
403.430	1	8
403.601	1	6
403.771	1	12
403.942	1	7
404.113	1	5
404.284	1	5
404.454	1	12
404.625	1	13
404.796	1	-4
404.967	1	2
405.137	1	6
405.308	1	-3
405.479	1	14
405.649	1	15
405.820	1	12
405.991	1	5
406.162	1	14
406.332	1	-3
406.503	1	-1
406.674	1	-1
406.845	1	11
407.015	1	5
407.186	1	5
407.357	1	6
407.527	1	16
407.698	1	4
407.869	1	2
408.040	1	9
408.210	1	14
408.381	1	-5
408.552	1	-1
408.722	1	4
408.893	1	7
409.064	1	-2
409.235	1	7
409.405	1	11
409.576	1	11
409.747	1	8
409.917	1	7
410.088	1	13
410.259	1	6
410.430	1	-4
410.600	1	-6
410.771	1	4
410.942	1	3
411.112	1	5
411.283	1	4
411.454	1	9
411.625	1	1
411.795	1	9
411.966	1	12
412.137	1	11
412.307	1	2
412.478	1	14
412.649	1	1
412.819	1	3
412.990	1	-1
413.161	1	-7
413.332	1	7
413.502	1	-6
413.673	1	23
413.844	1	15
414.014	1	-1
414.185	1	5
414.356	1	-2
414.526	1	5
414.697	1	4
414.868	1	7
415.038	1	1
415.209	1	-5
415.380	1	13
415.550	1	11
415.721	1	1
415.892	1	2
416.063	1	16
416.233	1	0
416.404	1	-1
416.575	1	4
416.745	1	-2
416.916	1	2
417.087	1	0
417.257	1	9
417.428	1	-4
417.599	1	14
417.769	1	5
417.940	1	6
418.111	1	1
418.281	1	-4
418.452	1	4
418.623	1	-6
418.793	1	7
418.964	1	2
419.135	1	11
419.305	1	-3
419.476	1	2
419.647	1	9
419.817	1	6
419.988	1	-3
420.159	1	6
420.329	1	-3
420.500	1	0
420.671	1	-1
420.841	1	9
421.012	1	0
421.183	1	4
421.353	1	-2
421.524	1	9
421.695	1	-2
421.865	1	8
422.036	1	0
422.206	1	11
422.377	1	-3
422.548	1	5
422.718	1	-7
422.889	1	-7
423.060	1	-3
423.230	1	7
423.401	1	-1
423.572	1	12
423.742	1	1
423.913	1	9
424.084	1	3
424.254	1	2
424.425	1	-10
424.595	1	2
424.766	1	-2
424.937	1	9
425.107	1	9
425.278	1	-2
425.449	1	3
425.619	1	12
425.790	1	9
425.961	1	2
426.131	1	-8
426.302	1	5
426.472	1	-10
426.643	1	1
426.814	1	-3
426.984	1	-3
427.155	1	-7
427.326	1	-7
427.496	1	-6
427.667	1	-4
427.837	1	2
428.008	1	5
428.179	1	3
428.349	1	-15
428.520	1	4
428.691	1	7
428.861	1	2
429.032	1	9
429.202	1	2
429.373	1	0
429.544	1	4
429.714	1	-8
429.885	1	1
430.055	1	-6
430.226	1	5
430.397	1	0
430.567	1	8
430.738	1	-2
430.909	1	-4
431.079	1	-3
431.250	1	-7
431.420	1	-12
431.591	1	-2
431.762	1	1
431.932	1	-3
432.103	1	-3
432.273	1	5
432.444	1	-2
432.615	1	-6
432.785	1	-6
432.956	1	2
433.126	1	3
433.297	1	3
433.468	1	6
433.638	1	0
433.809	1	-1
433.979	1	3
434.150	1	13
434.320	1	5
434.491	1	4
434.662	1	7
434.832	1	-3
435.003	1	6
435.173	1	7
435.344	1	2
435.515	1	1
435.685	1	-3
435.856	1	0
436.026	1	1
436.197	1	-1
436.368	1	4
436.538	1	-9
436.709	1	-13
436.879	1	-9
437.050	1	7
437.220	1	-8
437.391	1	6
437.562	1	5
437.732	1	5
437.903	1	-4
438.073	1	0
438.244	1	-9
438.414	1	0
438.585	1	-2
438.756	1	1
438.926	1	-2
439.097	1	13
439.267	1	-4
439.438	1	3
439.608	1	4
439.779	1	0
439.949	1	-8
440.120	1	-2
440.291	1	-2
440.461	1	7
440.632	1	8
440.802	1	-1
440.973	1	2
441.143	1	-4
441.314	1	-9
441.485	1	-4
441.655	1	3
441.826	1	-8
441.996	1	-3
442.167	1	3
442.337	1	5
442.508	1	2
442.678	1	3
442.849	1	-11
443.019	1	-5
443.190	1	11
443.361	1	6
443.531	1	7
443.702	1	-10
443.872	1	5
444.043	1	6
444.213	1	7
444.384	1	-10
444.554	1	1
444.725	1	3
444.895	1	4
445.066	1	-2
445.237	1	-4
445.407	1	0
445.578	1	8
445.748	1	0
445.919	1	0
446.089	1	-10
446.260	1	2
446.430	1	-7
446.601	1	4
446.771	1	-10
446.942	1	2
447.112	1	15
447.283	1	-8
447.453	1	-7
447.624	1	4
447.794	1	10
447.965	1	-1
448.135	1	-2
448.306	1	-4
448.477	1	4
448.647	1	-4
448.818	1	0
448.988	1	3
449.159	1	6
449.329	1	2
449.500	1	-6
449.670	1	-2
449.841	1	-9
450.011	1	1
450.182	1	-10
450.352	1	9
450.523	1	8
450.693	1	4
450.864	1	2
451.034	1	12
451.205	1	5
451.375	1	5
451.546	1	-3
451.716	1	9
451.887	1	0
452.057	1	6
452.228	1	-3
452.398	1	3
452.569	1	0
452.739	1	8
452.910	1	-2
453.080	1	0
453.251	1	2
453.421	1	-5
453.592	1	5
453.762	1	-6
453.933	1	-4
454.103	1	-5
454.274	1	16
454.444	1	6
454.615	1	12
454.785	1	2
454.956	1	5
455.126	1	-6
455.297	1	1
455.467	1	-11
455.638	1	7
455.808	1	-9
455.979	1	-2
456.149	1	-1
456.320	1	15
456.490	1	-1
456.661	1	-4
456.831	1	10
457.001	1	8
457.172	1	9
457.342	1	-2
457.513	1	5
457.683	1	4
457.854	1	8
458.024	1	-5
458.195	1	3
458.365	1	12
458.536	1	-2
458.706	1	8
458.877	1	0
459.047	1	10
459.218	1	1
459.388	1	10
459.559	1	8
459.729	1	4
459.899	1	2
460.070	1	-5
460.240	1	2
460.411	1	2
460.581	1	11
460.752	1	6
460.922	1	16
461.093	1	4
461.263	1	6
461.434	1	12
461.604	1	4
461.775	1	-1
461.945	1	2
462.115	1	-1
462.286	1	-10
462.456	1	-4
462.627	1	5
462.797	1	-4
462.968	1	-9
463.138	1	-2
463.309	1	5
463.479	1	-10
463.649	1	-7
463.820	1	-4
463.990	1	0
464.161	1	3
464.331	1	0
464.502	1	12
464.672	1	-10
464.843	1	-9
465.013	1	-9
465.183	1	-6
465.354	1	10
465.524	1	-5
465.695	1	1
465.865	1	-8
466.036	1	8
466.206	1	9
466.376	1	-1
466.547	1	-1
466.717	1	13
466.888	1	-3
467.058	1	3
467.229	1	10
467.399	1	-2
467.569	1	2
467.740	1	6
467.910	1	2
468.081	1	-1
468.251	1	4
468.422	1	-2
468.592	1	2
468.762	1	-18
468.933	1	6
469.103	1	7
469.274	1	-2
469.444	1	5
469.614	1	1
469.785	1	12
469.955	1	2
470.126	1	4
470.296	1	4
470.467	1	-4
470.637	1	4
470.807	1	10
470.978	1	5
471.148	1	-7
471.319	1	4
471.489	1	-1
471.659	1	6
471.830	1	1
472.000	1	5
472.171	1	-9
472.341	1	-7
472.511	1	12
472.682	1	3
472.852	1	-1
473.023	1	5
473.193	1	2
473.363	1	-4
473.534	1	-5
473.704	1	5
473.875	1	-7
474.045	1	6
474.215	1	15
474.386	1	6
474.556	1	0
474.727	1	-4
474.897	1	3
475.067	1	1
475.238	1	-6
475.408	1	-7
475.578	1	8
475.749	1	6
475.919	1	1
476.090	1	4
476.260	1	8
476.430	1	6
476.601	1	10
476.771	1	-3
476.942	1	4
477.112	1	1
477.282	1	3
477.453	1	3
477.623	1	3
477.793	1	10
477.964	1	-1
478.134	1	6
478.305	1	1
478.475	1	-6
478.645	1	-4
478.816	1	0
478.986	1	4
479.156	1	5
479.327	1	-4
479.497	1	9
479.667	1	4
479.838	1	-5
480.008	1	-4
480.179	1	-13
480.349	1	-6
480.519	1	-1
480.690	1	6
480.860	1	8
481.030	1	7
481.201	1	2
481.371	1	11
481.541	1	3
481.712	1	2
481.882	1	1
482.053	1	2
482.223	1	-6
482.393	1	-4
482.564	1	-1
482.734	1	4
482.904	1	-4
483.075	1	0
483.245	1	7
483.415	1	-1
483.586	1	6
483.756	1	-4
483.926	1	10
484.097	1	10
484.267	1	-12
484.437	1	1
484.608	1	2
484.778	1	-9
484.948	1	6
485.119	1	-1
485.289	1	0
485.459	1	-4
485.630	1	7
485.800	1	0
485.970	1	2
486.141	1	-3
486.311	1	2
486.481	1	-3
486.652	1	-8
486.822	1	-10
486.992	1	7
487.163	1	7
487.333	1	11
487.503	1	0
487.674	1	2
487.844	1	3
488.014	1	13
488.185	1	3
488.355	1	5
488.525	1	1
488.696	1	-7
488.866	1	-9
489.036	1	7
489.207	1	-2
489.377	1	-6
489.547	1	-1
489.718	1	1
489.888	1	4
490.058	1	3
490.228	1	-2
490.399	1	3
490.569	1	-2
490.739	1	-2
490.910	1	-5
491.080	1	2
491.250	1	2
491.421	1	12
491.591	1	-12
491.761	1	-3
491.932	1	8
492.102	1	0
492.272	1	8
492.442	1	5
492.613	1	-1
492.783	1	3
492.953	1	-6
493.124	1	12
493.294	1	10
493.464	1	7
493.635	1	-3
493.805	1	10
493.975	1	0
494.145	1	0
494.316	1	-4
494.486	1	6
494.656	1	7
494.827	1	-1
494.997	1	0
495.167	1	-1
495.337	1	0
495.508	1	4
495.678	1	2
495.848	1	-4
496.019	1	1
496.189	1	5
496.359	1	2
496.529	1	9
496.700	1	-4
496.870	1	8
497.040	1	0
497.211	1	0
497.381	1	2
497.551	1	-1
497.721	1	4
497.892	1	7
498.062	1	0
498.232	1	9
498.403	1	-1
498.573	1	5
498.743	1	11
498.913	1	7
499.084	1	3
499.254	1	-12
499.424	1	2
499.594	1	-7
499.765	1	11
499.935	1	-4
500.105	1	4
500.275	1	-2
500.446	1	7
500.616	1	6
500.786	1	13
500.956	1	7
501.127	1	8
501.297	1	-6
501.467	1	8
501.638	1	4
501.808	1	0
501.978	1	5
502.148	1	-2
502.319	1	15
502.489	1	0
502.659	1	11
502.829	1	2
503.000	1	15
503.170	1	-3
503.340	1	3
503.510	1	-4
503.681	1	-2
503.851	1	-3
504.021	1	7
504.191	1	1
504.362	1	10
504.532	1	8
504.702	1	2
504.872	1	-1
505.042	1	6
505.213	1	4
505.383	1	-3
505.553	1	6
505.723	1	6
505.894	1	1
506.064	1	3
506.234	1	-3
506.404	1	6
506.575	1	-5
506.745	1	18
506.915	1	-1
507.085	1	-4
507.256	1	5
507.426	1	13
507.596	1	-1
507.766	1	6
507.936	1	2
508.107	1	10
508.277	1	1
508.447	1	9
508.617	1	-6
508.788	1	13
508.958	1	-4
509.128	1	8
509.298	1	3
509.468	1	10
509.639	1	2
509.809	1	15
509.979	1	6
510.149	1	10
510.319	1	-8
510.490	1	7
510.660	1	-2
510.830	1	5
511.000	1	6
511.171	1	5
511.341	1	13
511.511	1	10
511.681	1	10
511.851	1	-2
512.022	1	0
512.192	1	-7
512.362	1	0
512.532	1	1
512.702	1	12
512.873	1	11
513.043	1	15
513.213	1	8
513.383	1	5
513.553	1	12
513.724	1	-6
513.894	1	6
514.064	1	7
514.234	1	16
514.404	1	10
514.575	1	1
514.745	1	12
514.915	1	-14
515.085	1	1
515.255	1	4
515.425	1	10
515.596	1	6
515.766	1	1
515.936	1	8
516.106	1	5
516.276	1	7
516.447	1	7
516.617	1	4
516.787	1	3
516.957	1	14
517.127	1	6
517.297	1	5
517.468	1	5
517.638	1	-9
517.808	1	2
517.978	1	11
518.148	1	5
518.319	1	4
518.489	1	1
518.659	1	8
518.829	1	5
518.999	1	7
519.169	1	3
519.340	1	9
519.510	1	10
519.680	1	14
519.850	1	1
520.020	1	14
520.190	1	1
520.361	1	6
520.531	1	3
520.701	1	16
520.871	1	-8
521.041	1	13
521.211	1	7
521.382	1	-2
521.552	1	5
521.722	1	17
521.892	1	8
522.062	1	3
522.232	1	23
522.402	1	10
522.573	1	-2
522.743	1	7
522.913	1	6
523.083	1	6
523.253	1	10
523.423	1	3
523.593	1	3
523.764	1	6
523.934	1	7
524.104	1	6
524.274	1	2
524.444	1	1
524.614	1	11
524.784	1	3
524.955	1	11
525.125	1	10
525.295	1	6
525.465	1	2
525.635	1	4
525.805	1	9
525.975	1	6
526.146	1	3
526.316	1	2
526.486	1	2
526.656	1	12
526.826	1	2
526.996	1	11
527.166	1	1
527.337	1	-2
527.507	1	7
527.677	1	11
527.847	1	3
528.017	1	13
528.187	1	15
528.357	1	8
528.527	1	11
528.698	1	1
528.868	1	7
529.038	1	5
529.208	1	2
529.378	1	10
529.548	1	4
529.718	1	8
529.888	1	6
530.058	1	9
530.229	1	6
530.399	1	7
530.569	1	0
530.739	1	-4
530.909	1	-5
531.079	1	-2
531.249	1	2
531.419	1	17
531.589	1	7
531.760	1	4
531.930	1	8
532.100	1	-1
532.270	1	12
532.440	1	9
532.610	1	10
532.780	1	14
532.950	1	9
533.120	1	16
533.290	1	-1
533.461	1	9
533.631	1	9
533.801	1	0
533.971	1	6
534.141	1	10
534.311	1	11
534.481	1	11
534.651	1	3
534.821	1	8
534.991	1	16
535.162	1	4
535.332	1	6
535.502	1	8
535.672	1	3
535.842	1	2
536.012	1	0
536.182	1	9
536.352	1	11
536.522	1	-3
536.692	1	-4
536.862	1	5
537.032	1	-3
537.203	1	1
537.373	1	10
537.543	1	2
537.713	1	15
537.883	1	5
538.053	1	10
538.223	1	9
538.393	1	5
538.563	1	11
538.733	1	16
538.903	1	7
539.073	1	1
539.243	1	3
539.413	1	8
539.584	1	4
539.754	1	16
539.924	1	8
540.094	1	14
540.264	1	-8
540.434	1	10
540.604	1	-1
540.774	1	14
540.944	1	14
541.114	1	4
541.284	1	0
541.454	1	12
541.624	1	9
541.794	1	2
541.964	1	5
542.134	1	15
542.305	1	0
542.475	1	2
542.645	1	11
542.815	1	5
542.985	1	7
543.155	1	-5
543.325	1	11
543.495	1	13
543.665	1	3
543.835	1	4
544.005	1	-1
544.175	1	11
544.345	1	10
544.515	1	5
544.685	1	22
544.855	1	-3
545.025	1	9
545.195	1	5
545.365	1	-4
545.535	1	6
545.705	1	17
545.875	1	4
546.045	1	4
546.216	1	-3
546.386	1	10
546.556	1	12
546.726	1	11
546.896	1	0
547.066	1	6
547.236	1	-2
547.406	1	0
547.576	1	11
547.746	1	10
547.916	1	11
548.086	1	8
548.256	1	0
548.426	1	3
548.596	1	0
548.766	1	12
548.936	1	7
549.106	1	12
549.276	1	11
549.446	1	6
549.616	1	1
549.786	1	2
549.956	1	1
550.126	1	-5
550.296	1	5
550.466	1	19
550.636	1	5
550.806	1	14
550.976	1	-1
551.146	1	4
551.316	1	8
551.486	1	10
551.656	1	10
551.826	1	16
551.996	1	-5
552.166	1	9
552.336	1	1
552.506	1	4
552.676	1	8
552.846	1	3
553.016	1	6
553.186	1	0
553.356	1	14
553.526	1	-3
553.696	1	21
553.866	1	11
554.036	1	6
554.206	1	-2
554.376	1	-10
554.546	1	9
554.716	1	-6
554.886	1	14
555.056	1	8
555.226	1	7
555.396	1	-6
555.566	1	0
555.736	1	9
555.906	1	9
556.076	1	8
556.246	1	3
556.416	1	-7
556.586	1	-1
556.756	1	-5
556.926	1	0
557.096	1	11
557.266	1	-3
557.436	1	10
557.606	1	3
557.776	1	9
557.946	1	8
558.116	1	12
558.286	1	5
558.456	1	-1
558.626	1	-10
558.796	1	2
558.966	1	0
559.136	1	3
559.306	1	9
559.476	1	12
559.646	1	2
559.816	1	13
559.986	1	0
560.155	1	13
560.325	1	5
560.495	1	2
560.665	1	-2
560.835	1	3
561.005	1	6
561.175	1	-4
561.345	1	5
561.515	1	-2
561.685	1	7
561.855	1	-2
562.025	1	4
562.195	1	12
562.365	1	7
562.535	1	15
562.705	1	2
562.875	1	3
563.045	1	0
563.215	1	1
563.385	1	-4
563.555	1	1
563.725	1	10
563.895	1	-6
564.064	1	2
564.234	1	-5
564.404	1	1
564.574	1	8
564.744	1	5
564.914	1	7
565.084	1	-2
565.254	1	8
565.424	1	10
565.594	1	-7
565.764	1	-2
565.934	1	9
566.104	1	2
566.274	1	5
566.444	1	-6
566.614	1	11
566.783	1	11
566.953	1	5
567.123	1	11
567.293	1	3
567.463	1	3
567.633	1	7
567.803	1	14
567.973	1	-10
568.143	1	10
568.313	1	1
568.483	1	6
568.653	1	-7
568.823	1	1
568.993	1	11
569.162	1	0
569.332	1	3
569.502	1	11
569.672	1	5
569.842	1	3
570.012	1	-4
570.182	1	4
570.352	1	3
570.522	1	1
570.692	1	0
570.862	1	0
571.031	1	-1
571.201	1	4
571.371	1	11
571.541	1	3
571.711	1	-3
571.881	1	8
572.051	1	0
572.221	1	8
572.391	1	11
572.561	1	5
572.731	1	6
572.900	1	-10
573.070	1	10
573.240	1	-10
573.410	1	6
573.580	1	3
573.750	1	11
573.920	1	-4
574.090	1	2
574.260	1	0
574.430	1	8
574.599	1	7
574.769	1	-4
574.939	1	0
575.109	1	3
575.279	1	-3
575.449	1	18
575.619	1	12
575.789	1	-2
575.959	1	1
576.128	1	2
576.298	1	-1
576.468	1	6
576.638	1	-2
576.808	1	3
576.978	1	-7
577.148	1	2
577.318	1	13
577.487	1	-2
577.657	1	4
577.827	1	5
577.997	1	6
578.167	1	1
578.337	1	-7
578.507	1	10
578.677	1	4
578.846	1	11
579.016	1	5
579.186	1	8
579.356	1	2
579.526	1	-2
579.696	1	8
579.866	1	-7
580.036	1	0
580.205	1	-4
580.375	1	16
580.545	1	5
580.715	1	2
580.885	1	4
581.055	1	0
581.225	1	-1
581.394	1	-1
581.564	1	-8
581.734	1	-3
581.904	1	-9
582.074	1	4
582.244	1	4
582.414	1	2
582.583	1	6
582.753	1	13
582.923	1	4
583.093	1	2
583.263	1	5
583.433	1	2
583.603	1	-8
583.772	1	-11
583.942	1	3
584.112	1	1
584.282	1	7
584.452	1	1
584.622	1	8
584.791	1	7
584.961	1	-13
585.131	1	1
585.301	1	-1
585.471	1	-3
585.641	1	0
585.811	1	-1
585.980	1	7
586.150	1	0
586.320	1	-1
586.490	1	11
586.660	1	0
586.830	1	-12
586.999	1	-5
587.169	1	12
587.339	1	12
587.509	1	15
587.679	1	8
587.849	1	13
588.018	1	-11
588.188	1	-1
588.358	1	-5
588.528	1	0
588.698	1	-5
588.867	1	-3
589.037	1	-1
589.207	1	-2
589.377	1	9
589.547	1	12
589.717	1	-5
589.886	1	-4
590.056	1	3
590.226	1	-4
590.396	1	-6
590.566	1	-16
590.735	1	-3
590.905	1	10
591.075	1	-3
591.245	1	-7
591.415	1	3
591.585	1	6
591.754	1	0
591.924	1	14
592.094	1	-6
592.264	1	-4
592.434	1	0
592.603	1	-8
592.773	1	-1
592.943	1	2
593.113	1	-2
593.283	1	1
593.452	1	-12
593.622	1	15
593.792	1	5
593.962	1	-4
594.132	1	6
594.301	1	6
594.471	1	4
594.641	1	2
594.811	1	2
594.981	1	-4
595.150	1	6
595.320	1	-7
595.490	1	4
595.660	1	1
595.829	1	-5
595.999	1	-2
596.169	1	8
596.339	1	9
596.509	1	-1
596.678	1	1
596.848	1	7
597.018	1	0
597.188	1	3
597.358	1	-2
597.527	1	-1
597.697	1	-2
597.867	1	4
598.037	1	13
598.206	1	8
598.376	1	-8
598.546	1	5
598.716	1	-12
598.885	1	-5
599.055	1	-4
599.225	1	0
599.395	1	3
599.565	1	2
599.734	1	8
599.904	1	-10
600.074	1	1
600.244	1	-6
600.413	1	-4
600.583	1	-2
600.753	1	4
600.923	1	-5
601.092	1	11
601.262	1	4
601.432	1	6
601.602	1	13
601.771	1	6
601.941	1	4
602.111	1	0
602.281	1	-1
602.451	1	-11
602.620	1	1
602.790	1	-9
602.960	1	-4
603.130	1	-4
603.299	1	4
603.469	1	8
603.639	1	-3
603.809	1	3
603.978	1	0
604.148	1	0
604.318	1	7
604.487	1	-6
604.657	1	-9
604.827	1	4
604.997	1	19
605.166	1	7
605.336	1	0
605.506	1	-10
605.676	1	12
605.845	1	0
606.015	1	-4
606.185	1	4
606.355	1	1
606.524	1	0
606.694	1	3
606.864	1	2
607.034	1	7
607.203	1	13
607.373	1	-7
607.543	1	-9
607.712	1	-3
607.882	1	3
608.052	1	3
608.222	1	7
608.391	1	10
608.561	1	-1
608.731	1	-6
608.901	1	2
609.070	1	-6
609.240	1	-4
609.410	1	9
609.579	1	4
609.749	1	3
609.919	1	1
610.089	1	1
610.258	1	0
610.428	1	10
610.598	1	-6
610.767	1	4
610.937	1	-7
611.107	1	0
611.277	1	-2
611.446	1	-2
611.616	1	4
611.786	1	6
611.955	1	0
612.125	1	10
612.295	1	10
612.465	1	4
612.634	1	2
612.804	1	6
612.974	1	-11
613.143	1	-2
613.313	1	-1
613.483	1	14
613.652	1	3
613.822	1	1
613.992	1	-10
614.162	1	3
614.331	1	-5
614.501	1	1
614.671	1	-9
614.840	1	-6
615.010	1	-4
615.180	1	9
615.349	1	11
615.519	1	0
615.689	1	-16
615.858	1	14
616.028	1	7
616.198	1	-3
616.368	1	-1
616.537	1	-2
616.707	1	4
616.877	1	2
617.046	1	7
617.216	1	4
617.386	1	5
617.555	1	-10
617.725	1	4
617.895	1	-2
618.064	1	2
618.234	1	-2
618.404	1	-6
618.573	1	8
618.743	1	16
618.913	1	9
619.082	1	-7
619.252	1	1
619.422	1	2
619.591	1	-3
619.761	1	-6
619.931	1	6
620.100	1	12
620.270	1	1
620.440	1	9
620.609	1	12
620.779	1	11
620.949	1	3
621.118	1	6
621.288	1	3
621.458	1	6
621.627	1	-8
621.797	1	-4
621.967	1	5
622.136	1	4
622.306	1	-3
622.476	1	-5
622.645	1	6
622.815	1	2
622.985	1	-1
623.154	1	1
623.324	1	-2
623.494	1	-7
623.663	1	-2
623.833	1	0
624.002	1	-1
624.172	1	-2
624.342	1	6
624.511	1	5
624.681	1	2
624.851	1	-7
625.020	1	-9
625.190	1	-1
625.360	1	-9
625.529	1	4
625.699	1	-2
625.869	1	0
626.038	1	-14
626.208	1	8
626.377	1	6
626.547	1	-2
626.717	1	-11
626.886	1	-3
627.056	1	-2
627.226	1	6
627.395	1	-3
627.565	1	13
627.735	1	3
627.904	1	14
628.074	1	8
628.243	1	7
628.413	1	-8
628.583	1	1
628.752	1	-7
628.922	1	-3
629.091	1	1
629.261	1	9
629.431	1	3
629.600	1	16
629.770	1	1
629.940	1	-13
630.109	1	2
630.279	1	1
630.448	1	4
630.618	1	8
630.788	1	10
630.957	1	3
631.127	1	2
631.297	1	-12
631.466	1	8
631.636	1	1
631.805	1	6
631.975	1	-4
632.145	1	-2
632.314	1	-6
632.484	1	10
632.653	1	-2
632.823	1	0
632.993	1	9
633.162	1	-1
633.332	1	-1
633.501	1	-6
633.671	1	6
633.841	1	-6
634.010	1	0
634.180	1	5
634.349	1	-1
634.519	1	9
634.689	1	-3
634.858	1	-8
635.028	1	-6
635.197	1	4
635.367	1	1
635.537	1	-1
635.706	1	1
635.876	1	4
636.045	1	10
636.215	1	11
636.384	1	9
636.554	1	0
636.724	1	-1
636.893	1	-6
637.063	1	5
637.232	1	0
637.402	1	-6
637.572	1	2
637.741	1	10
637.911	1	-4
638.080	1	6
638.250	1	10
638.419	1	0
638.589	1	8
638.759	1	-3
638.928	1	6
639.098	1	-2
639.267	1	-3
639.437	1	2
639.606	1	1
639.776	1	12
639.946	1	9
640.115	1	4
640.285	1	8
640.454	1	6
640.624	1	7
640.793	1	-9
640.963	1	3
641.132	1	5
641.302	1	2
641.472	1	-1
641.641	1	-2
641.811	1	4
641.980	1	4
642.150	1	1
642.319	1	1
642.489	1	-1
642.659	1	4
642.828	1	-5
642.998	1	4
643.167	1	-6
643.337	1	-5
643.506	1	2
643.676	1	-6
643.845	1	6
644.015	1	-1
644.184	1	-9
644.354	1	-3
644.524	1	-4
644.693	1	-2
644.863	1	2
645.032	1	7
645.202	1	-5
645.371	1	4
645.541	1	1
645.710	1	4
645.880	1	-10
646.049	1	-2
646.219	1	7
646.388	1	1
646.558	1	-2
646.728	1	-1
646.897	1	-2
647.067	1	-4
647.236	1	11
647.406	1	3
647.575	1	4
647.745	1	4
647.914	1	-5
648.084	1	5
648.253	1	2
648.423	1	10
648.592	1	-16
648.762	1	3
648.931	1	-2
649.101	1	6
649.270	1	-4
649.440	1	1
649.610	1	1
649.779	1	1
649.949	1	3
650.118	1	0
650.288	1	4
650.457	1	5
650.627	1	-2
650.796	1	3
650.966	1	-6
651.135	1	-2
651.305	1	-9
651.474	1	4
651.644	1	17
651.813	1	6
651.983	1	-7
652.152	1	8
652.322	1	5
652.491	1	-5
652.661	1	3
652.830	1	4
653.000	1	0
653.169	1	6
653.339	1	2
653.508	1	2
653.678	1	-7
653.847	1	-12
654.017	1	4
654.186	1	0
654.356	1	-10
654.525	1	0
654.695	1	3
654.864	1	2
655.034	1	6
655.203	1	6
655.373	1	4
655.542	1	-3
655.712	1	8
655.881	1	10
656.051	1	8
656.220	1	2
656.390	1	1
656.559	1	-13
656.729	1	-15
656.898	1	-3
657.068	1	1
657.237	1	3
657.406	1	1
657.576	1	1
657.745	1	-1
657.915	1	-1
658.084	1	2
658.254	1	9
658.423	1	4
658.593	1	12
658.762	1	-6
658.932	1	-8
659.101	1	-15
659.271	1	-8
659.440	1	5
659.610	1	4
659.779	1	9
659.949	1	-3
660.118	1	0
660.288	1	1
660.457	1	-5
660.626	1	1
660.796	1	-7
660.965	1	1
661.135	1	-4
661.304	1	-2
661.474	1	2
661.643	1	0
661.813	1	-3
661.982	1	-2
662.152	1	4
662.321	1	-5
662.491	1	-6
662.660	1	-5
662.829	1	5
662.999	1	-1
663.168	1	12
663.338	1	10
663.507	1	-1
663.677	1	0
663.846	1	-8
664.016	1	-2
664.185	1	-9
664.354	1	6
664.524	1	7
664.693	1	7
664.863	1	2
665.032	1	-5
665.202	1	-1
665.371	1	-3
665.541	1	16
665.710	1	1
665.879	1	-3
666.049	1	-9
666.218	1	-1
666.388	1	6
666.557	1	13
666.727	1	3
666.896	1	11
667.065	1	-6
667.235	1	7
667.404	1	1
667.574	1	-1
667.743	1	-1
667.913	1	5
668.082	1	-4
668.251	1	7
668.421	1	-2
668.590	1	2
668.760	1	-3
668.929	1	6
669.099	1	-6
669.268	1	-10
669.437	1	5
669.607	1	10
669.776	1	-1
669.946	1	2
670.115	1	-25
670.285	1	4
670.454	1	-1
670.623	1	7
670.793	1	-2
670.962	1	0
671.132	1	1
671.301	1	5
671.470	1	-2
671.640	1	-4
671.809	1	0
671.979	1	10
672.148	1	0
672.317	1	-4
672.487	1	2
672.656	1	-9
672.826	1	-9
672.995	1	7
673.164	1	-12
673.334	1	3
673.503	1	-7
673.673	1	7
673.842	1	6
674.011	1	16
674.181	1	2
674.350	1	6
674.520	1	0
674.689	1	-16
674.858	1	-7
675.028	1	0
675.197	1	0
675.367	1	3
675.536	1	12
675.705	1	-4
675.875	1	-8
676.044	1	-1
676.214	1	2
676.383	1	4
676.552	1	-7
676.722	1	-3
676.891	1	0
677.060	1	-4
677.230	1	5
677.399	1	-4
677.569	1	6
677.738	1	1
677.907	1	-11
678.077	1	8
678.246	1	1
678.416	1	-2
678.585	1	-6
678.754	1	2
678.924	1	7
679.093	1	-1
679.262	1	2
679.432	1	6
679.601	1	4
679.771	1	4
679.940	1	0
680.109	1	-7
680.279	1	6
680.448	1	6
680.617	1	-1
680.787	1	5
680.956	1	3
681.125	1	1
681.295	1	-6
681.464	1	-8
681.634	1	-1
681.803	1	4
681.972	1	1
682.142	1	-7
682.311	1	4
682.480	1	0
682.650	1	9
682.819	1	2
682.988	1	-4
683.158	1	-4
683.327	1	8
683.496	1	3
683.666	1	3
683.835	1	-7
684.004	1	16
684.174	1	0
684.343	1	1
684.512	1	8
684.682	1	-4
684.851	1	5
685.021	1	-5
685.190	1	-3
685.359	1	-11
685.529	1	6
685.698	1	1
685.867	1	-1
686.037	1	6
686.206	1	-1
686.375	1	3
686.545	1	6
686.714	1	6
686.883	1	-1
687.053	1	-4
687.222	1	-5
687.391	1	3
687.561	1	11
687.730	1	1
687.899	1	-4
688.069	1	10
688.238	1	-4
688.407	1	-3
688.577	1	-3
688.746	1	4
