340.368	1	4
340.539	1	10
340.710	1	4
340.881	1	0
341.052	1	-3
341.223	1	7
341.394	1	6
341.565	1	6
341.737	1	5
341.908	1	-11
342.079	1	-2
342.250	1	-1
342.421	1	1
342.592	1	8
342.763	1	6
342.934	1	0
343.105	1	5
343.276	1	5
343.447	1	-5
343.618	1	1
343.789	1	1
343.960	1	6
344.131	1	4
344.302	1	-9
344.473	1	4
344.644	1	0
344.815	1	-1
344.986	1	4
345.157	1	3
345.328	1	-5
345.499	1	14
345.670	1	7
345.841	1	1
346.012	1	3
346.183	1	10
346.354	1	4
346.526	1	0
346.697	1	6
346.868	1	-2
347.039	1	-4
347.210	1	-6
347.381	1	6
347.552	1	4
347.723	1	1
347.894	1	-7
348.065	1	10
348.236	1	-6
348.407	1	-2
348.578	1	-4
348.749	1	0
348.920	1	-3
349.091	1	2
349.262	1	-5
349.433	1	1
349.604	1	9
349.775	1	3
349.946	1	-6
350.117	1	-4
350.288	1	2
350.459	1	-3
350.630	1	9
350.801	1	4
350.972	1	4
351.143	1	15
351.314	1	4
351.485	1	5
351.656	1	6
351.827	1	3
351.998	1	-7
352.169	1	1
352.340	1	-2
352.511	1	-3
352.682	1	11
352.853	1	-4
353.024	1	3
353.195	1	-1
353.366	1	2
353.537	1	1
353.708	1	11
353.879	1	-7
354.050	1	3
354.221	1	-5
354.392	1	11
354.563	1	1
354.734	1	6
354.905	1	2
355.076	1	11
355.247	1	4
355.418	1	7
355.589	1	3
355.760	1	9
355.931	1	4
356.102	1	-4
356.273	1	-4
356.444	1	-2
356.615	1	5
356.785	1	5
356.956	1	-2
357.127	1	8
357.298	1	6
357.469	1	3
357.640	1	3
357.811	1	0
357.982	1	-1
358.153	1	2
358.324	1	7
358.495	1	4
358.666	1	-1
358.837	1	1
359.008	1	3
359.179	1	11
359.350	1	2
359.521	1	9
359.692	1	3
359.863	1	2
360.034	1	15
360.205	1	-7
360.376	1	0
360.547	1	-1
360.718	1	6
360.889	1	-1
361.060	1	-2
361.231	1	-4
361.401	1	-6
361.572	1	-4
361.743	1	13
361.914	1	7
362.085	1	5
362.256	1	-5
362.427	1	-9
362.598	1	-2
362.769	1	0
362.940	1	2
363.111	1	11
363.282	1	2
363.453	1	-6
363.624	1	1
363.795	1	-2
363.966	1	-2
364.137	1	4
364.308	1	10
364.478	1	1
364.649	1	5
364.820	1	0
364.991	1	2
365.162	1	-11
365.333	1	-10
365.504	1	0
365.675	1	-3
365.846	1	-15
366.017	1	-1
366.188	1	3
366.359	1	3
366.530	1	12
366.701	1	8
366.871	1	1
367.042	1	9
367.213	1	3
367.384	1	-11
367.555	1	3
367.726	1	-7
367.897	1	12
368.068	1	10
368.239	1	3
368.410	1	-5
368.581	1	9
368.752	1	9
368.923	1	8
369.093	1	-2
369.264	1	-5
369.435	1	0
369.606	1	7
369.777	1	8
369.948	1	-5
370.119	1	0
370.290	1	-3
370.461	1	8
370.632	1	8
370.803	1	3
370.973	1	-9
371.144	1	-2
371.315	1	-15
371.486	1	6
371.657	1	3
371.828	1	15
371.999	1	-2
372.170	1	4
372.341	1	-3
372.512	1	-2
372.682	1	1
372.853	1	2
373.024	1	5
373.195	1	-8
373.366	1	1
373.537	1	2
373.708	1	1
373.879	1	2
374.050	1	1
374.220	1	2
374.391	1	-2
374.562	1	0
374.733	1	-7
374.904	1	7
375.075	1	-2
375.246	1	-8
375.417	1	10
375.588	1	-1
375.758	1	-8
375.929	1	2
376.100	1	7
376.271	1	3
376.442	1	-4
376.613	1	-6
376.784	1	16
376.955	1	-12
377.125	1	5
377.296	1	-10
377.467	1	9
377.638	1	-7
377.809	1	5
377.980	1	4
378.151	1	7
378.321	1	-4
378.492	1	6
378.663	1	5
378.834	1	13
379.005	1	-6
379.176	1	-5
379.347	1	7
379.518	1	1
379.688	1	-1
379.859	1	0
380.030	1	18
380.201	1	13
380.372	1	10
380.543	1	15
380.714	1	-5
380.884	1	7
381.055	1	-6
381.226	1	-2
381.397	1	0
381.568	1	4
381.739	1	2
381.910	1	-1
382.080	1	9
382.251	1	-3
382.422	1	9
382.593	1	3
382.764	1	-3
382.935	1	3
383.105	1	3
383.276	1	-7
383.447	1	7
383.618	1	10
383.789	1	-3
383.960	1	-5
384.130	1	-7
384.301	1	6
384.472	1	-1
384.643	1	-5
384.814	1	-2
384.985	1	0
385.156	1	8
385.326	1	6
385.497	1	-5
385.668	1	10
385.839	1	2
386.010	1	6
386.180	1	-1
386.351	1	-5
386.522	1	-5
386.693	1	4
386.864	1	3
387.035	1	6
387.205	1	10
387.376	1	1
387.547	1	-2
387.718	1	1
387.889	1	0
388.060	1	4
388.230	1	7
388.401	1	-3
388.572	1	8
388.743	1	4
388.914	1	-1
389.084	1	3
389.255	1	5
389.426	1	2
389.597	1	8
389.768	1	3
389.939	1	0
390.109	1	0
390.280	1	0
390.451	1	8
390.622	1	0
390.793	1	2
390.963	1	0
391.134	1	-1
391.305	1	-5
391.476	1	6
391.647	1	0
391.817	1	-1
391.988	1	-4
392.159	1	3
392.330	1	-5
392.501	1	-1
392.671	1	4
392.842	1	1
393.013	1	13
393.184	1	-1
393.355	1	5
393.525	1	7
393.696	1	2
393.867	1	-1
394.038	1	2
394.208	1	11
394.379	1	-10
394.550	1	0
394.721	1	-2
394.892	1	-6
395.062	1	14
395.233	1	-2
395.404	1	8
395.575	1	-4
395.746	1	4
395.916	1	-5
396.087	1	2
396.258	1	1
396.429	1	6
396.599	1	4
396.770	1	7
396.941	1	2
397.112	1	2
397.283	1	-10
397.453	1	4
397.624	1	7
397.795	1	-3
397.966	1	14
398.136	1	-4
398.307	1	6
398.478	1	2
398.649	1	8
398.819	1	3
398.990	1	-6
399.161	1	3
399.332	1	11
399.503	1	4
399.673	1	-15
399.844	1	4
400.015	1	7
400.186	1	5
400.356	1	6
400.527	1	11
400.698	1	5
400.869	1	-3
401.039	1	-1
401.210	1	11
401.381	1	-1
401.552	1	7
401.722	1	7
401.893	1	3
402.064	1	8
402.235	1	-12
402.405	1	0
402.576	1	-5
402.747	1	4
402.918	1	4
403.088	1	-1
403.259	1	2
403.430	1	-2
403.601	1	-4
403.771	1	3
403.942	1	5
404.113	1	12
404.284	1	0
404.454	1	1
404.625	1	-4
404.796	1	1
404.967	1	6
405.137	1	4
405.308	1	13
405.479	1	12
405.649	1	14
405.820	1	1
405.991	1	0
406.162	1	11
406.332	1	-3
406.503	1	-7
406.674	1	1
406.845	1	3
407.015	1	1
407.186	1	-4
407.357	1	4
407.527	1	0
407.698	1	3
407.869	1	14
408.040	1	5
408.210	1	1
408.381	1	-11
408.552	1	-5
408.722	1	-9
408.893	1	-2
409.064	1	-3
409.235	1	6
409.405	1	14
409.576	1	6
409.747	1	10
409.917	1	2
410.088	1	-7
410.259	1	-8
410.430	1	-2
410.600	1	-2
410.771	1	4
410.942	1	0
411.112	1	0
411.283	1	-2
411.454	1	4
411.625	1	-3
411.795	1	5
411.966	1	10
412.137	1	12
412.307	1	6
412.478	1	9
412.649	1	0
412.819	1	2
412.990	1	-9
413.161	1	-2
413.332	1	13
413.502	1	-5
413.673	1	15
413.844	1	5
414.014	1	-5
414.185	1	0
414.356	1	11
414.526	1	6
414.697	1	6
414.868	1	1
415.038	1	1
415.209	1	-9
415.380	1	12
415.550	1	2
415.721	1	8
415.892	1	3
416.063	1	8
416.233	1	1
416.404	1	5
416.575	1	-9
416.745	1	2
416.916	1	0
417.087	1	8
417.257	1	9
417.428	1	0
417.599	1	5
417.769	1	-2
417.940	1	-2
418.111	1	-3
418.281	1	-1
418.452	1	-4
418.623	1	-3
418.793	1	5
418.964	1	2
419.135	1	8
419.305	1	-2
419.476	1	4
419.647	1	6
419.817	1	0
419.988	1	-11
420.159	1	-4
420.329	1	1
420.500	1	8
420.671	1	5
420.841	1	3
421.012	1	0
421.183	1	7
421.353	1	4
421.524	1	6
421.695	1	1
421.865	1	13
422.036	1	0
422.206	1	-4
422.377	1	7
422.548	1	10
422.718	1	-5
422.889	1	-2
423.060	1	-4
423.230	1	0
423.401	1	-2
423.572	1	11
423.742	1	0
423.913	1	-5
424.084	1	5
424.254	1	-2
424.425	1	-2
424.595	1	-9
424.766	1	-1
424.937	1	1
425.107	1	3
425.278	1	4
425.449	1	-1
425.619	1	3
425.790	1	4
425.961	1	4
426.131	1	-3
426.302	1	5
426.472	1	-6
426.643	1	-6
426.814	1	1
426.984	1	2
427.155	1	-8
427.326	1	-2
427.496	1	-1
427.667	1	9
427.837	1	10
428.008	1	8
428.179	1	-11
428.349	1	-8
428.520	1	7
428.691	1	1
428.861	1	1
429.032	1	1
429.202	1	12
429.373	1	7
429.544	1	-3
429.714	1	-1
429.885	1	3
430.055	1	0
430.226	1	4
430.397	1	-1
430.567	1	5
430.738	1	-2
430.909	1	-7
431.079	1	-2
431.250	1	-5
431.420	1	3
431.591	1	2
431.762	1	-8
431.932	1	-2
432.103	1	3
432.273	1	12
432.444	1	-3
432.615	1	-2
432.785	1	-1
432.956	1	10
433.126	1	0
433.297	1	6
433.468	1	2
433.638	1	8
433.809	1	7
433.979	1	-2
434.150	1	19
434.320	1	3
434.491	1	0
434.662	1	1
434.832	1	9
435.003	1	4
435.173	1	4
435.344	1	-3
435.515	1	-2
435.685	1	6
435.856	1	3
436.026	1	4
436.197	1	-1
436.368	1	4
436.538	1	-11
436.709	1	-3
436.879	1	-1
437.050	1	15
437.220	1	-11
437.391	1	5
437.562	1	11
437.732	1	2
437.903	1	-5
438.073	1	0
438.244	1	-6
438.414	1	-1
438.585	1	-4
438.756	1	2
438.926	1	2
439.097	1	12
439.267	1	-2
439.438	1	4
439.608	1	3
439.779	1	2
439.949	1	-2
440.120	1	1
440.291	1	5
440.461	1	2
440.632	1	7
440.802	1	3
440.973	1	10
441.143	1	2
441.314	1	-10
441.485	1	5
441.655	1	-1
441.826	1	-9
441.996	1	-5
442.167	1	11
442.337	1	8
442.508	1	4
442.678	1	0
442.849	1	-10
443.019	1	-2
443.190	1	2
443.361	1	16
443.531	1	9
443.702	1	-13
443.872	1	11
444.043	1	14
444.213	1	14
444.384	1	0
444.554	1	7
444.725	1	11
444.895	1	0
445.066	1	-3
445.237	1	1
445.407	1	-7
445.578	1	0
445.748	1	-1
445.919	1	-5
446.089	1	-1
446.260	1	3
446.430	1	-9
446.601	1	4
446.771	1	-10
446.942	1	0
447.112	1	16
447.283	1	-4
447.453	1	-5
447.624	1	-2
447.794	1	4
447.965	1	12
448.135	1	-2
448.306	1	-7
448.477	1	7
448.647	1	-2
448.818	1	-1
448.988	1	-4
449.159	1	10
449.329	1	7
449.500	1	5
449.670	1	13
449.841	1	1
450.011	1	6
450.182	1	-14
450.352	1	3
450.523	1	3
450.693	1	7
450.864	1	2
451.034	1	11
451.205	1	-4
451.375	1	-1
451.546	1	-6
451.716	1	1
451.887	1	-12
452.057	1	13
452.228	1	9
452.398	1	8
452.569	1	-8
452.739	1	1
452.910	1	5
453.080	1	2
453.251	1	6
453.421	1	-3
453.592	1	14
453.762	1	-1
453.933	1	-2
454.103	1	-4
454.274	1	8
454.444	1	11
454.615	1	16
454.785	1	7
454.956	1	0
455.126	1	6
455.297	1	-3
455.467	1	-7
455.638	1	4
455.808	1	3
455.979	1	4
456.149	1	10
456.320	1	10
456.490	1	-4
456.661	1	-6
456.831	1	4
457.001	1	7
457.172	1	12
457.342	1	-1
457.513	1	9
457.683	1	10
457.854	1	6
458.024	1	-9
458.195	1	-7
458.365	1	9
458.536	1	-2
458.706	1	1
458.877	1	1
459.047	1	9
459.218	1	2
459.388	1	13
459.559	1	0
459.729	1	-5
459.899	1	-5
460.070	1	0
460.240	1	-2
460.411	1	-1
460.581	1	2
460.752	1	4
460.922	1	14
461.093	1	0
461.263	1	-3
461.434	1	6
461.604	1	1
461.775	1	-1
461.945	1	3
462.115	1	7
462.286	1	0
462.456	1	2
462.627	1	10
462.797	1	-6
462.968	1	3
463.138	1	0
463.309	1	2
463.479	1	3
463.649	1	1
463.820	1	9
463.990	1	11
464.161	1	1
464.331	1	4
464.502	1	-8
464.672	1	-6
464.843	1	-4
465.013	1	-4
465.183	1	4
465.354	1	10
465.524	1	-1
465.695	1	5
465.865	1	3
466.036	1	-4
466.206	1	0
466.376	1	-4
466.547	1	-6
466.717	1	7
466.888	1	-3
467.058	1	7
467.229	1	14
467.399	1	2
467.569	1	-2
467.740	1	10
467.910	1	9
468.081	1	4
468.251	1	7
468.422	1	1
468.592	1	1
468.762	1	-9
468.933	1	3
469.103	1	-6
469.274	1	-4
469.444	1	5
469.614	1	8
469.785	1	5
469.955	1	4
470.126	1	7
470.296	1	12
470.467	1	-3
470.637	1	2
470.807	1	15
470.978	1	2
471.148	1	-1
471.319	1	3
471.489	1	-6
471.659	1	7
471.830	1	17
472.000	1	-1
472.171	1	1
472.341	1	-5
472.511	1	20
472.682	1	1
472.852	1	-4
473.023	1	-3
473.193	1	8
473.363	1	3
473.534	1	-4
473.704	1	-4
473.875	1	-2
474.045	1	-5
474.215	1	8
474.386	1	10
474.556	1	3
474.727	1	3
474.897	1	-2
475.067	1	-6
475.238	1	-18
475.408	1	-9
475.578	1	12
475.749	1	2
475.919	1	2
476.090	1	5
476.260	1	3
476.430	1	3
476.601	1	15
476.771	1	-7
476.942	1	3
477.112	1	-1
477.282	1	4
477.453	1	-1
477.623	1	5
477.793	1	4
477.964	1	2
478.134	1	3
478.305	1	5
478.475	1	-2
478.645	1	5
478.816	1	7
478.986	1	-6
479.156	1	-1
479.327	1	-8
479.497	1	4
479.667	1	6
479.838	1	-13
480.008	1	1
480.179	1	-13
480.349	1	12
480.519	1	3
480.690	1	4
480.860	1	10
481.030	1	14
481.201	1	2
481.371	1	10
481.541	1	5
481.712	1	-1
481.882	1	2
482.053	1	8
482.223	1	-1
482.393	1	-5
482.564	1	12
482.734	1	0
482.904	1	0
483.075	1	-3
483.245	1	2
483.415	1	3
483.586	1	6
483.756	1	5
483.926	1	-2
484.097	1	-1
484.267	1	-13
484.437	1	6
484.608	1	-4
484.778	1	-7
484.948	1	0
485.119	1	3
485.289	1	4
485.459	1	1
485.630	1	10
485.800	1	2
485.970	1	0
486.141	1	-2
486.311	1	1
486.481	1	1
486.652	1	5
486.822	1	-9
486.992	1	4
487.163	1	3
487.333	1	-1
487.503	1	4
487.674	1	-1
487.844	1	-8
488.014	1	6
488.185	1	-1
488.355	1	-1
488.525	1	4
488.696	1	5
488.866	1	-4
489.036	1	16
489.207	1	4
489.377	1	1
489.547	1	7
489.718	1	4
489.888	1	1
490.058	1	4
490.228	1	-2
490.399	1	5
490.569	1	7
490.739	1	9
490.910	1	-10
491.080	1	-5
491.250	1	7
491.421	1	7
491.591	1	1
491.761	1	-1
491.932	1	-5
492.102	1	0
492.272	1	-1
492.442	1	-3
492.613	1	1
492.783	1	2
492.953	1	-8
493.124	1	8
493.294	1	9
493.464	1	6
493.635	1	-8
493.805	1	7
493.975	1	-3
494.145	1	0
494.316	1	3
494.486	1	5
494.656	1	1
494.827	1	9
494.997	1	-2
495.167	1	0
495.337	1	4
495.508	1	5
495.678	1	7
495.848	1	5
496.019	1	7
496.189	1	1
496.359	1	-1
496.529	1	-4
496.700	1	-3
496.870	1	5
497.040	1	2
497.211	1	4
497.381	1	2
497.551	1	-3
497.721	1	0
497.892	1	10
498.062	1	10
498.232	1	1
498.403	1	2
498.573	1	4
498.743	1	10
498.913	1	4
499.084	1	4
499.254	1	-3
499.424	1	2
499.594	1	0
499.765	1	1
499.935	1	-7
500.105	1	9
500.275	1	-4
500.446	1	7
500.616	1	-2
500.786	1	7
500.956	1	7
501.127	1	6
501.297	1	-3
501.467	1	0
501.638	1	2
501.808	1	12
501.978	1	3
502.148	1	0
502.319	1	9
502.489	1	1
502.659	1	13
502.829	1	-1
503.000	1	1
503.170	1	0
503.340	1	10
503.510	1	-8
503.681	1	0
503.851	1	-1
504.021	1	7
504.191	1	6
504.362	1	0
504.532	1	2
504.702	1	1
504.872	1	-8
505.042	1	-9
505.213	1	6
505.383	1	0
505.553	1	9
505.723	1	3
505.894	1	-7
506.064	1	2
506.234	1	1
506.404	1	-1
506.575	1	-7
506.745	1	13
506.915	1	1
507.085	1	-5
507.256	1	-1
507.426	1	1
507.596	1	3
507.766	1	7
507.936	1	-3
508.107	1	9
508.277	1	-8
508.447	1	-7
508.617	1	2
508.788	1	15
508.958	1	5
509.128	1	-4
509.298	1	-5
509.468	1	0
509.639	1	0
509.809	1	3
509.979	1	2
510.149	1	15
510.319	1	-11
510.490	1	2
510.660	1	1
510.830	1	-1
511.000	1	-8
511.171	1	0
511.341	1	0
511.511	1	5
511.681	1	7
511.851	1	7
512.022	1	-1
512.192	1	5
512.362	1	2
512.532	1	-7
512.702	1	4
512.873	1	4
513.043	1	2
513.213	1	14
513.383	1	-12
513.553	1	8
513.724	1	-8
513.894	1	1
514.064	1	11
514.234	1	5
514.404	1	4
514.575	1	-7
514.745	1	1
514.915	1	-7
515.085	1	0
515.255	1	-3
515.425	1	0
515.596	1	6
515.766	1	7
515.936	1	1
516.106	1	1
516.276	1	-5
516.447	1	10
516.617	1	-3
516.787	1	2
516.957	1	14
517.127	1	1
517.297	1	4
517.468	1	-4
517.638	1	0
517.808	1	7
517.978	1	1
518.148	1	1
518.319	1	1
518.489	1	-4
518.659	1	1
518.829	1	-3
518.999	1	-3
519.169	1	0
519.340	1	4
519.510	1	8
519.680	1	-1
519.850	1	-1
520.020	1	0
520.190	1	5
520.361	1	-2
520.531	1	4
520.701	1	8
520.871	1	-1
521.041	1	6
521.211	1	8
521.382	1	-2
521.552	1	-3
521.722	1	4
521.892	1	8
522.062	1	-2
522.232	1	11
522.402	1	4
522.573	1	6
522.743	1	8
522.913	1	5
523.083	1	-4
523.253	1	9
523.423	1	-3
523.593	1	3
523.764	1	-4
523.934	1	9
524.104	1	6
524.274	1	2
524.444	1	2
524.614	1	4
524.784	1	-9
524.955	1	9
525.125	1	5
525.295	1	1
525.465	1	-5
525.635	1	2
525.805	1	5
525.975	1	0
526.146	1	-8
526.316	1	-5
526.486	1	0
526.656	1	0
526.826	1	0
526.996	1	-4
527.166	1	-6
527.337	1	-3
527.507	1	5
527.677	1	10
527.847	1	4
528.017	1	-4
528.187	1	6
528.357	1	2
528.527	1	11
528.698	1	-6
528.868	1	2
529.038	1	-1
529.208	1	0
529.378	1	6
529.548	1	3
529.718	1	8
529.888	1	5
530.058	1	-4
530.229	1	-1
530.399	1	-7
530.569	1	1
530.739	1	-9
530.909	1	2
531.079	1	-3
531.249	1	-4
531.419	1	3
531.589	1	-2
531.760	1	7
531.930	1	9
532.100	1	-7
532.270	1	4
532.440	1	-6
532.610	1	5
532.780	1	9
532.950	1	5
533.120	1	11
533.290	1	-2
533.461	1	2
533.631	1	2
533.801	1	-6
533.971	1	3
534.141	1	3
534.311	1	3
534.481	1	7
534.651	1	-7
534.821	1	-3
534.991	1	-1
535.162	1	-5
535.332	1	6
535.502	1	5
535.672	1	-8
535.842	1	3
536.012	1	1
536.182	1	4
536.352	1	3
536.522	1	-13
536.692	1	3
536.862	1	2
537.032	1	-8
537.203	1	4
537.373	1	7
537.543	1	-6
537.713	1	0
537.883	1	-1
538.053	1	-4
538.223	1	8
538.393	1	8
538.563	1	12
538.733	1	14
538.903	1	4
539.073	1	1
539.243	1	2
539.413	1	0
539.584	1	0
539.754	1	10
539.924	1	2
540.094	1	-1
540.264	1	-13
540.434	1	10
540.604	1	5
540.774	1	9
540.944	1	-4
541.114	1	-3
541.284	1	-3
541.454	1	-2
541.624	1	9
541.794	1	-2
541.964	1	0
542.134	1	4
542.305	1	11
542.475	1	6
542.645	1	0
542.815	1	-12
542.985	1	4
543.155	1	-9
543.325	1	1
543.495	1	13
543.665	1	-7
543.835	1	-10
544.005	1	7
544.175	1	-2
544.345	1	-3
544.515	1	-2
544.685	1	13
544.855	1	4
545.025	1	5
545.195	1	0
545.365	1	-1
545.535	1	1
545.705	1	4
545.875	1	1
546.045	1	4
546.216	1	-4
546.386	1	3
546.556	1	2
546.726	1	-3
546.896	1	5
547.066	1	6
547.236	1	4
547.406	1	-6
547.576	1	9
547.746	1	18
547.916	1	5
548.086	1	2
548.256	1	-2
548.426	1	1
548.596	1	-11
548.766	1	13
548.936	1	11
549.106	1	14
549.276	1	9
549.446	1	3
549.616	1	4
549.786	1	-7
549.956	1	-5
550.126	1	-2
550.296	1	-2
550.466	1	12
550.636	1	8
550.806	1	7
550.976	1	4
551.146	1	-4
551.316	1	-2
551.486	1	3
551.656	1	3
551.826	1	2
551.996	1	-5
552.166	1	10
552.336	1	-8
552.506	1	4
552.676	1	6
552.846	1	-4
553.016	1	11
553.186	1	5
553.356	1	-3
553.526	1	-1
553.696	1	13
553.866	1	7
554.036	1	-2
554.206	1	3
554.376	1	-4
554.546	1	6
554.716	1	0
554.886	1	8
555.056	1	4
555.226	1	4
555.396	1	-5
555.566	1	3
555.736	1	12
555.906	1	-3
556.076	1	13
556.246	1	3
556.416	1	-8
556.586	1	-8
556.756	1	-8
556.926	1	-8
557.096	1	11
557.266	1	-1
557.436	1	4
557.606	1	1
557.776	1	5
557.946	1	-1
558.116	1	0
558.286	1	4
558.456	1	-6
558.626	1	-10
558.796	1	0
558.966	1	-1
559.136	1	2
559.306	1	1
559.476	1	-4
559.646	1	-6
559.816	1	8
559.986	1	-5
560.155	1	2
560.325	1	-3
560.495	1	-3
560.665	1	-3
560.835	1	-7
561.005	1	3
561.175	1	-9
561.345	1	-2
561.515	1	-2
561.685	1	4
561.855	1	0
562.025	1	-2
562.195	1	0
562.365	1	7
562.535	1	-3
562.705	1	-3
562.875	1	-12
563.045	1	1
563.215	1	-4
563.385	1	-6
563.555	1	-13
563.725	1	3
563.895	1	0
564.064	1	1
564.234	1	5
564.404	1	0
564.574	1	12
564.744	1	1
564.914	1	5
565.084	1	-1
565.254	1	13
565.424	1	-2
565.594	1	-6
565.764	1	3
565.934	1	14
566.104	1	-3
566.274	1	8
566.444	1	-2
566.614	1	-2
566.783	1	2
566.953	1	7
567.123	1	6
567.293	1	-7
567.463	1	1
567.633	1	1
567.803	1	7
567.973	1	7
568.143	1	0
568.313	1	4
568.483	1	5
568.653	1	-2
568.823	1	-5
568.993	1	-3
569.162	1	-4
569.332	1	3
569.502	1	6
569.672	1	4
569.842	1	-5
570.012	1	5
570.182	1	4
570.352	1	5
570.522	1	-4
570.692	1	7
570.862	1	9
571.031	1	5
571.201	1	8
571.371	1	14
571.541	1	7
571.711	1	-5
571.881	1	9
572.051	1	-8
572.221	1	0
572.391	1	9
572.561	1	9
572.731	1	6
572.900	1	-8
573.070	1	2
573.240	1	-4
573.410	1	3
573.580	1	0
573.750	1	2
573.920	1	-1
574.090	1	-2
574.260	1	-3
574.430	1	6
574.599	1	4
574.769	1	0
574.939	1	-1
575.109	1	-5
575.279	1	2
575.449	1	15
575.619	1	7
575.789	1	-7
575.959	1	0
576.128	1	-7
576.298	1	4
576.468	1	9
576.638	1	-7
576.808	1	0
576.978	1	6
577.148	1	0
577.318	1	14
577.487	1	6
577.657	1	3
577.827	1	-3
577.997	1	9
578.167	1	8
578.337	1	-4
578.507	1	-3
578.677	1	2
578.846	1	-2
579.016	1	0
579.186	1	0
579.356	1	8
579.526	1	-12
579.696	1	15
579.866	1	-4
580.036	1	5
580.205	1	2
580.375	1	13
580.545	1	-1
580.715	1	2
580.885	1	10
581.055	1	3
581.225	1	-2
581.394	1	-11
581.564	1	-6
581.734	1	-2
581.904	1	1
582.074	1	4
582.244	1	0
582.414	1	2
582.583	1	3
582.753	1	10
582.923	1	10
583.093	1	4
583.263	1	7
583.433	1	8
583.603	1	-11
583.772	1	-15
583.942	1	5
584.112	1	-10
584.282	1	3
584.452	1	-1
584.622	1	0
584.791	1	4
584.961	1	-12
585.131	1	4
585.301	1	-2
585.471	1	-10
585.641	1	10
585.811	1	-1
585.980	1	2
586.150	1	0
586.320	1	3
586.490	1	2
586.660	1	3
586.830	1	-11
586.999	1	1
587.169	1	1
587.339	1	1
587.509	1	-2
587.679	1	0
587.849	1	9
588.018	1	-10
588.188	1	2
588.358	1	3
588.528	1	1
588.698	1	-3
588.867	1	4
589.037	1	2
589.207	1	2
589.377	1	1
589.547	1	4
589.717	1	-5
589.886	1	3
590.056	1	2
590.226	1	3
590.396	1	0
590.566	1	-4
590.735	1	-5
590.905	1	7
591.075	1	-10
591.245	1	3
591.415	1	5
591.585	1	4
591.754	1	5
591.924	1	1
592.094	1	-1
592.264	1	-7
592.434	1	0
592.603	1	-5
592.773	1	-5
592.943	1	5
593.113	1	-2
593.283	1	-3
593.452	1	-1
593.622	1	10
593.792	1	3
593.962	1	5
594.132	1	-3
594.301	1	8
594.471	1	6
594.641	1	1
594.811	1	-1
594.981	1	-6
595.150	1	6
595.320	1	6
595.490	1	10
595.660	1	9
595.829	1	-11
595.999	1	-13
596.169	1	10
596.339	1	4
596.509	1	4
596.678	1	7
596.848	1	15
597.018	1	-1
597.188	1	-9
597.358	1	4
597.527	1	3
597.697	1	-11
597.867	1	7
598.037	1	4
598.206	1	9
598.376	1	-3
598.546	1	8
598.716	1	-10
598.885	1	5
599.055	1	7
599.225	1	-6
599.395	1	0
599.565	1	-7
599.734	1	8
599.904	1	-11
600.074	1	6
600.244	1	4
600.413	1	6
600.583	1	-11
600.753	1	4
600.923	1	4
601.092	1	10
601.262	1	-1
601.432	1	-3
601.602	1	17
601.771	1	6
601.941	1	8
602.111	1	-3
602.281	1	3
602.451	1	-3
602.620	1	6
602.790	1	3
602.960	1	-9
603.130	1	3
603.299	1	4
603.469	1	0
603.639	1	-14
603.809	1	11
603.978	1	-3
604.148	1	5
604.318	1	-2
604.487	1	2
604.657	1	-12
604.827	1	3
604.997	1	6
605.166	1	4
605.336	1	0
605.506	1	3
605.676	1	8
605.845	1	5
606.015	1	-9
606.185	1	-5
606.355	1	-3
606.524	1	8
606.694	1	-7
606.864	1	1
607.034	1	10
607.203	1	11
607.373	1	-8
607.543	1	4
607.712	1	2
607.882	1	3
608.052	1	-1
608.222	1	6
608.391	1	4
608.561	1	0
608.731	1	-2
608.901	1	8
609.070	1	-7
609.240	1	4
609.410	1	-5
609.579	1	8
609.749	1	-2
609.919	1	-15
610.089	1	-4
610.258	1	0
610.428	1	7
610.598	1	7
610.767	1	9
610.937	1	-3
611.107	1	0
611.277	1	-4
611.446	1	5
611.616	1	3
611.786	1	5
611.955	1	8
612.125	1	11
612.295	1	2
612.465	1	1
612.634	1	11
612.804	1	-2
612.974	1	-11
613.143	1	9
613.313	1	4
613.483	1	14
613.652	1	-4
613.822	1	-1
613.992	1	-8
614.162	1	1
614.331	1	-4
614.501	1	-5
614.671	1	1
614.840	1	3
615.010	1	6
615.180	1	8
615.349	1	21
615.519	1	-4
615.689	1	-4
615.858	1	13
616.028	1	4
616.198	1	-2
616.368	1	-4
616.537	1	-1
616.707	1	4
616.877	1	4
617.046	1	11
617.216	1	-1
617.386	1	7
617.555	1	-11
617.725	1	1
617.895	1	-8
618.064	1	-2
618.234	1	5
618.404	1	-5
618.573	1	14
618.743	1	5
618.913	1	8
619.082	1	0
619.252	1	1
619.422	1	-7
619.591	1	1
619.761	1	-3
619.931	1	11
620.100	1	18
620.270	1	6
620.440	1	4
620.609	1	13
620.779	1	10
620.949	1	3
621.118	1	3
621.288	1	-4
621.458	1	7
621.627	1	4
621.797	1	-5
621.967	1	3
622.136	1	5
622.306	1	-5
622.476	1	-6
622.645	1	-3
622.815	1	4
622.985	1	5
623.154	1	-1
623.324	1	-3
623.494	1	-7
623.663	1	-6
623.833	1	1
624.002	1	1
624.172	1	-4
624.342	1	5
624.511	1	4
624.681	1	5
624.851	1	3
625.020	1	-2
625.190	1	4
625.360	1	-6
625.529	1	-6
625.699	1	-8
625.869	1	0
626.038	1	-9
626.208	1	7
626.377	1	7
626.547	1	-1
626.717	1	-10
626.886	1	-4
627.056	1	-3
627.226	1	8
627.395	1	8
627.565	1	10
627.735	1	3
627.904	1	8
628.074	1	1
628.243	1	5
628.413	1	-6
628.583	1	-1
628.752	1	-9
628.922	1	6
629.091	1	10
629.261	1	3
629.431	1	-3
629.600	1	6
629.770	1	4
629.940	1	-11
630.109	1	-1
630.279	1	4
630.448	1	-1
630.618	1	10
630.788	1	7
630.957	1	9
631.127	1	3
631.297	1	-7
631.466	1	-5
631.636	1	10
631.805	1	6
631.975	1	-2
632.145	1	0
632.314	1	-3
632.484	1	9
632.653	1	-2
632.823	1	1
632.993	1	9
633.162	1	0
633.332	1	-3
633.501	1	-8
633.671	1	-3
633.841	1	0
634.010	1	7
634.180	1	13
634.349	1	-5
634.519	1	7
634.689	1	1
634.858	1	-7
635.028	1	-1
635.197	1	11
635.367	1	3
635.537	1	5
635.706	1	3
635.876	1	10
636.045	1	6
636.215	1	11
636.384	1	-3
636.554	1	-8
636.724	1	1
636.893	1	4
637.063	1	3
637.232	1	-3
637.402	1	-5
637.572	1	5
637.741	1	6
637.911	1	5
638.080	1	5
638.250	1	7
638.419	1	-5
638.589	1	6
638.759	1	-5
638.928	1	0
639.098	1	-2
639.267	1	0
639.437	1	6
639.606	1	4
639.776	1	0
639.946	1	4
640.115	1	-3
640.285	1	3
640.454	1	1
640.624	1	6
640.793	1	4
640.963	1	2
641.132	1	2
641.302	1	-4
641.472	1	2
641.641	1	-3
641.811	1	-1
641.980	1	4
642.150	1	1
642.319	1	6
642.489	1	0
642.659	1	0
642.828	1	7
642.998	1	5
643.167	1	-6
643.337	1	-1
643.506	1	6
643.676	1	-4
643.845	1	9
644.015	1	3
644.184	1	0
644.354	1	-3
644.524	1	-5
644.693	1	4
644.863	1	8
645.032	1	3
645.202	1	5
645.371	1	-11
645.541	1	11
645.710	1	-11
645.880	1	-9
646.049	1	-7
646.219	1	-7
646.388	1	5
646.558	1	7
646.728	1	-9
646.897	1	3
647.067	1	-5
647.236	1	12
647.406	1	4
647.575	1	15
647.745	1	8
647.914	1	-7
648.084	1	7
648.253	1	-2
648.423	1	-1
648.592	1	-14
648.762	1	9
648.931	1	7
649.101	1	1
649.270	1	-7
649.440	1	9
649.610	1	0
649.779	1	3
649.949	1	2
650.118	1	4
650.288	1	10
650.457	1	8
650.627	1	-16
650.796	1	8
650.966	1	-12
651.135	1	-4
651.305	1	-2
651.474	1	6
651.644	1	7
651.813	1	8
651.983	1	-1
652.152	1	-4
652.322	1	-3
652.491	1	-5
652.661	1	2
652.830	1	9
653.000	1	5
653.169	1	3
653.339	1	14
653.508	1	-2
653.678	1	5
653.847	1	-2
654.017	1	8
654.186	1	2
654.356	1	1
654.525	1	0
654.695	1	-1
654.864	1	-5
655.034	1	12
655.203	1	7
655.373	1	5
655.542	1	-2
655.712	1	7
655.881	1	9
656.051	1	4
656.220	1	0
656.390	1	-2
656.559	1	-8
656.729	1	-8
656.898	1	12
657.068	1	4
657.237	1	1
657.406	1	-4
657.576	1	2
657.745	1	5
657.915	1	7
658.084	1	1
658.254	1	5
658.423	1	6
658.593	1	9
658.762	1	11
658.932	1	-4
659.101	1	-5
659.271	1	8
659.440	1	8
659.610	1	-5
659.779	1	20
659.949	1	-4
660.118	1	1
660.288	1	-5
660.457	1	7
660.626	1	-4
660.796	1	-5
660.965	1	-1
661.135	1	5
661.304	1	-10
661.474	1	2
661.643	1	-4
661.813	1	7
661.982	1	4
662.152	1	3
662.321	1	-1
662.491	1	-8
662.660	1	-4
662.829	1	7
662.999	1	3
663.168	1	-5
663.338	1	6
663.507	1	1
663.677	1	8
663.846	1	1
664.016	1	-6
664.185	1	-2
664.354	1	-2
664.524	1	6
664.693	1	-5
664.863	1	1
665.032	1	2
665.202	1	3
665.371	1	4
665.541	1	14
665.710	1	-5
665.879	1	4
666.049	1	-1
666.218	1	-11
666.388	1	4
666.557	1	4
666.727	1	1
666.896	1	-3
667.065	1	1
667.235	1	19
667.404	1	0
667.574	1	7
667.743	1	6
667.913	1	6
668.082	1	3
668.251	1	5
668.421	1	3
668.590	1	4
668.760	1	8
668.929	1	5
669.099	1	-5
669.268	1	-7
669.437	1	-2
669.607	1	11
669.776	1	6
669.946	1	7
670.115	1	-19
670.285	1	18
670.454	1	-2
670.623	1	0
670.793	1	0
670.962	1	0
671.132	1	-9
671.301	1	4
671.470	1	3
671.640	1	-7
671.809	1	-1
671.979	1	3
672.148	1	4
672.317	1	-9
672.487	1	-2
672.656	1	-2
672.826	1	-3
672.995	1	9
673.164	1	-4
673.334	1	5
673.503	1	-8
673.673	1	6
673.842	1	3
674.011	1	3
674.181	1	11
674.350	1	-4
674.520	1	6
674.689	1	2
674.858	1	-5
675.028	1	4
675.197	1	10
675.367	1	-3
675.536	1	6
675.705	1	-3
675.875	1	1
676.044	1	-4
676.214	1	-6
676.383	1	14
676.552	1	5
676.722	1	-5
676.891	1	2
677.060	1	0
677.230	1	7
677.399	1	-6
677.569	1	10
677.738	1	8
677.907	1	0
678.077	1	5
678.246	1	8
678.416	1	3
678.585	1	-3
678.754	1	-3
678.924	1	8
679.093	1	0
679.262	1	2
679.432	1	5
679.601	1	-1
679.771	1	3
679.940	1	8
680.109	1	3
680.279	1	-6
680.448	1	3
680.617	1	-4
680.787	1	4
680.956	1	5
681.125	1	3
681.295	1	3
681.464	1	-5
681.634	1	5
681.803	1	-4
681.972	1	-1
682.142	1	-11
682.311	1	9
682.480	1	8
682.650	1	12
682.819	1	2
682.988	1	-2
683.158	1	-4
683.327	1	20
683.496	1	2
683.666	1	4
683.835	1	-6
684.004	1	6
684.174	1	1
684.343	1	10
684.512	1	1
684.682	1	-1
684.851	1	9
685.021	1	-7
685.190	1	8
685.359	1	-7
685.529	1	17
685.698	1	5
685.867	1	3
686.037	1	5
686.206	1	-10
686.375	1	2
686.545	1	6
686.714	1	8
686.883	1	4
687.053	1	-1
687.222	1	-2
687.391	1	0
687.561	1	15
687.730	1	-1
687.899	1	0
688.069	1	4
688.238	1	3
688.407	1	4
688.577	1	-1
688.746	1	11
