340.368	1	11
340.539	1	6
340.710	1	1
340.881	1	0
341.052	1	-3
341.223	1	13
341.394	1	1
341.565	1	-1
341.737	1	5
341.908	1	-12
342.079	1	-8
342.250	1	2
342.421	1	0
342.592	1	9
342.763	1	-1
342.934	1	-7
343.105	1	-3
343.276	1	2
343.447	1	-6
343.618	1	-4
343.789	1	3
343.960	1	0
344.131	1	-2
344.302	1	-9
344.473	1	-5
344.644	1	-8
344.815	1	-2
344.986	1	-6
345.157	1	9
345.328	1	-11
345.499	1	4
345.670	1	-6
345.841	1	0
346.012	1	-7
346.183	1	8
346.354	1	11
346.526	1	-4
346.697	1	10
346.868	1	-2
347.039	1	-1
347.210	1	3
347.381	1	5
347.552	1	1
347.723	1	-5
347.894	1	1
348.065	1	7
348.236	1	1
348.407	1	-6
348.578	1	1
348.749	1	-4
348.920	1	-1
349.091	1	-3
349.262	1	-5
349.433	1	-4
349.604	1	3
349.775	1	7
349.946	1	0
350.117	1	4
350.288	1	1
350.459	1	0
350.630	1	8
350.801	1	9
350.972	1	3
351.143	1	8
351.314	1	-3
351.485	1	2
351.656	1	-3
351.827	1	0
351.998	1	5
352.169	1	-5
352.340	1	-7
352.511	1	4
352.682	1	-1
352.853	1	1
353.024	1	-1
353.195	1	4
353.366	1	2
353.537	1	-4
353.708	1	3
353.879	1	-4
354.050	1	4
354.221	1	-3
354.392	1	9
354.563	1	11
354.734	1	0
354.905	1	9
355.076	1	3
355.247	1	2
355.418	1	3
355.589	1	-2
355.760	1	2
355.931	1	8
356.102	1	-4
356.273	1	-6
356.444	1	0
356.615	1	1
356.785	1	-3
356.956	1	3
357.127	1	1
357.298	1	-2
357.469	1	1
357.640	1	-1
357.811	1	-9
357.982	1	-7
358.153	1	4
358.324	1	8
358.495	1	-4
358.666	1	1
358.837	1	10
359.008	1	8
359.179	1	2
359.350	1	0
359.521	1	10
359.692	1	4
359.863	1	1
360.034	1	-1
360.205	1	2
360.376	1	-2
360.547	1	-4
360.718	1	14
360.889	1	5
361.060	1	-6
361.231	1	-1
361.401	1	-1
361.572	1	1
361.743	1	15
361.914	1	14
362.085	1	-3
362.256	1	4
362.427	1	-5
362.598	1	0
362.769	1	8
362.940	1	-1
363.111	1	10
363.282	1	5
363.453	1	-2
363.624	1	-2
363.795	1	-4
363.966	1	2
364.137	1	8
364.308	1	8
364.478	1	-1
364.649	1	19
364.820	1	9
364.991	1	12
365.162	1	6
365.333	1	2
365.504	1	-4
365.675	1	2
365.846	1	4
366.017	1	7
366.188	1	4
366.359	1	16
366.530	1	17
366.701	1	15
366.871	1	-1
367.042	1	16
367.213	1	13
367.384	1	-5
367.555	1	21
367.726	1	4
367.897	1	11
368.068	1	10
368.239	1	9
368.410	1	9
368.581	1	5
368.752	1	9
368.923	1	21
369.093	1	9
369.264	1	0
369.435	1	0
369.606	1	12
369.777	1	11
369.948	1	5
370.119	1	8
370.290	1	5
370.461	1	12
370.632	1	18
370.803	1	14
370.973	1	2
371.144	1	11
371.315	1	4
371.486	1	2
371.657	1	6
371.828	1	11
371.999	1	-7
372.170	1	4
372.341	1	-3
372.512	1	-3
372.682	1	6
372.853	1	2
373.024	1	9
373.195	1	6
373.366	1	-3
373.537	1	4
373.708	1	7
373.879	1	3
374.050	1	0
374.220	1	6
374.391	1	-1
374.562	1	0
374.733	1	-1
374.904	1	11
375.075	1	3
375.246	1	-8
375.417	1	17
375.588	1	5
375.758	1	-6
375.929	1	0
376.100	1	8
376.271	1	5
376.442	1	-1
376.613	1	0
376.784	1	11
376.955	1	-4
377.125	1	6
377.296	1	-1
377.467	1	5
377.638	1	8
377.809	1	4
377.980	1	4
378.151	1	3
378.321	1	5
378.492	1	5
378.663	1	-1
378.834	1	8
379.005	1	-2
379.176	1	-6
379.347	1	1
379.518	1	-3
379.688	1	1
379.859	1	4
380.030	1	15
380.201	1	13
380.372	1	9
380.543	1	14
380.714	1	0
380.884	1	-6
381.055	1	4
381.226	1	2
381.397	1	7
381.568	1	3
381.739	1	1
381.910	1	-3
382.080	1	4
382.251	1	-2
382.422	1	1
382.593	1	1
382.764	1	-3
382.935	1	2
383.105	1	0
383.276	1	0
383.447	1	-4
383.618	1	17
383.789	1	-6
383.960	1	3
384.130	1	4
384.301	1	10
384.472	1	8
384.643	1	0
384.814	1	8
384.985	1	0
385.156	1	11
385.326	1	-4
385.497	1	-3
385.668	1	5
385.839	1	9
386.010	1	16
386.180	1	6
386.351	1	1
386.522	1	4
386.693	1	4
386.864	1	10
387.035	1	6
387.205	1	11
387.376	1	15
387.547	1	13
387.718	1	5
387.889	1	1
388.060	1	8
388.230	1	14
388.401	1	-5
388.572	1	2
388.743	1	4
388.914	1	-3
389.084	1	9
389.255	1	13
389.426	1	-1
389.597	1	13
389.768	1	2
389.939	1	6
390.109	1	-2
390.280	1	-2
390.451	1	0
390.622	1	-4
390.793	1	10
390.963	1	14
391.134	1	1
391.305	1	-3
391.476	1	10
391.647	1	6
391.817	1	-1
391.988	1	-2
392.159	1	8
392.330	1	1
392.501	1	4
392.671	1	5
392.842	1	7
393.013	1	13
393.184	1	5
393.355	1	14
393.525	1	7
393.696	1	-7
393.867	1	13
394.038	1	-3
394.208	1	8
394.379	1	1
394.550	1	4
394.721	1	2
394.892	1	-3
395.062	1	4
395.233	1	5
395.404	1	5
395.575	1	-3
395.746	1	4
395.916	1	4
396.087	1	8
396.258	1	9
396.429	1	0
396.599	1	1
396.770	1	11
396.941	1	0
397.112	1	-3
397.283	1	-10
397.453	1	14
397.624	1	14
397.795	1	1
397.966	1	14
398.136	1	-3
398.307	1	2
398.478	1	-3
398.649	1	3
398.819	1	5
398.990	1	9
399.161	1	7
399.332	1	4
399.503	1	12
399.673	1	-13
399.844	1	8
400.015	1	7
400.186	1	-5
400.356	1	18
400.527	1	7
400.698	1	-1
400.869	1	5
401.039	1	-5
401.210	1	7
401.381	1	5
401.552	1	-5
401.722	1	10
401.893	1	7
402.064	1	5
402.235	1	6
402.405	1	-2
402.576	1	-2
402.747	1	-2
402.918	1	6
403.088	1	-6
403.259	1	-2
403.430	1	7
403.601	1	11
403.771	1	15
403.942	1	6
404.113	1	10
404.284	1	0
404.454	1	1
404.625	1	6
404.796	1	-6
404.967	1	-5
405.137	1	8
405.308	1	9
405.479	1	16
405.649	1	1
405.820	1	8
405.991	1	-2
406.162	1	5
406.332	1	-1
406.503	1	-2
406.674	1	-7
406.845	1	-9
407.015	1	5
407.186	1	11
407.357	1	2
407.527	1	8
407.698	1	6
407.869	1	14
408.040	1	6
408.210	1	4
408.381	1	3
408.552	1	-6
408.722	1	-3
408.893	1	0
409.064	1	-2
409.235	1	-2
409.405	1	3
409.576	1	6
409.747	1	6
409.917	1	8
410.088	1	-9
410.259	1	-1
410.430	1	5
410.600	1	1
410.771	1	5
410.942	1	1
411.112	1	7
411.283	1	-3
411.454	1	0
411.625	1	-2
411.795	1	5
411.966	1	12
412.137	1	4
412.307	1	8
412.478	1	2
412.649	1	-5
412.819	1	10
412.990	1	-3
413.161	1	-8
413.332	1	8
413.502	1	-4
413.673	1	15
413.844	1	11
414.014	1	3
414.185	1	8
414.356	1	-3
414.526	1	9
414.697	1	18
414.868	1	-2
415.038	1	-2
415.209	1	-11
415.380	1	12
415.550	1	-1
415.721	1	-5
415.892	1	5
416.063	1	11
416.233	1	8
416.404	1	-3
416.575	1	-2
416.745	1	0
416.916	1	-1
417.087	1	13
417.257	1	5
417.428	1	-7
417.599	1	2
417.769	1	3
417.940	1	4
418.111	1	4
418.281	1	-3
418.452	1	1
418.623	1	-4
418.793	1	5
418.964	1	5
419.135	1	11
419.305	1	-7
419.476	1	-1
419.647	1	3
419.817	1	7
419.988	1	-7
420.159	1	5
420.329	1	2
420.500	1	4
420.671	1	-1
420.841	1	-1
421.012	1	-2
421.183	1	5
421.353	1	3
421.524	1	10
421.695	1	-1
421.865	1	9
422.036	1	-5
422.206	1	6
422.377	1	8
422.548	1	10
422.718	1	-11
422.889	1	-13
423.060	1	4
423.230	1	2
423.401	1	-1
423.572	1	19
423.742	1	1
423.913	1	0
424.084	1	-4
424.254	1	-13
424.425	1	-4
424.595	1	0
424.766	1	-7
424.937	1	11
425.107	1	7
425.278	1	-1
425.449	1	2
425.619	1	10
425.790	1	2
425.961	1	-4
426.131	1	-1
426.302	1	10
426.472	1	1
426.643	1	-1
426.814	1	-1
426.984	1	3
427.155	1	-11
427.326	1	-3
427.496	1	-12
427.667	1	11
427.837	1	0
428.008	1	1
428.179	1	-5
428.349	1	-11
428.520	1	10
428.691	1	0
428.861	1	2
429.032	1	6
429.202	1	-1
429.373	1	5
429.544	1	1
429.714	1	0
429.885	1	-6
430.055	1	0
430.226	1	-5
430.397	1	-3
430.567	1	5
430.738	1	0
430.909	1	4
431.079	1	-1
431.250	1	-5
431.420	1	-5
431.591	1	-1
431.762	1	-2
431.932	1	-3
432.103	1	-7
432.273	1	6
432.444	1	-14
432.615	1	-3
432.785	1	1
432.956	1	-3
433.126	1	2
433.297	1	5
433.468	1	3
433.638	1	0
433.809	1	2
433.979	1	5
434.150	1	11
434.320	1	10
434.491	1	7
434.662	1	4
434.832	1	-2
435.003	1	3
435.173	1	0
435.344	1	1
435.515	1	2
435.685	1	4
435.856	1	7
436.026	1	-1
436.197	1	-4
436.368	1	-5
436.538	1	-1
436.709	1	-8
436.879	1	-3
437.050	1	4
437.220	1	1
437.391	1	6
437.562	1	-12
437.732	1	-2
437.903	1	-8
438.073	1	7
438.244	1	1
438.414	1	5
438.585	1	4
438.756	1	8
438.926	1	-2
439.097	1	9
439.267	1	-2
439.438	1	5
439.608	1	2
439.779	1	2
439.949	1	-3
440.120	1	-9
440.291	1	6
440.461	1	4
440.632	1	-1
440.802	1	-1
440.973	1	8
441.143	1	2
441.314	1	-9
441.485	1	-3
441.655	1	-3
441.826	1	-10
441.996	1	-11
442.167	1	-1
442.337	1	9
442.508	1	2
442.678	1	-3
442.849	1	-6
443.019	1	3
443.190	1	9
443.361	1	-1
443.531	1	4
443.702	1	-6
443.872	1	0
444.043	1	8
444.213	1	14
444.384	1	4
444.554	1	4
444.725	1	9
444.895	1	-10
445.066	1	6
445.237	1	-5
445.407	1	-7
445.578	1	0
445.748	1	-3
445.919	1	-3
446.089	1	-1
446.260	1	-4
446.430	1	-9
446.601	1	3
446.771	1	-6
446.942	1	-4
447.112	1	5
447.283	1	-8
447.453	1	-4
447.624	1	-9
447.794	1	-6
447.965	1	6
448.135	1	2
448.306	1	-12
448.477	1	10
448.647	1	3
448.818	1	7
448.988	1	-4
449.159	1	0
449.329	1	0
449.500	1	-2
449.670	1	4
449.841	1	-3
450.011	1	9
450.182	1	-9
450.352	1	6
450.523	1	3
450.693	1	14
450.864	1	2
451.034	1	10
451.205	1	-2
451.375	1	4
451.546	1	-9
451.716	1	-4
451.887	1	-5
452.057	1	11
452.228	1	4
452.398	1	7
452.569	1	-1
452.739	1	1
452.910	1	-5
453.080	1	4
453.251	1	2
453.421	1	-12
453.592	1	13
453.762	1	4
453.933	1	6
454.103	1	-3
454.274	1	2
454.444	1	4
454.615	1	3
454.785	1	2
454.956	1	3
455.126	1	2
455.297	1	-5
455.467	1	-3
455.638	1	8
455.808	1	0
455.979	1	-5
456.149	1	2
456.320	1	10
456.490	1	-8
456.661	1	-9
456.831	1	6
457.001	1	5
457.172	1	0
457.342	1	-8
457.513	1	15
457.683	1	7
457.854	1	3
458.024	1	-12
458.195	1	-11
458.365	1	13
458.536	1	-3
458.706	1	-1
458.877	1	0
459.047	1	12
459.218	1	3
459.388	1	11
459.559	1	-5
459.729	1	-9
459.899	1	-5
460.070	1	-6
460.240	1	0
460.411	1	8
460.581	1	-3
460.752	1	8
460.922	1	7
461.093	1	2
461.263	1	9
461.434	1	-2
461.604	1	12
461.775	1	-3
461.945	1	1
462.115	1	4
462.286	1	0
462.456	1	9
462.627	1	-4
462.797	1	-12
462.968	1	-6
463.138	1	0
463.309	1	-1
463.479	1	4
463.649	1	-9
463.820	1	2
463.990	1	3
464.161	1	3
464.331	1	2
464.502	1	8
464.672	1	-19
464.843	1	1
465.013	1	-5
465.183	1	-1
465.354	1	4
465.524	1	-9
465.695	1	-5
465.865	1	7
466.036	1	2
466.206	1	2
466.376	1	-10
466.547	1	-2
466.717	1	6
466.888	1	-1
467.058	1	0
467.229	1	-2
467.399	1	-2
467.569	1	16
467.740	1	3
467.910	1	1
468.081	1	-2
468.251	1	2
468.422	1	-7
468.592	1	-6
468.762	1	-4
468.933	1	2
469.103	1	0
469.274	1	3
469.444	1	14
469.614	1	8
469.785	1	5
469.955	1	0
470.126	1	0
470.296	1	-6
470.467	1	-8
470.637	1	0
470.807	1	13
470.978	1	-3
471.148	1	1
471.319	1	12
471.489	1	-7
471.659	1	-4
471.830	1	7
472.000	1	-3
472.171	1	-13
472.341	1	-1
472.511	1	0
472.682	1	-9
472.852	1	-11
473.023	1	1
473.193	1	7
473.363	1	9
473.534	1	-8
473.704	1	3
473.875	1	-6
474.045	1	7
474.215	1	-8
474.386	1	6
474.556	1	-2
474.727	1	4
474.897	1	-2
475.067	1	-6
475.238	1	-5
475.408	1	-3
475.578	1	7
475.749	1	6
475.919	1	-6
476.090	1	7
476.260	1	7
476.430	1	11
476.601	1	13
476.771	1	1
476.942	1	1
477.112	1	1
477.282	1	-4
477.453	1	-3
477.623	1	4
477.793	1	2
477.964	1	0
478.134	1	4
478.305	1	4
478.475	1	-2
478.645	1	10
478.816	1	5
478.986	1	-6
479.156	1	-4
479.327	1	-1
479.497	1	3
479.667	1	11
479.838	1	-14
480.008	1	-9
480.179	1	-15
480.349	1	6
480.519	1	1
480.690	1	-2
480.860	1	5
481.030	1	8
481.201	1	-2
481.371	1	11
481.541	1	4
481.712	1	-4
481.882	1	-8
482.053	1	-8
482.223	1	-7
482.393	1	-6
482.564	1	1
482.734	1	4
482.904	1	-1
483.075	1	2
483.245	1	9
483.415	1	3
483.586	1	3
483.756	1	-4
483.926	1	-1
484.097	1	-1
484.267	1	-10
484.437	1	-1
484.608	1	2
484.778	1	-2
484.948	1	0
485.119	1	0
485.289	1	7
485.459	1	4
485.630	1	5
485.800	1	-3
485.970	1	-11
486.141	1	-1
486.311	1	2
486.481	1	4
486.652	1	-2
486.822	1	2
486.992	1	4
487.163	1	-1
487.333	1	-6
487.503	1	-1
487.674	1	8
487.844	1	-1
488.014	1	0
488.185	1	-3
488.355	1	3
488.525	1	6
488.696	1	5
488.866	1	-4
489.036	1	6
489.207	1	0
489.377	1	-5
489.547	1	-3
489.718	1	-1
489.888	1	-1
490.058	1	-1
490.228	1	-7
490.399	1	1
490.569	1	9
490.739	1	6
490.910	1	-11
491.080	1	-9
491.250	1	3
491.421	1	4
491.591	1	-5
491.761	1	-5
491.932	1	-5
492.102	1	-4
492.272	1	4
492.442	1	3
492.613	1	2
492.783	1	3
492.953	1	9
493.124	1	6
493.294	1	7
493.464	1	3
493.635	1	-4
493.805	1	1
493.975	1	0
494.145	1	0
494.316	1	2
494.486	1	0
494.656	1	5
494.827	1	5
494.997	1	0
495.167	1	5
495.337	1	2
495.508	1	6
495.678	1	5
495.848	1	9
496.019	1	2
496.189	1	-2
496.359	1	-7
496.529	1	-7
496.700	1	1
496.870	1	8
497.040	1	-8
497.211	1	5
497.381	1	4
497.551	1	-6
497.721	1	-13
497.892	1	4
498.062	1	2
498.232	1	6
498.403	1	-3
498.573	1	6
498.743	1	-3
498.913	1	3
499.084	1	-4
499.254	1	-5
499.424	1	-4
499.594	1	-1
499.765	1	4
499.935	1	1
500.105	1	5
500.275	1	3
500.446	1	0
500.616	1	-2
500.786	1	10
500.956	1	3
501.127	1	1
501.297	1	-8
501.467	1	-3
501.638	1	7
501.808	1	3
501.978	1	-7
502.148	1	-6
502.319	1	12
502.489	1	-4
502.659	1	14
502.829	1	2
503.000	1	4
503.170	1	-6
503.340	1	9
503.510	1	-7
503.681	1	-11
503.851	1	-1
504.021	1	6
504.191	1	13
504.362	1	2
504.532	1	2
504.702	1	4
504.872	1	-4
505.042	1	-4
505.213	1	10
505.383	1	4
505.553	1	0
505.723	1	4
505.894	1	-6
506.064	1	8
506.234	1	0
506.404	1	1
506.575	1	-1
506.745	1	2
506.915	1	3
507.085	1	-3
507.256	1	-3
507.426	1	1
507.596	1	10
507.766	1	5
507.936	1	6
508.107	1	10
508.277	1	-10
508.447	1	3
508.617	1	-6
508.788	1	14
508.958	1	9
509.128	1	-2
509.298	1	1
509.468	1	7
509.639	1	5
509.809	1	7
509.979	1	-5
510.149	1	8
510.319	1	-10
510.490	1	0
510.660	1	5
510.830	1	3
511.000	1	0
511.171	1	1
511.341	1	5
511.511	1	2
511.681	1	1
511.851	1	4
512.022	1	-13
512.192	1	6
512.362	1	3
512.532	1	3
512.702	1	9
512.873	1	13
513.043	1	10
513.213	1	12
513.383	1	5
513.553	1	8
513.724	1	-4
513.894	1	0
514.064	1	19
514.234	1	7
514.404	1	7
514.575	1	-8
514.745	1	-7
514.915	1	-17
515.085	1	2
515.255	1	3
515.425	1	-7
515.596	1	18
515.766	1	-6
515.936	1	-3
516.106	1	7
516.276	1	6
516.447	1	13
516.617	1	5
516.787	1	-1
516.957	1	5
517.127	1	2
517.297	1	9
517.468	1	0
517.638	1	-8
517.808	1	3
517.978	1	4
518.148	1	-2
518.319	1	3
518.489	1	-5
518.659	1	6
518.829	1	-3
518.999	1	11
519.169	1	3
519.340	1	6
519.510	1	11
519.680	1	5
519.850	1	-2
520.020	1	-2
520.190	1	1
520.361	1	-2
520.531	1	6
520.701	1	8
520.871	1	-3
521.041	1	8
521.211	1	14
521.382	1	-1
521.552	1	-2
521.722	1	5
521.892	1	-4
522.062	1	9
522.232	1	9
522.402	1	3
522.573	1	2
522.743	1	5
522.913	1	5
523.083	1	4
523.253	1	5
523.423	1	1
523.593	1	2
523.764	1	9
523.934	1	2
524.104	1	3
524.274	1	4
524.444	1	11
524.614	1	-4
524.784	1	5
524.955	1	9
525.125	1	4
525.295	1	6
525.465	1	-1
525.635	1	4
525.805	1	8
525.975	1	-3
526.146	1	1
526.316	1	-4
526.486	1	4
526.656	1	2
526.826	1	5
526.996	1	2
527.166	1	-5
527.337	1	-4
527.507	1	5
527.677	1	9
527.847	1	-3
528.017	1	4
528.187	1	0
528.357	1	8
528.527	1	5
528.698	1	-1
528.868	1	1
529.038	1	7
529.208	1	-13
529.378	1	8
529.548	1	9
529.718	1	11
529.888	1	3
530.058	1	1
530.229	1	20
530.399	1	5
530.569	1	-14
530.739	1	-7
530.909	1	-7
531.079	1	-1
531.249	1	0
531.419	1	9
531.589	1	1
531.760	1	-8
531.930	1	10
532.100	1	8
532.270	1	10
532.440	1	-7
532.610	1	7
532.780	1	4
532.950	1	4
533.120	1	15
533.290	1	2
533.461	1	2
533.631	1	3
533.801	1	4
533.971	1	0
534.141	1	10
534.311	1	10
534.481	1	1
534.651	1	1
534.821	1	0
534.991	1	2
535.162	1	1
535.332	1	-1
535.502	1	-3
535.672	1	1
535.842	1	9
536.012	1	2
536.182	1	0
536.352	1	-6
536.522	1	5
536.692	1	4
536.862	1	-7
537.032	1	-1
537.203	1	14
537.373	1	11
537.543	1	-4
537.713	1	-3
537.883	1	-5
538.053	1	4
538.223	1	3
538.393	1	4
538.563	1	20
538.733	1	14
538.903	1	13
539.073	1	8
539.243	1	1
539.413	1	4
539.584	1	2
539.754	1	0
539.924	1	7
540.094	1	3
540.264	1	-7
540.434	1	1
540.604	1	7
540.774	1	7
540.944	1	-2
541.114	1	2
541.284	1	-5
541.454	1	1
541.624	1	4
541.794	1	6
541.964	1	-1
542.134	1	13
542.305	1	10
542.475	1	-8
542.645	1	8
542.815	1	-9
542.985	1	9
543.155	1	-2
543.325	1	2
543.495	1	11
543.665	1	-6
543.835	1	-4
544.005	1	0
544.175	1	-2
544.345	1	-4
544.515	1	3
544.685	1	14
544.855	1	7
545.025	1	12
545.195	1	-3
545.365	1	-7
545.535	1	-7
545.705	1	15
545.875	1	1
546.045	1	-2
546.216	1	-4
546.386	1	2
546.556	1	-1
546.726	1	-2
546.896	1	4
547.066	1	9
547.236	1	5
547.406	1	-4
547.576	1	14
547.746	1	10
547.916	1	0
548.086	1	3
548.256	1	-3
548.426	1	4
548.596	1	-3
548.766	1	17
548.936	1	9
549.106	1	6
549.276	1	14
549.446	1	1
549.616	1	3
549.786	1	-11
549.956	1	2
550.126	1	-8
550.296	1	3
550.466	1	-3
550.636	1	9
550.806	1	12
550.976	1	6
551.146	1	-12
551.316	1	-6
551.486	1	3
551.656	1	-1
551.826	1	10
551.996	1	-1
552.166	1	9
552.336	1	-3
552.506	1	11
552.676	1	9
552.846	1	5
553.016	1	11
553.186	1	8
553.356	1	3
553.526	1	0
553.696	1	15
553.866	1	8
554.036	1	0
554.206	1	8
554.376	1	-8
554.546	1	14
554.716	1	1
554.886	1	5
555.056	1	3
555.226	1	4
555.396	1	-11
555.566	1	9
555.736	1	1
555.906	1	9
556.076	1	11
556.246	1	-4
556.416	1	-4
556.586	1	-11
556.756	1	-6
556.926	1	-3
557.096	1	12
557.266	1	5
557.436	1	7
557.606	1	-5
557.776	1	11
557.946	1	-5
558.116	1	5
558.286	1	2
558.456	1	-4
558.626	1	-13
558.796	1	4
558.966	1	1
559.136	1	11
559.306	1	1
559.476	1	15
559.646	1	3
559.816	1	5
559.986	1	-10
560.155	1	4
560.325	1	-1
560.495	1	-1
560.665	1	-9
560.835	1	4
561.005	1	6
561.175	1	-4
561.345	1	-6
561.515	1	-7
561.685	1	-2
561.855	1	-2
562.025	1	9
562.195	1	1
562.365	1	5
562.535	1	0
562.705	1	6
562.875	1	-3
563.045	1	-8
563.215	1	2
563.385	1	-5
563.555	1	-3
563.725	1	5
563.895	1	4
564.064	1	-8
564.234	1	0
564.404	1	-8
564.574	1	12
564.744	1	-2
564.914	1	11
565.084	1	-9
565.254	1	1
565.424	1	4
565.594	1	1
565.764	1	-7
565.934	1	7
566.104	1	-3
566.274	1	9
566.444	1	-7
566.614	1	1
566.783	1	-1
566.953	1	3
567.123	1	-3
567.293	1	-6
567.463	1	0
567.633	1	5
567.803	1	20
567.973	1	-1
568.143	1	1
568.313	1	-5
568.483	1	10
568.653	1	-5
568.823	1	-7
568.993	1	-7
569.162	1	-5
569.332	1	5
569.502	1	6
569.672	1	4
569.842	1	-6
570.012	1	1
570.182	1	1
570.352	1	-3
570.522	1	-7
570.692	1	4
570.862	1	8
571.031	1	-6
571.201	1	5
571.371	1	11
571.541	1	-1
571.711	1	0
571.881	1	14
572.051	1	-6
572.221	1	6
572.391	1	15
572.561	1	14
572.731	1	5
572.900	1	-6
573.070	1	1
573.240	1	-10
573.410	1	-3
573.580	1	-5
573.750	1	5
573.920	1	1
574.090	1	7
574.260	1	-5
574.430	1	1
574.599	1	-3
574.769	1	3
574.939	1	-9
575.109	1	-6
575.279	1	-3
575.449	1	12
575.619	1	3
575.789	1	5
575.959	1	8
576.128	1	-17
576.298	1	7
576.468	1	7
576.638	1	-13
576.808	1	-5
576.978	1	-2
577.148	1	1
577.318	1	15
577.487	1	4
577.657	1	3
577.827	1	4
577.997	1	10
578.167	1	3
578.337	1	3
578.507	1	0
578.677	1	-7
578.846	1	5
579.016	1	3
579.186	1	-6
579.356	1	9
579.526	1	-4
579.696	1	16
579.866	1	-6
580.036	1	-5
580.205	1	-11
580.375	1	13
580.545	1	5
580.715	1	0
580.885	1	4
581.055	1	-13
581.225	1	1
581.394	1	-8
581.564	1	-5
581.734	1	-2
581.904	1	-6
582.074	1	-4
582.244	1	-2
582.414	1	-2
582.583	1	2
582.753	1	5
582.923	1	8
583.093	1	0
583.263	1	3
583.433	1	-1
583.603	1	-7
583.772	1	-9
583.942	1	3
584.112	1	-4
584.282	1	3
584.452	1	0
584.622	1	1
584.791	1	-5
584.961	1	-10
585.131	1	-9
585.301	1	-9
585.471	1	-3
585.641	1	5
585.811	1	-3
585.980	1	0
586.150	1	5
586.320	1	3
586.490	1	11
586.660	1	5
586.830	1	-9
586.999	1	-7
587.169	1	7
587.339	1	0
587.509	1	4
587.679	1	-1
587.849	1	5
588.018	1	-14
588.188	1	-7
588.358	1	-2
588.528	1	0
588.698	1	-8
588.867	1	-4
589.037	1	-5
589.207	1	7
589.377	1	1
589.547	1	5
589.717	1	-10
589.886	1	4
590.056	1	4
590.226	1	-8
590.396	1	-6
590.566	1	-6
590.735	1	-4
590.905	1	11
591.075	1	-10
591.245	1	9
591.415	1	-2
591.585	1	3
591.754	1	2
591.924	1	5
592.094	1	1
592.264	1	-3
592.434	1	7
592.603	1	0
592.773	1	4
592.943	1	5
593.113	1	4
593.283	1	-3
593.452	1	-11
593.622	1	-2
593.792	1	9
593.962	1	7
594.132	1	10
594.301	1	6
594.471	1	-3
594.641	1	3
594.811	1	-10
594.981	1	-4
595.150	1	3
595.320	1	-4
595.490	1	7
595.660	1	0
595.829	1	-2
595.999	1	-11
596.169	1	10
596.339	1	2
596.509	1	3
596.678	1	11
596.848	1	9
597.018	1	-4
597.188	1	-10
597.358	1	0
597.527	1	0
597.697	1	-1
597.867	1	8
598.037	1	5
598.206	1	15
598.376	1	-1
598.546	1	2
598.716	1	-12
598.885	1	1
599.055	1	4
599.225	1	9
599.395	1	-2
599.565	1	0
599.734	1	12
599.904	1	-12
600.074	1	6
600.244	1	6
600.413	1	-9
600.583	1	-13
600.753	1	20
600.923	1	1
601.092	1	2
601.262	1	7
601.432	1	-3
601.602	1	12
601.771	1	1
601.941	1	9
602.111	1	-2
602.281	1	-2
602.451	1	-5
602.620	1	6
602.790	1	1
602.960	1	-6
603.130	1	3
603.299	1	1
603.469	1	-3
603.639	1	-11
603.809	1	10
603.978	1	-3
604.148	1	-2
604.318	1	-4
604.487	1	9
604.657	1	-8
604.827	1	0
604.997	1	5
605.166	1	3
605.336	1	1
605.506	1	2
605.676	1	3
605.845	1	1
606.015	1	1
606.185	1	-5
606.355	1	-10
606.524	1	5
606.694	1	-1
606.864	1	-2
607.034	1	-6
607.203	1	3
607.373	1	-7
607.543	1	8
607.712	1	2
607.882	1	6
608.052	1	-3
608.222	1	9
608.391	1	7
608.561	1	-1
608.731	1	-11
608.901	1	2
609.070	1	-9
609.240	1	1
609.410	1	6
609.579	1	0
609.749	1	5
609.919	1	-13
610.089	1	3
610.258	1	-6
610.428	1	12
610.598	1	-2
610.767	1	6
610.937	1	-7
611.107	1	1
611.277	1	-5
611.446	1	1
611.616	1	-1
611.786	1	8
611.955	1	1
612.125	1	8
612.295	1	1
612.465	1	-4
612.634	1	-2
612.804	1	4
612.974	1	-9
613.143	1	3
613.313	1	2
613.483	1	12
613.652	1	-1
613.822	1	9
613.992	1	-11
614.162	1	-2
614.331	1	-3
614.501	1	-4
614.671	1	3
614.840	1	5
615.010	1	-5
615.180	1	7
615.349	1	18
615.519	1	-11
615.689	1	-12
615.858	1	9
616.028	1	-3
616.198	1	-1
616.368	1	8
616.537	1	-5
616.707	1	-2
616.877	1	11
617.046	1	5
617.216	1	-5
617.386	1	12
617.555	1	-5
617.725	1	12
617.895	1	-8
618.064	1	-7
618.234	1	1
618.404	1	0
618.573	1	2
618.743	1	5
618.913	1	12
619.082	1	3
619.252	1	-4
619.422	1	-1
619.591	1	-3
619.761	1	-7
619.931	1	8
620.100	1	11
620.270	1	5
620.440	1	1
620.609	1	1
620.779	1	11
620.949	1	-3
621.118	1	7
621.288	1	3
621.458	1	7
621.627	1	5
621.797	1	-7
621.967	1	3
622.136	1	4
622.306	1	1
622.476	1	3
622.645	1	-10
622.815	1	-4
622.985	1	-1
623.154	1	-17
623.324	1	4
623.494	1	-6
623.663	1	6
623.833	1	7
624.002	1	-6
624.172	1	-3
624.342	1	3
624.511	1	0
624.681	1	2
624.851	1	-7
625.020	1	7
625.190	1	-8
625.360	1	-5
625.529	1	-5
625.699	1	7
625.869	1	3
626.038	1	-10
626.208	1	11
626.377	1	-1
626.547	1	2
626.717	1	-10
626.886	1	-1
627.056	1	-1
627.226	1	2
627.395	1	-7
627.565	1	7
627.735	1	1
627.904	1	4
628.074	1	-2
628.243	1	0
628.413	1	-5
628.583	1	-5
628.752	1	-3
628.922	1	-2
629.091	1	-1
629.261	1	2
629.431	1	4
629.600	1	3
629.770	1	-2
629.940	1	-5
630.109	1	2
630.279	1	2
630.448	1	-3
630.618	1	9
630.788	1	-4
630.957	1	1
631.127	1	1
631.297	1	-11
631.466	1	1
631.636	1	8
631.805	1	4
631.975	1	-5
632.145	1	4
632.314	1	1
632.484	1	15
632.653	1	0
632.823	1	-4
632.993	1	0
633.162	1	4
633.332	1	-3
633.501	1	-4
633.671	1	-8
633.841	1	0
634.010	1	8
634.180	1	3
634.349	1	-2
634.519	1	6
634.689	1	0
634.858	1	-12
635.028	1	0
635.197	1	8
635.367	1	0
635.537	1	4
635.706	1	-9
635.876	1	-4
636.045	1	-3
636.215	1	9
636.384	1	-2
636.554	1	-3
636.724	1	2
636.893	1	-5
637.063	1	-8
637.232	1	-6
637.402	1	8
637.572	1	6
637.741	1	6
637.911	1	3
638.080	1	-2
638.250	1	1
638.419	1	-11
638.589	1	-4
638.759	1	-2
638.928	1	7
639.098	1	-1
639.267	1	5
639.437	1	7
639.606	1	8
639.776	1	3
639.946	1	7
640.115	1	-9
640.285	1	6
640.454	1	5
640.624	1	4
640.793	1	-2
640.963	1	2
641.132	1	11
641.302	1	1
641.472	1	8
641.641	1	6
641.811	1	1
641.980	1	-7
642.150	1	-4
642.319	1	19
642.489	1	-3
642.659	1	6
642.828	1	-2
642.998	1	-1
643.167	1	-4
643.337	1	-5
643.506	1	-3
643.676	1	2
643.845	1	11
644.015	1	2
644.184	1	-9
644.354	1	-4
644.524	1	5
644.693	1	2
644.863	1	3
645.032	1	1
645.202	1	-4
645.371	1	-9
645.541	1	-4
645.710	1	1
645.880	1	-7
646.049	1	2
646.219	1	3
646.388	1	-5
646.558	1	-7
646.728	1	-5
646.897	1	0
647.067	1	6
647.236	1	9
647.406	1	3
647.575	1	4
647.745	1	7
647.914	1	-8
648.084	1	5
648.253	1	-4
648.423	1	-3
648.592	1	-18
648.762	1	12
648.931	1	4
649.101	1	11
649.270	1	-3
649.440	1	3
649.610	1	1
649.779	1	5
649.949	1	4
650.118	1	-1
650.288	1	1
650.457	1	-1
650.627	1	7
650.796	1	8
650.966	1	-16
651.135	1	-5
651.305	1	-1
651.474	1	15
651.644	1	14
651.813	1	7
651.983	1	1
652.152	1	-2
652.322	1	-2
652.491	1	4
652.661	1	-5
652.830	1	1
653.000	1	3
653.169	1	8
653.339	1	7
653.508	1	-5
653.678	1	3
653.847	1	-12
654.017	1	5
654.186	1	-7
654.356	1	1
654.525	1	-5
654.695	1	0
654.864	1	-2
655.034	1	0
655.203	1	1
655.373	1	12
655.542	1	0
655.712	1	1
655.881	1	7
656.051	1	4
656.220	1	-5
656.390	1	-13
656.559	1	-6
656.729	1	2
656.898	1	0
657.068	1	-9
657.237	1	2
657.406	1	9
657.576	1	-1
657.745	1	0
657.915	1	-1
658.084	1	-4
658.254	1	8
658.423	1	4
658.593	1	10
658.762	1	-7
658.932	1	-7
659.101	1	-5
659.271	1	-10
659.440	1	5
659.610	1	-3
659.779	1	19
659.949	1	-2
660.118	1	1
660.288	1	0
660.457	1	3
660.626	1	3
660.796	1	-3
660.965	1	6
661.135	1	-14
661.304	1	2
661.474	1	-5
661.643	1	8
661.813	1	-7
661.982	1	-6
662.152	1	5
662.321	1	-2
662.491	1	-1
662.660	1	5
662.829	1	6
662.999	1	-2
663.168	1	6
663.338	1	11
663.507	1	3
663.677	1	2
663.846	1	-8
664.016	1	-6
664.185	1	-2
664.354	1	12
664.524	1	0
664.693	1	3
664.863	1	-4
665.032	1	-1
665.202	1	-6
665.371	1	-8
665.541	1	9
665.710	1	1
665.879	1	2
666.049	1	-11
666.218	1	-6
666.388	1	11
666.557	1	9
666.727	1	1
666.896	1	2
667.065	1	-2
667.235	1	8
667.404	1	-14
667.574	1	-12
667.743	1	4
667.913	1	5
668.082	1	-5
668.251	1	8
668.421	1	-3
668.590	1	-5
668.760	1	1
668.929	1	8
669.099	1	-8
669.268	1	-3
669.437	1	0
669.607	1	14
669.776	1	2
669.946	1	6
670.115	1	-8
670.285	1	9
670.454	1	1
670.623	1	-8
670.793	1	4
670.962	1	-10
671.132	1	-12
671.301	1	-3
671.470	1	-10
671.640	1	3
671.809	1	-5
671.979	1	14
672.148	1	2
672.317	1	5
672.487	1	-6
672.656	1	-8
672.826	1	-1
672.995	1	3
673.164	1	-11
673.334	1	2
673.503	1	0
673.673	1	7
673.842	1	11
674.011	1	3
674.181	1	8
674.350	1	-3
674.520	1	5
674.689	1	-2
674.858	1	-12
675.028	1	4
675.197	1	-4
675.367	1	-3
675.536	1	3
675.705	1	2
675.875	1	-5
676.044	1	-5
676.214	1	-2
676.383	1	8
676.552	1	0
676.722	1	-5
676.891	1	2
677.060	1	-9
677.230	1	10
677.399	1	-9
677.569	1	7
677.738	1	5
677.907	1	-1
678.077	1	4
678.246	1	1
678.416	1	-4
678.585	1	-6
678.754	1	6
678.924	1	5
679.093	1	-8
679.262	1	-2
679.432	1	6
679.601	1	1
679.771	1	-3
679.940	1	-3
680.109	1	-4
680.279	1	4
680.448	1	6
680.617	1	-6
680.787	1	1
680.956	1	6
681.125	1	-3
681.295	1	4
681.464	1	0
681.634	1	2
681.803	1	-1
681.972	1	0
682.142	1	-4
682.311	1	9
682.480	1	4
682.650	1	2
682.819	1	2
682.988	1	-8
683.158	1	-1
683.327	1	10
683.496	1	5
683.666	1	-1
683.835	1	-8
684.004	1	7
684.174	1	6
684.343	1	14
684.512	1	2
684.682	1	-1
684.851	1	4
685.021	1	-3
685.190	1	0
685.359	1	-9
685.529	1	6
685.698	1	-3
685.867	1	-1
686.037	1	9
686.206	1	8
686.375	1	2
686.545	1	17
686.714	1	1
686.883	1	3
687.053	1	-6
687.222	1	2
687.391	1	-2
687.561	1	-3
687.730	1	0
687.899	1	2
688.069	1	-1
688.238	1	5
688.407	1	4
688.577	1	-10
688.746	1	6
