340.368	1	9
340.539	1	4
340.710	1	3
340.881	1	7
341.052	1	-10
341.223	1	12
341.394	1	8
341.565	1	4
341.737	1	-6
341.908	1	6
342.079	1	-6
342.250	1	-7
342.421	1	3
342.592	1	0
342.763	1	0
342.934	1	-1
343.105	1	2
343.276	1	1
343.447	1	-6
343.618	1	-9
343.789	1	-5
343.960	1	9
344.131	1	3
344.302	1	-15
344.473	1	4
344.644	1	0
344.815	1	4
344.986	1	4
345.157	1	5
345.328	1	-7
345.499	1	6
345.670	1	3
345.841	1	-5
346.012	1	11
346.183	1	16
346.354	1	9
346.526	1	-5
346.697	1	-1
346.868	1	2
347.039	1	-4
347.210	1	-8
347.381	1	9
347.552	1	8
347.723	1	6
347.894	1	5
348.065	1	8
348.236	1	11
348.407	1	-7
348.578	1	-8
348.749	1	-6
348.920	1	-2
349.091	1	2
349.262	1	-2
349.433	1	1
349.604	1	25
349.775	1	2
349.946	1	-5
350.117	1	4
350.288	1	4
350.459	1	-5
350.630	1	9
350.801	1	13
350.972	1	5
351.143	1	10
351.314	1	-4
351.485	1	11
351.656	1	6
351.827	1	2
351.998	1	11
352.169	1	-4
352.340	1	1
352.511	1	6
352.682	1	7
352.853	1	2
353.024	1	-1
353.195	1	7
353.366	1	2
353.537	1	5
353.708	1	14
353.879	1	-3
354.050	1	13
354.221	1	-2
354.392	1	13
354.563	1	4
354.734	1	1
354.905	1	9
355.076	1	8
355.247	1	5
355.418	1	2
355.589	1	-8
355.760	1	12
355.931	1	5
356.102	1	-3
356.273	1	4
356.444	1	4
356.615	1	7
356.785	1	9
356.956	1	0
357.127	1	10
357.298	1	7
357.469	1	8
357.640	1	9
357.811	1	3
357.982	1	9
358.153	1	7
358.324	1	19
358.495	1	-1
358.666	1	1
358.837	1	12
359.008	1	13
359.179	1	10
359.350	1	10
359.521	1	19
359.692	1	10
359.863	1	12
360.034	1	23
360.205	1	4
360.376	1	3
360.547	1	2
360.718	1	19
360.889	1	23
361.060	1	20
361.231	1	6
361.401	1	21
361.572	1	6
361.743	1	20
361.914	1	24
362.085	1	22
362.256	1	21
362.427	1	1
362.598	1	18
362.769	1	16
362.940	1	18
363.111	1	26
363.282	1	17
363.453	1	24
363.624	1	18
363.795	1	11
363.966	1	33
364.137	1	21
364.308	1	33
364.478	1	30
364.649	1	34
364.820	1	35
364.991	1	36
365.162	1	25
365.333	1	32
365.504	1	27
365.675	1	27
365.846	1	31
366.017	1	35
366.188	1	38
366.359	1	44
366.530	1	43
366.701	1	57
366.871	1	44
367.042	1	53
367.213	1	37
367.384	1	36
367.555	1	45
367.726	1	39
367.897	1	45
368.068	1	40
368.239	1	40
368.410	1	38
368.581	1	50
368.752	1	35
368.923	1	34
369.093	1	30
369.264	1	33
369.435	1	34
369.606	1	34
369.777	1	47
369.948	1	35
370.119	1	28
370.290	1	31
370.461	1	37
370.632	1	29
370.803	1	36
370.973	1	26
371.144	1	28
371.315	1	26
371.486	1	34
371.657	1	24
371.828	1	36
371.999	1	14
372.170	1	33
372.341	1	26
372.512	1	13
372.682	1	30
372.853	1	29
373.024	1	19
373.195	1	21
373.366	1	26
373.537	1	27
373.708	1	15
373.879	1	9
374.050	1	21
374.220	1	13
374.391	1	9
374.562	1	17
374.733	1	18
374.904	1	16
375.075	1	17
375.246	1	1
375.417	1	19
375.588	1	22
375.758	1	3
375.929	1	16
376.100	1	13
376.271	1	22
376.442	1	8
376.613	1	12
376.784	1	17
376.955	1	7
377.125	1	8
377.296	1	7
377.467	1	12
377.638	1	8
377.809	1	17
377.980	1	13
378.151	1	10
378.321	1	10
378.492	1	6
378.663	1	22
378.834	1	30
379.005	1	14
379.176	1	18
379.347	1	9
379.518	1	5
379.688	1	12
379.859	1	16
380.030	1	23
380.201	1	17
380.372	1	14
380.543	1	18
380.714	1	10
380.884	1	16
381.055	1	5
381.226	1	11
381.397	1	14
381.568	1	15
381.739	1	10
381.910	1	3
382.080	1	13
382.251	1	11
382.422	1	14
382.593	1	3
382.764	1	4
382.935	1	10
383.105	1	12
383.276	1	14
383.447	1	20
383.618	1	26
383.789	1	23
383.960	1	2
384.130	1	2
384.301	1	14
384.472	1	10
384.643	1	15
384.814	1	19
384.985	1	12
385.156	1	20
385.326	1	21
385.497	1	18
385.668	1	21
385.839	1	25
386.010	1	22
386.180	1	18
386.351	1	13
386.522	1	25
386.693	1	15
386.864	1	21
387.035	1	29
387.205	1	25
387.376	1	27
387.547	1	24
387.718	1	11
387.889	1	35
388.060	1	12
388.230	1	18
388.401	1	19
388.572	1	30
388.743	1	9
388.914	1	16
389.084	1	23
389.255	1	8
389.426	1	10
389.597	1	18
389.768	1	26
389.939	1	12
390.109	1	24
390.280	1	12
390.451	1	21
390.622	1	27
390.793	1	16
390.963	1	15
391.134	1	11
391.305	1	13
391.476	1	21
391.647	1	20
391.817	1	8
391.988	1	8
392.159	1	20
392.330	1	14
392.501	1	17
392.671	1	10
392.842	1	16
393.013	1	20
393.184	1	19
393.355	1	27
393.525	1	7
393.696	1	4
393.867	1	24
394.038	1	17
394.208	1	10
394.379	1	5
394.550	1	15
394.721	1	13
394.892	1	18
395.062	1	27
395.233	1	12
395.404	1	13
395.575	1	28
395.746	1	12
395.916	1	16
396.087	1	29
396.258	1	13
396.429	1	17
396.599	1	15
396.770	1	27
396.941	1	2
397.112	1	14
397.283	1	2
397.453	1	21
397.624	1	24
397.795	1	13
397.966	1	24
398.136	1	18
398.307	1	12
398.478	1	5
398.649	1	13
398.819	1	6
398.990	1	13
399.161	1	22
399.332	1	18
399.503	1	22
399.673	1	0
399.844	1	8
400.015	1	14
400.186	1	16
400.356	1	21
400.527	1	32
400.698	1	14
400.869	1	-1
401.039	1	13
401.210	1	19
401.381	1	14
401.552	1	14
401.722	1	13
401.893	1	12
402.064	1	13
402.235	1	0
402.405	1	11
402.576	1	2
402.747	1	13
402.918	1	16
403.088	1	12
403.259	1	5
403.430	1	19
403.601	1	10
403.771	1	22
403.942	1	16
404.113	1	18
404.284	1	8
404.454	1	15
404.625	1	12
404.796	1	10
404.967	1	6
405.137	1	19
405.308	1	12
405.479	1	15
405.649	1	16
405.820	1	6
405.991	1	9
406.162	1	7
406.332	1	-6
406.503	1	5
406.674	1	11
406.845	1	21
407.015	1	12
407.186	1	13
407.357	1	20
407.527	1	15
407.698	1	16
407.869	1	12
408.040	1	14
408.210	1	12
408.381	1	3
408.552	1	3
408.722	1	15
408.893	1	0
409.064	1	2
409.235	1	0
409.405	1	18
409.576	1	13
409.747	1	18
409.917	1	10
410.088	1	17
410.259	1	7
410.430	1	7
410.600	1	2
410.771	1	6
410.942	1	7
411.112	1	7
411.283	1	5
411.454	1	3
411.625	1	12
411.795	1	13
411.966	1	12
412.137	1	15
412.307	1	14
412.478	1	7
412.649	1	1
412.819	1	13
412.990	1	2
413.161	1	3
413.332	1	13
413.502	1	2
413.673	1	27
413.844	1	12
414.014	1	1
414.185	1	7
414.356	1	4
414.526	1	8
414.697	1	14
414.868	1	-5
415.038	1	6
415.209	1	0
415.380	1	22
415.550	1	13
415.721	1	11
415.892	1	5
416.063	1	14
416.233	1	5
416.404	1	1
416.575	1	8
416.745	1	3
416.916	1	4
417.087	1	6
417.257	1	12
417.428	1	6
417.599	1	7
417.769	1	0
417.940	1	6
418.111	1	11
418.281	1	7
418.452	1	9
418.623	1	9
418.793	1	8
418.964	1	12
419.135	1	12
419.305	1	-3
419.476	1	12
419.647	1	18
419.817	1	3
419.988	1	-5
420.159	1	3
420.329	1	2
420.500	1	13
420.671	1	0
420.841	1	11
421.012	1	4
421.183	1	10
421.353	1	16
421.524	1	8
421.695	1	0
421.865	1	11
422.036	1	6
422.206	1	5
422.377	1	6
422.548	1	11
422.718	1	-1
422.889	1	-6
423.060	1	-5
423.230	1	9
423.401	1	8
423.572	1	15
423.742	1	0
423.913	1	12
424.084	1	2
424.254	1	4
424.425	1	-4
424.595	1	1
424.766	1	3
424.937	1	5
425.107	1	4
425.278	1	3
425.449	1	1
425.619	1	14
425.790	1	9
425.961	1	-4
426.131	1	3
426.302	1	8
426.472	1	1
426.643	1	-4
426.814	1	-1
426.984	1	9
427.155	1	0
427.326	1	-6
427.496	1	-1
427.667	1	10
427.837	1	5
428.008	1	4
428.179	1	-3
428.349	1	2
428.520	1	1
428.691	1	-3
428.861	1	2
429.032	1	7
429.202	1	-3
429.373	1	6
429.544	1	-3
429.714	1	5
429.885	1	-4
430.055	1	1
430.226	1	-4
430.397	1	8
430.567	1	7
430.738	1	-10
430.909	1	0
431.079	1	-6
431.250	1	-8
431.420	1	-12
431.591	1	7
431.762	1	0
431.932	1	-11
432.103	1	7
432.273	1	4
432.444	1	-3
432.615	1	-4
432.785	1	3
432.956	1	9
433.126	1	5
433.297	1	8
433.468	1	5
433.638	1	1
433.809	1	9
433.979	1	11
434.150	1	15
434.320	1	9
434.491	1	3
434.662	1	7
434.832	1	-1
435.003	1	12
435.173	1	3
435.344	1	12
435.515	1	-3
435.685	1	4
435.856	1	4
436.026	1	8
436.197	1	3
436.368	1	-8
436.538	1	7
436.709	1	-3
436.879	1	2
437.050	1	0
437.220	1	-11
437.391	1	10
437.562	1	5
437.732	1	2
437.903	1	-2
438.073	1	0
438.244	1	-1
438.414	1	5
438.585	1	3
438.756	1	8
438.926	1	2
439.097	1	8
439.267	1	3
439.438	1	5
439.608	1	11
439.779	1	-4
439.949	1	-4
440.120	1	-7
440.291	1	2
440.461	1	3
440.632	1	2
440.802	1	7
440.973	1	0
441.143	1	1
441.314	1	-6
441.485	1	8
441.655	1	0
441.826	1	-12
441.996	1	0
442.167	1	1
442.337	1	3
442.508	1	2
442.678	1	-3
442.849	1	-9
443.019	1	5
443.190	1	20
443.361	1	18
443.531	1	11
443.702	1	-8
443.872	1	-1
444.043	1	8
444.213	1	3
444.384	1	-3
444.554	1	5
444.725	1	6
444.895	1	1
445.066	1	6
445.237	1	5
445.407	1	7
445.578	1	-2
445.748	1	0
445.919	1	6
446.089	1	3
446.260	1	-4
446.430	1	-4
446.601	1	9
446.771	1	-10
446.942	1	2
447.112	1	12
447.283	1	1
447.453	1	-3
447.624	1	-2
447.794	1	13
447.965	1	11
448.135	1	-8
448.306	1	4
448.477	1	9
448.647	1	-3
448.818	1	1
448.988	1	-2
449.159	1	8
449.329	1	10
449.500	1	0
449.670	1	2
449.841	1	4
450.011	1	7
450.182	1	-2
450.352	1	11
450.523	1	0
450.693	1	9
450.864	1	6
451.034	1	10
451.205	1	5
451.375	1	11
451.546	1	-3
451.716	1	5
451.887	1	0
452.057	1	10
452.228	1	5
452.398	1	9
452.569	1	-4
452.739	1	4
452.910	1	-9
453.080	1	8
453.251	1	-2
453.421	1	-4
453.592	1	3
453.762	1	6
453.933	1	-8
454.103	1	-4
454.274	1	6
454.444	1	14
454.615	1	17
454.785	1	-5
454.956	1	12
455.126	1	-1
455.297	1	-1
455.467	1	-9
455.638	1	7
455.808	1	2
455.979	1	3
456.149	1	-4
456.320	1	13
456.490	1	-2
456.661	1	-7
456.831	1	6
457.001	1	9
457.172	1	2
457.342	1	6
457.513	1	11
457.683	1	12
457.854	1	10
458.024	1	-4
458.195	1	-2
458.365	1	15
458.536	1	-10
458.706	1	4
458.877	1	-5
459.047	1	6
459.218	1	-3
459.388	1	20
459.559	1	-2
459.729	1	2
459.899	1	0
460.070	1	-2
460.240	1	7
460.411	1	4
460.581	1	3
460.752	1	11
460.922	1	15
461.093	1	2
461.263	1	1
461.434	1	6
461.604	1	11
461.775	1	9
461.945	1	0
462.115	1	-5
462.286	1	1
462.456	1	9
462.627	1	4
462.797	1	-17
462.968	1	-1
463.138	1	5
463.309	1	9
463.479	1	6
463.649	1	-3
463.820	1	2
463.990	1	-2
464.161	1	5
464.331	1	10
464.502	1	6
464.672	1	-10
464.843	1	-2
465.013	1	-8
465.183	1	-8
465.354	1	7
465.524	1	-7
465.695	1	5
465.865	1	6
466.036	1	4
466.206	1	4
466.376	1	-1
466.547	1	-1
466.717	1	5
466.888	1	-3
467.058	1	6
467.229	1	6
467.399	1	-5
467.569	1	9
467.740	1	5
467.910	1	5
468.081	1	9
468.251	1	0
468.422	1	-5
468.592	1	4
468.762	1	-5
468.933	1	6
469.103	1	4
469.274	1	-1
469.444	1	10
469.614	1	5
469.785	1	13
469.955	1	2
470.126	1	5
470.296	1	0
470.467	1	-8
470.637	1	3
470.807	1	7
470.978	1	-2
471.148	1	7
471.319	1	5
471.489	1	-9
471.659	1	0
471.830	1	1
472.000	1	12
472.171	1	2
472.341	1	-6
472.511	1	6
472.682	1	-2
472.852	1	-8
473.023	1	6
473.193	1	0
473.363	1	4
473.534	1	-3
473.704	1	-1
473.875	1	-1
474.045	1	-2
474.215	1	12
474.386	1	10
474.556	1	6
474.727	1	-1
474.897	1	1
475.067	1	0
475.238	1	1
475.408	1	-7
475.578	1	11
475.749	1	6
475.919	1	-5
476.090	1	8
476.260	1	-4
476.430	1	14
476.601	1	6
476.771	1	-5
476.942	1	8
477.112	1	1
477.282	1	4
477.453	1	-4
477.623	1	10
477.793	1	4
477.964	1	-1
478.134	1	12
478.305	1	7
478.475	1	4
478.645	1	-5
478.816	1	4
478.986	1	5
479.156	1	0
479.327	1	-1
479.497	1	7
479.667	1	5
479.838	1	-1
480.008	1	-1
480.179	1	-10
480.349	1	5
480.519	1	8
480.690	1	-3
480.860	1	3
481.030	1	0
481.201	1	-2
481.371	1	5
481.541	1	4
481.712	1	4
481.882	1	-9
482.053	1	5
482.223	1	1
482.393	1	7
482.564	1	6
482.734	1	8
482.904	1	-1
483.075	1	2
483.245	1	-4
483.415	1	-5
483.586	1	7
483.756	1	-2
483.926	1	-2
484.097	1	3
484.267	1	2
484.437	1	8
484.608	1	5
484.778	1	0
484.948	1	3
485.119	1	-5
485.289	1	6
485.459	1	11
485.630	1	7
485.800	1	-3
485.970	1	5
486.141	1	-3
486.311	1	8
486.481	1	-2
486.652	1	-1
486.822	1	0
486.992	1	-3
487.163	1	10
487.333	1	4
487.503	1	13
487.674	1	4
487.844	1	7
488.014	1	6
488.185	1	-5
488.355	1	3
488.525	1	5
488.696	1	-4
488.866	1	-5
489.036	1	2
489.207	1	2
489.377	1	-2
489.547	1	3
489.718	1	3
489.888	1	13
490.058	1	9
490.228	1	-6
490.399	1	2
490.569	1	-1
490.739	1	13
490.910	1	0
491.080	1	1
491.250	1	4
491.421	1	14
491.591	1	-5
491.761	1	5
491.932	1	2
492.102	1	-3
492.272	1	4
492.442	1	3
492.613	1	11
492.783	1	6
492.953	1	4
493.124	1	13
493.294	1	4
493.464	1	11
493.635	1	2
493.805	1	4
493.975	1	13
494.145	1	8
494.316	1	7
494.486	1	11
494.656	1	1
494.827	1	12
494.997	1	-1
495.167	1	6
495.337	1	-2
495.508	1	0
495.678	1	4
495.848	1	6
496.019	1	11
496.189	1	2
496.359	1	1
496.529	1	3
496.700	1	-2
496.870	1	9
497.040	1	0
497.211	1	6
497.381	1	-3
497.551	1	7
497.721	1	-8
497.892	1	6
498.062	1	8
498.232	1	8
498.403	1	8
498.573	1	-1
498.743	1	15
498.913	1	4
499.084	1	2
499.254	1	2
499.424	1	4
499.594	1	-1
499.765	1	17
499.935	1	1
500.105	1	10
500.275	1	5
500.446	1	5
500.616	1	-3
500.786	1	7
500.956	1	3
501.127	1	10
501.297	1	1
501.467	1	13
501.638	1	8
501.808	1	6
501.978	1	12
502.148	1	4
502.319	1	12
502.489	1	3
502.659	1	18
502.829	1	14
503.000	1	11
503.170	1	7
503.340	1	14
503.510	1	3
503.681	1	11
503.851	1	13
504.021	1	20
504.191	1	14
504.362	1	5
504.532	1	8
504.702	1	10
504.872	1	-4
505.042	1	9
505.213	1	8
505.383	1	16
505.553	1	3
505.723	1	10
505.894	1	10
506.064	1	8
506.234	1	2
506.404	1	3
506.575	1	10
506.745	1	14
506.915	1	6
507.085	1	7
507.256	1	8
507.426	1	6
507.596	1	12
507.766	1	8
507.936	1	9
508.107	1	16
508.277	1	6
508.447	1	0
508.617	1	14
508.788	1	14
508.958	1	11
509.128	1	9
509.298	1	1
509.468	1	18
509.639	1	6
509.809	1	24
509.979	1	17
510.149	1	18
510.319	1	13
510.490	1	10
510.660	1	7
510.830	1	9
511.000	1	9
511.171	1	16
511.341	1	13
511.511	1	12
511.681	1	14
511.851	1	12
512.022	1	1
512.192	1	14
512.362	1	8
512.532	1	-4
512.702	1	10
512.873	1	20
513.043	1	20
513.213	1	20
513.383	1	8
513.553	1	21
513.724	1	3
513.894	1	8
514.064	1	14
514.234	1	18
514.404	1	7
514.575	1	11
514.745	1	22
514.915	1	-5
515.085	1	11
515.255	1	12
515.425	1	17
515.596	1	14
515.766	1	11
515.936	1	4
516.106	1	12
516.276	1	14
516.447	1	11
516.617	1	12
516.787	1	2
516.957	1	13
517.127	1	13
517.297	1	15
517.468	1	14
517.638	1	6
517.808	1	15
517.978	1	24
518.148	1	17
518.319	1	11
518.489	1	11
518.659	1	17
518.829	1	9
518.999	1	17
519.169	1	20
519.340	1	12
519.510	1	23
519.680	1	18
519.850	1	4
520.020	1	5
520.190	1	17
520.361	1	15
520.531	1	15
520.701	1	22
520.871	1	7
521.041	1	16
521.211	1	16
521.382	1	22
521.552	1	6
521.722	1	21
521.892	1	16
522.062	1	18
522.232	1	28
522.402	1	13
522.573	1	19
522.743	1	14
522.913	1	22
523.083	1	5
523.253	1	21
523.423	1	10
523.593	1	10
523.764	1	11
523.934	1	14
524.104	1	18
524.274	1	16
524.444	1	10
524.614	1	22
524.784	1	12
524.955	1	21
525.125	1	11
525.295	1	11
525.465	1	19
525.635	1	22
525.805	1	14
525.975	1	7
526.146	1	10
526.316	1	6
526.486	1	8
526.656	1	10
526.826	1	19
526.996	1	19
527.166	1	16
527.337	1	8
527.507	1	22
527.677	1	21
527.847	1	16
528.017	1	5
528.187	1	13
528.357	1	23
528.527	1	15
528.698	1	11
528.868	1	17
529.038	1	10
529.208	1	9
529.378	1	9
529.548	1	12
529.718	1	9
529.888	1	19
530.058	1	11
530.229	1	21
530.399	1	7
530.569	1	10
530.739	1	10
530.909	1	5
531.079	1	3
531.249	1	10
531.419	1	21
531.589	1	14
531.760	1	8
531.930	1	25
532.100	1	11
532.270	1	20
532.440	1	17
532.610	1	19
532.780	1	15
532.950	1	20
533.120	1	28
533.290	1	17
533.461	1	18
533.631	1	20
533.801	1	20
533.971	1	5
534.141	1	24
534.311	1	19
534.481	1	19
534.651	1	-1
534.821	1	12
534.991	1	15
535.162	1	1
535.332	1	16
535.502	1	14
535.672	1	10
535.842	1	21
536.012	1	13
536.182	1	18
536.352	1	10
536.522	1	2
536.692	1	17
536.862	1	10
537.032	1	6
537.203	1	12
537.373	1	24
537.543	1	8
537.713	1	9
537.883	1	6
538.053	1	7
538.223	1	13
538.393	1	17
538.563	1	26
538.733	1	21
538.903	1	10
539.073	1	14
539.243	1	17
539.413	1	20
539.584	1	15
539.754	1	26
539.924	1	18
540.094	1	16
540.264	1	0
540.434	1	21
540.604	1	11
540.774	1	20
540.944	1	11
541.114	1	21
541.284	1	10
541.454	1	15
541.624	1	24
541.794	1	6
541.964	1	4
542.134	1	20
542.305	1	21
542.475	1	12
542.645	1	19
542.815	1	18
542.985	1	14
543.155	1	2
543.325	1	25
543.495	1	15
543.665	1	5
543.835	1	5
544.005	1	19
544.175	1	9
544.345	1	-1
544.515	1	6
544.685	1	23
544.855	1	14
545.025	1	10
545.195	1	10
545.365	1	15
545.535	1	16
545.705	1	28
545.875	1	6
546.045	1	6
546.216	1	9
546.386	1	10
546.556	1	10
546.726	1	8
546.896	1	23
547.066	1	16
547.236	1	8
547.406	1	6
547.576	1	20
547.746	1	20
547.916	1	16
548.086	1	13
548.256	1	-5
548.426	1	9
548.596	1	9
548.766	1	17
548.936	1	27
549.106	1	15
549.276	1	17
549.446	1	12
549.616	1	10
549.786	1	5
549.956	1	5
550.126	1	4
550.296	1	20
550.466	1	14
550.636	1	21
550.806	1	13
550.976	1	14
551.146	1	12
551.316	1	18
551.486	1	23
551.656	1	15
551.826	1	18
551.996	1	4
552.166	1	19
552.336	1	7
552.506	1	16
552.676	1	14
552.846	1	14
553.016	1	23
553.186	1	11
553.356	1	11
553.526	1	6
553.696	1	16
553.866	1	22
554.036	1	16
554.206	1	7
554.376	1	1
554.546	1	6
554.716	1	9
554.886	1	19
555.056	1	15
555.226	1	12
555.396	1	5
555.566	1	18
555.736	1	13
555.906	1	16
556.076	1	20
556.246	1	10
556.416	1	-4
556.586	1	13
556.756	1	6
556.926	1	11
557.096	1	19
557.266	1	0
557.436	1	17
557.606	1	5
557.776	1	18
557.946	1	15
558.116	1	21
558.286	1	5
558.456	1	9
558.626	1	-3
558.796	1	8
558.966	1	7
559.136	1	2
559.306	1	11
559.476	1	11
559.646	1	-1
559.816	1	16
559.986	1	-3
560.155	1	15
560.325	1	11
560.495	1	9
560.665	1	3
560.835	1	2
561.005	1	11
561.175	1	4
561.345	1	10
561.515	1	10
561.685	1	13
561.855	1	4
562.025	1	10
562.195	1	11
562.365	1	12
562.535	1	10
562.705	1	3
562.875	1	11
563.045	1	-4
563.215	1	3
563.385	1	-3
563.555	1	9
563.725	1	8
563.895	1	7
564.064	1	2
564.234	1	13
564.404	1	6
564.574	1	16
564.744	1	8
564.914	1	14
565.084	1	-1
565.254	1	17
565.424	1	2
565.594	1	7
565.764	1	1
565.934	1	12
566.104	1	8
566.274	1	18
566.444	1	3
566.614	1	6
566.783	1	14
566.953	1	15
567.123	1	15
567.293	1	3
567.463	1	14
567.633	1	13
567.803	1	11
567.973	1	14
568.143	1	5
568.313	1	-4
568.483	1	5
568.653	1	-6
568.823	1	-1
568.993	1	6
569.162	1	7
569.332	1	16
569.502	1	17
569.672	1	7
569.842	1	-2
570.012	1	13
570.182	1	-1
570.352	1	1
570.522	1	2
570.692	1	9
570.862	1	5
571.031	1	3
571.201	1	16
571.371	1	8
571.541	1	0
571.711	1	-2
571.881	1	6
572.051	1	4
572.221	1	0
572.391	1	12
572.561	1	14
572.731	1	19
572.900	1	-3
573.070	1	10
573.240	1	-8
573.410	1	6
573.580	1	-16
573.750	1	8
573.920	1	13
574.090	1	8
574.260	1	6
574.430	1	8
574.599	1	6
574.769	1	10
574.939	1	1
575.109	1	-3
575.279	1	1
575.449	1	23
575.619	1	7
575.789	1	17
575.959	1	-3
576.128	1	5
576.298	1	7
576.468	1	14
576.638	1	0
576.808	1	8
576.978	1	6
577.148	1	11
577.318	1	13
577.487	1	11
577.657	1	11
577.827	1	1
577.997	1	10
578.167	1	-1
578.337	1	0
578.507	1	3
578.677	1	-3
578.846	1	4
579.016	1	3
579.186	1	10
579.356	1	6
579.526	1	6
579.696	1	12
579.866	1	3
580.036	1	5
580.205	1	-12
580.375	1	13
580.545	1	-1
580.715	1	4
580.885	1	13
581.055	1	3
581.225	1	3
581.394	1	-3
581.564	1	6
581.734	1	-2
581.904	1	-4
582.074	1	3
582.244	1	7
582.414	1	3
582.583	1	-4
582.753	1	6
582.923	1	9
583.093	1	5
583.263	1	12
583.433	1	9
583.603	1	-6
583.772	1	0
583.942	1	9
584.112	1	-1
584.282	1	4
584.452	1	-5
584.622	1	4
584.791	1	-4
584.961	1	-3
585.131	1	-3
585.301	1	-1
585.471	1	3
585.641	1	11
585.811	1	-2
585.980	1	10
586.150	1	1
586.320	1	6
586.490	1	11
586.660	1	4
586.830	1	-9
586.999	1	-2
587.169	1	15
587.339	1	3
587.509	1	6
587.679	1	0
587.849	1	7
588.018	1	-3
588.188	1	5
588.358	1	7
588.528	1	-3
588.698	1	-5
588.867	1	9
589.037	1	-5
589.207	1	6
589.377	1	5
589.547	1	5
589.717	1	-7
589.886	1	2
590.056	1	2
590.226	1	-3
590.396	1	0
590.566	1	2
590.735	1	-4
590.905	1	13
591.075	1	-1
591.245	1	10
591.415	1	1
591.585	1	8
591.754	1	-1
591.924	1	11
592.094	1	-2
592.264	1	3
592.434	1	8
592.603	1	1
592.773	1	4
592.943	1	8
593.113	1	-9
593.283	1	-6
593.452	1	-4
593.622	1	12
593.792	1	9
593.962	1	6
594.132	1	7
594.301	1	13
594.471	1	2
594.641	1	8
594.811	1	-1
594.981	1	-10
595.150	1	13
595.320	1	-2
595.490	1	7
595.660	1	3
595.829	1	-4
595.999	1	3
596.169	1	15
596.339	1	4
596.509	1	6
596.678	1	6
596.848	1	11
597.018	1	-1
597.188	1	-9
597.358	1	4
597.527	1	9
597.697	1	-4
597.867	1	13
598.037	1	7
598.206	1	7
598.376	1	1
598.546	1	4
598.716	1	-1
598.885	1	2
599.055	1	-6
599.225	1	3
599.395	1	7
599.565	1	-3
599.734	1	7
599.904	1	-7
600.074	1	10
600.244	1	4
600.413	1	4
600.583	1	-7
600.753	1	7
600.923	1	4
601.092	1	4
601.262	1	4
601.432	1	3
601.602	1	10
601.771	1	6
601.941	1	7
602.111	1	7
602.281	1	-5
602.451	1	-1
602.620	1	4
602.790	1	-7
602.960	1	-6
603.130	1	0
603.299	1	3
603.469	1	2
603.639	1	-10
603.809	1	13
603.978	1	-2
604.148	1	6
604.318	1	-1
604.487	1	2
604.657	1	-7
604.827	1	6
604.997	1	13
605.166	1	-1
605.336	1	4
605.506	1	4
605.676	1	3
605.845	1	5
606.015	1	-15
606.185	1	1
606.355	1	-4
606.524	1	10
606.694	1	2
606.864	1	-4
607.034	1	4
607.203	1	12
607.373	1	-2
607.543	1	2
607.712	1	7
607.882	1	-5
608.052	1	11
608.222	1	-7
608.391	1	13
608.561	1	-4
608.731	1	-6
608.901	1	2
609.070	1	0
609.240	1	3
609.410	1	6
609.579	1	6
609.749	1	1
609.919	1	-3
610.089	1	0
610.258	1	-2
610.428	1	8
610.598	1	4
610.767	1	12
610.937	1	-4
611.107	1	0
611.277	1	-14
611.446	1	4
611.616	1	5
611.786	1	8
611.955	1	4
612.125	1	1
612.295	1	10
612.465	1	-1
612.634	1	2
612.804	1	0
612.974	1	-10
613.143	1	-4
613.313	1	4
613.483	1	10
613.652	1	5
613.822	1	-6
613.992	1	-1
614.162	1	7
614.331	1	4
614.501	1	-5
614.671	1	1
614.840	1	1
615.010	1	4
615.180	1	6
615.349	1	20
615.519	1	-9
615.689	1	-3
615.858	1	14
616.028	1	7
616.198	1	-3
616.368	1	6
616.537	1	2
616.707	1	3
616.877	1	11
617.046	1	14
617.216	1	6
617.386	1	8
617.555	1	2
617.725	1	7
617.895	1	8
618.064	1	1
618.234	1	-7
618.404	1	-6
618.573	1	9
618.743	1	5
618.913	1	15
619.082	1	1
619.252	1	-2
619.422	1	-5
619.591	1	0
619.761	1	2
619.931	1	10
620.100	1	9
620.270	1	3
620.440	1	10
620.609	1	13
620.779	1	9
620.949	1	-2
621.118	1	4
621.288	1	1
621.458	1	12
621.627	1	-1
621.797	1	-14
621.967	1	0
622.136	1	2
622.306	1	5
622.476	1	5
622.645	1	6
622.815	1	-5
622.985	1	0
623.154	1	4
623.324	1	-4
623.494	1	-14
623.663	1	0
623.833	1	0
624.002	1	0
624.172	1	-3
624.342	1	8
624.511	1	-2
624.681	1	-9
624.851	1	-10
625.020	1	10
625.190	1	6
625.360	1	-8
625.529	1	-5
625.699	1	2
625.869	1	2
626.038	1	-3
626.208	1	11
626.377	1	4
626.547	1	1
626.717	1	-18
626.886	1	2
627.056	1	2
627.226	1	6
627.395	1	1
627.565	1	5
627.735	1	6
627.904	1	8
628.074	1	6
628.243	1	4
628.413	1	-5
628.583	1	0
628.752	1	-3
628.922	1	2
629.091	1	-1
629.261	1	2
629.431	1	-2
629.600	1	9
629.770	1	10
629.940	1	-3
630.109	1	1
630.279	1	5
630.448	1	1
630.618	1	11
630.788	1	6
630.957	1	4
631.127	1	-7
631.297	1	1
631.466	1	3
631.636	1	16
631.805	1	9
631.975	1	-7
632.145	1	4
632.314	1	-9
632.484	1	13
632.653	1	-5
632.823	1	4
632.993	1	11
633.162	1	1
633.332	1	-4
633.501	1	6
633.671	1	6
633.841	1	3
634.010	1	17
634.180	1	5
634.349	1	1
634.519	1	6
634.689	1	-2
634.858	1	-14
635.028	1	-2
635.197	1	6
635.367	1	17
635.537	1	0
635.706	1	-1
635.876	1	8
636.045	1	5
636.215	1	6
636.384	1	-10
636.554	1	-1
636.724	1	6
636.893	1	11
637.063	1	-3
637.232	1	17
637.402	1	1
637.572	1	-3
637.741	1	-6
637.911	1	-3
638.080	1	-2
638.250	1	11
638.419	1	0
638.589	1	7
638.759	1	2
638.928	1	7
639.098	1	-6
639.267	1	2
639.437	1	2
639.606	1	-2
639.776	1	6
639.946	1	14
640.115	1	0
640.285	1	8
640.454	1	8
640.624	1	1
640.793	1	-4
640.963	1	-9
641.132	1	8
641.302	1	2
641.472	1	3
641.641	1	-1
641.811	1	1
641.980	1	4
642.150	1	-1
642.319	1	11
642.489	1	-6
642.659	1	4
642.828	1	5
642.998	1	1
643.167	1	-11
643.337	1	-4
643.506	1	0
643.676	1	3
643.845	1	5
644.015	1	4
644.184	1	-9
644.354	1	7
644.524	1	3
644.693	1	1
644.863	1	8
645.032	1	4
645.202	1	1
645.371	1	-3
645.541	1	5
645.710	1	0
645.880	1	2
646.049	1	-5
646.219	1	1
646.388	1	0
646.558	1	4
646.728	1	-3
646.897	1	3
647.067	1	7
647.236	1	12
647.406	1	7
647.575	1	7
647.745	1	6
647.914	1	-7
648.084	1	6
648.253	1	-3
648.423	1	-2
648.592	1	-2
648.762	1	10
648.931	1	8
649.101	1	-2
649.270	1	3
649.440	1	4
649.610	1	-1
649.779	1	4
649.949	1	2
650.118	1	5
650.288	1	1
650.457	1	6
650.627	1	1
650.796	1	0
650.966	1	-7
651.135	1	1
651.305	1	0
651.474	1	0
651.644	1	17
651.813	1	4
651.983	1	11
652.152	1	12
652.322	1	-2
652.491	1	-4
652.661	1	7
652.830	1	5
653.000	1	3
653.169	1	10
653.339	1	5
653.508	1	-2
653.678	1	-6
653.847	1	3
654.017	1	11
654.186	1	4
654.356	1	-7
654.525	1	1
654.695	1	2
654.864	1	1
655.034	1	-4
655.203	1	0
655.373	1	6
655.542	1	1
655.712	1	4
655.881	1	11
656.051	1	3
656.220	1	-2
656.390	1	2
656.559	1	-10
656.729	1	-3
656.898	1	11
657.068	1	3
657.237	1	3
657.406	1	1
657.576	1	2
657.745	1	-1
657.915	1	-3
658.084	1	-2
658.254	1	8
658.423	1	-1
658.593	1	8
658.762	1	-6
658.932	1	1
659.101	1	-1
659.271	1	-1
659.440	1	6
659.610	1	-3
659.779	1	19
659.949	1	0
660.118	1	4
660.288	1	-3
660.457	1	14
660.626	1	6
660.796	1	-2
660.965	1	9
661.135	1	-10
661.304	1	8
661.474	1	4
661.643	1	2
661.813	1	6
661.982	1	6
662.152	1	0
662.321	1	-5
662.491	1	-1
662.660	1	3
662.829	1	9
662.999	1	-2
663.168	1	11
663.338	1	9
663.507	1	9
663.677	1	3
663.846	1	-6
664.016	1	-1
664.185	1	-7
664.354	1	13
664.524	1	1
664.693	1	8
664.863	1	-3
665.032	1	0
665.202	1	-3
665.371	1	0
665.541	1	15
665.710	1	1
665.879	1	2
666.049	1	-1
666.218	1	-4
666.388	1	5
666.557	1	8
666.727	1	9
666.896	1	9
667.065	1	-3
667.235	1	13
667.404	1	-5
667.574	1	2
667.743	1	2
667.913	1	4
668.082	1	2
668.251	1	7
668.421	1	4
668.590	1	5
668.760	1	2
668.929	1	12
669.099	1	-6
669.268	1	-7
669.437	1	-4
669.607	1	16
669.776	1	4
669.946	1	-2
670.115	1	-15
670.285	1	14
670.454	1	-2
670.623	1	-4
670.793	1	8
670.962	1	-2
671.132	1	-6
671.301	1	-3
671.470	1	2
671.640	1	0
671.809	1	0
671.979	1	13
672.148	1	6
672.317	1	5
672.487	1	-5
672.656	1	-11
672.826	1	7
672.995	1	-2
673.164	1	-10
673.334	1	-1
673.503	1	-9
673.673	1	-1
673.842	1	1
674.011	1	14
674.181	1	4
674.350	1	1
674.520	1	-4
674.689	1	-4
674.858	1	-2
675.028	1	7
675.197	1	0
675.367	1	2
675.536	1	1
675.705	1	1
675.875	1	-9
676.044	1	-6
676.214	1	9
676.383	1	-3
676.552	1	6
676.722	1	-5
676.891	1	3
677.060	1	0
677.230	1	15
677.399	1	-14
677.569	1	11
677.738	1	1
677.907	1	0
678.077	1	4
678.246	1	4
678.416	1	1
678.585	1	-1
678.754	1	-4
678.924	1	13
679.093	1	0
679.262	1	7
679.432	1	3
679.601	1	-3
679.771	1	6
679.940	1	9
680.109	1	-7
680.279	1	6
680.448	1	12
680.617	1	2
680.787	1	-1
680.956	1	-2
681.125	1	8
681.295	1	4
681.464	1	-5
681.634	1	-4
681.803	1	6
681.972	1	2
682.142	1	-7
682.311	1	2
682.480	1	5
682.650	1	12
682.819	1	2
682.988	1	-7
683.158	1	-5
683.327	1	18
683.496	1	6
683.666	1	4
683.835	1	5
684.004	1	11
684.174	1	3
684.343	1	-4
684.512	1	2
684.682	1	-3
684.851	1	6
685.021	1	-8
685.190	1	3
685.359	1	-10
685.529	1	4
685.698	1	8
685.867	1	-1
686.037	1	7
686.206	1	-4
686.375	1	7
686.545	1	16
686.714	1	3
686.883	1	0
687.053	1	4
687.222	1	-3
687.391	1	12
687.561	1	13
687.730	1	-1
687.899	1	-2
688.069	1	3
688.238	1	4
688.407	1	12
688.577	1	2
688.746	1	4
