340.368	1	15
340.539	1	3
340.710	1	0
340.881	1	5
341.052	1	-11
341.223	1	12
341.394	1	1
341.565	1	-6
341.737	1	3
341.908	1	-7
342.079	1	-11
342.250	1	-4
342.421	1	-7
342.592	1	1
342.763	1	0
342.934	1	4
343.105	1	-2
343.276	1	1
343.447	1	-7
343.618	1	-10
343.789	1	-1
343.960	1	2
344.131	1	4
344.302	1	-12
344.473	1	3
344.644	1	-4
344.815	1	-4
344.986	1	-2
345.157	1	-8
345.328	1	-13
345.499	1	5
345.670	1	0
345.841	1	-3
346.012	1	8
346.183	1	19
346.354	1	4
346.526	1	-3
346.697	1	-6
346.868	1	-6
347.039	1	-3
347.210	1	6
347.381	1	-2
347.552	1	3
347.723	1	0
347.894	1	7
348.065	1	5
348.236	1	3
348.407	1	3
348.578	1	-1
348.749	1	-2
348.920	1	-3
349.091	1	-3
349.262	1	-2
349.433	1	0
349.604	1	3
349.775	1	5
349.946	1	-1
350.117	1	7
350.288	1	7
350.459	1	0
350.630	1	9
350.801	1	14
350.972	1	-2
351.143	1	10
351.314	1	-5
351.485	1	-1
351.656	1	7
351.827	1	-2
351.998	1	4
352.169	1	1
352.340	1	-3
352.511	1	2
352.682	1	2
352.853	1	1
353.024	1	6
353.195	1	-3
353.366	1	0
353.537	1	3
353.708	1	1
353.879	1	-4
354.050	1	3
354.221	1	4
354.392	1	5
354.563	1	20
354.734	1	12
354.905	1	9
355.076	1	9
355.247	1	-6
355.418	1	7
355.589	1	10
355.760	1	3
355.931	1	12
356.102	1	-5
356.273	1	5
356.444	1	3
356.615	1	2
356.785	1	5
356.956	1	2
357.127	1	0
357.298	1	-2
357.469	1	-6
357.640	1	-3
357.811	1	3
357.982	1	9
358.153	1	8
358.324	1	16
358.495	1	-1
358.666	1	0
358.837	1	3
359.008	1	10
359.179	1	5
359.350	1	-3
359.521	1	8
359.692	1	2
359.863	1	12
360.034	1	16
360.205	1	-3
360.376	1	0
360.547	1	-5
360.718	1	5
360.889	1	5
361.060	1	-3
361.231	1	15
361.401	1	-2
361.572	1	-1
361.743	1	10
361.914	1	9
362.085	1	5
362.256	1	5
362.427	1	-9
362.598	1	9
362.769	1	7
362.940	1	12
363.111	1	13
363.282	1	-2
363.453	1	0
363.624	1	3
363.795	1	7
363.966	1	8
364.137	1	9
364.308	1	11
364.478	1	10
364.649	1	12
364.820	1	-2
364.991	1	17
365.162	1	7
365.333	1	4
365.504	1	5
365.675	1	1
365.846	1	5
366.017	1	10
366.188	1	11
366.359	1	19
366.530	1	23
366.701	1	18
366.871	1	8
367.042	1	16
367.213	1	20
367.384	1	10
367.555	1	9
367.726	1	9
367.897	1	24
368.068	1	13
368.239	1	1
368.410	1	5
368.581	1	7
368.752	1	18
368.923	1	18
369.093	1	3
369.264	1	4
369.435	1	8
369.606	1	13
369.777	1	23
369.948	1	4
370.119	1	20
370.290	1	6
370.461	1	14
370.632	1	11
370.803	1	19
370.973	1	5
371.144	1	10
371.315	1	5
371.486	1	4
371.657	1	7
371.828	1	6
371.999	1	5
372.170	1	16
372.341	1	5
372.512	1	7
372.682	1	9
372.853	1	3
373.024	1	9
373.195	1	13
373.366	1	2
373.537	1	9
373.708	1	-8
373.879	1	3
374.050	1	11
374.220	1	8
374.391	1	3
374.562	1	8
374.733	1	0
374.904	1	10
375.075	1	9
375.246	1	5
375.417	1	0
375.588	1	9
375.758	1	3
375.929	1	2
376.100	1	7
376.271	1	10
376.442	1	1
376.613	1	1
376.784	1	16
376.955	1	2
377.125	1	17
377.296	1	7
377.467	1	-5
377.638	1	8
377.809	1	3
377.980	1	5
378.151	1	13
378.321	1	6
378.492	1	3
378.663	1	-2
378.834	1	12
379.005	1	11
379.176	1	-2
379.347	1	9
379.518	1	5
379.688	1	3
379.859	1	1
380.030	1	19
380.201	1	9
380.372	1	7
380.543	1	11
380.714	1	9
380.884	1	6
381.055	1	0
381.226	1	5
381.397	1	3
381.568	1	14
381.739	1	10
381.910	1	3
382.080	1	4
382.251	1	-2
382.422	1	8
382.593	1	1
382.764	1	2
382.935	1	11
383.105	1	18
383.276	1	12
383.447	1	3
383.618	1	7
383.789	1	5
383.960	1	-6
384.130	1	3
384.301	1	14
384.472	1	6
384.643	1	10
384.814	1	8
384.985	1	0
385.156	1	13
385.326	1	8
385.497	1	11
385.668	1	10
385.839	1	8
386.010	1	6
386.180	1	6
386.351	1	5
386.522	1	5
386.693	1	9
386.864	1	12
387.035	1	22
387.205	1	12
387.376	1	22
387.547	1	12
387.718	1	10
387.889	1	6
388.060	1	10
388.230	1	13
388.401	1	5
388.572	1	9
388.743	1	8
388.914	1	-4
389.084	1	10
389.255	1	5
389.426	1	1
389.597	1	11
389.768	1	17
389.939	1	14
390.109	1	-8
390.280	1	0
390.451	1	12
390.622	1	23
390.793	1	8
390.963	1	13
391.134	1	-3
391.305	1	-5
391.476	1	9
391.647	1	4
391.817	1	3
391.988	1	-7
392.159	1	13
392.330	1	-2
392.501	1	7
392.671	1	1
392.842	1	12
393.013	1	17
393.184	1	4
393.355	1	9
393.525	1	9
393.696	1	-2
393.867	1	12
394.038	1	5
394.208	1	14
394.379	1	1
394.550	1	2
394.721	1	5
394.892	1	-5
395.062	1	5
395.233	1	11
395.404	1	10
395.575	1	1
395.746	1	5
395.916	1	11
396.087	1	11
396.258	1	3
396.429	1	3
396.599	1	12
396.770	1	11
396.941	1	1
397.112	1	5
397.283	1	-1
397.453	1	8
397.624	1	13
397.795	1	7
397.966	1	6
398.136	1	4
398.307	1	2
398.478	1	7
398.649	1	3
398.819	1	7
398.990	1	2
399.161	1	6
399.332	1	12
399.503	1	0
399.673	1	-6
399.844	1	7
400.015	1	5
400.186	1	0
400.356	1	17
400.527	1	19
400.698	1	5
400.869	1	-2
401.039	1	-1
401.210	1	6
401.381	1	11
401.552	1	6
401.722	1	-2
401.893	1	8
402.064	1	12
402.235	1	-8
402.405	1	2
402.576	1	1
402.747	1	7
402.918	1	12
403.088	1	2
403.259	1	2
403.430	1	7
403.601	1	7
403.771	1	12
403.942	1	5
404.113	1	6
404.284	1	10
404.454	1	7
404.625	1	6
404.796	1	-3
404.967	1	-2
405.137	1	12
405.308	1	8
405.479	1	6
405.649	1	6
405.820	1	7
405.991	1	4
406.162	1	4
406.332	1	-6
406.503	1	12
406.674	1	-3
406.845	1	9
407.015	1	3
407.186	1	6
407.357	1	0
407.527	1	2
407.698	1	7
407.869	1	4
408.040	1	4
408.210	1	7
408.381	1	-3
408.552	1	-6
408.722	1	4
408.893	1	0
409.064	1	-1
409.235	1	3
409.405	1	13
409.576	1	12
409.747	1	4
409.917	1	2
410.088	1	4
410.259	1	0
410.430	1	-5
410.600	1	-3
410.771	1	7
410.942	1	1
411.112	1	5
411.283	1	1
411.454	1	6
411.625	1	-1
411.795	1	5
411.966	1	18
412.137	1	6
412.307	1	7
412.478	1	5
412.649	1	-5
412.819	1	6
412.990	1	-3
413.161	1	-6
413.332	1	4
413.502	1	-5
413.673	1	17
413.844	1	8
414.014	1	-1
414.185	1	5
414.356	1	3
414.526	1	7
414.697	1	4
414.868	1	0
415.038	1	-1
415.209	1	-8
415.380	1	9
415.550	1	6
415.721	1	11
415.892	1	-5
416.063	1	9
416.233	1	2
416.404	1	1
416.575	1	-3
416.745	1	-5
416.916	1	-3
417.087	1	2
417.257	1	6
417.428	1	-11
417.599	1	2
417.769	1	-2
417.940	1	-6
418.111	1	1
418.281	1	2
418.452	1	0
418.623	1	-5
418.793	1	-4
418.964	1	5
419.135	1	8
419.305	1	-4
419.476	1	7
419.647	1	2
419.817	1	6
419.988	1	-7
420.159	1	5
420.329	1	1
420.500	1	9
420.671	1	6
420.841	1	8
421.012	1	-10
421.183	1	9
421.353	1	3
421.524	1	6
421.695	1	1
421.865	1	15
422.036	1	3
422.206	1	5
422.377	1	0
422.548	1	10
422.718	1	0
422.889	1	-3
423.060	1	-9
423.230	1	4
423.401	1	-7
423.572	1	10
423.742	1	0
423.913	1	8
424.084	1	-5
424.254	1	-4
424.425	1	0
424.595	1	1
424.766	1	1
424.937	1	11
425.107	1	5
425.278	1	-1
425.449	1	0
425.619	1	0
425.790	1	2
425.961	1	-9
426.131	1	-10
426.302	1	10
426.472	1	-7
426.643	1	0
426.814	1	0
426.984	1	11
427.155	1	-4
427.326	1	-2
427.496	1	-6
427.667	1	1
427.837	1	9
428.008	1	9
428.179	1	-9
428.349	1	-10
428.520	1	2
428.691	1	-2
428.861	1	-2
429.032	1	-1
429.202	1	10
429.373	1	3
429.544	1	4
429.714	1	-4
429.885	1	-3
430.055	1	1
430.226	1	2
430.397	1	-5
430.567	1	0
430.738	1	1
430.909	1	-4
431.079	1	-5
431.250	1	-7
431.420	1	-2
431.591	1	-5
431.762	1	1
431.932	1	-5
432.103	1	5
432.273	1	11
432.444	1	0
432.615	1	-7
432.785	1	-8
432.956	1	0
433.126	1	-7
433.297	1	8
433.468	1	-2
433.638	1	13
433.809	1	1
433.979	1	1
434.150	1	10
434.320	1	7
434.491	1	13
434.662	1	-1
434.832	1	-7
435.003	1	10
435.173	1	5
435.344	1	0
435.515	1	-5
435.685	1	7
435.856	1	-5
436.026	1	-6
436.197	1	-1
436.368	1	-2
436.538	1	-4
436.709	1	-3
436.879	1	7
437.050	1	9
437.220	1	-15
437.391	1	5
437.562	1	10
437.732	1	6
437.903	1	-4
438.073	1	-7
438.244	1	-2
438.414	1	-7
438.585	1	0
438.756	1	-2
438.926	1	3
439.097	1	16
439.267	1	1
439.438	1	2
439.608	1	-1
439.779	1	-5
439.949	1	6
440.120	1	-5
440.291	1	-3
440.461	1	14
440.632	1	9
440.802	1	2
440.973	1	6
441.143	1	3
441.314	1	-5
441.485	1	-1
441.655	1	-6
441.826	1	-4
441.996	1	-1
442.167	1	0
442.337	1	4
442.508	1	9
442.678	1	-7
442.849	1	-10
443.019	1	-1
443.190	1	4
443.361	1	6
443.531	1	10
443.702	1	-9
443.872	1	-2
444.043	1	7
444.213	1	7
444.384	1	3
444.554	1	-8
444.725	1	-1
444.895	1	-7
445.066	1	7
445.237	1	2
445.407	1	0
445.578	1	9
445.748	1	-3
445.919	1	-2
446.089	1	2
446.260	1	-2
446.430	1	2
446.601	1	0
446.771	1	-5
446.942	1	-3
447.112	1	1
447.283	1	-6
447.453	1	2
447.624	1	-8
447.794	1	4
447.965	1	7
448.135	1	-2
448.306	1	-4
448.477	1	-2
448.647	1	-4
448.818	1	2
448.988	1	2
449.159	1	7
449.329	1	3
449.500	1	-5
449.670	1	0
449.841	1	2
450.011	1	1
450.182	1	-1
450.352	1	0
450.523	1	5
450.693	1	7
450.864	1	2
451.034	1	18
451.205	1	-11
451.375	1	0
451.546	1	0
451.716	1	4
451.887	1	-6
452.057	1	4
452.228	1	8
452.398	1	4
452.569	1	-6
452.739	1	4
452.910	1	-4
453.080	1	4
453.251	1	0
453.421	1	0
453.592	1	1
453.762	1	4
453.933	1	-3
454.103	1	7
454.274	1	7
454.444	1	7
454.615	1	9
454.785	1	5
454.956	1	3
455.126	1	8
455.297	1	-9
455.467	1	-1
455.638	1	10
455.808	1	1
455.979	1	2
456.149	1	2
456.320	1	11
456.490	1	-4
456.661	1	-6
456.831	1	6
457.001	1	3
457.172	1	-1
457.342	1	-8
457.513	1	12
457.683	1	3
457.854	1	9
458.024	1	-10
458.195	1	-3
458.365	1	19
458.536	1	-15
458.706	1	14
458.877	1	1
459.047	1	12
459.218	1	-1
459.388	1	13
459.559	1	-1
459.729	1	-2
459.899	1	-1
460.070	1	-3
460.240	1	6
460.411	1	0
460.581	1	7
460.752	1	0
460.922	1	2
461.093	1	-6
461.263	1	0
461.434	1	8
461.604	1	4
461.775	1	0
461.945	1	-4
462.115	1	10
462.286	1	3
462.456	1	5
462.627	1	8
462.797	1	-13
462.968	1	-8
463.138	1	2
463.309	1	-1
463.479	1	6
463.649	1	4
463.820	1	8
463.990	1	5
464.161	1	-2
464.331	1	-1
464.502	1	6
464.672	1	-13
464.843	1	5
465.013	1	-3
465.183	1	-2
465.354	1	10
465.524	1	-6
465.695	1	0
465.865	1	-1
466.036	1	8
466.206	1	-1
466.376	1	-6
466.547	1	-10
466.717	1	2
466.888	1	0
467.058	1	-1
467.229	1	-3
467.399	1	0
467.569	1	0
467.740	1	12
467.910	1	7
468.081	1	5
468.251	1	8
468.422	1	4
468.592	1	3
468.762	1	-1
468.933	1	0
469.103	1	-2
469.274	1	-3
469.444	1	2
469.614	1	-11
469.785	1	-1
469.955	1	3
470.126	1	7
470.296	1	6
470.467	1	-14
470.637	1	4
470.807	1	11
470.978	1	4
471.148	1	-7
471.319	1	12
471.489	1	-5
471.659	1	4
471.830	1	-1
472.000	1	-3
472.171	1	1
472.341	1	-4
472.511	1	13
472.682	1	-7
472.852	1	-3
473.023	1	7
473.193	1	2
473.363	1	5
473.534	1	-3
473.704	1	3
473.875	1	-8
474.045	1	-1
474.215	1	0
474.386	1	2
474.556	1	7
474.727	1	1
474.897	1	3
475.067	1	-12
475.238	1	-9
475.408	1	-3
475.578	1	9
475.749	1	-1
475.919	1	-3
476.090	1	-2
476.260	1	0
476.430	1	2
476.601	1	3
476.771	1	-6
476.942	1	3
477.112	1	0
477.282	1	9
477.453	1	-3
477.623	1	6
477.793	1	0
477.964	1	-3
478.134	1	0
478.305	1	1
478.475	1	-3
478.645	1	-2
478.816	1	4
478.986	1	0
479.156	1	-5
479.327	1	1
479.497	1	6
479.667	1	17
479.838	1	-8
480.008	1	-5
480.179	1	-10
480.349	1	7
480.519	1	-4
480.690	1	0
480.860	1	5
481.030	1	6
481.201	1	-4
481.371	1	4
481.541	1	4
481.712	1	-2
481.882	1	-9
482.053	1	0
482.223	1	7
482.393	1	1
482.564	1	4
482.734	1	4
482.904	1	4
483.075	1	-2
483.245	1	4
483.415	1	2
483.586	1	8
483.756	1	8
483.926	1	2
484.097	1	6
484.267	1	-6
484.437	1	-8
484.608	1	14
484.778	1	-1
484.948	1	-4
485.119	1	-2
485.289	1	1
485.459	1	8
485.630	1	7
485.800	1	-5
485.970	1	2
486.141	1	-8
486.311	1	2
486.481	1	2
486.652	1	6
486.822	1	-8
486.992	1	7
487.163	1	3
487.333	1	1
487.503	1	-8
487.674	1	5
487.844	1	3
488.014	1	-4
488.185	1	-5
488.355	1	4
488.525	1	3
488.696	1	2
488.866	1	-1
489.036	1	11
489.207	1	6
489.377	1	1
489.547	1	-3
489.718	1	0
489.888	1	3
490.058	1	6
490.228	1	-8
490.399	1	-4
490.569	1	1
490.739	1	10
490.910	1	0
491.080	1	-2
491.250	1	2
491.421	1	5
491.591	1	-9
491.761	1	-8
491.932	1	-6
492.102	1	-9
492.272	1	5
492.442	1	3
492.613	1	7
492.783	1	2
492.953	1	9
493.124	1	5
493.294	1	3
493.464	1	-2
493.635	1	-6
493.805	1	5
493.975	1	1
494.145	1	1
494.316	1	-2
494.486	1	4
494.656	1	-6
494.827	1	11
494.997	1	-9
495.167	1	2
495.337	1	-5
495.508	1	1
495.678	1	5
495.848	1	-2
496.019	1	1
496.189	1	-4
496.359	1	9
496.529	1	4
496.700	1	5
496.870	1	5
497.040	1	2
497.211	1	10
497.381	1	3
497.551	1	3
497.721	1	3
497.892	1	7
498.062	1	-5
498.232	1	10
498.403	1	0
498.573	1	6
498.743	1	13
498.913	1	3
499.084	1	0
499.254	1	-2
499.424	1	-2
499.594	1	2
499.765	1	12
499.935	1	-2
500.105	1	4
500.275	1	-2
500.446	1	-2
500.616	1	-5
500.786	1	2
500.956	1	1
501.127	1	11
501.297	1	-1
501.467	1	0
501.638	1	10
501.808	1	3
501.978	1	7
502.148	1	-9
502.319	1	18
502.489	1	2
502.659	1	15
502.829	1	8
503.000	1	2
503.170	1	-5
503.340	1	-1
503.510	1	-14
503.681	1	5
503.851	1	-2
504.021	1	9
504.191	1	9
504.362	1	9
504.532	1	5
504.702	1	-6
504.872	1	-4
505.042	1	2
505.213	1	9
505.383	1	6
505.553	1	3
505.723	1	1
505.894	1	7
506.064	1	-2
506.234	1	2
506.404	1	-3
506.575	1	-4
506.745	1	13
506.915	1	2
507.085	1	3
507.256	1	5
507.426	1	3
507.596	1	-4
507.766	1	9
507.936	1	-1
508.107	1	11
508.277	1	2
508.447	1	0
508.617	1	-6
508.788	1	8
508.958	1	3
509.128	1	12
509.298	1	-7
509.468	1	5
509.639	1	5
509.809	1	13
509.979	1	6
510.149	1	11
510.319	1	3
510.490	1	3
510.660	1	10
510.830	1	-1
511.000	1	5
511.171	1	4
511.341	1	4
511.511	1	1
511.681	1	13
511.851	1	0
512.022	1	-3
512.192	1	11
512.362	1	2
512.532	1	-14
512.702	1	8
512.873	1	12
513.043	1	9
513.213	1	12
513.383	1	-1
513.553	1	11
513.724	1	-5
513.894	1	4
514.064	1	12
514.234	1	4
514.404	1	10
514.575	1	-2
514.745	1	10
514.915	1	-11
515.085	1	2
515.255	1	6
515.425	1	7
515.596	1	10
515.766	1	7
515.936	1	6
516.106	1	-1
516.276	1	3
516.447	1	13
516.617	1	6
516.787	1	7
516.957	1	5
517.127	1	1
517.297	1	-2
517.468	1	0
517.638	1	-11
517.808	1	5
517.978	1	9
518.148	1	3
518.319	1	-3
518.489	1	4
518.659	1	6
518.829	1	-1
518.999	1	6
519.169	1	3
519.340	1	18
519.510	1	-4
519.680	1	6
519.850	1	-5
520.020	1	5
520.190	1	1
520.361	1	6
520.531	1	4
520.701	1	7
520.871	1	-5
521.041	1	10
521.211	1	17
521.382	1	4
521.552	1	-1
521.722	1	5
521.892	1	7
522.062	1	1
522.232	1	15
522.402	1	1
522.573	1	-3
522.743	1	9
522.913	1	5
523.083	1	5
523.253	1	23
523.423	1	2
523.593	1	10
523.764	1	9
523.934	1	13
524.104	1	3
524.274	1	1
524.444	1	9
524.614	1	7
524.784	1	-6
524.955	1	7
525.125	1	7
525.295	1	3
525.465	1	-2
525.635	1	7
525.805	1	10
525.975	1	10
526.146	1	5
526.316	1	-2
526.486	1	13
526.656	1	11
526.826	1	0
526.996	1	7
527.166	1	-5
527.337	1	2
527.507	1	6
527.677	1	20
527.847	1	-1
528.017	1	-2
528.187	1	2
528.357	1	11
528.527	1	2
528.698	1	-1
528.868	1	11
529.038	1	10
529.208	1	-4
529.378	1	7
529.548	1	5
529.718	1	3
529.888	1	3
530.058	1	-2
530.229	1	14
530.399	1	8
530.569	1	-6
530.739	1	7
530.909	1	11
531.079	1	-9
531.249	1	-2
531.419	1	4
531.589	1	7
531.760	1	2
531.930	1	7
532.100	1	-8
532.270	1	10
532.440	1	5
532.610	1	17
532.780	1	9
532.950	1	9
533.120	1	22
533.290	1	8
533.461	1	8
533.631	1	2
533.801	1	-1
533.971	1	6
534.141	1	10
534.311	1	9
534.481	1	5
534.651	1	-3
534.821	1	0
534.991	1	1
535.162	1	-6
535.332	1	8
535.502	1	5
535.672	1	1
535.842	1	15
536.012	1	6
536.182	1	1
536.352	1	-1
536.522	1	1
536.692	1	-1
536.862	1	1
537.032	1	4
537.203	1	-1
537.373	1	8
537.543	1	-4
537.713	1	-1
537.883	1	-2
538.053	1	5
538.223	1	5
538.393	1	4
538.563	1	17
538.733	1	12
538.903	1	6
539.073	1	7
539.243	1	-1
539.413	1	7
539.584	1	2
539.754	1	12
539.924	1	12
540.094	1	5
540.264	1	1
540.434	1	8
540.604	1	2
540.774	1	3
540.944	1	4
541.114	1	9
541.284	1	3
541.454	1	2
541.624	1	9
541.794	1	8
541.964	1	-11
542.134	1	5
542.305	1	12
542.475	1	-1
542.645	1	3
542.815	1	-6
542.985	1	7
543.155	1	-13
543.325	1	6
543.495	1	10
543.665	1	1
543.835	1	-6
544.005	1	3
544.175	1	2
544.345	1	-3
544.515	1	4
544.685	1	15
544.855	1	12
545.025	1	6
545.195	1	5
545.365	1	2
545.535	1	-3
545.705	1	12
545.875	1	1
546.045	1	3
546.216	1	-7
546.386	1	7
546.556	1	6
546.726	1	5
546.896	1	6
547.066	1	10
547.236	1	2
547.406	1	-2
547.576	1	4
547.746	1	18
547.916	1	0
548.086	1	16
548.256	1	8
548.426	1	-1
548.596	1	-3
548.766	1	13
548.936	1	12
549.106	1	11
549.276	1	9
549.446	1	-1
549.616	1	8
549.786	1	-4
549.956	1	0
550.126	1	11
550.296	1	2
550.466	1	1
550.636	1	12
550.806	1	16
550.976	1	-4
551.146	1	4
551.316	1	0
551.486	1	10
551.656	1	5
551.826	1	9
551.996	1	4
552.166	1	6
552.336	1	0
552.506	1	10
552.676	1	5
552.846	1	0
553.016	1	13
553.186	1	12
553.356	1	4
553.526	1	6
553.696	1	17
553.866	1	7
554.036	1	3
554.206	1	4
554.376	1	-6
554.546	1	6
554.716	1	6
554.886	1	6
555.056	1	2
555.226	1	7
555.396	1	-1
555.566	1	3
555.736	1	6
555.906	1	-3
556.076	1	9
556.246	1	-5
556.416	1	-2
556.586	1	-6
556.756	1	-2
556.926	1	7
557.096	1	10
557.266	1	1
557.436	1	11
557.606	1	5
557.776	1	6
557.946	1	-4
558.116	1	4
558.286	1	-5
558.456	1	1
558.626	1	-13
558.796	1	8
558.966	1	0
559.136	1	5
559.306	1	12
559.476	1	8
559.646	1	2
559.816	1	3
559.986	1	-6
560.155	1	6
560.325	1	3
560.495	1	-1
560.665	1	-7
560.835	1	3
561.005	1	10
561.175	1	6
561.345	1	-2
561.515	1	-2
561.685	1	0
561.855	1	3
562.025	1	10
562.195	1	1
562.365	1	10
562.535	1	1
562.705	1	3
562.875	1	7
563.045	1	-7
563.215	1	-12
563.385	1	-7
563.555	1	3
563.725	1	11
563.895	1	-1
564.064	1	-1
564.234	1	7
564.404	1	1
564.574	1	11
564.744	1	4
564.914	1	2
565.084	1	-11
565.254	1	7
565.424	1	4
565.594	1	1
565.764	1	2
565.934	1	4
566.104	1	-7
566.274	1	10
566.444	1	-6
566.614	1	-1
566.783	1	5
566.953	1	2
567.123	1	14
567.293	1	-1
567.463	1	-1
567.633	1	1
567.803	1	7
567.973	1	5
568.143	1	1
568.313	1	2
568.483	1	6
568.653	1	-9
568.823	1	0
568.993	1	9
569.162	1	-8
569.332	1	7
569.502	1	9
569.672	1	8
569.842	1	-2
570.012	1	-1
570.182	1	-1
570.352	1	-1
570.522	1	6
570.692	1	6
570.862	1	6
571.031	1	-1
571.201	1	-2
571.371	1	10
571.541	1	7
571.711	1	-6
571.881	1	0
572.051	1	-8
572.221	1	11
572.391	1	11
572.561	1	20
572.731	1	6
572.900	1	-8
573.070	1	10
573.240	1	-9
573.410	1	1
573.580	1	-1
573.750	1	5
573.920	1	-2
574.090	1	8
574.260	1	4
574.430	1	0
574.599	1	4
574.769	1	8
574.939	1	-1
575.109	1	0
575.279	1	4
575.449	1	14
575.619	1	9
575.789	1	-6
575.959	1	3
576.128	1	-2
576.298	1	0
576.468	1	0
576.638	1	-4
576.808	1	-2
576.978	1	1
577.148	1	0
577.318	1	19
577.487	1	1
577.657	1	-4
577.827	1	-8
577.997	1	4
578.167	1	7
578.337	1	-4
578.507	1	-2
578.677	1	0
578.846	1	10
579.016	1	4
579.186	1	7
579.356	1	-2
579.526	1	-3
579.696	1	8
579.866	1	-5
580.036	1	6
580.205	1	-6
580.375	1	10
580.545	1	-2
580.715	1	-7
580.885	1	5
581.055	1	0
581.225	1	-8
581.394	1	-6
581.564	1	-2
581.734	1	1
581.904	1	-8
582.074	1	6
582.244	1	15
582.414	1	2
582.583	1	5
582.753	1	4
582.923	1	-1
583.093	1	4
583.263	1	6
583.433	1	-4
583.603	1	-7
583.772	1	-9
583.942	1	6
584.112	1	-6
584.282	1	6
584.452	1	3
584.622	1	2
584.791	1	-7
584.961	1	-8
585.131	1	1
585.301	1	-2
585.471	1	-11
585.641	1	16
585.811	1	2
585.980	1	2
586.150	1	6
586.320	1	1
586.490	1	4
586.660	1	0
586.830	1	-11
586.999	1	11
587.169	1	21
587.339	1	5
587.509	1	4
587.679	1	-1
587.849	1	11
588.018	1	-9
588.188	1	5
588.358	1	-1
588.528	1	-1
588.698	1	-11
588.867	1	0
589.037	1	-7
589.207	1	9
589.377	1	0
589.547	1	13
589.717	1	-15
589.886	1	7
590.056	1	4
590.226	1	5
590.396	1	-8
590.566	1	-6
590.735	1	4
590.905	1	2
591.075	1	-5
591.245	1	5
591.415	1	1
591.585	1	7
591.754	1	2
591.924	1	9
592.094	1	4
592.264	1	-5
592.434	1	1
592.603	1	-1
592.773	1	-8
592.943	1	5
593.113	1	3
593.283	1	-6
593.452	1	-8
593.622	1	-2
593.792	1	7
593.962	1	4
594.132	1	1
594.301	1	10
594.471	1	4
594.641	1	3
594.811	1	-6
594.981	1	-3
595.150	1	-4
595.320	1	1
595.490	1	7
595.660	1	10
595.829	1	-12
595.999	1	-5
596.169	1	14
596.339	1	5
596.509	1	2
596.678	1	15
596.848	1	4
597.018	1	-6
597.188	1	-5
597.358	1	-1
597.527	1	1
597.697	1	-4
597.867	1	12
598.037	1	2
598.206	1	6
598.376	1	-6
598.546	1	11
598.716	1	-14
598.885	1	-4
599.055	1	5
599.225	1	11
599.395	1	5
599.565	1	1
599.734	1	2
599.904	1	-15
600.074	1	-1
600.244	1	-8
600.413	1	6
600.583	1	-11
600.753	1	8
600.923	1	-3
601.092	1	9
601.262	1	1
601.432	1	-2
601.602	1	11
601.771	1	0
601.941	1	11
602.111	1	7
602.281	1	0
602.451	1	1
602.620	1	0
602.790	1	-6
602.960	1	-10
603.130	1	-7
603.299	1	1
603.469	1	5
603.639	1	-10
603.809	1	9
603.978	1	-3
604.148	1	7
604.318	1	-3
604.487	1	2
604.657	1	-4
604.827	1	4
604.997	1	6
605.166	1	-4
605.336	1	0
605.506	1	3
605.676	1	13
605.845	1	-4
606.015	1	-8
606.185	1	-2
606.355	1	2
606.524	1	1
606.694	1	-2
606.864	1	12
607.034	1	3
607.203	1	18
607.373	1	2
607.543	1	-3
607.712	1	3
607.882	1	7
608.052	1	3
608.222	1	1
608.391	1	11
608.561	1	-1
608.731	1	-3
608.901	1	0
609.070	1	-11
609.240	1	-1
609.410	1	8
609.579	1	3
609.749	1	0
609.919	1	0
610.089	1	4
610.258	1	-3
610.428	1	1
610.598	1	3
610.767	1	11
610.937	1	5
611.107	1	-9
611.277	1	-14
611.446	1	-6
611.616	1	3
611.786	1	13
611.955	1	8
612.125	1	5
612.295	1	2
612.465	1	-6
612.634	1	1
612.804	1	-5
612.974	1	9
613.143	1	5
613.313	1	4
613.483	1	8
613.652	1	2
613.822	1	2
613.992	1	-4
614.162	1	9
614.331	1	2
614.501	1	0
614.671	1	8
614.840	1	1
615.010	1	2
615.180	1	2
615.349	1	12
615.519	1	3
615.689	1	-7
615.858	1	12
616.028	1	8
616.198	1	-9
616.368	1	1
616.537	1	-2
616.707	1	5
616.877	1	7
617.046	1	13
617.216	1	-2
617.386	1	9
617.555	1	-9
617.725	1	13
617.895	1	1
618.064	1	-4
618.234	1	2
618.404	1	-6
618.573	1	4
618.743	1	10
618.913	1	2
619.082	1	-6
619.252	1	2
619.422	1	0
619.591	1	-4
619.761	1	-4
619.931	1	0
620.100	1	7
620.270	1	-1
620.440	1	12
620.609	1	8
620.779	1	6
620.949	1	-3
621.118	1	2
621.288	1	-3
621.458	1	8
621.627	1	0
621.797	1	-1
621.967	1	2
622.136	1	-2
622.306	1	-2
622.476	1	4
622.645	1	6
622.815	1	-4
622.985	1	-1
623.154	1	3
623.324	1	1
623.494	1	-7
623.663	1	0
623.833	1	-1
624.002	1	-5
624.172	1	-3
624.342	1	10
624.511	1	-5
624.681	1	3
624.851	1	-5
625.020	1	5
625.190	1	-1
625.360	1	-7
625.529	1	-5
625.699	1	1
625.869	1	3
626.038	1	-7
626.208	1	9
626.377	1	2
626.547	1	-1
626.717	1	-10
626.886	1	-6
627.056	1	-4
627.226	1	2
627.395	1	-4
627.565	1	9
627.735	1	1
627.904	1	14
628.074	1	8
628.243	1	10
628.413	1	-12
628.583	1	6
628.752	1	-5
628.922	1	1
629.091	1	-7
629.261	1	2
629.431	1	0
629.600	1	6
629.770	1	1
629.940	1	-3
630.109	1	-1
630.279	1	-2
630.448	1	-7
630.618	1	2
630.788	1	4
630.957	1	15
631.127	1	1
631.297	1	4
631.466	1	-2
631.636	1	6
631.805	1	6
631.975	1	-2
632.145	1	-6
632.314	1	5
632.484	1	10
632.653	1	2
632.823	1	-7
632.993	1	1
633.162	1	-3
633.332	1	-1
633.501	1	-6
633.671	1	-9
633.841	1	0
634.010	1	8
634.180	1	13
634.349	1	3
634.519	1	7
634.689	1	-1
634.858	1	-5
635.028	1	-8
635.197	1	6
635.367	1	10
635.537	1	3
635.706	1	5
635.876	1	0
636.045	1	2
636.215	1	5
636.384	1	-9
636.554	1	-4
636.724	1	-2
636.893	1	-1
637.063	1	-5
637.232	1	9
637.402	1	-8
637.572	1	-5
637.741	1	5
637.911	1	4
638.080	1	5
638.250	1	-3
638.419	1	0
638.589	1	5
638.759	1	-3
638.928	1	-7
639.098	1	2
639.267	1	1
639.437	1	11
639.606	1	6
639.776	1	5
639.946	1	8
640.115	1	-4
640.285	1	11
640.454	1	-2
640.624	1	5
640.793	1	4
640.963	1	8
641.132	1	9
641.302	1	8
641.472	1	2
641.641	1	7
641.811	1	-1
641.980	1	2
642.150	1	-9
642.319	1	7
642.489	1	-6
642.659	1	9
642.828	1	0
642.998	1	0
643.167	1	-6
643.337	1	2
643.506	1	2
643.676	1	2
643.845	1	3
644.015	1	3
644.184	1	-11
644.354	1	1
644.524	1	0
644.693	1	8
644.863	1	2
645.032	1	1
645.202	1	1
645.371	1	1
645.541	1	9
645.710	1	-6
645.880	1	-1
646.049	1	-2
646.219	1	0
646.388	1	5
646.558	1	6
646.728	1	-7
646.897	1	2
647.067	1	3
647.236	1	15
647.406	1	9
647.575	1	2
647.745	1	17
647.914	1	0
648.084	1	5
648.253	1	-4
648.423	1	-4
648.592	1	-20
648.762	1	8
648.931	1	8
649.101	1	3
649.270	1	-1
649.440	1	3
649.610	1	-2
649.779	1	1
649.949	1	6
650.118	1	1
650.288	1	3
650.457	1	2
650.627	1	4
650.796	1	3
650.966	1	-10
651.135	1	1
651.305	1	-2
651.474	1	11
651.644	1	13
651.813	1	7
651.983	1	2
652.152	1	6
652.322	1	1
652.491	1	-1
652.661	1	-9
652.830	1	4
653.000	1	4
653.169	1	14
653.339	1	9
653.508	1	2
653.678	1	-1
653.847	1	-2
654.017	1	4
654.186	1	6
654.356	1	-11
654.525	1	-7
654.695	1	1
654.864	1	-7
655.034	1	7
655.203	1	4
655.373	1	10
655.542	1	1
655.712	1	-5
655.881	1	6
656.051	1	3
656.220	1	4
656.390	1	5
656.559	1	-9
656.729	1	-5
656.898	1	-3
657.068	1	16
657.237	1	-2
657.406	1	-6
657.576	1	-5
657.745	1	4
657.915	1	4
658.084	1	4
658.254	1	2
658.423	1	11
658.593	1	10
658.762	1	8
658.932	1	-2
659.101	1	-10
659.271	1	-1
659.440	1	0
659.610	1	-4
659.779	1	9
659.949	1	-4
660.118	1	4
660.288	1	-2
660.457	1	7
660.626	1	-2
660.796	1	2
660.965	1	-1
661.135	1	0
661.304	1	-6
661.474	1	-3
661.643	1	2
661.813	1	-1
661.982	1	2
662.152	1	2
662.321	1	-5
662.491	1	-6
662.660	1	-2
662.829	1	6
662.999	1	-4
663.168	1	2
663.338	1	10
663.507	1	2
663.677	1	1
663.846	1	2
664.016	1	-7
664.185	1	0
664.354	1	9
664.524	1	7
664.693	1	1
664.863	1	-2
665.032	1	-2
665.202	1	-2
665.371	1	-9
665.541	1	18
665.710	1	-1
665.879	1	-2
666.049	1	-6
666.218	1	-8
666.388	1	4
666.557	1	15
666.727	1	2
666.896	1	6
667.065	1	2
667.235	1	13
667.404	1	-1
667.574	1	2
667.743	1	1
667.913	1	13
668.082	1	-8
668.251	1	4
668.421	1	2
668.590	1	3
668.760	1	-3
668.929	1	12
669.099	1	-6
669.268	1	8
669.437	1	3
669.607	1	12
669.776	1	1
669.946	1	4
670.115	1	-22
670.285	1	12
670.454	1	-3
670.623	1	-4
670.793	1	-5
670.962	1	2
671.132	1	-1
671.301	1	-1
671.470	1	0
671.640	1	-3
671.809	1	-8
671.979	1	5
672.148	1	-2
672.317	1	-5
672.487	1	-5
672.656	1	-9
672.826	1	-3
672.995	1	2
673.164	1	-4
673.334	1	3
673.503	1	-2
673.673	1	-1
673.842	1	0
674.011	1	15
674.181	1	9
674.350	1	-2
674.520	1	2
674.689	1	-7
674.858	1	-9
675.028	1	5
675.197	1	1
675.367	1	3
675.536	1	10
675.705	1	2
675.875	1	-1
676.044	1	-3
676.214	1	6
676.383	1	9
676.552	1	4
676.722	1	-5
676.891	1	3
677.060	1	4
677.230	1	6
677.399	1	-10
677.569	1	10
677.738	1	9
677.907	1	-2
678.077	1	6
678.246	1	10
678.416	1	4
678.585	1	0
678.754	1	2
678.924	1	5
679.093	1	0
679.262	1	-3
679.432	1	0
679.601	1	3
679.771	1	-4
679.940	1	-3
680.109	1	-3
680.279	1	10
680.448	1	4
680.617	1	-2
680.787	1	0
680.956	1	1
681.125	1	1
681.295	1	2
681.464	1	-11
681.634	1	5
681.803	1	-5
681.972	1	-1
682.142	1	-1
682.311	1	3
682.480	1	5
682.650	1	3
682.819	1	3
682.988	1	-7
683.158	1	3
683.327	1	3
683.496	1	5
683.666	1	6
683.835	1	-1
684.004	1	7
684.174	1	-1
684.343	1	0
684.512	1	0
684.682	1	2
684.851	1	0
685.021	1	1
685.190	1	0
685.359	1	-7
685.529	1	0
685.698	1	-1
685.867	1	5
686.037	1	6
686.206	1	0
686.375	1	2
686.545	1	8
686.714	1	-7
686.883	1	-1
687.053	1	4
687.222	1	-1
687.391	1	1
687.561	1	8
687.730	1	0
687.899	1	2
688.069	1	7
688.238	1	1
688.407	1	4
688.577	1	-10
688.746	1	9
