340.368	1	8
340.539	1	5
340.710	1	4
340.881	1	-5
341.052	1	-7
341.223	1	13
341.394	1	-2
341.565	1	-6
341.737	1	1
341.908	1	-5
342.079	1	-6
342.250	1	0
342.421	1	7
342.592	1	2
342.763	1	2
342.934	1	-5
343.105	1	-1
343.276	1	-10
343.447	1	-14
343.618	1	-4
343.789	1	-2
343.960	1	-6
344.131	1	2
344.302	1	-10
344.473	1	4
344.644	1	0
344.815	1	-7
344.986	1	5
345.157	1	-8
345.328	1	-8
345.499	1	6
345.670	1	1
345.841	1	-1
346.012	1	8
346.183	1	10
346.354	1	-5
346.526	1	3
346.697	1	-1
346.868	1	-16
347.039	1	-9
347.210	1	-3
347.381	1	7
347.552	1	9
347.723	1	-1
347.894	1	0
348.065	1	5
348.236	1	2
348.407	1	-4
348.578	1	0
348.749	1	-3
348.920	1	2
349.091	1	0
349.262	1	-4
349.433	1	-3
349.604	1	11
349.775	1	3
349.946	1	-4
350.117	1	3
350.288	1	1
350.459	1	-4
350.630	1	9
350.801	1	8
350.972	1	0
351.143	1	8
351.314	1	1
351.485	1	-4
351.656	1	-5
351.827	1	6
351.998	1	4
352.169	1	-3
352.340	1	4
352.511	1	-4
352.682	1	1
352.853	1	6
353.024	1	-2
353.195	1	-2
353.366	1	0
353.537	1	-2
353.708	1	-3
353.879	1	-4
354.050	1	11
354.221	1	-8
354.392	1	7
354.563	1	14
354.734	1	8
354.905	1	11
355.076	1	10
355.247	1	4
355.418	1	0
355.589	1	-7
355.760	1	8
355.931	1	6
356.102	1	3
356.273	1	1
356.444	1	6
356.615	1	-9
356.785	1	6
356.956	1	-1
357.127	1	18
357.298	1	0
357.469	1	2
357.640	1	1
357.811	1	5
357.982	1	1
358.153	1	-2
358.324	1	7
358.495	1	-11
358.666	1	3
358.837	1	11
359.008	1	10
359.179	1	11
359.350	1	6
359.521	1	12
359.692	1	3
359.863	1	1
360.034	1	5
360.205	1	5
360.376	1	4
360.547	1	5
360.718	1	18
360.889	1	15
361.060	1	12
361.231	1	3
361.401	1	-3
361.572	1	4
361.743	1	10
361.914	1	14
362.085	1	20
362.256	1	8
362.427	1	-5
362.598	1	2
362.769	1	19
362.940	1	10
363.111	1	11
363.282	1	6
363.453	1	12
363.624	1	11
363.795	1	11
363.966	1	10
364.137	1	10
364.308	1	19
364.478	1	8
364.649	1	11
364.820	1	3
364.991	1	10
365.162	1	16
365.333	1	7
365.504	1	12
365.675	1	4
365.846	1	22
366.017	1	15
366.188	1	16
366.359	1	17
366.530	1	21
366.701	1	16
366.871	1	10
367.042	1	20
367.213	1	26
367.384	1	10
367.555	1	23
367.726	1	23
367.897	1	13
368.068	1	15
368.239	1	17
368.410	1	12
368.581	1	21
368.752	1	17
368.923	1	17
369.093	1	19
369.264	1	9
369.435	1	21
369.606	1	15
369.777	1	16
369.948	1	18
370.119	1	12
370.290	1	7
370.461	1	14
370.632	1	22
370.803	1	23
370.973	1	6
371.144	1	20
371.315	1	2
371.486	1	15
371.657	1	15
371.828	1	22
371.999	1	2
372.170	1	13
372.341	1	5
372.512	1	14
372.682	1	9
372.853	1	12
373.024	1	16
373.195	1	7
373.366	1	9
373.537	1	11
373.708	1	8
373.879	1	7
374.050	1	10
374.220	1	3
374.391	1	13
374.562	1	5
374.733	1	7
374.904	1	8
375.075	1	6
375.246	1	-8
375.417	1	11
375.588	1	13
375.758	1	1
375.929	1	11
376.100	1	2
376.271	1	8
376.442	1	3
376.613	1	-7
376.784	1	16
376.955	1	-10
377.125	1	11
377.296	1	7
377.467	1	5
377.638	1	2
377.809	1	3
377.980	1	14
378.151	1	6
378.321	1	6
378.492	1	6
378.663	1	12
378.834	1	7
379.005	1	6
379.176	1	-6
379.347	1	14
379.518	1	14
379.688	1	-3
379.859	1	11
380.030	1	21
380.201	1	15
380.372	1	12
380.543	1	17
380.714	1	6
380.884	1	8
381.055	1	0
381.226	1	13
381.397	1	4
381.568	1	5
381.739	1	3
381.910	1	-1
382.080	1	9
382.251	1	4
382.422	1	12
382.593	1	11
382.764	1	1
382.935	1	3
383.105	1	-3
383.276	1	9
383.447	1	12
383.618	1	19
383.789	1	2
383.960	1	8
384.130	1	3
384.301	1	14
384.472	1	7
384.643	1	13
384.814	1	3
384.985	1	1
385.156	1	18
385.326	1	11
385.497	1	7
385.668	1	9
385.839	1	20
386.010	1	10
386.180	1	13
386.351	1	-5
386.522	1	14
386.693	1	19
386.864	1	14
387.035	1	19
387.205	1	11
387.376	1	7
387.547	1	12
387.718	1	4
387.889	1	14
388.060	1	10
388.230	1	20
388.401	1	5
388.572	1	14
388.743	1	1
388.914	1	2
389.084	1	20
389.255	1	7
389.426	1	3
389.597	1	5
389.768	1	13
389.939	1	6
390.109	1	8
390.280	1	9
390.451	1	6
390.622	1	13
390.793	1	13
390.963	1	12
391.134	1	1
391.305	1	0
391.476	1	13
391.647	1	8
391.817	1	17
391.988	1	-3
392.159	1	23
392.330	1	14
392.501	1	7
392.671	1	7
392.842	1	14
393.013	1	12
393.184	1	5
393.355	1	11
393.525	1	9
393.696	1	-2
393.867	1	14
394.038	1	6
394.208	1	14
394.379	1	0
394.550	1	6
394.721	1	7
394.892	1	0
395.062	1	13
395.233	1	8
395.404	1	18
395.575	1	2
395.746	1	6
395.916	1	9
396.087	1	17
396.258	1	3
396.429	1	7
396.599	1	4
396.770	1	11
396.941	1	8
397.112	1	10
397.283	1	-5
397.453	1	5
397.624	1	14
397.795	1	13
397.966	1	18
398.136	1	10
398.307	1	8
398.478	1	11
398.649	1	7
398.819	1	5
398.990	1	7
399.161	1	9
399.332	1	14
399.503	1	17
399.673	1	-1
399.844	1	1
400.015	1	6
400.186	1	7
400.356	1	16
400.527	1	8
400.698	1	4
400.869	1	1
401.039	1	0
401.210	1	4
401.381	1	4
401.552	1	0
401.722	1	-1
401.893	1	15
402.064	1	1
402.235	1	-3
402.405	1	11
402.576	1	6
402.747	1	2
402.918	1	9
403.088	1	7
403.259	1	2
403.430	1	7
403.601	1	1
403.771	1	17
403.942	1	11
404.113	1	13
404.284	1	5
404.454	1	12
404.625	1	9
404.796	1	-6
404.967	1	1
405.137	1	11
405.308	1	9
405.479	1	16
405.649	1	15
405.820	1	3
405.991	1	4
406.162	1	8
406.332	1	-3
406.503	1	-1
406.674	1	6
406.845	1	7
407.015	1	4
407.186	1	7
407.357	1	9
407.527	1	3
407.698	1	6
407.869	1	9
408.040	1	5
408.210	1	10
408.381	1	-3
408.552	1	-1
408.722	1	-12
408.893	1	4
409.064	1	-1
409.235	1	5
409.405	1	3
409.576	1	10
409.747	1	12
409.917	1	8
410.088	1	2
410.259	1	-1
410.430	1	9
410.600	1	-1
410.771	1	0
410.942	1	-3
411.112	1	-1
411.283	1	6
411.454	1	-2
411.625	1	0
411.795	1	11
411.966	1	10
412.137	1	6
412.307	1	10
412.478	1	13
412.649	1	-3
412.819	1	2
412.990	1	7
413.161	1	-3
413.332	1	6
413.502	1	1
413.673	1	21
413.844	1	13
414.014	1	3
414.185	1	1
414.356	1	2
414.526	1	12
414.697	1	6
414.868	1	3
415.038	1	12
415.209	1	-4
415.380	1	14
415.550	1	10
415.721	1	1
415.892	1	3
416.063	1	17
416.233	1	4
416.404	1	-8
416.575	1	5
416.745	1	1
416.916	1	3
417.087	1	7
417.257	1	10
417.428	1	-2
417.599	1	-1
417.769	1	1
417.940	1	2
418.111	1	6
418.281	1	-7
418.452	1	11
418.623	1	1
418.793	1	10
418.964	1	1
419.135	1	11
419.305	1	-4
419.476	1	-5
419.647	1	1
419.817	1	1
419.988	1	-1
420.159	1	12
420.329	1	9
420.500	1	14
420.671	1	6
420.841	1	7
421.012	1	3
421.183	1	7
421.353	1	7
421.524	1	5
421.695	1	1
421.865	1	9
422.036	1	-1
422.206	1	7
422.377	1	9
422.548	1	14
422.718	1	-8
422.889	1	-13
423.060	1	-3
423.230	1	5
423.401	1	2
423.572	1	25
423.742	1	3
423.913	1	-5
424.084	1	3
424.254	1	0
424.425	1	2
424.595	1	-6
424.766	1	-3
424.937	1	3
425.107	1	2
425.278	1	4
425.449	1	0
425.619	1	2
425.790	1	10
425.961	1	-2
426.131	1	-1
426.302	1	12
426.472	1	4
426.643	1	1
426.814	1	-3
426.984	1	-1
427.155	1	-11
427.326	1	-1
427.496	1	-1
427.667	1	7
427.837	1	6
428.008	1	1
428.179	1	3
428.349	1	-1
428.520	1	3
428.691	1	-7
428.861	1	2
429.032	1	0
429.202	1	1
429.373	1	0
429.544	1	3
429.714	1	2
429.885	1	-2
430.055	1	7
430.226	1	-6
430.397	1	5
430.567	1	14
430.738	1	5
430.909	1	-5
431.079	1	1
431.250	1	-4
431.420	1	6
431.591	1	-8
431.762	1	-2
431.932	1	-13
432.103	1	2
432.273	1	9
432.444	1	-1
432.615	1	-5
432.785	1	-4
432.956	1	6
433.126	1	-4
433.297	1	4
433.468	1	0
433.638	1	7
433.809	1	3
433.979	1	4
434.150	1	14
434.320	1	6
434.491	1	7
434.662	1	5
434.832	1	-4
435.003	1	6
435.173	1	0
435.344	1	-1
435.515	1	-8
435.685	1	4
435.856	1	1
436.026	1	3
436.197	1	-4
436.368	1	-5
436.538	1	3
436.709	1	-3
436.879	1	-1
437.050	1	14
437.220	1	-10
437.391	1	10
437.562	1	8
437.732	1	1
437.903	1	-3
438.073	1	-2
438.244	1	-10
438.414	1	-5
438.585	1	0
438.756	1	7
438.926	1	5
439.097	1	9
439.267	1	-1
439.438	1	-2
439.608	1	1
439.779	1	7
439.949	1	2
440.120	1	-2
440.291	1	0
440.461	1	9
440.632	1	7
440.802	1	1
440.973	1	6
441.143	1	0
441.314	1	-5
441.485	1	1
441.655	1	-6
441.826	1	-6
441.996	1	-3
442.167	1	-4
442.337	1	1
442.508	1	2
442.678	1	-2
442.849	1	-10
443.019	1	2
443.190	1	6
443.361	1	11
443.531	1	6
443.702	1	-6
443.872	1	1
444.043	1	8
444.213	1	11
444.384	1	-5
444.554	1	2
444.725	1	4
444.895	1	-7
445.066	1	0
445.237	1	-4
445.407	1	1
445.578	1	1
445.748	1	5
445.919	1	-9
446.089	1	-3
446.260	1	-2
446.430	1	3
446.601	1	13
446.771	1	-7
446.942	1	-1
447.112	1	12
447.283	1	-11
447.453	1	-1
447.624	1	0
447.794	1	13
447.965	1	0
448.135	1	2
448.306	1	-2
448.477	1	5
448.647	1	-1
448.818	1	-1
448.988	1	-2
449.159	1	4
449.329	1	3
449.500	1	-3
449.670	1	3
449.841	1	3
450.011	1	4
450.182	1	-5
450.352	1	4
450.523	1	5
450.693	1	2
450.864	1	6
451.034	1	0
451.205	1	-6
451.375	1	-2
451.546	1	-9
451.716	1	10
451.887	1	7
452.057	1	5
452.228	1	0
452.398	1	-2
452.569	1	-10
452.739	1	-6
452.910	1	-6
453.080	1	1
453.251	1	-1
453.421	1	-4
453.592	1	9
453.762	1	10
453.933	1	4
454.103	1	6
454.274	1	-4
454.444	1	6
454.615	1	14
454.785	1	3
454.956	1	-5
455.126	1	-9
455.297	1	-1
455.467	1	-10
455.638	1	8
455.808	1	2
455.979	1	1
456.149	1	5
456.320	1	1
456.490	1	1
456.661	1	-6
456.831	1	-2
457.001	1	8
457.172	1	-1
457.342	1	-3
457.513	1	7
457.683	1	5
457.854	1	0
458.024	1	-9
458.195	1	-6
458.365	1	6
458.536	1	-2
458.706	1	14
458.877	1	6
459.047	1	3
459.218	1	-2
459.388	1	6
459.559	1	1
459.729	1	1
459.899	1	-1
460.070	1	4
460.240	1	2
460.411	1	0
460.581	1	-2
460.752	1	2
460.922	1	7
461.093	1	-4
461.263	1	1
461.434	1	5
461.604	1	2
461.775	1	7
461.945	1	2
462.115	1	-2
462.286	1	-10
462.456	1	5
462.627	1	6
462.797	1	0
462.968	1	-7
463.138	1	2
463.309	1	6
463.479	1	-1
463.649	1	-2
463.820	1	-1
463.990	1	10
464.161	1	-3
464.331	1	10
464.502	1	-1
464.672	1	-5
464.843	1	-7
465.013	1	-7
465.183	1	-2
465.354	1	7
465.524	1	-3
465.695	1	5
465.865	1	0
466.036	1	4
466.206	1	1
466.376	1	3
466.547	1	0
466.717	1	5
466.888	1	-11
467.058	1	-4
467.229	1	6
467.399	1	-4
467.569	1	10
467.740	1	7
467.910	1	8
468.081	1	-5
468.251	1	2
468.422	1	2
468.592	1	-2
468.762	1	-7
468.933	1	4
469.103	1	-8
469.274	1	-4
469.444	1	7
469.614	1	1
469.785	1	14
469.955	1	0
470.126	1	-2
470.296	1	2
470.467	1	-1
470.637	1	1
470.807	1	6
470.978	1	7
471.148	1	-2
471.319	1	7
471.489	1	-7
471.659	1	0
471.830	1	8
472.000	1	1
472.171	1	-1
472.341	1	-7
472.511	1	15
472.682	1	-5
472.852	1	-7
473.023	1	1
473.193	1	3
473.363	1	3
473.534	1	-8
473.704	1	0
473.875	1	-3
474.045	1	-1
474.215	1	8
474.386	1	-3
474.556	1	-2
474.727	1	-2
474.897	1	-5
475.067	1	0
475.238	1	-9
475.408	1	8
475.578	1	15
475.749	1	5
475.919	1	-1
476.090	1	4
476.260	1	-1
476.430	1	8
476.601	1	4
476.771	1	-6
476.942	1	6
477.112	1	7
477.282	1	10
477.453	1	1
477.623	1	3
477.793	1	2
477.964	1	1
478.134	1	8
478.305	1	-6
478.475	1	-6
478.645	1	11
478.816	1	6
478.986	1	-1
479.156	1	-6
479.327	1	-1
479.497	1	9
479.667	1	9
479.838	1	-12
480.008	1	-8
480.179	1	-6
480.349	1	0
480.519	1	3
480.690	1	-1
480.860	1	1
481.030	1	9
481.201	1	-1
481.371	1	8
481.541	1	5
481.712	1	0
481.882	1	-9
482.053	1	2
482.223	1	-6
482.393	1	-2
482.564	1	-1
482.734	1	6
482.904	1	-1
483.075	1	2
483.245	1	7
483.415	1	-1
483.586	1	4
483.756	1	-5
483.926	1	-2
484.097	1	3
484.267	1	-1
484.437	1	5
484.608	1	-8
484.778	1	-1
484.948	1	3
485.119	1	-1
485.289	1	3
485.459	1	7
485.630	1	1
485.800	1	3
485.970	1	-3
486.141	1	3
486.311	1	10
486.481	1	3
486.652	1	-1
486.822	1	0
486.992	1	7
487.163	1	-2
487.333	1	3
487.503	1	0
487.674	1	2
487.844	1	-1
488.014	1	3
488.185	1	0
488.355	1	6
488.525	1	3
488.696	1	3
488.866	1	-17
489.036	1	9
489.207	1	0
489.377	1	3
489.547	1	-1
489.718	1	6
489.888	1	0
490.058	1	2
490.228	1	1
490.399	1	-1
490.569	1	1
490.739	1	3
490.910	1	-7
491.080	1	-3
491.250	1	2
491.421	1	9
491.591	1	-5
491.761	1	3
491.932	1	-6
492.102	1	-1
492.272	1	3
492.442	1	-3
492.613	1	5
492.783	1	3
492.953	1	11
493.124	1	10
493.294	1	1
493.464	1	10
493.635	1	-3
493.805	1	7
493.975	1	3
494.145	1	7
494.316	1	-4
494.486	1	0
494.656	1	5
494.827	1	5
494.997	1	8
495.167	1	5
495.337	1	5
495.508	1	4
495.678	1	2
495.848	1	0
496.019	1	10
496.189	1	0
496.359	1	-5
496.529	1	-3
496.700	1	-6
496.870	1	2
497.040	1	1
497.211	1	2
497.381	1	5
497.551	1	5
497.721	1	-1
497.892	1	9
498.062	1	1
498.232	1	12
498.403	1	1
498.573	1	3
498.743	1	10
498.913	1	5
499.084	1	0
499.254	1	0
499.424	1	-8
499.594	1	2
499.765	1	12
499.935	1	5
500.105	1	2
500.275	1	6
500.446	1	5
500.616	1	-6
500.786	1	12
500.956	1	3
501.127	1	8
501.297	1	-6
501.467	1	4
501.638	1	6
501.808	1	4
501.978	1	-3
502.148	1	-2
502.319	1	11
502.489	1	6
502.659	1	11
502.829	1	2
503.000	1	7
503.170	1	3
503.340	1	8
503.510	1	-13
503.681	1	-1
503.851	1	0
504.021	1	9
504.191	1	5
504.362	1	12
504.532	1	6
504.702	1	3
504.872	1	-5
505.042	1	-6
505.213	1	11
505.383	1	-3
505.553	1	10
505.723	1	11
505.894	1	-2
506.064	1	4
506.234	1	9
506.404	1	-7
506.575	1	-12
506.745	1	16
506.915	1	4
507.085	1	1
507.256	1	8
507.426	1	4
507.596	1	10
507.766	1	20
507.936	1	-5
508.107	1	4
508.277	1	-2
508.447	1	6
508.617	1	0
508.788	1	2
508.958	1	6
509.128	1	17
509.298	1	1
509.468	1	4
509.639	1	7
509.809	1	9
509.979	1	11
510.149	1	7
510.319	1	3
510.490	1	10
510.660	1	2
510.830	1	0
511.000	1	4
511.171	1	12
511.341	1	5
511.511	1	1
511.681	1	3
511.851	1	2
512.022	1	6
512.192	1	7
512.362	1	5
512.532	1	-6
512.702	1	14
512.873	1	15
513.043	1	11
513.213	1	17
513.383	1	7
513.553	1	11
513.724	1	3
513.894	1	0
514.064	1	7
514.234	1	19
514.404	1	0
514.575	1	-4
514.745	1	6
514.915	1	-4
515.085	1	-3
515.255	1	4
515.425	1	9
515.596	1	4
515.766	1	4
515.936	1	15
516.106	1	11
516.276	1	7
516.447	1	8
516.617	1	7
516.787	1	-5
516.957	1	8
517.127	1	15
517.297	1	7
517.468	1	1
517.638	1	-6
517.808	1	12
517.978	1	15
518.148	1	7
518.319	1	-3
518.489	1	1
518.659	1	7
518.829	1	2
518.999	1	13
519.169	1	11
519.340	1	13
519.510	1	5
519.680	1	4
519.850	1	3
520.020	1	1
520.190	1	10
520.361	1	5
520.531	1	21
520.701	1	5
520.871	1	2
521.041	1	13
521.211	1	15
521.382	1	-1
521.552	1	4
521.722	1	9
521.892	1	7
522.062	1	7
522.232	1	10
522.402	1	12
522.573	1	5
522.743	1	8
522.913	1	6
523.083	1	9
523.253	1	16
523.423	1	1
523.593	1	3
523.764	1	10
523.934	1	11
524.104	1	1
524.274	1	3
524.444	1	8
524.614	1	11
524.784	1	-1
524.955	1	7
525.125	1	12
525.295	1	4
525.465	1	2
525.635	1	4
525.805	1	12
525.975	1	-4
526.146	1	-7
526.316	1	8
526.486	1	10
526.656	1	3
526.826	1	11
526.996	1	-2
527.166	1	14
527.337	1	-3
527.507	1	7
527.677	1	15
527.847	1	0
528.017	1	-3
528.187	1	15
528.357	1	19
528.527	1	16
528.698	1	1
528.868	1	7
529.038	1	6
529.208	1	-6
529.378	1	11
529.548	1	8
529.718	1	9
529.888	1	20
530.058	1	10
530.229	1	9
530.399	1	0
530.569	1	6
530.739	1	6
530.909	1	-2
531.079	1	-12
531.249	1	2
531.419	1	16
531.589	1	11
531.760	1	13
531.930	1	8
532.100	1	0
532.270	1	22
532.440	1	3
532.610	1	9
532.780	1	11
532.950	1	0
533.120	1	19
533.290	1	5
533.461	1	9
533.631	1	1
533.801	1	7
533.971	1	-1
534.141	1	4
534.311	1	9
534.481	1	11
534.651	1	3
534.821	1	6
534.991	1	16
535.162	1	-2
535.332	1	13
535.502	1	2
535.672	1	-1
535.842	1	4
536.012	1	7
536.182	1	15
536.352	1	9
536.522	1	-1
536.692	1	2
536.862	1	-4
537.032	1	0
537.203	1	7
537.373	1	14
537.543	1	8
537.713	1	3
537.883	1	2
538.053	1	11
538.223	1	8
538.393	1	6
538.563	1	13
538.733	1	6
538.903	1	1
539.073	1	0
539.243	1	17
539.413	1	9
539.584	1	4
539.754	1	8
539.924	1	8
540.094	1	7
540.264	1	-5
540.434	1	3
540.604	1	13
540.774	1	9
540.944	1	2
541.114	1	0
541.284	1	0
541.454	1	4
541.624	1	15
541.794	1	3
541.964	1	5
542.134	1	7
542.305	1	4
542.475	1	-8
542.645	1	9
542.815	1	0
542.985	1	1
543.155	1	1
543.325	1	3
543.495	1	23
543.665	1	13
543.835	1	-4
544.005	1	1
544.175	1	6
544.345	1	5
544.515	1	8
544.685	1	12
544.855	1	4
545.025	1	12
545.195	1	5
545.365	1	5
545.535	1	-1
545.705	1	11
545.875	1	-4
546.045	1	3
546.216	1	-6
546.386	1	11
546.556	1	5
546.726	1	4
546.896	1	6
547.066	1	14
547.236	1	4
547.406	1	-3
547.576	1	2
547.746	1	14
547.916	1	1
548.086	1	6
548.256	1	2
548.426	1	2
548.596	1	2
548.766	1	12
548.936	1	17
549.106	1	8
549.276	1	20
549.446	1	-1
549.616	1	8
549.786	1	-10
549.956	1	6
550.126	1	9
550.296	1	15
550.466	1	4
550.636	1	6
550.806	1	9
550.976	1	4
551.146	1	-3
551.316	1	8
551.486	1	8
551.656	1	2
551.826	1	16
551.996	1	-1
552.166	1	4
552.336	1	-1
552.506	1	15
552.676	1	12
552.846	1	3
553.016	1	11
553.186	1	1
553.356	1	6
553.526	1	-1
553.696	1	12
553.866	1	18
554.036	1	2
554.206	1	8
554.376	1	-4
554.546	1	-2
554.716	1	3
554.886	1	6
555.056	1	6
555.226	1	8
555.396	1	3
555.566	1	9
555.736	1	12
555.906	1	3
556.076	1	17
556.246	1	7
556.416	1	-11
556.586	1	-7
556.756	1	-4
556.926	1	9
557.096	1	4
557.266	1	4
557.436	1	19
557.606	1	0
557.776	1	4
557.946	1	9
558.116	1	10
558.286	1	4
558.456	1	-3
558.626	1	-11
558.796	1	10
558.966	1	3
559.136	1	9
559.306	1	9
559.476	1	7
559.646	1	10
559.816	1	4
559.986	1	5
560.155	1	10
560.325	1	-1
560.495	1	1
560.665	1	0
560.835	1	4
561.005	1	13
561.175	1	12
561.345	1	-1
561.515	1	0
561.685	1	1
561.855	1	2
562.025	1	7
562.195	1	5
562.365	1	2
562.535	1	8
562.705	1	-5
562.875	1	2
563.045	1	1
563.215	1	-6
563.385	1	-1
563.555	1	-8
563.725	1	11
563.895	1	9
564.064	1	-5
564.234	1	7
564.404	1	-5
564.574	1	22
564.744	1	-1
564.914	1	-1
565.084	1	2
565.254	1	5
565.424	1	6
565.594	1	4
565.764	1	3
565.934	1	1
566.104	1	8
566.274	1	14
566.444	1	-5
566.614	1	3
566.783	1	8
566.953	1	11
567.123	1	11
567.293	1	4
567.463	1	2
567.633	1	3
567.803	1	23
567.973	1	4
568.143	1	-4
568.313	1	8
568.483	1	7
568.653	1	-6
568.823	1	-3
568.993	1	-3
569.162	1	2
569.332	1	8
569.502	1	7
569.672	1	1
569.842	1	-4
570.012	1	7
570.182	1	-7
570.352	1	-1
570.522	1	0
570.692	1	9
570.862	1	1
571.031	1	-4
571.201	1	2
571.371	1	10
571.541	1	12
571.711	1	1
571.881	1	5
572.051	1	-1
572.221	1	3
572.391	1	11
572.561	1	7
572.731	1	3
572.900	1	-3
573.070	1	4
573.240	1	-6
573.410	1	11
573.580	1	0
573.750	1	4
573.920	1	4
574.090	1	2
574.260	1	3
574.430	1	1
574.599	1	8
574.769	1	1
574.939	1	0
575.109	1	2
575.279	1	5
575.449	1	10
575.619	1	3
575.789	1	-9
575.959	1	0
576.128	1	1
576.298	1	-7
576.468	1	2
576.638	1	-2
576.808	1	8
576.978	1	-1
577.148	1	-6
577.318	1	14
577.487	1	3
577.657	1	5
577.827	1	-2
577.997	1	9
578.167	1	-3
578.337	1	3
578.507	1	1
578.677	1	5
578.846	1	5
579.016	1	-1
579.186	1	7
579.356	1	1
579.526	1	-7
579.696	1	8
579.866	1	-7
580.036	1	-4
580.205	1	1
580.375	1	13
580.545	1	6
580.715	1	1
580.885	1	1
581.055	1	5
581.225	1	2
581.394	1	-11
581.564	1	0
581.734	1	-3
581.904	1	-3
582.074	1	-4
582.244	1	7
582.414	1	3
582.583	1	3
582.753	1	0
582.923	1	1
583.093	1	-2
583.263	1	10
583.433	1	13
583.603	1	-3
583.772	1	-19
583.942	1	-2
584.112	1	-3
584.282	1	13
584.452	1	5
584.622	1	-2
584.791	1	4
584.961	1	-9
585.131	1	-2
585.301	1	-7
585.471	1	0
585.641	1	9
585.811	1	3
585.980	1	-5
586.150	1	2
586.320	1	-5
586.490	1	7
586.660	1	-5
586.830	1	-7
586.999	1	7
587.169	1	4
587.339	1	-2
587.509	1	7
587.679	1	4
587.849	1	3
588.018	1	-17
588.188	1	-2
588.358	1	0
588.528	1	3
588.698	1	-1
588.867	1	-7
589.037	1	-10
589.207	1	3
589.377	1	10
589.547	1	6
589.717	1	-8
589.886	1	5
590.056	1	-4
590.226	1	-4
590.396	1	-9
590.566	1	-3
590.735	1	-10
590.905	1	19
591.075	1	-1
591.245	1	-1
591.415	1	3
591.585	1	1
591.754	1	3
591.924	1	15
592.094	1	1
592.264	1	2
592.434	1	-1
592.603	1	-4
592.773	1	8
592.943	1	6
593.113	1	0
593.283	1	-6
593.452	1	-4
593.622	1	3
593.792	1	4
593.962	1	2
594.132	1	7
594.301	1	3
594.471	1	0
594.641	1	-5
594.811	1	-2
594.981	1	-2
595.150	1	6
595.320	1	-3
595.490	1	3
595.660	1	3
595.829	1	-5
595.999	1	0
596.169	1	2
596.339	1	4
596.509	1	0
596.678	1	6
596.848	1	15
597.018	1	3
597.188	1	-1
597.358	1	-2
597.527	1	-3
597.697	1	-2
597.867	1	6
598.037	1	10
598.206	1	10
598.376	1	-11
598.546	1	10
598.716	1	-8
598.885	1	-1
599.055	1	4
599.225	1	4
599.395	1	8
599.565	1	2
599.734	1	3
599.904	1	-14
600.074	1	0
600.244	1	2
600.413	1	4
600.583	1	-12
600.753	1	9
600.923	1	5
601.092	1	8
601.262	1	3
601.432	1	0
601.602	1	15
601.771	1	-3
601.941	1	7
602.111	1	-1
602.281	1	5
602.451	1	1
602.620	1	10
602.790	1	2
602.960	1	-14
603.130	1	9
603.299	1	7
603.469	1	-2
603.639	1	-12
603.809	1	10
603.978	1	0
604.148	1	2
604.318	1	-9
604.487	1	1
604.657	1	-9
604.827	1	11
604.997	1	10
605.166	1	-3
605.336	1	-4
605.506	1	-4
605.676	1	3
605.845	1	-7
606.015	1	-13
606.185	1	-6
606.355	1	2
606.524	1	0
606.694	1	-5
606.864	1	0
607.034	1	11
607.203	1	17
607.373	1	-1
607.543	1	7
607.712	1	5
607.882	1	-2
608.052	1	6
608.222	1	0
608.391	1	3
608.561	1	4
608.731	1	-6
608.901	1	11
609.070	1	-9
609.240	1	-12
609.410	1	3
609.579	1	-1
609.749	1	6
609.919	1	-1
610.089	1	-2
610.258	1	-2
610.428	1	11
610.598	1	3
610.767	1	12
610.937	1	1
611.107	1	-10
611.277	1	-9
611.446	1	-2
611.616	1	0
611.786	1	3
611.955	1	0
612.125	1	4
612.295	1	2
612.465	1	-2
612.634	1	2
612.804	1	5
612.974	1	0
613.143	1	4
613.313	1	8
613.483	1	-1
613.652	1	1
613.822	1	-4
613.992	1	-2
614.162	1	3
614.331	1	3
614.501	1	-9
614.671	1	-8
614.840	1	2
615.010	1	2
615.180	1	9
615.349	1	4
615.519	1	-12
615.689	1	-6
615.858	1	8
616.028	1	12
616.198	1	-4
616.368	1	-2
616.537	1	2
616.707	1	-8
616.877	1	1
617.046	1	15
617.216	1	6
617.386	1	12
617.555	1	-4
617.725	1	3
617.895	1	8
618.064	1	9
618.234	1	-13
618.404	1	-5
618.573	1	-5
618.743	1	11
618.913	1	11
619.082	1	0
619.252	1	3
619.422	1	-5
619.591	1	3
619.761	1	-8
619.931	1	2
620.100	1	2
620.270	1	-3
620.440	1	6
620.609	1	7
620.779	1	9
620.949	1	4
621.118	1	7
621.288	1	1
621.458	1	6
621.627	1	0
621.797	1	-10
621.967	1	-3
622.136	1	3
622.306	1	0
622.476	1	-5
622.645	1	1
622.815	1	4
622.985	1	1
623.154	1	2
623.324	1	-2
623.494	1	-7
623.663	1	3
623.833	1	5
624.002	1	7
624.172	1	-2
624.342	1	5
624.511	1	-1
624.681	1	9
624.851	1	-2
625.020	1	0
625.190	1	-3
625.360	1	-5
625.529	1	-8
625.699	1	2
625.869	1	12
626.038	1	-7
626.208	1	14
626.377	1	10
626.547	1	-12
626.717	1	-8
626.886	1	-5
627.056	1	6
627.226	1	7
627.395	1	-4
627.565	1	12
627.735	1	-1
627.904	1	5
628.074	1	9
628.243	1	7
628.413	1	3
628.583	1	3
628.752	1	-10
628.922	1	7
629.091	1	2
629.261	1	-3
629.431	1	10
629.600	1	5
629.770	1	5
629.940	1	2
630.109	1	12
630.279	1	4
630.448	1	2
630.618	1	6
630.788	1	1
630.957	1	5
631.127	1	1
631.297	1	-9
631.466	1	3
631.636	1	3
631.805	1	-1
631.975	1	-12
632.145	1	-3
632.314	1	-1
632.484	1	8
632.653	1	0
632.823	1	-5
632.993	1	-2
633.162	1	0
633.332	1	-1
633.501	1	-1
633.671	1	0
633.841	1	-2
634.010	1	11
634.180	1	5
634.349	1	8
634.519	1	6
634.689	1	-7
634.858	1	-10
635.028	1	-1
635.197	1	3
635.367	1	5
635.537	1	8
635.706	1	-1
635.876	1	11
636.045	1	4
636.215	1	12
636.384	1	4
636.554	1	-4
636.724	1	-1
636.893	1	11
637.063	1	2
637.232	1	2
637.402	1	3
637.572	1	-4
637.741	1	1
637.911	1	1
638.080	1	-1
638.250	1	2
638.419	1	1
638.589	1	3
638.759	1	9
638.928	1	3
639.098	1	-2
639.267	1	10
639.437	1	5
639.606	1	7
639.776	1	1
639.946	1	10
640.115	1	-8
640.285	1	-5
640.454	1	9
640.624	1	6
640.793	1	0
640.963	1	-3
641.132	1	6
641.302	1	5
641.472	1	-2
641.641	1	4
641.811	1	-9
641.980	1	3
642.150	1	-9
642.319	1	7
642.489	1	-4
642.659	1	1
642.828	1	2
642.998	1	3
643.167	1	-5
643.337	1	2
643.506	1	5
643.676	1	1
643.845	1	2
644.015	1	4
644.184	1	-6
644.354	1	0
644.524	1	2
644.693	1	0
644.863	1	7
645.032	1	1
645.202	1	-6
645.371	1	-6
645.541	1	10
645.710	1	1
645.880	1	-16
646.049	1	-2
646.219	1	-9
646.388	1	3
646.558	1	-6
646.728	1	4
646.897	1	1
647.067	1	0
647.236	1	7
647.406	1	3
647.575	1	8
647.745	1	7
647.914	1	-5
648.084	1	-6
648.253	1	-2
648.423	1	5
648.592	1	-6
648.762	1	8
648.931	1	8
649.101	1	0
649.270	1	-10
649.440	1	1
649.610	1	4
649.779	1	-2
649.949	1	4
650.118	1	-6
650.288	1	0
650.457	1	5
650.627	1	4
650.796	1	-6
650.966	1	-8
651.135	1	1
651.305	1	-9
651.474	1	-5
651.644	1	10
651.813	1	4
651.983	1	-1
652.152	1	3
652.322	1	-4
652.491	1	5
652.661	1	-4
652.830	1	-5
653.000	1	1
653.169	1	7
653.339	1	5
653.508	1	8
653.678	1	-3
653.847	1	-13
654.017	1	6
654.186	1	9
654.356	1	-1
654.525	1	2
654.695	1	2
654.864	1	-3
655.034	1	7
655.203	1	0
655.373	1	9
655.542	1	-5
655.712	1	-4
655.881	1	12
656.051	1	9
656.220	1	-1
656.390	1	4
656.559	1	-9
656.729	1	-1
656.898	1	0
657.068	1	4
657.237	1	5
657.406	1	4
657.576	1	-4
657.745	1	2
657.915	1	1
658.084	1	0
658.254	1	4
658.423	1	5
658.593	1	3
658.762	1	3
658.932	1	1
659.101	1	-12
659.271	1	-1
659.440	1	-3
659.610	1	-6
659.779	1	12
659.949	1	-4
660.118	1	6
660.288	1	-3
660.457	1	3
660.626	1	-2
660.796	1	-5
660.965	1	5
661.135	1	-5
661.304	1	-9
661.474	1	3
661.643	1	-3
661.813	1	-4
661.982	1	8
662.152	1	4
662.321	1	-6
662.491	1	0
662.660	1	-4
662.829	1	4
662.999	1	0
663.168	1	3
663.338	1	18
663.507	1	6
663.677	1	4
663.846	1	2
664.016	1	1
664.185	1	-6
664.354	1	4
664.524	1	-2
664.693	1	-4
664.863	1	3
665.032	1	-3
665.202	1	-4
665.371	1	-2
665.541	1	18
665.710	1	0
665.879	1	0
666.049	1	0
666.218	1	5
666.388	1	3
666.557	1	-4
666.727	1	-2
666.896	1	6
667.065	1	-1
667.235	1	17
667.404	1	-4
667.574	1	-2
667.743	1	-4
667.913	1	12
668.082	1	4
668.251	1	3
668.421	1	1
668.590	1	-2
668.760	1	6
668.929	1	11
669.099	1	3
669.268	1	-8
669.437	1	2
669.607	1	5
669.776	1	7
669.946	1	0
670.115	1	-23
670.285	1	9
670.454	1	-1
670.623	1	1
670.793	1	9
670.962	1	-9
671.132	1	-9
671.301	1	6
671.470	1	-8
671.640	1	-2
671.809	1	-7
671.979	1	8
672.148	1	2
672.317	1	4
672.487	1	1
672.656	1	-13
672.826	1	1
672.995	1	12
673.164	1	-15
673.334	1	2
673.503	1	-9
673.673	1	9
673.842	1	5
674.011	1	16
674.181	1	13
674.350	1	8
674.520	1	-5
674.689	1	-5
674.858	1	-2
675.028	1	9
675.197	1	-2
675.367	1	-8
675.536	1	3
675.705	1	-8
675.875	1	-1
676.044	1	-1
676.214	1	-4
676.383	1	8
676.552	1	-4
676.722	1	-10
676.891	1	0
677.060	1	-10
677.230	1	14
677.399	1	-10
677.569	1	7
677.738	1	0
677.907	1	-3
678.077	1	0
678.246	1	3
678.416	1	7
678.585	1	-6
678.754	1	1
678.924	1	10
679.093	1	0
679.262	1	-3
679.432	1	4
679.601	1	-7
679.771	1	0
679.940	1	-4
680.109	1	2
680.279	1	2
680.448	1	9
680.617	1	-9
680.787	1	0
680.956	1	6
681.125	1	5
681.295	1	-7
681.464	1	-12
681.634	1	-4
681.803	1	5
681.972	1	-2
682.142	1	-4
682.311	1	1
682.480	1	11
682.650	1	11
682.819	1	3
682.988	1	-9
683.158	1	-2
683.327	1	13
683.496	1	7
683.666	1	1
683.835	1	-2
684.004	1	5
684.174	1	5
684.343	1	3
684.512	1	2
684.682	1	-3
684.851	1	10
685.021	1	0
685.190	1	1
685.359	1	-17
685.529	1	16
685.698	1	-4
685.867	1	-1
686.037	1	1
686.206	1	-4
686.375	1	6
686.545	1	7
686.714	1	5
686.883	1	-1
687.053	1	-8
687.222	1	-8
687.391	1	7
687.561	1	11
687.730	1	-5
687.899	1	-7
688.069	1	3
688.238	1	-4
688.407	1	9
688.577	1	-6
688.746	1	6
