340.368	1	15
340.539	1	17
340.710	1	7
340.881	1	-1
341.052	1	0
341.223	1	15
341.394	1	-3
341.565	1	6
341.737	1	13
341.908	1	-4
342.079	1	0
342.250	1	0
342.421	1	7
342.592	1	9
342.763	1	5
342.934	1	-1
343.105	1	3
343.276	1	17
343.447	1	-14
343.618	1	2
343.789	1	12
343.960	1	0
344.131	1	6
344.302	1	-3
344.473	1	10
344.644	1	2
344.815	1	1
344.986	1	9
345.157	1	17
345.328	1	6
345.499	1	10
345.670	1	1
345.841	1	6
346.012	1	19
346.183	1	22
346.354	1	7
346.526	1	3
346.697	1	9
346.868	1	2
347.039	1	18
347.210	1	10
347.381	1	9
347.552	1	9
347.723	1	6
347.894	1	12
348.065	1	18
348.236	1	18
348.407	1	5
348.578	1	2
348.749	1	9
348.920	1	3
349.091	1	16
349.262	1	7
349.433	1	5
349.604	1	17
349.775	1	16
349.946	1	0
350.117	1	8
350.288	1	9
350.459	1	3
350.630	1	28
350.801	1	12
350.972	1	20
351.143	1	25
351.314	1	8
351.485	1	18
351.656	1	10
351.827	1	15
351.998	1	12
352.169	1	14
352.340	1	15
352.511	1	17
352.682	1	9
352.853	1	11
353.024	1	15
353.195	1	13
353.366	1	17
353.537	1	16
353.708	1	19
353.879	1	8
354.050	1	18
354.221	1	7
354.392	1	24
354.563	1	26
354.734	1	26
354.905	1	19
355.076	1	20
355.247	1	32
355.418	1	22
355.589	1	15
355.760	1	35
355.931	1	35
356.102	1	15
356.273	1	24
356.444	1	30
356.615	1	23
356.785	1	28
356.956	1	33
357.127	1	32
357.298	1	37
357.469	1	26
357.640	1	32
357.811	1	32
357.982	1	38
358.153	1	43
358.324	1	47
358.495	1	48
358.666	1	42
358.837	1	56
359.008	1	44
359.179	1	56
359.350	1	54
359.521	1	69
359.692	1	62
359.863	1	65
360.034	1	75
360.205	1	54
360.376	1	68
360.547	1	68
360.718	1	90
360.889	1	86
361.060	1	100
361.231	1	93
361.401	1	107
361.572	1	105
361.743	1	127
361.914	1	132
362.085	1	157
362.256	1	166
362.427	1	169
362.598	1	193
362.769	1	215
362.940	1	221
363.111	1	248
363.282	1	257
363.453	1	285
363.624	1	295
363.795	1	333
363.966	1	371
364.137	1	410
364.308	1	446
364.478	1	465
364.649	1	521
364.820	1	547
364.991	1	578
365.162	1	610
365.333	1	675
365.504	1	696
365.675	1	748
365.846	1	773
366.017	1	808
366.188	1	841
366.359	1	865
366.530	1	916
366.701	1	926
366.871	1	920
367.042	1	947
367.213	1	935
367.384	1	942
367.555	1	929
367.726	1	914
367.897	1	917
368.068	1	876
368.239	1	800
368.410	1	832
368.581	1	803
368.752	1	772
368.923	1	747
369.093	1	711
369.264	1	651
369.435	1	619
369.606	1	599
369.777	1	584
369.948	1	541
370.119	1	533
370.290	1	500
370.461	1	480
370.632	1	446
370.803	1	413
370.973	1	413
371.144	1	383
371.315	1	372
371.486	1	372
371.657	1	349
371.828	1	341
371.999	1	311
372.170	1	324
372.341	1	315
372.512	1	304
372.682	1	304
372.853	1	299
373.024	1	279
373.195	1	281
373.366	1	283
373.537	1	277
373.708	1	256
373.879	1	261
374.050	1	251
374.220	1	257
374.391	1	240
374.562	1	239
374.733	1	229
374.904	1	219
375.075	1	214
375.246	1	195
375.417	1	203
375.588	1	192
375.758	1	187
375.929	1	186
376.100	1	175
376.271	1	180
376.442	1	173
376.613	1	172
376.784	1	179
376.955	1	165
377.125	1	174
377.296	1	161
377.467	1	177
377.638	1	173
377.809	1	180
377.980	1	188
378.151	1	191
378.321	1	169
378.492	1	181
378.663	1	185
378.834	1	207
379.005	1	183
379.176	1	181
379.347	1	196
379.518	1	200
379.688	1	223
379.859	1	228
380.030	1	236
380.201	1	244
380.372	1	256
380.543	1	285
380.714	1	292
380.884	1	315
381.055	1	309
381.226	1	349
381.397	1	371
381.568	1	409
381.739	1	413
381.910	1	470
382.080	1	489
382.251	1	508
382.422	1	551
382.593	1	575
382.764	1	617
382.935	1	663
383.105	1	697
383.276	1	750
383.447	1	794
383.618	1	840
383.789	1	889
383.960	1	911
384.130	1	927
384.301	1	1021
384.472	1	1054
384.643	1	1110
384.814	1	1118
384.985	1	1156
385.156	1	1242
385.326	1	1246
385.497	1	1273
385.668	1	1332
385.839	1	1353
386.010	1	1365
386.180	1	1389
386.351	1	1408
386.522	1	1430
386.693	1	1397
386.864	1	1475
387.035	1	1413
387.205	1	1421
387.376	1	1441
387.547	1	1393
387.718	1	1400
387.889	1	1386
388.060	1	1357
388.230	1	1367
388.401	1	1349
388.572	1	1334
388.743	1	1289
388.914	1	1297
389.084	1	1276
389.255	1	1262
389.426	1	1245
389.597	1	1266
389.768	1	1247
389.939	1	1263
390.109	1	1250
390.280	1	1263
390.451	1	1269
390.622	1	1244
390.793	1	1239
390.963	1	1250
391.134	1	1209
391.305	1	1217
391.476	1	1204
391.647	1	1232
391.817	1	1215
391.988	1	1206
392.159	1	1211
392.330	1	1173
392.501	1	1156
392.671	1	1157
392.842	1	1164
393.013	1	1136
393.184	1	1127
393.355	1	1123
393.525	1	1097
393.696	1	1089
393.867	1	1080
394.038	1	1074
394.208	1	1080
394.379	1	1088
394.550	1	1087
394.721	1	1079
394.892	1	1056
395.062	1	1091
395.233	1	1094
395.404	1	1104
395.575	1	1101
395.746	1	1141
395.916	1	1150
396.087	1	1165
396.258	1	1177
396.429	1	1196
396.599	1	1213
396.770	1	1225
396.941	1	1243
397.112	1	1272
397.283	1	1286
397.453	1	1272
397.624	1	1288
397.795	1	1315
397.966	1	1321
398.136	1	1316
398.307	1	1318
398.478	1	1266
398.649	1	1322
398.819	1	1295
398.990	1	1301
399.161	1	1277
399.332	1	1274
399.503	1	1252
399.673	1	1217
399.844	1	1164
400.015	1	1158
400.186	1	1134
400.356	1	1113
400.527	1	1110
400.698	1	1077
400.869	1	1057
401.039	1	1033
401.210	1	985
401.381	1	978
401.552	1	939
401.722	1	926
401.893	1	926
402.064	1	887
402.235	1	899
402.405	1	867
402.576	1	846
402.747	1	846
402.918	1	844
403.088	1	806
403.259	1	807
403.430	1	828
403.601	1	808
403.771	1	836
403.942	1	821
404.113	1	810
404.284	1	817
404.454	1	812
404.625	1	815
404.796	1	814
404.967	1	836
405.137	1	814
405.308	1	803
405.479	1	832
405.649	1	820
405.820	1	795
405.991	1	807
406.162	1	793
406.332	1	796
406.503	1	790
406.674	1	768
406.845	1	788
407.015	1	792
407.186	1	782
407.357	1	749
407.527	1	763
407.698	1	751
407.869	1	724
408.040	1	740
408.210	1	754
408.381	1	703
408.552	1	722
408.722	1	706
408.893	1	710
409.064	1	694
409.235	1	704
409.405	1	669
409.576	1	704
409.747	1	689
409.917	1	679
410.088	1	658
410.259	1	650
410.430	1	657
410.600	1	656
410.771	1	650
410.942	1	657
411.112	1	640
411.283	1	645
411.454	1	618
411.625	1	626
411.795	1	607
411.966	1	619
412.137	1	613
412.307	1	603
412.478	1	591
412.649	1	568
412.819	1	575
412.990	1	554
413.161	1	534
413.332	1	545
413.502	1	530
413.673	1	551
413.844	1	543
414.014	1	500
414.185	1	514
414.356	1	488
414.526	1	518
414.697	1	493
414.868	1	474
415.038	1	468
415.209	1	463
415.380	1	487
415.550	1	479
415.721	1	478
415.892	1	458
416.063	1	463
416.233	1	461
416.404	1	449
416.575	1	424
416.745	1	447
416.916	1	451
417.087	1	465
417.257	1	432
417.428	1	438
417.599	1	444
417.769	1	441
417.940	1	464
418.111	1	429
418.281	1	426
418.452	1	441
418.623	1	435
418.793	1	453
418.964	1	434
419.135	1	428
419.305	1	426
419.476	1	438
419.647	1	424
419.817	1	437
419.988	1	420
420.159	1	418
420.329	1	416
420.500	1	416
420.671	1	404
420.841	1	387
421.012	1	409
421.183	1	398
421.353	1	379
421.524	1	372
421.695	1	363
421.865	1	367
422.036	1	360
422.206	1	349
422.377	1	335
422.548	1	349
422.718	1	329
422.889	1	330
423.060	1	325
423.230	1	307
423.401	1	308
423.572	1	322
423.742	1	290
423.913	1	307
424.084	1	294
424.254	1	293
424.425	1	297
424.595	1	286
424.766	1	291
424.937	1	291
425.107	1	286
425.278	1	269
425.449	1	283
425.619	1	285
425.790	1	274
425.961	1	275
426.131	1	271
426.302	1	278
426.472	1	269
426.643	1	266
426.814	1	266
426.984	1	274
427.155	1	256
427.326	1	251
427.496	1	274
427.667	1	266
427.837	1	256
428.008	1	265
428.179	1	259
428.349	1	263
428.520	1	272
428.691	1	256
428.861	1	247
429.032	1	251
429.202	1	253
429.373	1	254
429.544	1	238
429.714	1	233
429.885	1	235
430.055	1	233
430.226	1	232
430.397	1	238
430.567	1	240
430.738	1	229
430.909	1	225
431.079	1	202
431.250	1	196
431.420	1	212
431.591	1	204
431.762	1	207
431.932	1	204
432.103	1	204
432.273	1	210
432.444	1	173
432.615	1	182
432.785	1	178
432.956	1	195
433.126	1	184
433.297	1	196
433.468	1	174
433.638	1	180
433.809	1	176
433.979	1	187
434.150	1	175
434.320	1	180
434.491	1	185
434.662	1	181
434.832	1	165
435.003	1	152
435.173	1	165
435.344	1	159
435.515	1	159
435.685	1	159
435.856	1	171
436.026	1	147
436.197	1	147
436.368	1	157
436.538	1	149
436.709	1	137
436.879	1	147
437.050	1	155
437.220	1	143
437.391	1	153
437.562	1	141
437.732	1	160
437.903	1	143
438.073	1	141
438.244	1	127
438.414	1	132
438.585	1	141
438.756	1	138
438.926	1	120
439.097	1	138
439.267	1	135
439.438	1	137
439.608	1	115
439.779	1	122
439.949	1	117
440.120	1	124
440.291	1	123
440.461	1	125
440.632	1	132
440.802	1	121
440.973	1	110
441.143	1	105
441.314	1	101
441.485	1	128
441.655	1	112
441.826	1	116
441.996	1	106
442.167	1	112
442.337	1	122
442.508	1	101
442.678	1	99
442.849	1	100
443.019	1	115
443.190	1	115
443.361	1	117
443.531	1	98
443.702	1	93
443.872	1	108
444.043	1	113
444.213	1	109
444.384	1	99
444.554	1	98
444.725	1	107
444.895	1	92
445.066	1	103
445.237	1	110
445.407	1	92
445.578	1	107
445.748	1	100
445.919	1	101
446.089	1	93
446.260	1	96
446.430	1	94
446.601	1	107
446.771	1	90
446.942	1	93
447.112	1	102
447.283	1	82
447.453	1	99
447.624	1	89
447.794	1	87
447.965	1	90
448.135	1	77
448.306	1	82
448.477	1	102
448.647	1	83
448.818	1	77
448.988	1	82
449.159	1	66
449.329	1	83
449.500	1	73
449.670	1	81
449.841	1	83
450.011	1	87
450.182	1	68
450.352	1	80
450.523	1	81
450.693	1	72
450.864	1	87
451.034	1	88
451.205	1	76
451.375	1	75
451.546	1	67
451.716	1	75
451.887	1	64
452.057	1	78
452.228	1	73
452.398	1	67
452.569	1	53
452.739	1	69
452.910	1	75
453.080	1	68
453.251	1	65
453.421	1	66
453.592	1	68
453.762	1	65
453.933	1	61
454.103	1	70
454.274	1	73
454.444	1	78
454.615	1	69
454.785	1	73
454.956	1	67
455.126	1	62
455.297	1	65
455.467	1	51
455.638	1	77
455.808	1	68
455.979	1	73
456.149	1	66
456.320	1	72
456.490	1	60
456.661	1	58
456.831	1	50
457.001	1	62
457.172	1	66
457.342	1	55
457.513	1	66
457.683	1	68
457.854	1	66
458.024	1	42
458.195	1	54
458.365	1	65
458.536	1	50
458.706	1	62
458.877	1	53
459.047	1	62
459.218	1	55
459.388	1	63
459.559	1	62
459.729	1	51
459.899	1	48
460.070	1	56
460.240	1	57
460.411	1	47
460.581	1	44
460.752	1	61
460.922	1	65
461.093	1	45
461.263	1	48
461.434	1	51
461.604	1	58
461.775	1	50
461.945	1	47
462.115	1	50
462.286	1	42
462.456	1	47
462.627	1	56
462.797	1	42
462.968	1	38
463.138	1	50
463.309	1	53
463.479	1	44
463.649	1	41
463.820	1	44
463.990	1	46
464.161	1	45
464.331	1	53
464.502	1	55
464.672	1	44
464.843	1	40
465.013	1	32
465.183	1	48
465.354	1	53
465.524	1	39
465.695	1	44
465.865	1	55
466.036	1	40
466.206	1	48
466.376	1	42
466.547	1	41
466.717	1	42
466.888	1	43
467.058	1	50
467.229	1	56
467.399	1	55
467.569	1	49
467.740	1	48
467.910	1	49
468.081	1	44
468.251	1	43
468.422	1	37
468.592	1	44
468.762	1	29
468.933	1	50
469.103	1	38
469.274	1	42
469.444	1	47
469.614	1	42
469.785	1	54
469.955	1	36
470.126	1	39
470.296	1	49
470.467	1	39
470.637	1	46
470.807	1	40
470.978	1	42
471.148	1	31
471.319	1	48
471.489	1	28
471.659	1	39
471.830	1	46
472.000	1	40
472.171	1	42
472.341	1	39
472.511	1	48
472.682	1	40
472.852	1	36
473.023	1	35
473.193	1	48
473.363	1	41
473.534	1	29
473.704	1	35
473.875	1	32
474.045	1	36
474.215	1	41
474.386	1	33
474.556	1	41
474.727	1	38
474.897	1	39
475.067	1	22
475.238	1	22
475.408	1	28
475.578	1	43
475.749	1	41
475.919	1	35
476.090	1	42
476.260	1	34
476.430	1	53
476.601	1	46
476.771	1	28
476.942	1	42
477.112	1	40
477.282	1	39
477.453	1	29
477.623	1	33
477.793	1	34
477.964	1	38
478.134	1	47
478.305	1	38
478.475	1	27
478.645	1	31
478.816	1	40
478.986	1	38
479.156	1	36
479.327	1	40
479.497	1	50
479.667	1	53
479.838	1	26
480.008	1	36
480.179	1	32
480.349	1	46
480.519	1	36
480.690	1	33
480.860	1	42
481.030	1	34
481.201	1	32
481.371	1	43
481.541	1	36
481.712	1	36
481.882	1	38
482.053	1	35
482.223	1	34
482.393	1	45
482.564	1	45
482.734	1	47
482.904	1	36
483.075	1	45
483.245	1	53
483.415	1	44
483.586	1	46
483.756	1	37
483.926	1	36
484.097	1	42
484.267	1	34
484.437	1	35
484.608	1	42
484.778	1	48
484.948	1	46
485.119	1	49
485.289	1	42
485.459	1	48
485.630	1	44
485.800	1	44
485.970	1	46
486.141	1	51
486.311	1	49
486.481	1	46
486.652	1	39
486.822	1	38
486.992	1	56
487.163	1	44
487.333	1	56
487.503	1	60
487.674	1	45
487.844	1	37
488.014	1	48
488.185	1	56
488.355	1	59
488.525	1	57
488.696	1	54
488.866	1	54
489.036	1	69
489.207	1	57
489.377	1	61
489.547	1	61
489.718	1	59
489.888	1	68
490.058	1	69
490.228	1	63
490.399	1	60
490.569	1	63
490.739	1	73
490.910	1	59
491.080	1	61
491.250	1	76
491.421	1	85
491.591	1	65
491.761	1	63
491.932	1	62
492.102	1	65
492.272	1	72
492.442	1	71
492.613	1	75
492.783	1	68
492.953	1	79
493.124	1	87
493.294	1	77
493.464	1	82
493.635	1	72
493.805	1	89
493.975	1	74
494.145	1	77
494.316	1	79
494.486	1	91
494.656	1	83
494.827	1	89
494.997	1	82
495.167	1	86
495.337	1	86
495.508	1	87
495.678	1	84
495.848	1	90
496.019	1	76
496.189	1	88
496.359	1	88
496.529	1	89
496.700	1	74
496.870	1	97
497.040	1	89
497.211	1	90
497.381	1	94
497.551	1	96
497.721	1	86
497.892	1	94
498.062	1	90
498.232	1	102
498.403	1	91
498.573	1	97
498.743	1	99
498.913	1	111
499.084	1	105
499.254	1	93
499.424	1	93
499.594	1	99
499.765	1	112
499.935	1	101
500.105	1	119
500.275	1	105
500.446	1	123
500.616	1	106
500.786	1	121
500.956	1	106
501.127	1	112
501.297	1	119
501.467	1	116
501.638	1	127
501.808	1	126
501.978	1	124
502.148	1	125
502.319	1	128
502.489	1	123
502.659	1	140
502.829	1	137
503.000	1	148
503.170	1	124
503.340	1	142
503.510	1	131
503.681	1	141
503.851	1	145
504.021	1	150
504.191	1	146
504.362	1	151
504.532	1	146
504.702	1	141
504.872	1	162
505.042	1	148
505.213	1	175
505.383	1	157
505.553	1	175
505.723	1	164
505.894	1	170
506.064	1	178
506.234	1	168
506.404	1	173
506.575	1	164
506.745	1	189
506.915	1	176
507.085	1	171
507.256	1	175
507.426	1	173
507.596	1	190
507.766	1	186
507.936	1	172
508.107	1	202
508.277	1	180
508.447	1	180
508.617	1	186
508.788	1	201
508.958	1	209
509.128	1	194
509.298	1	182
509.468	1	193
509.639	1	200
509.809	1	201
509.979	1	195
510.149	1	192
510.319	1	181
510.490	1	204
510.660	1	210
510.830	1	191
511.000	1	209
511.171	1	202
511.341	1	199
511.511	1	196
511.681	1	218
511.851	1	205
512.022	1	200
512.192	1	191
512.362	1	190
512.532	1	202
512.702	1	206
512.873	1	211
513.043	1	215
513.213	1	216
513.383	1	197
513.553	1	212
513.724	1	192
513.894	1	196
514.064	1	220
514.234	1	210
514.404	1	226
514.575	1	207
514.745	1	222
514.915	1	210
515.085	1	228
515.255	1	221
515.425	1	220
515.596	1	229
515.766	1	236
515.936	1	228
516.106	1	229
516.276	1	241
516.447	1	240
516.617	1	226
516.787	1	229
516.957	1	239
517.127	1	253
517.297	1	252
517.468	1	248
517.638	1	237
517.808	1	246
517.978	1	250
518.148	1	246
518.319	1	249
518.489	1	242
518.659	1	248
518.829	1	254
518.999	1	269
519.169	1	259
519.340	1	268
519.510	1	271
519.680	1	265
519.850	1	252
520.020	1	263
520.190	1	261
520.361	1	272
520.531	1	279
520.701	1	281
520.871	1	270
521.041	1	261
521.211	1	284
521.382	1	278
521.552	1	283
521.722	1	288
521.892	1	279
522.062	1	280
522.232	1	298
522.402	1	270
522.573	1	285
522.743	1	275
522.913	1	279
523.083	1	288
523.253	1	281
523.423	1	281
523.593	1	282
523.764	1	252
523.934	1	281
524.104	1	281
524.274	1	276
524.444	1	280
524.614	1	283
524.784	1	254
524.955	1	283
525.125	1	288
525.295	1	274
525.465	1	283
525.635	1	292
525.805	1	281
525.975	1	277
526.146	1	266
526.316	1	269
526.486	1	284
526.656	1	276
526.826	1	285
526.996	1	291
527.166	1	274
527.337	1	277
527.507	1	287
527.677	1	313
527.847	1	285
528.017	1	299
528.187	1	299
528.357	1	307
528.527	1	299
528.698	1	299
528.868	1	300
529.038	1	292
529.208	1	296
529.378	1	302
529.548	1	285
529.718	1	310
529.888	1	325
530.058	1	307
530.229	1	301
530.399	1	303
530.569	1	300
530.739	1	309
530.909	1	294
531.079	1	293
531.249	1	304
531.419	1	302
531.589	1	310
531.760	1	299
531.930	1	323
532.100	1	308
532.270	1	328
532.440	1	319
532.610	1	309
532.780	1	302
532.950	1	327
533.120	1	317
533.290	1	318
533.461	1	312
533.631	1	323
533.801	1	314
533.971	1	324
534.141	1	321
534.311	1	318
534.481	1	303
534.651	1	317
534.821	1	310
534.991	1	309
535.162	1	300
535.332	1	308
535.502	1	307
535.672	1	310
535.842	1	317
536.012	1	300
536.182	1	324
536.352	1	313
536.522	1	283
536.692	1	296
536.862	1	296
537.032	1	292
537.203	1	308
537.373	1	304
537.543	1	286
537.713	1	305
537.883	1	278
538.053	1	290
538.223	1	278
538.393	1	303
538.563	1	302
538.733	1	292
538.903	1	276
539.073	1	276
539.243	1	269
539.413	1	268
539.584	1	275
539.754	1	268
539.924	1	283
540.094	1	280
540.264	1	252
540.434	1	286
540.604	1	274
540.774	1	269
540.944	1	269
541.114	1	267
541.284	1	261
541.454	1	258
541.624	1	266
541.794	1	268
541.964	1	266
542.134	1	267
542.305	1	284
542.475	1	259
542.645	1	279
542.815	1	252
542.985	1	267
543.155	1	240
543.325	1	261
543.495	1	268
543.665	1	252
543.835	1	250
544.005	1	247
544.175	1	261
544.345	1	254
544.515	1	242
544.685	1	266
544.855	1	261
545.025	1	260
545.195	1	261
545.365	1	246
545.535	1	254
545.705	1	261
545.875	1	246
546.045	1	244
546.216	1	242
546.386	1	269
546.556	1	254
546.726	1	259
546.896	1	250
547.066	1	269
547.236	1	247
547.406	1	244
547.576	1	270
547.746	1	272
547.916	1	248
548.086	1	262
548.256	1	263
548.426	1	268
548.596	1	250
548.766	1	261
548.936	1	262
549.106	1	264
549.276	1	262
549.446	1	253
549.616	1	271
549.786	1	247
549.956	1	262
550.126	1	261
550.296	1	268
550.466	1	277
550.636	1	273
550.806	1	267
550.976	1	255
551.146	1	267
551.316	1	257
551.486	1	266
551.656	1	269
551.826	1	275
551.996	1	263
552.166	1	267
552.336	1	263
552.506	1	278
552.676	1	258
552.846	1	254
553.016	1	273
553.186	1	258
553.356	1	256
553.526	1	246
553.696	1	267
553.866	1	263
554.036	1	245
554.206	1	249
554.376	1	227
554.546	1	239
554.716	1	248
554.886	1	246
555.056	1	247
555.226	1	241
555.396	1	236
555.566	1	247
555.736	1	234
555.906	1	237
556.076	1	233
556.246	1	228
556.416	1	222
556.586	1	215
556.756	1	225
556.926	1	223
557.096	1	226
557.266	1	229
557.436	1	227
557.606	1	222
557.776	1	225
557.946	1	213
558.116	1	211
558.286	1	213
558.456	1	209
558.626	1	200
558.796	1	217
558.966	1	213
559.136	1	213
559.306	1	214
559.476	1	207
559.646	1	201
559.816	1	200
559.986	1	190
560.155	1	202
560.325	1	191
560.495	1	194
560.665	1	189
560.835	1	195
561.005	1	196
561.175	1	202
561.345	1	193
561.515	1	192
561.685	1	186
561.855	1	195
562.025	1	188
562.195	1	184
562.365	1	191
562.535	1	185
562.705	1	188
562.875	1	190
563.045	1	184
563.215	1	187
563.385	1	166
563.555	1	165
563.725	1	188
563.895	1	175
564.064	1	177
564.234	1	185
564.404	1	180
564.574	1	183
564.744	1	189
564.914	1	175
565.084	1	180
565.254	1	183
565.424	1	179
565.594	1	177
565.764	1	170
565.934	1	178
566.104	1	165
566.274	1	182
566.444	1	170
566.614	1	178
566.783	1	178
566.953	1	171
567.123	1	175
567.293	1	171
567.463	1	166
567.633	1	184
567.803	1	177
567.973	1	177
568.143	1	169
568.313	1	170
568.483	1	172
568.653	1	169
568.823	1	156
568.993	1	174
569.162	1	156
569.332	1	172
569.502	1	177
569.672	1	164
569.842	1	164
570.012	1	158
570.182	1	163
570.352	1	153
570.522	1	164
570.692	1	165
570.862	1	152
571.031	1	151
571.201	1	170
571.371	1	158
571.541	1	159
571.711	1	150
571.881	1	161
572.051	1	147
572.221	1	164
572.391	1	159
572.561	1	145
572.731	1	154
572.900	1	134
573.070	1	153
573.240	1	149
573.410	1	145
573.580	1	137
573.750	1	163
573.920	1	145
574.090	1	143
574.260	1	128
574.430	1	147
574.599	1	139
574.769	1	140
574.939	1	121
575.109	1	117
575.279	1	131
575.449	1	151
575.619	1	154
575.789	1	133
575.959	1	136
576.128	1	123
576.298	1	135
576.468	1	149
576.638	1	130
576.808	1	131
576.978	1	113
577.148	1	132
577.318	1	148
577.487	1	130
577.657	1	132
577.827	1	120
577.997	1	129
578.167	1	133
578.337	1	115
578.507	1	119
578.677	1	116
578.846	1	118
579.016	1	123
579.186	1	133
579.356	1	129
579.526	1	114
579.696	1	125
579.866	1	123
580.036	1	138
580.205	1	106
580.375	1	123
580.545	1	123
580.715	1	112
580.885	1	116
581.055	1	113
581.225	1	122
581.394	1	117
581.564	1	111
581.734	1	113
581.904	1	111
582.074	1	115
582.244	1	120
582.414	1	117
582.583	1	129
582.753	1	117
582.923	1	116
583.093	1	124
583.263	1	121
583.433	1	112
583.603	1	111
583.772	1	107
583.942	1	116
584.112	1	107
584.282	1	114
584.452	1	107
584.622	1	110
584.791	1	105
584.961	1	106
585.131	1	110
585.301	1	117
585.471	1	113
585.641	1	101
585.811	1	115
585.980	1	109
586.150	1	105
586.320	1	106
586.490	1	110
586.660	1	109
586.830	1	106
586.999	1	116
587.169	1	108
587.339	1	106
587.509	1	117
587.679	1	89
587.849	1	114
588.018	1	91
588.188	1	113
588.358	1	103
588.528	1	99
588.698	1	89
588.867	1	104
589.037	1	94
589.207	1	112
589.377	1	99
589.547	1	102
589.717	1	84
589.886	1	102
590.056	1	97
590.226	1	93
590.396	1	84
590.566	1	79
590.735	1	85
590.905	1	110
591.075	1	88
591.245	1	94
591.415	1	100
591.585	1	103
591.754	1	98
591.924	1	101
592.094	1	89
592.264	1	89
592.434	1	105
592.603	1	84
592.773	1	80
592.943	1	97
593.113	1	88
593.283	1	83
593.452	1	81
593.622	1	91
593.792	1	86
593.962	1	94
594.132	1	91
594.301	1	100
594.471	1	87
594.641	1	85
594.811	1	77
594.981	1	76
595.150	1	74
595.320	1	73
595.490	1	88
595.660	1	87
595.829	1	69
595.999	1	71
596.169	1	77
596.339	1	76
596.509	1	77
596.678	1	80
596.848	1	97
597.018	1	82
597.188	1	66
597.358	1	75
597.527	1	77
597.697	1	70
597.867	1	85
598.037	1	71
598.206	1	90
598.376	1	71
598.546	1	87
598.716	1	62
598.885	1	77
599.055	1	80
599.225	1	80
599.395	1	78
599.565	1	79
599.734	1	68
599.904	1	60
600.074	1	83
600.244	1	69
600.413	1	77
600.583	1	73
600.753	1	87
600.923	1	76
601.092	1	73
601.262	1	73
601.432	1	85
601.602	1	89
601.771	1	79
601.941	1	86
602.111	1	75
602.281	1	73
602.451	1	70
602.620	1	77
602.790	1	71
602.960	1	69
603.130	1	76
603.299	1	79
603.469	1	69
603.639	1	56
603.809	1	75
603.978	1	70
604.148	1	76
604.318	1	75
604.487	1	82
604.657	1	71
604.827	1	72
604.997	1	79
605.166	1	77
605.336	1	75
605.506	1	67
605.676	1	78
605.845	1	69
606.015	1	70
606.185	1	83
606.355	1	53
606.524	1	75
606.694	1	75
606.864	1	70
607.034	1	71
607.203	1	78
607.373	1	64
607.543	1	67
607.712	1	68
607.882	1	87
608.052	1	70
608.222	1	77
608.391	1	80
608.561	1	69
608.731	1	67
608.901	1	76
609.070	1	66
609.240	1	70
609.410	1	68
609.579	1	76
609.749	1	65
609.919	1	64
610.089	1	69
610.258	1	67
610.428	1	72
610.598	1	62
610.767	1	80
610.937	1	62
611.107	1	67
611.277	1	58
611.446	1	68
611.616	1	66
611.786	1	78
611.955	1	61
612.125	1	74
612.295	1	60
612.465	1	64
612.634	1	64
612.804	1	57
612.974	1	61
613.143	1	63
613.313	1	67
613.483	1	80
613.652	1	64
613.822	1	67
613.992	1	69
614.162	1	59
614.331	1	62
614.501	1	57
614.671	1	63
614.840	1	62
615.010	1	62
615.180	1	72
615.349	1	65
615.519	1	60
615.689	1	49
615.858	1	66
616.028	1	57
616.198	1	54
616.368	1	54
616.537	1	53
616.707	1	61
616.877	1	64
617.046	1	71
617.216	1	54
617.386	1	57
617.555	1	47
617.725	1	60
617.895	1	54
618.064	1	44
618.234	1	48
618.404	1	48
618.573	1	50
618.743	1	69
618.913	1	59
619.082	1	53
619.252	1	55
619.422	1	52
619.591	1	44
619.761	1	48
619.931	1	51
620.100	1	62
620.270	1	54
620.440	1	57
620.609	1	56
620.779	1	67
620.949	1	38
621.118	1	54
621.288	1	58
621.458	1	48
621.627	1	55
621.797	1	38
621.967	1	50
622.136	1	51
622.306	1	48
622.476	1	45
622.645	1	47
622.815	1	53
622.985	1	44
623.154	1	55
623.324	1	42
623.494	1	40
623.663	1	41
623.833	1	49
624.002	1	35
624.172	1	47
624.342	1	61
624.511	1	52
624.681	1	49
624.851	1	43
625.020	1	46
625.190	1	39
625.360	1	37
625.529	1	40
625.699	1	47
625.869	1	49
626.038	1	44
626.208	1	55
626.377	1	45
626.547	1	39
626.717	1	33
626.886	1	48
627.056	1	42
627.226	1	53
627.395	1	41
627.565	1	45
627.735	1	40
627.904	1	51
628.074	1	54
628.243	1	45
628.413	1	36
628.583	1	51
628.752	1	39
628.922	1	43
629.091	1	44
629.261	1	51
629.431	1	51
629.600	1	47
629.770	1	43
629.940	1	38
630.109	1	39
630.279	1	55
630.448	1	52
630.618	1	56
630.788	1	52
630.957	1	46
631.127	1	44
631.297	1	44
631.466	1	42
631.636	1	50
631.805	1	51
631.975	1	40
632.145	1	44
632.314	1	46
632.484	1	49
632.653	1	40
632.823	1	43
632.993	1	53
633.162	1	44
633.332	1	39
633.501	1	37
633.671	1	36
633.841	1	51
634.010	1	42
634.180	1	44
634.349	1	46
634.519	1	44
634.689	1	47
634.858	1	30
635.028	1	41
635.197	1	39
635.367	1	47
635.537	1	35
635.706	1	37
635.876	1	42
636.045	1	42
636.215	1	54
636.384	1	39
636.554	1	42
636.724	1	39
636.893	1	46
637.063	1	47
637.232	1	46
637.402	1	40
637.572	1	46
637.741	1	38
637.911	1	31
638.080	1	48
638.250	1	41
638.419	1	40
638.589	1	42
638.759	1	40
638.928	1	43
639.098	1	46
639.267	1	49
639.437	1	38
639.606	1	37
639.776	1	35
639.946	1	48
640.115	1	36
640.285	1	50
640.454	1	44
640.624	1	49
640.793	1	37
640.963	1	30
641.132	1	41
641.302	1	30
641.472	1	49
641.641	1	27
641.811	1	41
641.980	1	31
642.150	1	36
642.319	1	48
642.489	1	36
642.659	1	44
642.828	1	44
642.998	1	32
643.167	1	28
643.337	1	36
643.506	1	31
643.676	1	33
643.845	1	50
644.015	1	34
644.184	1	27
644.354	1	31
644.524	1	46
644.693	1	43
644.863	1	33
645.032	1	43
645.202	1	35
645.371	1	33
645.541	1	41
645.710	1	43
645.880	1	24
646.049	1	32
646.219	1	26
646.388	1	42
646.558	1	33
646.728	1	31
646.897	1	32
647.067	1	38
647.236	1	39
647.406	1	41
647.575	1	39
647.745	1	41
647.914	1	22
648.084	1	32
648.253	1	35
648.423	1	28
648.592	1	28
648.762	1	45
648.931	1	34
649.101	1	33
649.270	1	32
649.440	1	44
649.610	1	44
649.779	1	29
649.949	1	30
650.118	1	32
650.288	1	25
650.457	1	35
650.627	1	37
650.796	1	38
650.966	1	19
651.135	1	33
651.305	1	33
651.474	1	41
651.644	1	46
651.813	1	46
651.983	1	27
652.152	1	34
652.322	1	39
652.491	1	37
652.661	1	33
652.830	1	44
653.000	1	35
653.169	1	44
653.339	1	30
653.508	1	26
653.678	1	36
653.847	1	34
654.017	1	29
654.186	1	28
654.356	1	36
654.525	1	19
654.695	1	35
654.864	1	30
655.034	1	31
655.203	1	26
655.373	1	33
655.542	1	28
655.712	1	30
655.881	1	43
656.051	1	33
656.220	1	29
656.390	1	22
656.559	1	15
656.729	1	27
656.898	1	31
657.068	1	30
657.237	1	38
657.406	1	29
657.576	1	32
657.745	1	23
657.915	1	30
658.084	1	35
658.254	1	34
658.423	1	33
658.593	1	33
658.762	1	37
658.932	1	33
659.101	1	25
659.271	1	23
659.440	1	25
659.610	1	29
659.779	1	30
659.949	1	30
660.118	1	36
660.288	1	22
660.457	1	28
660.626	1	27
660.796	1	25
660.965	1	27
661.135	1	19
661.304	1	22
661.474	1	26
661.643	1	15
661.813	1	20
661.982	1	24
662.152	1	28
662.321	1	10
662.491	1	25
662.660	1	28
662.829	1	18
662.999	1	24
663.168	1	27
663.338	1	29
663.507	1	30
663.677	1	35
663.846	1	19
664.016	1	18
664.185	1	21
664.354	1	25
664.524	1	28
664.693	1	27
664.863	1	19
665.032	1	32
665.202	1	22
665.371	1	20
665.541	1	38
665.710	1	25
665.879	1	22
666.049	1	17
666.218	1	30
666.388	1	29
666.557	1	39
666.727	1	23
666.896	1	39
667.065	1	28
667.235	1	46
667.404	1	20
667.574	1	24
667.743	1	34
667.913	1	26
668.082	1	23
668.251	1	26
668.421	1	18
668.590	1	26
668.760	1	22
668.929	1	28
669.099	1	29
669.268	1	6
669.437	1	23
669.607	1	42
669.776	1	23
669.946	1	28
670.115	1	7
670.285	1	20
670.454	1	21
670.623	1	26
670.793	1	24
670.962	1	16
671.132	1	22
671.301	1	16
671.470	1	15
671.640	1	21
671.809	1	18
671.979	1	31
672.148	1	16
672.317	1	14
672.487	1	14
672.656	1	9
672.826	1	21
672.995	1	22
673.164	1	19
673.334	1	14
673.503	1	20
673.673	1	30
673.842	1	19
674.011	1	33
674.181	1	22
674.350	1	26
674.520	1	34
674.689	1	15
674.858	1	18
675.028	1	32
675.197	1	22
675.367	1	16
675.536	1	32
675.705	1	17
675.875	1	19
676.044	1	23
676.214	1	25
676.383	1	18
676.552	1	28
676.722	1	23
676.891	1	25
677.060	1	20
677.230	1	29
677.399	1	19
677.569	1	31
677.738	1	34
677.907	1	21
678.077	1	29
678.246	1	23
678.416	1	32
678.585	1	17
678.754	1	25
678.924	1	30
679.093	1	14
679.262	1	14
679.432	1	19
679.601	1	19
679.771	1	23
679.940	1	24
680.109	1	17
680.279	1	38
680.448	1	27
680.617	1	20
680.787	1	21
680.956	1	21
681.125	1	41
681.295	1	19
681.464	1	18
681.634	1	26
681.803	1	17
681.972	1	30
682.142	1	19
682.311	1	17
682.480	1	27
682.650	1	19
682.819	1	20
682.988	1	23
683.158	1	14
683.327	1	33
683.496	1	28
683.666	1	24
683.835	1	17
684.004	1	33
684.174	1	12
684.343	1	21
684.512	1	23
684.682	1	23
684.851	1	32
685.021	1	13
685.190	1	21
685.359	1	9
685.529	1	26
685.698	1	18
685.867	1	27
686.037	1	15
686.206	1	18
686.375	1	35
686.545	1	26
686.714	1	23
686.883	1	35
687.053	1	14
687.222	1	26
687.391	1	29
687.561	1	30
687.730	1	26
687.899	1	30
688.069	1	22
688.238	1	28
688.407	1	34
688.577	1	25
688.746	1	23
