340.368	1	11
340.539	1	6
340.710	1	7
340.881	1	-4
341.052	1	1
341.223	1	13
341.394	1	-1
341.565	1	1
341.737	1	3
341.908	1	-6
342.079	1	0
342.250	1	0
342.421	1	7
342.592	1	2
342.763	1	-2
342.934	1	3
343.105	1	-3
343.276	1	0
343.447	1	-10
343.618	1	2
343.789	1	2
343.960	1	-8
344.131	1	9
344.302	1	0
344.473	1	4
344.644	1	-9
344.815	1	-9
344.986	1	-2
345.157	1	4
345.328	1	-8
345.499	1	3
345.670	1	-1
345.841	1	-2
346.012	1	1
346.183	1	14
346.354	1	3
346.526	1	-5
346.697	1	-2
346.868	1	-7
347.039	1	2
347.210	1	-1
347.381	1	-4
347.552	1	3
347.723	1	-3
347.894	1	1
348.065	1	7
348.236	1	7
348.407	1	0
348.578	1	1
348.749	1	-12
348.920	1	8
349.091	1	-4
349.262	1	-9
349.433	1	0
349.604	1	7
349.775	1	4
349.946	1	-12
350.117	1	-5
350.288	1	0
350.459	1	-8
350.630	1	1
350.801	1	-5
350.972	1	4
351.143	1	7
351.314	1	-8
351.485	1	-8
351.656	1	-7
351.827	1	7
351.998	1	-2
352.169	1	-5
352.340	1	-5
352.511	1	4
352.682	1	6
352.853	1	-2
353.024	1	2
353.195	1	-7
353.366	1	4
353.537	1	-2
353.708	1	3
353.879	1	-5
354.050	1	6
354.221	1	-4
354.392	1	11
354.563	1	1
354.734	1	4
354.905	1	4
355.076	1	11
355.247	1	3
355.418	1	-5
355.589	1	-5
355.760	1	2
355.931	1	5
356.102	1	-6
356.273	1	1
356.444	1	1
356.615	1	6
356.785	1	2
356.956	1	5
357.127	1	0
357.298	1	-1
357.469	1	3
357.640	1	-5
357.811	1	-2
357.982	1	7
358.153	1	10
358.324	1	9
358.495	1	5
358.666	1	5
358.837	1	2
359.008	1	4
359.179	1	9
359.350	1	1
359.521	1	11
359.692	1	2
359.863	1	-2
360.034	1	8
360.205	1	2
360.376	1	-4
360.547	1	-8
360.718	1	16
360.889	1	4
361.060	1	0
361.231	1	-2
361.401	1	2
361.572	1	3
361.743	1	8
361.914	1	5
362.085	1	9
362.256	1	8
362.427	1	-7
362.598	1	-1
362.769	1	10
362.940	1	5
363.111	1	13
363.282	1	3
363.453	1	2
363.624	1	5
363.795	1	6
363.966	1	9
364.137	1	10
364.308	1	13
364.478	1	4
364.649	1	15
364.820	1	6
364.991	1	15
365.162	1	6
365.333	1	9
365.504	1	0
365.675	1	12
365.846	1	9
366.017	1	0
366.188	1	7
366.359	1	8
366.530	1	17
366.701	1	17
366.871	1	9
367.042	1	15
367.213	1	20
367.384	1	2
367.555	1	13
367.726	1	9
367.897	1	18
368.068	1	22
368.239	1	9
368.410	1	7
368.581	1	17
368.752	1	15
368.923	1	9
369.093	1	12
369.264	1	-1
369.435	1	14
369.606	1	15
369.777	1	9
369.948	1	6
370.119	1	7
370.290	1	9
370.461	1	12
370.632	1	10
370.803	1	10
370.973	1	1
371.144	1	10
371.315	1	3
371.486	1	5
371.657	1	3
371.828	1	12
371.999	1	-8
372.170	1	9
372.341	1	4
372.512	1	8
372.682	1	7
372.853	1	-2
373.024	1	8
373.195	1	4
373.366	1	0
373.537	1	6
373.708	1	0
373.879	1	-1
374.050	1	3
374.220	1	-3
374.391	1	5
374.562	1	1
374.733	1	7
374.904	1	10
375.075	1	1
375.246	1	-8
375.417	1	8
375.588	1	5
375.758	1	-3
375.929	1	0
376.100	1	12
376.271	1	10
376.442	1	-2
376.613	1	11
376.784	1	17
376.955	1	0
377.125	1	4
377.296	1	0
377.467	1	-5
377.638	1	2
377.809	1	3
377.980	1	8
378.151	1	-1
378.321	1	3
378.492	1	3
378.663	1	4
378.834	1	21
379.005	1	6
379.176	1	-6
379.347	1	10
379.518	1	0
379.688	1	-1
379.859	1	2
380.030	1	22
380.201	1	17
380.372	1	6
380.543	1	10
380.714	1	2
380.884	1	7
381.055	1	-2
381.226	1	1
381.397	1	8
381.568	1	3
381.739	1	4
381.910	1	3
382.080	1	8
382.251	1	-7
382.422	1	6
382.593	1	4
382.764	1	1
382.935	1	7
383.105	1	0
383.276	1	1
383.447	1	3
383.618	1	17
383.789	1	2
383.960	1	4
384.130	1	2
384.301	1	12
384.472	1	2
384.643	1	-2
384.814	1	3
384.985	1	-4
385.156	1	11
385.326	1	17
385.497	1	10
385.668	1	3
385.839	1	8
386.010	1	6
386.180	1	2
386.351	1	-2
386.522	1	13
386.693	1	3
386.864	1	14
387.035	1	12
387.205	1	15
387.376	1	17
387.547	1	17
387.718	1	3
387.889	1	11
388.060	1	4
388.230	1	8
388.401	1	-1
388.572	1	12
388.743	1	1
388.914	1	2
389.084	1	10
389.255	1	7
389.426	1	-5
389.597	1	9
389.768	1	10
389.939	1	10
390.109	1	4
390.280	1	2
390.451	1	6
390.622	1	11
390.793	1	15
390.963	1	-5
391.134	1	-6
391.305	1	-2
391.476	1	11
391.647	1	-6
391.817	1	0
391.988	1	-8
392.159	1	15
392.330	1	0
392.501	1	12
392.671	1	-1
392.842	1	9
393.013	1	13
393.184	1	8
393.355	1	10
393.525	1	7
393.696	1	1
393.867	1	14
394.038	1	3
394.208	1	1
394.379	1	5
394.550	1	2
394.721	1	6
394.892	1	5
395.062	1	4
395.233	1	2
395.404	1	6
395.575	1	-6
395.746	1	7
395.916	1	6
396.087	1	4
396.258	1	-5
396.429	1	0
396.599	1	6
396.770	1	8
396.941	1	-1
397.112	1	-6
397.283	1	4
397.453	1	12
397.624	1	2
397.795	1	-1
397.966	1	10
398.136	1	4
398.307	1	8
398.478	1	0
398.649	1	9
398.819	1	5
398.990	1	0
399.161	1	10
399.332	1	6
399.503	1	10
399.673	1	-12
399.844	1	4
400.015	1	0
400.186	1	1
400.356	1	17
400.527	1	10
400.698	1	1
400.869	1	-10
401.039	1	-4
401.210	1	1
401.381	1	-3
401.552	1	4
401.722	1	7
401.893	1	14
402.064	1	-5
402.235	1	-7
402.405	1	11
402.576	1	-6
402.747	1	8
402.918	1	4
403.088	1	5
403.259	1	1
403.430	1	0
403.601	1	18
403.771	1	15
403.942	1	6
404.113	1	8
404.284	1	-2
404.454	1	2
404.625	1	5
404.796	1	-3
404.967	1	6
405.137	1	7
405.308	1	2
405.479	1	9
405.649	1	8
405.820	1	8
405.991	1	-6
406.162	1	16
406.332	1	-8
406.503	1	10
406.674	1	3
406.845	1	14
407.015	1	2
407.186	1	-5
407.357	1	11
407.527	1	0
407.698	1	6
407.869	1	4
408.040	1	13
408.210	1	11
408.381	1	-6
408.552	1	-3
408.722	1	-7
408.893	1	-2
409.064	1	-4
409.235	1	0
409.405	1	13
409.576	1	9
409.747	1	8
409.917	1	6
410.088	1	-1
410.259	1	1
410.430	1	-3
410.600	1	-11
410.771	1	-7
410.942	1	6
411.112	1	1
411.283	1	5
411.454	1	3
411.625	1	-1
411.795	1	17
411.966	1	12
412.137	1	7
412.307	1	2
412.478	1	6
412.649	1	1
412.819	1	-1
412.990	1	-1
413.161	1	-3
413.332	1	4
413.502	1	-1
413.673	1	19
413.844	1	10
414.014	1	-8
414.185	1	1
414.356	1	3
414.526	1	8
414.697	1	9
414.868	1	-2
415.038	1	3
415.209	1	2
415.380	1	14
415.550	1	-1
415.721	1	-4
415.892	1	3
416.063	1	10
416.233	1	5
416.404	1	-3
416.575	1	4
416.745	1	-2
416.916	1	6
417.087	1	1
417.257	1	13
417.428	1	-3
417.599	1	1
417.769	1	-3
417.940	1	-2
418.111	1	1
418.281	1	-8
418.452	1	9
418.623	1	-5
418.793	1	4
418.964	1	2
419.135	1	4
419.305	1	-2
419.476	1	-3
419.647	1	-1
419.817	1	6
419.988	1	-8
420.159	1	1
420.329	1	-4
420.500	1	7
420.671	1	-2
420.841	1	-1
421.012	1	-1
421.183	1	7
421.353	1	8
421.524	1	1
421.695	1	5
421.865	1	13
422.036	1	1
422.206	1	-6
422.377	1	8
422.548	1	1
422.718	1	-2
422.889	1	-14
423.060	1	-4
423.230	1	-1
423.401	1	6
423.572	1	10
423.742	1	-3
423.913	1	10
424.084	1	0
424.254	1	-3
424.425	1	-10
424.595	1	-4
424.766	1	-4
424.937	1	5
425.107	1	2
425.278	1	10
425.449	1	-3
425.619	1	7
425.790	1	4
425.961	1	-2
426.131	1	-6
426.302	1	16
426.472	1	-4
426.643	1	-3
426.814	1	-4
426.984	1	-1
427.155	1	-5
427.326	1	5
427.496	1	-13
427.667	1	8
427.837	1	4
428.008	1	-1
428.179	1	-5
428.349	1	-6
428.520	1	5
428.691	1	-4
428.861	1	0
429.032	1	2
429.202	1	2
429.373	1	-7
429.544	1	2
429.714	1	-3
429.885	1	7
430.055	1	-15
430.226	1	2
430.397	1	7
430.567	1	-2
430.738	1	-3
430.909	1	-3
431.079	1	-5
431.250	1	-7
431.420	1	0
431.591	1	2
431.762	1	3
431.932	1	-1
432.103	1	3
432.273	1	8
432.444	1	-8
432.615	1	-6
432.785	1	3
432.956	1	8
433.126	1	0
433.297	1	1
433.468	1	0
433.638	1	2
433.809	1	6
433.979	1	1
434.150	1	8
434.320	1	2
434.491	1	9
434.662	1	7
434.832	1	-1
435.003	1	1
435.173	1	-7
435.344	1	0
435.515	1	-5
435.685	1	0
435.856	1	-5
436.026	1	1
436.197	1	3
436.368	1	-1
436.538	1	-1
436.709	1	-5
436.879	1	-6
437.050	1	6
437.220	1	-11
437.391	1	3
437.562	1	7
437.732	1	1
437.903	1	-7
438.073	1	-3
438.244	1	2
438.414	1	1
438.585	1	4
438.756	1	6
438.926	1	0
439.097	1	15
439.267	1	-5
439.438	1	-2
439.608	1	3
439.779	1	-5
439.949	1	2
440.120	1	-4
440.291	1	7
440.461	1	4
440.632	1	8
440.802	1	2
440.973	1	-5
441.143	1	-5
441.314	1	-3
441.485	1	-5
441.655	1	-6
441.826	1	-11
441.996	1	1
442.167	1	6
442.337	1	5
442.508	1	9
442.678	1	-1
442.849	1	-8
443.019	1	10
443.190	1	2
443.361	1	16
443.531	1	3
443.702	1	-16
443.872	1	0
444.043	1	5
444.213	1	3
444.384	1	-4
444.554	1	3
444.725	1	4
444.895	1	2
445.066	1	0
445.237	1	6
445.407	1	0
445.578	1	2
445.748	1	0
445.919	1	-4
446.089	1	2
446.260	1	-1
446.430	1	-1
446.601	1	7
446.771	1	-11
446.942	1	-6
447.112	1	11
447.283	1	-4
447.453	1	3
447.624	1	-13
447.794	1	12
447.965	1	6
448.135	1	0
448.306	1	-2
448.477	1	6
448.647	1	-2
448.818	1	4
448.988	1	-14
449.159	1	-3
449.329	1	14
449.500	1	-5
449.670	1	8
449.841	1	-4
450.011	1	0
450.182	1	-10
450.352	1	5
450.523	1	-3
450.693	1	5
450.864	1	-4
451.034	1	15
451.205	1	7
451.375	1	3
451.546	1	-9
451.716	1	9
451.887	1	-6
452.057	1	12
452.228	1	4
452.398	1	0
452.569	1	-10
452.739	1	-5
452.910	1	-6
453.080	1	-4
453.251	1	3
453.421	1	-4
453.592	1	6
453.762	1	-5
453.933	1	-7
454.103	1	-4
454.274	1	5
454.444	1	2
454.615	1	5
454.785	1	-6
454.956	1	9
455.126	1	-6
455.297	1	2
455.467	1	-9
455.638	1	6
455.808	1	-6
455.979	1	4
456.149	1	4
456.320	1	3
456.490	1	-5
456.661	1	-5
456.831	1	-4
457.001	1	-1
457.172	1	-3
457.342	1	-1
457.513	1	10
457.683	1	9
457.854	1	4
458.024	1	-7
458.195	1	-8
458.365	1	9
458.536	1	-3
458.706	1	-3
458.877	1	2
459.047	1	10
459.218	1	-6
459.388	1	4
459.559	1	6
459.729	1	1
459.899	1	1
460.070	1	-8
460.240	1	2
460.411	1	-4
460.581	1	-1
460.752	1	1
460.922	1	7
461.093	1	-1
461.263	1	2
461.434	1	10
461.604	1	7
461.775	1	-4
461.945	1	7
462.115	1	-10
462.286	1	-10
462.456	1	2
462.627	1	1
462.797	1	-6
462.968	1	-1
463.138	1	6
463.309	1	8
463.479	1	-5
463.649	1	-3
463.820	1	10
463.990	1	14
464.161	1	-7
464.331	1	2
464.502	1	11
464.672	1	-12
464.843	1	-4
465.013	1	-8
465.183	1	3
465.354	1	13
465.524	1	-2
465.695	1	3
465.865	1	4
466.036	1	2
466.206	1	-1
466.376	1	-8
466.547	1	3
466.717	1	-5
466.888	1	-4
467.058	1	4
467.229	1	5
467.399	1	-3
467.569	1	6
467.740	1	7
467.910	1	-3
468.081	1	-5
468.251	1	-4
468.422	1	-4
468.592	1	-2
468.762	1	2
468.933	1	-7
469.103	1	-6
469.274	1	1
469.444	1	0
469.614	1	3
469.785	1	3
469.955	1	-6
470.126	1	8
470.296	1	5
470.467	1	-7
470.637	1	5
470.807	1	14
470.978	1	-6
471.148	1	-8
471.319	1	6
471.489	1	-6
471.659	1	-6
471.830	1	1
472.000	1	6
472.171	1	2
472.341	1	-11
472.511	1	5
472.682	1	-5
472.852	1	2
473.023	1	-6
473.193	1	5
473.363	1	-7
473.534	1	-3
473.704	1	-2
473.875	1	-2
474.045	1	2
474.215	1	8
474.386	1	-1
474.556	1	2
474.727	1	-3
474.897	1	7
475.067	1	-5
475.238	1	-7
475.408	1	-9
475.578	1	3
475.749	1	4
475.919	1	4
476.090	1	-1
476.260	1	-5
476.430	1	6
476.601	1	7
476.771	1	-6
476.942	1	7
477.112	1	-9
477.282	1	2
477.453	1	-3
477.623	1	2
477.793	1	4
477.964	1	1
478.134	1	-1
478.305	1	-4
478.475	1	1
478.645	1	-3
478.816	1	3
478.986	1	-3
479.156	1	-5
479.327	1	-2
479.497	1	3
479.667	1	11
479.838	1	-14
480.008	1	-11
480.179	1	-8
480.349	1	2
480.519	1	7
480.690	1	-2
480.860	1	10
481.030	1	15
481.201	1	0
481.371	1	-1
481.541	1	8
481.712	1	1
481.882	1	-4
482.053	1	5
482.223	1	-3
482.393	1	0
482.564	1	3
482.734	1	6
482.904	1	-2
483.075	1	-2
483.245	1	3
483.415	1	7
483.586	1	-2
483.756	1	3
483.926	1	-3
484.097	1	-4
484.267	1	-6
484.437	1	7
484.608	1	5
484.778	1	-1
484.948	1	-5
485.119	1	-7
485.289	1	6
485.459	1	-6
485.630	1	3
485.800	1	1
485.970	1	3
486.141	1	-6
486.311	1	5
486.481	1	3
486.652	1	-3
486.822	1	-3
486.992	1	5
487.163	1	3
487.333	1	-3
487.503	1	4
487.674	1	2
487.844	1	-1
488.014	1	2
488.185	1	-5
488.355	1	2
488.525	1	0
488.696	1	1
488.866	1	-9
489.036	1	9
489.207	1	3
489.377	1	-1
489.547	1	-5
489.718	1	9
489.888	1	4
490.058	1	7
490.228	1	-6
490.399	1	-7
490.569	1	0
490.739	1	2
490.910	1	-5
491.080	1	-1
491.250	1	3
491.421	1	4
491.591	1	-5
491.761	1	-2
491.932	1	5
492.102	1	-12
492.272	1	-5
492.442	1	-1
492.613	1	10
492.783	1	-2
492.953	1	2
493.124	1	3
493.294	1	8
493.464	1	11
493.635	1	-10
493.805	1	1
493.975	1	2
494.145	1	0
494.316	1	-3
494.486	1	3
494.656	1	1
494.827	1	15
494.997	1	3
495.167	1	3
495.337	1	-5
495.508	1	-3
495.678	1	-3
495.848	1	2
496.019	1	-7
496.189	1	1
496.359	1	-3
496.529	1	1
496.700	1	-2
496.870	1	7
497.040	1	-1
497.211	1	5
497.381	1	1
497.551	1	4
497.721	1	-4
497.892	1	0
498.062	1	5
498.232	1	6
498.403	1	-6
498.573	1	-1
498.743	1	10
498.913	1	-2
499.084	1	-4
499.254	1	-8
499.424	1	-3
499.594	1	-4
499.765	1	6
499.935	1	-8
500.105	1	3
500.275	1	-5
500.446	1	10
500.616	1	0
500.786	1	16
500.956	1	4
501.127	1	1
501.297	1	-6
501.467	1	-9
501.638	1	6
501.808	1	5
501.978	1	6
502.148	1	-3
502.319	1	14
502.489	1	3
502.659	1	10
502.829	1	4
503.000	1	2
503.170	1	-9
503.340	1	2
503.510	1	-6
503.681	1	-6
503.851	1	-1
504.021	1	10
504.191	1	15
504.362	1	5
504.532	1	0
504.702	1	-3
504.872	1	-9
505.042	1	-6
505.213	1	0
505.383	1	-6
505.553	1	9
505.723	1	10
505.894	1	5
506.064	1	-1
506.234	1	6
506.404	1	-1
506.575	1	-4
506.745	1	8
506.915	1	5
507.085	1	0
507.256	1	-11
507.426	1	2
507.596	1	-1
507.766	1	3
507.936	1	-4
508.107	1	14
508.277	1	-11
508.447	1	8
508.617	1	-10
508.788	1	1
508.958	1	4
509.128	1	9
509.298	1	-1
509.468	1	9
509.639	1	-2
509.809	1	8
509.979	1	9
510.149	1	12
510.319	1	-6
510.490	1	0
510.660	1	3
510.830	1	9
511.000	1	3
511.171	1	7
511.341	1	11
511.511	1	-1
511.681	1	7
511.851	1	2
512.022	1	-2
512.192	1	13
512.362	1	9
512.532	1	-9
512.702	1	10
512.873	1	12
513.043	1	9
513.213	1	15
513.383	1	-4
513.553	1	15
513.724	1	1
513.894	1	-8
514.064	1	14
514.234	1	8
514.404	1	7
514.575	1	0
514.745	1	5
514.915	1	-18
515.085	1	8
515.255	1	-5
515.425	1	4
515.596	1	11
515.766	1	8
515.936	1	7
516.106	1	-3
516.276	1	4
516.447	1	9
516.617	1	0
516.787	1	-1
516.957	1	8
517.127	1	-1
517.297	1	10
517.468	1	-4
517.638	1	1
517.808	1	-5
517.978	1	5
518.148	1	-2
518.319	1	14
518.489	1	-1
518.659	1	8
518.829	1	-10
518.999	1	8
519.169	1	2
519.340	1	8
519.510	1	-3
519.680	1	1
519.850	1	0
520.020	1	12
520.190	1	1
520.361	1	-5
520.531	1	4
520.701	1	3
520.871	1	8
521.041	1	4
521.211	1	8
521.382	1	8
521.552	1	-7
521.722	1	10
521.892	1	9
522.062	1	1
522.232	1	11
522.402	1	12
522.573	1	-1
522.743	1	2
522.913	1	3
523.083	1	8
523.253	1	8
523.423	1	8
523.593	1	15
523.764	1	6
523.934	1	9
524.104	1	2
524.274	1	5
524.444	1	-6
524.614	1	5
524.784	1	-6
524.955	1	8
525.125	1	12
525.295	1	7
525.465	1	8
525.635	1	7
525.805	1	12
525.975	1	-3
526.146	1	-2
526.316	1	-11
526.486	1	7
526.656	1	-7
526.826	1	15
526.996	1	9
527.166	1	6
527.337	1	-5
527.507	1	7
527.677	1	6
527.847	1	6
528.017	1	-8
528.187	1	4
528.357	1	9
528.527	1	9
528.698	1	-6
528.868	1	-2
529.038	1	-1
529.208	1	-1
529.378	1	10
529.548	1	2
529.718	1	11
529.888	1	-1
530.058	1	-3
530.229	1	4
530.399	1	3
530.569	1	-3
530.739	1	4
530.909	1	0
531.079	1	-11
531.249	1	3
531.419	1	0
531.589	1	1
531.760	1	-4
531.930	1	11
532.100	1	-3
532.270	1	10
532.440	1	10
532.610	1	12
532.780	1	8
532.950	1	1
533.120	1	19
533.290	1	-1
533.461	1	2
533.631	1	-7
533.801	1	5
533.971	1	-1
534.141	1	7
534.311	1	13
534.481	1	4
534.651	1	0
534.821	1	-3
534.991	1	1
535.162	1	-2
535.332	1	5
535.502	1	5
535.672	1	-7
535.842	1	18
536.012	1	-1
536.182	1	2
536.352	1	-3
536.522	1	8
536.692	1	5
536.862	1	6
537.032	1	0
537.203	1	15
537.373	1	7
537.543	1	-1
537.713	1	6
537.883	1	-9
538.053	1	-4
538.223	1	14
538.393	1	9
538.563	1	1
538.733	1	10
538.903	1	0
539.073	1	4
539.243	1	-2
539.413	1	3
539.584	1	-4
539.754	1	7
539.924	1	6
540.094	1	2
540.264	1	-7
540.434	1	8
540.604	1	5
540.774	1	1
540.944	1	10
541.114	1	2
541.284	1	2
541.454	1	-1
541.624	1	12
541.794	1	2
541.964	1	-4
542.134	1	2
542.305	1	-5
542.475	1	-2
542.645	1	5
542.815	1	-2
542.985	1	1
543.155	1	-9
543.325	1	-4
543.495	1	10
543.665	1	-3
543.835	1	-5
544.005	1	8
544.175	1	2
544.345	1	-4
544.515	1	8
544.685	1	17
544.855	1	3
545.025	1	-3
545.195	1	2
545.365	1	1
545.535	1	5
545.705	1	9
545.875	1	-4
546.045	1	1
546.216	1	-9
546.386	1	9
546.556	1	5
546.726	1	-4
546.896	1	2
547.066	1	9
547.236	1	10
547.406	1	-5
547.576	1	3
547.746	1	16
547.916	1	4
548.086	1	8
548.256	1	1
548.426	1	3
548.596	1	-7
548.766	1	16
548.936	1	16
549.106	1	7
549.276	1	8
549.446	1	7
549.616	1	1
549.786	1	-2
549.956	1	2
550.126	1	-7
550.296	1	8
550.466	1	8
550.636	1	14
550.806	1	7
550.976	1	10
551.146	1	1
551.316	1	3
551.486	1	8
551.656	1	6
551.826	1	1
551.996	1	-5
552.166	1	4
552.336	1	-1
552.506	1	6
552.676	1	12
552.846	1	-4
553.016	1	16
553.186	1	6
553.356	1	1
553.526	1	6
553.696	1	18
553.866	1	17
554.036	1	1
554.206	1	-4
554.376	1	-11
554.546	1	0
554.716	1	-1
554.886	1	16
555.056	1	4
555.226	1	12
555.396	1	-5
555.566	1	-1
555.736	1	10
555.906	1	7
556.076	1	9
556.246	1	-4
556.416	1	-14
556.586	1	-6
556.756	1	-1
556.926	1	-3
557.096	1	0
557.266	1	0
557.436	1	2
557.606	1	-5
557.776	1	8
557.946	1	4
558.116	1	-2
558.286	1	4
558.456	1	-6
558.626	1	-13
558.796	1	0
558.966	1	1
559.136	1	3
559.306	1	7
559.476	1	15
559.646	1	-4
559.816	1	2
559.986	1	-6
560.155	1	-1
560.325	1	1
560.495	1	5
560.665	1	-3
560.835	1	-4
561.005	1	11
561.175	1	2
561.345	1	-3
561.515	1	2
561.685	1	-6
561.855	1	6
562.025	1	3
562.195	1	-3
562.365	1	6
562.535	1	3
562.705	1	1
562.875	1	0
563.045	1	0
563.215	1	-1
563.385	1	-7
563.555	1	6
563.725	1	13
563.895	1	-4
564.064	1	-4
564.234	1	5
564.404	1	7
564.574	1	14
564.744	1	-1
564.914	1	3
565.084	1	1
565.254	1	5
565.424	1	0
565.594	1	0
565.764	1	-10
565.934	1	14
566.104	1	2
566.274	1	9
566.444	1	-10
566.614	1	-7
566.783	1	3
566.953	1	-5
567.123	1	6
567.293	1	-4
567.463	1	-1
567.633	1	-4
567.803	1	14
567.973	1	11
568.143	1	5
568.313	1	-5
568.483	1	10
568.653	1	-9
568.823	1	1
568.993	1	-6
569.162	1	-8
569.332	1	5
569.502	1	10
569.672	1	2
569.842	1	-5
570.012	1	6
570.182	1	-3
570.352	1	-1
570.522	1	-5
570.692	1	6
570.862	1	9
571.031	1	-1
571.201	1	1
571.371	1	4
571.541	1	4
571.711	1	3
571.881	1	2
572.051	1	5
572.221	1	14
572.391	1	13
572.561	1	7
572.731	1	7
572.900	1	-8
573.070	1	5
573.240	1	-8
573.410	1	-1
573.580	1	-2
573.750	1	0
573.920	1	8
574.090	1	9
574.260	1	-5
574.430	1	9
574.599	1	-2
574.769	1	-7
574.939	1	-6
575.109	1	-4
575.279	1	7
575.449	1	10
575.619	1	8
575.789	1	-5
575.959	1	7
576.128	1	0
576.298	1	-2
576.468	1	-2
576.638	1	-4
576.808	1	-2
576.978	1	-3
577.148	1	1
577.318	1	10
577.487	1	-9
577.657	1	1
577.827	1	-4
577.997	1	14
578.167	1	6
578.337	1	10
578.507	1	1
578.677	1	2
578.846	1	4
579.016	1	3
579.186	1	0
579.356	1	11
579.526	1	-4
579.696	1	18
579.866	1	3
580.036	1	1
580.205	1	1
580.375	1	14
580.545	1	2
580.715	1	8
580.885	1	-4
581.055	1	0
581.225	1	5
581.394	1	-4
581.564	1	8
581.734	1	-3
581.904	1	2
582.074	1	8
582.244	1	5
582.414	1	-5
582.583	1	0
582.753	1	14
582.923	1	-3
583.093	1	3
583.263	1	7
583.433	1	4
583.603	1	-4
583.772	1	-13
583.942	1	12
584.112	1	2
584.282	1	-2
584.452	1	1
584.622	1	-7
584.791	1	-6
584.961	1	-8
585.131	1	7
585.301	1	5
585.471	1	-5
585.641	1	9
585.811	1	2
585.980	1	2
586.150	1	4
586.320	1	-2
586.490	1	7
586.660	1	-4
586.830	1	4
586.999	1	3
587.169	1	11
587.339	1	8
587.509	1	2
587.679	1	-4
587.849	1	6
588.018	1	-5
588.188	1	1
588.358	1	-12
588.528	1	-6
588.698	1	-8
588.867	1	0
589.037	1	-7
589.207	1	-9
589.377	1	12
589.547	1	3
589.717	1	-11
589.886	1	11
590.056	1	7
590.226	1	-2
590.396	1	-8
590.566	1	-13
590.735	1	-13
590.905	1	5
591.075	1	-4
591.245	1	5
591.415	1	1
591.585	1	0
591.754	1	-4
591.924	1	1
592.094	1	0
592.264	1	-6
592.434	1	1
592.603	1	-11
592.773	1	8
592.943	1	9
593.113	1	11
593.283	1	-5
593.452	1	-3
593.622	1	-1
593.792	1	5
593.962	1	5
594.132	1	8
594.301	1	5
594.471	1	-4
594.641	1	8
594.811	1	-7
594.981	1	0
595.150	1	9
595.320	1	-7
595.490	1	7
595.660	1	-1
595.829	1	-11
595.999	1	-10
596.169	1	-6
596.339	1	15
596.509	1	-5
596.678	1	5
596.848	1	19
597.018	1	1
597.188	1	-2
597.358	1	-8
597.527	1	3
597.697	1	-3
597.867	1	9
598.037	1	0
598.206	1	13
598.376	1	-1
598.546	1	2
598.716	1	-11
598.885	1	-1
599.055	1	9
599.225	1	2
599.395	1	2
599.565	1	-5
599.734	1	-2
599.904	1	-4
600.074	1	14
600.244	1	1
600.413	1	0
600.583	1	-8
600.753	1	6
600.923	1	-1
601.092	1	-1
601.262	1	3
601.432	1	6
601.602	1	11
601.771	1	-4
601.941	1	4
602.111	1	-3
602.281	1	-2
602.451	1	-8
602.620	1	7
602.790	1	-8
602.960	1	-5
603.130	1	-3
603.299	1	5
603.469	1	2
603.639	1	-7
603.809	1	6
603.978	1	-1
604.148	1	2
604.318	1	1
604.487	1	4
604.657	1	-9
604.827	1	2
604.997	1	12
605.166	1	-7
605.336	1	13
605.506	1	3
605.676	1	10
605.845	1	4
606.015	1	-9
606.185	1	-3
606.355	1	-6
606.524	1	3
606.694	1	15
606.864	1	5
607.034	1	-5
607.203	1	0
607.373	1	-2
607.543	1	0
607.712	1	-5
607.882	1	-2
608.052	1	7
608.222	1	10
608.391	1	0
608.561	1	2
608.731	1	0
608.901	1	7
609.070	1	-11
609.240	1	-2
609.410	1	0
609.579	1	-7
609.749	1	3
609.919	1	7
610.089	1	5
610.258	1	1
610.428	1	10
610.598	1	0
610.767	1	10
610.937	1	-1
611.107	1	1
611.277	1	-6
611.446	1	2
611.616	1	9
611.786	1	3
611.955	1	1
612.125	1	4
612.295	1	2
612.465	1	0
612.634	1	7
612.804	1	4
612.974	1	-4
613.143	1	3
613.313	1	1
613.483	1	13
613.652	1	3
613.822	1	6
613.992	1	-1
614.162	1	7
614.331	1	6
614.501	1	-4
614.671	1	-3
614.840	1	-2
615.010	1	6
615.180	1	1
615.349	1	12
615.519	1	1
615.689	1	-2
615.858	1	8
616.028	1	4
616.198	1	4
616.368	1	0
616.537	1	1
616.707	1	-2
616.877	1	9
617.046	1	13
617.216	1	5
617.386	1	19
617.555	1	-5
617.725	1	5
617.895	1	6
618.064	1	-4
618.234	1	-7
618.404	1	-5
618.573	1	2
618.743	1	3
618.913	1	8
619.082	1	-3
619.252	1	11
619.422	1	3
619.591	1	0
619.761	1	-12
619.931	1	1
620.100	1	7
620.270	1	12
620.440	1	4
620.609	1	4
620.779	1	5
620.949	1	0
621.118	1	4
621.288	1	1
621.458	1	6
621.627	1	-2
621.797	1	-8
621.967	1	1
622.136	1	2
622.306	1	3
622.476	1	-1
622.645	1	3
622.815	1	5
622.985	1	1
623.154	1	-3
623.324	1	-4
623.494	1	-12
623.663	1	2
623.833	1	3
624.002	1	0
624.172	1	3
624.342	1	16
624.511	1	-6
624.681	1	-1
624.851	1	1
625.020	1	4
625.190	1	1
625.360	1	-7
625.529	1	-5
625.699	1	0
625.869	1	10
626.038	1	-8
626.208	1	5
626.377	1	-1
626.547	1	-3
626.717	1	-12
626.886	1	1
627.056	1	4
627.226	1	9
627.395	1	-3
627.565	1	4
627.735	1	3
627.904	1	1
628.074	1	2
628.243	1	11
628.413	1	-12
628.583	1	12
628.752	1	-9
628.922	1	-5
629.091	1	-2
629.261	1	12
629.431	1	5
629.600	1	1
629.770	1	6
629.940	1	-5
630.109	1	2
630.279	1	9
630.448	1	-1
630.618	1	-1
630.788	1	-4
630.957	1	4
631.127	1	5
631.297	1	-2
631.466	1	5
631.636	1	8
631.805	1	-1
631.975	1	-6
632.145	1	-2
632.314	1	0
632.484	1	2
632.653	1	-7
632.823	1	-7
632.993	1	1
633.162	1	-2
633.332	1	-1
633.501	1	-1
633.671	1	3
633.841	1	0
634.010	1	6
634.180	1	8
634.349	1	4
634.519	1	9
634.689	1	-4
634.858	1	-5
635.028	1	-1
635.197	1	2
635.367	1	8
635.537	1	-2
635.706	1	3
635.876	1	1
636.045	1	1
636.215	1	12
636.384	1	-3
636.554	1	-6
636.724	1	0
636.893	1	-2
637.063	1	6
637.232	1	0
637.402	1	2
637.572	1	0
637.741	1	6
637.911	1	-11
638.080	1	5
638.250	1	3
638.419	1	-3
638.589	1	-1
638.759	1	-2
638.928	1	7
639.098	1	2
639.267	1	9
639.437	1	8
639.606	1	5
639.776	1	-5
639.946	1	8
640.115	1	0
640.285	1	1
640.454	1	-1
640.624	1	4
640.793	1	4
640.963	1	-1
641.132	1	5
641.302	1	0
641.472	1	-1
641.641	1	-1
641.811	1	4
641.980	1	6
642.150	1	-7
642.319	1	6
642.489	1	2
642.659	1	14
642.828	1	-2
642.998	1	-5
643.167	1	-11
643.337	1	-7
643.506	1	-4
643.676	1	-6
643.845	1	0
644.015	1	4
644.184	1	-7
644.354	1	-8
644.524	1	7
644.693	1	3
644.863	1	-1
645.032	1	10
645.202	1	-6
645.371	1	1
645.541	1	1
645.710	1	0
645.880	1	-7
646.049	1	-6
646.219	1	-5
646.388	1	-1
646.558	1	-1
646.728	1	1
646.897	1	6
647.067	1	-2
647.236	1	1
647.406	1	13
647.575	1	8
647.745	1	7
647.914	1	-3
648.084	1	-1
648.253	1	-2
648.423	1	4
648.592	1	-18
648.762	1	9
648.931	1	1
649.101	1	5
649.270	1	-2
649.440	1	-3
649.610	1	6
649.779	1	10
649.949	1	-3
650.118	1	1
650.288	1	8
650.457	1	8
650.627	1	2
650.796	1	-11
650.966	1	-6
651.135	1	-1
651.305	1	-11
651.474	1	2
651.644	1	7
651.813	1	9
651.983	1	-1
652.152	1	10
652.322	1	3
652.491	1	5
652.661	1	-3
652.830	1	-3
653.000	1	-1
653.169	1	4
653.339	1	7
653.508	1	-11
653.678	1	2
653.847	1	-6
654.017	1	11
654.186	1	4
654.356	1	-2
654.525	1	-9
654.695	1	-1
654.864	1	-6
655.034	1	-5
655.203	1	3
655.373	1	8
655.542	1	1
655.712	1	3
655.881	1	13
656.051	1	3
656.220	1	-1
656.390	1	2
656.559	1	-8
656.729	1	2
656.898	1	2
657.068	1	6
657.237	1	9
657.406	1	4
657.576	1	-4
657.745	1	4
657.915	1	-2
658.084	1	-1
658.254	1	1
658.423	1	3
658.593	1	10
658.762	1	12
658.932	1	-2
659.101	1	-12
659.271	1	-5
659.440	1	3
659.610	1	-1
659.779	1	4
659.949	1	1
660.118	1	1
660.288	1	0
660.457	1	4
660.626	1	2
660.796	1	-6
660.965	1	4
661.135	1	-7
661.304	1	-3
661.474	1	-7
661.643	1	-5
661.813	1	-2
661.982	1	2
662.152	1	7
662.321	1	-5
662.491	1	-8
662.660	1	5
662.829	1	11
662.999	1	1
663.168	1	-3
663.338	1	4
663.507	1	-1
663.677	1	7
663.846	1	-4
664.016	1	-8
664.185	1	0
664.354	1	13
664.524	1	-1
664.693	1	-8
664.863	1	-2
665.032	1	-2
665.202	1	-6
665.371	1	-2
665.541	1	16
665.710	1	5
665.879	1	1
666.049	1	2
666.218	1	0
666.388	1	4
666.557	1	7
666.727	1	-4
666.896	1	6
667.065	1	0
667.235	1	14
667.404	1	-9
667.574	1	-8
667.743	1	-1
667.913	1	-1
668.082	1	4
668.251	1	7
668.421	1	8
668.590	1	10
668.760	1	-1
668.929	1	-1
669.099	1	2
669.268	1	-7
669.437	1	1
669.607	1	-5
669.776	1	15
669.946	1	0
670.115	1	-12
670.285	1	8
670.454	1	-4
670.623	1	-1
670.793	1	3
670.962	1	2
671.132	1	-6
671.301	1	4
671.470	1	-11
671.640	1	-1
671.809	1	-3
671.979	1	13
672.148	1	4
672.317	1	-5
672.487	1	2
672.656	1	-2
672.826	1	6
672.995	1	3
673.164	1	-15
673.334	1	0
673.503	1	0
673.673	1	-3
673.842	1	6
674.011	1	7
674.181	1	5
674.350	1	0
674.520	1	10
674.689	1	-2
674.858	1	-6
675.028	1	3
675.197	1	-1
675.367	1	-5
675.536	1	8
675.705	1	3
675.875	1	3
676.044	1	-3
676.214	1	-8
676.383	1	1
676.552	1	-2
676.722	1	-5
676.891	1	-1
677.060	1	-13
677.230	1	7
677.399	1	-13
677.569	1	-9
677.738	1	8
677.907	1	-3
678.077	1	1
678.246	1	-3
678.416	1	13
678.585	1	-10
678.754	1	6
678.924	1	5
679.093	1	0
679.262	1	0
679.432	1	9
679.601	1	-1
679.771	1	3
679.940	1	7
680.109	1	2
680.279	1	6
680.448	1	12
680.617	1	-6
680.787	1	1
680.956	1	6
681.125	1	1
681.295	1	-9
681.464	1	-3
681.634	1	8
681.803	1	-5
681.972	1	-5
682.142	1	-9
682.311	1	-4
682.480	1	0
682.650	1	2
682.819	1	5
682.988	1	-2
683.158	1	-1
683.327	1	13
683.496	1	11
683.666	1	4
683.835	1	-6
684.004	1	4
684.174	1	-6
684.343	1	3
684.512	1	5
684.682	1	4
684.851	1	6
685.021	1	3
685.190	1	1
685.359	1	-12
685.529	1	-4
685.698	1	-5
685.867	1	4
686.037	1	6
686.206	1	-1
686.375	1	4
686.545	1	13
686.714	1	0
686.883	1	6
687.053	1	-6
687.222	1	1
687.391	1	4
687.561	1	6
687.730	1	-3
687.899	1	2
688.069	1	5
688.238	1	-4
688.407	1	5
688.577	1	-4
688.746	1	8
