340.368	1	6
340.539	1	6
340.710	1	2
340.881	1	-4
341.052	1	-1
341.223	1	16
341.394	1	-8
341.565	1	0
341.737	1	-4
341.908	1	-7
342.079	1	1
342.250	1	-1
342.421	1	7
342.592	1	1
342.763	1	-1
342.934	1	2
343.105	1	0
343.276	1	-5
343.447	1	-9
343.618	1	1
343.789	1	3
343.960	1	-7
344.131	1	6
344.302	1	-11
344.473	1	0
344.644	1	0
344.815	1	-1
344.986	1	10
345.157	1	1
345.328	1	-3
345.499	1	0
345.670	1	-7
345.841	1	-4
346.012	1	4
346.183	1	18
346.354	1	3
346.526	1	-9
346.697	1	8
346.868	1	4
347.039	1	1
347.210	1	1
347.381	1	0
347.552	1	7
347.723	1	-3
347.894	1	5
348.065	1	4
348.236	1	5
348.407	1	-7
348.578	1	2
348.749	1	2
348.920	1	1
349.091	1	3
349.262	1	-5
349.433	1	3
349.604	1	10
349.775	1	7
349.946	1	-4
350.117	1	-4
350.288	1	1
350.459	1	0
350.630	1	16
350.801	1	9
350.972	1	11
351.143	1	8
351.314	1	-3
351.485	1	-1
351.656	1	5
351.827	1	3
351.998	1	4
352.169	1	0
352.340	1	7
352.511	1	6
352.682	1	-2
352.853	1	7
353.024	1	-2
353.195	1	-5
353.366	1	1
353.537	1	-2
353.708	1	8
353.879	1	-10
354.050	1	11
354.221	1	3
354.392	1	11
354.563	1	8
354.734	1	1
354.905	1	0
355.076	1	3
355.247	1	7
355.418	1	2
355.589	1	2
355.760	1	17
355.931	1	1
356.102	1	-1
356.273	1	-2
356.444	1	12
356.615	1	3
356.785	1	1
356.956	1	10
357.127	1	7
357.298	1	3
357.469	1	2
357.640	1	8
357.811	1	2
357.982	1	4
358.153	1	8
358.324	1	18
358.495	1	5
358.666	1	8
358.837	1	10
359.008	1	11
359.179	1	6
359.350	1	0
359.521	1	18
359.692	1	3
359.863	1	9
360.034	1	22
360.205	1	-6
360.376	1	9
360.547	1	0
360.718	1	20
360.889	1	5
361.060	1	23
361.231	1	7
361.401	1	6
361.572	1	15
361.743	1	13
361.914	1	23
362.085	1	15
362.256	1	11
362.427	1	10
362.598	1	8
362.769	1	17
362.940	1	20
363.111	1	18
363.282	1	8
363.453	1	7
363.624	1	11
363.795	1	15
363.966	1	16
364.137	1	29
364.308	1	31
364.478	1	19
364.649	1	24
364.820	1	26
364.991	1	21
365.162	1	21
365.333	1	23
365.504	1	27
365.675	1	26
365.846	1	26
366.017	1	27
366.188	1	29
366.359	1	29
366.530	1	37
366.701	1	36
366.871	1	36
367.042	1	39
367.213	1	38
367.384	1	34
367.555	1	46
367.726	1	32
367.897	1	43
368.068	1	33
368.239	1	24
368.410	1	26
368.581	1	36
368.752	1	38
368.923	1	37
369.093	1	38
369.264	1	32
369.435	1	23
369.606	1	34
369.777	1	31
369.948	1	28
370.119	1	28
370.290	1	37
370.461	1	24
370.632	1	29
370.803	1	41
370.973	1	11
371.144	1	28
371.315	1	18
371.486	1	25
371.657	1	21
371.828	1	23
371.999	1	10
372.170	1	27
372.341	1	7
372.512	1	21
372.682	1	22
372.853	1	24
373.024	1	24
373.195	1	25
373.366	1	12
373.537	1	23
373.708	1	13
373.879	1	11
374.050	1	13
374.220	1	15
374.391	1	11
374.562	1	16
374.733	1	13
374.904	1	24
375.075	1	10
375.246	1	1
375.417	1	12
375.588	1	13
375.758	1	-4
375.929	1	11
376.100	1	10
376.271	1	0
376.442	1	2
376.613	1	23
376.784	1	22
376.955	1	8
377.125	1	16
377.296	1	9
377.467	1	10
377.638	1	14
377.809	1	7
377.980	1	16
378.151	1	11
378.321	1	15
378.492	1	13
378.663	1	13
378.834	1	22
379.005	1	16
379.176	1	3
379.347	1	3
379.518	1	12
379.688	1	7
379.859	1	13
380.030	1	20
380.201	1	10
380.372	1	3
380.543	1	23
380.714	1	7
380.884	1	9
381.055	1	-5
381.226	1	11
381.397	1	21
381.568	1	20
381.739	1	5
381.910	1	12
382.080	1	18
382.251	1	6
382.422	1	15
382.593	1	15
382.764	1	-1
382.935	1	14
383.105	1	8
383.276	1	12
383.447	1	15
383.618	1	22
383.789	1	4
383.960	1	8
384.130	1	3
384.301	1	10
384.472	1	13
384.643	1	10
384.814	1	11
384.985	1	11
385.156	1	25
385.326	1	14
385.497	1	7
385.668	1	15
385.839	1	24
386.010	1	20
386.180	1	13
386.351	1	6
386.522	1	15
386.693	1	11
386.864	1	18
387.035	1	25
387.205	1	11
387.376	1	17
387.547	1	15
387.718	1	14
387.889	1	26
388.060	1	18
388.230	1	25
388.401	1	17
388.572	1	20
388.743	1	10
388.914	1	16
389.084	1	19
389.255	1	10
389.426	1	13
389.597	1	17
389.768	1	28
389.939	1	17
390.109	1	-2
390.280	1	11
390.451	1	7
390.622	1	13
390.793	1	23
390.963	1	24
391.134	1	6
391.305	1	16
391.476	1	23
391.647	1	12
391.817	1	7
391.988	1	1
392.159	1	15
392.330	1	11
392.501	1	12
392.671	1	19
392.842	1	14
393.013	1	11
393.184	1	5
393.355	1	18
393.525	1	17
393.696	1	0
393.867	1	16
394.038	1	13
394.208	1	10
394.379	1	8
394.550	1	10
394.721	1	10
394.892	1	9
395.062	1	10
395.233	1	11
395.404	1	7
395.575	1	10
395.746	1	13
395.916	1	18
396.087	1	17
396.258	1	17
396.429	1	13
396.599	1	8
396.770	1	13
396.941	1	8
397.112	1	4
397.283	1	9
397.453	1	14
397.624	1	14
397.795	1	13
397.966	1	23
398.136	1	9
398.307	1	6
398.478	1	6
398.649	1	14
398.819	1	2
398.990	1	15
399.161	1	12
399.332	1	19
399.503	1	15
399.673	1	2
399.844	1	18
400.015	1	18
400.186	1	1
400.356	1	20
400.527	1	20
400.698	1	15
400.869	1	-3
401.039	1	5
401.210	1	12
401.381	1	0
401.552	1	9
401.722	1	8
401.893	1	15
402.064	1	16
402.235	1	-1
402.405	1	13
402.576	1	5
402.747	1	12
402.918	1	15
403.088	1	7
403.259	1	11
403.430	1	10
403.601	1	16
403.771	1	19
403.942	1	9
404.113	1	14
404.284	1	7
404.454	1	10
404.625	1	1
404.796	1	9
404.967	1	12
405.137	1	15
405.308	1	13
405.479	1	9
405.649	1	13
405.820	1	8
405.991	1	12
406.162	1	18
406.332	1	-6
406.503	1	9
406.674	1	5
406.845	1	9
407.015	1	6
407.186	1	3
407.357	1	5
407.527	1	10
407.698	1	11
407.869	1	9
408.040	1	22
408.210	1	15
408.381	1	-3
408.552	1	7
408.722	1	1
408.893	1	5
409.064	1	12
409.235	1	9
409.405	1	12
409.576	1	9
409.747	1	18
409.917	1	6
410.088	1	10
410.259	1	-3
410.430	1	6
410.600	1	-3
410.771	1	4
410.942	1	5
411.112	1	12
411.283	1	2
411.454	1	6
411.625	1	6
411.795	1	4
411.966	1	16
412.137	1	6
412.307	1	3
412.478	1	7
412.649	1	0
412.819	1	11
412.990	1	1
413.161	1	4
413.332	1	8
413.502	1	-5
413.673	1	15
413.844	1	15
414.014	1	-8
414.185	1	2
414.356	1	9
414.526	1	12
414.697	1	4
414.868	1	0
415.038	1	11
415.209	1	-3
415.380	1	15
415.550	1	8
415.721	1	9
415.892	1	0
416.063	1	11
416.233	1	3
416.404	1	1
416.575	1	7
416.745	1	-5
416.916	1	-1
417.087	1	13
417.257	1	14
417.428	1	1
417.599	1	11
417.769	1	4
417.940	1	2
418.111	1	5
418.281	1	-2
418.452	1	6
418.623	1	-9
418.793	1	4
418.964	1	6
419.135	1	13
419.305	1	3
419.476	1	4
419.647	1	8
419.817	1	12
419.988	1	-6
420.159	1	3
420.329	1	11
420.500	1	7
420.671	1	-1
420.841	1	11
421.012	1	3
421.183	1	15
421.353	1	7
421.524	1	9
421.695	1	-1
421.865	1	14
422.036	1	-4
422.206	1	6
422.377	1	3
422.548	1	13
422.718	1	-2
422.889	1	1
423.060	1	0
423.230	1	9
423.401	1	9
423.572	1	16
423.742	1	8
423.913	1	2
424.084	1	7
424.254	1	10
424.425	1	-4
424.595	1	7
424.766	1	3
424.937	1	14
425.107	1	6
425.278	1	4
425.449	1	-5
425.619	1	3
425.790	1	2
425.961	1	4
426.131	1	-1
426.302	1	16
426.472	1	-4
426.643	1	-4
426.814	1	-3
426.984	1	3
427.155	1	-8
427.326	1	-8
427.496	1	0
427.667	1	5
427.837	1	7
428.008	1	6
428.179	1	2
428.349	1	0
428.520	1	8
428.691	1	0
428.861	1	5
429.032	1	5
429.202	1	8
429.373	1	2
429.544	1	10
429.714	1	0
429.885	1	2
430.055	1	4
430.226	1	-3
430.397	1	4
430.567	1	4
430.738	1	11
430.909	1	2
431.079	1	0
431.250	1	-1
431.420	1	-3
431.591	1	3
431.762	1	-3
431.932	1	0
432.103	1	1
432.273	1	8
432.444	1	3
432.615	1	-3
432.785	1	-3
432.956	1	18
433.126	1	-1
433.297	1	6
433.468	1	10
433.638	1	2
433.809	1	-5
433.979	1	3
434.150	1	14
434.320	1	10
434.491	1	12
434.662	1	7
434.832	1	-4
435.003	1	9
435.173	1	1
435.344	1	-3
435.515	1	0
435.685	1	-2
435.856	1	4
436.026	1	1
436.197	1	0
436.368	1	4
436.538	1	-4
436.709	1	-2
436.879	1	-1
437.050	1	9
437.220	1	-3
437.391	1	4
437.562	1	-3
437.732	1	5
437.903	1	-5
438.073	1	4
438.244	1	-4
438.414	1	0
438.585	1	-4
438.756	1	2
438.926	1	0
439.097	1	1
439.267	1	5
439.438	1	6
439.608	1	7
439.779	1	-1
439.949	1	3
440.120	1	-8
440.291	1	4
440.461	1	9
440.632	1	6
440.802	1	1
440.973	1	-8
441.143	1	0
441.314	1	-5
441.485	1	-2
441.655	1	-1
441.826	1	-11
441.996	1	8
442.167	1	-1
442.337	1	7
442.508	1	2
442.678	1	1
442.849	1	-1
443.019	1	7
443.190	1	17
443.361	1	7
443.531	1	-5
443.702	1	-7
443.872	1	2
444.043	1	9
444.213	1	7
444.384	1	2
444.554	1	2
444.725	1	5
444.895	1	0
445.066	1	-1
445.237	1	-6
445.407	1	-3
445.578	1	16
445.748	1	-4
445.919	1	-2
446.089	1	-3
446.260	1	4
446.430	1	-1
446.601	1	11
446.771	1	-9
446.942	1	-4
447.112	1	4
447.283	1	-4
447.453	1	-2
447.624	1	-6
447.794	1	8
447.965	1	4
448.135	1	-4
448.306	1	-10
448.477	1	6
448.647	1	0
448.818	1	-4
448.988	1	-11
449.159	1	9
449.329	1	2
449.500	1	3
449.670	1	4
449.841	1	-4
450.011	1	2
450.182	1	-8
450.352	1	8
450.523	1	4
450.693	1	4
450.864	1	-11
451.034	1	18
451.205	1	-2
451.375	1	-1
451.546	1	-1
451.716	1	12
451.887	1	4
452.057	1	11
452.228	1	7
452.398	1	16
452.569	1	-8
452.739	1	-3
452.910	1	-1
453.080	1	4
453.251	1	1
453.421	1	0
453.592	1	1
453.762	1	7
453.933	1	-12
454.103	1	-1
454.274	1	-1
454.444	1	8
454.615	1	16
454.785	1	-4
454.956	1	4
455.126	1	5
455.297	1	-3
455.467	1	-2
455.638	1	9
455.808	1	-3
455.979	1	-2
456.149	1	2
456.320	1	13
456.490	1	0
456.661	1	-3
456.831	1	-7
457.001	1	-1
457.172	1	4
457.342	1	7
457.513	1	11
457.683	1	7
457.854	1	8
458.024	1	-2
458.195	1	-8
458.365	1	14
458.536	1	-8
458.706	1	12
458.877	1	6
459.047	1	12
459.218	1	-1
459.388	1	0
459.559	1	2
459.729	1	0
459.899	1	-14
460.070	1	-5
460.240	1	1
460.411	1	-3
460.581	1	6
460.752	1	5
460.922	1	15
461.093	1	4
461.263	1	0
461.434	1	15
461.604	1	13
461.775	1	-2
461.945	1	13
462.115	1	4
462.286	1	-2
462.456	1	-5
462.627	1	4
462.797	1	-13
462.968	1	-6
463.138	1	5
463.309	1	5
463.479	1	6
463.649	1	-10
463.820	1	2
463.990	1	6
464.161	1	11
464.331	1	3
464.502	1	12
464.672	1	-9
464.843	1	-2
465.013	1	1
465.183	1	-4
465.354	1	4
465.524	1	-8
465.695	1	10
465.865	1	-1
466.036	1	2
466.206	1	5
466.376	1	-5
466.547	1	3
466.717	1	6
466.888	1	-1
467.058	1	-3
467.229	1	10
467.399	1	2
467.569	1	2
467.740	1	9
467.910	1	2
468.081	1	-8
468.251	1	-2
468.422	1	-3
468.592	1	-6
468.762	1	-3
468.933	1	9
469.103	1	1
469.274	1	1
469.444	1	3
469.614	1	7
469.785	1	11
469.955	1	-3
470.126	1	-5
470.296	1	4
470.467	1	-4
470.637	1	5
470.807	1	9
470.978	1	0
471.148	1	-5
471.319	1	7
471.489	1	-8
471.659	1	5
471.830	1	14
472.000	1	7
472.171	1	5
472.341	1	-2
472.511	1	18
472.682	1	-4
472.852	1	3
473.023	1	1
473.193	1	7
473.363	1	2
473.534	1	-3
473.704	1	4
473.875	1	-8
474.045	1	-8
474.215	1	7
474.386	1	8
474.556	1	1
474.727	1	4
474.897	1	7
475.067	1	2
475.238	1	5
475.408	1	-3
475.578	1	4
475.749	1	9
475.919	1	-1
476.090	1	-2
476.260	1	-2
476.430	1	10
476.601	1	9
476.771	1	7
476.942	1	4
477.112	1	-4
477.282	1	0
477.453	1	-4
477.623	1	5
477.793	1	5
477.964	1	-2
478.134	1	4
478.305	1	-3
478.475	1	-4
478.645	1	2
478.816	1	13
478.986	1	1
479.156	1	-4
479.327	1	-6
479.497	1	-1
479.667	1	11
479.838	1	0
480.008	1	0
480.179	1	-12
480.349	1	7
480.519	1	2
480.690	1	5
480.860	1	5
481.030	1	7
481.201	1	-2
481.371	1	1
481.541	1	7
481.712	1	2
481.882	1	-4
482.053	1	4
482.223	1	-1
482.393	1	10
482.564	1	0
482.734	1	0
482.904	1	-1
483.075	1	-2
483.245	1	2
483.415	1	6
483.586	1	-3
483.756	1	8
483.926	1	1
484.097	1	7
484.267	1	1
484.437	1	2
484.608	1	6
484.778	1	-8
484.948	1	5
485.119	1	-5
485.289	1	16
485.459	1	-1
485.630	1	13
485.800	1	0
485.970	1	-1
486.141	1	2
486.311	1	6
486.481	1	1
486.652	1	3
486.822	1	-7
486.992	1	14
487.163	1	-4
487.333	1	2
487.503	1	5
487.674	1	-2
487.844	1	-3
488.014	1	4
488.185	1	10
488.355	1	3
488.525	1	5
488.696	1	-2
488.866	1	-5
489.036	1	12
489.207	1	1
489.377	1	1
489.547	1	-2
489.718	1	6
489.888	1	5
490.058	1	-5
490.228	1	-6
490.399	1	6
490.569	1	8
490.739	1	10
490.910	1	-6
491.080	1	-10
491.250	1	8
491.421	1	2
491.591	1	-10
491.761	1	-2
491.932	1	6
492.102	1	5
492.272	1	6
492.442	1	3
492.613	1	10
492.783	1	12
492.953	1	9
493.124	1	13
493.294	1	8
493.464	1	4
493.635	1	1
493.805	1	3
493.975	1	6
494.145	1	9
494.316	1	9
494.486	1	6
494.656	1	4
494.827	1	8
494.997	1	-1
495.167	1	9
495.337	1	5
495.508	1	-5
495.678	1	10
495.848	1	1
496.019	1	7
496.189	1	6
496.359	1	-8
496.529	1	1
496.700	1	1
496.870	1	-1
497.040	1	7
497.211	1	5
497.381	1	12
497.551	1	7
497.721	1	-8
497.892	1	13
498.062	1	4
498.232	1	4
498.403	1	5
498.573	1	11
498.743	1	9
498.913	1	6
499.084	1	5
499.254	1	-1
499.424	1	5
499.594	1	11
499.765	1	13
499.935	1	1
500.105	1	4
500.275	1	3
500.446	1	3
500.616	1	1
500.786	1	15
500.956	1	4
501.127	1	-5
501.297	1	-5
501.467	1	-6
501.638	1	8
501.808	1	7
501.978	1	3
502.148	1	1
502.319	1	22
502.489	1	-1
502.659	1	20
502.829	1	7
503.000	1	6
503.170	1	3
503.340	1	7
503.510	1	-1
503.681	1	-2
503.851	1	11
504.021	1	10
504.191	1	11
504.362	1	4
504.532	1	9
504.702	1	6
504.872	1	-4
505.042	1	1
505.213	1	8
505.383	1	8
505.553	1	5
505.723	1	14
505.894	1	6
506.064	1	10
506.234	1	0
506.404	1	-1
506.575	1	5
506.745	1	11
506.915	1	7
507.085	1	12
507.256	1	10
507.426	1	4
507.596	1	9
507.766	1	10
507.936	1	-4
508.107	1	15
508.277	1	1
508.447	1	-3
508.617	1	1
508.788	1	18
508.958	1	4
509.128	1	2
509.298	1	0
509.468	1	18
509.639	1	-1
509.809	1	3
509.979	1	7
510.149	1	17
510.319	1	-5
510.490	1	7
510.660	1	15
510.830	1	-1
511.000	1	12
511.171	1	-2
511.341	1	9
511.511	1	4
511.681	1	13
511.851	1	16
512.022	1	-9
512.192	1	17
512.362	1	8
512.532	1	-6
512.702	1	10
512.873	1	18
513.043	1	12
513.213	1	20
513.383	1	2
513.553	1	25
513.724	1	12
513.894	1	8
514.064	1	16
514.234	1	18
514.404	1	12
514.575	1	7
514.745	1	5
514.915	1	-8
515.085	1	5
515.255	1	3
515.425	1	11
515.596	1	13
515.766	1	16
515.936	1	2
516.106	1	9
516.276	1	19
516.447	1	22
516.617	1	7
516.787	1	2
516.957	1	9
517.127	1	10
517.297	1	1
517.468	1	13
517.638	1	3
517.808	1	17
517.978	1	14
518.148	1	16
518.319	1	8
518.489	1	4
518.659	1	1
518.829	1	5
518.999	1	14
519.169	1	15
519.340	1	23
519.510	1	8
519.680	1	11
519.850	1	20
520.020	1	10
520.190	1	6
520.361	1	14
520.531	1	11
520.701	1	10
520.871	1	4
521.041	1	20
521.211	1	9
521.382	1	12
521.552	1	1
521.722	1	16
521.892	1	13
522.062	1	7
522.232	1	23
522.402	1	12
522.573	1	2
522.743	1	17
522.913	1	17
523.083	1	22
523.253	1	11
523.423	1	6
523.593	1	7
523.764	1	17
523.934	1	4
524.104	1	6
524.274	1	9
524.444	1	2
524.614	1	22
524.784	1	5
524.955	1	25
525.125	1	7
525.295	1	7
525.465	1	4
525.635	1	14
525.805	1	25
525.975	1	5
526.146	1	3
526.316	1	1
526.486	1	11
526.656	1	20
526.826	1	6
526.996	1	14
527.166	1	-5
527.337	1	5
527.507	1	20
527.677	1	22
527.847	1	11
528.017	1	8
528.187	1	22
528.357	1	23
528.527	1	14
528.698	1	4
528.868	1	19
529.038	1	15
529.208	1	5
529.378	1	10
529.548	1	15
529.718	1	5
529.888	1	21
530.058	1	8
530.229	1	4
530.399	1	4
530.569	1	9
530.739	1	2
530.909	1	9
531.079	1	-5
531.249	1	16
531.419	1	17
531.589	1	16
531.760	1	10
531.930	1	18
532.100	1	0
532.270	1	18
532.440	1	6
532.610	1	22
532.780	1	8
532.950	1	13
533.120	1	20
533.290	1	12
533.461	1	7
533.631	1	18
533.801	1	8
533.971	1	6
534.141	1	13
534.311	1	15
534.481	1	13
534.651	1	6
534.821	1	3
534.991	1	14
535.162	1	5
535.332	1	10
535.502	1	13
535.672	1	11
535.842	1	13
536.012	1	6
536.182	1	12
536.352	1	9
536.522	1	7
536.692	1	16
536.862	1	9
537.032	1	9
537.203	1	15
537.373	1	18
537.543	1	7
537.713	1	7
537.883	1	2
538.053	1	6
538.223	1	18
538.393	1	13
538.563	1	23
538.733	1	16
538.903	1	13
539.073	1	5
539.243	1	17
539.413	1	13
539.584	1	16
539.754	1	12
539.924	1	23
540.094	1	14
540.264	1	7
540.434	1	10
540.604	1	2
540.774	1	10
540.944	1	11
541.114	1	11
541.284	1	8
541.454	1	12
541.624	1	17
541.794	1	9
541.964	1	5
542.134	1	10
542.305	1	18
542.475	1	4
542.645	1	4
542.815	1	-1
542.985	1	20
543.155	1	5
543.325	1	13
543.495	1	23
543.665	1	4
543.835	1	7
544.005	1	13
544.175	1	3
544.345	1	6
544.515	1	4
544.685	1	25
544.855	1	9
545.025	1	13
545.195	1	10
545.365	1	0
545.535	1	3
545.705	1	29
545.875	1	3
546.045	1	7
546.216	1	-1
546.386	1	15
546.556	1	19
546.726	1	12
546.896	1	11
547.066	1	15
547.236	1	3
547.406	1	1
547.576	1	14
547.746	1	16
547.916	1	9
548.086	1	19
548.256	1	6
548.426	1	13
548.596	1	7
548.766	1	19
548.936	1	18
549.106	1	16
549.276	1	25
549.446	1	3
549.616	1	11
549.786	1	-5
549.956	1	3
550.126	1	8
550.296	1	11
550.466	1	9
550.636	1	22
550.806	1	14
550.976	1	10
551.146	1	7
551.316	1	15
551.486	1	16
551.656	1	10
551.826	1	9
551.996	1	10
552.166	1	6
552.336	1	6
552.506	1	29
552.676	1	13
552.846	1	1
553.016	1	22
553.186	1	9
553.356	1	12
553.526	1	4
553.696	1	25
553.866	1	15
554.036	1	9
554.206	1	12
554.376	1	7
554.546	1	6
554.716	1	0
554.886	1	13
555.056	1	14
555.226	1	10
555.396	1	-2
555.566	1	7
555.736	1	21
555.906	1	8
556.076	1	11
556.246	1	6
556.416	1	1
556.586	1	-15
556.756	1	5
556.926	1	5
557.096	1	11
557.266	1	-1
557.436	1	13
557.606	1	6
557.776	1	21
557.946	1	2
558.116	1	8
558.286	1	8
558.456	1	-2
558.626	1	-4
558.796	1	6
558.966	1	10
559.136	1	10
559.306	1	5
559.476	1	8
559.646	1	7
559.816	1	8
559.986	1	0
560.155	1	9
560.325	1	8
560.495	1	8
560.665	1	-3
560.835	1	5
561.005	1	8
561.175	1	7
561.345	1	6
561.515	1	5
561.685	1	-2
561.855	1	9
562.025	1	6
562.195	1	6
562.365	1	20
562.535	1	1
562.705	1	9
562.875	1	9
563.045	1	5
563.215	1	3
563.385	1	-7
563.555	1	0
563.725	1	7
563.895	1	10
564.064	1	-5
564.234	1	7
564.404	1	9
564.574	1	12
564.744	1	1
564.914	1	10
565.084	1	-12
565.254	1	3
565.424	1	-1
565.594	1	7
565.764	1	1
565.934	1	10
566.104	1	0
566.274	1	16
566.444	1	0
566.614	1	4
566.783	1	-2
566.953	1	7
567.123	1	10
567.293	1	2
567.463	1	8
567.633	1	5
567.803	1	16
567.973	1	14
568.143	1	3
568.313	1	12
568.483	1	21
568.653	1	-6
568.823	1	-6
568.993	1	2
569.162	1	-4
569.332	1	12
569.502	1	15
569.672	1	6
569.842	1	6
570.012	1	12
570.182	1	0
570.352	1	5
570.522	1	14
570.692	1	8
570.862	1	9
571.031	1	0
571.201	1	16
571.371	1	16
571.541	1	1
571.711	1	8
571.881	1	9
572.051	1	13
572.221	1	8
572.391	1	21
572.561	1	1
572.731	1	1
572.900	1	-7
573.070	1	15
573.240	1	7
573.410	1	1
573.580	1	0
573.750	1	16
573.920	1	13
574.090	1	9
574.260	1	4
574.430	1	4
574.599	1	3
574.769	1	3
574.939	1	-3
575.109	1	0
575.279	1	6
575.449	1	17
575.619	1	8
575.789	1	-1
575.959	1	2
576.128	1	1
576.298	1	7
576.468	1	0
576.638	1	-1
576.808	1	-3
576.978	1	13
577.148	1	-2
577.318	1	21
577.487	1	6
577.657	1	2
577.827	1	7
577.997	1	6
578.167	1	10
578.337	1	1
578.507	1	1
578.677	1	5
578.846	1	7
579.016	1	8
579.186	1	10
579.356	1	6
579.526	1	-1
579.696	1	11
579.866	1	-11
580.036	1	8
580.205	1	1
580.375	1	11
580.545	1	4
580.715	1	4
580.885	1	6
581.055	1	1
581.225	1	4
581.394	1	0
581.564	1	-4
581.734	1	3
581.904	1	5
582.074	1	2
582.244	1	6
582.414	1	-4
582.583	1	5
582.753	1	17
582.923	1	10
583.093	1	10
583.263	1	2
583.433	1	9
583.603	1	-5
583.772	1	-10
583.942	1	2
584.112	1	-4
584.282	1	7
584.452	1	1
584.622	1	-1
584.791	1	12
584.961	1	-4
585.131	1	12
585.301	1	6
585.471	1	-5
585.641	1	13
585.811	1	3
585.980	1	6
586.150	1	0
586.320	1	-4
586.490	1	10
586.660	1	12
586.830	1	-2
586.999	1	-4
587.169	1	14
587.339	1	2
587.509	1	-2
587.679	1	6
587.849	1	12
588.018	1	-2
588.188	1	7
588.358	1	-5
588.528	1	2
588.698	1	-6
588.867	1	6
589.037	1	-6
589.207	1	3
589.377	1	5
589.547	1	8
589.717	1	-1
589.886	1	7
590.056	1	-3
590.226	1	-2
590.396	1	0
590.566	1	-1
590.735	1	-8
590.905	1	13
591.075	1	1
591.245	1	15
591.415	1	-2
591.585	1	1
591.754	1	4
591.924	1	13
592.094	1	-1
592.264	1	4
592.434	1	-1
592.603	1	0
592.773	1	2
592.943	1	1
593.113	1	1
593.283	1	3
593.452	1	-1
593.622	1	4
593.792	1	10
593.962	1	0
594.132	1	4
594.301	1	4
594.471	1	9
594.641	1	4
594.811	1	4
594.981	1	4
595.150	1	1
595.320	1	10
595.490	1	11
595.660	1	0
595.829	1	-9
595.999	1	0
596.169	1	8
596.339	1	3
596.509	1	-3
596.678	1	10
596.848	1	16
597.018	1	8
597.188	1	1
597.358	1	6
597.527	1	-1
597.697	1	-6
597.867	1	-1
598.037	1	11
598.206	1	12
598.376	1	-7
598.546	1	5
598.716	1	-10
598.885	1	-2
599.055	1	6
599.225	1	6
599.395	1	7
599.565	1	-2
599.734	1	3
599.904	1	-2
600.074	1	9
600.244	1	-9
600.413	1	6
600.583	1	-7
600.753	1	9
600.923	1	7
601.092	1	1
601.262	1	1
601.432	1	11
601.602	1	14
601.771	1	3
601.941	1	2
602.111	1	6
602.281	1	3
602.451	1	2
602.620	1	9
602.790	1	-10
602.960	1	-11
603.130	1	-5
603.299	1	15
603.469	1	5
603.639	1	-11
603.809	1	8
603.978	1	-1
604.148	1	1
604.318	1	-5
604.487	1	4
604.657	1	0
604.827	1	3
604.997	1	10
605.166	1	6
605.336	1	-3
605.506	1	-7
605.676	1	4
605.845	1	-1
606.015	1	-8
606.185	1	0
606.355	1	2
606.524	1	7
606.694	1	1
606.864	1	7
607.034	1	7
607.203	1	11
607.373	1	-1
607.543	1	-2
607.712	1	3
607.882	1	-2
608.052	1	4
608.222	1	8
608.391	1	6
608.561	1	-5
608.731	1	-10
608.901	1	8
609.070	1	-3
609.240	1	-7
609.410	1	1
609.579	1	10
609.749	1	-7
609.919	1	-5
610.089	1	10
610.258	1	-1
610.428	1	5
610.598	1	4
610.767	1	2
610.937	1	4
611.107	1	-3
611.277	1	-5
611.446	1	3
611.616	1	6
611.786	1	7
611.955	1	-2
612.125	1	0
612.295	1	-2
612.465	1	-3
612.634	1	3
612.804	1	-2
612.974	1	-6
613.143	1	3
613.313	1	4
613.483	1	13
613.652	1	-5
613.822	1	2
613.992	1	-7
614.162	1	4
614.331	1	7
614.501	1	-3
614.671	1	-1
614.840	1	-1
615.010	1	2
615.180	1	7
615.349	1	7
615.519	1	1
615.689	1	-3
615.858	1	7
616.028	1	1
616.198	1	-7
616.368	1	0
616.537	1	-4
616.707	1	4
616.877	1	5
617.046	1	12
617.216	1	3
617.386	1	8
617.555	1	-7
617.725	1	12
617.895	1	2
618.064	1	3
618.234	1	1
618.404	1	-10
618.573	1	3
618.743	1	9
618.913	1	9
619.082	1	-5
619.252	1	11
619.422	1	-4
619.591	1	6
619.761	1	-2
619.931	1	5
620.100	1	20
620.270	1	-2
620.440	1	6
620.609	1	12
620.779	1	10
620.949	1	-4
621.118	1	3
621.288	1	-1
621.458	1	1
621.627	1	5
621.797	1	-1
621.967	1	3
622.136	1	9
622.306	1	8
622.476	1	4
622.645	1	10
622.815	1	0
622.985	1	-6
623.154	1	-2
623.324	1	-2
623.494	1	-4
623.663	1	11
623.833	1	6
624.002	1	-9
624.172	1	-3
624.342	1	6
624.511	1	-3
624.681	1	-5
624.851	1	2
625.020	1	4
625.190	1	3
625.360	1	-1
625.529	1	-9
625.699	1	-6
625.869	1	-2
626.038	1	-10
626.208	1	11
626.377	1	-4
626.547	1	-1
626.717	1	-11
626.886	1	3
627.056	1	-2
627.226	1	17
627.395	1	-8
627.565	1	7
627.735	1	6
627.904	1	12
628.074	1	7
628.243	1	6
628.413	1	2
628.583	1	2
628.752	1	1
628.922	1	8
629.091	1	0
629.261	1	15
629.431	1	6
629.600	1	-2
629.770	1	3
629.940	1	-14
630.109	1	0
630.279	1	8
630.448	1	2
630.618	1	-1
630.788	1	4
630.957	1	5
631.127	1	1
631.297	1	-7
631.466	1	-2
631.636	1	1
631.805	1	8
631.975	1	-4
632.145	1	5
632.314	1	-1
632.484	1	11
632.653	1	-4
632.823	1	10
632.993	1	0
633.162	1	5
633.332	1	0
633.501	1	5
633.671	1	3
633.841	1	-2
634.010	1	9
634.180	1	11
634.349	1	2
634.519	1	9
634.689	1	-4
634.858	1	-9
635.028	1	-3
635.197	1	-1
635.367	1	6
635.537	1	6
635.706	1	10
635.876	1	7
636.045	1	3
636.215	1	18
636.384	1	-2
636.554	1	-1
636.724	1	2
636.893	1	6
637.063	1	0
637.232	1	9
637.402	1	-5
637.572	1	14
637.741	1	-4
637.911	1	-2
638.080	1	5
638.250	1	2
638.419	1	-4
638.589	1	2
638.759	1	-5
638.928	1	5
639.098	1	-3
639.267	1	5
639.437	1	0
639.606	1	10
639.776	1	4
639.946	1	10
640.115	1	2
640.285	1	11
640.454	1	-3
640.624	1	5
640.793	1	-4
640.963	1	4
641.132	1	3
641.302	1	11
641.472	1	0
641.641	1	0
641.811	1	-2
641.980	1	-3
642.150	1	2
642.319	1	6
642.489	1	5
642.659	1	15
642.828	1	-1
642.998	1	4
643.167	1	-1
643.337	1	0
643.506	1	1
643.676	1	1
643.845	1	4
644.015	1	6
644.184	1	-15
644.354	1	4
644.524	1	-4
644.693	1	5
644.863	1	1
645.032	1	10
645.202	1	-3
645.371	1	4
645.541	1	4
645.710	1	-5
645.880	1	-5
646.049	1	0
646.219	1	-1
646.388	1	14
646.558	1	2
646.728	1	-1
646.897	1	-6
647.067	1	0
647.236	1	9
647.406	1	7
647.575	1	13
647.745	1	6
647.914	1	-4
648.084	1	5
648.253	1	4
648.423	1	-4
648.592	1	-15
648.762	1	8
648.931	1	9
649.101	1	-3
649.270	1	3
649.440	1	5
649.610	1	4
649.779	1	4
649.949	1	5
650.118	1	-5
650.288	1	-3
650.457	1	4
650.627	1	8
650.796	1	0
650.966	1	-5
651.135	1	-8
651.305	1	1
651.474	1	0
651.644	1	19
651.813	1	1
651.983	1	2
652.152	1	6
652.322	1	-5
652.491	1	6
652.661	1	-2
652.830	1	2
653.000	1	4
653.169	1	14
653.339	1	6
653.508	1	4
653.678	1	-2
653.847	1	0
654.017	1	5
654.186	1	-1
654.356	1	-3
654.525	1	-3
654.695	1	0
654.864	1	-1
655.034	1	5
655.203	1	13
655.373	1	11
655.542	1	-4
655.712	1	7
655.881	1	19
656.051	1	-2
656.220	1	1
656.390	1	-1
656.559	1	-9
656.729	1	-4
656.898	1	2
657.068	1	13
657.237	1	7
657.406	1	-2
657.576	1	-4
657.745	1	1
657.915	1	3
658.084	1	5
658.254	1	3
658.423	1	6
658.593	1	9
658.762	1	8
658.932	1	-4
659.101	1	-13
659.271	1	-9
659.440	1	2
659.610	1	-3
659.779	1	16
659.949	1	0
660.118	1	6
660.288	1	1
660.457	1	8
660.626	1	-2
660.796	1	-5
660.965	1	-4
661.135	1	-15
661.304	1	-4
661.474	1	6
661.643	1	6
661.813	1	8
661.982	1	5
662.152	1	7
662.321	1	-1
662.491	1	-6
662.660	1	8
662.829	1	4
662.999	1	8
663.168	1	-1
663.338	1	11
663.507	1	3
663.677	1	4
663.846	1	6
664.016	1	-3
664.185	1	4
664.354	1	7
664.524	1	3
664.693	1	-7
664.863	1	-10
665.032	1	1
665.202	1	1
665.371	1	-14
665.541	1	13
665.710	1	-2
665.879	1	7
666.049	1	1
666.218	1	-4
666.388	1	10
666.557	1	9
666.727	1	-3
666.896	1	7
667.065	1	-2
667.235	1	12
667.404	1	0
667.574	1	6
667.743	1	0
667.913	1	-1
668.082	1	-3
668.251	1	-1
668.421	1	8
668.590	1	-1
668.760	1	5
668.929	1	2
669.099	1	-10
669.268	1	-6
669.437	1	5
669.607	1	9
669.776	1	7
669.946	1	-7
670.115	1	-10
670.285	1	7
670.454	1	3
670.623	1	0
670.793	1	4
670.962	1	-1
671.132	1	-3
671.301	1	0
671.470	1	-2
671.640	1	-6
671.809	1	1
671.979	1	11
672.148	1	8
672.317	1	-5
672.487	1	0
672.656	1	-8
672.826	1	0
672.995	1	3
673.164	1	-12
673.334	1	8
673.503	1	-3
673.673	1	-2
673.842	1	2
674.011	1	10
674.181	1	13
674.350	1	6
674.520	1	1
674.689	1	-6
674.858	1	-4
675.028	1	10
675.197	1	1
675.367	1	0
675.536	1	4
675.705	1	10
675.875	1	-5
676.044	1	2
676.214	1	3
676.383	1	3
676.552	1	2
676.722	1	-4
676.891	1	6
677.060	1	2
677.230	1	16
677.399	1	0
677.569	1	6
677.738	1	9
677.907	1	-2
678.077	1	4
678.246	1	-5
678.416	1	-2
678.585	1	-2
678.754	1	-4
678.924	1	6
679.093	1	-11
679.262	1	-5
679.432	1	0
679.601	1	-7
679.771	1	11
679.940	1	2
680.109	1	2
680.279	1	-3
680.448	1	12
680.617	1	-6
680.787	1	0
680.956	1	5
681.125	1	7
681.295	1	-1
681.464	1	-3
681.634	1	2
681.803	1	4
681.972	1	-6
682.142	1	-5
682.311	1	-2
682.480	1	9
682.650	1	5
682.819	1	-1
682.988	1	-11
683.158	1	8
683.327	1	3
683.496	1	0
683.666	1	6
683.835	1	-7
684.004	1	8
684.174	1	1
684.343	1	7
684.512	1	4
684.682	1	5
684.851	1	8
685.021	1	10
685.190	1	2
685.359	1	-3
685.529	1	5
685.698	1	-8
685.867	1	-1
686.037	1	11
686.206	1	-2
686.375	1	5
686.545	1	14
686.714	1	4
686.883	1	7
687.053	1	0
687.222	1	-1
687.391	1	-8
687.561	1	3
687.730	1	0
687.899	1	4
688.069	1	6
688.238	1	-5
688.407	1	3
688.577	1	-2
688.746	1	6
