340.368	1	14
340.539	1	12
340.710	1	3
340.881	1	4
341.052	1	-2
341.223	1	14
341.394	1	-1
341.565	1	0
341.737	1	7
341.908	1	3
342.079	1	3
342.250	1	-4
342.421	1	6
342.592	1	5
342.763	1	5
342.934	1	-1
343.105	1	1
343.276	1	3
343.447	1	-8
343.618	1	-3
343.789	1	1
343.960	1	0
344.131	1	3
344.302	1	-6
344.473	1	1
344.644	1	-6
344.815	1	-7
344.986	1	6
345.157	1	5
345.328	1	-7
345.499	1	6
345.670	1	2
345.841	1	1
346.012	1	8
346.183	1	17
346.354	1	10
346.526	1	9
346.697	1	7
346.868	1	-5
347.039	1	-3
347.210	1	3
347.381	1	2
347.552	1	12
347.723	1	3
347.894	1	2
348.065	1	18
348.236	1	10
348.407	1	0
348.578	1	6
348.749	1	-1
348.920	1	-2
349.091	1	13
349.262	1	7
349.433	1	-2
349.604	1	-1
349.775	1	10
349.946	1	3
350.117	1	5
350.288	1	9
350.459	1	3
350.630	1	6
350.801	1	0
350.972	1	10
351.143	1	11
351.314	1	0
351.485	1	2
351.656	1	12
351.827	1	8
351.998	1	8
352.169	1	5
352.340	1	7
352.511	1	6
352.682	1	6
352.853	1	7
353.024	1	4
353.195	1	7
353.366	1	6
353.537	1	7
353.708	1	12
353.879	1	0
354.050	1	9
354.221	1	14
354.392	1	14
354.563	1	24
354.734	1	5
354.905	1	12
355.076	1	9
355.247	1	9
355.418	1	11
355.589	1	6
355.760	1	18
355.931	1	16
356.102	1	2
356.273	1	2
356.444	1	13
356.615	1	18
356.785	1	17
356.956	1	24
357.127	1	17
357.298	1	22
357.469	1	7
357.640	1	19
357.811	1	16
357.982	1	24
358.153	1	21
358.324	1	19
358.495	1	23
358.666	1	8
358.837	1	31
359.008	1	28
359.179	1	21
359.350	1	34
359.521	1	36
359.692	1	23
359.863	1	37
360.034	1	40
360.205	1	37
360.376	1	37
360.547	1	31
360.718	1	57
360.889	1	43
361.060	1	45
361.231	1	50
361.401	1	52
361.572	1	50
361.743	1	61
361.914	1	72
362.085	1	64
362.256	1	56
362.427	1	66
362.598	1	76
362.769	1	90
362.940	1	85
363.111	1	97
363.282	1	85
363.453	1	86
363.624	1	101
363.795	1	106
363.966	1	121
364.137	1	126
364.308	1	135
364.478	1	140
364.649	1	144
364.820	1	153
364.991	1	155
365.162	1	177
365.333	1	177
365.504	1	180
365.675	1	172
365.846	1	199
366.017	1	218
366.188	1	202
366.359	1	226
366.530	1	225
366.701	1	221
366.871	1	227
367.042	1	231
367.213	1	240
367.384	1	208
367.555	1	234
367.726	1	215
367.897	1	224
368.068	1	209
368.239	1	223
368.410	1	212
368.581	1	206
368.752	1	213
368.923	1	181
369.093	1	194
369.264	1	181
369.435	1	178
369.606	1	164
369.777	1	162
369.948	1	149
370.119	1	154
370.290	1	149
370.461	1	141
370.632	1	134
370.803	1	132
370.973	1	126
371.144	1	123
371.315	1	118
371.486	1	106
371.657	1	112
371.828	1	121
371.999	1	105
372.170	1	101
372.341	1	98
372.512	1	97
372.682	1	93
372.853	1	89
373.024	1	89
373.195	1	88
373.366	1	87
373.537	1	91
373.708	1	86
373.879	1	84
374.050	1	73
374.220	1	74
374.391	1	70
374.562	1	63
374.733	1	71
374.904	1	76
375.075	1	69
375.246	1	64
375.417	1	65
375.588	1	68
375.758	1	48
375.929	1	57
376.100	1	62
376.271	1	53
376.442	1	41
376.613	1	57
376.784	1	58
376.955	1	46
377.125	1	62
377.296	1	57
377.467	1	41
377.638	1	53
377.809	1	42
377.980	1	46
378.151	1	61
378.321	1	55
378.492	1	51
378.663	1	56
378.834	1	62
379.005	1	46
379.176	1	43
379.347	1	42
379.518	1	39
379.688	1	44
379.859	1	48
380.030	1	53
380.201	1	54
380.372	1	56
380.543	1	50
380.714	1	41
380.884	1	53
381.055	1	44
381.226	1	52
381.397	1	53
381.568	1	58
381.739	1	57
381.910	1	55
382.080	1	72
382.251	1	59
382.422	1	69
382.593	1	74
382.764	1	67
382.935	1	79
383.105	1	72
383.276	1	89
383.447	1	86
383.618	1	94
383.789	1	86
383.960	1	98
384.130	1	85
384.301	1	106
384.472	1	105
384.643	1	110
384.814	1	117
384.985	1	110
385.156	1	115
385.326	1	125
385.497	1	118
385.668	1	120
385.839	1	144
386.010	1	132
386.180	1	137
386.351	1	125
386.522	1	120
386.693	1	132
386.864	1	131
387.035	1	131
387.205	1	139
387.376	1	127
387.547	1	130
387.718	1	119
387.889	1	131
388.060	1	121
388.230	1	119
388.401	1	122
388.572	1	110
388.743	1	120
388.914	1	110
389.084	1	130
389.255	1	111
389.426	1	116
389.597	1	123
389.768	1	108
389.939	1	115
390.109	1	103
390.280	1	109
390.451	1	117
390.622	1	113
390.793	1	126
390.963	1	105
391.134	1	109
391.305	1	107
391.476	1	118
391.647	1	102
391.817	1	109
391.988	1	101
392.159	1	112
392.330	1	92
392.501	1	104
392.671	1	98
392.842	1	97
393.013	1	110
393.184	1	100
393.355	1	105
393.525	1	94
393.696	1	95
393.867	1	99
394.038	1	96
394.208	1	99
394.379	1	94
394.550	1	97
394.721	1	102
394.892	1	94
395.062	1	101
395.233	1	95
395.404	1	101
395.575	1	109
395.746	1	100
395.916	1	105
396.087	1	108
396.258	1	107
396.429	1	108
396.599	1	113
396.770	1	124
396.941	1	113
397.112	1	99
397.283	1	110
397.453	1	107
397.624	1	114
397.795	1	104
397.966	1	132
398.136	1	111
398.307	1	116
398.478	1	103
398.649	1	120
398.819	1	106
398.990	1	100
399.161	1	113
399.332	1	110
399.503	1	110
399.673	1	87
399.844	1	102
400.015	1	103
400.186	1	101
400.356	1	101
400.527	1	104
400.698	1	86
400.869	1	81
401.039	1	79
401.210	1	83
401.381	1	92
401.552	1	80
401.722	1	91
401.893	1	91
402.064	1	83
402.235	1	73
402.405	1	79
402.576	1	70
402.747	1	63
402.918	1	81
403.088	1	72
403.259	1	67
403.430	1	76
403.601	1	77
403.771	1	82
403.942	1	75
404.113	1	89
404.284	1	68
404.454	1	79
404.625	1	75
404.796	1	71
404.967	1	63
405.137	1	66
405.308	1	72
405.479	1	80
405.649	1	71
405.820	1	85
405.991	1	71
406.162	1	75
406.332	1	54
406.503	1	69
406.674	1	65
406.845	1	71
407.015	1	61
407.186	1	80
407.357	1	65
407.527	1	74
407.698	1	71
407.869	1	72
408.040	1	69
408.210	1	67
408.381	1	58
408.552	1	55
408.722	1	65
408.893	1	63
409.064	1	62
409.235	1	62
409.405	1	66
409.576	1	69
409.747	1	65
409.917	1	60
410.088	1	61
410.259	1	56
410.430	1	51
410.600	1	58
410.771	1	57
410.942	1	58
411.112	1	64
411.283	1	47
411.454	1	60
411.625	1	59
411.795	1	48
411.966	1	60
412.137	1	65
412.307	1	60
412.478	1	61
412.649	1	41
412.819	1	54
412.990	1	46
413.161	1	41
413.332	1	50
413.502	1	32
413.673	1	74
413.844	1	60
414.014	1	37
414.185	1	48
414.356	1	39
414.526	1	47
414.697	1	47
414.868	1	42
415.038	1	46
415.209	1	27
415.380	1	54
415.550	1	47
415.721	1	48
415.892	1	38
416.063	1	49
416.233	1	40
416.404	1	42
416.575	1	33
416.745	1	36
416.916	1	39
417.087	1	50
417.257	1	49
417.428	1	39
417.599	1	48
417.769	1	40
417.940	1	41
418.111	1	42
418.281	1	38
418.452	1	42
418.623	1	45
418.793	1	43
418.964	1	51
419.135	1	49
419.305	1	33
419.476	1	39
419.647	1	42
419.817	1	41
419.988	1	41
420.159	1	37
420.329	1	43
420.500	1	42
420.671	1	36
420.841	1	36
421.012	1	38
421.183	1	43
421.353	1	43
421.524	1	44
421.695	1	30
421.865	1	39
422.036	1	36
422.206	1	34
422.377	1	43
422.548	1	33
422.718	1	22
422.889	1	33
423.060	1	18
423.230	1	32
423.401	1	38
423.572	1	44
423.742	1	32
423.913	1	33
424.084	1	34
424.254	1	24
424.425	1	23
424.595	1	17
424.766	1	32
424.937	1	29
425.107	1	25
425.278	1	25
425.449	1	29
425.619	1	40
425.790	1	25
425.961	1	24
426.131	1	15
426.302	1	30
426.472	1	32
426.643	1	18
426.814	1	19
426.984	1	30
427.155	1	18
427.326	1	31
427.496	1	26
427.667	1	33
427.837	1	31
428.008	1	28
428.179	1	27
428.349	1	19
428.520	1	28
428.691	1	15
428.861	1	29
429.032	1	27
429.202	1	31
429.373	1	28
429.544	1	34
429.714	1	22
429.885	1	29
430.055	1	26
430.226	1	21
430.397	1	23
430.567	1	37
430.738	1	29
430.909	1	14
431.079	1	17
431.250	1	21
431.420	1	15
431.591	1	12
431.762	1	22
431.932	1	17
432.103	1	20
432.273	1	28
432.444	1	22
432.615	1	18
432.785	1	26
432.956	1	21
433.126	1	24
433.297	1	26
433.468	1	12
433.638	1	25
433.809	1	20
433.979	1	23
434.150	1	18
434.320	1	22
434.491	1	14
434.662	1	24
434.832	1	12
435.003	1	20
435.173	1	16
435.344	1	9
435.515	1	20
435.685	1	19
435.856	1	12
436.026	1	23
436.197	1	12
436.368	1	10
436.538	1	19
436.709	1	-2
436.879	1	16
437.050	1	28
437.220	1	11
437.391	1	16
437.562	1	16
437.732	1	22
437.903	1	5
438.073	1	16
438.244	1	6
438.414	1	14
438.585	1	10
438.756	1	16
438.926	1	13
439.097	1	27
439.267	1	17
439.438	1	15
439.608	1	14
439.779	1	11
439.949	1	1
440.120	1	10
440.291	1	16
440.461	1	16
440.632	1	21
440.802	1	14
440.973	1	14
441.143	1	21
441.314	1	3
441.485	1	4
441.655	1	12
441.826	1	4
441.996	1	9
442.167	1	22
442.337	1	23
442.508	1	10
442.678	1	9
442.849	1	5
443.019	1	10
443.190	1	22
443.361	1	19
443.531	1	14
443.702	1	-4
443.872	1	11
444.043	1	19
444.213	1	15
444.384	1	8
444.554	1	8
444.725	1	9
444.895	1	17
445.066	1	14
445.237	1	8
445.407	1	10
445.578	1	20
445.748	1	8
445.919	1	12
446.089	1	7
446.260	1	5
446.430	1	11
446.601	1	11
446.771	1	3
446.942	1	10
447.112	1	12
447.283	1	2
447.453	1	10
447.624	1	18
447.794	1	14
447.965	1	8
448.135	1	8
448.306	1	5
448.477	1	7
448.647	1	10
448.818	1	4
448.988	1	1
449.159	1	14
449.329	1	16
449.500	1	5
449.670	1	12
449.841	1	-4
450.011	1	12
450.182	1	8
450.352	1	15
450.523	1	15
450.693	1	12
450.864	1	10
451.034	1	25
451.205	1	7
451.375	1	15
451.546	1	1
451.716	1	17
451.887	1	3
452.057	1	18
452.228	1	10
452.398	1	7
452.569	1	5
452.739	1	15
452.910	1	7
453.080	1	4
453.251	1	15
453.421	1	2
453.592	1	8
453.762	1	11
453.933	1	1
454.103	1	9
454.274	1	9
454.444	1	8
454.615	1	15
454.785	1	13
454.956	1	7
455.126	1	10
455.297	1	-3
455.467	1	-3
455.638	1	24
455.808	1	7
455.979	1	6
456.149	1	7
456.320	1	20
456.490	1	4
456.661	1	0
456.831	1	17
457.001	1	10
457.172	1	15
457.342	1	12
457.513	1	11
457.683	1	6
457.854	1	9
458.024	1	11
458.195	1	2
458.365	1	30
458.536	1	0
458.706	1	17
458.877	1	1
459.047	1	9
459.218	1	7
459.388	1	12
459.559	1	3
459.729	1	2
459.899	1	6
460.070	1	9
460.240	1	11
460.411	1	8
460.581	1	11
460.752	1	4
460.922	1	15
461.093	1	10
461.263	1	7
461.434	1	10
461.604	1	8
461.775	1	12
461.945	1	12
462.115	1	6
462.286	1	7
462.456	1	16
462.627	1	9
462.797	1	-5
462.968	1	-3
463.138	1	9
463.309	1	5
463.479	1	8
463.649	1	4
463.820	1	4
463.990	1	15
464.161	1	3
464.331	1	4
464.502	1	8
464.672	1	-1
464.843	1	6
465.013	1	4
465.183	1	3
465.354	1	15
465.524	1	-1
465.695	1	4
465.865	1	16
466.036	1	9
466.206	1	11
466.376	1	0
466.547	1	4
466.717	1	5
466.888	1	-1
467.058	1	12
467.229	1	10
467.399	1	0
467.569	1	14
467.740	1	10
467.910	1	10
468.081	1	5
468.251	1	15
468.422	1	-3
468.592	1	13
468.762	1	-9
468.933	1	16
469.103	1	4
469.274	1	-3
469.444	1	18
469.614	1	4
469.785	1	16
469.955	1	11
470.126	1	7
470.296	1	16
470.467	1	-10
470.637	1	12
470.807	1	12
470.978	1	12
471.148	1	9
471.319	1	9
471.489	1	1
471.659	1	18
471.830	1	8
472.000	1	14
472.171	1	3
472.341	1	2
472.511	1	17
472.682	1	6
472.852	1	3
473.023	1	17
473.193	1	13
473.363	1	3
473.534	1	6
473.704	1	1
473.875	1	-4
474.045	1	1
474.215	1	17
474.386	1	16
474.556	1	8
474.727	1	6
474.897	1	13
475.067	1	2
475.238	1	3
475.408	1	5
475.578	1	3
475.749	1	8
475.919	1	6
476.090	1	11
476.260	1	2
476.430	1	10
476.601	1	16
476.771	1	-7
476.942	1	6
477.112	1	6
477.282	1	8
477.453	1	5
477.623	1	13
477.793	1	12
477.964	1	8
478.134	1	6
478.305	1	10
478.475	1	6
478.645	1	8
478.816	1	13
478.986	1	5
479.156	1	6
479.327	1	4
479.497	1	25
479.667	1	6
479.838	1	0
480.008	1	4
480.179	1	-6
480.349	1	2
480.519	1	15
480.690	1	-2
480.860	1	19
481.030	1	14
481.201	1	9
481.371	1	11
481.541	1	13
481.712	1	7
481.882	1	7
482.053	1	19
482.223	1	-1
482.393	1	8
482.564	1	8
482.734	1	16
482.904	1	5
483.075	1	4
483.245	1	9
483.415	1	10
483.586	1	14
483.756	1	0
483.926	1	13
484.097	1	11
484.267	1	3
484.437	1	8
484.608	1	13
484.778	1	9
484.948	1	17
485.119	1	10
485.289	1	17
485.459	1	11
485.630	1	20
485.800	1	14
485.970	1	14
486.141	1	16
486.311	1	7
486.481	1	10
486.652	1	5
486.822	1	11
486.992	1	20
487.163	1	18
487.333	1	13
487.503	1	15
487.674	1	5
487.844	1	12
488.014	1	16
488.185	1	6
488.355	1	15
488.525	1	22
488.696	1	19
488.866	1	11
489.036	1	16
489.207	1	24
489.377	1	15
489.547	1	23
489.718	1	20
489.888	1	25
490.058	1	27
490.228	1	10
490.399	1	31
490.569	1	21
490.739	1	14
490.910	1	10
491.080	1	20
491.250	1	25
491.421	1	25
491.591	1	9
491.761	1	13
491.932	1	17
492.102	1	14
492.272	1	23
492.442	1	16
492.613	1	27
492.783	1	22
492.953	1	27
493.124	1	38
493.294	1	21
493.464	1	27
493.635	1	17
493.805	1	24
493.975	1	24
494.145	1	33
494.316	1	16
494.486	1	19
494.656	1	25
494.827	1	28
494.997	1	26
495.167	1	26
495.337	1	32
495.508	1	25
495.678	1	34
495.848	1	28
496.019	1	29
496.189	1	29
496.359	1	23
496.529	1	21
496.700	1	27
496.870	1	36
497.040	1	20
497.211	1	40
497.381	1	37
497.551	1	23
497.721	1	31
497.892	1	37
498.062	1	19
498.232	1	27
498.403	1	29
498.573	1	25
498.743	1	52
498.913	1	36
499.084	1	42
499.254	1	29
499.424	1	31
499.594	1	24
499.765	1	43
499.935	1	25
500.105	1	36
500.275	1	40
500.446	1	34
500.616	1	29
500.786	1	50
500.956	1	36
501.127	1	40
501.297	1	36
501.467	1	38
501.638	1	43
501.808	1	39
501.978	1	37
502.148	1	28
502.319	1	55
502.489	1	36
502.659	1	53
502.829	1	35
503.000	1	43
503.170	1	42
503.340	1	43
503.510	1	37
503.681	1	39
503.851	1	49
504.021	1	57
504.191	1	45
504.362	1	45
504.532	1	42
504.702	1	54
504.872	1	45
505.042	1	54
505.213	1	47
505.383	1	57
505.553	1	55
505.723	1	59
505.894	1	46
506.064	1	46
506.234	1	57
506.404	1	46
506.575	1	40
506.745	1	62
506.915	1	54
507.085	1	49
507.256	1	46
507.426	1	48
507.596	1	52
507.766	1	58
507.936	1	59
508.107	1	64
508.277	1	49
508.447	1	54
508.617	1	48
508.788	1	79
508.958	1	58
509.128	1	64
509.298	1	55
509.468	1	70
509.639	1	60
509.809	1	64
509.979	1	72
510.149	1	70
510.319	1	56
510.490	1	56
510.660	1	60
510.830	1	62
511.000	1	63
511.171	1	60
511.341	1	76
511.511	1	67
511.681	1	69
511.851	1	69
512.022	1	52
512.192	1	77
512.362	1	64
512.532	1	61
512.702	1	71
512.873	1	70
513.043	1	61
513.213	1	65
513.383	1	62
513.553	1	77
513.724	1	58
513.894	1	58
514.064	1	67
514.234	1	73
514.404	1	66
514.575	1	58
514.745	1	69
514.915	1	48
515.085	1	62
515.255	1	77
515.425	1	73
515.596	1	80
515.766	1	70
515.936	1	77
516.106	1	72
516.276	1	73
516.447	1	82
516.617	1	67
516.787	1	74
516.957	1	72
517.127	1	70
517.297	1	78
517.468	1	65
517.638	1	74
517.808	1	68
517.978	1	92
518.148	1	78
518.319	1	75
518.489	1	73
518.659	1	73
518.829	1	81
518.999	1	78
519.169	1	67
519.340	1	80
519.510	1	86
519.680	1	74
519.850	1	69
520.020	1	77
520.190	1	87
520.361	1	73
520.531	1	78
520.701	1	90
520.871	1	70
521.041	1	91
521.211	1	79
521.382	1	88
521.552	1	87
521.722	1	92
521.892	1	73
522.062	1	79
522.232	1	88
522.402	1	97
522.573	1	65
522.743	1	80
522.913	1	85
523.083	1	75
523.253	1	99
523.423	1	81
523.593	1	81
523.764	1	91
523.934	1	85
524.104	1	84
524.274	1	82
524.444	1	80
524.614	1	87
524.784	1	84
524.955	1	79
525.125	1	90
525.295	1	91
525.465	1	73
525.635	1	96
525.805	1	93
525.975	1	84
526.146	1	83
526.316	1	82
526.486	1	89
526.656	1	78
526.826	1	84
526.996	1	93
527.166	1	92
527.337	1	82
527.507	1	96
527.677	1	97
527.847	1	84
528.017	1	85
528.187	1	98
528.357	1	98
528.527	1	87
528.698	1	78
528.868	1	89
529.038	1	80
529.208	1	82
529.378	1	97
529.548	1	78
529.718	1	90
529.888	1	98
530.058	1	95
530.229	1	90
530.399	1	83
530.569	1	78
530.739	1	87
530.909	1	84
531.079	1	75
531.249	1	93
531.419	1	108
531.589	1	96
531.760	1	86
531.930	1	90
532.100	1	84
532.270	1	97
532.440	1	86
532.610	1	96
532.780	1	99
532.950	1	94
533.120	1	103
533.290	1	100
533.461	1	93
533.631	1	94
533.801	1	91
533.971	1	95
534.141	1	89
534.311	1	97
534.481	1	98
534.651	1	83
534.821	1	90
534.991	1	84
535.162	1	81
535.332	1	92
535.502	1	79
535.672	1	90
535.842	1	86
536.012	1	87
536.182	1	102
536.352	1	79
536.522	1	87
536.692	1	83
536.862	1	77
537.032	1	68
537.203	1	91
537.373	1	83
537.543	1	89
537.713	1	82
537.883	1	85
538.053	1	75
538.223	1	88
538.393	1	81
538.563	1	90
538.733	1	97
538.903	1	75
539.073	1	77
539.243	1	77
539.413	1	83
539.584	1	79
539.754	1	79
539.924	1	90
540.094	1	77
540.264	1	78
540.434	1	80
540.604	1	68
540.774	1	79
540.944	1	76
541.114	1	74
541.284	1	64
541.454	1	63
541.624	1	86
541.794	1	75
541.964	1	63
542.134	1	75
542.305	1	73
542.475	1	68
542.645	1	72
542.815	1	70
542.985	1	78
543.155	1	61
543.325	1	75
543.495	1	80
543.665	1	70
543.835	1	74
544.005	1	80
544.175	1	66
544.345	1	57
544.515	1	66
544.685	1	85
544.855	1	75
545.025	1	74
545.195	1	78
545.365	1	66
545.535	1	62
545.705	1	85
545.875	1	72
546.045	1	74
546.216	1	68
546.386	1	70
546.556	1	79
546.726	1	77
546.896	1	72
547.066	1	76
547.236	1	73
547.406	1	69
547.576	1	74
547.746	1	81
547.916	1	71
548.086	1	84
548.256	1	63
548.426	1	79
548.596	1	74
548.766	1	79
548.936	1	88
549.106	1	75
549.276	1	77
549.446	1	77
549.616	1	61
549.786	1	75
549.956	1	80
550.126	1	73
550.296	1	87
550.466	1	67
550.636	1	71
550.806	1	80
550.976	1	77
551.146	1	64
551.316	1	69
551.486	1	64
551.656	1	79
551.826	1	83
551.996	1	61
552.166	1	66
552.336	1	67
552.506	1	70
552.676	1	68
552.846	1	68
553.016	1	71
553.186	1	76
553.356	1	66
553.526	1	68
553.696	1	78
553.866	1	81
554.036	1	61
554.206	1	61
554.376	1	61
554.546	1	60
554.716	1	65
554.886	1	72
555.056	1	65
555.226	1	65
555.396	1	65
555.566	1	61
555.736	1	72
555.906	1	64
556.076	1	74
556.246	1	59
556.416	1	51
556.586	1	44
556.756	1	54
556.926	1	58
557.096	1	57
557.266	1	59
557.436	1	60
557.606	1	60
557.776	1	61
557.946	1	58
558.116	1	61
558.286	1	47
558.456	1	53
558.626	1	41
558.796	1	48
558.966	1	48
559.136	1	54
559.306	1	53
559.476	1	54
559.646	1	45
559.816	1	57
559.986	1	43
560.155	1	56
560.325	1	52
560.495	1	51
560.665	1	43
560.835	1	50
561.005	1	52
561.175	1	46
561.345	1	47
561.515	1	50
561.685	1	38
561.855	1	41
562.025	1	55
562.195	1	48
562.365	1	46
562.535	1	52
562.705	1	53
562.875	1	42
563.045	1	41
563.215	1	46
563.385	1	37
563.555	1	38
563.725	1	52
563.895	1	41
564.064	1	36
564.234	1	49
564.404	1	45
564.574	1	51
564.744	1	44
564.914	1	42
565.084	1	39
565.254	1	49
565.424	1	45
565.594	1	40
565.764	1	34
565.934	1	56
566.104	1	41
566.274	1	51
566.444	1	33
566.614	1	46
566.783	1	42
566.953	1	47
567.123	1	38
567.293	1	35
567.463	1	46
567.633	1	45
567.803	1	53
567.973	1	56
568.143	1	37
568.313	1	45
568.483	1	43
568.653	1	34
568.823	1	33
568.993	1	29
569.162	1	35
569.332	1	37
569.502	1	49
569.672	1	44
569.842	1	39
570.012	1	48
570.182	1	40
570.352	1	41
570.522	1	39
570.692	1	46
570.862	1	41
571.031	1	43
571.201	1	41
571.371	1	38
571.541	1	33
571.711	1	26
571.881	1	42
572.051	1	36
572.221	1	43
572.391	1	45
572.561	1	47
572.731	1	36
572.900	1	29
573.070	1	41
573.240	1	31
573.410	1	39
573.580	1	37
573.750	1	36
573.920	1	39
574.090	1	38
574.260	1	40
574.430	1	31
574.599	1	37
574.769	1	32
574.939	1	29
575.109	1	24
575.279	1	32
575.449	1	47
575.619	1	36
575.789	1	36
575.959	1	33
576.128	1	34
576.298	1	32
576.468	1	37
576.638	1	12
576.808	1	36
576.978	1	27
577.148	1	23
577.318	1	40
577.487	1	32
577.657	1	26
577.827	1	30
577.997	1	30
578.167	1	33
578.337	1	27
578.507	1	25
578.677	1	32
578.846	1	29
579.016	1	34
579.186	1	28
579.356	1	32
579.526	1	28
579.696	1	37
579.866	1	17
580.036	1	38
580.205	1	19
580.375	1	45
580.545	1	28
580.715	1	32
580.885	1	30
581.055	1	20
581.225	1	31
581.394	1	21
581.564	1	28
581.734	1	20
581.904	1	25
582.074	1	26
582.244	1	21
582.414	1	35
582.583	1	33
582.753	1	32
582.923	1	26
583.093	1	33
583.263	1	32
583.433	1	26
583.603	1	9
583.772	1	20
583.942	1	30
584.112	1	21
584.282	1	25
584.452	1	29
584.622	1	20
584.791	1	31
584.961	1	16
585.131	1	15
585.301	1	26
585.471	1	11
585.641	1	22
585.811	1	18
585.980	1	20
586.150	1	22
586.320	1	20
586.490	1	27
586.660	1	31
586.830	1	20
586.999	1	10
587.169	1	31
587.339	1	23
587.509	1	15
587.679	1	20
587.849	1	39
588.018	1	9
588.188	1	12
588.358	1	16
588.528	1	14
588.698	1	15
588.867	1	21
589.037	1	9
589.207	1	23
589.377	1	28
589.547	1	26
589.717	1	3
589.886	1	15
590.056	1	9
590.226	1	11
590.396	1	11
590.566	1	10
590.735	1	4
590.905	1	24
591.075	1	16
591.245	1	20
591.415	1	20
591.585	1	13
591.754	1	19
591.924	1	23
592.094	1	12
592.264	1	10
592.434	1	11
592.603	1	9
592.773	1	16
592.943	1	18
593.113	1	14
593.283	1	21
593.452	1	1
593.622	1	25
593.792	1	27
593.962	1	21
594.132	1	20
594.301	1	8
594.471	1	14
594.641	1	13
594.811	1	14
594.981	1	5
595.150	1	9
595.320	1	15
595.490	1	16
595.660	1	12
595.829	1	3
595.999	1	7
596.169	1	19
596.339	1	20
596.509	1	19
596.678	1	22
596.848	1	25
597.018	1	16
597.188	1	7
597.358	1	15
597.527	1	5
597.697	1	4
597.867	1	14
598.037	1	19
598.206	1	23
598.376	1	12
598.546	1	14
598.716	1	-2
598.885	1	12
599.055	1	18
599.225	1	20
599.395	1	18
599.565	1	11
599.734	1	18
599.904	1	2
600.074	1	19
600.244	1	6
600.413	1	12
600.583	1	15
600.753	1	21
600.923	1	11
601.092	1	15
601.262	1	7
601.432	1	18
601.602	1	27
601.771	1	17
601.941	1	25
602.111	1	13
602.281	1	19
602.451	1	3
602.620	1	25
602.790	1	-3
602.960	1	7
603.130	1	8
603.299	1	18
603.469	1	13
603.639	1	3
603.809	1	17
603.978	1	5
604.148	1	11
604.318	1	12
604.487	1	12
604.657	1	5
604.827	1	17
604.997	1	17
605.166	1	9
605.336	1	5
605.506	1	12
605.676	1	20
605.845	1	15
606.015	1	4
606.185	1	9
606.355	1	7
606.524	1	12
606.694	1	16
606.864	1	12
607.034	1	12
607.203	1	16
607.373	1	10
607.543	1	15
607.712	1	9
607.882	1	5
608.052	1	13
608.222	1	13
608.391	1	24
608.561	1	11
608.731	1	9
608.901	1	20
609.070	1	-1
609.240	1	11
609.410	1	11
609.579	1	14
609.749	1	20
609.919	1	3
610.089	1	10
610.258	1	7
610.428	1	20
610.598	1	13
610.767	1	23
610.937	1	7
611.107	1	3
611.277	1	10
611.446	1	11
611.616	1	11
611.786	1	24
611.955	1	12
612.125	1	13
612.295	1	4
612.465	1	5
612.634	1	11
612.804	1	11
612.974	1	3
613.143	1	7
613.313	1	14
613.483	1	22
613.652	1	14
613.822	1	10
613.992	1	3
614.162	1	7
614.331	1	12
614.501	1	2
614.671	1	6
614.840	1	7
615.010	1	16
615.180	1	7
615.349	1	25
615.519	1	6
615.689	1	0
615.858	1	15
616.028	1	16
616.198	1	5
616.368	1	18
616.537	1	8
616.707	1	7
616.877	1	15
617.046	1	9
617.216	1	12
617.386	1	14
617.555	1	5
617.725	1	13
617.895	1	5
618.064	1	11
618.234	1	2
618.404	1	-6
618.573	1	19
618.743	1	23
618.913	1	19
619.082	1	8
619.252	1	11
619.422	1	2
619.591	1	10
619.761	1	2
619.931	1	9
620.100	1	21
620.270	1	5
620.440	1	22
620.609	1	12
620.779	1	22
620.949	1	5
621.118	1	7
621.288	1	5
621.458	1	19
621.627	1	8
621.797	1	8
621.967	1	12
622.136	1	16
622.306	1	2
622.476	1	12
622.645	1	8
622.815	1	10
622.985	1	2
623.154	1	11
623.324	1	4
623.494	1	3
623.663	1	3
623.833	1	10
624.002	1	1
624.172	1	9
624.342	1	9
624.511	1	6
624.681	1	4
624.851	1	0
625.020	1	5
625.190	1	5
625.360	1	7
625.529	1	2
625.699	1	5
625.869	1	14
626.038	1	1
626.208	1	15
626.377	1	12
626.547	1	10
626.717	1	-1
626.886	1	6
627.056	1	8
627.226	1	7
627.395	1	8
627.565	1	16
627.735	1	9
627.904	1	8
628.074	1	19
628.243	1	14
628.413	1	3
628.583	1	5
628.752	1	6
628.922	1	8
629.091	1	10
629.261	1	20
629.431	1	11
629.600	1	3
629.770	1	13
629.940	1	-3
630.109	1	4
630.279	1	7
630.448	1	1
630.618	1	9
630.788	1	6
630.957	1	10
631.127	1	2
631.297	1	9
631.466	1	6
631.636	1	9
631.805	1	14
631.975	1	-2
632.145	1	10
632.314	1	10
632.484	1	3
632.653	1	5
632.823	1	3
632.993	1	15
633.162	1	8
633.332	1	9
633.501	1	-1
633.671	1	8
633.841	1	4
634.010	1	16
634.180	1	11
634.349	1	9
634.519	1	16
634.689	1	4
634.858	1	4
635.028	1	7
635.197	1	1
635.367	1	10
635.537	1	9
635.706	1	-4
635.876	1	10
636.045	1	12
636.215	1	19
636.384	1	3
636.554	1	8
636.724	1	7
636.893	1	5
637.063	1	4
637.232	1	11
637.402	1	11
637.572	1	3
637.741	1	7
637.911	1	8
638.080	1	12
638.250	1	6
638.419	1	7
638.589	1	11
638.759	1	1
638.928	1	15
639.098	1	9
639.267	1	14
639.437	1	9
639.606	1	14
639.776	1	3
639.946	1	6
640.115	1	3
640.285	1	13
640.454	1	9
640.624	1	13
640.793	1	11
640.963	1	7
641.132	1	14
641.302	1	10
641.472	1	15
641.641	1	5
641.811	1	4
641.980	1	3
642.150	1	4
642.319	1	7
642.489	1	0
642.659	1	13
642.828	1	4
642.998	1	9
643.167	1	-4
643.337	1	4
643.506	1	3
643.676	1	8
643.845	1	16
644.015	1	8
644.184	1	-8
644.354	1	-1
644.524	1	6
644.693	1	7
644.863	1	10
645.032	1	4
645.202	1	4
645.371	1	1
645.541	1	10
645.710	1	5
645.880	1	0
646.049	1	10
646.219	1	2
646.388	1	8
646.558	1	5
646.728	1	4
646.897	1	8
647.067	1	9
647.236	1	10
647.406	1	15
647.575	1	14
647.745	1	14
647.914	1	6
648.084	1	8
648.253	1	8
648.423	1	1
648.592	1	8
648.762	1	11
648.931	1	6
649.101	1	-4
649.270	1	0
649.440	1	10
649.610	1	5
649.779	1	6
649.949	1	12
650.118	1	10
650.288	1	10
650.457	1	12
650.627	1	9
650.796	1	9
650.966	1	-3
651.135	1	3
651.305	1	2
651.474	1	13
651.644	1	16
651.813	1	9
651.983	1	8
652.152	1	4
652.322	1	8
652.491	1	7
652.661	1	10
652.830	1	6
653.000	1	5
653.169	1	15
653.339	1	9
653.508	1	4
653.678	1	6
653.847	1	-4
654.017	1	13
654.186	1	7
654.356	1	-7
654.525	1	7
654.695	1	8
654.864	1	1
655.034	1	7
655.203	1	7
655.373	1	12
655.542	1	5
655.712	1	4
655.881	1	5
656.051	1	7
656.220	1	6
656.390	1	6
656.559	1	-2
656.729	1	2
656.898	1	7
657.068	1	4
657.237	1	18
657.406	1	6
657.576	1	8
657.745	1	5
657.915	1	2
658.084	1	8
658.254	1	13
658.423	1	2
658.593	1	12
658.762	1	8
658.932	1	1
659.101	1	4
659.271	1	11
659.440	1	6
659.610	1	0
659.779	1	15
659.949	1	-2
660.118	1	13
660.288	1	4
660.457	1	12
660.626	1	7
660.796	1	6
660.965	1	3
661.135	1	-5
661.304	1	4
661.474	1	3
661.643	1	8
661.813	1	7
661.982	1	9
662.152	1	9
662.321	1	-3
662.491	1	1
662.660	1	8
662.829	1	8
662.999	1	2
663.168	1	3
663.338	1	15
663.507	1	7
663.677	1	7
663.846	1	14
664.016	1	0
664.185	1	-2
664.354	1	17
664.524	1	2
664.693	1	0
664.863	1	6
665.032	1	9
665.202	1	-3
665.371	1	5
665.541	1	18
665.710	1	6
665.879	1	6
666.049	1	-4
666.218	1	4
666.388	1	6
666.557	1	14
666.727	1	0
666.896	1	9
667.065	1	-4
667.235	1	20
667.404	1	-1
667.574	1	0
667.743	1	6
667.913	1	8
668.082	1	5
668.251	1	5
668.421	1	9
668.590	1	6
668.760	1	10
668.929	1	18
669.099	1	1
669.268	1	3
669.437	1	5
669.607	1	8
669.776	1	9
669.946	1	-4
670.115	1	-9
670.285	1	13
670.454	1	13
670.623	1	7
670.793	1	13
670.962	1	-2
671.132	1	0
671.301	1	12
671.470	1	8
671.640	1	5
671.809	1	2
671.979	1	12
672.148	1	3
672.317	1	1
672.487	1	8
672.656	1	-1
672.826	1	6
672.995	1	10
673.164	1	-4
673.334	1	5
673.503	1	4
673.673	1	6
673.842	1	17
674.011	1	13
674.181	1	19
674.350	1	4
674.520	1	7
674.689	1	3
674.858	1	1
675.028	1	9
675.197	1	8
675.367	1	-1
675.536	1	12
675.705	1	12
675.875	1	10
676.044	1	-1
676.214	1	-10
676.383	1	11
676.552	1	6
676.722	1	-2
676.891	1	5
677.060	1	7
677.230	1	13
677.399	1	-11
677.569	1	16
677.738	1	9
677.907	1	-5
678.077	1	5
678.246	1	0
678.416	1	13
678.585	1	-1
678.754	1	10
678.924	1	14
679.093	1	12
679.262	1	4
679.432	1	-1
679.601	1	-1
679.771	1	3
679.940	1	13
680.109	1	5
680.279	1	7
680.448	1	15
680.617	1	5
680.787	1	0
680.956	1	14
681.125	1	10
681.295	1	-1
681.464	1	-2
681.634	1	12
681.803	1	3
681.972	1	2
682.142	1	7
682.311	1	8
682.480	1	7
682.650	1	5
682.819	1	9
682.988	1	3
683.158	1	10
683.327	1	9
683.496	1	17
683.666	1	10
683.835	1	6
684.004	1	7
684.174	1	-1
684.343	1	10
684.512	1	7
684.682	1	10
684.851	1	12
685.021	1	-7
685.190	1	7
685.359	1	-6
685.529	1	11
685.698	1	9
685.867	1	8
686.037	1	14
686.206	1	8
686.375	1	8
686.545	1	16
686.714	1	1
686.883	1	9
687.053	1	5
687.222	1	4
687.391	1	4
687.561	1	10
687.730	1	11
687.899	1	7
688.069	1	16
688.238	1	5
688.407	1	11
688.577	1	4
688.746	1	12
