340.368	1	7
340.539	1	12
340.710	1	2
340.881	1	2
341.052	1	-4
341.223	1	9
341.394	1	0
341.565	1	1
341.737	1	14
341.908	1	-5
342.079	1	-1
342.250	1	1
342.421	1	4
342.592	1	5
342.763	1	3
342.934	1	6
343.105	1	10
343.276	1	4
343.447	1	-1
343.618	1	-8
343.789	1	-2
343.960	1	-3
344.131	1	8
344.302	1	-13
344.473	1	-1
344.644	1	-11
344.815	1	-3
344.986	1	-1
345.157	1	4
345.328	1	-14
345.499	1	7
345.670	1	-5
345.841	1	-3
346.012	1	2
346.183	1	13
346.354	1	7
346.526	1	2
346.697	1	13
346.868	1	0
347.039	1	-2
347.210	1	-7
347.381	1	7
347.552	1	6
347.723	1	-2
347.894	1	8
348.065	1	11
348.236	1	12
348.407	1	8
348.578	1	4
348.749	1	3
348.920	1	-1
349.091	1	7
349.262	1	2
349.433	1	-9
349.604	1	4
349.775	1	7
349.946	1	-3
350.117	1	-3
350.288	1	6
350.459	1	2
350.630	1	7
350.801	1	14
350.972	1	7
351.143	1	13
351.314	1	1
351.485	1	11
351.656	1	4
351.827	1	19
351.998	1	2
352.169	1	-4
352.340	1	0
352.511	1	4
352.682	1	-1
352.853	1	2
353.024	1	-2
353.195	1	-5
353.366	1	-3
353.537	1	3
353.708	1	11
353.879	1	2
354.050	1	1
354.221	1	-1
354.392	1	17
354.563	1	12
354.734	1	-1
354.905	1	14
355.076	1	2
355.247	1	8
355.418	1	1
355.589	1	-3
355.760	1	14
355.931	1	8
356.102	1	-1
356.273	1	6
356.444	1	1
356.615	1	2
356.785	1	-2
356.956	1	5
357.127	1	12
357.298	1	7
357.469	1	6
357.640	1	3
357.811	1	7
357.982	1	18
358.153	1	10
358.324	1	15
358.495	1	3
358.666	1	1
358.837	1	8
359.008	1	10
359.179	1	12
359.350	1	2
359.521	1	22
359.692	1	10
359.863	1	18
360.034	1	18
360.205	1	6
360.376	1	8
360.547	1	6
360.718	1	20
360.889	1	5
361.060	1	11
361.231	1	11
361.401	1	15
361.572	1	21
361.743	1	23
361.914	1	24
362.085	1	19
362.256	1	11
362.427	1	9
362.598	1	10
362.769	1	18
362.940	1	20
363.111	1	26
363.282	1	14
363.453	1	29
363.624	1	21
363.795	1	25
363.966	1	36
364.137	1	28
364.308	1	34
364.478	1	31
364.649	1	30
364.820	1	32
364.991	1	40
365.162	1	31
365.333	1	37
365.504	1	30
365.675	1	33
365.846	1	35
366.017	1	43
366.188	1	29
366.359	1	46
366.530	1	39
366.701	1	44
366.871	1	50
367.042	1	53
367.213	1	47
367.384	1	34
367.555	1	50
367.726	1	44
367.897	1	54
368.068	1	53
368.239	1	30
368.410	1	45
368.581	1	43
368.752	1	49
368.923	1	43
369.093	1	43
369.264	1	33
369.435	1	42
369.606	1	43
369.777	1	32
369.948	1	32
370.119	1	43
370.290	1	33
370.461	1	27
370.632	1	45
370.803	1	41
370.973	1	30
371.144	1	34
371.315	1	18
371.486	1	32
371.657	1	26
371.828	1	30
371.999	1	19
372.170	1	28
372.341	1	27
372.512	1	28
372.682	1	27
372.853	1	24
373.024	1	19
373.195	1	21
373.366	1	18
373.537	1	21
373.708	1	19
373.879	1	24
374.050	1	17
374.220	1	22
374.391	1	14
374.562	1	18
374.733	1	14
374.904	1	22
375.075	1	7
375.246	1	13
375.417	1	21
375.588	1	19
375.758	1	7
375.929	1	9
376.100	1	19
376.271	1	14
376.442	1	4
376.613	1	11
376.784	1	20
376.955	1	8
377.125	1	19
377.296	1	15
377.467	1	9
377.638	1	7
377.809	1	11
377.980	1	22
378.151	1	24
378.321	1	14
378.492	1	12
378.663	1	7
378.834	1	23
379.005	1	10
379.176	1	-2
379.347	1	24
379.518	1	22
379.688	1	7
379.859	1	3
380.030	1	14
380.201	1	21
380.372	1	16
380.543	1	22
380.714	1	7
380.884	1	23
381.055	1	10
381.226	1	12
381.397	1	14
381.568	1	20
381.739	1	6
381.910	1	13
382.080	1	13
382.251	1	13
382.422	1	4
382.593	1	16
382.764	1	9
382.935	1	12
383.105	1	13
383.276	1	10
383.447	1	19
383.618	1	19
383.789	1	11
383.960	1	12
384.130	1	10
384.301	1	24
384.472	1	15
384.643	1	7
384.814	1	7
384.985	1	13
385.156	1	25
385.326	1	20
385.497	1	19
385.668	1	14
385.839	1	24
386.010	1	20
386.180	1	20
386.351	1	14
386.522	1	26
386.693	1	22
386.864	1	26
387.035	1	40
387.205	1	19
387.376	1	21
387.547	1	36
387.718	1	21
387.889	1	17
388.060	1	28
388.230	1	37
388.401	1	25
388.572	1	32
388.743	1	9
388.914	1	17
389.084	1	29
389.255	1	11
389.426	1	12
389.597	1	32
389.768	1	19
389.939	1	26
390.109	1	21
390.280	1	15
390.451	1	25
390.622	1	26
390.793	1	12
390.963	1	25
391.134	1	16
391.305	1	19
391.476	1	26
391.647	1	14
391.817	1	18
391.988	1	-1
392.159	1	22
392.330	1	17
392.501	1	17
392.671	1	13
392.842	1	19
393.013	1	26
393.184	1	19
393.355	1	23
393.525	1	12
393.696	1	14
393.867	1	14
394.038	1	12
394.208	1	15
394.379	1	11
394.550	1	17
394.721	1	14
394.892	1	14
395.062	1	17
395.233	1	8
395.404	1	20
395.575	1	20
395.746	1	11
395.916	1	18
396.087	1	19
396.258	1	19
396.429	1	21
396.599	1	32
396.770	1	24
396.941	1	17
397.112	1	19
397.283	1	9
397.453	1	21
397.624	1	17
397.795	1	5
397.966	1	33
398.136	1	17
398.307	1	14
398.478	1	9
398.649	1	15
398.819	1	24
398.990	1	10
399.161	1	17
399.332	1	22
399.503	1	20
399.673	1	-4
399.844	1	18
400.015	1	21
400.186	1	20
400.356	1	24
400.527	1	26
400.698	1	12
400.869	1	5
401.039	1	5
401.210	1	11
401.381	1	7
401.552	1	15
401.722	1	20
401.893	1	16
402.064	1	20
402.235	1	-1
402.405	1	16
402.576	1	10
402.747	1	7
402.918	1	14
403.088	1	11
403.259	1	10
403.430	1	17
403.601	1	13
403.771	1	21
403.942	1	7
404.113	1	21
404.284	1	6
404.454	1	18
404.625	1	12
404.796	1	7
404.967	1	16
405.137	1	12
405.308	1	9
405.479	1	11
405.649	1	16
405.820	1	10
405.991	1	5
406.162	1	18
406.332	1	5
406.503	1	6
406.674	1	3
406.845	1	9
407.015	1	7
407.186	1	13
407.357	1	13
407.527	1	12
407.698	1	17
407.869	1	18
408.040	1	15
408.210	1	7
408.381	1	-9
408.552	1	10
408.722	1	4
408.893	1	5
409.064	1	7
409.235	1	11
409.405	1	17
409.576	1	11
409.747	1	9
409.917	1	6
410.088	1	7
410.259	1	8
410.430	1	8
410.600	1	-3
410.771	1	11
410.942	1	9
411.112	1	13
411.283	1	13
411.454	1	4
411.625	1	4
411.795	1	12
411.966	1	15
412.137	1	15
412.307	1	9
412.478	1	11
412.649	1	5
412.819	1	13
412.990	1	2
413.161	1	5
413.332	1	5
413.502	1	3
413.673	1	28
413.844	1	21
414.014	1	4
414.185	1	5
414.356	1	7
414.526	1	11
414.697	1	10
414.868	1	4
415.038	1	14
415.209	1	3
415.380	1	17
415.550	1	14
415.721	1	5
415.892	1	12
416.063	1	11
416.233	1	5
416.404	1	0
416.575	1	3
416.745	1	3
416.916	1	3
417.087	1	13
417.257	1	12
417.428	1	1
417.599	1	10
417.769	1	5
417.940	1	11
418.111	1	6
418.281	1	1
418.452	1	6
418.623	1	6
418.793	1	8
418.964	1	6
419.135	1	14
419.305	1	4
419.476	1	-1
419.647	1	13
419.817	1	12
419.988	1	1
420.159	1	11
420.329	1	0
420.500	1	14
420.671	1	11
420.841	1	-3
421.012	1	0
421.183	1	17
421.353	1	13
421.524	1	10
421.695	1	5
421.865	1	13
422.036	1	3
422.206	1	10
422.377	1	11
422.548	1	14
422.718	1	0
422.889	1	-5
423.060	1	4
423.230	1	9
423.401	1	1
423.572	1	15
423.742	1	5
423.913	1	6
424.084	1	12
424.254	1	7
424.425	1	-8
424.595	1	6
424.766	1	4
424.937	1	8
425.107	1	9
425.278	1	2
425.449	1	2
425.619	1	16
425.790	1	10
425.961	1	7
426.131	1	-2
426.302	1	12
426.472	1	-3
426.643	1	9
426.814	1	-4
426.984	1	8
427.155	1	-5
427.326	1	0
427.496	1	-3
427.667	1	8
427.837	1	9
428.008	1	0
428.179	1	6
428.349	1	-6
428.520	1	4
428.691	1	6
428.861	1	4
429.032	1	3
429.202	1	14
429.373	1	7
429.544	1	1
429.714	1	-2
429.885	1	-3
430.055	1	5
430.226	1	-7
430.397	1	-2
430.567	1	1
430.738	1	-2
430.909	1	-4
431.079	1	4
431.250	1	-2
431.420	1	1
431.591	1	9
431.762	1	2
431.932	1	-12
432.103	1	-1
432.273	1	10
432.444	1	-7
432.615	1	-2
432.785	1	-5
432.956	1	1
433.126	1	-2
433.297	1	8
433.468	1	9
433.638	1	7
433.809	1	9
433.979	1	0
434.150	1	7
434.320	1	8
434.491	1	10
434.662	1	15
434.832	1	5
435.003	1	2
435.173	1	8
435.344	1	4
435.515	1	4
435.685	1	13
435.856	1	-6
436.026	1	6
436.197	1	-2
436.368	1	13
436.538	1	-5
436.709	1	-4
436.879	1	3
437.050	1	12
437.220	1	-3
437.391	1	11
437.562	1	1
437.732	1	10
437.903	1	-12
438.073	1	3
438.244	1	1
438.414	1	3
438.585	1	1
438.756	1	11
438.926	1	2
439.097	1	9
439.267	1	7
439.438	1	12
439.608	1	6
439.779	1	-2
439.949	1	-2
440.120	1	-12
440.291	1	13
440.461	1	9
440.632	1	14
440.802	1	9
440.973	1	2
441.143	1	11
441.314	1	-6
441.485	1	11
441.655	1	-6
441.826	1	-9
441.996	1	-4
442.167	1	6
442.337	1	4
442.508	1	1
442.678	1	-5
442.849	1	-12
443.019	1	12
443.190	1	14
443.361	1	14
443.531	1	-1
443.702	1	-7
443.872	1	1
444.043	1	8
444.213	1	7
444.384	1	9
444.554	1	2
444.725	1	4
444.895	1	5
445.066	1	4
445.237	1	2
445.407	1	-3
445.578	1	11
445.748	1	-5
445.919	1	7
446.089	1	-1
446.260	1	-8
446.430	1	-7
446.601	1	13
446.771	1	-5
446.942	1	8
447.112	1	12
447.283	1	-7
447.453	1	1
447.624	1	-3
447.794	1	6
447.965	1	8
448.135	1	-3
448.306	1	5
448.477	1	10
448.647	1	1
448.818	1	5
448.988	1	-9
449.159	1	10
449.329	1	7
449.500	1	-7
449.670	1	0
449.841	1	-4
450.011	1	4
450.182	1	-2
450.352	1	6
450.523	1	11
450.693	1	18
450.864	1	-4
451.034	1	17
451.205	1	-5
451.375	1	4
451.546	1	2
451.716	1	14
451.887	1	-7
452.057	1	11
452.228	1	3
452.398	1	5
452.569	1	-10
452.739	1	11
452.910	1	-2
453.080	1	3
453.251	1	-3
453.421	1	-5
453.592	1	10
453.762	1	4
453.933	1	-3
454.103	1	2
454.274	1	9
454.444	1	7
454.615	1	9
454.785	1	6
454.956	1	4
455.126	1	5
455.297	1	1
455.467	1	-1
455.638	1	8
455.808	1	-2
455.979	1	10
456.149	1	8
456.320	1	19
456.490	1	0
456.661	1	-6
456.831	1	-2
457.001	1	-1
457.172	1	11
457.342	1	-5
457.513	1	10
457.683	1	9
457.854	1	3
458.024	1	-6
458.195	1	-3
458.365	1	14
458.536	1	3
458.706	1	-3
458.877	1	-3
459.047	1	7
459.218	1	2
459.388	1	11
459.559	1	0
459.729	1	1
459.899	1	3
460.070	1	7
460.240	1	1
460.411	1	9
460.581	1	2
460.752	1	5
460.922	1	22
461.093	1	8
461.263	1	-1
461.434	1	19
461.604	1	18
461.775	1	4
461.945	1	-1
462.115	1	7
462.286	1	4
462.456	1	3
462.627	1	12
462.797	1	0
462.968	1	-4
463.138	1	9
463.309	1	0
463.479	1	6
463.649	1	-3
463.820	1	0
463.990	1	-3
464.161	1	3
464.331	1	9
464.502	1	15
464.672	1	-9
464.843	1	-5
465.013	1	1
465.183	1	-2
465.354	1	11
465.524	1	-4
465.695	1	4
465.865	1	6
466.036	1	-5
466.206	1	-1
466.376	1	-1
466.547	1	-1
466.717	1	0
466.888	1	-6
467.058	1	-5
467.229	1	11
467.399	1	0
467.569	1	13
467.740	1	5
467.910	1	5
468.081	1	6
468.251	1	4
468.422	1	0
468.592	1	-4
468.762	1	-3
468.933	1	4
469.103	1	5
469.274	1	-2
469.444	1	11
469.614	1	8
469.785	1	9
469.955	1	3
470.126	1	-1
470.296	1	6
470.467	1	-9
470.637	1	3
470.807	1	11
470.978	1	7
471.148	1	3
471.319	1	3
471.489	1	-13
471.659	1	-2
471.830	1	7
472.000	1	-2
472.171	1	2
472.341	1	-4
472.511	1	13
472.682	1	-11
472.852	1	7
473.023	1	2
473.193	1	6
473.363	1	2
473.534	1	2
473.704	1	-5
473.875	1	4
474.045	1	-3
474.215	1	9
474.386	1	8
474.556	1	13
474.727	1	-3
474.897	1	0
475.067	1	-5
475.238	1	-5
475.408	1	3
475.578	1	2
475.749	1	7
475.919	1	3
476.090	1	2
476.260	1	-2
476.430	1	11
476.601	1	14
476.771	1	-6
476.942	1	-3
477.112	1	9
477.282	1	6
477.453	1	1
477.623	1	2
477.793	1	2
477.964	1	3
478.134	1	2
478.305	1	-2
478.475	1	-1
478.645	1	3
478.816	1	2
478.986	1	4
479.156	1	3
479.327	1	8
479.497	1	13
479.667	1	16
479.838	1	-9
480.008	1	6
480.179	1	-12
480.349	1	6
480.519	1	1
480.690	1	0
480.860	1	3
481.030	1	9
481.201	1	0
481.371	1	6
481.541	1	7
481.712	1	2
481.882	1	-7
482.053	1	12
482.223	1	6
482.393	1	0
482.564	1	1
482.734	1	3
482.904	1	1
483.075	1	0
483.245	1	2
483.415	1	0
483.586	1	11
483.756	1	10
483.926	1	-5
484.097	1	9
484.267	1	0
484.437	1	4
484.608	1	3
484.778	1	-4
484.948	1	-7
485.119	1	-4
485.289	1	11
485.459	1	5
485.630	1	8
485.800	1	9
485.970	1	8
486.141	1	-8
486.311	1	5
486.481	1	3
486.652	1	3
486.822	1	-7
486.992	1	13
487.163	1	4
487.333	1	3
487.503	1	8
487.674	1	8
487.844	1	-2
488.014	1	-3
488.185	1	2
488.355	1	3
488.525	1	-2
488.696	1	1
488.866	1	-3
489.036	1	8
489.207	1	0
489.377	1	-8
489.547	1	4
489.718	1	9
489.888	1	0
490.058	1	4
490.228	1	1
490.399	1	6
490.569	1	12
490.739	1	0
490.910	1	-8
491.080	1	0
491.250	1	4
491.421	1	12
491.591	1	-3
491.761	1	-1
491.932	1	1
492.102	1	-2
492.272	1	0
492.442	1	0
492.613	1	11
492.783	1	13
492.953	1	12
493.124	1	6
493.294	1	8
493.464	1	12
493.635	1	4
493.805	1	8
493.975	1	3
494.145	1	8
494.316	1	8
494.486	1	6
494.656	1	1
494.827	1	11
494.997	1	6
495.167	1	6
495.337	1	1
495.508	1	6
495.678	1	0
495.848	1	13
496.019	1	10
496.189	1	3
496.359	1	11
496.529	1	5
496.700	1	5
496.870	1	1
497.040	1	4
497.211	1	11
497.381	1	7
497.551	1	-2
497.721	1	2
497.892	1	13
498.062	1	2
498.232	1	7
498.403	1	3
498.573	1	13
498.743	1	17
498.913	1	9
499.084	1	2
499.254	1	-3
499.424	1	-1
499.594	1	-1
499.765	1	16
499.935	1	0
500.105	1	9
500.275	1	2
500.446	1	9
500.616	1	1
500.786	1	19
500.956	1	10
501.127	1	6
501.297	1	8
501.467	1	6
501.638	1	18
501.808	1	12
501.978	1	4
502.148	1	5
502.319	1	15
502.489	1	0
502.659	1	19
502.829	1	10
503.000	1	12
503.170	1	6
503.340	1	12
503.510	1	7
503.681	1	4
503.851	1	8
504.021	1	12
504.191	1	17
504.362	1	10
504.532	1	14
504.702	1	10
504.872	1	-4
505.042	1	0
505.213	1	15
505.383	1	13
505.553	1	1
505.723	1	26
505.894	1	7
506.064	1	11
506.234	1	-2
506.404	1	9
506.575	1	7
506.745	1	17
506.915	1	14
507.085	1	1
507.256	1	17
507.426	1	-6
507.596	1	9
507.766	1	14
507.936	1	6
508.107	1	24
508.277	1	-1
508.447	1	9
508.617	1	12
508.788	1	18
508.958	1	11
509.128	1	13
509.298	1	7
509.468	1	13
509.639	1	7
509.809	1	19
509.979	1	20
510.149	1	15
510.319	1	12
510.490	1	11
510.660	1	20
510.830	1	9
511.000	1	9
511.171	1	12
511.341	1	18
511.511	1	11
511.681	1	12
511.851	1	14
512.022	1	6
512.192	1	12
512.362	1	17
512.532	1	3
512.702	1	16
512.873	1	16
513.043	1	13
513.213	1	23
513.383	1	8
513.553	1	19
513.724	1	5
513.894	1	3
514.064	1	21
514.234	1	24
514.404	1	24
514.575	1	9
514.745	1	11
514.915	1	1
515.085	1	8
515.255	1	9
515.425	1	10
515.596	1	19
515.766	1	19
515.936	1	7
516.106	1	6
516.276	1	15
516.447	1	15
516.617	1	18
516.787	1	2
516.957	1	7
517.127	1	12
517.297	1	11
517.468	1	7
517.638	1	14
517.808	1	13
517.978	1	13
518.148	1	7
518.319	1	9
518.489	1	8
518.659	1	14
518.829	1	6
518.999	1	17
519.169	1	13
519.340	1	18
519.510	1	21
519.680	1	13
519.850	1	14
520.020	1	15
520.190	1	16
520.361	1	14
520.531	1	21
520.701	1	20
520.871	1	15
521.041	1	19
521.211	1	22
521.382	1	9
521.552	1	11
521.722	1	20
521.892	1	19
522.062	1	11
522.232	1	22
522.402	1	21
522.573	1	12
522.743	1	14
522.913	1	16
523.083	1	16
523.253	1	7
523.423	1	11
523.593	1	16
523.764	1	17
523.934	1	21
524.104	1	7
524.274	1	17
524.444	1	11
524.614	1	17
524.784	1	19
524.955	1	13
525.125	1	14
525.295	1	22
525.465	1	19
525.635	1	23
525.805	1	25
525.975	1	12
526.146	1	18
526.316	1	11
526.486	1	24
526.656	1	12
526.826	1	18
526.996	1	10
527.166	1	13
527.337	1	11
527.507	1	12
527.677	1	29
527.847	1	22
528.017	1	20
528.187	1	11
528.357	1	26
528.527	1	32
528.698	1	9
528.868	1	12
529.038	1	26
529.208	1	-1
529.378	1	17
529.548	1	26
529.718	1	20
529.888	1	14
530.058	1	14
530.229	1	19
530.399	1	3
530.569	1	10
530.739	1	7
530.909	1	4
531.079	1	1
531.249	1	9
531.419	1	19
531.589	1	20
531.760	1	18
531.930	1	15
532.100	1	12
532.270	1	18
532.440	1	10
532.610	1	22
532.780	1	17
532.950	1	10
533.120	1	29
533.290	1	17
533.461	1	20
533.631	1	19
533.801	1	23
533.971	1	18
534.141	1	9
534.311	1	27
534.481	1	27
534.651	1	-1
534.821	1	22
534.991	1	19
535.162	1	7
535.332	1	15
535.502	1	15
535.672	1	6
535.842	1	16
536.012	1	9
536.182	1	25
536.352	1	18
536.522	1	14
536.692	1	6
536.862	1	19
537.032	1	14
537.203	1	20
537.373	1	20
537.543	1	8
537.713	1	9
537.883	1	18
538.053	1	23
538.223	1	18
538.393	1	27
538.563	1	29
538.733	1	20
538.903	1	15
539.073	1	6
539.243	1	18
539.413	1	9
539.584	1	8
539.754	1	17
539.924	1	15
540.094	1	14
540.264	1	4
540.434	1	21
540.604	1	3
540.774	1	11
540.944	1	19
541.114	1	7
541.284	1	7
541.454	1	10
541.624	1	20
541.794	1	3
541.964	1	6
542.134	1	15
542.305	1	21
542.475	1	7
542.645	1	9
542.815	1	8
542.985	1	12
543.155	1	4
543.325	1	15
543.495	1	27
543.665	1	16
543.835	1	0
544.005	1	16
544.175	1	14
544.345	1	19
544.515	1	9
544.685	1	24
544.855	1	20
545.025	1	21
545.195	1	17
545.365	1	11
545.535	1	11
545.705	1	18
545.875	1	9
546.045	1	14
546.216	1	1
546.386	1	14
546.556	1	10
546.726	1	21
546.896	1	11
547.066	1	19
547.236	1	7
547.406	1	8
547.576	1	13
547.746	1	23
547.916	1	16
548.086	1	9
548.256	1	9
548.426	1	18
548.596	1	13
548.766	1	28
548.936	1	20
549.106	1	22
549.276	1	19
549.446	1	10
549.616	1	10
549.786	1	4
549.956	1	7
550.126	1	3
550.296	1	17
550.466	1	18
550.636	1	23
550.806	1	16
550.976	1	13
551.146	1	7
551.316	1	10
551.486	1	17
551.656	1	20
551.826	1	32
551.996	1	7
552.166	1	10
552.336	1	6
552.506	1	16
552.676	1	14
552.846	1	13
553.016	1	17
553.186	1	17
553.356	1	8
553.526	1	12
553.696	1	27
553.866	1	22
554.036	1	6
554.206	1	17
554.376	1	3
554.546	1	7
554.716	1	5
554.886	1	21
555.056	1	10
555.226	1	17
555.396	1	11
555.566	1	8
555.736	1	10
555.906	1	9
556.076	1	13
556.246	1	5
556.416	1	3
556.586	1	6
556.756	1	3
556.926	1	9
557.096	1	18
557.266	1	4
557.436	1	17
557.606	1	11
557.776	1	15
557.946	1	9
558.116	1	16
558.286	1	13
558.456	1	6
558.626	1	4
558.796	1	4
558.966	1	4
559.136	1	5
559.306	1	11
559.476	1	11
559.646	1	9
559.816	1	17
559.986	1	4
560.155	1	14
560.325	1	4
560.495	1	14
560.665	1	10
560.835	1	6
561.005	1	14
561.175	1	6
561.345	1	10
561.515	1	6
561.685	1	1
561.855	1	-1
562.025	1	18
562.195	1	12
562.365	1	17
562.535	1	6
562.705	1	6
562.875	1	-4
563.045	1	0
563.215	1	2
563.385	1	-6
563.555	1	-1
563.725	1	4
563.895	1	18
564.064	1	0
564.234	1	8
564.404	1	5
564.574	1	21
564.744	1	10
564.914	1	3
565.084	1	3
565.254	1	11
565.424	1	12
565.594	1	5
565.764	1	-4
565.934	1	10
566.104	1	13
566.274	1	21
566.444	1	2
566.614	1	3
566.783	1	13
566.953	1	4
567.123	1	8
567.293	1	4
567.463	1	3
567.633	1	6
567.803	1	13
567.973	1	20
568.143	1	8
568.313	1	1
568.483	1	12
568.653	1	-5
568.823	1	6
568.993	1	8
569.162	1	11
569.332	1	10
569.502	1	9
569.672	1	10
569.842	1	-2
570.012	1	13
570.182	1	4
570.352	1	-6
570.522	1	4
570.692	1	10
570.862	1	10
571.031	1	13
571.201	1	9
571.371	1	14
571.541	1	3
571.711	1	2
571.881	1	8
572.051	1	-1
572.221	1	6
572.391	1	9
572.561	1	1
572.731	1	4
572.900	1	6
573.070	1	10
573.240	1	-2
573.410	1	11
573.580	1	-2
573.750	1	10
573.920	1	0
574.090	1	12
574.260	1	3
574.430	1	2
574.599	1	7
574.769	1	4
574.939	1	-2
575.109	1	-2
575.279	1	13
575.449	1	11
575.619	1	9
575.789	1	1
575.959	1	11
576.128	1	-6
576.298	1	11
576.468	1	13
576.638	1	-1
576.808	1	5
576.978	1	4
577.148	1	8
577.318	1	14
577.487	1	11
577.657	1	10
577.827	1	4
577.997	1	12
578.167	1	7
578.337	1	8
578.507	1	8
578.677	1	5
578.846	1	6
579.016	1	8
579.186	1	11
579.356	1	3
579.526	1	-9
579.696	1	9
579.866	1	0
580.036	1	8
580.205	1	-7
580.375	1	13
580.545	1	9
580.715	1	13
580.885	1	18
581.055	1	4
581.225	1	12
581.394	1	-12
581.564	1	10
581.734	1	1
581.904	1	1
582.074	1	12
582.244	1	15
582.414	1	10
582.583	1	5
582.753	1	15
582.923	1	1
583.093	1	8
583.263	1	7
583.433	1	10
583.603	1	-4
583.772	1	-6
583.942	1	12
584.112	1	4
584.282	1	1
584.452	1	5
584.622	1	6
584.791	1	0
584.961	1	-7
585.131	1	3
585.301	1	8
585.471	1	-2
585.641	1	10
585.811	1	1
585.980	1	-1
586.150	1	5
586.320	1	5
586.490	1	6
586.660	1	19
586.830	1	-2
586.999	1	3
587.169	1	9
587.339	1	2
587.509	1	6
587.679	1	4
587.849	1	10
588.018	1	-7
588.188	1	5
588.358	1	7
588.528	1	-2
588.698	1	-7
588.867	1	1
589.037	1	0
589.207	1	15
589.377	1	9
589.547	1	5
589.717	1	0
589.886	1	14
590.056	1	5
590.226	1	-3
590.396	1	-3
590.566	1	3
590.735	1	-13
590.905	1	12
591.075	1	-8
591.245	1	3
591.415	1	5
591.585	1	13
591.754	1	4
591.924	1	11
592.094	1	-4
592.264	1	2
592.434	1	2
592.603	1	-1
592.773	1	7
592.943	1	4
593.113	1	2
593.283	1	3
593.452	1	-7
593.622	1	4
593.792	1	11
593.962	1	8
594.132	1	0
594.301	1	9
594.471	1	5
594.641	1	3
594.811	1	7
594.981	1	7
595.150	1	7
595.320	1	-2
595.490	1	7
595.660	1	12
595.829	1	-10
595.999	1	-7
596.169	1	12
596.339	1	10
596.509	1	2
596.678	1	7
596.848	1	11
597.018	1	4
597.188	1	-7
597.358	1	0
597.527	1	2
597.697	1	0
597.867	1	11
598.037	1	5
598.206	1	6
598.376	1	6
598.546	1	10
598.716	1	-14
598.885	1	-5
599.055	1	-1
599.225	1	6
599.395	1	9
599.565	1	-1
599.734	1	2
599.904	1	-4
600.074	1	1
600.244	1	0
600.413	1	-1
600.583	1	-2
600.753	1	2
600.923	1	2
601.092	1	3
601.262	1	2
601.432	1	3
601.602	1	12
601.771	1	8
601.941	1	11
602.111	1	2
602.281	1	1
602.451	1	-5
602.620	1	0
602.790	1	2
602.960	1	-5
603.130	1	-2
603.299	1	5
603.469	1	-2
603.639	1	-13
603.809	1	15
603.978	1	-6
604.148	1	4
604.318	1	10
604.487	1	12
604.657	1	-12
604.827	1	8
604.997	1	8
605.166	1	0
605.336	1	-1
605.506	1	-8
605.676	1	17
605.845	1	-3
606.015	1	-8
606.185	1	-4
606.355	1	-4
606.524	1	10
606.694	1	7
606.864	1	8
607.034	1	1
607.203	1	8
607.373	1	12
607.543	1	-3
607.712	1	0
607.882	1	6
608.052	1	7
608.222	1	7
608.391	1	12
608.561	1	6
608.731	1	-5
608.901	1	5
609.070	1	-10
609.240	1	0
609.410	1	-5
609.579	1	2
609.749	1	3
609.919	1	-13
610.089	1	-3
610.258	1	9
610.428	1	12
610.598	1	-4
610.767	1	10
610.937	1	-1
611.107	1	3
611.277	1	-4
611.446	1	0
611.616	1	4
611.786	1	5
611.955	1	-3
612.125	1	8
612.295	1	1
612.465	1	1
612.634	1	2
612.804	1	1
612.974	1	-1
613.143	1	16
613.313	1	4
613.483	1	11
613.652	1	5
613.822	1	2
613.992	1	-6
614.162	1	2
614.331	1	6
614.501	1	0
614.671	1	7
614.840	1	3
615.010	1	4
615.180	1	15
615.349	1	11
615.519	1	0
615.689	1	-13
615.858	1	8
616.028	1	4
616.198	1	-3
616.368	1	5
616.537	1	-1
616.707	1	8
616.877	1	9
617.046	1	3
617.216	1	9
617.386	1	11
617.555	1	-10
617.725	1	13
617.895	1	-2
618.064	1	2
618.234	1	-3
618.404	1	-4
618.573	1	1
618.743	1	19
618.913	1	5
619.082	1	-2
619.252	1	2
619.422	1	-11
619.591	1	0
619.761	1	-3
619.931	1	9
620.100	1	15
620.270	1	2
620.440	1	14
620.609	1	9
620.779	1	10
620.949	1	-2
621.118	1	-2
621.288	1	-4
621.458	1	8
621.627	1	3
621.797	1	-6
621.967	1	9
622.136	1	7
622.306	1	2
622.476	1	-9
622.645	1	8
622.815	1	7
622.985	1	6
623.154	1	3
623.324	1	10
623.494	1	-7
623.663	1	-1
623.833	1	9
624.002	1	2
624.172	1	7
624.342	1	3
624.511	1	-5
624.681	1	4
624.851	1	3
625.020	1	3
625.190	1	-2
625.360	1	-1
625.529	1	-2
625.699	1	8
625.869	1	2
626.038	1	-10
626.208	1	12
626.377	1	3
626.547	1	2
626.717	1	-12
626.886	1	-1
627.056	1	1
627.226	1	10
627.395	1	-2
627.565	1	5
627.735	1	-1
627.904	1	6
628.074	1	6
628.243	1	11
628.413	1	-5
628.583	1	8
628.752	1	-7
628.922	1	-5
629.091	1	4
629.261	1	4
629.431	1	5
629.600	1	9
629.770	1	3
629.940	1	-7
630.109	1	-3
630.279	1	12
630.448	1	3
630.618	1	8
630.788	1	10
630.957	1	4
631.127	1	1
631.297	1	2
631.466	1	10
631.636	1	13
631.805	1	6
631.975	1	1
632.145	1	10
632.314	1	0
632.484	1	8
632.653	1	3
632.823	1	0
632.993	1	6
633.162	1	6
633.332	1	-9
633.501	1	-4
633.671	1	4
633.841	1	7
634.010	1	11
634.180	1	13
634.349	1	13
634.519	1	4
634.689	1	2
634.858	1	4
635.028	1	-4
635.197	1	-3
635.367	1	8
635.537	1	4
635.706	1	-2
635.876	1	6
636.045	1	2
636.215	1	20
636.384	1	-8
636.554	1	-1
636.724	1	-6
636.893	1	1
637.063	1	2
637.232	1	7
637.402	1	6
637.572	1	5
637.741	1	-1
637.911	1	3
638.080	1	13
638.250	1	-1
638.419	1	-2
638.589	1	7
638.759	1	-4
638.928	1	-4
639.098	1	-2
639.267	1	7
639.437	1	11
639.606	1	11
639.776	1	10
639.946	1	8
640.115	1	-1
640.285	1	11
640.454	1	7
640.624	1	1
640.793	1	-3
640.963	1	2
641.132	1	6
641.302	1	2
641.472	1	7
641.641	1	2
641.811	1	-1
641.980	1	9
642.150	1	-6
642.319	1	2
642.489	1	-12
642.659	1	10
642.828	1	7
642.998	1	5
643.167	1	-15
643.337	1	1
643.506	1	4
643.676	1	6
643.845	1	7
644.015	1	-2
644.184	1	-10
644.354	1	2
644.524	1	9
644.693	1	5
644.863	1	11
645.032	1	2
645.202	1	3
645.371	1	-8
645.541	1	9
645.710	1	3
645.880	1	-5
646.049	1	4
646.219	1	-7
646.388	1	4
646.558	1	7
646.728	1	-1
646.897	1	-6
647.067	1	4
647.236	1	10
647.406	1	12
647.575	1	5
647.745	1	3
647.914	1	-1
648.084	1	-5
648.253	1	0
648.423	1	-3
648.592	1	-14
648.762	1	9
648.931	1	8
649.101	1	-3
649.270	1	-3
649.440	1	5
649.610	1	10
649.779	1	6
649.949	1	0
650.118	1	6
650.288	1	3
650.457	1	3
650.627	1	4
650.796	1	0
650.966	1	-10
651.135	1	-1
651.305	1	1
651.474	1	9
651.644	1	7
651.813	1	10
651.983	1	6
652.152	1	9
652.322	1	-10
652.491	1	12
652.661	1	3
652.830	1	8
653.000	1	1
653.169	1	6
653.339	1	6
653.508	1	-1
653.678	1	-9
653.847	1	-8
654.017	1	13
654.186	1	-4
654.356	1	-4
654.525	1	-6
654.695	1	0
654.864	1	4
655.034	1	-3
655.203	1	7
655.373	1	7
655.542	1	2
655.712	1	3
655.881	1	15
656.051	1	0
656.220	1	4
656.390	1	3
656.559	1	-3
656.729	1	-3
656.898	1	10
657.068	1	4
657.237	1	10
657.406	1	9
657.576	1	-1
657.745	1	1
657.915	1	-2
658.084	1	-7
658.254	1	8
658.423	1	10
658.593	1	12
658.762	1	-5
658.932	1	-1
659.101	1	-2
659.271	1	11
659.440	1	0
659.610	1	7
659.779	1	10
659.949	1	2
660.118	1	15
660.288	1	-7
660.457	1	4
660.626	1	17
660.796	1	6
660.965	1	12
661.135	1	-8
661.304	1	-7
661.474	1	4
661.643	1	1
661.813	1	4
661.982	1	-1
662.152	1	2
662.321	1	-9
662.491	1	-3
662.660	1	6
662.829	1	13
662.999	1	-10
663.168	1	6
663.338	1	11
663.507	1	2
663.677	1	0
663.846	1	2
664.016	1	-3
664.185	1	-10
664.354	1	14
664.524	1	6
664.693	1	-4
664.863	1	0
665.032	1	3
665.202	1	-10
665.371	1	1
665.541	1	10
665.710	1	2
665.879	1	-6
666.049	1	-1
666.218	1	10
666.388	1	13
666.557	1	7
666.727	1	2
666.896	1	10
667.065	1	-2
667.235	1	20
667.404	1	-1
667.574	1	0
667.743	1	4
667.913	1	13
668.082	1	2
668.251	1	-1
668.421	1	-2
668.590	1	2
668.760	1	10
668.929	1	6
669.099	1	6
669.268	1	-7
669.437	1	-1
669.607	1	8
669.776	1	8
669.946	1	2
670.115	1	-14
670.285	1	15
670.454	1	-2
670.623	1	0
670.793	1	7
670.962	1	7
671.132	1	-12
671.301	1	2
671.470	1	5
671.640	1	4
671.809	1	-2
671.979	1	9
672.148	1	8
672.317	1	-2
672.487	1	4
672.656	1	-12
672.826	1	5
672.995	1	-1
673.164	1	0
673.334	1	-2
673.503	1	3
673.673	1	2
673.842	1	11
674.011	1	9
674.181	1	5
674.350	1	2
674.520	1	5
674.689	1	-5
674.858	1	0
675.028	1	7
675.197	1	2
675.367	1	5
675.536	1	5
675.705	1	4
675.875	1	2
676.044	1	-10
676.214	1	2
676.383	1	6
676.552	1	0
676.722	1	-9
676.891	1	-1
677.060	1	3
677.230	1	8
677.399	1	-5
677.569	1	8
677.738	1	0
677.907	1	-3
678.077	1	8
678.246	1	8
678.416	1	-3
678.585	1	2
678.754	1	5
678.924	1	8
679.093	1	1
679.262	1	4
679.432	1	7
679.601	1	-13
679.771	1	4
679.940	1	3
680.109	1	-1
680.279	1	6
680.448	1	6
680.617	1	-4
680.787	1	-9
680.956	1	5
681.125	1	8
681.295	1	1
681.464	1	-6
681.634	1	8
681.803	1	3
681.972	1	2
682.142	1	6
682.311	1	12
682.480	1	-4
682.650	1	5
682.819	1	2
682.988	1	6
683.158	1	4
683.327	1	5
683.496	1	8
683.666	1	-1
683.835	1	-5
684.004	1	1
684.174	1	2
684.343	1	6
684.512	1	6
684.682	1	1
684.851	1	9
685.021	1	1
685.190	1	7
685.359	1	4
685.529	1	13
685.698	1	-3
685.867	1	3
686.037	1	0
686.206	1	0
686.375	1	9
686.545	1	15
686.714	1	-3
686.883	1	7
687.053	1	-8
687.222	1	2
687.391	1	7
687.561	1	11
687.730	1	6
687.899	1	-6
688.069	1	9
688.238	1	-1
688.407	1	5
688.577	1	-1
688.746	1	4
