340.368	1	8
340.539	1	15
340.710	1	-3
340.881	1	4
341.052	1	-6
341.223	1	2
341.394	1	-10
341.565	1	5
341.737	1	11
341.908	1	-4
342.079	1	-11
342.250	1	-2
342.421	1	9
342.592	1	7
342.763	1	7
342.934	1	-1
343.105	1	9
343.276	1	2
343.447	1	-8
343.618	1	-6
343.789	1	-7
343.960	1	5
344.131	1	9
344.302	1	6
344.473	1	3
344.644	1	-1
344.815	1	-13
344.986	1	6
345.157	1	2
345.328	1	-2
345.499	1	3
345.670	1	-2
345.841	1	4
346.012	1	8
346.183	1	2
346.354	1	-3
346.526	1	-2
346.697	1	2
346.868	1	-5
347.039	1	-9
347.210	1	-2
347.381	1	2
347.552	1	3
347.723	1	0
347.894	1	5
348.065	1	9
348.236	1	6
348.407	1	5
348.578	1	-3
348.749	1	0
348.920	1	-4
349.091	1	1
349.262	1	0
349.433	1	-1
349.604	1	5
349.775	1	4
349.946	1	1
350.117	1	3
350.288	1	4
350.459	1	-1
350.630	1	-3
350.801	1	4
350.972	1	9
351.143	1	8
351.314	1	1
351.485	1	4
351.656	1	-1
351.827	1	9
351.998	1	-2
352.169	1	-4
352.340	1	6
352.511	1	3
352.682	1	7
352.853	1	3
353.024	1	1
353.195	1	-2
353.366	1	-1
353.537	1	10
353.708	1	0
353.879	1	-6
354.050	1	11
354.221	1	8
354.392	1	9
354.563	1	16
354.734	1	5
354.905	1	5
355.076	1	13
355.247	1	3
355.418	1	4
355.589	1	1
355.760	1	5
355.931	1	1
356.102	1	2
356.273	1	0
356.444	1	13
356.615	1	8
356.785	1	6
356.956	1	6
357.127	1	5
357.298	1	3
357.469	1	4
357.640	1	10
357.811	1	-4
357.982	1	14
358.153	1	14
358.324	1	17
358.495	1	5
358.666	1	1
358.837	1	18
359.008	1	14
359.179	1	9
359.350	1	5
359.521	1	27
359.692	1	18
359.863	1	14
360.034	1	12
360.205	1	10
360.376	1	7
360.547	1	0
360.718	1	21
360.889	1	19
361.060	1	14
361.231	1	6
361.401	1	12
361.572	1	11
361.743	1	20
361.914	1	24
362.085	1	26
362.256	1	17
362.427	1	9
362.598	1	17
362.769	1	23
362.940	1	26
363.111	1	22
363.282	1	12
363.453	1	25
363.624	1	14
363.795	1	22
363.966	1	29
364.137	1	29
364.308	1	42
364.478	1	26
364.649	1	32
364.820	1	35
364.991	1	40
365.162	1	27
365.333	1	24
365.504	1	30
365.675	1	34
365.846	1	47
366.017	1	33
366.188	1	43
366.359	1	57
366.530	1	47
366.701	1	52
366.871	1	48
367.042	1	51
367.213	1	51
367.384	1	42
367.555	1	45
367.726	1	46
367.897	1	51
368.068	1	52
368.239	1	41
368.410	1	32
368.581	1	43
368.752	1	45
368.923	1	44
369.093	1	37
369.264	1	30
369.435	1	34
369.606	1	43
369.777	1	34
369.948	1	36
370.119	1	40
370.290	1	33
370.461	1	25
370.632	1	32
370.803	1	40
370.973	1	31
371.144	1	26
371.315	1	27
371.486	1	28
371.657	1	25
371.828	1	34
371.999	1	19
372.170	1	23
372.341	1	21
372.512	1	23
372.682	1	19
372.853	1	19
373.024	1	34
373.195	1	13
373.366	1	20
373.537	1	34
373.708	1	12
373.879	1	24
374.050	1	21
374.220	1	14
374.391	1	23
374.562	1	19
374.733	1	7
374.904	1	27
375.075	1	18
375.246	1	5
375.417	1	26
375.588	1	21
375.758	1	11
375.929	1	19
376.100	1	20
376.271	1	17
376.442	1	1
376.613	1	11
376.784	1	19
376.955	1	4
377.125	1	16
377.296	1	10
377.467	1	7
377.638	1	8
377.809	1	17
377.980	1	13
378.151	1	17
378.321	1	11
378.492	1	19
378.663	1	13
378.834	1	30
379.005	1	6
379.176	1	3
379.347	1	15
379.518	1	6
379.688	1	8
379.859	1	16
380.030	1	21
380.201	1	18
380.372	1	16
380.543	1	13
380.714	1	14
380.884	1	18
381.055	1	3
381.226	1	15
381.397	1	23
381.568	1	11
381.739	1	18
381.910	1	11
382.080	1	19
382.251	1	1
382.422	1	11
382.593	1	18
382.764	1	9
382.935	1	18
383.105	1	17
383.276	1	15
383.447	1	11
383.618	1	22
383.789	1	6
383.960	1	7
384.130	1	11
384.301	1	16
384.472	1	13
384.643	1	17
384.814	1	14
384.985	1	19
385.156	1	22
385.326	1	24
385.497	1	24
385.668	1	21
385.839	1	22
386.010	1	29
386.180	1	21
386.351	1	13
386.522	1	21
386.693	1	18
386.864	1	20
387.035	1	29
387.205	1	18
387.376	1	24
387.547	1	42
387.718	1	17
387.889	1	21
388.060	1	24
388.230	1	27
388.401	1	11
388.572	1	27
388.743	1	22
388.914	1	18
389.084	1	18
389.255	1	17
389.426	1	11
389.597	1	30
389.768	1	23
389.939	1	23
390.109	1	27
390.280	1	13
390.451	1	21
390.622	1	23
390.793	1	15
390.963	1	12
391.134	1	1
391.305	1	20
391.476	1	28
391.647	1	15
391.817	1	30
391.988	1	11
392.159	1	26
392.330	1	21
392.501	1	16
392.671	1	12
392.842	1	22
393.013	1	24
393.184	1	19
393.355	1	21
393.525	1	15
393.696	1	11
393.867	1	17
394.038	1	19
394.208	1	23
394.379	1	5
394.550	1	19
394.721	1	14
394.892	1	12
395.062	1	27
395.233	1	6
395.404	1	22
395.575	1	20
395.746	1	16
395.916	1	22
396.087	1	19
396.258	1	17
396.429	1	9
396.599	1	17
396.770	1	28
396.941	1	14
397.112	1	12
397.283	1	17
397.453	1	18
397.624	1	16
397.795	1	26
397.966	1	27
398.136	1	17
398.307	1	25
398.478	1	10
398.649	1	10
398.819	1	30
398.990	1	9
399.161	1	18
399.332	1	27
399.503	1	21
399.673	1	-3
399.844	1	25
400.015	1	15
400.186	1	14
400.356	1	24
400.527	1	14
400.698	1	5
400.869	1	8
401.039	1	11
401.210	1	20
401.381	1	3
401.552	1	17
401.722	1	15
401.893	1	20
402.064	1	11
402.235	1	1
402.405	1	9
402.576	1	-1
402.747	1	16
402.918	1	10
403.088	1	6
403.259	1	7
403.430	1	13
403.601	1	13
403.771	1	19
403.942	1	6
404.113	1	17
404.284	1	11
404.454	1	16
404.625	1	12
404.796	1	5
404.967	1	10
405.137	1	12
405.308	1	10
405.479	1	13
405.649	1	19
405.820	1	14
405.991	1	18
406.162	1	16
406.332	1	1
406.503	1	0
406.674	1	5
406.845	1	13
407.015	1	15
407.186	1	15
407.357	1	17
407.527	1	14
407.698	1	16
407.869	1	5
408.040	1	14
408.210	1	18
408.381	1	1
408.552	1	-4
408.722	1	-3
408.893	1	9
409.064	1	12
409.235	1	7
409.405	1	21
409.576	1	19
409.747	1	19
409.917	1	9
410.088	1	18
410.259	1	2
410.430	1	8
410.600	1	-4
410.771	1	16
410.942	1	6
411.112	1	10
411.283	1	2
411.454	1	9
411.625	1	5
411.795	1	0
411.966	1	23
412.137	1	16
412.307	1	14
412.478	1	16
412.649	1	1
412.819	1	8
412.990	1	1
413.161	1	-1
413.332	1	10
413.502	1	10
413.673	1	20
413.844	1	13
414.014	1	2
414.185	1	5
414.356	1	7
414.526	1	9
414.697	1	14
414.868	1	5
415.038	1	12
415.209	1	1
415.380	1	24
415.550	1	9
415.721	1	11
415.892	1	5
416.063	1	13
416.233	1	10
416.404	1	2
416.575	1	10
416.745	1	10
416.916	1	8
417.087	1	8
417.257	1	13
417.428	1	-1
417.599	1	8
417.769	1	5
417.940	1	6
418.111	1	5
418.281	1	2
418.452	1	9
418.623	1	5
418.793	1	8
418.964	1	3
419.135	1	21
419.305	1	9
419.476	1	4
419.647	1	1
419.817	1	11
419.988	1	-1
420.159	1	6
420.329	1	5
420.500	1	10
420.671	1	-3
420.841	1	3
421.012	1	7
421.183	1	11
421.353	1	9
421.524	1	13
421.695	1	3
421.865	1	14
422.036	1	9
422.206	1	7
422.377	1	7
422.548	1	1
422.718	1	-6
422.889	1	10
423.060	1	-1
423.230	1	12
423.401	1	-4
423.572	1	17
423.742	1	4
423.913	1	5
424.084	1	9
424.254	1	2
424.425	1	-8
424.595	1	3
424.766	1	1
424.937	1	7
425.107	1	10
425.278	1	8
425.449	1	3
425.619	1	11
425.790	1	7
425.961	1	1
426.131	1	3
426.302	1	7
426.472	1	4
426.643	1	-7
426.814	1	-6
426.984	1	3
427.155	1	-5
427.326	1	6
427.496	1	2
427.667	1	7
427.837	1	12
428.008	1	3
428.179	1	0
428.349	1	-2
428.520	1	7
428.691	1	-5
428.861	1	10
429.032	1	7
429.202	1	2
429.373	1	4
429.544	1	4
429.714	1	2
429.885	1	-3
430.055	1	1
430.226	1	-3
430.397	1	-4
430.567	1	9
430.738	1	0
430.909	1	2
431.079	1	4
431.250	1	-2
431.420	1	-2
431.591	1	5
431.762	1	2
431.932	1	-4
432.103	1	4
432.273	1	11
432.444	1	-3
432.615	1	-8
432.785	1	-4
432.956	1	4
433.126	1	9
433.297	1	4
433.468	1	-3
433.638	1	5
433.809	1	4
433.979	1	4
434.150	1	8
434.320	1	9
434.491	1	4
434.662	1	10
434.832	1	8
435.003	1	4
435.173	1	4
435.344	1	-1
435.515	1	3
435.685	1	10
435.856	1	8
436.026	1	-6
436.197	1	2
436.368	1	11
436.538	1	-5
436.709	1	-2
436.879	1	3
437.050	1	12
437.220	1	4
437.391	1	6
437.562	1	3
437.732	1	0
437.903	1	-4
438.073	1	1
438.244	1	-5
438.414	1	4
438.585	1	1
438.756	1	3
438.926	1	2
439.097	1	12
439.267	1	6
439.438	1	4
439.608	1	9
439.779	1	-2
439.949	1	3
440.120	1	-11
440.291	1	9
440.461	1	1
440.632	1	12
440.802	1	4
440.973	1	0
441.143	1	7
441.314	1	-6
441.485	1	-4
441.655	1	11
441.826	1	-2
441.996	1	7
442.167	1	3
442.337	1	8
442.508	1	5
442.678	1	0
442.849	1	-4
443.019	1	5
443.190	1	12
443.361	1	9
443.531	1	6
443.702	1	-3
443.872	1	4
444.043	1	7
444.213	1	1
444.384	1	-2
444.554	1	3
444.725	1	5
444.895	1	3
445.066	1	3
445.237	1	7
445.407	1	-3
445.578	1	5
445.748	1	-1
445.919	1	4
446.089	1	-1
446.260	1	2
446.430	1	3
446.601	1	6
446.771	1	-11
446.942	1	6
447.112	1	8
447.283	1	-5
447.453	1	3
447.624	1	-6
447.794	1	8
447.965	1	-2
448.135	1	0
448.306	1	-5
448.477	1	12
448.647	1	-7
448.818	1	-1
448.988	1	2
449.159	1	3
449.329	1	1
449.500	1	1
449.670	1	6
449.841	1	1
450.011	1	1
450.182	1	-13
450.352	1	11
450.523	1	6
450.693	1	5
450.864	1	4
451.034	1	7
451.205	1	5
451.375	1	2
451.546	1	0
451.716	1	13
451.887	1	2
452.057	1	10
452.228	1	9
452.398	1	3
452.569	1	-9
452.739	1	0
452.910	1	-3
453.080	1	5
453.251	1	-1
453.421	1	5
453.592	1	7
453.762	1	7
453.933	1	0
454.103	1	0
454.274	1	1
454.444	1	5
454.615	1	12
454.785	1	5
454.956	1	11
455.126	1	-2
455.297	1	-4
455.467	1	-5
455.638	1	6
455.808	1	7
455.979	1	1
456.149	1	8
456.320	1	3
456.490	1	-3
456.661	1	-6
456.831	1	1
457.001	1	3
457.172	1	13
457.342	1	3
457.513	1	15
457.683	1	4
457.854	1	2
458.024	1	-2
458.195	1	-2
458.365	1	17
458.536	1	-5
458.706	1	9
458.877	1	-2
459.047	1	14
459.218	1	1
459.388	1	14
459.559	1	3
459.729	1	-1
459.899	1	-5
460.070	1	-1
460.240	1	6
460.411	1	-4
460.581	1	3
460.752	1	6
460.922	1	7
461.093	1	2
461.263	1	7
461.434	1	11
461.604	1	6
461.775	1	-5
461.945	1	-2
462.115	1	10
462.286	1	-3
462.456	1	17
462.627	1	7
462.797	1	-6
462.968	1	-9
463.138	1	1
463.309	1	3
463.479	1	-2
463.649	1	0
463.820	1	4
463.990	1	4
464.161	1	3
464.331	1	9
464.502	1	21
464.672	1	-12
464.843	1	-4
465.013	1	-1
465.183	1	0
465.354	1	12
465.524	1	-9
465.695	1	11
465.865	1	12
466.036	1	7
466.206	1	13
466.376	1	-7
466.547	1	-3
466.717	1	10
466.888	1	-8
467.058	1	6
467.229	1	3
467.399	1	6
467.569	1	10
467.740	1	10
467.910	1	2
468.081	1	-2
468.251	1	1
468.422	1	-2
468.592	1	3
468.762	1	-14
468.933	1	5
469.103	1	1
469.274	1	6
469.444	1	9
469.614	1	7
469.785	1	9
469.955	1	1
470.126	1	1
470.296	1	2
470.467	1	1
470.637	1	1
470.807	1	9
470.978	1	4
471.148	1	3
471.319	1	-3
471.489	1	-9
471.659	1	7
471.830	1	11
472.000	1	6
472.171	1	7
472.341	1	-7
472.511	1	10
472.682	1	3
472.852	1	-1
473.023	1	-1
473.193	1	6
473.363	1	-3
473.534	1	-3
473.704	1	-5
473.875	1	-7
474.045	1	3
474.215	1	2
474.386	1	7
474.556	1	-2
474.727	1	1
474.897	1	-3
475.067	1	-7
475.238	1	-3
475.408	1	-7
475.578	1	5
475.749	1	4
475.919	1	7
476.090	1	0
476.260	1	7
476.430	1	15
476.601	1	12
476.771	1	2
476.942	1	13
477.112	1	4
477.282	1	9
477.453	1	-4
477.623	1	6
477.793	1	4
477.964	1	7
478.134	1	0
478.305	1	0
478.475	1	2
478.645	1	3
478.816	1	7
478.986	1	-6
479.156	1	4
479.327	1	-7
479.497	1	15
479.667	1	8
479.838	1	1
480.008	1	-7
480.179	1	-8
480.349	1	1
480.519	1	3
480.690	1	-3
480.860	1	6
481.030	1	2
481.201	1	-5
481.371	1	7
481.541	1	12
481.712	1	3
481.882	1	-1
482.053	1	0
482.223	1	4
482.393	1	0
482.564	1	6
482.734	1	-4
482.904	1	0
483.075	1	0
483.245	1	12
483.415	1	7
483.586	1	9
483.756	1	4
483.926	1	4
484.097	1	9
484.267	1	-5
484.437	1	4
484.608	1	6
484.778	1	-4
484.948	1	3
485.119	1	-1
485.289	1	12
485.459	1	1
485.630	1	8
485.800	1	6
485.970	1	-1
486.141	1	7
486.311	1	1
486.481	1	-7
486.652	1	1
486.822	1	-6
486.992	1	13
487.163	1	1
487.333	1	8
487.503	1	10
487.674	1	10
487.844	1	-1
488.014	1	3
488.185	1	7
488.355	1	5
488.525	1	3
488.696	1	8
488.866	1	-6
489.036	1	12
489.207	1	1
489.377	1	2
489.547	1	6
489.718	1	3
489.888	1	-3
490.058	1	15
490.228	1	-5
490.399	1	12
490.569	1	5
490.739	1	2
490.910	1	12
491.080	1	2
491.250	1	6
491.421	1	4
491.591	1	-6
491.761	1	6
491.932	1	-5
492.102	1	-4
492.272	1	9
492.442	1	-1
492.613	1	8
492.783	1	8
492.953	1	11
493.124	1	11
493.294	1	7
493.464	1	7
493.635	1	-7
493.805	1	14
493.975	1	4
494.145	1	5
494.316	1	-1
494.486	1	8
494.656	1	2
494.827	1	11
494.997	1	-1
495.167	1	4
495.337	1	5
495.508	1	12
495.678	1	8
495.848	1	2
496.019	1	5
496.189	1	5
496.359	1	2
496.529	1	4
496.700	1	8
496.870	1	5
497.040	1	6
497.211	1	9
497.381	1	5
497.551	1	6
497.721	1	1
497.892	1	6
498.062	1	8
498.232	1	3
498.403	1	13
498.573	1	11
498.743	1	6
498.913	1	7
499.084	1	9
499.254	1	5
499.424	1	2
499.594	1	5
499.765	1	11
499.935	1	4
500.105	1	11
500.275	1	14
500.446	1	6
500.616	1	0
500.786	1	17
500.956	1	9
501.127	1	6
501.297	1	4
501.467	1	4
501.638	1	17
501.808	1	8
501.978	1	7
502.148	1	0
502.319	1	15
502.489	1	5
502.659	1	17
502.829	1	5
503.000	1	12
503.170	1	6
503.340	1	16
503.510	1	2
503.681	1	4
503.851	1	8
504.021	1	11
504.191	1	20
504.362	1	6
504.532	1	7
504.702	1	9
504.872	1	5
505.042	1	9
505.213	1	26
505.383	1	3
505.553	1	13
505.723	1	10
505.894	1	6
506.064	1	4
506.234	1	10
506.404	1	12
506.575	1	6
506.745	1	25
506.915	1	2
507.085	1	2
507.256	1	10
507.426	1	6
507.596	1	17
507.766	1	10
507.936	1	13
508.107	1	14
508.277	1	11
508.447	1	14
508.617	1	11
508.788	1	19
508.958	1	8
509.128	1	11
509.298	1	0
509.468	1	24
509.639	1	-3
509.809	1	11
509.979	1	10
510.149	1	16
510.319	1	-3
510.490	1	16
510.660	1	18
510.830	1	10
511.000	1	15
511.171	1	12
511.341	1	13
511.511	1	17
511.681	1	20
511.851	1	12
512.022	1	14
512.192	1	6
512.362	1	19
512.532	1	-2
512.702	1	7
512.873	1	9
513.043	1	16
513.213	1	16
513.383	1	10
513.553	1	15
513.724	1	7
513.894	1	12
514.064	1	19
514.234	1	18
514.404	1	16
514.575	1	4
514.745	1	19
514.915	1	-8
515.085	1	20
515.255	1	8
515.425	1	13
515.596	1	11
515.766	1	9
515.936	1	11
516.106	1	8
516.276	1	15
516.447	1	19
516.617	1	21
516.787	1	0
516.957	1	20
517.127	1	15
517.297	1	9
517.468	1	8
517.638	1	7
517.808	1	21
517.978	1	15
518.148	1	15
518.319	1	13
518.489	1	16
518.659	1	9
518.829	1	9
518.999	1	14
519.169	1	8
519.340	1	18
519.510	1	20
519.680	1	15
519.850	1	10
520.020	1	8
520.190	1	17
520.361	1	7
520.531	1	12
520.701	1	17
520.871	1	11
521.041	1	24
521.211	1	20
521.382	1	19
521.552	1	14
521.722	1	20
521.892	1	10
522.062	1	12
522.232	1	30
522.402	1	21
522.573	1	12
522.743	1	12
522.913	1	23
523.083	1	18
523.253	1	20
523.423	1	6
523.593	1	20
523.764	1	12
523.934	1	24
524.104	1	12
524.274	1	21
524.444	1	8
524.614	1	21
524.784	1	8
524.955	1	19
525.125	1	17
525.295	1	15
525.465	1	11
525.635	1	17
525.805	1	28
525.975	1	10
526.146	1	12
526.316	1	18
526.486	1	24
526.656	1	11
526.826	1	18
526.996	1	20
527.166	1	10
527.337	1	11
527.507	1	22
527.677	1	19
527.847	1	18
528.017	1	13
528.187	1	27
528.357	1	25
528.527	1	24
528.698	1	10
528.868	1	16
529.038	1	15
529.208	1	3
529.378	1	23
529.548	1	17
529.718	1	20
529.888	1	20
530.058	1	13
530.229	1	19
530.399	1	10
530.569	1	9
530.739	1	18
530.909	1	6
531.079	1	6
531.249	1	17
531.419	1	18
531.589	1	18
531.760	1	18
531.930	1	30
532.100	1	12
532.270	1	19
532.440	1	18
532.610	1	15
532.780	1	19
532.950	1	15
533.120	1	34
533.290	1	11
533.461	1	17
533.631	1	21
533.801	1	18
533.971	1	19
534.141	1	20
534.311	1	29
534.481	1	22
534.651	1	10
534.821	1	19
534.991	1	13
535.162	1	16
535.332	1	18
535.502	1	7
535.672	1	20
535.842	1	14
536.012	1	15
536.182	1	17
536.352	1	16
536.522	1	1
536.692	1	10
536.862	1	19
537.032	1	10
537.203	1	18
537.373	1	16
537.543	1	7
537.713	1	17
537.883	1	12
538.053	1	13
538.223	1	16
538.393	1	13
538.563	1	24
538.733	1	23
538.903	1	6
539.073	1	19
539.243	1	15
539.413	1	20
539.584	1	17
539.754	1	22
539.924	1	19
540.094	1	12
540.264	1	-3
540.434	1	9
540.604	1	9
540.774	1	14
540.944	1	19
541.114	1	9
541.284	1	9
541.454	1	14
541.624	1	25
541.794	1	10
541.964	1	9
542.134	1	14
542.305	1	18
542.475	1	9
542.645	1	16
542.815	1	5
542.985	1	17
543.155	1	4
543.325	1	16
543.495	1	23
543.665	1	5
543.835	1	4
544.005	1	11
544.175	1	18
544.345	1	16
544.515	1	10
544.685	1	26
544.855	1	7
545.025	1	21
545.195	1	1
545.365	1	10
545.535	1	6
545.705	1	20
545.875	1	16
546.045	1	19
546.216	1	-2
546.386	1	10
546.556	1	18
546.726	1	16
546.896	1	19
547.066	1	20
547.236	1	11
547.406	1	7
547.576	1	16
547.746	1	19
547.916	1	13
548.086	1	12
548.256	1	5
548.426	1	10
548.596	1	14
548.766	1	26
548.936	1	18
549.106	1	18
549.276	1	22
549.446	1	8
549.616	1	11
549.786	1	3
549.956	1	14
550.126	1	9
550.296	1	15
550.466	1	12
550.636	1	24
550.806	1	12
550.976	1	12
551.146	1	3
551.316	1	5
551.486	1	17
551.656	1	29
551.826	1	22
551.996	1	13
552.166	1	16
552.336	1	1
552.506	1	15
552.676	1	17
552.846	1	18
553.016	1	19
553.186	1	21
553.356	1	11
553.526	1	17
553.696	1	20
553.866	1	22
554.036	1	14
554.206	1	15
554.376	1	1
554.546	1	12
554.716	1	17
554.886	1	24
555.056	1	7
555.226	1	14
555.396	1	13
555.566	1	14
555.736	1	15
555.906	1	7
556.076	1	19
556.246	1	10
556.416	1	0
556.586	1	8
556.756	1	7
556.926	1	11
557.096	1	8
557.266	1	13
557.436	1	18
557.606	1	8
557.776	1	23
557.946	1	11
558.116	1	10
558.286	1	16
558.456	1	9
558.626	1	2
558.796	1	6
558.966	1	12
559.136	1	8
559.306	1	14
559.476	1	19
559.646	1	11
559.816	1	12
559.986	1	-2
560.155	1	12
560.325	1	8
560.495	1	9
560.665	1	3
560.835	1	13
561.005	1	16
561.175	1	6
561.345	1	5
561.515	1	7
561.685	1	5
561.855	1	13
562.025	1	13
562.195	1	9
562.365	1	12
562.535	1	9
562.705	1	4
562.875	1	12
563.045	1	6
563.215	1	8
563.385	1	0
563.555	1	5
563.725	1	7
563.895	1	7
564.064	1	10
564.234	1	18
564.404	1	12
564.574	1	17
564.744	1	3
564.914	1	6
565.084	1	-5
565.254	1	7
565.424	1	8
565.594	1	8
565.764	1	-3
565.934	1	16
566.104	1	9
566.274	1	19
566.444	1	8
566.614	1	13
566.783	1	19
566.953	1	16
567.123	1	5
567.293	1	3
567.463	1	2
567.633	1	8
567.803	1	11
567.973	1	14
568.143	1	12
568.313	1	10
568.483	1	18
568.653	1	-4
568.823	1	3
568.993	1	1
569.162	1	9
569.332	1	9
569.502	1	10
569.672	1	18
569.842	1	8
570.012	1	11
570.182	1	4
570.352	1	3
570.522	1	10
570.692	1	14
570.862	1	9
571.031	1	6
571.201	1	7
571.371	1	10
571.541	1	2
571.711	1	3
571.881	1	13
572.051	1	8
572.221	1	2
572.391	1	22
572.561	1	18
572.731	1	16
572.900	1	-1
573.070	1	18
573.240	1	-2
573.410	1	5
573.580	1	-4
573.750	1	5
573.920	1	11
574.090	1	8
574.260	1	7
574.430	1	8
574.599	1	5
574.769	1	5
574.939	1	0
575.109	1	-2
575.279	1	15
575.449	1	11
575.619	1	12
575.789	1	3
575.959	1	8
576.128	1	7
576.298	1	8
576.468	1	3
576.638	1	3
576.808	1	3
576.978	1	2
577.148	1	0
577.318	1	19
577.487	1	6
577.657	1	9
577.827	1	1
577.997	1	6
578.167	1	8
578.337	1	2
578.507	1	2
578.677	1	10
578.846	1	-1
579.016	1	8
579.186	1	5
579.356	1	12
579.526	1	3
579.696	1	15
579.866	1	-3
580.036	1	5
580.205	1	-4
580.375	1	10
580.545	1	5
580.715	1	5
580.885	1	11
581.055	1	7
581.225	1	4
581.394	1	-6
581.564	1	-3
581.734	1	5
581.904	1	-4
582.074	1	2
582.244	1	9
582.414	1	-1
582.583	1	8
582.753	1	9
582.923	1	5
583.093	1	7
583.263	1	5
583.433	1	11
583.603	1	-7
583.772	1	-5
583.942	1	12
584.112	1	1
584.282	1	10
584.452	1	11
584.622	1	0
584.791	1	2
584.961	1	-3
585.131	1	8
585.301	1	4
585.471	1	-7
585.641	1	4
585.811	1	6
585.980	1	-1
586.150	1	5
586.320	1	1
586.490	1	7
586.660	1	9
586.830	1	-10
586.999	1	6
587.169	1	13
587.339	1	2
587.509	1	2
587.679	1	-12
587.849	1	11
588.018	1	1
588.188	1	4
588.358	1	-1
588.528	1	0
588.698	1	1
588.867	1	-2
589.037	1	2
589.207	1	2
589.377	1	5
589.547	1	13
589.717	1	-2
589.886	1	1
590.056	1	-3
590.226	1	-9
590.396	1	-3
590.566	1	-6
590.735	1	-9
590.905	1	10
591.075	1	6
591.245	1	9
591.415	1	9
591.585	1	8
591.754	1	6
591.924	1	10
592.094	1	-5
592.264	1	4
592.434	1	1
592.603	1	3
592.773	1	7
592.943	1	5
593.113	1	7
593.283	1	1
593.452	1	-6
593.622	1	11
593.792	1	3
593.962	1	10
594.132	1	7
594.301	1	2
594.471	1	9
594.641	1	3
594.811	1	-2
594.981	1	5
595.150	1	6
595.320	1	-6
595.490	1	4
595.660	1	-5
595.829	1	-5
595.999	1	1
596.169	1	8
596.339	1	8
596.509	1	1
596.678	1	7
596.848	1	8
597.018	1	5
597.188	1	-10
597.358	1	1
597.527	1	8
597.697	1	-1
597.867	1	4
598.037	1	9
598.206	1	11
598.376	1	-4
598.546	1	8
598.716	1	-3
598.885	1	8
599.055	1	1
599.225	1	2
599.395	1	8
599.565	1	0
599.734	1	5
599.904	1	-7
600.074	1	12
600.244	1	2
600.413	1	16
600.583	1	-6
600.753	1	7
600.923	1	1
601.092	1	13
601.262	1	1
601.432	1	1
601.602	1	19
601.771	1	7
601.941	1	20
602.111	1	9
602.281	1	6
602.451	1	4
602.620	1	12
602.790	1	-4
602.960	1	-4
603.130	1	1
603.299	1	9
603.469	1	12
603.639	1	2
603.809	1	16
603.978	1	-6
604.148	1	0
604.318	1	0
604.487	1	9
604.657	1	-3
604.827	1	10
604.997	1	12
605.166	1	2
605.336	1	3
605.506	1	-2
605.676	1	6
605.845	1	8
606.015	1	-2
606.185	1	-2
606.355	1	-2
606.524	1	-2
606.694	1	-1
606.864	1	7
607.034	1	1
607.203	1	13
607.373	1	11
607.543	1	4
607.712	1	0
607.882	1	3
608.052	1	7
608.222	1	6
608.391	1	10
608.561	1	-2
608.731	1	-9
608.901	1	2
609.070	1	1
609.240	1	-8
609.410	1	3
609.579	1	7
609.749	1	7
609.919	1	-4
610.089	1	-4
610.258	1	-2
610.428	1	8
610.598	1	5
610.767	1	5
610.937	1	1
611.107	1	-2
611.277	1	3
611.446	1	3
611.616	1	11
611.786	1	8
611.955	1	1
612.125	1	11
612.295	1	0
612.465	1	0
612.634	1	8
612.804	1	10
612.974	1	-7
613.143	1	-7
613.313	1	-1
613.483	1	15
613.652	1	9
613.822	1	7
613.992	1	-3
614.162	1	12
614.331	1	-1
614.501	1	-5
614.671	1	7
614.840	1	-2
615.010	1	1
615.180	1	7
615.349	1	10
615.519	1	3
615.689	1	-1
615.858	1	7
616.028	1	8
616.198	1	3
616.368	1	5
616.537	1	-9
616.707	1	4
616.877	1	8
617.046	1	13
617.216	1	4
617.386	1	12
617.555	1	-7
617.725	1	10
617.895	1	-2
618.064	1	8
618.234	1	-12
618.404	1	-4
618.573	1	5
618.743	1	14
618.913	1	14
619.082	1	0
619.252	1	3
619.422	1	3
619.591	1	-7
619.761	1	-7
619.931	1	9
620.100	1	10
620.270	1	10
620.440	1	6
620.609	1	16
620.779	1	13
620.949	1	6
621.118	1	7
621.288	1	-8
621.458	1	3
621.627	1	5
621.797	1	3
621.967	1	6
622.136	1	2
622.306	1	3
622.476	1	4
622.645	1	4
622.815	1	0
622.985	1	3
623.154	1	4
623.324	1	3
623.494	1	-7
623.663	1	2
623.833	1	-1
624.002	1	-8
624.172	1	6
624.342	1	11
624.511	1	1
624.681	1	7
624.851	1	-7
625.020	1	-3
625.190	1	-4
625.360	1	-6
625.529	1	-6
625.699	1	1
625.869	1	-1
626.038	1	-3
626.208	1	8
626.377	1	-9
626.547	1	2
626.717	1	-5
626.886	1	-5
627.056	1	-7
627.226	1	12
627.395	1	-7
627.565	1	14
627.735	1	13
627.904	1	12
628.074	1	12
628.243	1	8
628.413	1	-3
628.583	1	5
628.752	1	-2
628.922	1	5
629.091	1	4
629.261	1	4
629.431	1	4
629.600	1	10
629.770	1	5
629.940	1	-9
630.109	1	6
630.279	1	3
630.448	1	0
630.618	1	10
630.788	1	-2
630.957	1	7
631.127	1	-3
631.297	1	-5
631.466	1	4
631.636	1	7
631.805	1	11
631.975	1	-5
632.145	1	0
632.314	1	7
632.484	1	6
632.653	1	-9
632.823	1	-4
632.993	1	5
633.162	1	7
633.332	1	2
633.501	1	0
633.671	1	-8
633.841	1	10
634.010	1	7
634.180	1	16
634.349	1	13
634.519	1	1
634.689	1	-1
634.858	1	-6
635.028	1	2
635.197	1	-3
635.367	1	0
635.537	1	10
635.706	1	12
635.876	1	7
636.045	1	1
636.215	1	4
636.384	1	-1
636.554	1	3
636.724	1	4
636.893	1	3
637.063	1	0
637.232	1	-1
637.402	1	5
637.572	1	11
637.741	1	1
637.911	1	-6
638.080	1	9
638.250	1	3
638.419	1	2
638.589	1	5
638.759	1	10
638.928	1	0
639.098	1	-3
639.267	1	8
639.437	1	-6
639.606	1	9
639.776	1	11
639.946	1	11
640.115	1	-7
640.285	1	7
640.454	1	2
640.624	1	10
640.793	1	5
640.963	1	2
641.132	1	5
641.302	1	-4
641.472	1	-2
641.641	1	7
641.811	1	5
641.980	1	7
642.150	1	-12
642.319	1	20
642.489	1	-2
642.659	1	1
642.828	1	1
642.998	1	5
643.167	1	-7
643.337	1	-5
643.506	1	7
643.676	1	-9
643.845	1	13
644.015	1	1
644.184	1	-5
644.354	1	10
644.524	1	-10
644.693	1	7
644.863	1	10
645.032	1	-6
645.202	1	-2
645.371	1	-3
645.541	1	3
645.710	1	-1
645.880	1	-8
646.049	1	9
646.219	1	-5
646.388	1	8
646.558	1	6
646.728	1	-3
646.897	1	11
647.067	1	-7
647.236	1	14
647.406	1	10
647.575	1	15
647.745	1	9
647.914	1	-5
648.084	1	3
648.253	1	3
648.423	1	7
648.592	1	-8
648.762	1	7
648.931	1	8
649.101	1	-2
649.270	1	5
649.440	1	-4
649.610	1	4
649.779	1	8
649.949	1	3
650.118	1	7
650.288	1	2
650.457	1	3
650.627	1	6
650.796	1	0
650.966	1	-8
651.135	1	2
651.305	1	-3
651.474	1	14
651.644	1	15
651.813	1	7
651.983	1	-1
652.152	1	7
652.322	1	1
652.491	1	10
652.661	1	4
652.830	1	-3
653.000	1	15
653.169	1	4
653.339	1	9
653.508	1	-1
653.678	1	1
653.847	1	-5
654.017	1	7
654.186	1	3
654.356	1	-3
654.525	1	-11
654.695	1	6
654.864	1	5
655.034	1	6
655.203	1	11
655.373	1	10
655.542	1	9
655.712	1	2
655.881	1	2
656.051	1	5
656.220	1	6
656.390	1	4
656.559	1	-3
656.729	1	-7
656.898	1	1
657.068	1	-3
657.237	1	-3
657.406	1	9
657.576	1	-2
657.745	1	10
657.915	1	3
658.084	1	-1
658.254	1	-1
658.423	1	0
658.593	1	11
658.762	1	2
658.932	1	0
659.101	1	2
659.271	1	-3
659.440	1	8
659.610	1	-8
659.779	1	11
659.949	1	-4
660.118	1	-1
660.288	1	-2
660.457	1	6
660.626	1	1
660.796	1	-6
660.965	1	-2
661.135	1	-5
661.304	1	-2
661.474	1	-6
661.643	1	3
661.813	1	6
661.982	1	6
662.152	1	1
662.321	1	7
662.491	1	-7
662.660	1	11
662.829	1	7
662.999	1	1
663.168	1	10
663.338	1	8
663.507	1	3
663.677	1	5
663.846	1	1
664.016	1	-3
664.185	1	4
664.354	1	-1
664.524	1	8
664.693	1	-1
664.863	1	1
665.032	1	3
665.202	1	-4
665.371	1	-6
665.541	1	8
665.710	1	2
665.879	1	-3
666.049	1	-1
666.218	1	7
666.388	1	8
666.557	1	10
666.727	1	-7
666.896	1	9
667.065	1	6
667.235	1	13
667.404	1	-2
667.574	1	2
667.743	1	-7
667.913	1	5
668.082	1	-2
668.251	1	10
668.421	1	2
668.590	1	5
668.760	1	-3
668.929	1	12
669.099	1	-2
669.268	1	-5
669.437	1	-7
669.607	1	6
669.776	1	8
669.946	1	-4
670.115	1	-19
670.285	1	14
670.454	1	-3
670.623	1	-2
670.793	1	3
670.962	1	3
671.132	1	1
671.301	1	-4
671.470	1	-1
671.640	1	5
671.809	1	-4
671.979	1	11
672.148	1	8
672.317	1	1
672.487	1	-5
672.656	1	-11
672.826	1	5
672.995	1	3
673.164	1	-13
673.334	1	2
673.503	1	-7
673.673	1	1
673.842	1	12
674.011	1	11
674.181	1	7
674.350	1	5
674.520	1	1
674.689	1	-11
674.858	1	-10
675.028	1	4
675.197	1	3
675.367	1	0
675.536	1	1
675.705	1	4
675.875	1	-6
676.044	1	-2
676.214	1	0
676.383	1	11
676.552	1	6
676.722	1	-7
676.891	1	-8
677.060	1	-1
677.230	1	2
677.399	1	-5
677.569	1	10
677.738	1	1
677.907	1	-1
678.077	1	6
678.246	1	10
678.416	1	8
678.585	1	-3
678.754	1	-1
678.924	1	4
679.093	1	11
679.262	1	-1
679.432	1	5
679.601	1	5
679.771	1	6
679.940	1	15
680.109	1	-1
680.279	1	10
680.448	1	9
680.617	1	3
680.787	1	1
680.956	1	-1
681.125	1	15
681.295	1	-4
681.464	1	-4
681.634	1	4
681.803	1	7
681.972	1	-3
682.142	1	-7
682.311	1	6
682.480	1	6
682.650	1	9
682.819	1	5
682.988	1	-1
683.158	1	-3
683.327	1	9
683.496	1	5
683.666	1	9
683.835	1	2
684.004	1	3
684.174	1	-5
684.343	1	9
684.512	1	-2
684.682	1	5
684.851	1	0
685.021	1	5
685.190	1	2
685.359	1	-8
685.529	1	6
685.698	1	5
685.867	1	3
686.037	1	6
686.206	1	-4
686.375	1	10
686.545	1	9
686.714	1	1
686.883	1	4
687.053	1	-6
687.222	1	-4
687.391	1	2
687.561	1	7
687.730	1	6
687.899	1	4
688.069	1	13
688.238	1	-3
688.407	1	9
688.577	1	4
688.746	1	7
