340.368	1	8
340.539	1	6
340.710	1	-3
340.881	1	3
341.052	1	-4
341.223	1	5
341.394	1	1
341.565	1	4
341.737	1	11
341.908	1	-6
342.079	1	-7
342.250	1	4
342.421	1	0
342.592	1	7
342.763	1	2
342.934	1	1
343.105	1	0
343.276	1	-2
343.447	1	-10
343.618	1	-2
343.789	1	-5
343.960	1	-1
344.131	1	5
344.302	1	-10
344.473	1	-1
344.644	1	10
344.815	1	-3
344.986	1	-1
345.157	1	8
345.328	1	-1
345.499	1	1
345.670	1	1
345.841	1	1
346.012	1	0
346.183	1	16
346.354	1	8
346.526	1	2
346.697	1	7
346.868	1	-5
347.039	1	-7
347.210	1	1
347.381	1	-6
347.552	1	2
347.723	1	0
347.894	1	-7
348.065	1	14
348.236	1	5
348.407	1	5
348.578	1	8
348.749	1	1
348.920	1	2
349.091	1	2
349.262	1	1
349.433	1	3
349.604	1	5
349.775	1	-3
349.946	1	-1
350.117	1	-2
350.288	1	0
350.459	1	-4
350.630	1	11
350.801	1	-1
350.972	1	4
351.143	1	15
351.314	1	4
351.485	1	5
351.656	1	6
351.827	1	5
351.998	1	2
352.169	1	-1
352.340	1	6
352.511	1	6
352.682	1	6
352.853	1	3
353.024	1	1
353.195	1	-1
353.366	1	7
353.537	1	4
353.708	1	4
353.879	1	-1
354.050	1	-1
354.221	1	14
354.392	1	13
354.563	1	5
354.734	1	3
354.905	1	12
355.076	1	11
355.247	1	8
355.418	1	3
355.589	1	5
355.760	1	12
355.931	1	14
356.102	1	7
356.273	1	11
356.444	1	15
356.615	1	-4
356.785	1	13
356.956	1	13
357.127	1	9
357.298	1	11
357.469	1	8
357.640	1	13
357.811	1	7
357.982	1	12
358.153	1	15
358.324	1	21
358.495	1	13
358.666	1	4
358.837	1	23
359.008	1	7
359.179	1	12
359.350	1	6
359.521	1	28
359.692	1	13
359.863	1	20
360.034	1	13
360.205	1	6
360.376	1	8
360.547	1	9
360.718	1	26
360.889	1	16
361.060	1	25
361.231	1	22
361.401	1	18
361.572	1	34
361.743	1	35
361.914	1	21
362.085	1	31
362.256	1	29
362.427	1	20
362.598	1	29
362.769	1	29
362.940	1	32
363.111	1	45
363.282	1	36
363.453	1	33
363.624	1	34
363.795	1	29
363.966	1	38
364.137	1	43
364.308	1	56
364.478	1	42
364.649	1	55
364.820	1	49
364.991	1	52
365.162	1	50
365.333	1	58
365.504	1	50
365.675	1	62
365.846	1	58
366.017	1	62
366.188	1	66
366.359	1	68
366.530	1	78
366.701	1	66
366.871	1	65
367.042	1	92
367.213	1	73
367.384	1	58
367.555	1	67
367.726	1	70
367.897	1	70
368.068	1	59
368.239	1	58
368.410	1	57
368.581	1	67
368.752	1	69
368.923	1	68
369.093	1	61
369.264	1	50
369.435	1	53
369.606	1	59
369.777	1	48
369.948	1	58
370.119	1	61
370.290	1	48
370.461	1	49
370.632	1	48
370.803	1	56
370.973	1	49
371.144	1	49
371.315	1	37
371.486	1	46
371.657	1	33
371.828	1	49
371.999	1	33
372.170	1	41
372.341	1	28
372.512	1	41
372.682	1	34
372.853	1	37
373.024	1	37
373.195	1	28
373.366	1	24
373.537	1	45
373.708	1	31
373.879	1	25
374.050	1	35
374.220	1	28
374.391	1	34
374.562	1	18
374.733	1	20
374.904	1	29
375.075	1	16
375.246	1	28
375.417	1	38
375.588	1	29
375.758	1	12
375.929	1	28
376.100	1	28
376.271	1	18
376.442	1	14
376.613	1	21
376.784	1	28
376.955	1	15
377.125	1	28
377.296	1	8
377.467	1	26
377.638	1	23
377.809	1	17
377.980	1	27
378.151	1	22
378.321	1	15
378.492	1	34
378.663	1	24
378.834	1	32
379.005	1	10
379.176	1	24
379.347	1	17
379.518	1	17
379.688	1	14
379.859	1	27
380.030	1	26
380.201	1	25
380.372	1	28
380.543	1	23
380.714	1	7
380.884	1	22
381.055	1	13
381.226	1	21
381.397	1	12
381.568	1	21
381.739	1	14
381.910	1	12
382.080	1	16
382.251	1	12
382.422	1	17
382.593	1	23
382.764	1	10
382.935	1	25
383.105	1	18
383.276	1	23
383.447	1	23
383.618	1	36
383.789	1	26
383.960	1	17
384.130	1	23
384.301	1	37
384.472	1	25
384.643	1	30
384.814	1	34
384.985	1	28
385.156	1	42
385.326	1	33
385.497	1	27
385.668	1	28
385.839	1	45
386.010	1	30
386.180	1	40
386.351	1	35
386.522	1	43
386.693	1	32
386.864	1	41
387.035	1	45
387.205	1	38
387.376	1	31
387.547	1	45
387.718	1	30
387.889	1	37
388.060	1	39
388.230	1	32
388.401	1	32
388.572	1	27
388.743	1	41
388.914	1	18
389.084	1	41
389.255	1	32
389.426	1	15
389.597	1	30
389.768	1	37
389.939	1	24
390.109	1	34
390.280	1	22
390.451	1	22
390.622	1	24
390.793	1	38
390.963	1	29
391.134	1	23
391.305	1	27
391.476	1	35
391.647	1	28
391.817	1	23
391.988	1	24
392.159	1	32
392.330	1	25
392.501	1	24
392.671	1	24
392.842	1	34
393.013	1	30
393.184	1	23
393.355	1	26
393.525	1	25
393.696	1	33
393.867	1	36
394.038	1	28
394.208	1	27
394.379	1	24
394.550	1	27
394.721	1	27
394.892	1	19
395.062	1	25
395.233	1	24
395.404	1	13
395.575	1	29
395.746	1	42
395.916	1	32
396.087	1	31
396.258	1	35
396.429	1	31
396.599	1	32
396.770	1	38
396.941	1	23
397.112	1	20
397.283	1	22
397.453	1	43
397.624	1	35
397.795	1	36
397.966	1	31
398.136	1	27
398.307	1	29
398.478	1	27
398.649	1	25
398.819	1	45
398.990	1	32
399.161	1	32
399.332	1	37
399.503	1	39
399.673	1	26
399.844	1	28
400.015	1	30
400.186	1	22
400.356	1	35
400.527	1	25
400.698	1	31
400.869	1	13
401.039	1	18
401.210	1	23
401.381	1	34
401.552	1	19
401.722	1	24
401.893	1	26
402.064	1	18
402.235	1	4
402.405	1	20
402.576	1	10
402.747	1	20
402.918	1	20
403.088	1	17
403.259	1	15
403.430	1	23
403.601	1	28
403.771	1	34
403.942	1	26
404.113	1	24
404.284	1	25
404.454	1	20
404.625	1	20
404.796	1	16
404.967	1	20
405.137	1	15
405.308	1	18
405.479	1	26
405.649	1	22
405.820	1	22
405.991	1	22
406.162	1	29
406.332	1	-1
406.503	1	10
406.674	1	27
406.845	1	29
407.015	1	13
407.186	1	26
407.357	1	25
407.527	1	14
407.698	1	29
407.869	1	12
408.040	1	25
408.210	1	22
408.381	1	6
408.552	1	11
408.722	1	8
408.893	1	13
409.064	1	16
409.235	1	25
409.405	1	21
409.576	1	22
409.747	1	24
409.917	1	17
410.088	1	2
410.259	1	14
410.430	1	8
410.600	1	5
410.771	1	19
410.942	1	12
411.112	1	11
411.283	1	11
411.454	1	13
411.625	1	7
411.795	1	16
411.966	1	22
412.137	1	22
412.307	1	14
412.478	1	7
412.649	1	10
412.819	1	17
412.990	1	4
413.161	1	6
413.332	1	8
413.502	1	9
413.673	1	24
413.844	1	20
414.014	1	4
414.185	1	19
414.356	1	14
414.526	1	10
414.697	1	15
414.868	1	11
415.038	1	15
415.209	1	9
415.380	1	16
415.550	1	6
415.721	1	13
415.892	1	14
416.063	1	21
416.233	1	7
416.404	1	9
416.575	1	6
416.745	1	1
416.916	1	9
417.087	1	18
417.257	1	11
417.428	1	7
417.599	1	15
417.769	1	4
417.940	1	10
418.111	1	15
418.281	1	9
418.452	1	11
418.623	1	5
418.793	1	9
418.964	1	10
419.135	1	19
419.305	1	8
419.476	1	7
419.647	1	10
419.817	1	15
419.988	1	9
420.159	1	7
420.329	1	11
420.500	1	23
420.671	1	-1
420.841	1	7
421.012	1	10
421.183	1	19
421.353	1	18
421.524	1	17
421.695	1	12
421.865	1	13
422.036	1	7
422.206	1	13
422.377	1	13
422.548	1	11
422.718	1	5
422.889	1	0
423.060	1	3
423.230	1	5
423.401	1	13
423.572	1	21
423.742	1	1
423.913	1	7
424.084	1	6
424.254	1	4
424.425	1	4
424.595	1	6
424.766	1	5
424.937	1	21
425.107	1	22
425.278	1	12
425.449	1	5
425.619	1	6
425.790	1	8
425.961	1	9
426.131	1	1
426.302	1	15
426.472	1	3
426.643	1	5
426.814	1	3
426.984	1	11
427.155	1	-5
427.326	1	12
427.496	1	3
427.667	1	-1
427.837	1	10
428.008	1	6
428.179	1	6
428.349	1	1
428.520	1	5
428.691	1	1
428.861	1	13
429.032	1	2
429.202	1	18
429.373	1	14
429.544	1	7
429.714	1	-7
429.885	1	12
430.055	1	11
430.226	1	8
430.397	1	8
430.567	1	8
430.738	1	-4
430.909	1	1
431.079	1	3
431.250	1	1
431.420	1	7
431.591	1	-2
431.762	1	4
431.932	1	-2
432.103	1	6
432.273	1	3
432.444	1	-6
432.615	1	-5
432.785	1	5
432.956	1	13
433.126	1	9
433.297	1	10
433.468	1	-2
433.638	1	4
433.809	1	13
433.979	1	8
434.150	1	12
434.320	1	9
434.491	1	7
434.662	1	9
434.832	1	5
435.003	1	6
435.173	1	4
435.344	1	3
435.515	1	0
435.685	1	2
435.856	1	1
436.026	1	1
436.197	1	2
436.368	1	11
436.538	1	-2
436.709	1	-10
436.879	1	2
437.050	1	7
437.220	1	0
437.391	1	5
437.562	1	6
437.732	1	10
437.903	1	-6
438.073	1	-1
438.244	1	-2
438.414	1	8
438.585	1	-5
438.756	1	9
438.926	1	3
439.097	1	13
439.267	1	4
439.438	1	7
439.608	1	7
439.779	1	7
439.949	1	4
440.120	1	-9
440.291	1	13
440.461	1	11
440.632	1	10
440.802	1	4
440.973	1	9
441.143	1	0
441.314	1	-10
441.485	1	4
441.655	1	-3
441.826	1	-12
441.996	1	-3
442.167	1	-1
442.337	1	9
442.508	1	11
442.678	1	1
442.849	1	-6
443.019	1	11
443.190	1	14
443.361	1	7
443.531	1	1
443.702	1	-12
443.872	1	11
444.043	1	14
444.213	1	15
444.384	1	1
444.554	1	2
444.725	1	10
444.895	1	4
445.066	1	6
445.237	1	4
445.407	1	-1
445.578	1	6
445.748	1	3
445.919	1	-6
446.089	1	1
446.260	1	-2
446.430	1	5
446.601	1	16
446.771	1	-8
446.942	1	5
447.112	1	8
447.283	1	-2
447.453	1	1
447.624	1	-7
447.794	1	8
447.965	1	7
448.135	1	0
448.306	1	6
448.477	1	4
448.647	1	3
448.818	1	7
448.988	1	-4
449.159	1	16
449.329	1	-4
449.500	1	3
449.670	1	-4
449.841	1	-1
450.011	1	4
450.182	1	-1
450.352	1	7
450.523	1	2
450.693	1	10
450.864	1	7
451.034	1	14
451.205	1	-1
451.375	1	8
451.546	1	7
451.716	1	11
451.887	1	6
452.057	1	10
452.228	1	10
452.398	1	15
452.569	1	-5
452.739	1	7
452.910	1	0
453.080	1	4
453.251	1	5
453.421	1	3
453.592	1	8
453.762	1	8
453.933	1	3
454.103	1	3
454.274	1	0
454.444	1	-3
454.615	1	11
454.785	1	7
454.956	1	13
455.126	1	1
455.297	1	-1
455.467	1	-3
455.638	1	4
455.808	1	2
455.979	1	5
456.149	1	7
456.320	1	8
456.490	1	-4
456.661	1	-3
456.831	1	-2
457.001	1	3
457.172	1	3
457.342	1	4
457.513	1	10
457.683	1	2
457.854	1	1
458.024	1	-4
458.195	1	-4
458.365	1	16
458.536	1	-5
458.706	1	19
458.877	1	-3
459.047	1	8
459.218	1	5
459.388	1	8
459.559	1	0
459.729	1	-10
459.899	1	2
460.070	1	6
460.240	1	5
460.411	1	7
460.581	1	4
460.752	1	4
460.922	1	14
461.093	1	2
461.263	1	-5
461.434	1	10
461.604	1	7
461.775	1	1
461.945	1	0
462.115	1	0
462.286	1	2
462.456	1	3
462.627	1	5
462.797	1	-13
462.968	1	6
463.138	1	3
463.309	1	1
463.479	1	9
463.649	1	-4
463.820	1	5
463.990	1	17
464.161	1	11
464.331	1	9
464.502	1	19
464.672	1	-6
464.843	1	1
465.013	1	-16
465.183	1	-6
465.354	1	6
465.524	1	0
465.695	1	9
465.865	1	11
466.036	1	5
466.206	1	3
466.376	1	4
466.547	1	-3
466.717	1	-4
466.888	1	4
467.058	1	10
467.229	1	4
467.399	1	1
467.569	1	10
467.740	1	10
467.910	1	6
468.081	1	-7
468.251	1	1
468.422	1	-11
468.592	1	-3
468.762	1	0
468.933	1	11
469.103	1	1
469.274	1	-1
469.444	1	12
469.614	1	13
469.785	1	15
469.955	1	-9
470.126	1	9
470.296	1	6
470.467	1	-8
470.637	1	5
470.807	1	13
470.978	1	7
471.148	1	-1
471.319	1	9
471.489	1	-2
471.659	1	11
471.830	1	5
472.000	1	-1
472.171	1	6
472.341	1	-1
472.511	1	13
472.682	1	0
472.852	1	1
473.023	1	4
473.193	1	1
473.363	1	-7
473.534	1	-1
473.704	1	9
473.875	1	-6
474.045	1	10
474.215	1	10
474.386	1	6
474.556	1	3
474.727	1	2
474.897	1	1
475.067	1	-5
475.238	1	0
475.408	1	-4
475.578	1	2
475.749	1	7
475.919	1	5
476.090	1	10
476.260	1	-2
476.430	1	9
476.601	1	10
476.771	1	-7
476.942	1	8
477.112	1	-3
477.282	1	5
477.453	1	-7
477.623	1	11
477.793	1	7
477.964	1	3
478.134	1	1
478.305	1	3
478.475	1	4
478.645	1	4
478.816	1	11
478.986	1	-2
479.156	1	-6
479.327	1	-2
479.497	1	8
479.667	1	10
479.838	1	-6
480.008	1	7
480.179	1	-9
480.349	1	11
480.519	1	13
480.690	1	2
480.860	1	7
481.030	1	10
481.201	1	-6
481.371	1	9
481.541	1	11
481.712	1	3
481.882	1	-5
482.053	1	6
482.223	1	3
482.393	1	6
482.564	1	0
482.734	1	3
482.904	1	-8
483.075	1	-5
483.245	1	3
483.415	1	-2
483.586	1	1
483.756	1	3
483.926	1	-2
484.097	1	4
484.267	1	-4
484.437	1	6
484.608	1	3
484.778	1	-4
484.948	1	0
485.119	1	3
485.289	1	14
485.459	1	3
485.630	1	12
485.800	1	4
485.970	1	2
486.141	1	9
486.311	1	5
486.481	1	9
486.652	1	-2
486.822	1	-8
486.992	1	7
487.163	1	7
487.333	1	9
487.503	1	13
487.674	1	10
487.844	1	-8
488.014	1	1
488.185	1	3
488.355	1	2
488.525	1	9
488.696	1	1
488.866	1	-3
489.036	1	15
489.207	1	6
489.377	1	-1
489.547	1	9
489.718	1	2
489.888	1	8
490.058	1	15
490.228	1	3
490.399	1	1
490.569	1	11
490.739	1	9
490.910	1	9
491.080	1	11
491.250	1	11
491.421	1	6
491.591	1	-1
491.761	1	4
491.932	1	5
492.102	1	-5
492.272	1	12
492.442	1	0
492.613	1	13
492.783	1	6
492.953	1	14
493.124	1	4
493.294	1	3
493.464	1	9
493.635	1	5
493.805	1	17
493.975	1	8
494.145	1	10
494.316	1	5
494.486	1	6
494.656	1	-2
494.827	1	6
494.997	1	8
495.167	1	14
495.337	1	12
495.508	1	12
495.678	1	8
495.848	1	4
496.019	1	5
496.189	1	11
496.359	1	4
496.529	1	5
496.700	1	5
496.870	1	7
497.040	1	3
497.211	1	17
497.381	1	12
497.551	1	7
497.721	1	10
497.892	1	11
498.062	1	9
498.232	1	16
498.403	1	4
498.573	1	16
498.743	1	20
498.913	1	16
499.084	1	6
499.254	1	3
499.424	1	8
499.594	1	10
499.765	1	7
499.935	1	6
500.105	1	9
500.275	1	7
500.446	1	8
500.616	1	3
500.786	1	17
500.956	1	13
501.127	1	17
501.297	1	13
501.467	1	12
501.638	1	21
501.808	1	9
501.978	1	6
502.148	1	7
502.319	1	22
502.489	1	4
502.659	1	10
502.829	1	14
503.000	1	14
503.170	1	12
503.340	1	11
503.510	1	5
503.681	1	12
503.851	1	16
504.021	1	16
504.191	1	18
504.362	1	13
504.532	1	20
504.702	1	6
504.872	1	9
505.042	1	14
505.213	1	26
505.383	1	9
505.553	1	13
505.723	1	15
505.894	1	20
506.064	1	14
506.234	1	12
506.404	1	18
506.575	1	4
506.745	1	21
506.915	1	15
507.085	1	13
507.256	1	13
507.426	1	23
507.596	1	12
507.766	1	21
507.936	1	18
508.107	1	24
508.277	1	2
508.447	1	6
508.617	1	17
508.788	1	26
508.958	1	17
509.128	1	17
509.298	1	13
509.468	1	27
509.639	1	18
509.809	1	18
509.979	1	11
510.149	1	25
510.319	1	18
510.490	1	22
510.660	1	17
510.830	1	18
511.000	1	27
511.171	1	13
511.341	1	17
511.511	1	15
511.681	1	31
511.851	1	25
512.022	1	9
512.192	1	40
512.362	1	14
512.532	1	14
512.702	1	27
512.873	1	28
513.043	1	13
513.213	1	26
513.383	1	9
513.553	1	22
513.724	1	14
513.894	1	14
514.064	1	35
514.234	1	21
514.404	1	19
514.575	1	20
514.745	1	21
514.915	1	8
515.085	1	26
515.255	1	13
515.425	1	24
515.596	1	31
515.766	1	17
515.936	1	26
516.106	1	29
516.276	1	23
516.447	1	34
516.617	1	28
516.787	1	19
516.957	1	23
517.127	1	32
517.297	1	21
517.468	1	17
517.638	1	22
517.808	1	12
517.978	1	39
518.148	1	27
518.319	1	19
518.489	1	22
518.659	1	22
518.829	1	15
518.999	1	29
519.169	1	27
519.340	1	29
519.510	1	33
519.680	1	22
519.850	1	31
520.020	1	30
520.190	1	11
520.361	1	23
520.531	1	29
520.701	1	18
520.871	1	30
521.041	1	40
521.211	1	31
521.382	1	25
521.552	1	25
521.722	1	36
521.892	1	32
522.062	1	18
522.232	1	38
522.402	1	32
522.573	1	15
522.743	1	25
522.913	1	30
523.083	1	30
523.253	1	40
523.423	1	28
523.593	1	36
523.764	1	28
523.934	1	25
524.104	1	24
524.274	1	35
524.444	1	17
524.614	1	31
524.784	1	22
524.955	1	30
525.125	1	29
525.295	1	23
525.465	1	25
525.635	1	24
525.805	1	36
525.975	1	21
526.146	1	28
526.316	1	31
526.486	1	40
526.656	1	32
526.826	1	23
526.996	1	30
527.166	1	18
527.337	1	11
527.507	1	36
527.677	1	40
527.847	1	23
528.017	1	20
528.187	1	41
528.357	1	48
528.527	1	37
528.698	1	27
528.868	1	25
529.038	1	19
529.208	1	19
529.378	1	36
529.548	1	32
529.718	1	38
529.888	1	36
530.058	1	28
530.229	1	33
530.399	1	22
530.569	1	25
530.739	1	23
530.909	1	29
531.079	1	20
531.249	1	30
531.419	1	42
531.589	1	27
531.760	1	30
531.930	1	39
532.100	1	26
532.270	1	35
532.440	1	22
532.610	1	35
532.780	1	29
532.950	1	31
533.120	1	42
533.290	1	24
533.461	1	43
533.631	1	31
533.801	1	29
533.971	1	30
534.141	1	35
534.311	1	35
534.481	1	26
534.651	1	35
534.821	1	20
534.991	1	24
535.162	1	18
535.332	1	39
535.502	1	22
535.672	1	23
535.842	1	34
536.012	1	30
536.182	1	31
536.352	1	31
536.522	1	18
536.692	1	26
536.862	1	24
537.032	1	19
537.203	1	32
537.373	1	33
537.543	1	16
537.713	1	27
537.883	1	20
538.053	1	28
538.223	1	30
538.393	1	34
538.563	1	38
538.733	1	37
538.903	1	25
539.073	1	26
539.243	1	26
539.413	1	33
539.584	1	37
539.754	1	33
539.924	1	36
540.094	1	19
540.264	1	16
540.434	1	35
540.604	1	17
540.774	1	36
540.944	1	22
541.114	1	17
541.284	1	30
541.454	1	26
541.624	1	28
541.794	1	25
541.964	1	21
542.134	1	32
542.305	1	24
542.475	1	29
542.645	1	21
542.815	1	5
542.985	1	32
543.155	1	10
543.325	1	23
543.495	1	35
543.665	1	13
543.835	1	16
544.005	1	25
544.175	1	23
544.345	1	26
544.515	1	19
544.685	1	32
544.855	1	18
545.025	1	23
545.195	1	16
545.365	1	18
545.535	1	23
545.705	1	33
545.875	1	21
546.045	1	25
546.216	1	20
546.386	1	19
546.556	1	24
546.726	1	24
546.896	1	23
547.066	1	36
547.236	1	24
547.406	1	11
547.576	1	36
547.746	1	35
547.916	1	19
548.086	1	30
548.256	1	18
548.426	1	19
548.596	1	24
548.766	1	36
548.936	1	32
549.106	1	42
549.276	1	39
549.446	1	22
549.616	1	27
549.786	1	13
549.956	1	23
550.126	1	7
550.296	1	19
550.466	1	32
550.636	1	29
550.806	1	24
550.976	1	26
551.146	1	16
551.316	1	11
551.486	1	32
551.656	1	25
551.826	1	35
551.996	1	20
552.166	1	23
552.336	1	27
552.506	1	33
552.676	1	29
552.846	1	28
553.016	1	42
553.186	1	30
553.356	1	27
553.526	1	20
553.696	1	39
553.866	1	30
554.036	1	17
554.206	1	28
554.376	1	17
554.546	1	14
554.716	1	20
554.886	1	40
555.056	1	18
555.226	1	22
555.396	1	26
555.566	1	16
555.736	1	27
555.906	1	20
556.076	1	18
556.246	1	12
556.416	1	8
556.586	1	-1
556.756	1	17
556.926	1	19
557.096	1	23
557.266	1	21
557.436	1	24
557.606	1	19
557.776	1	28
557.946	1	16
558.116	1	21
558.286	1	16
558.456	1	6
558.626	1	2
558.796	1	16
558.966	1	15
559.136	1	7
559.306	1	25
559.476	1	17
559.646	1	11
559.816	1	24
559.986	1	9
560.155	1	14
560.325	1	6
560.495	1	16
560.665	1	12
560.835	1	11
561.005	1	22
561.175	1	18
561.345	1	13
561.515	1	6
561.685	1	17
561.855	1	14
562.025	1	9
562.195	1	12
562.365	1	20
562.535	1	24
562.705	1	4
562.875	1	7
563.045	1	15
563.215	1	19
563.385	1	-2
563.555	1	7
563.725	1	15
563.895	1	11
564.064	1	7
564.234	1	13
564.404	1	14
564.574	1	30
564.744	1	10
564.914	1	11
565.084	1	-3
565.254	1	17
565.424	1	19
565.594	1	9
565.764	1	5
565.934	1	19
566.104	1	17
566.274	1	22
566.444	1	3
566.614	1	19
566.783	1	11
566.953	1	15
567.123	1	9
567.293	1	9
567.463	1	5
567.633	1	13
567.803	1	25
567.973	1	19
568.143	1	7
568.313	1	9
568.483	1	22
568.653	1	2
568.823	1	-4
568.993	1	2
569.162	1	15
569.332	1	14
569.502	1	18
569.672	1	13
569.842	1	10
570.012	1	11
570.182	1	9
570.352	1	11
570.522	1	14
570.692	1	16
570.862	1	16
571.031	1	6
571.201	1	18
571.371	1	11
571.541	1	14
571.711	1	7
571.881	1	12
572.051	1	5
572.221	1	21
572.391	1	32
572.561	1	18
572.731	1	11
572.900	1	9
573.070	1	5
573.240	1	1
573.410	1	17
573.580	1	9
573.750	1	18
573.920	1	11
574.090	1	19
574.260	1	6
574.430	1	6
574.599	1	10
574.769	1	13
574.939	1	9
575.109	1	1
575.279	1	14
575.449	1	20
575.619	1	17
575.789	1	13
575.959	1	8
576.128	1	4
576.298	1	6
576.468	1	11
576.638	1	4
576.808	1	7
576.978	1	11
577.148	1	13
577.318	1	25
577.487	1	11
577.657	1	7
577.827	1	13
577.997	1	16
578.167	1	16
578.337	1	1
578.507	1	5
578.677	1	9
578.846	1	7
579.016	1	9
579.186	1	12
579.356	1	18
579.526	1	4
579.696	1	14
579.866	1	6
580.036	1	14
580.205	1	1
580.375	1	21
580.545	1	13
580.715	1	15
580.885	1	7
581.055	1	9
581.225	1	5
581.394	1	-3
581.564	1	2
581.734	1	-4
581.904	1	4
582.074	1	2
582.244	1	20
582.414	1	7
582.583	1	17
582.753	1	12
582.923	1	10
583.093	1	11
583.263	1	7
583.433	1	15
583.603	1	-4
583.772	1	-1
583.942	1	11
584.112	1	11
584.282	1	11
584.452	1	11
584.622	1	18
584.791	1	9
584.961	1	-4
585.131	1	1
585.301	1	3
585.471	1	0
585.641	1	18
585.811	1	5
585.980	1	0
586.150	1	11
586.320	1	-2
586.490	1	13
586.660	1	11
586.830	1	-2
586.999	1	9
587.169	1	12
587.339	1	11
587.509	1	9
587.679	1	9
587.849	1	15
588.018	1	1
588.188	1	7
588.358	1	5
588.528	1	4
588.698	1	3
588.867	1	11
589.037	1	-1
589.207	1	6
589.377	1	4
589.547	1	6
589.717	1	3
589.886	1	7
590.056	1	4
590.226	1	-7
590.396	1	5
590.566	1	-7
590.735	1	11
590.905	1	17
591.075	1	-1
591.245	1	0
591.415	1	10
591.585	1	8
591.754	1	3
591.924	1	15
592.094	1	-1
592.264	1	-4
592.434	1	0
592.603	1	5
592.773	1	8
592.943	1	7
593.113	1	5
593.283	1	4
593.452	1	7
593.622	1	0
593.792	1	13
593.962	1	1
594.132	1	-6
594.301	1	14
594.471	1	6
594.641	1	21
594.811	1	5
594.981	1	0
595.150	1	15
595.320	1	4
595.490	1	12
595.660	1	7
595.829	1	-10
595.999	1	4
596.169	1	10
596.339	1	14
596.509	1	9
596.678	1	9
596.848	1	14
597.018	1	6
597.188	1	-15
597.358	1	10
597.527	1	-6
597.697	1	7
597.867	1	3
598.037	1	11
598.206	1	15
598.376	1	8
598.546	1	10
598.716	1	-3
598.885	1	7
599.055	1	-5
599.225	1	3
599.395	1	12
599.565	1	-2
599.734	1	1
599.904	1	-3
600.074	1	8
600.244	1	6
600.413	1	7
600.583	1	6
600.753	1	13
600.923	1	-1
601.092	1	19
601.262	1	2
601.432	1	10
601.602	1	8
601.771	1	7
601.941	1	15
602.111	1	9
602.281	1	1
602.451	1	2
602.620	1	5
602.790	1	-4
602.960	1	-1
603.130	1	9
603.299	1	0
603.469	1	13
603.639	1	-7
603.809	1	5
603.978	1	-2
604.148	1	8
604.318	1	7
604.487	1	6
604.657	1	4
604.827	1	0
604.997	1	14
605.166	1	3
605.336	1	2
605.506	1	-8
605.676	1	10
605.845	1	1
606.015	1	3
606.185	1	1
606.355	1	-6
606.524	1	17
606.694	1	5
606.864	1	2
607.034	1	9
607.203	1	16
607.373	1	8
607.543	1	5
607.712	1	1
607.882	1	10
608.052	1	2
608.222	1	5
608.391	1	13
608.561	1	-2
608.731	1	4
608.901	1	7
609.070	1	-9
609.240	1	-4
609.410	1	4
609.579	1	9
609.749	1	10
609.919	1	4
610.089	1	3
610.258	1	11
610.428	1	8
610.598	1	2
610.767	1	10
610.937	1	5
611.107	1	6
611.277	1	0
611.446	1	10
611.616	1	6
611.786	1	6
611.955	1	0
612.125	1	5
612.295	1	2
612.465	1	3
612.634	1	7
612.804	1	4
612.974	1	-3
613.143	1	7
613.313	1	12
613.483	1	14
613.652	1	9
613.822	1	-4
613.992	1	-5
614.162	1	10
614.331	1	6
614.501	1	2
614.671	1	6
614.840	1	0
615.010	1	2
615.180	1	8
615.349	1	12
615.519	1	1
615.689	1	-5
615.858	1	8
616.028	1	3
616.198	1	8
616.368	1	1
616.537	1	3
616.707	1	6
616.877	1	7
617.046	1	16
617.216	1	5
617.386	1	9
617.555	1	4
617.725	1	17
617.895	1	6
618.064	1	9
618.234	1	-5
618.404	1	0
618.573	1	7
618.743	1	15
618.913	1	8
619.082	1	0
619.252	1	5
619.422	1	-3
619.591	1	2
619.761	1	-3
619.931	1	4
620.100	1	7
620.270	1	7
620.440	1	5
620.609	1	8
620.779	1	17
620.949	1	8
621.118	1	8
621.288	1	3
621.458	1	7
621.627	1	6
621.797	1	-5
621.967	1	11
622.136	1	1
622.306	1	2
622.476	1	-6
622.645	1	5
622.815	1	1
622.985	1	1
623.154	1	-6
623.324	1	10
623.494	1	-2
623.663	1	4
623.833	1	9
624.002	1	-3
624.172	1	-3
624.342	1	18
624.511	1	1
624.681	1	-5
624.851	1	-2
625.020	1	-1
625.190	1	-4
625.360	1	4
625.529	1	-1
625.699	1	0
625.869	1	4
626.038	1	-6
626.208	1	9
626.377	1	5
626.547	1	10
626.717	1	-20
626.886	1	1
627.056	1	5
627.226	1	10
627.395	1	-3
627.565	1	20
627.735	1	4
627.904	1	14
628.074	1	13
628.243	1	9
628.413	1	-10
628.583	1	10
628.752	1	-10
628.922	1	3
629.091	1	2
629.261	1	7
629.431	1	9
629.600	1	5
629.770	1	1
629.940	1	2
630.109	1	5
630.279	1	0
630.448	1	2
630.618	1	5
630.788	1	9
630.957	1	11
631.127	1	-3
631.297	1	-13
631.466	1	5
631.636	1	8
631.805	1	7
631.975	1	-12
632.145	1	0
632.314	1	8
632.484	1	8
632.653	1	-4
632.823	1	12
632.993	1	8
633.162	1	-1
633.332	1	2
633.501	1	-9
633.671	1	-1
633.841	1	4
634.010	1	15
634.180	1	3
634.349	1	3
634.519	1	13
634.689	1	5
634.858	1	-3
635.028	1	-3
635.197	1	11
635.367	1	8
635.537	1	2
635.706	1	4
635.876	1	3
636.045	1	6
636.215	1	18
636.384	1	8
636.554	1	2
636.724	1	11
636.893	1	3
637.063	1	12
637.232	1	6
637.402	1	6
637.572	1	11
637.741	1	0
637.911	1	-6
638.080	1	11
638.250	1	6
638.419	1	7
638.589	1	12
638.759	1	-3
638.928	1	7
639.098	1	10
639.267	1	4
639.437	1	3
639.606	1	10
639.776	1	3
639.946	1	0
640.115	1	-2
640.285	1	6
640.454	1	9
640.624	1	16
640.793	1	7
640.963	1	2
641.132	1	6
641.302	1	-5
641.472	1	8
641.641	1	8
641.811	1	-4
641.980	1	-1
642.150	1	-2
642.319	1	9
642.489	1	3
642.659	1	9
642.828	1	-1
642.998	1	3
643.167	1	-2
643.337	1	2
643.506	1	4
643.676	1	0
643.845	1	2
644.015	1	3
644.184	1	-5
644.354	1	5
644.524	1	-2
644.693	1	-1
644.863	1	13
645.032	1	0
645.202	1	1
645.371	1	-2
645.541	1	0
645.710	1	-3
645.880	1	-7
646.049	1	-2
646.219	1	0
646.388	1	1
646.558	1	3
646.728	1	-1
646.897	1	6
647.067	1	9
647.236	1	7
647.406	1	6
647.575	1	10
647.745	1	5
647.914	1	-4
648.084	1	4
648.253	1	-4
648.423	1	9
648.592	1	-5
648.762	1	12
648.931	1	9
649.101	1	-1
649.270	1	1
649.440	1	-1
649.610	1	-1
649.779	1	3
649.949	1	9
650.118	1	1
650.288	1	9
650.457	1	17
650.627	1	6
650.796	1	3
650.966	1	-8
651.135	1	8
651.305	1	-4
651.474	1	8
651.644	1	13
651.813	1	6
651.983	1	1
652.152	1	11
652.322	1	12
652.491	1	1
652.661	1	0
652.830	1	2
653.000	1	8
653.169	1	6
653.339	1	5
653.508	1	9
653.678	1	6
653.847	1	6
654.017	1	13
654.186	1	4
654.356	1	-5
654.525	1	-8
654.695	1	-6
654.864	1	1
655.034	1	3
655.203	1	9
655.373	1	14
655.542	1	-3
655.712	1	3
655.881	1	17
656.051	1	8
656.220	1	9
656.390	1	-1
656.559	1	-10
656.729	1	-2
656.898	1	6
657.068	1	0
657.237	1	12
657.406	1	-6
657.576	1	1
657.745	1	10
657.915	1	3
658.084	1	2
658.254	1	10
658.423	1	0
658.593	1	11
658.762	1	8
658.932	1	9
659.101	1	-5
659.271	1	-2
659.440	1	8
659.610	1	0
659.779	1	13
659.949	1	5
660.118	1	14
660.288	1	-5
660.457	1	3
660.626	1	8
660.796	1	-1
660.965	1	-6
661.135	1	-4
661.304	1	4
661.474	1	-2
661.643	1	-5
661.813	1	1
661.982	1	8
662.152	1	4
662.321	1	-7
662.491	1	7
662.660	1	9
662.829	1	9
662.999	1	5
663.168	1	10
663.338	1	12
663.507	1	-1
663.677	1	4
663.846	1	4
664.016	1	-9
664.185	1	-7
664.354	1	9
664.524	1	8
664.693	1	9
664.863	1	3
665.032	1	2
665.202	1	2
665.371	1	-11
665.541	1	18
665.710	1	-1
665.879	1	2
666.049	1	-10
666.218	1	-1
666.388	1	5
666.557	1	8
666.727	1	5
666.896	1	2
667.065	1	3
667.235	1	17
667.404	1	3
667.574	1	5
667.743	1	2
667.913	1	6
668.082	1	-6
668.251	1	2
668.421	1	4
668.590	1	3
668.760	1	2
668.929	1	7
669.099	1	-2
669.268	1	-5
669.437	1	1
669.607	1	18
669.776	1	4
669.946	1	-1
670.115	1	-13
670.285	1	6
670.454	1	-1
670.623	1	-4
670.793	1	5
670.962	1	6
671.132	1	-4
671.301	1	4
671.470	1	6
671.640	1	-1
671.809	1	-5
671.979	1	15
672.148	1	7
672.317	1	-6
672.487	1	-4
672.656	1	-2
672.826	1	2
672.995	1	5
673.164	1	-13
673.334	1	0
673.503	1	-7
673.673	1	4
673.842	1	7
674.011	1	16
674.181	1	4
674.350	1	-5
674.520	1	4
674.689	1	-9
674.858	1	-6
675.028	1	11
675.197	1	6
675.367	1	5
675.536	1	7
675.705	1	-5
675.875	1	4
676.044	1	-14
676.214	1	6
676.383	1	15
676.552	1	6
676.722	1	3
676.891	1	3
677.060	1	4
677.230	1	11
677.399	1	-6
677.569	1	9
677.738	1	-2
677.907	1	-5
678.077	1	5
678.246	1	3
678.416	1	8
678.585	1	-4
678.754	1	10
678.924	1	5
679.093	1	6
679.262	1	4
679.432	1	-2
679.601	1	0
679.771	1	7
679.940	1	3
680.109	1	-6
680.279	1	8
680.448	1	21
680.617	1	-6
680.787	1	-2
680.956	1	3
681.125	1	1
681.295	1	-1
681.464	1	10
681.634	1	11
681.803	1	3
681.972	1	4
682.142	1	9
682.311	1	3
682.480	1	1
682.650	1	12
682.819	1	4
682.988	1	-8
683.158	1	-3
683.327	1	18
683.496	1	4
683.666	1	4
683.835	1	-3
684.004	1	5
684.174	1	6
684.343	1	3
684.512	1	8
684.682	1	2
684.851	1	9
685.021	1	6
685.190	1	-1
685.359	1	-9
685.529	1	13
685.698	1	-2
685.867	1	12
686.037	1	9
686.206	1	10
686.375	1	2
686.545	1	19
686.714	1	0
686.883	1	16
687.053	1	2
687.222	1	-6
687.391	1	3
687.561	1	6
687.730	1	9
687.899	1	-1
688.069	1	5
688.238	1	-3
688.407	1	15
688.577	1	2
688.746	1	15
