340.368	1	5
340.539	1	6
340.710	1	4
340.881	1	9
341.052	1	1
341.223	1	15
341.394	1	-1
341.565	1	-9
341.737	1	-2
341.908	1	-11
342.079	1	-10
342.250	1	0
342.421	1	13
342.592	1	3
342.763	1	14
342.934	1	-3
343.105	1	4
343.276	1	-3
343.447	1	-16
343.618	1	-4
343.789	1	-7
343.960	1	-2
344.131	1	0
344.302	1	-4
344.473	1	4
344.644	1	-1
344.815	1	-2
344.986	1	9
345.157	1	6
345.328	1	-9
345.499	1	5
345.670	1	-2
345.841	1	-4
346.012	1	2
346.183	1	7
346.354	1	3
346.526	1	1
346.697	1	2
346.868	1	-3
347.039	1	-2
347.210	1	1
347.381	1	0
347.552	1	2
347.723	1	-5
347.894	1	-2
348.065	1	16
348.236	1	5
348.407	1	-5
348.578	1	2
348.749	1	-1
348.920	1	-3
349.091	1	-1
349.262	1	1
349.433	1	0
349.604	1	12
349.775	1	0
349.946	1	-8
350.117	1	8
350.288	1	7
350.459	1	-4
350.630	1	10
350.801	1	7
350.972	1	-2
351.143	1	7
351.314	1	1
351.485	1	9
351.656	1	1
351.827	1	5
351.998	1	9
352.169	1	-4
352.340	1	8
352.511	1	6
352.682	1	-7
352.853	1	1
353.024	1	5
353.195	1	-3
353.366	1	7
353.537	1	4
353.708	1	9
353.879	1	-10
354.050	1	15
354.221	1	7
354.392	1	10
354.563	1	9
354.734	1	2
354.905	1	10
355.076	1	6
355.247	1	8
355.418	1	7
355.589	1	-7
355.760	1	6
355.931	1	6
356.102	1	1
356.273	1	4
356.444	1	3
356.615	1	0
356.785	1	11
356.956	1	7
357.127	1	7
357.298	1	8
357.469	1	1
357.640	1	-1
357.811	1	3
357.982	1	9
358.153	1	12
358.324	1	20
358.495	1	3
358.666	1	9
358.837	1	10
359.008	1	10
359.179	1	-4
359.350	1	-1
359.521	1	16
359.692	1	14
359.863	1	10
360.034	1	15
360.205	1	12
360.376	1	13
360.547	1	7
360.718	1	17
360.889	1	16
361.060	1	20
361.231	1	4
361.401	1	11
361.572	1	11
361.743	1	32
361.914	1	27
362.085	1	21
362.256	1	21
362.427	1	4
362.598	1	13
362.769	1	20
362.940	1	24
363.111	1	30
363.282	1	19
363.453	1	29
363.624	1	20
363.795	1	36
363.966	1	28
364.137	1	34
364.308	1	37
364.478	1	31
364.649	1	43
364.820	1	31
364.991	1	43
365.162	1	39
365.333	1	35
365.504	1	37
365.675	1	46
365.846	1	41
366.017	1	49
366.188	1	44
366.359	1	41
366.530	1	39
366.701	1	53
366.871	1	48
367.042	1	48
367.213	1	42
367.384	1	39
367.555	1	46
367.726	1	50
367.897	1	55
368.068	1	47
368.239	1	44
368.410	1	43
368.581	1	49
368.752	1	49
368.923	1	41
369.093	1	39
369.264	1	37
369.435	1	47
369.606	1	46
369.777	1	41
369.948	1	32
370.119	1	41
370.290	1	30
370.461	1	35
370.632	1	37
370.803	1	36
370.973	1	32
371.144	1	30
371.315	1	34
371.486	1	25
371.657	1	26
371.828	1	28
371.999	1	25
372.170	1	34
372.341	1	34
372.512	1	23
372.682	1	18
372.853	1	25
373.024	1	32
373.195	1	10
373.366	1	11
373.537	1	40
373.708	1	14
373.879	1	23
374.050	1	23
374.220	1	21
374.391	1	24
374.562	1	16
374.733	1	11
374.904	1	32
375.075	1	17
375.246	1	3
375.417	1	15
375.588	1	24
375.758	1	7
375.929	1	10
376.100	1	14
376.271	1	16
376.442	1	0
376.613	1	14
376.784	1	28
376.955	1	13
377.125	1	18
377.296	1	4
377.467	1	12
377.638	1	10
377.809	1	27
377.980	1	17
378.151	1	19
378.321	1	13
378.492	1	6
378.663	1	9
378.834	1	21
379.005	1	14
379.176	1	11
379.347	1	14
379.518	1	7
379.688	1	12
379.859	1	10
380.030	1	27
380.201	1	15
380.372	1	20
380.543	1	19
380.714	1	11
380.884	1	16
381.055	1	10
381.226	1	18
381.397	1	14
381.568	1	13
381.739	1	9
381.910	1	12
382.080	1	20
382.251	1	9
382.422	1	7
382.593	1	17
382.764	1	8
382.935	1	9
383.105	1	13
383.276	1	16
383.447	1	15
383.618	1	23
383.789	1	15
383.960	1	21
384.130	1	13
384.301	1	24
384.472	1	23
384.643	1	15
384.814	1	21
384.985	1	16
385.156	1	30
385.326	1	23
385.497	1	15
385.668	1	18
385.839	1	27
386.010	1	22
386.180	1	10
386.351	1	24
386.522	1	25
386.693	1	19
386.864	1	28
387.035	1	26
387.205	1	33
387.376	1	29
387.547	1	25
387.718	1	23
387.889	1	30
388.060	1	26
388.230	1	34
388.401	1	21
388.572	1	36
388.743	1	18
388.914	1	18
389.084	1	32
389.255	1	29
389.426	1	19
389.597	1	35
389.768	1	28
389.939	1	29
390.109	1	22
390.280	1	24
390.451	1	22
390.622	1	29
390.793	1	19
390.963	1	22
391.134	1	23
391.305	1	19
391.476	1	30
391.647	1	19
391.817	1	15
391.988	1	22
392.159	1	16
392.330	1	21
392.501	1	22
392.671	1	18
392.842	1	25
393.013	1	36
393.184	1	18
393.355	1	34
393.525	1	21
393.696	1	10
393.867	1	26
394.038	1	13
394.208	1	30
394.379	1	13
394.550	1	16
394.721	1	21
394.892	1	12
395.062	1	14
395.233	1	32
395.404	1	13
395.575	1	14
395.746	1	21
395.916	1	17
396.087	1	20
396.258	1	22
396.429	1	13
396.599	1	28
396.770	1	28
396.941	1	20
397.112	1	25
397.283	1	23
397.453	1	32
397.624	1	29
397.795	1	17
397.966	1	28
398.136	1	20
398.307	1	18
398.478	1	9
398.649	1	28
398.819	1	16
398.990	1	15
399.161	1	19
399.332	1	15
399.503	1	24
399.673	1	6
399.844	1	22
400.015	1	17
400.186	1	15
400.356	1	23
400.527	1	26
400.698	1	12
400.869	1	16
401.039	1	14
401.210	1	13
401.381	1	17
401.552	1	6
401.722	1	12
401.893	1	16
402.064	1	18
402.235	1	4
402.405	1	16
402.576	1	4
402.747	1	5
402.918	1	19
403.088	1	7
403.259	1	8
403.430	1	11
403.601	1	20
403.771	1	23
403.942	1	15
404.113	1	20
404.284	1	6
404.454	1	20
404.625	1	15
404.796	1	8
404.967	1	16
405.137	1	14
405.308	1	25
405.479	1	20
405.649	1	18
405.820	1	17
405.991	1	11
406.162	1	17
406.332	1	4
406.503	1	14
406.674	1	14
406.845	1	25
407.015	1	18
407.186	1	19
407.357	1	14
407.527	1	13
407.698	1	10
407.869	1	16
408.040	1	17
408.210	1	13
408.381	1	4
408.552	1	5
408.722	1	4
408.893	1	12
409.064	1	4
409.235	1	8
409.405	1	15
409.576	1	18
409.747	1	21
409.917	1	19
410.088	1	5
410.259	1	6
410.430	1	11
410.600	1	9
410.771	1	7
410.942	1	11
411.112	1	16
411.283	1	8
411.454	1	8
411.625	1	5
411.795	1	14
411.966	1	28
412.137	1	18
412.307	1	24
412.478	1	13
412.649	1	3
412.819	1	15
412.990	1	-2
413.161	1	3
413.332	1	3
413.502	1	13
413.673	1	21
413.844	1	20
414.014	1	5
414.185	1	16
414.356	1	9
414.526	1	9
414.697	1	15
414.868	1	-6
415.038	1	10
415.209	1	1
415.380	1	12
415.550	1	5
415.721	1	12
415.892	1	9
416.063	1	10
416.233	1	6
416.404	1	6
416.575	1	3
416.745	1	-3
416.916	1	9
417.087	1	7
417.257	1	13
417.428	1	9
417.599	1	14
417.769	1	1
417.940	1	4
418.111	1	8
418.281	1	5
418.452	1	9
418.623	1	5
418.793	1	8
418.964	1	8
419.135	1	29
419.305	1	4
419.476	1	-1
419.647	1	9
419.817	1	18
419.988	1	0
420.159	1	15
420.329	1	2
420.500	1	11
420.671	1	-5
420.841	1	6
421.012	1	6
421.183	1	14
421.353	1	7
421.524	1	15
421.695	1	11
421.865	1	18
422.036	1	5
422.206	1	8
422.377	1	6
422.548	1	11
422.718	1	7
422.889	1	0
423.060	1	-1
423.230	1	10
423.401	1	7
423.572	1	12
423.742	1	5
423.913	1	-2
424.084	1	7
424.254	1	5
424.425	1	1
424.595	1	11
424.766	1	14
424.937	1	18
425.107	1	7
425.278	1	3
425.449	1	11
425.619	1	15
425.790	1	8
425.961	1	-6
426.131	1	0
426.302	1	9
426.472	1	6
426.643	1	4
426.814	1	2
426.984	1	1
427.155	1	-3
427.326	1	4
427.496	1	-1
427.667	1	8
427.837	1	15
428.008	1	11
428.179	1	-1
428.349	1	-6
428.520	1	12
428.691	1	-4
428.861	1	0
429.032	1	1
429.202	1	10
429.373	1	10
429.544	1	-4
429.714	1	-3
429.885	1	10
430.055	1	8
430.226	1	2
430.397	1	6
430.567	1	9
430.738	1	-2
430.909	1	6
431.079	1	6
431.250	1	0
431.420	1	0
431.591	1	7
431.762	1	4
431.932	1	-2
432.103	1	6
432.273	1	7
432.444	1	-6
432.615	1	-10
432.785	1	-2
432.956	1	3
433.126	1	8
433.297	1	8
433.468	1	2
433.638	1	5
433.809	1	3
433.979	1	9
434.150	1	9
434.320	1	4
434.491	1	15
434.662	1	6
434.832	1	4
435.003	1	-1
435.173	1	5
435.344	1	-3
435.515	1	-1
435.685	1	-1
435.856	1	2
436.026	1	2
436.197	1	-3
436.368	1	7
436.538	1	-3
436.709	1	-2
436.879	1	8
437.050	1	8
437.220	1	1
437.391	1	9
437.562	1	15
437.732	1	6
437.903	1	-11
438.073	1	0
438.244	1	-1
438.414	1	4
438.585	1	5
438.756	1	3
438.926	1	-4
439.097	1	15
439.267	1	2
439.438	1	11
439.608	1	11
439.779	1	-1
439.949	1	0
440.120	1	1
440.291	1	5
440.461	1	10
440.632	1	14
440.802	1	6
440.973	1	9
441.143	1	4
441.314	1	-1
441.485	1	-5
441.655	1	5
441.826	1	-5
441.996	1	-1
442.167	1	9
442.337	1	12
442.508	1	5
442.678	1	1
442.849	1	0
443.019	1	4
443.190	1	12
443.361	1	9
443.531	1	10
443.702	1	-11
443.872	1	-7
444.043	1	9
444.213	1	11
444.384	1	10
444.554	1	-1
444.725	1	2
444.895	1	-7
445.066	1	5
445.237	1	5
445.407	1	4
445.578	1	8
445.748	1	-5
445.919	1	3
446.089	1	3
446.260	1	3
446.430	1	-7
446.601	1	9
446.771	1	-9
446.942	1	3
447.112	1	3
447.283	1	-2
447.453	1	1
447.624	1	-3
447.794	1	3
447.965	1	15
448.135	1	-4
448.306	1	1
448.477	1	8
448.647	1	3
448.818	1	3
448.988	1	6
449.159	1	4
449.329	1	2
449.500	1	-4
449.670	1	5
449.841	1	3
450.011	1	1
450.182	1	-11
450.352	1	3
450.523	1	3
450.693	1	3
450.864	1	6
451.034	1	7
451.205	1	8
451.375	1	4
451.546	1	-6
451.716	1	11
451.887	1	-1
452.057	1	8
452.228	1	4
452.398	1	11
452.569	1	-6
452.739	1	2
452.910	1	1
453.080	1	3
453.251	1	-1
453.421	1	4
453.592	1	18
453.762	1	6
453.933	1	-11
454.103	1	7
454.274	1	-6
454.444	1	4
454.615	1	15
454.785	1	6
454.956	1	9
455.126	1	5
455.297	1	7
455.467	1	-7
455.638	1	7
455.808	1	7
455.979	1	7
456.149	1	5
456.320	1	15
456.490	1	5
456.661	1	-21
456.831	1	0
457.001	1	12
457.172	1	-1
457.342	1	9
457.513	1	12
457.683	1	0
457.854	1	7
458.024	1	-10
458.195	1	-7
458.365	1	5
458.536	1	-3
458.706	1	8
458.877	1	5
459.047	1	9
459.218	1	3
459.388	1	2
459.559	1	6
459.729	1	-7
459.899	1	-2
460.070	1	1
460.240	1	0
460.411	1	-3
460.581	1	1
460.752	1	4
460.922	1	17
461.093	1	2
461.263	1	-1
461.434	1	3
461.604	1	8
461.775	1	10
461.945	1	2
462.115	1	-1
462.286	1	4
462.456	1	13
462.627	1	16
462.797	1	-12
462.968	1	2
463.138	1	6
463.309	1	7
463.479	1	7
463.649	1	-6
463.820	1	3
463.990	1	12
464.161	1	7
464.331	1	13
464.502	1	12
464.672	1	-14
464.843	1	-5
465.013	1	-2
465.183	1	-4
465.354	1	8
465.524	1	-10
465.695	1	13
465.865	1	9
466.036	1	15
466.206	1	4
466.376	1	-2
466.547	1	-2
466.717	1	8
466.888	1	-6
467.058	1	0
467.229	1	11
467.399	1	12
467.569	1	14
467.740	1	7
467.910	1	5
468.081	1	0
468.251	1	8
468.422	1	-7
468.592	1	-1
468.762	1	5
468.933	1	4
469.103	1	4
469.274	1	4
469.444	1	10
469.614	1	7
469.785	1	10
469.955	1	-5
470.126	1	-5
470.296	1	6
470.467	1	-4
470.637	1	1
470.807	1	9
470.978	1	1
471.148	1	-4
471.319	1	12
471.489	1	-9
471.659	1	-1
471.830	1	6
472.000	1	6
472.171	1	3
472.341	1	-11
472.511	1	8
472.682	1	-3
472.852	1	3
473.023	1	8
473.193	1	4
473.363	1	0
473.534	1	-1
473.704	1	0
473.875	1	0
474.045	1	9
474.215	1	6
474.386	1	3
474.556	1	9
474.727	1	-4
474.897	1	-1
475.067	1	-9
475.238	1	2
475.408	1	-2
475.578	1	2
475.749	1	-2
475.919	1	5
476.090	1	2
476.260	1	-2
476.430	1	3
476.601	1	15
476.771	1	1
476.942	1	-1
477.112	1	1
477.282	1	-5
477.453	1	-3
477.623	1	9
477.793	1	5
477.964	1	-1
478.134	1	3
478.305	1	-1
478.475	1	3
478.645	1	5
478.816	1	4
478.986	1	1
479.156	1	-4
479.327	1	-3
479.497	1	9
479.667	1	9
479.838	1	5
480.008	1	-9
480.179	1	0
480.349	1	0
480.519	1	14
480.690	1	2
480.860	1	0
481.030	1	4
481.201	1	0
481.371	1	12
481.541	1	4
481.712	1	6
481.882	1	-1
482.053	1	8
482.223	1	4
482.393	1	0
482.564	1	10
482.734	1	-2
482.904	1	1
483.075	1	-5
483.245	1	6
483.415	1	1
483.586	1	8
483.756	1	5
483.926	1	2
484.097	1	6
484.267	1	-8
484.437	1	3
484.608	1	2
484.778	1	0
484.948	1	-2
485.119	1	3
485.289	1	1
485.459	1	5
485.630	1	7
485.800	1	8
485.970	1	11
486.141	1	-1
486.311	1	3
486.481	1	3
486.652	1	2
486.822	1	-9
486.992	1	9
487.163	1	8
487.333	1	14
487.503	1	1
487.674	1	7
487.844	1	1
488.014	1	5
488.185	1	4
488.355	1	5
488.525	1	3
488.696	1	6
488.866	1	-4
489.036	1	9
489.207	1	11
489.377	1	3
489.547	1	7
489.718	1	3
489.888	1	1
490.058	1	-6
490.228	1	0
490.399	1	11
490.569	1	11
490.739	1	4
490.910	1	-10
491.080	1	-4
491.250	1	0
491.421	1	7
491.591	1	2
491.761	1	0
491.932	1	2
492.102	1	-5
492.272	1	0
492.442	1	4
492.613	1	6
492.783	1	7
492.953	1	3
493.124	1	14
493.294	1	4
493.464	1	6
493.635	1	0
493.805	1	4
493.975	1	1
494.145	1	4
494.316	1	10
494.486	1	6
494.656	1	0
494.827	1	11
494.997	1	2
495.167	1	12
495.337	1	2
495.508	1	11
495.678	1	7
495.848	1	2
496.019	1	5
496.189	1	9
496.359	1	1
496.529	1	10
496.700	1	1
496.870	1	11
497.040	1	4
497.211	1	10
497.381	1	4
497.551	1	5
497.721	1	4
497.892	1	10
498.062	1	11
498.232	1	17
498.403	1	17
498.573	1	7
498.743	1	11
498.913	1	6
499.084	1	3
499.254	1	-6
499.424	1	6
499.594	1	-4
499.765	1	9
499.935	1	2
500.105	1	10
500.275	1	4
500.446	1	7
500.616	1	-3
500.786	1	13
500.956	1	15
501.127	1	4
501.297	1	3
501.467	1	8
501.638	1	12
501.808	1	14
501.978	1	13
502.148	1	3
502.319	1	18
502.489	1	1
502.659	1	20
502.829	1	11
503.000	1	16
503.170	1	12
503.340	1	17
503.510	1	-2
503.681	1	10
503.851	1	5
504.021	1	13
504.191	1	15
504.362	1	6
504.532	1	19
504.702	1	7
504.872	1	0
505.042	1	1
505.213	1	16
505.383	1	10
505.553	1	9
505.723	1	16
505.894	1	11
506.064	1	15
506.234	1	11
506.404	1	11
506.575	1	12
506.745	1	16
506.915	1	15
507.085	1	5
507.256	1	8
507.426	1	14
507.596	1	17
507.766	1	15
507.936	1	6
508.107	1	15
508.277	1	10
508.447	1	12
508.617	1	6
508.788	1	14
508.958	1	8
509.128	1	18
509.298	1	11
509.468	1	19
509.639	1	6
509.809	1	22
509.979	1	17
510.149	1	22
510.319	1	7
510.490	1	15
510.660	1	19
510.830	1	8
511.000	1	13
511.171	1	14
511.341	1	15
511.511	1	8
511.681	1	28
511.851	1	17
512.022	1	7
512.192	1	14
512.362	1	11
512.532	1	-1
512.702	1	11
512.873	1	12
513.043	1	18
513.213	1	24
513.383	1	7
513.553	1	19
513.724	1	5
513.894	1	15
514.064	1	19
514.234	1	14
514.404	1	9
514.575	1	3
514.745	1	12
514.915	1	-10
515.085	1	15
515.255	1	11
515.425	1	16
515.596	1	20
515.766	1	18
515.936	1	15
516.106	1	18
516.276	1	15
516.447	1	20
516.617	1	12
516.787	1	14
516.957	1	17
517.127	1	17
517.297	1	16
517.468	1	5
517.638	1	11
517.808	1	13
517.978	1	23
518.148	1	13
518.319	1	11
518.489	1	8
518.659	1	14
518.829	1	10
518.999	1	12
519.169	1	16
519.340	1	24
519.510	1	26
519.680	1	16
519.850	1	6
520.020	1	18
520.190	1	19
520.361	1	10
520.531	1	18
520.701	1	28
520.871	1	9
521.041	1	19
521.211	1	25
521.382	1	11
521.552	1	8
521.722	1	24
521.892	1	22
522.062	1	9
522.232	1	17
522.402	1	18
522.573	1	15
522.743	1	15
522.913	1	19
523.083	1	16
523.253	1	25
523.423	1	14
523.593	1	16
523.764	1	19
523.934	1	14
524.104	1	9
524.274	1	15
524.444	1	17
524.614	1	18
524.784	1	10
524.955	1	25
525.125	1	20
525.295	1	17
525.465	1	17
525.635	1	8
525.805	1	18
525.975	1	5
526.146	1	16
526.316	1	10
526.486	1	16
526.656	1	25
526.826	1	18
526.996	1	16
527.166	1	15
527.337	1	10
527.507	1	17
527.677	1	28
527.847	1	24
528.017	1	10
528.187	1	21
528.357	1	26
528.527	1	27
528.698	1	18
528.868	1	18
529.038	1	26
529.208	1	12
529.378	1	26
529.548	1	25
529.718	1	18
529.888	1	17
530.058	1	24
530.229	1	20
530.399	1	15
530.569	1	15
530.739	1	5
530.909	1	5
531.079	1	12
531.249	1	12
531.419	1	26
531.589	1	24
531.760	1	20
531.930	1	19
532.100	1	20
532.270	1	25
532.440	1	19
532.610	1	26
532.780	1	18
532.950	1	25
533.120	1	24
533.290	1	11
533.461	1	29
533.631	1	18
533.801	1	15
533.971	1	9
534.141	1	25
534.311	1	23
534.481	1	21
534.651	1	26
534.821	1	16
534.991	1	9
535.162	1	13
535.332	1	20
535.502	1	19
535.672	1	12
535.842	1	21
536.012	1	15
536.182	1	21
536.352	1	13
536.522	1	7
536.692	1	17
536.862	1	10
537.032	1	16
537.203	1	24
537.373	1	19
537.543	1	13
537.713	1	7
537.883	1	16
538.053	1	9
538.223	1	14
538.393	1	16
538.563	1	23
538.733	1	14
538.903	1	14
539.073	1	6
539.243	1	12
539.413	1	20
539.584	1	17
539.754	1	19
539.924	1	21
540.094	1	17
540.264	1	11
540.434	1	20
540.604	1	13
540.774	1	7
540.944	1	6
541.114	1	12
541.284	1	15
541.454	1	19
541.624	1	23
541.794	1	10
541.964	1	7
542.134	1	29
542.305	1	17
542.475	1	2
542.645	1	16
542.815	1	1
542.985	1	14
543.155	1	6
543.325	1	19
543.495	1	19
543.665	1	12
543.835	1	-1
544.005	1	7
544.175	1	12
544.345	1	11
544.515	1	19
544.685	1	22
544.855	1	10
545.025	1	11
545.195	1	14
545.365	1	18
545.535	1	17
545.705	1	31
545.875	1	13
546.045	1	15
546.216	1	16
546.386	1	13
546.556	1	19
546.726	1	18
546.896	1	15
547.066	1	20
547.236	1	18
547.406	1	4
547.576	1	23
547.746	1	25
547.916	1	15
548.086	1	16
548.256	1	8
548.426	1	9
548.596	1	12
548.766	1	24
548.936	1	28
549.106	1	15
549.276	1	30
549.446	1	17
549.616	1	18
549.786	1	3
549.956	1	15
550.126	1	15
550.296	1	15
550.466	1	22
550.636	1	24
550.806	1	18
550.976	1	17
551.146	1	4
551.316	1	22
551.486	1	9
551.656	1	11
551.826	1	25
551.996	1	11
552.166	1	13
552.336	1	8
552.506	1	16
552.676	1	17
552.846	1	16
553.016	1	20
553.186	1	20
553.356	1	12
553.526	1	4
553.696	1	30
553.866	1	25
554.036	1	17
554.206	1	14
554.376	1	13
554.546	1	11
554.716	1	17
554.886	1	31
555.056	1	7
555.226	1	16
555.396	1	8
555.566	1	18
555.736	1	18
555.906	1	21
556.076	1	17
556.246	1	8
556.416	1	-1
556.586	1	-3
556.756	1	6
556.926	1	10
557.096	1	17
557.266	1	10
557.436	1	24
557.606	1	10
557.776	1	21
557.946	1	10
558.116	1	7
558.286	1	20
558.456	1	12
558.626	1	-8
558.796	1	11
558.966	1	15
559.136	1	13
559.306	1	12
559.476	1	17
559.646	1	9
559.816	1	18
559.986	1	3
560.155	1	12
560.325	1	14
560.495	1	4
560.665	1	1
560.835	1	16
561.005	1	9
561.175	1	15
561.345	1	10
561.515	1	3
561.685	1	3
561.855	1	2
562.025	1	19
562.195	1	6
562.365	1	12
562.535	1	17
562.705	1	2
562.875	1	6
563.045	1	8
563.215	1	10
563.385	1	-6
563.555	1	6
563.725	1	13
563.895	1	-1
564.064	1	6
564.234	1	9
564.404	1	20
564.574	1	26
564.744	1	11
564.914	1	15
565.084	1	7
565.254	1	12
565.424	1	7
565.594	1	1
565.764	1	4
565.934	1	4
566.104	1	4
566.274	1	18
566.444	1	6
566.614	1	-2
566.783	1	13
566.953	1	8
567.123	1	4
567.293	1	13
567.463	1	-4
567.633	1	6
567.803	1	19
567.973	1	5
568.143	1	1
568.313	1	6
568.483	1	15
568.653	1	1
568.823	1	11
568.993	1	1
569.162	1	4
569.332	1	14
569.502	1	0
569.672	1	8
569.842	1	-5
570.012	1	13
570.182	1	7
570.352	1	6
570.522	1	8
570.692	1	18
570.862	1	17
571.031	1	11
571.201	1	18
571.371	1	9
571.541	1	9
571.711	1	2
571.881	1	6
572.051	1	11
572.221	1	12
572.391	1	15
572.561	1	12
572.731	1	13
572.900	1	0
573.070	1	14
573.240	1	-5
573.410	1	12
573.580	1	6
573.750	1	12
573.920	1	11
574.090	1	13
574.260	1	20
574.430	1	3
574.599	1	3
574.769	1	10
574.939	1	0
575.109	1	-3
575.279	1	3
575.449	1	16
575.619	1	4
575.789	1	9
575.959	1	3
576.128	1	5
576.298	1	8
576.468	1	7
576.638	1	3
576.808	1	4
576.978	1	2
577.148	1	11
577.318	1	12
577.487	1	12
577.657	1	11
577.827	1	11
577.997	1	10
578.167	1	13
578.337	1	0
578.507	1	4
578.677	1	6
578.846	1	7
579.016	1	-1
579.186	1	6
579.356	1	5
579.526	1	6
579.696	1	18
579.866	1	0
580.036	1	16
580.205	1	10
580.375	1	19
580.545	1	9
580.715	1	6
580.885	1	15
581.055	1	5
581.225	1	8
581.394	1	-8
581.564	1	-1
581.734	1	0
581.904	1	1
582.074	1	9
582.244	1	3
582.414	1	6
582.583	1	1
582.753	1	16
582.923	1	6
583.093	1	1
583.263	1	9
583.433	1	2
583.603	1	-9
583.772	1	-3
583.942	1	9
584.112	1	-4
584.282	1	12
584.452	1	-2
584.622	1	4
584.791	1	3
584.961	1	0
585.131	1	4
585.301	1	3
585.471	1	-1
585.641	1	12
585.811	1	-1
585.980	1	3
586.150	1	4
586.320	1	8
586.490	1	12
586.660	1	11
586.830	1	3
586.999	1	11
587.169	1	-1
587.339	1	9
587.509	1	1
587.679	1	8
587.849	1	18
588.018	1	-2
588.188	1	14
588.358	1	3
588.528	1	-7
588.698	1	0
588.867	1	5
589.037	1	2
589.207	1	3
589.377	1	11
589.547	1	10
589.717	1	-1
589.886	1	4
590.056	1	4
590.226	1	-5
590.396	1	4
590.566	1	-3
590.735	1	-5
590.905	1	11
591.075	1	4
591.245	1	5
591.415	1	9
591.585	1	2
591.754	1	4
591.924	1	15
592.094	1	-1
592.264	1	-4
592.434	1	5
592.603	1	8
592.773	1	12
592.943	1	20
593.113	1	2
593.283	1	-3
593.452	1	-9
593.622	1	10
593.792	1	5
593.962	1	8
594.132	1	10
594.301	1	9
594.471	1	6
594.641	1	8
594.811	1	1
594.981	1	2
595.150	1	5
595.320	1	-2
595.490	1	7
595.660	1	1
595.829	1	-12
595.999	1	-1
596.169	1	7
596.339	1	2
596.509	1	0
596.678	1	18
596.848	1	11
597.018	1	-1
597.188	1	-3
597.358	1	16
597.527	1	0
597.697	1	7
597.867	1	14
598.037	1	5
598.206	1	9
598.376	1	-8
598.546	1	15
598.716	1	-3
598.885	1	-4
599.055	1	9
599.225	1	5
599.395	1	9
599.565	1	-4
599.734	1	7
599.904	1	-8
600.074	1	7
600.244	1	2
600.413	1	5
600.583	1	0
600.753	1	0
600.923	1	2
601.092	1	8
601.262	1	6
601.432	1	6
601.602	1	12
601.771	1	9
601.941	1	13
602.111	1	4
602.281	1	4
602.451	1	2
602.620	1	8
602.790	1	-6
602.960	1	-11
603.130	1	-3
603.299	1	3
603.469	1	2
603.639	1	-7
603.809	1	10
603.978	1	1
604.148	1	11
604.318	1	7
604.487	1	4
604.657	1	-3
604.827	1	5
604.997	1	9
605.166	1	10
605.336	1	-8
605.506	1	0
605.676	1	14
605.845	1	14
606.015	1	-8
606.185	1	6
606.355	1	4
606.524	1	10
606.694	1	3
606.864	1	0
607.034	1	7
607.203	1	16
607.373	1	4
607.543	1	4
607.712	1	8
607.882	1	1
608.052	1	1
608.222	1	13
608.391	1	11
608.561	1	2
608.731	1	4
608.901	1	8
609.070	1	-5
609.240	1	0
609.410	1	2
609.579	1	9
609.749	1	6
609.919	1	-5
610.089	1	7
610.258	1	6
610.428	1	12
610.598	1	1
610.767	1	10
610.937	1	1
611.107	1	-6
611.277	1	-7
611.446	1	2
611.616	1	7
611.786	1	4
611.955	1	4
612.125	1	9
612.295	1	4
612.465	1	0
612.634	1	-1
612.804	1	3
612.974	1	-6
613.143	1	4
613.313	1	12
613.483	1	15
613.652	1	6
613.822	1	1
613.992	1	-8
614.162	1	6
614.331	1	4
614.501	1	-2
614.671	1	4
614.840	1	4
615.010	1	11
615.180	1	6
615.349	1	14
615.519	1	-6
615.689	1	-16
615.858	1	5
616.028	1	12
616.198	1	9
616.368	1	5
616.537	1	2
616.707	1	1
616.877	1	12
617.046	1	9
617.216	1	3
617.386	1	3
617.555	1	-4
617.725	1	7
617.895	1	2
618.064	1	6
618.234	1	-2
618.404	1	-2
618.573	1	4
618.743	1	13
618.913	1	-8
619.082	1	4
619.252	1	1
619.422	1	-1
619.591	1	-6
619.761	1	-1
619.931	1	3
620.100	1	11
620.270	1	7
620.440	1	9
620.609	1	8
620.779	1	9
620.949	1	-2
621.118	1	5
621.288	1	-1
621.458	1	13
621.627	1	4
621.797	1	-7
621.967	1	3
622.136	1	2
622.306	1	7
622.476	1	0
622.645	1	7
622.815	1	-2
622.985	1	-1
623.154	1	-10
623.324	1	-1
623.494	1	-1
623.663	1	1
623.833	1	5
624.002	1	-6
624.172	1	-5
624.342	1	6
624.511	1	0
624.681	1	3
624.851	1	-1
625.020	1	7
625.190	1	0
625.360	1	-10
625.529	1	-7
625.699	1	-3
625.869	1	1
626.038	1	-1
626.208	1	14
626.377	1	-2
626.547	1	6
626.717	1	-11
626.886	1	-5
627.056	1	3
627.226	1	15
627.395	1	0
627.565	1	0
627.735	1	-3
627.904	1	10
628.074	1	7
628.243	1	2
628.413	1	1
628.583	1	-4
628.752	1	-3
628.922	1	6
629.091	1	2
629.261	1	11
629.431	1	-3
629.600	1	2
629.770	1	4
629.940	1	-7
630.109	1	9
630.279	1	12
630.448	1	-5
630.618	1	17
630.788	1	7
630.957	1	4
631.127	1	-3
631.297	1	1
631.466	1	2
631.636	1	9
631.805	1	11
631.975	1	-7
632.145	1	1
632.314	1	5
632.484	1	14
632.653	1	-11
632.823	1	-15
632.993	1	4
633.162	1	7
633.332	1	-1
633.501	1	-8
633.671	1	5
633.841	1	-6
634.010	1	4
634.180	1	4
634.349	1	10
634.519	1	9
634.689	1	-4
634.858	1	-11
635.028	1	1
635.197	1	-3
635.367	1	7
635.537	1	-1
635.706	1	3
635.876	1	3
636.045	1	1
636.215	1	14
636.384	1	1
636.554	1	1
636.724	1	2
636.893	1	5
637.063	1	4
637.232	1	5
637.402	1	-2
637.572	1	4
637.741	1	-2
637.911	1	-6
638.080	1	5
638.250	1	7
638.419	1	5
638.589	1	4
638.759	1	2
638.928	1	12
639.098	1	-5
639.267	1	9
639.437	1	4
639.606	1	7
639.776	1	5
639.946	1	2
640.115	1	-2
640.285	1	10
640.454	1	8
640.624	1	9
640.793	1	-2
640.963	1	1
641.132	1	8
641.302	1	-9
641.472	1	2
641.641	1	8
641.811	1	-1
641.980	1	9
642.150	1	-1
642.319	1	17
642.489	1	-6
642.659	1	9
642.828	1	8
642.998	1	5
643.167	1	-7
643.337	1	0
643.506	1	3
643.676	1	-5
643.845	1	6
644.015	1	-4
644.184	1	-9
644.354	1	-1
644.524	1	12
644.693	1	4
644.863	1	4
645.032	1	7
645.202	1	1
645.371	1	-8
645.541	1	7
645.710	1	6
645.880	1	-9
646.049	1	1
646.219	1	-5
646.388	1	-3
646.558	1	8
646.728	1	4
646.897	1	-1
647.067	1	0
647.236	1	15
647.406	1	3
647.575	1	7
647.745	1	9
647.914	1	-1
648.084	1	6
648.253	1	-5
648.423	1	7
648.592	1	-11
648.762	1	13
648.931	1	3
649.101	1	-1
649.270	1	2
649.440	1	6
649.610	1	1
649.779	1	1
649.949	1	10
650.118	1	9
650.288	1	7
650.457	1	3
650.627	1	4
650.796	1	2
650.966	1	-8
651.135	1	-7
651.305	1	0
651.474	1	5
651.644	1	13
651.813	1	11
651.983	1	-1
652.152	1	9
652.322	1	-4
652.491	1	10
652.661	1	-7
652.830	1	1
653.000	1	4
653.169	1	9
653.339	1	11
653.508	1	-1
653.678	1	-3
653.847	1	-3
654.017	1	14
654.186	1	6
654.356	1	4
654.525	1	-7
654.695	1	4
654.864	1	7
655.034	1	4
655.203	1	6
655.373	1	7
655.542	1	0
655.712	1	2
655.881	1	20
656.051	1	8
656.220	1	-7
656.390	1	5
656.559	1	-14
656.729	1	-2
656.898	1	-4
657.068	1	13
657.237	1	10
657.406	1	5
657.576	1	-6
657.745	1	-1
657.915	1	-3
658.084	1	0
658.254	1	0
658.423	1	4
658.593	1	9
658.762	1	13
658.932	1	-1
659.101	1	-4
659.271	1	6
659.440	1	-1
659.610	1	2
659.779	1	16
659.949	1	6
660.118	1	7
660.288	1	-10
660.457	1	9
660.626	1	4
660.796	1	10
660.965	1	10
661.135	1	-13
661.304	1	-8
661.474	1	0
661.643	1	2
661.813	1	5
661.982	1	4
662.152	1	8
662.321	1	-4
662.491	1	-6
662.660	1	2
662.829	1	13
662.999	1	1
663.168	1	3
663.338	1	6
663.507	1	-4
663.677	1	-2
663.846	1	5
664.016	1	2
664.185	1	1
664.354	1	3
664.524	1	6
664.693	1	3
664.863	1	3
665.032	1	-3
665.202	1	-4
665.371	1	-9
665.541	1	10
665.710	1	3
665.879	1	-2
666.049	1	-6
666.218	1	3
666.388	1	5
666.557	1	9
666.727	1	-6
666.896	1	6
667.065	1	4
667.235	1	14
667.404	1	-9
667.574	1	-3
667.743	1	-1
667.913	1	17
668.082	1	5
668.251	1	0
668.421	1	1
668.590	1	-2
668.760	1	5
668.929	1	10
669.099	1	-6
669.268	1	-2
669.437	1	4
669.607	1	12
669.776	1	7
669.946	1	-1
670.115	1	-19
670.285	1	4
670.454	1	6
670.623	1	-2
670.793	1	9
670.962	1	9
671.132	1	-3
671.301	1	8
671.470	1	5
671.640	1	-3
671.809	1	-5
671.979	1	6
672.148	1	1
672.317	1	0
672.487	1	-7
672.656	1	-1
672.826	1	7
672.995	1	5
673.164	1	-8
673.334	1	4
673.503	1	-1
673.673	1	1
673.842	1	1
674.011	1	6
674.181	1	11
674.350	1	5
674.520	1	3
674.689	1	-8
674.858	1	-10
675.028	1	6
675.197	1	-1
675.367	1	3
675.536	1	6
675.705	1	5
675.875	1	-1
676.044	1	-1
676.214	1	0
676.383	1	4
676.552	1	-1
676.722	1	-4
676.891	1	4
677.060	1	-5
677.230	1	13
677.399	1	-5
677.569	1	13
677.738	1	7
677.907	1	2
678.077	1	7
678.246	1	7
678.416	1	-3
678.585	1	0
678.754	1	5
678.924	1	14
679.093	1	9
679.262	1	2
679.432	1	2
679.601	1	-1
679.771	1	1
679.940	1	8
680.109	1	-1
680.279	1	2
680.448	1	9
680.617	1	-3
680.787	1	-1
680.956	1	7
681.125	1	2
681.295	1	2
681.464	1	-1
681.634	1	14
681.803	1	-4
681.972	1	-1
682.142	1	3
682.311	1	4
682.480	1	7
682.650	1	9
682.819	1	4
682.988	1	-5
683.158	1	2
683.327	1	8
683.496	1	10
683.666	1	5
683.835	1	-1
684.004	1	12
684.174	1	-4
684.343	1	0
684.512	1	12
684.682	1	5
684.851	1	2
685.021	1	-3
685.190	1	-1
685.359	1	-8
685.529	1	8
685.698	1	5
685.867	1	2
686.037	1	1
686.206	1	-3
686.375	1	8
686.545	1	18
686.714	1	4
686.883	1	7
687.053	1	3
687.222	1	-8
687.391	1	4
687.561	1	11
687.730	1	6
687.899	1	-4
688.069	1	11
688.238	1	3
688.407	1	9
688.577	1	-4
688.746	1	12
