340.368	1	-3
340.539	1	-1
340.710	1	-11
340.881	1	-1
341.052	1	4
341.223	1	12
341.394	1	-5
341.565	1	-15
341.737	1	11
341.908	1	2
342.079	1	-2
342.250	1	-4
342.421	1	-5
342.592	1	-9
342.763	1	0
342.934	1	-1
343.105	1	9
343.276	1	-6
343.447	1	9
343.618	1	4
343.789	1	-7
343.960	1	-3
344.131	1	-4
344.302	1	-11
344.473	1	3
344.644	1	1
344.815	1	6
344.986	1	8
345.157	1	9
345.328	1	-5
345.499	1	-2
345.670	1	-2
345.841	1	5
346.012	1	5
346.183	1	4
346.354	1	-8
346.526	1	3
346.697	1	-4
346.868	1	1
347.039	1	-1
347.210	1	-3
347.381	1	-3
347.552	1	2
347.723	1	-1
347.894	1	-5
348.065	1	1
348.236	1	0
348.407	1	-2
348.578	1	5
348.749	1	8
348.920	1	3
349.091	1	-5
349.262	1	-1
349.433	1	-6
349.604	1	9
349.775	1	7
349.946	1	8
350.117	1	-1
350.288	1	6
350.459	1	-4
350.630	1	-7
350.801	1	5
350.972	1	-4
351.143	1	-5
351.314	1	-3
351.485	1	-9
351.656	1	9
351.827	1	-10
351.998	1	-4
352.169	1	9
352.340	1	0
352.511	1	-2
352.682	1	-11
352.853	1	-2
353.024	1	-3
353.195	1	-4
353.366	1	7
353.537	1	-1
353.708	1	2
353.879	1	8
354.050	1	4
354.221	1	-5
354.392	1	-1
354.563	1	11
354.734	1	-6
354.905	1	-1
355.076	1	3
355.247	1	-2
355.418	1	-1
355.589	1	-3
355.760	1	2
355.931	1	6
356.102	1	-4
356.273	1	-12
356.444	1	2
356.615	1	2
356.785	1	13
356.956	1	2
357.127	1	-2
357.298	1	5
357.469	1	2
357.640	1	5
357.811	1	12
357.982	1	-6
358.153	1	3
358.324	1	5
358.495	1	8
358.666	1	0
358.837	1	9
359.008	1	0
359.179	1	9
359.350	1	-3
359.521	1	1
359.692	1	0
359.863	1	-15
360.034	1	0
360.205	1	1
360.376	1	3
360.547	1	-3
360.718	1	-3
360.889	1	-3
361.060	1	6
361.231	1	-4
361.401	1	2
361.572	1	-12
361.743	1	6
361.914	1	3
362.085	1	-12
362.256	1	8
362.427	1	1
362.598	1	-3
362.769	1	11
362.940	1	0
363.111	1	6
363.282	1	-1
363.453	1	-9
363.624	1	2
363.795	1	4
363.966	1	5
364.137	1	-6
364.308	1	-5
364.478	1	2
364.649	1	-4
364.820	1	-4
364.991	1	0
365.162	1	-7
365.333	1	4
365.504	1	-1
365.675	1	3
365.846	1	-4
366.017	1	2
366.188	1	-4
366.359	1	7
366.530	1	4
366.701	1	2
366.871	1	10
367.042	1	18
367.213	1	8
367.384	1	-3
367.555	1	-2
367.726	1	11
367.897	1	1
368.068	1	-2
368.239	1	13
368.410	1	0
368.581	1	7
368.752	1	-13
368.923	1	-8
369.093	1	-2
369.264	1	7
369.435	1	0
369.606	1	2
369.777	1	-4
369.948	1	7
370.119	1	7
370.290	1	-13
370.461	1	-2
370.632	1	-4
370.803	1	-3
370.973	1	8
371.144	1	11
371.315	1	-1
371.486	1	-3
371.657	1	6
371.828	1	-2
371.999	1	-10
372.170	1	11
372.341	1	11
372.512	1	-3
372.682	1	-1
372.853	1	-1
373.024	1	-1
373.195	1	2
373.366	1	-4
373.537	1	-4
373.708	1	9
373.879	1	6
374.050	1	4
374.220	1	-6
374.391	1	2
374.562	1	5
374.733	1	17
374.904	1	-5
375.075	1	11
375.246	1	1
375.417	1	0
375.588	1	-2
375.758	1	5
375.929	1	-2
376.100	1	8
376.271	1	-6
376.442	1	1
376.613	1	5
376.784	1	-1
376.955	1	-12
377.125	1	8
377.296	1	0
377.467	1	-3
377.638	1	-7
377.809	1	4
377.980	1	6
378.151	1	-4
378.321	1	2
378.492	1	1
378.663	1	-4
378.834	1	-1
379.005	1	2
379.176	1	-10
379.347	1	-7
379.518	1	-14
379.688	1	-8
379.859	1	-1
380.030	1	-3
380.201	1	-10
380.372	1	4
380.543	1	10
380.714	1	0
380.884	1	2
381.055	1	-4
381.226	1	-11
381.397	1	1
381.568	1	-8
381.739	1	9
381.910	1	-1
382.080	1	-12
382.251	1	2
382.422	1	5
382.593	1	-5
382.764	1	-1
382.935	1	3
383.105	1	-3
383.276	1	-7
383.447	1	4
383.618	1	12
383.789	1	3
383.960	1	-1
384.130	1	-6
384.301	1	7
384.472	1	-8
384.643	1	1
384.814	1	4
384.985	1	-1
385.156	1	8
385.326	1	6
385.497	1	13
385.668	1	1
385.839	1	3
386.010	1	11
386.180	1	-1
386.351	1	-9
386.522	1	5
386.693	1	-2
386.864	1	-9
387.035	1	0
387.205	1	-6
387.376	1	10
387.547	1	-2
387.718	1	11
387.889	1	14
388.060	1	-3
388.230	1	7
388.401	1	11
388.572	1	-1
388.743	1	0
388.914	1	-1
389.084	1	7
389.255	1	3
389.426	1	6
389.597	1	-5
389.768	1	-4
389.939	1	12
390.109	1	4
390.280	1	3
390.451	1	12
390.622	1	-4
390.793	1	-2
390.963	1	12
391.134	1	-1
391.305	1	9
391.476	1	11
391.647	1	-1
391.817	1	0
391.988	1	-7
392.159	1	-1
392.330	1	14
392.501	1	7
392.671	1	12
392.842	1	11
393.013	1	9
393.184	1	11
393.355	1	17
393.525	1	1
393.696	1	-8
393.867	1	-3
394.038	1	-9
394.208	1	5
394.379	1	-8
394.550	1	4
394.721	1	-3
394.892	1	5
395.062	1	-6
395.233	1	6
395.404	1	3
395.575	1	-9
395.746	1	-3
395.916	1	-2
396.087	1	0
396.258	1	0
396.429	1	7
396.599	1	12
396.770	1	0
396.941	1	11
397.112	1	-6
397.283	1	0
397.453	1	-12
397.624	1	-5
397.795	1	1
397.966	1	6
398.136	1	9
398.307	1	2
398.478	1	0
398.649	1	14
398.819	1	13
398.990	1	11
399.161	1	-2
399.332	1	6
399.503	1	5
399.673	1	-1
399.844	1	-4
400.015	1	5
400.186	1	4
400.356	1	-6
400.527	1	-3
400.698	1	4
400.869	1	8
401.039	1	-10
401.210	1	-5
401.381	1	9
401.552	1	22
401.722	1	1
401.893	1	1
402.064	1	-1
402.235	1	7
402.405	1	-3
402.576	1	-1
402.747	1	-2
402.918	1	-6
403.088	1	-3
403.259	1	-2
403.430	1	-13
403.601	1	-11
403.771	1	0
403.942	1	7
404.113	1	5
404.284	1	-2
404.454	1	14
404.625	1	3
404.796	1	0
404.967	1	-1
405.137	1	9
405.308	1	5
405.479	1	9
405.649	1	-5
405.820	1	0
405.991	1	11
406.162	1	-11
406.332	1	1
406.503	1	-2
406.674	1	6
406.845	1	1
407.015	1	1
407.186	1	10
407.357	1	-4
407.527	1	-1
407.698	1	-12
407.869	1	-2
408.040	1	-14
408.210	1	4
408.381	1	4
408.552	1	-5
408.722	1	-2
408.893	1	3
409.064	1	-2
409.235	1	-8
409.405	1	1
409.576	1	14
409.747	1	-6
409.917	1	0
410.088	1	2
410.259	1	-1
410.430	1	7
410.600	1	-3
410.771	1	12
410.942	1	1
411.112	1	-2
411.283	1	-12
411.454	1	0
411.625	1	-2
411.795	1	2
411.966	1	1
412.137	1	10
412.307	1	-2
412.478	1	0
412.649	1	3
412.819	1	4
412.990	1	0
413.161	1	0
413.332	1	4
413.502	1	-4
413.673	1	8
413.844	1	-1
414.014	1	-8
414.185	1	2
414.356	1	-7
414.526	1	0
414.697	1	4
414.868	1	-2
415.038	1	-5
415.209	1	-4
415.380	1	-9
415.550	1	-6
415.721	1	4
415.892	1	-6
416.063	1	4
416.233	1	5
416.404	1	1
416.575	1	6
416.745	1	-6
416.916	1	-8
417.087	1	-1
417.257	1	-3
417.428	1	-5
417.599	1	9
417.769	1	-1
417.940	1	0
418.111	1	-6
418.281	1	4
418.452	1	2
418.623	1	0
418.793	1	3
418.964	1	6
419.135	1	7
419.305	1	0
419.476	1	1
419.647	1	8
419.817	1	10
419.988	1	-6
420.159	1	-15
420.329	1	1
420.500	1	2
420.671	1	6
420.841	1	8
421.012	1	10
421.183	1	10
421.353	1	4
421.524	1	3
421.695	1	-7
421.865	1	-2
422.036	1	1
422.206	1	-4
422.377	1	1
422.548	1	5
422.718	1	-4
422.889	1	2
423.060	1	0
423.230	1	10
423.401	1	1
423.572	1	1
423.742	1	-2
423.913	1	4
424.084	1	6
424.254	1	-8
424.425	1	-9
424.595	1	-2
424.766	1	6
424.937	1	0
425.107	1	-3
425.278	1	-2
425.449	1	6
425.619	1	2
425.790	1	0
425.961	1	1
426.131	1	1
426.302	1	2
426.472	1	-5
426.643	1	-3
426.814	1	13
426.984	1	6
427.155	1	-7
427.326	1	5
427.496	1	11
427.667	1	6
427.837	1	-8
428.008	1	-4
428.179	1	-6
428.349	1	-5
428.520	1	-3
428.691	1	1
428.861	1	4
429.032	1	-1
429.202	1	8
429.373	1	-17
429.544	1	7
429.714	1	13
429.885	1	-5
430.055	1	-5
430.226	1	-2
430.397	1	3
430.567	1	7
430.738	1	3
430.909	1	-5
431.079	1	8
431.250	1	-3
431.420	1	1
431.591	1	10
431.762	1	0
431.932	1	7
432.103	1	8
432.273	1	-5
432.444	1	5
432.615	1	-4
432.785	1	-6
432.956	1	-10
433.126	1	4
433.297	1	3
433.468	1	5
433.638	1	1
433.809	1	-3
433.979	1	2
434.150	1	-5
434.320	1	4
434.491	1	3
434.662	1	-1
434.832	1	1
435.003	1	3
435.173	1	5
435.344	1	0
435.515	1	-6
435.685	1	10
435.856	1	-10
436.026	1	8
436.197	1	-7
436.368	1	-2
436.538	1	4
436.709	1	-13
436.879	1	-12
437.050	1	-3
437.220	1	9
437.391	1	7
437.562	1	7
437.732	1	5
437.903	1	-3
438.073	1	-1
438.244	1	-7
438.414	1	2
438.585	1	1
438.756	1	5
438.926	1	-4
439.097	1	5
439.267	1	9
439.438	1	3
439.608	1	-7
439.779	1	-1
439.949	1	-8
440.120	1	-7
440.291	1	-8
440.461	1	-4
440.632	1	4
440.802	1	-2
440.973	1	5
441.143	1	4
441.314	1	-2
441.485	1	0
441.655	1	16
441.826	1	-8
441.996	1	3
442.167	1	-5
442.337	1	1
442.508	1	4
442.678	1	-8
442.849	1	-2
443.019	1	8
443.190	1	-5
443.361	1	4
443.531	1	-1
443.702	1	0
443.872	1	-6
444.043	1	0
444.213	1	3
444.384	1	-3
444.554	1	-5
444.725	1	0
444.895	1	5
445.066	1	-11
445.237	1	-8
445.407	1	-5
445.578	1	5
445.748	1	-7
445.919	1	-7
446.089	1	11
446.260	1	-5
446.430	1	-11
446.601	1	-8
446.771	1	-8
446.942	1	1
447.112	1	0
447.283	1	1
447.453	1	-10
447.624	1	8
447.794	1	-2
447.965	1	-6
448.135	1	2
448.306	1	3
448.477	1	-9
448.647	1	-1
448.818	1	6
448.988	1	-12
449.159	1	-3
449.329	1	1
449.500	1	6
449.670	1	10
449.841	1	-7
450.011	1	3
450.182	1	-10
450.352	1	8
450.523	1	-3
450.693	1	2
450.864	1	1
451.034	1	10
451.205	1	0
451.375	1	0
451.546	1	-1
451.716	1	5
451.887	1	-6
452.057	1	0
452.228	1	-4
452.398	1	-1
452.569	1	-4
452.739	1	-2
452.910	1	-2
453.080	1	8
453.251	1	-8
453.421	1	-1
453.592	1	-2
453.762	1	10
453.933	1	7
454.103	1	13
454.274	1	-3
454.444	1	7
454.615	1	1
454.785	1	-10
454.956	1	3
455.126	1	3
455.297	1	-5
455.467	1	5
455.638	1	-3
455.808	1	0
455.979	1	0
456.149	1	-4
456.320	1	-2
456.490	1	-1
456.661	1	-6
456.831	1	6
457.001	1	-4
457.172	1	-3
457.342	1	0
457.513	1	5
457.683	1	-5
457.854	1	-6
458.024	1	7
458.195	1	2
458.365	1	1
458.536	1	10
458.706	1	5
458.877	1	-5
459.047	1	-5
459.218	1	1
459.388	1	1
459.559	1	-5
459.729	1	8
459.899	1	7
460.070	1	10
460.240	1	-6
460.411	1	5
460.581	1	9
460.752	1	-1
460.922	1	-9
461.093	1	2
461.263	1	1
461.434	1	7
461.604	1	0
461.775	1	-3
461.945	1	4
462.115	1	-1
462.286	1	10
462.456	1	-2
462.627	1	1
462.797	1	-7
462.968	1	-4
463.138	1	9
463.309	1	3
463.479	1	7
463.649	1	1
463.820	1	-2
463.990	1	-4
464.161	1	2
464.331	1	0
464.502	1	0
464.672	1	-1
464.843	1	5
465.013	1	-5
465.183	1	-2
465.354	1	7
465.524	1	1
465.695	1	0
465.865	1	-3
466.036	1	-6
466.206	1	0
466.376	1	-10
466.547	1	10
466.717	1	4
466.888	1	0
467.058	1	16
467.229	1	7
467.399	1	9
467.569	1	4
467.740	1	-3
467.910	1	-13
468.081	1	5
468.251	1	-7
468.422	1	5
468.592	1	8
468.762	1	-7
468.933	1	13
469.103	1	0
469.274	1	-6
469.444	1	-7
469.614	1	-4
469.785	1	7
469.955	1	-1
470.126	1	2
470.296	1	4
470.467	1	-8
470.637	1	11
470.807	1	9
470.978	1	-4
471.148	1	1
471.319	1	5
471.489	1	-3
471.659	1	8
471.830	1	12
472.000	1	5
472.171	1	6
472.341	1	3
472.511	1	-1
472.682	1	0
472.852	1	-4
473.023	1	-11
473.193	1	-10
473.363	1	-5
473.534	1	1
473.704	1	1
473.875	1	4
474.045	1	-2
474.215	1	2
474.386	1	5
474.556	1	-12
474.727	1	5
474.897	1	4
475.067	1	-1
475.238	1	-6
475.408	1	1
475.578	1	0
475.749	1	-5
475.919	1	-5
476.090	1	0
476.260	1	5
476.430	1	6
476.601	1	5
476.771	1	14
476.942	1	-1
477.112	1	-3
477.282	1	-7
477.453	1	-3
477.623	1	1
477.793	1	1
477.964	1	3
478.134	1	-1
478.305	1	1
478.475	1	-6
478.645	1	-7
478.816	1	-2
478.986	1	-7
479.156	1	3
479.327	1	0
479.497	1	3
479.667	1	0
479.838	1	4
480.008	1	4
480.179	1	-3
480.349	1	3
480.519	1	-4
480.690	1	1
480.860	1	-3
481.030	1	-2
481.201	1	5
481.371	1	13
481.541	1	5
481.712	1	12
481.882	1	-9
482.053	1	10
482.223	1	-9
482.393	1	-8
482.564	1	-5
482.734	1	1
482.904	1	-2
483.075	1	5
483.245	1	-1
483.415	1	15
483.586	1	-4
483.756	1	10
483.926	1	5
484.097	1	-11
484.267	1	-1
484.437	1	-6
484.608	1	-2
484.778	1	-2
484.948	1	-5
485.119	1	0
485.289	1	1
485.459	1	-2
485.630	1	-2
485.800	1	-4
485.970	1	3
486.141	1	-2
486.311	1	-6
486.481	1	3
486.652	1	16
486.822	1	1
486.992	1	2
487.163	1	-4
487.333	1	-1
487.503	1	-13
487.674	1	2
487.844	1	-4
488.014	1	3
488.185	1	0
488.355	1	-3
488.525	1	-2
488.696	1	-4
488.866	1	12
489.036	1	-4
489.207	1	6
489.377	1	-2
489.547	1	-3
489.718	1	-2
489.888	1	2
490.058	1	-1
490.228	1	8
490.399	1	1
490.569	1	-4
490.739	1	5
490.910	1	3
491.080	1	-8
491.250	1	-1
491.421	1	0
491.591	1	8
491.761	1	-9
491.932	1	-5
492.102	1	2
492.272	1	8
492.442	1	-3
492.613	1	1
492.783	1	-4
492.953	1	6
493.124	1	-8
493.294	1	6
493.464	1	1
493.635	1	-12
493.805	1	10
493.975	1	-1
494.145	1	3
494.316	1	1
494.486	1	-1
494.656	1	-5
494.827	1	4
494.997	1	0
495.167	1	6
495.337	1	-7
495.508	1	-4
495.678	1	11
495.848	1	10
496.019	1	-3
496.189	1	3
496.359	1	7
496.529	1	-9
496.700	1	-3
496.870	1	-3
497.040	1	-4
497.211	1	7
497.381	1	-14
497.551	1	17
497.721	1	-2
497.892	1	1
498.062	1	-3
498.232	1	0
498.403	1	-2
498.573	1	-2
498.743	1	8
498.913	1	6
499.084	1	-1
499.254	1	1
499.424	1	7
499.594	1	-1
499.765	1	-5
499.935	1	0
500.105	1	-7
500.275	1	8
500.446	1	8
500.616	1	0
500.786	1	-1
500.956	1	0
501.127	1	12
501.297	1	7
501.467	1	0
501.638	1	6
501.808	1	-11
501.978	1	5
502.148	1	4
502.319	1	3
502.489	1	13
502.659	1	2
502.829	1	2
503.000	1	8
503.170	1	3
503.340	1	1
503.510	1	-4
503.681	1	1
503.851	1	-16
504.021	1	21
504.191	1	-7
504.362	1	18
504.532	1	-7
504.702	1	1
504.872	1	-3
505.042	1	10
505.213	1	-5
505.383	1	3
505.553	1	10
505.723	1	5
505.894	1	6
506.064	1	0
506.234	1	2
506.404	1	1
506.575	1	-3
506.745	1	3
506.915	1	0
507.085	1	-5
507.256	1	-1
507.426	1	-4
507.596	1	6
507.766	1	1
507.936	1	1
508.107	1	2
508.277	1	-5
508.447	1	-4
508.617	1	15
508.788	1	3
508.958	1	17
509.128	1	0
509.298	1	14
509.468	1	3
509.639	1	5
509.809	1	7
509.979	1	0
510.149	1	-3
510.319	1	9
510.490	1	4
510.660	1	10
510.830	1	0
511.000	1	-2
511.171	1	9
511.341	1	-5
511.511	1	-4
511.681	1	4
511.851	1	3
512.022	1	-6
512.192	1	9
512.362	1	-1
512.532	1	-7
512.702	1	-3
512.873	1	7
513.043	1	2
513.213	1	-8
513.383	1	-11
513.553	1	-7
513.724	1	5
513.894	1	-4
514.064	1	0
514.234	1	1
514.404	1	0
514.575	1	5
514.745	1	-1
514.915	1	4
515.085	1	-6
515.255	1	-6
515.425	1	-13
515.596	1	-9
515.766	1	-2
515.936	1	3
516.106	1	-7
516.276	1	9
516.447	1	7
516.617	1	-4
516.787	1	-5
516.957	1	3
517.127	1	0
517.297	1	3
517.468	1	-1
517.638	1	6
517.808	1	6
517.978	1	-11
518.148	1	7
518.319	1	-8
518.489	1	-3
518.659	1	-4
518.829	1	-9
518.999	1	4
519.169	1	3
519.340	1	2
519.510	1	-3
519.680	1	-17
519.850	1	-2
520.020	1	-7
520.190	1	0
520.361	1	-7
520.531	1	2
520.701	1	3
520.871	1	-5
521.041	1	1
521.211	1	-2
521.382	1	6
521.552	1	-1
521.722	1	-2
521.892	1	-6
522.062	1	-8
522.232	1	-13
522.402	1	-1
522.573	1	2
522.743	1	7
522.913	1	0
523.083	1	-5
523.253	1	14
523.423	1	-5
523.593	1	-8
523.764	1	6
523.934	1	0
524.104	1	4
524.274	1	-1
524.444	1	8
524.614	1	-4
524.784	1	7
524.955	1	-3
525.125	1	6
525.295	1	0
525.465	1	1
525.635	1	3
525.805	1	-1
525.975	1	-8
526.146	1	4
526.316	1	-12
526.486	1	6
526.656	1	10
526.826	1	5
526.996	1	11
527.166	1	-7
527.337	1	4
527.507	1	-6
527.677	1	6
527.847	1	-2
528.017	1	-7
528.187	1	-7
528.357	1	6
528.527	1	0
528.698	1	-8
528.868	1	4
529.038	1	4
529.208	1	-5
529.378	1	5
529.548	1	-4
529.718	1	5
529.888	1	5
530.058	1	0
530.229	1	9
530.399	1	19
530.569	1	2
530.739	1	0
530.909	1	5
531.079	1	6
531.249	1	4
531.419	1	10
531.589	1	-1
531.760	1	7
531.930	1	-1
532.100	1	6
532.270	1	9
532.440	1	0
532.610	1	7
532.780	1	-1
532.950	1	11
533.120	1	0
533.290	1	5
533.461	1	17
533.631	1	-4
533.801	1	1
533.971	1	-2
534.141	1	8
534.311	1	-3
534.481	1	5
534.651	1	5
534.821	1	3
534.991	1	4
535.162	1	3
535.332	1	0
535.502	1	1
535.672	1	-11
535.842	1	-6
536.012	1	11
536.182	1	-1
536.352	1	7
536.522	1	4
536.692	1	-6
536.862	1	6
537.032	1	2
537.203	1	-2
537.373	1	-3
537.543	1	-7
537.713	1	8
537.883	1	15
538.053	1	2
538.223	1	8
538.393	1	11
538.563	1	-3
538.733	1	-1
538.903	1	-8
539.073	1	-5
539.243	1	3
539.413	1	3
539.584	1	2
539.754	1	-5
539.924	1	6
540.094	1	10
540.264	1	-1
540.434	1	-5
540.604	1	4
540.774	1	0
540.944	1	1
541.114	1	-8
541.284	1	8
541.454	1	7
541.624	1	-2
541.794	1	-1
541.964	1	-2
542.134	1	14
542.305	1	-8
542.475	1	-3
542.645	1	1
542.815	1	14
542.985	1	-2
543.155	1	-5
543.325	1	-5
543.495	1	-4
543.665	1	8
543.835	1	-6
544.005	1	2
544.175	1	4
544.345	1	-4
544.515	1	1
544.685	1	10
544.855	1	6
545.025	1	-10
545.195	1	-3
545.365	1	3
545.535	1	-1
545.705	1	-4
545.875	1	2
546.045	1	5
546.216	1	9
546.386	1	2
546.556	1	-11
546.726	1	3
546.896	1	-3
547.066	1	-15
547.236	1	0
547.406	1	15
547.576	1	8
547.746	1	0
547.916	1	5
548.086	1	8
548.256	1	0
548.426	1	4
548.596	1	3
548.766	1	2
548.936	1	2
549.106	1	9
549.276	1	13
549.446	1	7
549.616	1	7
549.786	1	1
549.956	1	10
550.126	1	-4
550.296	1	-3
550.466	1	8
550.636	1	-8
550.806	1	6
550.976	1	-6
551.146	1	1
551.316	1	2
551.486	1	-5
551.656	1	2
551.826	1	0
551.996	1	7
552.166	1	1
552.336	1	3
552.506	1	-9
552.676	1	5
552.846	1	1
553.016	1	2
553.186	1	-4
553.356	1	-8
553.526	1	5
553.696	1	13
553.866	1	-4
554.036	1	5
554.206	1	7
554.376	1	-5
554.546	1	-6
554.716	1	-8
554.886	1	3
555.056	1	-2
555.226	1	-9
555.396	1	5
555.566	1	4
555.736	1	-5
555.906	1	-2
556.076	1	0
556.246	1	-3
556.416	1	2
556.586	1	13
556.756	1	-4
556.926	1	11
557.096	1	6
557.266	1	1
557.436	1	6
557.606	1	-4
557.776	1	4
557.946	1	4
558.116	1	6
558.286	1	-4
558.456	1	-5
558.626	1	16
558.796	1	-8
558.966	1	-3
559.136	1	1
559.306	1	-2
559.476	1	-5
559.646	1	-5
559.816	1	12
559.986	1	-2
560.155	1	-2
560.325	1	-5
560.495	1	3
560.665	1	4
560.835	1	5
561.005	1	4
561.175	1	-9
561.345	1	-6
561.515	1	-4
561.685	1	-14
561.855	1	8
562.025	1	0
562.195	1	-4
562.365	1	0
562.535	1	5
562.705	1	5
562.875	1	0
563.045	1	11
563.215	1	-4
563.385	1	-2
563.555	1	12
563.725	1	-3
563.895	1	0
564.064	1	1
564.234	1	-1
564.404	1	-1
564.574	1	0
564.744	1	2
564.914	1	3
565.084	1	-4
565.254	1	-8
565.424	1	-1
565.594	1	4
565.764	1	12
565.934	1	1
566.104	1	-9
566.274	1	-3
566.444	1	5
566.614	1	1
566.783	1	3
566.953	1	-2
567.123	1	18
567.293	1	4
567.463	1	-1
567.633	1	0
567.803	1	-8
567.973	1	-3
568.143	1	8
568.313	1	2
568.483	1	-8
568.653	1	-9
568.823	1	6
568.993	1	-8
569.162	1	5
569.332	1	-4
569.502	1	-7
569.672	1	-4
569.842	1	1
570.012	1	-7
570.182	1	-5
570.352	1	1
570.522	1	5
570.692	1	7
570.862	1	0
571.031	1	-3
571.201	1	2
571.371	1	1
571.541	1	-3
571.711	1	-3
571.881	1	7
572.051	1	4
572.221	1	0
572.391	1	10
572.561	1	-4
572.731	1	2
572.900	1	9
573.070	1	7
573.240	1	-6
573.410	1	-1
573.580	1	5
573.750	1	2
573.920	1	3
574.090	1	0
574.260	1	-1
574.430	1	-5
574.599	1	-1
574.769	1	1
574.939	1	-10
575.109	1	3
575.279	1	9
575.449	1	1
575.619	1	10
575.789	1	5
575.959	1	-7
576.128	1	-3
576.298	1	-1
576.468	1	-14
576.638	1	3
576.808	1	-3
576.978	1	0
577.148	1	5
577.318	1	1
577.487	1	7
577.657	1	-19
577.827	1	-2
577.997	1	-11
578.167	1	9
578.337	1	1
578.507	1	-5
578.677	1	-1
578.846	1	1
579.016	1	11
579.186	1	4
579.356	1	-2
579.526	1	-10
579.696	1	7
579.866	1	7
580.036	1	-6
580.205	1	0
580.375	1	-6
580.545	1	8
580.715	1	10
580.885	1	5
581.055	1	0
581.225	1	-2
581.394	1	-5
581.564	1	-3
581.734	1	3
581.904	1	1
582.074	1	-4
582.244	1	-3
582.414	1	1
582.583	1	-4
582.753	1	7
582.923	1	-1
583.093	1	3
583.263	1	12
583.433	1	-6
583.603	1	4
583.772	1	5
583.942	1	2
584.112	1	-4
584.282	1	4
584.452	1	-2
584.622	1	6
584.791	1	6
584.961	1	2
585.131	1	-6
585.301	1	9
585.471	1	-4
585.641	1	6
585.811	1	-3
585.980	1	-12
586.150	1	5
586.320	1	-19
586.490	1	-7
586.660	1	9
586.830	1	-5
586.999	1	-3
587.169	1	-2
587.339	1	-4
587.509	1	7
587.679	1	0
587.849	1	11
588.018	1	5
588.188	1	-7
588.358	1	6
588.528	1	11
588.698	1	-4
588.867	1	1
589.037	1	5
589.207	1	-14
589.377	1	9
589.547	1	1
589.717	1	-5
589.886	1	-12
590.056	1	2
590.226	1	6
590.396	1	-1
590.566	1	7
590.735	1	16
590.905	1	-3
591.075	1	-17
591.245	1	0
591.415	1	6
591.585	1	-4
591.754	1	3
591.924	1	-2
592.094	1	-8
592.264	1	3
592.434	1	6
592.603	1	-7
592.773	1	-6
592.943	1	-10
593.113	1	-7
593.283	1	5
593.452	1	-12
593.622	1	-13
593.792	1	1
593.962	1	2
594.132	1	-1
594.301	1	12
594.471	1	-1
594.641	1	-6
594.811	1	-10
594.981	1	-2
595.150	1	-4
595.320	1	-1
595.490	1	-10
595.660	1	-7
595.829	1	1
595.999	1	-7
596.169	1	5
596.339	1	3
596.509	1	4
596.678	1	1
596.848	1	3
597.018	1	2
597.188	1	5
597.358	1	7
597.527	1	-12
597.697	1	-14
597.867	1	-4
598.037	1	13
598.206	1	-10
598.376	1	5
598.546	1	-5
598.716	1	-13
598.885	1	-11
599.055	1	3
599.225	1	5
599.395	1	4
599.565	1	2
599.734	1	-4
599.904	1	-2
600.074	1	-13
600.244	1	13
600.413	1	4
600.583	1	-5
600.753	1	0
600.923	1	12
601.092	1	-11
601.262	1	-3
601.432	1	1
601.602	1	-1
601.771	1	4
601.941	1	-8
602.111	1	-6
602.281	1	-7
602.451	1	-3
602.620	1	2
602.790	1	-1
602.960	1	-2
603.130	1	4
603.299	1	0
603.469	1	5
603.639	1	3
603.809	1	6
603.978	1	0
604.148	1	-2
604.318	1	10
604.487	1	-7
604.657	1	-3
604.827	1	-11
604.997	1	1
605.166	1	-4
605.336	1	-4
605.506	1	9
605.676	1	-4
605.845	1	-5
606.015	1	4
606.185	1	0
606.355	1	3
606.524	1	-1
606.694	1	3
606.864	1	-6
607.034	1	-1
607.203	1	13
607.373	1	-9
607.543	1	-4
607.712	1	5
607.882	1	-6
608.052	1	0
608.222	1	-3
608.391	1	-4
608.561	1	1
608.731	1	-12
608.901	1	-4
609.070	1	3
609.240	1	-8
609.410	1	10
609.579	1	4
609.749	1	2
609.919	1	-2
610.089	1	-4
610.258	1	14
610.428	1	-4
610.598	1	5
610.767	1	4
610.937	1	1
611.107	1	17
611.277	1	4
611.446	1	-8
611.616	1	-9
611.786	1	-1
611.955	1	4
612.125	1	-8
612.295	1	-1
612.465	1	0
612.634	1	-1
612.804	1	6
612.974	1	9
613.143	1	-9
613.313	1	-4
613.483	1	0
613.652	1	-6
613.822	1	0
613.992	1	8
614.162	1	1
614.331	1	4
614.501	1	1
614.671	1	-2
614.840	1	9
615.010	1	-10
615.180	1	1
615.349	1	3
615.519	1	16
615.689	1	3
615.858	1	4
616.028	1	1
616.198	1	12
616.368	1	-11
616.537	1	-6
616.707	1	0
616.877	1	3
617.046	1	0
617.216	1	0
617.386	1	2
617.555	1	-9
617.725	1	0
617.895	1	-6
618.064	1	-4
618.234	1	0
618.404	1	2
618.573	1	1
618.743	1	0
618.913	1	7
619.082	1	5
619.252	1	1
619.422	1	0
619.591	1	1
619.761	1	-3
619.931	1	-5
620.100	1	-6
620.270	1	5
620.440	1	-3
620.609	1	-1
620.779	1	-8
620.949	1	5
621.118	1	-2
621.288	1	2
621.458	1	5
621.627	1	2
621.797	1	-1
621.967	1	-10
622.136	1	10
622.306	1	10
622.476	1	6
622.645	1	3
622.815	1	-3
622.985	1	6
623.154	1	1
623.324	1	10
623.494	1	1
623.663	1	-3
623.833	1	0
624.002	1	-12
624.172	1	4
624.342	1	-1
624.511	1	-1
624.681	1	2
624.851	1	-11
625.020	1	-3
625.190	1	10
625.360	1	-6
625.529	1	4
625.699	1	3
625.869	1	2
626.038	1	0
626.208	1	1
626.377	1	12
626.547	1	-4
626.717	1	-8
626.886	1	-4
627.056	1	-5
627.226	1	5
627.395	1	3
627.565	1	8
627.735	1	8
627.904	1	-7
628.074	1	5
628.243	1	-7
628.413	1	1
628.583	1	-1
628.752	1	8
628.922	1	1
629.091	1	3
629.261	1	1
629.431	1	-6
629.600	1	5
629.770	1	-1
629.940	1	10
630.109	1	-4
630.279	1	-3
630.448	1	-2
630.618	1	3
630.788	1	2
630.957	1	-2
631.127	1	5
631.297	1	-10
631.466	1	4
631.636	1	-8
631.805	1	1
631.975	1	4
632.145	1	-8
632.314	1	6
632.484	1	-6
632.653	1	-1
632.823	1	1
632.993	1	4
633.162	1	-1
633.332	1	4
633.501	1	-1
633.671	1	0
633.841	1	2
634.010	1	8
634.180	1	-1
634.349	1	0
634.519	1	10
634.689	1	3
634.858	1	6
635.028	1	4
635.197	1	-5
635.367	1	-7
635.537	1	-4
635.706	1	-6
635.876	1	1
636.045	1	3
636.215	1	-4
636.384	1	7
636.554	1	8
636.724	1	2
636.893	1	-3
637.063	1	6
637.232	1	-10
637.402	1	5
637.572	1	-4
637.741	1	7
637.911	1	1
638.080	1	-4
638.250	1	-4
638.419	1	6
638.589	1	11
638.759	1	9
638.928	1	-11
639.098	1	3
639.267	1	5
639.437	1	-4
639.606	1	16
639.776	1	-2
639.946	1	3
640.115	1	-6
640.285	1	-2
640.454	1	22
640.624	1	5
640.793	1	14
640.963	1	-4
641.132	1	5
641.302	1	-3
641.472	1	-4
641.641	1	-11
641.811	1	0
641.980	1	-1
642.150	1	0
642.319	1	-8
642.489	1	1
642.659	1	-6
642.828	1	4
642.998	1	-3
643.167	1	9
643.337	1	9
643.506	1	2
643.676	1	3
643.845	1	1
644.015	1	2
644.184	1	11
644.354	1	-4
644.524	1	-4
644.693	1	5
644.863	1	-12
645.032	1	1
645.202	1	-3
645.371	1	-10
645.541	1	-6
645.710	1	-3
645.880	1	-4
646.049	1	13
646.219	1	3
646.388	1	-3
646.558	1	-2
646.728	1	9
646.897	1	-7
647.067	1	7
647.236	1	2
647.406	1	-4
647.575	1	-2
647.745	1	-2
647.914	1	-5
648.084	1	-1
648.253	1	5
648.423	1	-1
648.592	1	-1
648.762	1	2
648.931	1	3
649.101	1	-1
649.270	1	17
649.440	1	6
649.610	1	9
649.779	1	2
649.949	1	-7
650.118	1	-6
650.288	1	2
650.457	1	-2
650.627	1	1
650.796	1	5
650.966	1	-6
651.135	1	12
651.305	1	-1
651.474	1	8
651.644	1	-3
651.813	1	4
651.983	1	8
652.152	1	-5
652.322	1	3
652.491	1	1
652.661	1	-1
652.830	1	3
653.000	1	-8
653.169	1	10
653.339	1	6
653.508	1	-8
653.678	1	-5
653.847	1	3
654.017	1	-1
654.186	1	-6
654.356	1	12
654.525	1	-12
654.695	1	8
654.864	1	4
655.034	1	-2
655.203	1	13
655.373	1	-3
655.542	1	-3
655.712	1	-7
655.881	1	1
656.051	1	10
656.220	1	7
656.390	1	1
656.559	1	1
656.729	1	3
656.898	1	5
657.068	1	-2
657.237	1	3
657.406	1	9
657.576	1	-9
657.745	1	-5
657.915	1	8
658.084	1	5
658.254	1	10
658.423	1	-5
658.593	1	-6
658.762	1	0
658.932	1	-1
659.101	1	-6
659.271	1	8
659.440	1	7
659.610	1	-5
659.779	1	-11
659.949	1	-13
660.118	1	7
660.288	1	-2
660.457	1	0
660.626	1	1
660.796	1	2
660.965	1	-1
661.135	1	0
661.304	1	-6
661.474	1	0
661.643	1	-6
661.813	1	-5
661.982	1	1
662.152	1	5
662.321	1	4
662.491	1	2
662.660	1	-2
662.829	1	-4
662.999	1	-4
663.168	1	-3
663.338	1	-9
663.507	1	-3
663.677	1	2
663.846	1	0
664.016	1	-1
664.185	1	-3
664.354	1	5
664.524	1	-10
664.693	1	4
664.863	1	-13
665.032	1	7
665.202	1	3
665.371	1	2
665.541	1	-3
665.710	1	1
665.879	1	-1
666.049	1	3
666.218	1	-9
666.388	1	-8
666.557	1	4
666.727	1	-17
666.896	1	-2
667.065	1	6
667.235	1	1
667.404	1	-10
667.574	1	6
667.743	1	3
667.913	1	6
668.082	1	-2
668.251	1	-1
668.421	1	-1
668.590	1	-12
668.760	1	-1
668.929	1	4
669.099	1	-4
669.268	1	3
669.437	1	0
669.607	1	-6
669.776	1	-2
669.946	1	3
670.115	1	8
670.285	1	4
670.454	1	-4
670.623	1	2
670.793	1	-9
670.962	1	-1
671.132	1	-8
671.301	1	-8
671.470	1	-9
671.640	1	-11
671.809	1	-3
671.979	1	11
672.148	1	2
672.317	1	-6
672.487	1	-11
672.656	1	1
672.826	1	-22
672.995	1	4
673.164	1	8
673.334	1	5
673.503	1	-1
673.673	1	8
673.842	1	1
674.011	1	-2
674.181	1	-12
674.350	1	-2
674.520	1	-6
674.689	1	-5
674.858	1	0
675.028	1	5
675.197	1	-6
675.367	1	4
675.536	1	6
675.705	1	-9
675.875	1	-1
676.044	1	-6
676.214	1	3
676.383	1	-5
676.552	1	-9
676.722	1	3
676.891	1	-15
677.060	1	3
677.230	1	9
677.399	1	-9
677.569	1	-11
677.738	1	1
677.907	1	-8
678.077	1	-2
678.246	1	-2
678.416	1	1
678.585	1	13
678.754	1	1
678.924	1	-9
679.093	1	10
679.262	1	-3
679.432	1	-5
679.601	1	-10
679.771	1	-4
679.940	1	-6
680.109	1	5
680.279	1	-12
680.448	1	0
680.617	1	-7
680.787	1	-1
680.956	1	-3
681.125	1	4
681.295	1	3
681.464	1	-3
681.634	1	0
681.803	1	-10
681.972	1	-2
682.142	1	17
682.311	1	0
682.480	1	1
682.650	1	-4
682.819	1	-5
682.988	1	-4
683.158	1	10
683.327	1	4
683.496	1	-4
683.666	1	8
683.835	1	4
684.004	1	4
684.174	1	4
684.343	1	5
684.512	1	-3
684.682	1	10
684.851	1	0
685.021	1	9
685.190	1	0
685.359	1	0
685.529	1	5
685.698	1	4
685.867	1	3
686.037	1	-9
686.206	1	-4
686.375	1	8
686.545	1	7
686.714	1	-3
686.883	1	-6
687.053	1	7
687.222	1	-16
687.391	1	-3
687.561	1	-1
687.730	1	-4
687.899	1	-13
688.069	1	-13
688.238	1	4
688.407	1	9
688.577	1	-9
688.746	1	7
