340.368	1	0
340.539	1	3
340.710	1	-10
340.881	1	-3
341.052	1	-6
341.223	1	15
341.394	1	-3
341.565	1	-6
341.737	1	6
341.908	1	10
342.079	1	-3
342.250	1	-1
342.421	1	1
342.592	1	-5
342.763	1	2
342.934	1	-3
343.105	1	3
343.276	1	0
343.447	1	0
343.618	1	-5
343.789	1	1
343.960	1	0
344.131	1	0
344.302	1	-2
344.473	1	-3
344.644	1	2
344.815	1	0
344.986	1	1
345.157	1	3
345.328	1	2
345.499	1	9
345.670	1	6
345.841	1	2
346.012	1	6
346.183	1	5
346.354	1	4
346.526	1	6
346.697	1	-6
346.868	1	5
347.039	1	-3
347.210	1	-5
347.381	1	1
347.552	1	7
347.723	1	-2
347.894	1	5
348.065	1	3
348.236	1	6
348.407	1	3
348.578	1	3
348.749	1	0
348.920	1	-1
349.091	1	-2
349.262	1	0
349.433	1	-3
349.604	1	12
349.775	1	5
349.946	1	3
350.117	1	-2
350.288	1	3
350.459	1	4
350.630	1	-6
350.801	1	8
350.972	1	4
351.143	1	-8
351.314	1	-12
351.485	1	-8
351.656	1	6
351.827	1	-3
351.998	1	-9
352.169	1	10
352.340	1	-4
352.511	1	-6
352.682	1	-8
352.853	1	-12
353.024	1	1
353.195	1	-2
353.366	1	2
353.537	1	-1
353.708	1	2
353.879	1	-2
354.050	1	7
354.221	1	-8
354.392	1	-1
354.563	1	8
354.734	1	-7
354.905	1	3
355.076	1	-6
355.247	1	-12
355.418	1	-3
355.589	1	3
355.760	1	0
355.931	1	8
356.102	1	-2
356.273	1	-3
356.444	1	2
356.615	1	-4
356.785	1	5
356.956	1	-7
357.127	1	7
357.298	1	-3
357.469	1	4
357.640	1	4
357.811	1	10
357.982	1	-13
358.153	1	6
358.324	1	-9
358.495	1	3
358.666	1	1
358.837	1	-4
359.008	1	3
359.179	1	14
359.350	1	1
359.521	1	-2
359.692	1	2
359.863	1	-1
360.034	1	-8
360.205	1	-9
360.376	1	9
360.547	1	3
360.718	1	-3
360.889	1	2
361.060	1	11
361.231	1	-4
361.401	1	7
361.572	1	0
361.743	1	5
361.914	1	1
362.085	1	4
362.256	1	-1
362.427	1	0
362.598	1	7
362.769	1	5
362.940	1	-2
363.111	1	10
363.282	1	-2
363.453	1	6
363.624	1	6
363.795	1	-3
363.966	1	4
364.137	1	-11
364.308	1	-3
364.478	1	7
364.649	1	-7
364.820	1	6
364.991	1	3
365.162	1	-11
365.333	1	9
365.504	1	-6
365.675	1	-3
365.846	1	3
366.017	1	0
366.188	1	-6
366.359	1	11
366.530	1	8
366.701	1	-15
366.871	1	10
367.042	1	13
367.213	1	1
367.384	1	3
367.555	1	-5
367.726	1	8
367.897	1	-3
368.068	1	-9
368.239	1	11
368.410	1	-1
368.581	1	4
368.752	1	-6
368.923	1	-8
369.093	1	5
369.264	1	-1
369.435	1	-4
369.606	1	10
369.777	1	-5
369.948	1	-5
370.119	1	7
370.290	1	-10
370.461	1	-4
370.632	1	-3
370.803	1	-6
370.973	1	13
371.144	1	1
371.315	1	-2
371.486	1	12
371.657	1	-2
371.828	1	-6
371.999	1	1
372.170	1	5
372.341	1	5
372.512	1	10
372.682	1	-3
372.853	1	-2
373.024	1	-1
373.195	1	-6
373.366	1	2
373.537	1	2
373.708	1	1
373.879	1	5
374.050	1	1
374.220	1	-3
374.391	1	7
374.562	1	0
374.733	1	6
374.904	1	8
375.075	1	6
375.246	1	-2
375.417	1	1
375.588	1	-5
375.758	1	-3
375.929	1	3
376.100	1	5
376.271	1	-6
376.442	1	-6
376.613	1	-4
376.784	1	6
376.955	1	-4
377.125	1	-3
377.296	1	9
377.467	1	-9
377.638	1	-2
377.809	1	8
377.980	1	-3
378.151	1	-9
378.321	1	-5
378.492	1	0
378.663	1	0
378.834	1	-5
379.005	1	10
379.176	1	0
379.347	1	-3
379.518	1	-11
379.688	1	-5
379.859	1	-1
380.030	1	-9
380.201	1	-15
380.372	1	1
380.543	1	7
380.714	1	10
380.884	1	-8
381.055	1	3
381.226	1	1
381.397	1	-12
381.568	1	-3
381.739	1	6
381.910	1	2
382.080	1	-8
382.251	1	-1
382.422	1	4
382.593	1	0
382.764	1	-13
382.935	1	6
383.105	1	9
383.276	1	-3
383.447	1	7
383.618	1	-1
383.789	1	1
383.960	1	2
384.130	1	-7
384.301	1	0
384.472	1	-13
384.643	1	-1
384.814	1	3
384.985	1	2
385.156	1	16
385.326	1	1
385.497	1	9
385.668	1	-9
385.839	1	3
386.010	1	6
386.180	1	7
386.351	1	-14
386.522	1	10
386.693	1	2
386.864	1	-17
387.035	1	-2
387.205	1	-5
387.376	1	12
387.547	1	-2
387.718	1	9
387.889	1	8
388.060	1	-3
388.230	1	-5
388.401	1	8
388.572	1	7
388.743	1	2
388.914	1	16
389.084	1	6
389.255	1	-3
389.426	1	5
389.597	1	-5
389.768	1	7
389.939	1	6
390.109	1	-2
390.280	1	18
390.451	1	5
390.622	1	-7
390.793	1	4
390.963	1	8
391.134	1	-5
391.305	1	15
391.476	1	6
391.647	1	-3
391.817	1	-2
391.988	1	6
392.159	1	4
392.330	1	4
392.501	1	5
392.671	1	9
392.842	1	4
393.013	1	4
393.184	1	7
393.355	1	11
393.525	1	8
393.696	1	-7
393.867	1	8
394.038	1	-1
394.208	1	3
394.379	1	-1
394.550	1	10
394.721	1	5
394.892	1	9
395.062	1	-3
395.233	1	8
395.404	1	8
395.575	1	-3
395.746	1	-6
395.916	1	-4
396.087	1	1
396.258	1	-7
396.429	1	3
396.599	1	0
396.770	1	2
396.941	1	0
397.112	1	-4
397.283	1	-4
397.453	1	-14
397.624	1	4
397.795	1	1
397.966	1	4
398.136	1	1
398.307	1	-1
398.478	1	-2
398.649	1	5
398.819	1	12
398.990	1	8
399.161	1	4
399.332	1	5
399.503	1	1
399.673	1	3
399.844	1	-6
400.015	1	7
400.186	1	16
400.356	1	0
400.527	1	3
400.698	1	-3
400.869	1	11
401.039	1	-2
401.210	1	-8
401.381	1	-1
401.552	1	16
401.722	1	3
401.893	1	-2
402.064	1	5
402.235	1	3
402.405	1	-1
402.576	1	7
402.747	1	-6
402.918	1	-2
403.088	1	-7
403.259	1	-7
403.430	1	0
403.601	1	-8
403.771	1	14
403.942	1	3
404.113	1	9
404.284	1	-3
404.454	1	3
404.625	1	2
404.796	1	-2
404.967	1	-2
405.137	1	8
405.308	1	3
405.479	1	5
405.649	1	-7
405.820	1	2
405.991	1	9
406.162	1	-8
406.332	1	-3
406.503	1	-8
406.674	1	-2
406.845	1	9
407.015	1	-1
407.186	1	7
407.357	1	-5
407.527	1	-9
407.698	1	-18
407.869	1	-1
408.040	1	-11
408.210	1	-1
408.381	1	2
408.552	1	10
408.722	1	3
408.893	1	6
409.064	1	-2
409.235	1	10
409.405	1	-2
409.576	1	-7
409.747	1	-4
409.917	1	1
410.088	1	9
410.259	1	2
410.430	1	10
410.600	1	12
410.771	1	5
410.942	1	-1
411.112	1	4
411.283	1	-9
411.454	1	3
411.625	1	4
411.795	1	-10
411.966	1	1
412.137	1	6
412.307	1	7
412.478	1	12
412.649	1	2
412.819	1	2
412.990	1	1
413.161	1	0
413.332	1	1
413.502	1	0
413.673	1	17
413.844	1	2
414.014	1	-6
414.185	1	-1
414.356	1	-6
414.526	1	0
414.697	1	-3
414.868	1	9
415.038	1	-2
415.209	1	1
415.380	1	1
415.550	1	-7
415.721	1	-1
415.892	1	7
416.063	1	6
416.233	1	2
416.404	1	6
416.575	1	-8
416.745	1	0
416.916	1	3
417.087	1	-2
417.257	1	11
417.428	1	-10
417.599	1	7
417.769	1	5
417.940	1	-2
418.111	1	1
418.281	1	7
418.452	1	-9
418.623	1	5
418.793	1	5
418.964	1	0
419.135	1	1
419.305	1	2
419.476	1	-1
419.647	1	5
419.817	1	2
419.988	1	-1
420.159	1	-13
420.329	1	5
420.500	1	11
420.671	1	1
420.841	1	2
421.012	1	-1
421.183	1	3
421.353	1	6
421.524	1	3
421.695	1	-3
421.865	1	-9
422.036	1	-6
422.206	1	-6
422.377	1	3
422.548	1	2
422.718	1	1
422.889	1	17
423.060	1	2
423.230	1	0
423.401	1	0
423.572	1	-1
423.742	1	-1
423.913	1	0
424.084	1	5
424.254	1	0
424.425	1	-7
424.595	1	-5
424.766	1	-1
424.937	1	-5
425.107	1	-2
425.278	1	-3
425.449	1	-4
425.619	1	1
425.790	1	-3
425.961	1	1
426.131	1	-1
426.302	1	-8
426.472	1	-9
426.643	1	0
426.814	1	16
426.984	1	1
427.155	1	-9
427.326	1	14
427.496	1	8
427.667	1	-2
427.837	1	-3
428.008	1	10
428.179	1	-6
428.349	1	-2
428.520	1	0
428.691	1	-1
428.861	1	-1
429.032	1	-8
429.202	1	3
429.373	1	-9
429.544	1	0
429.714	1	2
429.885	1	1
430.055	1	-7
430.226	1	-11
430.397	1	8
430.567	1	8
430.738	1	1
430.909	1	-8
431.079	1	-2
431.250	1	-7
431.420	1	6
431.591	1	0
431.762	1	5
431.932	1	1
432.103	1	-4
432.273	1	-6
432.444	1	5
432.615	1	5
432.785	1	-5
432.956	1	-7
433.126	1	10
433.297	1	3
433.468	1	4
433.638	1	-3
433.809	1	1
433.979	1	-3
434.150	1	-10
434.320	1	-1
434.491	1	1
434.662	1	-8
434.832	1	-9
435.003	1	14
435.173	1	-1
435.344	1	1
435.515	1	-1
435.685	1	1
435.856	1	-7
436.026	1	-6
436.197	1	-4
436.368	1	-1
436.538	1	3
436.709	1	-3
436.879	1	4
437.050	1	5
437.220	1	8
437.391	1	1
437.562	1	1
437.732	1	-3
437.903	1	-3
438.073	1	12
438.244	1	-7
438.414	1	2
438.585	1	5
438.756	1	-1
438.926	1	-7
439.097	1	8
439.267	1	2
439.438	1	7
439.608	1	7
439.779	1	-8
439.949	1	-4
440.120	1	0
440.291	1	-3
440.461	1	0
440.632	1	8
440.802	1	8
440.973	1	3
441.143	1	4
441.314	1	0
441.485	1	-7
441.655	1	5
441.826	1	-4
441.996	1	-1
442.167	1	5
442.337	1	-9
442.508	1	1
442.678	1	-6
442.849	1	1
443.019	1	-3
443.190	1	-13
443.361	1	5
443.531	1	2
443.702	1	-6
443.872	1	-5
444.043	1	5
444.213	1	-7
444.384	1	5
444.554	1	-1
444.725	1	0
444.895	1	-6
445.066	1	-12
445.237	1	-13
445.407	1	-6
445.578	1	-1
445.748	1	-1
445.919	1	-2
446.089	1	14
446.260	1	6
446.430	1	-16
446.601	1	-6
446.771	1	-3
446.942	1	0
447.112	1	2
447.283	1	2
447.453	1	-6
447.624	1	2
447.794	1	-8
447.965	1	-13
448.135	1	0
448.306	1	1
448.477	1	-2
448.647	1	14
448.818	1	2
448.988	1	-9
449.159	1	-5
449.329	1	4
449.500	1	9
449.670	1	-1
449.841	1	3
450.011	1	3
450.182	1	-13
450.352	1	6
450.523	1	-2
450.693	1	-1
450.864	1	-6
451.034	1	10
451.205	1	11
451.375	1	5
451.546	1	2
451.716	1	-2
451.887	1	4
452.057	1	6
452.228	1	-4
452.398	1	8
452.569	1	-3
452.739	1	-3
452.910	1	2
453.080	1	16
453.251	1	3
453.421	1	2
453.592	1	-7
453.762	1	3
453.933	1	10
454.103	1	-6
454.274	1	-2
454.444	1	2
454.615	1	7
454.785	1	-8
454.956	1	1
455.126	1	3
455.297	1	2
455.467	1	10
455.638	1	3
455.808	1	-7
455.979	1	-1
456.149	1	0
456.320	1	-2
456.490	1	11
456.661	1	-4
456.831	1	5
457.001	1	3
457.172	1	-5
457.342	1	3
457.513	1	7
457.683	1	0
457.854	1	1
458.024	1	-9
458.195	1	-6
458.365	1	6
458.536	1	4
458.706	1	1
458.877	1	-1
459.047	1	-10
459.218	1	-7
459.388	1	-4
459.559	1	8
459.729	1	8
459.899	1	5
460.070	1	4
460.240	1	1
460.411	1	5
460.581	1	2
460.752	1	-7
460.922	1	-5
461.093	1	-1
461.263	1	4
461.434	1	8
461.604	1	3
461.775	1	-2
461.945	1	1
462.115	1	-9
462.286	1	0
462.456	1	-7
462.627	1	-7
462.797	1	-7
462.968	1	-7
463.138	1	3
463.309	1	2
463.479	1	14
463.649	1	3
463.820	1	-1
463.990	1	1
464.161	1	7
464.331	1	1
464.502	1	3
464.672	1	0
464.843	1	-1
465.013	1	-3
465.183	1	4
465.354	1	1
465.524	1	9
465.695	1	5
465.865	1	-1
466.036	1	-1
466.206	1	-9
466.376	1	4
466.547	1	5
466.717	1	-3
466.888	1	2
467.058	1	15
467.229	1	11
467.399	1	0
467.569	1	5
467.740	1	-1
467.910	1	0
468.081	1	3
468.251	1	-6
468.422	1	3
468.592	1	5
468.762	1	-8
468.933	1	2
469.103	1	0
469.274	1	-1
469.444	1	-5
469.614	1	-3
469.785	1	6
469.955	1	6
470.126	1	15
470.296	1	2
470.467	1	-5
470.637	1	8
470.807	1	1
470.978	1	-2
471.148	1	-4
471.319	1	5
471.489	1	3
471.659	1	8
471.830	1	14
472.000	1	8
472.171	1	0
472.341	1	2
472.511	1	8
472.682	1	5
472.852	1	-7
473.023	1	1
473.193	1	-4
473.363	1	-3
473.534	1	-10
473.704	1	12
473.875	1	7
474.045	1	0
474.215	1	-6
474.386	1	9
474.556	1	-2
474.727	1	4
474.897	1	2
475.067	1	-1
475.238	1	7
475.408	1	-5
475.578	1	0
475.749	1	-6
475.919	1	4
476.090	1	-8
476.260	1	-5
476.430	1	4
476.601	1	-9
476.771	1	1
476.942	1	-1
477.112	1	5
477.282	1	-7
477.453	1	-6
477.623	1	7
477.793	1	5
477.964	1	2
478.134	1	11
478.305	1	4
478.475	1	1
478.645	1	-9
478.816	1	-7
478.986	1	0
479.156	1	6
479.327	1	-11
479.497	1	2
479.667	1	1
479.838	1	7
480.008	1	4
480.179	1	-7
480.349	1	1
480.519	1	-3
480.690	1	-7
480.860	1	11
481.030	1	-9
481.201	1	8
481.371	1	-2
481.541	1	0
481.712	1	-5
481.882	1	1
482.053	1	0
482.223	1	-13
482.393	1	-12
482.564	1	-6
482.734	1	4
482.904	1	8
483.075	1	13
483.245	1	9
483.415	1	4
483.586	1	-3
483.756	1	6
483.926	1	1
484.097	1	-8
484.267	1	-2
484.437	1	-7
484.608	1	2
484.778	1	6
484.948	1	-3
485.119	1	-2
485.289	1	4
485.459	1	6
485.630	1	-3
485.800	1	-14
485.970	1	3
486.141	1	-17
486.311	1	-2
486.481	1	0
486.652	1	8
486.822	1	6
486.992	1	-6
487.163	1	-5
487.333	1	-1
487.503	1	-18
487.674	1	-3
487.844	1	-4
488.014	1	8
488.185	1	-5
488.355	1	-3
488.525	1	-5
488.696	1	-6
488.866	1	7
489.036	1	-6
489.207	1	17
489.377	1	3
489.547	1	-6
489.718	1	0
489.888	1	-1
490.058	1	-5
490.228	1	-11
490.399	1	11
490.569	1	3
490.739	1	6
490.910	1	3
491.080	1	-8
491.250	1	-1
491.421	1	-3
491.591	1	-7
491.761	1	-9
491.932	1	9
492.102	1	-7
492.272	1	4
492.442	1	10
492.613	1	5
492.783	1	-4
492.953	1	-2
493.124	1	1
493.294	1	3
493.464	1	-15
493.635	1	-1
493.805	1	9
493.975	1	8
494.145	1	12
494.316	1	8
494.486	1	-3
494.656	1	1
494.827	1	-7
494.997	1	-8
495.167	1	-6
495.337	1	6
495.508	1	-7
495.678	1	7
495.848	1	8
496.019	1	-10
496.189	1	4
496.359	1	1
496.529	1	-2
496.700	1	2
496.870	1	-5
497.040	1	7
497.211	1	10
497.381	1	-16
497.551	1	14
497.721	1	-3
497.892	1	3
498.062	1	2
498.232	1	-4
498.403	1	6
498.573	1	0
498.743	1	-3
498.913	1	6
499.084	1	-5
499.254	1	-3
499.424	1	13
499.594	1	3
499.765	1	3
499.935	1	-4
500.105	1	5
500.275	1	10
500.446	1	10
500.616	1	-9
500.786	1	4
500.956	1	2
501.127	1	15
501.297	1	4
501.467	1	-4
501.638	1	1
501.808	1	-11
501.978	1	2
502.148	1	-1
502.319	1	0
502.489	1	-2
502.659	1	-3
502.829	1	-2
503.000	1	9
503.170	1	-3
503.340	1	-12
503.510	1	3
503.681	1	2
503.851	1	-11
504.021	1	20
504.191	1	5
504.362	1	7
504.532	1	-14
504.702	1	9
504.872	1	-10
505.042	1	2
505.213	1	-1
505.383	1	-2
505.553	1	3
505.723	1	0
505.894	1	7
506.064	1	14
506.234	1	3
506.404	1	2
506.575	1	-8
506.745	1	-3
506.915	1	-6
507.085	1	-4
507.256	1	-7
507.426	1	7
507.596	1	4
507.766	1	0
507.936	1	10
508.107	1	8
508.277	1	-5
508.447	1	-3
508.617	1	3
508.788	1	-4
508.958	1	10
509.128	1	5
509.298	1	2
509.468	1	9
509.639	1	2
509.809	1	4
509.979	1	-11
510.149	1	-9
510.319	1	-4
510.490	1	10
510.660	1	5
510.830	1	-3
511.000	1	6
511.171	1	3
511.341	1	-13
511.511	1	3
511.681	1	2
511.851	1	-2
512.022	1	-5
512.192	1	14
512.362	1	2
512.532	1	-3
512.702	1	-1
512.873	1	0
513.043	1	1
513.213	1	-4
513.383	1	-13
513.553	1	-10
513.724	1	8
513.894	1	-4
514.064	1	4
514.234	1	1
514.404	1	7
514.575	1	3
514.745	1	-14
514.915	1	2
515.085	1	-1
515.255	1	3
515.425	1	-2
515.596	1	-5
515.766	1	-1
515.936	1	5
516.106	1	1
516.276	1	6
516.447	1	5
516.617	1	-1
516.787	1	1
516.957	1	-5
517.127	1	8
517.297	1	6
517.468	1	-3
517.638	1	4
517.808	1	2
517.978	1	-4
518.148	1	-2
518.319	1	-1
518.489	1	10
518.659	1	-8
518.829	1	-8
518.999	1	-6
519.169	1	8
519.340	1	-14
519.510	1	-2
519.680	1	-5
519.850	1	-1
520.020	1	-10
520.190	1	-3
520.361	1	-13
520.531	1	1
520.701	1	-2
520.871	1	-6
521.041	1	-1
521.211	1	4
521.382	1	-4
521.552	1	6
521.722	1	5
521.892	1	-7
522.062	1	2
522.232	1	-12
522.402	1	-15
522.573	1	-9
522.743	1	2
522.913	1	6
523.083	1	9
523.253	1	-1
523.423	1	0
523.593	1	-12
523.764	1	7
523.934	1	0
524.104	1	-11
524.274	1	-10
524.444	1	-2
524.614	1	0
524.784	1	9
524.955	1	-6
525.125	1	0
525.295	1	-3
525.465	1	3
525.635	1	8
525.805	1	2
525.975	1	-8
526.146	1	5
526.316	1	0
526.486	1	-1
526.656	1	16
526.826	1	8
526.996	1	17
527.166	1	-5
527.337	1	1
527.507	1	-13
527.677	1	13
527.847	1	-6
528.017	1	-14
528.187	1	-3
528.357	1	-1
528.527	1	2
528.698	1	-15
528.868	1	-5
529.038	1	-4
529.208	1	2
529.378	1	-1
529.548	1	4
529.718	1	7
529.888	1	0
530.058	1	-2
530.229	1	8
530.399	1	7
530.569	1	0
530.739	1	2
530.909	1	-10
531.079	1	11
531.249	1	-2
531.419	1	10
531.589	1	-12
531.760	1	15
531.930	1	1
532.100	1	7
532.270	1	7
532.440	1	1
532.610	1	7
532.780	1	-8
532.950	1	10
533.120	1	-3
533.290	1	-8
533.461	1	15
533.631	1	2
533.801	1	2
533.971	1	-2
534.141	1	5
534.311	1	5
534.481	1	-5
534.651	1	3
534.821	1	6
534.991	1	8
535.162	1	13
535.332	1	8
535.502	1	8
535.672	1	-9
535.842	1	-2
536.012	1	12
536.182	1	-8
536.352	1	7
536.522	1	8
536.692	1	10
536.862	1	3
537.032	1	1
537.203	1	-2
537.373	1	-7
537.543	1	4
537.713	1	10
537.883	1	-4
538.053	1	5
538.223	1	2
538.393	1	6
538.563	1	0
538.733	1	-6
538.903	1	-3
539.073	1	-5
539.243	1	1
539.413	1	-4
539.584	1	7
539.754	1	8
539.924	1	5
540.094	1	2
540.264	1	-2
540.434	1	-4
540.604	1	-1
540.774	1	2
540.944	1	-5
541.114	1	-8
541.284	1	9
541.454	1	4
541.624	1	-7
541.794	1	-8
541.964	1	4
542.134	1	3
542.305	1	-9
542.475	1	2
542.645	1	2
542.815	1	3
542.985	1	-17
543.155	1	7
543.325	1	-4
543.495	1	-4
543.665	1	8
543.835	1	0
544.005	1	-6
544.175	1	-1
544.345	1	-2
544.515	1	-8
544.685	1	3
544.855	1	1
545.025	1	-1
545.195	1	-5
545.365	1	8
545.535	1	-2
545.705	1	9
545.875	1	3
546.045	1	0
546.216	1	7
546.386	1	-3
546.556	1	-9
546.726	1	-5
546.896	1	-3
547.066	1	-10
547.236	1	-8
547.406	1	12
547.576	1	5
547.746	1	7
547.916	1	4
548.086	1	5
548.256	1	4
548.426	1	-5
548.596	1	13
548.766	1	4
548.936	1	-12
549.106	1	10
549.276	1	3
549.446	1	-1
549.616	1	2
549.786	1	4
549.956	1	2
550.126	1	-3
550.296	1	4
550.466	1	8
550.636	1	4
550.806	1	7
550.976	1	6
551.146	1	-3
551.316	1	-1
551.486	1	5
551.656	1	-3
551.826	1	11
551.996	1	9
552.166	1	-8
552.336	1	2
552.506	1	-5
552.676	1	-3
552.846	1	-2
553.016	1	-8
553.186	1	-7
553.356	1	-1
553.526	1	1
553.696	1	12
553.866	1	5
554.036	1	-4
554.206	1	2
554.376	1	-7
554.546	1	-8
554.716	1	2
554.886	1	-3
555.056	1	-8
555.226	1	-8
555.396	1	-4
555.566	1	3
555.736	1	-7
555.906	1	4
556.076	1	2
556.246	1	3
556.416	1	7
556.586	1	6
556.756	1	0
556.926	1	11
557.096	1	0
557.266	1	7
557.436	1	7
557.606	1	-5
557.776	1	-3
557.946	1	11
558.116	1	6
558.286	1	3
558.456	1	-4
558.626	1	4
558.796	1	-4
558.966	1	-5
559.136	1	-5
559.306	1	-3
559.476	1	4
559.646	1	-3
559.816	1	6
559.986	1	-1
560.155	1	0
560.325	1	-3
560.495	1	2
560.665	1	3
560.835	1	2
561.005	1	-2
561.175	1	-3
561.345	1	-1
561.515	1	-1
561.685	1	-5
561.855	1	4
562.025	1	-7
562.195	1	4
562.365	1	-1
562.535	1	-1
562.705	1	13
562.875	1	0
563.045	1	-1
563.215	1	8
563.385	1	-2
563.555	1	4
563.725	1	-6
563.895	1	-4
564.064	1	-1
564.234	1	-6
564.404	1	-5
564.574	1	-1
564.744	1	6
564.914	1	-10
565.084	1	-7
565.254	1	-1
565.424	1	2
565.594	1	-10
565.764	1	6
565.934	1	2
566.104	1	-2
566.274	1	9
566.444	1	2
566.614	1	-3
566.783	1	-1
566.953	1	-3
567.123	1	16
567.293	1	-5
567.463	1	-3
567.633	1	-3
567.803	1	-11
567.973	1	-6
568.143	1	-1
568.313	1	-2
568.483	1	-2
568.653	1	2
568.823	1	4
568.993	1	-11
569.162	1	4
569.332	1	2
569.502	1	4
569.672	1	0
569.842	1	4
570.012	1	-3
570.182	1	-5
570.352	1	0
570.522	1	6
570.692	1	5
570.862	1	9
571.031	1	3
571.201	1	6
571.371	1	-7
571.541	1	-9
571.711	1	11
571.881	1	4
572.051	1	1
572.221	1	3
572.391	1	5
572.561	1	-15
572.731	1	-8
572.900	1	10
573.070	1	7
573.240	1	-7
573.410	1	-2
573.580	1	6
573.750	1	2
573.920	1	3
574.090	1	-3
574.260	1	1
574.430	1	0
574.599	1	-2
574.769	1	5
574.939	1	0
575.109	1	-10
575.279	1	10
575.449	1	1
575.619	1	6
575.789	1	9
575.959	1	0
576.128	1	4
576.298	1	-6
576.468	1	3
576.638	1	0
576.808	1	2
576.978	1	8
577.148	1	-5
577.318	1	9
577.487	1	0
577.657	1	-12
577.827	1	-3
577.997	1	-4
578.167	1	3
578.337	1	-5
578.507	1	-2
578.677	1	-4
578.846	1	-2
579.016	1	11
579.186	1	1
579.356	1	-5
579.526	1	0
579.696	1	6
579.866	1	-5
580.036	1	-8
580.205	1	7
580.375	1	-5
580.545	1	-6
580.715	1	3
580.885	1	-5
581.055	1	8
581.225	1	-9
581.394	1	-1
581.564	1	-1
581.734	1	-3
581.904	1	-4
582.074	1	-12
582.244	1	-6
582.414	1	-1
582.583	1	-8
582.753	1	8
582.923	1	0
583.093	1	-4
583.263	1	-3
583.433	1	1
583.603	1	6
583.772	1	-5
583.942	1	11
584.112	1	6
584.282	1	1
584.452	1	1
584.622	1	5
584.791	1	-8
584.961	1	13
585.131	1	-10
585.301	1	4
585.471	1	-3
585.641	1	7
585.811	1	-6
585.980	1	-14
586.150	1	-1
586.320	1	-8
586.490	1	-3
586.660	1	5
586.830	1	-4
586.999	1	-2
587.169	1	6
587.339	1	0
587.509	1	-4
587.679	1	-1
587.849	1	11
588.018	1	-1
588.188	1	5
588.358	1	3
588.528	1	0
588.698	1	-7
588.867	1	6
589.037	1	9
589.207	1	-7
589.377	1	12
589.547	1	-2
589.717	1	5
589.886	1	-9
590.056	1	4
590.226	1	4
590.396	1	10
590.566	1	0
590.735	1	19
590.905	1	4
591.075	1	-7
591.245	1	-3
591.415	1	-5
591.585	1	4
591.754	1	4
591.924	1	1
592.094	1	-2
592.264	1	-7
592.434	1	-4
592.603	1	-5
592.773	1	-2
592.943	1	-2
593.113	1	-6
593.283	1	-1
593.452	1	-8
593.622	1	3
593.792	1	-6
593.962	1	11
594.132	1	-1
594.301	1	11
594.471	1	3
594.641	1	-2
594.811	1	4
594.981	1	-1
595.150	1	-9
595.320	1	4
595.490	1	-5
595.660	1	-6
595.829	1	1
595.999	1	14
596.169	1	-5
596.339	1	4
596.509	1	5
596.678	1	-3
596.848	1	9
597.018	1	10
597.188	1	6
597.358	1	7
597.527	1	-5
597.697	1	-1
597.867	1	-9
598.037	1	4
598.206	1	-5
598.376	1	3
598.546	1	3
598.716	1	-12
598.885	1	-2
599.055	1	4
599.225	1	-6
599.395	1	13
599.565	1	0
599.734	1	-14
599.904	1	0
600.074	1	-4
600.244	1	13
600.413	1	1
600.583	1	-11
600.753	1	0
600.923	1	17
601.092	1	-20
601.262	1	3
601.432	1	-1
601.602	1	-5
601.771	1	6
601.941	1	2
602.111	1	-5
602.281	1	-4
602.451	1	1
602.620	1	2
602.790	1	-2
602.960	1	-8
603.130	1	3
603.299	1	4
603.469	1	-5
603.639	1	8
603.809	1	6
603.978	1	5
604.148	1	-1
604.318	1	-3
604.487	1	6
604.657	1	3
604.827	1	-10
604.997	1	0
605.166	1	4
605.336	1	-7
605.506	1	3
605.676	1	-6
605.845	1	-10
606.015	1	-2
606.185	1	-1
606.355	1	9
606.524	1	-7
606.694	1	4
606.864	1	-1
607.034	1	-6
607.203	1	16
607.373	1	1
607.543	1	-12
607.712	1	11
607.882	1	-2
608.052	1	2
608.222	1	-6
608.391	1	-2
608.561	1	4
608.731	1	-5
608.901	1	0
609.070	1	0
609.240	1	13
609.410	1	-2
609.579	1	3
609.749	1	1
609.919	1	-2
610.089	1	-6
610.258	1	1
610.428	1	2
610.598	1	-5
610.767	1	1
610.937	1	-11
611.107	1	9
611.277	1	-8
611.446	1	-1
611.616	1	-7
611.786	1	13
611.955	1	2
612.125	1	8
612.295	1	2
612.465	1	-13
612.634	1	-6
612.804	1	15
612.974	1	2
613.143	1	0
613.313	1	-2
613.483	1	9
613.652	1	5
613.822	1	-3
613.992	1	-1
614.162	1	2
614.331	1	0
614.501	1	1
614.671	1	1
614.840	1	5
615.010	1	1
615.180	1	1
615.349	1	3
615.519	1	-1
615.689	1	-2
615.858	1	6
616.028	1	-6
616.198	1	8
616.368	1	-11
616.537	1	-4
616.707	1	-1
616.877	1	-4
617.046	1	-2
617.216	1	7
617.386	1	2
617.555	1	-4
617.725	1	6
617.895	1	-8
618.064	1	5
618.234	1	-3
618.404	1	15
618.573	1	2
618.743	1	-2
618.913	1	-7
619.082	1	0
619.252	1	-2
619.422	1	-1
619.591	1	2
619.761	1	2
619.931	1	9
620.100	1	17
620.270	1	-6
620.440	1	-1
620.609	1	-10
620.779	1	-5
620.949	1	-1
621.118	1	2
621.288	1	2
621.458	1	4
621.627	1	1
621.797	1	1
621.967	1	-5
622.136	1	7
622.306	1	7
622.476	1	2
622.645	1	6
622.815	1	1
622.985	1	1
623.154	1	-3
623.324	1	13
623.494	1	2
623.663	1	-1
623.833	1	-4
624.002	1	-3
624.172	1	-3
624.342	1	-10
624.511	1	-2
624.681	1	-7
624.851	1	-13
625.020	1	-4
625.190	1	-2
625.360	1	-8
625.529	1	5
625.699	1	-11
625.869	1	4
626.038	1	5
626.208	1	-4
626.377	1	9
626.547	1	3
626.717	1	-11
626.886	1	-8
627.056	1	-6
627.226	1	0
627.395	1	2
627.565	1	7
627.735	1	-4
627.904	1	2
628.074	1	6
628.243	1	2
628.413	1	-3
628.583	1	-13
628.752	1	6
628.922	1	-8
629.091	1	11
629.261	1	1
629.431	1	-8
629.600	1	7
629.770	1	-4
629.940	1	9
630.109	1	0
630.279	1	-6
630.448	1	-6
630.618	1	6
630.788	1	5
630.957	1	-8
631.127	1	9
631.297	1	-4
631.466	1	1
631.636	1	-8
631.805	1	-8
631.975	1	1
632.145	1	-10
632.314	1	10
632.484	1	-4
632.653	1	-4
632.823	1	8
632.993	1	6
633.162	1	-1
633.332	1	-3
633.501	1	2
633.671	1	1
633.841	1	-2
634.010	1	-2
634.180	1	0
634.349	1	7
634.519	1	1
634.689	1	2
634.858	1	5
635.028	1	-1
635.197	1	1
635.367	1	-1
635.537	1	2
635.706	1	-5
635.876	1	3
636.045	1	-1
636.215	1	-9
636.384	1	9
636.554	1	8
636.724	1	4
636.893	1	0
637.063	1	0
637.232	1	3
637.402	1	2
637.572	1	-6
637.741	1	12
637.911	1	-8
638.080	1	-2
638.250	1	6
638.419	1	3
638.589	1	14
638.759	1	1
638.928	1	-1
639.098	1	4
639.267	1	-2
639.437	1	-7
639.606	1	8
639.776	1	-4
639.946	1	0
640.115	1	-11
640.285	1	-4
640.454	1	6
640.624	1	7
640.793	1	3
640.963	1	-3
641.132	1	9
641.302	1	7
641.472	1	-8
641.641	1	0
641.811	1	0
641.980	1	-5
642.150	1	-3
642.319	1	4
642.489	1	1
642.659	1	-6
642.828	1	0
642.998	1	-10
643.167	1	16
643.337	1	-1
643.506	1	-11
643.676	1	-2
643.845	1	-2
644.015	1	3
644.184	1	-1
644.354	1	3
644.524	1	2
644.693	1	3
644.863	1	-6
645.032	1	-3
645.202	1	-9
645.371	1	-14
645.541	1	-4
645.710	1	3
645.880	1	0
646.049	1	9
646.219	1	9
646.388	1	-1
646.558	1	7
646.728	1	6
646.897	1	-9
647.067	1	2
647.236	1	1
647.406	1	-8
647.575	1	-1
647.745	1	-5
647.914	1	-5
648.084	1	-4
648.253	1	-4
648.423	1	-3
648.592	1	-6
648.762	1	-3
648.931	1	4
649.101	1	7
649.270	1	14
649.440	1	-5
649.610	1	16
649.779	1	-1
649.949	1	-1
650.118	1	-19
650.288	1	0
650.457	1	-3
650.627	1	6
650.796	1	3
650.966	1	-4
651.135	1	12
651.305	1	-1
651.474	1	2
651.644	1	-3
651.813	1	5
651.983	1	2
652.152	1	-2
652.322	1	-2
652.491	1	1
652.661	1	0
652.830	1	9
653.000	1	-4
653.169	1	1
653.339	1	4
653.508	1	0
653.678	1	0
653.847	1	-7
654.017	1	2
654.186	1	6
654.356	1	-1
654.525	1	-4
654.695	1	1
654.864	1	2
655.034	1	-3
655.203	1	1
655.373	1	-3
655.542	1	0
655.712	1	-5
655.881	1	2
656.051	1	8
656.220	1	5
656.390	1	-3
656.559	1	-8
656.729	1	8
656.898	1	-3
657.068	1	-1
657.237	1	1
657.406	1	0
657.576	1	5
657.745	1	-4
657.915	1	5
658.084	1	8
658.254	1	-7
658.423	1	1
658.593	1	-9
658.762	1	-12
658.932	1	-4
659.101	1	-3
659.271	1	1
659.440	1	4
659.610	1	1
659.779	1	1
659.949	1	-14
660.118	1	-2
660.288	1	-8
660.457	1	-4
660.626	1	-8
660.796	1	-8
660.965	1	-3
661.135	1	0
661.304	1	7
661.474	1	-1
661.643	1	-7
661.813	1	5
661.982	1	-4
662.152	1	-5
662.321	1	10
662.491	1	-6
662.660	1	2
662.829	1	-6
662.999	1	8
663.168	1	-5
663.338	1	-12
663.507	1	-1
663.677	1	-14
663.846	1	8
664.016	1	-6
664.185	1	-2
664.354	1	12
664.524	1	-8
664.693	1	7
664.863	1	2
665.032	1	-6
665.202	1	-10
665.371	1	-2
665.541	1	-4
665.710	1	-1
665.879	1	0
666.049	1	-4
666.218	1	-7
666.388	1	-14
666.557	1	1
666.727	1	-21
666.896	1	-13
667.065	1	6
667.235	1	-2
667.404	1	-8
667.574	1	4
667.743	1	5
667.913	1	3
668.082	1	-7
668.251	1	-5
668.421	1	2
668.590	1	-10
668.760	1	-5
668.929	1	5
669.099	1	-16
669.268	1	-1
669.437	1	10
669.607	1	-4
669.776	1	-8
669.946	1	8
670.115	1	-2
670.285	1	3
670.454	1	-5
670.623	1	8
670.793	1	-10
670.962	1	2
671.132	1	-6
671.301	1	-6
671.470	1	-8
671.640	1	-26
671.809	1	-8
671.979	1	5
672.148	1	10
672.317	1	2
672.487	1	-3
672.656	1	1
672.826	1	-8
672.995	1	-1
673.164	1	0
673.334	1	3
673.503	1	8
673.673	1	6
673.842	1	-3
674.011	1	7
674.181	1	-6
674.350	1	-4
674.520	1	2
674.689	1	-10
674.858	1	-8
675.028	1	-3
675.197	1	-2
675.367	1	1
675.536	1	7
675.705	1	-5
675.875	1	10
676.044	1	-3
676.214	1	2
676.383	1	-3
676.552	1	-7
676.722	1	4
676.891	1	-14
677.060	1	-2
677.230	1	11
677.399	1	-6
677.569	1	-1
677.738	1	-7
677.907	1	-11
678.077	1	9
678.246	1	-14
678.416	1	-1
678.585	1	6
678.754	1	2
678.924	1	-4
679.093	1	-4
679.262	1	-3
679.432	1	-9
679.601	1	-13
679.771	1	-5
679.940	1	-6
680.109	1	3
680.279	1	-7
680.448	1	-4
680.617	1	-9
680.787	1	-3
680.956	1	0
681.125	1	0
681.295	1	9
681.464	1	0
681.634	1	-3
681.803	1	-5
681.972	1	-4
682.142	1	10
682.311	1	-2
682.480	1	-1
682.650	1	-10
682.819	1	8
682.988	1	-6
683.158	1	4
683.327	1	3
683.496	1	-15
683.666	1	2
683.835	1	1
684.004	1	12
684.174	1	1
684.343	1	-12
684.512	1	2
684.682	1	3
684.851	1	-1
685.021	1	6
685.190	1	14
685.359	1	-17
685.529	1	0
685.698	1	0
685.867	1	2
686.037	1	-2
686.206	1	-2
686.375	1	-8
686.545	1	1
686.714	1	-5
686.883	1	-4
687.053	1	-5
687.222	1	-1
687.391	1	-8
687.561	1	-4
687.730	1	9
687.899	1	0
688.069	1	2
688.238	1	-6
688.407	1	7
688.577	1	-9
688.746	1	3
