340.368	1	0
340.539	1	1
340.710	1	-6
340.881	1	7
341.052	1	1
341.223	1	12
341.394	1	-1
341.565	1	-8
341.737	1	11
341.908	1	10
342.079	1	-9
342.250	1	1
342.421	1	0
342.592	1	3
342.763	1	4
342.934	1	12
343.105	1	6
343.276	1	7
343.447	1	0
343.618	1	8
343.789	1	-2
343.960	1	2
344.131	1	1
344.302	1	6
344.473	1	7
344.644	1	-2
344.815	1	6
344.986	1	2
345.157	1	13
345.328	1	0
345.499	1	3
345.670	1	5
345.841	1	4
346.012	1	8
346.183	1	-1
346.354	1	3
346.526	1	9
346.697	1	1
346.868	1	11
347.039	1	-4
347.210	1	-2
347.381	1	10
347.552	1	-1
347.723	1	5
347.894	1	4
348.065	1	8
348.236	1	4
348.407	1	-2
348.578	1	5
348.749	1	7
348.920	1	8
349.091	1	6
349.262	1	3
349.433	1	-4
349.604	1	15
349.775	1	10
349.946	1	4
350.117	1	7
350.288	1	3
350.459	1	8
350.630	1	1
350.801	1	14
350.972	1	-5
351.143	1	-4
351.314	1	3
351.485	1	0
351.656	1	8
351.827	1	1
351.998	1	4
352.169	1	13
352.340	1	-4
352.511	1	2
352.682	1	-1
352.853	1	-6
353.024	1	-4
353.195	1	5
353.366	1	9
353.537	1	5
353.708	1	8
353.879	1	8
354.050	1	9
354.221	1	1
354.392	1	12
354.563	1	10
354.734	1	4
354.905	1	5
355.076	1	13
355.247	1	-4
355.418	1	-2
355.589	1	3
355.760	1	13
355.931	1	1
356.102	1	-7
356.273	1	5
356.444	1	2
356.615	1	9
356.785	1	13
356.956	1	9
357.127	1	12
357.298	1	6
357.469	1	-1
357.640	1	12
357.811	1	24
357.982	1	4
358.153	1	13
358.324	1	14
358.495	1	8
358.666	1	3
358.837	1	4
359.008	1	2
359.179	1	4
359.350	1	10
359.521	1	5
359.692	1	10
359.863	1	-3
360.034	1	13
360.205	1	12
360.376	1	13
360.547	1	7
360.718	1	9
360.889	1	9
361.060	1	14
361.231	1	10
361.401	1	17
361.572	1	8
361.743	1	15
361.914	1	4
362.085	1	4
362.256	1	19
362.427	1	12
362.598	1	12
362.769	1	13
362.940	1	13
363.111	1	21
363.282	1	8
363.453	1	24
363.624	1	21
363.795	1	20
363.966	1	20
364.137	1	16
364.308	1	18
364.478	1	22
364.649	1	13
364.820	1	17
364.991	1	23
365.162	1	16
365.333	1	15
365.504	1	16
365.675	1	15
365.846	1	16
366.017	1	21
366.188	1	22
366.359	1	25
366.530	1	23
366.701	1	22
366.871	1	42
367.042	1	34
367.213	1	27
367.384	1	28
367.555	1	13
367.726	1	29
367.897	1	25
368.068	1	17
368.239	1	32
368.410	1	20
368.581	1	25
368.752	1	19
368.923	1	9
369.093	1	19
369.264	1	24
369.435	1	22
369.606	1	27
369.777	1	13
369.948	1	21
370.119	1	23
370.290	1	9
370.461	1	17
370.632	1	19
370.803	1	15
370.973	1	24
371.144	1	26
371.315	1	17
371.486	1	21
371.657	1	17
371.828	1	28
371.999	1	8
372.170	1	18
372.341	1	21
372.512	1	18
372.682	1	13
372.853	1	14
373.024	1	16
373.195	1	4
373.366	1	19
373.537	1	6
373.708	1	20
373.879	1	26
374.050	1	21
374.220	1	19
374.391	1	17
374.562	1	13
374.733	1	27
374.904	1	12
375.075	1	20
375.246	1	1
375.417	1	22
375.588	1	15
375.758	1	19
375.929	1	18
376.100	1	18
376.271	1	9
376.442	1	7
376.613	1	17
376.784	1	3
376.955	1	4
377.125	1	2
377.296	1	8
377.467	1	17
377.638	1	16
377.809	1	21
377.980	1	10
378.151	1	10
378.321	1	12
378.492	1	13
378.663	1	10
378.834	1	5
379.005	1	18
379.176	1	9
379.347	1	22
379.518	1	1
379.688	1	9
379.859	1	11
380.030	1	13
380.201	1	1
380.372	1	8
380.543	1	14
380.714	1	16
380.884	1	5
381.055	1	14
381.226	1	13
381.397	1	9
381.568	1	9
381.739	1	25
381.910	1	15
382.080	1	-5
382.251	1	22
382.422	1	19
382.593	1	14
382.764	1	9
382.935	1	24
383.105	1	17
383.276	1	11
383.447	1	26
383.618	1	29
383.789	1	13
383.960	1	15
384.130	1	10
384.301	1	15
384.472	1	9
384.643	1	27
384.814	1	30
384.985	1	18
385.156	1	35
385.326	1	30
385.497	1	24
385.668	1	15
385.839	1	23
386.010	1	35
386.180	1	24
386.351	1	22
386.522	1	29
386.693	1	24
386.864	1	21
387.035	1	26
387.205	1	19
387.376	1	36
387.547	1	29
387.718	1	36
387.889	1	35
388.060	1	31
388.230	1	18
388.401	1	20
388.572	1	23
388.743	1	32
388.914	1	31
389.084	1	32
389.255	1	30
389.426	1	27
389.597	1	14
389.768	1	26
389.939	1	33
390.109	1	19
390.280	1	29
390.451	1	33
390.622	1	21
390.793	1	15
390.963	1	33
391.134	1	26
391.305	1	32
391.476	1	29
391.647	1	19
391.817	1	14
391.988	1	12
392.159	1	24
392.330	1	21
392.501	1	26
392.671	1	29
392.842	1	33
393.013	1	28
393.184	1	33
393.355	1	37
393.525	1	33
393.696	1	22
393.867	1	19
394.038	1	13
394.208	1	29
394.379	1	18
394.550	1	27
394.721	1	18
394.892	1	29
395.062	1	10
395.233	1	21
395.404	1	27
395.575	1	21
395.746	1	21
395.916	1	19
396.087	1	26
396.258	1	16
396.429	1	18
396.599	1	27
396.770	1	29
396.941	1	32
397.112	1	26
397.283	1	27
397.453	1	16
397.624	1	21
397.795	1	33
397.966	1	27
398.136	1	20
398.307	1	18
398.478	1	32
398.649	1	30
398.819	1	36
398.990	1	35
399.161	1	19
399.332	1	35
399.503	1	24
399.673	1	30
399.844	1	20
400.015	1	30
400.186	1	21
400.356	1	25
400.527	1	28
400.698	1	29
400.869	1	25
401.039	1	21
401.210	1	1
401.381	1	22
401.552	1	29
401.722	1	32
401.893	1	27
402.064	1	16
402.235	1	20
402.405	1	19
402.576	1	29
402.747	1	13
402.918	1	11
403.088	1	16
403.259	1	14
403.430	1	12
403.601	1	21
403.771	1	34
403.942	1	13
404.113	1	30
404.284	1	10
404.454	1	27
404.625	1	16
404.796	1	27
404.967	1	17
405.137	1	24
405.308	1	18
405.479	1	18
405.649	1	24
405.820	1	27
405.991	1	19
406.162	1	12
406.332	1	9
406.503	1	10
406.674	1	20
406.845	1	27
407.015	1	17
407.186	1	35
407.357	1	21
407.527	1	18
407.698	1	20
407.869	1	16
408.040	1	9
408.210	1	12
408.381	1	18
408.552	1	17
408.722	1	8
408.893	1	19
409.064	1	16
409.235	1	12
409.405	1	11
409.576	1	17
409.747	1	14
409.917	1	13
410.088	1	12
410.259	1	21
410.430	1	26
410.600	1	15
410.771	1	26
410.942	1	18
411.112	1	15
411.283	1	11
411.454	1	27
411.625	1	12
411.795	1	18
411.966	1	18
412.137	1	25
412.307	1	9
412.478	1	19
412.649	1	19
412.819	1	15
412.990	1	13
413.161	1	11
413.332	1	16
413.502	1	8
413.673	1	18
413.844	1	10
414.014	1	-1
414.185	1	15
414.356	1	6
414.526	1	21
414.697	1	18
414.868	1	21
415.038	1	9
415.209	1	12
415.380	1	17
415.550	1	-1
415.721	1	2
415.892	1	10
416.063	1	26
416.233	1	19
416.404	1	18
416.575	1	9
416.745	1	13
416.916	1	10
417.087	1	7
417.257	1	13
417.428	1	8
417.599	1	17
417.769	1	23
417.940	1	11
418.111	1	11
418.281	1	18
418.452	1	9
418.623	1	4
418.793	1	16
418.964	1	11
419.135	1	25
419.305	1	10
419.476	1	13
419.647	1	17
419.817	1	10
419.988	1	6
420.159	1	8
420.329	1	13
420.500	1	16
420.671	1	17
420.841	1	16
421.012	1	22
421.183	1	15
421.353	1	16
421.524	1	16
421.695	1	23
421.865	1	16
422.036	1	12
422.206	1	7
422.377	1	14
422.548	1	17
422.718	1	4
422.889	1	8
423.060	1	26
423.230	1	21
423.401	1	17
423.572	1	12
423.742	1	15
423.913	1	12
424.084	1	8
424.254	1	8
424.425	1	10
424.595	1	8
424.766	1	14
424.937	1	8
425.107	1	13
425.278	1	6
425.449	1	20
425.619	1	17
425.790	1	21
425.961	1	4
426.131	1	6
426.302	1	9
426.472	1	3
426.643	1	19
426.814	1	16
426.984	1	21
427.155	1	10
427.326	1	18
427.496	1	16
427.667	1	14
427.837	1	6
428.008	1	13
428.179	1	1
428.349	1	2
428.520	1	3
428.691	1	21
428.861	1	14
429.032	1	16
429.202	1	15
429.373	1	-2
429.544	1	17
429.714	1	20
429.885	1	5
430.055	1	8
430.226	1	4
430.397	1	10
430.567	1	18
430.738	1	9
430.909	1	-2
431.079	1	16
431.250	1	3
431.420	1	12
431.591	1	18
431.762	1	13
431.932	1	17
432.103	1	9
432.273	1	2
432.444	1	18
432.615	1	12
432.785	1	14
432.956	1	1
433.126	1	15
433.297	1	10
433.468	1	11
433.638	1	2
433.809	1	19
433.979	1	18
434.150	1	5
434.320	1	10
434.491	1	15
434.662	1	14
434.832	1	6
435.003	1	6
435.173	1	17
435.344	1	14
435.515	1	10
435.685	1	25
435.856	1	7
436.026	1	24
436.197	1	17
436.368	1	13
436.538	1	14
436.709	1	-3
436.879	1	6
437.050	1	23
437.220	1	21
437.391	1	7
437.562	1	17
437.732	1	15
437.903	1	10
438.073	1	14
438.244	1	-5
438.414	1	12
438.585	1	5
438.756	1	18
438.926	1	13
439.097	1	23
439.267	1	13
439.438	1	14
439.608	1	8
439.779	1	7
439.949	1	-2
440.120	1	7
440.291	1	3
440.461	1	7
440.632	1	-2
440.802	1	19
440.973	1	10
441.143	1	18
441.314	1	3
441.485	1	13
441.655	1	22
441.826	1	-4
441.996	1	12
442.167	1	3
442.337	1	-1
442.508	1	6
442.678	1	4
442.849	1	12
443.019	1	9
443.190	1	-3
443.361	1	14
443.531	1	12
443.702	1	1
443.872	1	11
444.043	1	8
444.213	1	9
444.384	1	4
444.554	1	4
444.725	1	18
444.895	1	7
445.066	1	-2
445.237	1	-3
445.407	1	2
445.578	1	12
445.748	1	10
445.919	1	-4
446.089	1	19
446.260	1	10
446.430	1	-8
446.601	1	-2
446.771	1	5
446.942	1	13
447.112	1	10
447.283	1	13
447.453	1	5
447.624	1	10
447.794	1	-1
447.965	1	8
448.135	1	14
448.306	1	6
448.477	1	2
448.647	1	9
448.818	1	14
448.988	1	-6
449.159	1	-3
449.329	1	-1
449.500	1	16
449.670	1	10
449.841	1	7
450.011	1	17
450.182	1	2
450.352	1	15
450.523	1	1
450.693	1	12
450.864	1	3
451.034	1	14
451.205	1	9
451.375	1	13
451.546	1	16
451.716	1	15
451.887	1	0
452.057	1	16
452.228	1	11
452.398	1	8
452.569	1	7
452.739	1	2
452.910	1	7
453.080	1	17
453.251	1	7
453.421	1	5
453.592	1	5
453.762	1	15
453.933	1	12
454.103	1	7
454.274	1	8
454.444	1	12
454.615	1	10
454.785	1	1
454.956	1	8
455.126	1	10
455.297	1	12
455.467	1	10
455.638	1	12
455.808	1	3
455.979	1	17
456.149	1	5
456.320	1	9
456.490	1	5
456.661	1	2
456.831	1	17
457.001	1	12
457.172	1	12
457.342	1	8
457.513	1	16
457.683	1	4
457.854	1	10
458.024	1	9
458.195	1	-5
458.365	1	14
458.536	1	5
458.706	1	9
458.877	1	0
459.047	1	7
459.218	1	8
459.388	1	11
459.559	1	6
459.729	1	10
459.899	1	17
460.070	1	14
460.240	1	2
460.411	1	16
460.581	1	12
460.752	1	8
460.922	1	8
461.093	1	9
461.263	1	18
461.434	1	10
461.604	1	4
461.775	1	4
461.945	1	13
462.115	1	0
462.286	1	13
462.456	1	4
462.627	1	3
462.797	1	0
462.968	1	7
463.138	1	10
463.309	1	16
463.479	1	10
463.649	1	13
463.820	1	1
463.990	1	9
464.161	1	12
464.331	1	13
464.502	1	7
464.672	1	10
464.843	1	23
465.013	1	-4
465.183	1	1
465.354	1	12
465.524	1	13
465.695	1	6
465.865	1	5
466.036	1	10
466.206	1	4
466.376	1	3
466.547	1	12
466.717	1	8
466.888	1	4
467.058	1	12
467.229	1	12
467.399	1	9
467.569	1	9
467.740	1	6
467.910	1	8
468.081	1	8
468.251	1	-4
468.422	1	11
468.592	1	15
468.762	1	-7
468.933	1	9
469.103	1	-2
469.274	1	2
469.444	1	10
469.614	1	-1
469.785	1	16
469.955	1	5
470.126	1	11
470.296	1	13
470.467	1	5
470.637	1	16
470.807	1	3
470.978	1	2
471.148	1	3
471.319	1	12
471.489	1	5
471.659	1	12
471.830	1	15
472.000	1	9
472.171	1	9
472.341	1	16
472.511	1	13
472.682	1	14
472.852	1	4
473.023	1	3
473.193	1	0
473.363	1	6
473.534	1	5
473.704	1	14
473.875	1	9
474.045	1	4
474.215	1	-5
474.386	1	19
474.556	1	3
474.727	1	3
474.897	1	14
475.067	1	9
475.238	1	11
475.408	1	8
475.578	1	8
475.749	1	1
475.919	1	1
476.090	1	6
476.260	1	-3
476.430	1	0
476.601	1	6
476.771	1	6
476.942	1	8
477.112	1	9
477.282	1	-4
477.453	1	8
477.623	1	10
477.793	1	13
477.964	1	8
478.134	1	13
478.305	1	1
478.475	1	9
478.645	1	4
478.816	1	0
478.986	1	10
479.156	1	8
479.327	1	2
479.497	1	5
479.667	1	16
479.838	1	3
480.008	1	12
480.179	1	5
480.349	1	-4
480.519	1	11
480.690	1	6
480.860	1	1
481.030	1	4
481.201	1	7
481.371	1	10
481.541	1	11
481.712	1	6
481.882	1	3
482.053	1	4
482.223	1	-1
482.393	1	-2
482.564	1	3
482.734	1	9
482.904	1	4
483.075	1	12
483.245	1	1
483.415	1	13
483.586	1	4
483.756	1	9
483.926	1	11
484.097	1	6
484.267	1	12
484.437	1	-4
484.608	1	11
484.778	1	8
484.948	1	1
485.119	1	8
485.289	1	16
485.459	1	8
485.630	1	4
485.800	1	7
485.970	1	11
486.141	1	1
486.311	1	6
486.481	1	11
486.652	1	14
486.822	1	8
486.992	1	3
487.163	1	6
487.333	1	1
487.503	1	0
487.674	1	14
487.844	1	6
488.014	1	8
488.185	1	-2
488.355	1	-7
488.525	1	8
488.696	1	-1
488.866	1	18
489.036	1	7
489.207	1	22
489.377	1	7
489.547	1	8
489.718	1	-3
489.888	1	5
490.058	1	0
490.228	1	-10
490.399	1	16
490.569	1	20
490.739	1	10
490.910	1	9
491.080	1	17
491.250	1	9
491.421	1	7
491.591	1	-1
491.761	1	5
491.932	1	14
492.102	1	5
492.272	1	17
492.442	1	10
492.613	1	7
492.783	1	4
492.953	1	10
493.124	1	2
493.294	1	14
493.464	1	3
493.635	1	9
493.805	1	18
493.975	1	11
494.145	1	7
494.316	1	25
494.486	1	14
494.656	1	10
494.827	1	4
494.997	1	-1
495.167	1	10
495.337	1	8
495.508	1	5
495.678	1	23
495.848	1	23
496.019	1	6
496.189	1	4
496.359	1	7
496.529	1	6
496.700	1	15
496.870	1	8
497.040	1	5
497.211	1	11
497.381	1	-10
497.551	1	16
497.721	1	4
497.892	1	15
498.062	1	7
498.232	1	22
498.403	1	4
498.573	1	6
498.743	1	18
498.913	1	9
499.084	1	3
499.254	1	6
499.424	1	17
499.594	1	4
499.765	1	17
499.935	1	-1
500.105	1	16
500.275	1	12
500.446	1	18
500.616	1	15
500.786	1	20
500.956	1	8
501.127	1	22
501.297	1	10
501.467	1	23
501.638	1	6
501.808	1	-6
501.978	1	13
502.148	1	16
502.319	1	12
502.489	1	7
502.659	1	14
502.829	1	12
503.000	1	18
503.170	1	10
503.340	1	9
503.510	1	12
503.681	1	11
503.851	1	-1
504.021	1	25
504.191	1	9
504.362	1	20
504.532	1	3
504.702	1	13
504.872	1	4
505.042	1	18
505.213	1	10
505.383	1	18
505.553	1	16
505.723	1	8
505.894	1	9
506.064	1	15
506.234	1	15
506.404	1	3
506.575	1	18
506.745	1	10
506.915	1	8
507.085	1	8
507.256	1	12
507.426	1	22
507.596	1	16
507.766	1	15
507.936	1	23
508.107	1	20
508.277	1	1
508.447	1	18
508.617	1	22
508.788	1	20
508.958	1	22
509.128	1	16
509.298	1	25
509.468	1	19
509.639	1	32
509.809	1	13
509.979	1	14
510.149	1	9
510.319	1	7
510.490	1	22
510.660	1	20
510.830	1	10
511.000	1	17
511.171	1	28
511.341	1	13
511.511	1	10
511.681	1	17
511.851	1	13
512.022	1	12
512.192	1	20
512.362	1	16
512.532	1	19
512.702	1	14
512.873	1	24
513.043	1	19
513.213	1	15
513.383	1	13
513.553	1	10
513.724	1	16
513.894	1	15
514.064	1	19
514.234	1	17
514.404	1	16
514.575	1	24
514.745	1	13
514.915	1	19
515.085	1	10
515.255	1	8
515.425	1	18
515.596	1	9
515.766	1	26
515.936	1	18
516.106	1	11
516.276	1	28
516.447	1	17
516.617	1	21
516.787	1	18
516.957	1	12
517.127	1	22
517.297	1	17
517.468	1	13
517.638	1	21
517.808	1	16
517.978	1	9
518.148	1	7
518.319	1	12
518.489	1	17
518.659	1	22
518.829	1	11
518.999	1	17
519.169	1	37
519.340	1	19
519.510	1	14
519.680	1	10
519.850	1	9
520.020	1	9
520.190	1	18
520.361	1	5
520.531	1	23
520.701	1	22
520.871	1	11
521.041	1	13
521.211	1	24
521.382	1	20
521.552	1	21
521.722	1	13
521.892	1	8
522.062	1	18
522.232	1	11
522.402	1	10
522.573	1	24
522.743	1	29
522.913	1	15
523.083	1	22
523.253	1	19
523.423	1	11
523.593	1	9
523.764	1	22
523.934	1	25
524.104	1	12
524.274	1	16
524.444	1	26
524.614	1	17
524.784	1	23
524.955	1	27
525.125	1	15
525.295	1	7
525.465	1	16
525.635	1	23
525.805	1	14
525.975	1	17
526.146	1	20
526.316	1	10
526.486	1	28
526.656	1	32
526.826	1	25
526.996	1	29
527.166	1	21
527.337	1	12
527.507	1	11
527.677	1	25
527.847	1	5
528.017	1	6
528.187	1	15
528.357	1	32
528.527	1	35
528.698	1	13
528.868	1	22
529.038	1	36
529.208	1	20
529.378	1	18
529.548	1	16
529.718	1	25
529.888	1	13
530.058	1	27
530.229	1	21
530.399	1	34
530.569	1	29
530.739	1	25
530.909	1	21
531.079	1	19
531.249	1	15
531.419	1	24
531.589	1	15
531.760	1	21
531.930	1	22
532.100	1	28
532.270	1	24
532.440	1	20
532.610	1	16
532.780	1	20
532.950	1	20
533.120	1	14
533.290	1	18
533.461	1	22
533.631	1	14
533.801	1	20
533.971	1	25
534.141	1	29
534.311	1	22
534.481	1	10
534.651	1	25
534.821	1	19
534.991	1	18
535.162	1	18
535.332	1	28
535.502	1	28
535.672	1	9
535.842	1	23
536.012	1	25
536.182	1	15
536.352	1	24
536.522	1	37
536.692	1	16
536.862	1	24
537.032	1	19
537.203	1	22
537.373	1	17
537.543	1	26
537.713	1	32
537.883	1	23
538.053	1	16
538.223	1	25
538.393	1	29
538.563	1	21
538.733	1	7
538.903	1	15
539.073	1	16
539.243	1	28
539.413	1	24
539.584	1	15
539.754	1	9
539.924	1	26
540.094	1	14
540.264	1	18
540.434	1	14
540.604	1	21
540.774	1	18
540.944	1	15
541.114	1	19
541.284	1	14
541.454	1	14
541.624	1	23
541.794	1	10
541.964	1	19
542.134	1	26
542.305	1	16
542.475	1	21
542.645	1	15
542.815	1	23
542.985	1	13
543.155	1	13
543.325	1	12
543.495	1	16
543.665	1	18
543.835	1	16
544.005	1	25
544.175	1	12
544.345	1	13
544.515	1	17
544.685	1	21
544.855	1	23
545.025	1	13
545.195	1	17
545.365	1	18
545.535	1	10
545.705	1	20
545.875	1	5
546.045	1	23
546.216	1	16
546.386	1	20
546.556	1	10
546.726	1	14
546.896	1	14
547.066	1	0
547.236	1	9
547.406	1	34
547.576	1	12
547.746	1	26
547.916	1	17
548.086	1	31
548.256	1	12
548.426	1	20
548.596	1	15
548.766	1	24
548.936	1	10
549.106	1	28
549.276	1	17
549.446	1	17
549.616	1	16
549.786	1	18
549.956	1	25
550.126	1	6
550.296	1	20
550.466	1	10
550.636	1	12
550.806	1	35
550.976	1	21
551.146	1	10
551.316	1	11
551.486	1	25
551.656	1	9
551.826	1	14
551.996	1	21
552.166	1	15
552.336	1	21
552.506	1	8
552.676	1	15
552.846	1	19
553.016	1	20
553.186	1	12
553.356	1	9
553.526	1	14
553.696	1	30
553.866	1	18
554.036	1	13
554.206	1	16
554.376	1	9
554.546	1	12
554.716	1	18
554.886	1	21
555.056	1	7
555.226	1	4
555.396	1	8
555.566	1	17
555.736	1	16
555.906	1	16
556.076	1	19
556.246	1	23
556.416	1	20
556.586	1	26
556.756	1	21
556.926	1	19
557.096	1	12
557.266	1	18
557.436	1	21
557.606	1	2
557.776	1	13
557.946	1	19
558.116	1	19
558.286	1	22
558.456	1	13
558.626	1	12
558.796	1	15
558.966	1	14
559.136	1	13
559.306	1	3
559.476	1	8
559.646	1	14
559.816	1	12
559.986	1	3
560.155	1	8
560.325	1	1
560.495	1	23
560.665	1	10
560.835	1	16
561.005	1	16
561.175	1	13
561.345	1	16
561.515	1	18
561.685	1	12
561.855	1	18
562.025	1	9
562.195	1	10
562.365	1	18
562.535	1	14
562.705	1	23
562.875	1	12
563.045	1	26
563.215	1	20
563.385	1	11
563.555	1	13
563.725	1	-1
563.895	1	11
564.064	1	14
564.234	1	4
564.404	1	8
564.574	1	13
564.744	1	9
564.914	1	-1
565.084	1	9
565.254	1	9
565.424	1	10
565.594	1	17
565.764	1	20
565.934	1	24
566.104	1	6
566.274	1	11
566.444	1	15
566.614	1	7
566.783	1	11
566.953	1	11
567.123	1	28
567.293	1	8
567.463	1	16
567.633	1	11
567.803	1	5
567.973	1	5
568.143	1	7
568.313	1	2
568.483	1	3
568.653	1	10
568.823	1	15
568.993	1	7
569.162	1	18
569.332	1	7
569.502	1	10
569.672	1	9
569.842	1	4
570.012	1	14
570.182	1	-3
570.352	1	18
570.522	1	8
570.692	1	16
570.862	1	15
571.031	1	11
571.201	1	23
571.371	1	5
571.541	1	-5
571.711	1	14
571.881	1	15
572.051	1	7
572.221	1	24
572.391	1	9
572.561	1	5
572.731	1	8
572.900	1	22
573.070	1	8
573.240	1	5
573.410	1	8
573.580	1	8
573.750	1	15
573.920	1	12
574.090	1	18
574.260	1	-2
574.430	1	0
574.599	1	8
574.769	1	10
574.939	1	10
575.109	1	8
575.279	1	17
575.449	1	10
575.619	1	11
575.789	1	22
575.959	1	5
576.128	1	12
576.298	1	2
576.468	1	2
576.638	1	5
576.808	1	2
576.978	1	3
577.148	1	16
577.318	1	16
577.487	1	17
577.657	1	-2
577.827	1	28
577.997	1	0
578.167	1	21
578.337	1	13
578.507	1	14
578.677	1	4
578.846	1	8
579.016	1	15
579.186	1	10
579.356	1	-2
579.526	1	5
579.696	1	10
579.866	1	20
580.036	1	7
580.205	1	11
580.375	1	6
580.545	1	7
580.715	1	15
580.885	1	7
581.055	1	14
581.225	1	3
581.394	1	9
581.564	1	13
581.734	1	11
581.904	1	10
582.074	1	8
582.244	1	5
582.414	1	13
582.583	1	-2
582.753	1	7
582.923	1	19
583.093	1	1
583.263	1	9
583.433	1	-5
583.603	1	9
583.772	1	9
583.942	1	20
584.112	1	10
584.282	1	12
584.452	1	7
584.622	1	10
584.791	1	16
584.961	1	9
585.131	1	-4
585.301	1	10
585.471	1	0
585.641	1	18
585.811	1	1
585.980	1	7
586.150	1	8
586.320	1	-3
586.490	1	-3
586.660	1	7
586.830	1	0
586.999	1	13
587.169	1	7
587.339	1	16
587.509	1	9
587.679	1	9
587.849	1	9
588.018	1	9
588.188	1	9
588.358	1	12
588.528	1	9
588.698	1	2
588.867	1	14
589.037	1	15
589.207	1	-6
589.377	1	17
589.547	1	0
589.717	1	6
589.886	1	6
590.056	1	9
590.226	1	11
590.396	1	8
590.566	1	6
590.735	1	21
590.905	1	6
591.075	1	-4
591.245	1	1
591.415	1	5
591.585	1	7
591.754	1	12
591.924	1	4
592.094	1	13
592.264	1	8
592.434	1	10
592.603	1	0
592.773	1	9
592.943	1	4
593.113	1	0
593.283	1	6
593.452	1	-6
593.622	1	2
593.792	1	16
593.962	1	12
594.132	1	10
594.301	1	15
594.471	1	5
594.641	1	6
594.811	1	5
594.981	1	8
595.150	1	-5
595.320	1	12
595.490	1	-2
595.660	1	2
595.829	1	6
595.999	1	7
596.169	1	10
596.339	1	14
596.509	1	12
596.678	1	7
596.848	1	7
597.018	1	9
597.188	1	12
597.358	1	12
597.527	1	-6
597.697	1	-6
597.867	1	4
598.037	1	3
598.206	1	-6
598.376	1	11
598.546	1	8
598.716	1	1
598.885	1	7
599.055	1	6
599.225	1	6
599.395	1	20
599.565	1	6
599.734	1	10
599.904	1	0
600.074	1	-1
600.244	1	12
600.413	1	1
600.583	1	3
600.753	1	14
600.923	1	26
601.092	1	-8
601.262	1	9
601.432	1	2
601.602	1	13
601.771	1	14
601.941	1	10
602.111	1	4
602.281	1	11
602.451	1	12
602.620	1	13
602.790	1	-1
602.960	1	3
603.130	1	13
603.299	1	7
603.469	1	6
603.639	1	16
603.809	1	5
603.978	1	6
604.148	1	6
604.318	1	4
604.487	1	11
604.657	1	10
604.827	1	-3
604.997	1	1
605.166	1	-2
605.336	1	1
605.506	1	16
605.676	1	8
605.845	1	8
606.015	1	2
606.185	1	9
606.355	1	17
606.524	1	-1
606.694	1	19
606.864	1	-1
607.034	1	5
607.203	1	13
607.373	1	4
607.543	1	-2
607.712	1	3
607.882	1	0
608.052	1	7
608.222	1	4
608.391	1	2
608.561	1	15
608.731	1	11
608.901	1	3
609.070	1	14
609.240	1	5
609.410	1	10
609.579	1	11
609.749	1	9
609.919	1	-2
610.089	1	-1
610.258	1	6
610.428	1	3
610.598	1	4
610.767	1	2
610.937	1	2
611.107	1	13
611.277	1	16
611.446	1	10
611.616	1	-1
611.786	1	16
611.955	1	11
612.125	1	-2
612.295	1	11
612.465	1	2
612.634	1	-3
612.804	1	7
612.974	1	6
613.143	1	1
613.313	1	10
613.483	1	18
613.652	1	5
613.822	1	8
613.992	1	5
614.162	1	11
614.331	1	6
614.501	1	9
614.671	1	4
614.840	1	7
615.010	1	5
615.180	1	13
615.349	1	4
615.519	1	11
615.689	1	1
615.858	1	14
616.028	1	2
616.198	1	11
616.368	1	-3
616.537	1	2
616.707	1	11
616.877	1	0
617.046	1	9
617.216	1	8
617.386	1	4
617.555	1	-1
617.725	1	8
617.895	1	-1
618.064	1	2
618.234	1	9
618.404	1	12
618.573	1	3
618.743	1	6
618.913	1	3
619.082	1	5
619.252	1	11
619.422	1	-1
619.591	1	8
619.761	1	11
619.931	1	11
620.100	1	1
620.270	1	7
620.440	1	6
620.609	1	3
620.779	1	-2
620.949	1	7
621.118	1	3
621.288	1	8
621.458	1	10
621.627	1	-2
621.797	1	11
621.967	1	-1
622.136	1	11
622.306	1	14
622.476	1	9
622.645	1	11
622.815	1	5
622.985	1	5
623.154	1	5
623.324	1	21
623.494	1	7
623.663	1	4
623.833	1	3
624.002	1	0
624.172	1	19
624.342	1	-2
624.511	1	9
624.681	1	3
624.851	1	-2
625.020	1	4
625.190	1	8
625.360	1	-4
625.529	1	11
625.699	1	5
625.869	1	21
626.038	1	-1
626.208	1	-2
626.377	1	23
626.547	1	7
626.717	1	2
626.886	1	0
627.056	1	1
627.226	1	9
627.395	1	10
627.565	1	9
627.735	1	18
627.904	1	4
628.074	1	15
628.243	1	-7
628.413	1	10
628.583	1	8
628.752	1	14
628.922	1	-2
629.091	1	3
629.261	1	7
629.431	1	-14
629.600	1	5
629.770	1	2
629.940	1	6
630.109	1	-3
630.279	1	-2
630.448	1	6
630.618	1	5
630.788	1	6
630.957	1	-2
631.127	1	20
631.297	1	3
631.466	1	6
631.636	1	9
631.805	1	2
631.975	1	7
632.145	1	-12
632.314	1	12
632.484	1	-3
632.653	1	-14
632.823	1	14
632.993	1	11
633.162	1	2
633.332	1	12
633.501	1	8
633.671	1	4
633.841	1	1
634.010	1	3
634.180	1	5
634.349	1	8
634.519	1	5
634.689	1	10
634.858	1	12
635.028	1	15
635.197	1	-3
635.367	1	2
635.537	1	4
635.706	1	2
635.876	1	3
636.045	1	10
636.215	1	6
636.384	1	14
636.554	1	21
636.724	1	11
636.893	1	7
637.063	1	10
637.232	1	12
637.402	1	10
637.572	1	-2
637.741	1	5
637.911	1	2
638.080	1	14
638.250	1	7
638.419	1	15
638.589	1	18
638.759	1	11
638.928	1	0
639.098	1	3
639.267	1	-1
639.437	1	-1
639.606	1	11
639.776	1	8
639.946	1	8
640.115	1	8
640.285	1	1
640.454	1	17
640.624	1	4
640.793	1	14
640.963	1	-6
641.132	1	14
641.302	1	6
641.472	1	3
641.641	1	1
641.811	1	3
641.980	1	2
642.150	1	10
642.319	1	6
642.489	1	-4
642.659	1	-1
642.828	1	12
642.998	1	-1
643.167	1	11
643.337	1	1
643.506	1	-4
643.676	1	1
643.845	1	14
644.015	1	11
644.184	1	14
644.354	1	-1
644.524	1	6
644.693	1	5
644.863	1	-2
645.032	1	-5
645.202	1	5
645.371	1	6
645.541	1	-1
645.710	1	4
645.880	1	4
646.049	1	5
646.219	1	6
646.388	1	6
646.558	1	4
646.728	1	5
646.897	1	-3
647.067	1	1
647.236	1	11
647.406	1	2
647.575	1	2
647.745	1	11
647.914	1	-3
648.084	1	1
648.253	1	11
648.423	1	-4
648.592	1	1
648.762	1	3
648.931	1	15
649.101	1	6
649.270	1	5
649.440	1	12
649.610	1	21
649.779	1	-5
649.949	1	3
650.118	1	-5
650.288	1	0
650.457	1	-8
650.627	1	2
650.796	1	10
650.966	1	6
651.135	1	3
651.305	1	6
651.474	1	11
651.644	1	-2
651.813	1	9
651.983	1	3
652.152	1	-4
652.322	1	7
652.491	1	8
652.661	1	1
652.830	1	12
653.000	1	-5
653.169	1	14
653.339	1	0
653.508	1	2
653.678	1	0
653.847	1	6
654.017	1	5
654.186	1	9
654.356	1	11
654.525	1	5
654.695	1	18
654.864	1	11
655.034	1	4
655.203	1	2
655.373	1	8
655.542	1	-1
655.712	1	-7
655.881	1	11
656.051	1	18
656.220	1	10
656.390	1	-5
656.559	1	-3
656.729	1	8
656.898	1	2
657.068	1	8
657.237	1	7
657.406	1	7
657.576	1	-1
657.745	1	-2
657.915	1	10
658.084	1	15
658.254	1	13
658.423	1	-11
658.593	1	-1
658.762	1	4
658.932	1	1
659.101	1	1
659.271	1	9
659.440	1	19
659.610	1	0
659.779	1	5
659.949	1	-9
660.118	1	10
660.288	1	-1
660.457	1	1
660.626	1	7
660.796	1	0
660.965	1	7
661.135	1	8
661.304	1	17
661.474	1	6
661.643	1	-2
661.813	1	7
661.982	1	10
662.152	1	-7
662.321	1	4
662.491	1	6
662.660	1	4
662.829	1	5
662.999	1	0
663.168	1	1
663.338	1	-7
663.507	1	-3
663.677	1	-2
663.846	1	12
664.016	1	1
664.185	1	0
664.354	1	7
664.524	1	-5
664.693	1	9
664.863	1	3
665.032	1	11
665.202	1	-8
665.371	1	18
665.541	1	2
665.710	1	0
665.879	1	11
666.049	1	4
666.218	1	-9
666.388	1	-2
666.557	1	0
666.727	1	-13
666.896	1	0
667.065	1	7
667.235	1	6
667.404	1	-3
667.574	1	14
667.743	1	12
667.913	1	3
668.082	1	7
668.251	1	5
668.421	1	11
668.590	1	0
668.760	1	1
668.929	1	5
669.099	1	-5
669.268	1	4
669.437	1	8
669.607	1	-10
669.776	1	7
669.946	1	11
670.115	1	7
670.285	1	3
670.454	1	12
670.623	1	6
670.793	1	0
670.962	1	6
671.132	1	8
671.301	1	10
671.470	1	-1
671.640	1	-8
671.809	1	-2
671.979	1	16
672.148	1	14
672.317	1	6
672.487	1	1
672.656	1	2
672.826	1	-9
672.995	1	12
673.164	1	6
673.334	1	11
673.503	1	10
673.673	1	19
673.842	1	2
674.011	1	10
674.181	1	4
674.350	1	-11
674.520	1	-2
674.689	1	0
674.858	1	2
675.028	1	7
675.197	1	2
675.367	1	9
675.536	1	5
675.705	1	3
675.875	1	8
676.044	1	-2
676.214	1	0
676.383	1	4
676.552	1	3
676.722	1	1
676.891	1	-6
677.060	1	2
677.230	1	6
677.399	1	3
677.569	1	-1
677.738	1	-5
677.907	1	-8
678.077	1	2
678.246	1	6
678.416	1	-1
678.585	1	17
678.754	1	-1
678.924	1	1
679.093	1	7
679.262	1	5
679.432	1	-6
679.601	1	-4
679.771	1	3
679.940	1	-2
680.109	1	15
680.279	1	-1
680.448	1	8
680.617	1	1
680.787	1	19
680.956	1	4
681.125	1	10
681.295	1	11
681.464	1	3
681.634	1	12
681.803	1	-13
681.972	1	1
682.142	1	12
682.311	1	3
682.480	1	4
682.650	1	7
682.819	1	9
682.988	1	1
683.158	1	14
683.327	1	5
683.496	1	-4
683.666	1	4
683.835	1	10
684.004	1	13
684.174	1	3
684.343	1	-2
684.512	1	11
684.682	1	14
684.851	1	-6
685.021	1	12
685.190	1	5
685.359	1	-13
685.529	1	3
685.698	1	5
685.867	1	-3
686.037	1	8
686.206	1	7
686.375	1	12
686.545	1	4
686.714	1	-3
686.883	1	6
687.053	1	1
687.222	1	-2
687.391	1	-4
687.561	1	6
687.730	1	5
687.899	1	-2
688.069	1	5
688.238	1	4
688.407	1	10
688.577	1	0
688.746	1	10
