340.368	1	-1
340.539	1	-1
340.710	1	-5
340.881	1	-8
341.052	1	0
341.223	1	1
341.394	1	0
341.565	1	-8
341.737	1	-3
341.908	1	-9
342.079	1	-7
342.250	1	3
342.421	1	-7
342.592	1	-8
342.763	1	-6
342.934	1	-2
343.105	1	12
343.276	1	-6
343.447	1	6
343.618	1	-6
343.789	1	-6
343.960	1	-10
344.131	1	-6
344.302	1	-4
344.473	1	-12
344.644	1	-1
344.815	1	5
344.986	1	13
345.157	1	4
345.328	1	-8
345.499	1	1
345.670	1	5
345.841	1	-6
346.012	1	8
346.183	1	-2
346.354	1	0
346.526	1	8
346.697	1	-2
346.868	1	3
347.039	1	-5
347.210	1	0
347.381	1	-2
347.552	1	-4
347.723	1	3
347.894	1	4
348.065	1	-15
348.236	1	2
348.407	1	-5
348.578	1	4
348.749	1	5
348.920	1	3
349.091	1	4
349.262	1	-5
349.433	1	-4
349.604	1	10
349.775	1	2
349.946	1	4
350.117	1	8
350.288	1	-4
350.459	1	0
350.630	1	-15
350.801	1	-6
350.972	1	-8
351.143	1	-7
351.314	1	2
351.485	1	0
351.656	1	-4
351.827	1	-7
351.998	1	-3
352.169	1	7
352.340	1	-8
352.511	1	-10
352.682	1	-7
352.853	1	-11
353.024	1	-3
353.195	1	-5
353.366	1	4
353.537	1	0
353.708	1	6
353.879	1	7
354.050	1	4
354.221	1	-2
354.392	1	13
354.563	1	4
354.734	1	1
354.905	1	2
355.076	1	5
355.247	1	-8
355.418	1	-15
355.589	1	-2
355.760	1	-3
355.931	1	-1
356.102	1	-5
356.273	1	-1
356.444	1	3
356.615	1	1
356.785	1	12
356.956	1	7
357.127	1	-3
357.298	1	-3
357.469	1	-4
357.640	1	-1
357.811	1	12
357.982	1	-8
358.153	1	-6
358.324	1	-5
358.495	1	5
358.666	1	-1
358.837	1	4
359.008	1	-4
359.179	1	-5
359.350	1	5
359.521	1	-2
359.692	1	3
359.863	1	-8
360.034	1	-7
360.205	1	-4
360.376	1	-1
360.547	1	3
360.718	1	-11
360.889	1	-1
361.060	1	13
361.231	1	-4
361.401	1	2
361.572	1	4
361.743	1	3
361.914	1	-1
362.085	1	1
362.256	1	7
362.427	1	-10
362.598	1	-6
362.769	1	7
362.940	1	5
363.111	1	7
363.282	1	-5
363.453	1	3
363.624	1	7
363.795	1	-1
363.966	1	9
364.137	1	-5
364.308	1	-5
364.478	1	11
364.649	1	-1
364.820	1	-13
364.991	1	-1
365.162	1	-8
365.333	1	12
365.504	1	-10
365.675	1	-1
365.846	1	-6
366.017	1	5
366.188	1	-12
366.359	1	3
366.530	1	7
366.701	1	-3
366.871	1	11
367.042	1	4
367.213	1	0
367.384	1	10
367.555	1	-4
367.726	1	4
367.897	1	0
368.068	1	-3
368.239	1	1
368.410	1	4
368.581	1	-1
368.752	1	-6
368.923	1	-9
369.093	1	6
369.264	1	-2
369.435	1	1
369.606	1	-12
369.777	1	-9
369.948	1	0
370.119	1	11
370.290	1	-4
370.461	1	3
370.632	1	7
370.803	1	-5
370.973	1	14
371.144	1	6
371.315	1	-2
371.486	1	13
371.657	1	-4
371.828	1	1
371.999	1	-8
372.170	1	6
372.341	1	2
372.512	1	0
372.682	1	-3
372.853	1	7
373.024	1	5
373.195	1	-12
373.366	1	-3
373.537	1	1
373.708	1	-1
373.879	1	2
374.050	1	3
374.220	1	3
374.391	1	5
374.562	1	-2
374.733	1	11
374.904	1	0
375.075	1	6
375.246	1	-7
375.417	1	0
375.588	1	-7
375.758	1	3
375.929	1	6
376.100	1	8
376.271	1	-4
376.442	1	0
376.613	1	5
376.784	1	-8
376.955	1	1
377.125	1	0
377.296	1	7
377.467	1	0
377.638	1	-7
377.809	1	12
377.980	1	10
378.151	1	-16
378.321	1	-1
378.492	1	1
378.663	1	-8
378.834	1	5
379.005	1	10
379.176	1	8
379.347	1	6
379.518	1	-5
379.688	1	-1
379.859	1	-5
380.030	1	-10
380.201	1	-6
380.372	1	-3
380.543	1	6
380.714	1	-4
380.884	1	-2
381.055	1	-5
381.226	1	0
381.397	1	-7
381.568	1	-8
381.739	1	7
381.910	1	-1
382.080	1	-11
382.251	1	-4
382.422	1	8
382.593	1	1
382.764	1	7
382.935	1	0
383.105	1	3
383.276	1	-1
383.447	1	10
383.618	1	6
383.789	1	7
383.960	1	5
384.130	1	-8
384.301	1	0
384.472	1	-4
384.643	1	-1
384.814	1	-3
384.985	1	3
385.156	1	16
385.326	1	4
385.497	1	6
385.668	1	-2
385.839	1	3
386.010	1	6
386.180	1	1
386.351	1	-4
386.522	1	0
386.693	1	-6
386.864	1	-4
387.035	1	-6
387.205	1	0
387.376	1	7
387.547	1	-8
387.718	1	1
387.889	1	9
388.060	1	-2
388.230	1	5
388.401	1	10
388.572	1	-1
388.743	1	-8
388.914	1	3
389.084	1	5
389.255	1	4
389.426	1	-1
389.597	1	-3
389.768	1	-1
389.939	1	0
390.109	1	-2
390.280	1	13
390.451	1	12
390.622	1	-11
390.793	1	-2
390.963	1	7
391.134	1	-1
391.305	1	4
391.476	1	8
391.647	1	8
391.817	1	-6
391.988	1	-1
392.159	1	3
392.330	1	7
392.501	1	-2
392.671	1	-3
392.842	1	12
393.013	1	9
393.184	1	8
393.355	1	15
393.525	1	9
393.696	1	4
393.867	1	4
394.038	1	2
394.208	1	0
394.379	1	-6
394.550	1	11
394.721	1	-1
394.892	1	-2
395.062	1	-3
395.233	1	6
395.404	1	10
395.575	1	2
395.746	1	-3
395.916	1	2
396.087	1	1
396.258	1	-2
396.429	1	8
396.599	1	4
396.770	1	8
396.941	1	19
397.112	1	1
397.283	1	2
397.453	1	-10
397.624	1	10
397.795	1	3
397.966	1	5
398.136	1	5
398.307	1	-3
398.478	1	7
398.649	1	7
398.819	1	9
398.990	1	10
399.161	1	2
399.332	1	8
399.503	1	1
399.673	1	-1
399.844	1	5
400.015	1	3
400.186	1	11
400.356	1	-8
400.527	1	0
400.698	1	4
400.869	1	5
401.039	1	-6
401.210	1	-10
401.381	1	-2
401.552	1	16
401.722	1	5
401.893	1	0
402.064	1	7
402.235	1	10
402.405	1	-5
402.576	1	9
402.747	1	-1
402.918	1	-10
403.088	1	-11
403.259	1	-11
403.430	1	-8
403.601	1	-1
403.771	1	0
403.942	1	2
404.113	1	7
404.284	1	0
404.454	1	8
404.625	1	-1
404.796	1	0
404.967	1	1
405.137	1	6
405.308	1	3
405.479	1	8
405.649	1	0
405.820	1	3
405.991	1	1
406.162	1	-3
406.332	1	-1
406.503	1	-7
406.674	1	3
406.845	1	6
407.015	1	-9
407.186	1	17
407.357	1	7
407.527	1	-3
407.698	1	-15
407.869	1	-1
408.040	1	-7
408.210	1	-5
408.381	1	0
408.552	1	11
408.722	1	-1
408.893	1	4
409.064	1	-4
409.235	1	6
409.405	1	3
409.576	1	3
409.747	1	-3
409.917	1	2
410.088	1	4
410.259	1	1
410.430	1	7
410.600	1	5
410.771	1	7
410.942	1	3
411.112	1	0
411.283	1	-11
411.454	1	10
411.625	1	-4
411.795	1	-2
411.966	1	4
412.137	1	8
412.307	1	0
412.478	1	10
412.649	1	-5
412.819	1	-1
412.990	1	5
413.161	1	-10
413.332	1	-5
413.502	1	-3
413.673	1	5
413.844	1	-4
414.014	1	-16
414.185	1	5
414.356	1	-9
414.526	1	-3
414.697	1	13
414.868	1	4
415.038	1	-2
415.209	1	-9
415.380	1	-4
415.550	1	-4
415.721	1	-2
415.892	1	-1
416.063	1	15
416.233	1	2
416.404	1	-4
416.575	1	-3
416.745	1	1
416.916	1	-4
417.087	1	-12
417.257	1	2
417.428	1	-5
417.599	1	2
417.769	1	-9
417.940	1	0
418.111	1	7
418.281	1	4
418.452	1	-3
418.623	1	-6
418.793	1	5
418.964	1	-1
419.135	1	8
419.305	1	6
419.476	1	-1
419.647	1	7
419.817	1	0
419.988	1	-8
420.159	1	-5
420.329	1	-1
420.500	1	-2
420.671	1	2
420.841	1	5
421.012	1	13
421.183	1	8
421.353	1	5
421.524	1	-2
421.695	1	-2
421.865	1	-9
422.036	1	-3
422.206	1	4
422.377	1	3
422.548	1	-3
422.718	1	3
422.889	1	7
423.060	1	-10
423.230	1	5
423.401	1	1
423.572	1	-1
423.742	1	-3
423.913	1	9
424.084	1	5
424.254	1	7
424.425	1	8
424.595	1	-5
424.766	1	-1
424.937	1	-7
425.107	1	0
425.278	1	-14
425.449	1	0
425.619	1	0
425.790	1	-5
425.961	1	-8
426.131	1	5
426.302	1	-7
426.472	1	4
426.643	1	0
426.814	1	7
426.984	1	5
427.155	1	0
427.326	1	-2
427.496	1	3
427.667	1	5
427.837	1	-5
428.008	1	1
428.179	1	-7
428.349	1	-8
428.520	1	-10
428.691	1	-1
428.861	1	1
429.032	1	0
429.202	1	3
429.373	1	-8
429.544	1	3
429.714	1	5
429.885	1	-4
430.055	1	-5
430.226	1	-10
430.397	1	3
430.567	1	15
430.738	1	4
430.909	1	-1
431.079	1	8
431.250	1	-9
431.420	1	-1
431.591	1	0
431.762	1	-1
431.932	1	5
432.103	1	-4
432.273	1	0
432.444	1	13
432.615	1	-4
432.785	1	1
432.956	1	-2
433.126	1	4
433.297	1	2
433.468	1	-5
433.638	1	-2
433.809	1	0
433.979	1	2
434.150	1	-9
434.320	1	-7
434.491	1	4
434.662	1	-6
434.832	1	-2
435.003	1	11
435.173	1	-6
435.344	1	3
435.515	1	-6
435.685	1	6
435.856	1	0
436.026	1	0
436.197	1	-7
436.368	1	6
436.538	1	7
436.709	1	-7
436.879	1	1
437.050	1	4
437.220	1	1
437.391	1	1
437.562	1	10
437.732	1	1
437.903	1	-3
438.073	1	11
438.244	1	-8
438.414	1	3
438.585	1	5
438.756	1	-5
438.926	1	6
439.097	1	4
439.267	1	7
439.438	1	6
439.608	1	5
439.779	1	-2
439.949	1	-4
440.120	1	2
440.291	1	-5
440.461	1	-3
440.632	1	4
440.802	1	-1
440.973	1	4
441.143	1	4
441.314	1	4
441.485	1	-1
441.655	1	13
441.826	1	5
441.996	1	5
442.167	1	0
442.337	1	-8
442.508	1	1
442.678	1	7
442.849	1	6
443.019	1	6
443.190	1	-18
443.361	1	9
443.531	1	2
443.702	1	-1
443.872	1	7
444.043	1	3
444.213	1	-5
444.384	1	5
444.554	1	2
444.725	1	-3
444.895	1	4
445.066	1	-1
445.237	1	-13
445.407	1	-5
445.578	1	14
445.748	1	-5
445.919	1	-7
446.089	1	8
446.260	1	-5
446.430	1	-6
446.601	1	-1
446.771	1	0
446.942	1	1
447.112	1	-5
447.283	1	-2
447.453	1	-7
447.624	1	5
447.794	1	-2
447.965	1	-8
448.135	1	2
448.306	1	-3
448.477	1	-3
448.647	1	7
448.818	1	9
448.988	1	-9
449.159	1	-1
449.329	1	8
449.500	1	10
449.670	1	10
449.841	1	2
450.011	1	2
450.182	1	-4
450.352	1	5
450.523	1	5
450.693	1	-1
450.864	1	-3
451.034	1	13
451.205	1	3
451.375	1	3
451.546	1	-4
451.716	1	10
451.887	1	-8
452.057	1	7
452.228	1	-6
452.398	1	-3
452.569	1	-2
452.739	1	-5
452.910	1	0
453.080	1	7
453.251	1	-1
453.421	1	-2
453.592	1	-3
453.762	1	2
453.933	1	3
454.103	1	-5
454.274	1	-5
454.444	1	-7
454.615	1	6
454.785	1	-6
454.956	1	4
455.126	1	-2
455.297	1	-4
455.467	1	-3
455.638	1	6
455.808	1	-10
455.979	1	8
456.149	1	-14
456.320	1	9
456.490	1	1
456.661	1	-6
456.831	1	9
457.001	1	2
457.172	1	1
457.342	1	-5
457.513	1	6
457.683	1	7
457.854	1	2
458.024	1	0
458.195	1	3
458.365	1	6
458.536	1	8
458.706	1	8
458.877	1	0
459.047	1	1
459.218	1	5
459.388	1	14
459.559	1	-2
459.729	1	1
459.899	1	17
460.070	1	3
460.240	1	6
460.411	1	5
460.581	1	2
460.752	1	7
460.922	1	-9
461.093	1	3
461.263	1	3
461.434	1	5
461.604	1	-6
461.775	1	6
461.945	1	9
462.115	1	-4
462.286	1	9
462.456	1	-15
462.627	1	-1
462.797	1	-4
462.968	1	-2
463.138	1	0
463.309	1	-2
463.479	1	3
463.649	1	-2
463.820	1	-1
463.990	1	2
464.161	1	3
464.331	1	6
464.502	1	1
464.672	1	-1
464.843	1	7
465.013	1	-14
465.183	1	-5
465.354	1	1
465.524	1	15
465.695	1	8
465.865	1	-4
466.036	1	0
466.206	1	2
466.376	1	-9
466.547	1	6
466.717	1	-7
466.888	1	-2
467.058	1	10
467.229	1	1
467.399	1	0
467.569	1	6
467.740	1	-7
467.910	1	0
468.081	1	4
468.251	1	-2
468.422	1	7
468.592	1	5
468.762	1	-12
468.933	1	5
469.103	1	-11
469.274	1	0
469.444	1	-4
469.614	1	-1
469.785	1	0
469.955	1	-1
470.126	1	-2
470.296	1	3
470.467	1	-9
470.637	1	18
470.807	1	-1
470.978	1	0
471.148	1	-8
471.319	1	-2
471.489	1	-7
471.659	1	4
471.830	1	4
472.000	1	4
472.171	1	-1
472.341	1	5
472.511	1	6
472.682	1	2
472.852	1	-7
473.023	1	-12
473.193	1	-5
473.363	1	-8
473.534	1	0
473.704	1	10
473.875	1	-6
474.045	1	-1
474.215	1	-8
474.386	1	6
474.556	1	-11
474.727	1	-5
474.897	1	1
475.067	1	0
475.238	1	-3
475.408	1	3
475.578	1	7
475.749	1	-11
475.919	1	6
476.090	1	1
476.260	1	2
476.430	1	-1
476.601	1	-9
476.771	1	4
476.942	1	-3
477.112	1	-5
477.282	1	-9
477.453	1	-9
477.623	1	7
477.793	1	6
477.964	1	15
478.134	1	10
478.305	1	6
478.475	1	-6
478.645	1	-4
478.816	1	-4
478.986	1	-8
479.156	1	-4
479.327	1	-2
479.497	1	-4
479.667	1	4
479.838	1	0
480.008	1	8
480.179	1	2
480.349	1	-3
480.519	1	1
480.690	1	-3
480.860	1	0
481.030	1	-5
481.201	1	3
481.371	1	15
481.541	1	1
481.712	1	-1
481.882	1	-3
482.053	1	4
482.223	1	-11
482.393	1	-12
482.564	1	-9
482.734	1	-3
482.904	1	5
483.075	1	2
483.245	1	3
483.415	1	3
483.586	1	-11
483.756	1	10
483.926	1	9
484.097	1	1
484.267	1	2
484.437	1	-2
484.608	1	12
484.778	1	6
484.948	1	-9
485.119	1	8
485.289	1	-2
485.459	1	2
485.630	1	-8
485.800	1	-9
485.970	1	-1
486.141	1	-6
486.311	1	2
486.481	1	2
486.652	1	9
486.822	1	10
486.992	1	-8
487.163	1	-4
487.333	1	0
487.503	1	-11
487.674	1	14
487.844	1	4
488.014	1	6
488.185	1	-8
488.355	1	3
488.525	1	-8
488.696	1	-9
488.866	1	4
489.036	1	2
489.207	1	7
489.377	1	-4
489.547	1	0
489.718	1	-1
489.888	1	-2
490.058	1	-4
490.228	1	-11
490.399	1	5
490.569	1	5
490.739	1	9
490.910	1	-5
491.080	1	0
491.250	1	-3
491.421	1	-3
491.591	1	3
491.761	1	-16
491.932	1	4
492.102	1	2
492.272	1	5
492.442	1	7
492.613	1	4
492.783	1	-13
492.953	1	7
493.124	1	-2
493.294	1	-3
493.464	1	-7
493.635	1	6
493.805	1	12
493.975	1	-4
494.145	1	9
494.316	1	9
494.486	1	4
494.656	1	4
494.827	1	-4
494.997	1	-9
495.167	1	-1
495.337	1	-5
495.508	1	-7
495.678	1	10
495.848	1	8
496.019	1	-11
496.189	1	-4
496.359	1	3
496.529	1	-5
496.700	1	5
496.870	1	2
497.040	1	6
497.211	1	12
497.381	1	-14
497.551	1	5
497.721	1	-5
497.892	1	8
498.062	1	-5
498.232	1	7
498.403	1	2
498.573	1	1
498.743	1	0
498.913	1	3
499.084	1	-9
499.254	1	7
499.424	1	10
499.594	1	-4
499.765	1	1
499.935	1	-13
500.105	1	2
500.275	1	5
500.446	1	6
500.616	1	3
500.786	1	-3
500.956	1	0
501.127	1	7
501.297	1	3
501.467	1	-4
501.638	1	2
501.808	1	-7
501.978	1	6
502.148	1	5
502.319	1	12
502.489	1	4
502.659	1	5
502.829	1	0
503.000	1	5
503.170	1	4
503.340	1	1
503.510	1	-4
503.681	1	-2
503.851	1	-16
504.021	1	15
504.191	1	5
504.362	1	5
504.532	1	-14
504.702	1	6
504.872	1	-6
505.042	1	7
505.213	1	4
505.383	1	-3
505.553	1	0
505.723	1	10
505.894	1	0
506.064	1	5
506.234	1	3
506.404	1	-7
506.575	1	7
506.745	1	-11
506.915	1	-6
507.085	1	-3
507.256	1	0
507.426	1	6
507.596	1	7
507.766	1	11
507.936	1	10
508.107	1	-6
508.277	1	4
508.447	1	11
508.617	1	13
508.788	1	0
508.958	1	9
509.128	1	2
509.298	1	8
509.468	1	2
509.639	1	12
509.809	1	8
509.979	1	-2
510.149	1	0
510.319	1	2
510.490	1	3
510.660	1	0
510.830	1	0
511.000	1	5
511.171	1	2
511.341	1	-5
511.511	1	-2
511.681	1	12
511.851	1	1
512.022	1	3
512.192	1	9
512.362	1	4
512.532	1	-11
512.702	1	-12
512.873	1	10
513.043	1	-5
513.213	1	0
513.383	1	-14
513.553	1	-4
513.724	1	9
513.894	1	-4
514.064	1	3
514.234	1	4
514.404	1	-4
514.575	1	9
514.745	1	6
514.915	1	3
515.085	1	0
515.255	1	-8
515.425	1	-11
515.596	1	-2
515.766	1	-1
515.936	1	11
516.106	1	4
516.276	1	-4
516.447	1	10
516.617	1	3
516.787	1	1
516.957	1	-3
517.127	1	6
517.297	1	4
517.468	1	5
517.638	1	6
517.808	1	3
517.978	1	-8
518.148	1	8
518.319	1	1
518.489	1	6
518.659	1	-3
518.829	1	-2
518.999	1	-8
519.169	1	-2
519.340	1	8
519.510	1	-1
519.680	1	1
519.850	1	-12
520.020	1	-10
520.190	1	0
520.361	1	-3
520.531	1	6
520.701	1	3
520.871	1	-3
521.041	1	2
521.211	1	-3
521.382	1	5
521.552	1	3
521.722	1	8
521.892	1	-5
522.062	1	-8
522.232	1	-8
522.402	1	-5
522.573	1	10
522.743	1	-1
522.913	1	3
523.083	1	6
523.253	1	0
523.423	1	-5
523.593	1	-15
523.764	1	7
523.934	1	-4
524.104	1	-14
524.274	1	-3
524.444	1	14
524.614	1	0
524.784	1	10
524.955	1	4
525.125	1	-4
525.295	1	0
525.465	1	3
525.635	1	13
525.805	1	2
525.975	1	-3
526.146	1	-1
526.316	1	-6
526.486	1	2
526.656	1	15
526.826	1	5
526.996	1	9
527.166	1	-4
527.337	1	6
527.507	1	-7
527.677	1	10
527.847	1	0
528.017	1	6
528.187	1	2
528.357	1	11
528.527	1	3
528.698	1	2
528.868	1	-6
529.038	1	6
529.208	1	-3
529.378	1	4
529.548	1	9
529.718	1	5
529.888	1	6
530.058	1	-3
530.229	1	10
530.399	1	9
530.569	1	1
530.739	1	-2
530.909	1	9
531.079	1	4
531.249	1	1
531.419	1	10
531.589	1	2
531.760	1	5
531.930	1	5
532.100	1	6
532.270	1	6
532.440	1	-7
532.610	1	13
532.780	1	-5
532.950	1	1
533.120	1	-1
533.290	1	-3
533.461	1	10
533.631	1	2
533.801	1	-5
533.971	1	1
534.141	1	4
534.311	1	0
534.481	1	-4
534.651	1	0
534.821	1	8
534.991	1	1
535.162	1	2
535.332	1	7
535.502	1	0
535.672	1	-13
535.842	1	-2
536.012	1	7
536.182	1	-2
536.352	1	1
536.522	1	9
536.692	1	0
536.862	1	7
537.032	1	7
537.203	1	6
537.373	1	-10
537.543	1	-5
537.713	1	13
537.883	1	5
538.053	1	9
538.223	1	9
538.393	1	2
538.563	1	-1
538.733	1	-7
538.903	1	1
539.073	1	0
539.243	1	-6
539.413	1	2
539.584	1	6
539.754	1	-6
539.924	1	1
540.094	1	9
540.264	1	0
540.434	1	-2
540.604	1	-4
540.774	1	3
540.944	1	-1
541.114	1	-5
541.284	1	-2
541.454	1	6
541.624	1	7
541.794	1	-7
541.964	1	6
542.134	1	-3
542.305	1	-8
542.475	1	-4
542.645	1	-2
542.815	1	8
542.985	1	1
543.155	1	-4
543.325	1	-9
543.495	1	4
543.665	1	11
543.835	1	-2
544.005	1	1
544.175	1	5
544.345	1	-11
544.515	1	-1
544.685	1	9
544.855	1	5
545.025	1	-12
545.195	1	2
545.365	1	6
545.535	1	-1
545.705	1	0
545.875	1	1
546.045	1	6
546.216	1	3
546.386	1	2
546.556	1	-5
546.726	1	-2
546.896	1	5
547.066	1	-14
547.236	1	3
547.406	1	6
547.576	1	6
547.746	1	5
547.916	1	8
548.086	1	0
548.256	1	0
548.426	1	-2
548.596	1	-5
548.766	1	-4
548.936	1	1
549.106	1	1
549.276	1	6
549.446	1	-3
549.616	1	4
549.786	1	4
549.956	1	1
550.126	1	-2
550.296	1	1
550.466	1	-9
550.636	1	1
550.806	1	9
550.976	1	-4
551.146	1	1
551.316	1	-1
551.486	1	-5
551.656	1	-14
551.826	1	6
551.996	1	2
552.166	1	3
552.336	1	3
552.506	1	-5
552.676	1	-7
552.846	1	2
553.016	1	-6
553.186	1	6
553.356	1	-10
553.526	1	4
553.696	1	7
553.866	1	-5
554.036	1	1
554.206	1	2
554.376	1	2
554.546	1	-10
554.716	1	6
554.886	1	-2
555.056	1	-11
555.226	1	-7
555.396	1	-5
555.566	1	-2
555.736	1	1
555.906	1	6
556.076	1	6
556.246	1	11
556.416	1	2
556.586	1	3
556.756	1	-5
556.926	1	14
557.096	1	-7
557.266	1	9
557.436	1	8
557.606	1	-6
557.776	1	3
557.946	1	-5
558.116	1	10
558.286	1	5
558.456	1	-4
558.626	1	5
558.796	1	5
558.966	1	-1
559.136	1	4
559.306	1	-6
559.476	1	-5
559.646	1	-1
559.816	1	-1
559.986	1	-16
560.155	1	0
560.325	1	-11
560.495	1	2
560.665	1	3
560.835	1	7
561.005	1	-4
561.175	1	-5
561.345	1	5
561.515	1	-7
561.685	1	-7
561.855	1	11
562.025	1	0
562.195	1	0
562.365	1	8
562.535	1	-1
562.705	1	10
562.875	1	6
563.045	1	3
563.215	1	-2
563.385	1	-3
563.555	1	9
563.725	1	-4
563.895	1	6
564.064	1	11
564.234	1	3
564.404	1	5
564.574	1	-3
564.744	1	6
564.914	1	-15
565.084	1	-6
565.254	1	-1
565.424	1	-3
565.594	1	-6
565.764	1	3
565.934	1	5
566.104	1	-7
566.274	1	-3
566.444	1	14
566.614	1	0
566.783	1	1
566.953	1	-2
567.123	1	10
567.293	1	-1
567.463	1	-1
567.633	1	-3
567.803	1	-7
567.973	1	-6
568.143	1	-7
568.313	1	-1
568.483	1	-7
568.653	1	-10
568.823	1	9
568.993	1	-7
569.162	1	4
569.332	1	0
569.502	1	-2
569.672	1	1
569.842	1	4
570.012	1	2
570.182	1	-8
570.352	1	5
570.522	1	0
570.692	1	6
570.862	1	1
571.031	1	-5
571.201	1	6
571.371	1	-4
571.541	1	1
571.711	1	4
571.881	1	-1
572.051	1	-4
572.221	1	-4
572.391	1	-3
572.561	1	-8
572.731	1	-2
572.900	1	18
573.070	1	7
573.240	1	-7
573.410	1	3
573.580	1	8
573.750	1	8
573.920	1	-6
574.090	1	8
574.260	1	-3
574.430	1	-2
574.599	1	3
574.769	1	1
574.939	1	0
575.109	1	1
575.279	1	7
575.449	1	4
575.619	1	3
575.789	1	4
575.959	1	-6
576.128	1	-5
576.298	1	-14
576.468	1	-6
576.638	1	1
576.808	1	4
576.978	1	-10
577.148	1	4
577.318	1	7
577.487	1	14
577.657	1	-16
577.827	1	3
577.997	1	-17
578.167	1	3
578.337	1	1
578.507	1	-4
578.677	1	-10
578.846	1	1
579.016	1	8
579.186	1	-6
579.356	1	-3
579.526	1	-1
579.696	1	3
579.866	1	5
580.036	1	-1
580.205	1	-4
580.375	1	-3
580.545	1	2
580.715	1	15
580.885	1	1
581.055	1	3
581.225	1	-8
581.394	1	-4
581.564	1	-5
581.734	1	6
581.904	1	2
582.074	1	-4
582.244	1	0
582.414	1	4
582.583	1	-9
582.753	1	1
582.923	1	2
583.093	1	-3
583.263	1	6
583.433	1	-5
583.603	1	1
583.772	1	4
583.942	1	6
584.112	1	5
584.282	1	14
584.452	1	-5
584.622	1	-5
584.791	1	-9
584.961	1	0
585.131	1	-11
585.301	1	8
585.471	1	0
585.641	1	7
585.811	1	-5
585.980	1	0
586.150	1	7
586.320	1	-5
586.490	1	-10
586.660	1	0
586.830	1	-4
586.999	1	0
587.169	1	2
587.339	1	2
587.509	1	-3
587.679	1	-4
587.849	1	12
588.018	1	4
588.188	1	-7
588.358	1	-3
588.528	1	5
588.698	1	-3
588.867	1	4
589.037	1	8
589.207	1	-10
589.377	1	-2
589.547	1	-1
589.717	1	0
589.886	1	-7
590.056	1	-6
590.226	1	0
590.396	1	11
590.566	1	-1
590.735	1	11
590.905	1	2
591.075	1	-10
591.245	1	-1
591.415	1	-3
591.585	1	2
591.754	1	0
591.924	1	-5
592.094	1	2
592.264	1	1
592.434	1	1
592.603	1	-6
592.773	1	1
592.943	1	2
593.113	1	-2
593.283	1	0
593.452	1	-7
593.622	1	-3
593.792	1	-4
593.962	1	4
594.132	1	4
594.301	1	5
594.471	1	3
594.641	1	-1
594.811	1	1
594.981	1	4
595.150	1	-8
595.320	1	8
595.490	1	-7
595.660	1	-9
595.829	1	7
595.999	1	-1
596.169	1	-2
596.339	1	7
596.509	1	3
596.678	1	-1
596.848	1	10
597.018	1	0
597.188	1	4
597.358	1	1
597.527	1	-5
597.697	1	0
597.867	1	7
598.037	1	-4
598.206	1	0
598.376	1	9
598.546	1	-7
598.716	1	3
598.885	1	0
599.055	1	-1
599.225	1	2
599.395	1	8
599.565	1	-1
599.734	1	-4
599.904	1	-8
600.074	1	-4
600.244	1	4
600.413	1	-2
600.583	1	-5
600.753	1	2
600.923	1	13
601.092	1	-12
601.262	1	-2
601.432	1	2
601.602	1	4
601.771	1	5
601.941	1	-1
602.111	1	-9
602.281	1	-1
602.451	1	-5
602.620	1	-3
602.790	1	1
602.960	1	-2
603.130	1	6
603.299	1	-1
603.469	1	1
603.639	1	7
603.809	1	9
603.978	1	-4
604.148	1	2
604.318	1	-1
604.487	1	-2
604.657	1	-6
604.827	1	-3
604.997	1	1
605.166	1	-1
605.336	1	5
605.506	1	7
605.676	1	-10
605.845	1	-8
606.015	1	0
606.185	1	1
606.355	1	6
606.524	1	-5
606.694	1	18
606.864	1	-4
607.034	1	-1
607.203	1	9
607.373	1	2
607.543	1	-6
607.712	1	-3
607.882	1	1
608.052	1	5
608.222	1	1
608.391	1	-9
608.561	1	11
608.731	1	-6
608.901	1	3
609.070	1	1
609.240	1	-11
609.410	1	-2
609.579	1	0
609.749	1	-2
609.919	1	-10
610.089	1	-5
610.258	1	4
610.428	1	-2
610.598	1	6
610.767	1	-5
610.937	1	-6
611.107	1	8
611.277	1	2
611.446	1	-1
611.616	1	-4
611.786	1	4
611.955	1	-10
612.125	1	3
612.295	1	-3
612.465	1	-10
612.634	1	4
612.804	1	6
612.974	1	3
613.143	1	-6
613.313	1	-2
613.483	1	3
613.652	1	0
613.822	1	1
613.992	1	-1
614.162	1	2
614.331	1	-4
614.501	1	8
614.671	1	10
614.840	1	8
615.010	1	2
615.180	1	-7
615.349	1	3
615.519	1	3
615.689	1	-3
615.858	1	3
616.028	1	-4
616.198	1	8
616.368	1	-3
616.537	1	-4
616.707	1	1
616.877	1	-2
617.046	1	-1
617.216	1	8
617.386	1	-8
617.555	1	-4
617.725	1	11
617.895	1	-8
618.064	1	5
618.234	1	6
618.404	1	8
618.573	1	5
618.743	1	-4
618.913	1	-2
619.082	1	6
619.252	1	-1
619.422	1	5
619.591	1	-7
619.761	1	0
619.931	1	10
620.100	1	-2
620.270	1	-4
620.440	1	10
620.609	1	2
620.779	1	-3
620.949	1	6
621.118	1	6
621.288	1	1
621.458	1	5
621.627	1	-4
621.797	1	2
621.967	1	-5
622.136	1	-1
622.306	1	6
622.476	1	2
622.645	1	5
622.815	1	-5
622.985	1	6
623.154	1	-2
623.324	1	5
623.494	1	1
623.663	1	-3
623.833	1	-4
624.002	1	2
624.172	1	10
624.342	1	-3
624.511	1	7
624.681	1	-8
624.851	1	-12
625.020	1	4
625.190	1	-5
625.360	1	-7
625.529	1	4
625.699	1	2
625.869	1	2
626.038	1	-2
626.208	1	-10
626.377	1	6
626.547	1	-3
626.717	1	-8
626.886	1	-6
627.056	1	-3
627.226	1	3
627.395	1	4
627.565	1	6
627.735	1	9
627.904	1	-3
628.074	1	-5
628.243	1	-5
628.413	1	1
628.583	1	-4
628.752	1	8
628.922	1	-1
629.091	1	-8
629.261	1	1
629.431	1	-12
629.600	1	7
629.770	1	0
629.940	1	2
630.109	1	-2
630.279	1	-6
630.448	1	-11
630.618	1	0
630.788	1	-5
630.957	1	-4
631.127	1	3
631.297	1	5
631.466	1	-3
631.636	1	1
631.805	1	0
631.975	1	-1
632.145	1	-19
632.314	1	7
632.484	1	-7
632.653	1	-6
632.823	1	14
632.993	1	0
633.162	1	-6
633.332	1	3
633.501	1	7
633.671	1	-7
633.841	1	5
634.010	1	-2
634.180	1	8
634.349	1	7
634.519	1	-3
634.689	1	15
634.858	1	11
635.028	1	0
635.197	1	-8
635.367	1	5
635.537	1	-7
635.706	1	-1
635.876	1	-4
636.045	1	1
636.215	1	10
636.384	1	3
636.554	1	8
636.724	1	1
636.893	1	-3
637.063	1	4
637.232	1	-4
637.402	1	7
637.572	1	-3
637.741	1	6
637.911	1	1
638.080	1	-5
638.250	1	4
638.419	1	8
638.589	1	8
638.759	1	-1
638.928	1	-2
639.098	1	-2
639.267	1	0
639.437	1	-8
639.606	1	9
639.776	1	-2
639.946	1	-8
640.115	1	-8
640.285	1	5
640.454	1	1
640.624	1	4
640.793	1	6
640.963	1	-10
641.132	1	3
641.302	1	9
641.472	1	1
641.641	1	-5
641.811	1	4
641.980	1	-11
642.150	1	-1
642.319	1	-3
642.489	1	-1
642.659	1	-8
642.828	1	4
642.998	1	-7
643.167	1	-2
643.337	1	9
643.506	1	-6
643.676	1	4
643.845	1	1
644.015	1	0
644.184	1	7
644.354	1	-5
644.524	1	-15
644.693	1	4
644.863	1	-12
645.032	1	-7
645.202	1	8
645.371	1	-12
645.541	1	-7
645.710	1	-3
645.880	1	-2
646.049	1	8
646.219	1	-1
646.388	1	1
646.558	1	-2
646.728	1	5
646.897	1	-7
647.067	1	-1
647.236	1	3
647.406	1	-8
647.575	1	5
647.745	1	1
647.914	1	-9
648.084	1	4
648.253	1	2
648.423	1	-3
648.592	1	-2
648.762	1	3
648.931	1	5
649.101	1	-1
649.270	1	9
649.440	1	4
649.610	1	11
649.779	1	-9
649.949	1	-7
650.118	1	6
650.288	1	-6
650.457	1	-1
650.627	1	5
650.796	1	0
650.966	1	-8
651.135	1	4
651.305	1	-17
651.474	1	6
651.644	1	-4
651.813	1	5
651.983	1	2
652.152	1	-13
652.322	1	3
652.491	1	4
652.661	1	-2
652.830	1	3
653.000	1	0
653.169	1	-7
653.339	1	4
653.508	1	6
653.678	1	3
653.847	1	0
654.017	1	0
654.186	1	-5
654.356	1	-1
654.525	1	5
654.695	1	0
654.864	1	6
655.034	1	-5
655.203	1	-7
655.373	1	-1
655.542	1	5
655.712	1	-4
655.881	1	-12
656.051	1	7
656.220	1	-3
656.390	1	-7
656.559	1	-15
656.729	1	3
656.898	1	9
657.068	1	-6
657.237	1	0
657.406	1	6
657.576	1	-6
657.745	1	-7
657.915	1	12
658.084	1	2
658.254	1	-3
658.423	1	-7
658.593	1	-2
658.762	1	-10
658.932	1	-3
659.101	1	2
659.271	1	4
659.440	1	8
659.610	1	-5
659.779	1	-8
659.949	1	-9
660.118	1	6
660.288	1	5
660.457	1	-4
660.626	1	-2
660.796	1	-6
660.965	1	-4
661.135	1	-6
661.304	1	8
661.474	1	0
661.643	1	-2
661.813	1	2
661.982	1	-6
662.152	1	-7
662.321	1	2
662.491	1	-1
662.660	1	2
662.829	1	-2
662.999	1	-2
663.168	1	-4
663.338	1	4
663.507	1	-1
663.677	1	-11
663.846	1	6
664.016	1	-5
664.185	1	0
664.354	1	1
664.524	1	-4
664.693	1	13
664.863	1	-2
665.032	1	0
665.202	1	-9
665.371	1	5
665.541	1	0
665.710	1	-6
665.879	1	-3
666.049	1	3
666.218	1	-6
666.388	1	-2
666.557	1	14
666.727	1	-18
666.896	1	-7
667.065	1	10
667.235	1	-3
667.404	1	-11
667.574	1	0
667.743	1	-10
667.913	1	3
668.082	1	-8
668.251	1	-6
668.421	1	-4
668.590	1	-9
668.760	1	-5
668.929	1	-4
669.099	1	-4
669.268	1	8
669.437	1	5
669.607	1	-4
669.776	1	10
669.946	1	15
670.115	1	2
670.285	1	3
670.454	1	-4
670.623	1	2
670.793	1	-6
670.962	1	0
671.132	1	6
671.301	1	-4
671.470	1	-1
671.640	1	-16
671.809	1	-7
671.979	1	7
672.148	1	1
672.317	1	-6
672.487	1	-6
672.656	1	3
672.826	1	-11
672.995	1	8
673.164	1	5
673.334	1	7
673.503	1	-7
673.673	1	15
673.842	1	-5
674.011	1	0
674.181	1	-2
674.350	1	-2
674.520	1	-11
674.689	1	1
674.858	1	0
675.028	1	-2
675.197	1	0
675.367	1	0
675.536	1	7
675.705	1	-3
675.875	1	-4
676.044	1	-12
676.214	1	-7
676.383	1	1
676.552	1	-4
676.722	1	-3
676.891	1	-11
677.060	1	3
677.230	1	4
677.399	1	-1
677.569	1	-4
677.738	1	-7
677.907	1	-11
678.077	1	3
678.246	1	-3
678.416	1	-3
678.585	1	1
678.754	1	8
678.924	1	-4
679.093	1	-2
679.262	1	5
679.432	1	-6
679.601	1	-10
679.771	1	-5
679.940	1	2
680.109	1	5
680.279	1	-12
680.448	1	-7
680.617	1	-13
680.787	1	6
680.956	1	0
681.125	1	9
681.295	1	11
681.464	1	-1
681.634	1	10
681.803	1	-8
681.972	1	-12
682.142	1	14
682.311	1	-7
682.480	1	-2
682.650	1	-6
682.819	1	3
682.988	1	-4
683.158	1	-1
683.327	1	7
683.496	1	-10
683.666	1	2
683.835	1	5
684.004	1	8
684.174	1	-5
684.343	1	-1
684.512	1	2
684.682	1	6
684.851	1	4
685.021	1	9
685.190	1	-1
685.359	1	-5
685.529	1	4
685.698	1	3
685.867	1	-12
686.037	1	9
686.206	1	4
686.375	1	-1
686.545	1	4
686.714	1	-1
686.883	1	-4
687.053	1	-2
687.222	1	-8
687.391	1	-4
687.561	1	5
687.730	1	-5
687.899	1	-2
688.069	1	6
688.238	1	-7
688.407	1	3
688.577	1	-12
688.746	1	-2
