340.368	1	-1
340.539	1	-4
340.710	1	-8
340.881	1	-1
341.052	1	3
341.223	1	10
341.394	1	-10
341.565	1	-6
341.737	1	9
341.908	1	0
342.079	1	-1
342.250	1	-3
342.421	1	-5
342.592	1	1
342.763	1	-7
342.934	1	5
343.105	1	3
343.276	1	-3
343.447	1	4
343.618	1	2
343.789	1	-3
343.960	1	-4
344.131	1	-1
344.302	1	-2
344.473	1	6
344.644	1	-10
344.815	1	9
344.986	1	3
345.157	1	-4
345.328	1	-10
345.499	1	5
345.670	1	-4
345.841	1	9
346.012	1	8
346.183	1	1
346.354	1	2
346.526	1	0
346.697	1	-1
346.868	1	1
347.039	1	-3
347.210	1	-1
347.381	1	-1
347.552	1	6
347.723	1	0
347.894	1	0
348.065	1	4
348.236	1	0
348.407	1	-4
348.578	1	7
348.749	1	-2
348.920	1	2
349.091	1	2
349.262	1	-4
349.433	1	-12
349.604	1	5
349.775	1	7
349.946	1	8
350.117	1	1
350.288	1	2
350.459	1	4
350.630	1	-13
350.801	1	2
350.972	1	-4
351.143	1	-8
351.314	1	3
351.485	1	-7
351.656	1	6
351.827	1	1
351.998	1	-4
352.169	1	11
352.340	1	-6
352.511	1	-10
352.682	1	-1
352.853	1	-8
353.024	1	-10
353.195	1	-1
353.366	1	-2
353.537	1	1
353.708	1	3
353.879	1	8
354.050	1	5
354.221	1	-15
354.392	1	7
354.563	1	13
354.734	1	0
354.905	1	1
355.076	1	1
355.247	1	-13
355.418	1	-1
355.589	1	-2
355.760	1	-1
355.931	1	5
356.102	1	-4
356.273	1	2
356.444	1	4
356.615	1	2
356.785	1	8
356.956	1	-6
357.127	1	5
357.298	1	5
357.469	1	2
357.640	1	4
357.811	1	5
357.982	1	-8
358.153	1	0
358.324	1	1
358.495	1	8
358.666	1	-1
358.837	1	1
359.008	1	-10
359.179	1	-8
359.350	1	-5
359.521	1	3
359.692	1	5
359.863	1	-11
360.034	1	-6
360.205	1	-3
360.376	1	3
360.547	1	-9
360.718	1	-4
360.889	1	-2
361.060	1	9
361.231	1	-4
361.401	1	5
361.572	1	2
361.743	1	-4
361.914	1	-6
362.085	1	-6
362.256	1	4
362.427	1	-5
362.598	1	-8
362.769	1	5
362.940	1	2
363.111	1	9
363.282	1	-1
363.453	1	13
363.624	1	3
363.795	1	1
363.966	1	-1
364.137	1	4
364.308	1	-5
364.478	1	5
364.649	1	3
364.820	1	-6
364.991	1	6
365.162	1	-6
365.333	1	9
365.504	1	-2
365.675	1	-8
365.846	1	1
366.017	1	4
366.188	1	-6
366.359	1	-4
366.530	1	11
366.701	1	-5
366.871	1	8
367.042	1	-2
367.213	1	5
367.384	1	-9
367.555	1	-8
367.726	1	7
367.897	1	1
368.068	1	-10
368.239	1	8
368.410	1	1
368.581	1	4
368.752	1	0
368.923	1	-10
369.093	1	2
369.264	1	-2
369.435	1	-13
369.606	1	6
369.777	1	-8
369.948	1	3
370.119	1	8
370.290	1	2
370.461	1	-3
370.632	1	1
370.803	1	6
370.973	1	1
371.144	1	3
371.315	1	-2
371.486	1	14
371.657	1	5
371.828	1	0
371.999	1	-2
372.170	1	10
372.341	1	6
372.512	1	-5
372.682	1	-5
372.853	1	5
373.024	1	-6
373.195	1	-5
373.366	1	3
373.537	1	-1
373.708	1	-3
373.879	1	4
374.050	1	6
374.220	1	4
374.391	1	4
374.562	1	-5
374.733	1	6
374.904	1	5
375.075	1	10
375.246	1	-3
375.417	1	6
375.588	1	-2
375.758	1	1
375.929	1	1
376.100	1	3
376.271	1	-7
376.442	1	-7
376.613	1	1
376.784	1	1
376.955	1	5
377.125	1	-8
377.296	1	6
377.467	1	-3
377.638	1	2
377.809	1	15
377.980	1	-3
378.151	1	-4
378.321	1	1
378.492	1	1
378.663	1	-7
378.834	1	3
379.005	1	-3
379.176	1	-4
379.347	1	0
379.518	1	-6
379.688	1	-3
379.859	1	-1
380.030	1	-3
380.201	1	-9
380.372	1	4
380.543	1	13
380.714	1	1
380.884	1	-3
381.055	1	4
381.226	1	-4
381.397	1	-9
381.568	1	7
381.739	1	3
381.910	1	-4
382.080	1	-8
382.251	1	4
382.422	1	13
382.593	1	1
382.764	1	-4
382.935	1	-3
383.105	1	-2
383.276	1	1
383.447	1	11
383.618	1	0
383.789	1	1
383.960	1	5
384.130	1	-5
384.301	1	3
384.472	1	-8
384.643	1	9
384.814	1	3
384.985	1	3
385.156	1	12
385.326	1	3
385.497	1	6
385.668	1	-11
385.839	1	-2
386.010	1	3
386.180	1	1
386.351	1	-6
386.522	1	2
386.693	1	-3
386.864	1	-3
387.035	1	1
387.205	1	-6
387.376	1	3
387.547	1	-6
387.718	1	10
387.889	1	13
388.060	1	-14
388.230	1	7
388.401	1	5
388.572	1	11
388.743	1	3
388.914	1	7
389.084	1	8
389.255	1	9
389.426	1	0
389.597	1	-4
389.768	1	7
389.939	1	8
390.109	1	6
390.280	1	9
390.451	1	14
390.622	1	-8
390.793	1	1
390.963	1	-1
391.134	1	2
391.305	1	3
391.476	1	5
391.647	1	1
391.817	1	6
391.988	1	-4
392.159	1	5
392.330	1	4
392.501	1	1
392.671	1	-2
392.842	1	8
393.013	1	9
393.184	1	9
393.355	1	8
393.525	1	14
393.696	1	1
393.867	1	-3
394.038	1	-10
394.208	1	1
394.379	1	-13
394.550	1	6
394.721	1	-2
394.892	1	5
395.062	1	-5
395.233	1	4
395.404	1	1
395.575	1	-1
395.746	1	-4
395.916	1	-7
396.087	1	-6
396.258	1	-6
396.429	1	3
396.599	1	3
396.770	1	-1
396.941	1	2
397.112	1	0
397.283	1	4
397.453	1	-13
397.624	1	-1
397.795	1	0
397.966	1	-3
398.136	1	-2
398.307	1	6
398.478	1	-6
398.649	1	-2
398.819	1	12
398.990	1	2
399.161	1	13
399.332	1	3
399.503	1	-2
399.673	1	-1
399.844	1	7
400.015	1	9
400.186	1	13
400.356	1	-3
400.527	1	0
400.698	1	-2
400.869	1	13
401.039	1	-7
401.210	1	-6
401.381	1	2
401.552	1	8
401.722	1	2
401.893	1	5
402.064	1	4
402.235	1	2
402.405	1	1
402.576	1	12
402.747	1	-10
402.918	1	-3
403.088	1	2
403.259	1	-7
403.430	1	-5
403.601	1	-6
403.771	1	1
403.942	1	3
404.113	1	13
404.284	1	-9
404.454	1	1
404.625	1	3
404.796	1	-3
404.967	1	3
405.137	1	8
405.308	1	-4
405.479	1	2
405.649	1	-9
405.820	1	-1
405.991	1	5
406.162	1	-5
406.332	1	-11
406.503	1	0
406.674	1	2
406.845	1	6
407.015	1	-5
407.186	1	5
407.357	1	7
407.527	1	7
407.698	1	-13
407.869	1	-5
408.040	1	-6
408.210	1	-11
408.381	1	-5
408.552	1	-2
408.722	1	-7
408.893	1	-4
409.064	1	-1
409.235	1	-1
409.405	1	1
409.576	1	-2
409.747	1	4
409.917	1	-5
410.088	1	6
410.259	1	0
410.430	1	8
410.600	1	1
410.771	1	-7
410.942	1	5
411.112	1	8
411.283	1	-8
411.454	1	11
411.625	1	4
411.795	1	5
411.966	1	-1
412.137	1	12
412.307	1	1
412.478	1	0
412.649	1	3
412.819	1	-5
412.990	1	-1
413.161	1	-3
413.332	1	-7
413.502	1	-11
413.673	1	4
413.844	1	-3
414.014	1	-9
414.185	1	0
414.356	1	-2
414.526	1	1
414.697	1	8
414.868	1	9
415.038	1	-2
415.209	1	-3
415.380	1	-5
415.550	1	-2
415.721	1	4
415.892	1	-6
416.063	1	8
416.233	1	-2
416.404	1	2
416.575	1	-1
416.745	1	-9
416.916	1	5
417.087	1	-2
417.257	1	4
417.428	1	-5
417.599	1	7
417.769	1	3
417.940	1	-1
418.111	1	5
418.281	1	-4
418.452	1	1
418.623	1	-8
418.793	1	1
418.964	1	2
419.135	1	6
419.305	1	-1
419.476	1	-1
419.647	1	15
419.817	1	4
419.988	1	-8
420.159	1	-3
420.329	1	6
420.500	1	-1
420.671	1	1
420.841	1	2
421.012	1	5
421.183	1	5
421.353	1	9
421.524	1	3
421.695	1	1
421.865	1	-1
422.036	1	-1
422.206	1	-13
422.377	1	-1
422.548	1	7
422.718	1	4
422.889	1	10
423.060	1	3
423.230	1	12
423.401	1	6
423.572	1	-3
423.742	1	-6
423.913	1	9
424.084	1	6
424.254	1	2
424.425	1	0
424.595	1	-11
424.766	1	6
424.937	1	-8
425.107	1	1
425.278	1	-7
425.449	1	1
425.619	1	-6
425.790	1	-9
425.961	1	0
426.131	1	1
426.302	1	-4
426.472	1	-11
426.643	1	-3
426.814	1	3
426.984	1	5
427.155	1	-8
427.326	1	0
427.496	1	6
427.667	1	5
427.837	1	-6
428.008	1	-6
428.179	1	-9
428.349	1	-8
428.520	1	-8
428.691	1	-4
428.861	1	-4
429.032	1	-6
429.202	1	3
429.373	1	-17
429.544	1	-4
429.714	1	2
429.885	1	6
430.055	1	-4
430.226	1	-6
430.397	1	12
430.567	1	5
430.738	1	-5
430.909	1	-8
431.079	1	6
431.250	1	-6
431.420	1	2
431.591	1	10
431.762	1	3
431.932	1	2
432.103	1	-5
432.273	1	-2
432.444	1	1
432.615	1	-5
432.785	1	-2
432.956	1	2
433.126	1	2
433.297	1	3
433.468	1	9
433.638	1	-7
433.809	1	3
433.979	1	-2
434.150	1	-5
434.320	1	3
434.491	1	-1
434.662	1	0
434.832	1	-5
435.003	1	4
435.173	1	-2
435.344	1	7
435.515	1	-2
435.685	1	6
435.856	1	-4
436.026	1	-4
436.197	1	-3
436.368	1	-5
436.538	1	14
436.709	1	-14
436.879	1	1
437.050	1	4
437.220	1	4
437.391	1	6
437.562	1	-1
437.732	1	-3
437.903	1	-3
438.073	1	8
438.244	1	-14
438.414	1	7
438.585	1	4
438.756	1	7
438.926	1	-1
439.097	1	13
439.267	1	7
439.438	1	8
439.608	1	5
439.779	1	8
439.949	1	-3
440.120	1	-5
440.291	1	-10
440.461	1	-9
440.632	1	5
440.802	1	1
440.973	1	-2
441.143	1	7
441.314	1	2
441.485	1	-4
441.655	1	10
441.826	1	-13
441.996	1	-2
442.167	1	-2
442.337	1	-6
442.508	1	1
442.678	1	3
442.849	1	2
443.019	1	0
443.190	1	-11
443.361	1	1
443.531	1	1
443.702	1	0
443.872	1	0
444.043	1	6
444.213	1	-3
444.384	1	6
444.554	1	-2
444.725	1	4
444.895	1	-5
445.066	1	-14
445.237	1	-5
445.407	1	-2
445.578	1	6
445.748	1	-5
445.919	1	-5
446.089	1	11
446.260	1	-1
446.430	1	-11
446.601	1	-16
446.771	1	7
446.942	1	7
447.112	1	-4
447.283	1	-4
447.453	1	-8
447.624	1	6
447.794	1	-10
447.965	1	-7
448.135	1	-8
448.306	1	1
448.477	1	-10
448.647	1	7
448.818	1	3
448.988	1	-15
449.159	1	-8
449.329	1	0
449.500	1	9
449.670	1	5
449.841	1	0
450.011	1	4
450.182	1	-14
450.352	1	-4
450.523	1	-5
450.693	1	5
450.864	1	-4
451.034	1	-3
451.205	1	8
451.375	1	7
451.546	1	7
451.716	1	4
451.887	1	-11
452.057	1	7
452.228	1	-7
452.398	1	2
452.569	1	-9
452.739	1	8
452.910	1	-7
453.080	1	5
453.251	1	-1
453.421	1	0
453.592	1	-5
453.762	1	1
453.933	1	13
454.103	1	0
454.274	1	-8
454.444	1	4
454.615	1	12
454.785	1	-5
454.956	1	2
455.126	1	1
455.297	1	-3
455.467	1	7
455.638	1	-7
455.808	1	-3
455.979	1	3
456.149	1	-7
456.320	1	-5
456.490	1	-1
456.661	1	3
456.831	1	6
457.001	1	11
457.172	1	-6
457.342	1	-1
457.513	1	12
457.683	1	5
457.854	1	-2
458.024	1	0
458.195	1	1
458.365	1	-4
458.536	1	2
458.706	1	0
458.877	1	-1
459.047	1	-8
459.218	1	1
459.388	1	6
459.559	1	6
459.729	1	1
459.899	1	11
460.070	1	7
460.240	1	6
460.411	1	3
460.581	1	5
460.752	1	4
460.922	1	-6
461.093	1	2
461.263	1	0
461.434	1	2
461.604	1	-4
461.775	1	3
461.945	1	5
462.115	1	-9
462.286	1	0
462.456	1	-10
462.627	1	1
462.797	1	-10
462.968	1	-2
463.138	1	16
463.309	1	-3
463.479	1	12
463.649	1	-2
463.820	1	0
463.990	1	12
464.161	1	0
464.331	1	0
464.502	1	0
464.672	1	-1
464.843	1	-3
465.013	1	-7
465.183	1	0
465.354	1	6
465.524	1	7
465.695	1	2
465.865	1	4
466.036	1	0
466.206	1	-2
466.376	1	-7
466.547	1	-9
466.717	1	-14
466.888	1	-9
467.058	1	8
467.229	1	6
467.399	1	0
467.569	1	10
467.740	1	8
467.910	1	-3
468.081	1	-7
468.251	1	-3
468.422	1	0
468.592	1	9
468.762	1	-9
468.933	1	6
469.103	1	-2
469.274	1	-3
469.444	1	-4
469.614	1	0
469.785	1	3
469.955	1	-3
470.126	1	-3
470.296	1	-1
470.467	1	-6
470.637	1	14
470.807	1	2
470.978	1	-3
471.148	1	-3
471.319	1	5
471.489	1	-3
471.659	1	6
471.830	1	16
472.000	1	3
472.171	1	-4
472.341	1	4
472.511	1	9
472.682	1	0
472.852	1	-6
473.023	1	-5
473.193	1	-3
473.363	1	5
473.534	1	0
473.704	1	12
473.875	1	6
474.045	1	2
474.215	1	-9
474.386	1	6
474.556	1	-6
474.727	1	2
474.897	1	1
475.067	1	5
475.238	1	5
475.408	1	3
475.578	1	7
475.749	1	-12
475.919	1	-2
476.090	1	-8
476.260	1	-2
476.430	1	-1
476.601	1	6
476.771	1	-6
476.942	1	-2
477.112	1	9
477.282	1	-11
477.453	1	4
477.623	1	-2
477.793	1	1
477.964	1	6
478.134	1	4
478.305	1	6
478.475	1	3
478.645	1	-11
478.816	1	0
478.986	1	7
479.156	1	7
479.327	1	-5
479.497	1	4
479.667	1	-1
479.838	1	-7
480.008	1	5
480.179	1	5
480.349	1	2
480.519	1	-2
480.690	1	8
480.860	1	0
481.030	1	-4
481.201	1	-4
481.371	1	-5
481.541	1	-5
481.712	1	1
481.882	1	-3
482.053	1	8
482.223	1	-11
482.393	1	-10
482.564	1	-7
482.734	1	-5
482.904	1	1
483.075	1	5
483.245	1	-6
483.415	1	4
483.586	1	-9
483.756	1	0
483.926	1	5
484.097	1	-3
484.267	1	5
484.437	1	-14
484.608	1	-3
484.778	1	1
484.948	1	-5
485.119	1	1
485.289	1	4
485.459	1	-1
485.630	1	-15
485.800	1	-4
485.970	1	-4
486.141	1	-7
486.311	1	-2
486.481	1	4
486.652	1	1
486.822	1	8
486.992	1	-6
487.163	1	-10
487.333	1	3
487.503	1	-17
487.674	1	4
487.844	1	0
488.014	1	6
488.185	1	-1
488.355	1	0
488.525	1	3
488.696	1	-13
488.866	1	8
489.036	1	-1
489.207	1	7
489.377	1	6
489.547	1	-5
489.718	1	-3
489.888	1	1
490.058	1	-2
490.228	1	-16
490.399	1	6
490.569	1	6
490.739	1	1
490.910	1	-14
491.080	1	-2
491.250	1	0
491.421	1	13
491.591	1	3
491.761	1	2
491.932	1	6
492.102	1	-4
492.272	1	9
492.442	1	0
492.613	1	1
492.783	1	-4
492.953	1	3
493.124	1	-6
493.294	1	10
493.464	1	-4
493.635	1	-4
493.805	1	5
493.975	1	-1
494.145	1	5
494.316	1	5
494.486	1	-4
494.656	1	-1
494.827	1	-6
494.997	1	-9
495.167	1	5
495.337	1	5
495.508	1	-1
495.678	1	11
495.848	1	14
496.019	1	-6
496.189	1	0
496.359	1	7
496.529	1	-5
496.700	1	-5
496.870	1	7
497.040	1	6
497.211	1	13
497.381	1	-16
497.551	1	9
497.721	1	-7
497.892	1	0
498.062	1	-5
498.232	1	0
498.403	1	-3
498.573	1	-6
498.743	1	2
498.913	1	1
499.084	1	-13
499.254	1	0
499.424	1	7
499.594	1	1
499.765	1	0
499.935	1	-13
500.105	1	-2
500.275	1	-3
500.446	1	3
500.616	1	4
500.786	1	3
500.956	1	-1
501.127	1	7
501.297	1	2
501.467	1	4
501.638	1	-2
501.808	1	-15
501.978	1	16
502.148	1	0
502.319	1	-2
502.489	1	3
502.659	1	4
502.829	1	-3
503.000	1	1
503.170	1	3
503.340	1	-4
503.510	1	0
503.681	1	3
503.851	1	-13
504.021	1	16
504.191	1	7
504.362	1	1
504.532	1	4
504.702	1	14
504.872	1	-7
505.042	1	3
505.213	1	-1
505.383	1	4
505.553	1	2
505.723	1	-1
505.894	1	-2
506.064	1	9
506.234	1	10
506.404	1	-8
506.575	1	1
506.745	1	-4
506.915	1	-9
507.085	1	0
507.256	1	-8
507.426	1	8
507.596	1	4
507.766	1	-4
507.936	1	3
508.107	1	5
508.277	1	-1
508.447	1	-14
508.617	1	6
508.788	1	4
508.958	1	19
509.128	1	-3
509.298	1	14
509.468	1	8
509.639	1	3
509.809	1	10
509.979	1	-1
510.149	1	-7
510.319	1	-3
510.490	1	2
510.660	1	4
510.830	1	-4
511.000	1	13
511.171	1	10
511.341	1	-7
511.511	1	-9
511.681	1	11
511.851	1	-13
512.022	1	-12
512.192	1	10
512.362	1	-4
512.532	1	-3
512.702	1	0
512.873	1	15
513.043	1	8
513.213	1	-1
513.383	1	-7
513.553	1	-6
513.724	1	-5
513.894	1	-8
514.064	1	8
514.234	1	-3
514.404	1	-1
514.575	1	12
514.745	1	8
514.915	1	8
515.085	1	-4
515.255	1	-8
515.425	1	0
515.596	1	-6
515.766	1	8
515.936	1	-3
516.106	1	-1
516.276	1	8
516.447	1	5
516.617	1	1
516.787	1	2
516.957	1	-6
517.127	1	4
517.297	1	3
517.468	1	2
517.638	1	6
517.808	1	-1
517.978	1	-10
518.148	1	-2
518.319	1	0
518.489	1	7
518.659	1	-6
518.829	1	-2
518.999	1	-1
519.169	1	0
519.340	1	-4
519.510	1	0
519.680	1	-6
519.850	1	-1
520.020	1	-3
520.190	1	1
520.361	1	-6
520.531	1	0
520.701	1	3
520.871	1	-9
521.041	1	9
521.211	1	-6
521.382	1	3
521.552	1	9
521.722	1	-3
521.892	1	-17
522.062	1	-7
522.232	1	-3
522.402	1	-5
522.573	1	6
522.743	1	6
522.913	1	-2
523.083	1	6
523.253	1	-4
523.423	1	-11
523.593	1	-18
523.764	1	0
523.934	1	7
524.104	1	-4
524.274	1	-5
524.444	1	9
524.614	1	7
524.784	1	2
524.955	1	2
525.125	1	0
525.295	1	-13
525.465	1	-4
525.635	1	0
525.805	1	0
525.975	1	2
526.146	1	-4
526.316	1	-1
526.486	1	1
526.656	1	10
526.826	1	7
526.996	1	5
527.166	1	-3
527.337	1	0
527.507	1	-6
527.677	1	10
527.847	1	-4
528.017	1	-4
528.187	1	1
528.357	1	6
528.527	1	2
528.698	1	-6
528.868	1	2
529.038	1	-4
529.208	1	-9
529.378	1	2
529.548	1	-3
529.718	1	6
529.888	1	-6
530.058	1	1
530.229	1	1
530.399	1	4
530.569	1	8
530.739	1	-5
530.909	1	-1
531.079	1	-2
531.249	1	-3
531.419	1	10
531.589	1	-7
531.760	1	5
531.930	1	3
532.100	1	4
532.270	1	3
532.440	1	-4
532.610	1	-4
532.780	1	0
532.950	1	-10
533.120	1	-5
533.290	1	2
533.461	1	10
533.631	1	-3
533.801	1	-3
533.971	1	-4
534.141	1	10
534.311	1	-1
534.481	1	-9
534.651	1	-5
534.821	1	10
534.991	1	0
535.162	1	3
535.332	1	1
535.502	1	9
535.672	1	-7
535.842	1	-4
536.012	1	7
536.182	1	-8
536.352	1	5
536.522	1	6
536.692	1	-1
536.862	1	1
537.032	1	-2
537.203	1	-3
537.373	1	-1
537.543	1	-1
537.713	1	16
537.883	1	3
538.053	1	7
538.223	1	1
538.393	1	5
538.563	1	9
538.733	1	-23
538.903	1	-8
539.073	1	-3
539.243	1	-2
539.413	1	-2
539.584	1	2
539.754	1	-11
539.924	1	-3
540.094	1	1
540.264	1	5
540.434	1	-1
540.604	1	0
540.774	1	-3
540.944	1	0
541.114	1	-5
541.284	1	-4
541.454	1	1
541.624	1	5
541.794	1	-1
541.964	1	-3
542.134	1	10
542.305	1	0
542.475	1	-3
542.645	1	-1
542.815	1	6
542.985	1	-5
543.155	1	-2
543.325	1	-4
543.495	1	-3
543.665	1	5
543.835	1	0
544.005	1	-5
544.175	1	-7
544.345	1	1
544.515	1	9
544.685	1	2
544.855	1	7
545.025	1	-6
545.195	1	-1
545.365	1	7
545.535	1	-9
545.705	1	2
545.875	1	2
546.045	1	6
546.216	1	0
546.386	1	5
546.556	1	-2
546.726	1	-3
546.896	1	-5
547.066	1	-11
547.236	1	-7
547.406	1	2
547.576	1	6
547.746	1	8
547.916	1	-8
548.086	1	8
548.256	1	2
548.426	1	1
548.596	1	-8
548.766	1	6
548.936	1	-6
549.106	1	11
549.276	1	12
549.446	1	-4
549.616	1	0
549.786	1	2
549.956	1	3
550.126	1	-3
550.296	1	4
550.466	1	-8
550.636	1	-2
550.806	1	17
550.976	1	-1
551.146	1	-6
551.316	1	-10
551.486	1	2
551.656	1	-13
551.826	1	4
551.996	1	6
552.166	1	0
552.336	1	0
552.506	1	1
552.676	1	2
552.846	1	5
553.016	1	-3
553.186	1	-3
553.356	1	0
553.526	1	-6
553.696	1	12
553.866	1	6
554.036	1	0
554.206	1	-6
554.376	1	-5
554.546	1	-3
554.716	1	8
554.886	1	2
555.056	1	-7
555.226	1	-12
555.396	1	-8
555.566	1	3
555.736	1	-7
555.906	1	2
556.076	1	1
556.246	1	-3
556.416	1	0
556.586	1	7
556.756	1	5
556.926	1	-5
557.096	1	-12
557.266	1	10
557.436	1	10
557.606	1	-11
557.776	1	-1
557.946	1	8
558.116	1	4
558.286	1	-4
558.456	1	-11
558.626	1	-1
558.796	1	-4
558.966	1	4
559.136	1	2
559.306	1	-1
559.476	1	-7
559.646	1	-11
559.816	1	3
559.986	1	-10
560.155	1	0
560.325	1	-16
560.495	1	7
560.665	1	-5
560.835	1	4
561.005	1	8
561.175	1	-1
561.345	1	2
561.515	1	-8
561.685	1	-3
561.855	1	10
562.025	1	2
562.195	1	4
562.365	1	-1
562.535	1	6
562.705	1	9
562.875	1	-1
563.045	1	3
563.215	1	-1
563.385	1	-8
563.555	1	13
563.725	1	-2
563.895	1	-6
564.064	1	8
564.234	1	5
564.404	1	-7
564.574	1	2
564.744	1	1
564.914	1	-16
565.084	1	0
565.254	1	7
565.424	1	-2
565.594	1	-7
565.764	1	10
565.934	1	2
566.104	1	3
566.274	1	4
566.444	1	1
566.614	1	4
566.783	1	-2
566.953	1	0
567.123	1	15
567.293	1	-8
567.463	1	-4
567.633	1	2
567.803	1	-1
567.973	1	-12
568.143	1	-5
568.313	1	-1
568.483	1	-9
568.653	1	-7
568.823	1	9
568.993	1	-3
569.162	1	4
569.332	1	-3
569.502	1	3
569.672	1	4
569.842	1	4
570.012	1	4
570.182	1	3
570.352	1	8
570.522	1	6
570.692	1	-2
570.862	1	9
571.031	1	7
571.201	1	-1
571.371	1	4
571.541	1	-10
571.711	1	8
571.881	1	4
572.051	1	-1
572.221	1	-1
572.391	1	-2
572.561	1	-7
572.731	1	-11
572.900	1	13
573.070	1	2
573.240	1	-12
573.410	1	9
573.580	1	2
573.750	1	3
573.920	1	-2
574.090	1	-6
574.260	1	-7
574.430	1	-6
574.599	1	0
574.769	1	2
574.939	1	-4
575.109	1	2
575.279	1	7
575.449	1	6
575.619	1	-2
575.789	1	9
575.959	1	-4
576.128	1	-2
576.298	1	-3
576.468	1	4
576.638	1	10
576.808	1	-5
576.978	1	-7
577.148	1	4
577.318	1	-5
577.487	1	-2
577.657	1	-14
577.827	1	6
577.997	1	-10
578.167	1	6
578.337	1	-9
578.507	1	-5
578.677	1	1
578.846	1	-1
579.016	1	10
579.186	1	4
579.356	1	-8
579.526	1	-3
579.696	1	3
579.866	1	-6
580.036	1	-4
580.205	1	-6
580.375	1	0
580.545	1	-2
580.715	1	2
580.885	1	2
581.055	1	-5
581.225	1	-10
581.394	1	-4
581.564	1	-3
581.734	1	3
581.904	1	-6
582.074	1	-1
582.244	1	6
582.414	1	-1
582.583	1	-10
582.753	1	5
582.923	1	0
583.093	1	-8
583.263	1	6
583.433	1	-4
583.603	1	2
583.772	1	6
583.942	1	11
584.112	1	-3
584.282	1	15
584.452	1	4
584.622	1	2
584.791	1	-7
584.961	1	4
585.131	1	-10
585.301	1	7
585.471	1	0
585.641	1	-4
585.811	1	-6
585.980	1	-4
586.150	1	4
586.320	1	-6
586.490	1	-6
586.660	1	6
586.830	1	-16
586.999	1	-1
587.169	1	8
587.339	1	-4
587.509	1	-6
587.679	1	0
587.849	1	-3
588.018	1	2
588.188	1	-5
588.358	1	3
588.528	1	-1
588.698	1	-6
588.867	1	1
589.037	1	-1
589.207	1	-11
589.377	1	7
589.547	1	-11
589.717	1	2
589.886	1	2
590.056	1	2
590.226	1	-1
590.396	1	6
590.566	1	2
590.735	1	10
590.905	1	4
591.075	1	-12
591.245	1	-1
591.415	1	-9
591.585	1	-2
591.754	1	11
591.924	1	-1
592.094	1	3
592.264	1	-1
592.434	1	4
592.603	1	3
592.773	1	-10
592.943	1	6
593.113	1	-6
593.283	1	5
593.452	1	-18
593.622	1	0
593.792	1	-8
593.962	1	4
594.132	1	-5
594.301	1	1
594.471	1	2
594.641	1	-8
594.811	1	-6
594.981	1	-9
595.150	1	3
595.320	1	-1
595.490	1	-10
595.660	1	-6
595.829	1	-8
595.999	1	-4
596.169	1	-4
596.339	1	0
596.509	1	5
596.678	1	1
596.848	1	10
597.018	1	6
597.188	1	5
597.358	1	6
597.527	1	0
597.697	1	-10
597.867	1	3
598.037	1	4
598.206	1	-5
598.376	1	8
598.546	1	1
598.716	1	-11
598.885	1	-10
599.055	1	-6
599.225	1	-7
599.395	1	9
599.565	1	-3
599.734	1	0
599.904	1	-2
600.074	1	1
600.244	1	-5
600.413	1	3
600.583	1	-10
600.753	1	5
600.923	1	7
601.092	1	-10
601.262	1	-3
601.432	1	-4
601.602	1	10
601.771	1	14
601.941	1	-1
602.111	1	0
602.281	1	-2
602.451	1	-1
602.620	1	6
602.790	1	-8
602.960	1	-8
603.130	1	0
603.299	1	6
603.469	1	-12
603.639	1	-6
603.809	1	10
603.978	1	2
604.148	1	5
604.318	1	3
604.487	1	5
604.657	1	5
604.827	1	-19
604.997	1	1
605.166	1	-5
605.336	1	-2
605.506	1	6
605.676	1	-10
605.845	1	0
606.015	1	1
606.185	1	-6
606.355	1	3
606.524	1	-5
606.694	1	8
606.864	1	-3
607.034	1	-9
607.203	1	4
607.373	1	2
607.543	1	-3
607.712	1	15
607.882	1	-1
608.052	1	6
608.222	1	-2
608.391	1	1
608.561	1	6
608.731	1	-12
608.901	1	2
609.070	1	5
609.240	1	4
609.410	1	2
609.579	1	0
609.749	1	-2
609.919	1	-9
610.089	1	-5
610.258	1	7
610.428	1	-5
610.598	1	-1
610.767	1	-7
610.937	1	2
611.107	1	8
611.277	1	0
611.446	1	4
611.616	1	-5
611.786	1	5
611.955	1	4
612.125	1	4
612.295	1	1
612.465	1	-8
612.634	1	0
612.804	1	-2
612.974	1	5
613.143	1	9
613.313	1	-3
613.483	1	0
613.652	1	-6
613.822	1	-5
613.992	1	8
614.162	1	-4
614.331	1	4
614.501	1	7
614.671	1	6
614.840	1	2
615.010	1	-1
615.180	1	1
615.349	1	-7
615.519	1	11
615.689	1	6
615.858	1	-6
616.028	1	-1
616.198	1	8
616.368	1	-7
616.537	1	-10
616.707	1	-4
616.877	1	-7
617.046	1	2
617.216	1	-4
617.386	1	-3
617.555	1	-13
617.725	1	4
617.895	1	-4
618.064	1	5
618.234	1	-2
618.404	1	1
618.573	1	2
618.743	1	-4
618.913	1	-3
619.082	1	8
619.252	1	1
619.422	1	-1
619.591	1	6
619.761	1	4
619.931	1	7
620.100	1	0
620.270	1	-1
620.440	1	-2
620.609	1	2
620.779	1	-6
620.949	1	5
621.118	1	9
621.288	1	-1
621.458	1	2
621.627	1	-4
621.797	1	-5
621.967	1	-10
622.136	1	4
622.306	1	3
622.476	1	-3
622.645	1	0
622.815	1	0
622.985	1	3
623.154	1	2
623.324	1	4
623.494	1	-4
623.663	1	-9
623.833	1	-3
624.002	1	-3
624.172	1	6
624.342	1	-8
624.511	1	-3
624.681	1	-7
624.851	1	-7
625.020	1	-4
625.190	1	2
625.360	1	-10
625.529	1	1
625.699	1	-9
625.869	1	-5
626.038	1	1
626.208	1	4
626.377	1	18
626.547	1	8
626.717	1	-3
626.886	1	4
627.056	1	-6
627.226	1	-8
627.395	1	2
627.565	1	12
627.735	1	4
627.904	1	-3
628.074	1	6
628.243	1	-15
628.413	1	-4
628.583	1	-7
628.752	1	3
628.922	1	4
629.091	1	10
629.261	1	1
629.431	1	-8
629.600	1	8
629.770	1	-2
629.940	1	0
630.109	1	-4
630.279	1	-11
630.448	1	-7
630.618	1	-6
630.788	1	2
630.957	1	-3
631.127	1	11
631.297	1	-6
631.466	1	3
631.636	1	5
631.805	1	-8
631.975	1	-1
632.145	1	-13
632.314	1	5
632.484	1	-7
632.653	1	-10
632.823	1	0
632.993	1	-1
633.162	1	-4
633.332	1	-1
633.501	1	1
633.671	1	0
633.841	1	-3
634.010	1	-1
634.180	1	2
634.349	1	6
634.519	1	-4
634.689	1	1
634.858	1	4
635.028	1	6
635.197	1	-4
635.367	1	-4
635.537	1	2
635.706	1	-6
635.876	1	5
636.045	1	1
636.215	1	-4
636.384	1	6
636.554	1	5
636.724	1	0
636.893	1	-5
637.063	1	3
637.232	1	-4
637.402	1	0
637.572	1	1
637.741	1	-1
637.911	1	1
638.080	1	-1
638.250	1	1
638.419	1	15
638.589	1	6
638.759	1	5
638.928	1	-6
639.098	1	-1
639.267	1	6
639.437	1	-12
639.606	1	4
639.776	1	-4
639.946	1	1
640.115	1	-7
640.285	1	4
640.454	1	4
640.624	1	1
640.793	1	5
640.963	1	-9
641.132	1	5
641.302	1	-5
641.472	1	-4
641.641	1	-1
641.811	1	-4
641.980	1	1
642.150	1	15
642.319	1	-2
642.489	1	-2
642.659	1	-6
642.828	1	0
642.998	1	-9
643.167	1	5
643.337	1	-5
643.506	1	-3
643.676	1	1
643.845	1	5
644.015	1	5
644.184	1	7
644.354	1	-5
644.524	1	-5
644.693	1	5
644.863	1	-19
645.032	1	0
645.202	1	0
645.371	1	-4
645.541	1	-5
645.710	1	2
645.880	1	-1
646.049	1	8
646.219	1	6
646.388	1	-5
646.558	1	-4
646.728	1	0
646.897	1	-8
647.067	1	-2
647.236	1	1
647.406	1	-4
647.575	1	2
647.745	1	-2
647.914	1	1
648.084	1	-8
648.253	1	-2
648.423	1	-7
648.592	1	-3
648.762	1	1
648.931	1	8
649.101	1	-2
649.270	1	0
649.440	1	-1
649.610	1	6
649.779	1	-8
649.949	1	0
650.118	1	-10
650.288	1	-2
650.457	1	-6
650.627	1	-4
650.796	1	8
650.966	1	-1
651.135	1	-4
651.305	1	-7
651.474	1	9
651.644	1	-3
651.813	1	3
651.983	1	-7
652.152	1	-4
652.322	1	13
652.491	1	1
652.661	1	1
652.830	1	0
653.000	1	-8
653.169	1	2
653.339	1	8
653.508	1	0
653.678	1	1
653.847	1	0
654.017	1	6
654.186	1	-4
654.356	1	1
654.525	1	1
654.695	1	0
654.864	1	1
655.034	1	-10
655.203	1	-4
655.373	1	-6
655.542	1	9
655.712	1	-8
655.881	1	2
656.051	1	4
656.220	1	2
656.390	1	-9
656.559	1	-5
656.729	1	1
656.898	1	8
657.068	1	-2
657.237	1	1
657.406	1	0
657.576	1	-10
657.745	1	-3
657.915	1	9
658.084	1	-2
658.254	1	8
658.423	1	-6
658.593	1	-10
658.762	1	-9
658.932	1	-4
659.101	1	-9
659.271	1	0
659.440	1	7
659.610	1	0
659.779	1	-5
659.949	1	-9
660.118	1	5
660.288	1	-9
660.457	1	-2
660.626	1	-14
660.796	1	-7
660.965	1	1
661.135	1	0
661.304	1	3
661.474	1	1
661.643	1	-6
661.813	1	-3
661.982	1	-11
662.152	1	-9
662.321	1	1
662.491	1	1
662.660	1	5
662.829	1	-7
662.999	1	-4
663.168	1	-1
663.338	1	-3
663.507	1	0
663.677	1	-17
663.846	1	-4
664.016	1	-3
664.185	1	-9
664.354	1	7
664.524	1	-13
664.693	1	5
664.863	1	-3
665.032	1	-2
665.202	1	-7
665.371	1	3
665.541	1	-7
665.710	1	-8
665.879	1	-4
666.049	1	4
666.218	1	-10
666.388	1	-4
666.557	1	-3
666.727	1	-17
666.896	1	-2
667.065	1	8
667.235	1	-6
667.404	1	-9
667.574	1	-2
667.743	1	-4
667.913	1	1
668.082	1	5
668.251	1	0
668.421	1	10
668.590	1	-2
668.760	1	0
668.929	1	4
669.099	1	-15
669.268	1	-3
669.437	1	0
669.607	1	-11
669.776	1	1
669.946	1	1
670.115	1	-3
670.285	1	-2
670.454	1	2
670.623	1	4
670.793	1	-5
670.962	1	-5
671.132	1	1
671.301	1	-7
671.470	1	1
671.640	1	-6
671.809	1	0
671.979	1	12
672.148	1	4
672.317	1	-2
672.487	1	-5
672.656	1	0
672.826	1	-20
672.995	1	2
673.164	1	3
673.334	1	9
673.503	1	-1
673.673	1	22
673.842	1	4
674.011	1	4
674.181	1	-10
674.350	1	-8
674.520	1	-6
674.689	1	-7
674.858	1	1
675.028	1	0
675.197	1	-4
675.367	1	3
675.536	1	7
675.705	1	-8
675.875	1	-4
676.044	1	-3
676.214	1	-1
676.383	1	-1
676.552	1	-7
676.722	1	0
676.891	1	-15
677.060	1	-5
677.230	1	12
677.399	1	-2
677.569	1	-4
677.738	1	-4
677.907	1	-7
678.077	1	8
678.246	1	-7
678.416	1	7
678.585	1	3
678.754	1	-8
678.924	1	-11
679.093	1	-4
679.262	1	-3
679.432	1	-11
679.601	1	-5
679.771	1	-4
679.940	1	-5
680.109	1	12
680.279	1	-4
680.448	1	-3
680.617	1	-6
680.787	1	5
680.956	1	-3
681.125	1	2
681.295	1	7
681.464	1	-2
681.634	1	8
681.803	1	-15
681.972	1	-16
682.142	1	12
682.311	1	-2
682.480	1	-2
682.650	1	0
682.819	1	4
682.988	1	-9
683.158	1	-2
683.327	1	9
683.496	1	-7
683.666	1	-5
683.835	1	4
684.004	1	8
684.174	1	0
684.343	1	5
684.512	1	5
684.682	1	10
684.851	1	-5
685.021	1	1
685.190	1	10
685.359	1	-16
685.529	1	6
685.698	1	2
685.867	1	-1
686.037	1	14
686.206	1	0
686.375	1	-2
686.545	1	2
686.714	1	-5
686.883	1	-1
687.053	1	-6
687.222	1	-5
687.391	1	5
687.561	1	-1
687.730	1	-2
687.899	1	-6
688.069	1	0
688.238	1	0
688.407	1	4
688.577	1	0
688.746	1	-3
