340.368	1	-7
340.539	1	-2
340.710	1	-8
340.881	1	2
341.052	1	7
341.223	1	9
341.394	1	-2
341.565	1	0
341.737	1	11
341.908	1	4
342.079	1	-12
342.250	1	-7
342.421	1	5
342.592	1	0
342.763	1	-6
342.934	1	2
343.105	1	12
343.276	1	-1
343.447	1	3
343.618	1	0
343.789	1	-5
343.960	1	3
344.131	1	1
344.302	1	1
344.473	1	1
344.644	1	-5
344.815	1	7
344.986	1	4
345.157	1	2
345.328	1	-12
345.499	1	4
345.670	1	10
345.841	1	3
346.012	1	4
346.183	1	2
346.354	1	-6
346.526	1	10
346.697	1	-1
346.868	1	-2
347.039	1	8
347.210	1	0
347.381	1	0
347.552	1	-10
347.723	1	4
347.894	1	6
348.065	1	3
348.236	1	4
348.407	1	4
348.578	1	-2
348.749	1	7
348.920	1	6
349.091	1	-3
349.262	1	4
349.433	1	0
349.604	1	14
349.775	1	13
349.946	1	11
350.117	1	-1
350.288	1	0
350.459	1	7
350.630	1	-9
350.801	1	11
350.972	1	-6
351.143	1	-4
351.314	1	-1
351.485	1	-2
351.656	1	3
351.827	1	0
351.998	1	1
352.169	1	14
352.340	1	-2
352.511	1	0
352.682	1	-3
352.853	1	4
353.024	1	-4
353.195	1	0
353.366	1	1
353.537	1	-1
353.708	1	9
353.879	1	7
354.050	1	10
354.221	1	-2
354.392	1	7
354.563	1	3
354.734	1	-1
354.905	1	12
355.076	1	-1
355.247	1	-1
355.418	1	4
355.589	1	1
355.760	1	11
355.931	1	-4
356.102	1	1
356.273	1	3
356.444	1	9
356.615	1	7
356.785	1	12
356.956	1	0
357.127	1	10
357.298	1	8
357.469	1	7
357.640	1	7
357.811	1	14
357.982	1	0
358.153	1	10
358.324	1	-2
358.495	1	0
358.666	1	-4
358.837	1	7
359.008	1	-2
359.179	1	-5
359.350	1	5
359.521	1	-3
359.692	1	2
359.863	1	-4
360.034	1	-10
360.205	1	-3
360.376	1	-1
360.547	1	12
360.718	1	-9
360.889	1	1
361.060	1	10
361.231	1	1
361.401	1	0
361.572	1	1
361.743	1	-4
361.914	1	6
362.085	1	-5
362.256	1	12
362.427	1	4
362.598	1	5
362.769	1	14
362.940	1	3
363.111	1	11
363.282	1	-5
363.453	1	1
363.624	1	-3
363.795	1	6
363.966	1	2
364.137	1	-6
364.308	1	3
364.478	1	-5
364.649	1	-2
364.820	1	3
364.991	1	3
365.162	1	-6
365.333	1	5
365.504	1	-9
365.675	1	-1
365.846	1	1
366.017	1	9
366.188	1	4
366.359	1	5
366.530	1	-1
366.701	1	-4
366.871	1	14
367.042	1	5
367.213	1	4
367.384	1	5
367.555	1	0
367.726	1	7
367.897	1	7
368.068	1	-6
368.239	1	7
368.410	1	7
368.581	1	-1
368.752	1	-10
368.923	1	-5
369.093	1	-3
369.264	1	-1
369.435	1	6
369.606	1	-2
369.777	1	-5
369.948	1	5
370.119	1	6
370.290	1	3
370.461	1	4
370.632	1	4
370.803	1	-6
370.973	1	13
371.144	1	7
371.315	1	-1
371.486	1	13
371.657	1	1
371.828	1	2
371.999	1	9
372.170	1	8
372.341	1	6
372.512	1	-1
372.682	1	2
372.853	1	8
373.024	1	8
373.195	1	-5
373.366	1	1
373.537	1	-5
373.708	1	5
373.879	1	12
374.050	1	6
374.220	1	6
374.391	1	1
374.562	1	0
374.733	1	9
374.904	1	-1
375.075	1	6
375.246	1	-2
375.417	1	8
375.588	1	4
375.758	1	-11
375.929	1	2
376.100	1	10
376.271	1	-9
376.442	1	1
376.613	1	6
376.784	1	9
376.955	1	-2
377.125	1	2
377.296	1	3
377.467	1	0
377.638	1	6
377.809	1	13
377.980	1	9
378.151	1	-4
378.321	1	11
378.492	1	2
378.663	1	-7
378.834	1	4
379.005	1	18
379.176	1	-8
379.347	1	11
379.518	1	-8
379.688	1	-7
379.859	1	-5
380.030	1	3
380.201	1	-3
380.372	1	-1
380.543	1	4
380.714	1	3
380.884	1	-5
381.055	1	2
381.226	1	-4
381.397	1	-5
381.568	1	5
381.739	1	8
381.910	1	1
382.080	1	1
382.251	1	7
382.422	1	12
382.593	1	-2
382.764	1	-2
382.935	1	3
383.105	1	-3
383.276	1	-1
383.447	1	7
383.618	1	12
383.789	1	13
383.960	1	-6
384.130	1	-2
384.301	1	0
384.472	1	-8
384.643	1	3
384.814	1	3
384.985	1	1
385.156	1	8
385.326	1	3
385.497	1	5
385.668	1	-5
385.839	1	-1
386.010	1	11
386.180	1	-2
386.351	1	-5
386.522	1	10
386.693	1	-7
386.864	1	-11
387.035	1	-3
387.205	1	0
387.376	1	5
387.547	1	-7
387.718	1	7
387.889	1	2
388.060	1	-13
388.230	1	1
388.401	1	6
388.572	1	5
388.743	1	5
388.914	1	11
389.084	1	13
389.255	1	6
389.426	1	4
389.597	1	-10
389.768	1	9
389.939	1	6
390.109	1	-3
390.280	1	7
390.451	1	12
390.622	1	-6
390.793	1	-1
390.963	1	6
391.134	1	9
391.305	1	4
391.476	1	13
391.647	1	4
391.817	1	2
391.988	1	-5
392.159	1	6
392.330	1	10
392.501	1	4
392.671	1	14
392.842	1	4
393.013	1	8
393.184	1	4
393.355	1	6
393.525	1	9
393.696	1	3
393.867	1	4
394.038	1	-2
394.208	1	7
394.379	1	-4
394.550	1	2
394.721	1	7
394.892	1	5
395.062	1	-9
395.233	1	10
395.404	1	-3
395.575	1	-6
395.746	1	-2
395.916	1	7
396.087	1	3
396.258	1	6
396.429	1	3
396.599	1	-3
396.770	1	7
396.941	1	6
397.112	1	-1
397.283	1	6
397.453	1	-13
397.624	1	6
397.795	1	0
397.966	1	10
398.136	1	11
398.307	1	4
398.478	1	-3
398.649	1	10
398.819	1	4
398.990	1	-7
399.161	1	7
399.332	1	8
399.503	1	7
399.673	1	9
399.844	1	-5
400.015	1	6
400.186	1	12
400.356	1	-3
400.527	1	3
400.698	1	1
400.869	1	13
401.039	1	-3
401.210	1	-8
401.381	1	14
401.552	1	7
401.722	1	10
401.893	1	6
402.064	1	-7
402.235	1	6
402.405	1	5
402.576	1	10
402.747	1	-3
402.918	1	-6
403.088	1	0
403.259	1	-7
403.430	1	-4
403.601	1	-5
403.771	1	11
403.942	1	8
404.113	1	8
404.284	1	-1
404.454	1	3
404.625	1	1
404.796	1	-5
404.967	1	5
405.137	1	2
405.308	1	3
405.479	1	5
405.649	1	-3
405.820	1	-3
405.991	1	13
406.162	1	-2
406.332	1	2
406.503	1	7
406.674	1	6
406.845	1	5
407.015	1	-5
407.186	1	14
407.357	1	5
407.527	1	1
407.698	1	-8
407.869	1	-4
408.040	1	-3
408.210	1	-2
408.381	1	1
408.552	1	5
408.722	1	2
408.893	1	0
409.064	1	3
409.235	1	1
409.405	1	-5
409.576	1	7
409.747	1	-3
409.917	1	3
410.088	1	10
410.259	1	0
410.430	1	11
410.600	1	3
410.771	1	2
410.942	1	3
411.112	1	13
411.283	1	-11
411.454	1	8
411.625	1	8
411.795	1	4
411.966	1	2
412.137	1	10
412.307	1	1
412.478	1	2
412.649	1	3
412.819	1	0
412.990	1	2
413.161	1	1
413.332	1	8
413.502	1	8
413.673	1	1
413.844	1	-1
414.014	1	0
414.185	1	2
414.356	1	1
414.526	1	-4
414.697	1	4
414.868	1	3
415.038	1	6
415.209	1	0
415.380	1	4
415.550	1	-7
415.721	1	6
415.892	1	-12
416.063	1	14
416.233	1	2
416.404	1	2
416.575	1	-3
416.745	1	-3
416.916	1	5
417.087	1	-1
417.257	1	9
417.428	1	-8
417.599	1	5
417.769	1	4
417.940	1	2
418.111	1	7
418.281	1	-2
418.452	1	-3
418.623	1	-7
418.793	1	7
418.964	1	-6
419.135	1	3
419.305	1	8
419.476	1	4
419.647	1	-3
419.817	1	7
419.988	1	-3
420.159	1	-19
420.329	1	4
420.500	1	0
420.671	1	6
420.841	1	13
421.012	1	6
421.183	1	0
421.353	1	10
421.524	1	2
421.695	1	6
421.865	1	5
422.036	1	-4
422.206	1	-3
422.377	1	8
422.548	1	-4
422.718	1	-3
422.889	1	-1
423.060	1	-2
423.230	1	8
423.401	1	10
423.572	1	0
423.742	1	6
423.913	1	13
424.084	1	-4
424.254	1	4
424.425	1	-3
424.595	1	-7
424.766	1	5
424.937	1	0
425.107	1	1
425.278	1	-6
425.449	1	3
425.619	1	-5
425.790	1	1
425.961	1	11
426.131	1	-1
426.302	1	2
426.472	1	-4
426.643	1	4
426.814	1	11
426.984	1	2
427.155	1	-4
427.326	1	-2
427.496	1	4
427.667	1	8
427.837	1	-1
428.008	1	3
428.179	1	-3
428.349	1	-8
428.520	1	-4
428.691	1	5
428.861	1	3
429.032	1	-2
429.202	1	9
429.373	1	-9
429.544	1	1
429.714	1	8
429.885	1	2
430.055	1	-2
430.226	1	4
430.397	1	4
430.567	1	4
430.738	1	7
430.909	1	-3
431.079	1	0
431.250	1	-7
431.420	1	1
431.591	1	2
431.762	1	2
431.932	1	7
432.103	1	-5
432.273	1	-8
432.444	1	10
432.615	1	-3
432.785	1	-8
432.956	1	-11
433.126	1	1
433.297	1	15
433.468	1	2
433.638	1	2
433.809	1	5
433.979	1	6
434.150	1	-4
434.320	1	2
434.491	1	10
434.662	1	2
434.832	1	-1
435.003	1	2
435.173	1	1
435.344	1	4
435.515	1	-3
435.685	1	21
435.856	1	4
436.026	1	6
436.197	1	-5
436.368	1	-4
436.538	1	8
436.709	1	-5
436.879	1	-4
437.050	1	8
437.220	1	10
437.391	1	5
437.562	1	18
437.732	1	-3
437.903	1	-2
438.073	1	6
438.244	1	-12
438.414	1	2
438.585	1	0
438.756	1	4
438.926	1	-1
439.097	1	12
439.267	1	2
439.438	1	9
439.608	1	-4
439.779	1	-4
439.949	1	-1
440.120	1	1
440.291	1	-7
440.461	1	-4
440.632	1	11
440.802	1	-1
440.973	1	14
441.143	1	4
441.314	1	7
441.485	1	-4
441.655	1	7
441.826	1	-2
441.996	1	-4
442.167	1	-3
442.337	1	6
442.508	1	6
442.678	1	-8
442.849	1	4
443.019	1	8
443.190	1	-14
443.361	1	9
443.531	1	4
443.702	1	-2
443.872	1	5
444.043	1	5
444.213	1	-5
444.384	1	-3
444.554	1	0
444.725	1	-2
444.895	1	-4
445.066	1	1
445.237	1	-1
445.407	1	7
445.578	1	13
445.748	1	-6
445.919	1	-10
446.089	1	16
446.260	1	1
446.430	1	-9
446.601	1	0
446.771	1	-1
446.942	1	9
447.112	1	6
447.283	1	9
447.453	1	-7
447.624	1	11
447.794	1	3
447.965	1	-10
448.135	1	2
448.306	1	6
448.477	1	1
448.647	1	10
448.818	1	8
448.988	1	-13
449.159	1	-9
449.329	1	-4
449.500	1	9
449.670	1	13
449.841	1	1
450.011	1	0
450.182	1	-6
450.352	1	3
450.523	1	-2
450.693	1	12
450.864	1	3
451.034	1	7
451.205	1	2
451.375	1	17
451.546	1	7
451.716	1	3
451.887	1	4
452.057	1	11
452.228	1	-5
452.398	1	12
452.569	1	9
452.739	1	7
452.910	1	-4
453.080	1	11
453.251	1	1
453.421	1	-4
453.592	1	-5
453.762	1	8
453.933	1	12
454.103	1	3
454.274	1	13
454.444	1	17
454.615	1	16
454.785	1	-4
454.956	1	1
455.126	1	1
455.297	1	4
455.467	1	11
455.638	1	-7
455.808	1	4
455.979	1	12
456.149	1	-4
456.320	1	1
456.490	1	1
456.661	1	-7
456.831	1	14
457.001	1	-1
457.172	1	-1
457.342	1	8
457.513	1	11
457.683	1	12
457.854	1	-1
458.024	1	8
458.195	1	-9
458.365	1	-3
458.536	1	5
458.706	1	2
458.877	1	-2
459.047	1	-2
459.218	1	5
459.388	1	3
459.559	1	7
459.729	1	9
459.899	1	5
460.070	1	13
460.240	1	10
460.411	1	6
460.581	1	12
460.752	1	6
460.922	1	1
461.093	1	8
461.263	1	15
461.434	1	13
461.604	1	11
461.775	1	-1
461.945	1	15
462.115	1	-13
462.286	1	4
462.456	1	-3
462.627	1	4
462.797	1	-4
462.968	1	6
463.138	1	21
463.309	1	-6
463.479	1	17
463.649	1	3
463.820	1	5
463.990	1	1
464.161	1	14
464.331	1	6
464.502	1	6
464.672	1	4
464.843	1	5
465.013	1	-9
465.183	1	-3
465.354	1	13
465.524	1	5
465.695	1	12
465.865	1	-5
466.036	1	9
466.206	1	4
466.376	1	-3
466.547	1	7
466.717	1	-8
466.888	1	5
467.058	1	7
467.229	1	-1
467.399	1	4
467.569	1	-3
467.740	1	-1
467.910	1	1
468.081	1	10
468.251	1	-8
468.422	1	1
468.592	1	6
468.762	1	-5
468.933	1	9
469.103	1	-10
469.274	1	3
469.444	1	-3
469.614	1	4
469.785	1	13
469.955	1	-1
470.126	1	4
470.296	1	2
470.467	1	-9
470.637	1	9
470.807	1	-3
470.978	1	6
471.148	1	-3
471.319	1	8
471.489	1	4
471.659	1	10
471.830	1	22
472.000	1	5
472.171	1	2
472.341	1	1
472.511	1	9
472.682	1	-1
472.852	1	-2
473.023	1	5
473.193	1	-7
473.363	1	-4
473.534	1	3
473.704	1	3
473.875	1	4
474.045	1	-7
474.215	1	-9
474.386	1	8
474.556	1	-3
474.727	1	6
474.897	1	-4
475.067	1	3
475.238	1	-7
475.408	1	6
475.578	1	-3
475.749	1	-5
475.919	1	-1
476.090	1	-5
476.260	1	5
476.430	1	4
476.601	1	1
476.771	1	1
476.942	1	7
477.112	1	-2
477.282	1	-9
477.453	1	2
477.623	1	2
477.793	1	12
477.964	1	18
478.134	1	16
478.305	1	4
478.475	1	-3
478.645	1	-7
478.816	1	-5
478.986	1	4
479.156	1	0
479.327	1	-6
479.497	1	3
479.667	1	5
479.838	1	8
480.008	1	14
480.179	1	6
480.349	1	6
480.519	1	-4
480.690	1	-4
480.860	1	6
481.030	1	-5
481.201	1	-6
481.371	1	4
481.541	1	3
481.712	1	-2
481.882	1	4
482.053	1	0
482.223	1	2
482.393	1	-11
482.564	1	-5
482.734	1	-4
482.904	1	-6
483.075	1	13
483.245	1	0
483.415	1	7
483.586	1	2
483.756	1	0
483.926	1	13
484.097	1	-1
484.267	1	-3
484.437	1	-5
484.608	1	11
484.778	1	0
484.948	1	3
485.119	1	0
485.289	1	4
485.459	1	3
485.630	1	-7
485.800	1	-3
485.970	1	-2
486.141	1	-7
486.311	1	-3
486.481	1	2
486.652	1	-1
486.822	1	-1
486.992	1	-4
487.163	1	-9
487.333	1	3
487.503	1	-14
487.674	1	-2
487.844	1	2
488.014	1	6
488.185	1	-5
488.355	1	-7
488.525	1	1
488.696	1	-4
488.866	1	5
489.036	1	6
489.207	1	10
489.377	1	3
489.547	1	-6
489.718	1	-2
489.888	1	3
490.058	1	-2
490.228	1	-6
490.399	1	8
490.569	1	10
490.739	1	6
490.910	1	-2
491.080	1	-2
491.250	1	2
491.421	1	1
491.591	1	-10
491.761	1	6
491.932	1	5
492.102	1	-3
492.272	1	8
492.442	1	7
492.613	1	4
492.783	1	-3
492.953	1	6
493.124	1	-3
493.294	1	11
493.464	1	10
493.635	1	3
493.805	1	11
493.975	1	-1
494.145	1	2
494.316	1	6
494.486	1	2
494.656	1	-4
494.827	1	-10
494.997	1	-1
495.167	1	1
495.337	1	4
495.508	1	2
495.678	1	2
495.848	1	6
496.019	1	-1
496.189	1	7
496.359	1	3
496.529	1	-5
496.700	1	2
496.870	1	0
497.040	1	-1
497.211	1	14
497.381	1	-14
497.551	1	8
497.721	1	-5
497.892	1	9
498.062	1	-1
498.232	1	2
498.403	1	6
498.573	1	-6
498.743	1	11
498.913	1	6
499.084	1	-7
499.254	1	2
499.424	1	8
499.594	1	1
499.765	1	-2
499.935	1	-7
500.105	1	0
500.275	1	8
500.446	1	6
500.616	1	-1
500.786	1	10
500.956	1	2
501.127	1	11
501.297	1	-1
501.467	1	-1
501.638	1	8
501.808	1	-7
501.978	1	3
502.148	1	10
502.319	1	5
502.489	1	3
502.659	1	2
502.829	1	1
503.000	1	2
503.170	1	5
503.340	1	-8
503.510	1	6
503.681	1	7
503.851	1	-12
504.021	1	18
504.191	1	6
504.362	1	12
504.532	1	1
504.702	1	6
504.872	1	-5
505.042	1	9
505.213	1	9
505.383	1	-7
505.553	1	-2
505.723	1	12
505.894	1	6
506.064	1	12
506.234	1	13
506.404	1	-2
506.575	1	1
506.745	1	-4
506.915	1	4
507.085	1	4
507.256	1	-9
507.426	1	8
507.596	1	6
507.766	1	5
507.936	1	9
508.107	1	8
508.277	1	-8
508.447	1	-2
508.617	1	7
508.788	1	3
508.958	1	10
509.128	1	-5
509.298	1	13
509.468	1	8
509.639	1	10
509.809	1	9
509.979	1	-1
510.149	1	-2
510.319	1	-4
510.490	1	9
510.660	1	4
510.830	1	3
511.000	1	16
511.171	1	7
511.341	1	-1
511.511	1	4
511.681	1	-2
511.851	1	2
512.022	1	-14
512.192	1	9
512.362	1	-11
512.532	1	-1
512.702	1	-5
512.873	1	21
513.043	1	-1
513.213	1	10
513.383	1	-1
513.553	1	-7
513.724	1	14
513.894	1	0
514.064	1	4
514.234	1	7
514.404	1	9
514.575	1	2
514.745	1	-3
514.915	1	12
515.085	1	-1
515.255	1	-5
515.425	1	-2
515.596	1	-12
515.766	1	2
515.936	1	5
516.106	1	3
516.276	1	6
516.447	1	2
516.617	1	-2
516.787	1	2
516.957	1	-6
517.127	1	3
517.297	1	2
517.468	1	2
517.638	1	16
517.808	1	0
517.978	1	-2
518.148	1	2
518.319	1	-6
518.489	1	0
518.659	1	5
518.829	1	-7
518.999	1	-4
519.169	1	11
519.340	1	-3
519.510	1	3
519.680	1	-5
519.850	1	-11
520.020	1	-4
520.190	1	2
520.361	1	-9
520.531	1	6
520.701	1	10
520.871	1	-4
521.041	1	7
521.211	1	8
521.382	1	5
521.552	1	0
521.722	1	5
521.892	1	-7
522.062	1	-3
522.232	1	4
522.402	1	1
522.573	1	-1
522.743	1	9
522.913	1	12
523.083	1	-12
523.253	1	7
523.423	1	-7
523.593	1	-9
523.764	1	6
523.934	1	-1
524.104	1	8
524.274	1	-4
524.444	1	3
524.614	1	-7
524.784	1	13
524.955	1	0
525.125	1	4
525.295	1	-2
525.465	1	4
525.635	1	14
525.805	1	-5
525.975	1	4
526.146	1	4
526.316	1	-7
526.486	1	0
526.656	1	17
526.826	1	1
526.996	1	10
527.166	1	11
527.337	1	3
527.507	1	-8
527.677	1	15
527.847	1	-7
528.017	1	0
528.187	1	-4
528.357	1	8
528.527	1	-1
528.698	1	-5
528.868	1	5
529.038	1	4
529.208	1	-8
529.378	1	6
529.548	1	-2
529.718	1	-6
529.888	1	-2
530.058	1	-5
530.229	1	-3
530.399	1	3
530.569	1	6
530.739	1	-1
530.909	1	7
531.079	1	14
531.249	1	2
531.419	1	5
531.589	1	-5
531.760	1	10
531.930	1	4
532.100	1	13
532.270	1	14
532.440	1	3
532.610	1	3
532.780	1	3
532.950	1	8
533.120	1	-4
533.290	1	2
533.461	1	9
533.631	1	4
533.801	1	4
533.971	1	9
534.141	1	2
534.311	1	7
534.481	1	-6
534.651	1	2
534.821	1	9
534.991	1	-2
535.162	1	0
535.332	1	5
535.502	1	9
535.672	1	-3
535.842	1	-2
536.012	1	5
536.182	1	-4
536.352	1	1
536.522	1	1
536.692	1	2
536.862	1	1
537.032	1	-6
537.203	1	15
537.373	1	5
537.543	1	-2
537.713	1	9
537.883	1	8
538.053	1	-1
538.223	1	4
538.393	1	12
538.563	1	-1
538.733	1	-6
538.903	1	4
539.073	1	-3
539.243	1	-2
539.413	1	2
539.584	1	0
539.754	1	-5
539.924	1	4
540.094	1	4
540.264	1	3
540.434	1	-5
540.604	1	11
540.774	1	-5
540.944	1	-4
541.114	1	-5
541.284	1	-5
541.454	1	7
541.624	1	11
541.794	1	3
541.964	1	1
542.134	1	10
542.305	1	-2
542.475	1	4
542.645	1	4
542.815	1	7
542.985	1	-4
543.155	1	0
543.325	1	-7
543.495	1	-4
543.665	1	3
543.835	1	-5
544.005	1	-2
544.175	1	9
544.345	1	-5
544.515	1	0
544.685	1	-1
544.855	1	14
545.025	1	4
545.195	1	-2
545.365	1	7
545.535	1	5
545.705	1	3
545.875	1	-4
546.045	1	6
546.216	1	3
546.386	1	6
546.556	1	-3
546.726	1	0
546.896	1	0
547.066	1	-10
547.236	1	-1
547.406	1	10
547.576	1	10
547.746	1	11
547.916	1	12
548.086	1	1
548.256	1	1
548.426	1	-6
548.596	1	8
548.766	1	8
548.936	1	1
549.106	1	4
549.276	1	9
549.446	1	-1
549.616	1	5
549.786	1	12
549.956	1	4
550.126	1	-7
550.296	1	-4
550.466	1	-6
550.636	1	-1
550.806	1	9
550.976	1	3
551.146	1	5
551.316	1	1
551.486	1	7
551.656	1	-2
551.826	1	1
551.996	1	4
552.166	1	-1
552.336	1	-5
552.506	1	-12
552.676	1	-5
552.846	1	10
553.016	1	6
553.186	1	-11
553.356	1	-1
553.526	1	-2
553.696	1	11
553.866	1	-2
554.036	1	-2
554.206	1	-5
554.376	1	-3
554.546	1	-17
554.716	1	4
554.886	1	1
555.056	1	-5
555.226	1	2
555.396	1	-3
555.566	1	14
555.736	1	0
555.906	1	-2
556.076	1	0
556.246	1	4
556.416	1	2
556.586	1	7
556.756	1	6
556.926	1	10
557.096	1	-14
557.266	1	12
557.436	1	5
557.606	1	-5
557.776	1	-1
557.946	1	5
558.116	1	0
558.286	1	7
558.456	1	-2
558.626	1	5
558.796	1	4
558.966	1	1
559.136	1	11
559.306	1	-2
559.476	1	5
559.646	1	0
559.816	1	5
559.986	1	-9
560.155	1	-1
560.325	1	-5
560.495	1	5
560.665	1	-1
560.835	1	6
561.005	1	-2
561.175	1	-3
561.345	1	1
561.515	1	-6
561.685	1	-9
561.855	1	12
562.025	1	-12
562.195	1	8
562.365	1	6
562.535	1	3
562.705	1	4
562.875	1	1
563.045	1	0
563.215	1	-5
563.385	1	-1
563.555	1	6
563.725	1	2
563.895	1	-4
564.064	1	5
564.234	1	7
564.404	1	-4
564.574	1	1
564.744	1	8
564.914	1	-9
565.084	1	-7
565.254	1	0
565.424	1	4
565.594	1	-4
565.764	1	6
565.934	1	6
566.104	1	0
566.274	1	2
566.444	1	5
566.614	1	-1
566.783	1	-2
566.953	1	3
567.123	1	15
567.293	1	1
567.463	1	-4
567.633	1	-5
567.803	1	-4
567.973	1	3
568.143	1	-10
568.313	1	-7
568.483	1	-8
568.653	1	-14
568.823	1	12
568.993	1	-5
569.162	1	0
569.332	1	-4
569.502	1	-3
569.672	1	3
569.842	1	3
570.012	1	3
570.182	1	-1
570.352	1	13
570.522	1	8
570.692	1	3
570.862	1	2
571.031	1	1
571.201	1	6
571.371	1	-2
571.541	1	-5
571.711	1	7
571.881	1	8
572.051	1	3
572.221	1	11
572.391	1	7
572.561	1	-8
572.731	1	4
572.900	1	12
573.070	1	7
573.240	1	3
573.410	1	6
573.580	1	5
573.750	1	11
573.920	1	-6
574.090	1	10
574.260	1	0
574.430	1	-5
574.599	1	-2
574.769	1	-6
574.939	1	-5
575.109	1	-5
575.279	1	5
575.449	1	11
575.619	1	7
575.789	1	13
575.959	1	-5
576.128	1	-1
576.298	1	0
576.468	1	-7
576.638	1	-3
576.808	1	-2
576.978	1	2
577.148	1	0
577.318	1	3
577.487	1	3
577.657	1	-9
577.827	1	4
577.997	1	-6
578.167	1	9
578.337	1	0
578.507	1	-3
578.677	1	1
578.846	1	5
579.016	1	10
579.186	1	-4
579.356	1	0
579.526	1	0
579.696	1	7
579.866	1	6
580.036	1	3
580.205	1	7
580.375	1	6
580.545	1	4
580.715	1	9
580.885	1	5
581.055	1	3
581.225	1	-6
581.394	1	1
581.564	1	-4
581.734	1	4
581.904	1	-4
582.074	1	-5
582.244	1	-1
582.414	1	7
582.583	1	-10
582.753	1	6
582.923	1	-2
583.093	1	0
583.263	1	3
583.433	1	-11
583.603	1	10
583.772	1	-6
583.942	1	9
584.112	1	2
584.282	1	10
584.452	1	0
584.622	1	-5
584.791	1	0
584.961	1	-5
585.131	1	-3
585.301	1	4
585.471	1	-3
585.641	1	4
585.811	1	0
585.980	1	-12
586.150	1	2
586.320	1	-6
586.490	1	1
586.660	1	12
586.830	1	-8
586.999	1	1
587.169	1	-3
587.339	1	-2
587.509	1	11
587.679	1	7
587.849	1	1
588.018	1	8
588.188	1	-1
588.358	1	6
588.528	1	10
588.698	1	-7
588.867	1	6
589.037	1	4
589.207	1	-10
589.377	1	9
589.547	1	-12
589.717	1	2
589.886	1	-9
590.056	1	-4
590.226	1	-1
590.396	1	15
590.566	1	-6
590.735	1	10
590.905	1	0
591.075	1	-9
591.245	1	-4
591.415	1	5
591.585	1	-8
591.754	1	7
591.924	1	-4
592.094	1	-1
592.264	1	9
592.434	1	2
592.603	1	-2
592.773	1	-6
592.943	1	-9
593.113	1	5
593.283	1	8
593.452	1	-7
593.622	1	-5
593.792	1	8
593.962	1	8
594.132	1	-2
594.301	1	16
594.471	1	9
594.641	1	0
594.811	1	2
594.981	1	-4
595.150	1	-3
595.320	1	5
595.490	1	-10
595.660	1	-2
595.829	1	3
595.999	1	-2
596.169	1	-2
596.339	1	0
596.509	1	4
596.678	1	-1
596.848	1	3
597.018	1	0
597.188	1	5
597.358	1	6
597.527	1	0
597.697	1	-10
597.867	1	6
598.037	1	-5
598.206	1	-7
598.376	1	4
598.546	1	2
598.716	1	-7
598.885	1	-7
599.055	1	10
599.225	1	3
599.395	1	10
599.565	1	3
599.734	1	1
599.904	1	-7
600.074	1	-5
600.244	1	7
600.413	1	-2
600.583	1	-5
600.753	1	10
600.923	1	13
601.092	1	-9
601.262	1	5
601.432	1	2
601.602	1	5
601.771	1	12
601.941	1	-12
602.111	1	-8
602.281	1	1
602.451	1	-3
602.620	1	11
602.790	1	4
602.960	1	-3
603.130	1	-3
603.299	1	7
603.469	1	-3
603.639	1	2
603.809	1	5
603.978	1	8
604.148	1	6
604.318	1	4
604.487	1	-5
604.657	1	4
604.827	1	-7
604.997	1	-2
605.166	1	-2
605.336	1	2
605.506	1	5
605.676	1	-4
605.845	1	4
606.015	1	11
606.185	1	5
606.355	1	8
606.524	1	-7
606.694	1	9
606.864	1	-4
607.034	1	-7
607.203	1	4
607.373	1	-5
607.543	1	-7
607.712	1	10
607.882	1	-8
608.052	1	-1
608.222	1	9
608.391	1	-1
608.561	1	2
608.731	1	-8
608.901	1	11
609.070	1	4
609.240	1	1
609.410	1	3
609.579	1	13
609.749	1	-5
609.919	1	-4
610.089	1	-13
610.258	1	7
610.428	1	6
610.598	1	-6
610.767	1	1
610.937	1	-7
611.107	1	9
611.277	1	3
611.446	1	-1
611.616	1	-4
611.786	1	7
611.955	1	5
612.125	1	1
612.295	1	2
612.465	1	-4
612.634	1	-5
612.804	1	15
612.974	1	14
613.143	1	-8
613.313	1	2
613.483	1	12
613.652	1	-3
613.822	1	-9
613.992	1	11
614.162	1	10
614.331	1	3
614.501	1	4
614.671	1	9
614.840	1	1
615.010	1	3
615.180	1	1
615.349	1	-1
615.519	1	10
615.689	1	0
615.858	1	10
616.028	1	15
616.198	1	8
616.368	1	-2
616.537	1	-10
616.707	1	7
616.877	1	9
617.046	1	10
617.216	1	0
617.386	1	0
617.555	1	6
617.725	1	7
617.895	1	1
618.064	1	6
618.234	1	10
618.404	1	14
618.573	1	1
618.743	1	7
618.913	1	-3
619.082	1	8
619.252	1	3
619.422	1	0
619.591	1	4
619.761	1	3
619.931	1	-1
620.100	1	3
620.270	1	0
620.440	1	1
620.609	1	0
620.779	1	-2
620.949	1	-2
621.118	1	-5
621.288	1	7
621.458	1	7
621.627	1	-5
621.797	1	7
621.967	1	-1
622.136	1	6
622.306	1	15
622.476	1	4
622.645	1	10
622.815	1	0
622.985	1	3
623.154	1	7
623.324	1	0
623.494	1	4
623.663	1	-2
623.833	1	3
624.002	1	-4
624.172	1	6
624.342	1	-5
624.511	1	-4
624.681	1	-10
624.851	1	-12
625.020	1	0
625.190	1	4
625.360	1	-3
625.529	1	3
625.699	1	-2
625.869	1	7
626.038	1	6
626.208	1	-1
626.377	1	12
626.547	1	9
626.717	1	-2
626.886	1	-2
627.056	1	-3
627.226	1	3
627.395	1	6
627.565	1	6
627.735	1	5
627.904	1	8
628.074	1	5
628.243	1	4
628.413	1	1
628.583	1	0
628.752	1	8
628.922	1	0
629.091	1	-1
629.261	1	5
629.431	1	-4
629.600	1	11
629.770	1	5
629.940	1	0
630.109	1	6
630.279	1	-5
630.448	1	-3
630.618	1	-1
630.788	1	-3
630.957	1	-7
631.127	1	10
631.297	1	0
631.466	1	5
631.636	1	7
631.805	1	-3
631.975	1	0
632.145	1	-12
632.314	1	7
632.484	1	-4
632.653	1	-5
632.823	1	17
632.993	1	6
633.162	1	7
633.332	1	-1
633.501	1	-6
633.671	1	-1
633.841	1	-4
634.010	1	-3
634.180	1	7
634.349	1	6
634.519	1	8
634.689	1	12
634.858	1	14
635.028	1	4
635.197	1	4
635.367	1	6
635.537	1	1
635.706	1	-7
635.876	1	4
636.045	1	5
636.215	1	0
636.384	1	4
636.554	1	13
636.724	1	-3
636.893	1	2
637.063	1	2
637.232	1	0
637.402	1	4
637.572	1	-2
637.741	1	7
637.911	1	4
638.080	1	11
638.250	1	5
638.419	1	10
638.589	1	11
638.759	1	-1
638.928	1	-10
639.098	1	3
639.267	1	-4
639.437	1	-4
639.606	1	14
639.776	1	-4
639.946	1	8
640.115	1	-2
640.285	1	-1
640.454	1	13
640.624	1	7
640.793	1	5
640.963	1	-5
641.132	1	16
641.302	1	-8
641.472	1	-7
641.641	1	-2
641.811	1	3
641.980	1	0
642.150	1	2
642.319	1	3
642.489	1	2
642.659	1	-2
642.828	1	-1
642.998	1	2
643.167	1	16
643.337	1	5
643.506	1	-10
643.676	1	1
643.845	1	4
644.015	1	-3
644.184	1	7
644.354	1	8
644.524	1	-8
644.693	1	5
644.863	1	-6
645.032	1	-3
645.202	1	4
645.371	1	-12
645.541	1	-6
645.710	1	7
645.880	1	-6
646.049	1	8
646.219	1	2
646.388	1	1
646.558	1	0
646.728	1	-9
646.897	1	-6
647.067	1	-7
647.236	1	2
647.406	1	-1
647.575	1	4
647.745	1	1
647.914	1	3
648.084	1	2
648.253	1	5
648.423	1	-1
648.592	1	7
648.762	1	6
648.931	1	9
649.101	1	-2
649.270	1	14
649.440	1	2
649.610	1	8
649.779	1	0
649.949	1	-1
650.118	1	-6
650.288	1	5
650.457	1	-2
650.627	1	3
650.796	1	0
650.966	1	-9
651.135	1	0
651.305	1	-4
651.474	1	6
651.644	1	-6
651.813	1	1
651.983	1	3
652.152	1	3
652.322	1	3
652.491	1	5
652.661	1	4
652.830	1	2
653.000	1	3
653.169	1	11
653.339	1	-1
653.508	1	2
653.678	1	-7
653.847	1	4
654.017	1	4
654.186	1	3
654.356	1	11
654.525	1	-3
654.695	1	0
654.864	1	3
655.034	1	0
655.203	1	8
655.373	1	3
655.542	1	-1
655.712	1	8
655.881	1	13
656.051	1	15
656.220	1	3
656.390	1	3
656.559	1	-2
656.729	1	-1
656.898	1	7
657.068	1	4
657.237	1	7
657.406	1	0
657.576	1	-2
657.745	1	10
657.915	1	9
658.084	1	8
658.254	1	-4
658.423	1	1
658.593	1	-13
658.762	1	2
658.932	1	-4
659.101	1	5
659.271	1	7
659.440	1	13
659.610	1	-3
659.779	1	-3
659.949	1	-12
660.118	1	10
660.288	1	1
660.457	1	-5
660.626	1	1
660.796	1	-7
660.965	1	-2
661.135	1	8
661.304	1	10
661.474	1	1
661.643	1	5
661.813	1	-5
661.982	1	-9
662.152	1	-5
662.321	1	5
662.491	1	-2
662.660	1	-2
662.829	1	0
662.999	1	-2
663.168	1	-1
663.338	1	-1
663.507	1	-10
663.677	1	-11
663.846	1	13
664.016	1	3
664.185	1	1
664.354	1	6
664.524	1	-2
664.693	1	7
664.863	1	5
665.032	1	-3
665.202	1	-2
665.371	1	8
665.541	1	1
665.710	1	-3
665.879	1	-1
666.049	1	4
666.218	1	-13
666.388	1	3
666.557	1	5
666.727	1	-12
666.896	1	-5
667.065	1	3
667.235	1	7
667.404	1	-3
667.574	1	6
667.743	1	2
667.913	1	5
668.082	1	0
668.251	1	5
668.421	1	-1
668.590	1	0
668.760	1	1
668.929	1	1
669.099	1	5
669.268	1	0
669.437	1	14
669.607	1	-9
669.776	1	6
669.946	1	9
670.115	1	4
670.285	1	5
670.454	1	-1
670.623	1	7
670.793	1	0
670.962	1	0
671.132	1	7
671.301	1	2
671.470	1	-9
671.640	1	-15
671.809	1	0
671.979	1	13
672.148	1	-2
672.317	1	5
672.487	1	-7
672.656	1	2
672.826	1	-15
672.995	1	2
673.164	1	3
673.334	1	9
673.503	1	-1
673.673	1	24
673.842	1	2
674.011	1	2
674.181	1	-7
674.350	1	-4
674.520	1	-11
674.689	1	-2
674.858	1	-6
675.028	1	3
675.197	1	-7
675.367	1	7
675.536	1	4
675.705	1	-8
675.875	1	0
676.044	1	-4
676.214	1	1
676.383	1	-1
676.552	1	-7
676.722	1	3
676.891	1	-18
677.060	1	0
677.230	1	17
677.399	1	7
677.569	1	-8
677.738	1	2
677.907	1	-3
678.077	1	-2
678.246	1	-4
678.416	1	-4
678.585	1	8
678.754	1	1
678.924	1	0
679.093	1	5
679.262	1	8
679.432	1	-7
679.601	1	-12
679.771	1	-8
679.940	1	-5
680.109	1	8
680.279	1	2
680.448	1	-11
680.617	1	-5
680.787	1	0
680.956	1	5
681.125	1	4
681.295	1	3
681.464	1	7
681.634	1	10
681.803	1	-10
681.972	1	-16
682.142	1	20
682.311	1	3
682.480	1	1
682.650	1	-1
682.819	1	5
682.988	1	3
683.158	1	3
683.327	1	-1
683.496	1	1
683.666	1	9
683.835	1	-3
684.004	1	4
684.174	1	2
684.343	1	-1
684.512	1	4
684.682	1	10
684.851	1	3
685.021	1	5
685.190	1	13
685.359	1	-5
685.529	1	0
685.698	1	6
685.867	1	2
686.037	1	6
686.206	1	3
686.375	1	1
686.545	1	3
686.714	1	0
686.883	1	-1
687.053	1	6
687.222	1	-1
687.391	1	1
687.561	1	4
687.730	1	6
687.899	1	-7
688.069	1	5
688.238	1	8
688.407	1	0
688.577	1	-4
688.746	1	3
