340.368	1	4
340.539	1	-1
340.710	1	-6
340.881	1	2
341.052	1	-2
341.223	1	11
341.394	1	-2
341.565	1	-8
341.737	1	3
341.908	1	11
342.079	1	1
342.250	1	-2
342.421	1	-5
342.592	1	-5
342.763	1	-1
342.934	1	0
343.105	1	8
343.276	1	-3
343.447	1	-1
343.618	1	8
343.789	1	-2
343.960	1	4
344.131	1	0
344.302	1	-1
344.473	1	-3
344.644	1	-3
344.815	1	1
344.986	1	4
345.157	1	4
345.328	1	-1
345.499	1	9
345.670	1	3
345.841	1	-2
346.012	1	5
346.183	1	-4
346.354	1	-8
346.526	1	6
346.697	1	0
346.868	1	-1
347.039	1	2
347.210	1	-3
347.381	1	3
347.552	1	4
347.723	1	11
347.894	1	-1
348.065	1	-4
348.236	1	-6
348.407	1	5
348.578	1	3
348.749	1	4
348.920	1	1
349.091	1	5
349.262	1	-7
349.433	1	-7
349.604	1	13
349.775	1	-1
349.946	1	8
350.117	1	6
350.288	1	4
350.459	1	-1
350.630	1	-9
350.801	1	0
350.972	1	0
351.143	1	-12
351.314	1	-3
351.485	1	-5
351.656	1	4
351.827	1	-2
351.998	1	-3
352.169	1	15
352.340	1	-3
352.511	1	-4
352.682	1	-2
352.853	1	-9
353.024	1	-6
353.195	1	-5
353.366	1	4
353.537	1	4
353.708	1	0
353.879	1	5
354.050	1	7
354.221	1	-10
354.392	1	13
354.563	1	10
354.734	1	3
354.905	1	2
355.076	1	6
355.247	1	-10
355.418	1	-1
355.589	1	-3
355.760	1	-3
355.931	1	2
356.102	1	-5
356.273	1	6
356.444	1	11
356.615	1	6
356.785	1	4
356.956	1	4
357.127	1	-1
357.298	1	-5
357.469	1	1
357.640	1	5
357.811	1	15
357.982	1	-4
358.153	1	2
358.324	1	-3
358.495	1	7
358.666	1	0
358.837	1	5
359.008	1	0
359.179	1	3
359.350	1	0
359.521	1	0
359.692	1	8
359.863	1	-7
360.034	1	-3
360.205	1	-8
360.376	1	2
360.547	1	6
360.718	1	-7
360.889	1	12
361.060	1	10
361.231	1	-2
361.401	1	0
361.572	1	6
361.743	1	-7
361.914	1	-1
362.085	1	-1
362.256	1	-8
362.427	1	-6
362.598	1	3
362.769	1	10
362.940	1	-6
363.111	1	16
363.282	1	5
363.453	1	5
363.624	1	4
363.795	1	5
363.966	1	2
364.137	1	-3
364.308	1	-11
364.478	1	0
364.649	1	3
364.820	1	5
364.991	1	5
365.162	1	-6
365.333	1	6
365.504	1	-6
365.675	1	-8
365.846	1	-6
366.017	1	3
366.188	1	-9
366.359	1	-3
366.530	1	10
366.701	1	-11
366.871	1	7
367.042	1	5
367.213	1	3
367.384	1	6
367.555	1	-3
367.726	1	12
367.897	1	4
368.068	1	-6
368.239	1	6
368.410	1	6
368.581	1	-3
368.752	1	-8
368.923	1	-11
369.093	1	12
369.264	1	1
369.435	1	-4
369.606	1	-5
369.777	1	4
369.948	1	5
370.119	1	2
370.290	1	-3
370.461	1	8
370.632	1	-1
370.803	1	-8
370.973	1	13
371.144	1	1
371.315	1	-6
371.486	1	5
371.657	1	-3
371.828	1	1
371.999	1	-5
372.170	1	10
372.341	1	4
372.512	1	-2
372.682	1	-2
372.853	1	-4
373.024	1	5
373.195	1	-1
373.366	1	9
373.537	1	1
373.708	1	2
373.879	1	11
374.050	1	2
374.220	1	5
374.391	1	3
374.562	1	-3
374.733	1	10
374.904	1	2
375.075	1	4
375.246	1	-3
375.417	1	1
375.588	1	3
375.758	1	-4
375.929	1	3
376.100	1	14
376.271	1	-4
376.442	1	-7
376.613	1	5
376.784	1	3
376.955	1	-5
377.125	1	8
377.296	1	2
377.467	1	-10
377.638	1	0
377.809	1	3
377.980	1	7
378.151	1	2
378.321	1	2
378.492	1	-1
378.663	1	-4
378.834	1	4
379.005	1	3
379.176	1	6
379.347	1	5
379.518	1	-11
379.688	1	-3
379.859	1	-4
380.030	1	-4
380.201	1	-12
380.372	1	-1
380.543	1	6
380.714	1	12
380.884	1	-3
381.055	1	7
381.226	1	-5
381.397	1	-4
381.568	1	0
381.739	1	6
381.910	1	4
382.080	1	-7
382.251	1	1
382.422	1	20
382.593	1	0
382.764	1	2
382.935	1	8
383.105	1	0
383.276	1	-3
383.447	1	18
383.618	1	8
383.789	1	9
383.960	1	0
384.130	1	-3
384.301	1	2
384.472	1	5
384.643	1	2
384.814	1	8
384.985	1	-4
385.156	1	7
385.326	1	9
385.497	1	-1
385.668	1	1
385.839	1	6
386.010	1	2
386.180	1	7
386.351	1	2
386.522	1	-2
386.693	1	5
386.864	1	1
387.035	1	-6
387.205	1	-3
387.376	1	8
387.547	1	-11
387.718	1	12
387.889	1	18
388.060	1	-4
388.230	1	-2
388.401	1	17
388.572	1	5
388.743	1	0
388.914	1	12
389.084	1	8
389.255	1	-1
389.426	1	8
389.597	1	-7
389.768	1	1
389.939	1	12
390.109	1	-7
390.280	1	7
390.451	1	18
390.622	1	-6
390.793	1	5
390.963	1	3
391.134	1	4
391.305	1	9
391.476	1	15
391.647	1	12
391.817	1	1
391.988	1	-1
392.159	1	8
392.330	1	2
392.501	1	2
392.671	1	4
392.842	1	4
393.013	1	-3
393.184	1	7
393.355	1	9
393.525	1	6
393.696	1	-7
393.867	1	1
394.038	1	-1
394.208	1	6
394.379	1	-4
394.550	1	6
394.721	1	2
394.892	1	5
395.062	1	-2
395.233	1	6
395.404	1	7
395.575	1	-3
395.746	1	-2
395.916	1	5
396.087	1	3
396.258	1	-2
396.429	1	3
396.599	1	4
396.770	1	11
396.941	1	5
397.112	1	-6
397.283	1	7
397.453	1	-9
397.624	1	-3
397.795	1	7
397.966	1	3
398.136	1	-3
398.307	1	2
398.478	1	-7
398.649	1	1
398.819	1	14
398.990	1	-1
399.161	1	9
399.332	1	4
399.503	1	-4
399.673	1	-4
399.844	1	-2
400.015	1	9
400.186	1	5
400.356	1	-11
400.527	1	6
400.698	1	-9
400.869	1	11
401.039	1	-2
401.210	1	-10
401.381	1	3
401.552	1	16
401.722	1	3
401.893	1	0
402.064	1	0
402.235	1	14
402.405	1	-5
402.576	1	3
402.747	1	-2
402.918	1	-2
403.088	1	-10
403.259	1	-11
403.430	1	1
403.601	1	-9
403.771	1	2
403.942	1	-1
404.113	1	10
404.284	1	-3
404.454	1	12
404.625	1	0
404.796	1	8
404.967	1	5
405.137	1	2
405.308	1	-2
405.479	1	2
405.649	1	0
405.820	1	-1
405.991	1	7
406.162	1	-1
406.332	1	-4
406.503	1	1
406.674	1	-2
406.845	1	-6
407.015	1	-1
407.186	1	7
407.357	1	6
407.527	1	4
407.698	1	-5
407.869	1	-1
408.040	1	-7
408.210	1	-5
408.381	1	-3
408.552	1	8
408.722	1	-1
408.893	1	-3
409.064	1	9
409.235	1	1
409.405	1	17
409.576	1	4
409.747	1	2
409.917	1	-6
410.088	1	4
410.259	1	4
410.430	1	4
410.600	1	2
410.771	1	2
410.942	1	4
411.112	1	-3
411.283	1	-8
411.454	1	0
411.625	1	-7
411.795	1	8
411.966	1	1
412.137	1	9
412.307	1	-1
412.478	1	-1
412.649	1	12
412.819	1	-12
412.990	1	-2
413.161	1	8
413.332	1	-3
413.502	1	-6
413.673	1	4
413.844	1	2
414.014	1	-4
414.185	1	4
414.356	1	-8
414.526	1	-1
414.697	1	13
414.868	1	2
415.038	1	1
415.209	1	7
415.380	1	-9
415.550	1	-1
415.721	1	-1
415.892	1	-2
416.063	1	10
416.233	1	-2
416.404	1	5
416.575	1	-4
416.745	1	0
416.916	1	-1
417.087	1	5
417.257	1	4
417.428	1	0
417.599	1	3
417.769	1	0
417.940	1	-13
418.111	1	1
418.281	1	7
418.452	1	1
418.623	1	5
418.793	1	11
418.964	1	7
419.135	1	4
419.305	1	-1
419.476	1	1
419.647	1	9
419.817	1	-1
419.988	1	-5
420.159	1	-11
420.329	1	-1
420.500	1	6
420.671	1	3
420.841	1	4
421.012	1	14
421.183	1	7
421.353	1	5
421.524	1	0
421.695	1	0
421.865	1	-6
422.036	1	-7
422.206	1	-6
422.377	1	6
422.548	1	-4
422.718	1	-4
422.889	1	6
423.060	1	-6
423.230	1	5
423.401	1	-6
423.572	1	4
423.742	1	-5
423.913	1	12
424.084	1	-12
424.254	1	7
424.425	1	-2
424.595	1	-8
424.766	1	-2
424.937	1	-11
425.107	1	2
425.278	1	-4
425.449	1	0
425.619	1	0
425.790	1	-3
425.961	1	-2
426.131	1	12
426.302	1	-8
426.472	1	-8
426.643	1	6
426.814	1	10
426.984	1	2
427.155	1	4
427.326	1	3
427.496	1	7
427.667	1	5
427.837	1	-2
428.008	1	-1
428.179	1	-5
428.349	1	0
428.520	1	-7
428.691	1	6
428.861	1	-3
429.032	1	-6
429.202	1	13
429.373	1	-15
429.544	1	-1
429.714	1	-2
429.885	1	-1
430.055	1	-2
430.226	1	3
430.397	1	3
430.567	1	2
430.738	1	0
430.909	1	-8
431.079	1	11
431.250	1	0
431.420	1	-1
431.591	1	3
431.762	1	7
431.932	1	12
432.103	1	-6
432.273	1	0
432.444	1	2
432.615	1	3
432.785	1	-10
432.956	1	-1
433.126	1	5
433.297	1	6
433.468	1	0
433.638	1	6
433.809	1	0
433.979	1	1
434.150	1	-12
434.320	1	-1
434.491	1	5
434.662	1	-3
434.832	1	-3
435.003	1	5
435.173	1	5
435.344	1	3
435.515	1	-9
435.685	1	11
435.856	1	-4
436.026	1	-3
436.197	1	-1
436.368	1	-8
436.538	1	3
436.709	1	0
436.879	1	6
437.050	1	8
437.220	1	9
437.391	1	4
437.562	1	8
437.732	1	-1
437.903	1	-2
438.073	1	1
438.244	1	-4
438.414	1	4
438.585	1	7
438.756	1	10
438.926	1	0
439.097	1	2
439.267	1	5
439.438	1	-2
439.608	1	-6
439.779	1	-3
439.949	1	-9
440.120	1	-3
440.291	1	-14
440.461	1	-10
440.632	1	9
440.802	1	7
440.973	1	6
441.143	1	10
441.314	1	2
441.485	1	-13
441.655	1	12
441.826	1	-9
441.996	1	4
442.167	1	-4
442.337	1	-5
442.508	1	1
442.678	1	-1
442.849	1	8
443.019	1	8
443.190	1	-3
443.361	1	3
443.531	1	-1
443.702	1	-2
443.872	1	0
444.043	1	-3
444.213	1	-14
444.384	1	3
444.554	1	2
444.725	1	3
444.895	1	-15
445.066	1	-8
445.237	1	3
445.407	1	7
445.578	1	4
445.748	1	3
445.919	1	-4
446.089	1	10
446.260	1	4
446.430	1	-2
446.601	1	-3
446.771	1	2
446.942	1	-3
447.112	1	1
447.283	1	-1
447.453	1	-5
447.624	1	16
447.794	1	-5
447.965	1	-13
448.135	1	4
448.306	1	6
448.477	1	2
448.647	1	15
448.818	1	10
448.988	1	-13
449.159	1	-4
449.329	1	-2
449.500	1	11
449.670	1	10
449.841	1	-5
450.011	1	4
450.182	1	-11
450.352	1	11
450.523	1	-2
450.693	1	-1
450.864	1	-2
451.034	1	1
451.205	1	8
451.375	1	5
451.546	1	-1
451.716	1	9
451.887	1	0
452.057	1	-4
452.228	1	-6
452.398	1	8
452.569	1	1
452.739	1	-1
452.910	1	-1
453.080	1	18
453.251	1	-3
453.421	1	-1
453.592	1	-10
453.762	1	1
453.933	1	-1
454.103	1	2
454.274	1	-6
454.444	1	13
454.615	1	13
454.785	1	-9
454.956	1	-1
455.126	1	-4
455.297	1	4
455.467	1	-3
455.638	1	8
455.808	1	2
455.979	1	0
456.149	1	-6
456.320	1	0
456.490	1	5
456.661	1	2
456.831	1	2
457.001	1	8
457.172	1	-4
457.342	1	-9
457.513	1	10
457.683	1	-1
457.854	1	-5
458.024	1	1
458.195	1	0
458.365	1	0
458.536	1	10
458.706	1	3
458.877	1	-7
459.047	1	2
459.218	1	8
459.388	1	-6
459.559	1	9
459.729	1	-1
459.899	1	10
460.070	1	13
460.240	1	-4
460.411	1	5
460.581	1	-1
460.752	1	4
460.922	1	-9
461.093	1	10
461.263	1	3
461.434	1	3
461.604	1	2
461.775	1	2
461.945	1	7
462.115	1	-9
462.286	1	5
462.456	1	-8
462.627	1	-6
462.797	1	-10
462.968	1	-10
463.138	1	5
463.309	1	4
463.479	1	9
463.649	1	2
463.820	1	0
463.990	1	6
464.161	1	0
464.331	1	-1
464.502	1	7
464.672	1	2
464.843	1	-4
465.013	1	-5
465.183	1	5
465.354	1	4
465.524	1	-2
465.695	1	5
465.865	1	-3
466.036	1	11
466.206	1	-2
466.376	1	-1
466.547	1	-3
466.717	1	-5
466.888	1	-2
467.058	1	0
467.229	1	9
467.399	1	-2
467.569	1	-2
467.740	1	3
467.910	1	-6
468.081	1	-1
468.251	1	-2
468.422	1	4
468.592	1	5
468.762	1	-11
468.933	1	3
469.103	1	-6
469.274	1	-4
469.444	1	1
469.614	1	-6
469.785	1	6
469.955	1	3
470.126	1	0
470.296	1	9
470.467	1	-5
470.637	1	5
470.807	1	3
470.978	1	2
471.148	1	-4
471.319	1	5
471.489	1	3
471.659	1	-1
471.830	1	15
472.000	1	5
472.171	1	1
472.341	1	0
472.511	1	-4
472.682	1	0
472.852	1	-11
473.023	1	-10
473.193	1	-5
473.363	1	2
473.534	1	7
473.704	1	5
473.875	1	9
474.045	1	-18
474.215	1	-11
474.386	1	7
474.556	1	-8
474.727	1	-7
474.897	1	6
475.067	1	-2
475.238	1	3
475.408	1	-2
475.578	1	-1
475.749	1	-6
475.919	1	-2
476.090	1	-5
476.260	1	-1
476.430	1	6
476.601	1	3
476.771	1	0
476.942	1	-3
477.112	1	-2
477.282	1	-19
477.453	1	2
477.623	1	8
477.793	1	5
477.964	1	5
478.134	1	-1
478.305	1	0
478.475	1	2
478.645	1	3
478.816	1	-10
478.986	1	-7
479.156	1	1
479.327	1	-4
479.497	1	2
479.667	1	5
479.838	1	9
480.008	1	5
480.179	1	1
480.349	1	3
480.519	1	-9
480.690	1	-3
480.860	1	8
481.030	1	-9
481.201	1	-8
481.371	1	8
481.541	1	6
481.712	1	6
481.882	1	1
482.053	1	9
482.223	1	0
482.393	1	-13
482.564	1	-8
482.734	1	-4
482.904	1	3
483.075	1	2
483.245	1	7
483.415	1	1
483.586	1	-1
483.756	1	6
483.926	1	14
484.097	1	0
484.267	1	-5
484.437	1	-5
484.608	1	3
484.778	1	-6
484.948	1	-8
485.119	1	5
485.289	1	4
485.459	1	2
485.630	1	-9
485.800	1	-3
485.970	1	6
486.141	1	-4
486.311	1	-6
486.481	1	4
486.652	1	14
486.822	1	7
486.992	1	-1
487.163	1	0
487.333	1	3
487.503	1	-9
487.674	1	7
487.844	1	0
488.014	1	-4
488.185	1	-6
488.355	1	-11
488.525	1	4
488.696	1	-11
488.866	1	13
489.036	1	8
489.207	1	11
489.377	1	8
489.547	1	-4
489.718	1	-1
489.888	1	9
490.058	1	0
490.228	1	-3
490.399	1	5
490.569	1	9
490.739	1	6
490.910	1	-10
491.080	1	4
491.250	1	-5
491.421	1	2
491.591	1	-6
491.761	1	3
491.932	1	10
492.102	1	-13
492.272	1	8
492.442	1	6
492.613	1	6
492.783	1	-7
492.953	1	14
493.124	1	-3
493.294	1	1
493.464	1	-2
493.635	1	-5
493.805	1	12
493.975	1	-3
494.145	1	2
494.316	1	11
494.486	1	5
494.656	1	-1
494.827	1	-2
494.997	1	4
495.167	1	-1
495.337	1	6
495.508	1	3
495.678	1	7
495.848	1	10
496.019	1	1
496.189	1	-6
496.359	1	7
496.529	1	0
496.700	1	-6
496.870	1	-6
497.040	1	-7
497.211	1	3
497.381	1	-11
497.551	1	4
497.721	1	-1
497.892	1	12
498.062	1	-2
498.232	1	6
498.403	1	8
498.573	1	-10
498.743	1	11
498.913	1	1
499.084	1	-9
499.254	1	5
499.424	1	16
499.594	1	-5
499.765	1	3
499.935	1	-10
500.105	1	1
500.275	1	1
500.446	1	4
500.616	1	-2
500.786	1	1
500.956	1	-5
501.127	1	9
501.297	1	3
501.467	1	4
501.638	1	5
501.808	1	-5
501.978	1	10
502.148	1	-3
502.319	1	-9
502.489	1	3
502.659	1	2
502.829	1	1
503.000	1	7
503.170	1	12
503.340	1	-12
503.510	1	-8
503.681	1	3
503.851	1	-10
504.021	1	16
504.191	1	2
504.362	1	10
504.532	1	7
504.702	1	-7
504.872	1	-6
505.042	1	0
505.213	1	-3
505.383	1	-2
505.553	1	-2
505.723	1	12
505.894	1	2
506.064	1	1
506.234	1	10
506.404	1	-14
506.575	1	-2
506.745	1	1
506.915	1	-4
507.085	1	-3
507.256	1	-1
507.426	1	5
507.596	1	6
507.766	1	2
507.936	1	-5
508.107	1	1
508.277	1	0
508.447	1	1
508.617	1	2
508.788	1	2
508.958	1	-4
509.128	1	-4
509.298	1	15
509.468	1	5
509.639	1	7
509.809	1	13
509.979	1	-1
510.149	1	8
510.319	1	5
510.490	1	9
510.660	1	5
510.830	1	5
511.000	1	3
511.171	1	-1
511.341	1	-4
511.511	1	-1
511.681	1	6
511.851	1	-3
512.022	1	-12
512.192	1	6
512.362	1	-4
512.532	1	-6
512.702	1	0
512.873	1	11
513.043	1	6
513.213	1	-8
513.383	1	-8
513.553	1	-7
513.724	1	10
513.894	1	-5
514.064	1	-2
514.234	1	5
514.404	1	-3
514.575	1	5
514.745	1	0
514.915	1	7
515.085	1	-1
515.255	1	-4
515.425	1	4
515.596	1	-6
515.766	1	4
515.936	1	-5
516.106	1	-2
516.276	1	10
516.447	1	1
516.617	1	10
516.787	1	3
516.957	1	3
517.127	1	1
517.297	1	-1
517.468	1	-2
517.638	1	-6
517.808	1	2
517.978	1	-12
518.148	1	-3
518.319	1	-1
518.489	1	-8
518.659	1	2
518.829	1	-3
518.999	1	-3
519.169	1	13
519.340	1	4
519.510	1	-3
519.680	1	-5
519.850	1	-7
520.020	1	-17
520.190	1	-2
520.361	1	-2
520.531	1	6
520.701	1	7
520.871	1	-4
521.041	1	6
521.211	1	6
521.382	1	4
521.552	1	-2
521.722	1	9
521.892	1	-3
522.062	1	-13
522.232	1	-8
522.402	1	-4
522.573	1	6
522.743	1	10
522.913	1	6
523.083	1	-1
523.253	1	1
523.423	1	-3
523.593	1	-9
523.764	1	12
523.934	1	11
524.104	1	6
524.274	1	0
524.444	1	-5
524.614	1	2
524.784	1	6
524.955	1	5
525.125	1	1
525.295	1	-5
525.465	1	10
525.635	1	3
525.805	1	8
525.975	1	-5
526.146	1	6
526.316	1	4
526.486	1	9
526.656	1	11
526.826	1	7
526.996	1	9
527.166	1	2
527.337	1	-2
527.507	1	-15
527.677	1	20
527.847	1	-3
528.017	1	-12
528.187	1	6
528.357	1	10
528.527	1	7
528.698	1	-8
528.868	1	-6
529.038	1	10
529.208	1	-3
529.378	1	-1
529.548	1	2
529.718	1	1
529.888	1	-3
530.058	1	0
530.229	1	-6
530.399	1	10
530.569	1	-5
530.739	1	9
530.909	1	1
531.079	1	6
531.249	1	0
531.419	1	3
531.589	1	-11
531.760	1	8
531.930	1	-4
532.100	1	2
532.270	1	15
532.440	1	-10
532.610	1	8
532.780	1	-1
532.950	1	14
533.120	1	-5
533.290	1	-1
533.461	1	3
533.631	1	-1
533.801	1	0
533.971	1	5
534.141	1	0
534.311	1	-3
534.481	1	0
534.651	1	3
534.821	1	4
534.991	1	-3
535.162	1	5
535.332	1	-5
535.502	1	5
535.672	1	-2
535.842	1	1
536.012	1	11
536.182	1	2
536.352	1	1
536.522	1	7
536.692	1	3
536.862	1	-1
537.032	1	9
537.203	1	12
537.373	1	-12
537.543	1	3
537.713	1	21
537.883	1	14
538.053	1	12
538.223	1	9
538.393	1	2
538.563	1	1
538.733	1	-3
538.903	1	6
539.073	1	1
539.243	1	9
539.413	1	2
539.584	1	-5
539.754	1	2
539.924	1	11
540.094	1	-2
540.264	1	2
540.434	1	-7
540.604	1	15
540.774	1	-3
540.944	1	-2
541.114	1	-3
541.284	1	3
541.454	1	13
541.624	1	-1
541.794	1	1
541.964	1	5
542.134	1	3
542.305	1	-4
542.475	1	-3
542.645	1	4
542.815	1	12
542.985	1	-8
543.155	1	-2
543.325	1	2
543.495	1	-5
543.665	1	5
543.835	1	2
544.005	1	0
544.175	1	4
544.345	1	-2
544.515	1	1
544.685	1	1
544.855	1	10
545.025	1	-2
545.195	1	2
545.365	1	3
545.535	1	2
545.705	1	8
545.875	1	0
546.045	1	7
546.216	1	16
546.386	1	-1
546.556	1	-5
546.726	1	1
546.896	1	0
547.066	1	-4
547.236	1	-9
547.406	1	10
547.576	1	6
547.746	1	4
547.916	1	3
548.086	1	9
548.256	1	-3
548.426	1	-5
548.596	1	4
548.766	1	3
548.936	1	-7
549.106	1	4
549.276	1	1
549.446	1	3
549.616	1	7
549.786	1	5
549.956	1	11
550.126	1	-2
550.296	1	1
550.466	1	-3
550.636	1	1
550.806	1	8
550.976	1	4
551.146	1	-4
551.316	1	-1
551.486	1	1
551.656	1	-7
551.826	1	9
551.996	1	3
552.166	1	-8
552.336	1	1
552.506	1	-6
552.676	1	-1
552.846	1	5
553.016	1	-8
553.186	1	4
553.356	1	0
553.526	1	-2
553.696	1	14
553.866	1	6
554.036	1	-4
554.206	1	-5
554.376	1	-7
554.546	1	-8
554.716	1	-3
554.886	1	0
555.056	1	-9
555.226	1	-12
555.396	1	-1
555.566	1	7
555.736	1	-2
555.906	1	7
556.076	1	6
556.246	1	3
556.416	1	-1
556.586	1	11
556.756	1	0
556.926	1	5
557.096	1	-1
557.266	1	10
557.436	1	13
557.606	1	-5
557.776	1	3
557.946	1	0
558.116	1	11
558.286	1	2
558.456	1	-2
558.626	1	-3
558.796	1	-4
558.966	1	3
559.136	1	5
559.306	1	-3
559.476	1	0
559.646	1	-4
559.816	1	7
559.986	1	-5
560.155	1	-1
560.325	1	-6
560.495	1	-6
560.665	1	-4
560.835	1	5
561.005	1	7
561.175	1	-2
561.345	1	2
561.515	1	-1
561.685	1	-8
561.855	1	5
562.025	1	-15
562.195	1	10
562.365	1	6
562.535	1	8
562.705	1	16
562.875	1	11
563.045	1	0
563.215	1	2
563.385	1	-6
563.555	1	11
563.725	1	-4
563.895	1	-4
564.064	1	13
564.234	1	1
564.404	1	-1
564.574	1	-1
564.744	1	6
564.914	1	1
565.084	1	-8
565.254	1	0
565.424	1	-2
565.594	1	-10
565.764	1	7
565.934	1	6
566.104	1	-3
566.274	1	-6
566.444	1	9
566.614	1	-2
566.783	1	-3
566.953	1	2
567.123	1	14
567.293	1	-2
567.463	1	2
567.633	1	-1
567.803	1	-7
567.973	1	-2
568.143	1	-1
568.313	1	4
568.483	1	1
568.653	1	-8
568.823	1	4
568.993	1	-1
569.162	1	5
569.332	1	0
569.502	1	0
569.672	1	-1
569.842	1	-7
570.012	1	4
570.182	1	-8
570.352	1	5
570.522	1	1
570.692	1	-2
570.862	1	7
571.031	1	-6
571.201	1	-1
571.371	1	7
571.541	1	-7
571.711	1	2
571.881	1	11
572.051	1	0
572.221	1	1
572.391	1	0
572.561	1	-15
572.731	1	-3
572.900	1	10
573.070	1	-2
573.240	1	-6
573.410	1	1
573.580	1	1
573.750	1	1
573.920	1	-8
574.090	1	-2
574.260	1	1
574.430	1	5
574.599	1	-8
574.769	1	4
574.939	1	-4
575.109	1	-1
575.279	1	4
575.449	1	2
575.619	1	12
575.789	1	-1
575.959	1	-8
576.128	1	6
576.298	1	-10
576.468	1	-6
576.638	1	-7
576.808	1	-4
576.978	1	-2
577.148	1	5
577.318	1	2
577.487	1	-1
577.657	1	-15
577.827	1	6
577.997	1	-5
578.167	1	5
578.337	1	-6
578.507	1	6
578.677	1	-9
578.846	1	2
579.016	1	7
579.186	1	-5
579.356	1	-2
579.526	1	-4
579.696	1	3
579.866	1	5
580.036	1	-3
580.205	1	3
580.375	1	0
580.545	1	-3
580.715	1	7
580.885	1	-3
581.055	1	3
581.225	1	-14
581.394	1	-5
581.564	1	-4
581.734	1	16
581.904	1	1
582.074	1	-3
582.244	1	-1
582.414	1	9
582.583	1	-7
582.753	1	5
582.923	1	-1
583.093	1	-9
583.263	1	11
583.433	1	-13
583.603	1	6
583.772	1	-6
583.942	1	7
584.112	1	11
584.282	1	11
584.452	1	6
584.622	1	4
584.791	1	2
584.961	1	2
585.131	1	7
585.301	1	7
585.471	1	-10
585.641	1	8
585.811	1	-7
585.980	1	-9
586.150	1	5
586.320	1	-2
586.490	1	-9
586.660	1	0
586.830	1	-7
586.999	1	-6
587.169	1	-6
587.339	1	-4
587.509	1	-3
587.679	1	4
587.849	1	6
588.018	1	1
588.188	1	1
588.358	1	1
588.528	1	7
588.698	1	-2
588.867	1	3
589.037	1	-7
589.207	1	-2
589.377	1	2
589.547	1	0
589.717	1	6
589.886	1	-8
590.056	1	-3
590.226	1	1
590.396	1	0
590.566	1	2
590.735	1	15
590.905	1	7
591.075	1	-11
591.245	1	6
591.415	1	5
591.585	1	-4
591.754	1	5
591.924	1	-7
592.094	1	-2
592.264	1	-2
592.434	1	3
592.603	1	-1
592.773	1	-2
592.943	1	-1
593.113	1	-10
593.283	1	-3
593.452	1	-8
593.622	1	-4
593.792	1	2
593.962	1	6
594.132	1	-1
594.301	1	7
594.471	1	0
594.641	1	-5
594.811	1	3
594.981	1	-2
595.150	1	-5
595.320	1	3
595.490	1	-8
595.660	1	-1
595.829	1	7
595.999	1	5
596.169	1	3
596.339	1	3
596.509	1	3
596.678	1	-3
596.848	1	5
597.018	1	-3
597.188	1	12
597.358	1	-4
597.527	1	-11
597.697	1	-10
597.867	1	-2
598.037	1	0
598.206	1	-3
598.376	1	8
598.546	1	-9
598.716	1	2
598.885	1	-4
599.055	1	-1
599.225	1	1
599.395	1	6
599.565	1	-1
599.734	1	-9
599.904	1	-8
600.074	1	-3
600.244	1	1
600.413	1	0
600.583	1	-10
600.753	1	0
600.923	1	9
601.092	1	-11
601.262	1	5
601.432	1	-10
601.602	1	2
601.771	1	7
601.941	1	-7
602.111	1	1
602.281	1	-16
602.451	1	2
602.620	1	4
602.790	1	1
602.960	1	4
603.130	1	4
603.299	1	4
603.469	1	-3
603.639	1	1
603.809	1	9
603.978	1	-8
604.148	1	-6
604.318	1	5
604.487	1	-3
604.657	1	4
604.827	1	-4
604.997	1	-14
605.166	1	-2
605.336	1	-3
605.506	1	7
605.676	1	-4
605.845	1	-5
606.015	1	8
606.185	1	5
606.355	1	7
606.524	1	-9
606.694	1	15
606.864	1	-7
607.034	1	-6
607.203	1	6
607.373	1	-6
607.543	1	-8
607.712	1	4
607.882	1	-3
608.052	1	3
608.222	1	7
608.391	1	0
608.561	1	-2
608.731	1	-9
608.901	1	8
609.070	1	5
609.240	1	-1
609.410	1	1
609.579	1	-2
609.749	1	-3
609.919	1	-5
610.089	1	-1
610.258	1	8
610.428	1	0
610.598	1	7
610.767	1	-3
610.937	1	-4
611.107	1	4
611.277	1	7
611.446	1	-5
611.616	1	-9
611.786	1	4
611.955	1	9
612.125	1	-3
612.295	1	3
612.465	1	-5
612.634	1	-3
612.804	1	8
612.974	1	1
613.143	1	1
613.313	1	9
613.483	1	1
613.652	1	-6
613.822	1	5
613.992	1	2
614.162	1	-1
614.331	1	2
614.501	1	2
614.671	1	2
614.840	1	5
615.010	1	-4
615.180	1	3
615.349	1	6
615.519	1	11
615.689	1	3
615.858	1	6
616.028	1	-3
616.198	1	5
616.368	1	-3
616.537	1	-8
616.707	1	2
616.877	1	1
617.046	1	2
617.216	1	-1
617.386	1	-2
617.555	1	-7
617.725	1	5
617.895	1	3
618.064	1	1
618.234	1	-3
618.404	1	9
618.573	1	2
618.743	1	-2
618.913	1	4
619.082	1	-1
619.252	1	-8
619.422	1	6
619.591	1	-5
619.761	1	-2
619.931	1	-2
620.100	1	2
620.270	1	-10
620.440	1	-1
620.609	1	-8
620.779	1	-1
620.949	1	-1
621.118	1	-2
621.288	1	2
621.458	1	2
621.627	1	-4
621.797	1	5
621.967	1	-2
622.136	1	3
622.306	1	1
622.476	1	2
622.645	1	3
622.815	1	0
622.985	1	-2
623.154	1	1
623.324	1	-3
623.494	1	5
623.663	1	-2
623.833	1	-3
624.002	1	-4
624.172	1	4
624.342	1	-8
624.511	1	10
624.681	1	-9
624.851	1	-6
625.020	1	-3
625.190	1	7
625.360	1	-2
625.529	1	2
625.699	1	-2
625.869	1	2
626.038	1	0
626.208	1	-5
626.377	1	16
626.547	1	-5
626.717	1	-3
626.886	1	-9
627.056	1	-3
627.226	1	3
627.395	1	5
627.565	1	-2
627.735	1	9
627.904	1	10
628.074	1	5
628.243	1	-7
628.413	1	-1
628.583	1	1
628.752	1	-3
628.922	1	-10
629.091	1	13
629.261	1	4
629.431	1	-8
629.600	1	2
629.770	1	-8
629.940	1	6
630.109	1	0
630.279	1	-2
630.448	1	-8
630.618	1	7
630.788	1	-1
630.957	1	-11
631.127	1	11
631.297	1	-3
631.466	1	6
631.636	1	0
631.805	1	1
631.975	1	5
632.145	1	-9
632.314	1	4
632.484	1	6
632.653	1	-2
632.823	1	18
632.993	1	7
633.162	1	-8
633.332	1	7
633.501	1	-2
633.671	1	-2
633.841	1	3
634.010	1	-9
634.180	1	-4
634.349	1	3
634.519	1	-1
634.689	1	2
634.858	1	-2
635.028	1	4
635.197	1	-11
635.367	1	-2
635.537	1	-3
635.706	1	-5
635.876	1	-7
636.045	1	5
636.215	1	-5
636.384	1	4
636.554	1	-1
636.724	1	-1
636.893	1	-3
637.063	1	0
637.232	1	3
637.402	1	7
637.572	1	-5
637.741	1	8
637.911	1	7
638.080	1	-3
638.250	1	-4
638.419	1	-1
638.589	1	10
638.759	1	7
638.928	1	-2
639.098	1	7
639.267	1	-3
639.437	1	-3
639.606	1	12
639.776	1	-2
639.946	1	3
640.115	1	-3
640.285	1	-7
640.454	1	14
640.624	1	-3
640.793	1	10
640.963	1	1
641.132	1	8
641.302	1	2
641.472	1	-9
641.641	1	-5
641.811	1	-2
641.980	1	0
642.150	1	-2
642.319	1	-8
642.489	1	1
642.659	1	-12
642.828	1	1
642.998	1	-9
643.167	1	5
643.337	1	1
643.506	1	-1
643.676	1	6
643.845	1	4
644.015	1	4
644.184	1	8
644.354	1	-3
644.524	1	0
644.693	1	1
644.863	1	-20
645.032	1	0
645.202	1	-6
645.371	1	-8
645.541	1	-3
645.710	1	0
645.880	1	2
646.049	1	3
646.219	1	-4
646.388	1	2
646.558	1	4
646.728	1	1
646.897	1	-8
647.067	1	-4
647.236	1	-4
647.406	1	-6
647.575	1	3
647.745	1	6
647.914	1	-1
648.084	1	-6
648.253	1	5
648.423	1	1
648.592	1	1
648.762	1	0
648.931	1	0
649.101	1	11
649.270	1	9
649.440	1	0
649.610	1	14
649.779	1	-6
649.949	1	1
650.118	1	-7
650.288	1	-6
650.457	1	3
650.627	1	-9
650.796	1	-2
650.966	1	-6
651.135	1	-1
651.305	1	4
651.474	1	10
651.644	1	2
651.813	1	12
651.983	1	2
652.152	1	-7
652.322	1	10
652.491	1	-4
652.661	1	6
652.830	1	5
653.000	1	-4
653.169	1	5
653.339	1	5
653.508	1	-6
653.678	1	8
653.847	1	-4
654.017	1	0
654.186	1	3
654.356	1	3
654.525	1	10
654.695	1	7
654.864	1	2
655.034	1	6
655.203	1	3
655.373	1	-8
655.542	1	4
655.712	1	-9
655.881	1	9
656.051	1	8
656.220	1	5
656.390	1	-2
656.559	1	1
656.729	1	-5
656.898	1	8
657.068	1	9
657.237	1	0
657.406	1	1
657.576	1	-1
657.745	1	-3
657.915	1	1
658.084	1	3
658.254	1	12
658.423	1	-7
658.593	1	-15
658.762	1	0
658.932	1	0
659.101	1	-4
659.271	1	3
659.440	1	6
659.610	1	0
659.779	1	-1
659.949	1	-6
660.118	1	5
660.288	1	6
660.457	1	-8
660.626	1	-7
660.796	1	-2
660.965	1	3
661.135	1	3
661.304	1	1
661.474	1	6
661.643	1	-12
661.813	1	-5
661.982	1	7
662.152	1	-1
662.321	1	0
662.491	1	-3
662.660	1	-6
662.829	1	-14
662.999	1	1
663.168	1	-4
663.338	1	-11
663.507	1	-7
663.677	1	-11
663.846	1	6
664.016	1	3
664.185	1	0
664.354	1	-5
664.524	1	-9
664.693	1	3
664.863	1	4
665.032	1	2
665.202	1	1
665.371	1	3
665.541	1	-3
665.710	1	-2
665.879	1	-2
666.049	1	4
666.218	1	-6
666.388	1	-10
666.557	1	9
666.727	1	-18
666.896	1	0
667.065	1	3
667.235	1	7
667.404	1	-9
667.574	1	1
667.743	1	5
667.913	1	-3
668.082	1	-4
668.251	1	-2
668.421	1	1
668.590	1	-11
668.760	1	1
668.929	1	-3
669.099	1	-7
669.268	1	0
669.437	1	9
669.607	1	-4
669.776	1	-3
669.946	1	10
670.115	1	4
670.285	1	-1
670.454	1	-4
670.623	1	-3
670.793	1	-4
670.962	1	1
671.132	1	3
671.301	1	-2
671.470	1	1
671.640	1	-12
671.809	1	-2
671.979	1	15
672.148	1	6
672.317	1	-6
672.487	1	-5
672.656	1	-1
672.826	1	-8
672.995	1	1
673.164	1	8
673.334	1	8
673.503	1	-4
673.673	1	18
673.842	1	11
674.011	1	1
674.181	1	-6
674.350	1	-2
674.520	1	-8
674.689	1	-5
674.858	1	-9
675.028	1	1
675.197	1	0
675.367	1	-1
675.536	1	12
675.705	1	-7
675.875	1	0
676.044	1	-7
676.214	1	-2
676.383	1	1
676.552	1	-7
676.722	1	5
676.891	1	-9
677.060	1	0
677.230	1	10
677.399	1	3
677.569	1	2
677.738	1	-7
677.907	1	-9
678.077	1	0
678.246	1	-16
678.416	1	7
678.585	1	6
678.754	1	-7
678.924	1	-2
679.093	1	-1
679.262	1	-4
679.432	1	-1
679.601	1	-14
679.771	1	-2
679.940	1	-3
680.109	1	2
680.279	1	-7
680.448	1	-4
680.617	1	-9
680.787	1	-3
680.956	1	-1
681.125	1	9
681.295	1	8
681.464	1	-11
681.634	1	6
681.803	1	-13
681.972	1	-13
682.142	1	16
682.311	1	2
682.480	1	-3
682.650	1	-5
682.819	1	4
682.988	1	-2
683.158	1	1
683.327	1	-3
683.496	1	-9
683.666	1	0
683.835	1	6
684.004	1	6
684.174	1	-5
684.343	1	1
684.512	1	-3
684.682	1	5
684.851	1	0
685.021	1	-1
685.190	1	1
685.359	1	0
685.529	1	-1
685.698	1	2
685.867	1	5
686.037	1	-1
686.206	1	6
686.375	1	-4
686.545	1	-1
686.714	1	0
686.883	1	-7
687.053	1	6
687.222	1	4
687.391	1	-8
687.561	1	3
687.730	1	-5
687.899	1	-5
688.069	1	-9
688.238	1	-3
688.407	1	-4
688.577	1	-2
688.746	1	-2
