340.368	1	9
340.539	1	8
340.710	1	-9
340.881	1	0
341.052	1	6
341.223	1	17
341.394	1	1
341.565	1	-8
341.737	1	7
341.908	1	2
342.079	1	-4
342.250	1	10
342.421	1	1
342.592	1	2
342.763	1	-1
342.934	1	2
343.105	1	6
343.276	1	2
343.447	1	1
343.618	1	6
343.789	1	12
343.960	1	0
344.131	1	4
344.302	1	9
344.473	1	4
344.644	1	-2
344.815	1	5
344.986	1	6
345.157	1	-1
345.328	1	1
345.499	1	4
345.670	1	10
345.841	1	3
346.012	1	6
346.183	1	0
346.354	1	0
346.526	1	6
346.697	1	4
346.868	1	6
347.039	1	3
347.210	1	8
347.381	1	3
347.552	1	5
347.723	1	3
347.894	1	-4
348.065	1	-4
348.236	1	9
348.407	1	3
348.578	1	13
348.749	1	3
348.920	1	9
349.091	1	7
349.262	1	6
349.433	1	-2
349.604	1	14
349.775	1	6
349.946	1	9
350.117	1	7
350.288	1	7
350.459	1	15
350.630	1	-7
350.801	1	1
350.972	1	-2
351.143	1	-3
351.314	1	-5
351.485	1	-1
351.656	1	12
351.827	1	13
351.998	1	-4
352.169	1	9
352.340	1	1
352.511	1	11
352.682	1	-1
352.853	1	2
353.024	1	-4
353.195	1	2
353.366	1	8
353.537	1	-5
353.708	1	6
353.879	1	9
354.050	1	10
354.221	1	1
354.392	1	9
354.563	1	19
354.734	1	5
354.905	1	12
355.076	1	4
355.247	1	-7
355.418	1	-2
355.589	1	3
355.760	1	4
355.931	1	4
356.102	1	-7
356.273	1	10
356.444	1	11
356.615	1	4
356.785	1	17
356.956	1	0
357.127	1	14
357.298	1	1
357.469	1	4
357.640	1	17
357.811	1	16
357.982	1	-3
358.153	1	6
358.324	1	3
358.495	1	15
358.666	1	4
358.837	1	2
359.008	1	11
359.179	1	7
359.350	1	6
359.521	1	-8
359.692	1	9
359.863	1	-13
360.034	1	0
360.205	1	-1
360.376	1	8
360.547	1	2
360.718	1	5
360.889	1	7
361.060	1	15
361.231	1	7
361.401	1	6
361.572	1	3
361.743	1	6
361.914	1	10
362.085	1	5
362.256	1	12
362.427	1	-6
362.598	1	6
362.769	1	15
362.940	1	12
363.111	1	9
363.282	1	5
363.453	1	9
363.624	1	6
363.795	1	3
363.966	1	13
364.137	1	-2
364.308	1	3
364.478	1	17
364.649	1	8
364.820	1	9
364.991	1	7
365.162	1	4
365.333	1	16
365.504	1	4
365.675	1	-1
365.846	1	3
366.017	1	14
366.188	1	5
366.359	1	5
366.530	1	6
366.701	1	3
366.871	1	17
367.042	1	19
367.213	1	6
367.384	1	14
367.555	1	2
367.726	1	13
367.897	1	0
368.068	1	7
368.239	1	24
368.410	1	9
368.581	1	12
368.752	1	7
368.923	1	-2
369.093	1	8
369.264	1	0
369.435	1	0
369.606	1	3
369.777	1	4
369.948	1	13
370.119	1	9
370.290	1	7
370.461	1	8
370.632	1	5
370.803	1	-1
370.973	1	22
371.144	1	11
371.315	1	8
371.486	1	14
371.657	1	11
371.828	1	11
371.999	1	10
372.170	1	8
372.341	1	5
372.512	1	0
372.682	1	10
372.853	1	7
373.024	1	8
373.195	1	-3
373.366	1	1
373.537	1	3
373.708	1	1
373.879	1	13
374.050	1	7
374.220	1	12
374.391	1	4
374.562	1	2
374.733	1	27
374.904	1	12
375.075	1	11
375.246	1	-1
375.417	1	10
375.588	1	6
375.758	1	7
375.929	1	5
376.100	1	14
376.271	1	2
376.442	1	5
376.613	1	10
376.784	1	11
376.955	1	-4
377.125	1	4
377.296	1	9
377.467	1	5
377.638	1	7
377.809	1	18
377.980	1	5
378.151	1	-2
378.321	1	9
378.492	1	6
378.663	1	2
378.834	1	0
379.005	1	19
379.176	1	1
379.347	1	0
379.518	1	-5
379.688	1	1
379.859	1	1
380.030	1	2
380.201	1	-8
380.372	1	7
380.543	1	10
380.714	1	14
380.884	1	-1
381.055	1	8
381.226	1	-1
381.397	1	9
381.568	1	9
381.739	1	15
381.910	1	4
382.080	1	-6
382.251	1	8
382.422	1	15
382.593	1	3
382.764	1	7
382.935	1	14
383.105	1	8
383.276	1	6
383.447	1	19
383.618	1	12
383.789	1	7
383.960	1	9
384.130	1	1
384.301	1	10
384.472	1	0
384.643	1	16
384.814	1	6
384.985	1	14
385.156	1	18
385.326	1	26
385.497	1	14
385.668	1	7
385.839	1	12
386.010	1	16
386.180	1	3
386.351	1	4
386.522	1	12
386.693	1	17
386.864	1	13
387.035	1	8
387.205	1	12
387.376	1	15
387.547	1	9
387.718	1	19
387.889	1	26
388.060	1	-3
388.230	1	9
388.401	1	21
388.572	1	17
388.743	1	6
388.914	1	16
389.084	1	18
389.255	1	15
389.426	1	13
389.597	1	0
389.768	1	10
389.939	1	13
390.109	1	6
390.280	1	19
390.451	1	16
390.622	1	10
390.793	1	11
390.963	1	17
391.134	1	11
391.305	1	14
391.476	1	17
391.647	1	19
391.817	1	2
391.988	1	0
392.159	1	15
392.330	1	14
392.501	1	2
392.671	1	10
392.842	1	13
393.013	1	11
393.184	1	24
393.355	1	18
393.525	1	26
393.696	1	11
393.867	1	3
394.038	1	3
394.208	1	15
394.379	1	-4
394.550	1	3
394.721	1	14
394.892	1	16
395.062	1	4
395.233	1	11
395.404	1	14
395.575	1	3
395.746	1	7
395.916	1	10
396.087	1	3
396.258	1	6
396.429	1	11
396.599	1	17
396.770	1	11
396.941	1	17
397.112	1	5
397.283	1	7
397.453	1	-1
397.624	1	11
397.795	1	8
397.966	1	8
398.136	1	12
398.307	1	15
398.478	1	2
398.649	1	7
398.819	1	13
398.990	1	20
399.161	1	14
399.332	1	16
399.503	1	16
399.673	1	5
399.844	1	7
400.015	1	6
400.186	1	19
400.356	1	7
400.527	1	13
400.698	1	4
400.869	1	11
401.039	1	5
401.210	1	6
401.381	1	5
401.552	1	15
401.722	1	17
401.893	1	11
402.064	1	9
402.235	1	21
402.405	1	7
402.576	1	14
402.747	1	4
402.918	1	-1
403.088	1	-1
403.259	1	1
403.430	1	2
403.601	1	4
403.771	1	19
403.942	1	17
404.113	1	16
404.284	1	6
404.454	1	14
404.625	1	13
404.796	1	4
404.967	1	7
405.137	1	17
405.308	1	0
405.479	1	19
405.649	1	5
405.820	1	-4
405.991	1	20
406.162	1	10
406.332	1	0
406.503	1	4
406.674	1	6
406.845	1	12
407.015	1	2
407.186	1	18
407.357	1	12
407.527	1	16
407.698	1	-3
407.869	1	9
408.040	1	2
408.210	1	7
408.381	1	8
408.552	1	9
408.722	1	5
408.893	1	10
409.064	1	-1
409.235	1	8
409.405	1	3
409.576	1	12
409.747	1	4
409.917	1	8
410.088	1	6
410.259	1	13
410.430	1	9
410.600	1	-1
410.771	1	7
410.942	1	11
411.112	1	3
411.283	1	0
411.454	1	19
411.625	1	-4
411.795	1	14
411.966	1	0
412.137	1	6
412.307	1	10
412.478	1	14
412.649	1	10
412.819	1	2
412.990	1	11
413.161	1	3
413.332	1	2
413.502	1	-10
413.673	1	5
413.844	1	0
414.014	1	3
414.185	1	13
414.356	1	1
414.526	1	8
414.697	1	13
414.868	1	3
415.038	1	5
415.209	1	7
415.380	1	5
415.550	1	6
415.721	1	12
415.892	1	-1
416.063	1	11
416.233	1	7
416.404	1	18
416.575	1	11
416.745	1	1
416.916	1	6
417.087	1	-2
417.257	1	11
417.428	1	3
417.599	1	14
417.769	1	5
417.940	1	7
418.111	1	5
418.281	1	16
418.452	1	6
418.623	1	9
418.793	1	3
418.964	1	2
419.135	1	13
419.305	1	2
419.476	1	6
419.647	1	12
419.817	1	12
419.988	1	4
420.159	1	2
420.329	1	10
420.500	1	10
420.671	1	14
420.841	1	11
421.012	1	16
421.183	1	-5
421.353	1	16
421.524	1	8
421.695	1	8
421.865	1	7
422.036	1	7
422.206	1	5
422.377	1	5
422.548	1	3
422.718	1	-3
422.889	1	12
423.060	1	10
423.230	1	11
423.401	1	1
423.572	1	5
423.742	1	7
423.913	1	8
424.084	1	10
424.254	1	7
424.425	1	0
424.595	1	-4
424.766	1	5
424.937	1	8
425.107	1	10
425.278	1	-6
425.449	1	0
425.619	1	9
425.790	1	-2
425.961	1	-1
426.131	1	8
426.302	1	-7
426.472	1	8
426.643	1	4
426.814	1	16
426.984	1	5
427.155	1	9
427.326	1	9
427.496	1	14
427.667	1	14
427.837	1	-1
428.008	1	6
428.179	1	0
428.349	1	6
428.520	1	3
428.691	1	7
428.861	1	-2
429.032	1	11
429.202	1	12
429.373	1	-7
429.544	1	7
429.714	1	11
429.885	1	3
430.055	1	5
430.226	1	5
430.397	1	2
430.567	1	14
430.738	1	3
430.909	1	5
431.079	1	16
431.250	1	-4
431.420	1	-1
431.591	1	6
431.762	1	9
431.932	1	10
432.103	1	4
432.273	1	0
432.444	1	8
432.615	1	8
432.785	1	2
432.956	1	1
433.126	1	9
433.297	1	11
433.468	1	-1
433.638	1	9
433.809	1	10
433.979	1	5
434.150	1	0
434.320	1	11
434.491	1	5
434.662	1	-2
434.832	1	2
435.003	1	14
435.173	1	5
435.344	1	12
435.515	1	7
435.685	1	11
435.856	1	2
436.026	1	0
436.197	1	7
436.368	1	2
436.538	1	1
436.709	1	-9
436.879	1	4
437.050	1	15
437.220	1	6
437.391	1	1
437.562	1	2
437.732	1	8
437.903	1	1
438.073	1	8
438.244	1	4
438.414	1	16
438.585	1	9
438.756	1	12
438.926	1	1
439.097	1	9
439.267	1	11
439.438	1	8
439.608	1	11
439.779	1	2
439.949	1	5
440.120	1	4
440.291	1	-2
440.461	1	-3
440.632	1	4
440.802	1	7
440.973	1	12
441.143	1	9
441.314	1	10
441.485	1	0
441.655	1	16
441.826	1	1
441.996	1	-1
442.167	1	-2
442.337	1	4
442.508	1	1
442.678	1	-4
442.849	1	6
443.019	1	12
443.190	1	-5
443.361	1	11
443.531	1	1
443.702	1	4
443.872	1	2
444.043	1	11
444.213	1	2
444.384	1	8
444.554	1	2
444.725	1	4
444.895	1	-2
445.066	1	-13
445.237	1	2
445.407	1	2
445.578	1	19
445.748	1	1
445.919	1	2
446.089	1	15
446.260	1	11
446.430	1	-3
446.601	1	0
446.771	1	5
446.942	1	5
447.112	1	6
447.283	1	-1
447.453	1	1
447.624	1	7
447.794	1	-10
447.965	1	-4
448.135	1	6
448.306	1	6
448.477	1	3
448.647	1	7
448.818	1	16
448.988	1	-3
449.159	1	3
449.329	1	1
449.500	1	14
449.670	1	7
449.841	1	-4
450.011	1	2
450.182	1	3
450.352	1	15
450.523	1	4
450.693	1	6
450.864	1	3
451.034	1	3
451.205	1	10
451.375	1	14
451.546	1	7
451.716	1	5
451.887	1	-3
452.057	1	9
452.228	1	0
452.398	1	3
452.569	1	8
452.739	1	2
452.910	1	1
453.080	1	18
453.251	1	6
453.421	1	7
453.592	1	0
453.762	1	9
453.933	1	10
454.103	1	7
454.274	1	5
454.444	1	6
454.615	1	13
454.785	1	-1
454.956	1	8
455.126	1	-2
455.297	1	5
455.467	1	3
455.638	1	6
455.808	1	3
455.979	1	7
456.149	1	7
456.320	1	6
456.490	1	6
456.661	1	-4
456.831	1	10
457.001	1	13
457.172	1	3
457.342	1	-1
457.513	1	5
457.683	1	13
457.854	1	13
458.024	1	5
458.195	1	1
458.365	1	-2
458.536	1	10
458.706	1	6
458.877	1	9
459.047	1	0
459.218	1	8
459.388	1	16
459.559	1	9
459.729	1	0
459.899	1	7
460.070	1	11
460.240	1	4
460.411	1	6
460.581	1	7
460.752	1	5
460.922	1	8
461.093	1	11
461.263	1	3
461.434	1	3
461.604	1	2
461.775	1	-2
461.945	1	5
462.115	1	-1
462.286	1	12
462.456	1	-8
462.627	1	5
462.797	1	5
462.968	1	-1
463.138	1	14
463.309	1	-4
463.479	1	8
463.649	1	4
463.820	1	6
463.990	1	6
464.161	1	10
464.331	1	9
464.502	1	11
464.672	1	5
464.843	1	5
465.013	1	-11
465.183	1	0
465.354	1	11
465.524	1	15
465.695	1	21
465.865	1	1
466.036	1	12
466.206	1	-3
466.376	1	7
466.547	1	9
466.717	1	-2
466.888	1	-1
467.058	1	15
467.229	1	13
467.399	1	13
467.569	1	4
467.740	1	4
467.910	1	1
468.081	1	8
468.251	1	2
468.422	1	-1
468.592	1	17
468.762	1	-1
468.933	1	11
469.103	1	-1
469.274	1	-1
469.444	1	3
469.614	1	-7
469.785	1	14
469.955	1	0
470.126	1	0
470.296	1	7
470.467	1	3
470.637	1	13
470.807	1	11
470.978	1	5
471.148	1	4
471.319	1	2
471.489	1	1
471.659	1	13
471.830	1	6
472.000	1	11
472.171	1	-1
472.341	1	3
472.511	1	9
472.682	1	9
472.852	1	-1
473.023	1	-2
473.193	1	-1
473.363	1	-1
473.534	1	5
473.704	1	3
473.875	1	3
474.045	1	9
474.215	1	2
474.386	1	7
474.556	1	-2
474.727	1	11
474.897	1	9
475.067	1	1
475.238	1	-7
475.408	1	5
475.578	1	1
475.749	1	3
475.919	1	1
476.090	1	-6
476.260	1	-1
476.430	1	6
476.601	1	-1
476.771	1	4
476.942	1	2
477.112	1	1
477.282	1	2
477.453	1	0
477.623	1	7
477.793	1	10
477.964	1	-3
478.134	1	3
478.305	1	11
478.475	1	2
478.645	1	-2
478.816	1	-6
478.986	1	10
479.156	1	8
479.327	1	-8
479.497	1	-1
479.667	1	2
479.838	1	8
480.008	1	6
480.179	1	2
480.349	1	6
480.519	1	-12
480.690	1	0
480.860	1	-4
481.030	1	9
481.201	1	-5
481.371	1	5
481.541	1	10
481.712	1	3
481.882	1	4
482.053	1	11
482.223	1	-4
482.393	1	-6
482.564	1	0
482.734	1	7
482.904	1	16
483.075	1	3
483.245	1	0
483.415	1	7
483.586	1	-1
483.756	1	13
483.926	1	12
484.097	1	-1
484.267	1	9
484.437	1	3
484.608	1	3
484.778	1	7
484.948	1	-8
485.119	1	9
485.289	1	5
485.459	1	2
485.630	1	-1
485.800	1	-3
485.970	1	3
486.141	1	-5
486.311	1	6
486.481	1	9
486.652	1	5
486.822	1	10
486.992	1	-2
487.163	1	-11
487.333	1	3
487.503	1	-5
487.674	1	0
487.844	1	2
488.014	1	4
488.185	1	-8
488.355	1	-10
488.525	1	5
488.696	1	-2
488.866	1	8
489.036	1	4
489.207	1	3
489.377	1	13
489.547	1	17
489.718	1	-3
489.888	1	5
490.058	1	-1
490.228	1	-6
490.399	1	13
490.569	1	5
490.739	1	11
490.910	1	-7
491.080	1	-1
491.250	1	3
491.421	1	8
491.591	1	-12
491.761	1	4
491.932	1	10
492.102	1	7
492.272	1	14
492.442	1	8
492.613	1	4
492.783	1	3
492.953	1	9
493.124	1	13
493.294	1	8
493.464	1	-1
493.635	1	5
493.805	1	16
493.975	1	8
494.145	1	2
494.316	1	13
494.486	1	9
494.656	1	9
494.827	1	-3
494.997	1	4
495.167	1	-3
495.337	1	4
495.508	1	-9
495.678	1	17
495.848	1	3
496.019	1	0
496.189	1	2
496.359	1	3
496.529	1	-6
496.700	1	3
496.870	1	13
497.040	1	-2
497.211	1	11
497.381	1	-10
497.551	1	14
497.721	1	5
497.892	1	7
498.062	1	-1
498.232	1	8
498.403	1	6
498.573	1	5
498.743	1	-1
498.913	1	7
499.084	1	-11
499.254	1	1
499.424	1	13
499.594	1	9
499.765	1	4
499.935	1	1
500.105	1	5
500.275	1	10
500.446	1	13
500.616	1	0
500.786	1	8
500.956	1	4
501.127	1	16
501.297	1	7
501.467	1	2
501.638	1	2
501.808	1	-7
501.978	1	4
502.148	1	7
502.319	1	8
502.489	1	0
502.659	1	1
502.829	1	2
503.000	1	16
503.170	1	4
503.340	1	8
503.510	1	-7
503.681	1	4
503.851	1	-13
504.021	1	21
504.191	1	8
504.362	1	6
504.532	1	0
504.702	1	15
504.872	1	13
505.042	1	6
505.213	1	4
505.383	1	8
505.553	1	8
505.723	1	1
505.894	1	13
506.064	1	4
506.234	1	12
506.404	1	4
506.575	1	6
506.745	1	9
506.915	1	5
507.085	1	-1
507.256	1	-6
507.426	1	1
507.596	1	12
507.766	1	8
507.936	1	4
508.107	1	11
508.277	1	0
508.447	1	15
508.617	1	12
508.788	1	5
508.958	1	15
509.128	1	3
509.298	1	21
509.468	1	5
509.639	1	19
509.809	1	8
509.979	1	3
510.149	1	10
510.319	1	4
510.490	1	18
510.660	1	3
510.830	1	4
511.000	1	9
511.171	1	9
511.341	1	3
511.511	1	0
511.681	1	4
511.851	1	-3
512.022	1	7
512.192	1	18
512.362	1	7
512.532	1	1
512.702	1	-4
512.873	1	16
513.043	1	7
513.213	1	6
513.383	1	2
513.553	1	-2
513.724	1	10
513.894	1	2
514.064	1	7
514.234	1	13
514.404	1	3
514.575	1	13
514.745	1	-1
514.915	1	9
515.085	1	2
515.255	1	3
515.425	1	4
515.596	1	-3
515.766	1	5
515.936	1	5
516.106	1	7
516.276	1	10
516.447	1	13
516.617	1	5
516.787	1	0
516.957	1	6
517.127	1	10
517.297	1	0
517.468	1	5
517.638	1	8
517.808	1	-2
517.978	1	1
518.148	1	9
518.319	1	5
518.489	1	16
518.659	1	11
518.829	1	0
518.999	1	2
519.169	1	10
519.340	1	4
519.510	1	1
519.680	1	0
519.850	1	0
520.020	1	9
520.190	1	8
520.361	1	-5
520.531	1	11
520.701	1	11
520.871	1	2
521.041	1	9
521.211	1	8
521.382	1	1
521.552	1	5
521.722	1	10
521.892	1	0
522.062	1	3
522.232	1	-1
522.402	1	2
522.573	1	8
522.743	1	15
522.913	1	10
523.083	1	11
523.253	1	7
523.423	1	-4
523.593	1	0
523.764	1	22
523.934	1	7
524.104	1	5
524.274	1	-2
524.444	1	15
524.614	1	1
524.784	1	9
524.955	1	-1
525.125	1	10
525.295	1	1
525.465	1	11
525.635	1	17
525.805	1	9
525.975	1	-5
526.146	1	10
526.316	1	3
526.486	1	10
526.656	1	12
526.826	1	21
526.996	1	17
527.166	1	8
527.337	1	14
527.507	1	5
527.677	1	24
527.847	1	-2
528.017	1	2
528.187	1	4
528.357	1	5
528.527	1	5
528.698	1	1
528.868	1	0
529.038	1	18
529.208	1	8
529.378	1	9
529.548	1	8
529.718	1	11
529.888	1	8
530.058	1	10
530.229	1	16
530.399	1	11
530.569	1	16
530.739	1	8
530.909	1	4
531.079	1	12
531.249	1	0
531.419	1	16
531.589	1	5
531.760	1	12
531.930	1	8
532.100	1	9
532.270	1	12
532.440	1	4
532.610	1	7
532.780	1	10
532.950	1	8
533.120	1	1
533.290	1	-2
533.461	1	19
533.631	1	12
533.801	1	3
533.971	1	15
534.141	1	9
534.311	1	11
534.481	1	12
534.651	1	13
534.821	1	11
534.991	1	6
535.162	1	11
535.332	1	5
535.502	1	10
535.672	1	6
535.842	1	9
536.012	1	12
536.182	1	8
536.352	1	5
536.522	1	19
536.692	1	8
536.862	1	6
537.032	1	8
537.203	1	9
537.373	1	3
537.543	1	7
537.713	1	17
537.883	1	5
538.053	1	13
538.223	1	13
538.393	1	11
538.563	1	3
538.733	1	-2
538.903	1	3
539.073	1	4
539.243	1	4
539.413	1	14
539.584	1	11
539.754	1	5
539.924	1	6
540.094	1	11
540.264	1	6
540.434	1	-2
540.604	1	20
540.774	1	10
540.944	1	3
541.114	1	-1
541.284	1	8
541.454	1	12
541.624	1	2
541.794	1	10
541.964	1	6
542.134	1	17
542.305	1	-9
542.475	1	4
542.645	1	9
542.815	1	14
542.985	1	-2
543.155	1	6
543.325	1	2
543.495	1	12
543.665	1	8
543.835	1	6
544.005	1	7
544.175	1	3
544.345	1	5
544.515	1	9
544.685	1	9
544.855	1	9
545.025	1	4
545.195	1	7
545.365	1	9
545.535	1	5
545.705	1	9
545.875	1	-1
546.045	1	16
546.216	1	14
546.386	1	7
546.556	1	8
546.726	1	9
546.896	1	13
547.066	1	2
547.236	1	0
547.406	1	13
547.576	1	10
547.746	1	7
547.916	1	7
548.086	1	7
548.256	1	10
548.426	1	6
548.596	1	14
548.766	1	7
548.936	1	-2
549.106	1	18
549.276	1	12
549.446	1	9
549.616	1	15
549.786	1	5
549.956	1	20
550.126	1	-4
550.296	1	10
550.466	1	4
550.636	1	7
550.806	1	7
550.976	1	9
551.146	1	-3
551.316	1	7
551.486	1	6
551.656	1	9
551.826	1	12
551.996	1	13
552.166	1	4
552.336	1	5
552.506	1	-2
552.676	1	0
552.846	1	12
553.016	1	2
553.186	1	4
553.356	1	3
553.526	1	4
553.696	1	16
553.866	1	10
554.036	1	9
554.206	1	2
554.376	1	-10
554.546	1	4
554.716	1	12
554.886	1	9
555.056	1	-3
555.226	1	5
555.396	1	1
555.566	1	1
555.736	1	-1
555.906	1	16
556.076	1	15
556.246	1	7
556.416	1	11
556.586	1	14
556.756	1	5
556.926	1	2
557.096	1	3
557.266	1	14
557.436	1	12
557.606	1	2
557.776	1	10
557.946	1	16
558.116	1	12
558.286	1	10
558.456	1	0
558.626	1	12
558.796	1	2
558.966	1	5
559.136	1	1
559.306	1	-10
559.476	1	3
559.646	1	-2
559.816	1	4
559.986	1	7
560.155	1	13
560.325	1	3
560.495	1	2
560.665	1	7
560.835	1	8
561.005	1	3
561.175	1	7
561.345	1	16
561.515	1	7
561.685	1	-2
561.855	1	13
562.025	1	-4
562.195	1	1
562.365	1	8
562.535	1	1
562.705	1	3
562.875	1	14
563.045	1	9
563.215	1	7
563.385	1	3
563.555	1	9
563.725	1	4
563.895	1	-7
564.064	1	9
564.234	1	1
564.404	1	-5
564.574	1	9
564.744	1	6
564.914	1	-3
565.084	1	2
565.254	1	10
565.424	1	3
565.594	1	3
565.764	1	21
565.934	1	7
566.104	1	1
566.274	1	3
566.444	1	14
566.614	1	10
566.783	1	10
566.953	1	7
567.123	1	20
567.293	1	2
567.463	1	7
567.633	1	6
567.803	1	5
567.973	1	-7
568.143	1	-2
568.313	1	-4
568.483	1	-5
568.653	1	-2
568.823	1	12
568.993	1	3
569.162	1	7
569.332	1	2
569.502	1	0
569.672	1	1
569.842	1	11
570.012	1	2
570.182	1	-4
570.352	1	5
570.522	1	9
570.692	1	5
570.862	1	3
571.031	1	1
571.201	1	12
571.371	1	4
571.541	1	-12
571.711	1	14
571.881	1	9
572.051	1	5
572.221	1	10
572.391	1	12
572.561	1	-2
572.731	1	0
572.900	1	8
573.070	1	4
573.240	1	-5
573.410	1	-1
573.580	1	7
573.750	1	14
573.920	1	2
574.090	1	5
574.260	1	8
574.430	1	6
574.599	1	2
574.769	1	1
574.939	1	-1
575.109	1	-6
575.279	1	16
575.449	1	4
575.619	1	11
575.789	1	2
575.959	1	-2
576.128	1	1
576.298	1	-4
576.468	1	-6
576.638	1	15
576.808	1	-2
576.978	1	-4
577.148	1	1
577.318	1	15
577.487	1	9
577.657	1	-14
577.827	1	16
577.997	1	0
578.167	1	7
578.337	1	-1
578.507	1	2
578.677	1	6
578.846	1	4
579.016	1	14
579.186	1	-3
579.356	1	3
579.526	1	2
579.696	1	7
579.866	1	10
580.036	1	3
580.205	1	8
580.375	1	5
580.545	1	-5
580.715	1	10
580.885	1	-4
581.055	1	8
581.225	1	2
581.394	1	0
581.564	1	1
581.734	1	8
581.904	1	5
582.074	1	7
582.244	1	6
582.414	1	4
582.583	1	-2
582.753	1	15
582.923	1	6
583.093	1	-1
583.263	1	12
583.433	1	-3
583.603	1	7
583.772	1	-1
583.942	1	6
584.112	1	12
584.282	1	7
584.452	1	4
584.622	1	10
584.791	1	11
584.961	1	9
585.131	1	-1
585.301	1	12
585.471	1	3
585.641	1	9
585.811	1	2
585.980	1	-2
586.150	1	4
586.320	1	-3
586.490	1	-4
586.660	1	7
586.830	1	-7
586.999	1	8
587.169	1	7
587.339	1	5
587.509	1	4
587.679	1	8
587.849	1	10
588.018	1	4
588.188	1	-1
588.358	1	4
588.528	1	8
588.698	1	-16
588.867	1	8
589.037	1	5
589.207	1	-5
589.377	1	4
589.547	1	0
589.717	1	14
589.886	1	-1
590.056	1	0
590.226	1	5
590.396	1	8
590.566	1	-5
590.735	1	19
590.905	1	9
591.075	1	-10
591.245	1	2
591.415	1	11
591.585	1	-13
591.754	1	11
591.924	1	-4
592.094	1	3
592.264	1	-3
592.434	1	2
592.603	1	0
592.773	1	3
592.943	1	-3
593.113	1	0
593.283	1	16
593.452	1	-12
593.622	1	-3
593.792	1	6
593.962	1	6
594.132	1	-8
594.301	1	12
594.471	1	2
594.641	1	2
594.811	1	0
594.981	1	3
595.150	1	5
595.320	1	5
595.490	1	-10
595.660	1	2
595.829	1	2
595.999	1	7
596.169	1	4
596.339	1	8
596.509	1	1
596.678	1	-2
596.848	1	11
597.018	1	7
597.188	1	6
597.358	1	3
597.527	1	0
597.697	1	0
597.867	1	0
598.037	1	2
598.206	1	4
598.376	1	10
598.546	1	-8
598.716	1	-1
598.885	1	-5
599.055	1	3
599.225	1	8
599.395	1	5
599.565	1	12
599.734	1	0
599.904	1	1
600.074	1	4
600.244	1	4
600.413	1	10
600.583	1	-7
600.753	1	3
600.923	1	14
601.092	1	-7
601.262	1	0
601.432	1	-2
601.602	1	10
601.771	1	8
601.941	1	-3
602.111	1	-2
602.281	1	0
602.451	1	2
602.620	1	10
602.790	1	3
602.960	1	-3
603.130	1	0
603.299	1	6
603.469	1	1
603.639	1	1
603.809	1	10
603.978	1	5
604.148	1	6
604.318	1	3
604.487	1	5
604.657	1	-1
604.827	1	-12
604.997	1	-2
605.166	1	0
605.336	1	0
605.506	1	3
605.676	1	2
605.845	1	3
606.015	1	6
606.185	1	1
606.355	1	11
606.524	1	2
606.694	1	11
606.864	1	-4
607.034	1	-3
607.203	1	16
607.373	1	1
607.543	1	-4
607.712	1	9
607.882	1	-9
608.052	1	10
608.222	1	3
608.391	1	0
608.561	1	11
608.731	1	-9
608.901	1	7
609.070	1	11
609.240	1	1
609.410	1	5
609.579	1	7
609.749	1	-1
609.919	1	-2
610.089	1	-3
610.258	1	16
610.428	1	5
610.598	1	4
610.767	1	8
610.937	1	-4
611.107	1	12
611.277	1	5
611.446	1	2
611.616	1	-6
611.786	1	15
611.955	1	10
612.125	1	0
612.295	1	3
612.465	1	3
612.634	1	-6
612.804	1	10
612.974	1	15
613.143	1	1
613.313	1	1
613.483	1	10
613.652	1	-2
613.822	1	10
613.992	1	13
614.162	1	7
614.331	1	4
614.501	1	3
614.671	1	-1
614.840	1	10
615.010	1	11
615.180	1	11
615.349	1	3
615.519	1	18
615.689	1	2
615.858	1	8
616.028	1	-2
616.198	1	-1
616.368	1	1
616.537	1	-5
616.707	1	-7
616.877	1	16
617.046	1	7
617.216	1	12
617.386	1	2
617.555	1	8
617.725	1	6
617.895	1	2
618.064	1	2
618.234	1	4
618.404	1	18
618.573	1	11
618.743	1	10
618.913	1	-3
619.082	1	3
619.252	1	2
619.422	1	0
619.591	1	15
619.761	1	4
619.931	1	1
620.100	1	6
620.270	1	2
620.440	1	4
620.609	1	1
620.779	1	4
620.949	1	-2
621.118	1	-5
621.288	1	13
621.458	1	8
621.627	1	-3
621.797	1	8
621.967	1	-4
622.136	1	5
622.306	1	12
622.476	1	-1
622.645	1	14
622.815	1	-1
622.985	1	3
623.154	1	7
623.324	1	8
623.494	1	2
623.663	1	-2
623.833	1	-3
624.002	1	-7
624.172	1	16
624.342	1	-10
624.511	1	-11
624.681	1	-12
624.851	1	-9
625.020	1	4
625.190	1	10
625.360	1	-1
625.529	1	8
625.699	1	-7
625.869	1	4
626.038	1	8
626.208	1	4
626.377	1	9
626.547	1	1
626.717	1	-3
626.886	1	-4
627.056	1	-7
627.226	1	0
627.395	1	6
627.565	1	8
627.735	1	6
627.904	1	9
628.074	1	9
628.243	1	-3
628.413	1	-2
628.583	1	6
628.752	1	12
628.922	1	-2
629.091	1	8
629.261	1	9
629.431	1	-7
629.600	1	10
629.770	1	4
629.940	1	2
630.109	1	12
630.279	1	3
630.448	1	-3
630.618	1	-3
630.788	1	-3
630.957	1	-4
631.127	1	7
631.297	1	-1
631.466	1	3
631.636	1	4
631.805	1	10
631.975	1	4
632.145	1	-7
632.314	1	16
632.484	1	-6
632.653	1	-1
632.823	1	14
632.993	1	6
633.162	1	1
633.332	1	14
633.501	1	12
633.671	1	8
633.841	1	-2
634.010	1	8
634.180	1	11
634.349	1	4
634.519	1	0
634.689	1	13
634.858	1	-6
635.028	1	7
635.197	1	-3
635.367	1	-3
635.537	1	1
635.706	1	-5
635.876	1	2
636.045	1	4
636.215	1	4
636.384	1	6
636.554	1	14
636.724	1	10
636.893	1	-2
637.063	1	9
637.232	1	3
637.402	1	10
637.572	1	4
637.741	1	10
637.911	1	7
638.080	1	1
638.250	1	4
638.419	1	9
638.589	1	4
638.759	1	1
638.928	1	-8
639.098	1	1
639.267	1	-2
639.437	1	-5
639.606	1	16
639.776	1	-9
639.946	1	1
640.115	1	-3
640.285	1	1
640.454	1	8
640.624	1	3
640.793	1	9
640.963	1	7
641.132	1	7
641.302	1	6
641.472	1	-7
641.641	1	-3
641.811	1	8
641.980	1	4
642.150	1	4
642.319	1	6
642.489	1	4
642.659	1	-2
642.828	1	5
642.998	1	-4
643.167	1	11
643.337	1	5
643.506	1	0
643.676	1	2
643.845	1	9
644.015	1	9
644.184	1	10
644.354	1	-3
644.524	1	1
644.693	1	8
644.863	1	2
645.032	1	2
645.202	1	0
645.371	1	-5
645.541	1	-5
645.710	1	-2
645.880	1	4
646.049	1	11
646.219	1	6
646.388	1	1
646.558	1	9
646.728	1	15
646.897	1	6
647.067	1	2
647.236	1	0
647.406	1	-3
647.575	1	1
647.745	1	9
647.914	1	-3
648.084	1	7
648.253	1	13
648.423	1	-3
648.592	1	7
648.762	1	4
648.931	1	12
649.101	1	0
649.270	1	18
649.440	1	10
649.610	1	10
649.779	1	0
649.949	1	4
650.118	1	-9
650.288	1	-2
650.457	1	5
650.627	1	0
650.796	1	8
650.966	1	-2
651.135	1	1
651.305	1	0
651.474	1	3
651.644	1	0
651.813	1	8
651.983	1	-2
652.152	1	5
652.322	1	13
652.491	1	1
652.661	1	9
652.830	1	-2
653.000	1	3
653.169	1	7
653.339	1	12
653.508	1	1
653.678	1	7
653.847	1	7
654.017	1	8
654.186	1	0
654.356	1	15
654.525	1	11
654.695	1	2
654.864	1	8
655.034	1	-1
655.203	1	5
655.373	1	0
655.542	1	6
655.712	1	-1
655.881	1	13
656.051	1	19
656.220	1	9
656.390	1	4
656.559	1	-3
656.729	1	7
656.898	1	13
657.068	1	-1
657.237	1	6
657.406	1	9
657.576	1	4
657.745	1	-5
657.915	1	15
658.084	1	4
658.254	1	7
658.423	1	-5
658.593	1	-8
658.762	1	-2
658.932	1	4
659.101	1	-7
659.271	1	7
659.440	1	12
659.610	1	3
659.779	1	-3
659.949	1	5
660.118	1	13
660.288	1	3
660.457	1	-7
660.626	1	-9
660.796	1	-4
660.965	1	5
661.135	1	3
661.304	1	-4
661.474	1	11
661.643	1	-4
661.813	1	5
661.982	1	8
662.152	1	-7
662.321	1	4
662.491	1	3
662.660	1	-2
662.829	1	-4
662.999	1	9
663.168	1	0
663.338	1	-1
663.507	1	2
663.677	1	0
663.846	1	3
664.016	1	1
664.185	1	-3
664.354	1	11
664.524	1	-2
664.693	1	6
664.863	1	6
665.032	1	4
665.202	1	6
665.371	1	5
665.541	1	2
665.710	1	-4
665.879	1	6
666.049	1	4
666.218	1	-5
666.388	1	1
666.557	1	-2
666.727	1	-7
666.896	1	4
667.065	1	13
667.235	1	3
667.404	1	-9
667.574	1	6
667.743	1	2
667.913	1	2
668.082	1	5
668.251	1	9
668.421	1	2
668.590	1	2
668.760	1	7
668.929	1	10
669.099	1	1
669.268	1	0
669.437	1	3
669.607	1	0
669.776	1	-2
669.946	1	12
670.115	1	5
670.285	1	10
670.454	1	1
670.623	1	8
670.793	1	-1
670.962	1	7
671.132	1	11
671.301	1	0
671.470	1	0
671.640	1	-12
671.809	1	0
671.979	1	18
672.148	1	11
672.317	1	11
672.487	1	-1
672.656	1	9
672.826	1	-6
672.995	1	6
673.164	1	4
673.334	1	8
673.503	1	-2
673.673	1	16
673.842	1	5
674.011	1	11
674.181	1	-6
674.350	1	3
674.520	1	-9
674.689	1	-2
674.858	1	-3
675.028	1	6
675.197	1	-1
675.367	1	2
675.536	1	12
675.705	1	-3
675.875	1	5
676.044	1	5
676.214	1	-1
676.383	1	5
676.552	1	0
676.722	1	6
676.891	1	-13
677.060	1	12
677.230	1	16
677.399	1	4
677.569	1	5
677.738	1	2
677.907	1	-17
678.077	1	14
678.246	1	3
678.416	1	-2
678.585	1	3
678.754	1	2
678.924	1	-4
679.093	1	0
679.262	1	6
679.432	1	-2
679.601	1	-8
679.771	1	11
679.940	1	2
680.109	1	1
680.279	1	-5
680.448	1	1
680.617	1	-5
680.787	1	10
680.956	1	1
681.125	1	17
681.295	1	8
681.464	1	-2
681.634	1	3
681.803	1	-9
681.972	1	-8
682.142	1	8
682.311	1	-4
682.480	1	-3
682.650	1	-3
682.819	1	1
682.988	1	1
683.158	1	4
683.327	1	8
683.496	1	-3
683.666	1	2
683.835	1	6
684.004	1	4
684.174	1	4
684.343	1	-10
684.512	1	10
684.682	1	10
684.851	1	-1
685.021	1	5
685.190	1	7
685.359	1	-9
685.529	1	2
685.698	1	4
685.867	1	-1
686.037	1	2
686.206	1	14
686.375	1	12
686.545	1	4
686.714	1	1
686.883	1	-2
687.053	1	5
687.222	1	1
687.391	1	3
687.561	1	9
687.730	1	-7
687.899	1	-1
688.069	1	-3
688.238	1	3
688.407	1	13
688.577	1	-7
688.746	1	4
