340.368	1	3
340.539	1	15
340.710	1	-7
340.881	1	4
341.052	1	-2
341.223	1	12
341.394	1	3
341.565	1	-7
341.737	1	5
341.908	1	12
342.079	1	8
342.250	1	-2
342.421	1	1
342.592	1	-7
342.763	1	-1
342.934	1	-8
343.105	1	13
343.276	1	1
343.447	1	-4
343.618	1	5
343.789	1	3
343.960	1	-3
344.131	1	-7
344.302	1	5
344.473	1	2
344.644	1	6
344.815	1	-1
344.986	1	5
345.157	1	5
345.328	1	-10
345.499	1	5
345.670	1	12
345.841	1	5
346.012	1	6
346.183	1	0
346.354	1	1
346.526	1	5
346.697	1	3
346.868	1	7
347.039	1	6
347.210	1	3
347.381	1	0
347.552	1	3
347.723	1	-1
347.894	1	-5
348.065	1	-1
348.236	1	-6
348.407	1	-2
348.578	1	10
348.749	1	5
348.920	1	13
349.091	1	13
349.262	1	-4
349.433	1	-3
349.604	1	11
349.775	1	12
349.946	1	2
350.117	1	10
350.288	1	2
350.459	1	3
350.630	1	-5
350.801	1	7
350.972	1	-5
351.143	1	0
351.314	1	2
351.485	1	-3
351.656	1	-2
351.827	1	0
351.998	1	4
352.169	1	5
352.340	1	7
352.511	1	5
352.682	1	1
352.853	1	-12
353.024	1	-3
353.195	1	1
353.366	1	2
353.537	1	7
353.708	1	10
353.879	1	1
354.050	1	9
354.221	1	-4
354.392	1	3
354.563	1	13
354.734	1	0
354.905	1	11
355.076	1	0
355.247	1	-2
355.418	1	0
355.589	1	4
355.760	1	6
355.931	1	11
356.102	1	0
356.273	1	2
356.444	1	-2
356.615	1	10
356.785	1	7
356.956	1	2
357.127	1	4
357.298	1	0
357.469	1	3
357.640	1	5
357.811	1	8
357.982	1	-4
358.153	1	7
358.324	1	2
358.495	1	5
358.666	1	3
358.837	1	7
359.008	1	4
359.179	1	5
359.350	1	0
359.521	1	0
359.692	1	10
359.863	1	-3
360.034	1	6
360.205	1	3
360.376	1	3
360.547	1	-1
360.718	1	2
360.889	1	8
361.060	1	8
361.231	1	9
361.401	1	9
361.572	1	3
361.743	1	-1
361.914	1	1
362.085	1	-3
362.256	1	2
362.427	1	1
362.598	1	4
362.769	1	5
362.940	1	6
363.111	1	13
363.282	1	4
363.453	1	6
363.624	1	6
363.795	1	5
363.966	1	6
364.137	1	4
364.308	1	3
364.478	1	9
364.649	1	16
364.820	1	9
364.991	1	6
365.162	1	-3
365.333	1	8
365.504	1	12
365.675	1	6
365.846	1	0
366.017	1	6
366.188	1	-4
366.359	1	10
366.530	1	13
366.701	1	7
366.871	1	21
367.042	1	14
367.213	1	9
367.384	1	12
367.555	1	1
367.726	1	16
367.897	1	4
368.068	1	15
368.239	1	16
368.410	1	12
368.581	1	15
368.752	1	6
368.923	1	-4
369.093	1	8
369.264	1	3
369.435	1	3
369.606	1	7
369.777	1	3
369.948	1	9
370.119	1	6
370.290	1	5
370.461	1	5
370.632	1	11
370.803	1	-1
370.973	1	11
371.144	1	11
371.315	1	13
371.486	1	14
371.657	1	4
371.828	1	7
371.999	1	1
372.170	1	19
372.341	1	7
372.512	1	-2
372.682	1	-1
372.853	1	9
373.024	1	5
373.195	1	4
373.366	1	5
373.537	1	17
373.708	1	6
373.879	1	14
374.050	1	3
374.220	1	2
374.391	1	9
374.562	1	10
374.733	1	17
374.904	1	4
375.075	1	15
375.246	1	7
375.417	1	12
375.588	1	6
375.758	1	10
375.929	1	0
376.100	1	13
376.271	1	-2
376.442	1	5
376.613	1	10
376.784	1	6
376.955	1	-7
377.125	1	3
377.296	1	10
377.467	1	-1
377.638	1	5
377.809	1	9
377.980	1	10
378.151	1	-1
378.321	1	8
378.492	1	4
378.663	1	8
378.834	1	6
379.005	1	9
379.176	1	4
379.347	1	5
379.518	1	-7
379.688	1	-2
379.859	1	-1
380.030	1	-2
380.201	1	-9
380.372	1	10
380.543	1	14
380.714	1	9
380.884	1	7
381.055	1	11
381.226	1	5
381.397	1	5
381.568	1	1
381.739	1	7
381.910	1	6
382.080	1	1
382.251	1	-2
382.422	1	12
382.593	1	-5
382.764	1	0
382.935	1	14
383.105	1	6
383.276	1	1
383.447	1	15
383.618	1	14
383.789	1	9
383.960	1	8
384.130	1	-4
384.301	1	12
384.472	1	-2
384.643	1	15
384.814	1	7
384.985	1	10
385.156	1	18
385.326	1	9
385.497	1	20
385.668	1	4
385.839	1	15
386.010	1	11
386.180	1	11
386.351	1	6
386.522	1	13
386.693	1	2
386.864	1	5
387.035	1	9
387.205	1	7
387.376	1	21
387.547	1	-4
387.718	1	12
387.889	1	24
388.060	1	5
388.230	1	16
388.401	1	13
388.572	1	5
388.743	1	12
388.914	1	10
389.084	1	9
389.255	1	14
389.426	1	15
389.597	1	6
389.768	1	12
389.939	1	14
390.109	1	4
390.280	1	12
390.451	1	19
390.622	1	10
390.793	1	16
390.963	1	9
391.134	1	13
391.305	1	22
391.476	1	13
391.647	1	9
391.817	1	1
391.988	1	-4
392.159	1	7
392.330	1	23
392.501	1	12
392.671	1	13
392.842	1	13
393.013	1	19
393.184	1	12
393.355	1	16
393.525	1	9
393.696	1	18
393.867	1	5
394.038	1	4
394.208	1	17
394.379	1	0
394.550	1	8
394.721	1	5
394.892	1	8
395.062	1	1
395.233	1	16
395.404	1	11
395.575	1	7
395.746	1	3
395.916	1	14
396.087	1	12
396.258	1	5
396.429	1	21
396.599	1	16
396.770	1	15
396.941	1	26
397.112	1	4
397.283	1	6
397.453	1	-3
397.624	1	9
397.795	1	16
397.966	1	24
398.136	1	11
398.307	1	19
398.478	1	10
398.649	1	9
398.819	1	19
398.990	1	12
399.161	1	18
399.332	1	12
399.503	1	4
399.673	1	16
399.844	1	5
400.015	1	9
400.186	1	16
400.356	1	7
400.527	1	13
400.698	1	12
400.869	1	18
401.039	1	3
401.210	1	8
401.381	1	8
401.552	1	20
401.722	1	11
401.893	1	20
402.064	1	11
402.235	1	12
402.405	1	4
402.576	1	9
402.747	1	11
402.918	1	10
403.088	1	2
403.259	1	-5
403.430	1	1
403.601	1	-4
403.771	1	12
403.942	1	18
404.113	1	18
404.284	1	11
404.454	1	16
404.625	1	8
404.796	1	-2
404.967	1	0
405.137	1	6
405.308	1	7
405.479	1	8
405.649	1	6
405.820	1	11
405.991	1	15
406.162	1	-5
406.332	1	-2
406.503	1	9
406.674	1	4
406.845	1	12
407.015	1	-4
407.186	1	17
407.357	1	6
407.527	1	10
407.698	1	1
407.869	1	2
408.040	1	4
408.210	1	4
408.381	1	10
408.552	1	5
408.722	1	10
408.893	1	4
409.064	1	10
409.235	1	8
409.405	1	11
409.576	1	8
409.747	1	-6
409.917	1	11
410.088	1	6
410.259	1	0
410.430	1	16
410.600	1	11
410.771	1	4
410.942	1	9
411.112	1	17
411.283	1	3
411.454	1	16
411.625	1	8
411.795	1	15
411.966	1	-1
412.137	1	11
412.307	1	6
412.478	1	14
412.649	1	6
412.819	1	5
412.990	1	1
413.161	1	-2
413.332	1	9
413.502	1	4
413.673	1	20
413.844	1	3
414.014	1	4
414.185	1	10
414.356	1	3
414.526	1	7
414.697	1	8
414.868	1	12
415.038	1	-1
415.209	1	6
415.380	1	5
415.550	1	-4
415.721	1	6
415.892	1	-6
416.063	1	20
416.233	1	3
416.404	1	8
416.575	1	-1
416.745	1	0
416.916	1	0
417.087	1	7
417.257	1	-1
417.428	1	5
417.599	1	10
417.769	1	5
417.940	1	6
418.111	1	10
418.281	1	13
418.452	1	10
418.623	1	4
418.793	1	10
418.964	1	2
419.135	1	6
419.305	1	10
419.476	1	6
419.647	1	8
419.817	1	14
419.988	1	4
420.159	1	1
420.329	1	2
420.500	1	3
420.671	1	10
420.841	1	4
421.012	1	2
421.183	1	6
421.353	1	9
421.524	1	1
421.695	1	11
421.865	1	8
422.036	1	0
422.206	1	5
422.377	1	14
422.548	1	10
422.718	1	6
422.889	1	1
423.060	1	1
423.230	1	7
423.401	1	6
423.572	1	2
423.742	1	4
423.913	1	3
424.084	1	10
424.254	1	9
424.425	1	5
424.595	1	-8
424.766	1	1
424.937	1	-3
425.107	1	1
425.278	1	-2
425.449	1	8
425.619	1	1
425.790	1	8
425.961	1	2
426.131	1	7
426.302	1	4
426.472	1	-5
426.643	1	6
426.814	1	12
426.984	1	5
427.155	1	8
427.326	1	7
427.496	1	9
427.667	1	11
427.837	1	6
428.008	1	1
428.179	1	-2
428.349	1	-6
428.520	1	-3
428.691	1	-1
428.861	1	0
429.032	1	7
429.202	1	14
429.373	1	-6
429.544	1	3
429.714	1	9
429.885	1	13
430.055	1	-2
430.226	1	1
430.397	1	7
430.567	1	6
430.738	1	-1
430.909	1	-8
431.079	1	4
431.250	1	-5
431.420	1	2
431.591	1	9
431.762	1	9
431.932	1	7
432.103	1	9
432.273	1	3
432.444	1	14
432.615	1	4
432.785	1	5
432.956	1	8
433.126	1	6
433.297	1	18
433.468	1	-4
433.638	1	4
433.809	1	7
433.979	1	-1
434.150	1	1
434.320	1	-5
434.491	1	11
434.662	1	2
434.832	1	-8
435.003	1	14
435.173	1	11
435.344	1	2
435.515	1	14
435.685	1	12
435.856	1	-5
436.026	1	5
436.197	1	5
436.368	1	5
436.538	1	4
436.709	1	-4
436.879	1	0
437.050	1	13
437.220	1	9
437.391	1	7
437.562	1	13
437.732	1	5
437.903	1	8
438.073	1	13
438.244	1	-2
438.414	1	0
438.585	1	8
438.756	1	12
438.926	1	-1
439.097	1	20
439.267	1	8
439.438	1	4
439.608	1	0
439.779	1	1
439.949	1	2
440.120	1	0
440.291	1	2
440.461	1	-5
440.632	1	8
440.802	1	6
440.973	1	6
441.143	1	2
441.314	1	11
441.485	1	2
441.655	1	15
441.826	1	-11
441.996	1	3
442.167	1	9
442.337	1	-3
442.508	1	7
442.678	1	1
442.849	1	3
443.019	1	6
443.190	1	-1
443.361	1	16
443.531	1	5
443.702	1	3
443.872	1	6
444.043	1	6
444.213	1	-5
444.384	1	7
444.554	1	0
444.725	1	9
444.895	1	3
445.066	1	-3
445.237	1	-4
445.407	1	7
445.578	1	18
445.748	1	-14
445.919	1	-6
446.089	1	14
446.260	1	11
446.430	1	-2
446.601	1	5
446.771	1	-6
446.942	1	4
447.112	1	7
447.283	1	-6
447.453	1	0
447.624	1	5
447.794	1	-3
447.965	1	1
448.135	1	-2
448.306	1	4
448.477	1	0
448.647	1	13
448.818	1	9
448.988	1	-7
449.159	1	1
449.329	1	1
449.500	1	15
449.670	1	4
449.841	1	-3
450.011	1	1
450.182	1	-7
450.352	1	12
450.523	1	-7
450.693	1	-1
450.864	1	1
451.034	1	10
451.205	1	-3
451.375	1	6
451.546	1	5
451.716	1	2
451.887	1	-7
452.057	1	16
452.228	1	1
452.398	1	0
452.569	1	-1
452.739	1	4
452.910	1	1
453.080	1	13
453.251	1	-10
453.421	1	-2
453.592	1	-2
453.762	1	6
453.933	1	5
454.103	1	14
454.274	1	-8
454.444	1	12
454.615	1	13
454.785	1	-2
454.956	1	0
455.126	1	-1
455.297	1	-1
455.467	1	8
455.638	1	12
455.808	1	5
455.979	1	9
456.149	1	-2
456.320	1	5
456.490	1	2
456.661	1	6
456.831	1	22
457.001	1	14
457.172	1	4
457.342	1	8
457.513	1	6
457.683	1	12
457.854	1	2
458.024	1	4
458.195	1	-4
458.365	1	7
458.536	1	8
458.706	1	0
458.877	1	5
459.047	1	5
459.218	1	2
459.388	1	12
459.559	1	3
459.729	1	2
459.899	1	17
460.070	1	10
460.240	1	5
460.411	1	7
460.581	1	12
460.752	1	-4
460.922	1	5
461.093	1	-2
461.263	1	9
461.434	1	7
461.604	1	13
461.775	1	7
461.945	1	9
462.115	1	-3
462.286	1	6
462.456	1	5
462.627	1	3
462.797	1	-7
462.968	1	0
463.138	1	10
463.309	1	2
463.479	1	9
463.649	1	5
463.820	1	5
463.990	1	-3
464.161	1	14
464.331	1	2
464.502	1	4
464.672	1	3
464.843	1	5
465.013	1	-7
465.183	1	14
465.354	1	13
465.524	1	3
465.695	1	10
465.865	1	2
466.036	1	5
466.206	1	5
466.376	1	4
466.547	1	5
466.717	1	-2
466.888	1	-2
467.058	1	17
467.229	1	3
467.399	1	5
467.569	1	6
467.740	1	6
467.910	1	2
468.081	1	3
468.251	1	-6
468.422	1	7
468.592	1	16
468.762	1	-15
468.933	1	0
469.103	1	1
469.274	1	0
469.444	1	3
469.614	1	4
469.785	1	2
469.955	1	4
470.126	1	1
470.296	1	4
470.467	1	0
470.637	1	3
470.807	1	-3
470.978	1	-2
471.148	1	-3
471.319	1	4
471.489	1	3
471.659	1	5
471.830	1	17
472.000	1	4
472.171	1	4
472.341	1	10
472.511	1	14
472.682	1	8
472.852	1	4
473.023	1	-6
473.193	1	2
473.363	1	4
473.534	1	-1
473.704	1	10
473.875	1	4
474.045	1	-7
474.215	1	0
474.386	1	6
474.556	1	-12
474.727	1	10
474.897	1	1
475.067	1	8
475.238	1	4
475.408	1	-1
475.578	1	4
475.749	1	-10
475.919	1	10
476.090	1	3
476.260	1	-5
476.430	1	6
476.601	1	-4
476.771	1	9
476.942	1	9
477.112	1	0
477.282	1	-12
477.453	1	6
477.623	1	7
477.793	1	15
477.964	1	12
478.134	1	11
478.305	1	5
478.475	1	3
478.645	1	-5
478.816	1	-2
478.986	1	-2
479.156	1	1
479.327	1	-2
479.497	1	3
479.667	1	3
479.838	1	0
480.008	1	13
480.179	1	-1
480.349	1	8
480.519	1	2
480.690	1	-1
480.860	1	6
481.030	1	3
481.201	1	-4
481.371	1	4
481.541	1	5
481.712	1	-6
481.882	1	3
482.053	1	10
482.223	1	-5
482.393	1	-3
482.564	1	-9
482.734	1	6
482.904	1	8
483.075	1	2
483.245	1	6
483.415	1	10
483.586	1	-14
483.756	1	13
483.926	1	10
484.097	1	4
484.267	1	0
484.437	1	-5
484.608	1	-2
484.778	1	3
484.948	1	-13
485.119	1	8
485.289	1	15
485.459	1	5
485.630	1	2
485.800	1	4
485.970	1	2
486.141	1	-4
486.311	1	-6
486.481	1	11
486.652	1	5
486.822	1	12
486.992	1	1
487.163	1	-7
487.333	1	10
487.503	1	0
487.674	1	-2
487.844	1	10
488.014	1	16
488.185	1	1
488.355	1	-11
488.525	1	3
488.696	1	3
488.866	1	9
489.036	1	12
489.207	1	21
489.377	1	5
489.547	1	-4
489.718	1	-6
489.888	1	2
490.058	1	-2
490.228	1	-7
490.399	1	9
490.569	1	11
490.739	1	7
490.910	1	6
491.080	1	13
491.250	1	4
491.421	1	4
491.591	1	-1
491.761	1	9
491.932	1	5
492.102	1	-6
492.272	1	7
492.442	1	6
492.613	1	5
492.783	1	2
492.953	1	9
493.124	1	0
493.294	1	14
493.464	1	-1
493.635	1	-1
493.805	1	10
493.975	1	2
494.145	1	5
494.316	1	4
494.486	1	10
494.656	1	3
494.827	1	-2
494.997	1	0
495.167	1	14
495.337	1	12
495.508	1	-1
495.678	1	12
495.848	1	5
496.019	1	2
496.189	1	8
496.359	1	4
496.529	1	6
496.700	1	-5
496.870	1	2
497.040	1	0
497.211	1	8
497.381	1	-5
497.551	1	6
497.721	1	5
497.892	1	3
498.062	1	4
498.232	1	1
498.403	1	-1
498.573	1	-4
498.743	1	0
498.913	1	8
499.084	1	-10
499.254	1	9
499.424	1	14
499.594	1	13
499.765	1	10
499.935	1	-4
500.105	1	3
500.275	1	8
500.446	1	5
500.616	1	3
500.786	1	8
500.956	1	-1
501.127	1	22
501.297	1	10
501.467	1	8
501.638	1	9
501.808	1	-5
501.978	1	4
502.148	1	10
502.319	1	5
502.489	1	8
502.659	1	4
502.829	1	17
503.000	1	19
503.170	1	11
503.340	1	-2
503.510	1	8
503.681	1	6
503.851	1	-6
504.021	1	18
504.191	1	1
504.362	1	17
504.532	1	-1
504.702	1	4
504.872	1	3
505.042	1	6
505.213	1	-4
505.383	1	4
505.553	1	12
505.723	1	2
505.894	1	10
506.064	1	5
506.234	1	11
506.404	1	3
506.575	1	3
506.745	1	1
506.915	1	4
507.085	1	-9
507.256	1	4
507.426	1	11
507.596	1	11
507.766	1	7
507.936	1	7
508.107	1	1
508.277	1	1
508.447	1	10
508.617	1	9
508.788	1	1
508.958	1	16
509.128	1	3
509.298	1	15
509.468	1	8
509.639	1	9
509.809	1	9
509.979	1	2
510.149	1	3
510.319	1	7
510.490	1	19
510.660	1	10
510.830	1	2
511.000	1	8
511.171	1	13
511.341	1	-2
511.511	1	7
511.681	1	8
511.851	1	-10
512.022	1	-8
512.192	1	12
512.362	1	14
512.532	1	8
512.702	1	-4
512.873	1	15
513.043	1	9
513.213	1	5
513.383	1	-3
513.553	1	-11
513.724	1	10
513.894	1	9
514.064	1	2
514.234	1	8
514.404	1	7
514.575	1	7
514.745	1	9
514.915	1	8
515.085	1	9
515.255	1	-1
515.425	1	8
515.596	1	0
515.766	1	8
515.936	1	3
516.106	1	13
516.276	1	10
516.447	1	10
516.617	1	3
516.787	1	6
516.957	1	5
517.127	1	7
517.297	1	4
517.468	1	0
517.638	1	8
517.808	1	2
517.978	1	12
518.148	1	10
518.319	1	1
518.489	1	5
518.659	1	-10
518.829	1	0
518.999	1	4
519.169	1	18
519.340	1	11
519.510	1	7
519.680	1	-2
519.850	1	0
520.020	1	2
520.190	1	-1
520.361	1	6
520.531	1	4
520.701	1	6
520.871	1	2
521.041	1	0
521.211	1	11
521.382	1	8
521.552	1	7
521.722	1	6
521.892	1	-4
522.062	1	4
522.232	1	-2
522.402	1	-9
522.573	1	12
522.743	1	16
522.913	1	2
523.083	1	3
523.253	1	2
523.423	1	-2
523.593	1	-9
523.764	1	16
523.934	1	13
524.104	1	10
524.274	1	-6
524.444	1	15
524.614	1	5
524.784	1	8
524.955	1	7
525.125	1	9
525.295	1	6
525.465	1	8
525.635	1	13
525.805	1	5
525.975	1	0
526.146	1	10
526.316	1	0
526.486	1	10
526.656	1	24
526.826	1	9
526.996	1	13
527.166	1	4
527.337	1	8
527.507	1	-5
527.677	1	14
527.847	1	-2
528.017	1	1
528.187	1	6
528.357	1	9
528.527	1	7
528.698	1	7
528.868	1	2
529.038	1	16
529.208	1	3
529.378	1	5
529.548	1	8
529.718	1	8
529.888	1	13
530.058	1	9
530.229	1	7
530.399	1	12
530.569	1	20
530.739	1	6
530.909	1	3
531.079	1	18
531.249	1	4
531.419	1	16
531.589	1	0
531.760	1	12
531.930	1	11
532.100	1	15
532.270	1	14
532.440	1	13
532.610	1	7
532.780	1	8
532.950	1	8
533.120	1	1
533.290	1	0
533.461	1	21
533.631	1	0
533.801	1	12
533.971	1	6
534.141	1	6
534.311	1	10
534.481	1	2
534.651	1	2
534.821	1	9
534.991	1	9
535.162	1	7
535.332	1	10
535.502	1	9
535.672	1	3
535.842	1	4
536.012	1	13
536.182	1	-1
536.352	1	11
536.522	1	9
536.692	1	1
536.862	1	2
537.032	1	1
537.203	1	11
537.373	1	2
537.543	1	13
537.713	1	14
537.883	1	14
538.053	1	15
538.223	1	8
538.393	1	11
538.563	1	5
538.733	1	5
538.903	1	2
539.073	1	0
539.243	1	4
539.413	1	10
539.584	1	6
539.754	1	-2
539.924	1	7
540.094	1	10
540.264	1	6
540.434	1	1
540.604	1	6
540.774	1	10
540.944	1	0
541.114	1	7
541.284	1	5
541.454	1	7
541.624	1	12
541.794	1	5
541.964	1	3
542.134	1	3
542.305	1	0
542.475	1	10
542.645	1	4
542.815	1	12
542.985	1	3
543.155	1	11
543.325	1	7
543.495	1	8
543.665	1	17
543.835	1	3
544.005	1	0
544.175	1	5
544.345	1	2
544.515	1	5
544.685	1	11
544.855	1	13
545.025	1	1
545.195	1	9
545.365	1	8
545.535	1	-3
545.705	1	11
545.875	1	2
546.045	1	7
546.216	1	10
546.386	1	9
546.556	1	-3
546.726	1	5
546.896	1	-2
547.066	1	-4
547.236	1	4
547.406	1	15
547.576	1	4
547.746	1	16
547.916	1	-2
548.086	1	20
548.256	1	10
548.426	1	3
548.596	1	-4
548.766	1	1
548.936	1	-1
549.106	1	15
549.276	1	19
549.446	1	7
549.616	1	20
549.786	1	7
549.956	1	13
550.126	1	3
550.296	1	12
550.466	1	-6
550.636	1	9
550.806	1	15
550.976	1	9
551.146	1	4
551.316	1	12
551.486	1	13
551.656	1	-2
551.826	1	13
551.996	1	11
552.166	1	5
552.336	1	3
552.506	1	1
552.676	1	3
552.846	1	10
553.016	1	6
553.186	1	16
553.356	1	5
553.526	1	-3
553.696	1	11
553.866	1	5
554.036	1	10
554.206	1	11
554.376	1	-1
554.546	1	-11
554.716	1	9
554.886	1	8
555.056	1	-5
555.226	1	-4
555.396	1	5
555.566	1	9
555.736	1	-1
555.906	1	6
556.076	1	6
556.246	1	6
556.416	1	6
556.586	1	9
556.756	1	10
556.926	1	3
557.096	1	11
557.266	1	7
557.436	1	7
557.606	1	-9
557.776	1	7
557.946	1	8
558.116	1	10
558.286	1	9
558.456	1	0
558.626	1	7
558.796	1	4
558.966	1	7
559.136	1	8
559.306	1	-9
559.476	1	6
559.646	1	7
559.816	1	10
559.986	1	11
560.155	1	3
560.325	1	-5
560.495	1	-6
560.665	1	7
560.835	1	3
561.005	1	5
561.175	1	4
561.345	1	9
561.515	1	-1
561.685	1	2
561.855	1	10
562.025	1	3
562.195	1	2
562.365	1	10
562.535	1	0
562.705	1	16
562.875	1	0
563.045	1	4
563.215	1	12
563.385	1	8
563.555	1	18
563.725	1	1
563.895	1	4
564.064	1	13
564.234	1	4
564.404	1	3
564.574	1	2
564.744	1	7
564.914	1	-12
565.084	1	-6
565.254	1	9
565.424	1	11
565.594	1	-6
565.764	1	10
565.934	1	10
566.104	1	-3
566.274	1	9
566.444	1	6
566.614	1	10
566.783	1	-2
566.953	1	2
567.123	1	14
567.293	1	0
567.463	1	11
567.633	1	-8
567.803	1	0
567.973	1	-2
568.143	1	4
568.313	1	12
568.483	1	6
568.653	1	-7
568.823	1	5
568.993	1	2
569.162	1	9
569.332	1	-12
569.502	1	0
569.672	1	2
569.842	1	3
570.012	1	0
570.182	1	0
570.352	1	15
570.522	1	8
570.692	1	3
570.862	1	4
571.031	1	-1
571.201	1	6
571.371	1	5
571.541	1	-5
571.711	1	16
571.881	1	7
572.051	1	13
572.221	1	3
572.391	1	11
572.561	1	-4
572.731	1	-3
572.900	1	8
573.070	1	15
573.240	1	-2
573.410	1	4
573.580	1	7
573.750	1	6
573.920	1	5
574.090	1	1
574.260	1	-9
574.430	1	-4
574.599	1	-1
574.769	1	9
574.939	1	4
575.109	1	7
575.279	1	2
575.449	1	5
575.619	1	10
575.789	1	11
575.959	1	5
576.128	1	9
576.298	1	-2
576.468	1	-1
576.638	1	9
576.808	1	-1
576.978	1	2
577.148	1	5
577.318	1	4
577.487	1	10
577.657	1	-16
577.827	1	14
577.997	1	-4
578.167	1	10
578.337	1	3
578.507	1	5
578.677	1	-4
578.846	1	4
579.016	1	8
579.186	1	-1
579.356	1	2
579.526	1	1
579.696	1	10
579.866	1	8
580.036	1	1
580.205	1	7
580.375	1	5
580.545	1	-5
580.715	1	9
580.885	1	5
581.055	1	-1
581.225	1	-4
581.394	1	0
581.564	1	3
581.734	1	9
581.904	1	-5
582.074	1	3
582.244	1	6
582.414	1	4
582.583	1	3
582.753	1	14
582.923	1	6
583.093	1	-2
583.263	1	10
583.433	1	2
583.603	1	9
583.772	1	4
583.942	1	11
584.112	1	4
584.282	1	10
584.452	1	9
584.622	1	16
584.791	1	4
584.961	1	3
585.131	1	-4
585.301	1	6
585.471	1	6
585.641	1	10
585.811	1	3
585.980	1	0
586.150	1	11
586.320	1	-8
586.490	1	2
586.660	1	11
586.830	1	-4
586.999	1	5
587.169	1	-2
587.339	1	11
587.509	1	5
587.679	1	0
587.849	1	3
588.018	1	10
588.188	1	1
588.358	1	11
588.528	1	8
588.698	1	3
588.867	1	2
589.037	1	9
589.207	1	-2
589.377	1	15
589.547	1	-8
589.717	1	4
589.886	1	-2
590.056	1	2
590.226	1	7
590.396	1	7
590.566	1	2
590.735	1	10
590.905	1	4
591.075	1	-10
591.245	1	7
591.415	1	3
591.585	1	-3
591.754	1	5
591.924	1	4
592.094	1	1
592.264	1	15
592.434	1	-2
592.603	1	-8
592.773	1	0
592.943	1	-2
593.113	1	-6
593.283	1	4
593.452	1	-3
593.622	1	-1
593.792	1	-3
593.962	1	11
594.132	1	-3
594.301	1	18
594.471	1	10
594.641	1	-11
594.811	1	6
594.981	1	3
595.150	1	3
595.320	1	3
595.490	1	-1
595.660	1	-3
595.829	1	-4
595.999	1	3
596.169	1	6
596.339	1	6
596.509	1	1
596.678	1	-1
596.848	1	11
597.018	1	3
597.188	1	3
597.358	1	13
597.527	1	-1
597.697	1	-6
597.867	1	3
598.037	1	8
598.206	1	-6
598.376	1	18
598.546	1	-10
598.716	1	0
598.885	1	-6
599.055	1	4
599.225	1	8
599.395	1	11
599.565	1	7
599.734	1	5
599.904	1	-5
600.074	1	-1
600.244	1	6
600.413	1	-4
600.583	1	5
600.753	1	0
600.923	1	13
601.092	1	-7
601.262	1	11
601.432	1	2
601.602	1	6
601.771	1	10
601.941	1	-2
602.111	1	-9
602.281	1	4
602.451	1	4
602.620	1	10
602.790	1	4
602.960	1	6
603.130	1	9
603.299	1	5
603.469	1	3
603.639	1	7
603.809	1	9
603.978	1	-5
604.148	1	6
604.318	1	2
604.487	1	6
604.657	1	8
604.827	1	-17
604.997	1	6
605.166	1	5
605.336	1	0
605.506	1	6
605.676	1	4
605.845	1	5
606.015	1	9
606.185	1	5
606.355	1	6
606.524	1	0
606.694	1	11
606.864	1	-4
607.034	1	3
607.203	1	9
607.373	1	-1
607.543	1	-9
607.712	1	9
607.882	1	-1
608.052	1	4
608.222	1	0
608.391	1	4
608.561	1	11
608.731	1	-7
608.901	1	11
609.070	1	7
609.240	1	-3
609.410	1	3
609.579	1	1
609.749	1	-3
609.919	1	5
610.089	1	-12
610.258	1	10
610.428	1	2
610.598	1	10
610.767	1	10
610.937	1	-4
611.107	1	7
611.277	1	10
611.446	1	4
611.616	1	-17
611.786	1	6
611.955	1	10
612.125	1	2
612.295	1	-2
612.465	1	1
612.634	1	0
612.804	1	10
612.974	1	3
613.143	1	10
613.313	1	10
613.483	1	5
613.652	1	-3
613.822	1	7
613.992	1	-2
614.162	1	4
614.331	1	3
614.501	1	-1
614.671	1	10
614.840	1	4
615.010	1	-2
615.180	1	5
615.349	1	4
615.519	1	5
615.689	1	4
615.858	1	6
616.028	1	0
616.198	1	15
616.368	1	1
616.537	1	0
616.707	1	-3
616.877	1	8
617.046	1	7
617.216	1	-1
617.386	1	10
617.555	1	-11
617.725	1	7
617.895	1	-8
618.064	1	3
618.234	1	5
618.404	1	1
618.573	1	-4
618.743	1	-1
618.913	1	0
619.082	1	1
619.252	1	14
619.422	1	4
619.591	1	2
619.761	1	4
619.931	1	5
620.100	1	0
620.270	1	0
620.440	1	2
620.609	1	9
620.779	1	3
620.949	1	1
621.118	1	3
621.288	1	8
621.458	1	-2
621.627	1	-6
621.797	1	3
621.967	1	0
622.136	1	-4
622.306	1	13
622.476	1	9
622.645	1	7
622.815	1	-2
622.985	1	8
623.154	1	3
623.324	1	9
623.494	1	-4
623.663	1	2
623.833	1	5
624.002	1	-3
624.172	1	7
624.342	1	-10
624.511	1	6
624.681	1	-3
624.851	1	-3
625.020	1	-2
625.190	1	6
625.360	1	-1
625.529	1	10
625.699	1	-4
625.869	1	7
626.038	1	10
626.208	1	-2
626.377	1	18
626.547	1	6
626.717	1	5
626.886	1	-1
627.056	1	2
627.226	1	2
627.395	1	4
627.565	1	5
627.735	1	6
627.904	1	-3
628.074	1	10
628.243	1	-6
628.413	1	-4
628.583	1	-3
628.752	1	-1
628.922	1	3
629.091	1	8
629.261	1	15
629.431	1	-6
629.600	1	10
629.770	1	10
629.940	1	10
630.109	1	-1
630.279	1	0
630.448	1	2
630.618	1	-2
630.788	1	1
630.957	1	-5
631.127	1	12
631.297	1	2
631.466	1	11
631.636	1	8
631.805	1	2
631.975	1	13
632.145	1	-10
632.314	1	12
632.484	1	-6
632.653	1	-6
632.823	1	13
632.993	1	4
633.162	1	1
633.332	1	6
633.501	1	-1
633.671	1	4
633.841	1	13
634.010	1	-11
634.180	1	6
634.349	1	3
634.519	1	-1
634.689	1	9
634.858	1	11
635.028	1	6
635.197	1	-6
635.367	1	6
635.537	1	1
635.706	1	-5
635.876	1	-2
636.045	1	7
636.215	1	6
636.384	1	11
636.554	1	9
636.724	1	11
636.893	1	5
637.063	1	-4
637.232	1	0
637.402	1	17
637.572	1	0
637.741	1	5
637.911	1	4
638.080	1	0
638.250	1	10
638.419	1	6
638.589	1	14
638.759	1	1
638.928	1	-4
639.098	1	1
639.267	1	2
639.437	1	-10
639.606	1	19
639.776	1	-1
639.946	1	4
640.115	1	-3
640.285	1	9
640.454	1	17
640.624	1	1
640.793	1	9
640.963	1	-3
641.132	1	12
641.302	1	2
641.472	1	4
641.641	1	-4
641.811	1	3
641.980	1	-1
642.150	1	-4
642.319	1	-4
642.489	1	-6
642.659	1	-6
642.828	1	3
642.998	1	-2
643.167	1	10
643.337	1	8
643.506	1	-14
643.676	1	2
643.845	1	6
644.015	1	11
644.184	1	5
644.354	1	-1
644.524	1	-6
644.693	1	2
644.863	1	-13
645.032	1	-1
645.202	1	-3
645.371	1	-5
645.541	1	-15
645.710	1	-2
645.880	1	7
646.049	1	17
646.219	1	3
646.388	1	0
646.558	1	3
646.728	1	10
646.897	1	0
647.067	1	7
647.236	1	8
647.406	1	-5
647.575	1	6
647.745	1	5
647.914	1	-10
648.084	1	6
648.253	1	7
648.423	1	1
648.592	1	3
648.762	1	0
648.931	1	9
649.101	1	8
649.270	1	11
649.440	1	6
649.610	1	14
649.779	1	3
649.949	1	-5
650.118	1	-13
650.288	1	6
650.457	1	2
650.627	1	1
650.796	1	4
650.966	1	3
651.135	1	18
651.305	1	-1
651.474	1	10
651.644	1	2
651.813	1	12
651.983	1	4
652.152	1	-6
652.322	1	5
652.491	1	9
652.661	1	1
652.830	1	3
653.000	1	0
653.169	1	1
653.339	1	6
653.508	1	4
653.678	1	-4
653.847	1	8
654.017	1	0
654.186	1	-3
654.356	1	3
654.525	1	19
654.695	1	2
654.864	1	6
655.034	1	12
655.203	1	3
655.373	1	6
655.542	1	5
655.712	1	-7
655.881	1	1
656.051	1	16
656.220	1	11
656.390	1	3
656.559	1	-7
656.729	1	7
656.898	1	13
657.068	1	-4
657.237	1	9
657.406	1	-3
657.576	1	-4
657.745	1	-1
657.915	1	9
658.084	1	12
658.254	1	12
658.423	1	2
658.593	1	-3
658.762	1	-14
658.932	1	0
659.101	1	-5
659.271	1	7
659.440	1	12
659.610	1	-5
659.779	1	-2
659.949	1	6
660.118	1	1
660.288	1	7
660.457	1	5
660.626	1	-6
660.796	1	-6
660.965	1	-2
661.135	1	3
661.304	1	0
661.474	1	-7
661.643	1	-1
661.813	1	8
661.982	1	-5
662.152	1	4
662.321	1	3
662.491	1	-4
662.660	1	5
662.829	1	3
662.999	1	5
663.168	1	7
663.338	1	-4
663.507	1	3
663.677	1	-10
663.846	1	0
664.016	1	2
664.185	1	6
664.354	1	8
664.524	1	-4
664.693	1	4
664.863	1	11
665.032	1	1
665.202	1	-5
665.371	1	1
665.541	1	-7
665.710	1	-2
665.879	1	-6
666.049	1	-2
666.218	1	-1
666.388	1	1
666.557	1	11
666.727	1	-13
666.896	1	-1
667.065	1	5
667.235	1	11
667.404	1	-5
667.574	1	1
667.743	1	6
667.913	1	6
668.082	1	-3
668.251	1	1
668.421	1	7
668.590	1	2
668.760	1	2
668.929	1	10
669.099	1	-7
669.268	1	7
669.437	1	9
669.607	1	-6
669.776	1	-3
669.946	1	13
670.115	1	8
670.285	1	5
670.454	1	4
670.623	1	14
670.793	1	4
670.962	1	-4
671.132	1	7
671.301	1	2
671.470	1	-3
671.640	1	-7
671.809	1	7
671.979	1	14
672.148	1	10
672.317	1	-5
672.487	1	-4
672.656	1	6
672.826	1	-8
672.995	1	-2
673.164	1	11
673.334	1	14
673.503	1	-5
673.673	1	20
673.842	1	-1
674.011	1	6
674.181	1	-5
674.350	1	4
674.520	1	-6
674.689	1	4
674.858	1	2
675.028	1	9
675.197	1	8
675.367	1	8
675.536	1	3
675.705	1	-11
675.875	1	5
676.044	1	1
676.214	1	1
676.383	1	1
676.552	1	-5
676.722	1	0
676.891	1	-5
677.060	1	1
677.230	1	7
677.399	1	6
677.569	1	4
677.738	1	-6
677.907	1	-4
678.077	1	8
678.246	1	-3
678.416	1	3
678.585	1	6
678.754	1	-3
678.924	1	-5
679.093	1	6
679.262	1	1
679.432	1	-2
679.601	1	-10
679.771	1	-10
679.940	1	0
680.109	1	1
680.279	1	-6
680.448	1	8
680.617	1	-4
680.787	1	-2
680.956	1	10
681.125	1	2
681.295	1	9
681.464	1	-4
681.634	1	10
681.803	1	-10
681.972	1	-8
682.142	1	12
682.311	1	3
682.480	1	-2
682.650	1	0
682.819	1	7
682.988	1	-10
683.158	1	0
683.327	1	-2
683.496	1	0
683.666	1	-5
683.835	1	4
684.004	1	4
684.174	1	7
684.343	1	-6
684.512	1	-1
684.682	1	9
684.851	1	-6
685.021	1	0
685.190	1	4
685.359	1	-12
685.529	1	2
685.698	1	1
685.867	1	-4
686.037	1	6
686.206	1	3
686.375	1	5
686.545	1	11
686.714	1	-6
686.883	1	-8
687.053	1	5
687.222	1	-1
687.391	1	-4
687.561	1	5
687.730	1	5
687.899	1	3
688.069	1	2
688.238	1	-1
688.407	1	10
688.577	1	-9
688.746	1	1
