340.368	1	2
340.539	1	-3
340.710	1	-11
340.881	1	4
341.052	1	1
341.223	1	13
341.394	1	-6
341.565	1	-10
341.737	1	3
341.908	1	0
342.079	1	-8
342.250	1	3
342.421	1	-1
342.592	1	-2
342.763	1	-2
342.934	1	4
343.105	1	8
343.276	1	-3
343.447	1	1
343.618	1	-1
343.789	1	-2
343.960	1	-1
344.131	1	-10
344.302	1	-1
344.473	1	-8
344.644	1	-7
344.815	1	8
344.986	1	4
345.157	1	10
345.328	1	1
345.499	1	3
345.670	1	5
345.841	1	2
346.012	1	3
346.183	1	-1
346.354	1	-2
346.526	1	5
346.697	1	6
346.868	1	-5
347.039	1	1
347.210	1	5
347.381	1	-2
347.552	1	-1
347.723	1	-1
347.894	1	-4
348.065	1	0
348.236	1	-3
348.407	1	2
348.578	1	3
348.749	1	-5
348.920	1	2
349.091	1	-1
349.262	1	-9
349.433	1	2
349.604	1	8
349.775	1	-1
349.946	1	6
350.117	1	3
350.288	1	1
350.459	1	9
350.630	1	-6
350.801	1	8
350.972	1	-7
351.143	1	-6
351.314	1	-2
351.485	1	-8
351.656	1	3
351.827	1	-3
351.998	1	-3
352.169	1	5
352.340	1	-5
352.511	1	4
352.682	1	-4
352.853	1	-11
353.024	1	-11
353.195	1	-2
353.366	1	1
353.537	1	9
353.708	1	0
353.879	1	11
354.050	1	1
354.221	1	-8
354.392	1	6
354.563	1	7
354.734	1	-11
354.905	1	-2
355.076	1	-5
355.247	1	-5
355.418	1	-10
355.589	1	6
355.760	1	6
355.931	1	4
356.102	1	-3
356.273	1	-4
356.444	1	1
356.615	1	3
356.785	1	13
356.956	1	-6
357.127	1	2
357.298	1	2
357.469	1	0
357.640	1	11
357.811	1	15
357.982	1	-10
358.153	1	3
358.324	1	-5
358.495	1	8
358.666	1	5
358.837	1	-2
359.008	1	8
359.179	1	3
359.350	1	-5
359.521	1	1
359.692	1	3
359.863	1	-6
360.034	1	-8
360.205	1	-3
360.376	1	5
360.547	1	0
360.718	1	-10
360.889	1	4
361.060	1	14
361.231	1	-2
361.401	1	0
361.572	1	-10
361.743	1	5
361.914	1	-8
362.085	1	0
362.256	1	10
362.427	1	-3
362.598	1	1
362.769	1	5
362.940	1	10
363.111	1	0
363.282	1	-1
363.453	1	3
363.624	1	9
363.795	1	14
363.966	1	-1
364.137	1	-4
364.308	1	-5
364.478	1	-2
364.649	1	3
364.820	1	-4
364.991	1	3
365.162	1	-10
365.333	1	3
365.504	1	-5
365.675	1	4
365.846	1	0
366.017	1	4
366.188	1	-3
366.359	1	-4
366.530	1	5
366.701	1	-4
366.871	1	10
367.042	1	5
367.213	1	7
367.384	1	13
367.555	1	3
367.726	1	10
367.897	1	-1
368.068	1	-10
368.239	1	6
368.410	1	-8
368.581	1	4
368.752	1	-10
368.923	1	0
369.093	1	2
369.264	1	-4
369.435	1	-9
369.606	1	9
369.777	1	-7
369.948	1	7
370.119	1	3
370.290	1	-3
370.461	1	-1
370.632	1	-1
370.803	1	1
370.973	1	10
371.144	1	7
371.315	1	-3
371.486	1	0
371.657	1	4
371.828	1	7
371.999	1	-1
372.170	1	6
372.341	1	6
372.512	1	-6
372.682	1	-4
372.853	1	5
373.024	1	-4
373.195	1	-11
373.366	1	3
373.537	1	-7
373.708	1	-6
373.879	1	7
374.050	1	2
374.220	1	4
374.391	1	-5
374.562	1	3
374.733	1	20
374.904	1	5
375.075	1	5
375.246	1	13
375.417	1	10
375.588	1	-4
375.758	1	3
375.929	1	-4
376.100	1	9
376.271	1	-6
376.442	1	-6
376.613	1	-8
376.784	1	4
376.955	1	-10
377.125	1	-4
377.296	1	5
377.467	1	-4
377.638	1	-3
377.809	1	14
377.980	1	4
378.151	1	-2
378.321	1	6
378.492	1	-5
378.663	1	-5
378.834	1	2
379.005	1	8
379.176	1	2
379.347	1	4
379.518	1	-5
379.688	1	-8
379.859	1	-4
380.030	1	-5
380.201	1	-17
380.372	1	-7
380.543	1	3
380.714	1	4
380.884	1	1
381.055	1	1
381.226	1	-6
381.397	1	-12
381.568	1	-6
381.739	1	4
381.910	1	-3
382.080	1	-14
382.251	1	7
382.422	1	0
382.593	1	-1
382.764	1	3
382.935	1	4
383.105	1	-7
383.276	1	8
383.447	1	6
383.618	1	9
383.789	1	-4
383.960	1	0
384.130	1	-5
384.301	1	3
384.472	1	-6
384.643	1	8
384.814	1	9
384.985	1	2
385.156	1	9
385.326	1	7
385.497	1	8
385.668	1	5
385.839	1	8
386.010	1	5
386.180	1	2
386.351	1	7
386.522	1	0
386.693	1	6
386.864	1	-1
387.035	1	-5
387.205	1	-8
387.376	1	8
387.547	1	-7
387.718	1	5
387.889	1	10
388.060	1	-12
388.230	1	4
388.401	1	6
388.572	1	3
388.743	1	3
388.914	1	5
389.084	1	9
389.255	1	4
389.426	1	3
389.597	1	-1
389.768	1	2
389.939	1	9
390.109	1	0
390.280	1	10
390.451	1	11
390.622	1	1
390.793	1	1
390.963	1	7
391.134	1	7
391.305	1	0
391.476	1	5
391.647	1	4
391.817	1	2
391.988	1	-11
392.159	1	0
392.330	1	10
392.501	1	3
392.671	1	9
392.842	1	10
393.013	1	9
393.184	1	2
393.355	1	14
393.525	1	7
393.696	1	2
393.867	1	1
394.038	1	-6
394.208	1	7
394.379	1	1
394.550	1	1
394.721	1	1
394.892	1	5
395.062	1	-8
395.233	1	11
395.404	1	-5
395.575	1	-6
395.746	1	-7
395.916	1	2
396.087	1	0
396.258	1	-3
396.429	1	3
396.599	1	3
396.770	1	11
396.941	1	5
397.112	1	-6
397.283	1	2
397.453	1	-4
397.624	1	-1
397.795	1	6
397.966	1	4
398.136	1	-4
398.307	1	4
398.478	1	-10
398.649	1	5
398.819	1	3
398.990	1	7
399.161	1	7
399.332	1	9
399.503	1	1
399.673	1	5
399.844	1	1
400.015	1	-6
400.186	1	5
400.356	1	-8
400.527	1	1
400.698	1	4
400.869	1	14
401.039	1	-13
401.210	1	-5
401.381	1	4
401.552	1	19
401.722	1	-4
401.893	1	6
402.064	1	-4
402.235	1	1
402.405	1	1
402.576	1	9
402.747	1	3
402.918	1	-11
403.088	1	3
403.259	1	-3
403.430	1	-4
403.601	1	-14
403.771	1	4
403.942	1	-2
404.113	1	20
404.284	1	-3
404.454	1	12
404.625	1	5
404.796	1	1
404.967	1	1
405.137	1	2
405.308	1	5
405.479	1	6
405.649	1	-5
405.820	1	-1
405.991	1	9
406.162	1	-5
406.332	1	-8
406.503	1	-1
406.674	1	0
406.845	1	1
407.015	1	-2
407.186	1	12
407.357	1	-1
407.527	1	-1
407.698	1	-12
407.869	1	-6
408.040	1	-11
408.210	1	7
408.381	1	-1
408.552	1	2
408.722	1	-3
408.893	1	1
409.064	1	1
409.235	1	-1
409.405	1	7
409.576	1	2
409.747	1	2
409.917	1	4
410.088	1	0
410.259	1	0
410.430	1	11
410.600	1	-4
410.771	1	3
410.942	1	7
411.112	1	-1
411.283	1	-9
411.454	1	14
411.625	1	6
411.795	1	6
411.966	1	4
412.137	1	8
412.307	1	6
412.478	1	8
412.649	1	2
412.819	1	-2
412.990	1	-5
413.161	1	3
413.332	1	1
413.502	1	0
413.673	1	4
413.844	1	-6
414.014	1	-9
414.185	1	1
414.356	1	-9
414.526	1	0
414.697	1	6
414.868	1	-4
415.038	1	0
415.209	1	-3
415.380	1	4
415.550	1	1
415.721	1	-10
415.892	1	2
416.063	1	9
416.233	1	1
416.404	1	1
416.575	1	-8
416.745	1	1
416.916	1	-6
417.087	1	-8
417.257	1	5
417.428	1	-10
417.599	1	-7
417.769	1	6
417.940	1	-5
418.111	1	1
418.281	1	0
418.452	1	-1
418.623	1	9
418.793	1	-5
418.964	1	11
419.135	1	4
419.305	1	-6
419.476	1	-6
419.647	1	6
419.817	1	-3
419.988	1	-3
420.159	1	-5
420.329	1	10
420.500	1	0
420.671	1	6
420.841	1	6
421.012	1	3
421.183	1	3
421.353	1	3
421.524	1	7
421.695	1	10
421.865	1	-6
422.036	1	0
422.206	1	4
422.377	1	4
422.548	1	-5
422.718	1	-5
422.889	1	3
423.060	1	-10
423.230	1	9
423.401	1	3
423.572	1	-4
423.742	1	5
423.913	1	9
424.084	1	4
424.254	1	2
424.425	1	3
424.595	1	-1
424.766	1	9
424.937	1	-8
425.107	1	3
425.278	1	-4
425.449	1	0
425.619	1	-5
425.790	1	-2
425.961	1	-2
426.131	1	1
426.302	1	-13
426.472	1	-2
426.643	1	-7
426.814	1	8
426.984	1	2
427.155	1	-2
427.326	1	15
427.496	1	8
427.667	1	5
427.837	1	-7
428.008	1	-1
428.179	1	-11
428.349	1	-8
428.520	1	-3
428.691	1	4
428.861	1	-8
429.032	1	4
429.202	1	-1
429.373	1	-1
429.544	1	3
429.714	1	13
429.885	1	-2
430.055	1	-6
430.226	1	-1
430.397	1	8
430.567	1	6
430.738	1	0
430.909	1	-10
431.079	1	-2
431.250	1	-4
431.420	1	-3
431.591	1	-3
431.762	1	3
431.932	1	4
432.103	1	-4
432.273	1	-6
432.444	1	6
432.615	1	-1
432.785	1	1
432.956	1	-5
433.126	1	5
433.297	1	8
433.468	1	5
433.638	1	-4
433.809	1	5
433.979	1	-2
434.150	1	-14
434.320	1	-1
434.491	1	-2
434.662	1	-15
434.832	1	-8
435.003	1	3
435.173	1	0
435.344	1	3
435.515	1	2
435.685	1	4
435.856	1	-9
436.026	1	6
436.197	1	-8
436.368	1	0
436.538	1	5
436.709	1	-10
436.879	1	2
437.050	1	15
437.220	1	1
437.391	1	2
437.562	1	6
437.732	1	1
437.903	1	-8
438.073	1	12
438.244	1	-4
438.414	1	0
438.585	1	5
438.756	1	8
438.926	1	-1
439.097	1	9
439.267	1	0
439.438	1	5
439.608	1	4
439.779	1	-7
439.949	1	0
440.120	1	4
440.291	1	-10
440.461	1	-4
440.632	1	0
440.802	1	8
440.973	1	4
441.143	1	2
441.314	1	7
441.485	1	-9
441.655	1	7
441.826	1	-6
441.996	1	6
442.167	1	-3
442.337	1	-2
442.508	1	10
442.678	1	-4
442.849	1	-1
443.019	1	-5
443.190	1	-8
443.361	1	6
443.531	1	-2
443.702	1	-3
443.872	1	-2
444.043	1	-5
444.213	1	-8
444.384	1	0
444.554	1	-8
444.725	1	-2
444.895	1	-8
445.066	1	-5
445.237	1	-4
445.407	1	4
445.578	1	11
445.748	1	-8
445.919	1	0
446.089	1	17
446.260	1	3
446.430	1	-9
446.601	1	-12
446.771	1	-17
446.942	1	2
447.112	1	-1
447.283	1	6
447.453	1	-10
447.624	1	3
447.794	1	-3
447.965	1	-2
448.135	1	-2
448.306	1	-2
448.477	1	2
448.647	1	3
448.818	1	11
448.988	1	-10
449.159	1	-7
449.329	1	8
449.500	1	14
449.670	1	10
449.841	1	4
450.011	1	-1
450.182	1	-5
450.352	1	6
450.523	1	-6
450.693	1	4
450.864	1	2
451.034	1	-8
451.205	1	-6
451.375	1	14
451.546	1	-10
451.716	1	13
451.887	1	-1
452.057	1	8
452.228	1	-5
452.398	1	6
452.569	1	-11
452.739	1	2
452.910	1	-3
453.080	1	11
453.251	1	-4
453.421	1	3
453.592	1	-7
453.762	1	5
453.933	1	7
454.103	1	5
454.274	1	-3
454.444	1	15
454.615	1	5
454.785	1	-8
454.956	1	2
455.126	1	-3
455.297	1	2
455.467	1	3
455.638	1	0
455.808	1	2
455.979	1	7
456.149	1	-8
456.320	1	4
456.490	1	7
456.661	1	-8
456.831	1	10
457.001	1	-2
457.172	1	-5
457.342	1	6
457.513	1	6
457.683	1	-1
457.854	1	6
458.024	1	-4
458.195	1	-7
458.365	1	-1
458.536	1	-1
458.706	1	-4
458.877	1	-2
459.047	1	-11
459.218	1	11
459.388	1	2
459.559	1	6
459.729	1	3
459.899	1	1
460.070	1	9
460.240	1	-4
460.411	1	3
460.581	1	10
460.752	1	2
460.922	1	-3
461.093	1	10
461.263	1	6
461.434	1	4
461.604	1	2
461.775	1	5
461.945	1	7
462.115	1	-13
462.286	1	2
462.456	1	-6
462.627	1	-5
462.797	1	-10
462.968	1	2
463.138	1	9
463.309	1	0
463.479	1	3
463.649	1	-1
463.820	1	1
463.990	1	-5
464.161	1	3
464.331	1	3
464.502	1	3
464.672	1	-4
464.843	1	-1
465.013	1	-7
465.183	1	1
465.354	1	0
465.524	1	3
465.695	1	5
465.865	1	-6
466.036	1	-1
466.206	1	-3
466.376	1	-2
466.547	1	1
466.717	1	-6
466.888	1	5
467.058	1	6
467.229	1	2
467.399	1	-5
467.569	1	-9
467.740	1	-9
467.910	1	-8
468.081	1	-8
468.251	1	-5
468.422	1	8
468.592	1	13
468.762	1	0
468.933	1	3
469.103	1	-4
469.274	1	-3
469.444	1	-1
469.614	1	-3
469.785	1	7
469.955	1	0
470.126	1	7
470.296	1	0
470.467	1	-5
470.637	1	23
470.807	1	-6
470.978	1	-2
471.148	1	-8
471.319	1	1
471.489	1	0
471.659	1	6
471.830	1	16
472.000	1	7
472.171	1	-1
472.341	1	0
472.511	1	0
472.682	1	7
472.852	1	-4
473.023	1	-1
473.193	1	-7
473.363	1	-4
473.534	1	1
473.704	1	6
473.875	1	5
474.045	1	-6
474.215	1	-2
474.386	1	4
474.556	1	-4
474.727	1	5
474.897	1	3
475.067	1	0
475.238	1	0
475.408	1	5
475.578	1	-1
475.749	1	0
475.919	1	7
476.090	1	-1
476.260	1	3
476.430	1	3
476.601	1	-7
476.771	1	2
476.942	1	-11
477.112	1	7
477.282	1	-12
477.453	1	2
477.623	1	6
477.793	1	5
477.964	1	11
478.134	1	3
478.305	1	0
478.475	1	4
478.645	1	-3
478.816	1	-8
478.986	1	0
479.156	1	2
479.327	1	-4
479.497	1	-1
479.667	1	7
479.838	1	8
480.008	1	6
480.179	1	9
480.349	1	-1
480.519	1	-3
480.690	1	0
480.860	1	-9
481.030	1	-9
481.201	1	-5
481.371	1	7
481.541	1	-3
481.712	1	-2
481.882	1	-5
482.053	1	10
482.223	1	-10
482.393	1	-2
482.564	1	-3
482.734	1	-3
482.904	1	4
483.075	1	8
483.245	1	4
483.415	1	2
483.586	1	3
483.756	1	14
483.926	1	4
484.097	1	-7
484.267	1	-4
484.437	1	-14
484.608	1	0
484.778	1	4
484.948	1	-4
485.119	1	1
485.289	1	1
485.459	1	-5
485.630	1	-4
485.800	1	-4
485.970	1	2
486.141	1	-9
486.311	1	2
486.481	1	3
486.652	1	5
486.822	1	9
486.992	1	-1
487.163	1	-8
487.333	1	4
487.503	1	-13
487.674	1	-5
487.844	1	8
488.014	1	1
488.185	1	-7
488.355	1	-15
488.525	1	4
488.696	1	-7
488.866	1	-1
489.036	1	7
489.207	1	4
489.377	1	-4
489.547	1	-1
489.718	1	-7
489.888	1	1
490.058	1	-2
490.228	1	-10
490.399	1	12
490.569	1	4
490.739	1	2
490.910	1	-2
491.080	1	-2
491.250	1	0
491.421	1	-2
491.591	1	-3
491.761	1	-3
491.932	1	-6
492.102	1	-3
492.272	1	12
492.442	1	-6
492.613	1	-6
492.783	1	-13
492.953	1	13
493.124	1	-5
493.294	1	9
493.464	1	-3
493.635	1	-6
493.805	1	8
493.975	1	3
494.145	1	2
494.316	1	11
494.486	1	12
494.656	1	-1
494.827	1	0
494.997	1	-2
495.167	1	5
495.337	1	7
495.508	1	-1
495.678	1	7
495.848	1	2
496.019	1	-7
496.189	1	-5
496.359	1	-5
496.529	1	-7
496.700	1	-1
496.870	1	5
497.040	1	-6
497.211	1	8
497.381	1	-15
497.551	1	12
497.721	1	-4
497.892	1	9
498.062	1	-1
498.232	1	-2
498.403	1	5
498.573	1	-2
498.743	1	2
498.913	1	9
499.084	1	-8
499.254	1	6
499.424	1	9
499.594	1	2
499.765	1	-1
499.935	1	-11
500.105	1	14
500.275	1	3
500.446	1	2
500.616	1	1
500.786	1	-1
500.956	1	1
501.127	1	4
501.297	1	-5
501.467	1	-3
501.638	1	-10
501.808	1	-7
501.978	1	9
502.148	1	3
502.319	1	5
502.489	1	2
502.659	1	-8
502.829	1	-2
503.000	1	2
503.170	1	3
503.340	1	-12
503.510	1	1
503.681	1	3
503.851	1	-15
504.021	1	20
504.191	1	4
504.362	1	6
504.532	1	-2
504.702	1	1
504.872	1	-3
505.042	1	5
505.213	1	3
505.383	1	-2
505.553	1	13
505.723	1	5
505.894	1	-1
506.064	1	6
506.234	1	5
506.404	1	-8
506.575	1	-6
506.745	1	-9
506.915	1	-5
507.085	1	-5
507.256	1	-1
507.426	1	0
507.596	1	2
507.766	1	-2
507.936	1	6
508.107	1	2
508.277	1	-7
508.447	1	-2
508.617	1	17
508.788	1	0
508.958	1	4
509.128	1	1
509.298	1	9
509.468	1	-3
509.639	1	3
509.809	1	11
509.979	1	-11
510.149	1	1
510.319	1	-2
510.490	1	12
510.660	1	8
510.830	1	-6
511.000	1	4
511.171	1	9
511.341	1	-8
511.511	1	-7
511.681	1	-2
511.851	1	-3
512.022	1	-9
512.192	1	3
512.362	1	-1
512.532	1	-1
512.702	1	-11
512.873	1	8
513.043	1	-3
513.213	1	-6
513.383	1	-2
513.553	1	-7
513.724	1	6
513.894	1	-5
514.064	1	0
514.234	1	5
514.404	1	-7
514.575	1	2
514.745	1	2
514.915	1	4
515.085	1	-6
515.255	1	-9
515.425	1	-10
515.596	1	-12
515.766	1	-6
515.936	1	7
516.106	1	0
516.276	1	4
516.447	1	2
516.617	1	-3
516.787	1	-10
516.957	1	-11
517.127	1	-4
517.297	1	2
517.468	1	-3
517.638	1	8
517.808	1	-10
517.978	1	1
518.148	1	2
518.319	1	-4
518.489	1	8
518.659	1	6
518.829	1	-3
518.999	1	4
519.169	1	6
519.340	1	-2
519.510	1	-6
519.680	1	-7
519.850	1	-4
520.020	1	-7
520.190	1	4
520.361	1	1
520.531	1	-2
520.701	1	5
520.871	1	-5
521.041	1	3
521.211	1	13
521.382	1	-1
521.552	1	8
521.722	1	6
521.892	1	-12
522.062	1	0
522.232	1	-1
522.402	1	-6
522.573	1	3
522.743	1	-1
522.913	1	4
523.083	1	-8
523.253	1	-1
523.423	1	-6
523.593	1	-6
523.764	1	13
523.934	1	10
524.104	1	5
524.274	1	-4
524.444	1	1
524.614	1	-5
524.784	1	-5
524.955	1	-5
525.125	1	6
525.295	1	-5
525.465	1	-3
525.635	1	10
525.805	1	2
525.975	1	-8
526.146	1	2
526.316	1	-2
526.486	1	-5
526.656	1	17
526.826	1	-2
526.996	1	11
527.166	1	0
527.337	1	5
527.507	1	-1
527.677	1	14
527.847	1	-3
528.017	1	-15
528.187	1	-7
528.357	1	9
528.527	1	-3
528.698	1	-6
528.868	1	-5
529.038	1	9
529.208	1	-2
529.378	1	6
529.548	1	9
529.718	1	2
529.888	1	2
530.058	1	-9
530.229	1	-2
530.399	1	4
530.569	1	5
530.739	1	-5
530.909	1	0
531.079	1	5
531.249	1	-4
531.419	1	8
531.589	1	-7
531.760	1	5
531.930	1	-1
532.100	1	-5
532.270	1	0
532.440	1	-9
532.610	1	7
532.780	1	0
532.950	1	3
533.120	1	-3
533.290	1	-2
533.461	1	5
533.631	1	0
533.801	1	-11
533.971	1	11
534.141	1	-3
534.311	1	1
534.481	1	10
534.651	1	0
534.821	1	0
534.991	1	5
535.162	1	-1
535.332	1	1
535.502	1	4
535.672	1	-5
535.842	1	-4
536.012	1	2
536.182	1	5
536.352	1	2
536.522	1	4
536.692	1	6
536.862	1	13
537.032	1	-2
537.203	1	3
537.373	1	-5
537.543	1	1
537.713	1	8
537.883	1	-1
538.053	1	8
538.223	1	1
538.393	1	4
538.563	1	4
538.733	1	-4
538.903	1	-3
539.073	1	0
539.243	1	2
539.413	1	0
539.584	1	0
539.754	1	-1
539.924	1	9
540.094	1	0
540.264	1	9
540.434	1	-5
540.604	1	-4
540.774	1	0
540.944	1	-5
541.114	1	-4
541.284	1	1
541.454	1	-1
541.624	1	-1
541.794	1	1
541.964	1	5
542.134	1	7
542.305	1	-8
542.475	1	2
542.645	1	2
542.815	1	0
542.985	1	0
543.155	1	4
543.325	1	9
543.495	1	-5
543.665	1	5
543.835	1	-11
544.005	1	-2
544.175	1	-4
544.345	1	-2
544.515	1	-3
544.685	1	10
544.855	1	3
545.025	1	-7
545.195	1	2
545.365	1	-4
545.535	1	-5
545.705	1	8
545.875	1	-6
546.045	1	5
546.216	1	9
546.386	1	3
546.556	1	-5
546.726	1	-5
546.896	1	-1
547.066	1	-17
547.236	1	-12
547.406	1	11
547.576	1	4
547.746	1	5
547.916	1	8
548.086	1	3
548.256	1	3
548.426	1	-4
548.596	1	2
548.766	1	6
548.936	1	-10
549.106	1	1
549.276	1	3
549.446	1	1
549.616	1	5
549.786	1	-4
549.956	1	19
550.126	1	-2
550.296	1	4
550.466	1	-4
550.636	1	1
550.806	1	8
550.976	1	-1
551.146	1	1
551.316	1	-3
551.486	1	0
551.656	1	-1
551.826	1	-2
551.996	1	10
552.166	1	4
552.336	1	-1
552.506	1	-5
552.676	1	-7
552.846	1	7
553.016	1	-7
553.186	1	1
553.356	1	4
553.526	1	4
553.696	1	18
553.866	1	-4
554.036	1	7
554.206	1	-4
554.376	1	-8
554.546	1	-1
554.716	1	-8
554.886	1	-2
555.056	1	-8
555.226	1	-7
555.396	1	1
555.566	1	6
555.736	1	-1
555.906	1	8
556.076	1	0
556.246	1	1
556.416	1	-4
556.586	1	-2
556.756	1	5
556.926	1	7
557.096	1	-5
557.266	1	5
557.436	1	7
557.606	1	-7
557.776	1	5
557.946	1	-4
558.116	1	9
558.286	1	-1
558.456	1	-5
558.626	1	3
558.796	1	1
558.966	1	-4
559.136	1	3
559.306	1	2
559.476	1	3
559.646	1	2
559.816	1	0
559.986	1	-3
560.155	1	0
560.325	1	-16
560.495	1	4
560.665	1	2
560.835	1	1
561.005	1	-4
561.175	1	0
561.345	1	2
561.515	1	-3
561.685	1	-5
561.855	1	10
562.025	1	-3
562.195	1	3
562.365	1	1
562.535	1	4
562.705	1	6
562.875	1	0
563.045	1	17
563.215	1	-4
563.385	1	-1
563.555	1	7
563.725	1	-2
563.895	1	-5
564.064	1	11
564.234	1	-2
564.404	1	-5
564.574	1	-1
564.744	1	11
564.914	1	-10
565.084	1	-3
565.254	1	-2
565.424	1	1
565.594	1	-1
565.764	1	9
565.934	1	12
566.104	1	-2
566.274	1	5
566.444	1	6
566.614	1	-1
566.783	1	-1
566.953	1	-4
567.123	1	12
567.293	1	-3
567.463	1	-3
567.633	1	-8
567.803	1	-10
567.973	1	-2
568.143	1	-9
568.313	1	-6
568.483	1	-5
568.653	1	-12
568.823	1	12
568.993	1	-11
569.162	1	3
569.332	1	3
569.502	1	-3
569.672	1	1
569.842	1	-5
570.012	1	3
570.182	1	-2
570.352	1	5
570.522	1	5
570.692	1	4
570.862	1	-1
571.031	1	-4
571.201	1	10
571.371	1	-6
571.541	1	-6
571.711	1	10
571.881	1	4
572.051	1	-4
572.221	1	6
572.391	1	-2
572.561	1	-3
572.731	1	-1
572.900	1	10
573.070	1	4
573.240	1	-10
573.410	1	-7
573.580	1	1
573.750	1	3
573.920	1	-6
574.090	1	2
574.260	1	-6
574.430	1	-13
574.599	1	-9
574.769	1	-9
574.939	1	-6
575.109	1	5
575.279	1	-4
575.449	1	9
575.619	1	2
575.789	1	10
575.959	1	-2
576.128	1	2
576.298	1	-11
576.468	1	-1
576.638	1	-1
576.808	1	-1
576.978	1	2
577.148	1	-4
577.318	1	6
577.487	1	8
577.657	1	-12
577.827	1	-1
577.997	1	1
578.167	1	7
578.337	1	-4
578.507	1	0
578.677	1	3
578.846	1	-5
579.016	1	13
579.186	1	1
579.356	1	-4
579.526	1	0
579.696	1	3
579.866	1	-3
580.036	1	-1
580.205	1	0
580.375	1	4
580.545	1	2
580.715	1	6
580.885	1	3
581.055	1	4
581.225	1	-13
581.394	1	-8
581.564	1	-6
581.734	1	-4
581.904	1	-9
582.074	1	-10
582.244	1	10
582.414	1	13
582.583	1	-6
582.753	1	6
582.923	1	-4
583.093	1	-5
583.263	1	2
583.433	1	-11
583.603	1	4
583.772	1	-4
583.942	1	6
584.112	1	3
584.282	1	4
584.452	1	-2
584.622	1	-3
584.791	1	-6
584.961	1	5
585.131	1	-4
585.301	1	0
585.471	1	-6
585.641	1	3
585.811	1	-3
585.980	1	-9
586.150	1	3
586.320	1	-14
586.490	1	-12
586.660	1	4
586.830	1	-14
586.999	1	-2
587.169	1	-11
587.339	1	1
587.509	1	-5
587.679	1	6
587.849	1	-4
588.018	1	2
588.188	1	-8
588.358	1	4
588.528	1	-1
588.698	1	2
588.867	1	10
589.037	1	4
589.207	1	-11
589.377	1	3
589.547	1	0
589.717	1	-4
589.886	1	-10
590.056	1	0
590.226	1	6
590.396	1	3
590.566	1	0
590.735	1	20
590.905	1	5
591.075	1	-13
591.245	1	2
591.415	1	10
591.585	1	-6
591.754	1	4
591.924	1	-10
592.094	1	1
592.264	1	-3
592.434	1	3
592.603	1	3
592.773	1	0
592.943	1	0
593.113	1	-8
593.283	1	1
593.452	1	-16
593.622	1	-3
593.792	1	-8
593.962	1	14
594.132	1	-4
594.301	1	4
594.471	1	-4
594.641	1	-8
594.811	1	8
594.981	1	1
595.150	1	-10
595.320	1	0
595.490	1	-1
595.660	1	-8
595.829	1	-2
595.999	1	8
596.169	1	0
596.339	1	7
596.509	1	2
596.678	1	-5
596.848	1	4
597.018	1	-4
597.188	1	0
597.358	1	5
597.527	1	1
597.697	1	-7
597.867	1	6
598.037	1	3
598.206	1	-8
598.376	1	5
598.546	1	-1
598.716	1	-7
598.885	1	1
599.055	1	0
599.225	1	0
599.395	1	14
599.565	1	-5
599.734	1	-5
599.904	1	-9
600.074	1	-1
600.244	1	9
600.413	1	0
600.583	1	-4
600.753	1	4
600.923	1	4
601.092	1	-5
601.262	1	5
601.432	1	-6
601.602	1	4
601.771	1	3
601.941	1	-7
602.111	1	-1
602.281	1	-2
602.451	1	3
602.620	1	7
602.790	1	3
602.960	1	-5
603.130	1	1
603.299	1	7
603.469	1	-7
603.639	1	2
603.809	1	11
603.978	1	-1
604.148	1	-1
604.318	1	8
604.487	1	1
604.657	1	-2
604.827	1	-8
604.997	1	-3
605.166	1	1
605.336	1	-5
605.506	1	-4
605.676	1	-7
605.845	1	-5
606.015	1	3
606.185	1	-2
606.355	1	6
606.524	1	-4
606.694	1	7
606.864	1	-6
607.034	1	-9
607.203	1	13
607.373	1	6
607.543	1	-14
607.712	1	2
607.882	1	-3
608.052	1	-5
608.222	1	-6
608.391	1	11
608.561	1	-2
608.731	1	-5
608.901	1	4
609.070	1	7
609.240	1	-2
609.410	1	-4
609.579	1	10
609.749	1	7
609.919	1	3
610.089	1	-9
610.258	1	6
610.428	1	-2
610.598	1	-2
610.767	1	-3
610.937	1	-8
611.107	1	12
611.277	1	6
611.446	1	-1
611.616	1	-16
611.786	1	6
611.955	1	3
612.125	1	-3
612.295	1	1
612.465	1	-4
612.634	1	0
612.804	1	-1
612.974	1	1
613.143	1	-7
613.313	1	4
613.483	1	11
613.652	1	-6
613.822	1	11
613.992	1	6
614.162	1	-10
614.331	1	0
614.501	1	3
614.671	1	1
614.840	1	-11
615.010	1	-1
615.180	1	1
615.349	1	4
615.519	1	5
615.689	1	8
615.858	1	5
616.028	1	-5
616.198	1	10
616.368	1	-5
616.537	1	-5
616.707	1	0
616.877	1	6
617.046	1	-7
617.216	1	-4
617.386	1	3
617.555	1	2
617.725	1	7
617.895	1	-10
618.064	1	-1
618.234	1	-4
618.404	1	9
618.573	1	1
618.743	1	0
618.913	1	3
619.082	1	9
619.252	1	-3
619.422	1	3
619.591	1	0
619.761	1	-10
619.931	1	6
620.100	1	-7
620.270	1	-11
620.440	1	11
620.609	1	-5
620.779	1	-13
620.949	1	7
621.118	1	-4
621.288	1	7
621.458	1	-3
621.627	1	-12
621.797	1	2
621.967	1	-11
622.136	1	4
622.306	1	15
622.476	1	2
622.645	1	3
622.815	1	2
622.985	1	-2
623.154	1	5
623.324	1	-1
623.494	1	0
623.663	1	-1
623.833	1	0
624.002	1	-2
624.172	1	9
624.342	1	1
624.511	1	-10
624.681	1	-5
624.851	1	-6
625.020	1	-7
625.190	1	-7
625.360	1	-4
625.529	1	3
625.699	1	-9
625.869	1	3
626.038	1	-1
626.208	1	-10
626.377	1	12
626.547	1	1
626.717	1	0
626.886	1	-8
627.056	1	-2
627.226	1	3
627.395	1	6
627.565	1	4
627.735	1	6
627.904	1	2
628.074	1	0
628.243	1	-1
628.413	1	-6
628.583	1	6
628.752	1	16
628.922	1	0
629.091	1	7
629.261	1	0
629.431	1	-5
629.600	1	8
629.770	1	2
629.940	1	4
630.109	1	2
630.279	1	-7
630.448	1	-6
630.618	1	1
630.788	1	6
630.957	1	-2
631.127	1	11
631.297	1	-1
631.466	1	4
631.636	1	0
631.805	1	-5
631.975	1	2
632.145	1	-4
632.314	1	5
632.484	1	-5
632.653	1	-12
632.823	1	1
632.993	1	-1
633.162	1	3
633.332	1	3
633.501	1	-6
633.671	1	6
633.841	1	-2
634.010	1	-4
634.180	1	-2
634.349	1	5
634.519	1	-1
634.689	1	6
634.858	1	13
635.028	1	4
635.197	1	-4
635.367	1	-3
635.537	1	-1
635.706	1	-1
635.876	1	-2
636.045	1	0
636.215	1	-1
636.384	1	-1
636.554	1	14
636.724	1	3
636.893	1	-2
637.063	1	-3
637.232	1	6
637.402	1	1
637.572	1	-6
637.741	1	-1
637.911	1	10
638.080	1	-2
638.250	1	1
638.419	1	9
638.589	1	5
638.759	1	0
638.928	1	-4
639.098	1	1
639.267	1	2
639.437	1	-14
639.606	1	15
639.776	1	-4
639.946	1	5
640.115	1	5
640.285	1	-3
640.454	1	17
640.624	1	9
640.793	1	6
640.963	1	0
641.132	1	7
641.302	1	2
641.472	1	-6
641.641	1	-15
641.811	1	3
641.980	1	2
642.150	1	0
642.319	1	8
642.489	1	-4
642.659	1	-7
642.828	1	4
642.998	1	-1
643.167	1	1
643.337	1	4
643.506	1	-13
643.676	1	2
643.845	1	-6
644.015	1	-7
644.184	1	8
644.354	1	3
644.524	1	-14
644.693	1	9
644.863	1	-6
645.032	1	-7
645.202	1	2
645.371	1	-8
645.541	1	-4
645.710	1	7
645.880	1	-6
646.049	1	5
646.219	1	-5
646.388	1	0
646.558	1	-4
646.728	1	3
646.897	1	-4
647.067	1	1
647.236	1	0
647.406	1	-8
647.575	1	-2
647.745	1	-1
647.914	1	-1
648.084	1	-9
648.253	1	2
648.423	1	-1
648.592	1	-1
648.762	1	0
648.931	1	9
649.101	1	-8
649.270	1	2
649.440	1	9
649.610	1	12
649.779	1	7
649.949	1	3
650.118	1	-8
650.288	1	2
650.457	1	3
650.627	1	2
650.796	1	2
650.966	1	-4
651.135	1	7
651.305	1	-5
651.474	1	7
651.644	1	0
651.813	1	5
651.983	1	-1
652.152	1	4
652.322	1	5
652.491	1	0
652.661	1	0
652.830	1	3
653.000	1	-6
653.169	1	-3
653.339	1	-3
653.508	1	-1
653.678	1	6
653.847	1	3
654.017	1	4
654.186	1	-1
654.356	1	3
654.525	1	2
654.695	1	8
654.864	1	10
655.034	1	-6
655.203	1	9
655.373	1	4
655.542	1	2
655.712	1	-11
655.881	1	3
656.051	1	11
656.220	1	6
656.390	1	-8
656.559	1	-6
656.729	1	5
656.898	1	5
657.068	1	-4
657.237	1	2
657.406	1	3
657.576	1	-2
657.745	1	-4
657.915	1	10
658.084	1	4
658.254	1	-4
658.423	1	-1
658.593	1	-13
658.762	1	-8
658.932	1	6
659.101	1	0
659.271	1	4
659.440	1	7
659.610	1	-5
659.779	1	-2
659.949	1	-10
660.118	1	6
660.288	1	5
660.457	1	-3
660.626	1	-1
660.796	1	-5
660.965	1	-6
661.135	1	2
661.304	1	4
661.474	1	-7
661.643	1	-7
661.813	1	-3
661.982	1	-2
662.152	1	4
662.321	1	0
662.491	1	-4
662.660	1	7
662.829	1	-11
662.999	1	-6
663.168	1	0
663.338	1	-2
663.507	1	5
663.677	1	-9
663.846	1	12
664.016	1	1
664.185	1	-10
664.354	1	3
664.524	1	-5
664.693	1	1
664.863	1	4
665.032	1	12
665.202	1	-8
665.371	1	-2
665.541	1	-4
665.710	1	-14
665.879	1	-5
666.049	1	-1
666.218	1	-3
666.388	1	-9
666.557	1	1
666.727	1	-11
666.896	1	-1
667.065	1	6
667.235	1	1
667.404	1	-8
667.574	1	-2
667.743	1	-1
667.913	1	4
668.082	1	1
668.251	1	-2
668.421	1	-2
668.590	1	-4
668.760	1	-2
668.929	1	6
669.099	1	-8
669.268	1	5
669.437	1	4
669.607	1	-8
669.776	1	-2
669.946	1	1
670.115	1	-2
670.285	1	2
670.454	1	0
670.623	1	3
670.793	1	9
670.962	1	-4
671.132	1	6
671.301	1	-5
671.470	1	-11
671.640	1	-9
671.809	1	-9
671.979	1	11
672.148	1	9
672.317	1	-9
672.487	1	-5
672.656	1	7
672.826	1	-16
672.995	1	3
673.164	1	14
673.334	1	-1
673.503	1	7
673.673	1	16
673.842	1	-4
674.011	1	6
674.181	1	-11
674.350	1	5
674.520	1	-2
674.689	1	-6
674.858	1	2
675.028	1	-1
675.197	1	-7
675.367	1	5
675.536	1	5
675.705	1	-8
675.875	1	6
676.044	1	-2
676.214	1	-5
676.383	1	1
676.552	1	-5
676.722	1	-8
676.891	1	-3
677.060	1	-1
677.230	1	7
677.399	1	0
677.569	1	0
677.738	1	-8
677.907	1	-10
678.077	1	4
678.246	1	-9
678.416	1	-4
678.585	1	8
678.754	1	-2
678.924	1	-6
679.093	1	8
679.262	1	-4
679.432	1	-5
679.601	1	-6
679.771	1	2
679.940	1	2
680.109	1	5
680.279	1	-3
680.448	1	4
680.617	1	-4
680.787	1	4
680.956	1	7
681.125	1	4
681.295	1	3
681.464	1	-7
681.634	1	2
681.803	1	-10
681.972	1	-6
682.142	1	-1
682.311	1	-4
682.480	1	2
682.650	1	-1
682.819	1	1
682.988	1	0
683.158	1	-1
683.327	1	-3
683.496	1	-2
683.666	1	-2
683.835	1	-5
684.004	1	5
684.174	1	-1
684.343	1	-11
684.512	1	2
684.682	1	8
684.851	1	-5
685.021	1	6
685.190	1	6
685.359	1	-5
685.529	1	-1
685.698	1	-1
685.867	1	1
686.037	1	5
686.206	1	4
686.375	1	-2
686.545	1	4
686.714	1	5
686.883	1	-6
687.053	1	-1
687.222	1	-2
687.391	1	-7
687.561	1	-6
687.730	1	3
687.899	1	2
688.069	1	-2
688.238	1	2
688.407	1	8
688.577	1	-7
688.746	1	1
