340.368	1	0
340.539	1	1
340.710	1	4
340.881	1	7
341.052	1	6
341.223	1	5
341.394	1	11
341.565	1	-3
341.737	1	12
341.908	1	9
342.079	1	-1
342.250	1	-4
342.421	1	3
342.592	1	-6
342.763	1	4
342.934	1	3
343.105	1	6
343.276	1	-4
343.447	1	5
343.618	1	7
343.789	1	-3
343.960	1	-1
344.131	1	10
344.302	1	4
344.473	1	7
344.644	1	1
344.815	1	9
344.986	1	11
345.157	1	14
345.328	1	-1
345.499	1	8
345.670	1	9
345.841	1	0
346.012	1	18
346.183	1	-3
346.354	1	7
346.526	1	7
346.697	1	10
346.868	1	3
347.039	1	11
347.210	1	-3
347.381	1	8
347.552	1	1
347.723	1	11
347.894	1	0
348.065	1	6
348.236	1	-2
348.407	1	3
348.578	1	9
348.749	1	10
348.920	1	10
349.091	1	6
349.262	1	-1
349.433	1	-5
349.604	1	19
349.775	1	10
349.946	1	7
350.117	1	13
350.288	1	9
350.459	1	3
350.630	1	2
350.801	1	12
350.972	1	5
351.143	1	-9
351.314	1	3
351.485	1	-1
351.656	1	11
351.827	1	0
351.998	1	5
352.169	1	13
352.340	1	9
352.511	1	5
352.682	1	1
352.853	1	-2
353.024	1	3
353.195	1	12
353.366	1	11
353.537	1	1
353.708	1	9
353.879	1	17
354.050	1	8
354.221	1	3
354.392	1	9
354.563	1	15
354.734	1	3
354.905	1	12
355.076	1	1
355.247	1	-4
355.418	1	3
355.589	1	0
355.760	1	6
355.931	1	9
356.102	1	13
356.273	1	8
356.444	1	4
356.615	1	18
356.785	1	14
356.956	1	1
357.127	1	10
357.298	1	2
357.469	1	4
357.640	1	18
357.811	1	22
357.982	1	-3
358.153	1	0
358.324	1	3
358.495	1	17
358.666	1	-2
358.837	1	2
359.008	1	7
359.179	1	12
359.350	1	9
359.521	1	10
359.692	1	7
359.863	1	13
360.034	1	8
360.205	1	5
360.376	1	16
360.547	1	12
360.718	1	10
360.889	1	7
361.060	1	19
361.231	1	12
361.401	1	21
361.572	1	10
361.743	1	21
361.914	1	15
362.085	1	10
362.256	1	13
362.427	1	13
362.598	1	17
362.769	1	19
362.940	1	22
363.111	1	25
363.282	1	19
363.453	1	17
363.624	1	31
363.795	1	23
363.966	1	23
364.137	1	15
364.308	1	10
364.478	1	37
364.649	1	23
364.820	1	41
364.991	1	39
365.162	1	13
365.333	1	44
365.504	1	31
365.675	1	28
365.846	1	32
366.017	1	44
366.188	1	21
366.359	1	30
366.530	1	42
366.701	1	29
366.871	1	40
367.042	1	42
367.213	1	45
367.384	1	37
367.555	1	45
367.726	1	56
367.897	1	39
368.068	1	28
368.239	1	43
368.410	1	41
368.581	1	35
368.752	1	29
368.923	1	25
369.093	1	31
369.264	1	36
369.435	1	37
369.606	1	25
369.777	1	26
369.948	1	26
370.119	1	28
370.290	1	25
370.461	1	32
370.632	1	25
370.803	1	21
370.973	1	34
371.144	1	30
371.315	1	25
371.486	1	31
371.657	1	18
371.828	1	23
371.999	1	17
372.170	1	23
372.341	1	32
372.512	1	19
372.682	1	16
372.853	1	22
373.024	1	21
373.195	1	16
373.366	1	25
373.537	1	24
373.708	1	19
373.879	1	29
374.050	1	21
374.220	1	19
374.391	1	14
374.562	1	16
374.733	1	29
374.904	1	27
375.075	1	20
375.246	1	15
375.417	1	17
375.588	1	23
375.758	1	12
375.929	1	20
376.100	1	18
376.271	1	14
376.442	1	14
376.613	1	12
376.784	1	12
376.955	1	5
377.125	1	18
377.296	1	18
377.467	1	9
377.638	1	8
377.809	1	15
377.980	1	14
378.151	1	16
378.321	1	16
378.492	1	21
378.663	1	7
378.834	1	11
379.005	1	22
379.176	1	17
379.347	1	11
379.518	1	4
379.688	1	10
379.859	1	8
380.030	1	11
380.201	1	-1
380.372	1	10
380.543	1	17
380.714	1	11
380.884	1	19
381.055	1	16
381.226	1	19
381.397	1	6
381.568	1	20
381.739	1	20
381.910	1	14
382.080	1	17
382.251	1	24
382.422	1	27
382.593	1	12
382.764	1	30
382.935	1	27
383.105	1	17
383.276	1	12
383.447	1	24
383.618	1	38
383.789	1	25
383.960	1	20
384.130	1	30
384.301	1	26
384.472	1	15
384.643	1	40
384.814	1	33
384.985	1	31
385.156	1	43
385.326	1	38
385.497	1	47
385.668	1	41
385.839	1	40
386.010	1	51
386.180	1	42
386.351	1	35
386.522	1	61
386.693	1	46
386.864	1	34
387.035	1	44
387.205	1	43
387.376	1	39
387.547	1	34
387.718	1	51
387.889	1	53
388.060	1	33
388.230	1	47
388.401	1	55
388.572	1	50
388.743	1	48
388.914	1	42
389.084	1	49
389.255	1	48
389.426	1	48
389.597	1	34
389.768	1	37
389.939	1	51
390.109	1	37
390.280	1	46
390.451	1	53
390.622	1	38
390.793	1	47
390.963	1	48
391.134	1	42
391.305	1	44
391.476	1	44
391.647	1	40
391.817	1	38
391.988	1	34
392.159	1	41
392.330	1	44
392.501	1	41
392.671	1	41
392.842	1	35
393.013	1	46
393.184	1	53
393.355	1	48
393.525	1	47
393.696	1	31
393.867	1	42
394.038	1	25
394.208	1	52
394.379	1	24
394.550	1	36
394.721	1	32
394.892	1	39
395.062	1	28
395.233	1	36
395.404	1	54
395.575	1	35
395.746	1	23
395.916	1	41
396.087	1	39
396.258	1	29
396.429	1	47
396.599	1	46
396.770	1	45
396.941	1	48
397.112	1	35
397.283	1	44
397.453	1	33
397.624	1	43
397.795	1	42
397.966	1	49
398.136	1	49
398.307	1	50
398.478	1	36
398.649	1	45
398.819	1	39
398.990	1	41
399.161	1	42
399.332	1	48
399.503	1	44
399.673	1	36
399.844	1	40
400.015	1	44
400.186	1	47
400.356	1	41
400.527	1	41
400.698	1	25
400.869	1	45
401.039	1	32
401.210	1	28
401.381	1	42
401.552	1	44
401.722	1	42
401.893	1	35
402.064	1	24
402.235	1	37
402.405	1	27
402.576	1	30
402.747	1	32
402.918	1	19
403.088	1	19
403.259	1	29
403.430	1	23
403.601	1	17
403.771	1	28
403.942	1	33
404.113	1	41
404.284	1	26
404.454	1	36
404.625	1	26
404.796	1	25
404.967	1	22
405.137	1	29
405.308	1	29
405.479	1	30
405.649	1	32
405.820	1	19
405.991	1	35
406.162	1	26
406.332	1	32
406.503	1	24
406.674	1	30
406.845	1	26
407.015	1	22
407.186	1	37
407.357	1	32
407.527	1	25
407.698	1	17
407.869	1	22
408.040	1	17
408.210	1	11
408.381	1	23
408.552	1	28
408.722	1	19
408.893	1	27
409.064	1	21
409.235	1	25
409.405	1	32
409.576	1	19
409.747	1	17
409.917	1	20
410.088	1	28
410.259	1	28
410.430	1	25
410.600	1	17
410.771	1	13
410.942	1	28
411.112	1	30
411.283	1	21
411.454	1	26
411.625	1	24
411.795	1	15
411.966	1	25
412.137	1	23
412.307	1	18
412.478	1	25
412.649	1	20
412.819	1	18
412.990	1	23
413.161	1	15
413.332	1	20
413.502	1	12
413.673	1	29
413.844	1	23
414.014	1	14
414.185	1	21
414.356	1	11
414.526	1	23
414.697	1	21
414.868	1	18
415.038	1	12
415.209	1	11
415.380	1	21
415.550	1	14
415.721	1	21
415.892	1	8
416.063	1	31
416.233	1	18
416.404	1	22
416.575	1	21
416.745	1	21
416.916	1	16
417.087	1	13
417.257	1	24
417.428	1	16
417.599	1	19
417.769	1	20
417.940	1	13
418.111	1	20
418.281	1	17
418.452	1	8
418.623	1	11
418.793	1	28
418.964	1	16
419.135	1	17
419.305	1	20
419.476	1	12
419.647	1	26
419.817	1	19
419.988	1	16
420.159	1	5
420.329	1	24
420.500	1	21
420.671	1	18
420.841	1	22
421.012	1	28
421.183	1	16
421.353	1	32
421.524	1	17
421.695	1	11
421.865	1	19
422.036	1	9
422.206	1	15
422.377	1	12
422.548	1	11
422.718	1	20
422.889	1	23
423.060	1	21
423.230	1	17
423.401	1	16
423.572	1	16
423.742	1	19
423.913	1	25
424.084	1	11
424.254	1	19
424.425	1	15
424.595	1	12
424.766	1	19
424.937	1	3
425.107	1	29
425.278	1	1
425.449	1	10
425.619	1	16
425.790	1	8
425.961	1	7
426.131	1	22
426.302	1	9
426.472	1	20
426.643	1	11
426.814	1	22
426.984	1	17
427.155	1	15
427.326	1	16
427.496	1	18
427.667	1	19
427.837	1	10
428.008	1	14
428.179	1	8
428.349	1	14
428.520	1	6
428.691	1	14
428.861	1	15
429.032	1	13
429.202	1	21
429.373	1	6
429.544	1	17
429.714	1	17
429.885	1	11
430.055	1	9
430.226	1	16
430.397	1	5
430.567	1	20
430.738	1	18
430.909	1	15
431.079	1	21
431.250	1	3
431.420	1	9
431.591	1	13
431.762	1	17
431.932	1	15
432.103	1	9
432.273	1	7
432.444	1	19
432.615	1	3
432.785	1	12
432.956	1	8
433.126	1	16
433.297	1	9
433.468	1	12
433.638	1	9
433.809	1	18
433.979	1	14
434.150	1	0
434.320	1	15
434.491	1	11
434.662	1	9
434.832	1	5
435.003	1	28
435.173	1	8
435.344	1	13
435.515	1	4
435.685	1	19
435.856	1	7
436.026	1	19
436.197	1	5
436.368	1	7
436.538	1	19
436.709	1	2
436.879	1	9
437.050	1	14
437.220	1	22
437.391	1	9
437.562	1	25
437.732	1	8
437.903	1	14
438.073	1	12
438.244	1	6
438.414	1	9
438.585	1	22
438.756	1	23
438.926	1	3
439.097	1	16
439.267	1	13
439.438	1	22
439.608	1	9
439.779	1	11
439.949	1	-3
440.120	1	9
440.291	1	8
440.461	1	-4
440.632	1	16
440.802	1	13
440.973	1	11
441.143	1	8
441.314	1	11
441.485	1	7
441.655	1	24
441.826	1	4
441.996	1	0
442.167	1	4
442.337	1	8
442.508	1	6
442.678	1	-3
442.849	1	22
443.019	1	11
443.190	1	6
443.361	1	25
443.531	1	0
443.702	1	5
443.872	1	8
444.043	1	6
444.213	1	3
444.384	1	12
444.554	1	5
444.725	1	8
444.895	1	3
445.066	1	-2
445.237	1	3
445.407	1	11
445.578	1	15
445.748	1	6
445.919	1	5
446.089	1	8
446.260	1	16
446.430	1	0
446.601	1	9
446.771	1	3
446.942	1	10
447.112	1	8
447.283	1	11
447.453	1	1
447.624	1	5
447.794	1	-6
447.965	1	5
448.135	1	8
448.306	1	3
448.477	1	4
448.647	1	18
448.818	1	13
448.988	1	-4
449.159	1	7
449.329	1	10
449.500	1	10
449.670	1	13
449.841	1	5
450.011	1	11
450.182	1	-4
450.352	1	15
450.523	1	5
450.693	1	7
450.864	1	8
451.034	1	10
451.205	1	6
451.375	1	11
451.546	1	12
451.716	1	16
451.887	1	-1
452.057	1	16
452.228	1	3
452.398	1	15
452.569	1	0
452.739	1	-1
452.910	1	6
453.080	1	15
453.251	1	7
453.421	1	4
453.592	1	10
453.762	1	14
453.933	1	17
454.103	1	14
454.274	1	2
454.444	1	22
454.615	1	15
454.785	1	1
454.956	1	11
455.126	1	0
455.297	1	12
455.467	1	13
455.638	1	8
455.808	1	9
455.979	1	14
456.149	1	7
456.320	1	2
456.490	1	3
456.661	1	10
456.831	1	17
457.001	1	12
457.172	1	4
457.342	1	23
457.513	1	16
457.683	1	12
457.854	1	3
458.024	1	7
458.195	1	1
458.365	1	6
458.536	1	13
458.706	1	5
458.877	1	3
459.047	1	0
459.218	1	11
459.388	1	12
459.559	1	17
459.729	1	16
459.899	1	14
460.070	1	15
460.240	1	13
460.411	1	12
460.581	1	9
460.752	1	8
460.922	1	2
461.093	1	16
461.263	1	13
461.434	1	8
461.604	1	6
461.775	1	10
461.945	1	13
462.115	1	-5
462.286	1	14
462.456	1	0
462.627	1	9
462.797	1	7
462.968	1	-3
463.138	1	22
463.309	1	5
463.479	1	12
463.649	1	6
463.820	1	11
463.990	1	15
464.161	1	14
464.331	1	8
464.502	1	8
464.672	1	13
464.843	1	8
465.013	1	-1
465.183	1	8
465.354	1	9
465.524	1	5
465.695	1	20
465.865	1	-2
466.036	1	10
466.206	1	6
466.376	1	14
466.547	1	5
466.717	1	-7
466.888	1	10
467.058	1	14
467.229	1	14
467.399	1	5
467.569	1	7
467.740	1	1
467.910	1	2
468.081	1	10
468.251	1	9
468.422	1	7
468.592	1	8
468.762	1	-1
468.933	1	15
469.103	1	-2
469.274	1	5
469.444	1	11
469.614	1	9
469.785	1	16
469.955	1	13
470.126	1	7
470.296	1	12
470.467	1	-2
470.637	1	23
470.807	1	2
470.978	1	-4
471.148	1	5
471.319	1	9
471.489	1	1
471.659	1	12
471.830	1	19
472.000	1	4
472.171	1	13
472.341	1	9
472.511	1	16
472.682	1	2
472.852	1	-2
473.023	1	6
473.193	1	0
473.363	1	7
473.534	1	7
473.704	1	7
473.875	1	8
474.045	1	-6
474.215	1	-3
474.386	1	16
474.556	1	-9
474.727	1	9
474.897	1	8
475.067	1	13
475.238	1	0
475.408	1	4
475.578	1	11
475.749	1	5
475.919	1	4
476.090	1	3
476.260	1	0
476.430	1	11
476.601	1	9
476.771	1	6
476.942	1	0
477.112	1	4
477.282	1	-9
477.453	1	6
477.623	1	16
477.793	1	7
477.964	1	14
478.134	1	9
478.305	1	-1
478.475	1	6
478.645	1	5
478.816	1	4
478.986	1	6
479.156	1	9
479.327	1	3
479.497	1	9
479.667	1	7
479.838	1	10
480.008	1	11
480.179	1	10
480.349	1	-3
480.519	1	6
480.690	1	4
480.860	1	2
481.030	1	5
481.201	1	3
481.371	1	4
481.541	1	11
481.712	1	4
481.882	1	4
482.053	1	14
482.223	1	2
482.393	1	0
482.564	1	-4
482.734	1	3
482.904	1	4
483.075	1	10
483.245	1	11
483.415	1	6
483.586	1	3
483.756	1	17
483.926	1	5
484.097	1	9
484.267	1	1
484.437	1	-7
484.608	1	11
484.778	1	11
484.948	1	4
485.119	1	10
485.289	1	10
485.459	1	15
485.630	1	6
485.800	1	2
485.970	1	4
486.141	1	5
486.311	1	4
486.481	1	2
486.652	1	13
486.822	1	23
486.992	1	-1
487.163	1	2
487.333	1	11
487.503	1	-4
487.674	1	2
487.844	1	1
488.014	1	15
488.185	1	6
488.355	1	-2
488.525	1	4
488.696	1	4
488.866	1	14
489.036	1	11
489.207	1	20
489.377	1	12
489.547	1	1
489.718	1	-5
489.888	1	15
490.058	1	1
490.228	1	0
490.399	1	17
490.569	1	21
490.739	1	14
490.910	1	-3
491.080	1	2
491.250	1	7
491.421	1	7
491.591	1	4
491.761	1	14
491.932	1	13
492.102	1	13
492.272	1	17
492.442	1	13
492.613	1	7
492.783	1	0
492.953	1	12
493.124	1	-2
493.294	1	15
493.464	1	10
493.635	1	7
493.805	1	19
493.975	1	9
494.145	1	10
494.316	1	18
494.486	1	14
494.656	1	9
494.827	1	7
494.997	1	10
495.167	1	16
495.337	1	12
495.508	1	3
495.678	1	8
495.848	1	19
496.019	1	9
496.189	1	15
496.359	1	14
496.529	1	10
496.700	1	10
496.870	1	8
497.040	1	14
497.211	1	16
497.381	1	-6
497.551	1	13
497.721	1	10
497.892	1	9
498.062	1	7
498.232	1	15
498.403	1	16
498.573	1	6
498.743	1	16
498.913	1	15
499.084	1	-9
499.254	1	9
499.424	1	20
499.594	1	14
499.765	1	9
499.935	1	5
500.105	1	15
500.275	1	21
500.446	1	27
500.616	1	15
500.786	1	16
500.956	1	18
501.127	1	14
501.297	1	13
501.467	1	7
501.638	1	18
501.808	1	-2
501.978	1	15
502.148	1	16
502.319	1	10
502.489	1	20
502.659	1	9
502.829	1	16
503.000	1	19
503.170	1	20
503.340	1	8
503.510	1	16
503.681	1	22
503.851	1	3
504.021	1	28
504.191	1	19
504.362	1	20
504.532	1	13
504.702	1	27
504.872	1	13
505.042	1	24
505.213	1	12
505.383	1	15
505.553	1	22
505.723	1	12
505.894	1	11
506.064	1	26
506.234	1	32
506.404	1	9
506.575	1	19
506.745	1	13
506.915	1	20
507.085	1	17
507.256	1	13
507.426	1	25
507.596	1	18
507.766	1	16
507.936	1	13
508.107	1	23
508.277	1	13
508.447	1	17
508.617	1	27
508.788	1	20
508.958	1	25
509.128	1	24
509.298	1	28
509.468	1	32
509.639	1	28
509.809	1	31
509.979	1	17
510.149	1	19
510.319	1	11
510.490	1	27
510.660	1	20
510.830	1	14
511.000	1	21
511.171	1	26
511.341	1	15
511.511	1	24
511.681	1	28
511.851	1	23
512.022	1	17
512.192	1	18
512.362	1	19
512.532	1	10
512.702	1	14
512.873	1	30
513.043	1	16
513.213	1	23
513.383	1	16
513.553	1	21
513.724	1	25
513.894	1	21
514.064	1	23
514.234	1	28
514.404	1	21
514.575	1	25
514.745	1	22
514.915	1	26
515.085	1	26
515.255	1	22
515.425	1	22
515.596	1	18
515.766	1	31
515.936	1	24
516.106	1	15
516.276	1	19
516.447	1	24
516.617	1	27
516.787	1	23
516.957	1	24
517.127	1	27
517.297	1	29
517.468	1	29
517.638	1	33
517.808	1	22
517.978	1	16
518.148	1	23
518.319	1	21
518.489	1	29
518.659	1	15
518.829	1	25
518.999	1	16
519.169	1	39
519.340	1	27
519.510	1	26
519.680	1	19
519.850	1	21
520.020	1	18
520.190	1	33
520.361	1	19
520.531	1	26
520.701	1	33
520.871	1	15
521.041	1	29
521.211	1	24
521.382	1	18
521.552	1	31
521.722	1	31
521.892	1	17
522.062	1	19
522.232	1	19
522.402	1	17
522.573	1	29
522.743	1	34
522.913	1	30
523.083	1	16
523.253	1	16
523.423	1	21
523.593	1	16
523.764	1	29
523.934	1	35
524.104	1	17
524.274	1	28
524.444	1	27
524.614	1	33
524.784	1	32
524.955	1	27
525.125	1	38
525.295	1	14
525.465	1	22
525.635	1	39
525.805	1	22
525.975	1	18
526.146	1	27
526.316	1	15
526.486	1	18
526.656	1	45
526.826	1	33
526.996	1	37
527.166	1	24
527.337	1	27
527.507	1	11
527.677	1	34
527.847	1	16
528.017	1	23
528.187	1	29
528.357	1	32
528.527	1	21
528.698	1	30
528.868	1	26
529.038	1	34
529.208	1	21
529.378	1	22
529.548	1	34
529.718	1	27
529.888	1	25
530.058	1	27
530.229	1	25
530.399	1	30
530.569	1	34
530.739	1	32
530.909	1	27
531.079	1	36
531.249	1	34
531.419	1	41
531.589	1	18
531.760	1	46
531.930	1	31
532.100	1	32
532.270	1	42
532.440	1	15
532.610	1	31
532.780	1	39
532.950	1	39
533.120	1	26
533.290	1	34
533.461	1	45
533.631	1	13
533.801	1	30
533.971	1	38
534.141	1	36
534.311	1	30
534.481	1	36
534.651	1	25
534.821	1	36
534.991	1	32
535.162	1	32
535.332	1	29
535.502	1	32
535.672	1	15
535.842	1	31
536.012	1	29
536.182	1	26
536.352	1	19
536.522	1	28
536.692	1	27
536.862	1	28
537.032	1	35
537.203	1	31
537.373	1	19
537.543	1	35
537.713	1	39
537.883	1	28
538.053	1	42
538.223	1	32
538.393	1	35
538.563	1	43
538.733	1	22
538.903	1	27
539.073	1	35
539.243	1	24
539.413	1	32
539.584	1	34
539.754	1	23
539.924	1	35
540.094	1	28
540.264	1	32
540.434	1	20
540.604	1	28
540.774	1	26
540.944	1	22
541.114	1	23
541.284	1	28
541.454	1	35
541.624	1	27
541.794	1	26
541.964	1	19
542.134	1	34
542.305	1	18
542.475	1	23
542.645	1	24
542.815	1	35
542.985	1	22
543.155	1	24
543.325	1	17
543.495	1	20
543.665	1	32
543.835	1	20
544.005	1	26
544.175	1	23
544.345	1	18
544.515	1	18
544.685	1	21
544.855	1	35
545.025	1	29
545.195	1	27
545.365	1	22
545.535	1	30
545.705	1	25
545.875	1	21
546.045	1	27
546.216	1	39
546.386	1	25
546.556	1	20
546.726	1	23
546.896	1	25
547.066	1	15
547.236	1	11
547.406	1	32
547.576	1	25
547.746	1	35
547.916	1	32
548.086	1	25
548.256	1	24
548.426	1	24
548.596	1	28
548.766	1	27
548.936	1	18
549.106	1	35
549.276	1	32
549.446	1	22
549.616	1	25
549.786	1	18
549.956	1	26
550.126	1	23
550.296	1	17
550.466	1	15
550.636	1	34
550.806	1	23
550.976	1	23
551.146	1	21
551.316	1	24
551.486	1	18
551.656	1	23
551.826	1	29
551.996	1	30
552.166	1	24
552.336	1	22
552.506	1	20
552.676	1	26
552.846	1	19
553.016	1	21
553.186	1	16
553.356	1	21
553.526	1	21
553.696	1	27
553.866	1	30
554.036	1	28
554.206	1	24
554.376	1	13
554.546	1	12
554.716	1	15
554.886	1	24
555.056	1	11
555.226	1	16
555.396	1	10
555.566	1	25
555.736	1	19
555.906	1	22
556.076	1	27
556.246	1	22
556.416	1	22
556.586	1	26
556.756	1	16
556.926	1	24
557.096	1	18
557.266	1	25
557.436	1	27
557.606	1	7
557.776	1	23
557.946	1	27
558.116	1	27
558.286	1	22
558.456	1	3
558.626	1	22
558.796	1	20
558.966	1	15
559.136	1	23
559.306	1	13
559.476	1	16
559.646	1	14
559.816	1	30
559.986	1	18
560.155	1	26
560.325	1	12
560.495	1	15
560.665	1	19
560.835	1	19
561.005	1	21
561.175	1	11
561.345	1	26
561.515	1	16
561.685	1	14
561.855	1	24
562.025	1	11
562.195	1	19
562.365	1	18
562.535	1	15
562.705	1	23
562.875	1	11
563.045	1	14
563.215	1	22
563.385	1	15
563.555	1	22
563.725	1	9
563.895	1	9
564.064	1	23
564.234	1	22
564.404	1	18
564.574	1	13
564.744	1	17
564.914	1	-1
565.084	1	13
565.254	1	23
565.424	1	18
565.594	1	7
565.764	1	25
565.934	1	21
566.104	1	13
566.274	1	17
566.444	1	26
566.614	1	17
566.783	1	14
566.953	1	14
567.123	1	29
567.293	1	12
567.463	1	10
567.633	1	9
567.803	1	7
567.973	1	12
568.143	1	8
568.313	1	-1
568.483	1	10
568.653	1	7
568.823	1	25
568.993	1	9
569.162	1	19
569.332	1	15
569.502	1	21
569.672	1	10
569.842	1	14
570.012	1	16
570.182	1	6
570.352	1	14
570.522	1	13
570.692	1	15
570.862	1	26
571.031	1	11
571.201	1	15
571.371	1	18
571.541	1	9
571.711	1	22
571.881	1	13
572.051	1	17
572.221	1	20
572.391	1	19
572.561	1	-3
572.731	1	11
572.900	1	15
573.070	1	11
573.240	1	8
573.410	1	9
573.580	1	11
573.750	1	19
573.920	1	9
574.090	1	11
574.260	1	10
574.430	1	12
574.599	1	-3
574.769	1	7
574.939	1	16
575.109	1	10
575.279	1	17
575.449	1	26
575.619	1	17
575.789	1	22
575.959	1	-3
576.128	1	16
576.298	1	1
576.468	1	2
576.638	1	11
576.808	1	3
576.978	1	11
577.148	1	18
577.318	1	13
577.487	1	14
577.657	1	-1
577.827	1	16
577.997	1	0
578.167	1	20
578.337	1	14
578.507	1	8
578.677	1	16
578.846	1	4
579.016	1	29
579.186	1	13
579.356	1	9
579.526	1	6
579.696	1	18
579.866	1	19
580.036	1	2
580.205	1	14
580.375	1	5
580.545	1	16
580.715	1	19
580.885	1	14
581.055	1	8
581.225	1	2
581.394	1	7
581.564	1	8
581.734	1	11
581.904	1	8
582.074	1	8
582.244	1	14
582.414	1	10
582.583	1	4
582.753	1	10
582.923	1	9
583.093	1	9
583.263	1	12
583.433	1	3
583.603	1	12
583.772	1	9
583.942	1	16
584.112	1	12
584.282	1	14
584.452	1	10
584.622	1	10
584.791	1	6
584.961	1	19
585.131	1	9
585.301	1	28
585.471	1	0
585.641	1	16
585.811	1	3
585.980	1	6
586.150	1	8
586.320	1	7
586.490	1	0
586.660	1	14
586.830	1	4
586.999	1	4
587.169	1	2
587.339	1	19
587.509	1	8
587.679	1	16
587.849	1	7
588.018	1	14
588.188	1	4
588.358	1	17
588.528	1	10
588.698	1	15
588.867	1	8
589.037	1	13
589.207	1	-3
589.377	1	21
589.547	1	10
589.717	1	15
589.886	1	4
590.056	1	10
590.226	1	9
590.396	1	13
590.566	1	7
590.735	1	22
590.905	1	15
591.075	1	-4
591.245	1	16
591.415	1	3
591.585	1	8
591.754	1	8
591.924	1	16
592.094	1	9
592.264	1	10
592.434	1	14
592.603	1	6
592.773	1	12
592.943	1	6
593.113	1	-3
593.283	1	18
593.452	1	2
593.622	1	3
593.792	1	8
593.962	1	13
594.132	1	6
594.301	1	17
594.471	1	9
594.641	1	13
594.811	1	10
594.981	1	7
595.150	1	10
595.320	1	14
595.490	1	1
595.660	1	2
595.829	1	3
595.999	1	12
596.169	1	8
596.339	1	14
596.509	1	8
596.678	1	10
596.848	1	16
597.018	1	7
597.188	1	18
597.358	1	14
597.527	1	-1
597.697	1	6
597.867	1	7
598.037	1	7
598.206	1	1
598.376	1	13
598.546	1	14
598.716	1	-3
598.885	1	3
599.055	1	0
599.225	1	8
599.395	1	18
599.565	1	9
599.734	1	14
599.904	1	-3
600.074	1	11
600.244	1	9
600.413	1	10
600.583	1	-3
600.753	1	11
600.923	1	17
601.092	1	1
601.262	1	11
601.432	1	1
601.602	1	11
601.771	1	13
601.941	1	10
602.111	1	6
602.281	1	-1
602.451	1	2
602.620	1	13
602.790	1	10
602.960	1	0
603.130	1	10
603.299	1	7
603.469	1	4
603.639	1	20
603.809	1	19
603.978	1	12
604.148	1	12
604.318	1	9
604.487	1	4
604.657	1	11
604.827	1	-4
604.997	1	11
605.166	1	7
605.336	1	-2
605.506	1	1
605.676	1	4
605.845	1	11
606.015	1	9
606.185	1	11
606.355	1	21
606.524	1	3
606.694	1	16
606.864	1	0
607.034	1	2
607.203	1	16
607.373	1	12
607.543	1	-9
607.712	1	17
607.882	1	0
608.052	1	3
608.222	1	6
608.391	1	8
608.561	1	11
608.731	1	2
608.901	1	9
609.070	1	11
609.240	1	5
609.410	1	7
609.579	1	7
609.749	1	5
609.919	1	4
610.089	1	2
610.258	1	7
610.428	1	8
610.598	1	9
610.767	1	9
610.937	1	6
611.107	1	11
611.277	1	9
611.446	1	15
611.616	1	-4
611.786	1	11
611.955	1	8
612.125	1	12
612.295	1	13
612.465	1	6
612.634	1	-1
612.804	1	22
612.974	1	13
613.143	1	0
613.313	1	9
613.483	1	5
613.652	1	5
613.822	1	7
613.992	1	4
614.162	1	10
614.331	1	10
614.501	1	5
614.671	1	5
614.840	1	17
615.010	1	13
615.180	1	5
615.349	1	3
615.519	1	17
615.689	1	8
615.858	1	1
616.028	1	11
616.198	1	8
616.368	1	-1
616.537	1	6
616.707	1	12
616.877	1	14
617.046	1	12
617.216	1	8
617.386	1	2
617.555	1	2
617.725	1	12
617.895	1	2
618.064	1	10
618.234	1	15
618.404	1	15
618.573	1	10
618.743	1	8
618.913	1	-4
619.082	1	-2
619.252	1	0
619.422	1	-4
619.591	1	6
619.761	1	2
619.931	1	7
620.100	1	9
620.270	1	-2
620.440	1	9
620.609	1	6
620.779	1	9
620.949	1	11
621.118	1	7
621.288	1	5
621.458	1	1
621.627	1	0
621.797	1	9
621.967	1	5
622.136	1	8
622.306	1	12
622.476	1	9
622.645	1	13
622.815	1	7
622.985	1	9
623.154	1	10
623.324	1	15
623.494	1	-2
623.663	1	10
623.833	1	6
624.002	1	0
624.172	1	22
624.342	1	4
624.511	1	4
624.681	1	0
624.851	1	2
625.020	1	9
625.190	1	9
625.360	1	-8
625.529	1	14
625.699	1	5
625.869	1	4
626.038	1	14
626.208	1	-1
626.377	1	18
626.547	1	10
626.717	1	7
626.886	1	0
627.056	1	2
627.226	1	9
627.395	1	16
627.565	1	15
627.735	1	-2
627.904	1	8
628.074	1	10
628.243	1	0
628.413	1	10
628.583	1	8
628.752	1	13
628.922	1	-3
629.091	1	6
629.261	1	17
629.431	1	-8
629.600	1	15
629.770	1	12
629.940	1	9
630.109	1	10
630.279	1	0
630.448	1	3
630.618	1	3
630.788	1	7
630.957	1	0
631.127	1	17
631.297	1	1
631.466	1	11
631.636	1	-1
631.805	1	14
631.975	1	0
632.145	1	-9
632.314	1	17
632.484	1	8
632.653	1	-1
632.823	1	19
632.993	1	9
633.162	1	9
633.332	1	18
633.501	1	9
633.671	1	4
633.841	1	10
634.010	1	1
634.180	1	9
634.349	1	1
634.519	1	9
634.689	1	10
634.858	1	12
635.028	1	3
635.197	1	3
635.367	1	3
635.537	1	11
635.706	1	-4
635.876	1	2
636.045	1	11
636.215	1	7
636.384	1	10
636.554	1	15
636.724	1	1
636.893	1	2
637.063	1	12
637.232	1	2
637.402	1	17
637.572	1	-3
637.741	1	15
637.911	1	8
638.080	1	6
638.250	1	7
638.419	1	9
638.589	1	16
638.759	1	-2
638.928	1	5
639.098	1	2
639.267	1	7
639.437	1	-4
639.606	1	9
639.776	1	0
639.946	1	8
640.115	1	-3
640.285	1	6
640.454	1	18
640.624	1	6
640.793	1	9
640.963	1	5
641.132	1	7
641.302	1	1
641.472	1	-6
641.641	1	-7
641.811	1	-5
641.980	1	-1
642.150	1	6
642.319	1	5
642.489	1	15
642.659	1	2
642.828	1	10
642.998	1	-7
643.167	1	10
643.337	1	15
643.506	1	-4
643.676	1	6
643.845	1	1
644.015	1	9
644.184	1	8
644.354	1	-8
644.524	1	-3
644.693	1	8
644.863	1	2
645.032	1	0
645.202	1	12
645.371	1	-4
645.541	1	5
645.710	1	9
645.880	1	-1
646.049	1	9
646.219	1	10
646.388	1	6
646.558	1	8
646.728	1	8
646.897	1	-4
647.067	1	2
647.236	1	10
647.406	1	-5
647.575	1	7
647.745	1	9
647.914	1	-7
648.084	1	2
648.253	1	4
648.423	1	1
648.592	1	8
648.762	1	-1
648.931	1	4
649.101	1	0
649.270	1	10
649.440	1	5
649.610	1	20
649.779	1	10
649.949	1	9
650.118	1	-8
650.288	1	-4
650.457	1	-1
650.627	1	2
650.796	1	1
650.966	1	-3
651.135	1	16
651.305	1	8
651.474	1	6
651.644	1	-4
651.813	1	8
651.983	1	10
652.152	1	4
652.322	1	15
652.491	1	8
652.661	1	4
652.830	1	12
653.000	1	4
653.169	1	5
653.339	1	13
653.508	1	1
653.678	1	10
653.847	1	3
654.017	1	3
654.186	1	5
654.356	1	18
654.525	1	-2
654.695	1	14
654.864	1	10
655.034	1	10
655.203	1	5
655.373	1	10
655.542	1	-1
655.712	1	2
655.881	1	2
656.051	1	1
656.220	1	14
656.390	1	7
656.559	1	-10
656.729	1	11
656.898	1	7
657.068	1	3
657.237	1	16
657.406	1	12
657.576	1	1
657.745	1	3
657.915	1	12
658.084	1	11
658.254	1	9
658.423	1	4
658.593	1	-2
658.762	1	1
658.932	1	4
659.101	1	6
659.271	1	2
659.440	1	10
659.610	1	0
659.779	1	-3
659.949	1	2
660.118	1	7
660.288	1	4
660.457	1	0
660.626	1	2
660.796	1	-1
660.965	1	13
661.135	1	5
661.304	1	8
661.474	1	8
661.643	1	3
661.813	1	1
661.982	1	-5
662.152	1	4
662.321	1	7
662.491	1	0
662.660	1	7
662.829	1	0
662.999	1	-5
663.168	1	-2
663.338	1	0
663.507	1	12
663.677	1	2
663.846	1	12
664.016	1	2
664.185	1	9
664.354	1	5
664.524	1	1
664.693	1	2
664.863	1	-2
665.032	1	3
665.202	1	-4
665.371	1	4
665.541	1	3
665.710	1	0
665.879	1	-4
666.049	1	4
666.218	1	-3
666.388	1	-1
666.557	1	11
666.727	1	-9
666.896	1	-3
667.065	1	11
667.235	1	2
667.404	1	-1
667.574	1	6
667.743	1	8
667.913	1	2
668.082	1	5
668.251	1	3
668.421	1	1
668.590	1	2
668.760	1	8
668.929	1	5
669.099	1	0
669.268	1	-4
669.437	1	-2
669.607	1	1
669.776	1	11
669.946	1	5
670.115	1	7
670.285	1	10
670.454	1	10
670.623	1	5
670.793	1	2
670.962	1	-2
671.132	1	10
671.301	1	1
671.470	1	-2
671.640	1	-6
671.809	1	-1
671.979	1	9
672.148	1	21
672.317	1	3
672.487	1	-6
672.656	1	7
672.826	1	-6
672.995	1	5
673.164	1	19
673.334	1	7
673.503	1	0
673.673	1	21
673.842	1	8
674.011	1	8
674.181	1	-2
674.350	1	3
674.520	1	5
674.689	1	-2
674.858	1	0
675.028	1	3
675.197	1	-5
675.367	1	11
675.536	1	13
675.705	1	-6
675.875	1	7
676.044	1	14
676.214	1	7
676.383	1	-2
676.552	1	-1
676.722	1	9
676.891	1	-8
677.060	1	2
677.230	1	14
677.399	1	11
677.569	1	-8
677.738	1	1
677.907	1	-6
678.077	1	7
678.246	1	0
678.416	1	-2
678.585	1	15
678.754	1	1
678.924	1	-5
679.093	1	4
679.262	1	8
679.432	1	-7
679.601	1	-2
679.771	1	-5
679.940	1	4
680.109	1	7
680.279	1	-10
680.448	1	9
680.617	1	-8
680.787	1	-1
680.956	1	-2
681.125	1	6
681.295	1	12
681.464	1	4
681.634	1	12
681.803	1	-4
681.972	1	-1
682.142	1	15
682.311	1	12
682.480	1	4
682.650	1	3
682.819	1	14
682.988	1	-3
683.158	1	10
683.327	1	14
683.496	1	3
683.666	1	6
683.835	1	0
684.004	1	6
684.174	1	3
684.343	1	-7
684.512	1	4
684.682	1	8
684.851	1	-2
685.021	1	15
685.190	1	16
685.359	1	-3
685.529	1	4
685.698	1	3
685.867	1	9
686.037	1	8
686.206	1	0
686.375	1	8
686.545	1	10
686.714	1	0
686.883	1	-2
687.053	1	8
687.222	1	2
687.391	1	6
687.561	1	11
687.730	1	-1
687.899	1	12
688.069	1	3
688.238	1	6
688.407	1	10
688.577	1	0
688.746	1	11
