340.368	1	6
340.539	1	4
340.710	1	-1
340.881	1	4
341.052	1	0
341.223	1	6
341.394	1	4
341.565	1	-3
341.737	1	10
341.908	1	-1
342.079	1	-3
342.250	1	-7
342.421	1	-5
342.592	1	-8
342.763	1	-6
342.934	1	-3
343.105	1	8
343.276	1	-2
343.447	1	4
343.618	1	3
343.789	1	-8
343.960	1	-8
344.131	1	4
344.302	1	-7
344.473	1	-8
344.644	1	-2
344.815	1	-1
344.986	1	6
345.157	1	3
345.328	1	-11
345.499	1	0
345.670	1	5
345.841	1	3
346.012	1	-1
346.183	1	2
346.354	1	1
346.526	1	0
346.697	1	-2
346.868	1	1
347.039	1	4
347.210	1	-3
347.381	1	-4
347.552	1	0
347.723	1	8
347.894	1	-11
348.065	1	4
348.236	1	6
348.407	1	0
348.578	1	0
348.749	1	-1
348.920	1	4
349.091	1	0
349.262	1	-11
349.433	1	-1
349.604	1	-3
349.775	1	4
349.946	1	3
350.117	1	6
350.288	1	9
350.459	1	-2
350.630	1	-6
350.801	1	4
350.972	1	-2
351.143	1	-4
351.314	1	-4
351.485	1	-6
351.656	1	0
351.827	1	5
351.998	1	-9
352.169	1	6
352.340	1	6
352.511	1	-10
352.682	1	-5
352.853	1	-11
353.024	1	-2
353.195	1	0
353.366	1	1
353.537	1	4
353.708	1	6
353.879	1	1
354.050	1	5
354.221	1	-4
354.392	1	-8
354.563	1	14
354.734	1	-5
354.905	1	-6
355.076	1	7
355.247	1	-7
355.418	1	-3
355.589	1	-5
355.760	1	11
355.931	1	6
356.102	1	-7
356.273	1	-1
356.444	1	3
356.615	1	5
356.785	1	6
356.956	1	0
357.127	1	-3
357.298	1	-6
357.469	1	0
357.640	1	9
357.811	1	13
357.982	1	-3
358.153	1	0
358.324	1	-2
358.495	1	6
358.666	1	-9
358.837	1	4
359.008	1	-1
359.179	1	-4
359.350	1	2
359.521	1	-4
359.692	1	-1
359.863	1	-2
360.034	1	-8
360.205	1	-2
360.376	1	6
360.547	1	-5
360.718	1	-7
360.889	1	7
361.060	1	8
361.231	1	2
361.401	1	14
361.572	1	1
361.743	1	5
361.914	1	-7
362.085	1	-12
362.256	1	2
362.427	1	-3
362.598	1	-4
362.769	1	4
362.940	1	4
363.111	1	15
363.282	1	2
363.453	1	-5
363.624	1	-1
363.795	1	3
363.966	1	-8
364.137	1	-6
364.308	1	-4
364.478	1	5
364.649	1	-1
364.820	1	-9
364.991	1	8
365.162	1	-7
365.333	1	1
365.504	1	-7
365.675	1	-9
365.846	1	0
366.017	1	-5
366.188	1	1
366.359	1	-3
366.530	1	6
366.701	1	-6
366.871	1	7
367.042	1	17
367.213	1	5
367.384	1	5
367.555	1	-6
367.726	1	11
367.897	1	-3
368.068	1	-2
368.239	1	6
368.410	1	-8
368.581	1	0
368.752	1	-14
368.923	1	-13
369.093	1	-4
369.264	1	-4
369.435	1	0
369.606	1	-5
369.777	1	-7
369.948	1	7
370.119	1	1
370.290	1	-4
370.461	1	-4
370.632	1	-6
370.803	1	-3
370.973	1	7
371.144	1	4
371.315	1	2
371.486	1	12
371.657	1	0
371.828	1	-1
371.999	1	1
372.170	1	5
372.341	1	5
372.512	1	-11
372.682	1	-6
372.853	1	3
373.024	1	-3
373.195	1	-13
373.366	1	-6
373.537	1	0
373.708	1	3
373.879	1	13
374.050	1	0
374.220	1	1
374.391	1	2
374.562	1	3
374.733	1	6
374.904	1	6
375.075	1	13
375.246	1	-6
375.417	1	0
375.588	1	-1
375.758	1	-3
375.929	1	2
376.100	1	8
376.271	1	-4
376.442	1	-9
376.613	1	0
376.784	1	10
376.955	1	-3
377.125	1	0
377.296	1	-3
377.467	1	-6
377.638	1	-4
377.809	1	13
377.980	1	3
378.151	1	-6
378.321	1	6
378.492	1	-8
378.663	1	-11
378.834	1	6
379.005	1	3
379.176	1	-7
379.347	1	2
379.518	1	-14
379.688	1	0
379.859	1	-3
380.030	1	2
380.201	1	-12
380.372	1	-7
380.543	1	4
380.714	1	2
380.884	1	-14
381.055	1	-2
381.226	1	0
381.397	1	-10
381.568	1	-3
381.739	1	0
381.910	1	5
382.080	1	-14
382.251	1	1
382.422	1	10
382.593	1	-6
382.764	1	-7
382.935	1	2
383.105	1	-1
383.276	1	-1
383.447	1	5
383.618	1	8
383.789	1	4
383.960	1	-4
384.130	1	-3
384.301	1	1
384.472	1	-15
384.643	1	7
384.814	1	6
384.985	1	-6
385.156	1	9
385.326	1	6
385.497	1	7
385.668	1	4
385.839	1	10
386.010	1	6
386.180	1	-1
386.351	1	-3
386.522	1	7
386.693	1	-2
386.864	1	-7
387.035	1	-6
387.205	1	-5
387.376	1	1
387.547	1	2
387.718	1	7
387.889	1	7
388.060	1	-7
388.230	1	-3
388.401	1	7
388.572	1	2
388.743	1	-3
388.914	1	6
389.084	1	10
389.255	1	-1
389.426	1	1
389.597	1	3
389.768	1	1
389.939	1	6
390.109	1	3
390.280	1	2
390.451	1	2
390.622	1	0
390.793	1	-2
390.963	1	10
391.134	1	0
391.305	1	12
391.476	1	3
391.647	1	2
391.817	1	-2
391.988	1	-6
392.159	1	7
392.330	1	12
392.501	1	5
392.671	1	3
392.842	1	4
393.013	1	16
393.184	1	3
393.355	1	3
393.525	1	10
393.696	1	-3
393.867	1	0
394.038	1	-4
394.208	1	-4
394.379	1	-6
394.550	1	12
394.721	1	0
394.892	1	2
395.062	1	-4
395.233	1	2
395.404	1	2
395.575	1	-3
395.746	1	-6
395.916	1	-7
396.087	1	-1
396.258	1	2
396.429	1	7
396.599	1	-1
396.770	1	4
396.941	1	16
397.112	1	-5
397.283	1	-2
397.453	1	-6
397.624	1	-5
397.795	1	1
397.966	1	3
398.136	1	2
398.307	1	2
398.478	1	-4
398.649	1	3
398.819	1	12
398.990	1	3
399.161	1	0
399.332	1	6
399.503	1	-5
399.673	1	0
399.844	1	-9
400.015	1	4
400.186	1	8
400.356	1	-5
400.527	1	3
400.698	1	5
400.869	1	6
401.039	1	-3
401.210	1	0
401.381	1	2
401.552	1	8
401.722	1	2
401.893	1	-3
402.064	1	4
402.235	1	6
402.405	1	-6
402.576	1	8
402.747	1	-3
402.918	1	-7
403.088	1	-12
403.259	1	-15
403.430	1	-2
403.601	1	-6
403.771	1	0
403.942	1	8
404.113	1	13
404.284	1	-3
404.454	1	11
404.625	1	-1
404.796	1	-8
404.967	1	-2
405.137	1	1
405.308	1	3
405.479	1	-3
405.649	1	1
405.820	1	-2
405.991	1	10
406.162	1	0
406.332	1	0
406.503	1	2
406.674	1	0
406.845	1	7
407.015	1	-5
407.186	1	11
407.357	1	-2
407.527	1	1
407.698	1	-7
407.869	1	-7
408.040	1	1
408.210	1	-11
408.381	1	-5
408.552	1	6
408.722	1	0
408.893	1	0
409.064	1	-2
409.235	1	0
409.405	1	-2
409.576	1	0
409.747	1	-1
409.917	1	3
410.088	1	4
410.259	1	-2
410.430	1	8
410.600	1	-2
410.771	1	-3
410.942	1	1
411.112	1	0
411.283	1	-5
411.454	1	3
411.625	1	-4
411.795	1	7
411.966	1	2
412.137	1	2
412.307	1	-3
412.478	1	0
412.649	1	1
412.819	1	-8
412.990	1	-3
413.161	1	-3
413.332	1	-2
413.502	1	-10
413.673	1	4
413.844	1	-5
414.014	1	2
414.185	1	6
414.356	1	-8
414.526	1	-6
414.697	1	5
414.868	1	7
415.038	1	7
415.209	1	-10
415.380	1	1
415.550	1	-9
415.721	1	2
415.892	1	-5
416.063	1	11
416.233	1	-4
416.404	1	-1
416.575	1	-3
416.745	1	-9
416.916	1	-5
417.087	1	-4
417.257	1	-1
417.428	1	-5
417.599	1	2
417.769	1	0
417.940	1	4
418.111	1	-4
418.281	1	2
418.452	1	-5
418.623	1	-5
418.793	1	2
418.964	1	4
419.135	1	-2
419.305	1	-4
419.476	1	-9
419.647	1	2
419.817	1	2
419.988	1	-2
420.159	1	-5
420.329	1	1
420.500	1	4
420.671	1	0
420.841	1	8
421.012	1	14
421.183	1	-1
421.353	1	14
421.524	1	-1
421.695	1	3
421.865	1	1
422.036	1	-7
422.206	1	-5
422.377	1	5
422.548	1	0
422.718	1	-2
422.889	1	0
423.060	1	-11
423.230	1	2
423.401	1	3
423.572	1	3
423.742	1	-8
423.913	1	11
424.084	1	8
424.254	1	1
424.425	1	0
424.595	1	3
424.766	1	4
424.937	1	-2
425.107	1	-1
425.278	1	-13
425.449	1	6
425.619	1	-3
425.790	1	-1
425.961	1	2
426.131	1	-1
426.302	1	1
426.472	1	1
426.643	1	0
426.814	1	5
426.984	1	2
427.155	1	-10
427.326	1	5
427.496	1	1
427.667	1	3
427.837	1	0
428.008	1	-6
428.179	1	1
428.349	1	-2
428.520	1	-6
428.691	1	-1
428.861	1	2
429.032	1	0
429.202	1	7
429.373	1	-13
429.544	1	-3
429.714	1	4
429.885	1	-2
430.055	1	1
430.226	1	-1
430.397	1	-1
430.567	1	13
430.738	1	4
430.909	1	-15
431.079	1	6
431.250	1	-8
431.420	1	-4
431.591	1	1
431.762	1	10
431.932	1	-2
432.103	1	1
432.273	1	-2
432.444	1	2
432.615	1	2
432.785	1	6
432.956	1	-2
433.126	1	-2
433.297	1	10
433.468	1	3
433.638	1	0
433.809	1	6
433.979	1	0
434.150	1	-4
434.320	1	-8
434.491	1	-4
434.662	1	-8
434.832	1	2
435.003	1	1
435.173	1	-2
435.344	1	6
435.515	1	0
435.685	1	-4
435.856	1	-8
436.026	1	0
436.197	1	-6
436.368	1	-10
436.538	1	1
436.709	1	-13
436.879	1	-10
437.050	1	8
437.220	1	5
437.391	1	2
437.562	1	1
437.732	1	-2
437.903	1	-3
438.073	1	3
438.244	1	-7
438.414	1	-1
438.585	1	-1
438.756	1	0
438.926	1	-4
439.097	1	10
439.267	1	7
439.438	1	-2
439.608	1	-4
439.779	1	-7
439.949	1	-5
440.120	1	3
440.291	1	-5
440.461	1	-8
440.632	1	2
440.802	1	17
440.973	1	-2
441.143	1	10
441.314	1	3
441.485	1	-6
441.655	1	16
441.826	1	-17
441.996	1	-1
442.167	1	-5
442.337	1	-6
442.508	1	-3
442.678	1	-7
442.849	1	7
443.019	1	6
443.190	1	-9
443.361	1	8
443.531	1	2
443.702	1	-6
443.872	1	2
444.043	1	7
444.213	1	-8
444.384	1	2
444.554	1	3
444.725	1	-1
444.895	1	-10
445.066	1	-4
445.237	1	-8
445.407	1	-4
445.578	1	10
445.748	1	-6
445.919	1	1
446.089	1	11
446.260	1	-2
446.430	1	-14
446.601	1	-5
446.771	1	-8
446.942	1	-2
447.112	1	0
447.283	1	-3
447.453	1	-6
447.624	1	5
447.794	1	-8
447.965	1	-9
448.135	1	1
448.306	1	3
448.477	1	-9
448.647	1	7
448.818	1	6
448.988	1	-12
449.159	1	-4
449.329	1	1
449.500	1	1
449.670	1	19
449.841	1	-3
450.011	1	-2
450.182	1	-9
450.352	1	10
450.523	1	-8
450.693	1	3
450.864	1	4
451.034	1	1
451.205	1	-1
451.375	1	10
451.546	1	2
451.716	1	-1
451.887	1	-1
452.057	1	5
452.228	1	-10
452.398	1	-2
452.569	1	0
452.739	1	1
452.910	1	2
453.080	1	3
453.251	1	11
453.421	1	3
453.592	1	-4
453.762	1	7
453.933	1	4
454.103	1	0
454.274	1	-2
454.444	1	13
454.615	1	4
454.785	1	-12
454.956	1	0
455.126	1	8
455.297	1	8
455.467	1	-7
455.638	1	5
455.808	1	-6
455.979	1	8
456.149	1	-5
456.320	1	2
456.490	1	-2
456.661	1	-8
456.831	1	14
457.001	1	0
457.172	1	0
457.342	1	2
457.513	1	1
457.683	1	2
457.854	1	-2
458.024	1	-4
458.195	1	-8
458.365	1	-3
458.536	1	5
458.706	1	6
458.877	1	-1
459.047	1	-2
459.218	1	4
459.388	1	2
459.559	1	-2
459.729	1	-6
459.899	1	6
460.070	1	3
460.240	1	1
460.411	1	5
460.581	1	6
460.752	1	-3
460.922	1	-6
461.093	1	3
461.263	1	2
461.434	1	6
461.604	1	2
461.775	1	2
461.945	1	2
462.115	1	-5
462.286	1	2
462.456	1	-11
462.627	1	1
462.797	1	-12
462.968	1	-10
463.138	1	10
463.309	1	-4
463.479	1	12
463.649	1	5
463.820	1	-7
463.990	1	4
464.161	1	8
464.331	1	-6
464.502	1	4
464.672	1	1
464.843	1	4
465.013	1	-12
465.183	1	1
465.354	1	1
465.524	1	3
465.695	1	-2
465.865	1	-14
466.036	1	5
466.206	1	4
466.376	1	-8
466.547	1	1
466.717	1	-1
466.888	1	-4
467.058	1	8
467.229	1	4
467.399	1	-8
467.569	1	-3
467.740	1	-8
467.910	1	-6
468.081	1	5
468.251	1	-2
468.422	1	11
468.592	1	3
468.762	1	-16
468.933	1	9
469.103	1	-6
469.274	1	-2
469.444	1	4
469.614	1	-10
469.785	1	0
469.955	1	2
470.126	1	5
470.296	1	3
470.467	1	-3
470.637	1	7
470.807	1	-10
470.978	1	-9
471.148	1	-7
471.319	1	5
471.489	1	-5
471.659	1	4
471.830	1	9
472.000	1	8
472.171	1	-4
472.341	1	-2
472.511	1	12
472.682	1	6
472.852	1	-5
473.023	1	-7
473.193	1	-4
473.363	1	-2
473.534	1	-9
473.704	1	10
473.875	1	-1
474.045	1	-7
474.215	1	0
474.386	1	10
474.556	1	-12
474.727	1	11
474.897	1	-3
475.067	1	0
475.238	1	-1
475.408	1	-1
475.578	1	7
475.749	1	-9
475.919	1	6
476.090	1	-2
476.260	1	-5
476.430	1	3
476.601	1	0
476.771	1	4
476.942	1	-3
477.112	1	1
477.282	1	-12
477.453	1	-5
477.623	1	2
477.793	1	1
477.964	1	-4
478.134	1	3
478.305	1	8
478.475	1	5
478.645	1	-4
478.816	1	-6
478.986	1	-4
479.156	1	0
479.327	1	-9
479.497	1	-4
479.667	1	7
479.838	1	-2
480.008	1	9
480.179	1	-4
480.349	1	0
480.519	1	-3
480.690	1	-3
480.860	1	-1
481.030	1	1
481.201	1	-3
481.371	1	-1
481.541	1	10
481.712	1	-1
481.882	1	-2
482.053	1	7
482.223	1	-15
482.393	1	-10
482.564	1	-15
482.734	1	-3
482.904	1	0
483.075	1	5
483.245	1	5
483.415	1	12
483.586	1	-6
483.756	1	15
483.926	1	9
484.097	1	-8
484.267	1	0
484.437	1	-15
484.608	1	4
484.778	1	-2
484.948	1	-3
485.119	1	3
485.289	1	3
485.459	1	17
485.630	1	-7
485.800	1	-3
485.970	1	4
486.141	1	-10
486.311	1	-2
486.481	1	0
486.652	1	0
486.822	1	-1
486.992	1	-6
487.163	1	0
487.333	1	3
487.503	1	-10
487.674	1	1
487.844	1	-6
488.014	1	2
488.185	1	-5
488.355	1	-9
488.525	1	1
488.696	1	-3
488.866	1	1
489.036	1	5
489.207	1	6
489.377	1	-5
489.547	1	-2
489.718	1	-13
489.888	1	-2
490.058	1	1
490.228	1	-15
490.399	1	4
490.569	1	7
490.739	1	3
490.910	1	0
491.080	1	-8
491.250	1	-1
491.421	1	3
491.591	1	-7
491.761	1	-6
491.932	1	5
492.102	1	-6
492.272	1	4
492.442	1	-3
492.613	1	-4
492.783	1	-12
492.953	1	3
493.124	1	-11
493.294	1	8
493.464	1	0
493.635	1	1
493.805	1	5
493.975	1	-2
494.145	1	6
494.316	1	11
494.486	1	3
494.656	1	1
494.827	1	-9
494.997	1	-5
495.167	1	-4
495.337	1	5
495.508	1	-10
495.678	1	5
495.848	1	11
496.019	1	-6
496.189	1	-1
496.359	1	5
496.529	1	-6
496.700	1	-1
496.870	1	-2
497.040	1	2
497.211	1	2
497.381	1	-23
497.551	1	11
497.721	1	-10
497.892	1	6
498.062	1	-8
498.232	1	-2
498.403	1	7
498.573	1	-7
498.743	1	-3
498.913	1	5
499.084	1	-16
499.254	1	0
499.424	1	19
499.594	1	4
499.765	1	4
499.935	1	-7
500.105	1	10
500.275	1	-1
500.446	1	10
500.616	1	0
500.786	1	-3
500.956	1	-2
501.127	1	4
501.297	1	2
501.467	1	0
501.638	1	8
501.808	1	-19
501.978	1	6
502.148	1	5
502.319	1	4
502.489	1	5
502.659	1	4
502.829	1	-5
503.000	1	13
503.170	1	3
503.340	1	-4
503.510	1	3
503.681	1	4
503.851	1	-21
504.021	1	11
504.191	1	2
504.362	1	8
504.532	1	-14
504.702	1	2
504.872	1	-5
505.042	1	-2
505.213	1	1
505.383	1	-3
505.553	1	0
505.723	1	9
505.894	1	-4
506.064	1	-2
506.234	1	11
506.404	1	-2
506.575	1	-4
506.745	1	-8
506.915	1	9
507.085	1	-9
507.256	1	-4
507.426	1	4
507.596	1	2
507.766	1	-9
507.936	1	1
508.107	1	-1
508.277	1	-5
508.447	1	-6
508.617	1	11
508.788	1	2
508.958	1	8
509.128	1	0
509.298	1	19
509.468	1	3
509.639	1	15
509.809	1	-1
509.979	1	3
510.149	1	-1
510.319	1	-8
510.490	1	8
510.660	1	2
510.830	1	-3
511.000	1	2
511.171	1	11
511.341	1	-6
511.511	1	-3
511.681	1	1
511.851	1	-5
512.022	1	-4
512.192	1	6
512.362	1	8
512.532	1	-5
512.702	1	-16
512.873	1	2
513.043	1	1
513.213	1	1
513.383	1	-1
513.553	1	-6
513.724	1	8
513.894	1	-5
514.064	1	1
514.234	1	0
514.404	1	0
514.575	1	3
514.745	1	4
514.915	1	0
515.085	1	-5
515.255	1	-7
515.425	1	0
515.596	1	-12
515.766	1	9
515.936	1	4
516.106	1	-4
516.276	1	6
516.447	1	4
516.617	1	-9
516.787	1	0
516.957	1	2
517.127	1	5
517.297	1	10
517.468	1	-5
517.638	1	13
517.808	1	-4
517.978	1	-2
518.148	1	4
518.319	1	0
518.489	1	1
518.659	1	1
518.829	1	-10
518.999	1	-8
519.169	1	6
519.340	1	-11
519.510	1	-4
519.680	1	-10
519.850	1	-4
520.020	1	-5
520.190	1	1
520.361	1	5
520.531	1	-2
520.701	1	6
520.871	1	-12
521.041	1	-3
521.211	1	1
521.382	1	0
521.552	1	3
521.722	1	-8
521.892	1	-8
522.062	1	-1
522.232	1	3
522.402	1	-6
522.573	1	5
522.743	1	1
522.913	1	-1
523.083	1	2
523.253	1	-4
523.423	1	-8
523.593	1	-12
523.764	1	3
523.934	1	-1
524.104	1	-6
524.274	1	-12
524.444	1	-7
524.614	1	-6
524.784	1	7
524.955	1	-1
525.125	1	1
525.295	1	-3
525.465	1	2
525.635	1	4
525.805	1	-2
525.975	1	-4
526.146	1	5
526.316	1	-7
526.486	1	7
526.656	1	16
526.826	1	7
526.996	1	10
527.166	1	2
527.337	1	1
527.507	1	-12
527.677	1	14
527.847	1	0
528.017	1	-6
528.187	1	-2
528.357	1	8
528.527	1	3
528.698	1	-4
528.868	1	0
529.038	1	6
529.208	1	1
529.378	1	3
529.548	1	5
529.718	1	9
529.888	1	1
530.058	1	5
530.229	1	3
530.399	1	0
530.569	1	7
530.739	1	-4
530.909	1	11
531.079	1	15
531.249	1	-8
531.419	1	12
531.589	1	-5
531.760	1	5
531.930	1	-2
532.100	1	6
532.270	1	6
532.440	1	-7
532.610	1	3
532.780	1	-4
532.950	1	4
533.120	1	-3
533.290	1	-6
533.461	1	4
533.631	1	8
533.801	1	1
533.971	1	5
534.141	1	2
534.311	1	-3
534.481	1	6
534.651	1	3
534.821	1	-7
534.991	1	3
535.162	1	5
535.332	1	-5
535.502	1	2
535.672	1	-3
535.842	1	-1
536.012	1	4
536.182	1	-3
536.352	1	-5
536.522	1	-4
536.692	1	1
536.862	1	-9
537.032	1	6
537.203	1	11
537.373	1	3
537.543	1	-2
537.713	1	12
537.883	1	9
538.053	1	8
538.223	1	12
538.393	1	2
538.563	1	8
538.733	1	-7
538.903	1	-4
539.073	1	3
539.243	1	-2
539.413	1	-6
539.584	1	10
539.754	1	-10
539.924	1	-4
540.094	1	-2
540.264	1	-1
540.434	1	-3
540.604	1	3
540.774	1	4
540.944	1	2
541.114	1	-4
541.284	1	-5
541.454	1	11
541.624	1	5
541.794	1	-6
541.964	1	0
542.134	1	7
542.305	1	-9
542.475	1	-9
542.645	1	8
542.815	1	4
542.985	1	-6
543.155	1	-9
543.325	1	-5
543.495	1	-9
543.665	1	13
543.835	1	2
544.005	1	-3
544.175	1	11
544.345	1	-6
544.515	1	-3
544.685	1	2
544.855	1	-1
545.025	1	-14
545.195	1	-3
545.365	1	7
545.535	1	1
545.705	1	6
545.875	1	-4
546.045	1	7
546.216	1	-2
546.386	1	-3
546.556	1	-8
546.726	1	-4
546.896	1	4
547.066	1	-11
547.236	1	-7
547.406	1	1
547.576	1	6
547.746	1	13
547.916	1	6
548.086	1	4
548.256	1	5
548.426	1	-2
548.596	1	-7
548.766	1	6
548.936	1	4
549.106	1	2
549.276	1	6
549.446	1	-3
549.616	1	-6
549.786	1	5
549.956	1	3
550.126	1	-6
550.296	1	3
550.466	1	-6
550.636	1	-6
550.806	1	1
550.976	1	-5
551.146	1	-9
551.316	1	-10
551.486	1	-1
551.656	1	-12
551.826	1	-3
551.996	1	1
552.166	1	5
552.336	1	5
552.506	1	-9
552.676	1	-8
552.846	1	0
553.016	1	-9
553.186	1	1
553.356	1	-3
553.526	1	-1
553.696	1	13
553.866	1	5
554.036	1	9
554.206	1	2
554.376	1	-12
554.546	1	-9
554.716	1	4
554.886	1	-7
555.056	1	-7
555.226	1	-8
555.396	1	3
555.566	1	3
555.736	1	-1
555.906	1	9
556.076	1	8
556.246	1	0
556.416	1	2
556.586	1	-2
556.756	1	3
556.926	1	2
557.096	1	-1
557.266	1	4
557.436	1	8
557.606	1	-12
557.776	1	-4
557.946	1	2
558.116	1	0
558.286	1	0
558.456	1	-5
558.626	1	1
558.796	1	-6
558.966	1	-2
559.136	1	4
559.306	1	-10
559.476	1	-3
559.646	1	-4
559.816	1	3
559.986	1	-12
560.155	1	-3
560.325	1	-16
560.495	1	-3
560.665	1	1
560.835	1	9
561.005	1	3
561.175	1	-1
561.345	1	4
561.515	1	-3
561.685	1	-3
561.855	1	5
562.025	1	-3
562.195	1	1
562.365	1	-9
562.535	1	-1
562.705	1	2
562.875	1	1
563.045	1	-3
563.215	1	-5
563.385	1	-2
563.555	1	5
563.725	1	1
563.895	1	-2
564.064	1	8
564.234	1	-1
564.404	1	2
564.574	1	-1
564.744	1	-1
564.914	1	-11
565.084	1	-1
565.254	1	-6
565.424	1	1
565.594	1	-6
565.764	1	13
565.934	1	9
566.104	1	-11
566.274	1	11
566.444	1	3
566.614	1	0
566.783	1	-3
566.953	1	4
567.123	1	11
567.293	1	-3
567.463	1	-2
567.633	1	-9
567.803	1	-6
567.973	1	-16
568.143	1	-3
568.313	1	-12
568.483	1	0
568.653	1	-4
568.823	1	7
568.993	1	-5
569.162	1	4
569.332	1	-10
569.502	1	7
569.672	1	-1
569.842	1	1
570.012	1	1
570.182	1	-8
570.352	1	8
570.522	1	10
570.692	1	2
570.862	1	2
571.031	1	-1
571.201	1	3
571.371	1	-1
571.541	1	-12
571.711	1	2
571.881	1	8
572.051	1	-1
572.221	1	1
572.391	1	1
572.561	1	-7
572.731	1	-12
572.900	1	12
573.070	1	-1
573.240	1	-4
573.410	1	-6
573.580	1	-9
573.750	1	6
573.920	1	-2
574.090	1	6
574.260	1	-8
574.430	1	1
574.599	1	3
574.769	1	-3
574.939	1	0
575.109	1	-1
575.279	1	-3
575.449	1	6
575.619	1	-3
575.789	1	7
575.959	1	-11
576.128	1	-4
576.298	1	-11
576.468	1	-9
576.638	1	-3
576.808	1	-3
576.978	1	5
577.148	1	2
577.318	1	6
577.487	1	4
577.657	1	-24
577.827	1	15
577.997	1	-3
578.167	1	0
578.337	1	3
578.507	1	-7
578.677	1	-7
578.846	1	-8
579.016	1	7
579.186	1	0
579.356	1	-4
579.526	1	-5
579.696	1	2
579.866	1	6
580.036	1	2
580.205	1	-1
580.375	1	4
580.545	1	4
580.715	1	5
580.885	1	-6
581.055	1	-2
581.225	1	-10
581.394	1	-13
581.564	1	-5
581.734	1	5
581.904	1	-3
582.074	1	-3
582.244	1	-8
582.414	1	7
582.583	1	-11
582.753	1	6
582.923	1	-11
583.093	1	-7
583.263	1	0
583.433	1	-8
583.603	1	2
583.772	1	-5
583.942	1	6
584.112	1	7
584.282	1	8
584.452	1	-7
584.622	1	1
584.791	1	-2
584.961	1	2
585.131	1	-12
585.301	1	1
585.471	1	-3
585.641	1	5
585.811	1	3
585.980	1	-5
586.150	1	2
586.320	1	-10
586.490	1	-8
586.660	1	-2
586.830	1	-7
586.999	1	-5
587.169	1	-1
587.339	1	0
587.509	1	5
587.679	1	1
587.849	1	9
588.018	1	3
588.188	1	-6
588.358	1	6
588.528	1	1
588.698	1	-14
588.867	1	-3
589.037	1	-6
589.207	1	-6
589.377	1	3
589.547	1	-6
589.717	1	9
589.886	1	-3
590.056	1	-4
590.226	1	1
590.396	1	3
590.566	1	-6
590.735	1	14
590.905	1	-3
591.075	1	-7
591.245	1	-6
591.415	1	3
591.585	1	3
591.754	1	0
591.924	1	-4
592.094	1	0
592.264	1	-7
592.434	1	-5
592.603	1	-10
592.773	1	-1
592.943	1	-2
593.113	1	-4
593.283	1	8
593.452	1	-6
593.622	1	5
593.792	1	1
593.962	1	3
594.132	1	2
594.301	1	6
594.471	1	2
594.641	1	1
594.811	1	-1
594.981	1	-2
595.150	1	3
595.320	1	7
595.490	1	-7
595.660	1	9
595.829	1	2
595.999	1	7
596.169	1	-2
596.339	1	9
596.509	1	2
596.678	1	1
596.848	1	6
597.018	1	-4
597.188	1	1
597.358	1	-5
597.527	1	6
597.697	1	-1
597.867	1	-1
598.037	1	2
598.206	1	-7
598.376	1	2
598.546	1	-3
598.716	1	-10
598.885	1	-4
599.055	1	-6
599.225	1	3
599.395	1	0
599.565	1	-5
599.734	1	6
599.904	1	-1
600.074	1	-1
600.244	1	12
600.413	1	2
600.583	1	-8
600.753	1	3
600.923	1	0
601.092	1	-7
601.262	1	6
601.432	1	-6
601.602	1	7
601.771	1	4
601.941	1	-6
602.111	1	-1
602.281	1	-5
602.451	1	-6
602.620	1	1
602.790	1	-4
602.960	1	-7
603.130	1	3
603.299	1	6
603.469	1	-9
603.639	1	6
603.809	1	8
603.978	1	-4
604.148	1	2
604.318	1	0
604.487	1	0
604.657	1	-1
604.827	1	-8
604.997	1	-3
605.166	1	-4
605.336	1	-7
605.506	1	8
605.676	1	-9
605.845	1	1
606.015	1	4
606.185	1	-5
606.355	1	3
606.524	1	-2
606.694	1	8
606.864	1	-14
607.034	1	-4
607.203	1	6
607.373	1	-5
607.543	1	-3
607.712	1	12
607.882	1	-13
608.052	1	-1
608.222	1	-2
608.391	1	-7
608.561	1	7
608.731	1	-9
608.901	1	6
609.070	1	1
609.240	1	-8
609.410	1	1
609.579	1	4
609.749	1	-3
609.919	1	-10
610.089	1	-1
610.258	1	7
610.428	1	1
610.598	1	2
610.767	1	-7
610.937	1	3
611.107	1	3
611.277	1	1
611.446	1	-2
611.616	1	-7
611.786	1	10
611.955	1	2
612.125	1	5
612.295	1	-4
612.465	1	-10
612.634	1	-6
612.804	1	9
612.974	1	2
613.143	1	5
613.313	1	5
613.483	1	4
613.652	1	-8
613.822	1	3
613.992	1	-7
614.162	1	-2
614.331	1	-3
614.501	1	5
614.671	1	9
614.840	1	2
615.010	1	5
615.180	1	-8
615.349	1	-1
615.519	1	12
615.689	1	-2
615.858	1	6
616.028	1	2
616.198	1	4
616.368	1	-8
616.537	1	-8
616.707	1	-6
616.877	1	3
617.046	1	-2
617.216	1	-2
617.386	1	7
617.555	1	-4
617.725	1	0
617.895	1	-8
618.064	1	13
618.234	1	1
618.404	1	1
618.573	1	-11
618.743	1	-2
618.913	1	-1
619.082	1	6
619.252	1	-1
619.422	1	3
619.591	1	-4
619.761	1	-1
619.931	1	8
620.100	1	-1
620.270	1	0
620.440	1	2
620.609	1	-2
620.779	1	-1
620.949	1	-5
621.118	1	-3
621.288	1	3
621.458	1	-2
621.627	1	-7
621.797	1	-2
621.967	1	2
622.136	1	-1
622.306	1	7
622.476	1	2
622.645	1	5
622.815	1	2
622.985	1	0
623.154	1	-2
623.324	1	10
623.494	1	5
623.663	1	-5
623.833	1	-5
624.002	1	-3
624.172	1	3
624.342	1	-1
624.511	1	-3
624.681	1	-2
624.851	1	-7
625.020	1	-1
625.190	1	-1
625.360	1	-2
625.529	1	2
625.699	1	-8
625.869	1	4
626.038	1	7
626.208	1	1
626.377	1	6
626.547	1	5
626.717	1	-2
626.886	1	-11
627.056	1	2
627.226	1	4
627.395	1	-5
627.565	1	2
627.735	1	3
627.904	1	8
628.074	1	10
628.243	1	-11
628.413	1	-2
628.583	1	-1
628.752	1	8
628.922	1	-9
629.091	1	-2
629.261	1	5
629.431	1	-8
629.600	1	8
629.770	1	-9
629.940	1	-2
630.109	1	4
630.279	1	-7
630.448	1	-5
630.618	1	1
630.788	1	1
630.957	1	-11
631.127	1	15
631.297	1	-1
631.466	1	-7
631.636	1	-4
631.805	1	0
631.975	1	0
632.145	1	-13
632.314	1	3
632.484	1	-2
632.653	1	-9
632.823	1	7
632.993	1	9
633.162	1	-8
633.332	1	11
633.501	1	1
633.671	1	1
633.841	1	11
634.010	1	-1
634.180	1	-1
634.349	1	4
634.519	1	1
634.689	1	3
634.858	1	5
635.028	1	-5
635.197	1	-7
635.367	1	-4
635.537	1	4
635.706	1	-4
635.876	1	-3
636.045	1	6
636.215	1	0
636.384	1	3
636.554	1	10
636.724	1	-7
636.893	1	0
637.063	1	3
637.232	1	-3
637.402	1	-3
637.572	1	-2
637.741	1	1
637.911	1	1
638.080	1	7
638.250	1	0
638.419	1	2
638.589	1	12
638.759	1	-6
638.928	1	-3
639.098	1	2
639.267	1	-1
639.437	1	-10
639.606	1	14
639.776	1	-4
639.946	1	-5
640.115	1	-4
640.285	1	1
640.454	1	13
640.624	1	7
640.793	1	7
640.963	1	-8
641.132	1	3
641.302	1	0
641.472	1	-9
641.641	1	-3
641.811	1	-5
641.980	1	-12
642.150	1	12
642.319	1	-3
642.489	1	-2
642.659	1	-10
642.828	1	-3
642.998	1	-3
643.167	1	9
643.337	1	0
643.506	1	-6
643.676	1	1
643.845	1	2
644.015	1	1
644.184	1	6
644.354	1	-11
644.524	1	-2
644.693	1	0
644.863	1	-2
645.032	1	-9
645.202	1	2
645.371	1	-13
645.541	1	-3
645.710	1	5
645.880	1	4
646.049	1	6
646.219	1	3
646.388	1	5
646.558	1	-6
646.728	1	-5
646.897	1	-1
647.067	1	4
647.236	1	2
647.406	1	0
647.575	1	7
647.745	1	-5
647.914	1	1
648.084	1	-4
648.253	1	6
648.423	1	5
648.592	1	-4
648.762	1	-3
648.931	1	0
649.101	1	5
649.270	1	14
649.440	1	10
649.610	1	6
649.779	1	-7
649.949	1	-1
650.118	1	-12
650.288	1	-6
650.457	1	-10
650.627	1	4
650.796	1	1
650.966	1	-4
651.135	1	1
651.305	1	-4
651.474	1	-3
651.644	1	-1
651.813	1	0
651.983	1	6
652.152	1	-3
652.322	1	5
652.491	1	4
652.661	1	7
652.830	1	5
653.000	1	2
653.169	1	3
653.339	1	4
653.508	1	-6
653.678	1	-6
653.847	1	4
654.017	1	-9
654.186	1	0
654.356	1	5
654.525	1	3
654.695	1	-7
654.864	1	4
655.034	1	8
655.203	1	-6
655.373	1	-5
655.542	1	3
655.712	1	-5
655.881	1	-2
656.051	1	6
656.220	1	0
656.390	1	-1
656.559	1	-13
656.729	1	3
656.898	1	2
657.068	1	-10
657.237	1	3
657.406	1	-3
657.576	1	-2
657.745	1	-14
657.915	1	3
658.084	1	9
658.254	1	-3
658.423	1	-12
658.593	1	-3
658.762	1	-7
658.932	1	-5
659.101	1	-10
659.271	1	1
659.440	1	9
659.610	1	-7
659.779	1	-7
659.949	1	-10
660.118	1	0
660.288	1	-1
660.457	1	-4
660.626	1	-15
660.796	1	-4
660.965	1	1
661.135	1	-1
661.304	1	5
661.474	1	-5
661.643	1	-3
661.813	1	3
661.982	1	-1
662.152	1	-3
662.321	1	5
662.491	1	-1
662.660	1	-2
662.829	1	-1
662.999	1	-6
663.168	1	-11
663.338	1	-1
663.507	1	-3
663.677	1	-10
663.846	1	1
664.016	1	-1
664.185	1	-8
664.354	1	-1
664.524	1	-14
664.693	1	-4
664.863	1	1
665.032	1	5
665.202	1	-9
665.371	1	7
665.541	1	3
665.710	1	2
665.879	1	2
666.049	1	-3
666.218	1	-10
666.388	1	-2
666.557	1	-6
666.727	1	-16
666.896	1	-4
667.065	1	4
667.235	1	-9
667.404	1	-13
667.574	1	-4
667.743	1	3
667.913	1	2
668.082	1	1
668.251	1	-1
668.421	1	-2
668.590	1	-6
668.760	1	-6
668.929	1	1
669.099	1	-6
669.268	1	0
669.437	1	10
669.607	1	-2
669.776	1	-4
669.946	1	5
670.115	1	1
670.285	1	-2
670.454	1	1
670.623	1	1
670.793	1	-6
670.962	1	-3
671.132	1	2
671.301	1	-10
671.470	1	-14
671.640	1	-19
671.809	1	-11
671.979	1	11
672.148	1	2
672.317	1	-8
672.487	1	-5
672.656	1	-2
672.826	1	-15
672.995	1	7
673.164	1	7
673.334	1	-5
673.503	1	1
673.673	1	10
673.842	1	2
674.011	1	1
674.181	1	-6
674.350	1	2
674.520	1	3
674.689	1	-3
674.858	1	-1
675.028	1	7
675.197	1	3
675.367	1	-2
675.536	1	7
675.705	1	-11
675.875	1	4
676.044	1	-6
676.214	1	-9
676.383	1	-2
676.552	1	-10
676.722	1	-6
676.891	1	-8
677.060	1	3
677.230	1	8
677.399	1	6
677.569	1	-18
677.738	1	0
677.907	1	-2
678.077	1	2
678.246	1	-8
678.416	1	3
678.585	1	-2
678.754	1	-4
678.924	1	-2
679.093	1	3
679.262	1	-2
679.432	1	-6
679.601	1	-12
679.771	1	-5
679.940	1	-1
680.109	1	-2
680.279	1	-9
680.448	1	-8
680.617	1	-7
680.787	1	7
680.956	1	-4
681.125	1	0
681.295	1	10
681.464	1	-2
681.634	1	1
681.803	1	-13
681.972	1	-7
682.142	1	4
682.311	1	-2
682.480	1	-11
682.650	1	-3
682.819	1	3
682.988	1	-7
683.158	1	-1
683.327	1	6
683.496	1	-4
683.666	1	-1
683.835	1	11
684.004	1	7
684.174	1	0
684.343	1	-4
684.512	1	4
684.682	1	-2
684.851	1	-1
685.021	1	1
685.190	1	-2
685.359	1	-18
685.529	1	2
685.698	1	3
685.867	1	2
686.037	1	5
686.206	1	0
686.375	1	-6
686.545	1	16
686.714	1	-1
686.883	1	0
687.053	1	2
687.222	1	-8
687.391	1	-5
687.561	1	3
687.730	1	-8
687.899	1	-3
688.069	1	-6
688.238	1	-4
688.407	1	8
688.577	1	-6
688.746	1	-1
