340.368	1	4
340.539	1	3
340.710	1	-10
340.881	1	4
341.052	1	1
341.223	1	13
341.394	1	3
341.565	1	0
341.737	1	13
341.908	1	11
342.079	1	-3
342.250	1	-3
342.421	1	-6
342.592	1	-7
342.763	1	2
342.934	1	7
343.105	1	17
343.276	1	-7
343.447	1	-2
343.618	1	8
343.789	1	8
343.960	1	-9
344.131	1	0
344.302	1	3
344.473	1	-3
344.644	1	-5
344.815	1	4
344.986	1	6
345.157	1	11
345.328	1	-4
345.499	1	14
345.670	1	-2
345.841	1	0
346.012	1	10
346.183	1	-1
346.354	1	6
346.526	1	12
346.697	1	2
346.868	1	1
347.039	1	-1
347.210	1	0
347.381	1	-2
347.552	1	-2
347.723	1	7
347.894	1	2
348.065	1	3
348.236	1	-4
348.407	1	3
348.578	1	0
348.749	1	12
348.920	1	6
349.091	1	10
349.262	1	4
349.433	1	-3
349.604	1	8
349.775	1	9
349.946	1	5
350.117	1	15
350.288	1	1
350.459	1	14
350.630	1	-4
350.801	1	6
350.972	1	6
351.143	1	-3
351.314	1	-8
351.485	1	-3
351.656	1	8
351.827	1	0
351.998	1	4
352.169	1	13
352.340	1	-3
352.511	1	-1
352.682	1	-6
352.853	1	-9
353.024	1	1
353.195	1	2
353.366	1	0
353.537	1	3
353.708	1	15
353.879	1	8
354.050	1	6
354.221	1	-1
354.392	1	3
354.563	1	9
354.734	1	-2
354.905	1	-2
355.076	1	7
355.247	1	-6
355.418	1	-9
355.589	1	4
355.760	1	8
355.931	1	-1
356.102	1	1
356.273	1	2
356.444	1	10
356.615	1	9
356.785	1	17
356.956	1	0
357.127	1	6
357.298	1	-3
357.469	1	4
357.640	1	17
357.811	1	14
357.982	1	-3
358.153	1	4
358.324	1	4
358.495	1	10
358.666	1	2
358.837	1	6
359.008	1	9
359.179	1	8
359.350	1	-2
359.521	1	5
359.692	1	6
359.863	1	-6
360.034	1	-3
360.205	1	-1
360.376	1	17
360.547	1	11
360.718	1	-6
360.889	1	6
361.060	1	11
361.231	1	10
361.401	1	13
361.572	1	1
361.743	1	10
361.914	1	-5
362.085	1	3
362.256	1	14
362.427	1	-3
362.598	1	3
362.769	1	8
362.940	1	9
363.111	1	17
363.282	1	5
363.453	1	6
363.624	1	4
363.795	1	-2
363.966	1	7
364.137	1	-1
364.308	1	-4
364.478	1	18
364.649	1	-2
364.820	1	8
364.991	1	3
365.162	1	-1
365.333	1	16
365.504	1	3
365.675	1	7
365.846	1	3
366.017	1	6
366.188	1	5
366.359	1	2
366.530	1	10
366.701	1	3
366.871	1	13
367.042	1	15
367.213	1	9
367.384	1	12
367.555	1	12
367.726	1	17
367.897	1	12
368.068	1	0
368.239	1	18
368.410	1	5
368.581	1	7
368.752	1	0
368.923	1	-2
369.093	1	11
369.264	1	10
369.435	1	0
369.606	1	-6
369.777	1	12
369.948	1	10
370.119	1	10
370.290	1	-7
370.461	1	5
370.632	1	9
370.803	1	2
370.973	1	25
371.144	1	5
371.315	1	5
371.486	1	9
371.657	1	16
371.828	1	5
371.999	1	6
372.170	1	8
372.341	1	21
372.512	1	5
372.682	1	4
372.853	1	2
373.024	1	4
373.195	1	2
373.366	1	-2
373.537	1	13
373.708	1	10
373.879	1	9
374.050	1	10
374.220	1	11
374.391	1	0
374.562	1	11
374.733	1	15
374.904	1	11
375.075	1	4
375.246	1	0
375.417	1	5
375.588	1	5
375.758	1	-2
375.929	1	10
376.100	1	16
376.271	1	-2
376.442	1	7
376.613	1	7
376.784	1	-3
376.955	1	-4
377.125	1	5
377.296	1	8
377.467	1	9
377.638	1	-2
377.809	1	10
377.980	1	9
378.151	1	-2
378.321	1	12
378.492	1	13
378.663	1	3
378.834	1	3
379.005	1	9
379.176	1	-1
379.347	1	3
379.518	1	-4
379.688	1	2
379.859	1	-6
380.030	1	3
380.201	1	-11
380.372	1	-1
380.543	1	11
380.714	1	7
380.884	1	3
381.055	1	4
381.226	1	4
381.397	1	6
381.568	1	5
381.739	1	10
381.910	1	10
382.080	1	-3
382.251	1	9
382.422	1	13
382.593	1	7
382.764	1	1
382.935	1	15
383.105	1	-3
383.276	1	6
383.447	1	14
383.618	1	14
383.789	1	4
383.960	1	0
384.130	1	0
384.301	1	9
384.472	1	3
384.643	1	15
384.814	1	5
384.985	1	6
385.156	1	17
385.326	1	15
385.497	1	22
385.668	1	6
385.839	1	17
386.010	1	11
386.180	1	17
386.351	1	1
386.522	1	14
386.693	1	7
386.864	1	0
387.035	1	13
387.205	1	5
387.376	1	16
387.547	1	1
387.718	1	20
387.889	1	18
388.060	1	0
388.230	1	15
388.401	1	15
388.572	1	15
388.743	1	14
388.914	1	23
389.084	1	15
389.255	1	11
389.426	1	4
389.597	1	0
389.768	1	15
389.939	1	8
390.109	1	6
390.280	1	18
390.451	1	26
390.622	1	15
390.793	1	19
390.963	1	8
391.134	1	8
391.305	1	6
391.476	1	13
391.647	1	15
391.817	1	5
391.988	1	9
392.159	1	17
392.330	1	12
392.501	1	13
392.671	1	11
392.842	1	20
393.013	1	13
393.184	1	15
393.355	1	10
393.525	1	6
393.696	1	6
393.867	1	3
394.038	1	5
394.208	1	24
394.379	1	6
394.550	1	7
394.721	1	10
394.892	1	8
395.062	1	-6
395.233	1	10
395.404	1	14
395.575	1	6
395.746	1	0
395.916	1	10
396.087	1	16
396.258	1	10
396.429	1	14
396.599	1	23
396.770	1	12
396.941	1	12
397.112	1	6
397.283	1	12
397.453	1	4
397.624	1	15
397.795	1	6
397.966	1	13
398.136	1	18
398.307	1	14
398.478	1	8
398.649	1	7
398.819	1	13
398.990	1	6
399.161	1	17
399.332	1	19
399.503	1	11
399.673	1	10
399.844	1	5
400.015	1	12
400.186	1	14
400.356	1	9
400.527	1	8
400.698	1	3
400.869	1	15
401.039	1	7
401.210	1	4
401.381	1	15
401.552	1	21
401.722	1	17
401.893	1	-1
402.064	1	3
402.235	1	9
402.405	1	3
402.576	1	18
402.747	1	10
402.918	1	1
403.088	1	6
403.259	1	2
403.430	1	3
403.601	1	1
403.771	1	2
403.942	1	11
404.113	1	19
404.284	1	2
404.454	1	14
404.625	1	19
404.796	1	12
404.967	1	5
405.137	1	9
405.308	1	9
405.479	1	16
405.649	1	7
405.820	1	15
405.991	1	10
406.162	1	5
406.332	1	-1
406.503	1	10
406.674	1	4
406.845	1	10
407.015	1	3
407.186	1	24
407.357	1	6
407.527	1	10
407.698	1	2
407.869	1	6
408.040	1	-2
408.210	1	11
408.381	1	10
408.552	1	7
408.722	1	0
408.893	1	6
409.064	1	12
409.235	1	5
409.405	1	13
409.576	1	11
409.747	1	5
409.917	1	3
410.088	1	9
410.259	1	0
410.430	1	15
410.600	1	1
410.771	1	7
410.942	1	5
411.112	1	9
411.283	1	1
411.454	1	15
411.625	1	9
411.795	1	10
411.966	1	11
412.137	1	14
412.307	1	4
412.478	1	10
412.649	1	6
412.819	1	9
412.990	1	8
413.161	1	4
413.332	1	1
413.502	1	9
413.673	1	17
413.844	1	11
414.014	1	-2
414.185	1	12
414.356	1	1
414.526	1	12
414.697	1	11
414.868	1	15
415.038	1	2
415.209	1	2
415.380	1	-3
415.550	1	4
415.721	1	12
415.892	1	9
416.063	1	20
416.233	1	10
416.404	1	7
416.575	1	4
416.745	1	-6
416.916	1	5
417.087	1	2
417.257	1	8
417.428	1	-4
417.599	1	16
417.769	1	7
417.940	1	1
418.111	1	5
418.281	1	3
418.452	1	-2
418.623	1	6
418.793	1	9
418.964	1	7
419.135	1	16
419.305	1	3
419.476	1	7
419.647	1	13
419.817	1	6
419.988	1	6
420.159	1	-14
420.329	1	9
420.500	1	5
420.671	1	9
420.841	1	7
421.012	1	15
421.183	1	15
421.353	1	8
421.524	1	5
421.695	1	5
421.865	1	1
422.036	1	-3
422.206	1	4
422.377	1	10
422.548	1	-3
422.718	1	5
422.889	1	13
423.060	1	-1
423.230	1	11
423.401	1	15
423.572	1	10
423.742	1	7
423.913	1	9
424.084	1	20
424.254	1	5
424.425	1	10
424.595	1	-1
424.766	1	16
424.937	1	3
425.107	1	10
425.278	1	-4
425.449	1	10
425.619	1	1
425.790	1	1
425.961	1	1
426.131	1	7
426.302	1	0
426.472	1	3
426.643	1	3
426.814	1	13
426.984	1	3
427.155	1	11
427.326	1	6
427.496	1	12
427.667	1	1
427.837	1	7
428.008	1	12
428.179	1	-4
428.349	1	-11
428.520	1	-4
428.691	1	11
428.861	1	2
429.032	1	5
429.202	1	7
429.373	1	-9
429.544	1	0
429.714	1	19
429.885	1	4
430.055	1	-1
430.226	1	6
430.397	1	2
430.567	1	14
430.738	1	6
430.909	1	-5
431.079	1	10
431.250	1	-4
431.420	1	4
431.591	1	1
431.762	1	9
431.932	1	9
432.103	1	3
432.273	1	-1
432.444	1	17
432.615	1	6
432.785	1	5
432.956	1	1
433.126	1	11
433.297	1	9
433.468	1	4
433.638	1	-3
433.809	1	9
433.979	1	-2
434.150	1	-5
434.320	1	12
434.491	1	13
434.662	1	6
434.832	1	-6
435.003	1	7
435.173	1	3
435.344	1	4
435.515	1	5
435.685	1	13
435.856	1	9
436.026	1	9
436.197	1	4
436.368	1	-2
436.538	1	11
436.709	1	-7
436.879	1	5
437.050	1	9
437.220	1	3
437.391	1	7
437.562	1	13
437.732	1	4
437.903	1	0
438.073	1	2
438.244	1	0
438.414	1	-2
438.585	1	12
438.756	1	7
438.926	1	1
439.097	1	11
439.267	1	13
439.438	1	2
439.608	1	11
439.779	1	-5
439.949	1	3
440.120	1	3
440.291	1	-4
440.461	1	-2
440.632	1	11
440.802	1	10
440.973	1	12
441.143	1	4
441.314	1	8
441.485	1	1
441.655	1	4
441.826	1	-6
441.996	1	7
442.167	1	3
442.337	1	6
442.508	1	6
442.678	1	-3
442.849	1	11
443.019	1	4
443.190	1	-1
443.361	1	9
443.531	1	6
443.702	1	2
443.872	1	1
444.043	1	5
444.213	1	-2
444.384	1	5
444.554	1	-4
444.725	1	-1
444.895	1	2
445.066	1	-12
445.237	1	1
445.407	1	2
445.578	1	13
445.748	1	-3
445.919	1	6
446.089	1	15
446.260	1	2
446.430	1	-7
446.601	1	5
446.771	1	-3
446.942	1	12
447.112	1	6
447.283	1	5
447.453	1	-1
447.624	1	10
447.794	1	-3
447.965	1	0
448.135	1	-1
448.306	1	4
448.477	1	-5
448.647	1	20
448.818	1	10
448.988	1	-10
449.159	1	3
449.329	1	13
449.500	1	16
449.670	1	-2
449.841	1	1
450.011	1	5
450.182	1	-5
450.352	1	16
450.523	1	-1
450.693	1	16
450.864	1	2
451.034	1	9
451.205	1	0
451.375	1	7
451.546	1	1
451.716	1	4
451.887	1	-4
452.057	1	11
452.228	1	-7
452.398	1	14
452.569	1	-1
452.739	1	1
452.910	1	2
453.080	1	11
453.251	1	7
453.421	1	3
453.592	1	-5
453.762	1	10
453.933	1	11
454.103	1	-3
454.274	1	-9
454.444	1	16
454.615	1	13
454.785	1	2
454.956	1	0
455.126	1	11
455.297	1	9
455.467	1	3
455.638	1	7
455.808	1	-1
455.979	1	3
456.149	1	2
456.320	1	9
456.490	1	8
456.661	1	0
456.831	1	15
457.001	1	-1
457.172	1	-1
457.342	1	6
457.513	1	10
457.683	1	7
457.854	1	5
458.024	1	-2
458.195	1	-1
458.365	1	2
458.536	1	9
458.706	1	6
458.877	1	9
459.047	1	-5
459.218	1	9
459.388	1	6
459.559	1	2
459.729	1	2
459.899	1	3
460.070	1	6
460.240	1	0
460.411	1	4
460.581	1	10
460.752	1	1
460.922	1	12
461.093	1	6
461.263	1	7
461.434	1	8
461.604	1	4
461.775	1	7
461.945	1	8
462.115	1	-6
462.286	1	11
462.456	1	6
462.627	1	10
462.797	1	1
462.968	1	-7
463.138	1	15
463.309	1	-1
463.479	1	11
463.649	1	4
463.820	1	5
463.990	1	2
464.161	1	9
464.331	1	15
464.502	1	6
464.672	1	5
464.843	1	5
465.013	1	-4
465.183	1	4
465.354	1	-1
465.524	1	10
465.695	1	13
465.865	1	5
466.036	1	11
466.206	1	7
466.376	1	-8
466.547	1	-2
466.717	1	-3
466.888	1	2
467.058	1	13
467.229	1	8
467.399	1	7
467.569	1	-1
467.740	1	-3
467.910	1	-1
468.081	1	2
468.251	1	0
468.422	1	9
468.592	1	5
468.762	1	-11
468.933	1	8
469.103	1	-2
469.274	1	6
469.444	1	10
469.614	1	-2
469.785	1	11
469.955	1	5
470.126	1	6
470.296	1	-2
470.467	1	-5
470.637	1	14
470.807	1	-6
470.978	1	-3
471.148	1	4
471.319	1	16
471.489	1	-1
471.659	1	10
471.830	1	14
472.000	1	8
472.171	1	11
472.341	1	3
472.511	1	6
472.682	1	11
472.852	1	-5
473.023	1	-1
473.193	1	-2
473.363	1	4
473.534	1	8
473.704	1	6
473.875	1	6
474.045	1	7
474.215	1	-3
474.386	1	13
474.556	1	-17
474.727	1	1
474.897	1	3
475.067	1	5
475.238	1	-8
475.408	1	8
475.578	1	7
475.749	1	-6
475.919	1	2
476.090	1	-4
476.260	1	-3
476.430	1	7
476.601	1	1
476.771	1	10
476.942	1	1
477.112	1	8
477.282	1	-6
477.453	1	2
477.623	1	4
477.793	1	13
477.964	1	13
478.134	1	5
478.305	1	0
478.475	1	-4
478.645	1	-14
478.816	1	-4
478.986	1	7
479.156	1	5
479.327	1	6
479.497	1	3
479.667	1	2
479.838	1	11
480.008	1	11
480.179	1	0
480.349	1	2
480.519	1	9
480.690	1	0
480.860	1	2
481.030	1	0
481.201	1	3
481.371	1	8
481.541	1	5
481.712	1	12
481.882	1	3
482.053	1	14
482.223	1	1
482.393	1	1
482.564	1	-6
482.734	1	0
482.904	1	8
483.075	1	1
483.245	1	-4
483.415	1	9
483.586	1	-3
483.756	1	16
483.926	1	3
484.097	1	-6
484.267	1	1
484.437	1	-6
484.608	1	0
484.778	1	12
484.948	1	-12
485.119	1	-4
485.289	1	9
485.459	1	9
485.630	1	-3
485.800	1	-3
485.970	1	3
486.141	1	-6
486.311	1	5
486.481	1	6
486.652	1	9
486.822	1	11
486.992	1	0
487.163	1	0
487.333	1	8
487.503	1	-5
487.674	1	2
487.844	1	-2
488.014	1	9
488.185	1	1
488.355	1	-3
488.525	1	-2
488.696	1	-6
488.866	1	13
489.036	1	2
489.207	1	11
489.377	1	-2
489.547	1	-1
489.718	1	5
489.888	1	-6
490.058	1	5
490.228	1	-3
490.399	1	12
490.569	1	8
490.739	1	11
490.910	1	-6
491.080	1	10
491.250	1	8
491.421	1	10
491.591	1	-6
491.761	1	9
491.932	1	10
492.102	1	-10
492.272	1	4
492.442	1	10
492.613	1	6
492.783	1	5
492.953	1	12
493.124	1	-4
493.294	1	6
493.464	1	4
493.635	1	5
493.805	1	11
493.975	1	3
494.145	1	2
494.316	1	17
494.486	1	0
494.656	1	-8
494.827	1	-1
494.997	1	7
495.167	1	7
495.337	1	9
495.508	1	-5
495.678	1	8
495.848	1	4
496.019	1	-11
496.189	1	-3
496.359	1	4
496.529	1	3
496.700	1	9
496.870	1	0
497.040	1	3
497.211	1	15
497.381	1	-12
497.551	1	13
497.721	1	1
497.892	1	10
498.062	1	2
498.232	1	3
498.403	1	12
498.573	1	-5
498.743	1	5
498.913	1	4
499.084	1	-16
499.254	1	10
499.424	1	3
499.594	1	11
499.765	1	5
499.935	1	-4
500.105	1	10
500.275	1	19
500.446	1	15
500.616	1	0
500.786	1	9
500.956	1	9
501.127	1	10
501.297	1	6
501.467	1	8
501.638	1	5
501.808	1	-1
501.978	1	9
502.148	1	13
502.319	1	13
502.489	1	5
502.659	1	4
502.829	1	6
503.000	1	10
503.170	1	1
503.340	1	9
503.510	1	4
503.681	1	2
503.851	1	-5
504.021	1	20
504.191	1	8
504.362	1	10
504.532	1	3
504.702	1	8
504.872	1	4
505.042	1	6
505.213	1	7
505.383	1	9
505.553	1	14
505.723	1	1
505.894	1	3
506.064	1	11
506.234	1	8
506.404	1	4
506.575	1	9
506.745	1	0
506.915	1	8
507.085	1	-2
507.256	1	0
507.426	1	9
507.596	1	10
507.766	1	7
507.936	1	7
508.107	1	14
508.277	1	1
508.447	1	-1
508.617	1	10
508.788	1	7
508.958	1	3
509.128	1	4
509.298	1	13
509.468	1	0
509.639	1	9
509.809	1	7
509.979	1	15
510.149	1	4
510.319	1	-4
510.490	1	12
510.660	1	5
510.830	1	4
511.000	1	12
511.171	1	9
511.341	1	-7
511.511	1	5
511.681	1	3
511.851	1	-1
512.022	1	2
512.192	1	13
512.362	1	6
512.532	1	6
512.702	1	-4
512.873	1	18
513.043	1	13
513.213	1	6
513.383	1	0
513.553	1	-6
513.724	1	11
513.894	1	-4
514.064	1	15
514.234	1	12
514.404	1	3
514.575	1	11
514.745	1	4
514.915	1	14
515.085	1	2
515.255	1	-6
515.425	1	-3
515.596	1	0
515.766	1	11
515.936	1	14
516.106	1	3
516.276	1	17
516.447	1	10
516.617	1	12
516.787	1	-6
516.957	1	12
517.127	1	-8
517.297	1	13
517.468	1	10
517.638	1	9
517.808	1	9
517.978	1	-3
518.148	1	9
518.319	1	1
518.489	1	2
518.659	1	5
518.829	1	-3
518.999	1	0
519.169	1	12
519.340	1	6
519.510	1	9
519.680	1	0
519.850	1	-3
520.020	1	0
520.190	1	8
520.361	1	4
520.531	1	11
520.701	1	14
520.871	1	4
521.041	1	13
521.211	1	17
521.382	1	0
521.552	1	7
521.722	1	11
521.892	1	-4
522.062	1	8
522.232	1	2
522.402	1	-3
522.573	1	6
522.743	1	25
522.913	1	8
523.083	1	12
523.253	1	2
523.423	1	4
523.593	1	-8
523.764	1	13
523.934	1	14
524.104	1	4
524.274	1	-5
524.444	1	4
524.614	1	7
524.784	1	13
524.955	1	1
525.125	1	9
525.295	1	4
525.465	1	16
525.635	1	13
525.805	1	2
525.975	1	-2
526.146	1	7
526.316	1	12
526.486	1	3
526.656	1	22
526.826	1	4
526.996	1	12
527.166	1	10
527.337	1	-6
527.507	1	3
527.677	1	17
527.847	1	0
528.017	1	3
528.187	1	7
528.357	1	4
528.527	1	7
528.698	1	0
528.868	1	2
529.038	1	11
529.208	1	6
529.378	1	11
529.548	1	14
529.718	1	5
529.888	1	8
530.058	1	1
530.229	1	-3
530.399	1	14
530.569	1	14
530.739	1	5
530.909	1	6
531.079	1	13
531.249	1	0
531.419	1	19
531.589	1	-4
531.760	1	11
531.930	1	4
532.100	1	9
532.270	1	15
532.440	1	5
532.610	1	10
532.780	1	11
532.950	1	14
533.120	1	-1
533.290	1	7
533.461	1	18
533.631	1	12
533.801	1	13
533.971	1	10
534.141	1	12
534.311	1	4
534.481	1	1
534.651	1	7
534.821	1	4
534.991	1	9
535.162	1	12
535.332	1	9
535.502	1	7
535.672	1	-4
535.842	1	13
536.012	1	10
536.182	1	8
536.352	1	12
536.522	1	10
536.692	1	9
536.862	1	7
537.032	1	16
537.203	1	18
537.373	1	-6
537.543	1	1
537.713	1	17
537.883	1	10
538.053	1	17
538.223	1	14
538.393	1	20
538.563	1	12
538.733	1	5
538.903	1	3
539.073	1	1
539.243	1	1
539.413	1	2
539.584	1	2
539.754	1	2
539.924	1	3
540.094	1	13
540.264	1	15
540.434	1	3
540.604	1	10
540.774	1	6
540.944	1	3
541.114	1	1
541.284	1	-3
541.454	1	7
541.624	1	7
541.794	1	6
541.964	1	18
542.134	1	11
542.305	1	3
542.475	1	-8
542.645	1	12
542.815	1	7
542.985	1	1
543.155	1	6
543.325	1	-2
543.495	1	7
543.665	1	17
543.835	1	14
544.005	1	4
544.175	1	14
544.345	1	0
544.515	1	8
544.685	1	-1
544.855	1	9
545.025	1	3
545.195	1	3
545.365	1	-1
545.535	1	10
545.705	1	12
545.875	1	9
546.045	1	15
546.216	1	12
546.386	1	9
546.556	1	-6
546.726	1	1
546.896	1	7
547.066	1	-10
547.236	1	0
547.406	1	13
547.576	1	3
547.746	1	10
547.916	1	9
548.086	1	14
548.256	1	5
548.426	1	2
548.596	1	6
548.766	1	15
548.936	1	2
549.106	1	14
549.276	1	9
549.446	1	10
549.616	1	19
549.786	1	6
549.956	1	9
550.126	1	6
550.296	1	1
550.466	1	-2
550.636	1	3
550.806	1	14
550.976	1	3
551.146	1	4
551.316	1	1
551.486	1	19
551.656	1	-5
551.826	1	7
551.996	1	7
552.166	1	1
552.336	1	11
552.506	1	0
552.676	1	6
552.846	1	11
553.016	1	15
553.186	1	11
553.356	1	7
553.526	1	1
553.696	1	19
553.866	1	5
554.036	1	7
554.206	1	8
554.376	1	4
554.546	1	0
554.716	1	2
554.886	1	8
555.056	1	-1
555.226	1	-1
555.396	1	0
555.566	1	8
555.736	1	7
555.906	1	1
556.076	1	12
556.246	1	6
556.416	1	4
556.586	1	6
556.756	1	9
556.926	1	15
557.096	1	0
557.266	1	7
557.436	1	8
557.606	1	-4
557.776	1	4
557.946	1	4
558.116	1	13
558.286	1	10
558.456	1	6
558.626	1	4
558.796	1	5
558.966	1	-1
559.136	1	6
559.306	1	5
559.476	1	-6
559.646	1	2
559.816	1	5
559.986	1	-3
560.155	1	13
560.325	1	-5
560.495	1	4
560.665	1	4
560.835	1	9
561.005	1	10
561.175	1	-4
561.345	1	1
561.515	1	-1
561.685	1	5
561.855	1	17
562.025	1	1
562.195	1	6
562.365	1	2
562.535	1	7
562.705	1	22
562.875	1	-2
563.045	1	15
563.215	1	4
563.385	1	-3
563.555	1	11
563.725	1	0
563.895	1	5
564.064	1	4
564.234	1	6
564.404	1	-5
564.574	1	-1
564.744	1	9
564.914	1	-3
565.084	1	3
565.254	1	6
565.424	1	3
565.594	1	5
565.764	1	9
565.934	1	9
566.104	1	3
566.274	1	7
566.444	1	13
566.614	1	13
566.783	1	12
566.953	1	1
567.123	1	19
567.293	1	0
567.463	1	-3
567.633	1	3
567.803	1	-1
567.973	1	4
568.143	1	-1
568.313	1	-4
568.483	1	-2
568.653	1	0
568.823	1	6
568.993	1	-2
569.162	1	12
569.332	1	-4
569.502	1	2
569.672	1	6
569.842	1	8
570.012	1	13
570.182	1	-1
570.352	1	5
570.522	1	22
570.692	1	11
570.862	1	-1
571.031	1	16
571.201	1	10
571.371	1	2
571.541	1	-3
571.711	1	16
571.881	1	12
572.051	1	-1
572.221	1	9
572.391	1	6
572.561	1	-8
572.731	1	0
572.900	1	16
573.070	1	-2
573.240	1	3
573.410	1	5
573.580	1	2
573.750	1	6
573.920	1	4
574.090	1	3
574.260	1	-3
574.430	1	9
574.599	1	8
574.769	1	0
574.939	1	5
575.109	1	4
575.279	1	6
575.449	1	12
575.619	1	9
575.789	1	9
575.959	1	0
576.128	1	0
576.298	1	3
576.468	1	-9
576.638	1	-6
576.808	1	-3
576.978	1	2
577.148	1	10
577.318	1	5
577.487	1	9
577.657	1	-8
577.827	1	2
577.997	1	-8
578.167	1	13
578.337	1	-3
578.507	1	-6
578.677	1	2
578.846	1	0
579.016	1	10
579.186	1	4
579.356	1	1
579.526	1	-1
579.696	1	6
579.866	1	8
580.036	1	3
580.205	1	-2
580.375	1	8
580.545	1	-2
580.715	1	6
580.885	1	0
581.055	1	12
581.225	1	-5
581.394	1	1
581.564	1	0
581.734	1	14
581.904	1	14
582.074	1	4
582.244	1	9
582.414	1	0
582.583	1	-1
582.753	1	5
582.923	1	6
583.093	1	0
583.263	1	6
583.433	1	-7
583.603	1	10
583.772	1	2
583.942	1	4
584.112	1	1
584.282	1	15
584.452	1	-10
584.622	1	5
584.791	1	11
584.961	1	4
585.131	1	-5
585.301	1	9
585.471	1	12
585.641	1	7
585.811	1	3
585.980	1	-2
586.150	1	14
586.320	1	-9
586.490	1	-5
586.660	1	1
586.830	1	-4
586.999	1	0
587.169	1	6
587.339	1	9
587.509	1	6
587.679	1	10
587.849	1	6
588.018	1	7
588.188	1	7
588.358	1	2
588.528	1	0
588.698	1	-8
588.867	1	11
589.037	1	8
589.207	1	-11
589.377	1	12
589.547	1	4
589.717	1	8
589.886	1	-6
590.056	1	3
590.226	1	4
590.396	1	-6
590.566	1	8
590.735	1	20
590.905	1	4
591.075	1	-3
591.245	1	7
591.415	1	2
591.585	1	-4
591.754	1	1
591.924	1	4
592.094	1	-2
592.264	1	-4
592.434	1	7
592.603	1	-1
592.773	1	-1
592.943	1	2
593.113	1	1
593.283	1	11
593.452	1	-11
593.622	1	-7
593.792	1	2
593.962	1	6
594.132	1	-6
594.301	1	5
594.471	1	4
594.641	1	-5
594.811	1	-1
594.981	1	-1
595.150	1	-1
595.320	1	4
595.490	1	-8
595.660	1	-1
595.829	1	2
595.999	1	0
596.169	1	8
596.339	1	13
596.509	1	12
596.678	1	0
596.848	1	9
597.018	1	4
597.188	1	-1
597.358	1	4
597.527	1	6
597.697	1	1
597.867	1	11
598.037	1	8
598.206	1	-2
598.376	1	14
598.546	1	-1
598.716	1	-4
598.885	1	-12
599.055	1	5
599.225	1	7
599.395	1	10
599.565	1	4
599.734	1	-4
599.904	1	-2
600.074	1	-6
600.244	1	9
600.413	1	2
600.583	1	-1
600.753	1	11
600.923	1	14
601.092	1	-2
601.262	1	12
601.432	1	5
601.602	1	9
601.771	1	5
601.941	1	4
602.111	1	-2
602.281	1	0
602.451	1	5
602.620	1	11
602.790	1	0
602.960	1	-2
603.130	1	4
603.299	1	6
603.469	1	2
603.639	1	1
603.809	1	6
603.978	1	6
604.148	1	5
604.318	1	7
604.487	1	3
604.657	1	4
604.827	1	-10
604.997	1	2
605.166	1	-3
605.336	1	9
605.506	1	3
605.676	1	1
605.845	1	-2
606.015	1	3
606.185	1	6
606.355	1	16
606.524	1	-2
606.694	1	8
606.864	1	-2
607.034	1	1
607.203	1	15
607.373	1	6
607.543	1	-11
607.712	1	12
607.882	1	-8
608.052	1	4
608.222	1	9
608.391	1	-4
608.561	1	14
608.731	1	-5
608.901	1	0
609.070	1	8
609.240	1	7
609.410	1	4
609.579	1	5
609.749	1	0
609.919	1	-13
610.089	1	1
610.258	1	9
610.428	1	0
610.598	1	5
610.767	1	-4
610.937	1	8
611.107	1	7
611.277	1	11
611.446	1	8
611.616	1	-5
611.786	1	8
611.955	1	3
612.125	1	3
612.295	1	-2
612.465	1	-1
612.634	1	2
612.804	1	16
612.974	1	6
613.143	1	-3
613.313	1	0
613.483	1	18
613.652	1	-1
613.822	1	0
613.992	1	3
614.162	1	7
614.331	1	3
614.501	1	3
614.671	1	8
614.840	1	0
615.010	1	3
615.180	1	1
615.349	1	3
615.519	1	17
615.689	1	3
615.858	1	7
616.028	1	1
616.198	1	15
616.368	1	4
616.537	1	-4
616.707	1	2
616.877	1	-1
617.046	1	0
617.216	1	0
617.386	1	-9
617.555	1	-6
617.725	1	-7
617.895	1	3
618.064	1	4
618.234	1	-1
618.404	1	6
618.573	1	4
618.743	1	1
618.913	1	-5
619.082	1	3
619.252	1	6
619.422	1	-8
619.591	1	4
619.761	1	4
619.931	1	3
620.100	1	6
620.270	1	-3
620.440	1	6
620.609	1	5
620.779	1	-3
620.949	1	6
621.118	1	0
621.288	1	8
621.458	1	4
621.627	1	-2
621.797	1	-4
621.967	1	-7
622.136	1	14
622.306	1	11
622.476	1	5
622.645	1	2
622.815	1	0
622.985	1	6
623.154	1	9
623.324	1	8
623.494	1	4
623.663	1	-4
623.833	1	-1
624.002	1	0
624.172	1	12
624.342	1	-18
624.511	1	1
624.681	1	-6
624.851	1	-4
625.020	1	4
625.190	1	-5
625.360	1	8
625.529	1	7
625.699	1	7
625.869	1	-1
626.038	1	12
626.208	1	1
626.377	1	7
626.547	1	-2
626.717	1	0
626.886	1	-5
627.056	1	-1
627.226	1	2
627.395	1	3
627.565	1	5
627.735	1	6
627.904	1	5
628.074	1	9
628.243	1	-1
628.413	1	2
628.583	1	6
628.752	1	13
628.922	1	-5
629.091	1	12
629.261	1	5
629.431	1	-6
629.600	1	10
629.770	1	5
629.940	1	6
630.109	1	-3
630.279	1	0
630.448	1	6
630.618	1	5
630.788	1	-1
630.957	1	-7
631.127	1	17
631.297	1	0
631.466	1	3
631.636	1	-3
631.805	1	3
631.975	1	4
632.145	1	-14
632.314	1	13
632.484	1	-6
632.653	1	-9
632.823	1	10
632.993	1	6
633.162	1	-1
633.332	1	10
633.501	1	2
633.671	1	6
633.841	1	3
634.010	1	2
634.180	1	8
634.349	1	10
634.519	1	5
634.689	1	13
634.858	1	3
635.028	1	3
635.197	1	-3
635.367	1	0
635.537	1	1
635.706	1	-4
635.876	1	-3
636.045	1	5
636.215	1	1
636.384	1	5
636.554	1	16
636.724	1	6
636.893	1	8
637.063	1	-6
637.232	1	6
637.402	1	4
637.572	1	5
637.741	1	16
637.911	1	4
638.080	1	7
638.250	1	9
638.419	1	5
638.589	1	13
638.759	1	6
638.928	1	-1
639.098	1	2
639.267	1	-1
639.437	1	0
639.606	1	14
639.776	1	4
639.946	1	9
640.115	1	-2
640.285	1	0
640.454	1	18
640.624	1	11
640.793	1	10
640.963	1	-2
641.132	1	14
641.302	1	5
641.472	1	-5
641.641	1	6
641.811	1	3
641.980	1	-4
642.150	1	-6
642.319	1	-5
642.489	1	-3
642.659	1	-1
642.828	1	7
642.998	1	6
643.167	1	11
643.337	1	0
643.506	1	-3
643.676	1	1
643.845	1	2
644.015	1	6
644.184	1	13
644.354	1	1
644.524	1	1
644.693	1	-2
644.863	1	-4
645.032	1	9
645.202	1	-3
645.371	1	-2
645.541	1	-3
645.710	1	-1
645.880	1	5
646.049	1	9
646.219	1	0
646.388	1	-5
646.558	1	4
646.728	1	3
646.897	1	0
647.067	1	5
647.236	1	0
647.406	1	3
647.575	1	10
647.745	1	7
647.914	1	-6
648.084	1	-2
648.253	1	5
648.423	1	3
648.592	1	-2
648.762	1	9
648.931	1	8
649.101	1	-2
649.270	1	8
649.440	1	6
649.610	1	20
649.779	1	4
649.949	1	-7
650.118	1	-2
650.288	1	-3
650.457	1	0
650.627	1	4
650.796	1	-3
650.966	1	1
651.135	1	3
651.305	1	-3
651.474	1	9
651.644	1	-1
651.813	1	-5
651.983	1	1
652.152	1	2
652.322	1	1
652.491	1	11
652.661	1	0
652.830	1	6
653.000	1	-2
653.169	1	1
653.339	1	13
653.508	1	2
653.678	1	-4
653.847	1	5
654.017	1	3
654.186	1	-1
654.356	1	8
654.525	1	1
654.695	1	5
654.864	1	9
655.034	1	4
655.203	1	-1
655.373	1	2
655.542	1	2
655.712	1	-5
655.881	1	11
656.051	1	9
656.220	1	9
656.390	1	8
656.559	1	-9
656.729	1	8
656.898	1	6
657.068	1	-5
657.237	1	0
657.406	1	9
657.576	1	-7
657.745	1	-6
657.915	1	14
658.084	1	9
658.254	1	10
658.423	1	-8
658.593	1	-3
658.762	1	-1
658.932	1	-1
659.101	1	7
659.271	1	5
659.440	1	13
659.610	1	8
659.779	1	8
659.949	1	0
660.118	1	9
660.288	1	8
660.457	1	-3
660.626	1	3
660.796	1	-8
660.965	1	-4
661.135	1	6
661.304	1	3
661.474	1	-4
661.643	1	3
661.813	1	7
661.982	1	3
662.152	1	5
662.321	1	2
662.491	1	11
662.660	1	9
662.829	1	-2
662.999	1	-5
663.168	1	-5
663.338	1	5
663.507	1	1
663.677	1	-8
663.846	1	12
664.016	1	9
664.185	1	-10
664.354	1	2
664.524	1	-9
664.693	1	4
664.863	1	4
665.032	1	1
665.202	1	3
665.371	1	10
665.541	1	3
665.710	1	7
665.879	1	7
666.049	1	3
666.218	1	-2
666.388	1	2
666.557	1	11
666.727	1	-23
666.896	1	-2
667.065	1	20
667.235	1	6
667.404	1	-1
667.574	1	-3
667.743	1	6
667.913	1	-4
668.082	1	0
668.251	1	8
668.421	1	1
668.590	1	1
668.760	1	-3
668.929	1	10
669.099	1	-3
669.268	1	2
669.437	1	12
669.607	1	-8
669.776	1	13
669.946	1	5
670.115	1	7
670.285	1	10
670.454	1	0
670.623	1	2
670.793	1	4
670.962	1	-1
671.132	1	-3
671.301	1	2
671.470	1	-1
671.640	1	-9
671.809	1	-6
671.979	1	9
672.148	1	7
672.317	1	-4
672.487	1	-6
672.656	1	9
672.826	1	-18
672.995	1	-2
673.164	1	9
673.334	1	3
673.503	1	5
673.673	1	21
673.842	1	3
674.011	1	1
674.181	1	-1
674.350	1	2
674.520	1	-7
674.689	1	6
674.858	1	0
675.028	1	-2
675.197	1	-7
675.367	1	2
675.536	1	9
675.705	1	-6
675.875	1	7
676.044	1	4
676.214	1	11
676.383	1	-1
676.552	1	-1
676.722	1	1
676.891	1	-18
677.060	1	12
677.230	1	9
677.399	1	0
677.569	1	-1
677.738	1	-9
677.907	1	-2
678.077	1	9
678.246	1	1
678.416	1	3
678.585	1	8
678.754	1	1
678.924	1	1
679.093	1	7
679.262	1	2
679.432	1	2
679.601	1	-7
679.771	1	8
679.940	1	-4
680.109	1	6
680.279	1	-6
680.448	1	6
680.617	1	-4
680.787	1	2
680.956	1	-3
681.125	1	15
681.295	1	-4
681.464	1	-5
681.634	1	7
681.803	1	-9
681.972	1	-16
682.142	1	9
682.311	1	-9
682.480	1	-2
682.650	1	-7
682.819	1	2
682.988	1	4
683.158	1	-8
683.327	1	2
683.496	1	-7
683.666	1	4
683.835	1	-4
684.004	1	14
684.174	1	3
684.343	1	-9
684.512	1	4
684.682	1	3
684.851	1	9
685.021	1	9
685.190	1	10
685.359	1	-5
685.529	1	-1
685.698	1	5
685.867	1	-6
686.037	1	-1
686.206	1	1
686.375	1	4
686.545	1	8
686.714	1	-3
686.883	1	-4
687.053	1	8
687.222	1	5
687.391	1	-2
687.561	1	7
687.730	1	-3
687.899	1	2
688.069	1	-7
688.238	1	2
688.407	1	17
688.577	1	3
688.746	1	1
