340.368	1	5
340.539	1	-1
340.710	1	-4
340.881	1	7
341.052	1	10
341.223	1	14
341.394	1	-3
341.565	1	-1
341.737	1	3
341.908	1	11
342.079	1	-9
342.250	1	-2
342.421	1	1
342.592	1	-5
342.763	1	13
342.934	1	6
343.105	1	4
343.276	1	-1
343.447	1	4
343.618	1	7
343.789	1	-2
343.960	1	-6
344.131	1	0
344.302	1	6
344.473	1	5
344.644	1	-1
344.815	1	7
344.986	1	1
345.157	1	14
345.328	1	-7
345.499	1	10
345.670	1	8
345.841	1	14
346.012	1	11
346.183	1	2
346.354	1	-2
346.526	1	-4
346.697	1	1
346.868	1	7
347.039	1	2
347.210	1	-3
347.381	1	5
347.552	1	5
347.723	1	1
347.894	1	8
348.065	1	7
348.236	1	5
348.407	1	-2
348.578	1	5
348.749	1	3
348.920	1	14
349.091	1	16
349.262	1	-7
349.433	1	-3
349.604	1	3
349.775	1	4
349.946	1	14
350.117	1	11
350.288	1	6
350.459	1	3
350.630	1	-6
350.801	1	0
350.972	1	1
351.143	1	-4
351.314	1	-3
351.485	1	5
351.656	1	-2
351.827	1	0
351.998	1	0
352.169	1	15
352.340	1	3
352.511	1	3
352.682	1	5
352.853	1	-14
353.024	1	5
353.195	1	-5
353.366	1	-1
353.537	1	0
353.708	1	0
353.879	1	11
354.050	1	6
354.221	1	-5
354.392	1	12
354.563	1	17
354.734	1	8
354.905	1	12
355.076	1	3
355.247	1	-8
355.418	1	-8
355.589	1	1
355.760	1	1
355.931	1	-9
356.102	1	-2
356.273	1	11
356.444	1	11
356.615	1	7
356.785	1	14
356.956	1	4
357.127	1	8
357.298	1	8
357.469	1	4
357.640	1	13
357.811	1	21
357.982	1	-8
358.153	1	7
358.324	1	4
358.495	1	3
358.666	1	10
358.837	1	-2
359.008	1	-6
359.179	1	11
359.350	1	3
359.521	1	14
359.692	1	12
359.863	1	0
360.034	1	-7
360.205	1	-3
360.376	1	4
360.547	1	-2
360.718	1	-1
360.889	1	-1
361.060	1	5
361.231	1	4
361.401	1	14
361.572	1	-7
361.743	1	11
361.914	1	12
362.085	1	-5
362.256	1	8
362.427	1	3
362.598	1	5
362.769	1	14
362.940	1	10
363.111	1	6
363.282	1	8
363.453	1	4
363.624	1	-2
363.795	1	8
363.966	1	9
364.137	1	5
364.308	1	-1
364.478	1	4
364.649	1	15
364.820	1	13
364.991	1	14
365.162	1	1
365.333	1	19
365.504	1	2
365.675	1	2
365.846	1	3
366.017	1	8
366.188	1	4
366.359	1	6
366.530	1	16
366.701	1	2
366.871	1	17
367.042	1	17
367.213	1	13
367.384	1	19
367.555	1	9
367.726	1	8
367.897	1	7
368.068	1	5
368.239	1	15
368.410	1	15
368.581	1	12
368.752	1	4
368.923	1	5
369.093	1	9
369.264	1	11
369.435	1	6
369.606	1	13
369.777	1	10
369.948	1	9
370.119	1	8
370.290	1	6
370.461	1	8
370.632	1	7
370.803	1	7
370.973	1	15
371.144	1	10
371.315	1	0
371.486	1	16
371.657	1	13
371.828	1	9
371.999	1	7
372.170	1	14
372.341	1	8
372.512	1	-1
372.682	1	7
372.853	1	9
373.024	1	6
373.195	1	-3
373.366	1	3
373.537	1	12
373.708	1	-2
373.879	1	27
374.050	1	4
374.220	1	5
374.391	1	10
374.562	1	5
374.733	1	18
374.904	1	7
375.075	1	18
375.246	1	8
375.417	1	6
375.588	1	6
375.758	1	2
375.929	1	4
376.100	1	8
376.271	1	0
376.442	1	5
376.613	1	1
376.784	1	11
376.955	1	-1
377.125	1	4
377.296	1	5
377.467	1	2
377.638	1	0
377.809	1	7
377.980	1	6
378.151	1	-2
378.321	1	4
378.492	1	13
378.663	1	-3
378.834	1	5
379.005	1	10
379.176	1	-1
379.347	1	12
379.518	1	-4
379.688	1	-1
379.859	1	1
380.030	1	-8
380.201	1	2
380.372	1	9
380.543	1	9
380.714	1	14
380.884	1	-7
381.055	1	-3
381.226	1	-1
381.397	1	3
381.568	1	4
381.739	1	7
381.910	1	3
382.080	1	-2
382.251	1	12
382.422	1	17
382.593	1	8
382.764	1	3
382.935	1	9
383.105	1	11
383.276	1	7
383.447	1	13
383.618	1	16
383.789	1	16
383.960	1	8
384.130	1	4
384.301	1	11
384.472	1	10
384.643	1	16
384.814	1	15
384.985	1	11
385.156	1	11
385.326	1	9
385.497	1	12
385.668	1	8
385.839	1	8
386.010	1	26
386.180	1	13
386.351	1	10
386.522	1	12
386.693	1	4
386.864	1	12
387.035	1	5
387.205	1	10
387.376	1	16
387.547	1	2
387.718	1	19
387.889	1	26
388.060	1	9
388.230	1	15
388.401	1	19
388.572	1	7
388.743	1	23
388.914	1	19
389.084	1	21
389.255	1	18
389.426	1	15
389.597	1	2
389.768	1	18
389.939	1	22
390.109	1	7
390.280	1	11
390.451	1	22
390.622	1	9
390.793	1	11
390.963	1	18
391.134	1	14
391.305	1	9
391.476	1	15
391.647	1	9
391.817	1	11
391.988	1	4
392.159	1	11
392.330	1	16
392.501	1	10
392.671	1	17
392.842	1	18
393.013	1	12
393.184	1	21
393.355	1	22
393.525	1	16
393.696	1	12
393.867	1	3
394.038	1	4
394.208	1	7
394.379	1	-1
394.550	1	17
394.721	1	10
394.892	1	11
395.062	1	2
395.233	1	11
395.404	1	23
395.575	1	5
395.746	1	7
395.916	1	12
396.087	1	8
396.258	1	5
396.429	1	16
396.599	1	15
396.770	1	14
396.941	1	21
397.112	1	10
397.283	1	6
397.453	1	8
397.624	1	10
397.795	1	9
397.966	1	15
398.136	1	12
398.307	1	14
398.478	1	7
398.649	1	14
398.819	1	23
398.990	1	23
399.161	1	13
399.332	1	18
399.503	1	1
399.673	1	16
399.844	1	-4
400.015	1	13
400.186	1	16
400.356	1	4
400.527	1	6
400.698	1	16
400.869	1	21
401.039	1	13
401.210	1	2
401.381	1	7
401.552	1	20
401.722	1	10
401.893	1	19
402.064	1	16
402.235	1	21
402.405	1	2
402.576	1	18
402.747	1	6
402.918	1	2
403.088	1	12
403.259	1	3
403.430	1	2
403.601	1	6
403.771	1	9
403.942	1	23
404.113	1	18
404.284	1	8
404.454	1	12
404.625	1	4
404.796	1	6
404.967	1	11
405.137	1	11
405.308	1	9
405.479	1	15
405.649	1	13
405.820	1	1
405.991	1	18
406.162	1	-2
406.332	1	9
406.503	1	4
406.674	1	14
406.845	1	16
407.015	1	0
407.186	1	16
407.357	1	13
407.527	1	14
407.698	1	6
407.869	1	3
408.040	1	7
408.210	1	7
408.381	1	9
408.552	1	13
408.722	1	9
408.893	1	15
409.064	1	-1
409.235	1	6
409.405	1	4
409.576	1	11
409.747	1	2
409.917	1	16
410.088	1	7
410.259	1	8
410.430	1	19
410.600	1	13
410.771	1	9
410.942	1	5
411.112	1	9
411.283	1	3
411.454	1	10
411.625	1	9
411.795	1	8
411.966	1	19
412.137	1	12
412.307	1	6
412.478	1	15
412.649	1	12
412.819	1	3
412.990	1	10
413.161	1	12
413.332	1	4
413.502	1	3
413.673	1	11
413.844	1	-1
414.014	1	-2
414.185	1	9
414.356	1	15
414.526	1	10
414.697	1	15
414.868	1	15
415.038	1	4
415.209	1	6
415.380	1	-1
415.550	1	8
415.721	1	11
415.892	1	0
416.063	1	14
416.233	1	3
416.404	1	11
416.575	1	3
416.745	1	5
416.916	1	10
417.087	1	6
417.257	1	9
417.428	1	5
417.599	1	10
417.769	1	8
417.940	1	-1
418.111	1	4
418.281	1	9
418.452	1	6
418.623	1	2
418.793	1	7
418.964	1	2
419.135	1	8
419.305	1	8
419.476	1	15
419.647	1	16
419.817	1	14
419.988	1	-2
420.159	1	-4
420.329	1	7
420.500	1	8
420.671	1	7
420.841	1	7
421.012	1	23
421.183	1	15
421.353	1	13
421.524	1	0
421.695	1	4
421.865	1	8
422.036	1	1
422.206	1	1
422.377	1	17
422.548	1	6
422.718	1	2
422.889	1	5
423.060	1	-2
423.230	1	17
423.401	1	18
423.572	1	0
423.742	1	8
423.913	1	22
424.084	1	8
424.254	1	10
424.425	1	3
424.595	1	1
424.766	1	8
424.937	1	-2
425.107	1	6
425.278	1	-1
425.449	1	11
425.619	1	9
425.790	1	-1
425.961	1	19
426.131	1	9
426.302	1	0
426.472	1	-2
426.643	1	4
426.814	1	10
426.984	1	9
427.155	1	7
427.326	1	18
427.496	1	17
427.667	1	13
427.837	1	0
428.008	1	-3
428.179	1	-2
428.349	1	5
428.520	1	2
428.691	1	2
428.861	1	6
429.032	1	8
429.202	1	7
429.373	1	-5
429.544	1	7
429.714	1	11
429.885	1	9
430.055	1	-3
430.226	1	6
430.397	1	3
430.567	1	17
430.738	1	6
430.909	1	-1
431.079	1	8
431.250	1	-5
431.420	1	8
431.591	1	9
431.762	1	5
431.932	1	10
432.103	1	11
432.273	1	-6
432.444	1	8
432.615	1	8
432.785	1	2
432.956	1	0
433.126	1	4
433.297	1	14
433.468	1	12
433.638	1	5
433.809	1	12
433.979	1	6
434.150	1	-3
434.320	1	3
434.491	1	17
434.662	1	1
434.832	1	-1
435.003	1	13
435.173	1	0
435.344	1	13
435.515	1	7
435.685	1	3
435.856	1	-2
436.026	1	2
436.197	1	6
436.368	1	2
436.538	1	6
436.709	1	5
436.879	1	8
437.050	1	13
437.220	1	7
437.391	1	6
437.562	1	18
437.732	1	5
437.903	1	11
438.073	1	14
438.244	1	-8
438.414	1	6
438.585	1	1
438.756	1	6
438.926	1	6
439.097	1	13
439.267	1	16
439.438	1	11
439.608	1	7
439.779	1	4
439.949	1	2
440.120	1	8
440.291	1	2
440.461	1	-2
440.632	1	5
440.802	1	5
440.973	1	17
441.143	1	11
441.314	1	8
441.485	1	-1
441.655	1	18
441.826	1	-2
441.996	1	-3
442.167	1	8
442.337	1	4
442.508	1	-3
442.678	1	2
442.849	1	10
443.019	1	6
443.190	1	-4
443.361	1	8
443.531	1	7
443.702	1	4
443.872	1	5
444.043	1	4
444.213	1	-2
444.384	1	3
444.554	1	4
444.725	1	6
444.895	1	-3
445.066	1	1
445.237	1	1
445.407	1	5
445.578	1	12
445.748	1	0
445.919	1	-3
446.089	1	14
446.260	1	9
446.430	1	-14
446.601	1	2
446.771	1	3
446.942	1	4
447.112	1	4
447.283	1	7
447.453	1	3
447.624	1	6
447.794	1	-3
447.965	1	-4
448.135	1	1
448.306	1	5
448.477	1	8
448.647	1	6
448.818	1	15
448.988	1	-8
449.159	1	-11
449.329	1	-2
449.500	1	7
449.670	1	13
449.841	1	5
450.011	1	5
450.182	1	-3
450.352	1	7
450.523	1	1
450.693	1	0
450.864	1	2
451.034	1	8
451.205	1	2
451.375	1	15
451.546	1	6
451.716	1	3
451.887	1	-8
452.057	1	17
452.228	1	-2
452.398	1	4
452.569	1	9
452.739	1	3
452.910	1	5
453.080	1	12
453.251	1	5
453.421	1	6
453.592	1	10
453.762	1	2
453.933	1	15
454.103	1	16
454.274	1	-3
454.444	1	10
454.615	1	4
454.785	1	-2
454.956	1	3
455.126	1	-3
455.297	1	6
455.467	1	4
455.638	1	2
455.808	1	7
455.979	1	3
456.149	1	-4
456.320	1	1
456.490	1	0
456.661	1	-1
456.831	1	13
457.001	1	2
457.172	1	6
457.342	1	12
457.513	1	6
457.683	1	12
457.854	1	-4
458.024	1	2
458.195	1	3
458.365	1	-1
458.536	1	2
458.706	1	-2
458.877	1	-2
459.047	1	-8
459.218	1	11
459.388	1	6
459.559	1	5
459.729	1	9
459.899	1	12
460.070	1	9
460.240	1	5
460.411	1	8
460.581	1	8
460.752	1	6
460.922	1	6
461.093	1	14
461.263	1	13
461.434	1	4
461.604	1	-1
461.775	1	-1
461.945	1	5
462.115	1	-5
462.286	1	5
462.456	1	2
462.627	1	2
462.797	1	2
462.968	1	-8
463.138	1	10
463.309	1	10
463.479	1	2
463.649	1	8
463.820	1	2
463.990	1	11
464.161	1	12
464.331	1	16
464.502	1	7
464.672	1	6
464.843	1	-4
465.013	1	2
465.183	1	0
465.354	1	10
465.524	1	10
465.695	1	10
465.865	1	5
466.036	1	7
466.206	1	2
466.376	1	2
466.547	1	6
466.717	1	4
466.888	1	7
467.058	1	6
467.229	1	15
467.399	1	3
467.569	1	11
467.740	1	7
467.910	1	-4
468.081	1	5
468.251	1	-1
468.422	1	1
468.592	1	12
468.762	1	-10
468.933	1	10
469.103	1	1
469.274	1	7
469.444	1	1
469.614	1	2
469.785	1	13
469.955	1	2
470.126	1	6
470.296	1	2
470.467	1	5
470.637	1	13
470.807	1	4
470.978	1	-5
471.148	1	2
471.319	1	6
471.489	1	5
471.659	1	13
471.830	1	16
472.000	1	9
472.171	1	5
472.341	1	6
472.511	1	12
472.682	1	-4
472.852	1	-3
473.023	1	-1
473.193	1	-7
473.363	1	6
473.534	1	-2
473.704	1	16
473.875	1	-1
474.045	1	-1
474.215	1	-2
474.386	1	11
474.556	1	0
474.727	1	2
474.897	1	11
475.067	1	5
475.238	1	7
475.408	1	10
475.578	1	7
475.749	1	-7
475.919	1	0
476.090	1	6
476.260	1	-4
476.430	1	6
476.601	1	5
476.771	1	8
476.942	1	8
477.112	1	9
477.282	1	-2
477.453	1	-2
477.623	1	13
477.793	1	6
477.964	1	7
478.134	1	5
478.305	1	10
478.475	1	6
478.645	1	2
478.816	1	6
478.986	1	-2
479.156	1	1
479.327	1	2
479.497	1	5
479.667	1	5
479.838	1	-3
480.008	1	7
480.179	1	9
480.349	1	0
480.519	1	0
480.690	1	-2
480.860	1	-5
481.030	1	0
481.201	1	1
481.371	1	5
481.541	1	9
481.712	1	1
481.882	1	1
482.053	1	12
482.223	1	-2
482.393	1	0
482.564	1	-9
482.734	1	10
482.904	1	2
483.075	1	7
483.245	1	5
483.415	1	0
483.586	1	-4
483.756	1	4
483.926	1	9
484.097	1	3
484.267	1	-2
484.437	1	-1
484.608	1	2
484.778	1	5
484.948	1	-5
485.119	1	10
485.289	1	6
485.459	1	4
485.630	1	-2
485.800	1	-8
485.970	1	-3
486.141	1	-1
486.311	1	15
486.481	1	4
486.652	1	12
486.822	1	7
486.992	1	0
487.163	1	-4
487.333	1	-1
487.503	1	-1
487.674	1	9
487.844	1	2
488.014	1	8
488.185	1	-5
488.355	1	-3
488.525	1	2
488.696	1	-3
488.866	1	12
489.036	1	7
489.207	1	21
489.377	1	11
489.547	1	1
489.718	1	0
489.888	1	-9
490.058	1	-3
490.228	1	-10
490.399	1	7
490.569	1	10
490.739	1	9
490.910	1	0
491.080	1	5
491.250	1	7
491.421	1	5
491.591	1	-9
491.761	1	9
491.932	1	3
492.102	1	-2
492.272	1	1
492.442	1	3
492.613	1	14
492.783	1	1
492.953	1	5
493.124	1	5
493.294	1	8
493.464	1	7
493.635	1	3
493.805	1	17
493.975	1	1
494.145	1	7
494.316	1	12
494.486	1	10
494.656	1	2
494.827	1	-3
494.997	1	2
495.167	1	16
495.337	1	18
495.508	1	-3
495.678	1	14
495.848	1	6
496.019	1	3
496.189	1	-5
496.359	1	5
496.529	1	2
496.700	1	0
496.870	1	0
497.040	1	11
497.211	1	5
497.381	1	-11
497.551	1	15
497.721	1	-4
497.892	1	17
498.062	1	-9
498.232	1	4
498.403	1	8
498.573	1	1
498.743	1	-3
498.913	1	5
499.084	1	-8
499.254	1	12
499.424	1	18
499.594	1	9
499.765	1	8
499.935	1	-5
500.105	1	-1
500.275	1	11
500.446	1	4
500.616	1	12
500.786	1	10
500.956	1	6
501.127	1	12
501.297	1	5
501.467	1	1
501.638	1	5
501.808	1	-2
501.978	1	15
502.148	1	9
502.319	1	-5
502.489	1	9
502.659	1	-5
502.829	1	6
503.000	1	12
503.170	1	2
503.340	1	8
503.510	1	11
503.681	1	4
503.851	1	-1
504.021	1	24
504.191	1	-5
504.362	1	20
504.532	1	3
504.702	1	13
504.872	1	-2
505.042	1	16
505.213	1	3
505.383	1	5
505.553	1	7
505.723	1	6
505.894	1	8
506.064	1	7
506.234	1	6
506.404	1	0
506.575	1	6
506.745	1	6
506.915	1	10
507.085	1	-7
507.256	1	5
507.426	1	10
507.596	1	0
507.766	1	10
507.936	1	14
508.107	1	4
508.277	1	1
508.447	1	0
508.617	1	8
508.788	1	1
508.958	1	8
509.128	1	7
509.298	1	23
509.468	1	11
509.639	1	3
509.809	1	12
509.979	1	6
510.149	1	5
510.319	1	-2
510.490	1	19
510.660	1	15
510.830	1	3
511.000	1	11
511.171	1	16
511.341	1	-3
511.511	1	6
511.681	1	4
511.851	1	-2
512.022	1	-7
512.192	1	10
512.362	1	10
512.532	1	4
512.702	1	-2
512.873	1	19
513.043	1	7
513.213	1	6
513.383	1	-2
513.553	1	-8
513.724	1	10
513.894	1	-1
514.064	1	5
514.234	1	15
514.404	1	12
514.575	1	18
514.745	1	3
514.915	1	12
515.085	1	8
515.255	1	6
515.425	1	0
515.596	1	6
515.766	1	4
515.936	1	15
516.106	1	3
516.276	1	20
516.447	1	2
516.617	1	15
516.787	1	-1
516.957	1	-2
517.127	1	10
517.297	1	16
517.468	1	3
517.638	1	13
517.808	1	5
517.978	1	0
518.148	1	3
518.319	1	2
518.489	1	5
518.659	1	5
518.829	1	-3
518.999	1	10
519.169	1	13
519.340	1	3
519.510	1	9
519.680	1	3
519.850	1	0
520.020	1	11
520.190	1	9
520.361	1	2
520.531	1	6
520.701	1	14
520.871	1	-2
521.041	1	14
521.211	1	9
521.382	1	10
521.552	1	9
521.722	1	9
521.892	1	4
522.062	1	5
522.232	1	-6
522.402	1	-1
522.573	1	8
522.743	1	9
522.913	1	12
523.083	1	6
523.253	1	11
523.423	1	1
523.593	1	-10
523.764	1	12
523.934	1	13
524.104	1	5
524.274	1	3
524.444	1	8
524.614	1	10
524.784	1	12
524.955	1	11
525.125	1	16
525.295	1	-4
525.465	1	14
525.635	1	14
525.805	1	6
525.975	1	1
526.146	1	16
526.316	1	5
526.486	1	8
526.656	1	14
526.826	1	16
526.996	1	16
527.166	1	11
527.337	1	4
527.507	1	-10
527.677	1	21
527.847	1	12
528.017	1	-1
528.187	1	5
528.357	1	18
528.527	1	5
528.698	1	2
528.868	1	-5
529.038	1	14
529.208	1	0
529.378	1	9
529.548	1	11
529.718	1	9
529.888	1	14
530.058	1	9
530.229	1	9
530.399	1	11
530.569	1	13
530.739	1	2
530.909	1	7
531.079	1	10
531.249	1	9
531.419	1	14
531.589	1	-2
531.760	1	14
531.930	1	9
532.100	1	15
532.270	1	21
532.440	1	3
532.610	1	6
532.780	1	6
532.950	1	14
533.120	1	3
533.290	1	2
533.461	1	17
533.631	1	8
533.801	1	13
533.971	1	14
534.141	1	13
534.311	1	-1
534.481	1	2
534.651	1	12
534.821	1	12
534.991	1	10
535.162	1	13
535.332	1	4
535.502	1	16
535.672	1	-1
535.842	1	14
536.012	1	16
536.182	1	2
536.352	1	7
536.522	1	13
536.692	1	9
536.862	1	12
537.032	1	10
537.203	1	14
537.373	1	2
537.543	1	10
537.713	1	19
537.883	1	12
538.053	1	9
538.223	1	19
538.393	1	22
538.563	1	8
538.733	1	2
538.903	1	12
539.073	1	13
539.243	1	10
539.413	1	11
539.584	1	6
539.754	1	2
539.924	1	1
540.094	1	12
540.264	1	13
540.434	1	2
540.604	1	11
540.774	1	7
540.944	1	4
541.114	1	1
541.284	1	7
541.454	1	16
541.624	1	6
541.794	1	2
541.964	1	5
542.134	1	7
542.305	1	-1
542.475	1	12
542.645	1	12
542.815	1	17
542.985	1	4
543.155	1	8
543.325	1	7
543.495	1	-2
543.665	1	8
543.835	1	6
544.005	1	7
544.175	1	3
544.345	1	-4
544.515	1	5
544.685	1	15
544.855	1	21
545.025	1	1
545.195	1	8
545.365	1	6
545.535	1	7
545.705	1	6
545.875	1	7
546.045	1	13
546.216	1	13
546.386	1	14
546.556	1	0
546.726	1	5
546.896	1	8
547.066	1	6
547.236	1	-2
547.406	1	14
547.576	1	14
547.746	1	12
547.916	1	9
548.086	1	12
548.256	1	10
548.426	1	-4
548.596	1	1
548.766	1	12
548.936	1	2
549.106	1	13
549.276	1	11
549.446	1	8
549.616	1	9
549.786	1	7
549.956	1	9
550.126	1	5
550.296	1	21
550.466	1	4
550.636	1	5
550.806	1	13
550.976	1	8
551.146	1	11
551.316	1	5
551.486	1	6
551.656	1	1
551.826	1	10
551.996	1	10
552.166	1	8
552.336	1	-2
552.506	1	4
552.676	1	8
552.846	1	6
553.016	1	1
553.186	1	8
553.356	1	3
553.526	1	13
553.696	1	10
553.866	1	13
554.036	1	6
554.206	1	0
554.376	1	4
554.546	1	3
554.716	1	-1
554.886	1	9
555.056	1	0
555.226	1	-1
555.396	1	3
555.566	1	12
555.736	1	9
555.906	1	10
556.076	1	9
556.246	1	-3
556.416	1	10
556.586	1	13
556.756	1	11
556.926	1	11
557.096	1	-1
557.266	1	11
557.436	1	17
557.606	1	6
557.776	1	6
557.946	1	19
558.116	1	8
558.286	1	7
558.456	1	0
558.626	1	9
558.796	1	8
558.966	1	2
559.136	1	9
559.306	1	4
559.476	1	13
559.646	1	2
559.816	1	9
559.986	1	0
560.155	1	6
560.325	1	-6
560.495	1	15
560.665	1	18
560.835	1	7
561.005	1	9
561.175	1	6
561.345	1	11
561.515	1	4
561.685	1	4
561.855	1	7
562.025	1	13
562.195	1	8
562.365	1	4
562.535	1	9
562.705	1	6
562.875	1	9
563.045	1	10
563.215	1	3
563.385	1	6
563.555	1	14
563.725	1	8
563.895	1	6
564.064	1	12
564.234	1	3
564.404	1	4
564.574	1	7
564.744	1	5
564.914	1	-9
565.084	1	2
565.254	1	9
565.424	1	5
565.594	1	-3
565.764	1	11
565.934	1	20
566.104	1	4
566.274	1	4
566.444	1	7
566.614	1	0
566.783	1	3
566.953	1	10
567.123	1	11
567.293	1	9
567.463	1	9
567.633	1	4
567.803	1	-4
567.973	1	-1
568.143	1	-3
568.313	1	7
568.483	1	-4
568.653	1	2
568.823	1	14
568.993	1	-1
569.162	1	5
569.332	1	2
569.502	1	10
569.672	1	6
569.842	1	12
570.012	1	2
570.182	1	1
570.352	1	7
570.522	1	5
570.692	1	2
570.862	1	19
571.031	1	7
571.201	1	11
571.371	1	3
571.541	1	-8
571.711	1	6
571.881	1	8
572.051	1	5
572.221	1	9
572.391	1	5
572.561	1	-6
572.731	1	3
572.900	1	18
573.070	1	9
573.240	1	3
573.410	1	8
573.580	1	11
573.750	1	4
573.920	1	6
574.090	1	7
574.260	1	3
574.430	1	-2
574.599	1	1
574.769	1	4
574.939	1	0
575.109	1	0
575.279	1	5
575.449	1	3
575.619	1	5
575.789	1	10
575.959	1	1
576.128	1	5
576.298	1	-6
576.468	1	3
576.638	1	4
576.808	1	-10
576.978	1	4
577.148	1	10
577.318	1	11
577.487	1	14
577.657	1	-15
577.827	1	9
577.997	1	2
578.167	1	9
578.337	1	5
578.507	1	-2
578.677	1	5
578.846	1	2
579.016	1	7
579.186	1	4
579.356	1	-2
579.526	1	1
579.696	1	1
579.866	1	-1
580.036	1	4
580.205	1	6
580.375	1	3
580.545	1	6
580.715	1	19
580.885	1	4
581.055	1	11
581.225	1	-8
581.394	1	-2
581.564	1	8
581.734	1	10
581.904	1	7
582.074	1	-1
582.244	1	8
582.414	1	11
582.583	1	-6
582.753	1	9
582.923	1	0
583.093	1	-4
583.263	1	17
583.433	1	-4
583.603	1	13
583.772	1	7
583.942	1	12
584.112	1	10
584.282	1	8
584.452	1	7
584.622	1	9
584.791	1	10
584.961	1	5
585.131	1	0
585.301	1	18
585.471	1	3
585.641	1	6
585.811	1	-1
585.980	1	-9
586.150	1	11
586.320	1	-4
586.490	1	-6
586.660	1	3
586.830	1	3
586.999	1	9
587.169	1	-7
587.339	1	6
587.509	1	7
587.679	1	1
587.849	1	4
588.018	1	6
588.188	1	-7
588.358	1	6
588.528	1	5
588.698	1	-1
588.867	1	10
589.037	1	7
589.207	1	-3
589.377	1	7
589.547	1	-1
589.717	1	8
589.886	1	0
590.056	1	11
590.226	1	7
590.396	1	-5
590.566	1	6
590.735	1	17
590.905	1	-1
591.075	1	1
591.245	1	3
591.415	1	0
591.585	1	0
591.754	1	9
591.924	1	7
592.094	1	7
592.264	1	2
592.434	1	11
592.603	1	-2
592.773	1	-4
592.943	1	0
593.113	1	-4
593.283	1	8
593.452	1	-6
593.622	1	9
593.792	1	7
593.962	1	9
594.132	1	5
594.301	1	22
594.471	1	7
594.641	1	-6
594.811	1	5
594.981	1	11
595.150	1	-1
595.320	1	9
595.490	1	-8
595.660	1	1
595.829	1	4
595.999	1	-3
596.169	1	15
596.339	1	10
596.509	1	5
596.678	1	3
596.848	1	11
597.018	1	14
597.188	1	12
597.358	1	5
597.527	1	-1
597.697	1	1
597.867	1	9
598.037	1	12
598.206	1	2
598.376	1	6
598.546	1	1
598.716	1	-1
598.885	1	-6
599.055	1	8
599.225	1	-1
599.395	1	2
599.565	1	1
599.734	1	4
599.904	1	-7
600.074	1	-5
600.244	1	5
600.413	1	5
600.583	1	-6
600.753	1	0
600.923	1	22
601.092	1	-18
601.262	1	11
601.432	1	-2
601.602	1	3
601.771	1	7
601.941	1	-4
602.111	1	-5
602.281	1	4
602.451	1	6
602.620	1	0
602.790	1	9
602.960	1	4
603.130	1	2
603.299	1	8
603.469	1	1
603.639	1	11
603.809	1	5
603.978	1	-3
604.148	1	8
604.318	1	-3
604.487	1	15
604.657	1	9
604.827	1	-10
604.997	1	0
605.166	1	3
605.336	1	3
605.506	1	0
605.676	1	-8
605.845	1	4
606.015	1	6
606.185	1	5
606.355	1	18
606.524	1	0
606.694	1	12
606.864	1	-1
607.034	1	-2
607.203	1	13
607.373	1	4
607.543	1	-1
607.712	1	9
607.882	1	-7
608.052	1	5
608.222	1	-5
608.391	1	-2
608.561	1	11
608.731	1	-6
608.901	1	1
609.070	1	5
609.240	1	2
609.410	1	7
609.579	1	5
609.749	1	6
609.919	1	7
610.089	1	0
610.258	1	9
610.428	1	-1
610.598	1	10
610.767	1	5
610.937	1	5
611.107	1	8
611.277	1	5
611.446	1	6
611.616	1	-1
611.786	1	14
611.955	1	4
612.125	1	2
612.295	1	8
612.465	1	-2
612.634	1	0
612.804	1	13
612.974	1	9
613.143	1	4
613.313	1	2
613.483	1	10
613.652	1	-9
613.822	1	-6
613.992	1	2
614.162	1	-1
614.331	1	-2
614.501	1	7
614.671	1	-1
614.840	1	11
615.010	1	9
615.180	1	6
615.349	1	7
615.519	1	10
615.689	1	-1
615.858	1	13
616.028	1	3
616.198	1	6
616.368	1	2
616.537	1	-3
616.707	1	-1
616.877	1	1
617.046	1	17
617.216	1	6
617.386	1	-9
617.555	1	-3
617.725	1	14
617.895	1	0
618.064	1	8
618.234	1	5
618.404	1	5
618.573	1	0
618.743	1	2
618.913	1	6
619.082	1	6
619.252	1	4
619.422	1	7
619.591	1	5
619.761	1	9
619.931	1	7
620.100	1	6
620.270	1	1
620.440	1	9
620.609	1	2
620.779	1	-3
620.949	1	0
621.118	1	-1
621.288	1	3
621.458	1	10
621.627	1	1
621.797	1	10
621.967	1	-1
622.136	1	9
622.306	1	12
622.476	1	8
622.645	1	10
622.815	1	13
622.985	1	5
623.154	1	1
623.324	1	12
623.494	1	10
623.663	1	-7
623.833	1	-4
624.002	1	-4
624.172	1	15
624.342	1	-6
624.511	1	-3
624.681	1	2
624.851	1	-3
625.020	1	10
625.190	1	6
625.360	1	-2
625.529	1	10
625.699	1	0
625.869	1	1
626.038	1	3
626.208	1	-2
626.377	1	10
626.547	1	4
626.717	1	5
626.886	1	-2
627.056	1	-4
627.226	1	-4
627.395	1	9
627.565	1	9
627.735	1	11
627.904	1	9
628.074	1	13
628.243	1	-1
628.413	1	-1
628.583	1	4
628.752	1	12
628.922	1	-3
629.091	1	1
629.261	1	11
629.431	1	-7
629.600	1	8
629.770	1	-4
629.940	1	3
630.109	1	2
630.279	1	2
630.448	1	-3
630.618	1	1
630.788	1	-1
630.957	1	-4
631.127	1	16
631.297	1	-1
631.466	1	14
631.636	1	3
631.805	1	-1
631.975	1	1
632.145	1	-10
632.314	1	9
632.484	1	-3
632.653	1	-3
632.823	1	8
632.993	1	5
633.162	1	11
633.332	1	0
633.501	1	2
633.671	1	-1
633.841	1	0
634.010	1	2
634.180	1	-1
634.349	1	4
634.519	1	3
634.689	1	11
634.858	1	14
635.028	1	8
635.197	1	0
635.367	1	-4
635.537	1	-3
635.706	1	-7
635.876	1	-2
636.045	1	4
636.215	1	-7
636.384	1	7
636.554	1	15
636.724	1	1
636.893	1	3
637.063	1	4
637.232	1	0
637.402	1	14
637.572	1	-5
637.741	1	14
637.911	1	6
638.080	1	-2
638.250	1	4
638.419	1	7
638.589	1	16
638.759	1	7
638.928	1	0
639.098	1	-2
639.267	1	10
639.437	1	-3
639.606	1	12
639.776	1	-1
639.946	1	12
640.115	1	1
640.285	1	3
640.454	1	11
640.624	1	9
640.793	1	5
640.963	1	-5
641.132	1	2
641.302	1	6
641.472	1	-7
641.641	1	-2
641.811	1	9
641.980	1	-2
642.150	1	-2
642.319	1	8
642.489	1	-1
642.659	1	-6
642.828	1	0
642.998	1	-12
643.167	1	11
643.337	1	1
643.506	1	0
643.676	1	2
643.845	1	-3
644.015	1	6
644.184	1	13
644.354	1	-4
644.524	1	-11
644.693	1	12
644.863	1	-4
645.032	1	-3
645.202	1	3
645.371	1	5
645.541	1	-11
645.710	1	6
645.880	1	-3
646.049	1	8
646.219	1	1
646.388	1	-6
646.558	1	3
646.728	1	6
646.897	1	4
647.067	1	8
647.236	1	6
647.406	1	2
647.575	1	3
647.745	1	8
647.914	1	-5
648.084	1	6
648.253	1	19
648.423	1	-8
648.592	1	5
648.762	1	-6
648.931	1	11
649.101	1	2
649.270	1	9
649.440	1	11
649.610	1	14
649.779	1	-8
649.949	1	3
650.118	1	-6
650.288	1	5
650.457	1	4
650.627	1	17
650.796	1	2
650.966	1	-1
651.135	1	11
651.305	1	6
651.474	1	1
651.644	1	1
651.813	1	6
651.983	1	7
652.152	1	12
652.322	1	5
652.491	1	4
652.661	1	3
652.830	1	2
653.000	1	6
653.169	1	4
653.339	1	5
653.508	1	-2
653.678	1	-2
653.847	1	4
654.017	1	17
654.186	1	-3
654.356	1	12
654.525	1	4
654.695	1	-2
654.864	1	1
655.034	1	3
655.203	1	1
655.373	1	-7
655.542	1	9
655.712	1	-1
655.881	1	13
656.051	1	0
656.220	1	11
656.390	1	1
656.559	1	-6
656.729	1	6
656.898	1	4
657.068	1	0
657.237	1	6
657.406	1	9
657.576	1	1
657.745	1	2
657.915	1	7
658.084	1	9
658.254	1	11
658.423	1	-14
658.593	1	-5
658.762	1	-7
658.932	1	-2
659.101	1	6
659.271	1	5
659.440	1	12
659.610	1	1
659.779	1	1
659.949	1	-5
660.118	1	-7
660.288	1	0
660.457	1	3
660.626	1	1
660.796	1	3
660.965	1	7
661.135	1	10
661.304	1	12
661.474	1	-5
661.643	1	2
661.813	1	3
661.982	1	6
662.152	1	5
662.321	1	8
662.491	1	7
662.660	1	8
662.829	1	-2
662.999	1	1
663.168	1	-13
663.338	1	1
663.507	1	-7
663.677	1	-9
663.846	1	6
664.016	1	7
664.185	1	3
664.354	1	8
664.524	1	0
664.693	1	-3
664.863	1	-1
665.032	1	3
665.202	1	-5
665.371	1	5
665.541	1	-1
665.710	1	6
665.879	1	6
666.049	1	0
666.218	1	-3
666.388	1	1
666.557	1	1
666.727	1	-25
666.896	1	-4
667.065	1	10
667.235	1	9
667.404	1	-8
667.574	1	5
667.743	1	5
667.913	1	3
668.082	1	8
668.251	1	6
668.421	1	3
668.590	1	-3
668.760	1	1
668.929	1	4
669.099	1	-8
669.268	1	1
669.437	1	0
669.607	1	0
669.776	1	-2
669.946	1	8
670.115	1	5
670.285	1	7
670.454	1	0
670.623	1	9
670.793	1	-1
670.962	1	1
671.132	1	0
671.301	1	0
671.470	1	0
671.640	1	-13
671.809	1	-3
671.979	1	16
672.148	1	9
672.317	1	-5
672.487	1	-1
672.656	1	10
672.826	1	-18
672.995	1	1
673.164	1	13
673.334	1	10
673.503	1	-1
673.673	1	20
673.842	1	10
674.011	1	8
674.181	1	-5
674.350	1	-8
674.520	1	3
674.689	1	-1
674.858	1	2
675.028	1	0
675.197	1	0
675.367	1	11
675.536	1	12
675.705	1	-10
675.875	1	1
676.044	1	1
676.214	1	0
676.383	1	-5
676.552	1	0
676.722	1	0
676.891	1	-4
677.060	1	-1
677.230	1	8
677.399	1	5
677.569	1	-8
677.738	1	-4
677.907	1	-8
678.077	1	2
678.246	1	-8
678.416	1	-5
678.585	1	5
678.754	1	-3
678.924	1	-4
679.093	1	0
679.262	1	-2
679.432	1	-6
679.601	1	-14
679.771	1	7
679.940	1	-3
680.109	1	10
680.279	1	-4
680.448	1	5
680.617	1	2
680.787	1	4
680.956	1	8
681.125	1	0
681.295	1	11
681.464	1	-4
681.634	1	13
681.803	1	1
681.972	1	-4
682.142	1	16
682.311	1	8
682.480	1	4
682.650	1	-4
682.819	1	2
682.988	1	4
683.158	1	-3
683.327	1	-2
683.496	1	-9
683.666	1	11
683.835	1	-1
684.004	1	13
684.174	1	1
684.343	1	-2
684.512	1	-9
684.682	1	10
684.851	1	-7
685.021	1	5
685.190	1	8
685.359	1	-3
685.529	1	-5
685.698	1	6
685.867	1	0
686.037	1	5
686.206	1	11
686.375	1	0
686.545	1	9
686.714	1	-5
686.883	1	-6
687.053	1	10
687.222	1	0
687.391	1	-7
687.561	1	0
687.730	1	5
687.899	1	-3
688.069	1	-2
688.238	1	8
688.407	1	8
688.577	1	-12
688.746	1	2
