340.368	1	-1
340.539	1	3
340.710	1	-13
340.881	1	10
341.052	1	2
341.223	1	15
341.394	1	11
341.565	1	-5
341.737	1	10
341.908	1	8
342.079	1	2
342.250	1	7
342.421	1	2
342.592	1	-3
342.763	1	6
342.934	1	9
343.105	1	11
343.276	1	-7
343.447	1	7
343.618	1	-2
343.789	1	7
343.960	1	5
344.131	1	1
344.302	1	0
344.473	1	-1
344.644	1	3
344.815	1	12
344.986	1	9
345.157	1	11
345.328	1	-5
345.499	1	1
345.670	1	5
345.841	1	6
346.012	1	9
346.183	1	-4
346.354	1	3
346.526	1	9
346.697	1	6
346.868	1	5
347.039	1	4
347.210	1	10
347.381	1	2
347.552	1	1
347.723	1	8
347.894	1	4
348.065	1	3
348.236	1	10
348.407	1	7
348.578	1	10
348.749	1	7
348.920	1	20
349.091	1	7
349.262	1	4
349.433	1	-12
349.604	1	24
349.775	1	16
349.946	1	8
350.117	1	12
350.288	1	-2
350.459	1	4
350.630	1	-1
350.801	1	5
350.972	1	0
351.143	1	-7
351.314	1	6
351.485	1	1
351.656	1	7
351.827	1	-3
351.998	1	3
352.169	1	13
352.340	1	4
352.511	1	-3
352.682	1	2
352.853	1	0
353.024	1	5
353.195	1	5
353.366	1	12
353.537	1	0
353.708	1	12
353.879	1	10
354.050	1	9
354.221	1	1
354.392	1	10
354.563	1	16
354.734	1	-4
354.905	1	3
355.076	1	0
355.247	1	-5
355.418	1	9
355.589	1	5
355.760	1	19
355.931	1	8
356.102	1	8
356.273	1	6
356.444	1	2
356.615	1	1
356.785	1	19
356.956	1	-2
357.127	1	1
357.298	1	0
357.469	1	21
357.640	1	1
357.811	1	21
357.982	1	-3
358.153	1	11
358.324	1	-7
358.495	1	17
358.666	1	2
358.837	1	10
359.008	1	11
359.179	1	6
359.350	1	12
359.521	1	3
359.692	1	14
359.863	1	6
360.034	1	9
360.205	1	4
360.376	1	14
360.547	1	-5
360.718	1	3
360.889	1	10
361.060	1	12
361.231	1	10
361.401	1	14
361.572	1	5
361.743	1	8
361.914	1	2
362.085	1	0
362.256	1	11
362.427	1	0
362.598	1	8
362.769	1	22
362.940	1	7
363.111	1	22
363.282	1	16
363.453	1	0
363.624	1	11
363.795	1	12
363.966	1	3
364.137	1	5
364.308	1	13
364.478	1	16
364.649	1	20
364.820	1	19
364.991	1	17
365.162	1	13
365.333	1	18
365.504	1	9
365.675	1	6
365.846	1	8
366.017	1	16
366.188	1	12
366.359	1	12
366.530	1	9
366.701	1	11
366.871	1	22
367.042	1	9
367.213	1	14
367.384	1	14
367.555	1	18
367.726	1	14
367.897	1	17
368.068	1	9
368.239	1	27
368.410	1	11
368.581	1	13
368.752	1	6
368.923	1	-2
369.093	1	16
369.264	1	14
369.435	1	4
369.606	1	17
369.777	1	8
369.948	1	24
370.119	1	15
370.290	1	16
370.461	1	8
370.632	1	3
370.803	1	2
370.973	1	22
371.144	1	16
371.315	1	5
371.486	1	16
371.657	1	13
371.828	1	11
371.999	1	6
372.170	1	16
372.341	1	21
372.512	1	4
372.682	1	5
372.853	1	12
373.024	1	6
373.195	1	-5
373.366	1	10
373.537	1	13
373.708	1	18
373.879	1	13
374.050	1	18
374.220	1	5
374.391	1	15
374.562	1	13
374.733	1	16
374.904	1	8
375.075	1	11
375.246	1	1
375.417	1	13
375.588	1	11
375.758	1	8
375.929	1	11
376.100	1	12
376.271	1	8
376.442	1	2
376.613	1	10
376.784	1	5
376.955	1	8
377.125	1	11
377.296	1	18
377.467	1	-6
377.638	1	10
377.809	1	18
377.980	1	8
378.151	1	2
378.321	1	6
378.492	1	9
378.663	1	-5
378.834	1	13
379.005	1	8
379.176	1	5
379.347	1	10
379.518	1	1
379.688	1	1
379.859	1	11
380.030	1	-5
380.201	1	4
380.372	1	0
380.543	1	7
380.714	1	10
380.884	1	3
381.055	1	-1
381.226	1	15
381.397	1	3
381.568	1	1
381.739	1	17
381.910	1	14
382.080	1	0
382.251	1	7
382.422	1	15
382.593	1	9
382.764	1	12
382.935	1	17
383.105	1	8
383.276	1	8
383.447	1	12
383.618	1	10
383.789	1	12
383.960	1	11
384.130	1	3
384.301	1	25
384.472	1	4
384.643	1	25
384.814	1	19
384.985	1	13
385.156	1	28
385.326	1	17
385.497	1	30
385.668	1	4
385.839	1	23
386.010	1	15
386.180	1	22
386.351	1	10
386.522	1	22
386.693	1	18
386.864	1	15
387.035	1	15
387.205	1	16
387.376	1	24
387.547	1	12
387.718	1	37
387.889	1	28
388.060	1	1
388.230	1	16
388.401	1	24
388.572	1	17
388.743	1	17
388.914	1	23
389.084	1	27
389.255	1	19
389.426	1	21
389.597	1	2
389.768	1	17
389.939	1	22
390.109	1	9
390.280	1	14
390.451	1	27
390.622	1	13
390.793	1	22
390.963	1	23
391.134	1	16
391.305	1	15
391.476	1	24
391.647	1	17
391.817	1	16
391.988	1	12
392.159	1	14
392.330	1	17
392.501	1	13
392.671	1	20
392.842	1	26
393.013	1	33
393.184	1	16
393.355	1	30
393.525	1	14
393.696	1	17
393.867	1	13
394.038	1	14
394.208	1	25
394.379	1	2
394.550	1	18
394.721	1	18
394.892	1	18
395.062	1	5
395.233	1	20
395.404	1	21
395.575	1	11
395.746	1	12
395.916	1	19
396.087	1	8
396.258	1	13
396.429	1	10
396.599	1	21
396.770	1	30
396.941	1	25
397.112	1	18
397.283	1	21
397.453	1	8
397.624	1	22
397.795	1	18
397.966	1	14
398.136	1	20
398.307	1	18
398.478	1	7
398.649	1	18
398.819	1	29
398.990	1	19
399.161	1	19
399.332	1	21
399.503	1	5
399.673	1	18
399.844	1	9
400.015	1	20
400.186	1	22
400.356	1	17
400.527	1	22
400.698	1	11
400.869	1	20
401.039	1	14
401.210	1	5
401.381	1	15
401.552	1	28
401.722	1	19
401.893	1	23
402.064	1	20
402.235	1	16
402.405	1	9
402.576	1	25
402.747	1	13
402.918	1	3
403.088	1	19
403.259	1	3
403.430	1	11
403.601	1	9
403.771	1	18
403.942	1	19
404.113	1	19
404.284	1	6
404.454	1	18
404.625	1	17
404.796	1	13
404.967	1	14
405.137	1	4
405.308	1	5
405.479	1	18
405.649	1	9
405.820	1	13
405.991	1	14
406.162	1	12
406.332	1	7
406.503	1	3
406.674	1	15
406.845	1	15
407.015	1	1
407.186	1	18
407.357	1	8
407.527	1	11
407.698	1	11
407.869	1	14
408.040	1	5
408.210	1	16
408.381	1	12
408.552	1	18
408.722	1	8
408.893	1	18
409.064	1	12
409.235	1	13
409.405	1	21
409.576	1	12
409.747	1	7
409.917	1	11
410.088	1	14
410.259	1	17
410.430	1	13
410.600	1	12
410.771	1	13
410.942	1	3
411.112	1	7
411.283	1	9
411.454	1	16
411.625	1	13
411.795	1	13
411.966	1	12
412.137	1	25
412.307	1	9
412.478	1	18
412.649	1	11
412.819	1	4
412.990	1	14
413.161	1	5
413.332	1	9
413.502	1	12
413.673	1	13
413.844	1	15
414.014	1	10
414.185	1	8
414.356	1	3
414.526	1	2
414.697	1	26
414.868	1	14
415.038	1	15
415.209	1	2
415.380	1	4
415.550	1	-1
415.721	1	13
415.892	1	11
416.063	1	22
416.233	1	6
416.404	1	13
416.575	1	13
416.745	1	4
416.916	1	4
417.087	1	8
417.257	1	16
417.428	1	4
417.599	1	16
417.769	1	7
417.940	1	11
418.111	1	7
418.281	1	13
418.452	1	3
418.623	1	3
418.793	1	14
418.964	1	12
419.135	1	16
419.305	1	16
419.476	1	13
419.647	1	21
419.817	1	21
419.988	1	1
420.159	1	-1
420.329	1	17
420.500	1	15
420.671	1	7
420.841	1	8
421.012	1	23
421.183	1	9
421.353	1	20
421.524	1	6
421.695	1	8
421.865	1	2
422.036	1	7
422.206	1	6
422.377	1	8
422.548	1	14
422.718	1	3
422.889	1	12
423.060	1	0
423.230	1	15
423.401	1	3
423.572	1	12
423.742	1	13
423.913	1	16
424.084	1	7
424.254	1	10
424.425	1	1
424.595	1	4
424.766	1	15
424.937	1	8
425.107	1	0
425.278	1	6
425.449	1	4
425.619	1	3
425.790	1	6
425.961	1	14
426.131	1	16
426.302	1	4
426.472	1	11
426.643	1	9
426.814	1	16
426.984	1	13
427.155	1	7
427.326	1	12
427.496	1	11
427.667	1	21
427.837	1	0
428.008	1	11
428.179	1	1
428.349	1	10
428.520	1	-7
428.691	1	5
428.861	1	3
429.032	1	2
429.202	1	17
429.373	1	-4
429.544	1	6
429.714	1	14
429.885	1	7
430.055	1	7
430.226	1	2
430.397	1	0
430.567	1	12
430.738	1	4
430.909	1	9
431.079	1	15
431.250	1	2
431.420	1	18
431.591	1	12
431.762	1	11
431.932	1	9
432.103	1	9
432.273	1	11
432.444	1	17
432.615	1	11
432.785	1	6
432.956	1	4
433.126	1	5
433.297	1	12
433.468	1	6
433.638	1	1
433.809	1	19
433.979	1	3
434.150	1	5
434.320	1	5
434.491	1	20
434.662	1	6
434.832	1	8
435.003	1	6
435.173	1	5
435.344	1	1
435.515	1	-1
435.685	1	18
435.856	1	-4
436.026	1	2
436.197	1	0
436.368	1	4
436.538	1	5
436.709	1	0
436.879	1	8
437.050	1	13
437.220	1	9
437.391	1	6
437.562	1	16
437.732	1	11
437.903	1	9
438.073	1	11
438.244	1	-1
438.414	1	13
438.585	1	16
438.756	1	17
438.926	1	6
439.097	1	13
439.267	1	19
439.438	1	14
439.608	1	2
439.779	1	11
439.949	1	-2
440.120	1	15
440.291	1	-3
440.461	1	6
440.632	1	8
440.802	1	10
440.973	1	13
441.143	1	12
441.314	1	4
441.485	1	-2
441.655	1	17
441.826	1	1
441.996	1	7
442.167	1	1
442.337	1	-6
442.508	1	3
442.678	1	1
442.849	1	13
443.019	1	4
443.190	1	-8
443.361	1	13
443.531	1	7
443.702	1	-2
443.872	1	-3
444.043	1	8
444.213	1	6
444.384	1	12
444.554	1	4
444.725	1	6
444.895	1	6
445.066	1	-2
445.237	1	4
445.407	1	6
445.578	1	8
445.748	1	0
445.919	1	2
446.089	1	9
446.260	1	8
446.430	1	5
446.601	1	-1
446.771	1	4
446.942	1	14
447.112	1	7
447.283	1	6
447.453	1	-1
447.624	1	13
447.794	1	-6
447.965	1	0
448.135	1	4
448.306	1	6
448.477	1	4
448.647	1	22
448.818	1	23
448.988	1	-6
449.159	1	-3
449.329	1	-3
449.500	1	17
449.670	1	6
449.841	1	4
450.011	1	6
450.182	1	-7
450.352	1	12
450.523	1	4
450.693	1	0
450.864	1	14
451.034	1	6
451.205	1	5
451.375	1	13
451.546	1	3
451.716	1	7
451.887	1	-3
452.057	1	8
452.228	1	6
452.398	1	4
452.569	1	4
452.739	1	10
452.910	1	10
453.080	1	13
453.251	1	4
453.421	1	5
453.592	1	4
453.762	1	5
453.933	1	18
454.103	1	10
454.274	1	1
454.444	1	13
454.615	1	29
454.785	1	-2
454.956	1	4
455.126	1	10
455.297	1	1
455.467	1	5
455.638	1	13
455.808	1	2
455.979	1	14
456.149	1	6
456.320	1	5
456.490	1	5
456.661	1	-4
456.831	1	19
457.001	1	-1
457.172	1	0
457.342	1	11
457.513	1	7
457.683	1	12
457.854	1	8
458.024	1	7
458.195	1	-2
458.365	1	5
458.536	1	5
458.706	1	4
458.877	1	-1
459.047	1	15
459.218	1	3
459.388	1	6
459.559	1	8
459.729	1	2
459.899	1	17
460.070	1	10
460.240	1	6
460.411	1	10
460.581	1	20
460.752	1	-2
460.922	1	1
461.093	1	7
461.263	1	23
461.434	1	16
461.604	1	8
461.775	1	10
461.945	1	16
462.115	1	-1
462.286	1	8
462.456	1	5
462.627	1	5
462.797	1	-8
462.968	1	0
463.138	1	14
463.309	1	-2
463.479	1	14
463.649	1	8
463.820	1	-3
463.990	1	11
464.161	1	8
464.331	1	8
464.502	1	7
464.672	1	16
464.843	1	12
465.013	1	-1
465.183	1	-2
465.354	1	2
465.524	1	12
465.695	1	11
465.865	1	0
466.036	1	8
466.206	1	10
466.376	1	0
466.547	1	17
466.717	1	-1
466.888	1	2
467.058	1	12
467.229	1	10
467.399	1	8
467.569	1	12
467.740	1	5
467.910	1	7
468.081	1	0
468.251	1	5
468.422	1	9
468.592	1	2
468.762	1	-9
468.933	1	19
469.103	1	-2
469.274	1	-4
469.444	1	2
469.614	1	9
469.785	1	13
469.955	1	5
470.126	1	4
470.296	1	4
470.467	1	3
470.637	1	10
470.807	1	8
470.978	1	2
471.148	1	-11
471.319	1	11
471.489	1	14
471.659	1	10
471.830	1	18
472.000	1	11
472.171	1	5
472.341	1	3
472.511	1	14
472.682	1	12
472.852	1	-5
473.023	1	-1
473.193	1	1
473.363	1	4
473.534	1	5
473.704	1	16
473.875	1	12
474.045	1	8
474.215	1	4
474.386	1	11
474.556	1	1
474.727	1	5
474.897	1	12
475.067	1	0
475.238	1	5
475.408	1	6
475.578	1	7
475.749	1	-5
475.919	1	16
476.090	1	4
476.260	1	3
476.430	1	13
476.601	1	4
476.771	1	11
476.942	1	7
477.112	1	1
477.282	1	-13
477.453	1	5
477.623	1	4
477.793	1	15
477.964	1	13
478.134	1	5
478.305	1	-1
478.475	1	9
478.645	1	-5
478.816	1	0
478.986	1	1
479.156	1	12
479.327	1	0
479.497	1	8
479.667	1	3
479.838	1	7
480.008	1	4
480.179	1	9
480.349	1	13
480.519	1	1
480.690	1	3
480.860	1	7
481.030	1	5
481.201	1	6
481.371	1	10
481.541	1	4
481.712	1	12
481.882	1	8
482.053	1	13
482.223	1	-8
482.393	1	-11
482.564	1	-5
482.734	1	9
482.904	1	6
483.075	1	21
483.245	1	9
483.415	1	13
483.586	1	5
483.756	1	18
483.926	1	4
484.097	1	1
484.267	1	2
484.437	1	-4
484.608	1	9
484.778	1	5
484.948	1	2
485.119	1	6
485.289	1	12
485.459	1	8
485.630	1	0
485.800	1	0
485.970	1	12
486.141	1	-5
486.311	1	12
486.481	1	17
486.652	1	13
486.822	1	10
486.992	1	-2
487.163	1	-8
487.333	1	-2
487.503	1	-8
487.674	1	5
487.844	1	8
488.014	1	10
488.185	1	6
488.355	1	-5
488.525	1	7
488.696	1	-6
488.866	1	15
489.036	1	1
489.207	1	13
489.377	1	6
489.547	1	-2
489.718	1	5
489.888	1	4
490.058	1	7
490.228	1	-2
490.399	1	10
490.569	1	6
490.739	1	11
490.910	1	1
491.080	1	-1
491.250	1	8
491.421	1	8
491.591	1	-9
491.761	1	7
491.932	1	5
492.102	1	-3
492.272	1	18
492.442	1	5
492.613	1	1
492.783	1	1
492.953	1	12
493.124	1	2
493.294	1	6
493.464	1	1
493.635	1	7
493.805	1	8
493.975	1	4
494.145	1	9
494.316	1	14
494.486	1	10
494.656	1	5
494.827	1	-5
494.997	1	2
495.167	1	10
495.337	1	13
495.508	1	-2
495.678	1	9
495.848	1	24
496.019	1	0
496.189	1	9
496.359	1	-3
496.529	1	0
496.700	1	14
496.870	1	5
497.040	1	13
497.211	1	13
497.381	1	-13
497.551	1	18
497.721	1	3
497.892	1	14
498.062	1	6
498.232	1	14
498.403	1	12
498.573	1	4
498.743	1	7
498.913	1	8
499.084	1	-9
499.254	1	4
499.424	1	20
499.594	1	-4
499.765	1	3
499.935	1	-4
500.105	1	8
500.275	1	18
500.446	1	1
500.616	1	7
500.786	1	7
500.956	1	11
501.127	1	16
501.297	1	7
501.467	1	17
501.638	1	9
501.808	1	-5
501.978	1	7
502.148	1	2
502.319	1	15
502.489	1	19
502.659	1	0
502.829	1	7
503.000	1	9
503.170	1	15
503.340	1	3
503.510	1	14
503.681	1	-3
503.851	1	-9
504.021	1	18
504.191	1	5
504.362	1	21
504.532	1	-2
504.702	1	8
504.872	1	-1
505.042	1	5
505.213	1	8
505.383	1	-1
505.553	1	28
505.723	1	12
505.894	1	5
506.064	1	16
506.234	1	18
506.404	1	4
506.575	1	8
506.745	1	10
506.915	1	10
507.085	1	1
507.256	1	8
507.426	1	13
507.596	1	12
507.766	1	1
507.936	1	15
508.107	1	15
508.277	1	8
508.447	1	6
508.617	1	13
508.788	1	10
508.958	1	20
509.128	1	9
509.298	1	18
509.468	1	16
509.639	1	16
509.809	1	15
509.979	1	4
510.149	1	4
510.319	1	9
510.490	1	3
510.660	1	12
510.830	1	2
511.000	1	18
511.171	1	11
511.341	1	8
511.511	1	14
511.681	1	9
511.851	1	3
512.022	1	2
512.192	1	11
512.362	1	6
512.532	1	11
512.702	1	2
512.873	1	17
513.043	1	7
513.213	1	9
513.383	1	2
513.553	1	4
513.724	1	17
513.894	1	-4
514.064	1	11
514.234	1	15
514.404	1	0
514.575	1	16
514.745	1	7
514.915	1	15
515.085	1	18
515.255	1	4
515.425	1	13
515.596	1	1
515.766	1	4
515.936	1	10
516.106	1	6
516.276	1	20
516.447	1	8
516.617	1	12
516.787	1	5
516.957	1	7
517.127	1	6
517.297	1	7
517.468	1	8
517.638	1	11
517.808	1	14
517.978	1	14
518.148	1	8
518.319	1	-2
518.489	1	9
518.659	1	7
518.829	1	-2
518.999	1	15
519.169	1	20
519.340	1	12
519.510	1	19
519.680	1	9
519.850	1	9
520.020	1	7
520.190	1	5
520.361	1	10
520.531	1	10
520.701	1	8
520.871	1	-2
521.041	1	12
521.211	1	10
521.382	1	12
521.552	1	15
521.722	1	16
521.892	1	2
522.062	1	10
522.232	1	6
522.402	1	0
522.573	1	16
522.743	1	21
522.913	1	14
523.083	1	10
523.253	1	13
523.423	1	13
523.593	1	3
523.764	1	22
523.934	1	14
524.104	1	6
524.274	1	0
524.444	1	18
524.614	1	11
524.784	1	19
524.955	1	14
525.125	1	20
525.295	1	8
525.465	1	8
525.635	1	26
525.805	1	3
525.975	1	9
526.146	1	14
526.316	1	5
526.486	1	18
526.656	1	32
526.826	1	19
526.996	1	19
527.166	1	13
527.337	1	16
527.507	1	-5
527.677	1	21
527.847	1	0
528.017	1	3
528.187	1	15
528.357	1	17
528.527	1	12
528.698	1	4
528.868	1	1
529.038	1	19
529.208	1	9
529.378	1	10
529.548	1	13
529.718	1	22
529.888	1	10
530.058	1	14
530.229	1	15
530.399	1	19
530.569	1	13
530.739	1	-3
530.909	1	13
531.079	1	12
531.249	1	5
531.419	1	20
531.589	1	12
531.760	1	20
531.930	1	11
532.100	1	19
532.270	1	13
532.440	1	0
532.610	1	5
532.780	1	8
532.950	1	13
533.120	1	12
533.290	1	13
533.461	1	25
533.631	1	17
533.801	1	19
533.971	1	17
534.141	1	27
534.311	1	14
534.481	1	13
534.651	1	20
534.821	1	22
534.991	1	29
535.162	1	20
535.332	1	14
535.502	1	4
535.672	1	11
535.842	1	13
536.012	1	14
536.182	1	17
536.352	1	15
536.522	1	11
536.692	1	11
536.862	1	24
537.032	1	10
537.203	1	18
537.373	1	3
537.543	1	13
537.713	1	19
537.883	1	9
538.053	1	18
538.223	1	16
538.393	1	21
538.563	1	12
538.733	1	6
538.903	1	12
539.073	1	19
539.243	1	5
539.413	1	13
539.584	1	16
539.754	1	11
539.924	1	14
540.094	1	11
540.264	1	13
540.434	1	8
540.604	1	15
540.774	1	14
540.944	1	4
541.114	1	11
541.284	1	3
541.454	1	15
541.624	1	4
541.794	1	16
541.964	1	23
542.134	1	15
542.305	1	3
542.475	1	9
542.645	1	3
542.815	1	4
542.985	1	10
543.155	1	19
543.325	1	7
543.495	1	7
543.665	1	14
543.835	1	11
544.005	1	13
544.175	1	13
544.345	1	1
544.515	1	11
544.685	1	15
544.855	1	15
545.025	1	4
545.195	1	19
545.365	1	9
545.535	1	7
545.705	1	3
545.875	1	9
546.045	1	21
546.216	1	18
546.386	1	20
546.556	1	-2
546.726	1	11
546.896	1	9
547.066	1	-7
547.236	1	-2
547.406	1	10
547.576	1	9
547.746	1	13
547.916	1	13
548.086	1	14
548.256	1	15
548.426	1	8
548.596	1	16
548.766	1	17
548.936	1	-1
549.106	1	8
549.276	1	11
549.446	1	6
549.616	1	15
549.786	1	21
549.956	1	10
550.126	1	6
550.296	1	14
550.466	1	10
550.636	1	9
550.806	1	9
550.976	1	6
551.146	1	8
551.316	1	10
551.486	1	16
551.656	1	5
551.826	1	17
551.996	1	19
552.166	1	13
552.336	1	10
552.506	1	7
552.676	1	4
552.846	1	10
553.016	1	6
553.186	1	7
553.356	1	8
553.526	1	7
553.696	1	19
553.866	1	11
554.036	1	15
554.206	1	12
554.376	1	1
554.546	1	-2
554.716	1	11
554.886	1	17
555.056	1	7
555.226	1	2
555.396	1	1
555.566	1	15
555.736	1	3
555.906	1	14
556.076	1	10
556.246	1	12
556.416	1	10
556.586	1	17
556.756	1	13
556.926	1	13
557.096	1	4
557.266	1	14
557.436	1	17
557.606	1	1
557.776	1	13
557.946	1	19
558.116	1	10
558.286	1	15
558.456	1	-4
558.626	1	12
558.796	1	9
558.966	1	20
559.136	1	17
559.306	1	6
559.476	1	-3
559.646	1	4
559.816	1	12
559.986	1	1
560.155	1	8
560.325	1	3
560.495	1	13
560.665	1	17
560.835	1	17
561.005	1	11
561.175	1	5
561.345	1	9
561.515	1	8
561.685	1	-5
561.855	1	15
562.025	1	9
562.195	1	14
562.365	1	11
562.535	1	15
562.705	1	11
562.875	1	9
563.045	1	19
563.215	1	7
563.385	1	5
563.555	1	18
563.725	1	8
563.895	1	8
564.064	1	18
564.234	1	12
564.404	1	6
564.574	1	3
564.744	1	8
564.914	1	-10
565.084	1	10
565.254	1	10
565.424	1	16
565.594	1	2
565.764	1	24
565.934	1	6
566.104	1	3
566.274	1	11
566.444	1	16
566.614	1	7
566.783	1	11
566.953	1	5
567.123	1	24
567.293	1	2
567.463	1	-1
567.633	1	0
567.803	1	9
567.973	1	6
568.143	1	9
568.313	1	7
568.483	1	-1
568.653	1	3
568.823	1	11
568.993	1	0
569.162	1	9
569.332	1	3
569.502	1	7
569.672	1	2
569.842	1	7
570.012	1	5
570.182	1	6
570.352	1	10
570.522	1	10
570.692	1	8
570.862	1	14
571.031	1	13
571.201	1	12
571.371	1	5
571.541	1	-6
571.711	1	12
571.881	1	11
572.051	1	6
572.221	1	3
572.391	1	13
572.561	1	1
572.731	1	-1
572.900	1	18
573.070	1	16
573.240	1	3
573.410	1	5
573.580	1	11
573.750	1	16
573.920	1	7
574.090	1	8
574.260	1	5
574.430	1	-1
574.599	1	1
574.769	1	10
574.939	1	4
575.109	1	18
575.279	1	11
575.449	1	14
575.619	1	3
575.789	1	11
575.959	1	-4
576.128	1	-3
576.298	1	3
576.468	1	0
576.638	1	7
576.808	1	10
576.978	1	12
577.148	1	14
577.318	1	9
577.487	1	7
577.657	1	-3
577.827	1	13
577.997	1	-7
578.167	1	16
578.337	1	3
578.507	1	11
578.677	1	-3
578.846	1	5
579.016	1	14
579.186	1	2
579.356	1	6
579.526	1	5
579.696	1	8
579.866	1	8
580.036	1	-3
580.205	1	9
580.375	1	2
580.545	1	4
580.715	1	12
580.885	1	12
581.055	1	10
581.225	1	2
581.394	1	-4
581.564	1	4
581.734	1	18
581.904	1	4
582.074	1	6
582.244	1	15
582.414	1	8
582.583	1	4
582.753	1	13
582.923	1	3
583.093	1	0
583.263	1	10
583.433	1	-4
583.603	1	18
583.772	1	4
583.942	1	15
584.112	1	8
584.282	1	12
584.452	1	7
584.622	1	12
584.791	1	10
584.961	1	9
585.131	1	7
585.301	1	11
585.471	1	-4
585.641	1	9
585.811	1	-4
585.980	1	-6
586.150	1	5
586.320	1	-2
586.490	1	-3
586.660	1	16
586.830	1	-6
586.999	1	9
587.169	1	8
587.339	1	1
587.509	1	9
587.679	1	-2
587.849	1	7
588.018	1	10
588.188	1	-1
588.358	1	9
588.528	1	3
588.698	1	-6
588.867	1	11
589.037	1	5
589.207	1	-5
589.377	1	9
589.547	1	3
589.717	1	4
589.886	1	-2
590.056	1	6
590.226	1	5
590.396	1	1
590.566	1	11
590.735	1	27
590.905	1	14
591.075	1	-4
591.245	1	0
591.415	1	3
591.585	1	0
591.754	1	3
591.924	1	-1
592.094	1	10
592.264	1	9
592.434	1	19
592.603	1	-3
592.773	1	-1
592.943	1	6
593.113	1	-11
593.283	1	8
593.452	1	-7
593.622	1	4
593.792	1	7
593.962	1	10
594.132	1	5
594.301	1	8
594.471	1	6
594.641	1	-3
594.811	1	2
594.981	1	9
595.150	1	6
595.320	1	12
595.490	1	-2
595.660	1	1
595.829	1	4
595.999	1	5
596.169	1	-1
596.339	1	3
596.509	1	7
596.678	1	4
596.848	1	11
597.018	1	10
597.188	1	7
597.358	1	14
597.527	1	1
597.697	1	7
597.867	1	6
598.037	1	10
598.206	1	0
598.376	1	11
598.546	1	1
598.716	1	0
598.885	1	0
599.055	1	11
599.225	1	8
599.395	1	12
599.565	1	7
599.734	1	1
599.904	1	0
600.074	1	6
600.244	1	8
600.413	1	6
600.583	1	-10
600.753	1	5
600.923	1	22
601.092	1	-8
601.262	1	10
601.432	1	2
601.602	1	12
601.771	1	11
601.941	1	-4
602.111	1	-1
602.281	1	-1
602.451	1	1
602.620	1	10
602.790	1	6
602.960	1	3
603.130	1	7
603.299	1	8
603.469	1	3
603.639	1	17
603.809	1	9
603.978	1	4
604.148	1	5
604.318	1	6
604.487	1	11
604.657	1	12
604.827	1	-5
604.997	1	0
605.166	1	0
605.336	1	2
605.506	1	5
605.676	1	-2
605.845	1	8
606.015	1	6
606.185	1	7
606.355	1	17
606.524	1	-4
606.694	1	6
606.864	1	2
607.034	1	-6
607.203	1	18
607.373	1	2
607.543	1	-8
607.712	1	7
607.882	1	4
608.052	1	-2
608.222	1	6
608.391	1	4
608.561	1	5
608.731	1	1
608.901	1	9
609.070	1	-3
609.240	1	3
609.410	1	4
609.579	1	3
609.749	1	13
609.919	1	1
610.089	1	-5
610.258	1	8
610.428	1	3
610.598	1	1
610.767	1	-6
610.937	1	11
611.107	1	7
611.277	1	13
611.446	1	4
611.616	1	0
611.786	1	14
611.955	1	15
612.125	1	2
612.295	1	7
612.465	1	-3
612.634	1	3
612.804	1	14
612.974	1	5
613.143	1	5
613.313	1	11
613.483	1	9
613.652	1	-1
613.822	1	4
613.992	1	5
614.162	1	-1
614.331	1	-6
614.501	1	7
614.671	1	12
614.840	1	-2
615.010	1	10
615.180	1	12
615.349	1	0
615.519	1	3
615.689	1	3
615.858	1	6
616.028	1	-4
616.198	1	11
616.368	1	1
616.537	1	-3
616.707	1	9
616.877	1	4
617.046	1	9
617.216	1	-2
617.386	1	0
617.555	1	-7
617.725	1	9
617.895	1	9
618.064	1	3
618.234	1	2
618.404	1	10
618.573	1	6
618.743	1	3
618.913	1	13
619.082	1	4
619.252	1	4
619.422	1	4
619.591	1	3
619.761	1	6
619.931	1	5
620.100	1	3
620.270	1	5
620.440	1	7
620.609	1	2
620.779	1	-6
620.949	1	7
621.118	1	11
621.288	1	8
621.458	1	7
621.627	1	2
621.797	1	11
621.967	1	5
622.136	1	6
622.306	1	10
622.476	1	12
622.645	1	9
622.815	1	3
622.985	1	6
623.154	1	10
623.324	1	13
623.494	1	12
623.663	1	7
623.833	1	3
624.002	1	-2
624.172	1	8
624.342	1	0
624.511	1	7
624.681	1	-1
624.851	1	-4
625.020	1	-1
625.190	1	1
625.360	1	6
625.529	1	12
625.699	1	6
625.869	1	8
626.038	1	18
626.208	1	4
626.377	1	19
626.547	1	-4
626.717	1	9
626.886	1	0
627.056	1	2
627.226	1	3
627.395	1	13
627.565	1	16
627.735	1	9
627.904	1	9
628.074	1	4
628.243	1	5
628.413	1	-2
628.583	1	2
628.752	1	15
628.922	1	5
629.091	1	21
629.261	1	10
629.431	1	-8
629.600	1	4
629.770	1	12
629.940	1	8
630.109	1	-1
630.279	1	4
630.448	1	4
630.618	1	2
630.788	1	7
630.957	1	7
631.127	1	9
631.297	1	-5
631.466	1	14
631.636	1	0
631.805	1	10
631.975	1	11
632.145	1	-2
632.314	1	19
632.484	1	4
632.653	1	-7
632.823	1	10
632.993	1	10
633.162	1	4
633.332	1	6
633.501	1	13
633.671	1	5
633.841	1	15
634.010	1	4
634.180	1	15
634.349	1	8
634.519	1	2
634.689	1	1
634.858	1	7
635.028	1	7
635.197	1	2
635.367	1	4
635.537	1	10
635.706	1	-1
635.876	1	-5
636.045	1	11
636.215	1	6
636.384	1	3
636.554	1	7
636.724	1	10
636.893	1	2
637.063	1	0
637.232	1	6
637.402	1	15
637.572	1	0
637.741	1	7
637.911	1	-3
638.080	1	7
638.250	1	-1
638.419	1	14
638.589	1	15
638.759	1	6
638.928	1	-3
639.098	1	2
639.267	1	11
639.437	1	1
639.606	1	8
639.776	1	3
639.946	1	2
640.115	1	-3
640.285	1	12
640.454	1	14
640.624	1	7
640.793	1	7
640.963	1	-2
641.132	1	16
641.302	1	-2
641.472	1	-9
641.641	1	-1
641.811	1	-1
641.980	1	-4
642.150	1	9
642.319	1	4
642.489	1	4
642.659	1	-1
642.828	1	7
642.998	1	-1
643.167	1	10
643.337	1	9
643.506	1	-4
643.676	1	4
643.845	1	11
644.015	1	7
644.184	1	6
644.354	1	3
644.524	1	2
644.693	1	1
644.863	1	-9
645.032	1	-4
645.202	1	6
645.371	1	7
645.541	1	2
645.710	1	5
645.880	1	7
646.049	1	7
646.219	1	1
646.388	1	-2
646.558	1	4
646.728	1	4
646.897	1	1
647.067	1	3
647.236	1	7
647.406	1	2
647.575	1	10
647.745	1	8
647.914	1	0
648.084	1	3
648.253	1	4
648.423	1	-7
648.592	1	0
648.762	1	9
648.931	1	6
649.101	1	2
649.270	1	10
649.440	1	8
649.610	1	9
649.779	1	11
649.949	1	6
650.118	1	-8
650.288	1	4
650.457	1	0
650.627	1	6
650.796	1	10
650.966	1	5
651.135	1	13
651.305	1	4
651.474	1	3
651.644	1	0
651.813	1	7
651.983	1	-1
652.152	1	6
652.322	1	10
652.491	1	10
652.661	1	5
652.830	1	11
653.000	1	-1
653.169	1	10
653.339	1	12
653.508	1	-1
653.678	1	7
653.847	1	2
654.017	1	5
654.186	1	4
654.356	1	5
654.525	1	8
654.695	1	12
654.864	1	6
655.034	1	4
655.203	1	12
655.373	1	13
655.542	1	10
655.712	1	2
655.881	1	2
656.051	1	9
656.220	1	10
656.390	1	-2
656.559	1	6
656.729	1	3
656.898	1	6
657.068	1	-2
657.237	1	8
657.406	1	7
657.576	1	-1
657.745	1	4
657.915	1	23
658.084	1	13
658.254	1	4
658.423	1	-9
658.593	1	3
658.762	1	0
658.932	1	4
659.101	1	3
659.271	1	9
659.440	1	7
659.610	1	0
659.779	1	-3
659.949	1	-5
660.118	1	8
660.288	1	-3
660.457	1	-9
660.626	1	3
660.796	1	-7
660.965	1	1
661.135	1	5
661.304	1	6
661.474	1	3
661.643	1	4
661.813	1	4
661.982	1	3
662.152	1	2
662.321	1	-1
662.491	1	5
662.660	1	7
662.829	1	-3
662.999	1	3
663.168	1	2
663.338	1	-1
663.507	1	3
663.677	1	-5
663.846	1	14
664.016	1	-1
664.185	1	4
664.354	1	7
664.524	1	-11
664.693	1	13
664.863	1	2
665.032	1	13
665.202	1	0
665.371	1	2
665.541	1	-5
665.710	1	5
665.879	1	0
666.049	1	5
666.218	1	-6
666.388	1	0
666.557	1	5
666.727	1	-21
666.896	1	6
667.065	1	13
667.235	1	2
667.404	1	-8
667.574	1	13
667.743	1	8
667.913	1	4
668.082	1	1
668.251	1	4
668.421	1	17
668.590	1	0
668.760	1	4
668.929	1	0
669.099	1	-8
669.268	1	7
669.437	1	0
669.607	1	-8
669.776	1	3
669.946	1	12
670.115	1	8
670.285	1	6
670.454	1	9
670.623	1	2
670.793	1	-2
670.962	1	-4
671.132	1	-2
671.301	1	-10
671.470	1	2
671.640	1	-12
671.809	1	-2
671.979	1	18
672.148	1	11
672.317	1	3
672.487	1	-5
672.656	1	5
672.826	1	-14
672.995	1	4
673.164	1	8
673.334	1	1
673.503	1	1
673.673	1	12
673.842	1	2
674.011	1	5
674.181	1	-4
674.350	1	3
674.520	1	2
674.689	1	-2
674.858	1	5
675.028	1	8
675.197	1	-4
675.367	1	9
675.536	1	16
675.705	1	-8
675.875	1	17
676.044	1	-8
676.214	1	-3
676.383	1	-3
676.552	1	-5
676.722	1	3
676.891	1	-4
677.060	1	5
677.230	1	12
677.399	1	4
677.569	1	3
677.738	1	8
677.907	1	-4
678.077	1	4
678.246	1	-3
678.416	1	4
678.585	1	14
678.754	1	6
678.924	1	1
679.093	1	5
679.262	1	-2
679.432	1	1
679.601	1	-1
679.771	1	-3
679.940	1	4
680.109	1	20
680.279	1	0
680.448	1	14
680.617	1	-3
680.787	1	7
680.956	1	-10
681.125	1	14
681.295	1	17
681.464	1	4
681.634	1	11
681.803	1	-9
681.972	1	-3
682.142	1	10
682.311	1	1
682.480	1	6
682.650	1	-9
682.819	1	1
682.988	1	0
683.158	1	5
683.327	1	3
683.496	1	4
683.666	1	8
683.835	1	6
684.004	1	0
684.174	1	8
684.343	1	1
684.512	1	3
684.682	1	12
684.851	1	1
685.021	1	12
685.190	1	10
685.359	1	0
685.529	1	8
685.698	1	7
685.867	1	11
686.037	1	3
686.206	1	6
686.375	1	5
686.545	1	9
686.714	1	0
686.883	1	-1
687.053	1	10
687.222	1	4
687.391	1	2
687.561	1	4
687.730	1	1
687.899	1	8
688.069	1	-3
688.238	1	2
688.407	1	2
688.577	1	2
688.746	1	5
