340.368	1	-5
340.539	1	2
340.710	1	-4
340.881	1	-2
341.052	1	5
341.223	1	9
341.394	1	-4
341.565	1	-6
341.737	1	2
341.908	1	-1
342.079	1	-8
342.250	1	4
342.421	1	-8
342.592	1	-8
342.763	1	-5
342.934	1	7
343.105	1	12
343.276	1	-5
343.447	1	5
343.618	1	6
343.789	1	2
343.960	1	-4
344.131	1	6
344.302	1	-1
344.473	1	1
344.644	1	-13
344.815	1	10
344.986	1	4
345.157	1	-1
345.328	1	-3
345.499	1	5
345.670	1	6
345.841	1	2
346.012	1	10
346.183	1	3
346.354	1	-2
346.526	1	6
346.697	1	-2
346.868	1	6
347.039	1	-5
347.210	1	4
347.381	1	-4
347.552	1	-6
347.723	1	3
347.894	1	-4
348.065	1	0
348.236	1	8
348.407	1	0
348.578	1	-1
348.749	1	7
348.920	1	4
349.091	1	-2
349.262	1	4
349.433	1	-7
349.604	1	9
349.775	1	2
349.946	1	1
350.117	1	9
350.288	1	0
350.459	1	7
350.630	1	-10
350.801	1	0
350.972	1	-1
351.143	1	-9
351.314	1	-3
351.485	1	-5
351.656	1	9
351.827	1	0
351.998	1	6
352.169	1	9
352.340	1	2
352.511	1	0
352.682	1	-1
352.853	1	3
353.024	1	1
353.195	1	2
353.366	1	6
353.537	1	-7
353.708	1	4
353.879	1	-6
354.050	1	-1
354.221	1	0
354.392	1	4
354.563	1	8
354.734	1	1
354.905	1	-2
355.076	1	-4
355.247	1	-1
355.418	1	0
355.589	1	1
355.760	1	-2
355.931	1	1
356.102	1	-2
356.273	1	0
356.444	1	-3
356.615	1	2
356.785	1	0
356.956	1	-1
357.127	1	0
357.298	1	-1
357.469	1	-4
357.640	1	6
357.811	1	10
357.982	1	-10
358.153	1	1
358.324	1	-2
358.495	1	3
358.666	1	-1
358.837	1	6
359.008	1	-5
359.179	1	0
359.350	1	-8
359.521	1	3
359.692	1	8
359.863	1	-10
360.034	1	-1
360.205	1	-4
360.376	1	2
360.547	1	4
360.718	1	-9
360.889	1	5
361.060	1	11
361.231	1	4
361.401	1	7
361.572	1	-2
361.743	1	7
361.914	1	5
362.085	1	2
362.256	1	7
362.427	1	-7
362.598	1	5
362.769	1	9
362.940	1	6
363.111	1	4
363.282	1	14
363.453	1	-3
363.624	1	-2
363.795	1	-2
363.966	1	2
364.137	1	-8
364.308	1	-4
364.478	1	0
364.649	1	-7
364.820	1	-2
364.991	1	0
365.162	1	-5
365.333	1	9
365.504	1	-5
365.675	1	2
365.846	1	-5
366.017	1	0
366.188	1	4
366.359	1	1
366.530	1	-2
366.701	1	-9
366.871	1	13
367.042	1	12
367.213	1	6
367.384	1	7
367.555	1	5
367.726	1	8
367.897	1	-1
368.068	1	-6
368.239	1	4
368.410	1	1
368.581	1	2
368.752	1	-5
368.923	1	-6
369.093	1	-8
369.264	1	-1
369.435	1	-6
369.606	1	4
369.777	1	1
369.948	1	-4
370.119	1	9
370.290	1	-5
370.461	1	0
370.632	1	10
370.803	1	-2
370.973	1	11
371.144	1	11
371.315	1	-2
371.486	1	7
371.657	1	4
371.828	1	5
371.999	1	-11
372.170	1	13
372.341	1	5
372.512	1	-4
372.682	1	-2
372.853	1	-3
373.024	1	-3
373.195	1	-1
373.366	1	-2
373.537	1	2
373.708	1	-2
373.879	1	7
374.050	1	13
374.220	1	2
374.391	1	-8
374.562	1	4
374.733	1	14
374.904	1	4
375.075	1	3
375.246	1	-1
375.417	1	6
375.588	1	-5
375.758	1	-4
375.929	1	-6
376.100	1	5
376.271	1	-5
376.442	1	-4
376.613	1	2
376.784	1	1
376.955	1	-11
377.125	1	8
377.296	1	3
377.467	1	-2
377.638	1	1
377.809	1	12
377.980	1	8
378.151	1	-9
378.321	1	4
378.492	1	10
378.663	1	1
378.834	1	2
379.005	1	2
379.176	1	-7
379.347	1	-1
379.518	1	-14
379.688	1	-4
379.859	1	-8
380.030	1	-2
380.201	1	-3
380.372	1	-5
380.543	1	4
380.714	1	6
380.884	1	-3
381.055	1	-3
381.226	1	-2
381.397	1	-13
381.568	1	-5
381.739	1	10
381.910	1	-1
382.080	1	-16
382.251	1	4
382.422	1	6
382.593	1	-5
382.764	1	-2
382.935	1	-7
383.105	1	-4
383.276	1	3
383.447	1	9
383.618	1	1
383.789	1	4
383.960	1	8
384.130	1	-3
384.301	1	3
384.472	1	-12
384.643	1	5
384.814	1	-1
384.985	1	-3
385.156	1	7
385.326	1	1
385.497	1	16
385.668	1	-1
385.839	1	5
386.010	1	5
386.180	1	-3
386.351	1	-7
386.522	1	7
386.693	1	-8
386.864	1	2
387.035	1	2
387.205	1	-3
387.376	1	13
387.547	1	3
387.718	1	9
387.889	1	10
388.060	1	-9
388.230	1	-3
388.401	1	12
388.572	1	4
388.743	1	7
388.914	1	14
389.084	1	5
389.255	1	11
389.426	1	2
389.597	1	-10
389.768	1	3
389.939	1	11
390.109	1	-9
390.280	1	10
390.451	1	6
390.622	1	-1
390.793	1	1
390.963	1	2
391.134	1	2
391.305	1	13
391.476	1	3
391.647	1	4
391.817	1	-4
391.988	1	-1
392.159	1	12
392.330	1	-1
392.501	1	9
392.671	1	8
392.842	1	9
393.013	1	9
393.184	1	14
393.355	1	13
393.525	1	7
393.696	1	-1
393.867	1	-8
394.038	1	-2
394.208	1	6
394.379	1	-4
394.550	1	4
394.721	1	10
394.892	1	0
395.062	1	-1
395.233	1	7
395.404	1	8
395.575	1	-8
395.746	1	-2
395.916	1	3
396.087	1	1
396.258	1	3
396.429	1	6
396.599	1	5
396.770	1	7
396.941	1	18
397.112	1	4
397.283	1	4
397.453	1	-4
397.624	1	-1
397.795	1	3
397.966	1	6
398.136	1	4
398.307	1	-8
398.478	1	5
398.649	1	8
398.819	1	11
398.990	1	3
399.161	1	6
399.332	1	8
399.503	1	4
399.673	1	0
399.844	1	4
400.015	1	4
400.186	1	1
400.356	1	-4
400.527	1	-2
400.698	1	2
400.869	1	12
401.039	1	-4
401.210	1	-7
401.381	1	2
401.552	1	8
401.722	1	4
401.893	1	-4
402.064	1	7
402.235	1	3
402.405	1	5
402.576	1	10
402.747	1	4
402.918	1	-4
403.088	1	-6
403.259	1	1
403.430	1	0
403.601	1	-10
403.771	1	3
403.942	1	7
404.113	1	21
404.284	1	6
404.454	1	8
404.625	1	1
404.796	1	4
404.967	1	-5
405.137	1	8
405.308	1	-6
405.479	1	11
405.649	1	-7
405.820	1	2
405.991	1	14
406.162	1	-2
406.332	1	-7
406.503	1	-7
406.674	1	5
406.845	1	10
407.015	1	-7
407.186	1	20
407.357	1	-6
407.527	1	-4
407.698	1	-2
407.869	1	-1
408.040	1	-5
408.210	1	-1
408.381	1	4
408.552	1	7
408.722	1	-2
408.893	1	4
409.064	1	0
409.235	1	-7
409.405	1	0
409.576	1	-3
409.747	1	-3
409.917	1	0
410.088	1	-3
410.259	1	-2
410.430	1	4
410.600	1	1
410.771	1	-1
410.942	1	-4
411.112	1	6
411.283	1	-7
411.454	1	7
411.625	1	-3
411.795	1	0
411.966	1	10
412.137	1	4
412.307	1	4
412.478	1	3
412.649	1	3
412.819	1	1
412.990	1	1
413.161	1	-4
413.332	1	-2
413.502	1	-14
413.673	1	5
413.844	1	0
414.014	1	-4
414.185	1	3
414.356	1	-6
414.526	1	-7
414.697	1	6
414.868	1	12
415.038	1	2
415.209	1	-5
415.380	1	2
415.550	1	-10
415.721	1	5
415.892	1	0
416.063	1	11
416.233	1	-1
416.404	1	6
416.575	1	-3
416.745	1	-10
416.916	1	-1
417.087	1	-4
417.257	1	-5
417.428	1	-4
417.599	1	1
417.769	1	3
417.940	1	-3
418.111	1	-1
418.281	1	-4
418.452	1	-6
418.623	1	-3
418.793	1	3
418.964	1	3
419.135	1	4
419.305	1	-10
419.476	1	5
419.647	1	2
419.817	1	-1
419.988	1	-7
420.159	1	-8
420.329	1	17
420.500	1	1
420.671	1	9
420.841	1	9
421.012	1	11
421.183	1	10
421.353	1	3
421.524	1	7
421.695	1	0
421.865	1	5
422.036	1	0
422.206	1	-3
422.377	1	-2
422.548	1	10
422.718	1	-8
422.889	1	7
423.060	1	-3
423.230	1	0
423.401	1	2
423.572	1	-3
423.742	1	-1
423.913	1	16
424.084	1	7
424.254	1	-5
424.425	1	1
424.595	1	-5
424.766	1	5
424.937	1	-6
425.107	1	-4
425.278	1	-5
425.449	1	-5
425.619	1	-4
425.790	1	-1
425.961	1	2
426.131	1	-3
426.302	1	-1
426.472	1	4
426.643	1	-1
426.814	1	16
426.984	1	1
427.155	1	-2
427.326	1	3
427.496	1	-1
427.667	1	5
427.837	1	-5
428.008	1	-6
428.179	1	-8
428.349	1	-7
428.520	1	-4
428.691	1	-9
428.861	1	-7
429.032	1	-4
429.202	1	2
429.373	1	-6
429.544	1	3
429.714	1	9
429.885	1	5
430.055	1	-2
430.226	1	-7
430.397	1	-3
430.567	1	9
430.738	1	1
430.909	1	-10
431.079	1	7
431.250	1	-1
431.420	1	0
431.591	1	7
431.762	1	1
431.932	1	4
432.103	1	3
432.273	1	-3
432.444	1	8
432.615	1	5
432.785	1	-3
432.956	1	-2
433.126	1	4
433.297	1	4
433.468	1	-2
433.638	1	1
433.809	1	-3
433.979	1	-4
434.150	1	-9
434.320	1	-2
434.491	1	-3
434.662	1	-5
434.832	1	-11
435.003	1	5
435.173	1	-2
435.344	1	2
435.515	1	2
435.685	1	2
435.856	1	-4
436.026	1	7
436.197	1	2
436.368	1	-4
436.538	1	1
436.709	1	-7
436.879	1	-2
437.050	1	7
437.220	1	5
437.391	1	-5
437.562	1	4
437.732	1	1
437.903	1	1
438.073	1	-2
438.244	1	-16
438.414	1	1
438.585	1	-4
438.756	1	8
438.926	1	-6
439.097	1	1
439.267	1	11
439.438	1	8
439.608	1	-8
439.779	1	3
439.949	1	-3
440.120	1	-3
440.291	1	-10
440.461	1	-12
440.632	1	4
440.802	1	5
440.973	1	-3
441.143	1	8
441.314	1	7
441.485	1	-5
441.655	1	11
441.826	1	-10
441.996	1	-2
442.167	1	1
442.337	1	-6
442.508	1	1
442.678	1	-11
442.849	1	7
443.019	1	1
443.190	1	-8
443.361	1	8
443.531	1	-3
443.702	1	-2
443.872	1	-3
444.043	1	-1
444.213	1	-6
444.384	1	-4
444.554	1	-2
444.725	1	-2
444.895	1	1
445.066	1	-3
445.237	1	-6
445.407	1	-3
445.578	1	7
445.748	1	-8
445.919	1	1
446.089	1	9
446.260	1	-6
446.430	1	-8
446.601	1	-3
446.771	1	-5
446.942	1	-1
447.112	1	-1
447.283	1	-8
447.453	1	-5
447.624	1	8
447.794	1	-2
447.965	1	-15
448.135	1	0
448.306	1	-2
448.477	1	-7
448.647	1	5
448.818	1	8
448.988	1	-14
449.159	1	-5
449.329	1	0
449.500	1	12
449.670	1	0
449.841	1	5
450.011	1	5
450.182	1	-7
450.352	1	11
450.523	1	-8
450.693	1	-3
450.864	1	1
451.034	1	9
451.205	1	0
451.375	1	2
451.546	1	5
451.716	1	9
451.887	1	-2
452.057	1	10
452.228	1	-9
452.398	1	4
452.569	1	0
452.739	1	-3
452.910	1	6
453.080	1	6
453.251	1	-3
453.421	1	1
453.592	1	-3
453.762	1	12
453.933	1	4
454.103	1	-5
454.274	1	-2
454.444	1	8
454.615	1	6
454.785	1	-11
454.956	1	1
455.126	1	-2
455.297	1	3
455.467	1	8
455.638	1	1
455.808	1	8
455.979	1	-5
456.149	1	-4
456.320	1	-6
456.490	1	4
456.661	1	-4
456.831	1	10
457.001	1	4
457.172	1	2
457.342	1	6
457.513	1	9
457.683	1	6
457.854	1	3
458.024	1	2
458.195	1	3
458.365	1	4
458.536	1	4
458.706	1	-2
458.877	1	1
459.047	1	-9
459.218	1	6
459.388	1	-2
459.559	1	4
459.729	1	8
459.899	1	8
460.070	1	3
460.240	1	1
460.411	1	0
460.581	1	6
460.752	1	4
460.922	1	-3
461.093	1	1
461.263	1	7
461.434	1	8
461.604	1	-6
461.775	1	8
461.945	1	7
462.115	1	-15
462.286	1	9
462.456	1	-12
462.627	1	0
462.797	1	-2
462.968	1	-11
463.138	1	5
463.309	1	1
463.479	1	11
463.649	1	3
463.820	1	6
463.990	1	11
464.161	1	5
464.331	1	-1
464.502	1	-2
464.672	1	-5
464.843	1	1
465.013	1	-6
465.183	1	4
465.354	1	4
465.524	1	14
465.695	1	9
465.865	1	-7
466.036	1	-1
466.206	1	3
466.376	1	-2
466.547	1	2
466.717	1	-6
466.888	1	5
467.058	1	10
467.229	1	8
467.399	1	-1
467.569	1	-2
467.740	1	-3
467.910	1	-7
468.081	1	-6
468.251	1	-9
468.422	1	2
468.592	1	9
468.762	1	-2
468.933	1	-3
469.103	1	-8
469.274	1	7
469.444	1	-4
469.614	1	-9
469.785	1	1
469.955	1	-3
470.126	1	9
470.296	1	5
470.467	1	0
470.637	1	11
470.807	1	-3
470.978	1	-1
471.148	1	-7
471.319	1	10
471.489	1	-6
471.659	1	9
471.830	1	11
472.000	1	5
472.171	1	2
472.341	1	3
472.511	1	3
472.682	1	4
472.852	1	-10
473.023	1	-15
473.193	1	1
473.363	1	-2
473.534	1	-3
473.704	1	8
473.875	1	4
474.045	1	-10
474.215	1	-1
474.386	1	5
474.556	1	-13
474.727	1	3
474.897	1	1
475.067	1	3
475.238	1	-6
475.408	1	3
475.578	1	1
475.749	1	-3
475.919	1	7
476.090	1	-6
476.260	1	2
476.430	1	2
476.601	1	2
476.771	1	5
476.942	1	-2
477.112	1	1
477.282	1	-8
477.453	1	2
477.623	1	6
477.793	1	3
477.964	1	10
478.134	1	1
478.305	1	0
478.475	1	-1
478.645	1	-4
478.816	1	0
478.986	1	-1
479.156	1	0
479.327	1	-6
479.497	1	-1
479.667	1	-3
479.838	1	0
480.008	1	9
480.179	1	1
480.349	1	-2
480.519	1	-1
480.690	1	-2
480.860	1	-9
481.030	1	-9
481.201	1	-1
481.371	1	1
481.541	1	6
481.712	1	1
481.882	1	-1
482.053	1	9
482.223	1	-6
482.393	1	-4
482.564	1	-10
482.734	1	2
482.904	1	10
483.075	1	8
483.245	1	-5
483.415	1	2
483.586	1	-4
483.756	1	11
483.926	1	-1
484.097	1	-5
484.267	1	2
484.437	1	-9
484.608	1	-5
484.778	1	6
484.948	1	-9
485.119	1	2
485.289	1	10
485.459	1	3
485.630	1	-6
485.800	1	1
485.970	1	2
486.141	1	-6
486.311	1	-5
486.481	1	2
486.652	1	5
486.822	1	1
486.992	1	-11
487.163	1	-8
487.333	1	8
487.503	1	-15
487.674	1	9
487.844	1	7
488.014	1	6
488.185	1	-8
488.355	1	-10
488.525	1	2
488.696	1	-7
488.866	1	7
489.036	1	6
489.207	1	17
489.377	1	-4
489.547	1	-4
489.718	1	-7
489.888	1	-6
490.058	1	0
490.228	1	-12
490.399	1	6
490.569	1	10
490.739	1	5
490.910	1	-2
491.080	1	0
491.250	1	3
491.421	1	5
491.591	1	-8
491.761	1	4
491.932	1	6
492.102	1	-8
492.272	1	10
492.442	1	-4
492.613	1	0
492.783	1	-10
492.953	1	1
493.124	1	-2
493.294	1	4
493.464	1	-7
493.635	1	-3
493.805	1	5
493.975	1	8
494.145	1	-3
494.316	1	7
494.486	1	-14
494.656	1	3
494.827	1	-8
494.997	1	-4
495.167	1	3
495.337	1	2
495.508	1	-3
495.678	1	2
495.848	1	1
496.019	1	-1
496.189	1	-6
496.359	1	3
496.529	1	2
496.700	1	-4
496.870	1	4
497.040	1	2
497.211	1	-2
497.381	1	-15
497.551	1	11
497.721	1	-1
497.892	1	-2
498.062	1	-10
498.232	1	4
498.403	1	0
498.573	1	-14
498.743	1	11
498.913	1	-3
499.084	1	-8
499.254	1	4
499.424	1	13
499.594	1	2
499.765	1	1
499.935	1	-12
500.105	1	5
500.275	1	7
500.446	1	4
500.616	1	1
500.786	1	0
500.956	1	-6
501.127	1	1
501.297	1	-5
501.467	1	3
501.638	1	-3
501.808	1	-8
501.978	1	10
502.148	1	-3
502.319	1	0
502.489	1	9
502.659	1	-1
502.829	1	-1
503.000	1	9
503.170	1	-7
503.340	1	-4
503.510	1	4
503.681	1	6
503.851	1	-14
504.021	1	9
504.191	1	0
504.362	1	11
504.532	1	-20
504.702	1	8
504.872	1	-6
505.042	1	-2
505.213	1	10
505.383	1	-10
505.553	1	11
505.723	1	3
505.894	1	2
506.064	1	2
506.234	1	11
506.404	1	-1
506.575	1	-7
506.745	1	-6
506.915	1	2
507.085	1	-8
507.256	1	-9
507.426	1	10
507.596	1	1
507.766	1	-1
507.936	1	9
508.107	1	0
508.277	1	-8
508.447	1	-3
508.617	1	2
508.788	1	-3
508.958	1	10
509.128	1	8
509.298	1	8
509.468	1	3
509.639	1	4
509.809	1	-1
509.979	1	-10
510.149	1	6
510.319	1	-3
510.490	1	15
510.660	1	14
510.830	1	5
511.000	1	1
511.171	1	13
511.341	1	-6
511.511	1	2
511.681	1	-2
511.851	1	-7
512.022	1	-2
512.192	1	7
512.362	1	-2
512.532	1	-3
512.702	1	-13
512.873	1	7
513.043	1	6
513.213	1	-1
513.383	1	-6
513.553	1	-1
513.724	1	11
513.894	1	-1
514.064	1	5
514.234	1	1
514.404	1	1
514.575	1	4
514.745	1	-5
514.915	1	11
515.085	1	-5
515.255	1	-7
515.425	1	-8
515.596	1	-4
515.766	1	3
515.936	1	0
516.106	1	0
516.276	1	11
516.447	1	6
516.617	1	4
516.787	1	-1
516.957	1	-5
517.127	1	0
517.297	1	8
517.468	1	-8
517.638	1	3
517.808	1	3
517.978	1	-9
518.148	1	-6
518.319	1	-4
518.489	1	2
518.659	1	-1
518.829	1	-12
518.999	1	4
519.169	1	3
519.340	1	-1
519.510	1	-3
519.680	1	0
519.850	1	0
520.020	1	-5
520.190	1	-2
520.361	1	-12
520.531	1	3
520.701	1	2
520.871	1	-2
521.041	1	5
521.211	1	5
521.382	1	-3
521.552	1	0
521.722	1	-2
521.892	1	-9
522.062	1	2
522.232	1	-6
522.402	1	-12
522.573	1	11
522.743	1	16
522.913	1	2
523.083	1	-1
523.253	1	-1
523.423	1	-8
523.593	1	-5
523.764	1	1
523.934	1	2
524.104	1	0
524.274	1	-7
524.444	1	3
524.614	1	8
524.784	1	-3
524.955	1	0
525.125	1	8
525.295	1	-8
525.465	1	8
525.635	1	9
525.805	1	-5
525.975	1	-5
526.146	1	0
526.316	1	-4
526.486	1	13
526.656	1	11
526.826	1	5
526.996	1	7
527.166	1	-1
527.337	1	1
527.507	1	-15
527.677	1	5
527.847	1	-12
528.017	1	-2
528.187	1	-1
528.357	1	1
528.527	1	3
528.698	1	-2
528.868	1	-9
529.038	1	12
529.208	1	4
529.378	1	-2
529.548	1	3
529.718	1	1
529.888	1	-2
530.058	1	4
530.229	1	-3
530.399	1	6
530.569	1	3
530.739	1	0
530.909	1	4
531.079	1	5
531.249	1	-4
531.419	1	1
531.589	1	-12
531.760	1	3
531.930	1	1
532.100	1	-1
532.270	1	13
532.440	1	4
532.610	1	6
532.780	1	-4
532.950	1	1
533.120	1	-3
533.290	1	-3
533.461	1	11
533.631	1	2
533.801	1	-8
533.971	1	2
534.141	1	1
534.311	1	5
534.481	1	0
534.651	1	4
534.821	1	4
534.991	1	-4
535.162	1	3
535.332	1	-8
535.502	1	14
535.672	1	-5
535.842	1	9
536.012	1	6
536.182	1	4
536.352	1	4
536.522	1	-5
536.692	1	7
536.862	1	6
537.032	1	6
537.203	1	3
537.373	1	-1
537.543	1	-2
537.713	1	15
537.883	1	8
538.053	1	2
538.223	1	3
538.393	1	17
538.563	1	-3
538.733	1	-3
538.903	1	0
539.073	1	5
539.243	1	3
539.413	1	1
539.584	1	2
539.754	1	-2
539.924	1	4
540.094	1	7
540.264	1	3
540.434	1	1
540.604	1	0
540.774	1	-4
540.944	1	0
541.114	1	-6
541.284	1	-3
541.454	1	4
541.624	1	9
541.794	1	-3
541.964	1	2
542.134	1	3
542.305	1	-8
542.475	1	-8
542.645	1	-1
542.815	1	10
542.985	1	-13
543.155	1	-8
543.325	1	0
543.495	1	4
543.665	1	-1
543.835	1	-3
544.005	1	-4
544.175	1	4
544.345	1	2
544.515	1	0
544.685	1	1
544.855	1	6
545.025	1	2
545.195	1	1
545.365	1	5
545.535	1	-2
545.705	1	11
545.875	1	-4
546.045	1	8
546.216	1	14
546.386	1	1
546.556	1	-3
546.726	1	-1
546.896	1	-5
547.066	1	-8
547.236	1	-5
547.406	1	13
547.576	1	-2
547.746	1	6
547.916	1	-1
548.086	1	1
548.256	1	-6
548.426	1	-1
548.596	1	-4
548.766	1	1
548.936	1	-8
549.106	1	6
549.276	1	12
549.446	1	-4
549.616	1	16
549.786	1	3
549.956	1	5
550.126	1	-2
550.296	1	7
550.466	1	2
550.636	1	1
550.806	1	10
550.976	1	4
551.146	1	3
551.316	1	3
551.486	1	1
551.656	1	-7
551.826	1	2
551.996	1	0
552.166	1	-1
552.336	1	4
552.506	1	-7
552.676	1	-8
552.846	1	6
553.016	1	5
553.186	1	2
553.356	1	-3
553.526	1	-1
553.696	1	12
553.866	1	-2
554.036	1	-3
554.206	1	-1
554.376	1	-2
554.546	1	-10
554.716	1	-5
554.886	1	12
555.056	1	-9
555.226	1	-7
555.396	1	-8
555.566	1	-1
555.736	1	0
555.906	1	0
556.076	1	1
556.246	1	0
556.416	1	-2
556.586	1	-2
556.756	1	5
556.926	1	0
557.096	1	2
557.266	1	8
557.436	1	10
557.606	1	-7
557.776	1	-1
557.946	1	10
558.116	1	11
558.286	1	-4
558.456	1	-4
558.626	1	4
558.796	1	-3
558.966	1	2
559.136	1	2
559.306	1	-8
559.476	1	-1
559.646	1	-1
559.816	1	2
559.986	1	-3
560.155	1	9
560.325	1	-12
560.495	1	-4
560.665	1	4
560.835	1	-4
561.005	1	2
561.175	1	-5
561.345	1	3
561.515	1	-16
561.685	1	7
561.855	1	9
562.025	1	1
562.195	1	-1
562.365	1	7
562.535	1	4
562.705	1	8
562.875	1	-2
563.045	1	8
563.215	1	4
563.385	1	-5
563.555	1	9
563.725	1	-5
563.895	1	-7
564.064	1	7
564.234	1	0
564.404	1	1
564.574	1	-5
564.744	1	-1
564.914	1	-6
565.084	1	-4
565.254	1	7
565.424	1	1
565.594	1	-6
565.764	1	7
565.934	1	7
566.104	1	-3
566.274	1	-2
566.444	1	1
566.614	1	1
566.783	1	-8
566.953	1	4
567.123	1	14
567.293	1	-7
567.463	1	0
567.633	1	6
567.803	1	-5
567.973	1	-9
568.143	1	-8
568.313	1	-7
568.483	1	4
568.653	1	-10
568.823	1	11
568.993	1	5
569.162	1	-9
569.332	1	-7
569.502	1	-1
569.672	1	4
569.842	1	-1
570.012	1	-2
570.182	1	-6
570.352	1	12
570.522	1	7
570.692	1	4
570.862	1	-3
571.031	1	-1
571.201	1	12
571.371	1	-1
571.541	1	-13
571.711	1	5
571.881	1	10
572.051	1	4
572.221	1	-3
572.391	1	5
572.561	1	-1
572.731	1	-5
572.900	1	15
573.070	1	7
573.240	1	1
573.410	1	3
573.580	1	3
573.750	1	13
573.920	1	2
574.090	1	2
574.260	1	7
574.430	1	-2
574.599	1	-12
574.769	1	-1
574.939	1	-3
575.109	1	-10
575.279	1	0
575.449	1	0
575.619	1	7
575.789	1	4
575.959	1	-11
576.128	1	2
576.298	1	-16
576.468	1	-8
576.638	1	3
576.808	1	-7
576.978	1	-3
577.148	1	12
577.318	1	4
577.487	1	-4
577.657	1	-11
577.827	1	5
577.997	1	-8
578.167	1	0
578.337	1	-5
578.507	1	-2
578.677	1	-2
578.846	1	-5
579.016	1	5
579.186	1	-12
579.356	1	-6
579.526	1	-3
579.696	1	-1
579.866	1	3
580.036	1	-7
580.205	1	-1
580.375	1	3
580.545	1	3
580.715	1	0
580.885	1	-6
581.055	1	3
581.225	1	-6
581.394	1	-3
581.564	1	-7
581.734	1	9
581.904	1	2
582.074	1	-3
582.244	1	8
582.414	1	4
582.583	1	-6
582.753	1	8
582.923	1	2
583.093	1	-9
583.263	1	-3
583.433	1	-11
583.603	1	8
583.772	1	-5
583.942	1	6
584.112	1	0
584.282	1	7
584.452	1	0
584.622	1	0
584.791	1	2
584.961	1	1
585.131	1	-6
585.301	1	14
585.471	1	-2
585.641	1	1
585.811	1	-6
585.980	1	-13
586.150	1	0
586.320	1	-2
586.490	1	-6
586.660	1	2
586.830	1	-9
586.999	1	-2
587.169	1	4
587.339	1	2
587.509	1	2
587.679	1	-3
587.849	1	11
588.018	1	2
588.188	1	-4
588.358	1	6
588.528	1	4
588.698	1	1
588.867	1	8
589.037	1	0
589.207	1	-5
589.377	1	2
589.547	1	1
589.717	1	3
589.886	1	-4
590.056	1	4
590.226	1	11
590.396	1	1
590.566	1	-2
590.735	1	11
590.905	1	3
591.075	1	-14
591.245	1	-1
591.415	1	-3
591.585	1	0
591.754	1	4
591.924	1	-6
592.094	1	11
592.264	1	-10
592.434	1	-7
592.603	1	-1
592.773	1	-1
592.943	1	-3
593.113	1	-12
593.283	1	16
593.452	1	-11
593.622	1	0
593.792	1	-5
593.962	1	5
594.132	1	-1
594.301	1	10
594.471	1	5
594.641	1	-7
594.811	1	-4
594.981	1	-2
595.150	1	1
595.320	1	4
595.490	1	-4
595.660	1	1
595.829	1	-3
595.999	1	-1
596.169	1	-3
596.339	1	-1
596.509	1	4
596.678	1	-6
596.848	1	2
597.018	1	-3
597.188	1	3
597.358	1	3
597.527	1	0
597.697	1	-5
597.867	1	-1
598.037	1	5
598.206	1	-8
598.376	1	5
598.546	1	4
598.716	1	-7
598.885	1	-17
599.055	1	-1
599.225	1	-4
599.395	1	3
599.565	1	2
599.734	1	-9
599.904	1	0
600.074	1	-14
600.244	1	4
600.413	1	-2
600.583	1	-2
600.753	1	3
600.923	1	10
601.092	1	-7
601.262	1	2
601.432	1	-5
601.602	1	17
601.771	1	3
601.941	1	-8
602.111	1	-8
602.281	1	-3
602.451	1	2
602.620	1	3
602.790	1	-4
602.960	1	1
603.130	1	2
603.299	1	2
603.469	1	-5
603.639	1	1
603.809	1	3
603.978	1	5
604.148	1	2
604.318	1	3
604.487	1	-1
604.657	1	4
604.827	1	-23
604.997	1	-1
605.166	1	-4
605.336	1	1
605.506	1	-2
605.676	1	-20
605.845	1	3
606.015	1	5
606.185	1	-3
606.355	1	5
606.524	1	-3
606.694	1	13
606.864	1	-5
607.034	1	-3
607.203	1	6
607.373	1	2
607.543	1	-10
607.712	1	7
607.882	1	-2
608.052	1	9
608.222	1	-2
608.391	1	-3
608.561	1	0
608.731	1	-5
608.901	1	-4
609.070	1	-4
609.240	1	2
609.410	1	1
609.579	1	7
609.749	1	5
609.919	1	0
610.089	1	-10
610.258	1	7
610.428	1	5
610.598	1	2
610.767	1	-2
610.937	1	-8
611.107	1	14
611.277	1	0
611.446	1	0
611.616	1	-10
611.786	1	9
611.955	1	5
612.125	1	-5
612.295	1	-3
612.465	1	-4
612.634	1	2
612.804	1	4
612.974	1	5
613.143	1	1
613.313	1	-11
613.483	1	7
613.652	1	-7
613.822	1	5
613.992	1	4
614.162	1	-5
614.331	1	3
614.501	1	-6
614.671	1	2
614.840	1	0
615.010	1	2
615.180	1	1
615.349	1	2
615.519	1	-1
615.689	1	-1
615.858	1	9
616.028	1	-5
616.198	1	10
616.368	1	3
616.537	1	-6
616.707	1	-1
616.877	1	2
617.046	1	7
617.216	1	0
617.386	1	-8
617.555	1	0
617.725	1	11
617.895	1	-1
618.064	1	7
618.234	1	3
618.404	1	2
618.573	1	-7
618.743	1	7
618.913	1	-3
619.082	1	0
619.252	1	1
619.422	1	-3
619.591	1	0
619.761	1	0
619.931	1	10
620.100	1	4
620.270	1	-8
620.440	1	7
620.609	1	0
620.779	1	-2
620.949	1	-2
621.118	1	-9
621.288	1	13
621.458	1	9
621.627	1	-4
621.797	1	4
621.967	1	-3
622.136	1	5
622.306	1	-4
622.476	1	3
622.645	1	14
622.815	1	-10
622.985	1	-4
623.154	1	-2
623.324	1	9
623.494	1	5
623.663	1	-1
623.833	1	0
624.002	1	-2
624.172	1	4
624.342	1	-12
624.511	1	5
624.681	1	-11
624.851	1	-5
625.020	1	5
625.190	1	-2
625.360	1	-5
625.529	1	8
625.699	1	-12
625.869	1	8
626.038	1	4
626.208	1	-6
626.377	1	15
626.547	1	-7
626.717	1	-1
626.886	1	-8
627.056	1	-3
627.226	1	3
627.395	1	9
627.565	1	9
627.735	1	8
627.904	1	3
628.074	1	8
628.243	1	-4
628.413	1	8
628.583	1	1
628.752	1	2
628.922	1	-1
629.091	1	6
629.261	1	4
629.431	1	-7
629.600	1	8
629.770	1	-3
629.940	1	3
630.109	1	-7
630.279	1	-8
630.448	1	-5
630.618	1	-1
630.788	1	0
630.957	1	-1
631.127	1	6
631.297	1	-8
631.466	1	6
631.636	1	-6
631.805	1	5
631.975	1	2
632.145	1	-8
632.314	1	16
632.484	1	-8
632.653	1	-8
632.823	1	8
632.993	1	7
633.162	1	0
633.332	1	4
633.501	1	2
633.671	1	0
633.841	1	4
634.010	1	5
634.180	1	-2
634.349	1	6
634.519	1	3
634.689	1	6
634.858	1	2
635.028	1	5
635.197	1	-6
635.367	1	-6
635.537	1	-5
635.706	1	-7
635.876	1	-5
636.045	1	-5
636.215	1	-5
636.384	1	5
636.554	1	8
636.724	1	0
636.893	1	-3
637.063	1	-4
637.232	1	-9
637.402	1	5
637.572	1	-9
637.741	1	5
637.911	1	-2
638.080	1	-8
638.250	1	4
638.419	1	0
638.589	1	14
638.759	1	4
638.928	1	-13
639.098	1	-5
639.267	1	-4
639.437	1	-6
639.606	1	13
639.776	1	-8
639.946	1	-8
640.115	1	-12
640.285	1	-1
640.454	1	9
640.624	1	2
640.793	1	4
640.963	1	-7
641.132	1	5
641.302	1	-3
641.472	1	-5
641.641	1	-2
641.811	1	0
641.980	1	-5
642.150	1	1
642.319	1	-8
642.489	1	-1
642.659	1	-13
642.828	1	0
642.998	1	-5
643.167	1	6
643.337	1	1
643.506	1	-7
643.676	1	-3
643.845	1	-4
644.015	1	-1
644.184	1	7
644.354	1	5
644.524	1	-6
644.693	1	9
644.863	1	-12
645.032	1	-5
645.202	1	-2
645.371	1	-3
645.541	1	-11
645.710	1	6
645.880	1	1
646.049	1	7
646.219	1	-2
646.388	1	-8
646.558	1	-5
646.728	1	0
646.897	1	1
647.067	1	3
647.236	1	-1
647.406	1	-5
647.575	1	7
647.745	1	6
647.914	1	6
648.084	1	1
648.253	1	10
648.423	1	1
648.592	1	-12
648.762	1	3
648.931	1	7
649.101	1	-3
649.270	1	6
649.440	1	6
649.610	1	7
649.779	1	-4
649.949	1	-1
650.118	1	-7
650.288	1	-5
650.457	1	-6
650.627	1	1
650.796	1	-2
650.966	1	-5
651.135	1	6
651.305	1	-4
651.474	1	-2
651.644	1	-4
651.813	1	0
651.983	1	0
652.152	1	0
652.322	1	-2
652.491	1	-2
652.661	1	-1
652.830	1	7
653.000	1	-5
653.169	1	9
653.339	1	8
653.508	1	-3
653.678	1	-7
653.847	1	7
654.017	1	-3
654.186	1	0
654.356	1	9
654.525	1	-1
654.695	1	-4
654.864	1	10
655.034	1	-2
655.203	1	7
655.373	1	-6
655.542	1	7
655.712	1	-3
655.881	1	3
656.051	1	5
656.220	1	10
656.390	1	-5
656.559	1	-8
656.729	1	5
656.898	1	6
657.068	1	4
657.237	1	3
657.406	1	4
657.576	1	-2
657.745	1	4
657.915	1	8
658.084	1	0
658.254	1	3
658.423	1	-3
658.593	1	-11
658.762	1	-10
658.932	1	2
659.101	1	1
659.271	1	0
659.440	1	11
659.610	1	1
659.779	1	-6
659.949	1	-1
660.118	1	-9
660.288	1	-5
660.457	1	-2
660.626	1	-4
660.796	1	1
660.965	1	3
661.135	1	1
661.304	1	5
661.474	1	5
661.643	1	-12
661.813	1	-3
661.982	1	-6
662.152	1	-5
662.321	1	-1
662.491	1	-7
662.660	1	-4
662.829	1	-7
662.999	1	-6
663.168	1	-7
663.338	1	-13
663.507	1	-3
663.677	1	-2
663.846	1	8
664.016	1	-8
664.185	1	0
664.354	1	5
664.524	1	-6
664.693	1	4
664.863	1	-4
665.032	1	3
665.202	1	-7
665.371	1	5
665.541	1	1
665.710	1	-3
665.879	1	13
666.049	1	1
666.218	1	-11
666.388	1	-8
666.557	1	-7
666.727	1	-15
666.896	1	-5
667.065	1	5
667.235	1	5
667.404	1	-8
667.574	1	5
667.743	1	5
667.913	1	0
668.082	1	-2
668.251	1	0
668.421	1	-1
668.590	1	3
668.760	1	6
668.929	1	14
669.099	1	-5
669.268	1	-7
669.437	1	9
669.607	1	-9
669.776	1	-1
669.946	1	5
670.115	1	-5
670.285	1	0
670.454	1	1
670.623	1	1
670.793	1	-1
670.962	1	7
671.132	1	1
671.301	1	-4
671.470	1	-7
671.640	1	-17
671.809	1	-10
671.979	1	9
672.148	1	4
672.317	1	1
672.487	1	-7
672.656	1	0
672.826	1	-8
672.995	1	-4
673.164	1	0
673.334	1	7
673.503	1	-1
673.673	1	8
673.842	1	-2
674.011	1	6
674.181	1	-1
674.350	1	-4
674.520	1	-9
674.689	1	1
674.858	1	-8
675.028	1	-1
675.197	1	5
675.367	1	1
675.536	1	10
675.705	1	-10
675.875	1	9
676.044	1	2
676.214	1	-5
676.383	1	-7
676.552	1	1
676.722	1	-5
676.891	1	-12
677.060	1	1
677.230	1	11
677.399	1	4
677.569	1	-8
677.738	1	-2
677.907	1	1
678.077	1	-5
678.246	1	-13
678.416	1	-6
678.585	1	6
678.754	1	6
678.924	1	-5
679.093	1	-2
679.262	1	2
679.432	1	-9
679.601	1	-14
679.771	1	4
679.940	1	-7
680.109	1	0
680.279	1	-9
680.448	1	3
680.617	1	-8
680.787	1	-3
680.956	1	1
681.125	1	1
681.295	1	4
681.464	1	1
681.634	1	5
681.803	1	-23
681.972	1	-6
682.142	1	8
682.311	1	11
682.480	1	3
682.650	1	-3
682.819	1	2
682.988	1	-2
683.158	1	-2
683.327	1	-2
683.496	1	-11
683.666	1	0
683.835	1	9
684.004	1	-3
684.174	1	3
684.343	1	-4
684.512	1	2
684.682	1	7
684.851	1	2
685.021	1	8
685.190	1	6
685.359	1	-9
685.529	1	4
685.698	1	-2
685.867	1	-5
686.037	1	5
686.206	1	1
686.375	1	5
686.545	1	5
686.714	1	-4
686.883	1	-2
687.053	1	-2
687.222	1	-2
687.391	1	-4
687.561	1	2
687.730	1	-6
687.899	1	-1
688.069	1	-4
688.238	1	6
688.407	1	8
688.577	1	-9
688.746	1	1
