340.368	1	1
340.539	1	0
340.710	1	-6
340.881	1	0
341.052	1	4
341.223	1	7
341.394	1	-3
341.565	1	-7
341.737	1	5
341.908	1	3
342.079	1	-8
342.250	1	0
342.421	1	-5
342.592	1	2
342.763	1	2
342.934	1	1
343.105	1	1
343.276	1	-5
343.447	1	3
343.618	1	3
343.789	1	2
343.960	1	-1
344.131	1	-5
344.302	1	-2
344.473	1	-5
344.644	1	-5
344.815	1	10
344.986	1	-4
345.157	1	4
345.328	1	-2
345.499	1	3
345.670	1	9
345.841	1	3
346.012	1	4
346.183	1	-1
346.354	1	1
346.526	1	7
346.697	1	4
346.868	1	1
347.039	1	1
347.210	1	-4
347.381	1	2
347.552	1	2
347.723	1	7
347.894	1	5
348.065	1	-3
348.236	1	6
348.407	1	-3
348.578	1	0
348.749	1	0
348.920	1	12
349.091	1	-4
349.262	1	0
349.433	1	-3
349.604	1	6
349.775	1	14
349.946	1	2
350.117	1	3
350.288	1	-2
350.459	1	-3
350.630	1	-10
350.801	1	4
350.972	1	-4
351.143	1	-10
351.314	1	-1
351.485	1	-12
351.656	1	5
351.827	1	-6
351.998	1	-3
352.169	1	2
352.340	1	-5
352.511	1	-5
352.682	1	-5
352.853	1	-10
353.024	1	-13
353.195	1	4
353.366	1	2
353.537	1	-6
353.708	1	3
353.879	1	2
354.050	1	4
354.221	1	-13
354.392	1	6
354.563	1	12
354.734	1	-3
354.905	1	11
355.076	1	-1
355.247	1	-12
355.418	1	2
355.589	1	-1
355.760	1	4
355.931	1	4
356.102	1	-12
356.273	1	-1
356.444	1	3
356.615	1	-7
356.785	1	9
356.956	1	3
357.127	1	2
357.298	1	1
357.469	1	2
357.640	1	6
357.811	1	13
357.982	1	-5
358.153	1	1
358.324	1	-1
358.495	1	13
358.666	1	-6
358.837	1	4
359.008	1	-6
359.179	1	-3
359.350	1	7
359.521	1	0
359.692	1	3
359.863	1	-5
360.034	1	-2
360.205	1	-7
360.376	1	6
360.547	1	5
360.718	1	1
360.889	1	-4
361.060	1	6
361.231	1	-3
361.401	1	2
361.572	1	-4
361.743	1	-1
361.914	1	6
362.085	1	-10
362.256	1	4
362.427	1	-3
362.598	1	-2
362.769	1	-3
362.940	1	5
363.111	1	5
363.282	1	-5
363.453	1	1
363.624	1	-1
363.795	1	2
363.966	1	-1
364.137	1	-10
364.308	1	-5
364.478	1	0
364.649	1	-5
364.820	1	-6
364.991	1	4
365.162	1	-2
365.333	1	1
365.504	1	-9
365.675	1	4
365.846	1	-2
366.017	1	-10
366.188	1	-3
366.359	1	0
366.530	1	1
366.701	1	-5
366.871	1	8
367.042	1	-4
367.213	1	2
367.384	1	-11
367.555	1	9
367.726	1	5
367.897	1	3
368.068	1	-1
368.239	1	3
368.410	1	-1
368.581	1	6
368.752	1	-7
368.923	1	-2
369.093	1	1
369.264	1	1
369.435	1	-8
369.606	1	7
369.777	1	-5
369.948	1	6
370.119	1	3
370.290	1	-9
370.461	1	-3
370.632	1	-1
370.803	1	2
370.973	1	15
371.144	1	2
371.315	1	-6
371.486	1	5
371.657	1	3
371.828	1	0
371.999	1	-7
372.170	1	11
372.341	1	5
372.512	1	-3
372.682	1	2
372.853	1	-1
373.024	1	-4
373.195	1	-8
373.366	1	-5
373.537	1	0
373.708	1	4
373.879	1	12
374.050	1	-2
374.220	1	-1
374.391	1	2
374.562	1	2
374.733	1	13
374.904	1	10
375.075	1	5
375.246	1	4
375.417	1	-7
375.588	1	-6
375.758	1	-2
375.929	1	1
376.100	1	12
376.271	1	-6
376.442	1	3
376.613	1	2
376.784	1	2
376.955	1	-5
377.125	1	-3
377.296	1	-1
377.467	1	-6
377.638	1	-3
377.809	1	5
377.980	1	5
378.151	1	-4
378.321	1	-6
378.492	1	4
378.663	1	-19
378.834	1	4
379.005	1	14
379.176	1	-1
379.347	1	12
379.518	1	-12
379.688	1	-2
379.859	1	4
380.030	1	-6
380.201	1	-6
380.372	1	1
380.543	1	-2
380.714	1	7
380.884	1	-5
381.055	1	-2
381.226	1	1
381.397	1	-6
381.568	1	-2
381.739	1	10
381.910	1	-2
382.080	1	-17
382.251	1	2
382.422	1	5
382.593	1	2
382.764	1	-2
382.935	1	-3
383.105	1	3
383.276	1	-8
383.447	1	7
383.618	1	12
383.789	1	1
383.960	1	-3
384.130	1	-4
384.301	1	3
384.472	1	-6
384.643	1	8
384.814	1	12
384.985	1	2
385.156	1	13
385.326	1	8
385.497	1	9
385.668	1	7
385.839	1	7
386.010	1	6
386.180	1	10
386.351	1	-7
386.522	1	12
386.693	1	-3
386.864	1	-6
387.035	1	0
387.205	1	-6
387.376	1	2
387.547	1	0
387.718	1	18
387.889	1	4
388.060	1	-6
388.230	1	5
388.401	1	4
388.572	1	8
388.743	1	-1
388.914	1	19
389.084	1	2
389.255	1	8
389.426	1	4
389.597	1	-7
389.768	1	2
389.939	1	6
390.109	1	5
390.280	1	19
390.451	1	11
390.622	1	0
390.793	1	0
390.963	1	8
391.134	1	-8
391.305	1	4
391.476	1	10
391.647	1	-2
391.817	1	-1
391.988	1	2
392.159	1	7
392.330	1	15
392.501	1	-1
392.671	1	1
392.842	1	2
393.013	1	10
393.184	1	7
393.355	1	15
393.525	1	12
393.696	1	-9
393.867	1	6
394.038	1	-1
394.208	1	6
394.379	1	-4
394.550	1	3
394.721	1	5
394.892	1	11
395.062	1	-12
395.233	1	15
395.404	1	7
395.575	1	1
395.746	1	-1
395.916	1	2
396.087	1	-1
396.258	1	-4
396.429	1	9
396.599	1	0
396.770	1	6
396.941	1	11
397.112	1	-6
397.283	1	11
397.453	1	-9
397.624	1	2
397.795	1	10
397.966	1	11
398.136	1	9
398.307	1	3
398.478	1	-1
398.649	1	2
398.819	1	6
398.990	1	12
399.161	1	0
399.332	1	10
399.503	1	5
399.673	1	0
399.844	1	-1
400.015	1	-3
400.186	1	2
400.356	1	-1
400.527	1	0
400.698	1	2
400.869	1	14
401.039	1	-1
401.210	1	3
401.381	1	2
401.552	1	13
401.722	1	1
401.893	1	-11
402.064	1	1
402.235	1	11
402.405	1	3
402.576	1	12
402.747	1	-4
402.918	1	-1
403.088	1	1
403.259	1	-1
403.430	1	-10
403.601	1	-12
403.771	1	-3
403.942	1	12
404.113	1	11
404.284	1	1
404.454	1	5
404.625	1	4
404.796	1	1
404.967	1	-1
405.137	1	3
405.308	1	6
405.479	1	16
405.649	1	-4
405.820	1	-1
405.991	1	7
406.162	1	-6
406.332	1	-7
406.503	1	-1
406.674	1	-4
406.845	1	3
407.015	1	-7
407.186	1	9
407.357	1	4
407.527	1	0
407.698	1	-7
407.869	1	-7
408.040	1	-1
408.210	1	-3
408.381	1	-2
408.552	1	10
408.722	1	-6
408.893	1	0
409.064	1	6
409.235	1	-4
409.405	1	3
409.576	1	1
409.747	1	-2
409.917	1	4
410.088	1	1
410.259	1	5
410.430	1	5
410.600	1	-5
410.771	1	4
410.942	1	0
411.112	1	10
411.283	1	-3
411.454	1	11
411.625	1	0
411.795	1	1
411.966	1	4
412.137	1	9
412.307	1	0
412.478	1	10
412.649	1	-1
412.819	1	-1
412.990	1	5
413.161	1	-1
413.332	1	3
413.502	1	-7
413.673	1	9
413.844	1	3
414.014	1	-9
414.185	1	3
414.356	1	-5
414.526	1	-3
414.697	1	1
414.868	1	11
415.038	1	0
415.209	1	-1
415.380	1	-5
415.550	1	-5
415.721	1	4
415.892	1	-11
416.063	1	11
416.233	1	1
416.404	1	4
416.575	1	0
416.745	1	-4
416.916	1	4
417.087	1	-1
417.257	1	2
417.428	1	-8
417.599	1	1
417.769	1	3
417.940	1	-3
418.111	1	-7
418.281	1	-1
418.452	1	-1
418.623	1	2
418.793	1	2
418.964	1	7
419.135	1	5
419.305	1	-4
419.476	1	0
419.647	1	1
419.817	1	1
419.988	1	-7
420.159	1	-12
420.329	1	-4
420.500	1	1
420.671	1	3
420.841	1	14
421.012	1	8
421.183	1	5
421.353	1	16
421.524	1	4
421.695	1	8
421.865	1	5
422.036	1	3
422.206	1	-6
422.377	1	0
422.548	1	-1
422.718	1	-10
422.889	1	0
423.060	1	-10
423.230	1	6
423.401	1	3
423.572	1	-1
423.742	1	-8
423.913	1	11
424.084	1	2
424.254	1	0
424.425	1	7
424.595	1	-8
424.766	1	1
424.937	1	-1
425.107	1	1
425.278	1	-8
425.449	1	-1
425.619	1	1
425.790	1	-4
425.961	1	12
426.131	1	8
426.302	1	5
426.472	1	-13
426.643	1	4
426.814	1	8
426.984	1	7
427.155	1	-2
427.326	1	6
427.496	1	6
427.667	1	3
427.837	1	-1
428.008	1	1
428.179	1	-3
428.349	1	2
428.520	1	-11
428.691	1	5
428.861	1	-4
429.032	1	-2
429.202	1	11
429.373	1	-11
429.544	1	7
429.714	1	9
429.885	1	-7
430.055	1	3
430.226	1	-12
430.397	1	-4
430.567	1	5
430.738	1	0
430.909	1	-9
431.079	1	10
431.250	1	-8
431.420	1	3
431.591	1	6
431.762	1	8
431.932	1	5
432.103	1	1
432.273	1	-8
432.444	1	10
432.615	1	-3
432.785	1	-2
432.956	1	2
433.126	1	0
433.297	1	7
433.468	1	3
433.638	1	2
433.809	1	2
433.979	1	0
434.150	1	-6
434.320	1	-3
434.491	1	-2
434.662	1	-8
434.832	1	0
435.003	1	6
435.173	1	-4
435.344	1	5
435.515	1	2
435.685	1	8
435.856	1	-2
436.026	1	4
436.197	1	1
436.368	1	6
436.538	1	11
436.709	1	-1
436.879	1	-4
437.050	1	6
437.220	1	15
437.391	1	-3
437.562	1	10
437.732	1	-5
437.903	1	-1
438.073	1	12
438.244	1	-8
438.414	1	4
438.585	1	-2
438.756	1	5
438.926	1	-1
439.097	1	8
439.267	1	2
439.438	1	1
439.608	1	-3
439.779	1	-7
439.949	1	2
440.120	1	1
440.291	1	-9
440.461	1	-3
440.632	1	4
440.802	1	2
440.973	1	4
441.143	1	10
441.314	1	2
441.485	1	3
441.655	1	8
441.826	1	-10
441.996	1	0
442.167	1	2
442.337	1	-8
442.508	1	-3
442.678	1	-8
442.849	1	3
443.019	1	0
443.190	1	-7
443.361	1	-1
443.531	1	-3
443.702	1	2
443.872	1	-8
444.043	1	3
444.213	1	-2
444.384	1	3
444.554	1	5
444.725	1	5
444.895	1	-7
445.066	1	-15
445.237	1	1
445.407	1	-8
445.578	1	10
445.748	1	-3
445.919	1	-1
446.089	1	15
446.260	1	3
446.430	1	-14
446.601	1	-5
446.771	1	-9
446.942	1	3
447.112	1	-5
447.283	1	0
447.453	1	-5
447.624	1	0
447.794	1	1
447.965	1	-14
448.135	1	3
448.306	1	-3
448.477	1	-2
448.647	1	21
448.818	1	8
448.988	1	-14
449.159	1	-8
449.329	1	-1
449.500	1	12
449.670	1	5
449.841	1	0
450.011	1	6
450.182	1	-11
450.352	1	0
450.523	1	-3
450.693	1	-2
450.864	1	-2
451.034	1	6
451.205	1	1
451.375	1	4
451.546	1	-2
451.716	1	12
451.887	1	-3
452.057	1	14
452.228	1	6
452.398	1	-6
452.569	1	-3
452.739	1	1
452.910	1	5
453.080	1	9
453.251	1	-4
453.421	1	2
453.592	1	-1
453.762	1	-1
453.933	1	5
454.103	1	2
454.274	1	1
454.444	1	7
454.615	1	8
454.785	1	-7
454.956	1	-10
455.126	1	-2
455.297	1	2
455.467	1	4
455.638	1	8
455.808	1	-7
455.979	1	8
456.149	1	4
456.320	1	1
456.490	1	7
456.661	1	-3
456.831	1	15
457.001	1	4
457.172	1	-1
457.342	1	-1
457.513	1	10
457.683	1	-3
457.854	1	5
458.024	1	5
458.195	1	-4
458.365	1	5
458.536	1	7
458.706	1	-6
458.877	1	-9
459.047	1	4
459.218	1	8
459.388	1	-3
459.559	1	0
459.729	1	3
459.899	1	7
460.070	1	0
460.240	1	2
460.411	1	6
460.581	1	3
460.752	1	3
460.922	1	-2
461.093	1	18
461.263	1	3
461.434	1	1
461.604	1	-2
461.775	1	3
461.945	1	0
462.115	1	-4
462.286	1	1
462.456	1	3
462.627	1	-1
462.797	1	-2
462.968	1	0
463.138	1	12
463.309	1	5
463.479	1	8
463.649	1	-7
463.820	1	-1
463.990	1	-1
464.161	1	7
464.331	1	10
464.502	1	6
464.672	1	6
464.843	1	4
465.013	1	-3
465.183	1	3
465.354	1	2
465.524	1	6
465.695	1	6
465.865	1	-8
466.036	1	3
466.206	1	1
466.376	1	-3
466.547	1	-4
466.717	1	-2
466.888	1	-6
467.058	1	14
467.229	1	4
467.399	1	-3
467.569	1	8
467.740	1	-8
467.910	1	-4
468.081	1	7
468.251	1	-4
468.422	1	4
468.592	1	7
468.762	1	-7
468.933	1	4
469.103	1	-13
469.274	1	-5
469.444	1	-1
469.614	1	-6
469.785	1	5
469.955	1	-3
470.126	1	6
470.296	1	-5
470.467	1	-1
470.637	1	11
470.807	1	1
470.978	1	8
471.148	1	-8
471.319	1	14
471.489	1	-5
471.659	1	2
471.830	1	10
472.000	1	3
472.171	1	1
472.341	1	-7
472.511	1	2
472.682	1	4
472.852	1	-6
473.023	1	-7
473.193	1	-7
473.363	1	0
473.534	1	-1
473.704	1	9
473.875	1	-9
474.045	1	-9
474.215	1	0
474.386	1	5
474.556	1	-9
474.727	1	5
474.897	1	0
475.067	1	1
475.238	1	-8
475.408	1	2
475.578	1	-2
475.749	1	-6
475.919	1	-2
476.090	1	-12
476.260	1	-1
476.430	1	6
476.601	1	-6
476.771	1	5
476.942	1	4
477.112	1	-2
477.282	1	-4
477.453	1	-3
477.623	1	5
477.793	1	6
477.964	1	1
478.134	1	-3
478.305	1	1
478.475	1	3
478.645	1	4
478.816	1	-8
478.986	1	1
479.156	1	-7
479.327	1	-9
479.497	1	7
479.667	1	1
479.838	1	-2
480.008	1	12
480.179	1	8
480.349	1	8
480.519	1	-3
480.690	1	7
480.860	1	-5
481.030	1	-2
481.201	1	1
481.371	1	-1
481.541	1	1
481.712	1	6
481.882	1	-5
482.053	1	7
482.223	1	-9
482.393	1	-9
482.564	1	-6
482.734	1	7
482.904	1	3
483.075	1	19
483.245	1	-3
483.415	1	4
483.586	1	1
483.756	1	10
483.926	1	-1
484.097	1	-2
484.267	1	0
484.437	1	-8
484.608	1	7
484.778	1	4
484.948	1	0
485.119	1	0
485.289	1	11
485.459	1	14
485.630	1	-12
485.800	1	-4
485.970	1	4
486.141	1	-10
486.311	1	1
486.481	1	10
486.652	1	4
486.822	1	2
486.992	1	-5
487.163	1	-1
487.333	1	2
487.503	1	-9
487.674	1	-1
487.844	1	0
488.014	1	-5
488.185	1	-8
488.355	1	-11
488.525	1	-5
488.696	1	-14
488.866	1	4
489.036	1	-1
489.207	1	6
489.377	1	-4
489.547	1	-8
489.718	1	0
489.888	1	-4
490.058	1	-3
490.228	1	-5
490.399	1	12
490.569	1	0
490.739	1	5
490.910	1	-2
491.080	1	-1
491.250	1	-2
491.421	1	0
491.591	1	-11
491.761	1	4
491.932	1	1
492.102	1	-7
492.272	1	8
492.442	1	4
492.613	1	2
492.783	1	1
492.953	1	-1
493.124	1	-5
493.294	1	4
493.464	1	-9
493.635	1	-1
493.805	1	8
493.975	1	0
494.145	1	-2
494.316	1	0
494.486	1	1
494.656	1	-1
494.827	1	-13
494.997	1	-2
495.167	1	7
495.337	1	-6
495.508	1	-4
495.678	1	8
495.848	1	5
496.019	1	-15
496.189	1	-3
496.359	1	5
496.529	1	-2
496.700	1	-2
496.870	1	4
497.040	1	7
497.211	1	-1
497.381	1	-15
497.551	1	14
497.721	1	-1
497.892	1	14
498.062	1	2
498.232	1	3
498.403	1	1
498.573	1	-5
498.743	1	3
498.913	1	3
499.084	1	-6
499.254	1	-6
499.424	1	4
499.594	1	5
499.765	1	5
499.935	1	-5
500.105	1	5
500.275	1	11
500.446	1	3
500.616	1	1
500.786	1	-2
500.956	1	2
501.127	1	3
501.297	1	-3
501.467	1	-3
501.638	1	0
501.808	1	-6
501.978	1	-2
502.148	1	-1
502.319	1	1
502.489	1	1
502.659	1	-8
502.829	1	11
503.000	1	9
503.170	1	11
503.340	1	-5
503.510	1	5
503.681	1	-2
503.851	1	-21
504.021	1	15
504.191	1	5
504.362	1	16
504.532	1	-6
504.702	1	11
504.872	1	-5
505.042	1	1
505.213	1	0
505.383	1	-4
505.553	1	2
505.723	1	10
505.894	1	1
506.064	1	4
506.234	1	6
506.404	1	0
506.575	1	-3
506.745	1	2
506.915	1	-1
507.085	1	-12
507.256	1	3
507.426	1	6
507.596	1	2
507.766	1	-1
507.936	1	6
508.107	1	6
508.277	1	0
508.447	1	-4
508.617	1	8
508.788	1	-4
508.958	1	9
509.128	1	6
509.298	1	4
509.468	1	10
509.639	1	3
509.809	1	18
509.979	1	3
510.149	1	-8
510.319	1	-6
510.490	1	8
510.660	1	1
510.830	1	-2
511.000	1	0
511.171	1	6
511.341	1	-10
511.511	1	3
511.681	1	9
511.851	1	-2
512.022	1	-5
512.192	1	3
512.362	1	7
512.532	1	-10
512.702	1	-7
512.873	1	18
513.043	1	4
513.213	1	-9
513.383	1	-4
513.553	1	-5
513.724	1	11
513.894	1	4
514.064	1	14
514.234	1	4
514.404	1	-1
514.575	1	11
514.745	1	-6
514.915	1	6
515.085	1	-6
515.255	1	-6
515.425	1	-8
515.596	1	-4
515.766	1	2
515.936	1	4
516.106	1	3
516.276	1	8
516.447	1	-4
516.617	1	-2
516.787	1	8
516.957	1	0
517.127	1	2
517.297	1	-2
517.468	1	0
517.638	1	6
517.808	1	-3
517.978	1	2
518.148	1	3
518.319	1	-6
518.489	1	1
518.659	1	5
518.829	1	-8
518.999	1	-4
519.169	1	5
519.340	1	-4
519.510	1	0
519.680	1	-6
519.850	1	-12
520.020	1	-2
520.190	1	-2
520.361	1	-2
520.531	1	10
520.701	1	-1
520.871	1	-2
521.041	1	4
521.211	1	1
521.382	1	-3
521.552	1	1
521.722	1	6
521.892	1	-11
522.062	1	-5
522.232	1	-4
522.402	1	-2
522.573	1	2
522.743	1	18
522.913	1	-2
523.083	1	-2
523.253	1	1
523.423	1	-4
523.593	1	-11
523.764	1	7
523.934	1	9
524.104	1	-4
524.274	1	-4
524.444	1	9
524.614	1	5
524.784	1	1
524.955	1	1
525.125	1	0
525.295	1	-4
525.465	1	-1
525.635	1	6
525.805	1	-1
525.975	1	-19
526.146	1	-1
526.316	1	-9
526.486	1	-2
526.656	1	21
526.826	1	12
526.996	1	7
527.166	1	5
527.337	1	-1
527.507	1	-7
527.677	1	12
527.847	1	-9
528.017	1	-7
528.187	1	4
528.357	1	2
528.527	1	-3
528.698	1	6
528.868	1	5
529.038	1	3
529.208	1	2
529.378	1	9
529.548	1	2
529.718	1	-1
529.888	1	4
530.058	1	-2
530.229	1	4
530.399	1	9
530.569	1	6
530.739	1	1
530.909	1	7
531.079	1	10
531.249	1	1
531.419	1	10
531.589	1	-13
531.760	1	2
531.930	1	-4
532.100	1	7
532.270	1	14
532.440	1	8
532.610	1	2
532.780	1	0
532.950	1	10
533.120	1	-5
533.290	1	-9
533.461	1	12
533.631	1	-7
533.801	1	8
533.971	1	4
534.141	1	5
534.311	1	0
534.481	1	8
534.651	1	2
534.821	1	14
534.991	1	1
535.162	1	2
535.332	1	-1
535.502	1	3
535.672	1	-14
535.842	1	1
536.012	1	4
536.182	1	-7
536.352	1	7
536.522	1	0
536.692	1	-8
536.862	1	8
537.032	1	2
537.203	1	1
537.373	1	-3
537.543	1	-1
537.713	1	6
537.883	1	15
538.053	1	11
538.223	1	7
538.393	1	13
538.563	1	4
538.733	1	-5
538.903	1	-10
539.073	1	0
539.243	1	0
539.413	1	-11
539.584	1	-4
539.754	1	-1
539.924	1	2
540.094	1	5
540.264	1	2
540.434	1	-5
540.604	1	7
540.774	1	1
540.944	1	1
541.114	1	-8
541.284	1	0
541.454	1	4
541.624	1	-3
541.794	1	-3
541.964	1	1
542.134	1	8
542.305	1	-14
542.475	1	-8
542.645	1	-4
542.815	1	18
542.985	1	-2
543.155	1	-4
543.325	1	-1
543.495	1	8
543.665	1	7
543.835	1	4
544.005	1	-2
544.175	1	10
544.345	1	-1
544.515	1	-9
544.685	1	3
544.855	1	5
545.025	1	-8
545.195	1	4
545.365	1	1
545.535	1	11
545.705	1	8
545.875	1	2
546.045	1	-2
546.216	1	12
546.386	1	6
546.556	1	-11
546.726	1	3
546.896	1	5
547.066	1	-2
547.236	1	-1
547.406	1	12
547.576	1	7
547.746	1	9
547.916	1	6
548.086	1	3
548.256	1	-2
548.426	1	0
548.596	1	2
548.766	1	11
548.936	1	1
549.106	1	-4
549.276	1	9
549.446	1	2
549.616	1	11
549.786	1	5
549.956	1	1
550.126	1	-3
550.296	1	6
550.466	1	2
550.636	1	11
550.806	1	10
550.976	1	3
551.146	1	-10
551.316	1	7
551.486	1	3
551.656	1	-6
551.826	1	10
551.996	1	-2
552.166	1	1
552.336	1	1
552.506	1	-6
552.676	1	-1
552.846	1	5
553.016	1	-5
553.186	1	3
553.356	1	2
553.526	1	-3
553.696	1	15
553.866	1	8
554.036	1	-2
554.206	1	4
554.376	1	4
554.546	1	-9
554.716	1	2
554.886	1	-4
555.056	1	-4
555.226	1	-4
555.396	1	-6
555.566	1	6
555.736	1	1
555.906	1	-4
556.076	1	8
556.246	1	3
556.416	1	-1
556.586	1	10
556.756	1	-5
556.926	1	4
557.096	1	0
557.266	1	8
557.436	1	10
557.606	1	-1
557.776	1	-10
557.946	1	6
558.116	1	-2
558.286	1	7
558.456	1	-2
558.626	1	3
558.796	1	-1
558.966	1	2
559.136	1	2
559.306	1	-7
559.476	1	4
559.646	1	-4
559.816	1	9
559.986	1	-3
560.155	1	-7
560.325	1	-7
560.495	1	9
560.665	1	7
560.835	1	0
561.005	1	6
561.175	1	6
561.345	1	0
561.515	1	-1
561.685	1	4
561.855	1	-3
562.025	1	5
562.195	1	5
562.365	1	4
562.535	1	4
562.705	1	8
562.875	1	-1
563.045	1	7
563.215	1	-2
563.385	1	-8
563.555	1	10
563.725	1	-1
563.895	1	-5
564.064	1	15
564.234	1	1
564.404	1	-5
564.574	1	-6
564.744	1	-2
564.914	1	-12
565.084	1	-7
565.254	1	2
565.424	1	-3
565.594	1	-3
565.764	1	10
565.934	1	1
566.104	1	-3
566.274	1	5
566.444	1	4
566.614	1	-1
566.783	1	1
566.953	1	-1
567.123	1	12
567.293	1	-2
567.463	1	-4
567.633	1	-2
567.803	1	-5
567.973	1	-8
568.143	1	-11
568.313	1	-11
568.483	1	-8
568.653	1	-8
568.823	1	9
568.993	1	-13
569.162	1	2
569.332	1	0
569.502	1	1
569.672	1	-3
569.842	1	0
570.012	1	-4
570.182	1	-7
570.352	1	12
570.522	1	7
570.692	1	-9
570.862	1	12
571.031	1	6
571.201	1	2
571.371	1	-4
571.541	1	-2
571.711	1	-5
571.881	1	4
572.051	1	0
572.221	1	7
572.391	1	3
572.561	1	3
572.731	1	-1
572.900	1	15
573.070	1	6
573.240	1	-4
573.410	1	0
573.580	1	3
573.750	1	-3
573.920	1	1
574.090	1	11
574.260	1	-6
574.430	1	-9
574.599	1	-2
574.769	1	-3
574.939	1	-3
575.109	1	-2
575.279	1	9
575.449	1	5
575.619	1	2
575.789	1	6
575.959	1	0
576.128	1	3
576.298	1	-12
576.468	1	1
576.638	1	5
576.808	1	-1
576.978	1	-1
577.148	1	3
577.318	1	13
577.487	1	-2
577.657	1	-16
577.827	1	15
577.997	1	-11
578.167	1	1
578.337	1	-4
578.507	1	0
578.677	1	5
578.846	1	-3
579.016	1	13
579.186	1	-6
579.356	1	-6
579.526	1	2
579.696	1	8
579.866	1	6
580.036	1	5
580.205	1	1
580.375	1	-4
580.545	1	4
580.715	1	5
580.885	1	2
581.055	1	2
581.225	1	-4
581.394	1	6
581.564	1	-9
581.734	1	7
581.904	1	4
582.074	1	1
582.244	1	2
582.414	1	0
582.583	1	-10
582.753	1	5
582.923	1	4
583.093	1	-9
583.263	1	11
583.433	1	-11
583.603	1	3
583.772	1	1
583.942	1	11
584.112	1	-1
584.282	1	7
584.452	1	2
584.622	1	2
584.791	1	-8
584.961	1	10
585.131	1	-4
585.301	1	-3
585.471	1	-4
585.641	1	4
585.811	1	-3
585.980	1	-8
586.150	1	1
586.320	1	-10
586.490	1	3
586.660	1	2
586.830	1	-13
586.999	1	3
587.169	1	-6
587.339	1	3
587.509	1	10
587.679	1	-1
587.849	1	7
588.018	1	0
588.188	1	-2
588.358	1	8
588.528	1	0
588.698	1	-5
588.867	1	4
589.037	1	2
589.207	1	-10
589.377	1	8
589.547	1	-4
589.717	1	-4
589.886	1	-3
590.056	1	-12
590.226	1	1
590.396	1	13
590.566	1	1
590.735	1	7
590.905	1	-2
591.075	1	-5
591.245	1	-9
591.415	1	7
591.585	1	-11
591.754	1	5
591.924	1	-1
592.094	1	-1
592.264	1	5
592.434	1	-3
592.603	1	-4
592.773	1	3
592.943	1	3
593.113	1	-7
593.283	1	5
593.452	1	-8
593.622	1	0
593.792	1	1
593.962	1	6
594.132	1	14
594.301	1	11
594.471	1	-4
594.641	1	7
594.811	1	-8
594.981	1	-5
595.150	1	-1
595.320	1	11
595.490	1	-12
595.660	1	-6
595.829	1	0
595.999	1	3
596.169	1	-1
596.339	1	8
596.509	1	1
596.678	1	0
596.848	1	2
597.018	1	6
597.188	1	3
597.358	1	-1
597.527	1	-7
597.697	1	-12
597.867	1	2
598.037	1	-5
598.206	1	-11
598.376	1	-2
598.546	1	6
598.716	1	-12
598.885	1	-7
599.055	1	-1
599.225	1	-2
599.395	1	3
599.565	1	3
599.734	1	-6
599.904	1	-4
600.074	1	-1
600.244	1	12
600.413	1	-3
600.583	1	-7
600.753	1	1
600.923	1	3
601.092	1	-13
601.262	1	5
601.432	1	0
601.602	1	3
601.771	1	12
601.941	1	0
602.111	1	-3
602.281	1	3
602.451	1	6
602.620	1	12
602.790	1	1
602.960	1	-7
603.130	1	3
603.299	1	3
603.469	1	-1
603.639	1	6
603.809	1	8
603.978	1	-2
604.148	1	-1
604.318	1	4
604.487	1	5
604.657	1	2
604.827	1	-8
604.997	1	1
605.166	1	2
605.336	1	5
605.506	1	2
605.676	1	-3
605.845	1	-3
606.015	1	1
606.185	1	7
606.355	1	7
606.524	1	-5
606.694	1	10
606.864	1	-7
607.034	1	-7
607.203	1	12
607.373	1	0
607.543	1	-9
607.712	1	8
607.882	1	-10
608.052	1	2
608.222	1	3
608.391	1	-6
608.561	1	11
608.731	1	-10
608.901	1	4
609.070	1	2
609.240	1	-5
609.410	1	-7
609.579	1	0
609.749	1	3
609.919	1	-10
610.089	1	0
610.258	1	13
610.428	1	-2
610.598	1	-3
610.767	1	-2
610.937	1	-3
611.107	1	5
611.277	1	2
611.446	1	-3
611.616	1	-15
611.786	1	5
611.955	1	10
612.125	1	10
612.295	1	3
612.465	1	-9
612.634	1	-2
612.804	1	9
612.974	1	-1
613.143	1	-2
613.313	1	6
613.483	1	1
613.652	1	-9
613.822	1	3
613.992	1	-2
614.162	1	-1
614.331	1	1
614.501	1	-3
614.671	1	1
614.840	1	9
615.010	1	-2
615.180	1	-4
615.349	1	0
615.519	1	3
615.689	1	3
615.858	1	-3
616.028	1	-1
616.198	1	0
616.368	1	-2
616.537	1	-10
616.707	1	0
616.877	1	-2
617.046	1	2
617.216	1	3
617.386	1	-4
617.555	1	-4
617.725	1	5
617.895	1	-4
618.064	1	10
618.234	1	-4
618.404	1	3
618.573	1	3
618.743	1	7
618.913	1	-3
619.082	1	7
619.252	1	0
619.422	1	-1
619.591	1	3
619.761	1	-1
619.931	1	7
620.100	1	6
620.270	1	-8
620.440	1	7
620.609	1	7
620.779	1	4
620.949	1	-2
621.118	1	3
621.288	1	10
621.458	1	2
621.627	1	-13
621.797	1	2
621.967	1	-1
622.136	1	-6
622.306	1	10
622.476	1	0
622.645	1	11
622.815	1	-4
622.985	1	7
623.154	1	3
623.324	1	7
623.494	1	8
623.663	1	-6
623.833	1	0
624.002	1	-10
624.172	1	8
624.342	1	-9
624.511	1	4
624.681	1	-7
624.851	1	-7
625.020	1	3
625.190	1	1
625.360	1	-2
625.529	1	0
625.699	1	-6
625.869	1	0
626.038	1	-1
626.208	1	1
626.377	1	13
626.547	1	9
626.717	1	2
626.886	1	-7
627.056	1	2
627.226	1	7
627.395	1	2
627.565	1	9
627.735	1	5
627.904	1	-3
628.074	1	0
628.243	1	-4
628.413	1	-9
628.583	1	4
628.752	1	14
628.922	1	-7
629.091	1	4
629.261	1	7
629.431	1	-12
629.600	1	13
629.770	1	4
629.940	1	-2
630.109	1	2
630.279	1	0
630.448	1	-7
630.618	1	0
630.788	1	1
630.957	1	-9
631.127	1	1
631.297	1	-3
631.466	1	7
631.636	1	-3
631.805	1	5
631.975	1	3
632.145	1	-18
632.314	1	7
632.484	1	-7
632.653	1	-7
632.823	1	7
632.993	1	2
633.162	1	3
633.332	1	6
633.501	1	0
633.671	1	-3
633.841	1	-2
634.010	1	-6
634.180	1	-6
634.349	1	1
634.519	1	1
634.689	1	5
634.858	1	5
635.028	1	13
635.197	1	-4
635.367	1	2
635.537	1	-6
635.706	1	-8
635.876	1	1
636.045	1	-1
636.215	1	-2
636.384	1	5
636.554	1	6
636.724	1	1
636.893	1	-1
637.063	1	7
637.232	1	0
637.402	1	-2
637.572	1	-4
637.741	1	1
637.911	1	-7
638.080	1	1
638.250	1	5
638.419	1	7
638.589	1	7
638.759	1	1
638.928	1	-9
639.098	1	-4
639.267	1	0
639.437	1	1
639.606	1	11
639.776	1	-3
639.946	1	2
640.115	1	0
640.285	1	5
640.454	1	7
640.624	1	11
640.793	1	7
640.963	1	-3
641.132	1	5
641.302	1	8
641.472	1	-2
641.641	1	-4
641.811	1	2
641.980	1	4
642.150	1	-11
642.319	1	0
642.489	1	4
642.659	1	-8
642.828	1	4
642.998	1	-4
643.167	1	6
643.337	1	5
643.506	1	-3
643.676	1	-8
643.845	1	5
644.015	1	-2
644.184	1	-1
644.354	1	-3
644.524	1	-9
644.693	1	7
644.863	1	-6
645.032	1	1
645.202	1	0
645.371	1	-4
645.541	1	-6
645.710	1	1
645.880	1	-4
646.049	1	7
646.219	1	-5
646.388	1	-8
646.558	1	-3
646.728	1	9
646.897	1	-13
647.067	1	9
647.236	1	4
647.406	1	-4
647.575	1	0
647.745	1	9
647.914	1	-10
648.084	1	-3
648.253	1	6
648.423	1	-4
648.592	1	3
648.762	1	3
648.931	1	3
649.101	1	0
649.270	1	9
649.440	1	-2
649.610	1	6
649.779	1	-3
649.949	1	-1
650.118	1	-11
650.288	1	-4
650.457	1	-3
650.627	1	-8
650.796	1	-3
650.966	1	-4
651.135	1	1
651.305	1	0
651.474	1	4
651.644	1	-9
651.813	1	6
651.983	1	-3
652.152	1	2
652.322	1	9
652.491	1	2
652.661	1	0
652.830	1	12
653.000	1	1
653.169	1	5
653.339	1	-3
653.508	1	-2
653.678	1	6
653.847	1	4
654.017	1	6
654.186	1	4
654.356	1	3
654.525	1	-3
654.695	1	-1
654.864	1	-8
655.034	1	-5
655.203	1	6
655.373	1	2
655.542	1	-4
655.712	1	0
655.881	1	-1
656.051	1	11
656.220	1	9
656.390	1	6
656.559	1	-10
656.729	1	-1
656.898	1	-2
657.068	1	-3
657.237	1	8
657.406	1	7
657.576	1	-6
657.745	1	-3
657.915	1	10
658.084	1	9
658.254	1	5
658.423	1	-10
658.593	1	-13
658.762	1	-6
658.932	1	-2
659.101	1	0
659.271	1	4
659.440	1	13
659.610	1	-1
659.779	1	0
659.949	1	-6
660.118	1	-8
660.288	1	3
660.457	1	1
660.626	1	-11
660.796	1	-7
660.965	1	6
661.135	1	4
661.304	1	3
661.474	1	2
661.643	1	2
661.813	1	1
661.982	1	2
662.152	1	2
662.321	1	-6
662.491	1	1
662.660	1	4
662.829	1	-13
662.999	1	1
663.168	1	0
663.338	1	-7
663.507	1	-7
663.677	1	-13
663.846	1	8
664.016	1	-5
664.185	1	-3
664.354	1	12
664.524	1	-11
664.693	1	-3
664.863	1	5
665.032	1	3
665.202	1	-14
665.371	1	10
665.541	1	-5
665.710	1	-11
665.879	1	1
666.049	1	-2
666.218	1	-8
666.388	1	3
666.557	1	5
666.727	1	-11
666.896	1	-6
667.065	1	4
667.235	1	-3
667.404	1	-6
667.574	1	5
667.743	1	-6
667.913	1	2
668.082	1	4
668.251	1	1
668.421	1	-3
668.590	1	-6
668.760	1	-6
668.929	1	-1
669.099	1	-14
669.268	1	1
669.437	1	1
669.607	1	-10
669.776	1	-5
669.946	1	14
670.115	1	8
670.285	1	4
670.454	1	0
670.623	1	6
670.793	1	-4
670.962	1	-2
671.132	1	8
671.301	1	4
671.470	1	-10
671.640	1	-16
671.809	1	-2
671.979	1	6
672.148	1	-2
672.317	1	2
672.487	1	-4
672.656	1	-1
672.826	1	-5
672.995	1	3
673.164	1	8
673.334	1	10
673.503	1	-2
673.673	1	8
673.842	1	8
674.011	1	9
674.181	1	-10
674.350	1	-4
674.520	1	-7
674.689	1	-2
674.858	1	-2
675.028	1	-2
675.197	1	-5
675.367	1	2
675.536	1	8
675.705	1	-8
675.875	1	-1
676.044	1	-9
676.214	1	3
676.383	1	0
676.552	1	-9
676.722	1	8
676.891	1	-16
677.060	1	-1
677.230	1	4
677.399	1	-2
677.569	1	4
677.738	1	-4
677.907	1	-10
678.077	1	4
678.246	1	-10
678.416	1	1
678.585	1	15
678.754	1	-4
678.924	1	-8
679.093	1	5
679.262	1	-1
679.432	1	-14
679.601	1	-8
679.771	1	-3
679.940	1	10
680.109	1	15
680.279	1	-6
680.448	1	8
680.617	1	-3
680.787	1	0
680.956	1	-11
681.125	1	6
681.295	1	9
681.464	1	-1
681.634	1	9
681.803	1	-9
681.972	1	-11
682.142	1	13
682.311	1	-1
682.480	1	-6
682.650	1	-3
682.819	1	-5
682.988	1	-2
683.158	1	-2
683.327	1	12
683.496	1	-7
683.666	1	2
683.835	1	-1
684.004	1	-1
684.174	1	-2
684.343	1	-2
684.512	1	-1
684.682	1	5
684.851	1	-2
685.021	1	1
685.190	1	6
685.359	1	-5
685.529	1	2
685.698	1	-4
685.867	1	4
686.037	1	1
686.206	1	1
686.375	1	4
686.545	1	9
686.714	1	-7
686.883	1	-4
687.053	1	4
687.222	1	-10
687.391	1	-8
687.561	1	-3
687.730	1	0
687.899	1	-1
688.069	1	-3
688.238	1	-2
688.407	1	6
688.577	1	-2
688.746	1	1
