340.368	1	3
340.539	1	7
340.710	1	-1
340.881	1	6
341.052	1	9
341.223	1	12
341.394	1	5
341.565	1	-6
341.737	1	11
341.908	1	10
342.079	1	-1
342.250	1	2
342.421	1	-4
342.592	1	-1
342.763	1	2
342.934	1	5
343.105	1	7
343.276	1	-9
343.447	1	7
343.618	1	5
343.789	1	-3
343.960	1	-6
344.131	1	-5
344.302	1	4
344.473	1	-1
344.644	1	-4
344.815	1	11
344.986	1	2
345.157	1	8
345.328	1	2
345.499	1	11
345.670	1	3
345.841	1	-4
346.012	1	11
346.183	1	7
346.354	1	-4
346.526	1	9
346.697	1	5
346.868	1	7
347.039	1	0
347.210	1	8
347.381	1	3
347.552	1	-3
347.723	1	3
347.894	1	1
348.065	1	-6
348.236	1	2
348.407	1	3
348.578	1	8
348.749	1	1
348.920	1	14
349.091	1	3
349.262	1	4
349.433	1	-7
349.604	1	11
349.775	1	20
349.946	1	19
350.117	1	6
350.288	1	6
350.459	1	-4
350.630	1	-1
350.801	1	11
350.972	1	4
351.143	1	-10
351.314	1	2
351.485	1	0
351.656	1	4
351.827	1	4
351.998	1	5
352.169	1	7
352.340	1	5
352.511	1	1
352.682	1	-1
352.853	1	-15
353.024	1	0
353.195	1	-1
353.366	1	6
353.537	1	3
353.708	1	5
353.879	1	6
354.050	1	9
354.221	1	6
354.392	1	5
354.563	1	20
354.734	1	0
354.905	1	12
355.076	1	9
355.247	1	-7
355.418	1	1
355.589	1	-4
355.760	1	10
355.931	1	2
356.102	1	-5
356.273	1	2
356.444	1	8
356.615	1	3
356.785	1	17
356.956	1	4
357.127	1	8
357.298	1	0
357.469	1	-2
357.640	1	12
357.811	1	5
357.982	1	-7
358.153	1	5
358.324	1	0
358.495	1	1
358.666	1	4
358.837	1	5
359.008	1	8
359.179	1	0
359.350	1	3
359.521	1	9
359.692	1	-2
359.863	1	-1
360.034	1	-4
360.205	1	-3
360.376	1	10
360.547	1	-4
360.718	1	-2
360.889	1	6
361.060	1	6
361.231	1	4
361.401	1	13
361.572	1	-2
361.743	1	6
361.914	1	-1
362.085	1	5
362.256	1	13
362.427	1	-10
362.598	1	8
362.769	1	13
362.940	1	-1
363.111	1	13
363.282	1	8
363.453	1	0
363.624	1	3
363.795	1	4
363.966	1	2
364.137	1	-1
364.308	1	9
364.478	1	5
364.649	1	15
364.820	1	5
364.991	1	10
365.162	1	-6
365.333	1	5
365.504	1	2
365.675	1	-7
365.846	1	8
366.017	1	3
366.188	1	1
366.359	1	13
366.530	1	19
366.701	1	3
366.871	1	4
367.042	1	7
367.213	1	11
367.384	1	9
367.555	1	0
367.726	1	15
367.897	1	11
368.068	1	12
368.239	1	11
368.410	1	1
368.581	1	6
368.752	1	-5
368.923	1	3
369.093	1	2
369.264	1	9
369.435	1	4
369.606	1	4
369.777	1	1
369.948	1	7
370.119	1	12
370.290	1	-1
370.461	1	11
370.632	1	8
370.803	1	1
370.973	1	18
371.144	1	16
371.315	1	15
371.486	1	11
371.657	1	7
371.828	1	18
371.999	1	9
372.170	1	12
372.341	1	9
372.512	1	7
372.682	1	4
372.853	1	5
373.024	1	2
373.195	1	-1
373.366	1	4
373.537	1	1
373.708	1	11
373.879	1	14
374.050	1	9
374.220	1	-3
374.391	1	7
374.562	1	2
374.733	1	17
374.904	1	7
375.075	1	6
375.246	1	-3
375.417	1	7
375.588	1	7
375.758	1	3
375.929	1	17
376.100	1	10
376.271	1	-3
376.442	1	2
376.613	1	9
376.784	1	-3
376.955	1	1
377.125	1	-3
377.296	1	11
377.467	1	6
377.638	1	7
377.809	1	15
377.980	1	13
378.151	1	-7
378.321	1	5
378.492	1	-3
378.663	1	-4
378.834	1	11
379.005	1	7
379.176	1	-1
379.347	1	6
379.518	1	-5
379.688	1	-6
379.859	1	6
380.030	1	1
380.201	1	-7
380.372	1	-1
380.543	1	24
380.714	1	9
380.884	1	-10
381.055	1	-2
381.226	1	11
381.397	1	2
381.568	1	2
381.739	1	10
381.910	1	0
382.080	1	-14
382.251	1	12
382.422	1	13
382.593	1	5
382.764	1	3
382.935	1	7
383.105	1	9
383.276	1	1
383.447	1	17
383.618	1	10
383.789	1	6
383.960	1	8
384.130	1	4
384.301	1	6
384.472	1	-2
384.643	1	13
384.814	1	12
384.985	1	5
385.156	1	10
385.326	1	19
385.497	1	16
385.668	1	2
385.839	1	1
386.010	1	7
386.180	1	7
386.351	1	2
386.522	1	16
386.693	1	10
386.864	1	8
387.035	1	8
387.205	1	6
387.376	1	19
387.547	1	2
387.718	1	19
387.889	1	19
388.060	1	6
388.230	1	9
388.401	1	13
388.572	1	10
388.743	1	13
388.914	1	11
389.084	1	14
389.255	1	17
389.426	1	23
389.597	1	4
389.768	1	3
389.939	1	5
390.109	1	10
390.280	1	13
390.451	1	18
390.622	1	1
390.793	1	8
390.963	1	10
391.134	1	13
391.305	1	24
391.476	1	14
391.647	1	2
391.817	1	17
391.988	1	10
392.159	1	19
392.330	1	3
392.501	1	10
392.671	1	16
392.842	1	12
393.013	1	9
393.184	1	21
393.355	1	17
393.525	1	16
393.696	1	3
393.867	1	6
394.038	1	1
394.208	1	11
394.379	1	9
394.550	1	10
394.721	1	15
394.892	1	3
395.062	1	3
395.233	1	20
395.404	1	5
395.575	1	7
395.746	1	3
395.916	1	18
396.087	1	3
396.258	1	2
396.429	1	9
396.599	1	9
396.770	1	19
396.941	1	17
397.112	1	4
397.283	1	13
397.453	1	12
397.624	1	6
397.795	1	13
397.966	1	10
398.136	1	16
398.307	1	8
398.478	1	-1
398.649	1	10
398.819	1	20
398.990	1	7
399.161	1	12
399.332	1	19
399.503	1	10
399.673	1	5
399.844	1	13
400.015	1	12
400.186	1	23
400.356	1	-2
400.527	1	13
400.698	1	3
400.869	1	18
401.039	1	0
401.210	1	2
401.381	1	8
401.552	1	20
401.722	1	8
401.893	1	12
402.064	1	13
402.235	1	22
402.405	1	3
402.576	1	16
402.747	1	-1
402.918	1	-1
403.088	1	6
403.259	1	0
403.430	1	8
403.601	1	4
403.771	1	8
403.942	1	9
404.113	1	26
404.284	1	4
404.454	1	15
404.625	1	9
404.796	1	10
404.967	1	12
405.137	1	6
405.308	1	10
405.479	1	9
405.649	1	7
405.820	1	7
405.991	1	21
406.162	1	-2
406.332	1	-2
406.503	1	2
406.674	1	15
406.845	1	12
407.015	1	-1
407.186	1	15
407.357	1	6
407.527	1	7
407.698	1	5
407.869	1	4
408.040	1	-6
408.210	1	2
408.381	1	3
408.552	1	6
408.722	1	10
408.893	1	-3
409.064	1	6
409.235	1	1
409.405	1	14
409.576	1	8
409.747	1	9
409.917	1	3
410.088	1	15
410.259	1	4
410.430	1	16
410.600	1	3
410.771	1	3
410.942	1	10
411.112	1	7
411.283	1	1
411.454	1	9
411.625	1	11
411.795	1	8
411.966	1	8
412.137	1	-1
412.307	1	5
412.478	1	11
412.649	1	11
412.819	1	7
412.990	1	3
413.161	1	4
413.332	1	-1
413.502	1	0
413.673	1	6
413.844	1	10
414.014	1	8
414.185	1	7
414.356	1	-4
414.526	1	14
414.697	1	14
414.868	1	12
415.038	1	3
415.209	1	3
415.380	1	-3
415.550	1	-13
415.721	1	10
415.892	1	3
416.063	1	11
416.233	1	12
416.404	1	2
416.575	1	8
416.745	1	-3
416.916	1	14
417.087	1	3
417.257	1	13
417.428	1	2
417.599	1	13
417.769	1	12
417.940	1	0
418.111	1	2
418.281	1	2
418.452	1	8
418.623	1	-1
418.793	1	13
418.964	1	12
419.135	1	-1
419.305	1	0
419.476	1	13
419.647	1	13
419.817	1	4
419.988	1	-7
420.159	1	-3
420.329	1	12
420.500	1	2
420.671	1	-2
420.841	1	13
421.012	1	15
421.183	1	8
421.353	1	4
421.524	1	1
421.695	1	3
421.865	1	4
422.036	1	-2
422.206	1	8
422.377	1	2
422.548	1	3
422.718	1	0
422.889	1	2
423.060	1	9
423.230	1	11
423.401	1	2
423.572	1	-1
423.742	1	3
423.913	1	11
424.084	1	4
424.254	1	4
424.425	1	7
424.595	1	-2
424.766	1	10
424.937	1	2
425.107	1	3
425.278	1	-8
425.449	1	9
425.619	1	-3
425.790	1	-2
425.961	1	-1
426.131	1	6
426.302	1	-9
426.472	1	-11
426.643	1	9
426.814	1	17
426.984	1	7
427.155	1	8
427.326	1	9
427.496	1	9
427.667	1	11
427.837	1	1
428.008	1	9
428.179	1	-10
428.349	1	-6
428.520	1	5
428.691	1	1
428.861	1	4
429.032	1	-4
429.202	1	9
429.373	1	-4
429.544	1	0
429.714	1	7
429.885	1	-4
430.055	1	-1
430.226	1	11
430.397	1	-1
430.567	1	14
430.738	1	1
430.909	1	-1
431.079	1	13
431.250	1	-8
431.420	1	1
431.591	1	-2
431.762	1	7
431.932	1	6
432.103	1	0
432.273	1	7
432.444	1	8
432.615	1	10
432.785	1	3
432.956	1	3
433.126	1	7
433.297	1	16
433.468	1	3
433.638	1	6
433.809	1	6
433.979	1	2
434.150	1	-9
434.320	1	2
434.491	1	6
434.662	1	-3
434.832	1	3
435.003	1	7
435.173	1	9
435.344	1	0
435.515	1	7
435.685	1	8
435.856	1	-2
436.026	1	6
436.197	1	8
436.368	1	0
436.538	1	8
436.709	1	-5
436.879	1	0
437.050	1	4
437.220	1	13
437.391	1	14
437.562	1	10
437.732	1	5
437.903	1	1
438.073	1	14
438.244	1	-3
438.414	1	6
438.585	1	4
438.756	1	5
438.926	1	9
439.097	1	12
439.267	1	11
439.438	1	6
439.608	1	9
439.779	1	1
439.949	1	-8
440.120	1	2
440.291	1	-7
440.461	1	-7
440.632	1	0
440.802	1	7
440.973	1	6
441.143	1	10
441.314	1	14
441.485	1	10
441.655	1	18
441.826	1	-10
441.996	1	-1
442.167	1	0
442.337	1	0
442.508	1	0
442.678	1	0
442.849	1	15
443.019	1	6
443.190	1	-4
443.361	1	10
443.531	1	3
443.702	1	0
443.872	1	2
444.043	1	2
444.213	1	6
444.384	1	1
444.554	1	-10
444.725	1	2
444.895	1	-2
445.066	1	-8
445.237	1	0
445.407	1	-4
445.578	1	7
445.748	1	-4
445.919	1	1
446.089	1	21
446.260	1	0
446.430	1	-10
446.601	1	2
446.771	1	2
446.942	1	5
447.112	1	6
447.283	1	11
447.453	1	-9
447.624	1	5
447.794	1	-5
447.965	1	-5
448.135	1	5
448.306	1	5
448.477	1	3
448.647	1	16
448.818	1	8
448.988	1	-3
449.159	1	3
449.329	1	3
449.500	1	6
449.670	1	3
449.841	1	0
450.011	1	8
450.182	1	-6
450.352	1	0
450.523	1	4
450.693	1	9
450.864	1	6
451.034	1	0
451.205	1	10
451.375	1	14
451.546	1	-2
451.716	1	6
451.887	1	4
452.057	1	17
452.228	1	-5
452.398	1	11
452.569	1	-2
452.739	1	9
452.910	1	-6
453.080	1	12
453.251	1	4
453.421	1	0
453.592	1	4
453.762	1	8
453.933	1	8
454.103	1	0
454.274	1	0
454.444	1	5
454.615	1	3
454.785	1	8
454.956	1	-4
455.126	1	3
455.297	1	8
455.467	1	4
455.638	1	12
455.808	1	9
455.979	1	2
456.149	1	1
456.320	1	-2
456.490	1	-3
456.661	1	2
456.831	1	13
457.001	1	6
457.172	1	1
457.342	1	12
457.513	1	7
457.683	1	8
457.854	1	-3
458.024	1	0
458.195	1	-7
458.365	1	4
458.536	1	0
458.706	1	3
458.877	1	5
459.047	1	-4
459.218	1	7
459.388	1	-3
459.559	1	-1
459.729	1	10
459.899	1	9
460.070	1	12
460.240	1	-3
460.411	1	1
460.581	1	12
460.752	1	11
460.922	1	-1
461.093	1	8
461.263	1	9
461.434	1	19
461.604	1	0
461.775	1	-2
461.945	1	4
462.115	1	-3
462.286	1	11
462.456	1	-5
462.627	1	9
462.797	1	-4
462.968	1	-2
463.138	1	6
463.309	1	-5
463.479	1	22
463.649	1	-3
463.820	1	5
463.990	1	8
464.161	1	1
464.331	1	8
464.502	1	9
464.672	1	2
464.843	1	0
465.013	1	-8
465.183	1	5
465.354	1	-1
465.524	1	11
465.695	1	12
465.865	1	1
466.036	1	4
466.206	1	-4
466.376	1	-6
466.547	1	14
466.717	1	-12
466.888	1	4
467.058	1	17
467.229	1	6
467.399	1	-2
467.569	1	3
467.740	1	8
467.910	1	-4
468.081	1	0
468.251	1	6
468.422	1	-4
468.592	1	7
468.762	1	-9
468.933	1	-1
469.103	1	-10
469.274	1	-3
469.444	1	-1
469.614	1	-5
469.785	1	14
469.955	1	-8
470.126	1	5
470.296	1	8
470.467	1	-7
470.637	1	18
470.807	1	6
470.978	1	-3
471.148	1	0
471.319	1	7
471.489	1	1
471.659	1	10
471.830	1	14
472.000	1	4
472.171	1	5
472.341	1	6
472.511	1	12
472.682	1	-1
472.852	1	-1
473.023	1	-6
473.193	1	-8
473.363	1	7
473.534	1	-2
473.704	1	4
473.875	1	4
474.045	1	-2
474.215	1	-2
474.386	1	4
474.556	1	-4
474.727	1	19
474.897	1	-4
475.067	1	8
475.238	1	5
475.408	1	0
475.578	1	4
475.749	1	-2
475.919	1	-2
476.090	1	3
476.260	1	8
476.430	1	7
476.601	1	1
476.771	1	1
476.942	1	12
477.112	1	4
477.282	1	-14
477.453	1	4
477.623	1	5
477.793	1	5
477.964	1	7
478.134	1	3
478.305	1	6
478.475	1	-6
478.645	1	-6
478.816	1	4
478.986	1	-3
479.156	1	4
479.327	1	-5
479.497	1	1
479.667	1	9
479.838	1	0
480.008	1	9
480.179	1	10
480.349	1	0
480.519	1	4
480.690	1	-8
480.860	1	-5
481.030	1	4
481.201	1	-6
481.371	1	2
481.541	1	6
481.712	1	7
481.882	1	1
482.053	1	17
482.223	1	0
482.393	1	-2
482.564	1	-16
482.734	1	1
482.904	1	9
483.075	1	4
483.245	1	-3
483.415	1	5
483.586	1	-4
483.756	1	8
483.926	1	5
484.097	1	-8
484.267	1	-1
484.437	1	-13
484.608	1	-2
484.778	1	-2
484.948	1	-7
485.119	1	8
485.289	1	6
485.459	1	7
485.630	1	0
485.800	1	-9
485.970	1	1
486.141	1	-2
486.311	1	9
486.481	1	0
486.652	1	14
486.822	1	6
486.992	1	6
487.163	1	8
487.333	1	2
487.503	1	-6
487.674	1	6
487.844	1	8
488.014	1	9
488.185	1	-9
488.355	1	-5
488.525	1	8
488.696	1	-5
488.866	1	6
489.036	1	4
489.207	1	6
489.377	1	14
489.547	1	-1
489.718	1	2
489.888	1	5
490.058	1	-1
490.228	1	1
490.399	1	12
490.569	1	10
490.739	1	7
490.910	1	3
491.080	1	2
491.250	1	16
491.421	1	1
491.591	1	-1
491.761	1	-2
491.932	1	0
492.102	1	4
492.272	1	10
492.442	1	5
492.613	1	12
492.783	1	-6
492.953	1	6
493.124	1	0
493.294	1	7
493.464	1	0
493.635	1	-1
493.805	1	13
493.975	1	0
494.145	1	5
494.316	1	7
494.486	1	4
494.656	1	5
494.827	1	-5
494.997	1	-1
495.167	1	4
495.337	1	-1
495.508	1	1
495.678	1	10
495.848	1	8
496.019	1	2
496.189	1	1
496.359	1	3
496.529	1	-2
496.700	1	6
496.870	1	7
497.040	1	2
497.211	1	10
497.381	1	-18
497.551	1	13
497.721	1	4
497.892	1	9
498.062	1	3
498.232	1	4
498.403	1	6
498.573	1	1
498.743	1	9
498.913	1	4
499.084	1	-7
499.254	1	-9
499.424	1	13
499.594	1	6
499.765	1	-1
499.935	1	-4
500.105	1	11
500.275	1	1
500.446	1	11
500.616	1	-1
500.786	1	8
500.956	1	4
501.127	1	7
501.297	1	1
501.467	1	8
501.638	1	4
501.808	1	-7
501.978	1	8
502.148	1	15
502.319	1	0
502.489	1	15
502.659	1	1
502.829	1	2
503.000	1	5
503.170	1	10
503.340	1	3
503.510	1	3
503.681	1	2
503.851	1	-8
504.021	1	22
504.191	1	5
504.362	1	5
504.532	1	3
504.702	1	14
504.872	1	-7
505.042	1	4
505.213	1	6
505.383	1	5
505.553	1	1
505.723	1	6
505.894	1	5
506.064	1	14
506.234	1	7
506.404	1	3
506.575	1	-5
506.745	1	-4
506.915	1	3
507.085	1	-1
507.256	1	5
507.426	1	7
507.596	1	19
507.766	1	4
507.936	1	10
508.107	1	5
508.277	1	2
508.447	1	9
508.617	1	15
508.788	1	1
508.958	1	12
509.128	1	6
509.298	1	16
509.468	1	2
509.639	1	9
509.809	1	18
509.979	1	5
510.149	1	8
510.319	1	-1
510.490	1	12
510.660	1	6
510.830	1	9
511.000	1	15
511.171	1	22
511.341	1	5
511.511	1	2
511.681	1	3
511.851	1	-9
512.022	1	-1
512.192	1	12
512.362	1	3
512.532	1	1
512.702	1	0
512.873	1	11
513.043	1	3
513.213	1	0
513.383	1	1
513.553	1	-2
513.724	1	13
513.894	1	2
514.064	1	10
514.234	1	6
514.404	1	9
514.575	1	9
514.745	1	3
514.915	1	20
515.085	1	5
515.255	1	-3
515.425	1	-1
515.596	1	-3
515.766	1	7
515.936	1	1
516.106	1	1
516.276	1	14
516.447	1	7
516.617	1	3
516.787	1	-1
516.957	1	2
517.127	1	11
517.297	1	7
517.468	1	4
517.638	1	19
517.808	1	6
517.978	1	-3
518.148	1	3
518.319	1	4
518.489	1	8
518.659	1	4
518.829	1	-1
518.999	1	2
519.169	1	12
519.340	1	6
519.510	1	17
519.680	1	-2
519.850	1	3
520.020	1	2
520.190	1	-5
520.361	1	0
520.531	1	7
520.701	1	4
520.871	1	2
521.041	1	6
521.211	1	15
521.382	1	-3
521.552	1	9
521.722	1	3
521.892	1	3
522.062	1	4
522.232	1	3
522.402	1	-9
522.573	1	11
522.743	1	19
522.913	1	9
523.083	1	3
523.253	1	3
523.423	1	9
523.593	1	-4
523.764	1	18
523.934	1	10
524.104	1	9
524.274	1	1
524.444	1	7
524.614	1	1
524.784	1	14
524.955	1	3
525.125	1	17
525.295	1	-2
525.465	1	-1
525.635	1	8
525.805	1	3
525.975	1	-6
526.146	1	8
526.316	1	-3
526.486	1	9
526.656	1	16
526.826	1	12
526.996	1	15
527.166	1	-1
527.337	1	4
527.507	1	-5
527.677	1	18
527.847	1	6
528.017	1	6
528.187	1	8
528.357	1	8
528.527	1	-2
528.698	1	1
528.868	1	8
529.038	1	10
529.208	1	4
529.378	1	11
529.548	1	9
529.718	1	13
529.888	1	18
530.058	1	5
530.229	1	4
530.399	1	9
530.569	1	7
530.739	1	9
530.909	1	6
531.079	1	18
531.249	1	5
531.419	1	20
531.589	1	0
531.760	1	6
531.930	1	12
532.100	1	12
532.270	1	15
532.440	1	1
532.610	1	2
532.780	1	-1
532.950	1	13
533.120	1	-3
533.290	1	11
533.461	1	18
533.631	1	3
533.801	1	5
533.971	1	9
534.141	1	11
534.311	1	2
534.481	1	-1
534.651	1	9
534.821	1	9
534.991	1	2
535.162	1	13
535.332	1	3
535.502	1	25
535.672	1	-1
535.842	1	9
536.012	1	7
536.182	1	8
536.352	1	3
536.522	1	13
536.692	1	12
536.862	1	21
537.032	1	15
537.203	1	15
537.373	1	4
537.543	1	12
537.713	1	22
537.883	1	4
538.053	1	17
538.223	1	9
538.393	1	15
538.563	1	6
538.733	1	2
538.903	1	-1
539.073	1	6
539.243	1	2
539.413	1	9
539.584	1	12
539.754	1	-2
539.924	1	8
540.094	1	12
540.264	1	4
540.434	1	2
540.604	1	10
540.774	1	10
540.944	1	3
541.114	1	1
541.284	1	0
541.454	1	7
541.624	1	7
541.794	1	1
541.964	1	5
542.134	1	18
542.305	1	4
542.475	1	5
542.645	1	1
542.815	1	19
542.985	1	1
543.155	1	6
543.325	1	4
543.495	1	2
543.665	1	15
543.835	1	4
544.005	1	-1
544.175	1	-3
544.345	1	-2
544.515	1	9
544.685	1	6
544.855	1	10
545.025	1	-5
545.195	1	3
545.365	1	6
545.535	1	5
545.705	1	9
545.875	1	-4
546.045	1	7
546.216	1	15
546.386	1	11
546.556	1	0
546.726	1	2
546.896	1	6
547.066	1	-4
547.236	1	-3
547.406	1	21
547.576	1	1
547.746	1	10
547.916	1	8
548.086	1	4
548.256	1	7
548.426	1	2
548.596	1	3
548.766	1	15
548.936	1	6
549.106	1	10
549.276	1	5
549.446	1	7
549.616	1	17
549.786	1	5
549.956	1	12
550.126	1	-1
550.296	1	6
550.466	1	-3
550.636	1	8
550.806	1	16
550.976	1	10
551.146	1	2
551.316	1	1
551.486	1	-3
551.656	1	-1
551.826	1	12
551.996	1	14
552.166	1	5
552.336	1	9
552.506	1	-2
552.676	1	5
552.846	1	5
553.016	1	11
553.186	1	7
553.356	1	6
553.526	1	-5
553.696	1	9
553.866	1	-2
554.036	1	8
554.206	1	2
554.376	1	0
554.546	1	-5
554.716	1	6
554.886	1	4
555.056	1	-7
555.226	1	-4
555.396	1	6
555.566	1	5
555.736	1	7
555.906	1	4
556.076	1	12
556.246	1	7
556.416	1	3
556.586	1	9
556.756	1	9
556.926	1	13
557.096	1	2
557.266	1	11
557.436	1	10
557.606	1	-4
557.776	1	0
557.946	1	2
558.116	1	10
558.286	1	8
558.456	1	1
558.626	1	13
558.796	1	-1
558.966	1	-3
559.136	1	7
559.306	1	-3
559.476	1	-5
559.646	1	-2
559.816	1	3
559.986	1	-4
560.155	1	8
560.325	1	-17
560.495	1	6
560.665	1	2
560.835	1	-3
561.005	1	5
561.175	1	2
561.345	1	2
561.515	1	6
561.685	1	-4
561.855	1	12
562.025	1	0
562.195	1	2
562.365	1	1
562.535	1	11
562.705	1	9
562.875	1	0
563.045	1	9
563.215	1	4
563.385	1	-3
563.555	1	13
563.725	1	7
563.895	1	8
564.064	1	12
564.234	1	2
564.404	1	6
564.574	1	-6
564.744	1	7
564.914	1	-14
565.084	1	-10
565.254	1	2
565.424	1	2
565.594	1	0
565.764	1	16
565.934	1	11
566.104	1	1
566.274	1	2
566.444	1	2
566.614	1	1
566.783	1	-3
566.953	1	5
567.123	1	12
567.293	1	5
567.463	1	8
567.633	1	-2
567.803	1	-2
567.973	1	1
568.143	1	-4
568.313	1	-3
568.483	1	-8
568.653	1	-4
568.823	1	15
568.993	1	1
569.162	1	14
569.332	1	-1
569.502	1	4
569.672	1	5
569.842	1	-1
570.012	1	11
570.182	1	-3
570.352	1	10
570.522	1	6
570.692	1	6
570.862	1	4
571.031	1	3
571.201	1	8
571.371	1	-2
571.541	1	-10
571.711	1	14
571.881	1	2
572.051	1	4
572.221	1	6
572.391	1	4
572.561	1	4
572.731	1	-7
572.900	1	15
573.070	1	12
573.240	1	-5
573.410	1	4
573.580	1	8
573.750	1	11
573.920	1	9
574.090	1	5
574.260	1	1
574.430	1	0
574.599	1	4
574.769	1	6
574.939	1	-3
575.109	1	-2
575.279	1	10
575.449	1	14
575.619	1	2
575.789	1	10
575.959	1	-1
576.128	1	0
576.298	1	-7
576.468	1	-8
576.638	1	3
576.808	1	-4
576.978	1	8
577.148	1	14
577.318	1	10
577.487	1	3
577.657	1	-8
577.827	1	13
577.997	1	-6
578.167	1	4
578.337	1	-1
578.507	1	-6
578.677	1	-2
578.846	1	11
579.016	1	12
579.186	1	-1
579.356	1	-2
579.526	1	5
579.696	1	-1
579.866	1	13
580.036	1	2
580.205	1	-2
580.375	1	6
580.545	1	7
580.715	1	9
580.885	1	5
581.055	1	6
581.225	1	0
581.394	1	-1
581.564	1	0
581.734	1	3
581.904	1	-1
582.074	1	-1
582.244	1	-5
582.414	1	0
582.583	1	-4
582.753	1	-4
582.923	1	-8
583.093	1	-3
583.263	1	-2
583.433	1	2
583.603	1	10
583.772	1	7
583.942	1	2
584.112	1	5
584.282	1	11
584.452	1	3
584.622	1	3
584.791	1	5
584.961	1	0
585.131	1	-4
585.301	1	7
585.471	1	-2
585.641	1	15
585.811	1	-1
585.980	1	-7
586.150	1	5
586.320	1	-7
586.490	1	1
586.660	1	6
586.830	1	-3
586.999	1	3
587.169	1	8
587.339	1	5
587.509	1	2
587.679	1	4
587.849	1	10
588.018	1	1
588.188	1	-2
588.358	1	8
588.528	1	8
588.698	1	-4
588.867	1	10
589.037	1	9
589.207	1	-10
589.377	1	3
589.547	1	-4
589.717	1	4
589.886	1	-1
590.056	1	3
590.226	1	9
590.396	1	10
590.566	1	4
590.735	1	11
590.905	1	7
591.075	1	-6
591.245	1	2
591.415	1	6
591.585	1	1
591.754	1	4
591.924	1	0
592.094	1	1
592.264	1	-2
592.434	1	3
592.603	1	-4
592.773	1	-3
592.943	1	12
593.113	1	-11
593.283	1	9
593.452	1	-6
593.622	1	-7
593.792	1	1
593.962	1	-5
594.132	1	8
594.301	1	5
594.471	1	2
594.641	1	-4
594.811	1	1
594.981	1	-9
595.150	1	1
595.320	1	10
595.490	1	-4
595.660	1	-3
595.829	1	-2
595.999	1	1
596.169	1	-10
596.339	1	10
596.509	1	-4
596.678	1	-4
596.848	1	11
597.018	1	7
597.188	1	7
597.358	1	5
597.527	1	2
597.697	1	-8
597.867	1	5
598.037	1	-4
598.206	1	-4
598.376	1	9
598.546	1	0
598.716	1	-4
598.885	1	-2
599.055	1	10
599.225	1	0
599.395	1	13
599.565	1	8
599.734	1	-1
599.904	1	-8
600.074	1	3
600.244	1	3
600.413	1	-2
600.583	1	-4
600.753	1	11
600.923	1	13
601.092	1	3
601.262	1	4
601.432	1	3
601.602	1	5
601.771	1	1
601.941	1	-5
602.111	1	-9
602.281	1	-1
602.451	1	1
602.620	1	12
602.790	1	4
602.960	1	-7
603.130	1	7
603.299	1	6
603.469	1	-2
603.639	1	14
603.809	1	5
603.978	1	-4
604.148	1	8
604.318	1	4
604.487	1	0
604.657	1	5
604.827	1	-11
604.997	1	-1
605.166	1	0
605.336	1	-1
605.506	1	-2
605.676	1	-9
605.845	1	5
606.015	1	2
606.185	1	1
606.355	1	9
606.524	1	1
606.694	1	14
606.864	1	-1
607.034	1	-1
607.203	1	4
607.373	1	-4
607.543	1	-6
607.712	1	10
607.882	1	1
608.052	1	-2
608.222	1	6
608.391	1	1
608.561	1	11
608.731	1	-3
608.901	1	6
609.070	1	4
609.240	1	10
609.410	1	6
609.579	1	2
609.749	1	0
609.919	1	-6
610.089	1	-9
610.258	1	16
610.428	1	-6
610.598	1	2
610.767	1	3
610.937	1	-4
611.107	1	7
611.277	1	6
611.446	1	-4
611.616	1	-17
611.786	1	9
611.955	1	15
612.125	1	5
612.295	1	9
612.465	1	-5
612.634	1	1
612.804	1	2
612.974	1	8
613.143	1	3
613.313	1	6
613.483	1	13
613.652	1	-2
613.822	1	12
613.992	1	-1
614.162	1	0
614.331	1	5
614.501	1	4
614.671	1	0
614.840	1	10
615.010	1	4
615.180	1	0
615.349	1	8
615.519	1	4
615.689	1	4
615.858	1	2
616.028	1	0
616.198	1	15
616.368	1	-8
616.537	1	-5
616.707	1	-4
616.877	1	-4
617.046	1	2
617.216	1	-1
617.386	1	10
617.555	1	-12
617.725	1	9
617.895	1	0
618.064	1	4
618.234	1	8
618.404	1	6
618.573	1	2
618.743	1	6
618.913	1	-3
619.082	1	6
619.252	1	8
619.422	1	5
619.591	1	3
619.761	1	0
619.931	1	16
620.100	1	2
620.270	1	-1
620.440	1	1
620.609	1	4
620.779	1	0
620.949	1	0
621.118	1	7
621.288	1	5
621.458	1	9
621.627	1	-2
621.797	1	-2
621.967	1	-1
622.136	1	11
622.306	1	10
622.476	1	9
622.645	1	7
622.815	1	-2
622.985	1	0
623.154	1	8
623.324	1	5
623.494	1	-1
623.663	1	-2
623.833	1	3
624.002	1	-10
624.172	1	12
624.342	1	-13
624.511	1	0
624.681	1	3
624.851	1	-8
625.020	1	8
625.190	1	3
625.360	1	-10
625.529	1	10
625.699	1	10
625.869	1	-2
626.038	1	6
626.208	1	-6
626.377	1	17
626.547	1	7
626.717	1	-2
626.886	1	-4
627.056	1	-3
627.226	1	12
627.395	1	5
627.565	1	16
627.735	1	11
627.904	1	3
628.074	1	-2
628.243	1	2
628.413	1	1
628.583	1	0
628.752	1	9
628.922	1	3
629.091	1	-3
629.261	1	16
629.431	1	-8
629.600	1	2
629.770	1	3
629.940	1	2
630.109	1	-1
630.279	1	3
630.448	1	-1
630.618	1	-4
630.788	1	-4
630.957	1	-2
631.127	1	11
631.297	1	-1
631.466	1	2
631.636	1	1
631.805	1	11
631.975	1	7
632.145	1	-11
632.314	1	17
632.484	1	8
632.653	1	-18
632.823	1	11
632.993	1	7
633.162	1	0
633.332	1	12
633.501	1	0
633.671	1	1
633.841	1	2
634.010	1	-4
634.180	1	4
634.349	1	-5
634.519	1	-2
634.689	1	12
634.858	1	7
635.028	1	-1
635.197	1	-1
635.367	1	-1
635.537	1	3
635.706	1	1
635.876	1	1
636.045	1	1
636.215	1	4
636.384	1	8
636.554	1	9
636.724	1	1
636.893	1	7
637.063	1	-4
637.232	1	-2
637.402	1	9
637.572	1	-1
637.741	1	3
637.911	1	0
638.080	1	3
638.250	1	-1
638.419	1	2
638.589	1	19
638.759	1	5
638.928	1	-6
639.098	1	-4
639.267	1	11
639.437	1	1
639.606	1	9
639.776	1	4
639.946	1	3
640.115	1	-4
640.285	1	2
640.454	1	20
640.624	1	7
640.793	1	1
640.963	1	1
641.132	1	9
641.302	1	-9
641.472	1	-6
641.641	1	0
641.811	1	0
641.980	1	-2
642.150	1	-3
642.319	1	6
642.489	1	-4
642.659	1	-4
642.828	1	-1
642.998	1	5
643.167	1	13
643.337	1	-4
643.506	1	-3
643.676	1	7
643.845	1	-2
644.015	1	6
644.184	1	12
644.354	1	-2
644.524	1	-8
644.693	1	5
644.863	1	-1
645.032	1	-2
645.202	1	4
645.371	1	-1
645.541	1	-12
645.710	1	7
645.880	1	-3
646.049	1	9
646.219	1	-7
646.388	1	-4
646.558	1	5
646.728	1	7
646.897	1	-1
647.067	1	4
647.236	1	5
647.406	1	-2
647.575	1	5
647.745	1	13
647.914	1	3
648.084	1	5
648.253	1	-1
648.423	1	-3
648.592	1	-1
648.762	1	4
648.931	1	2
649.101	1	-1
649.270	1	13
649.440	1	5
649.610	1	11
649.779	1	-4
649.949	1	-12
650.118	1	-3
650.288	1	-5
650.457	1	12
650.627	1	-1
650.796	1	-5
650.966	1	-4
651.135	1	10
651.305	1	5
651.474	1	0
651.644	1	-4
651.813	1	4
651.983	1	4
652.152	1	-3
652.322	1	4
652.491	1	5
652.661	1	6
652.830	1	4
653.000	1	2
653.169	1	6
653.339	1	8
653.508	1	7
653.678	1	-8
653.847	1	4
654.017	1	-4
654.186	1	8
654.356	1	5
654.525	1	0
654.695	1	5
654.864	1	7
655.034	1	6
655.203	1	15
655.373	1	1
655.542	1	14
655.712	1	-6
655.881	1	9
656.051	1	8
656.220	1	5
656.390	1	3
656.559	1	8
656.729	1	3
656.898	1	9
657.068	1	-2
657.237	1	4
657.406	1	4
657.576	1	-7
657.745	1	-3
657.915	1	2
658.084	1	11
658.254	1	7
658.423	1	-7
658.593	1	-16
658.762	1	-5
658.932	1	-8
659.101	1	-2
659.271	1	3
659.440	1	14
659.610	1	2
659.779	1	-1
659.949	1	4
660.118	1	18
660.288	1	-3
660.457	1	-6
660.626	1	-2
660.796	1	-6
660.965	1	1
661.135	1	9
661.304	1	-6
661.474	1	-1
661.643	1	12
661.813	1	3
661.982	1	-2
662.152	1	-2
662.321	1	1
662.491	1	11
662.660	1	7
662.829	1	1
662.999	1	4
663.168	1	5
663.338	1	-5
663.507	1	-1
663.677	1	-3
663.846	1	6
664.016	1	-6
664.185	1	0
664.354	1	10
664.524	1	-6
664.693	1	7
664.863	1	5
665.032	1	8
665.202	1	-8
665.371	1	12
665.541	1	3
665.710	1	-1
665.879	1	2
666.049	1	1
666.218	1	1
666.388	1	-6
666.557	1	0
666.727	1	-9
666.896	1	-1
667.065	1	4
667.235	1	-5
667.404	1	-6
667.574	1	5
667.743	1	2
667.913	1	6
668.082	1	5
668.251	1	13
668.421	1	2
668.590	1	-3
668.760	1	-8
668.929	1	7
669.099	1	-11
669.268	1	3
669.437	1	6
669.607	1	-14
669.776	1	-4
669.946	1	8
670.115	1	12
670.285	1	9
670.454	1	0
670.623	1	6
670.793	1	4
670.962	1	2
671.132	1	5
671.301	1	-5
671.470	1	7
671.640	1	-17
671.809	1	0
671.979	1	23
672.148	1	3
672.317	1	-1
672.487	1	-9
672.656	1	11
672.826	1	-7
672.995	1	-1
673.164	1	5
673.334	1	19
673.503	1	-5
673.673	1	15
673.842	1	-1
674.011	1	8
674.181	1	-6
674.350	1	-1
674.520	1	6
674.689	1	-10
674.858	1	2
675.028	1	7
675.197	1	4
675.367	1	7
675.536	1	5
675.705	1	-6
675.875	1	5
676.044	1	-4
676.214	1	5
676.383	1	5
676.552	1	-6
676.722	1	-5
676.891	1	-8
677.060	1	5
677.230	1	2
677.399	1	-2
677.569	1	-1
677.738	1	-6
677.907	1	-13
678.077	1	8
678.246	1	-5
678.416	1	2
678.585	1	12
678.754	1	-6
678.924	1	6
679.093	1	14
679.262	1	-2
679.432	1	-6
679.601	1	-8
679.771	1	3
679.940	1	-3
680.109	1	16
680.279	1	-3
680.448	1	9
680.617	1	0
680.787	1	-1
680.956	1	4
681.125	1	8
681.295	1	12
681.464	1	0
681.634	1	8
681.803	1	-11
681.972	1	0
682.142	1	7
682.311	1	-7
682.480	1	3
682.650	1	0
682.819	1	-1
682.988	1	-8
683.158	1	2
683.327	1	-6
683.496	1	-3
683.666	1	5
683.835	1	-2
684.004	1	12
684.174	1	3
684.343	1	2
684.512	1	3
684.682	1	4
684.851	1	-6
685.021	1	5
685.190	1	2
685.359	1	2
685.529	1	0
685.698	1	-1
685.867	1	5
686.037	1	8
686.206	1	11
686.375	1	0
686.545	1	3
686.714	1	1
686.883	1	-5
687.053	1	4
687.222	1	-6
687.391	1	-2
687.561	1	-2
687.730	1	1
687.899	1	0
688.069	1	0
688.238	1	0
688.407	1	5
688.577	1	2
688.746	1	-2
