340.368	1	4
340.539	1	5
340.710	1	3
340.881	1	10
341.052	1	8
341.223	1	-2
341.394	1	-1
341.565	1	-5
341.737	1	14
341.908	1	6
342.079	1	2
342.250	1	6
342.421	1	-11
342.592	1	-3
342.763	1	2
342.934	1	-1
343.105	1	11
343.276	1	-3
343.447	1	2
343.618	1	6
343.789	1	6
343.960	1	1
344.131	1	0
344.302	1	1
344.473	1	4
344.644	1	1
344.815	1	2
344.986	1	5
345.157	1	12
345.328	1	5
345.499	1	14
345.670	1	18
345.841	1	12
346.012	1	7
346.183	1	-1
346.354	1	-5
346.526	1	10
346.697	1	-1
346.868	1	7
347.039	1	3
347.210	1	-4
347.381	1	5
347.552	1	3
347.723	1	10
347.894	1	5
348.065	1	5
348.236	1	10
348.407	1	3
348.578	1	-2
348.749	1	5
348.920	1	13
349.091	1	-2
349.262	1	1
349.433	1	-3
349.604	1	13
349.775	1	8
349.946	1	8
350.117	1	14
350.288	1	9
350.459	1	5
350.630	1	-1
350.801	1	11
350.972	1	7
351.143	1	-15
351.314	1	1
351.485	1	-4
351.656	1	4
351.827	1	0
351.998	1	9
352.169	1	13
352.340	1	10
352.511	1	-7
352.682	1	0
352.853	1	-1
353.024	1	-7
353.195	1	0
353.366	1	11
353.537	1	3
353.708	1	10
353.879	1	9
354.050	1	11
354.221	1	-6
354.392	1	14
354.563	1	14
354.734	1	3
354.905	1	3
355.076	1	7
355.247	1	1
355.418	1	8
355.589	1	6
355.760	1	12
355.931	1	12
356.102	1	1
356.273	1	4
356.444	1	6
356.615	1	-2
356.785	1	22
356.956	1	5
357.127	1	6
357.298	1	10
357.469	1	4
357.640	1	14
357.811	1	20
357.982	1	-4
358.153	1	13
358.324	1	3
358.495	1	14
358.666	1	-2
358.837	1	8
359.008	1	3
359.179	1	17
359.350	1	-3
359.521	1	9
359.692	1	13
359.863	1	-10
360.034	1	6
360.205	1	2
360.376	1	6
360.547	1	12
360.718	1	1
360.889	1	16
361.060	1	12
361.231	1	5
361.401	1	15
361.572	1	7
361.743	1	3
361.914	1	15
362.085	1	5
362.256	1	18
362.427	1	1
362.598	1	19
362.769	1	15
362.940	1	14
363.111	1	21
363.282	1	12
363.453	1	10
363.624	1	9
363.795	1	19
363.966	1	15
364.137	1	10
364.308	1	15
364.478	1	22
364.649	1	4
364.820	1	16
364.991	1	20
365.162	1	3
365.333	1	22
365.504	1	5
365.675	1	7
365.846	1	12
366.017	1	20
366.188	1	10
366.359	1	10
366.530	1	30
366.701	1	7
366.871	1	26
367.042	1	27
367.213	1	24
367.384	1	27
367.555	1	10
367.726	1	21
367.897	1	24
368.068	1	10
368.239	1	18
368.410	1	13
368.581	1	12
368.752	1	12
368.923	1	-4
369.093	1	18
369.264	1	18
369.435	1	15
369.606	1	19
369.777	1	7
369.948	1	24
370.119	1	13
370.290	1	6
370.461	1	15
370.632	1	26
370.803	1	15
370.973	1	23
371.144	1	17
371.315	1	10
371.486	1	19
371.657	1	9
371.828	1	14
371.999	1	8
372.170	1	19
372.341	1	9
372.512	1	12
372.682	1	1
372.853	1	14
373.024	1	6
373.195	1	-1
373.366	1	11
373.537	1	14
373.708	1	20
373.879	1	11
374.050	1	21
374.220	1	13
374.391	1	9
374.562	1	3
374.733	1	24
374.904	1	15
375.075	1	18
375.246	1	11
375.417	1	15
375.588	1	9
375.758	1	10
375.929	1	9
376.100	1	16
376.271	1	5
376.442	1	10
376.613	1	7
376.784	1	13
376.955	1	-2
377.125	1	9
377.296	1	11
377.467	1	8
377.638	1	5
377.809	1	14
377.980	1	1
378.151	1	-2
378.321	1	15
378.492	1	7
378.663	1	-3
378.834	1	13
379.005	1	17
379.176	1	22
379.347	1	7
379.518	1	-3
379.688	1	7
379.859	1	1
380.030	1	2
380.201	1	-1
380.372	1	2
380.543	1	12
380.714	1	6
380.884	1	13
381.055	1	10
381.226	1	19
381.397	1	7
381.568	1	9
381.739	1	12
381.910	1	0
382.080	1	-1
382.251	1	12
382.422	1	25
382.593	1	15
382.764	1	11
382.935	1	21
383.105	1	9
383.276	1	3
383.447	1	17
383.618	1	17
383.789	1	18
383.960	1	17
384.130	1	10
384.301	1	15
384.472	1	4
384.643	1	16
384.814	1	23
384.985	1	18
385.156	1	35
385.326	1	23
385.497	1	28
385.668	1	19
385.839	1	26
386.010	1	25
386.180	1	19
386.351	1	16
386.522	1	32
386.693	1	7
386.864	1	24
387.035	1	12
387.205	1	18
387.376	1	31
387.547	1	23
387.718	1	32
387.889	1	29
388.060	1	16
388.230	1	14
388.401	1	23
388.572	1	21
388.743	1	15
388.914	1	23
389.084	1	23
389.255	1	20
389.426	1	17
389.597	1	11
389.768	1	23
389.939	1	26
390.109	1	25
390.280	1	24
390.451	1	24
390.622	1	15
390.793	1	21
390.963	1	27
391.134	1	21
391.305	1	23
391.476	1	22
391.647	1	21
391.817	1	17
391.988	1	16
392.159	1	19
392.330	1	17
392.501	1	25
392.671	1	22
392.842	1	24
393.013	1	29
393.184	1	24
393.355	1	29
393.525	1	31
393.696	1	14
393.867	1	16
394.038	1	16
394.208	1	16
394.379	1	20
394.550	1	18
394.721	1	22
394.892	1	26
395.062	1	15
395.233	1	23
395.404	1	22
395.575	1	13
395.746	1	10
395.916	1	10
396.087	1	14
396.258	1	17
396.429	1	23
396.599	1	21
396.770	1	25
396.941	1	31
397.112	1	16
397.283	1	24
397.453	1	8
397.624	1	15
397.795	1	26
397.966	1	12
398.136	1	25
398.307	1	25
398.478	1	23
398.649	1	27
398.819	1	26
398.990	1	27
399.161	1	21
399.332	1	26
399.503	1	14
399.673	1	22
399.844	1	8
400.015	1	19
400.186	1	27
400.356	1	17
400.527	1	13
400.698	1	18
400.869	1	20
401.039	1	11
401.210	1	13
401.381	1	21
401.552	1	27
401.722	1	22
401.893	1	18
402.064	1	18
402.235	1	28
402.405	1	25
402.576	1	23
402.747	1	21
402.918	1	4
403.088	1	11
403.259	1	7
403.430	1	16
403.601	1	9
403.771	1	14
403.942	1	24
404.113	1	21
404.284	1	9
404.454	1	24
404.625	1	20
404.796	1	19
404.967	1	19
405.137	1	15
405.308	1	18
405.479	1	20
405.649	1	6
405.820	1	22
405.991	1	17
406.162	1	7
406.332	1	11
406.503	1	20
406.674	1	18
406.845	1	20
407.015	1	6
407.186	1	19
407.357	1	16
407.527	1	14
407.698	1	8
407.869	1	12
408.040	1	8
408.210	1	10
408.381	1	22
408.552	1	9
408.722	1	7
408.893	1	17
409.064	1	24
409.235	1	14
409.405	1	15
409.576	1	10
409.747	1	5
409.917	1	12
410.088	1	20
410.259	1	19
410.430	1	22
410.600	1	13
410.771	1	25
410.942	1	23
411.112	1	11
411.283	1	4
411.454	1	18
411.625	1	8
411.795	1	15
411.966	1	12
412.137	1	24
412.307	1	14
412.478	1	15
412.649	1	14
412.819	1	7
412.990	1	19
413.161	1	7
413.332	1	7
413.502	1	15
413.673	1	18
413.844	1	10
414.014	1	2
414.185	1	14
414.356	1	2
414.526	1	10
414.697	1	9
414.868	1	21
415.038	1	13
415.209	1	7
415.380	1	13
415.550	1	4
415.721	1	22
415.892	1	11
416.063	1	25
416.233	1	13
416.404	1	15
416.575	1	6
416.745	1	-5
416.916	1	3
417.087	1	4
417.257	1	20
417.428	1	4
417.599	1	19
417.769	1	9
417.940	1	9
418.111	1	0
418.281	1	11
418.452	1	11
418.623	1	5
418.793	1	10
418.964	1	19
419.135	1	18
419.305	1	3
419.476	1	16
419.647	1	20
419.817	1	18
419.988	1	5
420.159	1	3
420.329	1	14
420.500	1	20
420.671	1	13
420.841	1	20
421.012	1	23
421.183	1	19
421.353	1	16
421.524	1	7
421.695	1	12
421.865	1	3
422.036	1	10
422.206	1	14
422.377	1	8
422.548	1	11
422.718	1	6
422.889	1	22
423.060	1	16
423.230	1	16
423.401	1	17
423.572	1	7
423.742	1	9
423.913	1	13
424.084	1	9
424.254	1	11
424.425	1	9
424.595	1	3
424.766	1	13
424.937	1	3
425.107	1	14
425.278	1	4
425.449	1	2
425.619	1	13
425.790	1	8
425.961	1	11
426.131	1	11
426.302	1	4
426.472	1	13
426.643	1	12
426.814	1	26
426.984	1	24
427.155	1	6
427.326	1	15
427.496	1	17
427.667	1	15
427.837	1	3
428.008	1	7
428.179	1	8
428.349	1	-5
428.520	1	9
428.691	1	4
428.861	1	12
429.032	1	9
429.202	1	10
429.373	1	8
429.544	1	9
429.714	1	13
429.885	1	10
430.055	1	6
430.226	1	12
430.397	1	-4
430.567	1	20
430.738	1	6
430.909	1	2
431.079	1	17
431.250	1	-9
431.420	1	9
431.591	1	10
431.762	1	6
431.932	1	18
432.103	1	0
432.273	1	8
432.444	1	14
432.615	1	16
432.785	1	5
432.956	1	-1
433.126	1	8
433.297	1	17
433.468	1	2
433.638	1	11
433.809	1	8
433.979	1	10
434.150	1	3
434.320	1	13
434.491	1	7
434.662	1	13
434.832	1	-4
435.003	1	15
435.173	1	14
435.344	1	6
435.515	1	7
435.685	1	6
435.856	1	8
436.026	1	10
436.197	1	4
436.368	1	8
436.538	1	4
436.709	1	-5
436.879	1	7
437.050	1	10
437.220	1	14
437.391	1	8
437.562	1	26
437.732	1	9
437.903	1	15
438.073	1	12
438.244	1	0
438.414	1	-3
438.585	1	8
438.756	1	10
438.926	1	6
439.097	1	6
439.267	1	16
439.438	1	12
439.608	1	-3
439.779	1	8
439.949	1	3
440.120	1	2
440.291	1	-7
440.461	1	-1
440.632	1	12
440.802	1	9
440.973	1	9
441.143	1	12
441.314	1	11
441.485	1	3
441.655	1	23
441.826	1	-8
441.996	1	3
442.167	1	6
442.337	1	4
442.508	1	10
442.678	1	2
442.849	1	7
443.019	1	12
443.190	1	-2
443.361	1	17
443.531	1	4
443.702	1	2
443.872	1	3
444.043	1	8
444.213	1	10
444.384	1	8
444.554	1	5
444.725	1	9
444.895	1	8
445.066	1	-3
445.237	1	7
445.407	1	9
445.578	1	11
445.748	1	1
445.919	1	14
446.089	1	14
446.260	1	11
446.430	1	-4
446.601	1	-4
446.771	1	0
446.942	1	5
447.112	1	-2
447.283	1	3
447.453	1	5
447.624	1	9
447.794	1	4
447.965	1	5
448.135	1	14
448.306	1	6
448.477	1	1
448.647	1	18
448.818	1	14
448.988	1	-6
449.159	1	1
449.329	1	16
449.500	1	14
449.670	1	13
449.841	1	10
450.011	1	8
450.182	1	2
450.352	1	12
450.523	1	-2
450.693	1	9
450.864	1	-3
451.034	1	10
451.205	1	14
451.375	1	9
451.546	1	11
451.716	1	8
451.887	1	7
452.057	1	9
452.228	1	3
452.398	1	8
452.569	1	12
452.739	1	4
452.910	1	8
453.080	1	16
453.251	1	13
453.421	1	4
453.592	1	-2
453.762	1	11
453.933	1	20
454.103	1	9
454.274	1	6
454.444	1	19
454.615	1	17
454.785	1	10
454.956	1	13
455.126	1	9
455.297	1	5
455.467	1	14
455.638	1	3
455.808	1	3
455.979	1	10
456.149	1	6
456.320	1	9
456.490	1	-2
456.661	1	5
456.831	1	16
457.001	1	5
457.172	1	2
457.342	1	3
457.513	1	10
457.683	1	10
457.854	1	1
458.024	1	9
458.195	1	-4
458.365	1	9
458.536	1	6
458.706	1	9
458.877	1	11
459.047	1	6
459.218	1	-2
459.388	1	4
459.559	1	6
459.729	1	2
459.899	1	19
460.070	1	9
460.240	1	6
460.411	1	11
460.581	1	15
460.752	1	12
460.922	1	6
461.093	1	11
461.263	1	6
461.434	1	7
461.604	1	2
461.775	1	10
461.945	1	1
462.115	1	-8
462.286	1	18
462.456	1	6
462.627	1	5
462.797	1	-7
462.968	1	-2
463.138	1	15
463.309	1	8
463.479	1	16
463.649	1	4
463.820	1	-1
463.990	1	5
464.161	1	7
464.331	1	4
464.502	1	16
464.672	1	7
464.843	1	11
465.013	1	-6
465.183	1	6
465.354	1	-2
465.524	1	13
465.695	1	7
465.865	1	-3
466.036	1	13
466.206	1	7
466.376	1	-8
466.547	1	8
466.717	1	7
466.888	1	0
467.058	1	13
467.229	1	13
467.399	1	8
467.569	1	11
467.740	1	4
467.910	1	9
468.081	1	5
468.251	1	3
468.422	1	3
468.592	1	18
468.762	1	1
468.933	1	11
469.103	1	-3
469.274	1	0
469.444	1	4
469.614	1	1
469.785	1	11
469.955	1	2
470.126	1	8
470.296	1	7
470.467	1	-2
470.637	1	12
470.807	1	5
470.978	1	10
471.148	1	2
471.319	1	6
471.489	1	10
471.659	1	10
471.830	1	15
472.000	1	8
472.171	1	-1
472.341	1	7
472.511	1	13
472.682	1	11
472.852	1	-4
473.023	1	2
473.193	1	0
473.363	1	-1
473.534	1	4
473.704	1	15
473.875	1	6
474.045	1	-1
474.215	1	5
474.386	1	13
474.556	1	-2
474.727	1	3
474.897	1	9
475.067	1	5
475.238	1	-3
475.408	1	-3
475.578	1	9
475.749	1	-5
475.919	1	7
476.090	1	4
476.260	1	5
476.430	1	11
476.601	1	11
476.771	1	5
476.942	1	-1
477.112	1	11
477.282	1	-3
477.453	1	-2
477.623	1	12
477.793	1	6
477.964	1	14
478.134	1	1
478.305	1	2
478.475	1	-5
478.645	1	0
478.816	1	-3
478.986	1	11
479.156	1	5
479.327	1	-4
479.497	1	-1
479.667	1	14
479.838	1	11
480.008	1	4
480.179	1	2
480.349	1	4
480.519	1	-5
480.690	1	3
480.860	1	1
481.030	1	3
481.201	1	7
481.371	1	-2
481.541	1	1
481.712	1	7
481.882	1	4
482.053	1	11
482.223	1	4
482.393	1	-1
482.564	1	-12
482.734	1	13
482.904	1	4
483.075	1	3
483.245	1	9
483.415	1	8
483.586	1	4
483.756	1	12
483.926	1	12
484.097	1	-3
484.267	1	2
484.437	1	-5
484.608	1	11
484.778	1	3
484.948	1	-4
485.119	1	3
485.289	1	5
485.459	1	12
485.630	1	0
485.800	1	4
485.970	1	12
486.141	1	-1
486.311	1	4
486.481	1	2
486.652	1	12
486.822	1	16
486.992	1	-1
487.163	1	2
487.333	1	4
487.503	1	3
487.674	1	-4
487.844	1	11
488.014	1	3
488.185	1	2
488.355	1	-6
488.525	1	6
488.696	1	9
488.866	1	17
489.036	1	11
489.207	1	13
489.377	1	9
489.547	1	-8
489.718	1	3
489.888	1	-2
490.058	1	4
490.228	1	-5
490.399	1	14
490.569	1	18
490.739	1	12
490.910	1	5
491.080	1	8
491.250	1	-1
491.421	1	-3
491.591	1	5
491.761	1	0
491.932	1	13
492.102	1	1
492.272	1	14
492.442	1	7
492.613	1	15
492.783	1	6
492.953	1	6
493.124	1	0
493.294	1	16
493.464	1	2
493.635	1	2
493.805	1	20
493.975	1	1
494.145	1	8
494.316	1	14
494.486	1	18
494.656	1	3
494.827	1	-4
494.997	1	-2
495.167	1	10
495.337	1	-3
495.508	1	-2
495.678	1	17
495.848	1	16
496.019	1	2
496.189	1	7
496.359	1	4
496.529	1	4
496.700	1	14
496.870	1	7
497.040	1	0
497.211	1	14
497.381	1	-13
497.551	1	14
497.721	1	12
497.892	1	11
498.062	1	12
498.232	1	10
498.403	1	18
498.573	1	5
498.743	1	17
498.913	1	11
499.084	1	-4
499.254	1	12
499.424	1	21
499.594	1	12
499.765	1	14
499.935	1	3
500.105	1	11
500.275	1	8
500.446	1	5
500.616	1	11
500.786	1	4
500.956	1	4
501.127	1	7
501.297	1	8
501.467	1	18
501.638	1	2
501.808	1	-2
501.978	1	3
502.148	1	16
502.319	1	2
502.489	1	11
502.659	1	2
502.829	1	11
503.000	1	17
503.170	1	12
503.340	1	8
503.510	1	7
503.681	1	3
503.851	1	-4
504.021	1	24
504.191	1	6
504.362	1	17
504.532	1	2
504.702	1	15
504.872	1	2
505.042	1	17
505.213	1	9
505.383	1	14
505.553	1	20
505.723	1	9
505.894	1	7
506.064	1	11
506.234	1	13
506.404	1	12
506.575	1	11
506.745	1	4
506.915	1	14
507.085	1	7
507.256	1	-3
507.426	1	6
507.596	1	13
507.766	1	16
507.936	1	13
508.107	1	6
508.277	1	2
508.447	1	10
508.617	1	22
508.788	1	4
508.958	1	14
509.128	1	2
509.298	1	19
509.468	1	16
509.639	1	14
509.809	1	13
509.979	1	9
510.149	1	6
510.319	1	8
510.490	1	23
510.660	1	16
510.830	1	9
511.000	1	7
511.171	1	20
511.341	1	4
511.511	1	16
511.681	1	16
511.851	1	8
512.022	1	13
512.192	1	10
512.362	1	10
512.532	1	10
512.702	1	4
512.873	1	21
513.043	1	3
513.213	1	12
513.383	1	8
513.553	1	13
513.724	1	18
513.894	1	11
514.064	1	10
514.234	1	22
514.404	1	11
514.575	1	13
514.745	1	12
514.915	1	12
515.085	1	14
515.255	1	10
515.425	1	3
515.596	1	1
515.766	1	8
515.936	1	15
516.106	1	2
516.276	1	16
516.447	1	20
516.617	1	11
516.787	1	3
516.957	1	14
517.127	1	21
517.297	1	13
517.468	1	16
517.638	1	15
517.808	1	17
517.978	1	10
518.148	1	18
518.319	1	8
518.489	1	15
518.659	1	20
518.829	1	7
518.999	1	13
519.169	1	19
519.340	1	14
519.510	1	14
519.680	1	8
519.850	1	2
520.020	1	14
520.190	1	18
520.361	1	4
520.531	1	17
520.701	1	11
520.871	1	15
521.041	1	16
521.211	1	16
521.382	1	11
521.552	1	16
521.722	1	9
521.892	1	-4
522.062	1	10
522.232	1	6
522.402	1	4
522.573	1	14
522.743	1	25
522.913	1	22
523.083	1	15
523.253	1	11
523.423	1	11
523.593	1	3
523.764	1	16
523.934	1	12
524.104	1	11
524.274	1	8
524.444	1	17
524.614	1	15
524.784	1	13
524.955	1	7
525.125	1	11
525.295	1	8
525.465	1	10
525.635	1	18
525.805	1	6
525.975	1	-2
526.146	1	15
526.316	1	7
526.486	1	23
526.656	1	33
526.826	1	20
526.996	1	28
527.166	1	19
527.337	1	7
527.507	1	2
527.677	1	23
527.847	1	1
528.017	1	6
528.187	1	20
528.357	1	19
528.527	1	12
528.698	1	11
528.868	1	9
529.038	1	14
529.208	1	6
529.378	1	17
529.548	1	18
529.718	1	19
529.888	1	12
530.058	1	18
530.229	1	22
530.399	1	30
530.569	1	26
530.739	1	11
530.909	1	15
531.079	1	16
531.249	1	13
531.419	1	20
531.589	1	10
531.760	1	20
531.930	1	16
532.100	1	26
532.270	1	23
532.440	1	16
532.610	1	20
532.780	1	5
532.950	1	15
533.120	1	6
533.290	1	12
533.461	1	19
533.631	1	17
533.801	1	15
533.971	1	25
534.141	1	24
534.311	1	23
534.481	1	15
534.651	1	14
534.821	1	25
534.991	1	26
535.162	1	19
535.332	1	21
535.502	1	19
535.672	1	16
535.842	1	9
536.012	1	14
536.182	1	15
536.352	1	18
536.522	1	9
536.692	1	13
536.862	1	23
537.032	1	23
537.203	1	18
537.373	1	12
537.543	1	17
537.713	1	17
537.883	1	18
538.053	1	16
538.223	1	16
538.393	1	17
538.563	1	13
538.733	1	5
538.903	1	14
539.073	1	15
539.243	1	13
539.413	1	6
539.584	1	7
539.754	1	11
539.924	1	14
540.094	1	15
540.264	1	19
540.434	1	16
540.604	1	19
540.774	1	9
540.944	1	14
541.114	1	13
541.284	1	15
541.454	1	18
541.624	1	13
541.794	1	9
541.964	1	16
542.134	1	21
542.305	1	4
542.475	1	11
542.645	1	9
542.815	1	27
542.985	1	1
543.155	1	19
543.325	1	7
543.495	1	12
543.665	1	22
543.835	1	13
544.005	1	9
544.175	1	14
544.345	1	4
544.515	1	12
544.685	1	21
544.855	1	24
545.025	1	12
545.195	1	14
545.365	1	7
545.535	1	11
545.705	1	21
545.875	1	18
546.045	1	21
546.216	1	26
546.386	1	17
546.556	1	4
546.726	1	11
546.896	1	4
547.066	1	7
547.236	1	6
547.406	1	7
547.576	1	11
547.746	1	11
547.916	1	20
548.086	1	22
548.256	1	5
548.426	1	5
548.596	1	13
548.766	1	17
548.936	1	4
549.106	1	15
549.276	1	23
549.446	1	13
549.616	1	11
549.786	1	18
549.956	1	16
550.126	1	13
550.296	1	13
550.466	1	10
550.636	1	15
550.806	1	16
550.976	1	11
551.146	1	11
551.316	1	10
551.486	1	15
551.656	1	7
551.826	1	12
551.996	1	24
552.166	1	4
552.336	1	13
552.506	1	2
552.676	1	9
552.846	1	9
553.016	1	11
553.186	1	12
553.356	1	3
553.526	1	7
553.696	1	20
553.866	1	15
554.036	1	20
554.206	1	13
554.376	1	12
554.546	1	0
554.716	1	4
554.886	1	13
555.056	1	0
555.226	1	-2
555.396	1	8
555.566	1	17
555.736	1	1
555.906	1	19
556.076	1	25
556.246	1	12
556.416	1	5
556.586	1	16
556.756	1	16
556.926	1	12
557.096	1	10
557.266	1	12
557.436	1	15
557.606	1	2
557.776	1	12
557.946	1	19
558.116	1	19
558.286	1	15
558.456	1	8
558.626	1	10
558.796	1	9
558.966	1	13
559.136	1	9
559.306	1	2
559.476	1	3
559.646	1	5
559.816	1	11
559.986	1	4
560.155	1	7
560.325	1	0
560.495	1	10
560.665	1	20
560.835	1	14
561.005	1	19
561.175	1	0
561.345	1	9
561.515	1	5
561.685	1	14
561.855	1	14
562.025	1	4
562.195	1	9
562.365	1	3
562.535	1	16
562.705	1	17
562.875	1	2
563.045	1	17
563.215	1	7
563.385	1	6
563.555	1	17
563.725	1	10
563.895	1	3
564.064	1	25
564.234	1	6
564.404	1	6
564.574	1	7
564.744	1	25
564.914	1	-4
565.084	1	3
565.254	1	7
565.424	1	11
565.594	1	1
565.764	1	17
565.934	1	16
566.104	1	3
566.274	1	18
566.444	1	5
566.614	1	6
566.783	1	5
566.953	1	12
567.123	1	22
567.293	1	8
567.463	1	4
567.633	1	8
567.803	1	-2
567.973	1	7
568.143	1	0
568.313	1	13
568.483	1	9
568.653	1	11
568.823	1	17
568.993	1	3
569.162	1	14
569.332	1	-4
569.502	1	11
569.672	1	8
569.842	1	10
570.012	1	13
570.182	1	5
570.352	1	19
570.522	1	13
570.692	1	15
570.862	1	15
571.031	1	12
571.201	1	1
571.371	1	-2
571.541	1	1
571.711	1	18
571.881	1	7
572.051	1	8
572.221	1	6
572.391	1	13
572.561	1	5
572.731	1	11
572.900	1	22
573.070	1	11
573.240	1	-2
573.410	1	6
573.580	1	9
573.750	1	21
573.920	1	1
574.090	1	3
574.260	1	7
574.430	1	14
574.599	1	7
574.769	1	-1
574.939	1	1
575.109	1	11
575.279	1	8
575.449	1	12
575.619	1	11
575.789	1	13
575.959	1	4
576.128	1	-1
576.298	1	-3
576.468	1	-4
576.638	1	9
576.808	1	-2
576.978	1	5
577.148	1	14
577.318	1	14
577.487	1	1
577.657	1	-7
577.827	1	10
577.997	1	2
578.167	1	15
578.337	1	1
578.507	1	1
578.677	1	4
578.846	1	10
579.016	1	20
579.186	1	4
579.356	1	1
579.526	1	4
579.696	1	7
579.866	1	14
580.036	1	-4
580.205	1	12
580.375	1	8
580.545	1	4
580.715	1	16
580.885	1	15
581.055	1	6
581.225	1	2
581.394	1	-10
581.564	1	7
581.734	1	15
581.904	1	3
582.074	1	11
582.244	1	11
582.414	1	10
582.583	1	-1
582.753	1	10
582.923	1	4
583.093	1	11
583.263	1	11
583.433	1	-3
583.603	1	7
583.772	1	4
583.942	1	18
584.112	1	14
584.282	1	20
584.452	1	9
584.622	1	11
584.791	1	6
584.961	1	6
585.131	1	-1
585.301	1	9
585.471	1	6
585.641	1	11
585.811	1	2
585.980	1	0
586.150	1	7
586.320	1	-6
586.490	1	-2
586.660	1	8
586.830	1	-4
586.999	1	9
587.169	1	6
587.339	1	9
587.509	1	14
587.679	1	4
587.849	1	13
588.018	1	3
588.188	1	7
588.358	1	11
588.528	1	9
588.698	1	3
588.867	1	11
589.037	1	9
589.207	1	-1
589.377	1	10
589.547	1	10
589.717	1	9
589.886	1	-2
590.056	1	7
590.226	1	15
590.396	1	-2
590.566	1	-4
590.735	1	18
590.905	1	14
591.075	1	-16
591.245	1	8
591.415	1	8
591.585	1	8
591.754	1	8
591.924	1	5
592.094	1	6
592.264	1	4
592.434	1	4
592.603	1	3
592.773	1	10
592.943	1	1
593.113	1	-6
593.283	1	8
593.452	1	-11
593.622	1	-3
593.792	1	7
593.962	1	5
594.132	1	-2
594.301	1	13
594.471	1	6
594.641	1	4
594.811	1	0
594.981	1	11
595.150	1	3
595.320	1	3
595.490	1	-4
595.660	1	4
595.829	1	4
595.999	1	3
596.169	1	6
596.339	1	7
596.509	1	2
596.678	1	3
596.848	1	19
597.018	1	4
597.188	1	6
597.358	1	9
597.527	1	1
597.697	1	3
597.867	1	4
598.037	1	8
598.206	1	-4
598.376	1	11
598.546	1	1
598.716	1	4
598.885	1	4
599.055	1	6
599.225	1	6
599.395	1	13
599.565	1	10
599.734	1	4
599.904	1	2
600.074	1	4
600.244	1	2
600.413	1	9
600.583	1	-3
600.753	1	1
600.923	1	19
601.092	1	-3
601.262	1	10
601.432	1	3
601.602	1	19
601.771	1	13
601.941	1	8
602.111	1	-2
602.281	1	1
602.451	1	8
602.620	1	6
602.790	1	7
602.960	1	0
603.130	1	8
603.299	1	8
603.469	1	-1
603.639	1	10
603.809	1	13
603.978	1	-1
604.148	1	3
604.318	1	-1
604.487	1	6
604.657	1	0
604.827	1	-11
604.997	1	0
605.166	1	-5
605.336	1	5
605.506	1	12
605.676	1	-3
605.845	1	10
606.015	1	8
606.185	1	7
606.355	1	10
606.524	1	2
606.694	1	12
606.864	1	8
607.034	1	-3
607.203	1	19
607.373	1	5
607.543	1	-4
607.712	1	9
607.882	1	3
608.052	1	6
608.222	1	8
608.391	1	-1
608.561	1	11
608.731	1	-9
608.901	1	10
609.070	1	1
609.240	1	8
609.410	1	3
609.579	1	-2
609.749	1	5
609.919	1	-3
610.089	1	-14
610.258	1	9
610.428	1	1
610.598	1	6
610.767	1	10
610.937	1	15
611.107	1	16
611.277	1	6
611.446	1	-2
611.616	1	-7
611.786	1	9
611.955	1	4
612.125	1	7
612.295	1	6
612.465	1	3
612.634	1	9
612.804	1	11
612.974	1	8
613.143	1	5
613.313	1	6
613.483	1	16
613.652	1	-9
613.822	1	5
613.992	1	3
614.162	1	3
614.331	1	3
614.501	1	8
614.671	1	12
614.840	1	6
615.010	1	0
615.180	1	13
615.349	1	10
615.519	1	6
615.689	1	1
615.858	1	6
616.028	1	4
616.198	1	11
616.368	1	-2
616.537	1	0
616.707	1	0
616.877	1	5
617.046	1	10
617.216	1	8
617.386	1	4
617.555	1	-7
617.725	1	7
617.895	1	10
618.064	1	15
618.234	1	0
618.404	1	13
618.573	1	2
618.743	1	-2
618.913	1	3
619.082	1	4
619.252	1	-1
619.422	1	14
619.591	1	4
619.761	1	9
619.931	1	5
620.100	1	13
620.270	1	0
620.440	1	5
620.609	1	0
620.779	1	-1
620.949	1	7
621.118	1	-4
621.288	1	6
621.458	1	10
621.627	1	-3
621.797	1	13
621.967	1	3
622.136	1	12
622.306	1	7
622.476	1	7
622.645	1	10
622.815	1	19
622.985	1	2
623.154	1	16
623.324	1	10
623.494	1	3
623.663	1	5
623.833	1	-2
624.002	1	0
624.172	1	15
624.342	1	1
624.511	1	-1
624.681	1	1
624.851	1	-2
625.020	1	4
625.190	1	4
625.360	1	2
625.529	1	9
625.699	1	5
625.869	1	7
626.038	1	7
626.208	1	4
626.377	1	14
626.547	1	14
626.717	1	-6
626.886	1	1
627.056	1	3
627.226	1	2
627.395	1	5
627.565	1	15
627.735	1	-1
627.904	1	6
628.074	1	14
628.243	1	-5
628.413	1	2
628.583	1	1
628.752	1	15
628.922	1	3
629.091	1	12
629.261	1	8
629.431	1	-7
629.600	1	4
629.770	1	5
629.940	1	12
630.109	1	0
630.279	1	-9
630.448	1	5
630.618	1	11
630.788	1	9
630.957	1	-6
631.127	1	11
631.297	1	-2
631.466	1	9
631.636	1	-2
631.805	1	2
631.975	1	10
632.145	1	-8
632.314	1	14
632.484	1	-1
632.653	1	3
632.823	1	8
632.993	1	8
633.162	1	6
633.332	1	8
633.501	1	4
633.671	1	3
633.841	1	12
634.010	1	-4
634.180	1	12
634.349	1	3
634.519	1	8
634.689	1	8
634.858	1	13
635.028	1	4
635.197	1	-1
635.367	1	1
635.537	1	8
635.706	1	-4
635.876	1	-3
636.045	1	8
636.215	1	2
636.384	1	8
636.554	1	17
636.724	1	12
636.893	1	5
637.063	1	4
637.232	1	2
637.402	1	13
637.572	1	6
637.741	1	13
637.911	1	0
638.080	1	2
638.250	1	6
638.419	1	6
638.589	1	16
638.759	1	7
638.928	1	-5
639.098	1	3
639.267	1	4
639.437	1	3
639.606	1	13
639.776	1	3
639.946	1	5
640.115	1	3
640.285	1	6
640.454	1	18
640.624	1	12
640.793	1	7
640.963	1	3
641.132	1	10
641.302	1	8
641.472	1	-12
641.641	1	8
641.811	1	8
641.980	1	-3
642.150	1	1
642.319	1	7
642.489	1	0
642.659	1	-8
642.828	1	3
642.998	1	8
643.167	1	4
643.337	1	9
643.506	1	5
643.676	1	10
643.845	1	6
644.015	1	6
644.184	1	13
644.354	1	0
644.524	1	-9
644.693	1	8
644.863	1	-8
645.032	1	4
645.202	1	1
645.371	1	-1
645.541	1	2
645.710	1	-3
645.880	1	10
646.049	1	12
646.219	1	7
646.388	1	5
646.558	1	-2
646.728	1	7
646.897	1	2
647.067	1	1
647.236	1	3
647.406	1	6
647.575	1	6
647.745	1	0
647.914	1	7
648.084	1	8
648.253	1	1
648.423	1	6
648.592	1	5
648.762	1	2
648.931	1	11
649.101	1	6
649.270	1	20
649.440	1	11
649.610	1	16
649.779	1	9
649.949	1	7
650.118	1	-3
650.288	1	5
650.457	1	1
650.627	1	12
650.796	1	-8
650.966	1	-2
651.135	1	7
651.305	1	8
651.474	1	6
651.644	1	4
651.813	1	3
651.983	1	12
652.152	1	3
652.322	1	11
652.491	1	9
652.661	1	6
652.830	1	12
653.000	1	-4
653.169	1	11
653.339	1	14
653.508	1	3
653.678	1	4
653.847	1	11
654.017	1	6
654.186	1	2
654.356	1	4
654.525	1	3
654.695	1	15
654.864	1	11
655.034	1	8
655.203	1	13
655.373	1	4
655.542	1	-2
655.712	1	-5
655.881	1	10
656.051	1	12
656.220	1	11
656.390	1	3
656.559	1	2
656.729	1	8
656.898	1	9
657.068	1	2
657.237	1	9
657.406	1	6
657.576	1	-8
657.745	1	3
657.915	1	7
658.084	1	13
658.254	1	7
658.423	1	-5
658.593	1	-5
658.762	1	-2
658.932	1	6
659.101	1	-1
659.271	1	0
659.440	1	6
659.610	1	13
659.779	1	1
659.949	1	9
660.118	1	5
660.288	1	-2
660.457	1	-1
660.626	1	-1
660.796	1	0
660.965	1	9
661.135	1	5
661.304	1	3
661.474	1	7
661.643	1	5
661.813	1	10
661.982	1	12
662.152	1	-4
662.321	1	4
662.491	1	1
662.660	1	1
662.829	1	6
662.999	1	-1
663.168	1	-4
663.338	1	-6
663.507	1	4
663.677	1	-10
663.846	1	6
664.016	1	-2
664.185	1	-3
664.354	1	2
664.524	1	-8
664.693	1	3
664.863	1	5
665.032	1	-2
665.202	1	-6
665.371	1	6
665.541	1	2
665.710	1	-2
665.879	1	1
666.049	1	-2
666.218	1	4
666.388	1	0
666.557	1	6
666.727	1	-12
666.896	1	7
667.065	1	8
667.235	1	5
667.404	1	-2
667.574	1	8
667.743	1	0
667.913	1	5
668.082	1	-1
668.251	1	8
668.421	1	8
668.590	1	8
668.760	1	2
668.929	1	5
669.099	1	-2
669.268	1	7
669.437	1	8
669.607	1	0
669.776	1	-2
669.946	1	10
670.115	1	4
670.285	1	8
670.454	1	-1
670.623	1	12
670.793	1	4
670.962	1	2
671.132	1	9
671.301	1	1
671.470	1	4
671.640	1	-7
671.809	1	1
671.979	1	18
672.148	1	9
672.317	1	-3
672.487	1	2
672.656	1	10
672.826	1	-10
672.995	1	13
673.164	1	9
673.334	1	1
673.503	1	10
673.673	1	17
673.842	1	0
674.011	1	10
674.181	1	-5
674.350	1	3
674.520	1	3
674.689	1	-2
674.858	1	9
675.028	1	3
675.197	1	-11
675.367	1	6
675.536	1	10
675.705	1	2
675.875	1	5
676.044	1	4
676.214	1	10
676.383	1	5
676.552	1	-8
676.722	1	-1
676.891	1	-7
677.060	1	13
677.230	1	12
677.399	1	9
677.569	1	-3
677.738	1	-1
677.907	1	-2
678.077	1	8
678.246	1	-12
678.416	1	5
678.585	1	17
678.754	1	1
678.924	1	-2
679.093	1	4
679.262	1	14
679.432	1	-1
679.601	1	-3
679.771	1	11
679.940	1	0
680.109	1	5
680.279	1	-5
680.448	1	11
680.617	1	-4
680.787	1	-3
680.956	1	5
681.125	1	4
681.295	1	4
681.464	1	3
681.634	1	4
681.803	1	-9
681.972	1	-9
682.142	1	9
682.311	1	1
682.480	1	-3
682.650	1	-6
682.819	1	-2
682.988	1	-1
683.158	1	18
683.327	1	-4
683.496	1	-3
683.666	1	-1
683.835	1	6
684.004	1	2
684.174	1	8
684.343	1	6
684.512	1	-2
684.682	1	5
684.851	1	-1
685.021	1	9
685.190	1	12
685.359	1	-5
685.529	1	3
685.698	1	7
685.867	1	0
686.037	1	8
686.206	1	9
686.375	1	4
686.545	1	10
686.714	1	3
686.883	1	3
687.053	1	11
687.222	1	1
687.391	1	1
687.561	1	7
687.730	1	8
687.899	1	1
688.069	1	6
688.238	1	6
688.407	1	15
688.577	1	-8
688.746	1	3
