340.368	1	-1
340.539	1	6
340.710	1	-8
340.881	1	6
341.052	1	4
341.223	1	3
341.394	1	-9
341.565	1	-4
341.737	1	-2
341.908	1	-1
342.079	1	-8
342.250	1	2
342.421	1	-10
342.592	1	-3
342.763	1	-6
342.934	1	4
343.105	1	4
343.276	1	-2
343.447	1	4
343.618	1	14
343.789	1	-1
343.960	1	-8
344.131	1	-4
344.302	1	-4
344.473	1	-5
344.644	1	-3
344.815	1	3
344.986	1	4
345.157	1	7
345.328	1	-3
345.499	1	1
345.670	1	-1
345.841	1	-1
346.012	1	7
346.183	1	2
346.354	1	-9
346.526	1	3
346.697	1	6
346.868	1	-1
347.039	1	1
347.210	1	-8
347.381	1	2
347.552	1	-6
347.723	1	0
347.894	1	1
348.065	1	-1
348.236	1	1
348.407	1	1
348.578	1	3
348.749	1	-1
348.920	1	7
349.091	1	2
349.262	1	-7
349.433	1	1
349.604	1	13
349.775	1	4
349.946	1	7
350.117	1	5
350.288	1	4
350.459	1	7
350.630	1	-10
350.801	1	2
350.972	1	-4
351.143	1	-10
351.314	1	-2
351.485	1	-5
351.656	1	-3
351.827	1	-3
351.998	1	3
352.169	1	6
352.340	1	-9
352.511	1	-5
352.682	1	0
352.853	1	-5
353.024	1	-12
353.195	1	-5
353.366	1	2
353.537	1	-5
353.708	1	-5
353.879	1	7
354.050	1	-2
354.221	1	-15
354.392	1	4
354.563	1	14
354.734	1	-2
354.905	1	1
355.076	1	7
355.247	1	1
355.418	1	-7
355.589	1	-3
355.760	1	11
355.931	1	0
356.102	1	-6
356.273	1	3
356.444	1	2
356.615	1	1
356.785	1	8
356.956	1	-5
357.127	1	-1
357.298	1	-8
357.469	1	-14
357.640	1	8
357.811	1	9
357.982	1	-2
358.153	1	2
358.324	1	-6
358.495	1	10
358.666	1	-8
358.837	1	-8
359.008	1	-5
359.179	1	3
359.350	1	-6
359.521	1	-2
359.692	1	3
359.863	1	-9
360.034	1	-5
360.205	1	-8
360.376	1	-1
360.547	1	-2
360.718	1	-5
360.889	1	0
361.060	1	4
361.231	1	-1
361.401	1	-5
361.572	1	-7
361.743	1	-4
361.914	1	-4
362.085	1	-5
362.256	1	11
362.427	1	-2
362.598	1	0
362.769	1	6
362.940	1	0
363.111	1	9
363.282	1	0
363.453	1	1
363.624	1	3
363.795	1	4
363.966	1	1
364.137	1	-2
364.308	1	-2
364.478	1	6
364.649	1	5
364.820	1	8
364.991	1	10
365.162	1	-7
365.333	1	2
365.504	1	-9
365.675	1	-6
365.846	1	-11
366.017	1	4
366.188	1	-6
366.359	1	1
366.530	1	7
366.701	1	-6
366.871	1	17
367.042	1	-4
367.213	1	10
367.384	1	5
367.555	1	-7
367.726	1	7
367.897	1	3
368.068	1	4
368.239	1	12
368.410	1	3
368.581	1	-6
368.752	1	-9
368.923	1	-9
369.093	1	-4
369.264	1	-6
369.435	1	3
369.606	1	-5
369.777	1	-6
369.948	1	5
370.119	1	3
370.290	1	-6
370.461	1	-8
370.632	1	-5
370.803	1	-2
370.973	1	11
371.144	1	1
371.315	1	-6
371.486	1	3
371.657	1	-2
371.828	1	4
371.999	1	-7
372.170	1	8
372.341	1	1
372.512	1	-1
372.682	1	-10
372.853	1	10
373.024	1	6
373.195	1	1
373.366	1	0
373.537	1	0
373.708	1	-3
373.879	1	3
374.050	1	6
374.220	1	-2
374.391	1	-1
374.562	1	-3
374.733	1	11
374.904	1	-3
375.075	1	8
375.246	1	-7
375.417	1	-4
375.588	1	-9
375.758	1	-1
375.929	1	4
376.100	1	6
376.271	1	0
376.442	1	-1
376.613	1	5
376.784	1	-4
376.955	1	-9
377.125	1	1
377.296	1	10
377.467	1	-6
377.638	1	-4
377.809	1	14
377.980	1	1
378.151	1	-6
378.321	1	2
378.492	1	1
378.663	1	-9
378.834	1	1
379.005	1	8
379.176	1	2
379.347	1	1
379.518	1	-2
379.688	1	-1
379.859	1	-7
380.030	1	-8
380.201	1	-13
380.372	1	-4
380.543	1	9
380.714	1	3
380.884	1	5
381.055	1	-1
381.226	1	-3
381.397	1	-1
381.568	1	-1
381.739	1	3
381.910	1	6
382.080	1	-19
382.251	1	0
382.422	1	10
382.593	1	-5
382.764	1	0
382.935	1	-2
383.105	1	2
383.276	1	5
383.447	1	11
383.618	1	6
383.789	1	4
383.960	1	0
384.130	1	-13
384.301	1	4
384.472	1	-10
384.643	1	7
384.814	1	-3
384.985	1	6
385.156	1	5
385.326	1	8
385.497	1	-6
385.668	1	-3
385.839	1	3
386.010	1	3
386.180	1	5
386.351	1	-5
386.522	1	-1
386.693	1	10
386.864	1	-9
387.035	1	-5
387.205	1	-6
387.376	1	4
387.547	1	-5
387.718	1	13
387.889	1	13
388.060	1	-11
388.230	1	-2
388.401	1	10
388.572	1	0
388.743	1	-4
388.914	1	7
389.084	1	0
389.255	1	9
389.426	1	4
389.597	1	3
389.768	1	5
389.939	1	12
390.109	1	0
390.280	1	7
390.451	1	3
390.622	1	1
390.793	1	-1
390.963	1	12
391.134	1	-5
391.305	1	-2
391.476	1	7
391.647	1	-1
391.817	1	-1
391.988	1	-6
392.159	1	10
392.330	1	4
392.501	1	-2
392.671	1	7
392.842	1	2
393.013	1	10
393.184	1	7
393.355	1	4
393.525	1	0
393.696	1	-2
393.867	1	-3
394.038	1	-9
394.208	1	-4
394.379	1	-1
394.550	1	4
394.721	1	5
394.892	1	7
395.062	1	-5
395.233	1	3
395.404	1	5
395.575	1	2
395.746	1	-5
395.916	1	-3
396.087	1	-4
396.258	1	-8
396.429	1	-5
396.599	1	0
396.770	1	-7
396.941	1	14
397.112	1	-6
397.283	1	-1
397.453	1	-7
397.624	1	0
397.795	1	1
397.966	1	9
398.136	1	7
398.307	1	5
398.478	1	3
398.649	1	3
398.819	1	10
398.990	1	3
399.161	1	-1
399.332	1	13
399.503	1	-13
399.673	1	0
399.844	1	-5
400.015	1	10
400.186	1	6
400.356	1	-6
400.527	1	4
400.698	1	-11
400.869	1	13
401.039	1	6
401.210	1	-17
401.381	1	5
401.552	1	11
401.722	1	1
401.893	1	1
402.064	1	-6
402.235	1	8
402.405	1	-8
402.576	1	3
402.747	1	-6
402.918	1	-5
403.088	1	-8
403.259	1	-6
403.430	1	-3
403.601	1	-10
403.771	1	2
403.942	1	10
404.113	1	14
404.284	1	-1
404.454	1	11
404.625	1	1
404.796	1	-5
404.967	1	4
405.137	1	-1
405.308	1	-2
405.479	1	9
405.649	1	1
405.820	1	0
405.991	1	-1
406.162	1	-6
406.332	1	0
406.503	1	1
406.674	1	-6
406.845	1	5
407.015	1	-9
407.186	1	12
407.357	1	-4
407.527	1	0
407.698	1	-6
407.869	1	-9
408.040	1	-7
408.210	1	-11
408.381	1	0
408.552	1	-2
408.722	1	-7
408.893	1	7
409.064	1	3
409.235	1	-1
409.405	1	4
409.576	1	3
409.747	1	-9
409.917	1	-1
410.088	1	-1
410.259	1	5
410.430	1	1
410.600	1	6
410.771	1	7
410.942	1	1
411.112	1	4
411.283	1	-13
411.454	1	-1
411.625	1	-4
411.795	1	-7
411.966	1	-2
412.137	1	3
412.307	1	-2
412.478	1	-3
412.649	1	1
412.819	1	-6
412.990	1	-9
413.161	1	-12
413.332	1	-8
413.502	1	-7
413.673	1	9
413.844	1	3
414.014	1	-1
414.185	1	0
414.356	1	-3
414.526	1	4
414.697	1	2
414.868	1	3
415.038	1	-6
415.209	1	-8
415.380	1	-3
415.550	1	-2
415.721	1	1
415.892	1	0
416.063	1	11
416.233	1	8
416.404	1	-1
416.575	1	-4
416.745	1	-7
416.916	1	-12
417.087	1	-9
417.257	1	7
417.428	1	-7
417.599	1	1
417.769	1	4
417.940	1	0
418.111	1	-9
418.281	1	-5
418.452	1	-4
418.623	1	0
418.793	1	3
418.964	1	-3
419.135	1	8
419.305	1	-1
419.476	1	-1
419.647	1	6
419.817	1	-2
419.988	1	-8
420.159	1	-14
420.329	1	-2
420.500	1	6
420.671	1	-3
420.841	1	-1
421.012	1	13
421.183	1	4
421.353	1	7
421.524	1	0
421.695	1	8
421.865	1	4
422.036	1	-6
422.206	1	-2
422.377	1	10
422.548	1	0
422.718	1	-10
422.889	1	3
423.060	1	-1
423.230	1	3
423.401	1	-10
423.572	1	6
423.742	1	-3
423.913	1	8
424.084	1	-2
424.254	1	-4
424.425	1	-3
424.595	1	-11
424.766	1	10
424.937	1	-5
425.107	1	-1
425.278	1	-6
425.449	1	3
425.619	1	-5
425.790	1	1
425.961	1	0
426.131	1	0
426.302	1	-1
426.472	1	-10
426.643	1	-5
426.814	1	11
426.984	1	4
427.155	1	-3
427.326	1	1
427.496	1	6
427.667	1	5
427.837	1	-6
428.008	1	-7
428.179	1	-6
428.349	1	-6
428.520	1	-4
428.691	1	0
428.861	1	-5
429.032	1	-7
429.202	1	3
429.373	1	-15
429.544	1	-1
429.714	1	10
429.885	1	-1
430.055	1	4
430.226	1	-3
430.397	1	2
430.567	1	7
430.738	1	-7
430.909	1	-4
431.079	1	3
431.250	1	-8
431.420	1	-4
431.591	1	5
431.762	1	1
431.932	1	-2
432.103	1	9
432.273	1	0
432.444	1	2
432.615	1	-1
432.785	1	5
432.956	1	-3
433.126	1	0
433.297	1	4
433.468	1	-11
433.638	1	-6
433.809	1	4
433.979	1	-7
434.150	1	-10
434.320	1	-5
434.491	1	-1
434.662	1	4
434.832	1	2
435.003	1	4
435.173	1	1
435.344	1	4
435.515	1	-8
435.685	1	3
435.856	1	0
436.026	1	2
436.197	1	-7
436.368	1	-2
436.538	1	8
436.709	1	-1
436.879	1	-4
437.050	1	3
437.220	1	9
437.391	1	1
437.562	1	7
437.732	1	-3
437.903	1	-8
438.073	1	7
438.244	1	-9
438.414	1	5
438.585	1	1
438.756	1	0
438.926	1	-3
439.097	1	-1
439.267	1	4
439.438	1	3
439.608	1	-5
439.779	1	0
439.949	1	-13
440.120	1	-7
440.291	1	-7
440.461	1	-6
440.632	1	3
440.802	1	2
440.973	1	4
441.143	1	9
441.314	1	-5
441.485	1	-5
441.655	1	17
441.826	1	-4
441.996	1	-1
442.167	1	2
442.337	1	-6
442.508	1	-6
442.678	1	-9
442.849	1	3
443.019	1	1
443.190	1	-9
443.361	1	9
443.531	1	-1
443.702	1	1
443.872	1	5
444.043	1	-6
444.213	1	-10
444.384	1	4
444.554	1	3
444.725	1	6
444.895	1	-3
445.066	1	-10
445.237	1	2
445.407	1	-7
445.578	1	7
445.748	1	-10
445.919	1	3
446.089	1	2
446.260	1	3
446.430	1	-8
446.601	1	3
446.771	1	-4
446.942	1	-8
447.112	1	1
447.283	1	0
447.453	1	-13
447.624	1	9
447.794	1	-4
447.965	1	-9
448.135	1	0
448.306	1	-1
448.477	1	-4
448.647	1	1
448.818	1	7
448.988	1	-3
449.159	1	-12
449.329	1	-4
449.500	1	4
449.670	1	8
449.841	1	3
450.011	1	-3
450.182	1	-1
450.352	1	7
450.523	1	0
450.693	1	7
450.864	1	-6
451.034	1	0
451.205	1	8
451.375	1	5
451.546	1	3
451.716	1	8
451.887	1	-3
452.057	1	2
452.228	1	-9
452.398	1	7
452.569	1	-2
452.739	1	-6
452.910	1	-4
453.080	1	16
453.251	1	3
453.421	1	-1
453.592	1	4
453.762	1	10
453.933	1	-2
454.103	1	3
454.274	1	-1
454.444	1	2
454.615	1	3
454.785	1	-8
454.956	1	2
455.126	1	0
455.297	1	1
455.467	1	7
455.638	1	-1
455.808	1	-1
455.979	1	-1
456.149	1	-3
456.320	1	-11
456.490	1	2
456.661	1	-9
456.831	1	13
457.001	1	-7
457.172	1	-5
457.342	1	9
457.513	1	5
457.683	1	10
457.854	1	2
458.024	1	-6
458.195	1	-8
458.365	1	-4
458.536	1	7
458.706	1	0
458.877	1	4
459.047	1	-7
459.218	1	-1
459.388	1	5
459.559	1	4
459.729	1	4
459.899	1	7
460.070	1	6
460.240	1	2
460.411	1	6
460.581	1	-5
460.752	1	-3
460.922	1	2
461.093	1	-3
461.263	1	-4
461.434	1	6
461.604	1	-8
461.775	1	-4
461.945	1	7
462.115	1	-8
462.286	1	12
462.456	1	-9
462.627	1	-4
462.797	1	-8
462.968	1	-10
463.138	1	3
463.309	1	-4
463.479	1	8
463.649	1	7
463.820	1	1
463.990	1	0
464.161	1	5
464.331	1	1
464.502	1	2
464.672	1	-9
464.843	1	-1
465.013	1	-10
465.183	1	-2
465.354	1	-3
465.524	1	10
465.695	1	4
465.865	1	0
466.036	1	6
466.206	1	-2
466.376	1	-6
466.547	1	4
466.717	1	-2
466.888	1	-4
467.058	1	17
467.229	1	4
467.399	1	2
467.569	1	3
467.740	1	-5
467.910	1	-4
468.081	1	4
468.251	1	-10
468.422	1	0
468.592	1	8
468.762	1	-6
468.933	1	-2
469.103	1	0
469.274	1	-5
469.444	1	-10
469.614	1	-1
469.785	1	10
469.955	1	3
470.126	1	7
470.296	1	0
470.467	1	-3
470.637	1	12
470.807	1	0
470.978	1	-2
471.148	1	4
471.319	1	6
471.489	1	-7
471.659	1	9
471.830	1	3
472.000	1	6
472.171	1	5
472.341	1	4
472.511	1	11
472.682	1	0
472.852	1	-3
473.023	1	-4
473.193	1	-8
473.363	1	-2
473.534	1	-2
473.704	1	11
473.875	1	5
474.045	1	-13
474.215	1	-9
474.386	1	2
474.556	1	-11
474.727	1	2
474.897	1	6
475.067	1	-7
475.238	1	1
475.408	1	-2
475.578	1	0
475.749	1	1
475.919	1	2
476.090	1	-10
476.260	1	-4
476.430	1	-3
476.601	1	6
476.771	1	-1
476.942	1	-11
477.112	1	-5
477.282	1	-12
477.453	1	2
477.623	1	9
477.793	1	0
477.964	1	9
478.134	1	2
478.305	1	3
478.475	1	-9
478.645	1	-7
478.816	1	-8
478.986	1	-5
479.156	1	6
479.327	1	-9
479.497	1	3
479.667	1	5
479.838	1	9
480.008	1	5
480.179	1	-1
480.349	1	-3
480.519	1	-6
480.690	1	-4
480.860	1	-3
481.030	1	-1
481.201	1	-6
481.371	1	0
481.541	1	5
481.712	1	3
481.882	1	-5
482.053	1	7
482.223	1	-13
482.393	1	-13
482.564	1	-14
482.734	1	4
482.904	1	-2
483.075	1	4
483.245	1	6
483.415	1	5
483.586	1	-6
483.756	1	1
483.926	1	-6
484.097	1	-8
484.267	1	-3
484.437	1	-12
484.608	1	6
484.778	1	-5
484.948	1	1
485.119	1	1
485.289	1	10
485.459	1	7
485.630	1	-15
485.800	1	-1
485.970	1	6
486.141	1	-16
486.311	1	-1
486.481	1	0
486.652	1	12
486.822	1	13
486.992	1	0
487.163	1	-7
487.333	1	5
487.503	1	-9
487.674	1	-9
487.844	1	-1
488.014	1	3
488.185	1	-3
488.355	1	1
488.525	1	-6
488.696	1	-5
488.866	1	2
489.036	1	6
489.207	1	5
489.377	1	-3
489.547	1	-8
489.718	1	1
489.888	1	0
490.058	1	-6
490.228	1	-6
490.399	1	3
490.569	1	1
490.739	1	0
490.910	1	-6
491.080	1	5
491.250	1	5
491.421	1	-3
491.591	1	-9
491.761	1	4
491.932	1	5
492.102	1	-11
492.272	1	1
492.442	1	-3
492.613	1	-5
492.783	1	-5
492.953	1	1
493.124	1	-10
493.294	1	5
493.464	1	-8
493.635	1	-6
493.805	1	7
493.975	1	-1
494.145	1	-1
494.316	1	3
494.486	1	4
494.656	1	0
494.827	1	-8
494.997	1	-3
495.167	1	-1
495.337	1	-7
495.508	1	-2
495.678	1	8
495.848	1	6
496.019	1	-7
496.189	1	-3
496.359	1	-4
496.529	1	-6
496.700	1	2
496.870	1	6
497.040	1	2
497.211	1	10
497.381	1	-9
497.551	1	10
497.721	1	0
497.892	1	0
498.062	1	-10
498.232	1	3
498.403	1	7
498.573	1	-7
498.743	1	12
498.913	1	7
499.084	1	-8
499.254	1	-2
499.424	1	4
499.594	1	-1
499.765	1	-6
499.935	1	-7
500.105	1	6
500.275	1	-1
500.446	1	12
500.616	1	5
500.786	1	6
500.956	1	-6
501.127	1	6
501.297	1	13
501.467	1	-8
501.638	1	-1
501.808	1	-12
501.978	1	9
502.148	1	-2
502.319	1	-2
502.489	1	8
502.659	1	1
502.829	1	-1
503.000	1	4
503.170	1	9
503.340	1	-4
503.510	1	0
503.681	1	-1
503.851	1	-14
504.021	1	14
504.191	1	1
504.362	1	6
504.532	1	-9
504.702	1	0
504.872	1	-1
505.042	1	1
505.213	1	2
505.383	1	-4
505.553	1	8
505.723	1	-1
505.894	1	-5
506.064	1	10
506.234	1	-1
506.404	1	-6
506.575	1	-2
506.745	1	-5
506.915	1	-2
507.085	1	-6
507.256	1	-5
507.426	1	7
507.596	1	-3
507.766	1	-4
507.936	1	4
508.107	1	-1
508.277	1	-15
508.447	1	6
508.617	1	1
508.788	1	3
508.958	1	9
509.128	1	-9
509.298	1	13
509.468	1	7
509.639	1	7
509.809	1	5
509.979	1	3
510.149	1	0
510.319	1	-8
510.490	1	10
510.660	1	6
510.830	1	4
511.000	1	8
511.171	1	11
511.341	1	-3
511.511	1	0
511.681	1	0
511.851	1	-10
512.022	1	-5
512.192	1	-3
512.362	1	-5
512.532	1	-7
512.702	1	-17
512.873	1	11
513.043	1	10
513.213	1	9
513.383	1	-2
513.553	1	-11
513.724	1	6
513.894	1	-3
514.064	1	3
514.234	1	3
514.404	1	0
514.575	1	9
514.745	1	-2
514.915	1	2
515.085	1	-7
515.255	1	-6
515.425	1	-9
515.596	1	-5
515.766	1	2
515.936	1	-1
516.106	1	-1
516.276	1	1
516.447	1	6
516.617	1	-5
516.787	1	-7
516.957	1	3
517.127	1	5
517.297	1	5
517.468	1	-8
517.638	1	4
517.808	1	3
517.978	1	-12
518.148	1	-4
518.319	1	-4
518.489	1	-5
518.659	1	4
518.829	1	-8
518.999	1	4
519.169	1	6
519.340	1	2
519.510	1	2
519.680	1	0
519.850	1	-2
520.020	1	-1
520.190	1	2
520.361	1	-6
520.531	1	5
520.701	1	4
520.871	1	-9
521.041	1	3
521.211	1	0
521.382	1	-2
521.552	1	13
521.722	1	-3
521.892	1	-11
522.062	1	1
522.232	1	-11
522.402	1	-11
522.573	1	0
522.743	1	7
522.913	1	2
523.083	1	1
523.253	1	6
523.423	1	-5
523.593	1	-10
523.764	1	5
523.934	1	-3
524.104	1	-1
524.274	1	-9
524.444	1	-1
524.614	1	2
524.784	1	4
524.955	1	1
525.125	1	2
525.295	1	-6
525.465	1	3
525.635	1	9
525.805	1	-7
525.975	1	0
526.146	1	-8
526.316	1	-6
526.486	1	2
526.656	1	8
526.826	1	4
526.996	1	9
527.166	1	5
527.337	1	-7
527.507	1	-5
527.677	1	10
527.847	1	-5
528.017	1	-3
528.187	1	-2
528.357	1	14
528.527	1	-1
528.698	1	-4
528.868	1	2
529.038	1	4
529.208	1	-2
529.378	1	5
529.548	1	-4
529.718	1	10
529.888	1	-2
530.058	1	-2
530.229	1	8
530.399	1	3
530.569	1	3
530.739	1	-2
530.909	1	-8
531.079	1	-3
531.249	1	-2
531.419	1	4
531.589	1	-7
531.760	1	7
531.930	1	1
532.100	1	4
532.270	1	10
532.440	1	4
532.610	1	-8
532.780	1	5
532.950	1	0
533.120	1	-9
533.290	1	-1
533.461	1	7
533.631	1	-4
533.801	1	9
533.971	1	3
534.141	1	5
534.311	1	1
534.481	1	7
534.651	1	-10
534.821	1	6
534.991	1	3
535.162	1	-1
535.332	1	4
535.502	1	7
535.672	1	-2
535.842	1	-4
536.012	1	8
536.182	1	-5
536.352	1	1
536.522	1	7
536.692	1	-4
536.862	1	-2
537.032	1	1
537.203	1	-1
537.373	1	-1
537.543	1	2
537.713	1	7
537.883	1	4
538.053	1	4
538.223	1	6
538.393	1	4
538.563	1	-4
538.733	1	-4
538.903	1	-10
539.073	1	-7
539.243	1	-2
539.413	1	-4
539.584	1	4
539.754	1	-10
539.924	1	4
540.094	1	1
540.264	1	3
540.434	1	0
540.604	1	6
540.774	1	-6
540.944	1	1
541.114	1	-4
541.284	1	-9
541.454	1	5
541.624	1	2
541.794	1	-14
541.964	1	3
542.134	1	4
542.305	1	-11
542.475	1	1
542.645	1	-9
542.815	1	11
542.985	1	-7
543.155	1	-1
543.325	1	2
543.495	1	1
543.665	1	-1
543.835	1	-2
544.005	1	-4
544.175	1	2
544.345	1	-13
544.515	1	8
544.685	1	11
544.855	1	5
545.025	1	-8
545.195	1	4
545.365	1	-4
545.535	1	6
545.705	1	4
545.875	1	7
546.045	1	8
546.216	1	3
546.386	1	-1
546.556	1	0
546.726	1	-3
546.896	1	-9
547.066	1	4
547.236	1	-10
547.406	1	9
547.576	1	-4
547.746	1	15
547.916	1	4
548.086	1	-2
548.256	1	4
548.426	1	-10
548.596	1	5
548.766	1	-3
548.936	1	-6
549.106	1	2
549.276	1	7
549.446	1	0
549.616	1	5
549.786	1	9
549.956	1	-1
550.126	1	3
550.296	1	3
550.466	1	-8
550.636	1	2
550.806	1	8
550.976	1	-1
551.146	1	-11
551.316	1	3
551.486	1	3
551.656	1	-10
551.826	1	11
551.996	1	-2
552.166	1	3
552.336	1	2
552.506	1	-4
552.676	1	-6
552.846	1	2
553.016	1	2
553.186	1	6
553.356	1	-12
553.526	1	-5
553.696	1	13
553.866	1	-3
554.036	1	2
554.206	1	3
554.376	1	1
554.546	1	-16
554.716	1	2
554.886	1	-1
555.056	1	-10
555.226	1	-9
555.396	1	-7
555.566	1	-7
555.736	1	-8
555.906	1	6
556.076	1	0
556.246	1	-9
556.416	1	3
556.586	1	5
556.756	1	-4
556.926	1	8
557.096	1	-13
557.266	1	10
557.436	1	7
557.606	1	-7
557.776	1	5
557.946	1	5
558.116	1	9
558.286	1	3
558.456	1	-5
558.626	1	10
558.796	1	4
558.966	1	-2
559.136	1	4
559.306	1	0
559.476	1	-7
559.646	1	-10
559.816	1	1
559.986	1	-13
560.155	1	12
560.325	1	-10
560.495	1	2
560.665	1	4
560.835	1	2
561.005	1	-5
561.175	1	-8
561.345	1	-4
561.515	1	-4
561.685	1	2
561.855	1	0
562.025	1	1
562.195	1	-5
562.365	1	2
562.535	1	4
562.705	1	4
562.875	1	-6
563.045	1	7
563.215	1	-7
563.385	1	-6
563.555	1	9
563.725	1	-1
563.895	1	-1
564.064	1	10
564.234	1	-7
564.404	1	-4
564.574	1	-7
564.744	1	3
564.914	1	-18
565.084	1	-9
565.254	1	2
565.424	1	-1
565.594	1	-7
565.764	1	16
565.934	1	-1
566.104	1	0
566.274	1	-4
566.444	1	4
566.614	1	9
566.783	1	5
566.953	1	-5
567.123	1	12
567.293	1	-6
567.463	1	2
567.633	1	-2
567.803	1	-4
567.973	1	-2
568.143	1	-12
568.313	1	1
568.483	1	0
568.653	1	-6
568.823	1	7
568.993	1	-5
569.162	1	-6
569.332	1	-9
569.502	1	-8
569.672	1	3
569.842	1	-1
570.012	1	-2
570.182	1	-5
570.352	1	12
570.522	1	9
570.692	1	2
570.862	1	2
571.031	1	-3
571.201	1	1
571.371	1	-2
571.541	1	-8
571.711	1	5
571.881	1	2
572.051	1	0
572.221	1	5
572.391	1	4
572.561	1	-6
572.731	1	-5
572.900	1	5
573.070	1	3
573.240	1	-1
573.410	1	5
573.580	1	-1
573.750	1	5
573.920	1	-4
574.090	1	-3
574.260	1	-1
574.430	1	-7
574.599	1	-2
574.769	1	0
574.939	1	-15
575.109	1	-1
575.279	1	11
575.449	1	11
575.619	1	2
575.789	1	7
575.959	1	-12
576.128	1	-1
576.298	1	-12
576.468	1	-4
576.638	1	0
576.808	1	-6
576.978	1	-3
577.148	1	10
577.318	1	6
577.487	1	-1
577.657	1	-16
577.827	1	3
577.997	1	-8
578.167	1	8
578.337	1	-3
578.507	1	-3
578.677	1	0
578.846	1	0
579.016	1	13
579.186	1	6
579.356	1	0
579.526	1	-5
579.696	1	-2
579.866	1	7
580.036	1	7
580.205	1	-5
580.375	1	-8
580.545	1	10
580.715	1	3
580.885	1	-5
581.055	1	0
581.225	1	-9
581.394	1	-4
581.564	1	-3
581.734	1	-2
581.904	1	-5
582.074	1	-9
582.244	1	2
582.414	1	6
582.583	1	-10
582.753	1	-2
582.923	1	-2
583.093	1	-4
583.263	1	13
583.433	1	-10
583.603	1	1
583.772	1	0
583.942	1	9
584.112	1	7
584.282	1	7
584.452	1	2
584.622	1	2
584.791	1	-9
584.961	1	8
585.131	1	-6
585.301	1	10
585.471	1	-2
585.641	1	0
585.811	1	-6
585.980	1	-19
586.150	1	-1
586.320	1	-8
586.490	1	-4
586.660	1	9
586.830	1	-6
586.999	1	2
587.169	1	-1
587.339	1	1
587.509	1	5
587.679	1	-3
587.849	1	0
588.018	1	6
588.188	1	-4
588.358	1	-1
588.528	1	9
588.698	1	-5
588.867	1	0
589.037	1	0
589.207	1	-9
589.377	1	1
589.547	1	-9
589.717	1	-2
589.886	1	-14
590.056	1	2
590.226	1	6
590.396	1	5
590.566	1	2
590.735	1	8
590.905	1	2
591.075	1	-12
591.245	1	-6
591.415	1	4
591.585	1	-9
591.754	1	2
591.924	1	6
592.094	1	2
592.264	1	-4
592.434	1	3
592.603	1	-14
592.773	1	-5
592.943	1	-7
593.113	1	-1
593.283	1	9
593.452	1	-13
593.622	1	9
593.792	1	13
593.962	1	6
594.132	1	0
594.301	1	17
594.471	1	0
594.641	1	-11
594.811	1	3
594.981	1	0
595.150	1	2
595.320	1	5
595.490	1	-6
595.660	1	-2
595.829	1	1
595.999	1	-1
596.169	1	8
596.339	1	0
596.509	1	-3
596.678	1	6
596.848	1	-3
597.018	1	5
597.188	1	6
597.358	1	-3
597.527	1	-4
597.697	1	5
597.867	1	4
598.037	1	8
598.206	1	-9
598.376	1	9
598.546	1	-2
598.716	1	-15
598.885	1	-2
599.055	1	-2
599.225	1	-3
599.395	1	11
599.565	1	0
599.734	1	1
599.904	1	-1
600.074	1	-6
600.244	1	10
600.413	1	-1
600.583	1	-8
600.753	1	-1
600.923	1	11
601.092	1	-10
601.262	1	4
601.432	1	-10
601.602	1	2
601.771	1	2
601.941	1	-5
602.111	1	-12
602.281	1	-1
602.451	1	-7
602.620	1	-4
602.790	1	-3
602.960	1	-12
603.130	1	2
603.299	1	-1
603.469	1	-7
603.639	1	4
603.809	1	6
603.978	1	-2
604.148	1	7
604.318	1	-5
604.487	1	0
604.657	1	1
604.827	1	-11
604.997	1	-1
605.166	1	-6
605.336	1	-11
605.506	1	0
605.676	1	-6
605.845	1	-2
606.015	1	5
606.185	1	1
606.355	1	14
606.524	1	3
606.694	1	13
606.864	1	0
607.034	1	-4
607.203	1	7
607.373	1	3
607.543	1	-2
607.712	1	4
607.882	1	-3
608.052	1	2
608.222	1	6
608.391	1	1
608.561	1	3
608.731	1	0
608.901	1	5
609.070	1	1
609.240	1	-10
609.410	1	-3
609.579	1	-10
609.749	1	2
609.919	1	0
610.089	1	-2
610.258	1	12
610.428	1	-1
610.598	1	-2
610.767	1	-7
610.937	1	3
611.107	1	-2
611.277	1	0
611.446	1	-5
611.616	1	-5
611.786	1	-1
611.955	1	15
612.125	1	1
612.295	1	-4
612.465	1	-4
612.634	1	-2
612.804	1	4
612.974	1	5
613.143	1	-5
613.313	1	2
613.483	1	5
613.652	1	-5
613.822	1	-2
613.992	1	1
614.162	1	-3
614.331	1	5
614.501	1	-3
614.671	1	1
614.840	1	2
615.010	1	1
615.180	1	8
615.349	1	1
615.519	1	4
615.689	1	-4
615.858	1	-2
616.028	1	1
616.198	1	-1
616.368	1	1
616.537	1	-4
616.707	1	-5
616.877	1	0
617.046	1	-4
617.216	1	0
617.386	1	-7
617.555	1	-8
617.725	1	9
617.895	1	-12
618.064	1	5
618.234	1	-1
618.404	1	3
618.573	1	-2
618.743	1	-1
618.913	1	2
619.082	1	4
619.252	1	1
619.422	1	-3
619.591	1	-1
619.761	1	-7
619.931	1	4
620.100	1	4
620.270	1	-1
620.440	1	1
620.609	1	8
620.779	1	-3
620.949	1	-6
621.118	1	6
621.288	1	4
621.458	1	1
621.627	1	-11
621.797	1	3
621.967	1	-1
622.136	1	8
622.306	1	4
622.476	1	0
622.645	1	6
622.815	1	-4
622.985	1	7
623.154	1	5
623.324	1	5
623.494	1	1
623.663	1	0
623.833	1	0
624.002	1	-4
624.172	1	17
624.342	1	1
624.511	1	0
624.681	1	-4
624.851	1	-12
625.020	1	0
625.190	1	-1
625.360	1	-10
625.529	1	-1
625.699	1	-5
625.869	1	3
626.038	1	-1
626.208	1	-1
626.377	1	5
626.547	1	0
626.717	1	4
626.886	1	-15
627.056	1	-12
627.226	1	-1
627.395	1	-1
627.565	1	9
627.735	1	6
627.904	1	-1
628.074	1	4
628.243	1	-11
628.413	1	-7
628.583	1	-1
628.752	1	7
628.922	1	0
629.091	1	0
629.261	1	9
629.431	1	-10
629.600	1	-10
629.770	1	1
629.940	1	9
630.109	1	-5
630.279	1	-8
630.448	1	-2
630.618	1	-12
630.788	1	-4
630.957	1	-1
631.127	1	6
631.297	1	-4
631.466	1	4
631.636	1	-6
631.805	1	-2
631.975	1	-2
632.145	1	-8
632.314	1	7
632.484	1	-3
632.653	1	-10
632.823	1	0
632.993	1	-2
633.162	1	-2
633.332	1	7
633.501	1	1
633.671	1	3
633.841	1	1
634.010	1	4
634.180	1	9
634.349	1	-2
634.519	1	4
634.689	1	5
634.858	1	9
635.028	1	1
635.197	1	-10
635.367	1	5
635.537	1	2
635.706	1	-11
635.876	1	-7
636.045	1	-1
636.215	1	-4
636.384	1	1
636.554	1	7
636.724	1	1
636.893	1	-7
637.063	1	0
637.232	1	-5
637.402	1	14
637.572	1	-2
637.741	1	3
637.911	1	-2
638.080	1	-2
638.250	1	-1
638.419	1	4
638.589	1	9
638.759	1	-1
638.928	1	-5
639.098	1	0
639.267	1	2
639.437	1	-1
639.606	1	3
639.776	1	-4
639.946	1	0
640.115	1	-2
640.285	1	-3
640.454	1	3
640.624	1	5
640.793	1	7
640.963	1	-11
641.132	1	6
641.302	1	-2
641.472	1	-3
641.641	1	-10
641.811	1	0
641.980	1	-1
642.150	1	-6
642.319	1	-3
642.489	1	1
642.659	1	-6
642.828	1	-3
642.998	1	-5
643.167	1	5
643.337	1	-5
643.506	1	6
643.676	1	0
643.845	1	-5
644.015	1	2
644.184	1	4
644.354	1	-1
644.524	1	-4
644.693	1	4
644.863	1	-8
645.032	1	3
645.202	1	7
645.371	1	-7
645.541	1	-7
645.710	1	-4
645.880	1	5
646.049	1	7
646.219	1	-7
646.388	1	0
646.558	1	-1
646.728	1	2
646.897	1	-9
647.067	1	-2
647.236	1	5
647.406	1	-5
647.575	1	0
647.745	1	4
647.914	1	-9
648.084	1	3
648.253	1	2
648.423	1	-3
648.592	1	5
648.762	1	-8
648.931	1	4
649.101	1	6
649.270	1	9
649.440	1	6
649.610	1	9
649.779	1	-9
649.949	1	2
650.118	1	-1
650.288	1	-2
650.457	1	0
650.627	1	-8
650.796	1	4
650.966	1	-2
651.135	1	0
651.305	1	-5
651.474	1	8
651.644	1	-2
651.813	1	3
651.983	1	3
652.152	1	-5
652.322	1	5
652.491	1	4
652.661	1	1
652.830	1	-5
653.000	1	-2
653.169	1	0
653.339	1	8
653.508	1	3
653.678	1	-6
653.847	1	6
654.017	1	-1
654.186	1	-13
654.356	1	2
654.525	1	-6
654.695	1	3
654.864	1	5
655.034	1	2
655.203	1	3
655.373	1	-6
655.542	1	10
655.712	1	-11
655.881	1	1
656.051	1	6
656.220	1	7
656.390	1	1
656.559	1	-4
656.729	1	6
656.898	1	5
657.068	1	2
657.237	1	6
657.406	1	14
657.576	1	-5
657.745	1	-3
657.915	1	14
658.084	1	6
658.254	1	10
658.423	1	-8
658.593	1	-10
658.762	1	1
658.932	1	-4
659.101	1	-8
659.271	1	2
659.440	1	2
659.610	1	-2
659.779	1	-5
659.949	1	-7
660.118	1	6
660.288	1	-14
660.457	1	-2
660.626	1	6
660.796	1	-6
660.965	1	5
661.135	1	-1
661.304	1	7
661.474	1	1
661.643	1	-11
661.813	1	-1
661.982	1	0
662.152	1	-3
662.321	1	1
662.491	1	-8
662.660	1	3
662.829	1	-4
662.999	1	1
663.168	1	-8
663.338	1	-4
663.507	1	-5
663.677	1	-12
663.846	1	8
664.016	1	-2
664.185	1	-1
664.354	1	5
664.524	1	-9
664.693	1	-3
664.863	1	1
665.032	1	-8
665.202	1	-11
665.371	1	0
665.541	1	3
665.710	1	-3
665.879	1	-2
666.049	1	-2
666.218	1	-15
666.388	1	-11
666.557	1	0
666.727	1	-12
666.896	1	-6
667.065	1	7
667.235	1	1
667.404	1	-9
667.574	1	6
667.743	1	-4
667.913	1	-3
668.082	1	0
668.251	1	-4
668.421	1	7
668.590	1	0
668.760	1	-12
668.929	1	7
669.099	1	-3
669.268	1	-2
669.437	1	1
669.607	1	-4
669.776	1	3
669.946	1	2
670.115	1	4
670.285	1	9
670.454	1	6
670.623	1	-5
670.793	1	-1
670.962	1	-2
671.132	1	2
671.301	1	-3
671.470	1	-9
671.640	1	-17
671.809	1	-8
671.979	1	14
672.148	1	-1
672.317	1	-6
672.487	1	4
672.656	1	4
672.826	1	-20
672.995	1	3
673.164	1	2
673.334	1	8
673.503	1	8
673.673	1	15
673.842	1	12
674.011	1	3
674.181	1	-8
674.350	1	-2
674.520	1	-2
674.689	1	-11
674.858	1	-4
675.028	1	8
675.197	1	-7
675.367	1	2
675.536	1	10
675.705	1	-10
675.875	1	0
676.044	1	-6
676.214	1	-4
676.383	1	-6
676.552	1	-7
676.722	1	0
676.891	1	-8
677.060	1	0
677.230	1	14
677.399	1	9
677.569	1	2
677.738	1	-8
677.907	1	-2
678.077	1	2
678.246	1	-17
678.416	1	4
678.585	1	9
678.754	1	1
678.924	1	-8
679.093	1	7
679.262	1	1
679.432	1	-9
679.601	1	-13
679.771	1	-12
679.940	1	-3
680.109	1	5
680.279	1	-8
680.448	1	-1
680.617	1	-4
680.787	1	-1
680.956	1	-11
681.125	1	-5
681.295	1	5
681.464	1	2
681.634	1	5
681.803	1	-6
681.972	1	-5
682.142	1	7
682.311	1	2
682.480	1	2
682.650	1	-10
682.819	1	-1
682.988	1	-7
683.158	1	-3
683.327	1	2
683.496	1	-2
683.666	1	0
683.835	1	3
684.004	1	1
684.174	1	4
684.343	1	-6
684.512	1	2
684.682	1	8
684.851	1	-3
685.021	1	10
685.190	1	2
685.359	1	-13
685.529	1	0
685.698	1	4
685.867	1	-4
686.037	1	-5
686.206	1	5
686.375	1	2
686.545	1	3
686.714	1	-6
686.883	1	-9
687.053	1	6
687.222	1	-3
687.391	1	-9
687.561	1	3
687.730	1	-4
687.899	1	0
688.069	1	5
688.238	1	-1
688.407	1	-1
688.577	1	-12
688.746	1	2
