340.368	1	16
340.539	1	6
340.710	1	-4
340.881	1	9
341.052	1	-4
341.223	1	10
341.394	1	-1
341.565	1	0
341.737	1	12
341.908	1	12
342.079	1	-11
342.250	1	-2
342.421	1	6
342.592	1	-2
342.763	1	2
342.934	1	5
343.105	1	14
343.276	1	-1
343.447	1	8
343.618	1	5
343.789	1	4
343.960	1	8
344.131	1	-3
344.302	1	4
344.473	1	4
344.644	1	-4
344.815	1	8
344.986	1	17
345.157	1	11
345.328	1	-6
345.499	1	15
345.670	1	8
345.841	1	5
346.012	1	3
346.183	1	0
346.354	1	5
346.526	1	-1
346.697	1	3
346.868	1	-2
347.039	1	0
347.210	1	-1
347.381	1	9
347.552	1	2
347.723	1	-2
347.894	1	-4
348.065	1	7
348.236	1	9
348.407	1	-2
348.578	1	11
348.749	1	4
348.920	1	14
349.091	1	3
349.262	1	2
349.433	1	0
349.604	1	9
349.775	1	10
349.946	1	8
350.117	1	13
350.288	1	7
350.459	1	4
350.630	1	0
350.801	1	1
350.972	1	6
351.143	1	1
351.314	1	-1
351.485	1	1
351.656	1	10
351.827	1	-1
351.998	1	6
352.169	1	15
352.340	1	9
352.511	1	7
352.682	1	-2
352.853	1	-2
353.024	1	-8
353.195	1	1
353.366	1	6
353.537	1	2
353.708	1	13
353.879	1	12
354.050	1	18
354.221	1	-5
354.392	1	12
354.563	1	6
354.734	1	0
354.905	1	4
355.076	1	2
355.247	1	2
355.418	1	4
355.589	1	7
355.760	1	6
355.931	1	4
356.102	1	2
356.273	1	3
356.444	1	11
356.615	1	8
356.785	1	17
356.956	1	10
357.127	1	14
357.298	1	-1
357.469	1	5
357.640	1	11
357.811	1	9
357.982	1	-15
358.153	1	12
358.324	1	5
358.495	1	16
358.666	1	-2
358.837	1	11
359.008	1	3
359.179	1	5
359.350	1	1
359.521	1	0
359.692	1	8
359.863	1	6
360.034	1	14
360.205	1	7
360.376	1	8
360.547	1	9
360.718	1	2
360.889	1	13
361.060	1	11
361.231	1	5
361.401	1	3
361.572	1	-1
361.743	1	7
361.914	1	7
362.085	1	1
362.256	1	5
362.427	1	8
362.598	1	11
362.769	1	16
362.940	1	9
363.111	1	20
363.282	1	8
363.453	1	8
363.624	1	3
363.795	1	11
363.966	1	7
364.137	1	10
364.308	1	8
364.478	1	21
364.649	1	9
364.820	1	12
364.991	1	26
365.162	1	6
365.333	1	17
365.504	1	3
365.675	1	14
365.846	1	9
366.017	1	16
366.188	1	12
366.359	1	10
366.530	1	15
366.701	1	12
366.871	1	19
367.042	1	26
367.213	1	22
367.384	1	14
367.555	1	12
367.726	1	24
367.897	1	16
368.068	1	3
368.239	1	12
368.410	1	9
368.581	1	16
368.752	1	14
368.923	1	0
369.093	1	6
369.264	1	11
369.435	1	8
369.606	1	10
369.777	1	3
369.948	1	15
370.119	1	15
370.290	1	5
370.461	1	8
370.632	1	8
370.803	1	4
370.973	1	18
371.144	1	10
371.315	1	6
371.486	1	14
371.657	1	7
371.828	1	11
371.999	1	1
372.170	1	14
372.341	1	16
372.512	1	14
372.682	1	2
372.853	1	15
373.024	1	16
373.195	1	2
373.366	1	8
373.537	1	12
373.708	1	12
373.879	1	15
374.050	1	15
374.220	1	13
374.391	1	11
374.562	1	10
374.733	1	12
374.904	1	10
375.075	1	15
375.246	1	18
375.417	1	11
375.588	1	11
375.758	1	3
375.929	1	15
376.100	1	10
376.271	1	18
376.442	1	-3
376.613	1	5
376.784	1	3
376.955	1	-2
377.125	1	6
377.296	1	3
377.467	1	4
377.638	1	11
377.809	1	18
377.980	1	8
378.151	1	2
378.321	1	10
378.492	1	10
378.663	1	5
378.834	1	8
379.005	1	12
379.176	1	0
379.347	1	11
379.518	1	4
379.688	1	5
379.859	1	2
380.030	1	5
380.201	1	-7
380.372	1	6
380.543	1	13
380.714	1	13
380.884	1	9
381.055	1	1
381.226	1	5
381.397	1	1
381.568	1	0
381.739	1	12
381.910	1	8
382.080	1	-2
382.251	1	14
382.422	1	14
382.593	1	13
382.764	1	10
382.935	1	16
383.105	1	7
383.276	1	7
383.447	1	17
383.618	1	23
383.789	1	16
383.960	1	10
384.130	1	10
384.301	1	2
384.472	1	5
384.643	1	13
384.814	1	15
384.985	1	11
385.156	1	19
385.326	1	21
385.497	1	20
385.668	1	10
385.839	1	22
386.010	1	15
386.180	1	16
386.351	1	15
386.522	1	25
386.693	1	14
386.864	1	15
387.035	1	25
387.205	1	17
387.376	1	28
387.547	1	19
387.718	1	33
387.889	1	29
388.060	1	6
388.230	1	13
388.401	1	22
388.572	1	17
388.743	1	20
388.914	1	26
389.084	1	26
389.255	1	22
389.426	1	17
389.597	1	11
389.768	1	25
389.939	1	20
390.109	1	9
390.280	1	24
390.451	1	25
390.622	1	14
390.793	1	23
390.963	1	19
391.134	1	18
391.305	1	18
391.476	1	22
391.647	1	28
391.817	1	12
391.988	1	17
392.159	1	24
392.330	1	23
392.501	1	13
392.671	1	23
392.842	1	23
393.013	1	23
393.184	1	24
393.355	1	20
393.525	1	16
393.696	1	21
393.867	1	11
394.038	1	7
394.208	1	23
394.379	1	6
394.550	1	19
394.721	1	22
394.892	1	14
395.062	1	4
395.233	1	21
395.404	1	23
395.575	1	7
395.746	1	12
395.916	1	25
396.087	1	13
396.258	1	15
396.429	1	12
396.599	1	15
396.770	1	23
396.941	1	33
397.112	1	9
397.283	1	22
397.453	1	8
397.624	1	16
397.795	1	27
397.966	1	21
398.136	1	8
398.307	1	20
398.478	1	13
398.649	1	14
398.819	1	19
398.990	1	18
399.161	1	21
399.332	1	19
399.503	1	12
399.673	1	16
399.844	1	11
400.015	1	23
400.186	1	20
400.356	1	6
400.527	1	18
400.698	1	16
400.869	1	25
401.039	1	19
401.210	1	10
401.381	1	20
401.552	1	27
401.722	1	18
401.893	1	22
402.064	1	9
402.235	1	26
402.405	1	9
402.576	1	29
402.747	1	6
402.918	1	2
403.088	1	9
403.259	1	11
403.430	1	5
403.601	1	0
403.771	1	16
403.942	1	17
404.113	1	22
404.284	1	14
404.454	1	21
404.625	1	17
404.796	1	23
404.967	1	12
405.137	1	12
405.308	1	6
405.479	1	11
405.649	1	10
405.820	1	13
405.991	1	23
406.162	1	10
406.332	1	14
406.503	1	10
406.674	1	19
406.845	1	17
407.015	1	1
407.186	1	21
407.357	1	11
407.527	1	8
407.698	1	5
407.869	1	8
408.040	1	6
408.210	1	11
408.381	1	8
408.552	1	11
408.722	1	9
408.893	1	13
409.064	1	9
409.235	1	15
409.405	1	10
409.576	1	15
409.747	1	15
409.917	1	16
410.088	1	9
410.259	1	12
410.430	1	12
410.600	1	11
410.771	1	17
410.942	1	10
411.112	1	13
411.283	1	-3
411.454	1	20
411.625	1	9
411.795	1	9
411.966	1	10
412.137	1	15
412.307	1	-1
412.478	1	20
412.649	1	16
412.819	1	3
412.990	1	16
413.161	1	3
413.332	1	2
413.502	1	8
413.673	1	16
413.844	1	7
414.014	1	7
414.185	1	6
414.356	1	17
414.526	1	18
414.697	1	17
414.868	1	14
415.038	1	7
415.209	1	6
415.380	1	9
415.550	1	3
415.721	1	5
415.892	1	9
416.063	1	28
416.233	1	5
416.404	1	8
416.575	1	10
416.745	1	4
416.916	1	11
417.087	1	2
417.257	1	16
417.428	1	11
417.599	1	11
417.769	1	14
417.940	1	14
418.111	1	7
418.281	1	10
418.452	1	12
418.623	1	7
418.793	1	17
418.964	1	16
419.135	1	12
419.305	1	6
419.476	1	12
419.647	1	9
419.817	1	5
419.988	1	11
420.159	1	0
420.329	1	9
420.500	1	7
420.671	1	9
420.841	1	17
421.012	1	18
421.183	1	8
421.353	1	13
421.524	1	8
421.695	1	9
421.865	1	2
422.036	1	9
422.206	1	3
422.377	1	8
422.548	1	0
422.718	1	9
422.889	1	18
423.060	1	3
423.230	1	17
423.401	1	7
423.572	1	6
423.742	1	11
423.913	1	20
424.084	1	11
424.254	1	14
424.425	1	7
424.595	1	-3
424.766	1	10
424.937	1	4
425.107	1	10
425.278	1	15
425.449	1	16
425.619	1	5
425.790	1	-1
425.961	1	8
426.131	1	14
426.302	1	12
426.472	1	10
426.643	1	14
426.814	1	19
426.984	1	6
427.155	1	6
427.326	1	4
427.496	1	23
427.667	1	15
427.837	1	-7
428.008	1	1
428.179	1	7
428.349	1	6
428.520	1	3
428.691	1	10
428.861	1	5
429.032	1	12
429.202	1	9
429.373	1	2
429.544	1	6
429.714	1	18
429.885	1	7
430.055	1	14
430.226	1	-1
430.397	1	9
430.567	1	12
430.738	1	11
430.909	1	1
431.079	1	15
431.250	1	-4
431.420	1	17
431.591	1	8
431.762	1	20
431.932	1	10
432.103	1	5
432.273	1	9
432.444	1	12
432.615	1	5
432.785	1	0
432.956	1	10
433.126	1	11
433.297	1	10
433.468	1	15
433.638	1	5
433.809	1	9
433.979	1	2
434.150	1	-1
434.320	1	-1
434.491	1	8
434.662	1	2
434.832	1	5
435.003	1	12
435.173	1	3
435.344	1	9
435.515	1	6
435.685	1	12
435.856	1	-2
436.026	1	6
436.197	1	-5
436.368	1	9
436.538	1	6
436.709	1	-2
436.879	1	8
437.050	1	19
437.220	1	10
437.391	1	14
437.562	1	12
437.732	1	0
437.903	1	-1
438.073	1	6
438.244	1	-1
438.414	1	10
438.585	1	2
438.756	1	18
438.926	1	4
439.097	1	11
439.267	1	13
439.438	1	18
439.608	1	5
439.779	1	3
439.949	1	5
440.120	1	3
440.291	1	-2
440.461	1	2
440.632	1	12
440.802	1	8
440.973	1	10
441.143	1	14
441.314	1	14
441.485	1	-4
441.655	1	21
441.826	1	-5
441.996	1	4
442.167	1	-1
442.337	1	0
442.508	1	8
442.678	1	9
442.849	1	15
443.019	1	9
443.190	1	-9
443.361	1	9
443.531	1	11
443.702	1	3
443.872	1	7
444.043	1	3
444.213	1	7
444.384	1	9
444.554	1	4
444.725	1	-2
444.895	1	4
445.066	1	-4
445.237	1	0
445.407	1	7
445.578	1	9
445.748	1	1
445.919	1	3
446.089	1	17
446.260	1	-2
446.430	1	-1
446.601	1	9
446.771	1	-8
446.942	1	8
447.112	1	10
447.283	1	4
447.453	1	2
447.624	1	5
447.794	1	0
447.965	1	1
448.135	1	1
448.306	1	2
448.477	1	5
448.647	1	12
448.818	1	27
448.988	1	-6
449.159	1	6
449.329	1	0
449.500	1	11
449.670	1	6
449.841	1	2
450.011	1	12
450.182	1	-3
450.352	1	5
450.523	1	6
450.693	1	5
450.864	1	6
451.034	1	16
451.205	1	11
451.375	1	21
451.546	1	5
451.716	1	7
451.887	1	6
452.057	1	10
452.228	1	4
452.398	1	7
452.569	1	14
452.739	1	3
452.910	1	5
453.080	1	5
453.251	1	14
453.421	1	2
453.592	1	-6
453.762	1	10
453.933	1	17
454.103	1	4
454.274	1	0
454.444	1	9
454.615	1	20
454.785	1	-2
454.956	1	-5
455.126	1	9
455.297	1	12
455.467	1	4
455.638	1	-2
455.808	1	2
455.979	1	8
456.149	1	-3
456.320	1	10
456.490	1	12
456.661	1	-2
456.831	1	16
457.001	1	1
457.172	1	6
457.342	1	11
457.513	1	9
457.683	1	8
457.854	1	8
458.024	1	6
458.195	1	5
458.365	1	1
458.536	1	13
458.706	1	1
458.877	1	-5
459.047	1	5
459.218	1	5
459.388	1	4
459.559	1	1
459.729	1	19
459.899	1	15
460.070	1	9
460.240	1	7
460.411	1	5
460.581	1	10
460.752	1	14
460.922	1	-3
461.093	1	6
461.263	1	9
461.434	1	13
461.604	1	9
461.775	1	9
461.945	1	20
462.115	1	4
462.286	1	14
462.456	1	-3
462.627	1	4
462.797	1	1
462.968	1	3
463.138	1	9
463.309	1	7
463.479	1	11
463.649	1	10
463.820	1	-1
463.990	1	8
464.161	1	-4
464.331	1	2
464.502	1	3
464.672	1	6
464.843	1	-2
465.013	1	-4
465.183	1	13
465.354	1	9
465.524	1	13
465.695	1	9
465.865	1	0
466.036	1	5
466.206	1	7
466.376	1	-3
466.547	1	6
466.717	1	-4
466.888	1	-2
467.058	1	17
467.229	1	8
467.399	1	6
467.569	1	10
467.740	1	5
467.910	1	6
468.081	1	10
468.251	1	-3
468.422	1	14
468.592	1	14
468.762	1	0
468.933	1	12
469.103	1	-3
469.274	1	0
469.444	1	-3
469.614	1	-3
469.785	1	3
469.955	1	3
470.126	1	12
470.296	1	9
470.467	1	1
470.637	1	23
470.807	1	2
470.978	1	6
471.148	1	-4
471.319	1	7
471.489	1	-1
471.659	1	0
471.830	1	27
472.000	1	7
472.171	1	7
472.341	1	5
472.511	1	14
472.682	1	10
472.852	1	-3
473.023	1	4
473.193	1	-5
473.363	1	1
473.534	1	3
473.704	1	8
473.875	1	10
474.045	1	-7
474.215	1	-2
474.386	1	7
474.556	1	-14
474.727	1	9
474.897	1	3
475.067	1	7
475.238	1	7
475.408	1	2
475.578	1	3
475.749	1	-4
475.919	1	10
476.090	1	-1
476.260	1	6
476.430	1	5
476.601	1	8
476.771	1	3
476.942	1	-1
477.112	1	12
477.282	1	-7
477.453	1	1
477.623	1	5
477.793	1	13
477.964	1	5
478.134	1	8
478.305	1	9
478.475	1	5
478.645	1	1
478.816	1	-10
478.986	1	4
479.156	1	17
479.327	1	-6
479.497	1	-3
479.667	1	2
479.838	1	0
480.008	1	14
480.179	1	10
480.349	1	5
480.519	1	3
480.690	1	0
480.860	1	-2
481.030	1	1
481.201	1	1
481.371	1	4
481.541	1	5
481.712	1	4
481.882	1	3
482.053	1	16
482.223	1	-8
482.393	1	6
482.564	1	-8
482.734	1	0
482.904	1	8
483.075	1	5
483.245	1	5
483.415	1	4
483.586	1	-1
483.756	1	14
483.926	1	6
484.097	1	5
484.267	1	11
484.437	1	-12
484.608	1	2
484.778	1	1
484.948	1	-3
485.119	1	12
485.289	1	4
485.459	1	11
485.630	1	0
485.800	1	2
485.970	1	1
486.141	1	8
486.311	1	5
486.481	1	-1
486.652	1	6
486.822	1	1
486.992	1	2
487.163	1	-2
487.333	1	6
487.503	1	5
487.674	1	4
487.844	1	12
488.014	1	0
488.185	1	-4
488.355	1	-1
488.525	1	1
488.696	1	-12
488.866	1	9
489.036	1	4
489.207	1	7
489.377	1	7
489.547	1	5
489.718	1	-2
489.888	1	10
490.058	1	0
490.228	1	-3
490.399	1	15
490.569	1	11
490.739	1	8
490.910	1	0
491.080	1	1
491.250	1	4
491.421	1	4
491.591	1	-4
491.761	1	10
491.932	1	8
492.102	1	9
492.272	1	9
492.442	1	9
492.613	1	5
492.783	1	3
492.953	1	8
493.124	1	1
493.294	1	17
493.464	1	4
493.635	1	12
493.805	1	11
493.975	1	-1
494.145	1	3
494.316	1	10
494.486	1	7
494.656	1	7
494.827	1	1
494.997	1	6
495.167	1	10
495.337	1	8
495.508	1	-3
495.678	1	10
495.848	1	17
496.019	1	2
496.189	1	2
496.359	1	8
496.529	1	0
496.700	1	7
496.870	1	3
497.040	1	5
497.211	1	15
497.381	1	-13
497.551	1	20
497.721	1	-2
497.892	1	14
498.062	1	5
498.232	1	0
498.403	1	7
498.573	1	0
498.743	1	7
498.913	1	11
499.084	1	-5
499.254	1	9
499.424	1	12
499.594	1	10
499.765	1	2
499.935	1	7
500.105	1	8
500.275	1	13
500.446	1	20
500.616	1	9
500.786	1	15
500.956	1	5
501.127	1	6
501.297	1	6
501.467	1	12
501.638	1	6
501.808	1	0
501.978	1	8
502.148	1	15
502.319	1	17
502.489	1	7
502.659	1	10
502.829	1	13
503.000	1	11
503.170	1	6
503.340	1	6
503.510	1	11
503.681	1	1
503.851	1	-4
504.021	1	22
504.191	1	2
504.362	1	9
504.532	1	3
504.702	1	8
504.872	1	-3
505.042	1	17
505.213	1	2
505.383	1	11
505.553	1	9
505.723	1	16
505.894	1	11
506.064	1	14
506.234	1	14
506.404	1	5
506.575	1	1
506.745	1	1
506.915	1	5
507.085	1	6
507.256	1	6
507.426	1	10
507.596	1	11
507.766	1	13
507.936	1	6
508.107	1	0
508.277	1	-3
508.447	1	16
508.617	1	5
508.788	1	14
508.958	1	17
509.128	1	1
509.298	1	13
509.468	1	8
509.639	1	17
509.809	1	17
509.979	1	14
510.149	1	7
510.319	1	4
510.490	1	16
510.660	1	13
510.830	1	5
511.000	1	8
511.171	1	20
511.341	1	10
511.511	1	12
511.681	1	5
511.851	1	-1
512.022	1	-1
512.192	1	12
512.362	1	9
512.532	1	-3
512.702	1	2
512.873	1	25
513.043	1	15
513.213	1	15
513.383	1	-2
513.553	1	1
513.724	1	12
513.894	1	11
514.064	1	7
514.234	1	12
514.404	1	8
514.575	1	16
514.745	1	12
514.915	1	18
515.085	1	13
515.255	1	-3
515.425	1	-2
515.596	1	5
515.766	1	-2
515.936	1	9
516.106	1	5
516.276	1	25
516.447	1	14
516.617	1	2
516.787	1	8
516.957	1	12
517.127	1	7
517.297	1	11
517.468	1	9
517.638	1	25
517.808	1	8
517.978	1	9
518.148	1	9
518.319	1	15
518.489	1	9
518.659	1	7
518.829	1	-3
518.999	1	-3
519.169	1	24
519.340	1	8
519.510	1	8
519.680	1	12
519.850	1	4
520.020	1	7
520.190	1	16
520.361	1	2
520.531	1	17
520.701	1	7
520.871	1	8
521.041	1	19
521.211	1	8
521.382	1	8
521.552	1	23
521.722	1	11
521.892	1	11
522.062	1	9
522.232	1	3
522.402	1	-2
522.573	1	8
522.743	1	20
522.913	1	10
523.083	1	11
523.253	1	9
523.423	1	5
523.593	1	0
523.764	1	14
523.934	1	11
524.104	1	14
524.274	1	4
524.444	1	4
524.614	1	11
524.784	1	10
524.955	1	15
525.125	1	12
525.295	1	11
525.465	1	10
525.635	1	26
525.805	1	15
525.975	1	10
526.146	1	13
526.316	1	-1
526.486	1	8
526.656	1	33
526.826	1	17
526.996	1	18
527.166	1	4
527.337	1	15
527.507	1	2
527.677	1	21
527.847	1	1
528.017	1	3
528.187	1	14
528.357	1	21
528.527	1	13
528.698	1	9
528.868	1	0
529.038	1	17
529.208	1	3
529.378	1	14
529.548	1	16
529.718	1	6
529.888	1	15
530.058	1	4
530.229	1	15
530.399	1	17
530.569	1	20
530.739	1	10
530.909	1	7
531.079	1	11
531.249	1	9
531.419	1	23
531.589	1	6
531.760	1	6
531.930	1	11
532.100	1	14
532.270	1	22
532.440	1	6
532.610	1	22
532.780	1	11
532.950	1	13
533.120	1	3
533.290	1	-2
533.461	1	23
533.631	1	10
533.801	1	12
533.971	1	22
534.141	1	28
534.311	1	13
534.481	1	8
534.651	1	11
534.821	1	16
534.991	1	11
535.162	1	8
535.332	1	17
535.502	1	14
535.672	1	10
535.842	1	12
536.012	1	22
536.182	1	2
536.352	1	8
536.522	1	13
536.692	1	14
536.862	1	16
537.032	1	18
537.203	1	19
537.373	1	8
537.543	1	17
537.713	1	21
537.883	1	18
538.053	1	14
538.223	1	12
538.393	1	22
538.563	1	9
538.733	1	4
538.903	1	8
539.073	1	20
539.243	1	9
539.413	1	12
539.584	1	12
539.754	1	7
539.924	1	13
540.094	1	6
540.264	1	7
540.434	1	5
540.604	1	19
540.774	1	11
540.944	1	14
541.114	1	0
541.284	1	10
541.454	1	21
541.624	1	10
541.794	1	11
541.964	1	19
542.134	1	15
542.305	1	-5
542.475	1	12
542.645	1	7
542.815	1	19
542.985	1	8
543.155	1	3
543.325	1	2
543.495	1	7
543.665	1	11
543.835	1	8
544.005	1	10
544.175	1	11
544.345	1	7
544.515	1	11
544.685	1	15
544.855	1	15
545.025	1	3
545.195	1	11
545.365	1	8
545.535	1	5
545.705	1	9
545.875	1	9
546.045	1	19
546.216	1	20
546.386	1	13
546.556	1	5
546.726	1	16
546.896	1	8
547.066	1	2
547.236	1	2
547.406	1	15
547.576	1	10
547.746	1	12
547.916	1	9
548.086	1	13
548.256	1	14
548.426	1	5
548.596	1	18
548.766	1	10
548.936	1	2
549.106	1	9
549.276	1	10
549.446	1	13
549.616	1	10
549.786	1	15
549.956	1	14
550.126	1	15
550.296	1	20
550.466	1	12
550.636	1	9
550.806	1	21
550.976	1	0
551.146	1	8
551.316	1	3
551.486	1	16
551.656	1	6
551.826	1	12
551.996	1	12
552.166	1	10
552.336	1	13
552.506	1	-3
552.676	1	8
552.846	1	12
553.016	1	17
553.186	1	3
553.356	1	7
553.526	1	14
553.696	1	22
553.866	1	9
554.036	1	1
554.206	1	7
554.376	1	10
554.546	1	0
554.716	1	9
554.886	1	5
555.056	1	4
555.226	1	1
555.396	1	15
555.566	1	9
555.736	1	11
555.906	1	8
556.076	1	13
556.246	1	10
556.416	1	8
556.586	1	12
556.756	1	5
556.926	1	15
557.096	1	9
557.266	1	19
557.436	1	10
557.606	1	2
557.776	1	13
557.946	1	24
558.116	1	11
558.286	1	11
558.456	1	1
558.626	1	16
558.796	1	5
558.966	1	12
559.136	1	12
559.306	1	6
559.476	1	-2
559.646	1	2
559.816	1	9
559.986	1	8
560.155	1	4
560.325	1	-5
560.495	1	6
560.665	1	10
560.835	1	11
561.005	1	17
561.175	1	6
561.345	1	0
561.515	1	0
561.685	1	10
561.855	1	9
562.025	1	5
562.195	1	1
562.365	1	18
562.535	1	10
562.705	1	11
562.875	1	6
563.045	1	12
563.215	1	8
563.385	1	8
563.555	1	10
563.725	1	-3
563.895	1	9
564.064	1	19
564.234	1	2
564.404	1	9
564.574	1	-1
564.744	1	16
564.914	1	-10
565.084	1	10
565.254	1	6
565.424	1	9
565.594	1	1
565.764	1	22
565.934	1	4
566.104	1	9
566.274	1	9
566.444	1	8
566.614	1	14
566.783	1	9
566.953	1	18
567.123	1	15
567.293	1	6
567.463	1	9
567.633	1	3
567.803	1	2
567.973	1	10
568.143	1	3
568.313	1	6
568.483	1	-9
568.653	1	2
568.823	1	4
568.993	1	1
569.162	1	7
569.332	1	6
569.502	1	9
569.672	1	10
569.842	1	6
570.012	1	12
570.182	1	1
570.352	1	13
570.522	1	11
570.692	1	11
570.862	1	3
571.031	1	3
571.201	1	12
571.371	1	-4
571.541	1	3
571.711	1	12
571.881	1	6
572.051	1	13
572.221	1	6
572.391	1	10
572.561	1	7
572.731	1	5
572.900	1	26
573.070	1	7
573.240	1	0
573.410	1	7
573.580	1	8
573.750	1	9
573.920	1	5
574.090	1	10
574.260	1	-2
574.430	1	2
574.599	1	7
574.769	1	-1
574.939	1	8
575.109	1	13
575.279	1	2
575.449	1	20
575.619	1	8
575.789	1	7
575.959	1	3
576.128	1	8
576.298	1	-3
576.468	1	-4
576.638	1	4
576.808	1	8
576.978	1	12
577.148	1	9
577.318	1	17
577.487	1	6
577.657	1	-6
577.827	1	8
577.997	1	-1
578.167	1	20
578.337	1	0
578.507	1	3
578.677	1	2
578.846	1	8
579.016	1	17
579.186	1	3
579.356	1	2
579.526	1	2
579.696	1	0
579.866	1	7
580.036	1	5
580.205	1	4
580.375	1	2
580.545	1	11
580.715	1	15
580.885	1	2
581.055	1	0
581.225	1	1
581.394	1	3
581.564	1	0
581.734	1	14
581.904	1	6
582.074	1	-2
582.244	1	13
582.414	1	7
582.583	1	4
582.753	1	9
582.923	1	4
583.093	1	4
583.263	1	9
583.433	1	0
583.603	1	3
583.772	1	0
583.942	1	7
584.112	1	5
584.282	1	23
584.452	1	7
584.622	1	10
584.791	1	-2
584.961	1	2
585.131	1	3
585.301	1	12
585.471	1	0
585.641	1	13
585.811	1	-1
585.980	1	4
586.150	1	6
586.320	1	-5
586.490	1	-1
586.660	1	12
586.830	1	-1
586.999	1	3
587.169	1	14
587.339	1	3
587.509	1	8
587.679	1	-2
587.849	1	16
588.018	1	6
588.188	1	1
588.358	1	8
588.528	1	8
588.698	1	-1
588.867	1	8
589.037	1	4
589.207	1	4
589.377	1	15
589.547	1	6
589.717	1	5
589.886	1	-5
590.056	1	-1
590.226	1	15
590.396	1	9
590.566	1	3
590.735	1	12
590.905	1	8
591.075	1	-5
591.245	1	2
591.415	1	2
591.585	1	-5
591.754	1	3
591.924	1	5
592.094	1	8
592.264	1	-1
592.434	1	3
592.603	1	4
592.773	1	1
592.943	1	3
593.113	1	-2
593.283	1	9
593.452	1	-3
593.622	1	2
593.792	1	12
593.962	1	9
594.132	1	2
594.301	1	9
594.471	1	15
594.641	1	-3
594.811	1	3
594.981	1	4
595.150	1	3
595.320	1	16
595.490	1	-1
595.660	1	2
595.829	1	6
595.999	1	8
596.169	1	3
596.339	1	10
596.509	1	8
596.678	1	5
596.848	1	17
597.018	1	5
597.188	1	8
597.358	1	9
597.527	1	-4
597.697	1	5
597.867	1	1
598.037	1	5
598.206	1	4
598.376	1	13
598.546	1	2
598.716	1	-8
598.885	1	-7
599.055	1	2
599.225	1	1
599.395	1	13
599.565	1	6
599.734	1	11
599.904	1	4
600.074	1	-1
600.244	1	10
600.413	1	3
600.583	1	-1
600.753	1	8
600.923	1	17
601.092	1	-5
601.262	1	10
601.432	1	1
601.602	1	15
601.771	1	11
601.941	1	-5
602.111	1	5
602.281	1	0
602.451	1	-3
602.620	1	14
602.790	1	7
602.960	1	2
603.130	1	2
603.299	1	5
603.469	1	-2
603.639	1	2
603.809	1	12
603.978	1	4
604.148	1	3
604.318	1	8
604.487	1	7
604.657	1	6
604.827	1	0
604.997	1	0
605.166	1	0
605.336	1	-4
605.506	1	3
605.676	1	-6
605.845	1	-1
606.015	1	13
606.185	1	-4
606.355	1	13
606.524	1	8
606.694	1	-1
606.864	1	1
607.034	1	2
607.203	1	3
607.373	1	4
607.543	1	-2
607.712	1	11
607.882	1	4
608.052	1	9
608.222	1	11
608.391	1	-3
608.561	1	9
608.731	1	-3
608.901	1	12
609.070	1	0
609.240	1	13
609.410	1	1
609.579	1	12
609.749	1	-1
609.919	1	-3
610.089	1	6
610.258	1	9
610.428	1	1
610.598	1	10
610.767	1	2
610.937	1	4
611.107	1	10
611.277	1	9
611.446	1	1
611.616	1	-14
611.786	1	17
611.955	1	9
612.125	1	-1
612.295	1	10
612.465	1	-2
612.634	1	8
612.804	1	15
612.974	1	16
613.143	1	18
613.313	1	0
613.483	1	10
613.652	1	1
613.822	1	16
613.992	1	11
614.162	1	2
614.331	1	6
614.501	1	11
614.671	1	11
614.840	1	8
615.010	1	8
615.180	1	-2
615.349	1	4
615.519	1	11
615.689	1	-4
615.858	1	3
616.028	1	-3
616.198	1	16
616.368	1	-9
616.537	1	-1
616.707	1	3
616.877	1	5
617.046	1	3
617.216	1	3
617.386	1	4
617.555	1	-10
617.725	1	8
617.895	1	-5
618.064	1	13
618.234	1	12
618.404	1	4
618.573	1	8
618.743	1	0
618.913	1	1
619.082	1	10
619.252	1	-2
619.422	1	3
619.591	1	7
619.761	1	7
619.931	1	16
620.100	1	3
620.270	1	-2
620.440	1	4
620.609	1	0
620.779	1	-1
620.949	1	0
621.118	1	6
621.288	1	8
621.458	1	7
621.627	1	-11
621.797	1	5
621.967	1	-2
622.136	1	10
622.306	1	6
622.476	1	5
622.645	1	14
622.815	1	0
622.985	1	13
623.154	1	3
623.324	1	0
623.494	1	4
623.663	1	-7
623.833	1	2
624.002	1	6
624.172	1	9
624.342	1	-3
624.511	1	4
624.681	1	3
624.851	1	-1
625.020	1	0
625.190	1	6
625.360	1	-1
625.529	1	5
625.699	1	4
625.869	1	6
626.038	1	-4
626.208	1	-5
626.377	1	19
626.547	1	4
626.717	1	0
626.886	1	1
627.056	1	10
627.226	1	2
627.395	1	11
627.565	1	13
627.735	1	4
627.904	1	3
628.074	1	7
628.243	1	-6
628.413	1	11
628.583	1	10
628.752	1	3
628.922	1	2
629.091	1	13
629.261	1	6
629.431	1	-8
629.600	1	12
629.770	1	16
629.940	1	4
630.109	1	-4
630.279	1	0
630.448	1	-1
630.618	1	-5
630.788	1	6
630.957	1	-3
631.127	1	9
631.297	1	1
631.466	1	18
631.636	1	4
631.805	1	7
631.975	1	5
632.145	1	-2
632.314	1	10
632.484	1	8
632.653	1	-6
632.823	1	15
632.993	1	12
633.162	1	5
633.332	1	13
633.501	1	-1
633.671	1	6
633.841	1	6
634.010	1	-5
634.180	1	6
634.349	1	4
634.519	1	1
634.689	1	14
634.858	1	10
635.028	1	5
635.197	1	4
635.367	1	-7
635.537	1	8
635.706	1	-1
635.876	1	6
636.045	1	3
636.215	1	-3
636.384	1	7
636.554	1	14
636.724	1	3
636.893	1	5
637.063	1	12
637.232	1	6
637.402	1	15
637.572	1	-10
637.741	1	5
637.911	1	2
638.080	1	5
638.250	1	3
638.419	1	10
638.589	1	12
638.759	1	5
638.928	1	-8
639.098	1	-3
639.267	1	1
639.437	1	-12
639.606	1	9
639.776	1	-1
639.946	1	2
640.115	1	-3
640.285	1	4
640.454	1	10
640.624	1	11
640.793	1	6
640.963	1	3
641.132	1	10
641.302	1	2
641.472	1	-5
641.641	1	-9
641.811	1	11
641.980	1	-3
642.150	1	1
642.319	1	4
642.489	1	2
642.659	1	-11
642.828	1	2
642.998	1	4
643.167	1	6
643.337	1	12
643.506	1	-6
643.676	1	0
643.845	1	5
644.015	1	8
644.184	1	7
644.354	1	2
644.524	1	-1
644.693	1	10
644.863	1	-1
645.032	1	1
645.202	1	1
645.371	1	-1
645.541	1	-6
645.710	1	-4
645.880	1	4
646.049	1	10
646.219	1	-5
646.388	1	1
646.558	1	4
646.728	1	3
646.897	1	3
647.067	1	6
647.236	1	1
647.406	1	2
647.575	1	14
647.745	1	2
647.914	1	-1
648.084	1	-2
648.253	1	7
648.423	1	7
648.592	1	2
648.762	1	6
648.931	1	12
649.101	1	6
649.270	1	7
649.440	1	8
649.610	1	24
649.779	1	0
649.949	1	5
650.118	1	-8
650.288	1	-8
650.457	1	9
650.627	1	-1
650.796	1	5
650.966	1	-8
651.135	1	2
651.305	1	2
651.474	1	6
651.644	1	-1
651.813	1	17
651.983	1	16
652.152	1	2
652.322	1	6
652.491	1	-1
652.661	1	3
652.830	1	5
653.000	1	0
653.169	1	22
653.339	1	-1
653.508	1	2
653.678	1	-2
653.847	1	10
654.017	1	10
654.186	1	-1
654.356	1	4
654.525	1	6
654.695	1	8
654.864	1	7
655.034	1	2
655.203	1	12
655.373	1	-4
655.542	1	9
655.712	1	-1
655.881	1	8
656.051	1	11
656.220	1	9
656.390	1	-1
656.559	1	3
656.729	1	11
656.898	1	9
657.068	1	-6
657.237	1	4
657.406	1	6
657.576	1	-4
657.745	1	-6
657.915	1	18
658.084	1	6
658.254	1	8
658.423	1	2
658.593	1	-11
658.762	1	-12
658.932	1	-3
659.101	1	-1
659.271	1	10
659.440	1	13
659.610	1	9
659.779	1	4
659.949	1	4
660.118	1	-5
660.288	1	0
660.457	1	5
660.626	1	-1
660.796	1	8
660.965	1	6
661.135	1	4
661.304	1	-5
661.474	1	4
661.643	1	3
661.813	1	5
661.982	1	3
662.152	1	13
662.321	1	-2
662.491	1	5
662.660	1	0
662.829	1	-6
662.999	1	6
663.168	1	-6
663.338	1	1
663.507	1	10
663.677	1	-9
663.846	1	19
664.016	1	1
664.185	1	1
664.354	1	3
664.524	1	-10
664.693	1	6
664.863	1	6
665.032	1	4
665.202	1	5
665.371	1	3
665.541	1	-6
665.710	1	-2
665.879	1	2
666.049	1	2
666.218	1	-4
666.388	1	-3
666.557	1	5
666.727	1	-5
666.896	1	8
667.065	1	14
667.235	1	3
667.404	1	-4
667.574	1	2
667.743	1	7
667.913	1	5
668.082	1	-10
668.251	1	-3
668.421	1	-2
668.590	1	-2
668.760	1	2
668.929	1	8
669.099	1	0
669.268	1	14
669.437	1	5
669.607	1	1
669.776	1	3
669.946	1	4
670.115	1	-2
670.285	1	4
670.454	1	1
670.623	1	8
670.793	1	1
670.962	1	1
671.132	1	7
671.301	1	6
671.470	1	2
671.640	1	-15
671.809	1	-3
671.979	1	7
672.148	1	1
672.317	1	-4
672.487	1	-3
672.656	1	9
672.826	1	-7
672.995	1	-3
673.164	1	15
673.334	1	12
673.503	1	0
673.673	1	14
673.842	1	1
674.011	1	5
674.181	1	-7
674.350	1	-2
674.520	1	8
674.689	1	0
674.858	1	-1
675.028	1	5
675.197	1	9
675.367	1	1
675.536	1	12
675.705	1	-5
675.875	1	0
676.044	1	1
676.214	1	6
676.383	1	4
676.552	1	-3
676.722	1	3
676.891	1	-1
677.060	1	7
677.230	1	15
677.399	1	0
677.569	1	0
677.738	1	-8
677.907	1	-8
678.077	1	4
678.246	1	1
678.416	1	-4
678.585	1	14
678.754	1	-1
678.924	1	-2
679.093	1	6
679.262	1	3
679.432	1	-1
679.601	1	-3
679.771	1	9
679.940	1	-5
680.109	1	3
680.279	1	-6
680.448	1	5
680.617	1	-1
680.787	1	5
680.956	1	7
681.125	1	11
681.295	1	5
681.464	1	-3
681.634	1	8
681.803	1	-14
681.972	1	-10
682.142	1	20
682.311	1	6
682.480	1	0
682.650	1	-2
682.819	1	5
682.988	1	3
683.158	1	3
683.327	1	8
683.496	1	-10
683.666	1	8
683.835	1	13
684.004	1	-1
684.174	1	-6
684.343	1	1
684.512	1	14
684.682	1	15
684.851	1	9
685.021	1	4
685.190	1	9
685.359	1	-5
685.529	1	2
685.698	1	19
685.867	1	-3
686.037	1	2
686.206	1	14
686.375	1	2
686.545	1	11
686.714	1	0
686.883	1	-1
687.053	1	7
687.222	1	-3
687.391	1	-2
687.561	1	10
687.730	1	2
687.899	1	8
688.069	1	0
688.238	1	7
688.407	1	1
688.577	1	-1
688.746	1	5
