340.368	1	-6
340.539	1	5
340.710	1	-11
340.881	1	5
341.052	1	2
341.223	1	11
341.394	1	1
341.565	1	-10
341.737	1	7
341.908	1	-1
342.079	1	-12
342.250	1	-5
342.421	1	-5
342.592	1	-6
342.763	1	2
342.934	1	-2
343.105	1	11
343.276	1	-1
343.447	1	7
343.618	1	1
343.789	1	-2
343.960	1	-4
344.131	1	-2
344.302	1	-1
344.473	1	-16
344.644	1	-2
344.815	1	2
344.986	1	2
345.157	1	6
345.328	1	-1
345.499	1	10
345.670	1	4
345.841	1	-4
346.012	1	18
346.183	1	4
346.354	1	-6
346.526	1	1
346.697	1	0
346.868	1	-8
347.039	1	-1
347.210	1	4
347.381	1	-5
347.552	1	0
347.723	1	6
347.894	1	-1
348.065	1	-8
348.236	1	3
348.407	1	0
348.578	1	-2
348.749	1	-3
348.920	1	6
349.091	1	-1
349.262	1	-8
349.433	1	-2
349.604	1	9
349.775	1	1
349.946	1	4
350.117	1	6
350.288	1	2
350.459	1	-2
350.630	1	-6
350.801	1	3
350.972	1	-5
351.143	1	-11
351.314	1	-1
351.485	1	-9
351.656	1	0
351.827	1	3
351.998	1	-4
352.169	1	1
352.340	1	0
352.511	1	-7
352.682	1	4
352.853	1	-2
353.024	1	-6
353.195	1	1
353.366	1	5
353.537	1	-3
353.708	1	5
353.879	1	8
354.050	1	-2
354.221	1	-3
354.392	1	-1
354.563	1	9
354.734	1	2
354.905	1	2
355.076	1	12
355.247	1	-10
355.418	1	-14
355.589	1	-6
355.760	1	-4
355.931	1	-3
356.102	1	-6
356.273	1	-4
356.444	1	13
356.615	1	1
356.785	1	10
356.956	1	4
357.127	1	-14
357.298	1	3
357.469	1	-4
357.640	1	13
357.811	1	17
357.982	1	-10
358.153	1	6
358.324	1	5
358.495	1	-1
358.666	1	-1
358.837	1	-5
359.008	1	3
359.179	1	-3
359.350	1	-4
359.521	1	-2
359.692	1	8
359.863	1	-14
360.034	1	-6
360.205	1	0
360.376	1	8
360.547	1	-5
360.718	1	-7
360.889	1	-1
361.060	1	6
361.231	1	2
361.401	1	8
361.572	1	-1
361.743	1	3
361.914	1	8
362.085	1	-5
362.256	1	0
362.427	1	4
362.598	1	4
362.769	1	8
362.940	1	-4
363.111	1	14
363.282	1	2
363.453	1	2
363.624	1	-3
363.795	1	-2
363.966	1	8
364.137	1	-9
364.308	1	-3
364.478	1	9
364.649	1	-3
364.820	1	2
364.991	1	7
365.162	1	-8
365.333	1	8
365.504	1	-10
365.675	1	-3
365.846	1	-1
366.017	1	9
366.188	1	-6
366.359	1	2
366.530	1	17
366.701	1	-10
366.871	1	12
367.042	1	4
367.213	1	5
367.384	1	8
367.555	1	-12
367.726	1	13
367.897	1	0
368.068	1	-3
368.239	1	15
368.410	1	-4
368.581	1	10
368.752	1	-7
368.923	1	-12
369.093	1	-3
369.264	1	6
369.435	1	6
369.606	1	7
369.777	1	-2
369.948	1	4
370.119	1	9
370.290	1	1
370.461	1	1
370.632	1	1
370.803	1	-5
370.973	1	12
371.144	1	10
371.315	1	2
371.486	1	6
371.657	1	-2
371.828	1	-4
371.999	1	0
372.170	1	8
372.341	1	5
372.512	1	1
372.682	1	1
372.853	1	-11
373.024	1	1
373.195	1	-9
373.366	1	-3
373.537	1	-1
373.708	1	-8
373.879	1	4
374.050	1	4
374.220	1	1
374.391	1	9
374.562	1	-2
374.733	1	4
374.904	1	3
375.075	1	2
375.246	1	-8
375.417	1	0
375.588	1	-2
375.758	1	-1
375.929	1	7
376.100	1	10
376.271	1	-2
376.442	1	-1
376.613	1	-3
376.784	1	-2
376.955	1	-5
377.125	1	3
377.296	1	5
377.467	1	-14
377.638	1	1
377.809	1	13
377.980	1	1
378.151	1	-10
378.321	1	13
378.492	1	-2
378.663	1	-4
378.834	1	6
379.005	1	9
379.176	1	-5
379.347	1	0
379.518	1	-10
379.688	1	-4
379.859	1	-6
380.030	1	3
380.201	1	-5
380.372	1	1
380.543	1	3
380.714	1	2
380.884	1	-9
381.055	1	-4
381.226	1	1
381.397	1	-4
381.568	1	-5
381.739	1	8
381.910	1	-6
382.080	1	-4
382.251	1	9
382.422	1	11
382.593	1	5
382.764	1	-11
382.935	1	6
383.105	1	-1
383.276	1	0
383.447	1	11
383.618	1	0
383.789	1	9
383.960	1	2
384.130	1	0
384.301	1	1
384.472	1	-13
384.643	1	8
384.814	1	6
384.985	1	3
385.156	1	11
385.326	1	3
385.497	1	14
385.668	1	4
385.839	1	0
386.010	1	4
386.180	1	-5
386.351	1	-4
386.522	1	1
386.693	1	5
386.864	1	-2
387.035	1	-2
387.205	1	-1
387.376	1	10
387.547	1	0
387.718	1	4
387.889	1	10
388.060	1	1
388.230	1	-3
388.401	1	9
388.572	1	11
388.743	1	-6
388.914	1	4
389.084	1	-1
389.255	1	0
389.426	1	16
389.597	1	0
389.768	1	2
389.939	1	8
390.109	1	-3
390.280	1	14
390.451	1	7
390.622	1	-4
390.793	1	2
390.963	1	8
391.134	1	-3
391.305	1	11
391.476	1	10
391.647	1	-3
391.817	1	-8
391.988	1	3
392.159	1	6
392.330	1	3
392.501	1	6
392.671	1	11
392.842	1	8
393.013	1	7
393.184	1	4
393.355	1	10
393.525	1	8
393.696	1	2
393.867	1	2
394.038	1	2
394.208	1	1
394.379	1	-4
394.550	1	-2
394.721	1	6
394.892	1	10
395.062	1	-2
395.233	1	1
395.404	1	15
395.575	1	-1
395.746	1	2
395.916	1	-1
396.087	1	-7
396.258	1	-13
396.429	1	0
396.599	1	3
396.770	1	3
396.941	1	15
397.112	1	-7
397.283	1	1
397.453	1	-9
397.624	1	1
397.795	1	8
397.966	1	5
398.136	1	4
398.307	1	3
398.478	1	-1
398.649	1	5
398.819	1	14
398.990	1	6
399.161	1	8
399.332	1	9
399.503	1	4
399.673	1	-2
399.844	1	0
400.015	1	3
400.186	1	8
400.356	1	1
400.527	1	0
400.698	1	12
400.869	1	10
401.039	1	-17
401.210	1	-4
401.381	1	8
401.552	1	14
401.722	1	7
401.893	1	2
402.064	1	1
402.235	1	10
402.405	1	-1
402.576	1	15
402.747	1	-4
402.918	1	0
403.088	1	-9
403.259	1	-8
403.430	1	0
403.601	1	-10
403.771	1	1
403.942	1	2
404.113	1	11
404.284	1	-4
404.454	1	7
404.625	1	16
404.796	1	-3
404.967	1	-3
405.137	1	5
405.308	1	3
405.479	1	6
405.649	1	2
405.820	1	-1
405.991	1	9
406.162	1	-2
406.332	1	-12
406.503	1	5
406.674	1	7
406.845	1	4
407.015	1	-4
407.186	1	8
407.357	1	16
407.527	1	6
407.698	1	-12
407.869	1	-3
408.040	1	-9
408.210	1	-1
408.381	1	-3
408.552	1	1
408.722	1	0
408.893	1	3
409.064	1	-4
409.235	1	3
409.405	1	9
409.576	1	-1
409.747	1	-4
409.917	1	4
410.088	1	-1
410.259	1	-6
410.430	1	6
410.600	1	-8
410.771	1	0
410.942	1	3
411.112	1	1
411.283	1	-5
411.454	1	13
411.625	1	-6
411.795	1	7
411.966	1	3
412.137	1	6
412.307	1	9
412.478	1	10
412.649	1	-6
412.819	1	-12
412.990	1	-2
413.161	1	-2
413.332	1	2
413.502	1	0
413.673	1	13
413.844	1	1
414.014	1	3
414.185	1	-5
414.356	1	-9
414.526	1	7
414.697	1	8
414.868	1	8
415.038	1	6
415.209	1	-1
415.380	1	4
415.550	1	-7
415.721	1	3
415.892	1	-2
416.063	1	5
416.233	1	5
416.404	1	6
416.575	1	-3
416.745	1	0
416.916	1	4
417.087	1	-9
417.257	1	4
417.428	1	-12
417.599	1	2
417.769	1	-3
417.940	1	-2
418.111	1	-1
418.281	1	5
418.452	1	-1
418.623	1	-7
418.793	1	7
418.964	1	7
419.135	1	1
419.305	1	1
419.476	1	1
419.647	1	3
419.817	1	8
419.988	1	1
420.159	1	-12
420.329	1	3
420.500	1	3
420.671	1	3
420.841	1	2
421.012	1	10
421.183	1	1
421.353	1	0
421.524	1	6
421.695	1	7
421.865	1	-8
422.036	1	-9
422.206	1	-8
422.377	1	10
422.548	1	1
422.718	1	-1
422.889	1	1
423.060	1	2
423.230	1	11
423.401	1	2
423.572	1	-4
423.742	1	3
423.913	1	8
424.084	1	6
424.254	1	2
424.425	1	5
424.595	1	2
424.766	1	2
424.937	1	-7
425.107	1	1
425.278	1	-10
425.449	1	2
425.619	1	8
425.790	1	0
425.961	1	-1
426.131	1	-3
426.302	1	1
426.472	1	-9
426.643	1	8
426.814	1	6
426.984	1	-5
427.155	1	2
427.326	1	0
427.496	1	4
427.667	1	5
427.837	1	-10
428.008	1	0
428.179	1	-8
428.349	1	-10
428.520	1	-2
428.691	1	3
428.861	1	4
429.032	1	2
429.202	1	11
429.373	1	-7
429.544	1	-5
429.714	1	3
429.885	1	-7
430.055	1	-5
430.226	1	3
430.397	1	-7
430.567	1	11
430.738	1	-4
430.909	1	-6
431.079	1	6
431.250	1	-8
431.420	1	4
431.591	1	-2
431.762	1	7
431.932	1	1
432.103	1	5
432.273	1	-6
432.444	1	-1
432.615	1	-4
432.785	1	0
432.956	1	-1
433.126	1	10
433.297	1	9
433.468	1	-3
433.638	1	-1
433.809	1	-3
433.979	1	-3
434.150	1	-14
434.320	1	0
434.491	1	4
434.662	1	-2
434.832	1	-6
435.003	1	9
435.173	1	5
435.344	1	3
435.515	1	-8
435.685	1	6
435.856	1	-10
436.026	1	9
436.197	1	-6
436.368	1	5
436.538	1	3
436.709	1	-8
436.879	1	-3
437.050	1	-1
437.220	1	2
437.391	1	2
437.562	1	16
437.732	1	2
437.903	1	3
438.073	1	1
438.244	1	-2
438.414	1	3
438.585	1	7
438.756	1	9
438.926	1	6
439.097	1	8
439.267	1	5
439.438	1	5
439.608	1	8
439.779	1	-3
439.949	1	0
440.120	1	5
440.291	1	-7
440.461	1	-3
440.632	1	0
440.802	1	-2
440.973	1	4
441.143	1	9
441.314	1	1
441.485	1	-4
441.655	1	16
441.826	1	-10
441.996	1	-7
442.167	1	1
442.337	1	-2
442.508	1	-3
442.678	1	-2
442.849	1	12
443.019	1	0
443.190	1	-7
443.361	1	8
443.531	1	5
443.702	1	-3
443.872	1	-3
444.043	1	3
444.213	1	-10
444.384	1	-1
444.554	1	-1
444.725	1	1
444.895	1	2
445.066	1	-10
445.237	1	-5
445.407	1	-2
445.578	1	7
445.748	1	-12
445.919	1	0
446.089	1	8
446.260	1	1
446.430	1	-7
446.601	1	-2
446.771	1	2
446.942	1	2
447.112	1	-5
447.283	1	-2
447.453	1	-2
447.624	1	4
447.794	1	-8
447.965	1	-5
448.135	1	3
448.306	1	-3
448.477	1	-5
448.647	1	20
448.818	1	3
448.988	1	-19
449.159	1	-1
449.329	1	8
449.500	1	5
449.670	1	9
449.841	1	-2
450.011	1	6
450.182	1	-3
450.352	1	8
450.523	1	-2
450.693	1	-1
450.864	1	0
451.034	1	0
451.205	1	3
451.375	1	11
451.546	1	5
451.716	1	1
451.887	1	0
452.057	1	13
452.228	1	1
452.398	1	3
452.569	1	6
452.739	1	-1
452.910	1	-12
453.080	1	15
453.251	1	-8
453.421	1	5
453.592	1	-3
453.762	1	-1
453.933	1	6
454.103	1	-6
454.274	1	-3
454.444	1	4
454.615	1	8
454.785	1	-5
454.956	1	4
455.126	1	3
455.297	1	5
455.467	1	10
455.638	1	6
455.808	1	11
455.979	1	3
456.149	1	-4
456.320	1	-2
456.490	1	2
456.661	1	-1
456.831	1	4
457.001	1	5
457.172	1	2
457.342	1	12
457.513	1	0
457.683	1	6
457.854	1	-1
458.024	1	-3
458.195	1	-2
458.365	1	4
458.536	1	2
458.706	1	2
458.877	1	-2
459.047	1	-6
459.218	1	-1
459.388	1	3
459.559	1	4
459.729	1	0
459.899	1	9
460.070	1	6
460.240	1	-1
460.411	1	-1
460.581	1	-1
460.752	1	0
460.922	1	-8
461.093	1	3
461.263	1	1
461.434	1	8
461.604	1	5
461.775	1	-5
461.945	1	6
462.115	1	-6
462.286	1	3
462.456	1	-6
462.627	1	-1
462.797	1	-7
462.968	1	-8
463.138	1	8
463.309	1	2
463.479	1	8
463.649	1	8
463.820	1	0
463.990	1	-2
464.161	1	11
464.331	1	1
464.502	1	-1
464.672	1	-6
464.843	1	-2
465.013	1	-13
465.183	1	7
465.354	1	7
465.524	1	4
465.695	1	7
465.865	1	-9
466.036	1	4
466.206	1	-1
466.376	1	-6
466.547	1	9
466.717	1	-12
466.888	1	0
467.058	1	8
467.229	1	0
467.399	1	3
467.569	1	0
467.740	1	-1
467.910	1	-13
468.081	1	-2
468.251	1	-7
468.422	1	5
468.592	1	8
468.762	1	-6
468.933	1	2
469.103	1	-4
469.274	1	5
469.444	1	-9
469.614	1	-1
469.785	1	15
469.955	1	-5
470.126	1	5
470.296	1	5
470.467	1	5
470.637	1	10
470.807	1	7
470.978	1	3
471.148	1	-1
471.319	1	6
471.489	1	-5
471.659	1	5
471.830	1	10
472.000	1	-1
472.171	1	1
472.341	1	-2
472.511	1	7
472.682	1	-4
472.852	1	1
473.023	1	-5
473.193	1	-5
473.363	1	5
473.534	1	-6
473.704	1	7
473.875	1	2
474.045	1	-8
474.215	1	-9
474.386	1	2
474.556	1	-8
474.727	1	7
474.897	1	-1
475.067	1	-2
475.238	1	-3
475.408	1	-2
475.578	1	0
475.749	1	-9
475.919	1	0
476.090	1	-2
476.260	1	-5
476.430	1	9
476.601	1	4
476.771	1	-3
476.942	1	-5
477.112	1	6
477.282	1	-13
477.453	1	-1
477.623	1	10
477.793	1	10
477.964	1	10
478.134	1	12
478.305	1	7
478.475	1	2
478.645	1	-11
478.816	1	5
478.986	1	3
479.156	1	-1
479.327	1	-10
479.497	1	-3
479.667	1	-2
479.838	1	4
480.008	1	6
480.179	1	4
480.349	1	4
480.519	1	-4
480.690	1	7
480.860	1	-7
481.030	1	-6
481.201	1	1
481.371	1	-3
481.541	1	11
481.712	1	15
481.882	1	-1
482.053	1	5
482.223	1	-9
482.393	1	-7
482.564	1	-11
482.734	1	-2
482.904	1	7
483.075	1	0
483.245	1	-3
483.415	1	10
483.586	1	-3
483.756	1	8
483.926	1	4
484.097	1	-10
484.267	1	-9
484.437	1	-13
484.608	1	6
484.778	1	-3
484.948	1	-11
485.119	1	1
485.289	1	4
485.459	1	6
485.630	1	-6
485.800	1	-1
485.970	1	5
486.141	1	-11
486.311	1	0
486.481	1	3
486.652	1	2
486.822	1	3
486.992	1	5
487.163	1	-2
487.333	1	4
487.503	1	-8
487.674	1	2
487.844	1	10
488.014	1	10
488.185	1	-9
488.355	1	-9
488.525	1	-7
488.696	1	-8
488.866	1	7
489.036	1	-1
489.207	1	9
489.377	1	-4
489.547	1	-6
489.718	1	-8
489.888	1	-1
490.058	1	-1
490.228	1	-11
490.399	1	13
490.569	1	6
490.739	1	7
490.910	1	-1
491.080	1	-5
491.250	1	2
491.421	1	-2
491.591	1	-17
491.761	1	6
491.932	1	1
492.102	1	-6
492.272	1	7
492.442	1	2
492.613	1	10
492.783	1	-14
492.953	1	6
493.124	1	-2
493.294	1	2
493.464	1	-5
493.635	1	0
493.805	1	6
493.975	1	-2
494.145	1	6
494.316	1	7
494.486	1	2
494.656	1	-7
494.827	1	1
494.997	1	-2
495.167	1	-5
495.337	1	5
495.508	1	-5
495.678	1	8
495.848	1	16
496.019	1	-5
496.189	1	1
496.359	1	-2
496.529	1	-8
496.700	1	2
496.870	1	4
497.040	1	2
497.211	1	5
497.381	1	-17
497.551	1	11
497.721	1	-5
497.892	1	2
498.062	1	-7
498.232	1	2
498.403	1	2
498.573	1	-7
498.743	1	-1
498.913	1	7
499.084	1	-12
499.254	1	-5
499.424	1	12
499.594	1	3
499.765	1	-6
499.935	1	-9
500.105	1	8
500.275	1	11
500.446	1	0
500.616	1	2
500.786	1	14
500.956	1	11
501.127	1	7
501.297	1	1
501.467	1	7
501.638	1	-9
501.808	1	-10
501.978	1	2
502.148	1	-1
502.319	1	0
502.489	1	1
502.659	1	1
502.829	1	1
503.000	1	6
503.170	1	5
503.340	1	-11
503.510	1	-1
503.681	1	2
503.851	1	-18
504.021	1	18
504.191	1	8
504.362	1	7
504.532	1	-12
504.702	1	8
504.872	1	-5
505.042	1	10
505.213	1	-8
505.383	1	1
505.553	1	10
505.723	1	1
505.894	1	6
506.064	1	8
506.234	1	11
506.404	1	-5
506.575	1	-3
506.745	1	-6
506.915	1	3
507.085	1	-14
507.256	1	0
507.426	1	6
507.596	1	-3
507.766	1	0
507.936	1	14
508.107	1	-8
508.277	1	-5
508.447	1	3
508.617	1	5
508.788	1	-3
508.958	1	10
509.128	1	0
509.298	1	11
509.468	1	3
509.639	1	6
509.809	1	5
509.979	1	3
510.149	1	5
510.319	1	-1
510.490	1	14
510.660	1	6
510.830	1	6
511.000	1	5
511.171	1	9
511.341	1	-2
511.511	1	-14
511.681	1	1
511.851	1	-6
512.022	1	-3
512.192	1	5
512.362	1	1
512.532	1	5
512.702	1	-11
512.873	1	20
513.043	1	5
513.213	1	0
513.383	1	-5
513.553	1	-6
513.724	1	21
513.894	1	-4
514.064	1	10
514.234	1	-5
514.404	1	-3
514.575	1	2
514.745	1	-12
514.915	1	12
515.085	1	0
515.255	1	1
515.425	1	-8
515.596	1	-6
515.766	1	6
515.936	1	2
516.106	1	1
516.276	1	3
516.447	1	-2
516.617	1	-4
516.787	1	-8
516.957	1	2
517.127	1	-7
517.297	1	-6
517.468	1	3
517.638	1	5
517.808	1	-11
517.978	1	-6
518.148	1	-7
518.319	1	1
518.489	1	-1
518.659	1	7
518.829	1	-7
518.999	1	4
519.169	1	2
519.340	1	-6
519.510	1	0
519.680	1	-14
519.850	1	-10
520.020	1	2
520.190	1	-4
520.361	1	-2
520.531	1	4
520.701	1	-3
520.871	1	0
521.041	1	10
521.211	1	-1
521.382	1	2
521.552	1	2
521.722	1	-3
521.892	1	-2
522.062	1	-3
522.232	1	-9
522.402	1	-10
522.573	1	-2
522.743	1	1
522.913	1	2
523.083	1	-11
523.253	1	4
523.423	1	-5
523.593	1	-5
523.764	1	11
523.934	1	2
524.104	1	-4
524.274	1	-4
524.444	1	-7
524.614	1	-7
524.784	1	4
524.955	1	3
525.125	1	10
525.295	1	-4
525.465	1	7
525.635	1	7
525.805	1	-3
525.975	1	-8
526.146	1	1
526.316	1	1
526.486	1	-7
526.656	1	20
526.826	1	2
526.996	1	6
527.166	1	4
527.337	1	-6
527.507	1	-2
527.677	1	19
527.847	1	-8
528.017	1	-9
528.187	1	-5
528.357	1	9
528.527	1	1
528.698	1	1
528.868	1	-4
529.038	1	3
529.208	1	-14
529.378	1	-3
529.548	1	0
529.718	1	10
529.888	1	8
530.058	1	-3
530.229	1	5
530.399	1	1
530.569	1	5
530.739	1	3
530.909	1	6
531.079	1	6
531.249	1	-4
531.419	1	11
531.589	1	-8
531.760	1	13
531.930	1	-3
532.100	1	4
532.270	1	5
532.440	1	3
532.610	1	1
532.780	1	-4
532.950	1	3
533.120	1	4
533.290	1	2
533.461	1	10
533.631	1	7
533.801	1	-3
533.971	1	-6
534.141	1	3
534.311	1	8
534.481	1	-2
534.651	1	-5
534.821	1	4
534.991	1	4
535.162	1	5
535.332	1	2
535.502	1	0
535.672	1	-7
535.842	1	7
536.012	1	2
536.182	1	0
536.352	1	7
536.522	1	7
536.692	1	5
536.862	1	-1
537.032	1	3
537.203	1	12
537.373	1	-9
537.543	1	9
537.713	1	13
537.883	1	10
538.053	1	4
538.223	1	14
538.393	1	6
538.563	1	-4
538.733	1	-5
538.903	1	0
539.073	1	5
539.243	1	-7
539.413	1	6
539.584	1	-2
539.754	1	-7
539.924	1	0
540.094	1	3
540.264	1	5
540.434	1	-4
540.604	1	9
540.774	1	-3
540.944	1	-1
541.114	1	-3
541.284	1	4
541.454	1	4
541.624	1	0
541.794	1	-4
541.964	1	-4
542.134	1	-2
542.305	1	-7
542.475	1	1
542.645	1	4
542.815	1	-8
542.985	1	-6
543.155	1	-1
543.325	1	0
543.495	1	-8
543.665	1	7
543.835	1	1
544.005	1	4
544.175	1	-3
544.345	1	-4
544.515	1	-4
544.685	1	3
544.855	1	11
545.025	1	2
545.195	1	2
545.365	1	3
545.535	1	2
545.705	1	4
545.875	1	-7
546.045	1	9
546.216	1	5
546.386	1	4
546.556	1	-3
546.726	1	-5
546.896	1	11
547.066	1	-3
547.236	1	-11
547.406	1	3
547.576	1	4
547.746	1	2
547.916	1	-4
548.086	1	6
548.256	1	-4
548.426	1	-2
548.596	1	2
548.766	1	12
548.936	1	2
549.106	1	-4
549.276	1	6
549.446	1	-2
549.616	1	8
549.786	1	5
549.956	1	-3
550.126	1	1
550.296	1	1
550.466	1	-8
550.636	1	0
550.806	1	6
550.976	1	-2
551.146	1	-1
551.316	1	3
551.486	1	7
551.656	1	-3
551.826	1	-1
551.996	1	1
552.166	1	-5
552.336	1	1
552.506	1	-6
552.676	1	-6
552.846	1	-4
553.016	1	3
553.186	1	-2
553.356	1	-3
553.526	1	-3
553.696	1	4
553.866	1	7
554.036	1	1
554.206	1	-1
554.376	1	-9
554.546	1	-13
554.716	1	-11
554.886	1	2
555.056	1	-1
555.226	1	0
555.396	1	-15
555.566	1	1
555.736	1	-3
555.906	1	-3
556.076	1	1
556.246	1	-1
556.416	1	-2
556.586	1	5
556.756	1	6
556.926	1	8
557.096	1	-4
557.266	1	7
557.436	1	11
557.606	1	-11
557.776	1	-3
557.946	1	7
558.116	1	5
558.286	1	4
558.456	1	-2
558.626	1	-2
558.796	1	-3
558.966	1	8
559.136	1	-5
559.306	1	-6
559.476	1	-9
559.646	1	0
559.816	1	1
559.986	1	-1
560.155	1	1
560.325	1	-15
560.495	1	7
560.665	1	0
560.835	1	-2
561.005	1	5
561.175	1	3
561.345	1	-5
561.515	1	-2
561.685	1	4
561.855	1	8
562.025	1	-10
562.195	1	2
562.365	1	-5
562.535	1	6
562.705	1	9
562.875	1	1
563.045	1	13
563.215	1	0
563.385	1	0
563.555	1	6
563.725	1	0
563.895	1	-8
564.064	1	2
564.234	1	8
564.404	1	-7
564.574	1	0
564.744	1	6
564.914	1	-14
565.084	1	-12
565.254	1	3
565.424	1	3
565.594	1	-4
565.764	1	9
565.934	1	13
566.104	1	-1
566.274	1	10
566.444	1	2
566.614	1	6
566.783	1	5
566.953	1	-6
567.123	1	13
567.293	1	1
567.463	1	3
567.633	1	-8
567.803	1	-2
567.973	1	3
568.143	1	-9
568.313	1	1
568.483	1	-4
568.653	1	2
568.823	1	9
568.993	1	-3
569.162	1	0
569.332	1	-4
569.502	1	4
569.672	1	6
569.842	1	3
570.012	1	-2
570.182	1	-5
570.352	1	9
570.522	1	3
570.692	1	1
570.862	1	2
571.031	1	-5
571.201	1	-1
571.371	1	-5
571.541	1	-4
571.711	1	5
571.881	1	3
572.051	1	8
572.221	1	0
572.391	1	0
572.561	1	3
572.731	1	2
572.900	1	14
573.070	1	4
573.240	1	-11
573.410	1	10
573.580	1	-4
573.750	1	8
573.920	1	2
574.090	1	4
574.260	1	1
574.430	1	-5
574.599	1	3
574.769	1	-3
574.939	1	-7
575.109	1	3
575.279	1	5
575.449	1	6
575.619	1	15
575.789	1	16
575.959	1	-7
576.128	1	-2
576.298	1	-11
576.468	1	-1
576.638	1	-8
576.808	1	-2
576.978	1	1
577.148	1	6
577.318	1	6
577.487	1	9
577.657	1	-6
577.827	1	1
577.997	1	-1
578.167	1	-2
578.337	1	0
578.507	1	-14
578.677	1	-5
578.846	1	7
579.016	1	5
579.186	1	0
579.356	1	-14
579.526	1	2
579.696	1	-1
579.866	1	-1
580.036	1	-4
580.205	1	-3
580.375	1	0
580.545	1	-1
580.715	1	-3
580.885	1	2
581.055	1	5
581.225	1	0
581.394	1	3
581.564	1	-8
581.734	1	0
581.904	1	-7
582.074	1	-5
582.244	1	-1
582.414	1	3
582.583	1	-10
582.753	1	1
582.923	1	10
583.093	1	-9
583.263	1	-6
583.433	1	-3
583.603	1	5
583.772	1	2
583.942	1	11
584.112	1	2
584.282	1	7
584.452	1	6
584.622	1	5
584.791	1	0
584.961	1	2
585.131	1	-1
585.301	1	15
585.471	1	0
585.641	1	1
585.811	1	-5
585.980	1	-5
586.150	1	0
586.320	1	-6
586.490	1	-3
586.660	1	-6
586.830	1	-18
586.999	1	-7
587.169	1	6
587.339	1	4
587.509	1	4
587.679	1	-8
587.849	1	8
588.018	1	3
588.188	1	-11
588.358	1	3
588.528	1	1
588.698	1	0
588.867	1	-2
589.037	1	2
589.207	1	-10
589.377	1	23
589.547	1	-3
589.717	1	-7
589.886	1	-9
590.056	1	3
590.226	1	1
590.396	1	8
590.566	1	-8
590.735	1	7
590.905	1	8
591.075	1	-11
591.245	1	2
591.415	1	1
591.585	1	-7
591.754	1	0
591.924	1	5
592.094	1	-5
592.264	1	-12
592.434	1	8
592.603	1	-4
592.773	1	-3
592.943	1	0
593.113	1	-5
593.283	1	7
593.452	1	-13
593.622	1	2
593.792	1	4
593.962	1	9
594.132	1	-1
594.301	1	11
594.471	1	1
594.641	1	3
594.811	1	6
594.981	1	-4
595.150	1	-4
595.320	1	10
595.490	1	-4
595.660	1	-11
595.829	1	4
595.999	1	-2
596.169	1	0
596.339	1	3
596.509	1	-3
596.678	1	-2
596.848	1	-7
597.018	1	9
597.188	1	8
597.358	1	4
597.527	1	-13
597.697	1	-6
597.867	1	7
598.037	1	1
598.206	1	-9
598.376	1	5
598.546	1	-6
598.716	1	-7
598.885	1	-5
599.055	1	-1
599.225	1	6
599.395	1	10
599.565	1	5
599.734	1	-10
599.904	1	-5
600.074	1	-5
600.244	1	10
600.413	1	-5
600.583	1	0
600.753	1	-3
600.923	1	7
601.092	1	-10
601.262	1	7
601.432	1	-4
601.602	1	6
601.771	1	8
601.941	1	-3
602.111	1	-9
602.281	1	0
602.451	1	5
602.620	1	2
602.790	1	5
602.960	1	-3
603.130	1	7
603.299	1	8
603.469	1	-5
603.639	1	-3
603.809	1	8
603.978	1	-7
604.148	1	0
604.318	1	10
604.487	1	-6
604.657	1	-1
604.827	1	-5
604.997	1	4
605.166	1	-9
605.336	1	-2
605.506	1	3
605.676	1	-7
605.845	1	-1
606.015	1	-2
606.185	1	1
606.355	1	10
606.524	1	-11
606.694	1	10
606.864	1	3
607.034	1	-9
607.203	1	13
607.373	1	3
607.543	1	-14
607.712	1	15
607.882	1	-10
608.052	1	-7
608.222	1	-3
608.391	1	2
608.561	1	1
608.731	1	-7
608.901	1	5
609.070	1	-2
609.240	1	0
609.410	1	0
609.579	1	-2
609.749	1	0
609.919	1	-6
610.089	1	2
610.258	1	3
610.428	1	1
610.598	1	3
610.767	1	-5
610.937	1	-1
611.107	1	4
611.277	1	6
611.446	1	-4
611.616	1	-3
611.786	1	9
611.955	1	2
612.125	1	2
612.295	1	9
612.465	1	-6
612.634	1	-3
612.804	1	5
612.974	1	3
613.143	1	0
613.313	1	-1
613.483	1	2
613.652	1	-3
613.822	1	-3
613.992	1	5
614.162	1	5
614.331	1	1
614.501	1	-2
614.671	1	6
614.840	1	0
615.010	1	2
615.180	1	-3
615.349	1	5
615.519	1	3
615.689	1	1
615.858	1	7
616.028	1	-2
616.198	1	-2
616.368	1	3
616.537	1	-9
616.707	1	-5
616.877	1	6
617.046	1	-1
617.216	1	-6
617.386	1	5
617.555	1	-11
617.725	1	-1
617.895	1	1
618.064	1	7
618.234	1	2
618.404	1	9
618.573	1	-1
618.743	1	-1
618.913	1	0
619.082	1	2
619.252	1	0
619.422	1	5
619.591	1	-8
619.761	1	5
619.931	1	14
620.100	1	4
620.270	1	-2
620.440	1	-5
620.609	1	3
620.779	1	-2
620.949	1	-2
621.118	1	3
621.288	1	1
621.458	1	3
621.627	1	-7
621.797	1	3
621.967	1	2
622.136	1	6
622.306	1	2
622.476	1	0
622.645	1	15
622.815	1	-3
622.985	1	-5
623.154	1	4
623.324	1	3
623.494	1	4
623.663	1	0
623.833	1	-3
624.002	1	-3
624.172	1	9
624.342	1	-5
624.511	1	1
624.681	1	-2
624.851	1	-6
625.020	1	2
625.190	1	8
625.360	1	-1
625.529	1	9
625.699	1	-4
625.869	1	5
626.038	1	3
626.208	1	-7
626.377	1	20
626.547	1	5
626.717	1	-3
626.886	1	-4
627.056	1	7
627.226	1	4
627.395	1	-4
627.565	1	1
627.735	1	6
627.904	1	-6
628.074	1	1
628.243	1	-10
628.413	1	-4
628.583	1	-6
628.752	1	9
628.922	1	3
629.091	1	1
629.261	1	9
629.431	1	-12
629.600	1	7
629.770	1	3
629.940	1	0
630.109	1	3
630.279	1	-8
630.448	1	-7
630.618	1	1
630.788	1	12
630.957	1	-6
631.127	1	9
631.297	1	0
631.466	1	-2
631.636	1	-11
631.805	1	-3
631.975	1	0
632.145	1	-14
632.314	1	8
632.484	1	1
632.653	1	-8
632.823	1	9
632.993	1	5
633.162	1	-8
633.332	1	9
633.501	1	-9
633.671	1	-5
633.841	1	3
634.010	1	3
634.180	1	4
634.349	1	6
634.519	1	2
634.689	1	10
634.858	1	9
635.028	1	-2
635.197	1	2
635.367	1	4
635.537	1	-11
635.706	1	-11
635.876	1	-11
636.045	1	0
636.215	1	-4
636.384	1	8
636.554	1	6
636.724	1	1
636.893	1	10
637.063	1	-3
637.232	1	-9
637.402	1	7
637.572	1	2
637.741	1	0
637.911	1	8
638.080	1	0
638.250	1	4
638.419	1	1
638.589	1	8
638.759	1	7
638.928	1	-13
639.098	1	-3
639.267	1	6
639.437	1	-4
639.606	1	9
639.776	1	12
639.946	1	8
640.115	1	-2
640.285	1	2
640.454	1	9
640.624	1	6
640.793	1	-2
640.963	1	0
641.132	1	9
641.302	1	5
641.472	1	-10
641.641	1	0
641.811	1	-6
641.980	1	-5
642.150	1	-7
642.319	1	-6
642.489	1	-2
642.659	1	-10
642.828	1	5
642.998	1	-12
643.167	1	4
643.337	1	14
643.506	1	-7
643.676	1	-2
643.845	1	-1
644.015	1	2
644.184	1	9
644.354	1	-3
644.524	1	0
644.693	1	14
644.863	1	-11
645.032	1	-5
645.202	1	-2
645.371	1	-10
645.541	1	-10
645.710	1	2
645.880	1	3
646.049	1	8
646.219	1	7
646.388	1	4
646.558	1	-6
646.728	1	6
646.897	1	-3
647.067	1	1
647.236	1	-2
647.406	1	-5
647.575	1	3
647.745	1	6
647.914	1	-2
648.084	1	-4
648.253	1	-1
648.423	1	-6
648.592	1	1
648.762	1	8
648.931	1	6
649.101	1	9
649.270	1	10
649.440	1	5
649.610	1	7
649.779	1	-9
649.949	1	-1
650.118	1	-7
650.288	1	-12
650.457	1	3
650.627	1	-7
650.796	1	0
650.966	1	-1
651.135	1	9
651.305	1	-5
651.474	1	-1
651.644	1	-1
651.813	1	6
651.983	1	-6
652.152	1	-4
652.322	1	-1
652.491	1	6
652.661	1	-6
652.830	1	5
653.000	1	-1
653.169	1	3
653.339	1	0
653.508	1	-1
653.678	1	1
653.847	1	8
654.017	1	-4
654.186	1	-2
654.356	1	8
654.525	1	5
654.695	1	-1
654.864	1	11
655.034	1	-1
655.203	1	-4
655.373	1	7
655.542	1	2
655.712	1	0
655.881	1	1
656.051	1	4
656.220	1	4
656.390	1	-2
656.559	1	-1
656.729	1	3
656.898	1	3
657.068	1	-11
657.237	1	12
657.406	1	-1
657.576	1	-4
657.745	1	-4
657.915	1	9
658.084	1	5
658.254	1	-1
658.423	1	3
658.593	1	-5
658.762	1	-7
658.932	1	8
659.101	1	-1
659.271	1	3
659.440	1	4
659.610	1	-4
659.779	1	-1
659.949	1	-4
660.118	1	-6
660.288	1	-5
660.457	1	4
660.626	1	-7
660.796	1	-8
660.965	1	6
661.135	1	9
661.304	1	4
661.474	1	5
661.643	1	-6
661.813	1	4
661.982	1	-1
662.152	1	4
662.321	1	5
662.491	1	-7
662.660	1	2
662.829	1	-3
662.999	1	-5
663.168	1	-5
663.338	1	-5
663.507	1	7
663.677	1	-12
663.846	1	2
664.016	1	2
664.185	1	-2
664.354	1	5
664.524	1	-4
664.693	1	-3
664.863	1	-10
665.032	1	6
665.202	1	-8
665.371	1	-3
665.541	1	-5
665.710	1	-9
665.879	1	5
666.049	1	0
666.218	1	-9
666.388	1	-1
666.557	1	4
666.727	1	-13
666.896	1	-3
667.065	1	16
667.235	1	1
667.404	1	-13
667.574	1	5
667.743	1	-3
667.913	1	6
668.082	1	0
668.251	1	-3
668.421	1	5
668.590	1	-9
668.760	1	-10
668.929	1	0
669.099	1	-5
669.268	1	0
669.437	1	0
669.607	1	-14
669.776	1	9
669.946	1	6
670.115	1	7
670.285	1	0
670.454	1	0
670.623	1	3
670.793	1	-3
670.962	1	0
671.132	1	1
671.301	1	-5
671.470	1	-6
671.640	1	-7
671.809	1	-5
671.979	1	7
672.148	1	5
672.317	1	-12
672.487	1	-1
672.656	1	6
672.826	1	-14
672.995	1	4
673.164	1	8
673.334	1	-1
673.503	1	-2
673.673	1	7
673.842	1	-2
674.011	1	3
674.181	1	2
674.350	1	-8
674.520	1	-9
674.689	1	-7
674.858	1	-6
675.028	1	1
675.197	1	-14
675.367	1	5
675.536	1	2
675.705	1	-11
675.875	1	1
676.044	1	-6
676.214	1	3
676.383	1	-1
676.552	1	-10
676.722	1	6
676.891	1	-13
677.060	1	-4
677.230	1	13
677.399	1	-6
677.569	1	-8
677.738	1	-2
677.907	1	-8
678.077	1	-6
678.246	1	-11
678.416	1	-2
678.585	1	6
678.754	1	-2
678.924	1	-10
679.093	1	-1
679.262	1	-1
679.432	1	-9
679.601	1	-20
679.771	1	4
679.940	1	-1
680.109	1	11
680.279	1	-7
680.448	1	-10
680.617	1	-2
680.787	1	3
680.956	1	3
681.125	1	6
681.295	1	3
681.464	1	-7
681.634	1	8
681.803	1	-20
681.972	1	-8
682.142	1	13
682.311	1	1
682.480	1	0
682.650	1	-8
682.819	1	4
682.988	1	-6
683.158	1	0
683.327	1	5
683.496	1	-2
683.666	1	-5
683.835	1	1
684.004	1	-2
684.174	1	0
684.343	1	-7
684.512	1	4
684.682	1	7
684.851	1	2
685.021	1	9
685.190	1	9
685.359	1	-4
685.529	1	1
685.698	1	4
685.867	1	3
686.037	1	-4
686.206	1	5
686.375	1	3
686.545	1	1
686.714	1	-9
686.883	1	-9
687.053	1	12
687.222	1	0
687.391	1	1
687.561	1	0
687.730	1	1
687.899	1	1
688.069	1	1
688.238	1	-3
688.407	1	7
688.577	1	2
688.746	1	1
