340.368	1	-6
340.539	1	4
340.710	1	-3
340.881	1	1
341.052	1	-1
341.223	1	21
341.394	1	-5
341.565	1	-5
341.737	1	5
341.908	1	7
342.079	1	6
342.250	1	-8
342.421	1	-9
342.592	1	-5
342.763	1	0
342.934	1	13
343.105	1	7
343.276	1	-2
343.447	1	10
343.618	1	7
343.789	1	-2
343.960	1	-4
344.131	1	7
344.302	1	-6
344.473	1	2
344.644	1	-4
344.815	1	-1
344.986	1	3
345.157	1	5
345.328	1	0
345.499	1	5
345.670	1	-4
345.841	1	1
346.012	1	11
346.183	1	-2
346.354	1	2
346.526	1	6
346.697	1	1
346.868	1	-2
347.039	1	3
347.210	1	5
347.381	1	2
347.552	1	-5
347.723	1	5
347.894	1	2
348.065	1	4
348.236	1	-1
348.407	1	3
348.578	1	-1
348.749	1	2
348.920	1	11
349.091	1	-2
349.262	1	0
349.433	1	-5
349.604	1	7
349.775	1	5
349.946	1	5
350.117	1	7
350.288	1	3
350.459	1	5
350.630	1	-9
350.801	1	7
350.972	1	1
351.143	1	-13
351.314	1	-6
351.485	1	-3
351.656	1	7
351.827	1	-6
351.998	1	-11
352.169	1	18
352.340	1	-4
352.511	1	-11
352.682	1	2
352.853	1	-2
353.024	1	2
353.195	1	-4
353.366	1	-2
353.537	1	5
353.708	1	1
353.879	1	0
354.050	1	0
354.221	1	-7
354.392	1	5
354.563	1	8
354.734	1	4
354.905	1	6
355.076	1	-1
355.247	1	-8
355.418	1	0
355.589	1	-5
355.760	1	-12
355.931	1	-1
356.102	1	-5
356.273	1	2
356.444	1	2
356.615	1	17
356.785	1	18
356.956	1	-9
357.127	1	5
357.298	1	-3
357.469	1	0
357.640	1	8
357.811	1	10
357.982	1	-12
358.153	1	9
358.324	1	-4
358.495	1	8
358.666	1	-3
358.837	1	3
359.008	1	4
359.179	1	5
359.350	1	-3
359.521	1	9
359.692	1	2
359.863	1	-4
360.034	1	-1
360.205	1	-4
360.376	1	2
360.547	1	8
360.718	1	-4
360.889	1	3
361.060	1	1
361.231	1	3
361.401	1	3
361.572	1	-9
361.743	1	3
361.914	1	-5
362.085	1	1
362.256	1	8
362.427	1	-5
362.598	1	2
362.769	1	8
362.940	1	-4
363.111	1	12
363.282	1	-3
363.453	1	0
363.624	1	3
363.795	1	2
363.966	1	4
364.137	1	-6
364.308	1	-6
364.478	1	3
364.649	1	6
364.820	1	-4
364.991	1	7
365.162	1	0
365.333	1	9
365.504	1	-3
365.675	1	-3
365.846	1	-4
366.017	1	-3
366.188	1	-10
366.359	1	2
366.530	1	10
366.701	1	-14
366.871	1	8
367.042	1	15
367.213	1	7
367.384	1	-1
367.555	1	-3
367.726	1	6
367.897	1	3
368.068	1	-6
368.239	1	10
368.410	1	4
368.581	1	4
368.752	1	-2
368.923	1	-13
369.093	1	2
369.264	1	4
369.435	1	-5
369.606	1	-2
369.777	1	-8
369.948	1	-1
370.119	1	-1
370.290	1	-2
370.461	1	0
370.632	1	-3
370.803	1	0
370.973	1	10
371.144	1	16
371.315	1	-6
371.486	1	0
371.657	1	9
371.828	1	0
371.999	1	-5
372.170	1	8
372.341	1	-1
372.512	1	-1
372.682	1	-1
372.853	1	-2
373.024	1	-6
373.195	1	-13
373.366	1	6
373.537	1	8
373.708	1	1
373.879	1	9
374.050	1	6
374.220	1	10
374.391	1	7
374.562	1	-3
374.733	1	10
374.904	1	2
375.075	1	4
375.246	1	-5
375.417	1	1
375.588	1	3
375.758	1	-2
375.929	1	4
376.100	1	15
376.271	1	-3
376.442	1	3
376.613	1	7
376.784	1	9
376.955	1	-6
377.125	1	-3
377.296	1	13
377.467	1	-6
377.638	1	2
377.809	1	10
377.980	1	12
378.151	1	-3
378.321	1	2
378.492	1	0
378.663	1	-1
378.834	1	2
379.005	1	17
379.176	1	5
379.347	1	1
379.518	1	-5
379.688	1	-1
379.859	1	-4
380.030	1	-1
380.201	1	-2
380.372	1	0
380.543	1	7
380.714	1	8
380.884	1	1
381.055	1	-4
381.226	1	-8
381.397	1	0
381.568	1	-3
381.739	1	8
381.910	1	10
382.080	1	-9
382.251	1	0
382.422	1	10
382.593	1	7
382.764	1	-3
382.935	1	-3
383.105	1	8
383.276	1	2
383.447	1	6
383.618	1	2
383.789	1	1
383.960	1	3
384.130	1	-9
384.301	1	1
384.472	1	1
384.643	1	-1
384.814	1	4
384.985	1	1
385.156	1	3
385.326	1	9
385.497	1	12
385.668	1	-4
385.839	1	6
386.010	1	3
386.180	1	-6
386.351	1	1
386.522	1	12
386.693	1	1
386.864	1	-11
387.035	1	-7
387.205	1	-2
387.376	1	8
387.547	1	-10
387.718	1	12
387.889	1	12
388.060	1	-6
388.230	1	6
388.401	1	3
388.572	1	2
388.743	1	-2
388.914	1	8
389.084	1	8
389.255	1	2
389.426	1	5
389.597	1	1
389.768	1	-5
389.939	1	10
390.109	1	1
390.280	1	9
390.451	1	6
390.622	1	-2
390.793	1	2
390.963	1	10
391.134	1	2
391.305	1	2
391.476	1	8
391.647	1	18
391.817	1	-6
391.988	1	1
392.159	1	10
392.330	1	3
392.501	1	2
392.671	1	12
392.842	1	11
393.013	1	8
393.184	1	6
393.355	1	5
393.525	1	7
393.696	1	2
393.867	1	1
394.038	1	-6
394.208	1	2
394.379	1	-9
394.550	1	-3
394.721	1	0
394.892	1	9
395.062	1	-9
395.233	1	7
395.404	1	7
395.575	1	-8
395.746	1	4
395.916	1	-1
396.087	1	-4
396.258	1	-3
396.429	1	-2
396.599	1	0
396.770	1	8
396.941	1	10
397.112	1	-8
397.283	1	11
397.453	1	-5
397.624	1	1
397.795	1	5
397.966	1	5
398.136	1	4
398.307	1	6
398.478	1	6
398.649	1	2
398.819	1	11
398.990	1	9
399.161	1	-2
399.332	1	7
399.503	1	0
399.673	1	2
399.844	1	2
400.015	1	-8
400.186	1	11
400.356	1	-4
400.527	1	1
400.698	1	-11
400.869	1	6
401.039	1	-7
401.210	1	-10
401.381	1	2
401.552	1	15
401.722	1	10
401.893	1	0
402.064	1	0
402.235	1	4
402.405	1	-3
402.576	1	6
402.747	1	1
402.918	1	-11
403.088	1	-9
403.259	1	-3
403.430	1	-2
403.601	1	-10
403.771	1	4
403.942	1	6
404.113	1	10
404.284	1	3
404.454	1	10
404.625	1	0
404.796	1	-6
404.967	1	1
405.137	1	5
405.308	1	6
405.479	1	8
405.649	1	7
405.820	1	3
405.991	1	7
406.162	1	-3
406.332	1	-4
406.503	1	-3
406.674	1	4
406.845	1	-3
407.015	1	0
407.186	1	17
407.357	1	4
407.527	1	-7
407.698	1	-3
407.869	1	1
408.040	1	-3
408.210	1	2
408.381	1	-6
408.552	1	-4
408.722	1	-7
408.893	1	-10
409.064	1	2
409.235	1	-9
409.405	1	-7
409.576	1	8
409.747	1	-3
409.917	1	-1
410.088	1	9
410.259	1	4
410.430	1	0
410.600	1	1
410.771	1	2
410.942	1	-2
411.112	1	8
411.283	1	-8
411.454	1	8
411.625	1	-2
411.795	1	1
411.966	1	-7
412.137	1	4
412.307	1	-2
412.478	1	7
412.649	1	3
412.819	1	-8
412.990	1	-1
413.161	1	-5
413.332	1	7
413.502	1	-9
413.673	1	8
413.844	1	-1
414.014	1	-8
414.185	1	0
414.356	1	-7
414.526	1	0
414.697	1	3
414.868	1	4
415.038	1	-10
415.209	1	-2
415.380	1	-3
415.550	1	-7
415.721	1	-2
415.892	1	-5
416.063	1	6
416.233	1	6
416.404	1	6
416.575	1	-4
416.745	1	-11
416.916	1	-1
417.087	1	-5
417.257	1	0
417.428	1	-1
417.599	1	2
417.769	1	10
417.940	1	-2
418.111	1	1
418.281	1	-1
418.452	1	-11
418.623	1	9
418.793	1	5
418.964	1	0
419.135	1	0
419.305	1	0
419.476	1	-2
419.647	1	3
419.817	1	5
419.988	1	-3
420.159	1	-13
420.329	1	4
420.500	1	1
420.671	1	4
420.841	1	6
421.012	1	11
421.183	1	1
421.353	1	14
421.524	1	-4
421.695	1	-3
421.865	1	3
422.036	1	3
422.206	1	-2
422.377	1	4
422.548	1	-1
422.718	1	2
422.889	1	6
423.060	1	-1
423.230	1	9
423.401	1	0
423.572	1	-1
423.742	1	-1
423.913	1	4
424.084	1	3
424.254	1	10
424.425	1	-4
424.595	1	3
424.766	1	0
424.937	1	-6
425.107	1	-5
425.278	1	-4
425.449	1	2
425.619	1	4
425.790	1	1
425.961	1	-2
426.131	1	10
426.302	1	0
426.472	1	4
426.643	1	6
426.814	1	8
426.984	1	-1
427.155	1	3
427.326	1	13
427.496	1	8
427.667	1	10
427.837	1	0
428.008	1	6
428.179	1	-6
428.349	1	-8
428.520	1	-1
428.691	1	-8
428.861	1	4
429.032	1	-2
429.202	1	4
429.373	1	-7
429.544	1	12
429.714	1	5
429.885	1	5
430.055	1	0
430.226	1	-5
430.397	1	3
430.567	1	10
430.738	1	-1
430.909	1	-4
431.079	1	7
431.250	1	-11
431.420	1	-2
431.591	1	3
431.762	1	4
431.932	1	4
432.103	1	6
432.273	1	7
432.444	1	-1
432.615	1	1
432.785	1	3
432.956	1	9
433.126	1	0
433.297	1	5
433.468	1	1
433.638	1	5
433.809	1	3
433.979	1	2
434.150	1	-10
434.320	1	-1
434.491	1	2
434.662	1	-13
434.832	1	-5
435.003	1	8
435.173	1	2
435.344	1	1
435.515	1	0
435.685	1	13
435.856	1	-5
436.026	1	5
436.197	1	-3
436.368	1	2
436.538	1	8
436.709	1	-4
436.879	1	0
437.050	1	6
437.220	1	8
437.391	1	1
437.562	1	9
437.732	1	1
437.903	1	-6
438.073	1	5
438.244	1	-8
438.414	1	-1
438.585	1	-1
438.756	1	9
438.926	1	-1
439.097	1	6
439.267	1	1
439.438	1	10
439.608	1	4
439.779	1	5
439.949	1	-2
440.120	1	-2
440.291	1	-2
440.461	1	-3
440.632	1	11
440.802	1	5
440.973	1	-2
441.143	1	3
441.314	1	8
441.485	1	3
441.655	1	14
441.826	1	-5
441.996	1	6
442.167	1	-3
442.337	1	1
442.508	1	-1
442.678	1	-7
442.849	1	7
443.019	1	1
443.190	1	-3
443.361	1	11
443.531	1	-6
443.702	1	-1
443.872	1	4
444.043	1	7
444.213	1	-2
444.384	1	2
444.554	1	4
444.725	1	5
444.895	1	1
445.066	1	-7
445.237	1	2
445.407	1	-4
445.578	1	7
445.748	1	-2
445.919	1	7
446.089	1	9
446.260	1	11
446.430	1	-21
446.601	1	-6
446.771	1	-3
446.942	1	3
447.112	1	-5
447.283	1	2
447.453	1	-7
447.624	1	12
447.794	1	-2
447.965	1	-8
448.135	1	11
448.306	1	1
448.477	1	-12
448.647	1	8
448.818	1	4
448.988	1	-8
449.159	1	-7
449.329	1	-6
449.500	1	17
449.670	1	8
449.841	1	8
450.011	1	-2
450.182	1	-6
450.352	1	-3
450.523	1	-6
450.693	1	6
450.864	1	-6
451.034	1	4
451.205	1	3
451.375	1	9
451.546	1	4
451.716	1	5
451.887	1	2
452.057	1	10
452.228	1	-2
452.398	1	-1
452.569	1	-2
452.739	1	4
452.910	1	-7
453.080	1	13
453.251	1	0
453.421	1	2
453.592	1	-2
453.762	1	2
453.933	1	11
454.103	1	5
454.274	1	-4
454.444	1	7
454.615	1	8
454.785	1	-3
454.956	1	2
455.126	1	2
455.297	1	4
455.467	1	8
455.638	1	4
455.808	1	-2
455.979	1	9
456.149	1	-2
456.320	1	2
456.490	1	2
456.661	1	1
456.831	1	8
457.001	1	10
457.172	1	1
457.342	1	6
457.513	1	1
457.683	1	11
457.854	1	6
458.024	1	-5
458.195	1	-7
458.365	1	9
458.536	1	13
458.706	1	-1
458.877	1	6
459.047	1	3
459.218	1	9
459.388	1	1
459.559	1	3
459.729	1	6
459.899	1	1
460.070	1	5
460.240	1	4
460.411	1	8
460.581	1	5
460.752	1	-3
460.922	1	3
461.093	1	5
461.263	1	7
461.434	1	11
461.604	1	-5
461.775	1	9
461.945	1	12
462.115	1	-7
462.286	1	3
462.456	1	1
462.627	1	-3
462.797	1	-1
462.968	1	2
463.138	1	11
463.309	1	8
463.479	1	5
463.649	1	10
463.820	1	0
463.990	1	-1
464.161	1	6
464.331	1	4
464.502	1	3
464.672	1	6
464.843	1	-3
465.013	1	-7
465.183	1	5
465.354	1	3
465.524	1	6
465.695	1	9
465.865	1	-5
466.036	1	8
466.206	1	6
466.376	1	-11
466.547	1	5
466.717	1	-8
466.888	1	-2
467.058	1	2
467.229	1	4
467.399	1	0
467.569	1	11
467.740	1	1
467.910	1	2
468.081	1	-6
468.251	1	3
468.422	1	10
468.592	1	5
468.762	1	-7
468.933	1	7
469.103	1	-5
469.274	1	2
469.444	1	5
469.614	1	-10
469.785	1	10
469.955	1	2
470.126	1	1
470.296	1	6
470.467	1	1
470.637	1	14
470.807	1	4
470.978	1	0
471.148	1	1
471.319	1	5
471.489	1	-3
471.659	1	12
471.830	1	15
472.000	1	-2
472.171	1	9
472.341	1	9
472.511	1	13
472.682	1	4
472.852	1	-8
473.023	1	1
473.193	1	3
473.363	1	-6
473.534	1	6
473.704	1	10
473.875	1	10
474.045	1	-6
474.215	1	-2
474.386	1	5
474.556	1	-14
474.727	1	-2
474.897	1	4
475.067	1	3
475.238	1	4
475.408	1	8
475.578	1	-4
475.749	1	-8
475.919	1	-4
476.090	1	-1
476.260	1	6
476.430	1	2
476.601	1	5
476.771	1	-1
476.942	1	-5
477.112	1	2
477.282	1	-7
477.453	1	8
477.623	1	-7
477.793	1	8
477.964	1	9
478.134	1	7
478.305	1	-1
478.475	1	4
478.645	1	-7
478.816	1	-12
478.986	1	3
479.156	1	-5
479.327	1	2
479.497	1	12
479.667	1	6
479.838	1	2
480.008	1	4
480.179	1	9
480.349	1	5
480.519	1	1
480.690	1	-2
480.860	1	-5
481.030	1	1
481.201	1	4
481.371	1	13
481.541	1	-7
481.712	1	9
481.882	1	-9
482.053	1	10
482.223	1	-11
482.393	1	-9
482.564	1	-8
482.734	1	1
482.904	1	10
483.075	1	7
483.245	1	1
483.415	1	9
483.586	1	2
483.756	1	2
483.926	1	5
484.097	1	-2
484.267	1	-3
484.437	1	-8
484.608	1	8
484.778	1	-2
484.948	1	0
485.119	1	2
485.289	1	1
485.459	1	7
485.630	1	-7
485.800	1	0
485.970	1	5
486.141	1	-3
486.311	1	4
486.481	1	3
486.652	1	6
486.822	1	11
486.992	1	-1
487.163	1	-3
487.333	1	5
487.503	1	-6
487.674	1	9
487.844	1	2
488.014	1	5
488.185	1	0
488.355	1	-10
488.525	1	0
488.696	1	-8
488.866	1	7
489.036	1	10
489.207	1	5
489.377	1	2
489.547	1	1
489.718	1	-2
489.888	1	0
490.058	1	-5
490.228	1	-1
490.399	1	11
490.569	1	1
490.739	1	8
490.910	1	-3
491.080	1	-3
491.250	1	9
491.421	1	-2
491.591	1	-3
491.761	1	3
491.932	1	8
492.102	1	-1
492.272	1	4
492.442	1	10
492.613	1	6
492.783	1	-5
492.953	1	8
493.124	1	-1
493.294	1	14
493.464	1	-2
493.635	1	-3
493.805	1	-1
493.975	1	10
494.145	1	-3
494.316	1	8
494.486	1	-4
494.656	1	9
494.827	1	6
494.997	1	-2
495.167	1	0
495.337	1	1
495.508	1	-15
495.678	1	3
495.848	1	13
496.019	1	-4
496.189	1	-3
496.359	1	7
496.529	1	-8
496.700	1	-4
496.870	1	2
497.040	1	4
497.211	1	12
497.381	1	-14
497.551	1	6
497.721	1	-3
497.892	1	3
498.062	1	2
498.232	1	7
498.403	1	9
498.573	1	0
498.743	1	1
498.913	1	5
499.084	1	1
499.254	1	0
499.424	1	12
499.594	1	8
499.765	1	-4
499.935	1	-10
500.105	1	6
500.275	1	11
500.446	1	2
500.616	1	2
500.786	1	8
500.956	1	0
501.127	1	14
501.297	1	4
501.467	1	9
501.638	1	-1
501.808	1	-7
501.978	1	12
502.148	1	6
502.319	1	2
502.489	1	2
502.659	1	5
502.829	1	5
503.000	1	0
503.170	1	-3
503.340	1	0
503.510	1	-3
503.681	1	-6
503.851	1	-6
504.021	1	11
504.191	1	5
504.362	1	6
504.532	1	-9
504.702	1	11
504.872	1	-9
505.042	1	2
505.213	1	4
505.383	1	1
505.553	1	3
505.723	1	2
505.894	1	12
506.064	1	1
506.234	1	6
506.404	1	-3
506.575	1	-2
506.745	1	3
506.915	1	-3
507.085	1	-6
507.256	1	9
507.426	1	-1
507.596	1	3
507.766	1	5
507.936	1	6
508.107	1	-2
508.277	1	-4
508.447	1	3
508.617	1	10
508.788	1	-3
508.958	1	13
509.128	1	0
509.298	1	6
509.468	1	11
509.639	1	10
509.809	1	17
509.979	1	-5
510.149	1	2
510.319	1	-6
510.490	1	2
510.660	1	5
510.830	1	0
511.000	1	10
511.171	1	8
511.341	1	-2
511.511	1	3
511.681	1	8
511.851	1	0
512.022	1	-5
512.192	1	4
512.362	1	-4
512.532	1	-9
512.702	1	-6
512.873	1	6
513.043	1	7
513.213	1	7
513.383	1	-8
513.553	1	-9
513.724	1	6
513.894	1	-7
514.064	1	1
514.234	1	-2
514.404	1	0
514.575	1	2
514.745	1	-5
514.915	1	8
515.085	1	5
515.255	1	-11
515.425	1	0
515.596	1	-3
515.766	1	5
515.936	1	-3
516.106	1	8
516.276	1	8
516.447	1	7
516.617	1	-3
516.787	1	0
516.957	1	-1
517.127	1	2
517.297	1	3
517.468	1	-6
517.638	1	2
517.808	1	5
517.978	1	-9
518.148	1	3
518.319	1	-5
518.489	1	2
518.659	1	0
518.829	1	1
518.999	1	-2
519.169	1	10
519.340	1	4
519.510	1	-6
519.680	1	-1
519.850	1	-9
520.020	1	-8
520.190	1	5
520.361	1	-2
520.531	1	1
520.701	1	5
520.871	1	-4
521.041	1	0
521.211	1	0
521.382	1	-5
521.552	1	2
521.722	1	2
521.892	1	-4
522.062	1	-2
522.232	1	-8
522.402	1	-15
522.573	1	4
522.743	1	10
522.913	1	3
523.083	1	3
523.253	1	3
523.423	1	-13
523.593	1	-4
523.764	1	3
523.934	1	-6
524.104	1	-1
524.274	1	-15
524.444	1	2
524.614	1	0
524.784	1	1
524.955	1	9
525.125	1	4
525.295	1	-5
525.465	1	-9
525.635	1	11
525.805	1	5
525.975	1	-7
526.146	1	-4
526.316	1	-2
526.486	1	1
526.656	1	7
526.826	1	3
526.996	1	11
527.166	1	0
527.337	1	-9
527.507	1	3
527.677	1	16
527.847	1	-3
528.017	1	-11
528.187	1	0
528.357	1	10
528.527	1	4
528.698	1	-3
528.868	1	-5
529.038	1	7
529.208	1	-4
529.378	1	3
529.548	1	7
529.718	1	0
529.888	1	1
530.058	1	5
530.229	1	-3
530.399	1	4
530.569	1	8
530.739	1	0
530.909	1	-1
531.079	1	2
531.249	1	0
531.419	1	1
531.589	1	-6
531.760	1	9
531.930	1	-8
532.100	1	5
532.270	1	5
532.440	1	0
532.610	1	0
532.780	1	-4
532.950	1	5
533.120	1	-6
533.290	1	-8
533.461	1	8
533.631	1	1
533.801	1	0
533.971	1	-6
534.141	1	8
534.311	1	-5
534.481	1	-6
534.651	1	-1
534.821	1	8
534.991	1	1
535.162	1	-4
535.332	1	-1
535.502	1	-5
535.672	1	-1
535.842	1	-2
536.012	1	-2
536.182	1	3
536.352	1	1
536.522	1	1
536.692	1	0
536.862	1	1
537.032	1	0
537.203	1	1
537.373	1	1
537.543	1	7
537.713	1	14
537.883	1	3
538.053	1	8
538.223	1	-2
538.393	1	4
538.563	1	0
538.733	1	-3
538.903	1	-5
539.073	1	0
539.243	1	-2
539.413	1	-2
539.584	1	1
539.754	1	2
539.924	1	1
540.094	1	-4
540.264	1	2
540.434	1	-6
540.604	1	6
540.774	1	-1
540.944	1	-5
541.114	1	-3
541.284	1	1
541.454	1	13
541.624	1	9
541.794	1	-2
541.964	1	2
542.134	1	7
542.305	1	-3
542.475	1	-8
542.645	1	3
542.815	1	7
542.985	1	1
543.155	1	-8
543.325	1	-14
543.495	1	-1
543.665	1	16
543.835	1	4
544.005	1	0
544.175	1	-7
544.345	1	-4
544.515	1	-1
544.685	1	1
544.855	1	12
545.025	1	-5
545.195	1	-3
545.365	1	-2
545.535	1	-13
545.705	1	4
545.875	1	-3
546.045	1	6
546.216	1	4
546.386	1	11
546.556	1	-7
546.726	1	-2
546.896	1	-11
547.066	1	-7
547.236	1	-13
547.406	1	11
547.576	1	6
547.746	1	5
547.916	1	6
548.086	1	3
548.256	1	4
548.426	1	1
548.596	1	3
548.766	1	11
548.936	1	-4
549.106	1	1
549.276	1	6
549.446	1	4
549.616	1	-2
549.786	1	2
549.956	1	6
550.126	1	-7
550.296	1	-3
550.466	1	-3
550.636	1	2
550.806	1	13
550.976	1	2
551.146	1	-4
551.316	1	4
551.486	1	4
551.656	1	-15
551.826	1	11
551.996	1	6
552.166	1	-1
552.336	1	-3
552.506	1	-10
552.676	1	-7
552.846	1	5
553.016	1	3
553.186	1	-4
553.356	1	-3
553.526	1	-8
553.696	1	11
553.866	1	14
554.036	1	-8
554.206	1	-1
554.376	1	-4
554.546	1	-4
554.716	1	-7
554.886	1	3
555.056	1	-5
555.226	1	0
555.396	1	2
555.566	1	8
555.736	1	3
555.906	1	9
556.076	1	1
556.246	1	-2
556.416	1	8
556.586	1	5
556.756	1	9
556.926	1	3
557.096	1	-1
557.266	1	11
557.436	1	2
557.606	1	-7
557.776	1	4
557.946	1	5
558.116	1	17
558.286	1	3
558.456	1	-8
558.626	1	4
558.796	1	2
558.966	1	1
559.136	1	3
559.306	1	-2
559.476	1	-6
559.646	1	0
559.816	1	5
559.986	1	-3
560.155	1	5
560.325	1	-2
560.495	1	5
560.665	1	7
560.835	1	2
561.005	1	5
561.175	1	0
561.345	1	-2
561.515	1	-3
561.685	1	2
561.855	1	10
562.025	1	0
562.195	1	1
562.365	1	-2
562.535	1	4
562.705	1	0
562.875	1	6
563.045	1	14
563.215	1	1
563.385	1	-3
563.555	1	11
563.725	1	-2
563.895	1	7
564.064	1	7
564.234	1	-2
564.404	1	-3
564.574	1	-7
564.744	1	5
564.914	1	-15
565.084	1	-11
565.254	1	2
565.424	1	-1
565.594	1	-7
565.764	1	12
565.934	1	6
566.104	1	3
566.274	1	-3
566.444	1	5
566.614	1	2
566.783	1	-3
566.953	1	2
567.123	1	16
567.293	1	4
567.463	1	-1
567.633	1	-1
567.803	1	0
567.973	1	-7
568.143	1	-6
568.313	1	-7
568.483	1	-5
568.653	1	-7
568.823	1	9
568.993	1	11
569.162	1	4
569.332	1	8
569.502	1	3
569.672	1	1
569.842	1	-11
570.012	1	9
570.182	1	-5
570.352	1	13
570.522	1	13
570.692	1	7
570.862	1	8
571.031	1	4
571.201	1	7
571.371	1	-5
571.541	1	-8
571.711	1	5
571.881	1	1
572.051	1	3
572.221	1	-4
572.391	1	2
572.561	1	-5
572.731	1	-1
572.900	1	4
573.070	1	2
573.240	1	-1
573.410	1	-1
573.580	1	8
573.750	1	13
573.920	1	5
574.090	1	-2
574.260	1	-2
574.430	1	-9
574.599	1	-5
574.769	1	-2
574.939	1	-2
575.109	1	0
575.279	1	4
575.449	1	0
575.619	1	3
575.789	1	4
575.959	1	-2
576.128	1	-6
576.298	1	-12
576.468	1	0
576.638	1	6
576.808	1	-3
576.978	1	1
577.148	1	5
577.318	1	2
577.487	1	4
577.657	1	-21
577.827	1	-1
577.997	1	-4
578.167	1	6
578.337	1	5
578.507	1	4
578.677	1	-10
578.846	1	3
579.016	1	10
579.186	1	-3
579.356	1	1
579.526	1	-6
579.696	1	4
579.866	1	10
580.036	1	-4
580.205	1	-1
580.375	1	5
580.545	1	8
580.715	1	9
580.885	1	3
581.055	1	-1
581.225	1	1
581.394	1	-3
581.564	1	3
581.734	1	0
581.904	1	-3
582.074	1	-5
582.244	1	9
582.414	1	4
582.583	1	-6
582.753	1	6
582.923	1	0
583.093	1	-1
583.263	1	3
583.433	1	2
583.603	1	9
583.772	1	-4
583.942	1	0
584.112	1	9
584.282	1	12
584.452	1	0
584.622	1	15
584.791	1	2
584.961	1	1
585.131	1	-4
585.301	1	15
585.471	1	-4
585.641	1	11
585.811	1	-6
585.980	1	-10
586.150	1	1
586.320	1	-4
586.490	1	-3
586.660	1	3
586.830	1	-1
586.999	1	4
587.169	1	-2
587.339	1	2
587.509	1	6
587.679	1	-4
587.849	1	7
588.018	1	8
588.188	1	-6
588.358	1	4
588.528	1	-6
588.698	1	-8
588.867	1	6
589.037	1	10
589.207	1	-12
589.377	1	9
589.547	1	-3
589.717	1	3
589.886	1	-10
590.056	1	3
590.226	1	10
590.396	1	5
590.566	1	1
590.735	1	10
590.905	1	0
591.075	1	-6
591.245	1	4
591.415	1	1
591.585	1	-4
591.754	1	8
591.924	1	1
592.094	1	0
592.264	1	2
592.434	1	5
592.603	1	2
592.773	1	6
592.943	1	-5
593.113	1	-1
593.283	1	5
593.452	1	-6
593.622	1	0
593.792	1	-5
593.962	1	3
594.132	1	-1
594.301	1	3
594.471	1	-2
594.641	1	-4
594.811	1	8
594.981	1	-2
595.150	1	-10
595.320	1	9
595.490	1	-12
595.660	1	-13
595.829	1	-3
595.999	1	8
596.169	1	9
596.339	1	0
596.509	1	7
596.678	1	4
596.848	1	7
597.018	1	5
597.188	1	-3
597.358	1	9
597.527	1	0
597.697	1	-6
597.867	1	3
598.037	1	9
598.206	1	-1
598.376	1	12
598.546	1	-5
598.716	1	-2
598.885	1	0
599.055	1	-6
599.225	1	3
599.395	1	11
599.565	1	0
599.734	1	6
599.904	1	-2
600.074	1	-11
600.244	1	0
600.413	1	7
600.583	1	-6
600.753	1	6
600.923	1	18
601.092	1	-14
601.262	1	3
601.432	1	-2
601.602	1	4
601.771	1	11
601.941	1	-8
602.111	1	-13
602.281	1	-7
602.451	1	2
602.620	1	-5
602.790	1	7
602.960	1	1
603.130	1	4
603.299	1	10
603.469	1	7
603.639	1	0
603.809	1	8
603.978	1	-1
604.148	1	0
604.318	1	3
604.487	1	0
604.657	1	2
604.827	1	-16
604.997	1	9
605.166	1	-6
605.336	1	-2
605.506	1	3
605.676	1	-9
605.845	1	-1
606.015	1	5
606.185	1	-1
606.355	1	10
606.524	1	-1
606.694	1	5
606.864	1	0
607.034	1	-8
607.203	1	9
607.373	1	0
607.543	1	-8
607.712	1	10
607.882	1	-4
608.052	1	-2
608.222	1	13
608.391	1	-5
608.561	1	11
608.731	1	-7
608.901	1	-1
609.070	1	2
609.240	1	-4
609.410	1	7
609.579	1	13
609.749	1	-2
609.919	1	-4
610.089	1	-3
610.258	1	0
610.428	1	8
610.598	1	8
610.767	1	-2
610.937	1	-1
611.107	1	7
611.277	1	10
611.446	1	-2
611.616	1	-10
611.786	1	17
611.955	1	2
612.125	1	-11
612.295	1	2
612.465	1	-1
612.634	1	-11
612.804	1	8
612.974	1	12
613.143	1	6
613.313	1	-1
613.483	1	1
613.652	1	-3
613.822	1	3
613.992	1	8
614.162	1	0
614.331	1	7
614.501	1	7
614.671	1	0
614.840	1	10
615.010	1	3
615.180	1	5
615.349	1	3
615.519	1	6
615.689	1	9
615.858	1	-1
616.028	1	-7
616.198	1	16
616.368	1	-6
616.537	1	2
616.707	1	3
616.877	1	-2
617.046	1	5
617.216	1	-7
617.386	1	-3
617.555	1	-1
617.725	1	6
617.895	1	-10
618.064	1	7
618.234	1	0
618.404	1	4
618.573	1	-1
618.743	1	7
618.913	1	-8
619.082	1	9
619.252	1	3
619.422	1	2
619.591	1	7
619.761	1	7
619.931	1	4
620.100	1	0
620.270	1	-6
620.440	1	-6
620.609	1	5
620.779	1	4
620.949	1	-2
621.118	1	-5
621.288	1	8
621.458	1	9
621.627	1	-9
621.797	1	-3
621.967	1	-11
622.136	1	4
622.306	1	8
622.476	1	7
622.645	1	2
622.815	1	5
622.985	1	6
623.154	1	5
623.324	1	18
623.494	1	0
623.663	1	1
623.833	1	-13
624.002	1	-6
624.172	1	10
624.342	1	-2
624.511	1	-2
624.681	1	-7
624.851	1	-4
625.020	1	-4
625.190	1	-1
625.360	1	-6
625.529	1	2
625.699	1	-7
625.869	1	-2
626.038	1	6
626.208	1	1
626.377	1	13
626.547	1	-2
626.717	1	-2
626.886	1	-6
627.056	1	4
627.226	1	12
627.395	1	14
627.565	1	13
627.735	1	6
627.904	1	-4
628.074	1	0
628.243	1	-12
628.413	1	3
628.583	1	2
628.752	1	5
628.922	1	10
629.091	1	9
629.261	1	9
629.431	1	-13
629.600	1	6
629.770	1	4
629.940	1	-3
630.109	1	-5
630.279	1	-10
630.448	1	-8
630.618	1	-4
630.788	1	3
630.957	1	-8
631.127	1	6
631.297	1	1
631.466	1	4
631.636	1	2
631.805	1	6
631.975	1	7
632.145	1	-11
632.314	1	15
632.484	1	-4
632.653	1	-7
632.823	1	8
632.993	1	4
633.162	1	-6
633.332	1	8
633.501	1	9
633.671	1	-4
633.841	1	-1
634.010	1	13
634.180	1	8
634.349	1	-3
634.519	1	0
634.689	1	8
634.858	1	15
635.028	1	4
635.197	1	-5
635.367	1	6
635.537	1	0
635.706	1	-12
635.876	1	-9
636.045	1	1
636.215	1	1
636.384	1	2
636.554	1	7
636.724	1	11
636.893	1	-5
637.063	1	-1
637.232	1	0
637.402	1	1
637.572	1	0
637.741	1	8
637.911	1	3
638.080	1	-2
638.250	1	6
638.419	1	9
638.589	1	7
638.759	1	7
638.928	1	-6
639.098	1	-6
639.267	1	-2
639.437	1	-14
639.606	1	18
639.776	1	-3
639.946	1	-2
640.115	1	2
640.285	1	10
640.454	1	10
640.624	1	6
640.793	1	7
640.963	1	-7
641.132	1	10
641.302	1	5
641.472	1	-12
641.641	1	-5
641.811	1	-3
641.980	1	0
642.150	1	2
642.319	1	-2
642.489	1	4
642.659	1	-10
642.828	1	9
642.998	1	-8
643.167	1	10
643.337	1	12
643.506	1	1
643.676	1	3
643.845	1	-1
644.015	1	4
644.184	1	7
644.354	1	-4
644.524	1	-1
644.693	1	-1
644.863	1	-8
645.032	1	-1
645.202	1	-8
645.371	1	-4
645.541	1	-6
645.710	1	5
645.880	1	3
646.049	1	7
646.219	1	4
646.388	1	1
646.558	1	-11
646.728	1	4
646.897	1	1
647.067	1	7
647.236	1	6
647.406	1	-5
647.575	1	3
647.745	1	4
647.914	1	-4
648.084	1	-1
648.253	1	4
648.423	1	-11
648.592	1	-1
648.762	1	10
648.931	1	6
649.101	1	-2
649.270	1	13
649.440	1	9
649.610	1	3
649.779	1	-7
649.949	1	4
650.118	1	-4
650.288	1	6
650.457	1	0
650.627	1	2
650.796	1	3
650.966	1	-2
651.135	1	0
651.305	1	-2
651.474	1	9
651.644	1	-7
651.813	1	10
651.983	1	1
652.152	1	-6
652.322	1	5
652.491	1	2
652.661	1	5
652.830	1	-3
653.000	1	-5
653.169	1	0
653.339	1	2
653.508	1	-2
653.678	1	3
653.847	1	-4
654.017	1	8
654.186	1	-3
654.356	1	10
654.525	1	0
654.695	1	0
654.864	1	10
655.034	1	-4
655.203	1	9
655.373	1	-3
655.542	1	2
655.712	1	-5
655.881	1	9
656.051	1	2
656.220	1	7
656.390	1	-1
656.559	1	-4
656.729	1	6
656.898	1	6
657.068	1	8
657.237	1	3
657.406	1	4
657.576	1	-9
657.745	1	-5
657.915	1	7
658.084	1	13
658.254	1	5
658.423	1	-6
658.593	1	-10
658.762	1	1
658.932	1	-6
659.101	1	0
659.271	1	-5
659.440	1	2
659.610	1	2
659.779	1	3
659.949	1	5
660.118	1	13
660.288	1	0
660.457	1	-1
660.626	1	-4
660.796	1	-4
660.965	1	4
661.135	1	7
661.304	1	0
661.474	1	6
661.643	1	0
661.813	1	6
661.982	1	1
662.152	1	4
662.321	1	0
662.491	1	1
662.660	1	7
662.829	1	-4
662.999	1	0
663.168	1	1
663.338	1	1
663.507	1	1
663.677	1	-1
663.846	1	0
664.016	1	0
664.185	1	-3
664.354	1	9
664.524	1	-8
664.693	1	4
664.863	1	5
665.032	1	1
665.202	1	-4
665.371	1	4
665.541	1	3
665.710	1	2
665.879	1	-9
666.049	1	3
666.218	1	-10
666.388	1	-5
666.557	1	7
666.727	1	-25
666.896	1	-5
667.065	1	2
667.235	1	-3
667.404	1	-1
667.574	1	-4
667.743	1	0
667.913	1	3
668.082	1	4
668.251	1	9
668.421	1	2
668.590	1	0
668.760	1	-2
668.929	1	8
669.099	1	-3
669.268	1	5
669.437	1	-2
669.607	1	-14
669.776	1	5
669.946	1	6
670.115	1	5
670.285	1	0
670.454	1	-12
670.623	1	3
670.793	1	-1
670.962	1	0
671.132	1	4
671.301	1	5
671.470	1	-3
671.640	1	-13
671.809	1	-4
671.979	1	7
672.148	1	5
672.317	1	-2
672.487	1	-3
672.656	1	1
672.826	1	-15
672.995	1	1
673.164	1	7
673.334	1	7
673.503	1	-3
673.673	1	21
673.842	1	-4
674.011	1	-3
674.181	1	-3
674.350	1	5
674.520	1	-5
674.689	1	5
674.858	1	3
675.028	1	5
675.197	1	-3
675.367	1	7
675.536	1	10
675.705	1	-9
675.875	1	3
676.044	1	0
676.214	1	2
676.383	1	-10
676.552	1	-7
676.722	1	5
676.891	1	-13
677.060	1	3
677.230	1	9
677.399	1	2
677.569	1	-6
677.738	1	1
677.907	1	4
678.077	1	7
678.246	1	-5
678.416	1	2
678.585	1	-3
678.754	1	2
678.924	1	-3
679.093	1	3
679.262	1	7
679.432	1	-2
679.601	1	-7
679.771	1	-7
679.940	1	4
680.109	1	6
680.279	1	-10
680.448	1	-1
680.617	1	-3
680.787	1	-1
680.956	1	2
681.125	1	11
681.295	1	3
681.464	1	2
681.634	1	1
681.803	1	-6
681.972	1	-5
682.142	1	5
682.311	1	7
682.480	1	5
682.650	1	2
682.819	1	-1
682.988	1	-1
683.158	1	6
683.327	1	5
683.496	1	-12
683.666	1	0
683.835	1	-2
684.004	1	4
684.174	1	-1
684.343	1	2
684.512	1	4
684.682	1	3
684.851	1	0
685.021	1	7
685.190	1	7
685.359	1	-6
685.529	1	8
685.698	1	3
685.867	1	0
686.037	1	0
686.206	1	8
686.375	1	9
686.545	1	-3
686.714	1	6
686.883	1	-4
687.053	1	-6
687.222	1	0
687.391	1	-5
687.561	1	2
687.730	1	-3
687.899	1	-1
688.069	1	-8
688.238	1	-1
688.407	1	11
688.577	1	-2
688.746	1	-5
