340.368	1	-3
340.539	1	6
340.710	1	-7
340.881	1	-2
341.052	1	-2
341.223	1	4
341.394	1	2
341.565	1	-6
341.737	1	10
341.908	1	-5
342.079	1	-3
342.250	1	0
342.421	1	-10
342.592	1	-1
342.763	1	-3
342.934	1	-3
343.105	1	11
343.276	1	-8
343.447	1	2
343.618	1	-2
343.789	1	-5
343.960	1	-2
344.131	1	2
344.302	1	7
344.473	1	5
344.644	1	-1
344.815	1	1
344.986	1	-1
345.157	1	6
345.328	1	-6
345.499	1	-1
345.670	1	6
345.841	1	7
346.012	1	11
346.183	1	10
346.354	1	-9
346.526	1	4
346.697	1	-5
346.868	1	-2
347.039	1	8
347.210	1	-6
347.381	1	2
347.552	1	11
347.723	1	5
347.894	1	2
348.065	1	-1
348.236	1	4
348.407	1	-2
348.578	1	5
348.749	1	-2
348.920	1	19
349.091	1	9
349.262	1	-3
349.433	1	-13
349.604	1	9
349.775	1	9
349.946	1	6
350.117	1	6
350.288	1	4
350.459	1	2
350.630	1	-6
350.801	1	3
350.972	1	4
351.143	1	-5
351.314	1	0
351.485	1	-6
351.656	1	5
351.827	1	-3
351.998	1	0
352.169	1	6
352.340	1	0
352.511	1	0
352.682	1	-3
352.853	1	-5
353.024	1	-1
353.195	1	2
353.366	1	8
353.537	1	1
353.708	1	1
353.879	1	8
354.050	1	7
354.221	1	-9
354.392	1	7
354.563	1	10
354.734	1	-5
354.905	1	12
355.076	1	12
355.247	1	-15
355.418	1	-1
355.589	1	-3
355.760	1	3
355.931	1	-9
356.102	1	-6
356.273	1	3
356.444	1	8
356.615	1	-2
356.785	1	13
356.956	1	-5
357.127	1	1
357.298	1	11
357.469	1	-4
357.640	1	3
357.811	1	13
357.982	1	-8
358.153	1	1
358.324	1	-6
358.495	1	6
358.666	1	-4
358.837	1	-3
359.008	1	-10
359.179	1	1
359.350	1	-2
359.521	1	2
359.692	1	0
359.863	1	-18
360.034	1	-1
360.205	1	-1
360.376	1	10
360.547	1	0
360.718	1	-5
360.889	1	7
361.060	1	3
361.231	1	-1
361.401	1	5
361.572	1	-3
361.743	1	5
361.914	1	1
362.085	1	-9
362.256	1	4
362.427	1	-4
362.598	1	3
362.769	1	8
362.940	1	1
363.111	1	15
363.282	1	8
363.453	1	6
363.624	1	-4
363.795	1	6
363.966	1	3
364.137	1	-8
364.308	1	3
364.478	1	19
364.649	1	-4
364.820	1	0
364.991	1	14
365.162	1	5
365.333	1	5
365.504	1	-6
365.675	1	-4
365.846	1	-6
366.017	1	-1
366.188	1	2
366.359	1	-5
366.530	1	5
366.701	1	-5
366.871	1	9
367.042	1	8
367.213	1	1
367.384	1	13
367.555	1	9
367.726	1	3
367.897	1	6
368.068	1	-4
368.239	1	6
368.410	1	-4
368.581	1	-1
368.752	1	-6
368.923	1	-7
369.093	1	2
369.264	1	8
369.435	1	-3
369.606	1	2
369.777	1	4
369.948	1	5
370.119	1	7
370.290	1	-11
370.461	1	6
370.632	1	1
370.803	1	-1
370.973	1	11
371.144	1	-1
371.315	1	13
371.486	1	10
371.657	1	8
371.828	1	5
371.999	1	-5
372.170	1	5
372.341	1	2
372.512	1	-5
372.682	1	0
372.853	1	3
373.024	1	6
373.195	1	2
373.366	1	3
373.537	1	-6
373.708	1	12
373.879	1	2
374.050	1	14
374.220	1	8
374.391	1	-4
374.562	1	4
374.733	1	11
374.904	1	-1
375.075	1	12
375.246	1	1
375.417	1	-5
375.588	1	-1
375.758	1	1
375.929	1	5
376.100	1	1
376.271	1	2
376.442	1	5
376.613	1	4
376.784	1	2
376.955	1	0
377.125	1	2
377.296	1	2
377.467	1	-4
377.638	1	9
377.809	1	6
377.980	1	7
378.151	1	5
378.321	1	1
378.492	1	-2
378.663	1	1
378.834	1	6
379.005	1	5
379.176	1	-1
379.347	1	7
379.518	1	-9
379.688	1	-1
379.859	1	6
380.030	1	-4
380.201	1	-12
380.372	1	5
380.543	1	3
380.714	1	-2
380.884	1	-3
381.055	1	10
381.226	1	18
381.397	1	0
381.568	1	-4
381.739	1	4
381.910	1	3
382.080	1	-7
382.251	1	6
382.422	1	8
382.593	1	-3
382.764	1	2
382.935	1	3
383.105	1	-4
383.276	1	2
383.447	1	8
383.618	1	3
383.789	1	1
383.960	1	1
384.130	1	-3
384.301	1	8
384.472	1	0
384.643	1	6
384.814	1	14
384.985	1	-2
385.156	1	14
385.326	1	-3
385.497	1	10
385.668	1	-2
385.839	1	2
386.010	1	5
386.180	1	-1
386.351	1	-3
386.522	1	7
386.693	1	-3
386.864	1	3
387.035	1	-2
387.205	1	-10
387.376	1	9
387.547	1	0
387.718	1	9
387.889	1	13
388.060	1	-2
388.230	1	3
388.401	1	16
388.572	1	9
388.743	1	9
388.914	1	18
389.084	1	3
389.255	1	-2
389.426	1	2
389.597	1	-13
389.768	1	5
389.939	1	10
390.109	1	2
390.280	1	6
390.451	1	8
390.622	1	11
390.793	1	15
390.963	1	9
391.134	1	1
391.305	1	8
391.476	1	4
391.647	1	-2
391.817	1	3
391.988	1	-4
392.159	1	10
392.330	1	5
392.501	1	6
392.671	1	8
392.842	1	9
393.013	1	16
393.184	1	14
393.355	1	7
393.525	1	-1
393.696	1	3
393.867	1	0
394.038	1	-1
394.208	1	12
394.379	1	-2
394.550	1	9
394.721	1	5
394.892	1	-8
395.062	1	-3
395.233	1	3
395.404	1	11
395.575	1	9
395.746	1	3
395.916	1	-4
396.087	1	-3
396.258	1	-7
396.429	1	1
396.599	1	-1
396.770	1	5
396.941	1	8
397.112	1	3
397.283	1	7
397.453	1	-3
397.624	1	8
397.795	1	6
397.966	1	5
398.136	1	-1
398.307	1	1
398.478	1	6
398.649	1	6
398.819	1	5
398.990	1	11
399.161	1	10
399.332	1	5
399.503	1	-1
399.673	1	9
399.844	1	-11
400.015	1	7
400.186	1	12
400.356	1	0
400.527	1	2
400.698	1	6
400.869	1	9
401.039	1	5
401.210	1	-14
401.381	1	6
401.552	1	14
401.722	1	8
401.893	1	5
402.064	1	5
402.235	1	17
402.405	1	1
402.576	1	22
402.747	1	-5
402.918	1	-8
403.088	1	-5
403.259	1	-8
403.430	1	-7
403.601	1	-5
403.771	1	6
403.942	1	18
404.113	1	12
404.284	1	-1
404.454	1	17
404.625	1	5
404.796	1	-7
404.967	1	9
405.137	1	0
405.308	1	6
405.479	1	7
405.649	1	0
405.820	1	-8
405.991	1	4
406.162	1	4
406.332	1	-1
406.503	1	-9
406.674	1	2
406.845	1	1
407.015	1	3
407.186	1	6
407.357	1	0
407.527	1	1
407.698	1	-7
407.869	1	-4
408.040	1	-6
408.210	1	4
408.381	1	9
408.552	1	-3
408.722	1	-3
408.893	1	-5
409.064	1	-8
409.235	1	-7
409.405	1	8
409.576	1	3
409.747	1	-2
409.917	1	4
410.088	1	7
410.259	1	8
410.430	1	7
410.600	1	8
410.771	1	-3
410.942	1	4
411.112	1	2
411.283	1	-5
411.454	1	12
411.625	1	-1
411.795	1	8
411.966	1	1
412.137	1	1
412.307	1	2
412.478	1	-4
412.649	1	-5
412.819	1	-2
412.990	1	12
413.161	1	-5
413.332	1	-1
413.502	1	9
413.673	1	1
413.844	1	4
414.014	1	-1
414.185	1	6
414.356	1	-6
414.526	1	3
414.697	1	11
414.868	1	12
415.038	1	2
415.209	1	-2
415.380	1	7
415.550	1	1
415.721	1	2
415.892	1	-7
416.063	1	13
416.233	1	6
416.404	1	-11
416.575	1	-2
416.745	1	-1
416.916	1	4
417.087	1	-2
417.257	1	6
417.428	1	-13
417.599	1	2
417.769	1	10
417.940	1	-3
418.111	1	-2
418.281	1	-5
418.452	1	-3
418.623	1	-12
418.793	1	5
418.964	1	0
419.135	1	12
419.305	1	3
419.476	1	-6
419.647	1	7
419.817	1	13
419.988	1	0
420.159	1	-8
420.329	1	-1
420.500	1	12
420.671	1	13
420.841	1	4
421.012	1	9
421.183	1	2
421.353	1	1
421.524	1	5
421.695	1	-2
421.865	1	-1
422.036	1	-3
422.206	1	5
422.377	1	4
422.548	1	-4
422.718	1	1
422.889	1	6
423.060	1	-4
423.230	1	9
423.401	1	-2
423.572	1	0
423.742	1	-2
423.913	1	2
424.084	1	1
424.254	1	-8
424.425	1	1
424.595	1	-6
424.766	1	8
424.937	1	-4
425.107	1	-2
425.278	1	0
425.449	1	8
425.619	1	0
425.790	1	-3
425.961	1	-1
426.131	1	7
426.302	1	-4
426.472	1	-9
426.643	1	10
426.814	1	3
426.984	1	1
427.155	1	4
427.326	1	8
427.496	1	11
427.667	1	2
427.837	1	-9
428.008	1	0
428.179	1	-4
428.349	1	-1
428.520	1	-7
428.691	1	-5
428.861	1	0
429.032	1	-2
429.202	1	-2
429.373	1	-4
429.544	1	3
429.714	1	5
429.885	1	1
430.055	1	3
430.226	1	-4
430.397	1	6
430.567	1	-1
430.738	1	-15
430.909	1	-3
431.079	1	2
431.250	1	-3
431.420	1	3
431.591	1	8
431.762	1	-1
431.932	1	8
432.103	1	-2
432.273	1	-8
432.444	1	4
432.615	1	4
432.785	1	-8
432.956	1	-2
433.126	1	1
433.297	1	6
433.468	1	12
433.638	1	1
433.809	1	11
433.979	1	1
434.150	1	-7
434.320	1	-7
434.491	1	10
434.662	1	5
434.832	1	-5
435.003	1	9
435.173	1	3
435.344	1	5
435.515	1	-4
435.685	1	2
435.856	1	-9
436.026	1	1
436.197	1	-7
436.368	1	4
436.538	1	4
436.709	1	-11
436.879	1	-3
437.050	1	2
437.220	1	4
437.391	1	3
437.562	1	9
437.732	1	0
437.903	1	2
438.073	1	16
438.244	1	-2
438.414	1	3
438.585	1	6
438.756	1	12
438.926	1	5
439.097	1	3
439.267	1	12
439.438	1	10
439.608	1	2
439.779	1	-9
439.949	1	-1
440.120	1	14
440.291	1	-14
440.461	1	-8
440.632	1	6
440.802	1	-3
440.973	1	3
441.143	1	12
441.314	1	10
441.485	1	-7
441.655	1	17
441.826	1	-3
441.996	1	2
442.167	1	-2
442.337	1	-7
442.508	1	4
442.678	1	-10
442.849	1	0
443.019	1	4
443.190	1	-12
443.361	1	0
443.531	1	1
443.702	1	-3
443.872	1	6
444.043	1	3
444.213	1	-7
444.384	1	-5
444.554	1	-3
444.725	1	3
444.895	1	-7
445.066	1	-12
445.237	1	-4
445.407	1	2
445.578	1	6
445.748	1	-8
445.919	1	-2
446.089	1	9
446.260	1	2
446.430	1	-9
446.601	1	-8
446.771	1	1
446.942	1	2
447.112	1	3
447.283	1	-1
447.453	1	-11
447.624	1	5
447.794	1	-8
447.965	1	-6
448.135	1	-2
448.306	1	0
448.477	1	-2
448.647	1	11
448.818	1	9
448.988	1	-7
449.159	1	-3
449.329	1	5
449.500	1	8
449.670	1	1
449.841	1	5
450.011	1	-6
450.182	1	1
450.352	1	9
450.523	1	-12
450.693	1	7
450.864	1	5
451.034	1	3
451.205	1	3
451.375	1	13
451.546	1	5
451.716	1	2
451.887	1	7
452.057	1	18
452.228	1	-16
452.398	1	6
452.569	1	-2
452.739	1	1
452.910	1	-3
453.080	1	15
453.251	1	-7
453.421	1	0
453.592	1	0
453.762	1	9
453.933	1	-4
454.103	1	2
454.274	1	4
454.444	1	7
454.615	1	17
454.785	1	6
454.956	1	3
455.126	1	1
455.297	1	5
455.467	1	2
455.638	1	-1
455.808	1	7
455.979	1	5
456.149	1	-6
456.320	1	4
456.490	1	-9
456.661	1	1
456.831	1	9
457.001	1	-1
457.172	1	-9
457.342	1	7
457.513	1	14
457.683	1	4
457.854	1	-4
458.024	1	3
458.195	1	-1
458.365	1	-3
458.536	1	-1
458.706	1	5
458.877	1	-5
459.047	1	-9
459.218	1	7
459.388	1	4
459.559	1	-2
459.729	1	8
459.899	1	6
460.070	1	4
460.240	1	0
460.411	1	7
460.581	1	9
460.752	1	2
460.922	1	2
461.093	1	4
461.263	1	8
461.434	1	11
461.604	1	-5
461.775	1	6
461.945	1	3
462.115	1	-7
462.286	1	9
462.456	1	-3
462.627	1	-2
462.797	1	5
462.968	1	0
463.138	1	5
463.309	1	8
463.479	1	8
463.649	1	-1
463.820	1	-5
463.990	1	-1
464.161	1	7
464.331	1	0
464.502	1	7
464.672	1	0
464.843	1	-3
465.013	1	-9
465.183	1	3
465.354	1	-1
465.524	1	12
465.695	1	11
465.865	1	-6
466.036	1	2
466.206	1	-5
466.376	1	-2
466.547	1	-2
466.717	1	-7
466.888	1	1
467.058	1	13
467.229	1	4
467.399	1	8
467.569	1	8
467.740	1	-4
467.910	1	-1
468.081	1	-2
468.251	1	-2
468.422	1	11
468.592	1	7
468.762	1	-12
468.933	1	10
469.103	1	-6
469.274	1	-2
469.444	1	-2
469.614	1	-4
469.785	1	8
469.955	1	-7
470.126	1	1
470.296	1	3
470.467	1	-6
470.637	1	12
470.807	1	3
470.978	1	1
471.148	1	-7
471.319	1	6
471.489	1	8
471.659	1	4
471.830	1	3
472.000	1	7
472.171	1	2
472.341	1	6
472.511	1	9
472.682	1	-1
472.852	1	4
473.023	1	1
473.193	1	-5
473.363	1	0
473.534	1	2
473.704	1	5
473.875	1	0
474.045	1	-8
474.215	1	-11
474.386	1	2
474.556	1	-6
474.727	1	-1
474.897	1	3
475.067	1	4
475.238	1	-2
475.408	1	6
475.578	1	0
475.749	1	-9
475.919	1	9
476.090	1	-8
476.260	1	-9
476.430	1	1
476.601	1	5
476.771	1	7
476.942	1	4
477.112	1	9
477.282	1	-8
477.453	1	-6
477.623	1	3
477.793	1	13
477.964	1	7
478.134	1	-2
478.305	1	2
478.475	1	5
478.645	1	0
478.816	1	-5
478.986	1	4
479.156	1	3
479.327	1	-10
479.497	1	3
479.667	1	0
479.838	1	4
480.008	1	5
480.179	1	-2
480.349	1	11
480.519	1	-4
480.690	1	4
480.860	1	-3
481.030	1	-6
481.201	1	-7
481.371	1	4
481.541	1	5
481.712	1	16
481.882	1	-5
482.053	1	11
482.223	1	-9
482.393	1	-13
482.564	1	-9
482.734	1	15
482.904	1	9
483.075	1	3
483.245	1	-4
483.415	1	14
483.586	1	-9
483.756	1	9
483.926	1	-1
484.097	1	-10
484.267	1	-1
484.437	1	-8
484.608	1	-1
484.778	1	3
484.948	1	-3
485.119	1	8
485.289	1	8
485.459	1	6
485.630	1	-6
485.800	1	-2
485.970	1	8
486.141	1	-3
486.311	1	3
486.481	1	7
486.652	1	9
486.822	1	-2
486.992	1	3
487.163	1	-9
487.333	1	-5
487.503	1	-8
487.674	1	-7
487.844	1	2
488.014	1	6
488.185	1	-10
488.355	1	-10
488.525	1	-1
488.696	1	-3
488.866	1	9
489.036	1	-1
489.207	1	9
489.377	1	3
489.547	1	-1
489.718	1	-3
489.888	1	6
490.058	1	3
490.228	1	-1
490.399	1	1
490.569	1	11
490.739	1	14
490.910	1	-4
491.080	1	6
491.250	1	-9
491.421	1	-3
491.591	1	-12
491.761	1	8
491.932	1	2
492.102	1	-6
492.272	1	1
492.442	1	5
492.613	1	-2
492.783	1	0
492.953	1	-5
493.124	1	-12
493.294	1	3
493.464	1	4
493.635	1	-2
493.805	1	18
493.975	1	-8
494.145	1	10
494.316	1	-1
494.486	1	-4
494.656	1	5
494.827	1	-8
494.997	1	0
495.167	1	0
495.337	1	6
495.508	1	-5
495.678	1	11
495.848	1	19
496.019	1	-7
496.189	1	-1
496.359	1	0
496.529	1	-3
496.700	1	-6
496.870	1	1
497.040	1	-1
497.211	1	20
497.381	1	-6
497.551	1	11
497.721	1	-5
497.892	1	4
498.062	1	-7
498.232	1	5
498.403	1	0
498.573	1	2
498.743	1	5
498.913	1	4
499.084	1	-2
499.254	1	4
499.424	1	11
499.594	1	0
499.765	1	5
499.935	1	-6
500.105	1	1
500.275	1	2
500.446	1	9
500.616	1	7
500.786	1	3
500.956	1	3
501.127	1	13
501.297	1	1
501.467	1	6
501.638	1	8
501.808	1	-10
501.978	1	6
502.148	1	0
502.319	1	-1
502.489	1	10
502.659	1	-3
502.829	1	-7
503.000	1	10
503.170	1	1
503.340	1	1
503.510	1	1
503.681	1	2
503.851	1	-14
504.021	1	17
504.191	1	14
504.362	1	13
504.532	1	-6
504.702	1	0
504.872	1	0
505.042	1	10
505.213	1	1
505.383	1	3
505.553	1	4
505.723	1	4
505.894	1	12
506.064	1	5
506.234	1	4
506.404	1	-13
506.575	1	4
506.745	1	-5
506.915	1	-1
507.085	1	0
507.256	1	0
507.426	1	6
507.596	1	2
507.766	1	7
507.936	1	-3
508.107	1	-5
508.277	1	-7
508.447	1	6
508.617	1	9
508.788	1	2
508.958	1	6
509.128	1	8
509.298	1	18
509.468	1	3
509.639	1	11
509.809	1	8
509.979	1	-11
510.149	1	-3
510.319	1	-3
510.490	1	11
510.660	1	9
510.830	1	-10
511.000	1	11
511.171	1	12
511.341	1	-1
511.511	1	-3
511.681	1	6
511.851	1	-2
512.022	1	-6
512.192	1	7
512.362	1	4
512.532	1	-4
512.702	1	-8
512.873	1	13
513.043	1	2
513.213	1	0
513.383	1	-7
513.553	1	-5
513.724	1	5
513.894	1	-4
514.064	1	3
514.234	1	2
514.404	1	-1
514.575	1	8
514.745	1	-1
514.915	1	2
515.085	1	6
515.255	1	-3
515.425	1	-9
515.596	1	-4
515.766	1	5
515.936	1	13
516.106	1	2
516.276	1	3
516.447	1	3
516.617	1	3
516.787	1	-10
516.957	1	6
517.127	1	1
517.297	1	1
517.468	1	1
517.638	1	0
517.808	1	-3
517.978	1	-1
518.148	1	0
518.319	1	-2
518.489	1	5
518.659	1	0
518.829	1	-10
518.999	1	8
519.169	1	12
519.340	1	-3
519.510	1	0
519.680	1	-7
519.850	1	-14
520.020	1	4
520.190	1	-2
520.361	1	-11
520.531	1	12
520.701	1	12
520.871	1	-6
521.041	1	1
521.211	1	5
521.382	1	-2
521.552	1	0
521.722	1	3
521.892	1	-12
522.062	1	-1
522.232	1	-3
522.402	1	-5
522.573	1	5
522.743	1	6
522.913	1	3
523.083	1	0
523.253	1	0
523.423	1	-4
523.593	1	-14
523.764	1	6
523.934	1	4
524.104	1	-9
524.274	1	-2
524.444	1	10
524.614	1	0
524.784	1	6
524.955	1	9
525.125	1	4
525.295	1	-5
525.465	1	0
525.635	1	15
525.805	1	0
525.975	1	5
526.146	1	-6
526.316	1	4
526.486	1	7
526.656	1	13
526.826	1	3
526.996	1	11
527.166	1	-7
527.337	1	-3
527.507	1	-6
527.677	1	5
527.847	1	-8
528.017	1	-1
528.187	1	4
528.357	1	12
528.527	1	10
528.698	1	-2
528.868	1	3
529.038	1	5
529.208	1	-4
529.378	1	0
529.548	1	11
529.718	1	3
529.888	1	4
530.058	1	2
530.229	1	11
530.399	1	4
530.569	1	10
530.739	1	-8
530.909	1	-2
531.079	1	3
531.249	1	-5
531.419	1	4
531.589	1	-3
531.760	1	13
531.930	1	0
532.100	1	6
532.270	1	10
532.440	1	2
532.610	1	4
532.780	1	0
532.950	1	6
533.120	1	-4
533.290	1	-1
533.461	1	5
533.631	1	3
533.801	1	6
533.971	1	-8
534.141	1	10
534.311	1	1
534.481	1	5
534.651	1	12
534.821	1	-2
534.991	1	7
535.162	1	8
535.332	1	4
535.502	1	6
535.672	1	-6
535.842	1	1
536.012	1	2
536.182	1	-3
536.352	1	0
536.522	1	-2
536.692	1	-11
536.862	1	7
537.032	1	8
537.203	1	2
537.373	1	3
537.543	1	6
537.713	1	8
537.883	1	6
538.053	1	5
538.223	1	9
538.393	1	8
538.563	1	3
538.733	1	-8
538.903	1	-5
539.073	1	2
539.243	1	2
539.413	1	-13
539.584	1	7
539.754	1	-5
539.924	1	14
540.094	1	3
540.264	1	2
540.434	1	0
540.604	1	9
540.774	1	1
540.944	1	-5
541.114	1	-6
541.284	1	2
541.454	1	0
541.624	1	0
541.794	1	-1
541.964	1	-4
542.134	1	10
542.305	1	8
542.475	1	9
542.645	1	0
542.815	1	19
542.985	1	-3
543.155	1	5
543.325	1	2
543.495	1	3
543.665	1	8
543.835	1	7
544.005	1	4
544.175	1	-10
544.345	1	-10
544.515	1	6
544.685	1	0
544.855	1	3
545.025	1	-9
545.195	1	8
545.365	1	2
545.535	1	-1
545.705	1	1
545.875	1	-1
546.045	1	1
546.216	1	11
546.386	1	3
546.556	1	1
546.726	1	-7
546.896	1	0
547.066	1	-5
547.236	1	1
547.406	1	-4
547.576	1	2
547.746	1	10
547.916	1	9
548.086	1	8
548.256	1	4
548.426	1	-10
548.596	1	2
548.766	1	2
548.936	1	-1
549.106	1	11
549.276	1	5
549.446	1	1
549.616	1	14
549.786	1	1
549.956	1	12
550.126	1	-3
550.296	1	2
550.466	1	2
550.636	1	3
550.806	1	8
550.976	1	4
551.146	1	-1
551.316	1	-1
551.486	1	-2
551.656	1	-3
551.826	1	3
551.996	1	12
552.166	1	4
552.336	1	0
552.506	1	1
552.676	1	1
552.846	1	9
553.016	1	3
553.186	1	0
553.356	1	-3
553.526	1	1
553.696	1	9
553.866	1	3
554.036	1	10
554.206	1	-1
554.376	1	-5
554.546	1	-9
554.716	1	2
554.886	1	-1
555.056	1	-1
555.226	1	-1
555.396	1	0
555.566	1	4
555.736	1	7
555.906	1	7
556.076	1	6
556.246	1	4
556.416	1	-3
556.586	1	8
556.756	1	0
556.926	1	-2
557.096	1	0
557.266	1	14
557.436	1	12
557.606	1	-11
557.776	1	1
557.946	1	4
558.116	1	1
558.286	1	3
558.456	1	-2
558.626	1	4
558.796	1	-7
558.966	1	0
559.136	1	3
559.306	1	-7
559.476	1	-5
559.646	1	-2
559.816	1	4
559.986	1	3
560.155	1	8
560.325	1	1
560.495	1	7
560.665	1	0
560.835	1	0
561.005	1	4
561.175	1	5
561.345	1	2
561.515	1	-2
561.685	1	-3
561.855	1	8
562.025	1	3
562.195	1	3
562.365	1	-4
562.535	1	3
562.705	1	7
562.875	1	-1
563.045	1	-2
563.215	1	-5
563.385	1	0
563.555	1	15
563.725	1	-8
563.895	1	0
564.064	1	18
564.234	1	-5
564.404	1	2
564.574	1	-3
564.744	1	4
564.914	1	-13
565.084	1	-15
565.254	1	2
565.424	1	-3
565.594	1	-2
565.764	1	9
565.934	1	1
566.104	1	-9
566.274	1	10
566.444	1	2
566.614	1	2
566.783	1	0
566.953	1	2
567.123	1	20
567.293	1	-7
567.463	1	3
567.633	1	-2
567.803	1	1
567.973	1	0
568.143	1	-5
568.313	1	1
568.483	1	-4
568.653	1	0
568.823	1	7
568.993	1	-1
569.162	1	-3
569.332	1	-9
569.502	1	-3
569.672	1	2
569.842	1	-8
570.012	1	2
570.182	1	4
570.352	1	7
570.522	1	5
570.692	1	-1
570.862	1	2
571.031	1	0
571.201	1	4
571.371	1	-4
571.541	1	3
571.711	1	3
571.881	1	8
572.051	1	2
572.221	1	-4
572.391	1	2
572.561	1	-2
572.731	1	-1
572.900	1	9
573.070	1	-1
573.240	1	-1
573.410	1	5
573.580	1	11
573.750	1	14
573.920	1	2
574.090	1	0
574.260	1	-2
574.430	1	-2
574.599	1	-7
574.769	1	-4
574.939	1	4
575.109	1	2
575.279	1	5
575.449	1	7
575.619	1	8
575.789	1	13
575.959	1	-6
576.128	1	-1
576.298	1	-5
576.468	1	-7
576.638	1	-1
576.808	1	3
576.978	1	-7
577.148	1	3
577.318	1	5
577.487	1	1
577.657	1	-16
577.827	1	8
577.997	1	-7
578.167	1	4
578.337	1	0
578.507	1	-7
578.677	1	-7
578.846	1	6
579.016	1	6
579.186	1	-5
579.356	1	-3
579.526	1	-4
579.696	1	5
579.866	1	13
580.036	1	-4
580.205	1	4
580.375	1	1
580.545	1	4
580.715	1	1
580.885	1	6
581.055	1	1
581.225	1	2
581.394	1	-7
581.564	1	6
581.734	1	8
581.904	1	8
582.074	1	-6
582.244	1	8
582.414	1	4
582.583	1	-14
582.753	1	4
582.923	1	6
583.093	1	-10
583.263	1	5
583.433	1	-5
583.603	1	5
583.772	1	-2
583.942	1	7
584.112	1	6
584.282	1	8
584.452	1	4
584.622	1	-3
584.791	1	1
584.961	1	-1
585.131	1	-2
585.301	1	12
585.471	1	-6
585.641	1	4
585.811	1	-1
585.980	1	-9
586.150	1	-9
586.320	1	-6
586.490	1	-17
586.660	1	11
586.830	1	-4
586.999	1	5
587.169	1	-9
587.339	1	10
587.509	1	11
587.679	1	4
587.849	1	8
588.018	1	3
588.188	1	7
588.358	1	7
588.528	1	12
588.698	1	-2
588.867	1	8
589.037	1	-1
589.207	1	-9
589.377	1	4
589.547	1	-10
589.717	1	6
589.886	1	-4
590.056	1	2
590.226	1	4
590.396	1	12
590.566	1	-5
590.735	1	11
590.905	1	8
591.075	1	-17
591.245	1	-5
591.415	1	-2
591.585	1	-3
591.754	1	2
591.924	1	-2
592.094	1	0
592.264	1	-1
592.434	1	3
592.603	1	-2
592.773	1	-9
592.943	1	1
593.113	1	-5
593.283	1	2
593.452	1	-17
593.622	1	-8
593.792	1	5
593.962	1	14
594.132	1	3
594.301	1	7
594.471	1	3
594.641	1	-6
594.811	1	-11
594.981	1	0
595.150	1	-5
595.320	1	6
595.490	1	-3
595.660	1	-13
595.829	1	0
595.999	1	5
596.169	1	3
596.339	1	7
596.509	1	7
596.678	1	6
596.848	1	12
597.018	1	12
597.188	1	3
597.358	1	-5
597.527	1	5
597.697	1	-2
597.867	1	5
598.037	1	6
598.206	1	-8
598.376	1	0
598.546	1	1
598.716	1	-4
598.885	1	0
599.055	1	3
599.225	1	10
599.395	1	10
599.565	1	7
599.734	1	4
599.904	1	-3
600.074	1	-2
600.244	1	-3
600.413	1	3
600.583	1	-10
600.753	1	7
600.923	1	6
601.092	1	-9
601.262	1	1
601.432	1	3
601.602	1	6
601.771	1	9
601.941	1	-2
602.111	1	-7
602.281	1	-7
602.451	1	-3
602.620	1	2
602.790	1	13
602.960	1	3
603.130	1	2
603.299	1	0
603.469	1	1
603.639	1	2
603.809	1	9
603.978	1	3
604.148	1	1
604.318	1	2
604.487	1	2
604.657	1	-3
604.827	1	-9
604.997	1	-2
605.166	1	-7
605.336	1	-8
605.506	1	0
605.676	1	-3
605.845	1	2
606.015	1	5
606.185	1	5
606.355	1	8
606.524	1	3
606.694	1	11
606.864	1	3
607.034	1	-10
607.203	1	14
607.373	1	4
607.543	1	-5
607.712	1	13
607.882	1	-2
608.052	1	8
608.222	1	0
608.391	1	10
608.561	1	1
608.731	1	-11
608.901	1	7
609.070	1	3
609.240	1	-4
609.410	1	4
609.579	1	6
609.749	1	-2
609.919	1	-8
610.089	1	-1
610.258	1	4
610.428	1	1
610.598	1	2
610.767	1	4
610.937	1	5
611.107	1	4
611.277	1	9
611.446	1	4
611.616	1	-9
611.786	1	1
611.955	1	4
612.125	1	-2
612.295	1	3
612.465	1	-6
612.634	1	-6
612.804	1	14
612.974	1	7
613.143	1	-2
613.313	1	-2
613.483	1	8
613.652	1	-2
613.822	1	2
613.992	1	6
614.162	1	5
614.331	1	4
614.501	1	2
614.671	1	6
614.840	1	14
615.010	1	-2
615.180	1	4
615.349	1	-2
615.519	1	5
615.689	1	-4
615.858	1	4
616.028	1	-6
616.198	1	10
616.368	1	3
616.537	1	-3
616.707	1	0
616.877	1	12
617.046	1	1
617.216	1	5
617.386	1	-1
617.555	1	-4
617.725	1	11
617.895	1	-7
618.064	1	9
618.234	1	2
618.404	1	13
618.573	1	4
618.743	1	-4
618.913	1	-6
619.082	1	1
619.252	1	3
619.422	1	-4
619.591	1	3
619.761	1	5
619.931	1	8
620.100	1	6
620.270	1	6
620.440	1	0
620.609	1	7
620.779	1	-3
620.949	1	-1
621.118	1	-8
621.288	1	4
621.458	1	-8
621.627	1	0
621.797	1	4
621.967	1	-2
622.136	1	10
622.306	1	0
622.476	1	5
622.645	1	6
622.815	1	0
622.985	1	4
623.154	1	-9
623.324	1	1
623.494	1	9
623.663	1	-4
623.833	1	-5
624.002	1	-1
624.172	1	14
624.342	1	-5
624.511	1	-1
624.681	1	-2
624.851	1	-11
625.020	1	2
625.190	1	-2
625.360	1	-7
625.529	1	4
625.699	1	-6
625.869	1	6
626.038	1	0
626.208	1	0
626.377	1	19
626.547	1	0
626.717	1	4
626.886	1	-4
627.056	1	3
627.226	1	-2
627.395	1	6
627.565	1	2
627.735	1	7
627.904	1	3
628.074	1	10
628.243	1	0
628.413	1	-1
628.583	1	4
628.752	1	7
628.922	1	-7
629.091	1	5
629.261	1	0
629.431	1	-17
629.600	1	7
629.770	1	3
629.940	1	8
630.109	1	-9
630.279	1	-5
630.448	1	-1
630.618	1	1
630.788	1	-8
630.957	1	0
631.127	1	7
631.297	1	-8
631.466	1	8
631.636	1	0
631.805	1	4
631.975	1	3
632.145	1	-9
632.314	1	18
632.484	1	-8
632.653	1	-8
632.823	1	13
632.993	1	6
633.162	1	-4
633.332	1	3
633.501	1	-4
633.671	1	-5
633.841	1	0
634.010	1	2
634.180	1	-5
634.349	1	1
634.519	1	2
634.689	1	10
634.858	1	6
635.028	1	-5
635.197	1	-3
635.367	1	1
635.537	1	-4
635.706	1	-1
635.876	1	-4
636.045	1	-5
636.215	1	-3
636.384	1	3
636.554	1	-1
636.724	1	4
636.893	1	2
637.063	1	8
637.232	1	5
637.402	1	7
637.572	1	-2
637.741	1	0
637.911	1	2
638.080	1	1
638.250	1	7
638.419	1	9
638.589	1	-4
638.759	1	4
638.928	1	-7
639.098	1	-1
639.267	1	4
639.437	1	-5
639.606	1	5
639.776	1	-1
639.946	1	3
640.115	1	-2
640.285	1	-2
640.454	1	17
640.624	1	10
640.793	1	3
640.963	1	-5
641.132	1	9
641.302	1	1
641.472	1	-8
641.641	1	-9
641.811	1	-2
641.980	1	0
642.150	1	0
642.319	1	5
642.489	1	-9
642.659	1	-9
642.828	1	-7
642.998	1	-11
643.167	1	8
643.337	1	7
643.506	1	-4
643.676	1	6
643.845	1	1
644.015	1	9
644.184	1	9
644.354	1	-6
644.524	1	-7
644.693	1	-4
644.863	1	-8
645.032	1	0
645.202	1	6
645.371	1	-7
645.541	1	-4
645.710	1	5
645.880	1	4
646.049	1	7
646.219	1	9
646.388	1	4
646.558	1	-5
646.728	1	-6
646.897	1	-1
647.067	1	2
647.236	1	3
647.406	1	0
647.575	1	10
647.745	1	-6
647.914	1	0
648.084	1	-5
648.253	1	3
648.423	1	-3
648.592	1	-1
648.762	1	-5
648.931	1	-2
649.101	1	3
649.270	1	11
649.440	1	8
649.610	1	19
649.779	1	-1
649.949	1	-2
650.118	1	-2
650.288	1	-4
650.457	1	-4
650.627	1	-6
650.796	1	-3
650.966	1	-2
651.135	1	5
651.305	1	1
651.474	1	7
651.644	1	-13
651.813	1	4
651.983	1	4
652.152	1	2
652.322	1	1
652.491	1	2
652.661	1	-1
652.830	1	5
653.000	1	-1
653.169	1	6
653.339	1	5
653.508	1	-5
653.678	1	0
653.847	1	8
654.017	1	-2
654.186	1	2
654.356	1	6
654.525	1	-2
654.695	1	3
654.864	1	-7
655.034	1	5
655.203	1	0
655.373	1	2
655.542	1	2
655.712	1	1
655.881	1	5
656.051	1	4
656.220	1	6
656.390	1	4
656.559	1	-5
656.729	1	7
656.898	1	0
657.068	1	0
657.237	1	2
657.406	1	9
657.576	1	-3
657.745	1	-10
657.915	1	11
658.084	1	12
658.254	1	6
658.423	1	-7
658.593	1	-5
658.762	1	1
658.932	1	3
659.101	1	-2
659.271	1	-5
659.440	1	10
659.610	1	3
659.779	1	-3
659.949	1	-2
660.118	1	6
660.288	1	-15
660.457	1	7
660.626	1	-4
660.796	1	-4
660.965	1	0
661.135	1	8
661.304	1	-1
661.474	1	2
661.643	1	2
661.813	1	2
661.982	1	5
662.152	1	-5
662.321	1	6
662.491	1	4
662.660	1	2
662.829	1	-6
662.999	1	4
663.168	1	-16
663.338	1	2
663.507	1	4
663.677	1	-10
663.846	1	3
664.016	1	-2
664.185	1	-4
664.354	1	8
664.524	1	-8
664.693	1	11
664.863	1	7
665.032	1	4
665.202	1	-7
665.371	1	4
665.541	1	-3
665.710	1	-2
665.879	1	-5
666.049	1	-6
666.218	1	-1
666.388	1	1
666.557	1	8
666.727	1	-11
666.896	1	-11
667.065	1	17
667.235	1	1
667.404	1	-7
667.574	1	6
667.743	1	-5
667.913	1	1
668.082	1	1
668.251	1	-4
668.421	1	2
668.590	1	4
668.760	1	0
668.929	1	7
669.099	1	-11
669.268	1	-5
669.437	1	9
669.607	1	-9
669.776	1	-4
669.946	1	12
670.115	1	-4
670.285	1	0
670.454	1	5
670.623	1	10
670.793	1	-4
670.962	1	-1
671.132	1	3
671.301	1	-3
671.470	1	1
671.640	1	-15
671.809	1	-1
671.979	1	10
672.148	1	9
672.317	1	-4
672.487	1	1
672.656	1	11
672.826	1	-19
672.995	1	-4
673.164	1	8
673.334	1	6
673.503	1	3
673.673	1	21
673.842	1	3
674.011	1	13
674.181	1	-8
674.350	1	-6
674.520	1	2
674.689	1	1
674.858	1	1
675.028	1	4
675.197	1	3
675.367	1	9
675.536	1	1
675.705	1	-8
675.875	1	-1
676.044	1	0
676.214	1	0
676.383	1	-12
676.552	1	-4
676.722	1	0
676.891	1	-6
677.060	1	2
677.230	1	10
677.399	1	7
677.569	1	-11
677.738	1	-11
677.907	1	-9
678.077	1	7
678.246	1	-13
678.416	1	0
678.585	1	7
678.754	1	9
678.924	1	-7
679.093	1	-2
679.262	1	2
679.432	1	-1
679.601	1	-11
679.771	1	0
679.940	1	-13
680.109	1	3
680.279	1	4
680.448	1	-1
680.617	1	-15
680.787	1	-3
680.956	1	0
681.125	1	4
681.295	1	1
681.464	1	1
681.634	1	5
681.803	1	-11
681.972	1	-7
682.142	1	11
682.311	1	-3
682.480	1	1
682.650	1	-6
682.819	1	3
682.988	1	-1
683.158	1	-3
683.327	1	6
683.496	1	-6
683.666	1	2
683.835	1	2
684.004	1	6
684.174	1	3
684.343	1	2
684.512	1	0
684.682	1	12
684.851	1	-6
685.021	1	1
685.190	1	10
685.359	1	-10
685.529	1	4
685.698	1	8
685.867	1	0
686.037	1	3
686.206	1	-1
686.375	1	7
686.545	1	6
686.714	1	-7
686.883	1	-1
687.053	1	-1
687.222	1	0
687.391	1	-2
687.561	1	5
687.730	1	3
687.899	1	-3
688.069	1	-5
688.238	1	7
688.407	1	3
688.577	1	-8
688.746	1	4
