340.368	1	2
340.539	1	11
340.710	1	-6
340.881	1	4
341.052	1	6
341.223	1	13
341.394	1	4
341.565	1	-6
341.737	1	22
341.908	1	11
342.079	1	-8
342.250	1	7
342.421	1	-12
342.592	1	3
342.763	1	-6
342.934	1	7
343.105	1	6
343.276	1	-2
343.447	1	11
343.618	1	14
343.789	1	-1
343.960	1	-3
344.131	1	-5
344.302	1	1
344.473	1	8
344.644	1	5
344.815	1	11
344.986	1	7
345.157	1	10
345.328	1	-1
345.499	1	11
345.670	1	6
345.841	1	4
346.012	1	10
346.183	1	6
346.354	1	5
346.526	1	9
346.697	1	5
346.868	1	6
347.039	1	1
347.210	1	4
347.381	1	13
347.552	1	12
347.723	1	7
347.894	1	4
348.065	1	-1
348.236	1	4
348.407	1	-2
348.578	1	4
348.749	1	10
348.920	1	9
349.091	1	8
349.262	1	2
349.433	1	4
349.604	1	15
349.775	1	10
349.946	1	0
350.117	1	12
350.288	1	4
350.459	1	14
350.630	1	1
350.801	1	13
350.972	1	6
351.143	1	-2
351.314	1	-1
351.485	1	10
351.656	1	8
351.827	1	7
351.998	1	-5
352.169	1	19
352.340	1	6
352.511	1	-4
352.682	1	11
352.853	1	0
353.024	1	-6
353.195	1	11
353.366	1	10
353.537	1	14
353.708	1	11
353.879	1	10
354.050	1	16
354.221	1	-1
354.392	1	17
354.563	1	12
354.734	1	4
354.905	1	13
355.076	1	6
355.247	1	1
355.418	1	3
355.589	1	13
355.760	1	10
355.931	1	13
356.102	1	0
356.273	1	8
356.444	1	10
356.615	1	13
356.785	1	21
356.956	1	12
357.127	1	13
357.298	1	13
357.469	1	16
357.640	1	16
357.811	1	28
357.982	1	10
358.153	1	17
358.324	1	18
358.495	1	22
358.666	1	6
358.837	1	20
359.008	1	18
359.179	1	23
359.350	1	21
359.521	1	16
359.692	1	21
359.863	1	11
360.034	1	15
360.205	1	19
360.376	1	33
360.547	1	18
360.718	1	14
360.889	1	25
361.060	1	35
361.231	1	24
361.401	1	29
361.572	1	28
361.743	1	21
361.914	1	33
362.085	1	25
362.256	1	35
362.427	1	50
362.598	1	43
362.769	1	46
362.940	1	44
363.111	1	61
363.282	1	52
363.453	1	52
363.624	1	51
363.795	1	69
363.966	1	56
364.137	1	57
364.308	1	65
364.478	1	76
364.649	1	70
364.820	1	73
364.991	1	79
365.162	1	71
365.333	1	86
365.504	1	76
365.675	1	84
365.846	1	82
366.017	1	99
366.188	1	89
366.359	1	91
366.530	1	101
366.701	1	78
366.871	1	101
367.042	1	109
367.213	1	92
367.384	1	102
367.555	1	96
367.726	1	110
367.897	1	92
368.068	1	88
368.239	1	102
368.410	1	89
368.581	1	91
368.752	1	84
368.923	1	73
369.093	1	89
369.264	1	80
369.435	1	85
369.606	1	87
369.777	1	87
369.948	1	83
370.119	1	82
370.290	1	71
370.461	1	63
370.632	1	67
370.803	1	63
370.973	1	75
371.144	1	72
371.315	1	65
371.486	1	68
371.657	1	63
371.828	1	61
371.999	1	46
372.170	1	67
372.341	1	59
372.512	1	42
372.682	1	48
372.853	1	50
373.024	1	52
373.195	1	47
373.366	1	53
373.537	1	39
373.708	1	44
373.879	1	52
374.050	1	45
374.220	1	54
374.391	1	53
374.562	1	45
374.733	1	57
374.904	1	44
375.075	1	49
375.246	1	46
375.417	1	44
375.588	1	44
375.758	1	35
375.929	1	36
376.100	1	48
376.271	1	40
376.442	1	43
376.613	1	34
376.784	1	35
376.955	1	22
377.125	1	30
377.296	1	34
377.467	1	32
377.638	1	32
377.809	1	31
377.980	1	43
378.151	1	29
378.321	1	37
378.492	1	36
378.663	1	29
378.834	1	30
379.005	1	41
379.176	1	40
379.347	1	22
379.518	1	27
379.688	1	38
379.859	1	27
380.030	1	38
380.201	1	22
380.372	1	34
380.543	1	41
380.714	1	37
380.884	1	41
381.055	1	35
381.226	1	45
381.397	1	29
381.568	1	44
381.739	1	36
381.910	1	42
382.080	1	31
382.251	1	41
382.422	1	57
382.593	1	50
382.764	1	51
382.935	1	54
383.105	1	60
383.276	1	50
383.447	1	69
383.618	1	69
383.789	1	67
383.960	1	67
384.130	1	63
384.301	1	78
384.472	1	63
384.643	1	87
384.814	1	90
384.985	1	91
385.156	1	110
385.326	1	89
385.497	1	110
385.668	1	94
385.839	1	120
386.010	1	116
386.180	1	109
386.351	1	110
386.522	1	108
386.693	1	116
386.864	1	91
387.035	1	117
387.205	1	105
387.376	1	129
387.547	1	102
387.718	1	117
387.889	1	117
388.060	1	104
388.230	1	115
388.401	1	107
388.572	1	110
388.743	1	115
388.914	1	113
389.084	1	114
389.255	1	111
389.426	1	113
389.597	1	100
389.768	1	109
389.939	1	105
390.109	1	105
390.280	1	110
390.451	1	121
390.622	1	100
390.793	1	107
390.963	1	105
391.134	1	102
391.305	1	96
391.476	1	104
391.647	1	104
391.817	1	99
391.988	1	94
392.159	1	99
392.330	1	94
392.501	1	99
392.671	1	92
392.842	1	108
393.013	1	105
393.184	1	94
393.355	1	101
393.525	1	103
393.696	1	89
393.867	1	81
394.038	1	77
394.208	1	103
394.379	1	80
394.550	1	93
394.721	1	86
394.892	1	95
395.062	1	83
395.233	1	92
395.404	1	104
395.575	1	86
395.746	1	86
395.916	1	89
396.087	1	101
396.258	1	90
396.429	1	92
396.599	1	106
396.770	1	98
396.941	1	115
397.112	1	91
397.283	1	99
397.453	1	93
397.624	1	92
397.795	1	118
397.966	1	107
398.136	1	109
398.307	1	106
398.478	1	95
398.649	1	98
398.819	1	99
398.990	1	105
399.161	1	101
399.332	1	107
399.503	1	92
399.673	1	87
399.844	1	90
400.015	1	89
400.186	1	110
400.356	1	82
400.527	1	100
400.698	1	89
400.869	1	98
401.039	1	87
401.210	1	79
401.381	1	88
401.552	1	80
401.722	1	88
401.893	1	75
402.064	1	87
402.235	1	83
402.405	1	69
402.576	1	86
402.747	1	70
402.918	1	59
403.088	1	73
403.259	1	73
403.430	1	64
403.601	1	63
403.771	1	74
403.942	1	78
404.113	1	79
404.284	1	61
404.454	1	70
404.625	1	72
404.796	1	68
404.967	1	72
405.137	1	81
405.308	1	70
405.479	1	74
405.649	1	66
405.820	1	64
405.991	1	77
406.162	1	65
406.332	1	59
406.503	1	59
406.674	1	68
406.845	1	60
407.015	1	56
407.186	1	84
407.357	1	61
407.527	1	55
407.698	1	55
407.869	1	58
408.040	1	52
408.210	1	60
408.381	1	55
408.552	1	68
408.722	1	50
408.893	1	65
409.064	1	58
409.235	1	63
409.405	1	59
409.576	1	58
409.747	1	59
409.917	1	62
410.088	1	58
410.259	1	51
410.430	1	63
410.600	1	64
410.771	1	70
410.942	1	56
411.112	1	44
411.283	1	50
411.454	1	58
411.625	1	50
411.795	1	60
411.966	1	52
412.137	1	59
412.307	1	47
412.478	1	61
412.649	1	61
412.819	1	52
412.990	1	56
413.161	1	54
413.332	1	57
413.502	1	42
413.673	1	51
413.844	1	51
414.014	1	46
414.185	1	54
414.356	1	42
414.526	1	49
414.697	1	51
414.868	1	53
415.038	1	39
415.209	1	44
415.380	1	37
415.550	1	36
415.721	1	41
415.892	1	42
416.063	1	52
416.233	1	43
416.404	1	49
416.575	1	42
416.745	1	30
416.916	1	47
417.087	1	39
417.257	1	41
417.428	1	45
417.599	1	46
417.769	1	47
417.940	1	33
418.111	1	40
418.281	1	44
418.452	1	38
418.623	1	34
418.793	1	43
418.964	1	41
419.135	1	46
419.305	1	43
419.476	1	49
419.647	1	50
419.817	1	44
419.988	1	34
420.159	1	35
420.329	1	43
420.500	1	48
420.671	1	41
420.841	1	33
421.012	1	55
421.183	1	43
421.353	1	37
421.524	1	30
421.695	1	37
421.865	1	27
422.036	1	37
422.206	1	43
422.377	1	31
422.548	1	33
422.718	1	30
422.889	1	33
423.060	1	37
423.230	1	35
423.401	1	38
423.572	1	31
423.742	1	32
423.913	1	50
424.084	1	32
424.254	1	24
424.425	1	31
424.595	1	24
424.766	1	29
424.937	1	22
425.107	1	35
425.278	1	25
425.449	1	30
425.619	1	38
425.790	1	19
425.961	1	20
426.131	1	32
426.302	1	19
426.472	1	25
426.643	1	28
426.814	1	34
426.984	1	32
427.155	1	28
427.326	1	27
427.496	1	39
427.667	1	27
427.837	1	16
428.008	1	21
428.179	1	28
428.349	1	11
428.520	1	29
428.691	1	29
428.861	1	36
429.032	1	28
429.202	1	25
429.373	1	21
429.544	1	30
429.714	1	33
429.885	1	23
430.055	1	28
430.226	1	12
430.397	1	27
430.567	1	32
430.738	1	21
430.909	1	14
431.079	1	30
431.250	1	11
431.420	1	23
431.591	1	24
431.762	1	21
431.932	1	27
432.103	1	19
432.273	1	16
432.444	1	28
432.615	1	26
432.785	1	19
432.956	1	20
433.126	1	19
433.297	1	25
433.468	1	17
433.638	1	14
433.809	1	21
433.979	1	15
434.150	1	11
434.320	1	27
434.491	1	14
434.662	1	14
434.832	1	15
435.003	1	22
435.173	1	19
435.344	1	28
435.515	1	22
435.685	1	21
435.856	1	17
436.026	1	21
436.197	1	18
436.368	1	13
436.538	1	24
436.709	1	5
436.879	1	11
437.050	1	17
437.220	1	24
437.391	1	16
437.562	1	30
437.732	1	24
437.903	1	26
438.073	1	24
438.244	1	13
438.414	1	24
438.585	1	24
438.756	1	25
438.926	1	17
439.097	1	19
439.267	1	24
439.438	1	20
439.608	1	20
439.779	1	12
439.949	1	13
440.120	1	23
440.291	1	5
440.461	1	7
440.632	1	26
440.802	1	27
440.973	1	21
441.143	1	25
441.314	1	23
441.485	1	14
441.655	1	30
441.826	1	4
441.996	1	16
442.167	1	16
442.337	1	13
442.508	1	11
442.678	1	8
442.849	1	13
443.019	1	19
443.190	1	9
443.361	1	24
443.531	1	9
443.702	1	14
443.872	1	15
444.043	1	12
444.213	1	0
444.384	1	20
444.554	1	15
444.725	1	7
444.895	1	10
445.066	1	6
445.237	1	9
445.407	1	10
445.578	1	18
445.748	1	19
445.919	1	18
446.089	1	28
446.260	1	13
446.430	1	1
446.601	1	14
446.771	1	5
446.942	1	21
447.112	1	22
447.283	1	11
447.453	1	4
447.624	1	23
447.794	1	6
447.965	1	9
448.135	1	19
448.306	1	17
448.477	1	3
448.647	1	24
448.818	1	17
448.988	1	9
449.159	1	5
449.329	1	12
449.500	1	20
449.670	1	22
449.841	1	15
450.011	1	13
450.182	1	10
450.352	1	21
450.523	1	3
450.693	1	24
450.864	1	11
451.034	1	18
451.205	1	11
451.375	1	17
451.546	1	10
451.716	1	11
451.887	1	7
452.057	1	15
452.228	1	17
452.398	1	14
452.569	1	9
452.739	1	15
452.910	1	17
453.080	1	31
453.251	1	9
453.421	1	13
453.592	1	7
453.762	1	13
453.933	1	11
454.103	1	14
454.274	1	5
454.444	1	27
454.615	1	21
454.785	1	8
454.956	1	13
455.126	1	8
455.297	1	17
455.467	1	23
455.638	1	6
455.808	1	14
455.979	1	16
456.149	1	2
456.320	1	7
456.490	1	13
456.661	1	9
456.831	1	17
457.001	1	10
457.172	1	8
457.342	1	19
457.513	1	17
457.683	1	13
457.854	1	9
458.024	1	14
458.195	1	9
458.365	1	15
458.536	1	10
458.706	1	12
458.877	1	7
459.047	1	12
459.218	1	9
459.388	1	6
459.559	1	9
459.729	1	12
459.899	1	24
460.070	1	13
460.240	1	17
460.411	1	12
460.581	1	18
460.752	1	12
460.922	1	13
461.093	1	10
461.263	1	19
461.434	1	17
461.604	1	15
461.775	1	6
461.945	1	17
462.115	1	3
462.286	1	21
462.456	1	1
462.627	1	6
462.797	1	4
462.968	1	6
463.138	1	17
463.309	1	4
463.479	1	10
463.649	1	10
463.820	1	7
463.990	1	13
464.161	1	14
464.331	1	14
464.502	1	13
464.672	1	1
464.843	1	12
465.013	1	4
465.183	1	14
465.354	1	13
465.524	1	22
465.695	1	11
465.865	1	5
466.036	1	17
466.206	1	-1
466.376	1	5
466.547	1	17
466.717	1	2
466.888	1	10
467.058	1	20
467.229	1	19
467.399	1	13
467.569	1	10
467.740	1	2
467.910	1	5
468.081	1	10
468.251	1	3
468.422	1	7
468.592	1	18
468.762	1	6
468.933	1	11
469.103	1	2
469.274	1	15
469.444	1	0
469.614	1	5
469.785	1	12
469.955	1	11
470.126	1	13
470.296	1	16
470.467	1	3
470.637	1	22
470.807	1	13
470.978	1	7
471.148	1	8
471.319	1	18
471.489	1	5
471.659	1	6
471.830	1	15
472.000	1	20
472.171	1	3
472.341	1	3
472.511	1	13
472.682	1	18
472.852	1	7
473.023	1	7
473.193	1	3
473.363	1	11
473.534	1	1
473.704	1	20
473.875	1	18
474.045	1	8
474.215	1	11
474.386	1	14
474.556	1	2
474.727	1	12
474.897	1	6
475.067	1	15
475.238	1	7
475.408	1	12
475.578	1	9
475.749	1	3
475.919	1	14
476.090	1	2
476.260	1	5
476.430	1	15
476.601	1	13
476.771	1	18
476.942	1	5
477.112	1	11
477.282	1	-2
477.453	1	13
477.623	1	10
477.793	1	8
477.964	1	13
478.134	1	16
478.305	1	15
478.475	1	6
478.645	1	12
478.816	1	2
478.986	1	7
479.156	1	7
479.327	1	1
479.497	1	13
479.667	1	15
479.838	1	17
480.008	1	16
480.179	1	16
480.349	1	17
480.519	1	11
480.690	1	22
480.860	1	9
481.030	1	6
481.201	1	11
481.371	1	21
481.541	1	11
481.712	1	15
481.882	1	14
482.053	1	19
482.223	1	2
482.393	1	4
482.564	1	-1
482.734	1	13
482.904	1	6
483.075	1	21
483.245	1	8
483.415	1	16
483.586	1	5
483.756	1	27
483.926	1	19
484.097	1	7
484.267	1	11
484.437	1	6
484.608	1	15
484.778	1	19
484.948	1	5
485.119	1	10
485.289	1	18
485.459	1	20
485.630	1	13
485.800	1	4
485.970	1	12
486.141	1	-11
486.311	1	11
486.481	1	8
486.652	1	16
486.822	1	20
486.992	1	12
487.163	1	6
487.333	1	24
487.503	1	0
487.674	1	21
487.844	1	5
488.014	1	18
488.185	1	5
488.355	1	8
488.525	1	5
488.696	1	1
488.866	1	24
489.036	1	8
489.207	1	21
489.377	1	20
489.547	1	15
489.718	1	10
489.888	1	8
490.058	1	13
490.228	1	7
490.399	1	25
490.569	1	23
490.739	1	18
490.910	1	13
491.080	1	10
491.250	1	18
491.421	1	14
491.591	1	6
491.761	1	22
491.932	1	19
492.102	1	16
492.272	1	30
492.442	1	11
492.613	1	16
492.783	1	7
492.953	1	20
493.124	1	13
493.294	1	20
493.464	1	17
493.635	1	19
493.805	1	20
493.975	1	12
494.145	1	30
494.316	1	18
494.486	1	17
494.656	1	23
494.827	1	19
494.997	1	20
495.167	1	23
495.337	1	26
495.508	1	17
495.678	1	31
495.848	1	29
496.019	1	19
496.189	1	18
496.359	1	26
496.529	1	20
496.700	1	19
496.870	1	23
497.040	1	22
497.211	1	31
497.381	1	0
497.551	1	33
497.721	1	23
497.892	1	24
498.062	1	23
498.232	1	25
498.403	1	24
498.573	1	23
498.743	1	25
498.913	1	32
499.084	1	15
499.254	1	24
499.424	1	30
499.594	1	26
499.765	1	20
499.935	1	9
500.105	1	29
500.275	1	32
500.446	1	31
500.616	1	29
500.786	1	35
500.956	1	31
501.127	1	30
501.297	1	29
501.467	1	40
501.638	1	34
501.808	1	9
501.978	1	39
502.148	1	37
502.319	1	23
502.489	1	38
502.659	1	32
502.829	1	31
503.000	1	36
503.170	1	39
503.340	1	28
503.510	1	25
503.681	1	37
503.851	1	16
504.021	1	48
504.191	1	41
504.362	1	45
504.532	1	28
504.702	1	42
504.872	1	34
505.042	1	43
505.213	1	41
505.383	1	39
505.553	1	33
505.723	1	37
505.894	1	45
506.064	1	49
506.234	1	51
506.404	1	39
506.575	1	41
506.745	1	34
506.915	1	35
507.085	1	34
507.256	1	38
507.426	1	54
507.596	1	45
507.766	1	48
507.936	1	56
508.107	1	45
508.277	1	39
508.447	1	45
508.617	1	53
508.788	1	45
508.958	1	54
509.128	1	39
509.298	1	57
509.468	1	53
509.639	1	54
509.809	1	47
509.979	1	40
510.149	1	45
510.319	1	44
510.490	1	53
510.660	1	64
510.830	1	33
511.000	1	60
511.171	1	56
511.341	1	41
511.511	1	42
511.681	1	48
511.851	1	35
512.022	1	38
512.192	1	47
512.362	1	54
512.532	1	58
512.702	1	45
512.873	1	66
513.043	1	49
513.213	1	46
513.383	1	46
513.553	1	40
513.724	1	52
513.894	1	41
514.064	1	56
514.234	1	55
514.404	1	52
514.575	1	58
514.745	1	48
514.915	1	59
515.085	1	54
515.255	1	48
515.425	1	54
515.596	1	50
515.766	1	59
515.936	1	53
516.106	1	61
516.276	1	60
516.447	1	64
516.617	1	53
516.787	1	52
516.957	1	58
517.127	1	57
517.297	1	60
517.468	1	60
517.638	1	62
517.808	1	60
517.978	1	58
518.148	1	64
518.319	1	59
518.489	1	60
518.659	1	64
518.829	1	55
518.999	1	58
519.169	1	62
519.340	1	64
519.510	1	65
519.680	1	53
519.850	1	72
520.020	1	56
520.190	1	65
520.361	1	53
520.531	1	64
520.701	1	75
520.871	1	65
521.041	1	61
521.211	1	63
521.382	1	63
521.552	1	69
521.722	1	64
521.892	1	52
522.062	1	60
522.232	1	49
522.402	1	63
522.573	1	70
522.743	1	63
522.913	1	61
523.083	1	64
523.253	1	74
523.423	1	63
523.593	1	52
523.764	1	69
523.934	1	71
524.104	1	55
524.274	1	62
524.444	1	57
524.614	1	56
524.784	1	71
524.955	1	54
525.125	1	70
525.295	1	65
525.465	1	63
525.635	1	73
525.805	1	74
525.975	1	55
526.146	1	56
526.316	1	69
526.486	1	71
526.656	1	80
526.826	1	68
526.996	1	79
527.166	1	61
527.337	1	63
527.507	1	57
527.677	1	79
527.847	1	69
528.017	1	55
528.187	1	72
528.357	1	78
528.527	1	60
528.698	1	65
528.868	1	62
529.038	1	73
529.208	1	65
529.378	1	71
529.548	1	71
529.718	1	68
529.888	1	73
530.058	1	76
530.229	1	76
530.399	1	76
530.569	1	82
530.739	1	68
530.909	1	77
531.079	1	80
531.249	1	66
531.419	1	74
531.589	1	73
531.760	1	75
531.930	1	76
532.100	1	81
532.270	1	85
532.440	1	80
532.610	1	66
532.780	1	73
532.950	1	79
533.120	1	76
533.290	1	59
533.461	1	82
533.631	1	67
533.801	1	74
533.971	1	63
534.141	1	72
534.311	1	76
534.481	1	77
534.651	1	77
534.821	1	78
534.991	1	73
535.162	1	74
535.332	1	67
535.502	1	66
535.672	1	51
535.842	1	71
536.012	1	81
536.182	1	73
536.352	1	79
536.522	1	77
536.692	1	70
536.862	1	81
537.032	1	70
537.203	1	75
537.373	1	60
537.543	1	68
537.713	1	79
537.883	1	77
538.053	1	72
538.223	1	75
538.393	1	63
538.563	1	75
538.733	1	61
538.903	1	68
539.073	1	57
539.243	1	60
539.413	1	63
539.584	1	64
539.754	1	60
539.924	1	72
540.094	1	72
540.264	1	59
540.434	1	70
540.604	1	71
540.774	1	62
540.944	1	59
541.114	1	59
541.284	1	54
541.454	1	65
541.624	1	52
541.794	1	59
541.964	1	67
542.134	1	75
542.305	1	54
542.475	1	68
542.645	1	63
542.815	1	68
542.985	1	53
543.155	1	68
543.325	1	50
543.495	1	59
543.665	1	68
543.835	1	59
544.005	1	56
544.175	1	59
544.345	1	54
544.515	1	58
544.685	1	60
544.855	1	54
545.025	1	45
545.195	1	63
545.365	1	64
545.535	1	59
545.705	1	61
545.875	1	55
546.045	1	61
546.216	1	66
546.386	1	60
546.556	1	54
546.726	1	68
546.896	1	62
547.066	1	53
547.236	1	50
547.406	1	69
547.576	1	66
547.746	1	57
547.916	1	66
548.086	1	64
548.256	1	62
548.426	1	52
548.596	1	47
548.766	1	56
548.936	1	55
549.106	1	70
549.276	1	61
549.446	1	57
549.616	1	65
549.786	1	51
549.956	1	65
550.126	1	53
550.296	1	62
550.466	1	52
550.636	1	60
550.806	1	59
550.976	1	57
551.146	1	53
551.316	1	60
551.486	1	61
551.656	1	49
551.826	1	64
551.996	1	60
552.166	1	55
552.336	1	53
552.506	1	61
552.676	1	56
552.846	1	54
553.016	1	59
553.186	1	54
553.356	1	50
553.526	1	47
553.696	1	71
553.866	1	54
554.036	1	58
554.206	1	55
554.376	1	61
554.546	1	40
554.716	1	53
554.886	1	55
555.056	1	46
555.226	1	48
555.396	1	57
555.566	1	48
555.736	1	48
555.906	1	53
556.076	1	56
556.246	1	52
556.416	1	51
556.586	1	59
556.756	1	62
556.926	1	53
557.096	1	55
557.266	1	57
557.436	1	61
557.606	1	38
557.776	1	47
557.946	1	64
558.116	1	46
558.286	1	49
558.456	1	37
558.626	1	57
558.796	1	43
558.966	1	49
559.136	1	51
559.306	1	36
559.476	1	46
559.646	1	32
559.816	1	49
559.986	1	41
560.155	1	54
560.325	1	37
560.495	1	52
560.665	1	44
560.835	1	49
561.005	1	46
561.175	1	41
561.345	1	44
561.515	1	34
561.685	1	51
561.855	1	51
562.025	1	36
562.195	1	45
562.365	1	46
562.535	1	47
562.705	1	46
562.875	1	34
563.045	1	39
563.215	1	50
563.385	1	35
563.555	1	47
563.725	1	52
563.895	1	41
564.064	1	52
564.234	1	39
564.404	1	38
564.574	1	34
564.744	1	48
564.914	1	28
565.084	1	29
565.254	1	37
565.424	1	43
565.594	1	44
565.764	1	48
565.934	1	48
566.104	1	28
566.274	1	48
566.444	1	44
566.614	1	28
566.783	1	31
566.953	1	36
567.123	1	40
567.293	1	34
567.463	1	37
567.633	1	35
567.803	1	44
567.973	1	28
568.143	1	39
568.313	1	36
568.483	1	26
568.653	1	28
568.823	1	40
568.993	1	22
569.162	1	36
569.332	1	41
569.502	1	40
569.672	1	34
569.842	1	31
570.012	1	35
570.182	1	26
570.352	1	44
570.522	1	43
570.692	1	34
570.862	1	35
571.031	1	34
571.201	1	21
571.371	1	29
571.541	1	32
571.711	1	36
571.881	1	29
572.051	1	34
572.221	1	22
572.391	1	34
572.561	1	30
572.731	1	27
572.900	1	37
573.070	1	35
573.240	1	24
573.410	1	38
573.580	1	28
573.750	1	37
573.920	1	27
574.090	1	36
574.260	1	19
574.430	1	16
574.599	1	23
574.769	1	27
574.939	1	28
575.109	1	30
575.279	1	25
575.449	1	32
575.619	1	38
575.789	1	38
575.959	1	13
576.128	1	31
576.298	1	9
576.468	1	27
576.638	1	31
576.808	1	17
576.978	1	39
577.148	1	27
577.318	1	25
577.487	1	28
577.657	1	11
577.827	1	31
577.997	1	27
578.167	1	30
578.337	1	19
578.507	1	36
578.677	1	18
578.846	1	25
579.016	1	33
579.186	1	33
579.356	1	20
579.526	1	17
579.696	1	34
579.866	1	18
580.036	1	23
580.205	1	24
580.375	1	28
580.545	1	17
580.715	1	19
580.885	1	19
581.055	1	35
581.225	1	16
581.394	1	18
581.564	1	17
581.734	1	28
581.904	1	21
582.074	1	16
582.244	1	19
582.414	1	26
582.583	1	16
582.753	1	22
582.923	1	20
583.093	1	21
583.263	1	29
583.433	1	17
583.603	1	17
583.772	1	25
583.942	1	28
584.112	1	23
584.282	1	21
584.452	1	14
584.622	1	25
584.791	1	13
584.961	1	23
585.131	1	15
585.301	1	30
585.471	1	11
585.641	1	17
585.811	1	17
585.980	1	10
586.150	1	22
586.320	1	16
586.490	1	20
586.660	1	22
586.830	1	10
586.999	1	32
587.169	1	17
587.339	1	15
587.509	1	17
587.679	1	25
587.849	1	20
588.018	1	19
588.188	1	13
588.358	1	20
588.528	1	23
588.698	1	19
588.867	1	29
589.037	1	16
589.207	1	14
589.377	1	22
589.547	1	9
589.717	1	18
589.886	1	0
590.056	1	21
590.226	1	11
590.396	1	23
590.566	1	14
590.735	1	27
590.905	1	21
591.075	1	6
591.245	1	13
591.415	1	16
591.585	1	13
591.754	1	15
591.924	1	19
592.094	1	23
592.264	1	14
592.434	1	19
592.603	1	16
592.773	1	15
592.943	1	16
593.113	1	7
593.283	1	25
593.452	1	7
593.622	1	13
593.792	1	20
593.962	1	20
594.132	1	12
594.301	1	27
594.471	1	20
594.641	1	14
594.811	1	16
594.981	1	15
595.150	1	7
595.320	1	9
595.490	1	12
595.660	1	6
595.829	1	13
595.999	1	20
596.169	1	16
596.339	1	12
596.509	1	31
596.678	1	7
596.848	1	15
597.018	1	12
597.188	1	19
597.358	1	18
597.527	1	10
597.697	1	10
597.867	1	12
598.037	1	9
598.206	1	3
598.376	1	24
598.546	1	19
598.716	1	5
598.885	1	5
599.055	1	15
599.225	1	13
599.395	1	6
599.565	1	19
599.734	1	15
599.904	1	11
600.074	1	19
600.244	1	20
600.413	1	15
600.583	1	7
600.753	1	15
600.923	1	20
601.092	1	-2
601.262	1	8
601.432	1	12
601.602	1	15
601.771	1	20
601.941	1	11
602.111	1	8
602.281	1	9
602.451	1	14
602.620	1	13
602.790	1	12
602.960	1	9
603.130	1	20
603.299	1	20
603.469	1	9
603.639	1	15
603.809	1	8
603.978	1	9
604.148	1	22
604.318	1	20
604.487	1	18
604.657	1	11
604.827	1	4
604.997	1	17
605.166	1	17
605.336	1	9
605.506	1	23
605.676	1	7
605.845	1	12
606.015	1	14
606.185	1	14
606.355	1	22
606.524	1	10
606.694	1	23
606.864	1	8
607.034	1	3
607.203	1	22
607.373	1	18
607.543	1	5
607.712	1	25
607.882	1	15
608.052	1	12
608.222	1	16
608.391	1	11
608.561	1	15
608.731	1	3
608.901	1	18
609.070	1	9
609.240	1	12
609.410	1	8
609.579	1	6
609.749	1	16
609.919	1	3
610.089	1	3
610.258	1	17
610.428	1	4
610.598	1	21
610.767	1	15
610.937	1	8
611.107	1	12
611.277	1	11
611.446	1	12
611.616	1	2
611.786	1	14
611.955	1	16
612.125	1	17
612.295	1	11
612.465	1	7
612.634	1	4
612.804	1	16
612.974	1	7
613.143	1	9
613.313	1	18
613.483	1	21
613.652	1	7
613.822	1	14
613.992	1	12
614.162	1	12
614.331	1	11
614.501	1	21
614.671	1	9
614.840	1	12
615.010	1	19
615.180	1	15
615.349	1	9
615.519	1	25
615.689	1	15
615.858	1	20
616.028	1	7
616.198	1	16
616.368	1	3
616.537	1	8
616.707	1	8
616.877	1	14
617.046	1	6
617.216	1	11
617.386	1	6
617.555	1	14
617.725	1	18
617.895	1	6
618.064	1	15
618.234	1	7
618.404	1	23
618.573	1	12
618.743	1	9
618.913	1	12
619.082	1	0
619.252	1	7
619.422	1	0
619.591	1	9
619.761	1	20
619.931	1	6
620.100	1	9
620.270	1	13
620.440	1	21
620.609	1	3
620.779	1	1
620.949	1	7
621.118	1	7
621.288	1	10
621.458	1	18
621.627	1	-4
621.797	1	13
621.967	1	0
622.136	1	20
622.306	1	23
622.476	1	14
622.645	1	17
622.815	1	15
622.985	1	6
623.154	1	8
623.324	1	7
623.494	1	13
623.663	1	8
623.833	1	12
624.002	1	6
624.172	1	23
624.342	1	-7
624.511	1	11
624.681	1	4
624.851	1	2
625.020	1	-3
625.190	1	17
625.360	1	-4
625.529	1	16
625.699	1	8
625.869	1	18
626.038	1	7
626.208	1	4
626.377	1	18
626.547	1	18
626.717	1	5
626.886	1	4
627.056	1	8
627.226	1	6
627.395	1	3
627.565	1	17
627.735	1	9
627.904	1	16
628.074	1	19
628.243	1	0
628.413	1	4
628.583	1	1
628.752	1	20
628.922	1	9
629.091	1	13
629.261	1	8
629.431	1	-4
629.600	1	15
629.770	1	17
629.940	1	11
630.109	1	6
630.279	1	-4
630.448	1	5
630.618	1	11
630.788	1	5
630.957	1	-1
631.127	1	20
631.297	1	2
631.466	1	12
631.636	1	7
631.805	1	12
631.975	1	15
632.145	1	-9
632.314	1	24
632.484	1	10
632.653	1	8
632.823	1	15
632.993	1	14
633.162	1	0
633.332	1	6
633.501	1	16
633.671	1	7
633.841	1	15
634.010	1	1
634.180	1	11
634.349	1	14
634.519	1	9
634.689	1	19
634.858	1	19
635.028	1	5
635.197	1	4
635.367	1	3
635.537	1	-3
635.706	1	-6
635.876	1	12
636.045	1	8
636.215	1	1
636.384	1	11
636.554	1	10
636.724	1	13
636.893	1	1
637.063	1	11
637.232	1	7
637.402	1	19
637.572	1	7
637.741	1	17
637.911	1	15
638.080	1	9
638.250	1	11
638.419	1	8
638.589	1	17
638.759	1	12
638.928	1	9
639.098	1	6
639.267	1	5
639.437	1	-2
639.606	1	24
639.776	1	10
639.946	1	1
640.115	1	1
640.285	1	8
640.454	1	14
640.624	1	8
640.793	1	16
640.963	1	9
641.132	1	19
641.302	1	11
641.472	1	9
641.641	1	7
641.811	1	7
641.980	1	10
642.150	1	8
642.319	1	3
642.489	1	2
642.659	1	10
642.828	1	13
642.998	1	10
643.167	1	21
643.337	1	3
643.506	1	4
643.676	1	15
643.845	1	3
644.015	1	14
644.184	1	14
644.354	1	7
644.524	1	0
644.693	1	12
644.863	1	0
645.032	1	-4
645.202	1	16
645.371	1	-1
645.541	1	-6
645.710	1	12
645.880	1	6
646.049	1	18
646.219	1	6
646.388	1	11
646.558	1	8
646.728	1	9
646.897	1	7
647.067	1	5
647.236	1	9
647.406	1	11
647.575	1	9
647.745	1	4
647.914	1	3
648.084	1	9
648.253	1	13
648.423	1	5
648.592	1	2
648.762	1	8
648.931	1	13
649.101	1	7
649.270	1	13
649.440	1	11
649.610	1	24
649.779	1	0
649.949	1	20
650.118	1	4
650.288	1	11
650.457	1	1
650.627	1	11
650.796	1	7
650.966	1	5
651.135	1	19
651.305	1	3
651.474	1	2
651.644	1	4
651.813	1	17
651.983	1	8
652.152	1	2
652.322	1	15
652.491	1	9
652.661	1	14
652.830	1	13
653.000	1	-1
653.169	1	4
653.339	1	8
653.508	1	9
653.678	1	0
653.847	1	10
654.017	1	0
654.186	1	8
654.356	1	3
654.525	1	9
654.695	1	8
654.864	1	10
655.034	1	8
655.203	1	12
655.373	1	9
655.542	1	11
655.712	1	1
655.881	1	16
656.051	1	22
656.220	1	11
656.390	1	9
656.559	1	-6
656.729	1	1
656.898	1	6
657.068	1	4
657.237	1	9
657.406	1	10
657.576	1	1
657.745	1	7
657.915	1	16
658.084	1	13
658.254	1	10
658.423	1	0
658.593	1	8
658.762	1	2
658.932	1	7
659.101	1	6
659.271	1	14
659.440	1	13
659.610	1	1
659.779	1	4
659.949	1	5
660.118	1	11
660.288	1	1
660.457	1	0
660.626	1	5
660.796	1	-1
660.965	1	8
661.135	1	8
661.304	1	10
661.474	1	7
661.643	1	9
661.813	1	11
661.982	1	3
662.152	1	3
662.321	1	8
662.491	1	9
662.660	1	8
662.829	1	5
662.999	1	3
663.168	1	8
663.338	1	2
663.507	1	11
663.677	1	4
663.846	1	17
664.016	1	6
664.185	1	3
664.354	1	15
664.524	1	-8
664.693	1	9
664.863	1	10
665.032	1	7
665.202	1	2
665.371	1	9
665.541	1	5
665.710	1	2
665.879	1	9
666.049	1	4
666.218	1	4
666.388	1	2
666.557	1	9
666.727	1	-12
666.896	1	12
667.065	1	10
667.235	1	5
667.404	1	-11
667.574	1	7
667.743	1	8
667.913	1	6
668.082	1	0
668.251	1	12
668.421	1	7
668.590	1	5
668.760	1	-1
668.929	1	10
669.099	1	-1
669.268	1	7
669.437	1	3
669.607	1	-3
669.776	1	8
669.946	1	9
670.115	1	4
670.285	1	12
670.454	1	8
670.623	1	10
670.793	1	3
670.962	1	7
671.132	1	11
671.301	1	0
671.470	1	5
671.640	1	-4
671.809	1	11
671.979	1	20
672.148	1	16
672.317	1	-3
672.487	1	4
672.656	1	5
672.826	1	-5
672.995	1	11
673.164	1	16
673.334	1	16
673.503	1	11
673.673	1	17
673.842	1	3
674.011	1	14
674.181	1	2
674.350	1	8
674.520	1	-1
674.689	1	5
674.858	1	10
675.028	1	13
675.197	1	2
675.367	1	12
675.536	1	23
675.705	1	0
675.875	1	0
676.044	1	-2
676.214	1	1
676.383	1	1
676.552	1	6
676.722	1	-1
676.891	1	-3
677.060	1	4
677.230	1	16
677.399	1	-3
677.569	1	2
677.738	1	7
677.907	1	-2
678.077	1	10
678.246	1	-3
678.416	1	10
678.585	1	12
678.754	1	3
678.924	1	-2
679.093	1	6
679.262	1	7
679.432	1	-4
679.601	1	-8
679.771	1	-2
679.940	1	1
680.109	1	11
680.279	1	-7
680.448	1	9
680.617	1	3
680.787	1	9
680.956	1	4
681.125	1	15
681.295	1	2
681.464	1	4
681.634	1	12
681.803	1	-7
681.972	1	0
682.142	1	14
682.311	1	7
682.480	1	0
682.650	1	5
682.819	1	14
682.988	1	12
683.158	1	8
683.327	1	9
683.496	1	-1
683.666	1	8
683.835	1	4
684.004	1	3
684.174	1	9
684.343	1	1
684.512	1	3
684.682	1	16
684.851	1	2
685.021	1	15
685.190	1	10
685.359	1	-12
685.529	1	10
685.698	1	6
685.867	1	3
686.037	1	9
686.206	1	6
686.375	1	13
686.545	1	13
686.714	1	3
686.883	1	3
687.053	1	12
687.222	1	2
687.391	1	6
687.561	1	9
687.730	1	4
687.899	1	12
688.069	1	10
688.238	1	15
688.407	1	11
688.577	1	-1
688.746	1	23
