340.368	1	-6
340.539	1	1
340.710	1	1
340.881	1	9
341.052	1	8
341.223	1	9
341.394	1	-3
341.565	1	-4
341.737	1	-1
341.908	1	6
342.079	1	-4
342.250	1	6
342.421	1	2
342.592	1	0
342.763	1	-4
342.934	1	5
343.105	1	8
343.276	1	-2
343.447	1	2
343.618	1	3
343.789	1	0
343.960	1	-1
344.131	1	-4
344.302	1	2
344.473	1	1
344.644	1	-4
344.815	1	16
344.986	1	4
345.157	1	3
345.328	1	-1
345.499	1	7
345.670	1	11
345.841	1	2
346.012	1	10
346.183	1	7
346.354	1	13
346.526	1	4
346.697	1	4
346.868	1	7
347.039	1	2
347.210	1	-5
347.381	1	1
347.552	1	0
347.723	1	3
347.894	1	0
348.065	1	8
348.236	1	3
348.407	1	2
348.578	1	0
348.749	1	18
348.920	1	4
349.091	1	4
349.262	1	0
349.433	1	-8
349.604	1	15
349.775	1	3
349.946	1	2
350.117	1	9
350.288	1	3
350.459	1	2
350.630	1	-7
350.801	1	4
350.972	1	13
351.143	1	-1
351.314	1	0
351.485	1	-3
351.656	1	9
351.827	1	-3
351.998	1	2
352.169	1	3
352.340	1	1
352.511	1	-1
352.682	1	-2
352.853	1	-3
353.024	1	-2
353.195	1	1
353.366	1	9
353.537	1	6
353.708	1	-2
353.879	1	-1
354.050	1	10
354.221	1	-5
354.392	1	12
354.563	1	7
354.734	1	1
354.905	1	-7
355.076	1	-6
355.247	1	-1
355.418	1	-3
355.589	1	1
355.760	1	15
355.931	1	4
356.102	1	-3
356.273	1	9
356.444	1	12
356.615	1	6
356.785	1	20
356.956	1	3
357.127	1	3
357.298	1	8
357.469	1	4
357.640	1	12
357.811	1	8
357.982	1	-3
358.153	1	2
358.324	1	5
358.495	1	11
358.666	1	-2
358.837	1	5
359.008	1	-5
359.179	1	4
359.350	1	2
359.521	1	2
359.692	1	11
359.863	1	-6
360.034	1	3
360.205	1	1
360.376	1	6
360.547	1	15
360.718	1	5
360.889	1	-1
361.060	1	5
361.231	1	6
361.401	1	6
361.572	1	-1
361.743	1	9
361.914	1	2
362.085	1	3
362.256	1	4
362.427	1	3
362.598	1	4
362.769	1	1
362.940	1	1
363.111	1	7
363.282	1	-3
363.453	1	5
363.624	1	1
363.795	1	6
363.966	1	5
364.137	1	8
364.308	1	0
364.478	1	7
364.649	1	2
364.820	1	2
364.991	1	3
365.162	1	-6
365.333	1	13
365.504	1	2
365.675	1	-5
365.846	1	9
366.017	1	9
366.188	1	6
366.359	1	6
366.530	1	5
366.701	1	-6
366.871	1	11
367.042	1	7
367.213	1	17
367.384	1	12
367.555	1	11
367.726	1	3
367.897	1	0
368.068	1	-1
368.239	1	7
368.410	1	4
368.581	1	11
368.752	1	-6
368.923	1	-3
369.093	1	10
369.264	1	9
369.435	1	10
369.606	1	9
369.777	1	-3
369.948	1	1
370.119	1	13
370.290	1	9
370.461	1	7
370.632	1	2
370.803	1	0
370.973	1	15
371.144	1	13
371.315	1	4
371.486	1	6
371.657	1	1
371.828	1	5
371.999	1	7
372.170	1	11
372.341	1	20
372.512	1	-7
372.682	1	-2
372.853	1	0
373.024	1	5
373.195	1	-6
373.366	1	3
373.537	1	5
373.708	1	8
373.879	1	5
374.050	1	7
374.220	1	12
374.391	1	-4
374.562	1	-4
374.733	1	19
374.904	1	13
375.075	1	6
375.246	1	4
375.417	1	8
375.588	1	1
375.758	1	-2
375.929	1	16
376.100	1	8
376.271	1	-5
376.442	1	-4
376.613	1	9
376.784	1	0
376.955	1	-8
377.125	1	-1
377.296	1	10
377.467	1	-2
377.638	1	-3
377.809	1	14
377.980	1	9
378.151	1	-7
378.321	1	13
378.492	1	10
378.663	1	-3
378.834	1	1
379.005	1	11
379.176	1	10
379.347	1	0
379.518	1	-4
379.688	1	3
379.859	1	0
380.030	1	-5
380.201	1	-8
380.372	1	4
380.543	1	4
380.714	1	9
380.884	1	2
381.055	1	2
381.226	1	0
381.397	1	-7
381.568	1	6
381.739	1	2
381.910	1	7
382.080	1	-8
382.251	1	1
382.422	1	19
382.593	1	10
382.764	1	3
382.935	1	3
383.105	1	-6
383.276	1	5
383.447	1	9
383.618	1	15
383.789	1	0
383.960	1	2
384.130	1	3
384.301	1	3
384.472	1	-7
384.643	1	15
384.814	1	14
384.985	1	8
385.156	1	18
385.326	1	12
385.497	1	8
385.668	1	9
385.839	1	16
386.010	1	10
386.180	1	15
386.351	1	5
386.522	1	14
386.693	1	12
386.864	1	0
387.035	1	5
387.205	1	8
387.376	1	15
387.547	1	5
387.718	1	14
387.889	1	10
388.060	1	1
388.230	1	2
388.401	1	17
388.572	1	6
388.743	1	14
388.914	1	12
389.084	1	15
389.255	1	4
389.426	1	17
389.597	1	3
389.768	1	2
389.939	1	19
390.109	1	5
390.280	1	21
390.451	1	18
390.622	1	1
390.793	1	10
390.963	1	7
391.134	1	13
391.305	1	11
391.476	1	18
391.647	1	4
391.817	1	9
391.988	1	0
392.159	1	21
392.330	1	9
392.501	1	10
392.671	1	13
392.842	1	19
393.013	1	8
393.184	1	13
393.355	1	13
393.525	1	11
393.696	1	5
393.867	1	13
394.038	1	3
394.208	1	6
394.379	1	-6
394.550	1	15
394.721	1	11
394.892	1	8
395.062	1	-8
395.233	1	18
395.404	1	17
395.575	1	-5
395.746	1	2
395.916	1	15
396.087	1	13
396.258	1	-2
396.429	1	7
396.599	1	7
396.770	1	8
396.941	1	19
397.112	1	5
397.283	1	9
397.453	1	-1
397.624	1	11
397.795	1	11
397.966	1	13
398.136	1	9
398.307	1	4
398.478	1	5
398.649	1	11
398.819	1	8
398.990	1	14
399.161	1	7
399.332	1	20
399.503	1	11
399.673	1	7
399.844	1	5
400.015	1	15
400.186	1	18
400.356	1	3
400.527	1	3
400.698	1	0
400.869	1	15
401.039	1	10
401.210	1	5
401.381	1	5
401.552	1	13
401.722	1	18
401.893	1	9
402.064	1	15
402.235	1	12
402.405	1	-1
402.576	1	18
402.747	1	8
402.918	1	8
403.088	1	-6
403.259	1	-1
403.430	1	2
403.601	1	-7
403.771	1	10
403.942	1	14
404.113	1	16
404.284	1	13
404.454	1	13
404.625	1	10
404.796	1	5
404.967	1	14
405.137	1	3
405.308	1	12
405.479	1	4
405.649	1	5
405.820	1	-7
405.991	1	7
406.162	1	9
406.332	1	-4
406.503	1	13
406.674	1	11
406.845	1	8
407.015	1	1
407.186	1	17
407.357	1	15
407.527	1	11
407.698	1	-1
407.869	1	3
408.040	1	-4
408.210	1	5
408.381	1	10
408.552	1	7
408.722	1	6
408.893	1	8
409.064	1	7
409.235	1	5
409.405	1	-5
409.576	1	6
409.747	1	5
409.917	1	7
410.088	1	6
410.259	1	14
410.430	1	18
410.600	1	6
410.771	1	6
410.942	1	9
411.112	1	5
411.283	1	-2
411.454	1	14
411.625	1	9
411.795	1	8
411.966	1	2
412.137	1	19
412.307	1	2
412.478	1	3
412.649	1	5
412.819	1	2
412.990	1	2
413.161	1	9
413.332	1	-2
413.502	1	10
413.673	1	5
413.844	1	2
414.014	1	10
414.185	1	5
414.356	1	0
414.526	1	4
414.697	1	10
414.868	1	9
415.038	1	6
415.209	1	8
415.380	1	9
415.550	1	-3
415.721	1	5
415.892	1	-7
416.063	1	18
416.233	1	4
416.404	1	1
416.575	1	4
416.745	1	-5
416.916	1	-2
417.087	1	-1
417.257	1	8
417.428	1	1
417.599	1	8
417.769	1	10
417.940	1	-1
418.111	1	4
418.281	1	9
418.452	1	9
418.623	1	2
418.793	1	13
418.964	1	14
419.135	1	7
419.305	1	0
419.476	1	1
419.647	1	6
419.817	1	6
419.988	1	-2
420.159	1	6
420.329	1	4
420.500	1	14
420.671	1	9
420.841	1	7
421.012	1	14
421.183	1	5
421.353	1	15
421.524	1	6
421.695	1	5
421.865	1	8
422.036	1	10
422.206	1	1
422.377	1	6
422.548	1	8
422.718	1	1
422.889	1	10
423.060	1	-4
423.230	1	-1
423.401	1	4
423.572	1	4
423.742	1	6
423.913	1	11
424.084	1	10
424.254	1	7
424.425	1	0
424.595	1	-1
424.766	1	7
424.937	1	7
425.107	1	-3
425.278	1	-3
425.449	1	0
425.619	1	1
425.790	1	-1
425.961	1	1
426.131	1	1
426.302	1	9
426.472	1	-11
426.643	1	2
426.814	1	15
426.984	1	5
427.155	1	0
427.326	1	7
427.496	1	13
427.667	1	10
427.837	1	-4
428.008	1	1
428.179	1	3
428.349	1	5
428.520	1	-4
428.691	1	4
428.861	1	5
429.032	1	-5
429.202	1	13
429.373	1	-8
429.544	1	6
429.714	1	11
429.885	1	-2
430.055	1	3
430.226	1	-2
430.397	1	11
430.567	1	9
430.738	1	9
430.909	1	-5
431.079	1	14
431.250	1	-1
431.420	1	8
431.591	1	5
431.762	1	2
431.932	1	9
432.103	1	-6
432.273	1	0
432.444	1	3
432.615	1	4
432.785	1	0
432.956	1	1
433.126	1	13
433.297	1	12
433.468	1	4
433.638	1	0
433.809	1	0
433.979	1	2
434.150	1	5
434.320	1	4
434.491	1	9
434.662	1	6
434.832	1	5
435.003	1	11
435.173	1	0
435.344	1	13
435.515	1	-1
435.685	1	1
435.856	1	-1
436.026	1	1
436.197	1	-2
436.368	1	5
436.538	1	6
436.709	1	-3
436.879	1	6
437.050	1	4
437.220	1	13
437.391	1	9
437.562	1	15
437.732	1	12
437.903	1	11
438.073	1	15
438.244	1	-6
438.414	1	2
438.585	1	7
438.756	1	-3
438.926	1	3
439.097	1	10
439.267	1	9
439.438	1	11
439.608	1	6
439.779	1	4
439.949	1	0
440.120	1	11
440.291	1	-2
440.461	1	-3
440.632	1	-5
440.802	1	-1
440.973	1	4
441.143	1	1
441.314	1	9
441.485	1	10
441.655	1	14
441.826	1	-1
441.996	1	10
442.167	1	8
442.337	1	-4
442.508	1	-1
442.678	1	-4
442.849	1	5
443.019	1	6
443.190	1	0
443.361	1	8
443.531	1	1
443.702	1	-1
443.872	1	0
444.043	1	1
444.213	1	-2
444.384	1	6
444.554	1	-8
444.725	1	4
444.895	1	-4
445.066	1	-6
445.237	1	5
445.407	1	-6
445.578	1	17
445.748	1	-5
445.919	1	-3
446.089	1	15
446.260	1	0
446.430	1	-10
446.601	1	3
446.771	1	7
446.942	1	0
447.112	1	3
447.283	1	7
447.453	1	-4
447.624	1	8
447.794	1	-11
447.965	1	-2
448.135	1	7
448.306	1	2
448.477	1	-1
448.647	1	13
448.818	1	11
448.988	1	-11
449.159	1	-3
449.329	1	5
449.500	1	7
449.670	1	8
449.841	1	17
450.011	1	9
450.182	1	-2
450.352	1	8
450.523	1	-6
450.693	1	17
450.864	1	2
451.034	1	4
451.205	1	6
451.375	1	7
451.546	1	2
451.716	1	6
451.887	1	-4
452.057	1	3
452.228	1	-7
452.398	1	-1
452.569	1	9
452.739	1	5
452.910	1	-3
453.080	1	14
453.251	1	5
453.421	1	10
453.592	1	5
453.762	1	9
453.933	1	3
454.103	1	-7
454.274	1	-1
454.444	1	9
454.615	1	9
454.785	1	-1
454.956	1	-7
455.126	1	14
455.297	1	4
455.467	1	7
455.638	1	4
455.808	1	3
455.979	1	12
456.149	1	0
456.320	1	3
456.490	1	10
456.661	1	-3
456.831	1	15
457.001	1	12
457.172	1	-1
457.342	1	5
457.513	1	5
457.683	1	2
457.854	1	-2
458.024	1	2
458.195	1	-3
458.365	1	7
458.536	1	9
458.706	1	-8
458.877	1	4
459.047	1	4
459.218	1	15
459.388	1	2
459.559	1	4
459.729	1	7
459.899	1	11
460.070	1	9
460.240	1	7
460.411	1	7
460.581	1	6
460.752	1	6
460.922	1	1
461.093	1	5
461.263	1	7
461.434	1	9
461.604	1	4
461.775	1	6
461.945	1	5
462.115	1	1
462.286	1	13
462.456	1	-6
462.627	1	-5
462.797	1	-4
462.968	1	-4
463.138	1	4
463.309	1	5
463.479	1	11
463.649	1	0
463.820	1	0
463.990	1	7
464.161	1	7
464.331	1	-3
464.502	1	16
464.672	1	-4
464.843	1	8
465.013	1	-6
465.183	1	3
465.354	1	9
465.524	1	10
465.695	1	23
465.865	1	2
466.036	1	6
466.206	1	3
466.376	1	2
466.547	1	3
466.717	1	-1
466.888	1	0
467.058	1	11
467.229	1	14
467.399	1	10
467.569	1	7
467.740	1	2
467.910	1	-2
468.081	1	6
468.251	1	-1
468.422	1	2
468.592	1	9
468.762	1	-1
468.933	1	8
469.103	1	-2
469.274	1	1
469.444	1	2
469.614	1	-2
469.785	1	9
469.955	1	0
470.126	1	8
470.296	1	1
470.467	1	-8
470.637	1	20
470.807	1	-7
470.978	1	-2
471.148	1	-3
471.319	1	5
471.489	1	-1
471.659	1	1
471.830	1	11
472.000	1	6
472.171	1	8
472.341	1	9
472.511	1	14
472.682	1	6
472.852	1	2
473.023	1	0
473.193	1	-2
473.363	1	1
473.534	1	3
473.704	1	8
473.875	1	6
474.045	1	-2
474.215	1	7
474.386	1	11
474.556	1	-6
474.727	1	8
474.897	1	9
475.067	1	16
475.238	1	2
475.408	1	2
475.578	1	5
475.749	1	-10
475.919	1	-1
476.090	1	3
476.260	1	6
476.430	1	-2
476.601	1	5
476.771	1	7
476.942	1	0
477.112	1	4
477.282	1	-2
477.453	1	-5
477.623	1	5
477.793	1	6
477.964	1	9
478.134	1	6
478.305	1	5
478.475	1	-2
478.645	1	0
478.816	1	5
478.986	1	-8
479.156	1	4
479.327	1	-7
479.497	1	0
479.667	1	11
479.838	1	-2
480.008	1	4
480.179	1	8
480.349	1	7
480.519	1	1
480.690	1	7
480.860	1	-8
481.030	1	-6
481.201	1	-1
481.371	1	3
481.541	1	9
481.712	1	-2
481.882	1	-2
482.053	1	11
482.223	1	-1
482.393	1	-8
482.564	1	0
482.734	1	10
482.904	1	-2
483.075	1	1
483.245	1	1
483.415	1	10
483.586	1	5
483.756	1	1
483.926	1	9
484.097	1	1
484.267	1	0
484.437	1	-1
484.608	1	1
484.778	1	10
484.948	1	-10
485.119	1	6
485.289	1	2
485.459	1	10
485.630	1	7
485.800	1	1
485.970	1	1
486.141	1	-16
486.311	1	11
486.481	1	-2
486.652	1	7
486.822	1	3
486.992	1	-4
487.163	1	-11
487.333	1	-6
487.503	1	-14
487.674	1	1
487.844	1	9
488.014	1	7
488.185	1	-9
488.355	1	-3
488.525	1	2
488.696	1	-5
488.866	1	11
489.036	1	-1
489.207	1	7
489.377	1	4
489.547	1	-14
489.718	1	-6
489.888	1	1
490.058	1	5
490.228	1	-5
490.399	1	19
490.569	1	6
490.739	1	13
490.910	1	-2
491.080	1	-7
491.250	1	1
491.421	1	9
491.591	1	-6
491.761	1	6
491.932	1	3
492.102	1	-7
492.272	1	14
492.442	1	13
492.613	1	-4
492.783	1	-10
492.953	1	4
493.124	1	1
493.294	1	13
493.464	1	-2
493.635	1	5
493.805	1	16
493.975	1	10
494.145	1	7
494.316	1	20
494.486	1	4
494.656	1	1
494.827	1	0
494.997	1	-4
495.167	1	4
495.337	1	2
495.508	1	5
495.678	1	23
495.848	1	5
496.019	1	9
496.189	1	-2
496.359	1	0
496.529	1	1
496.700	1	1
496.870	1	-7
497.040	1	-2
497.211	1	9
497.381	1	-9
497.551	1	13
497.721	1	-13
497.892	1	6
498.062	1	0
498.232	1	7
498.403	1	8
498.573	1	-7
498.743	1	7
498.913	1	9
499.084	1	-13
499.254	1	5
499.424	1	22
499.594	1	2
499.765	1	0
499.935	1	-6
500.105	1	6
500.275	1	6
500.446	1	12
500.616	1	16
500.786	1	9
500.956	1	-1
501.127	1	15
501.297	1	6
501.467	1	7
501.638	1	5
501.808	1	-4
501.978	1	5
502.148	1	10
502.319	1	10
502.489	1	6
502.659	1	1
502.829	1	6
503.000	1	13
503.170	1	3
503.340	1	-3
503.510	1	2
503.681	1	7
503.851	1	-16
504.021	1	25
504.191	1	10
504.362	1	12
504.532	1	-2
504.702	1	4
504.872	1	-2
505.042	1	3
505.213	1	-6
505.383	1	3
505.553	1	5
505.723	1	6
505.894	1	12
506.064	1	20
506.234	1	16
506.404	1	-4
506.575	1	-5
506.745	1	-1
506.915	1	-1
507.085	1	-2
507.256	1	-9
507.426	1	6
507.596	1	0
507.766	1	3
507.936	1	12
508.107	1	3
508.277	1	1
508.447	1	14
508.617	1	13
508.788	1	2
508.958	1	11
509.128	1	9
509.298	1	20
509.468	1	5
509.639	1	12
509.809	1	16
509.979	1	0
510.149	1	8
510.319	1	-2
510.490	1	5
510.660	1	7
510.830	1	12
511.000	1	9
511.171	1	12
511.341	1	1
511.511	1	-2
511.681	1	-1
511.851	1	3
512.022	1	-2
512.192	1	9
512.362	1	8
512.532	1	1
512.702	1	-7
512.873	1	10
513.043	1	8
513.213	1	12
513.383	1	-3
513.553	1	-5
513.724	1	7
513.894	1	1
514.064	1	10
514.234	1	2
514.404	1	5
514.575	1	6
514.745	1	8
514.915	1	16
515.085	1	7
515.255	1	-2
515.425	1	-5
515.596	1	2
515.766	1	9
515.936	1	10
516.106	1	2
516.276	1	6
516.447	1	3
516.617	1	8
516.787	1	1
516.957	1	4
517.127	1	8
517.297	1	8
517.468	1	2
517.638	1	15
517.808	1	2
517.978	1	3
518.148	1	-2
518.319	1	5
518.489	1	9
518.659	1	6
518.829	1	-8
518.999	1	3
519.169	1	8
519.340	1	1
519.510	1	7
519.680	1	1
519.850	1	-2
520.020	1	-6
520.190	1	3
520.361	1	0
520.531	1	1
520.701	1	8
520.871	1	-4
521.041	1	-4
521.211	1	9
521.382	1	0
521.552	1	4
521.722	1	6
521.892	1	5
522.062	1	1
522.232	1	2
522.402	1	-7
522.573	1	7
522.743	1	12
522.913	1	4
523.083	1	2
523.253	1	0
523.423	1	-1
523.593	1	-9
523.764	1	13
523.934	1	11
524.104	1	-5
524.274	1	-4
524.444	1	9
524.614	1	-1
524.784	1	17
524.955	1	4
525.125	1	13
525.295	1	-2
525.465	1	-1
525.635	1	13
525.805	1	6
525.975	1	-1
526.146	1	3
526.316	1	4
526.486	1	5
526.656	1	23
526.826	1	13
526.996	1	20
527.166	1	8
527.337	1	0
527.507	1	-1
527.677	1	16
527.847	1	3
528.017	1	-11
528.187	1	2
528.357	1	12
528.527	1	3
528.698	1	4
528.868	1	-2
529.038	1	10
529.208	1	1
529.378	1	5
529.548	1	7
529.718	1	5
529.888	1	6
530.058	1	5
530.229	1	5
530.399	1	12
530.569	1	22
530.739	1	6
530.909	1	6
531.079	1	2
531.249	1	4
531.419	1	17
531.589	1	-4
531.760	1	5
531.930	1	8
532.100	1	9
532.270	1	5
532.440	1	4
532.610	1	6
532.780	1	-3
532.950	1	-1
533.120	1	2
533.290	1	5
533.461	1	15
533.631	1	7
533.801	1	3
533.971	1	0
534.141	1	11
534.311	1	10
534.481	1	8
534.651	1	12
534.821	1	8
534.991	1	-2
535.162	1	3
535.332	1	7
535.502	1	6
535.672	1	-3
535.842	1	11
536.012	1	16
536.182	1	13
536.352	1	7
536.522	1	12
536.692	1	5
536.862	1	8
537.032	1	1
537.203	1	11
537.373	1	2
537.543	1	11
537.713	1	19
537.883	1	11
538.053	1	18
538.223	1	15
538.393	1	1
538.563	1	0
538.733	1	1
538.903	1	-3
539.073	1	11
539.243	1	5
539.413	1	0
539.584	1	9
539.754	1	1
539.924	1	11
540.094	1	10
540.264	1	13
540.434	1	-1
540.604	1	2
540.774	1	1
540.944	1	3
541.114	1	-3
541.284	1	4
541.454	1	10
541.624	1	5
541.794	1	6
541.964	1	14
542.134	1	7
542.305	1	-9
542.475	1	-3
542.645	1	5
542.815	1	8
542.985	1	-1
543.155	1	4
543.325	1	2
543.495	1	2
543.665	1	15
543.835	1	4
544.005	1	3
544.175	1	2
544.345	1	-4
544.515	1	4
544.685	1	10
544.855	1	15
545.025	1	0
545.195	1	3
545.365	1	6
545.535	1	5
545.705	1	5
545.875	1	2
546.045	1	18
546.216	1	18
546.386	1	3
546.556	1	5
546.726	1	5
546.896	1	10
547.066	1	-1
547.236	1	-9
547.406	1	11
547.576	1	4
547.746	1	5
547.916	1	15
548.086	1	15
548.256	1	5
548.426	1	4
548.596	1	4
548.766	1	9
548.936	1	1
549.106	1	3
549.276	1	10
549.446	1	3
549.616	1	8
549.786	1	2
549.956	1	17
550.126	1	0
550.296	1	6
550.466	1	2
550.636	1	6
550.806	1	15
550.976	1	10
551.146	1	1
551.316	1	4
551.486	1	10
551.656	1	-2
551.826	1	8
551.996	1	10
552.166	1	4
552.336	1	1
552.506	1	-7
552.676	1	7
552.846	1	0
553.016	1	10
553.186	1	5
553.356	1	5
553.526	1	1
553.696	1	13
553.866	1	5
554.036	1	1
554.206	1	6
554.376	1	-2
554.546	1	-2
554.716	1	3
554.886	1	7
555.056	1	-10
555.226	1	-1
555.396	1	2
555.566	1	4
555.736	1	3
555.906	1	11
556.076	1	5
556.246	1	7
556.416	1	-2
556.586	1	12
556.756	1	3
556.926	1	-2
557.096	1	3
557.266	1	10
557.436	1	18
557.606	1	-2
557.776	1	8
557.946	1	12
558.116	1	8
558.286	1	-3
558.456	1	3
558.626	1	6
558.796	1	6
558.966	1	7
559.136	1	12
559.306	1	3
559.476	1	3
559.646	1	-2
559.816	1	3
559.986	1	-6
560.155	1	9
560.325	1	-11
560.495	1	8
560.665	1	4
560.835	1	-3
561.005	1	7
561.175	1	-2
561.345	1	2
561.515	1	-3
561.685	1	-6
561.855	1	21
562.025	1	-1
562.195	1	4
562.365	1	11
562.535	1	13
562.705	1	11
562.875	1	0
563.045	1	7
563.215	1	5
563.385	1	1
563.555	1	15
563.725	1	1
563.895	1	7
564.064	1	8
564.234	1	8
564.404	1	2
564.574	1	4
564.744	1	13
564.914	1	-9
565.084	1	3
565.254	1	7
565.424	1	7
565.594	1	-5
565.764	1	12
565.934	1	7
566.104	1	2
566.274	1	-1
566.444	1	15
566.614	1	7
566.783	1	3
566.953	1	13
567.123	1	10
567.293	1	5
567.463	1	3
567.633	1	2
567.803	1	-4
567.973	1	0
568.143	1	-8
568.313	1	1
568.483	1	-3
568.653	1	-1
568.823	1	3
568.993	1	3
569.162	1	8
569.332	1	-12
569.502	1	-3
569.672	1	13
569.842	1	1
570.012	1	4
570.182	1	-1
570.352	1	5
570.522	1	9
570.692	1	8
570.862	1	3
571.031	1	2
571.201	1	1
571.371	1	-7
571.541	1	6
571.711	1	8
571.881	1	6
572.051	1	8
572.221	1	8
572.391	1	10
572.561	1	-9
572.731	1	6
572.900	1	11
573.070	1	4
573.240	1	-4
573.410	1	3
573.580	1	3
573.750	1	16
573.920	1	-5
574.090	1	4
574.260	1	-3
574.430	1	-9
574.599	1	4
574.769	1	-4
574.939	1	6
575.109	1	4
575.279	1	11
575.449	1	4
575.619	1	9
575.789	1	9
575.959	1	-11
576.128	1	-6
576.298	1	-8
576.468	1	-2
576.638	1	-2
576.808	1	1
576.978	1	-1
577.148	1	6
577.318	1	9
577.487	1	5
577.657	1	-1
577.827	1	7
577.997	1	-6
578.167	1	7
578.337	1	4
578.507	1	-2
578.677	1	1
578.846	1	1
579.016	1	11
579.186	1	0
579.356	1	-5
579.526	1	-3
579.696	1	-1
579.866	1	9
580.036	1	-3
580.205	1	-1
580.375	1	2
580.545	1	-7
580.715	1	10
580.885	1	-1
581.055	1	4
581.225	1	-3
581.394	1	-3
581.564	1	-2
581.734	1	3
581.904	1	3
582.074	1	-2
582.244	1	5
582.414	1	7
582.583	1	1
582.753	1	9
582.923	1	14
583.093	1	-1
583.263	1	8
583.433	1	-6
583.603	1	6
583.772	1	5
583.942	1	1
584.112	1	3
584.282	1	17
584.452	1	5
584.622	1	-1
584.791	1	9
584.961	1	9
585.131	1	-8
585.301	1	7
585.471	1	3
585.641	1	12
585.811	1	-6
585.980	1	-6
586.150	1	6
586.320	1	-2
586.490	1	-10
586.660	1	7
586.830	1	-10
586.999	1	4
587.169	1	5
587.339	1	12
587.509	1	6
587.679	1	9
587.849	1	9
588.018	1	9
588.188	1	-3
588.358	1	9
588.528	1	5
588.698	1	-3
588.867	1	8
589.037	1	9
589.207	1	-15
589.377	1	4
589.547	1	-8
589.717	1	7
589.886	1	1
590.056	1	4
590.226	1	6
590.396	1	8
590.566	1	1
590.735	1	15
590.905	1	13
591.075	1	-5
591.245	1	0
591.415	1	8
591.585	1	-2
591.754	1	2
591.924	1	-6
592.094	1	3
592.264	1	-8
592.434	1	7
592.603	1	8
592.773	1	4
592.943	1	3
593.113	1	-10
593.283	1	2
593.452	1	-4
593.622	1	5
593.792	1	1
593.962	1	15
594.132	1	1
594.301	1	11
594.471	1	2
594.641	1	1
594.811	1	0
594.981	1	0
595.150	1	9
595.320	1	6
595.490	1	3
595.660	1	8
595.829	1	-4
595.999	1	4
596.169	1	6
596.339	1	11
596.509	1	9
596.678	1	-2
596.848	1	9
597.018	1	11
597.188	1	7
597.358	1	5
597.527	1	-7
597.697	1	-4
597.867	1	8
598.037	1	4
598.206	1	-5
598.376	1	8
598.546	1	4
598.716	1	-6
598.885	1	5
599.055	1	-3
599.225	1	3
599.395	1	4
599.565	1	5
599.734	1	5
599.904	1	-16
600.074	1	-5
600.244	1	7
600.413	1	8
600.583	1	0
600.753	1	8
600.923	1	14
601.092	1	-11
601.262	1	-1
601.432	1	3
601.602	1	4
601.771	1	9
601.941	1	2
602.111	1	-2
602.281	1	-4
602.451	1	-2
602.620	1	6
602.790	1	-4
602.960	1	-3
603.130	1	6
603.299	1	4
603.469	1	1
603.639	1	20
603.809	1	11
603.978	1	6
604.148	1	1
604.318	1	5
604.487	1	3
604.657	1	5
604.827	1	-10
604.997	1	-7
605.166	1	-1
605.336	1	-5
605.506	1	9
605.676	1	0
605.845	1	0
606.015	1	5
606.185	1	-1
606.355	1	3
606.524	1	4
606.694	1	9
606.864	1	-1
607.034	1	5
607.203	1	4
607.373	1	2
607.543	1	-6
607.712	1	8
607.882	1	-8
608.052	1	-2
608.222	1	0
608.391	1	-4
608.561	1	10
608.731	1	-6
608.901	1	13
609.070	1	11
609.240	1	2
609.410	1	0
609.579	1	-3
609.749	1	-2
609.919	1	-2
610.089	1	-5
610.258	1	14
610.428	1	1
610.598	1	1
610.767	1	-1
610.937	1	3
611.107	1	8
611.277	1	6
611.446	1	-3
611.616	1	4
611.786	1	14
611.955	1	6
612.125	1	0
612.295	1	6
612.465	1	-4
612.634	1	-7
612.804	1	9
612.974	1	15
613.143	1	0
613.313	1	8
613.483	1	4
613.652	1	-2
613.822	1	7
613.992	1	4
614.162	1	3
614.331	1	9
614.501	1	-1
614.671	1	1
614.840	1	-5
615.010	1	1
615.180	1	6
615.349	1	5
615.519	1	8
615.689	1	2
615.858	1	4
616.028	1	5
616.198	1	3
616.368	1	5
616.537	1	-1
616.707	1	3
616.877	1	6
617.046	1	12
617.216	1	2
617.386	1	-1
617.555	1	0
617.725	1	3
617.895	1	-10
618.064	1	7
618.234	1	7
618.404	1	5
618.573	1	3
618.743	1	-6
618.913	1	0
619.082	1	6
619.252	1	3
619.422	1	6
619.591	1	1
619.761	1	8
619.931	1	8
620.100	1	3
620.270	1	3
620.440	1	0
620.609	1	-7
620.779	1	4
620.949	1	-6
621.118	1	-7
621.288	1	8
621.458	1	15
621.627	1	-1
621.797	1	8
621.967	1	-7
622.136	1	7
622.306	1	4
622.476	1	5
622.645	1	4
622.815	1	-2
622.985	1	11
623.154	1	4
623.324	1	-1
623.494	1	6
623.663	1	11
623.833	1	1
624.002	1	-6
624.172	1	14
624.342	1	-3
624.511	1	4
624.681	1	-6
624.851	1	-6
625.020	1	6
625.190	1	-2
625.360	1	-10
625.529	1	5
625.699	1	-6
625.869	1	2
626.038	1	7
626.208	1	-2
626.377	1	14
626.547	1	-5
626.717	1	1
626.886	1	-9
627.056	1	5
627.226	1	-8
627.395	1	11
627.565	1	12
627.735	1	10
627.904	1	11
628.074	1	10
628.243	1	-9
628.413	1	0
628.583	1	-2
628.752	1	9
628.922	1	2
629.091	1	0
629.261	1	6
629.431	1	-9
629.600	1	5
629.770	1	7
629.940	1	10
630.109	1	-7
630.279	1	-4
630.448	1	-3
630.618	1	0
630.788	1	2
630.957	1	5
631.127	1	5
631.297	1	-7
631.466	1	9
631.636	1	-8
631.805	1	5
631.975	1	8
632.145	1	-4
632.314	1	13
632.484	1	-8
632.653	1	-8
632.823	1	11
632.993	1	8
633.162	1	1
633.332	1	0
633.501	1	3
633.671	1	11
633.841	1	2
634.010	1	1
634.180	1	4
634.349	1	5
634.519	1	13
634.689	1	14
634.858	1	10
635.028	1	11
635.197	1	-2
635.367	1	2
635.537	1	6
635.706	1	1
635.876	1	-5
636.045	1	1
636.215	1	3
636.384	1	9
636.554	1	8
636.724	1	2
636.893	1	5
637.063	1	9
637.232	1	-5
637.402	1	12
637.572	1	-6
637.741	1	9
637.911	1	-3
638.080	1	0
638.250	1	14
638.419	1	10
638.589	1	9
638.759	1	-1
638.928	1	-7
639.098	1	4
639.267	1	0
639.437	1	-4
639.606	1	11
639.776	1	-3
639.946	1	3
640.115	1	0
640.285	1	7
640.454	1	16
640.624	1	7
640.793	1	5
640.963	1	-11
641.132	1	15
641.302	1	-1
641.472	1	-3
641.641	1	-8
641.811	1	-2
641.980	1	-2
642.150	1	-2
642.319	1	-8
642.489	1	-3
642.659	1	-3
642.828	1	6
642.998	1	-7
643.167	1	9
643.337	1	12
643.506	1	-1
643.676	1	11
643.845	1	0
644.015	1	3
644.184	1	10
644.354	1	6
644.524	1	-7
644.693	1	6
644.863	1	-11
645.032	1	-4
645.202	1	2
645.371	1	-4
645.541	1	-1
645.710	1	8
645.880	1	2
646.049	1	15
646.219	1	4
646.388	1	7
646.558	1	1
646.728	1	9
646.897	1	6
647.067	1	3
647.236	1	3
647.406	1	2
647.575	1	0
647.745	1	-1
647.914	1	1
648.084	1	8
648.253	1	3
648.423	1	-1
648.592	1	6
648.762	1	-6
648.931	1	12
649.101	1	10
649.270	1	9
649.440	1	3
649.610	1	13
649.779	1	-10
649.949	1	-4
650.118	1	-3
650.288	1	2
650.457	1	2
650.627	1	6
650.796	1	-3
650.966	1	3
651.135	1	8
651.305	1	-3
651.474	1	3
651.644	1	4
651.813	1	12
651.983	1	8
652.152	1	9
652.322	1	12
652.491	1	6
652.661	1	1
652.830	1	1
653.000	1	0
653.169	1	6
653.339	1	9
653.508	1	4
653.678	1	-2
653.847	1	1
654.017	1	8
654.186	1	-5
654.356	1	10
654.525	1	4
654.695	1	12
654.864	1	3
655.034	1	7
655.203	1	10
655.373	1	1
655.542	1	-5
655.712	1	-2
655.881	1	6
656.051	1	6
656.220	1	1
656.390	1	1
656.559	1	-4
656.729	1	8
656.898	1	8
657.068	1	3
657.237	1	10
657.406	1	10
657.576	1	0
657.745	1	-4
657.915	1	6
658.084	1	5
658.254	1	9
658.423	1	-4
658.593	1	-10
658.762	1	-7
658.932	1	-2
659.101	1	-5
659.271	1	12
659.440	1	11
659.610	1	3
659.779	1	2
659.949	1	3
660.118	1	8
660.288	1	-2
660.457	1	-4
660.626	1	6
660.796	1	1
660.965	1	3
661.135	1	6
661.304	1	6
661.474	1	8
661.643	1	3
661.813	1	-1
661.982	1	4
662.152	1	5
662.321	1	1
662.491	1	1
662.660	1	2
662.829	1	-1
662.999	1	-6
663.168	1	-4
663.338	1	0
663.507	1	-4
663.677	1	-13
663.846	1	9
664.016	1	-4
664.185	1	5
664.354	1	15
664.524	1	-5
664.693	1	-5
664.863	1	1
665.032	1	5
665.202	1	-8
665.371	1	-5
665.541	1	7
665.710	1	-2
665.879	1	-2
666.049	1	3
666.218	1	0
666.388	1	-11
666.557	1	-2
666.727	1	-11
666.896	1	3
667.065	1	6
667.235	1	0
667.404	1	-4
667.574	1	4
667.743	1	4
667.913	1	6
668.082	1	3
668.251	1	4
668.421	1	-2
668.590	1	-10
668.760	1	-7
668.929	1	5
669.099	1	-5
669.268	1	3
669.437	1	10
669.607	1	-7
669.776	1	-1
669.946	1	6
670.115	1	-11
670.285	1	7
670.454	1	3
670.623	1	4
670.793	1	-5
670.962	1	6
671.132	1	-1
671.301	1	-5
671.470	1	-2
671.640	1	-19
671.809	1	-4
671.979	1	14
672.148	1	6
672.317	1	-8
672.487	1	-4
672.656	1	4
672.826	1	-6
672.995	1	5
673.164	1	9
673.334	1	10
673.503	1	-6
673.673	1	18
673.842	1	4
674.011	1	1
674.181	1	-8
674.350	1	-3
674.520	1	-4
674.689	1	-1
674.858	1	-5
675.028	1	8
675.197	1	-4
675.367	1	1
675.536	1	11
675.705	1	-5
675.875	1	-1
676.044	1	-5
676.214	1	-2
676.383	1	-1
676.552	1	-6
676.722	1	0
676.891	1	-11
677.060	1	8
677.230	1	9
677.399	1	-2
677.569	1	1
677.738	1	-10
677.907	1	-9
678.077	1	8
678.246	1	-2
678.416	1	1
678.585	1	9
678.754	1	3
678.924	1	-8
679.093	1	2
679.262	1	2
679.432	1	-4
679.601	1	-10
679.771	1	14
679.940	1	-8
680.109	1	8
680.279	1	-1
680.448	1	6
680.617	1	0
680.787	1	3
680.956	1	-8
681.125	1	5
681.295	1	15
681.464	1	0
681.634	1	4
681.803	1	-13
681.972	1	6
682.142	1	3
682.311	1	0
682.480	1	1
682.650	1	4
682.819	1	6
682.988	1	0
683.158	1	2
683.327	1	7
683.496	1	-5
683.666	1	2
683.835	1	1
684.004	1	4
684.174	1	-2
684.343	1	1
684.512	1	1
684.682	1	2
684.851	1	3
685.021	1	12
685.190	1	2
685.359	1	-7
685.529	1	10
685.698	1	-3
685.867	1	-1
686.037	1	-4
686.206	1	6
686.375	1	2
686.545	1	10
686.714	1	5
686.883	1	-6
687.053	1	1
687.222	1	-10
687.391	1	-5
687.561	1	1
687.730	1	2
687.899	1	0
688.069	1	-2
688.238	1	6
688.407	1	9
688.577	1	-4
688.746	1	14
