340.368	1	13
340.539	1	0
340.710	1	2
340.881	1	2
341.052	1	10
341.223	1	5
341.394	1	-2
341.565	1	-4
341.737	1	13
341.908	1	6
342.079	1	5
342.250	1	1
342.421	1	-2
342.592	1	-8
342.763	1	3
342.934	1	1
343.105	1	20
343.276	1	1
343.447	1	14
343.618	1	0
343.789	1	1
343.960	1	-3
344.131	1	1
344.302	1	5
344.473	1	10
344.644	1	9
344.815	1	11
344.986	1	4
345.157	1	4
345.328	1	-8
345.499	1	9
345.670	1	4
345.841	1	5
346.012	1	17
346.183	1	5
346.354	1	0
346.526	1	9
346.697	1	1
346.868	1	2
347.039	1	2
347.210	1	1
347.381	1	12
347.552	1	6
347.723	1	8
347.894	1	5
348.065	1	12
348.236	1	7
348.407	1	5
348.578	1	3
348.749	1	12
348.920	1	20
349.091	1	10
349.262	1	9
349.433	1	-4
349.604	1	16
349.775	1	14
349.946	1	13
350.117	1	17
350.288	1	4
350.459	1	12
350.630	1	-9
350.801	1	9
350.972	1	7
351.143	1	-2
351.314	1	-2
351.485	1	0
351.656	1	7
351.827	1	3
351.998	1	-3
352.169	1	11
352.340	1	-1
352.511	1	4
352.682	1	1
352.853	1	7
353.024	1	1
353.195	1	0
353.366	1	9
353.537	1	0
353.708	1	7
353.879	1	8
354.050	1	12
354.221	1	-6
354.392	1	10
354.563	1	8
354.734	1	12
354.905	1	9
355.076	1	1
355.247	1	3
355.418	1	8
355.589	1	4
355.760	1	13
355.931	1	1
356.102	1	7
356.273	1	12
356.444	1	9
356.615	1	17
356.785	1	20
356.956	1	6
357.127	1	10
357.298	1	2
357.469	1	6
357.640	1	13
357.811	1	20
357.982	1	1
358.153	1	12
358.324	1	10
358.495	1	16
358.666	1	5
358.837	1	13
359.008	1	12
359.179	1	8
359.350	1	4
359.521	1	4
359.692	1	17
359.863	1	2
360.034	1	12
360.205	1	3
360.376	1	14
360.547	1	5
360.718	1	9
360.889	1	23
361.060	1	19
361.231	1	11
361.401	1	19
361.572	1	15
361.743	1	19
361.914	1	10
362.085	1	12
362.256	1	16
362.427	1	13
362.598	1	19
362.769	1	29
362.940	1	21
363.111	1	25
363.282	1	14
363.453	1	26
363.624	1	29
363.795	1	21
363.966	1	33
364.137	1	23
364.308	1	32
364.478	1	20
364.649	1	24
364.820	1	26
364.991	1	31
365.162	1	22
365.333	1	38
365.504	1	20
365.675	1	34
365.846	1	30
366.017	1	31
366.188	1	35
366.359	1	42
366.530	1	35
366.701	1	39
366.871	1	44
367.042	1	45
367.213	1	48
367.384	1	50
367.555	1	37
367.726	1	49
367.897	1	31
368.068	1	29
368.239	1	54
368.410	1	35
368.581	1	43
368.752	1	24
368.923	1	26
369.093	1	41
369.264	1	29
369.435	1	33
369.606	1	40
369.777	1	19
369.948	1	34
370.119	1	37
370.290	1	16
370.461	1	31
370.632	1	38
370.803	1	22
370.973	1	30
371.144	1	37
371.315	1	18
371.486	1	17
371.657	1	33
371.828	1	16
371.999	1	24
372.170	1	30
372.341	1	27
372.512	1	15
372.682	1	9
372.853	1	26
373.024	1	23
373.195	1	6
373.366	1	19
373.537	1	24
373.708	1	24
373.879	1	30
374.050	1	25
374.220	1	25
374.391	1	26
374.562	1	15
374.733	1	26
374.904	1	25
375.075	1	9
375.246	1	17
375.417	1	23
375.588	1	25
375.758	1	14
375.929	1	23
376.100	1	20
376.271	1	7
376.442	1	9
376.613	1	16
376.784	1	21
376.955	1	11
377.125	1	22
377.296	1	22
377.467	1	7
377.638	1	13
377.809	1	24
377.980	1	22
378.151	1	10
378.321	1	14
378.492	1	14
378.663	1	4
378.834	1	17
379.005	1	26
379.176	1	17
379.347	1	15
379.518	1	6
379.688	1	6
379.859	1	15
380.030	1	9
380.201	1	11
380.372	1	11
380.543	1	20
380.714	1	11
380.884	1	10
381.055	1	14
381.226	1	12
381.397	1	14
381.568	1	24
381.739	1	26
381.910	1	27
382.080	1	7
382.251	1	24
382.422	1	22
382.593	1	14
382.764	1	16
382.935	1	29
383.105	1	27
383.276	1	23
383.447	1	32
383.618	1	31
383.789	1	26
383.960	1	20
384.130	1	26
384.301	1	27
384.472	1	20
384.643	1	32
384.814	1	38
384.985	1	41
385.156	1	38
385.326	1	50
385.497	1	52
385.668	1	32
385.839	1	42
386.010	1	41
386.180	1	41
386.351	1	39
386.522	1	53
386.693	1	32
386.864	1	46
387.035	1	40
387.205	1	43
387.376	1	49
387.547	1	43
387.718	1	49
387.889	1	51
388.060	1	31
388.230	1	47
388.401	1	51
388.572	1	34
388.743	1	37
388.914	1	47
389.084	1	47
389.255	1	47
389.426	1	44
389.597	1	32
389.768	1	40
389.939	1	43
390.109	1	38
390.280	1	50
390.451	1	47
390.622	1	26
390.793	1	41
390.963	1	43
391.134	1	36
391.305	1	47
391.476	1	45
391.647	1	43
391.817	1	37
391.988	1	29
392.159	1	47
392.330	1	44
392.501	1	42
392.671	1	43
392.842	1	47
393.013	1	40
393.184	1	42
393.355	1	54
393.525	1	39
393.696	1	37
393.867	1	32
394.038	1	34
394.208	1	40
394.379	1	25
394.550	1	37
394.721	1	42
394.892	1	38
395.062	1	28
395.233	1	45
395.404	1	36
395.575	1	30
395.746	1	35
395.916	1	27
396.087	1	41
396.258	1	30
396.429	1	42
396.599	1	34
396.770	1	37
396.941	1	48
397.112	1	34
397.283	1	50
397.453	1	33
397.624	1	41
397.795	1	31
397.966	1	57
398.136	1	43
398.307	1	37
398.478	1	42
398.649	1	44
398.819	1	54
398.990	1	35
399.161	1	34
399.332	1	50
399.503	1	29
399.673	1	39
399.844	1	40
400.015	1	35
400.186	1	37
400.356	1	25
400.527	1	31
400.698	1	26
400.869	1	42
401.039	1	35
401.210	1	17
401.381	1	35
401.552	1	46
401.722	1	36
401.893	1	36
402.064	1	32
402.235	1	35
402.405	1	27
402.576	1	32
402.747	1	17
402.918	1	21
403.088	1	22
403.259	1	20
403.430	1	22
403.601	1	24
403.771	1	27
403.942	1	27
404.113	1	41
404.284	1	24
404.454	1	42
404.625	1	37
404.796	1	29
404.967	1	34
405.137	1	40
405.308	1	23
405.479	1	24
405.649	1	25
405.820	1	28
405.991	1	24
406.162	1	20
406.332	1	25
406.503	1	28
406.674	1	19
406.845	1	27
407.015	1	17
407.186	1	36
407.357	1	17
407.527	1	24
407.698	1	14
407.869	1	20
408.040	1	26
408.210	1	16
408.381	1	33
408.552	1	26
408.722	1	24
408.893	1	27
409.064	1	17
409.235	1	24
409.405	1	17
409.576	1	29
409.747	1	25
409.917	1	19
410.088	1	22
410.259	1	25
410.430	1	30
410.600	1	17
410.771	1	32
410.942	1	19
411.112	1	30
411.283	1	14
411.454	1	38
411.625	1	24
411.795	1	30
411.966	1	13
412.137	1	25
412.307	1	20
412.478	1	21
412.649	1	13
412.819	1	24
412.990	1	25
413.161	1	14
413.332	1	16
413.502	1	8
413.673	1	22
413.844	1	23
414.014	1	22
414.185	1	31
414.356	1	9
414.526	1	19
414.697	1	24
414.868	1	24
415.038	1	29
415.209	1	23
415.380	1	20
415.550	1	12
415.721	1	24
415.892	1	14
416.063	1	30
416.233	1	12
416.404	1	14
416.575	1	18
416.745	1	8
416.916	1	21
417.087	1	15
417.257	1	28
417.428	1	12
417.599	1	25
417.769	1	25
417.940	1	4
418.111	1	15
418.281	1	17
418.452	1	10
418.623	1	24
418.793	1	20
418.964	1	16
419.135	1	26
419.305	1	15
419.476	1	14
419.647	1	21
419.817	1	13
419.988	1	16
420.159	1	1
420.329	1	22
420.500	1	24
420.671	1	15
420.841	1	18
421.012	1	26
421.183	1	22
421.353	1	19
421.524	1	19
421.695	1	16
421.865	1	21
422.036	1	19
422.206	1	12
422.377	1	17
422.548	1	15
422.718	1	8
422.889	1	19
423.060	1	12
423.230	1	28
423.401	1	5
423.572	1	9
423.742	1	8
423.913	1	21
424.084	1	18
424.254	1	10
424.425	1	9
424.595	1	9
424.766	1	21
424.937	1	10
425.107	1	13
425.278	1	11
425.449	1	11
425.619	1	26
425.790	1	15
425.961	1	13
426.131	1	13
426.302	1	14
426.472	1	6
426.643	1	13
426.814	1	22
426.984	1	18
427.155	1	13
427.326	1	19
427.496	1	21
427.667	1	25
427.837	1	10
428.008	1	14
428.179	1	11
428.349	1	3
428.520	1	7
428.691	1	19
428.861	1	17
429.032	1	10
429.202	1	14
429.373	1	6
429.544	1	16
429.714	1	24
429.885	1	9
430.055	1	15
430.226	1	14
430.397	1	10
430.567	1	16
430.738	1	16
430.909	1	11
431.079	1	30
431.250	1	5
431.420	1	10
431.591	1	10
431.762	1	13
431.932	1	18
432.103	1	11
432.273	1	6
432.444	1	13
432.615	1	19
432.785	1	10
432.956	1	3
433.126	1	17
433.297	1	18
433.468	1	11
433.638	1	7
433.809	1	14
433.979	1	9
434.150	1	9
434.320	1	10
434.491	1	18
434.662	1	3
434.832	1	2
435.003	1	17
435.173	1	10
435.344	1	22
435.515	1	10
435.685	1	26
435.856	1	15
436.026	1	4
436.197	1	16
436.368	1	2
436.538	1	16
436.709	1	16
436.879	1	15
437.050	1	12
437.220	1	20
437.391	1	12
437.562	1	23
437.732	1	8
437.903	1	9
438.073	1	10
438.244	1	2
438.414	1	14
438.585	1	10
438.756	1	15
438.926	1	14
439.097	1	15
439.267	1	16
439.438	1	14
439.608	1	9
439.779	1	8
439.949	1	3
440.120	1	11
440.291	1	-4
440.461	1	1
440.632	1	17
440.802	1	14
440.973	1	13
441.143	1	23
441.314	1	12
441.485	1	5
441.655	1	23
441.826	1	11
441.996	1	2
442.167	1	12
442.337	1	3
442.508	1	17
442.678	1	1
442.849	1	25
443.019	1	15
443.190	1	2
443.361	1	14
443.531	1	11
443.702	1	8
443.872	1	3
444.043	1	6
444.213	1	8
444.384	1	17
444.554	1	1
444.725	1	8
444.895	1	2
445.066	1	-13
445.237	1	4
445.407	1	3
445.578	1	17
445.748	1	8
445.919	1	6
446.089	1	19
446.260	1	13
446.430	1	2
446.601	1	-2
446.771	1	9
446.942	1	16
447.112	1	4
447.283	1	9
447.453	1	4
447.624	1	22
447.794	1	3
447.965	1	8
448.135	1	10
448.306	1	14
448.477	1	2
448.647	1	16
448.818	1	15
448.988	1	-7
449.159	1	-2
449.329	1	9
449.500	1	17
449.670	1	15
449.841	1	10
450.011	1	13
450.182	1	2
450.352	1	17
450.523	1	3
450.693	1	14
450.864	1	8
451.034	1	16
451.205	1	13
451.375	1	11
451.546	1	21
451.716	1	13
451.887	1	11
452.057	1	19
452.228	1	7
452.398	1	12
452.569	1	8
452.739	1	7
452.910	1	7
453.080	1	18
453.251	1	5
453.421	1	0
453.592	1	1
453.762	1	10
453.933	1	11
454.103	1	-1
454.274	1	7
454.444	1	13
454.615	1	15
454.785	1	5
454.956	1	10
455.126	1	8
455.297	1	0
455.467	1	0
455.638	1	12
455.808	1	7
455.979	1	8
456.149	1	6
456.320	1	6
456.490	1	14
456.661	1	0
456.831	1	18
457.001	1	12
457.172	1	11
457.342	1	9
457.513	1	8
457.683	1	11
457.854	1	13
458.024	1	14
458.195	1	1
458.365	1	7
458.536	1	6
458.706	1	6
458.877	1	6
459.047	1	5
459.218	1	14
459.388	1	12
459.559	1	8
459.729	1	14
459.899	1	15
460.070	1	15
460.240	1	4
460.411	1	9
460.581	1	5
460.752	1	21
460.922	1	2
461.093	1	9
461.263	1	13
461.434	1	16
461.604	1	10
461.775	1	8
461.945	1	24
462.115	1	1
462.286	1	15
462.456	1	-1
462.627	1	0
462.797	1	1
462.968	1	10
463.138	1	14
463.309	1	11
463.479	1	21
463.649	1	5
463.820	1	2
463.990	1	12
464.161	1	9
464.331	1	11
464.502	1	10
464.672	1	9
464.843	1	10
465.013	1	5
465.183	1	8
465.354	1	3
465.524	1	13
465.695	1	11
465.865	1	-5
466.036	1	12
466.206	1	8
466.376	1	0
466.547	1	10
466.717	1	-6
466.888	1	6
467.058	1	10
467.229	1	16
467.399	1	7
467.569	1	12
467.740	1	0
467.910	1	1
468.081	1	14
468.251	1	5
468.422	1	11
468.592	1	14
468.762	1	3
468.933	1	9
469.103	1	6
469.274	1	3
469.444	1	1
469.614	1	1
469.785	1	8
469.955	1	5
470.126	1	1
470.296	1	10
470.467	1	2
470.637	1	20
470.807	1	5
470.978	1	4
471.148	1	10
471.319	1	8
471.489	1	1
471.659	1	10
471.830	1	16
472.000	1	13
472.171	1	1
472.341	1	10
472.511	1	16
472.682	1	8
472.852	1	5
473.023	1	-2
473.193	1	-1
473.363	1	13
473.534	1	10
473.704	1	13
473.875	1	13
474.045	1	-4
474.215	1	0
474.386	1	15
474.556	1	5
474.727	1	0
474.897	1	13
475.067	1	5
475.238	1	-3
475.408	1	11
475.578	1	12
475.749	1	-1
475.919	1	8
476.090	1	6
476.260	1	5
476.430	1	4
476.601	1	6
476.771	1	10
476.942	1	7
477.112	1	12
477.282	1	0
477.453	1	11
477.623	1	15
477.793	1	13
477.964	1	21
478.134	1	13
478.305	1	8
478.475	1	2
478.645	1	6
478.816	1	7
478.986	1	3
479.156	1	10
479.327	1	2
479.497	1	6
479.667	1	10
479.838	1	12
480.008	1	15
480.179	1	10
480.349	1	16
480.519	1	7
480.690	1	12
480.860	1	2
481.030	1	-6
481.201	1	6
481.371	1	8
481.541	1	15
481.712	1	19
481.882	1	6
482.053	1	17
482.223	1	-5
482.393	1	-5
482.564	1	-12
482.734	1	11
482.904	1	12
483.075	1	13
483.245	1	9
483.415	1	13
483.586	1	3
483.756	1	14
483.926	1	4
484.097	1	2
484.267	1	2
484.437	1	-4
484.608	1	4
484.778	1	7
484.948	1	1
485.119	1	12
485.289	1	18
485.459	1	11
485.630	1	4
485.800	1	1
485.970	1	8
486.141	1	5
486.311	1	7
486.481	1	7
486.652	1	12
486.822	1	3
486.992	1	7
487.163	1	5
487.333	1	6
487.503	1	7
487.674	1	1
487.844	1	-1
488.014	1	7
488.185	1	2
488.355	1	5
488.525	1	8
488.696	1	-1
488.866	1	16
489.036	1	22
489.207	1	14
489.377	1	2
489.547	1	1
489.718	1	4
489.888	1	5
490.058	1	11
490.228	1	6
490.399	1	18
490.569	1	19
490.739	1	12
490.910	1	6
491.080	1	10
491.250	1	9
491.421	1	15
491.591	1	-7
491.761	1	17
491.932	1	22
492.102	1	5
492.272	1	12
492.442	1	11
492.613	1	10
492.783	1	5
492.953	1	8
493.124	1	4
493.294	1	17
493.464	1	12
493.635	1	4
493.805	1	23
493.975	1	7
494.145	1	15
494.316	1	22
494.486	1	12
494.656	1	7
494.827	1	6
494.997	1	8
495.167	1	10
495.337	1	16
495.508	1	0
495.678	1	18
495.848	1	15
496.019	1	-3
496.189	1	4
496.359	1	6
496.529	1	14
496.700	1	18
496.870	1	17
497.040	1	4
497.211	1	17
497.381	1	-5
497.551	1	15
497.721	1	9
497.892	1	11
498.062	1	6
498.232	1	3
498.403	1	14
498.573	1	13
498.743	1	17
498.913	1	16
499.084	1	1
499.254	1	14
499.424	1	16
499.594	1	11
499.765	1	7
499.935	1	2
500.105	1	10
500.275	1	17
500.446	1	25
500.616	1	18
500.786	1	11
500.956	1	11
501.127	1	20
501.297	1	16
501.467	1	11
501.638	1	14
501.808	1	10
501.978	1	8
502.148	1	27
502.319	1	14
502.489	1	16
502.659	1	14
502.829	1	12
503.000	1	20
503.170	1	10
503.340	1	19
503.510	1	11
503.681	1	14
503.851	1	3
504.021	1	31
504.191	1	16
504.362	1	22
504.532	1	-5
504.702	1	22
504.872	1	5
505.042	1	18
505.213	1	17
505.383	1	20
505.553	1	14
505.723	1	23
505.894	1	17
506.064	1	22
506.234	1	23
506.404	1	11
506.575	1	12
506.745	1	14
506.915	1	10
507.085	1	13
507.256	1	14
507.426	1	23
507.596	1	24
507.766	1	20
507.936	1	19
508.107	1	18
508.277	1	22
508.447	1	24
508.617	1	21
508.788	1	21
508.958	1	25
509.128	1	13
509.298	1	26
509.468	1	31
509.639	1	19
509.809	1	26
509.979	1	12
510.149	1	21
510.319	1	17
510.490	1	20
510.660	1	15
510.830	1	25
511.000	1	25
511.171	1	32
511.341	1	14
511.511	1	15
511.681	1	17
511.851	1	15
512.022	1	14
512.192	1	29
512.362	1	22
512.532	1	12
512.702	1	11
512.873	1	32
513.043	1	15
513.213	1	11
513.383	1	14
513.553	1	13
513.724	1	27
513.894	1	19
514.064	1	26
514.234	1	24
514.404	1	22
514.575	1	24
514.745	1	23
514.915	1	33
515.085	1	25
515.255	1	21
515.425	1	20
515.596	1	11
515.766	1	24
515.936	1	25
516.106	1	25
516.276	1	29
516.447	1	25
516.617	1	24
516.787	1	15
516.957	1	23
517.127	1	22
517.297	1	26
517.468	1	24
517.638	1	22
517.808	1	17
517.978	1	16
518.148	1	27
518.319	1	28
518.489	1	36
518.659	1	33
518.829	1	19
518.999	1	33
519.169	1	25
519.340	1	31
519.510	1	33
519.680	1	27
519.850	1	16
520.020	1	27
520.190	1	42
520.361	1	22
520.531	1	18
520.701	1	33
520.871	1	22
521.041	1	31
521.211	1	27
521.382	1	22
521.552	1	32
521.722	1	29
521.892	1	23
522.062	1	25
522.232	1	15
522.402	1	17
522.573	1	26
522.743	1	33
522.913	1	34
523.083	1	23
523.253	1	24
523.423	1	22
523.593	1	18
523.764	1	30
523.934	1	24
524.104	1	20
524.274	1	22
524.444	1	32
524.614	1	36
524.784	1	36
524.955	1	22
525.125	1	34
525.295	1	21
525.465	1	24
525.635	1	26
525.805	1	22
525.975	1	22
526.146	1	24
526.316	1	26
526.486	1	28
526.656	1	41
526.826	1	28
526.996	1	34
527.166	1	29
527.337	1	30
527.507	1	22
527.677	1	40
527.847	1	23
528.017	1	21
528.187	1	28
528.357	1	34
528.527	1	28
528.698	1	20
528.868	1	25
529.038	1	32
529.208	1	30
529.378	1	32
529.548	1	27
529.718	1	43
529.888	1	30
530.058	1	36
530.229	1	37
530.399	1	23
530.569	1	28
530.739	1	31
530.909	1	26
531.079	1	43
531.249	1	30
531.419	1	34
531.589	1	26
531.760	1	44
531.930	1	22
532.100	1	37
532.270	1	38
532.440	1	22
532.610	1	18
532.780	1	27
532.950	1	25
533.120	1	22
533.290	1	26
533.461	1	42
533.631	1	27
533.801	1	32
533.971	1	24
534.141	1	39
534.311	1	25
534.481	1	23
534.651	1	41
534.821	1	29
534.991	1	32
535.162	1	28
535.332	1	35
535.502	1	31
535.672	1	27
535.842	1	31
536.012	1	26
536.182	1	37
536.352	1	33
536.522	1	35
536.692	1	24
536.862	1	30
537.032	1	33
537.203	1	31
537.373	1	20
537.543	1	21
537.713	1	45
537.883	1	30
538.053	1	29
538.223	1	35
538.393	1	37
538.563	1	29
538.733	1	21
538.903	1	23
539.073	1	31
539.243	1	27
539.413	1	34
539.584	1	27
539.754	1	16
539.924	1	40
540.094	1	24
540.264	1	33
540.434	1	33
540.604	1	27
540.774	1	24
540.944	1	31
541.114	1	16
541.284	1	17
541.454	1	38
541.624	1	29
541.794	1	23
541.964	1	40
542.134	1	22
542.305	1	17
542.475	1	26
542.645	1	30
542.815	1	27
542.985	1	18
543.155	1	19
543.325	1	25
543.495	1	27
543.665	1	30
543.835	1	19
544.005	1	25
544.175	1	24
544.345	1	13
544.515	1	28
544.685	1	31
544.855	1	30
545.025	1	14
545.195	1	19
545.365	1	39
545.535	1	28
545.705	1	35
545.875	1	34
546.045	1	37
546.216	1	34
546.386	1	27
546.556	1	19
546.726	1	27
546.896	1	22
547.066	1	13
547.236	1	15
547.406	1	33
547.576	1	27
547.746	1	28
547.916	1	30
548.086	1	26
548.256	1	25
548.426	1	27
548.596	1	32
548.766	1	27
548.936	1	17
549.106	1	37
549.276	1	38
549.446	1	20
549.616	1	31
549.786	1	35
549.956	1	23
550.126	1	25
550.296	1	35
550.466	1	8
550.636	1	27
550.806	1	35
550.976	1	22
551.146	1	14
551.316	1	16
551.486	1	30
551.656	1	26
551.826	1	29
551.996	1	22
552.166	1	31
552.336	1	16
552.506	1	15
552.676	1	16
552.846	1	28
553.016	1	22
553.186	1	23
553.356	1	17
553.526	1	20
553.696	1	27
553.866	1	27
554.036	1	29
554.206	1	20
554.376	1	14
554.546	1	18
554.716	1	21
554.886	1	25
555.056	1	9
555.226	1	17
555.396	1	18
555.566	1	25
555.736	1	19
555.906	1	28
556.076	1	31
556.246	1	29
556.416	1	24
556.586	1	26
556.756	1	17
556.926	1	23
557.096	1	26
557.266	1	29
557.436	1	23
557.606	1	0
557.776	1	20
557.946	1	20
558.116	1	19
558.286	1	31
558.456	1	8
558.626	1	26
558.796	1	15
558.966	1	21
559.136	1	21
559.306	1	9
559.476	1	8
559.646	1	15
559.816	1	21
559.986	1	14
560.155	1	22
560.325	1	8
560.495	1	22
560.665	1	19
560.835	1	26
561.005	1	21
561.175	1	21
561.345	1	15
561.515	1	14
561.685	1	13
561.855	1	22
562.025	1	12
562.195	1	13
562.365	1	10
562.535	1	26
562.705	1	20
562.875	1	19
563.045	1	27
563.215	1	9
563.385	1	7
563.555	1	22
563.725	1	18
563.895	1	11
564.064	1	19
564.234	1	21
564.404	1	16
564.574	1	11
564.744	1	21
564.914	1	5
565.084	1	11
565.254	1	18
565.424	1	12
565.594	1	20
565.764	1	30
565.934	1	17
566.104	1	10
566.274	1	18
566.444	1	15
566.614	1	19
566.783	1	10
566.953	1	20
567.123	1	21
567.293	1	21
567.463	1	16
567.633	1	0
567.803	1	15
567.973	1	16
568.143	1	16
568.313	1	8
568.483	1	14
568.653	1	9
568.823	1	20
568.993	1	11
569.162	1	18
569.332	1	13
569.502	1	16
569.672	1	12
569.842	1	10
570.012	1	17
570.182	1	17
570.352	1	14
570.522	1	25
570.692	1	19
570.862	1	21
571.031	1	14
571.201	1	15
571.371	1	13
571.541	1	6
571.711	1	30
571.881	1	26
572.051	1	13
572.221	1	17
572.391	1	15
572.561	1	1
572.731	1	11
572.900	1	27
573.070	1	23
573.240	1	8
573.410	1	16
573.580	1	15
573.750	1	27
573.920	1	8
574.090	1	15
574.260	1	16
574.430	1	3
574.599	1	3
574.769	1	7
574.939	1	12
575.109	1	17
575.279	1	22
575.449	1	15
575.619	1	25
575.789	1	20
575.959	1	3
576.128	1	11
576.298	1	7
576.468	1	12
576.638	1	7
576.808	1	10
576.978	1	11
577.148	1	19
577.318	1	12
577.487	1	13
577.657	1	-7
577.827	1	19
577.997	1	1
578.167	1	20
578.337	1	9
578.507	1	14
578.677	1	4
578.846	1	9
579.016	1	18
579.186	1	16
579.356	1	1
579.526	1	11
579.696	1	7
579.866	1	25
580.036	1	10
580.205	1	17
580.375	1	7
580.545	1	13
580.715	1	13
580.885	1	12
581.055	1	16
581.225	1	1
581.394	1	8
581.564	1	8
581.734	1	11
581.904	1	17
582.074	1	21
582.244	1	13
582.414	1	13
582.583	1	2
582.753	1	10
582.923	1	16
583.093	1	7
583.263	1	17
583.433	1	3
583.603	1	10
583.772	1	14
583.942	1	24
584.112	1	11
584.282	1	10
584.452	1	8
584.622	1	15
584.791	1	10
584.961	1	8
585.131	1	5
585.301	1	12
585.471	1	10
585.641	1	19
585.811	1	10
585.980	1	-2
586.150	1	12
586.320	1	5
586.490	1	4
586.660	1	15
586.830	1	0
586.999	1	16
587.169	1	11
587.339	1	12
587.509	1	10
587.679	1	7
587.849	1	12
588.018	1	5
588.188	1	16
588.358	1	9
588.528	1	16
588.698	1	12
588.867	1	12
589.037	1	12
589.207	1	-7
589.377	1	9
589.547	1	4
589.717	1	16
589.886	1	2
590.056	1	6
590.226	1	8
590.396	1	16
590.566	1	7
590.735	1	19
590.905	1	8
591.075	1	-7
591.245	1	7
591.415	1	8
591.585	1	12
591.754	1	3
591.924	1	8
592.094	1	3
592.264	1	7
592.434	1	13
592.603	1	9
592.773	1	2
592.943	1	8
593.113	1	-8
593.283	1	9
593.452	1	0
593.622	1	-1
593.792	1	10
593.962	1	12
594.132	1	1
594.301	1	27
594.471	1	6
594.641	1	-2
594.811	1	7
594.981	1	2
595.150	1	7
595.320	1	12
595.490	1	4
595.660	1	-2
595.829	1	4
595.999	1	4
596.169	1	13
596.339	1	9
596.509	1	19
596.678	1	15
596.848	1	17
597.018	1	6
597.188	1	5
597.358	1	11
597.527	1	12
597.697	1	-1
597.867	1	13
598.037	1	13
598.206	1	5
598.376	1	13
598.546	1	4
598.716	1	-7
598.885	1	3
599.055	1	6
599.225	1	3
599.395	1	18
599.565	1	10
599.734	1	1
599.904	1	-3
600.074	1	1
600.244	1	13
600.413	1	8
600.583	1	3
600.753	1	8
600.923	1	17
601.092	1	-1
601.262	1	14
601.432	1	9
601.602	1	11
601.771	1	10
601.941	1	6
602.111	1	2
602.281	1	9
602.451	1	4
602.620	1	11
602.790	1	14
602.960	1	5
603.130	1	7
603.299	1	7
603.469	1	5
603.639	1	13
603.809	1	15
603.978	1	7
604.148	1	12
604.318	1	15
604.487	1	13
604.657	1	5
604.827	1	-11
604.997	1	0
605.166	1	3
605.336	1	5
605.506	1	4
605.676	1	3
605.845	1	6
606.015	1	11
606.185	1	2
606.355	1	13
606.524	1	4
606.694	1	18
606.864	1	3
607.034	1	1
607.203	1	11
607.373	1	13
607.543	1	4
607.712	1	12
607.882	1	5
608.052	1	13
608.222	1	7
608.391	1	8
608.561	1	13
608.731	1	8
608.901	1	11
609.070	1	6
609.240	1	11
609.410	1	4
609.579	1	10
609.749	1	2
609.919	1	3
610.089	1	-2
610.258	1	15
610.428	1	-3
610.598	1	20
610.767	1	10
610.937	1	10
611.107	1	15
611.277	1	8
611.446	1	8
611.616	1	-12
611.786	1	20
611.955	1	8
612.125	1	9
612.295	1	6
612.465	1	3
612.634	1	8
612.804	1	18
612.974	1	2
613.143	1	6
613.313	1	9
613.483	1	8
613.652	1	0
613.822	1	11
613.992	1	15
614.162	1	5
614.331	1	3
614.501	1	17
614.671	1	6
614.840	1	-5
615.010	1	10
615.180	1	12
615.349	1	11
615.519	1	15
615.689	1	12
615.858	1	10
616.028	1	-8
616.198	1	10
616.368	1	-1
616.537	1	4
616.707	1	1
616.877	1	4
617.046	1	5
617.216	1	2
617.386	1	2
617.555	1	-1
617.725	1	14
617.895	1	2
618.064	1	6
618.234	1	-1
618.404	1	12
618.573	1	9
618.743	1	8
618.913	1	1
619.082	1	9
619.252	1	3
619.422	1	7
619.591	1	3
619.761	1	14
619.931	1	11
620.100	1	8
620.270	1	0
620.440	1	9
620.609	1	5
620.779	1	2
620.949	1	6
621.118	1	7
621.288	1	14
621.458	1	4
621.627	1	-3
621.797	1	0
621.967	1	-6
622.136	1	7
622.306	1	15
622.476	1	7
622.645	1	17
622.815	1	4
622.985	1	2
623.154	1	11
623.324	1	11
623.494	1	-1
623.663	1	-1
623.833	1	7
624.002	1	3
624.172	1	16
624.342	1	5
624.511	1	6
624.681	1	-2
624.851	1	-4
625.020	1	5
625.190	1	15
625.360	1	4
625.529	1	22
625.699	1	5
625.869	1	6
626.038	1	14
626.208	1	2
626.377	1	19
626.547	1	4
626.717	1	-3
626.886	1	1
627.056	1	7
627.226	1	8
627.395	1	11
627.565	1	14
627.735	1	7
627.904	1	7
628.074	1	7
628.243	1	-5
628.413	1	-4
628.583	1	6
628.752	1	15
628.922	1	2
629.091	1	5
629.261	1	5
629.431	1	-4
629.600	1	11
629.770	1	7
629.940	1	4
630.109	1	3
630.279	1	-5
630.448	1	0
630.618	1	3
630.788	1	12
630.957	1	4
631.127	1	12
631.297	1	-3
631.466	1	14
631.636	1	6
631.805	1	10
631.975	1	11
632.145	1	-10
632.314	1	18
632.484	1	5
632.653	1	1
632.823	1	21
632.993	1	12
633.162	1	-2
633.332	1	4
633.501	1	7
633.671	1	4
633.841	1	2
634.010	1	8
634.180	1	12
634.349	1	3
634.519	1	2
634.689	1	17
634.858	1	3
635.028	1	-1
635.197	1	1
635.367	1	-2
635.537	1	3
635.706	1	8
635.876	1	0
636.045	1	9
636.215	1	3
636.384	1	11
636.554	1	13
636.724	1	6
636.893	1	5
637.063	1	7
637.232	1	2
637.402	1	13
637.572	1	9
637.741	1	17
637.911	1	11
638.080	1	0
638.250	1	12
638.419	1	13
638.589	1	16
638.759	1	8
638.928	1	2
639.098	1	3
639.267	1	7
639.437	1	-6
639.606	1	18
639.776	1	-1
639.946	1	10
640.115	1	3
640.285	1	1
640.454	1	11
640.624	1	13
640.793	1	8
640.963	1	-3
641.132	1	9
641.302	1	9
641.472	1	1
641.641	1	-3
641.811	1	2
641.980	1	8
642.150	1	15
642.319	1	6
642.489	1	6
642.659	1	-2
642.828	1	5
642.998	1	-2
643.167	1	19
643.337	1	13
643.506	1	0
643.676	1	4
643.845	1	5
644.015	1	1
644.184	1	10
644.354	1	4
644.524	1	-8
644.693	1	8
644.863	1	6
645.032	1	1
645.202	1	8
645.371	1	2
645.541	1	7
645.710	1	8
645.880	1	4
646.049	1	2
646.219	1	0
646.388	1	8
646.558	1	4
646.728	1	14
646.897	1	-1
647.067	1	3
647.236	1	6
647.406	1	6
647.575	1	9
647.745	1	5
647.914	1	2
648.084	1	6
648.253	1	5
648.423	1	-4
648.592	1	10
648.762	1	3
648.931	1	9
649.101	1	-2
649.270	1	18
649.440	1	8
649.610	1	19
649.779	1	9
649.949	1	7
650.118	1	4
650.288	1	-2
650.457	1	3
650.627	1	7
650.796	1	9
650.966	1	4
651.135	1	13
651.305	1	4
651.474	1	11
651.644	1	4
651.813	1	11
651.983	1	6
652.152	1	10
652.322	1	12
652.491	1	17
652.661	1	3
652.830	1	7
653.000	1	4
653.169	1	7
653.339	1	16
653.508	1	4
653.678	1	5
653.847	1	11
654.017	1	5
654.186	1	2
654.356	1	8
654.525	1	1
654.695	1	7
654.864	1	8
655.034	1	6
655.203	1	3
655.373	1	1
655.542	1	16
655.712	1	-4
655.881	1	8
656.051	1	9
656.220	1	3
656.390	1	8
656.559	1	1
656.729	1	4
656.898	1	6
657.068	1	6
657.237	1	3
657.406	1	18
657.576	1	7
657.745	1	-3
657.915	1	11
658.084	1	8
658.254	1	8
658.423	1	-4
658.593	1	-7
658.762	1	4
658.932	1	3
659.101	1	0
659.271	1	9
659.440	1	16
659.610	1	5
659.779	1	2
659.949	1	-10
660.118	1	5
660.288	1	6
660.457	1	1
660.626	1	1
660.796	1	2
660.965	1	2
661.135	1	8
661.304	1	-1
661.474	1	8
661.643	1	9
661.813	1	-6
661.982	1	-1
662.152	1	6
662.321	1	10
662.491	1	4
662.660	1	4
662.829	1	-8
662.999	1	1
663.168	1	-1
663.338	1	-4
663.507	1	-5
663.677	1	-3
663.846	1	10
664.016	1	3
664.185	1	0
664.354	1	15
664.524	1	-4
664.693	1	9
664.863	1	8
665.032	1	4
665.202	1	-2
665.371	1	13
665.541	1	-4
665.710	1	2
665.879	1	6
666.049	1	7
666.218	1	4
666.388	1	-7
666.557	1	8
666.727	1	-15
666.896	1	-1
667.065	1	18
667.235	1	0
667.404	1	-4
667.574	1	11
667.743	1	-7
667.913	1	7
668.082	1	1
668.251	1	1
668.421	1	5
668.590	1	0
668.760	1	-1
668.929	1	8
669.099	1	-6
669.268	1	0
669.437	1	4
669.607	1	-12
669.776	1	14
669.946	1	8
670.115	1	7
670.285	1	7
670.454	1	0
670.623	1	13
670.793	1	4
670.962	1	4
671.132	1	17
671.301	1	4
671.470	1	4
671.640	1	-8
671.809	1	0
671.979	1	11
672.148	1	8
672.317	1	-1
672.487	1	-5
672.656	1	8
672.826	1	-10
672.995	1	9
673.164	1	12
673.334	1	15
673.503	1	0
673.673	1	13
673.842	1	6
674.011	1	3
674.181	1	-7
674.350	1	8
674.520	1	3
674.689	1	8
674.858	1	1
675.028	1	-3
675.197	1	2
675.367	1	1
675.536	1	6
675.705	1	-4
675.875	1	11
676.044	1	-5
676.214	1	10
676.383	1	6
676.552	1	0
676.722	1	6
676.891	1	-3
677.060	1	7
677.230	1	12
677.399	1	9
677.569	1	-3
677.738	1	3
677.907	1	-3
678.077	1	17
678.246	1	0
678.416	1	15
678.585	1	6
678.754	1	3
678.924	1	-8
679.093	1	1
679.262	1	-1
679.432	1	3
679.601	1	-6
679.771	1	9
679.940	1	9
680.109	1	15
680.279	1	-4
680.448	1	7
680.617	1	-5
680.787	1	2
680.956	1	5
681.125	1	8
681.295	1	10
681.464	1	4
681.634	1	9
681.803	1	-6
681.972	1	-2
682.142	1	8
682.311	1	4
682.480	1	-7
682.650	1	2
682.819	1	13
682.988	1	5
683.158	1	6
683.327	1	6
683.496	1	9
683.666	1	10
683.835	1	3
684.004	1	6
684.174	1	-3
684.343	1	-3
684.512	1	7
684.682	1	7
684.851	1	0
685.021	1	14
685.190	1	9
685.359	1	1
685.529	1	3
685.698	1	7
685.867	1	1
686.037	1	10
686.206	1	10
686.375	1	1
686.545	1	8
686.714	1	1
686.883	1	1
687.053	1	6
687.222	1	7
687.391	1	7
687.561	1	1
687.730	1	-3
687.899	1	7
688.069	1	-3
688.238	1	3
688.407	1	9
688.577	1	6
688.746	1	4
