340.368	1	0
340.539	1	7
340.710	1	-9
340.881	1	5
341.052	1	10
341.223	1	8
341.394	1	4
341.565	1	-3
341.737	1	5
341.908	1	5
342.079	1	-9
342.250	1	-6
342.421	1	-4
342.592	1	-5
342.763	1	5
342.934	1	2
343.105	1	11
343.276	1	-3
343.447	1	3
343.618	1	-6
343.789	1	-5
343.960	1	4
344.131	1	-10
344.302	1	3
344.473	1	0
344.644	1	-9
344.815	1	7
344.986	1	15
345.157	1	1
345.328	1	-4
345.499	1	5
345.670	1	5
345.841	1	3
346.012	1	16
346.183	1	2
346.354	1	-4
346.526	1	9
346.697	1	-4
346.868	1	5
347.039	1	0
347.210	1	2
347.381	1	-1
347.552	1	2
347.723	1	-2
347.894	1	3
348.065	1	2
348.236	1	-5
348.407	1	3
348.578	1	5
348.749	1	-2
348.920	1	1
349.091	1	8
349.262	1	4
349.433	1	-4
349.604	1	6
349.775	1	13
349.946	1	6
350.117	1	9
350.288	1	5
350.459	1	9
350.630	1	-4
350.801	1	10
350.972	1	-5
351.143	1	-2
351.314	1	1
351.485	1	-9
351.656	1	-1
351.827	1	-1
351.998	1	0
352.169	1	4
352.340	1	-2
352.511	1	4
352.682	1	-13
352.853	1	1
353.024	1	-6
353.195	1	-3
353.366	1	7
353.537	1	-1
353.708	1	3
353.879	1	7
354.050	1	5
354.221	1	-2
354.392	1	2
354.563	1	11
354.734	1	-1
354.905	1	-1
355.076	1	9
355.247	1	-5
355.418	1	-6
355.589	1	1
355.760	1	8
355.931	1	5
356.102	1	-7
356.273	1	1
356.444	1	2
356.615	1	7
356.785	1	7
356.956	1	-7
357.127	1	9
357.298	1	2
357.469	1	-2
357.640	1	14
357.811	1	18
357.982	1	-4
358.153	1	10
358.324	1	4
358.495	1	5
358.666	1	-7
358.837	1	6
359.008	1	-2
359.179	1	3
359.350	1	2
359.521	1	-6
359.692	1	8
359.863	1	-4
360.034	1	-14
360.205	1	14
360.376	1	5
360.547	1	-5
360.718	1	-5
360.889	1	11
361.060	1	10
361.231	1	6
361.401	1	12
361.572	1	3
361.743	1	6
361.914	1	2
362.085	1	-1
362.256	1	11
362.427	1	-3
362.598	1	-1
362.769	1	8
362.940	1	5
363.111	1	0
363.282	1	1
363.453	1	6
363.624	1	7
363.795	1	7
363.966	1	10
364.137	1	-4
364.308	1	-8
364.478	1	1
364.649	1	5
364.820	1	5
364.991	1	0
365.162	1	3
365.333	1	15
365.504	1	-6
365.675	1	0
365.846	1	6
366.017	1	5
366.188	1	-3
366.359	1	9
366.530	1	10
366.701	1	-2
366.871	1	15
367.042	1	19
367.213	1	6
367.384	1	4
367.555	1	-6
367.726	1	12
367.897	1	-4
368.068	1	5
368.239	1	7
368.410	1	-2
368.581	1	11
368.752	1	-4
368.923	1	-6
369.093	1	-4
369.264	1	-8
369.435	1	1
369.606	1	-1
369.777	1	7
369.948	1	8
370.119	1	4
370.290	1	1
370.461	1	8
370.632	1	5
370.803	1	-2
370.973	1	5
371.144	1	4
371.315	1	7
371.486	1	5
371.657	1	5
371.828	1	5
371.999	1	-4
372.170	1	12
372.341	1	4
372.512	1	-6
372.682	1	-1
372.853	1	4
373.024	1	7
373.195	1	2
373.366	1	3
373.537	1	5
373.708	1	11
373.879	1	9
374.050	1	7
374.220	1	3
374.391	1	3
374.562	1	7
374.733	1	12
374.904	1	5
375.075	1	5
375.246	1	11
375.417	1	3
375.588	1	7
375.758	1	7
375.929	1	17
376.100	1	8
376.271	1	-2
376.442	1	-1
376.613	1	8
376.784	1	-2
376.955	1	-11
377.125	1	1
377.296	1	4
377.467	1	2
377.638	1	-10
377.809	1	12
377.980	1	5
378.151	1	-5
378.321	1	6
378.492	1	5
378.663	1	-5
378.834	1	7
379.005	1	14
379.176	1	-1
379.347	1	1
379.518	1	-9
379.688	1	-10
379.859	1	-6
380.030	1	-3
380.201	1	-11
380.372	1	0
380.543	1	22
380.714	1	-5
380.884	1	-3
381.055	1	1
381.226	1	2
381.397	1	-9
381.568	1	-9
381.739	1	6
381.910	1	5
382.080	1	-2
382.251	1	6
382.422	1	18
382.593	1	-3
382.764	1	0
382.935	1	13
383.105	1	4
383.276	1	-3
383.447	1	14
383.618	1	13
383.789	1	11
383.960	1	7
384.130	1	0
384.301	1	11
384.472	1	-3
384.643	1	7
384.814	1	7
384.985	1	5
385.156	1	13
385.326	1	4
385.497	1	12
385.668	1	6
385.839	1	8
386.010	1	15
386.180	1	-1
386.351	1	-2
386.522	1	9
386.693	1	3
386.864	1	2
387.035	1	9
387.205	1	3
387.376	1	6
387.547	1	0
387.718	1	17
387.889	1	9
388.060	1	1
388.230	1	7
388.401	1	15
388.572	1	-2
388.743	1	12
388.914	1	14
389.084	1	12
389.255	1	18
389.426	1	12
389.597	1	-13
389.768	1	9
389.939	1	6
390.109	1	11
390.280	1	7
390.451	1	8
390.622	1	-9
390.793	1	13
390.963	1	5
391.134	1	6
391.305	1	11
391.476	1	12
391.647	1	12
391.817	1	-1
391.988	1	-5
392.159	1	6
392.330	1	14
392.501	1	1
392.671	1	23
392.842	1	17
393.013	1	10
393.184	1	15
393.355	1	14
393.525	1	7
393.696	1	-6
393.867	1	-3
394.038	1	-6
394.208	1	12
394.379	1	-3
394.550	1	4
394.721	1	3
394.892	1	5
395.062	1	4
395.233	1	8
395.404	1	4
395.575	1	-7
395.746	1	3
395.916	1	5
396.087	1	-4
396.258	1	-1
396.429	1	8
396.599	1	5
396.770	1	11
396.941	1	22
397.112	1	-2
397.283	1	5
397.453	1	-8
397.624	1	6
397.795	1	17
397.966	1	12
398.136	1	19
398.307	1	-2
398.478	1	6
398.649	1	9
398.819	1	1
398.990	1	10
399.161	1	20
399.332	1	20
399.503	1	4
399.673	1	11
399.844	1	-2
400.015	1	14
400.186	1	16
400.356	1	-4
400.527	1	8
400.698	1	2
400.869	1	3
401.039	1	3
401.210	1	12
401.381	1	0
401.552	1	11
401.722	1	11
401.893	1	5
402.064	1	-6
402.235	1	7
402.405	1	-2
402.576	1	13
402.747	1	-5
402.918	1	1
403.088	1	6
403.259	1	-3
403.430	1	-2
403.601	1	-3
403.771	1	9
403.942	1	9
404.113	1	10
404.284	1	11
404.454	1	17
404.625	1	7
404.796	1	1
404.967	1	10
405.137	1	14
405.308	1	7
405.479	1	1
405.649	1	7
405.820	1	3
405.991	1	15
406.162	1	1
406.332	1	-3
406.503	1	3
406.674	1	9
406.845	1	17
407.015	1	-2
407.186	1	8
407.357	1	-4
407.527	1	0
407.698	1	1
407.869	1	-8
408.040	1	3
408.210	1	1
408.381	1	10
408.552	1	7
408.722	1	3
408.893	1	2
409.064	1	1
409.235	1	0
409.405	1	4
409.576	1	5
409.747	1	4
409.917	1	10
410.088	1	8
410.259	1	-5
410.430	1	9
410.600	1	9
410.771	1	6
410.942	1	9
411.112	1	4
411.283	1	-13
411.454	1	5
411.625	1	3
411.795	1	2
411.966	1	6
412.137	1	15
412.307	1	-5
412.478	1	8
412.649	1	8
412.819	1	-12
412.990	1	1
413.161	1	-6
413.332	1	-5
413.502	1	-4
413.673	1	8
413.844	1	-4
414.014	1	-7
414.185	1	10
414.356	1	-9
414.526	1	4
414.697	1	8
414.868	1	6
415.038	1	0
415.209	1	0
415.380	1	10
415.550	1	1
415.721	1	3
415.892	1	5
416.063	1	19
416.233	1	-2
416.404	1	1
416.575	1	5
416.745	1	-7
416.916	1	-12
417.087	1	-7
417.257	1	10
417.428	1	-2
417.599	1	5
417.769	1	2
417.940	1	-9
418.111	1	6
418.281	1	4
418.452	1	-4
418.623	1	3
418.793	1	4
418.964	1	10
419.135	1	16
419.305	1	-5
419.476	1	11
419.647	1	8
419.817	1	0
419.988	1	-3
420.159	1	2
420.329	1	2
420.500	1	-6
420.671	1	7
420.841	1	4
421.012	1	7
421.183	1	3
421.353	1	4
421.524	1	2
421.695	1	4
421.865	1	5
422.036	1	0
422.206	1	6
422.377	1	3
422.548	1	3
422.718	1	-8
422.889	1	12
423.060	1	-5
423.230	1	9
423.401	1	6
423.572	1	5
423.742	1	8
423.913	1	11
424.084	1	14
424.254	1	-1
424.425	1	-5
424.595	1	-7
424.766	1	-3
424.937	1	-3
425.107	1	2
425.278	1	-7
425.449	1	-1
425.619	1	1
425.790	1	-1
425.961	1	10
426.131	1	-2
426.302	1	0
426.472	1	-3
426.643	1	1
426.814	1	12
426.984	1	12
427.155	1	-9
427.326	1	3
427.496	1	14
427.667	1	8
427.837	1	-10
428.008	1	0
428.179	1	-6
428.349	1	0
428.520	1	-11
428.691	1	-7
428.861	1	1
429.032	1	0
429.202	1	2
429.373	1	-9
429.544	1	8
429.714	1	-1
429.885	1	3
430.055	1	2
430.226	1	-1
430.397	1	6
430.567	1	14
430.738	1	8
430.909	1	-4
431.079	1	2
431.250	1	-4
431.420	1	1
431.591	1	12
431.762	1	4
431.932	1	3
432.103	1	4
432.273	1	1
432.444	1	2
432.615	1	3
432.785	1	-4
432.956	1	5
433.126	1	9
433.297	1	6
433.468	1	-1
433.638	1	-9
433.809	1	4
433.979	1	1
434.150	1	-14
434.320	1	-3
434.491	1	9
434.662	1	-1
434.832	1	-5
435.003	1	4
435.173	1	2
435.344	1	8
435.515	1	2
435.685	1	3
435.856	1	8
436.026	1	4
436.197	1	-2
436.368	1	-1
436.538	1	8
436.709	1	-9
436.879	1	5
437.050	1	4
437.220	1	10
437.391	1	1
437.562	1	6
437.732	1	0
437.903	1	-5
438.073	1	2
438.244	1	-9
438.414	1	5
438.585	1	2
438.756	1	6
438.926	1	5
439.097	1	4
439.267	1	13
439.438	1	11
439.608	1	4
439.779	1	-10
439.949	1	4
440.120	1	3
440.291	1	0
440.461	1	-10
440.632	1	1
440.802	1	7
440.973	1	7
441.143	1	8
441.314	1	1
441.485	1	-10
441.655	1	5
441.826	1	-6
441.996	1	7
442.167	1	2
442.337	1	3
442.508	1	-4
442.678	1	-5
442.849	1	5
443.019	1	1
443.190	1	-12
443.361	1	3
443.531	1	11
443.702	1	-7
443.872	1	4
444.043	1	6
444.213	1	-5
444.384	1	1
444.554	1	-3
444.725	1	9
444.895	1	-1
445.066	1	-16
445.237	1	-11
445.407	1	8
445.578	1	7
445.748	1	-3
445.919	1	11
446.089	1	10
446.260	1	-4
446.430	1	-8
446.601	1	-4
446.771	1	0
446.942	1	10
447.112	1	-7
447.283	1	-5
447.453	1	-9
447.624	1	7
447.794	1	-8
447.965	1	-9
448.135	1	3
448.306	1	-4
448.477	1	-3
448.647	1	24
448.818	1	7
448.988	1	-7
449.159	1	-4
449.329	1	-5
449.500	1	11
449.670	1	2
449.841	1	5
450.011	1	8
450.182	1	-15
450.352	1	7
450.523	1	-3
450.693	1	8
450.864	1	8
451.034	1	12
451.205	1	2
451.375	1	11
451.546	1	2
451.716	1	10
451.887	1	2
452.057	1	9
452.228	1	0
452.398	1	5
452.569	1	7
452.739	1	-3
452.910	1	-8
453.080	1	13
453.251	1	4
453.421	1	2
453.592	1	-2
453.762	1	5
453.933	1	15
454.103	1	3
454.274	1	-7
454.444	1	8
454.615	1	9
454.785	1	-6
454.956	1	-7
455.126	1	6
455.297	1	2
455.467	1	6
455.638	1	4
455.808	1	-3
455.979	1	4
456.149	1	-6
456.320	1	0
456.490	1	-1
456.661	1	-5
456.831	1	5
457.001	1	8
457.172	1	3
457.342	1	1
457.513	1	-1
457.683	1	8
457.854	1	-5
458.024	1	-4
458.195	1	-1
458.365	1	-5
458.536	1	0
458.706	1	0
458.877	1	-5
459.047	1	0
459.218	1	8
459.388	1	2
459.559	1	6
459.729	1	10
459.899	1	6
460.070	1	9
460.240	1	4
460.411	1	11
460.581	1	5
460.752	1	-3
460.922	1	5
461.093	1	7
461.263	1	9
461.434	1	13
461.604	1	2
461.775	1	6
461.945	1	6
462.115	1	-4
462.286	1	3
462.456	1	-6
462.627	1	3
462.797	1	-2
462.968	1	-5
463.138	1	15
463.309	1	4
463.479	1	11
463.649	1	-4
463.820	1	3
463.990	1	0
464.161	1	11
464.331	1	9
464.502	1	3
464.672	1	-5
464.843	1	10
465.013	1	-2
465.183	1	4
465.354	1	6
465.524	1	17
465.695	1	10
465.865	1	-2
466.036	1	0
466.206	1	1
466.376	1	0
466.547	1	2
466.717	1	3
466.888	1	6
467.058	1	5
467.229	1	4
467.399	1	8
467.569	1	3
467.740	1	-11
467.910	1	-2
468.081	1	2
468.251	1	0
468.422	1	9
468.592	1	0
468.762	1	-3
468.933	1	-1
469.103	1	-3
469.274	1	3
469.444	1	-4
469.614	1	4
469.785	1	10
469.955	1	3
470.126	1	5
470.296	1	9
470.467	1	-2
470.637	1	10
470.807	1	-1
470.978	1	3
471.148	1	3
471.319	1	5
471.489	1	-1
471.659	1	10
471.830	1	11
472.000	1	-3
472.171	1	5
472.341	1	0
472.511	1	11
472.682	1	11
472.852	1	-5
473.023	1	-3
473.193	1	-4
473.363	1	1
473.534	1	5
473.704	1	18
473.875	1	6
474.045	1	-6
474.215	1	1
474.386	1	13
474.556	1	-6
474.727	1	0
474.897	1	3
475.067	1	3
475.238	1	-6
475.408	1	6
475.578	1	1
475.749	1	3
475.919	1	8
476.090	1	-1
476.260	1	2
476.430	1	4
476.601	1	-1
476.771	1	-1
476.942	1	2
477.112	1	2
477.282	1	-13
477.453	1	2
477.623	1	7
477.793	1	9
477.964	1	12
478.134	1	11
478.305	1	8
478.475	1	4
478.645	1	-9
478.816	1	-6
478.986	1	0
479.156	1	7
479.327	1	-3
479.497	1	-7
479.667	1	-1
479.838	1	3
480.008	1	5
480.179	1	3
480.349	1	1
480.519	1	-2
480.690	1	-5
480.860	1	1
481.030	1	-4
481.201	1	2
481.371	1	7
481.541	1	1
481.712	1	4
481.882	1	-3
482.053	1	5
482.223	1	-5
482.393	1	-7
482.564	1	-10
482.734	1	4
482.904	1	7
483.075	1	2
483.245	1	5
483.415	1	2
483.586	1	-4
483.756	1	13
483.926	1	-1
484.097	1	-8
484.267	1	5
484.437	1	-4
484.608	1	7
484.778	1	3
484.948	1	-3
485.119	1	2
485.289	1	10
485.459	1	5
485.630	1	-3
485.800	1	-2
485.970	1	-7
486.141	1	-11
486.311	1	6
486.481	1	1
486.652	1	8
486.822	1	10
486.992	1	-6
487.163	1	-3
487.333	1	4
487.503	1	-10
487.674	1	-3
487.844	1	4
488.014	1	-1
488.185	1	-6
488.355	1	-6
488.525	1	2
488.696	1	-4
488.866	1	4
489.036	1	2
489.207	1	-3
489.377	1	12
489.547	1	-4
489.718	1	-1
489.888	1	0
490.058	1	0
490.228	1	-3
490.399	1	3
490.569	1	9
490.739	1	5
490.910	1	-1
491.080	1	8
491.250	1	2
491.421	1	4
491.591	1	-3
491.761	1	3
491.932	1	12
492.102	1	-4
492.272	1	11
492.442	1	3
492.613	1	-4
492.783	1	3
492.953	1	5
493.124	1	-1
493.294	1	12
493.464	1	-10
493.635	1	-7
493.805	1	17
493.975	1	3
494.145	1	9
494.316	1	10
494.486	1	5
494.656	1	-2
494.827	1	-4
494.997	1	-3
495.167	1	6
495.337	1	2
495.508	1	-2
495.678	1	4
495.848	1	4
496.019	1	-3
496.189	1	-1
496.359	1	-3
496.529	1	6
496.700	1	-2
496.870	1	-4
497.040	1	3
497.211	1	10
497.381	1	-16
497.551	1	11
497.721	1	3
497.892	1	5
498.062	1	-7
498.232	1	5
498.403	1	2
498.573	1	2
498.743	1	2
498.913	1	-2
499.084	1	-7
499.254	1	-4
499.424	1	10
499.594	1	7
499.765	1	3
499.935	1	-17
500.105	1	8
500.275	1	13
500.446	1	5
500.616	1	-3
500.786	1	10
500.956	1	4
501.127	1	1
501.297	1	6
501.467	1	-3
501.638	1	1
501.808	1	-5
501.978	1	3
502.148	1	8
502.319	1	2
502.489	1	13
502.659	1	7
502.829	1	11
503.000	1	6
503.170	1	3
503.340	1	-2
503.510	1	1
503.681	1	6
503.851	1	-8
504.021	1	19
504.191	1	6
504.362	1	4
504.532	1	-9
504.702	1	-4
504.872	1	-4
505.042	1	-2
505.213	1	-4
505.383	1	3
505.553	1	0
505.723	1	6
505.894	1	11
506.064	1	10
506.234	1	10
506.404	1	-6
506.575	1	-1
506.745	1	-4
506.915	1	4
507.085	1	-1
507.256	1	-3
507.426	1	9
507.596	1	6
507.766	1	5
507.936	1	2
508.107	1	5
508.277	1	-3
508.447	1	1
508.617	1	7
508.788	1	1
508.958	1	2
509.128	1	-5
509.298	1	18
509.468	1	18
509.639	1	7
509.809	1	5
509.979	1	3
510.149	1	10
510.319	1	-12
510.490	1	14
510.660	1	10
510.830	1	4
511.000	1	-1
511.171	1	9
511.341	1	-1
511.511	1	10
511.681	1	-1
511.851	1	-1
512.022	1	-4
512.192	1	7
512.362	1	3
512.532	1	-2
512.702	1	-8
512.873	1	13
513.043	1	13
513.213	1	0
513.383	1	0
513.553	1	-13
513.724	1	13
513.894	1	1
514.064	1	5
514.234	1	0
514.404	1	1
514.575	1	4
514.745	1	-2
514.915	1	9
515.085	1	5
515.255	1	-5
515.425	1	-1
515.596	1	-5
515.766	1	2
515.936	1	7
516.106	1	-3
516.276	1	10
516.447	1	2
516.617	1	-5
516.787	1	2
516.957	1	-2
517.127	1	7
517.297	1	7
517.468	1	0
517.638	1	13
517.808	1	6
517.978	1	5
518.148	1	10
518.319	1	-1
518.489	1	8
518.659	1	4
518.829	1	-5
518.999	1	3
519.169	1	4
519.340	1	1
519.510	1	2
519.680	1	-6
519.850	1	3
520.020	1	4
520.190	1	-3
520.361	1	0
520.531	1	7
520.701	1	10
520.871	1	0
521.041	1	5
521.211	1	5
521.382	1	1
521.552	1	8
521.722	1	6
521.892	1	-8
522.062	1	3
522.232	1	-15
522.402	1	-2
522.573	1	7
522.743	1	0
522.913	1	-2
523.083	1	-8
523.253	1	-1
523.423	1	-3
523.593	1	-5
523.764	1	1
523.934	1	7
524.104	1	4
524.274	1	0
524.444	1	5
524.614	1	-2
524.784	1	2
524.955	1	5
525.125	1	5
525.295	1	-2
525.465	1	5
525.635	1	11
525.805	1	0
525.975	1	-4
526.146	1	4
526.316	1	-2
526.486	1	4
526.656	1	16
526.826	1	2
526.996	1	12
527.166	1	9
527.337	1	-6
527.507	1	-7
527.677	1	9
527.847	1	3
528.017	1	-4
528.187	1	-1
528.357	1	15
528.527	1	8
528.698	1	-5
528.868	1	-4
529.038	1	1
529.208	1	-8
529.378	1	5
529.548	1	6
529.718	1	7
529.888	1	10
530.058	1	3
530.229	1	11
530.399	1	6
530.569	1	12
530.739	1	-4
530.909	1	4
531.079	1	13
531.249	1	-6
531.419	1	9
531.589	1	-12
531.760	1	11
531.930	1	4
532.100	1	8
532.270	1	8
532.440	1	3
532.610	1	6
532.780	1	7
532.950	1	8
533.120	1	-7
533.290	1	2
533.461	1	14
533.631	1	9
533.801	1	4
533.971	1	8
534.141	1	10
534.311	1	3
534.481	1	3
534.651	1	6
534.821	1	9
534.991	1	3
535.162	1	-1
535.332	1	10
535.502	1	11
535.672	1	-1
535.842	1	3
536.012	1	16
536.182	1	-4
536.352	1	12
536.522	1	5
536.692	1	3
536.862	1	5
537.032	1	2
537.203	1	7
537.373	1	10
537.543	1	2
537.713	1	15
537.883	1	11
538.053	1	5
538.223	1	10
538.393	1	2
538.563	1	-5
538.733	1	0
538.903	1	-1
539.073	1	4
539.243	1	4
539.413	1	10
539.584	1	4
539.754	1	-2
539.924	1	6
540.094	1	6
540.264	1	10
540.434	1	-1
540.604	1	-1
540.774	1	5
540.944	1	-3
541.114	1	-4
541.284	1	0
541.454	1	-3
541.624	1	8
541.794	1	-1
541.964	1	3
542.134	1	8
542.305	1	-4
542.475	1	2
542.645	1	6
542.815	1	10
542.985	1	-2
543.155	1	7
543.325	1	6
543.495	1	-1
543.665	1	11
543.835	1	5
544.005	1	-5
544.175	1	2
544.345	1	-11
544.515	1	5
544.685	1	13
544.855	1	11
545.025	1	-1
545.195	1	1
545.365	1	2
545.535	1	-6
545.705	1	7
545.875	1	-8
546.045	1	15
546.216	1	3
546.386	1	3
546.556	1	-3
546.726	1	3
546.896	1	2
547.066	1	-4
547.236	1	-3
547.406	1	4
547.576	1	-1
547.746	1	6
547.916	1	7
548.086	1	6
548.256	1	2
548.426	1	5
548.596	1	8
548.766	1	5
548.936	1	1
549.106	1	9
549.276	1	2
549.446	1	-4
549.616	1	14
549.786	1	0
549.956	1	8
550.126	1	3
550.296	1	11
550.466	1	3
550.636	1	5
550.806	1	5
550.976	1	9
551.146	1	0
551.316	1	-2
551.486	1	7
551.656	1	1
551.826	1	1
551.996	1	10
552.166	1	2
552.336	1	0
552.506	1	-5
552.676	1	1
552.846	1	-1
553.016	1	-8
553.186	1	4
553.356	1	-4
553.526	1	2
553.696	1	12
553.866	1	6
554.036	1	8
554.206	1	1
554.376	1	-6
554.546	1	-7
554.716	1	-5
554.886	1	-2
555.056	1	5
555.226	1	1
555.396	1	-3
555.566	1	2
555.736	1	0
555.906	1	3
556.076	1	-9
556.246	1	1
556.416	1	-6
556.586	1	14
556.756	1	1
556.926	1	11
557.096	1	-4
557.266	1	4
557.436	1	9
557.606	1	-3
557.776	1	5
557.946	1	14
558.116	1	8
558.286	1	3
558.456	1	-2
558.626	1	8
558.796	1	5
558.966	1	7
559.136	1	6
559.306	1	-9
559.476	1	-3
559.646	1	-6
559.816	1	11
559.986	1	-8
560.155	1	2
560.325	1	-8
560.495	1	6
560.665	1	5
560.835	1	0
561.005	1	9
561.175	1	4
561.345	1	-2
561.515	1	1
561.685	1	4
561.855	1	9
562.025	1	-1
562.195	1	12
562.365	1	13
562.535	1	3
562.705	1	4
562.875	1	2
563.045	1	4
563.215	1	-6
563.385	1	2
563.555	1	2
563.725	1	6
563.895	1	2
564.064	1	15
564.234	1	0
564.404	1	-1
564.574	1	-2
564.744	1	5
564.914	1	4
565.084	1	-18
565.254	1	3
565.424	1	-2
565.594	1	-5
565.764	1	16
565.934	1	4
566.104	1	6
566.274	1	4
566.444	1	2
566.614	1	-1
566.783	1	2
566.953	1	7
567.123	1	3
567.293	1	-1
567.463	1	7
567.633	1	-3
567.803	1	-9
567.973	1	0
568.143	1	-5
568.313	1	-6
568.483	1	1
568.653	1	2
568.823	1	4
568.993	1	2
569.162	1	1
569.332	1	-4
569.502	1	7
569.672	1	2
569.842	1	2
570.012	1	0
570.182	1	-3
570.352	1	7
570.522	1	6
570.692	1	3
570.862	1	2
571.031	1	5
571.201	1	4
571.371	1	-3
571.541	1	8
571.711	1	4
571.881	1	8
572.051	1	3
572.221	1	-2
572.391	1	-1
572.561	1	-4
572.731	1	-2
572.900	1	13
573.070	1	10
573.240	1	-4
573.410	1	15
573.580	1	0
573.750	1	-2
573.920	1	-3
574.090	1	11
574.260	1	-2
574.430	1	-13
574.599	1	-2
574.769	1	1
574.939	1	4
575.109	1	-4
575.279	1	12
575.449	1	4
575.619	1	4
575.789	1	4
575.959	1	-2
576.128	1	-2
576.298	1	-13
576.468	1	-6
576.638	1	0
576.808	1	-2
576.978	1	3
577.148	1	10
577.318	1	4
577.487	1	12
577.657	1	-4
577.827	1	-4
577.997	1	-10
578.167	1	4
578.337	1	-11
578.507	1	-11
578.677	1	1
578.846	1	-2
579.016	1	8
579.186	1	6
579.356	1	-2
579.526	1	-1
579.696	1	6
579.866	1	-1
580.036	1	-3
580.205	1	4
580.375	1	2
580.545	1	-12
580.715	1	11
580.885	1	10
581.055	1	6
581.225	1	-11
581.394	1	-16
581.564	1	11
581.734	1	4
581.904	1	-6
582.074	1	-4
582.244	1	-4
582.414	1	-4
582.583	1	-9
582.753	1	9
582.923	1	-1
583.093	1	-10
583.263	1	3
583.433	1	-3
583.603	1	7
583.772	1	-2
583.942	1	14
584.112	1	6
584.282	1	10
584.452	1	-6
584.622	1	2
584.791	1	-2
584.961	1	-2
585.131	1	-8
585.301	1	6
585.471	1	2
585.641	1	10
585.811	1	-5
585.980	1	-3
586.150	1	8
586.320	1	-4
586.490	1	-3
586.660	1	12
586.830	1	4
586.999	1	5
587.169	1	4
587.339	1	10
587.509	1	-1
587.679	1	-2
587.849	1	1
588.018	1	4
588.188	1	3
588.358	1	4
588.528	1	9
588.698	1	3
588.867	1	9
589.037	1	8
589.207	1	-8
589.377	1	6
589.547	1	-6
589.717	1	-3
589.886	1	-9
590.056	1	-4
590.226	1	14
590.396	1	2
590.566	1	0
590.735	1	16
590.905	1	1
591.075	1	-11
591.245	1	0
591.415	1	-1
591.585	1	-4
591.754	1	2
591.924	1	-2
592.094	1	9
592.264	1	-7
592.434	1	0
592.603	1	0
592.773	1	1
592.943	1	-11
593.113	1	-5
593.283	1	9
593.452	1	-10
593.622	1	-1
593.792	1	4
593.962	1	2
594.132	1	-4
594.301	1	17
594.471	1	7
594.641	1	-2
594.811	1	2
594.981	1	4
595.150	1	6
595.320	1	15
595.490	1	-8
595.660	1	-2
595.829	1	2
595.999	1	-1
596.169	1	8
596.339	1	11
596.509	1	-2
596.678	1	-7
596.848	1	9
597.018	1	8
597.188	1	10
597.358	1	2
597.527	1	-7
597.697	1	0
597.867	1	-9
598.037	1	-2
598.206	1	-4
598.376	1	5
598.546	1	-8
598.716	1	-11
598.885	1	-9
599.055	1	1
599.225	1	9
599.395	1	12
599.565	1	4
599.734	1	2
599.904	1	-8
600.074	1	7
600.244	1	11
600.413	1	-10
600.583	1	-4
600.753	1	-3
600.923	1	4
601.092	1	-1
601.262	1	3
601.432	1	7
601.602	1	6
601.771	1	-1
601.941	1	5
602.111	1	-8
602.281	1	-8
602.451	1	-5
602.620	1	8
602.790	1	-2
602.960	1	-5
603.130	1	2
603.299	1	7
603.469	1	-4
603.639	1	3
603.809	1	12
603.978	1	-3
604.148	1	-3
604.318	1	8
604.487	1	-1
604.657	1	-3
604.827	1	-10
604.997	1	3
605.166	1	-6
605.336	1	-9
605.506	1	-1
605.676	1	-6
605.845	1	-1
606.015	1	4
606.185	1	1
606.355	1	3
606.524	1	-8
606.694	1	13
606.864	1	-8
607.034	1	-5
607.203	1	7
607.373	1	6
607.543	1	-14
607.712	1	-1
607.882	1	-2
608.052	1	12
608.222	1	2
608.391	1	-1
608.561	1	6
608.731	1	-8
608.901	1	2
609.070	1	4
609.240	1	3
609.410	1	4
609.579	1	12
609.749	1	9
609.919	1	-12
610.089	1	1
610.258	1	19
610.428	1	5
610.598	1	-2
610.767	1	6
610.937	1	0
611.107	1	7
611.277	1	6
611.446	1	5
611.616	1	-14
611.786	1	11
611.955	1	5
612.125	1	-3
612.295	1	7
612.465	1	-4
612.634	1	-3
612.804	1	15
612.974	1	11
613.143	1	-7
613.313	1	0
613.483	1	10
613.652	1	6
613.822	1	10
613.992	1	15
614.162	1	-1
614.331	1	9
614.501	1	5
614.671	1	5
614.840	1	0
615.010	1	1
615.180	1	4
615.349	1	5
615.519	1	10
615.689	1	6
615.858	1	2
616.028	1	4
616.198	1	5
616.368	1	0
616.537	1	-2
616.707	1	-6
616.877	1	-1
617.046	1	1
617.216	1	-5
617.386	1	-3
617.555	1	-8
617.725	1	5
617.895	1	-7
618.064	1	2
618.234	1	2
618.404	1	7
618.573	1	6
618.743	1	0
618.913	1	-10
619.082	1	3
619.252	1	3
619.422	1	-4
619.591	1	5
619.761	1	6
619.931	1	3
620.100	1	2
620.270	1	5
620.440	1	5
620.609	1	-2
620.779	1	-5
620.949	1	4
621.118	1	-1
621.288	1	3
621.458	1	11
621.627	1	-9
621.797	1	-4
621.967	1	-1
622.136	1	3
622.306	1	10
622.476	1	11
622.645	1	11
622.815	1	2
622.985	1	1
623.154	1	10
623.324	1	0
623.494	1	-3
623.663	1	-5
623.833	1	-2
624.002	1	3
624.172	1	5
624.342	1	-1
624.511	1	-1
624.681	1	-7
624.851	1	-5
625.020	1	5
625.190	1	4
625.360	1	-9
625.529	1	-3
625.699	1	2
625.869	1	1
626.038	1	6
626.208	1	-5
626.377	1	14
626.547	1	-1
626.717	1	-4
626.886	1	-2
627.056	1	-2
627.226	1	1
627.395	1	4
627.565	1	8
627.735	1	13
627.904	1	-3
628.074	1	-2
628.243	1	-8
628.413	1	5
628.583	1	1
628.752	1	4
628.922	1	-5
629.091	1	11
629.261	1	7
629.431	1	-13
629.600	1	12
629.770	1	2
629.940	1	-4
630.109	1	1
630.279	1	0
630.448	1	1
630.618	1	-3
630.788	1	5
630.957	1	-1
631.127	1	7
631.297	1	-4
631.466	1	9
631.636	1	-2
631.805	1	-8
631.975	1	9
632.145	1	-13
632.314	1	10
632.484	1	4
632.653	1	-6
632.823	1	10
632.993	1	3
633.162	1	-4
633.332	1	5
633.501	1	-5
633.671	1	1
633.841	1	2
634.010	1	-2
634.180	1	-3
634.349	1	3
634.519	1	-1
634.689	1	1
634.858	1	3
635.028	1	-3
635.197	1	-6
635.367	1	-4
635.537	1	9
635.706	1	-3
635.876	1	2
636.045	1	2
636.215	1	2
636.384	1	9
636.554	1	10
636.724	1	-1
636.893	1	4
637.063	1	9
637.232	1	-3
637.402	1	8
637.572	1	4
637.741	1	13
637.911	1	-4
638.080	1	3
638.250	1	1
638.419	1	-1
638.589	1	11
638.759	1	6
638.928	1	-7
639.098	1	-6
639.267	1	1
639.437	1	6
639.606	1	8
639.776	1	-3
639.946	1	-1
640.115	1	-1
640.285	1	-1
640.454	1	9
640.624	1	7
640.793	1	4
640.963	1	3
641.132	1	11
641.302	1	6
641.472	1	-12
641.641	1	-5
641.811	1	5
641.980	1	-3
642.150	1	-4
642.319	1	-2
642.489	1	-12
642.659	1	-10
642.828	1	-1
642.998	1	-8
643.167	1	8
643.337	1	0
643.506	1	-2
643.676	1	-6
643.845	1	8
644.015	1	3
644.184	1	6
644.354	1	0
644.524	1	-9
644.693	1	2
644.863	1	2
645.032	1	-6
645.202	1	1
645.371	1	-4
645.541	1	-9
645.710	1	-6
645.880	1	9
646.049	1	5
646.219	1	1
646.388	1	0
646.558	1	1
646.728	1	6
646.897	1	4
647.067	1	5
647.236	1	8
647.406	1	-3
647.575	1	8
647.745	1	-2
647.914	1	-9
648.084	1	9
648.253	1	-5
648.423	1	0
648.592	1	0
648.762	1	-4
648.931	1	10
649.101	1	3
649.270	1	8
649.440	1	5
649.610	1	13
649.779	1	-1
649.949	1	3
650.118	1	-10
650.288	1	9
650.457	1	1
650.627	1	1
650.796	1	-4
650.966	1	0
651.135	1	3
651.305	1	-17
651.474	1	10
651.644	1	1
651.813	1	7
651.983	1	1
652.152	1	-6
652.322	1	2
652.491	1	-1
652.661	1	-1
652.830	1	10
653.000	1	4
653.169	1	3
653.339	1	11
653.508	1	-3
653.678	1	4
653.847	1	0
654.017	1	-2
654.186	1	5
654.356	1	8
654.525	1	-7
654.695	1	5
654.864	1	10
655.034	1	0
655.203	1	13
655.373	1	7
655.542	1	3
655.712	1	-4
655.881	1	2
656.051	1	2
656.220	1	5
656.390	1	0
656.559	1	-3
656.729	1	1
656.898	1	3
657.068	1	3
657.237	1	4
657.406	1	7
657.576	1	-8
657.745	1	-3
657.915	1	16
658.084	1	11
658.254	1	6
658.423	1	-6
658.593	1	-7
658.762	1	-2
658.932	1	-7
659.101	1	-8
659.271	1	-3
659.440	1	4
659.610	1	8
659.779	1	-4
659.949	1	-1
660.118	1	6
660.288	1	0
660.457	1	0
660.626	1	-7
660.796	1	1
660.965	1	3
661.135	1	4
661.304	1	-3
661.474	1	6
661.643	1	-2
661.813	1	6
661.982	1	-4
662.152	1	-3
662.321	1	11
662.491	1	2
662.660	1	4
662.829	1	4
662.999	1	4
663.168	1	-6
663.338	1	-4
663.507	1	4
663.677	1	-4
663.846	1	-1
664.016	1	4
664.185	1	-2
664.354	1	2
664.524	1	-14
664.693	1	2
664.863	1	0
665.032	1	5
665.202	1	-11
665.371	1	4
665.541	1	3
665.710	1	-5
665.879	1	0
666.049	1	14
666.218	1	-7
666.388	1	-12
666.557	1	1
666.727	1	-13
666.896	1	-2
667.065	1	3
667.235	1	2
667.404	1	-8
667.574	1	6
667.743	1	9
667.913	1	3
668.082	1	4
668.251	1	1
668.421	1	1
668.590	1	-10
668.760	1	-8
668.929	1	3
669.099	1	0
669.268	1	0
669.437	1	4
669.607	1	-4
669.776	1	-5
669.946	1	0
670.115	1	-2
670.285	1	4
670.454	1	4
670.623	1	10
670.793	1	1
670.962	1	4
671.132	1	11
671.301	1	-5
671.470	1	-1
671.640	1	-8
671.809	1	-1
671.979	1	10
672.148	1	2
672.317	1	-3
672.487	1	-6
672.656	1	-2
672.826	1	-13
672.995	1	2
673.164	1	5
673.334	1	7
673.503	1	-4
673.673	1	11
673.842	1	-1
674.011	1	4
674.181	1	2
674.350	1	-1
674.520	1	-3
674.689	1	-3
674.858	1	7
675.028	1	-1
675.197	1	-6
675.367	1	2
675.536	1	6
675.705	1	-15
675.875	1	3
676.044	1	-6
676.214	1	3
676.383	1	-8
676.552	1	0
676.722	1	3
676.891	1	-14
677.060	1	5
677.230	1	8
677.399	1	3
677.569	1	5
677.738	1	-5
677.907	1	-5
678.077	1	8
678.246	1	-5
678.416	1	3
678.585	1	11
678.754	1	-4
678.924	1	-11
679.093	1	-1
679.262	1	8
679.432	1	-3
679.601	1	-12
679.771	1	-4
679.940	1	0
680.109	1	6
680.279	1	-1
680.448	1	7
680.617	1	-7
680.787	1	3
680.956	1	-9
681.125	1	9
681.295	1	0
681.464	1	0
681.634	1	1
681.803	1	-14
681.972	1	0
682.142	1	12
682.311	1	-1
682.480	1	-5
682.650	1	-3
682.819	1	0
682.988	1	-8
683.158	1	-1
683.327	1	8
683.496	1	6
683.666	1	3
683.835	1	3
684.004	1	6
684.174	1	2
684.343	1	-8
684.512	1	2
684.682	1	7
684.851	1	4
685.021	1	13
685.190	1	11
685.359	1	1
685.529	1	0
685.698	1	3
685.867	1	-4
686.037	1	-1
686.206	1	6
686.375	1	2
686.545	1	10
686.714	1	-1
686.883	1	-6
687.053	1	-4
687.222	1	0
687.391	1	-1
687.561	1	2
687.730	1	4
687.899	1	5
688.069	1	-2
688.238	1	-4
688.407	1	3
688.577	1	-9
688.746	1	9
