340.368	1	7
340.539	1	6
340.710	1	-1
340.881	1	-4
341.052	1	0
341.223	1	8
341.394	1	-4
341.565	1	-9
341.737	1	1
341.908	1	3
342.079	1	-8
342.250	1	-4
342.421	1	-7
342.592	1	-8
342.763	1	-12
342.934	1	1
343.105	1	10
343.276	1	-3
343.447	1	7
343.618	1	-2
343.789	1	-6
343.960	1	-6
344.131	1	2
344.302	1	-2
344.473	1	-4
344.644	1	-7
344.815	1	5
344.986	1	10
345.157	1	9
345.328	1	-3
345.499	1	7
345.670	1	9
345.841	1	8
346.012	1	-2
346.183	1	-3
346.354	1	-7
346.526	1	1
346.697	1	-5
346.868	1	-7
347.039	1	3
347.210	1	-4
347.381	1	-2
347.552	1	-1
347.723	1	6
347.894	1	8
348.065	1	-5
348.236	1	-3
348.407	1	4
348.578	1	4
348.749	1	4
348.920	1	16
349.091	1	7
349.262	1	1
349.433	1	-8
349.604	1	8
349.775	1	2
349.946	1	-3
350.117	1	5
350.288	1	3
350.459	1	7
350.630	1	-6
350.801	1	10
350.972	1	1
351.143	1	-4
351.314	1	-7
351.485	1	-2
351.656	1	-6
351.827	1	-14
351.998	1	-1
352.169	1	7
352.340	1	-6
352.511	1	-7
352.682	1	0
352.853	1	-1
353.024	1	-7
353.195	1	-4
353.366	1	1
353.537	1	-2
353.708	1	5
353.879	1	6
354.050	1	10
354.221	1	-6
354.392	1	5
354.563	1	6
354.734	1	1
354.905	1	9
355.076	1	-5
355.247	1	-4
355.418	1	3
355.589	1	-6
355.760	1	0
355.931	1	9
356.102	1	-3
356.273	1	-5
356.444	1	3
356.615	1	8
356.785	1	12
356.956	1	0
357.127	1	-4
357.298	1	4
357.469	1	-7
357.640	1	9
357.811	1	13
357.982	1	-9
358.153	1	7
358.324	1	2
358.495	1	0
358.666	1	-1
358.837	1	3
359.008	1	0
359.179	1	1
359.350	1	2
359.521	1	0
359.692	1	6
359.863	1	-6
360.034	1	3
360.205	1	3
360.376	1	-3
360.547	1	-6
360.718	1	-9
360.889	1	5
361.060	1	8
361.231	1	5
361.401	1	6
361.572	1	1
361.743	1	2
361.914	1	5
362.085	1	-6
362.256	1	8
362.427	1	-1
362.598	1	-1
362.769	1	0
362.940	1	-4
363.111	1	3
363.282	1	7
363.453	1	0
363.624	1	-6
363.795	1	2
363.966	1	-6
364.137	1	3
364.308	1	-6
364.478	1	3
364.649	1	-1
364.820	1	2
364.991	1	-1
365.162	1	-12
365.333	1	16
365.504	1	-7
365.675	1	-3
365.846	1	-4
366.017	1	2
366.188	1	-5
366.359	1	-3
366.530	1	0
366.701	1	-9
366.871	1	7
367.042	1	7
367.213	1	0
367.384	1	4
367.555	1	-5
367.726	1	12
367.897	1	-2
368.068	1	-2
368.239	1	9
368.410	1	-3
368.581	1	0
368.752	1	-7
368.923	1	-12
369.093	1	1
369.264	1	4
369.435	1	1
369.606	1	13
369.777	1	-10
369.948	1	7
370.119	1	4
370.290	1	5
370.461	1	6
370.632	1	8
370.803	1	-9
370.973	1	5
371.144	1	-1
371.315	1	0
371.486	1	9
371.657	1	4
371.828	1	-2
371.999	1	-8
372.170	1	13
372.341	1	0
372.512	1	-3
372.682	1	-2
372.853	1	8
373.024	1	-10
373.195	1	-7
373.366	1	-5
373.537	1	0
373.708	1	-4
373.879	1	4
374.050	1	1
374.220	1	3
374.391	1	8
374.562	1	-7
374.733	1	15
374.904	1	6
375.075	1	1
375.246	1	-2
375.417	1	3
375.588	1	-4
375.758	1	-3
375.929	1	8
376.100	1	13
376.271	1	-2
376.442	1	0
376.613	1	-5
376.784	1	-2
376.955	1	-2
377.125	1	-1
377.296	1	7
377.467	1	2
377.638	1	-8
377.809	1	18
377.980	1	4
378.151	1	-7
378.321	1	4
378.492	1	-6
378.663	1	-2
378.834	1	-9
379.005	1	14
379.176	1	3
379.347	1	3
379.518	1	-11
379.688	1	3
379.859	1	-7
380.030	1	-7
380.201	1	-7
380.372	1	-6
380.543	1	10
380.714	1	9
380.884	1	1
381.055	1	-1
381.226	1	2
381.397	1	-4
381.568	1	-6
381.739	1	6
381.910	1	-13
382.080	1	-21
382.251	1	4
382.422	1	8
382.593	1	-1
382.764	1	1
382.935	1	2
383.105	1	-9
383.276	1	6
383.447	1	3
383.618	1	4
383.789	1	3
383.960	1	-1
384.130	1	-10
384.301	1	-3
384.472	1	-6
384.643	1	7
384.814	1	-3
384.985	1	-1
385.156	1	12
385.326	1	-2
385.497	1	3
385.668	1	7
385.839	1	-3
386.010	1	9
386.180	1	7
386.351	1	-4
386.522	1	15
386.693	1	0
386.864	1	-3
387.035	1	-8
387.205	1	5
387.376	1	12
387.547	1	-3
387.718	1	5
387.889	1	7
388.060	1	-12
388.230	1	-7
388.401	1	11
388.572	1	0
388.743	1	3
388.914	1	12
389.084	1	2
389.255	1	10
389.426	1	6
389.597	1	-17
389.768	1	-2
389.939	1	11
390.109	1	0
390.280	1	15
390.451	1	17
390.622	1	-2
390.793	1	-7
390.963	1	3
391.134	1	5
391.305	1	7
391.476	1	2
391.647	1	-2
391.817	1	-2
391.988	1	-6
392.159	1	8
392.330	1	11
392.501	1	3
392.671	1	11
392.842	1	8
393.013	1	15
393.184	1	8
393.355	1	4
393.525	1	1
393.696	1	1
393.867	1	-4
394.038	1	3
394.208	1	6
394.379	1	-2
394.550	1	8
394.721	1	2
394.892	1	-3
395.062	1	-5
395.233	1	15
395.404	1	6
395.575	1	4
395.746	1	-2
395.916	1	4
396.087	1	4
396.258	1	-5
396.429	1	9
396.599	1	6
396.770	1	0
396.941	1	10
397.112	1	-11
397.283	1	4
397.453	1	-16
397.624	1	3
397.795	1	6
397.966	1	-5
398.136	1	2
398.307	1	7
398.478	1	-10
398.649	1	-2
398.819	1	8
398.990	1	11
399.161	1	8
399.332	1	4
399.503	1	8
399.673	1	0
399.844	1	-4
400.015	1	6
400.186	1	10
400.356	1	-8
400.527	1	-1
400.698	1	1
400.869	1	11
401.039	1	-4
401.210	1	-5
401.381	1	4
401.552	1	2
401.722	1	9
401.893	1	12
402.064	1	-3
402.235	1	12
402.405	1	0
402.576	1	13
402.747	1	4
402.918	1	-7
403.088	1	-2
403.259	1	-7
403.430	1	0
403.601	1	-5
403.771	1	5
403.942	1	2
404.113	1	12
404.284	1	-5
404.454	1	3
404.625	1	7
404.796	1	7
404.967	1	-3
405.137	1	6
405.308	1	-8
405.479	1	1
405.649	1	1
405.820	1	-2
405.991	1	3
406.162	1	-3
406.332	1	-14
406.503	1	-7
406.674	1	4
406.845	1	-2
407.015	1	-13
407.186	1	12
407.357	1	4
407.527	1	-4
407.698	1	-2
407.869	1	2
408.040	1	-7
408.210	1	-6
408.381	1	0
408.552	1	1
408.722	1	-5
408.893	1	1
409.064	1	-4
409.235	1	1
409.405	1	2
409.576	1	3
409.747	1	-1
409.917	1	2
410.088	1	3
410.259	1	8
410.430	1	-1
410.600	1	9
410.771	1	3
410.942	1	6
411.112	1	4
411.283	1	-18
411.454	1	11
411.625	1	0
411.795	1	6
411.966	1	0
412.137	1	5
412.307	1	0
412.478	1	-2
412.649	1	2
412.819	1	-6
412.990	1	-6
413.161	1	-3
413.332	1	0
413.502	1	6
413.673	1	4
413.844	1	-1
414.014	1	2
414.185	1	8
414.356	1	-4
414.526	1	2
414.697	1	-2
414.868	1	7
415.038	1	0
415.209	1	-6
415.380	1	-5
415.550	1	-1
415.721	1	-2
415.892	1	-4
416.063	1	10
416.233	1	4
416.404	1	2
416.575	1	-8
416.745	1	-4
416.916	1	-7
417.087	1	-3
417.257	1	4
417.428	1	-13
417.599	1	8
417.769	1	3
417.940	1	1
418.111	1	4
418.281	1	-5
418.452	1	-3
418.623	1	-2
418.793	1	5
418.964	1	1
419.135	1	7
419.305	1	0
419.476	1	-1
419.647	1	6
419.817	1	-5
419.988	1	-3
420.159	1	-6
420.329	1	4
420.500	1	-1
420.671	1	3
420.841	1	3
421.012	1	11
421.183	1	0
421.353	1	5
421.524	1	1
421.695	1	1
421.865	1	-4
422.036	1	-4
422.206	1	-2
422.377	1	10
422.548	1	-2
422.718	1	-1
422.889	1	3
423.060	1	-3
423.230	1	10
423.401	1	-6
423.572	1	-2
423.742	1	-6
423.913	1	9
424.084	1	-1
424.254	1	1
424.425	1	-4
424.595	1	-14
424.766	1	-1
424.937	1	-8
425.107	1	2
425.278	1	-8
425.449	1	6
425.619	1	-2
425.790	1	-10
425.961	1	4
426.131	1	2
426.302	1	-3
426.472	1	-2
426.643	1	2
426.814	1	0
426.984	1	8
427.155	1	3
427.326	1	8
427.496	1	12
427.667	1	9
427.837	1	-10
428.008	1	2
428.179	1	-5
428.349	1	4
428.520	1	-18
428.691	1	4
428.861	1	-4
429.032	1	0
429.202	1	6
429.373	1	-14
429.544	1	3
429.714	1	3
429.885	1	-4
430.055	1	6
430.226	1	1
430.397	1	-9
430.567	1	6
430.738	1	-2
430.909	1	-17
431.079	1	0
431.250	1	-4
431.420	1	-3
431.591	1	2
431.762	1	5
431.932	1	10
432.103	1	2
432.273	1	-7
432.444	1	9
432.615	1	-1
432.785	1	2
432.956	1	-4
433.126	1	1
433.297	1	11
433.468	1	-3
433.638	1	-8
433.809	1	9
433.979	1	-4
434.150	1	-12
434.320	1	-6
434.491	1	-2
434.662	1	2
434.832	1	-5
435.003	1	-1
435.173	1	4
435.344	1	8
435.515	1	5
435.685	1	-1
435.856	1	-4
436.026	1	6
436.197	1	-8
436.368	1	-7
436.538	1	-2
436.709	1	-3
436.879	1	-4
437.050	1	-1
437.220	1	11
437.391	1	-3
437.562	1	9
437.732	1	6
437.903	1	0
438.073	1	14
438.244	1	1
438.414	1	-6
438.585	1	0
438.756	1	9
438.926	1	-1
439.097	1	2
439.267	1	6
439.438	1	-3
439.608	1	-4
439.779	1	-10
439.949	1	-10
440.120	1	0
440.291	1	-3
440.461	1	2
440.632	1	2
440.802	1	6
440.973	1	-1
441.143	1	6
441.314	1	5
441.485	1	-11
441.655	1	8
441.826	1	-7
441.996	1	0
442.167	1	-1
442.337	1	-2
442.508	1	-5
442.678	1	-9
442.849	1	9
443.019	1	8
443.190	1	-11
443.361	1	2
443.531	1	0
443.702	1	-2
443.872	1	-4
444.043	1	1
444.213	1	-5
444.384	1	2
444.554	1	-6
444.725	1	1
444.895	1	0
445.066	1	-6
445.237	1	-5
445.407	1	-4
445.578	1	6
445.748	1	-1
445.919	1	0
446.089	1	11
446.260	1	-1
446.430	1	-12
446.601	1	-7
446.771	1	-1
446.942	1	-1
447.112	1	-3
447.283	1	-1
447.453	1	0
447.624	1	1
447.794	1	-8
447.965	1	-4
448.135	1	-3
448.306	1	6
448.477	1	2
448.647	1	8
448.818	1	11
448.988	1	-7
449.159	1	-7
449.329	1	1
449.500	1	5
449.670	1	8
449.841	1	0
450.011	1	1
450.182	1	-9
450.352	1	1
450.523	1	-11
450.693	1	2
450.864	1	-6
451.034	1	2
451.205	1	-2
451.375	1	9
451.546	1	-5
451.716	1	8
451.887	1	-3
452.057	1	3
452.228	1	-6
452.398	1	6
452.569	1	10
452.739	1	-4
452.910	1	-1
453.080	1	14
453.251	1	0
453.421	1	4
453.592	1	-7
453.762	1	-8
453.933	1	11
454.103	1	-5
454.274	1	-2
454.444	1	10
454.615	1	5
454.785	1	-7
454.956	1	2
455.126	1	0
455.297	1	-3
455.467	1	7
455.638	1	-3
455.808	1	-5
455.979	1	10
456.149	1	-4
456.320	1	0
456.490	1	1
456.661	1	-2
456.831	1	10
457.001	1	-1
457.172	1	4
457.342	1	-3
457.513	1	8
457.683	1	2
457.854	1	-8
458.024	1	7
458.195	1	-13
458.365	1	-1
458.536	1	3
458.706	1	-3
458.877	1	-3
459.047	1	5
459.218	1	5
459.388	1	4
459.559	1	0
459.729	1	12
459.899	1	18
460.070	1	2
460.240	1	0
460.411	1	10
460.581	1	2
460.752	1	-4
460.922	1	-2
461.093	1	5
461.263	1	8
461.434	1	8
461.604	1	-3
461.775	1	7
461.945	1	8
462.115	1	-4
462.286	1	6
462.456	1	-5
462.627	1	-8
462.797	1	-8
462.968	1	-8
463.138	1	3
463.309	1	-2
463.479	1	8
463.649	1	1
463.820	1	0
463.990	1	-1
464.161	1	8
464.331	1	8
464.502	1	-6
464.672	1	-1
464.843	1	1
465.013	1	-4
465.183	1	-3
465.354	1	-4
465.524	1	12
465.695	1	9
465.865	1	-10
466.036	1	-1
466.206	1	-8
466.376	1	-4
466.547	1	1
466.717	1	-8
466.888	1	-11
467.058	1	10
467.229	1	6
467.399	1	11
467.569	1	5
467.740	1	1
467.910	1	-9
468.081	1	8
468.251	1	-4
468.422	1	4
468.592	1	4
468.762	1	-12
468.933	1	3
469.103	1	-3
469.274	1	0
469.444	1	0
469.614	1	-2
469.785	1	4
469.955	1	12
470.126	1	0
470.296	1	3
470.467	1	-9
470.637	1	5
470.807	1	-5
470.978	1	9
471.148	1	-5
471.319	1	8
471.489	1	-1
471.659	1	-4
471.830	1	7
472.000	1	-2
472.171	1	0
472.341	1	-3
472.511	1	8
472.682	1	3
472.852	1	-12
473.023	1	-13
473.193	1	-5
473.363	1	5
473.534	1	-4
473.704	1	-2
473.875	1	11
474.045	1	-11
474.215	1	3
474.386	1	6
474.556	1	-2
474.727	1	7
474.897	1	5
475.067	1	12
475.238	1	-3
475.408	1	0
475.578	1	15
475.749	1	-4
475.919	1	-5
476.090	1	-3
476.260	1	2
476.430	1	-2
476.601	1	1
476.771	1	6
476.942	1	-2
477.112	1	-1
477.282	1	-6
477.453	1	-3
477.623	1	-3
477.793	1	2
477.964	1	4
478.134	1	0
478.305	1	1
478.475	1	-2
478.645	1	-1
478.816	1	-6
478.986	1	-6
479.156	1	0
479.327	1	-8
479.497	1	-5
479.667	1	0
479.838	1	-5
480.008	1	3
480.179	1	-2
480.349	1	-1
480.519	1	-1
480.690	1	-1
480.860	1	-7
481.030	1	-2
481.201	1	-5
481.371	1	4
481.541	1	6
481.712	1	5
481.882	1	0
482.053	1	7
482.223	1	-7
482.393	1	-9
482.564	1	-8
482.734	1	0
482.904	1	-2
483.075	1	-2
483.245	1	5
483.415	1	7
483.586	1	-15
483.756	1	14
483.926	1	8
484.097	1	-15
484.267	1	-10
484.437	1	-10
484.608	1	-1
484.778	1	2
484.948	1	-10
485.119	1	-3
485.289	1	3
485.459	1	2
485.630	1	-6
485.800	1	0
485.970	1	0
486.141	1	-8
486.311	1	3
486.481	1	4
486.652	1	-2
486.822	1	3
486.992	1	-4
487.163	1	-6
487.333	1	-2
487.503	1	-10
487.674	1	-1
487.844	1	3
488.014	1	9
488.185	1	-6
488.355	1	-4
488.525	1	0
488.696	1	-11
488.866	1	10
489.036	1	1
489.207	1	9
489.377	1	1
489.547	1	-4
489.718	1	0
489.888	1	-5
490.058	1	-2
490.228	1	-11
490.399	1	3
490.569	1	3
490.739	1	7
490.910	1	-11
491.080	1	-1
491.250	1	-4
491.421	1	7
491.591	1	-8
491.761	1	6
491.932	1	6
492.102	1	-2
492.272	1	3
492.442	1	0
492.613	1	3
492.783	1	-2
492.953	1	0
493.124	1	-11
493.294	1	11
493.464	1	-5
493.635	1	-5
493.805	1	7
493.975	1	-4
494.145	1	-6
494.316	1	9
494.486	1	3
494.656	1	0
494.827	1	0
494.997	1	-1
495.167	1	-12
495.337	1	5
495.508	1	3
495.678	1	10
495.848	1	5
496.019	1	-4
496.189	1	1
496.359	1	2
496.529	1	-18
496.700	1	-3
496.870	1	-6
497.040	1	-5
497.211	1	3
497.381	1	-17
497.551	1	7
497.721	1	-1
497.892	1	4
498.062	1	-10
498.232	1	-3
498.403	1	4
498.573	1	-6
498.743	1	-9
498.913	1	-3
499.084	1	-2
499.254	1	-5
499.424	1	3
499.594	1	-4
499.765	1	-4
499.935	1	-8
500.105	1	-3
500.275	1	10
500.446	1	-2
500.616	1	-1
500.786	1	4
500.956	1	8
501.127	1	5
501.297	1	-1
501.467	1	5
501.638	1	3
501.808	1	-6
501.978	1	4
502.148	1	-2
502.319	1	2
502.489	1	-6
502.659	1	4
502.829	1	7
503.000	1	0
503.170	1	4
503.340	1	-11
503.510	1	-3
503.681	1	2
503.851	1	-26
504.021	1	23
504.191	1	3
504.362	1	7
504.532	1	-12
504.702	1	5
504.872	1	-10
505.042	1	4
505.213	1	-1
505.383	1	-3
505.553	1	0
505.723	1	-7
505.894	1	10
506.064	1	-4
506.234	1	3
506.404	1	-4
506.575	1	1
506.745	1	-2
506.915	1	3
507.085	1	-7
507.256	1	0
507.426	1	0
507.596	1	-5
507.766	1	1
507.936	1	5
508.107	1	-4
508.277	1	0
508.447	1	6
508.617	1	9
508.788	1	1
508.958	1	8
509.128	1	1
509.298	1	20
509.468	1	4
509.639	1	5
509.809	1	5
509.979	1	-6
510.149	1	-1
510.319	1	-3
510.490	1	10
510.660	1	0
510.830	1	-1
511.000	1	13
511.171	1	10
511.341	1	-12
511.511	1	4
511.681	1	8
511.851	1	-8
512.022	1	-2
512.192	1	8
512.362	1	1
512.532	1	-3
512.702	1	-2
512.873	1	15
513.043	1	8
513.213	1	2
513.383	1	-12
513.553	1	-5
513.724	1	7
513.894	1	-3
514.064	1	4
514.234	1	-1
514.404	1	2
514.575	1	1
514.745	1	-9
514.915	1	5
515.085	1	0
515.255	1	3
515.425	1	-4
515.596	1	0
515.766	1	8
515.936	1	0
516.106	1	-9
516.276	1	2
516.447	1	4
516.617	1	-1
516.787	1	0
516.957	1	-3
517.127	1	3
517.297	1	3
517.468	1	-4
517.638	1	12
517.808	1	3
517.978	1	-13
518.148	1	-7
518.319	1	3
518.489	1	3
518.659	1	4
518.829	1	-4
518.999	1	3
519.169	1	3
519.340	1	-3
519.510	1	4
519.680	1	-7
519.850	1	-9
520.020	1	-10
520.190	1	2
520.361	1	-7
520.531	1	4
520.701	1	-1
520.871	1	-6
521.041	1	7
521.211	1	-5
521.382	1	4
521.552	1	6
521.722	1	2
521.892	1	-9
522.062	1	-1
522.232	1	-11
522.402	1	-8
522.573	1	-1
522.743	1	-1
522.913	1	0
523.083	1	0
523.253	1	-13
523.423	1	-5
523.593	1	-8
523.764	1	11
523.934	1	-4
524.104	1	1
524.274	1	-7
524.444	1	8
524.614	1	8
524.784	1	4
524.955	1	1
525.125	1	1
525.295	1	-4
525.465	1	-2
525.635	1	21
525.805	1	-5
525.975	1	-1
526.146	1	0
526.316	1	-4
526.486	1	8
526.656	1	10
526.826	1	2
526.996	1	9
527.166	1	0
527.337	1	-5
527.507	1	-11
527.677	1	12
527.847	1	-3
528.017	1	-8
528.187	1	0
528.357	1	1
528.527	1	0
528.698	1	-11
528.868	1	-11
529.038	1	2
529.208	1	-3
529.378	1	8
529.548	1	-5
529.718	1	4
529.888	1	4
530.058	1	2
530.229	1	2
530.399	1	9
530.569	1	9
530.739	1	-4
530.909	1	5
531.079	1	12
531.249	1	-8
531.419	1	11
531.589	1	-9
531.760	1	1
531.930	1	-2
532.100	1	5
532.270	1	13
532.440	1	-3
532.610	1	-4
532.780	1	2
532.950	1	5
533.120	1	-9
533.290	1	-10
533.461	1	7
533.631	1	-2
533.801	1	-4
533.971	1	-1
534.141	1	7
534.311	1	13
534.481	1	0
534.651	1	10
534.821	1	5
534.991	1	-8
535.162	1	3
535.332	1	-3
535.502	1	2
535.672	1	-1
535.842	1	-2
536.012	1	4
536.182	1	-4
536.352	1	1
536.522	1	-3
536.692	1	-5
536.862	1	-2
537.032	1	2
537.203	1	1
537.373	1	-7
537.543	1	6
537.713	1	16
537.883	1	6
538.053	1	6
538.223	1	13
538.393	1	9
538.563	1	-2
538.733	1	-10
538.903	1	10
539.073	1	4
539.243	1	-1
539.413	1	0
539.584	1	4
539.754	1	-4
539.924	1	0
540.094	1	9
540.264	1	-9
540.434	1	-6
540.604	1	3
540.774	1	-2
540.944	1	-6
541.114	1	1
541.284	1	-2
541.454	1	2
541.624	1	2
541.794	1	4
541.964	1	-5
542.134	1	2
542.305	1	-7
542.475	1	2
542.645	1	-2
542.815	1	-3
542.985	1	-5
543.155	1	-2
543.325	1	-7
543.495	1	-7
543.665	1	9
543.835	1	2
544.005	1	-10
544.175	1	11
544.345	1	4
544.515	1	-3
544.685	1	-2
544.855	1	13
545.025	1	0
545.195	1	-2
545.365	1	-6
545.535	1	0
545.705	1	6
545.875	1	-6
546.045	1	7
546.216	1	11
546.386	1	8
546.556	1	-13
546.726	1	1
546.896	1	-2
547.066	1	-11
547.236	1	-7
547.406	1	-4
547.576	1	4
547.746	1	11
547.916	1	7
548.086	1	0
548.256	1	7
548.426	1	-1
548.596	1	1
548.766	1	1
548.936	1	-9
549.106	1	0
549.276	1	8
549.446	1	-1
549.616	1	9
549.786	1	3
549.956	1	2
550.126	1	-7
550.296	1	3
550.466	1	-9
550.636	1	-4
550.806	1	1
550.976	1	-4
551.146	1	-4
551.316	1	0
551.486	1	2
551.656	1	3
551.826	1	16
551.996	1	6
552.166	1	-5
552.336	1	0
552.506	1	2
552.676	1	-6
552.846	1	2
553.016	1	3
553.186	1	-6
553.356	1	-5
553.526	1	0
553.696	1	11
553.866	1	-2
554.036	1	9
554.206	1	7
554.376	1	-11
554.546	1	-9
554.716	1	-11
554.886	1	1
555.056	1	-11
555.226	1	-7
555.396	1	3
555.566	1	7
555.736	1	-4
555.906	1	9
556.076	1	-5
556.246	1	-5
556.416	1	6
556.586	1	11
556.756	1	0
556.926	1	5
557.096	1	-13
557.266	1	7
557.436	1	7
557.606	1	-10
557.776	1	-4
557.946	1	-1
558.116	1	5
558.286	1	3
558.456	1	-5
558.626	1	2
558.796	1	1
558.966	1	-4
559.136	1	-2
559.306	1	-2
559.476	1	1
559.646	1	-3
559.816	1	7
559.986	1	-8
560.155	1	-3
560.325	1	-6
560.495	1	-6
560.665	1	2
560.835	1	0
561.005	1	5
561.175	1	-2
561.345	1	-2
561.515	1	-7
561.685	1	-1
561.855	1	7
562.025	1	-10
562.195	1	3
562.365	1	-4
562.535	1	10
562.705	1	8
562.875	1	-7
563.045	1	5
563.215	1	2
563.385	1	-6
563.555	1	5
563.725	1	-3
563.895	1	-3
564.064	1	10
564.234	1	0
564.404	1	-13
564.574	1	-3
564.744	1	-1
564.914	1	-10
565.084	1	-15
565.254	1	6
565.424	1	8
565.594	1	-4
565.764	1	10
565.934	1	-5
566.104	1	-13
566.274	1	-7
566.444	1	1
566.614	1	-9
566.783	1	2
566.953	1	5
567.123	1	16
567.293	1	1
567.463	1	-2
567.633	1	4
567.803	1	-6
567.973	1	-6
568.143	1	-9
568.313	1	-1
568.483	1	-8
568.653	1	-1
568.823	1	10
568.993	1	-5
569.162	1	5
569.332	1	-1
569.502	1	2
569.672	1	6
569.842	1	-2
570.012	1	3
570.182	1	-9
570.352	1	-3
570.522	1	10
570.692	1	4
570.862	1	1
571.031	1	1
571.201	1	3
571.371	1	-6
571.541	1	-6
571.711	1	0
571.881	1	1
572.051	1	-6
572.221	1	9
572.391	1	7
572.561	1	3
572.731	1	-8
572.900	1	10
573.070	1	4
573.240	1	-8
573.410	1	-1
573.580	1	6
573.750	1	7
573.920	1	0
574.090	1	10
574.260	1	6
574.430	1	-8
574.599	1	-4
574.769	1	-2
574.939	1	-9
575.109	1	-1
575.279	1	3
575.449	1	6
575.619	1	-8
575.789	1	4
575.959	1	6
576.128	1	-6
576.298	1	-15
576.468	1	-5
576.638	1	2
576.808	1	-3
576.978	1	4
577.148	1	9
577.318	1	3
577.487	1	7
577.657	1	-15
577.827	1	3
577.997	1	-3
578.167	1	8
578.337	1	-7
578.507	1	-6
578.677	1	-1
578.846	1	-4
579.016	1	15
579.186	1	-4
579.356	1	4
579.526	1	-4
579.696	1	-5
579.866	1	-7
580.036	1	-1
580.205	1	8
580.375	1	-2
580.545	1	-1
580.715	1	5
580.885	1	-2
581.055	1	-2
581.225	1	-13
581.394	1	-11
581.564	1	2
581.734	1	-2
581.904	1	-2
582.074	1	-6
582.244	1	4
582.414	1	1
582.583	1	-4
582.753	1	3
582.923	1	-1
583.093	1	2
583.263	1	2
583.433	1	-9
583.603	1	12
583.772	1	1
583.942	1	-4
584.112	1	1
584.282	1	3
584.452	1	0
584.622	1	-2
584.791	1	-3
584.961	1	2
585.131	1	-1
585.301	1	7
585.471	1	-3
585.641	1	5
585.811	1	-7
585.980	1	-9
586.150	1	3
586.320	1	-3
586.490	1	-7
586.660	1	3
586.830	1	-9
586.999	1	-7
587.169	1	1
587.339	1	4
587.509	1	5
587.679	1	2
587.849	1	12
588.018	1	-1
588.188	1	0
588.358	1	7
588.528	1	3
588.698	1	0
588.867	1	2
589.037	1	7
589.207	1	-13
589.377	1	3
589.547	1	-10
589.717	1	0
589.886	1	-14
590.056	1	2
590.226	1	6
590.396	1	-3
590.566	1	7
590.735	1	11
590.905	1	10
591.075	1	-13
591.245	1	3
591.415	1	-8
591.585	1	-5
591.754	1	1
591.924	1	-4
592.094	1	4
592.264	1	-5
592.434	1	-4
592.603	1	-4
592.773	1	1
592.943	1	-2
593.113	1	-5
593.283	1	4
593.452	1	-8
593.622	1	2
593.792	1	-1
593.962	1	4
594.132	1	-1
594.301	1	9
594.471	1	0
594.641	1	-2
594.811	1	-8
594.981	1	1
595.150	1	1
595.320	1	4
595.490	1	-6
595.660	1	-2
595.829	1	-8
595.999	1	5
596.169	1	5
596.339	1	2
596.509	1	4
596.678	1	3
596.848	1	4
597.018	1	-3
597.188	1	2
597.358	1	1
597.527	1	-7
597.697	1	-2
597.867	1	0
598.037	1	4
598.206	1	-6
598.376	1	-1
598.546	1	0
598.716	1	-12
598.885	1	-6
599.055	1	2
599.225	1	7
599.395	1	8
599.565	1	-2
599.734	1	2
599.904	1	-4
600.074	1	-9
600.244	1	7
600.413	1	-6
600.583	1	3
600.753	1	11
600.923	1	12
601.092	1	-18
601.262	1	-7
601.432	1	0
601.602	1	-7
601.771	1	0
601.941	1	1
602.111	1	-7
602.281	1	-3
602.451	1	7
602.620	1	-8
602.790	1	1
602.960	1	-6
603.130	1	2
603.299	1	1
603.469	1	-6
603.639	1	1
603.809	1	2
603.978	1	-2
604.148	1	-1
604.318	1	2
604.487	1	1
604.657	1	-1
604.827	1	-10
604.997	1	0
605.166	1	-3
605.336	1	2
605.506	1	1
605.676	1	1
605.845	1	3
606.015	1	-1
606.185	1	3
606.355	1	5
606.524	1	-7
606.694	1	12
606.864	1	1
607.034	1	-8
607.203	1	9
607.373	1	1
607.543	1	0
607.712	1	0
607.882	1	-9
608.052	1	-3
608.222	1	4
608.391	1	-4
608.561	1	10
608.731	1	-2
608.901	1	2
609.070	1	6
609.240	1	-3
609.410	1	3
609.579	1	0
609.749	1	-7
609.919	1	-1
610.089	1	-9
610.258	1	0
610.428	1	-2
610.598	1	2
610.767	1	-3
610.937	1	-4
611.107	1	7
611.277	1	-1
611.446	1	0
611.616	1	-9
611.786	1	11
611.955	1	3
612.125	1	6
612.295	1	1
612.465	1	1
612.634	1	-2
612.804	1	5
612.974	1	8
613.143	1	-9
613.313	1	2
613.483	1	0
613.652	1	-5
613.822	1	0
613.992	1	4
614.162	1	-1
614.331	1	3
614.501	1	-5
614.671	1	5
614.840	1	-4
615.010	1	-5
615.180	1	2
615.349	1	-3
615.519	1	10
615.689	1	-2
615.858	1	1
616.028	1	6
616.198	1	9
616.368	1	-1
616.537	1	-6
616.707	1	-3
616.877	1	-7
617.046	1	2
617.216	1	5
617.386	1	3
617.555	1	-9
617.725	1	6
617.895	1	-4
618.064	1	-3
618.234	1	-2
618.404	1	1
618.573	1	-7
618.743	1	-2
618.913	1	3
619.082	1	7
619.252	1	0
619.422	1	-1
619.591	1	4
619.761	1	-3
619.931	1	7
620.100	1	8
620.270	1	-11
620.440	1	2
620.609	1	5
620.779	1	-3
620.949	1	-3
621.118	1	-6
621.288	1	-3
621.458	1	3
621.627	1	-4
621.797	1	-2
621.967	1	-7
622.136	1	6
622.306	1	6
622.476	1	7
622.645	1	7
622.815	1	-3
622.985	1	5
623.154	1	2
623.324	1	8
623.494	1	4
623.663	1	-6
623.833	1	-6
624.002	1	-3
624.172	1	5
624.342	1	-7
624.511	1	-5
624.681	1	-1
624.851	1	-8
625.020	1	1
625.190	1	8
625.360	1	-6
625.529	1	5
625.699	1	1
625.869	1	-1
626.038	1	4
626.208	1	-4
626.377	1	13
626.547	1	8
626.717	1	-5
626.886	1	-2
627.056	1	4
627.226	1	-8
627.395	1	3
627.565	1	5
627.735	1	-1
627.904	1	-2
628.074	1	6
628.243	1	-6
628.413	1	-8
628.583	1	-7
628.752	1	8
628.922	1	-1
629.091	1	9
629.261	1	-3
629.431	1	-6
629.600	1	7
629.770	1	-5
629.940	1	1
630.109	1	-1
630.279	1	-9
630.448	1	-10
630.618	1	0
630.788	1	0
630.957	1	-3
631.127	1	10
631.297	1	-7
631.466	1	7
631.636	1	-1
631.805	1	-4
631.975	1	3
632.145	1	-12
632.314	1	3
632.484	1	-5
632.653	1	-8
632.823	1	11
632.993	1	9
633.162	1	-1
633.332	1	4
633.501	1	-2
633.671	1	-5
633.841	1	9
634.010	1	-5
634.180	1	0
634.349	1	10
634.519	1	-3
634.689	1	8
634.858	1	10
635.028	1	-3
635.197	1	-7
635.367	1	-7
635.537	1	-4
635.706	1	2
635.876	1	-3
636.045	1	-1
636.215	1	-3
636.384	1	10
636.554	1	10
636.724	1	-4
636.893	1	-2
637.063	1	12
637.232	1	-1
637.402	1	1
637.572	1	0
637.741	1	7
637.911	1	3
638.080	1	1
638.250	1	5
638.419	1	6
638.589	1	7
638.759	1	7
638.928	1	-4
639.098	1	-3
639.267	1	1
639.437	1	-3
639.606	1	12
639.776	1	-3
639.946	1	0
640.115	1	2
640.285	1	5
640.454	1	14
640.624	1	10
640.793	1	6
640.963	1	-6
641.132	1	-2
641.302	1	5
641.472	1	-9
641.641	1	-7
641.811	1	6
641.980	1	0
642.150	1	-1
642.319	1	0
642.489	1	-1
642.659	1	-13
642.828	1	6
642.998	1	-7
643.167	1	11
643.337	1	6
643.506	1	-11
643.676	1	6
643.845	1	1
644.015	1	-3
644.184	1	6
644.354	1	-6
644.524	1	-1
644.693	1	0
644.863	1	-8
645.032	1	2
645.202	1	-4
645.371	1	-2
645.541	1	-7
645.710	1	2
645.880	1	-6
646.049	1	7
646.219	1	5
646.388	1	4
646.558	1	-2
646.728	1	2
646.897	1	-3
647.067	1	5
647.236	1	4
647.406	1	-11
647.575	1	3
647.745	1	4
647.914	1	-4
648.084	1	3
648.253	1	4
648.423	1	-5
648.592	1	2
648.762	1	1
648.931	1	-4
649.101	1	-6
649.270	1	-1
649.440	1	1
649.610	1	13
649.779	1	3
649.949	1	7
650.118	1	-5
650.288	1	-4
650.457	1	0
650.627	1	-5
650.796	1	-9
650.966	1	-5
651.135	1	1
651.305	1	-14
651.474	1	6
651.644	1	-4
651.813	1	3
651.983	1	7
652.152	1	4
652.322	1	1
652.491	1	3
652.661	1	-3
652.830	1	-3
653.000	1	0
653.169	1	1
653.339	1	2
653.508	1	1
653.678	1	1
653.847	1	11
654.017	1	2
654.186	1	2
654.356	1	9
654.525	1	4
654.695	1	8
654.864	1	-2
655.034	1	11
655.203	1	-2
655.373	1	1
655.542	1	0
655.712	1	1
655.881	1	10
656.051	1	6
656.220	1	8
656.390	1	0
656.559	1	-7
656.729	1	7
656.898	1	2
657.068	1	-8
657.237	1	1
657.406	1	-3
657.576	1	-1
657.745	1	1
657.915	1	15
658.084	1	9
658.254	1	3
658.423	1	-10
658.593	1	-3
658.762	1	-8
658.932	1	-1
659.101	1	-12
659.271	1	-4
659.440	1	12
659.610	1	11
659.779	1	-1
659.949	1	-1
660.118	1	3
660.288	1	-2
660.457	1	-6
660.626	1	-8
660.796	1	-8
660.965	1	-8
661.135	1	-4
661.304	1	3
661.474	1	-3
661.643	1	-2
661.813	1	2
661.982	1	-1
662.152	1	-1
662.321	1	1
662.491	1	1
662.660	1	5
662.829	1	-7
662.999	1	-6
663.168	1	-3
663.338	1	-9
663.507	1	2
663.677	1	-11
663.846	1	-1
664.016	1	-1
664.185	1	-3
664.354	1	6
664.524	1	-16
664.693	1	7
664.863	1	5
665.032	1	4
665.202	1	-2
665.371	1	12
665.541	1	1
665.710	1	-5
665.879	1	-6
666.049	1	-3
666.218	1	-2
666.388	1	-8
666.557	1	-2
666.727	1	-14
666.896	1	-4
667.065	1	10
667.235	1	1
667.404	1	-9
667.574	1	7
667.743	1	-8
667.913	1	-3
668.082	1	2
668.251	1	4
668.421	1	6
668.590	1	-1
668.760	1	5
668.929	1	5
669.099	1	-11
669.268	1	-4
669.437	1	13
669.607	1	-20
669.776	1	0
669.946	1	9
670.115	1	-1
670.285	1	0
670.454	1	6
670.623	1	6
670.793	1	-7
670.962	1	-5
671.132	1	5
671.301	1	-5
671.470	1	2
671.640	1	-20
671.809	1	-10
671.979	1	15
672.148	1	11
672.317	1	4
672.487	1	-11
672.656	1	0
672.826	1	-13
672.995	1	7
673.164	1	6
673.334	1	6
673.503	1	6
673.673	1	17
673.842	1	-4
674.011	1	11
674.181	1	-11
674.350	1	2
674.520	1	3
674.689	1	-5
674.858	1	-1
675.028	1	2
675.197	1	1
675.367	1	7
675.536	1	9
675.705	1	-1
675.875	1	3
676.044	1	-4
676.214	1	0
676.383	1	-10
676.552	1	-7
676.722	1	7
676.891	1	-11
677.060	1	4
677.230	1	19
677.399	1	-10
677.569	1	1
677.738	1	-3
677.907	1	-13
678.077	1	-4
678.246	1	-6
678.416	1	-1
678.585	1	7
678.754	1	3
678.924	1	-4
679.093	1	6
679.262	1	1
679.432	1	-8
679.601	1	-6
679.771	1	-10
679.940	1	-10
680.109	1	-1
680.279	1	-3
680.448	1	-1
680.617	1	-9
680.787	1	1
680.956	1	5
681.125	1	11
681.295	1	7
681.464	1	4
681.634	1	0
681.803	1	-8
681.972	1	-13
682.142	1	17
682.311	1	6
682.480	1	-3
682.650	1	-3
682.819	1	5
682.988	1	-4
683.158	1	-9
683.327	1	0
683.496	1	-8
683.666	1	4
683.835	1	4
684.004	1	-2
684.174	1	6
684.343	1	-3
684.512	1	-3
684.682	1	13
684.851	1	0
685.021	1	-5
685.190	1	7
685.359	1	-5
685.529	1	1
685.698	1	-1
685.867	1	1
686.037	1	0
686.206	1	6
686.375	1	0
686.545	1	9
686.714	1	-6
686.883	1	-7
687.053	1	1
687.222	1	2
687.391	1	0
687.561	1	3
687.730	1	-3
687.899	1	2
688.069	1	4
688.238	1	5
688.407	1	15
688.577	1	-10
688.746	1	3
