340.368	1	4
340.539	1	7
340.710	1	-2
340.881	1	4
341.052	1	2
341.223	1	18
341.394	1	4
341.565	1	-17
341.737	1	7
341.908	1	13
342.079	1	1
342.250	1	1
342.421	1	-6
342.592	1	-9
342.763	1	5
342.934	1	1
343.105	1	8
343.276	1	-8
343.447	1	3
343.618	1	5
343.789	1	-7
343.960	1	5
344.131	1	-3
344.302	1	-3
344.473	1	0
344.644	1	-5
344.815	1	8
344.986	1	2
345.157	1	7
345.328	1	1
345.499	1	10
345.670	1	2
345.841	1	2
346.012	1	4
346.183	1	-6
346.354	1	-2
346.526	1	10
346.697	1	-6
346.868	1	1
347.039	1	3
347.210	1	-8
347.381	1	1
347.552	1	2
347.723	1	-7
347.894	1	0
348.065	1	-1
348.236	1	-1
348.407	1	4
348.578	1	0
348.749	1	-5
348.920	1	5
349.091	1	-4
349.262	1	-13
349.433	1	-10
349.604	1	14
349.775	1	5
349.946	1	0
350.117	1	4
350.288	1	2
350.459	1	5
350.630	1	-8
350.801	1	8
350.972	1	-4
351.143	1	-1
351.314	1	-3
351.485	1	-11
351.656	1	2
351.827	1	-4
351.998	1	-7
352.169	1	14
352.340	1	-1
352.511	1	-10
352.682	1	-9
352.853	1	-3
353.024	1	-7
353.195	1	5
353.366	1	7
353.537	1	-11
353.708	1	5
353.879	1	8
354.050	1	4
354.221	1	-5
354.392	1	6
354.563	1	13
354.734	1	-5
354.905	1	5
355.076	1	8
355.247	1	-4
355.418	1	-2
355.589	1	1
355.760	1	4
355.931	1	5
356.102	1	1
356.273	1	1
356.444	1	5
356.615	1	4
356.785	1	23
356.956	1	1
357.127	1	-1
357.298	1	-3
357.469	1	0
357.640	1	8
357.811	1	8
357.982	1	-7
358.153	1	8
358.324	1	-4
358.495	1	13
358.666	1	-4
358.837	1	-1
359.008	1	-2
359.179	1	-1
359.350	1	-5
359.521	1	-3
359.692	1	10
359.863	1	-6
360.034	1	-14
360.205	1	1
360.376	1	10
360.547	1	-4
360.718	1	-3
360.889	1	0
361.060	1	3
361.231	1	-5
361.401	1	6
361.572	1	-6
361.743	1	-3
361.914	1	-1
362.085	1	-11
362.256	1	7
362.427	1	-6
362.598	1	9
362.769	1	5
362.940	1	-6
363.111	1	5
363.282	1	6
363.453	1	1
363.624	1	2
363.795	1	6
363.966	1	0
364.137	1	-1
364.308	1	7
364.478	1	3
364.649	1	-7
364.820	1	1
364.991	1	-6
365.162	1	-4
365.333	1	1
365.504	1	-7
365.675	1	-4
365.846	1	3
366.017	1	-1
366.188	1	-9
366.359	1	-6
366.530	1	0
366.701	1	-6
366.871	1	12
367.042	1	14
367.213	1	8
367.384	1	11
367.555	1	1
367.726	1	15
367.897	1	9
368.068	1	-2
368.239	1	19
368.410	1	-5
368.581	1	5
368.752	1	-4
368.923	1	-8
369.093	1	2
369.264	1	-1
369.435	1	-6
369.606	1	3
369.777	1	-5
369.948	1	2
370.119	1	7
370.290	1	2
370.461	1	5
370.632	1	-1
370.803	1	-3
370.973	1	7
371.144	1	1
371.315	1	2
371.486	1	11
371.657	1	10
371.828	1	-1
371.999	1	-3
372.170	1	6
372.341	1	-1
372.512	1	-3
372.682	1	-5
372.853	1	6
373.024	1	-6
373.195	1	-5
373.366	1	7
373.537	1	-2
373.708	1	4
373.879	1	9
374.050	1	9
374.220	1	-5
374.391	1	4
374.562	1	4
374.733	1	7
374.904	1	5
375.075	1	4
375.246	1	-8
375.417	1	10
375.588	1	0
375.758	1	-1
375.929	1	4
376.100	1	2
376.271	1	1
376.442	1	6
376.613	1	-5
376.784	1	6
376.955	1	-5
377.125	1	8
377.296	1	5
377.467	1	-4
377.638	1	-4
377.809	1	12
377.980	1	0
378.151	1	-3
378.321	1	9
378.492	1	-3
378.663	1	-4
378.834	1	3
379.005	1	6
379.176	1	-5
379.347	1	-6
379.518	1	-16
379.688	1	-3
379.859	1	-6
380.030	1	2
380.201	1	-11
380.372	1	2
380.543	1	-1
380.714	1	-2
380.884	1	-1
381.055	1	1
381.226	1	2
381.397	1	-1
381.568	1	-9
381.739	1	6
381.910	1	7
382.080	1	-10
382.251	1	5
382.422	1	13
382.593	1	-5
382.764	1	3
382.935	1	5
383.105	1	-4
383.276	1	2
383.447	1	2
383.618	1	6
383.789	1	-2
383.960	1	3
384.130	1	-1
384.301	1	-1
384.472	1	-6
384.643	1	5
384.814	1	5
384.985	1	2
385.156	1	9
385.326	1	9
385.497	1	7
385.668	1	6
385.839	1	9
386.010	1	6
386.180	1	0
386.351	1	-5
386.522	1	9
386.693	1	-3
386.864	1	3
387.035	1	1
387.205	1	-5
387.376	1	11
387.547	1	3
387.718	1	3
387.889	1	13
388.060	1	-11
388.230	1	4
388.401	1	5
388.572	1	-1
388.743	1	5
388.914	1	3
389.084	1	4
389.255	1	6
389.426	1	5
389.597	1	-14
389.768	1	-4
389.939	1	16
390.109	1	-12
390.280	1	5
390.451	1	19
390.622	1	3
390.793	1	1
390.963	1	0
391.134	1	4
391.305	1	9
391.476	1	8
391.647	1	-2
391.817	1	3
391.988	1	1
392.159	1	7
392.330	1	9
392.501	1	4
392.671	1	10
392.842	1	7
393.013	1	6
393.184	1	7
393.355	1	8
393.525	1	3
393.696	1	-10
393.867	1	-3
394.038	1	-3
394.208	1	12
394.379	1	-7
394.550	1	4
394.721	1	11
394.892	1	5
395.062	1	2
395.233	1	21
395.404	1	3
395.575	1	4
395.746	1	-2
395.916	1	5
396.087	1	-1
396.258	1	-1
396.429	1	6
396.599	1	1
396.770	1	7
396.941	1	21
397.112	1	-6
397.283	1	6
397.453	1	-5
397.624	1	-1
397.795	1	10
397.966	1	15
398.136	1	6
398.307	1	8
398.478	1	-2
398.649	1	7
398.819	1	8
398.990	1	14
399.161	1	2
399.332	1	11
399.503	1	2
399.673	1	7
399.844	1	3
400.015	1	11
400.186	1	14
400.356	1	0
400.527	1	6
400.698	1	1
400.869	1	11
401.039	1	1
401.210	1	-6
401.381	1	2
401.552	1	16
401.722	1	2
401.893	1	-2
402.064	1	1
402.235	1	6
402.405	1	-6
402.576	1	11
402.747	1	-8
402.918	1	-4
403.088	1	-2
403.259	1	-5
403.430	1	-2
403.601	1	-4
403.771	1	13
403.942	1	10
404.113	1	7
404.284	1	-7
404.454	1	7
404.625	1	7
404.796	1	-1
404.967	1	8
405.137	1	0
405.308	1	4
405.479	1	4
405.649	1	-5
405.820	1	-9
405.991	1	6
406.162	1	-8
406.332	1	-6
406.503	1	-9
406.674	1	6
406.845	1	15
407.015	1	-9
407.186	1	18
407.357	1	5
407.527	1	-9
407.698	1	-6
407.869	1	5
408.040	1	-6
408.210	1	0
408.381	1	-2
408.552	1	-1
408.722	1	-2
408.893	1	1
409.064	1	-3
409.235	1	-6
409.405	1	4
409.576	1	6
409.747	1	-18
409.917	1	3
410.088	1	2
410.259	1	4
410.430	1	4
410.600	1	-1
410.771	1	10
410.942	1	-2
411.112	1	0
411.283	1	-13
411.454	1	0
411.625	1	-1
411.795	1	3
411.966	1	3
412.137	1	14
412.307	1	-4
412.478	1	8
412.649	1	2
412.819	1	-6
412.990	1	2
413.161	1	3
413.332	1	-3
413.502	1	2
413.673	1	6
413.844	1	-11
414.014	1	-1
414.185	1	4
414.356	1	-10
414.526	1	-4
414.697	1	15
414.868	1	9
415.038	1	1
415.209	1	0
415.380	1	2
415.550	1	1
415.721	1	-1
415.892	1	-3
416.063	1	12
416.233	1	0
416.404	1	4
416.575	1	8
416.745	1	-3
416.916	1	-1
417.087	1	-2
417.257	1	14
417.428	1	-4
417.599	1	2
417.769	1	-2
417.940	1	-3
418.111	1	-7
418.281	1	8
418.452	1	-7
418.623	1	-1
418.793	1	1
418.964	1	-6
419.135	1	-1
419.305	1	-4
419.476	1	6
419.647	1	4
419.817	1	-4
419.988	1	-3
420.159	1	-7
420.329	1	-2
420.500	1	-4
420.671	1	5
420.841	1	2
421.012	1	8
421.183	1	7
421.353	1	10
421.524	1	3
421.695	1	3
421.865	1	4
422.036	1	-2
422.206	1	6
422.377	1	9
422.548	1	-6
422.718	1	-5
422.889	1	10
423.060	1	-7
423.230	1	2
423.401	1	3
423.572	1	1
423.742	1	2
423.913	1	5
424.084	1	-3
424.254	1	-5
424.425	1	0
424.595	1	-1
424.766	1	-2
424.937	1	0
425.107	1	6
425.278	1	-3
425.449	1	2
425.619	1	-3
425.790	1	-1
425.961	1	4
426.131	1	-1
426.302	1	7
426.472	1	-7
426.643	1	4
426.814	1	14
426.984	1	5
427.155	1	2
427.326	1	4
427.496	1	1
427.667	1	12
427.837	1	-9
428.008	1	-1
428.179	1	-9
428.349	1	-2
428.520	1	-6
428.691	1	-2
428.861	1	8
429.032	1	-7
429.202	1	6
429.373	1	-9
429.544	1	-1
429.714	1	5
429.885	1	0
430.055	1	-3
430.226	1	-6
430.397	1	-4
430.567	1	-3
430.738	1	4
430.909	1	-11
431.079	1	11
431.250	1	-12
431.420	1	6
431.591	1	6
431.762	1	2
431.932	1	-1
432.103	1	2
432.273	1	0
432.444	1	6
432.615	1	5
432.785	1	-3
432.956	1	-4
433.126	1	10
433.297	1	5
433.468	1	-3
433.638	1	1
433.809	1	0
433.979	1	-5
434.150	1	-2
434.320	1	4
434.491	1	10
434.662	1	-5
434.832	1	-2
435.003	1	-2
435.173	1	1
435.344	1	5
435.515	1	3
435.685	1	15
435.856	1	-8
436.026	1	3
436.197	1	5
436.368	1	-1
436.538	1	13
436.709	1	-10
436.879	1	5
437.050	1	-1
437.220	1	7
437.391	1	6
437.562	1	8
437.732	1	6
437.903	1	-4
438.073	1	-3
438.244	1	3
438.414	1	-4
438.585	1	1
438.756	1	5
438.926	1	3
439.097	1	12
439.267	1	10
439.438	1	9
439.608	1	0
439.779	1	-8
439.949	1	-4
440.120	1	-2
440.291	1	-11
440.461	1	-6
440.632	1	1
440.802	1	2
440.973	1	0
441.143	1	11
441.314	1	0
441.485	1	4
441.655	1	12
441.826	1	-8
441.996	1	0
442.167	1	-6
442.337	1	2
442.508	1	2
442.678	1	-4
442.849	1	5
443.019	1	-1
443.190	1	-1
443.361	1	1
443.531	1	-2
443.702	1	-2
443.872	1	0
444.043	1	3
444.213	1	-12
444.384	1	13
444.554	1	-4
444.725	1	2
444.895	1	0
445.066	1	-13
445.237	1	-2
445.407	1	-6
445.578	1	0
445.748	1	-8
445.919	1	3
446.089	1	8
446.260	1	2
446.430	1	-13
446.601	1	-5
446.771	1	0
446.942	1	-1
447.112	1	-2
447.283	1	2
447.453	1	-19
447.624	1	4
447.794	1	-4
447.965	1	3
448.135	1	7
448.306	1	6
448.477	1	-1
448.647	1	13
448.818	1	3
448.988	1	-13
449.159	1	-16
449.329	1	0
449.500	1	6
449.670	1	2
449.841	1	-8
450.011	1	-8
450.182	1	-10
450.352	1	5
450.523	1	-4
450.693	1	-3
450.864	1	-4
451.034	1	-1
451.205	1	4
451.375	1	10
451.546	1	-4
451.716	1	11
451.887	1	-6
452.057	1	4
452.228	1	-7
452.398	1	-3
452.569	1	-3
452.739	1	-3
452.910	1	-12
453.080	1	17
453.251	1	2
453.421	1	1
453.592	1	-6
453.762	1	6
453.933	1	-3
454.103	1	1
454.274	1	-3
454.444	1	13
454.615	1	4
454.785	1	-10
454.956	1	-2
455.126	1	-3
455.297	1	3
455.467	1	-1
455.638	1	1
455.808	1	3
455.979	1	2
456.149	1	-8
456.320	1	6
456.490	1	-2
456.661	1	-4
456.831	1	13
457.001	1	7
457.172	1	0
457.342	1	7
457.513	1	9
457.683	1	-6
457.854	1	1
458.024	1	-2
458.195	1	3
458.365	1	2
458.536	1	5
458.706	1	0
458.877	1	-1
459.047	1	-3
459.218	1	2
459.388	1	0
459.559	1	3
459.729	1	3
459.899	1	16
460.070	1	12
460.240	1	-6
460.411	1	0
460.581	1	6
460.752	1	0
460.922	1	-2
461.093	1	-5
461.263	1	5
461.434	1	-1
461.604	1	-3
461.775	1	5
461.945	1	9
462.115	1	-10
462.286	1	2
462.456	1	-5
462.627	1	-4
462.797	1	-4
462.968	1	-8
463.138	1	3
463.309	1	-3
463.479	1	11
463.649	1	-6
463.820	1	2
463.990	1	2
464.161	1	2
464.331	1	7
464.502	1	3
464.672	1	1
464.843	1	4
465.013	1	-12
465.183	1	2
465.354	1	4
465.524	1	14
465.695	1	-5
465.865	1	-7
466.036	1	5
466.206	1	-6
466.376	1	-2
466.547	1	-2
466.717	1	-12
466.888	1	3
467.058	1	6
467.229	1	9
467.399	1	1
467.569	1	-11
467.740	1	0
467.910	1	-3
468.081	1	3
468.251	1	-1
468.422	1	-1
468.592	1	7
468.762	1	-13
468.933	1	7
469.103	1	-2
469.274	1	10
469.444	1	-10
469.614	1	-6
469.785	1	6
469.955	1	9
470.126	1	1
470.296	1	1
470.467	1	-10
470.637	1	5
470.807	1	-4
470.978	1	5
471.148	1	-13
471.319	1	-4
471.489	1	5
471.659	1	4
471.830	1	14
472.000	1	6
472.171	1	6
472.341	1	-1
472.511	1	0
472.682	1	2
472.852	1	-3
473.023	1	-3
473.193	1	-13
473.363	1	7
473.534	1	1
473.704	1	5
473.875	1	6
474.045	1	-5
474.215	1	-6
474.386	1	8
474.556	1	-6
474.727	1	4
474.897	1	-2
475.067	1	11
475.238	1	5
475.408	1	-9
475.578	1	1
475.749	1	0
475.919	1	4
476.090	1	-4
476.260	1	7
476.430	1	11
476.601	1	0
476.771	1	-1
476.942	1	1
477.112	1	-3
477.282	1	-16
477.453	1	2
477.623	1	5
477.793	1	-1
477.964	1	16
478.134	1	-6
478.305	1	1
478.475	1	-2
478.645	1	0
478.816	1	-13
478.986	1	-6
479.156	1	-9
479.327	1	-8
479.497	1	-1
479.667	1	6
479.838	1	5
480.008	1	13
480.179	1	6
480.349	1	2
480.519	1	-3
480.690	1	0
480.860	1	-1
481.030	1	1
481.201	1	3
481.371	1	-3
481.541	1	2
481.712	1	4
481.882	1	-6
482.053	1	9
482.223	1	-8
482.393	1	-13
482.564	1	-8
482.734	1	4
482.904	1	6
483.075	1	3
483.245	1	1
483.415	1	7
483.586	1	-3
483.756	1	3
483.926	1	9
484.097	1	-14
484.267	1	-3
484.437	1	-2
484.608	1	0
484.778	1	-3
484.948	1	-10
485.119	1	-1
485.289	1	3
485.459	1	6
485.630	1	-4
485.800	1	-3
485.970	1	9
486.141	1	-8
486.311	1	-1
486.481	1	6
486.652	1	2
486.822	1	3
486.992	1	-3
487.163	1	-4
487.333	1	-5
487.503	1	-7
487.674	1	12
487.844	1	-12
488.014	1	7
488.185	1	-9
488.355	1	-2
488.525	1	-5
488.696	1	-4
488.866	1	6
489.036	1	4
489.207	1	4
489.377	1	-3
489.547	1	-5
489.718	1	-3
489.888	1	-8
490.058	1	-8
490.228	1	-12
490.399	1	2
490.569	1	14
490.739	1	7
490.910	1	-2
491.080	1	-16
491.250	1	5
491.421	1	5
491.591	1	-3
491.761	1	2
491.932	1	4
492.102	1	3
492.272	1	0
492.442	1	4
492.613	1	1
492.783	1	-9
492.953	1	0
493.124	1	-11
493.294	1	12
493.464	1	-7
493.635	1	-2
493.805	1	14
493.975	1	3
494.145	1	2
494.316	1	8
494.486	1	0
494.656	1	-1
494.827	1	-8
494.997	1	-8
495.167	1	0
495.337	1	6
495.508	1	-9
495.678	1	4
495.848	1	15
496.019	1	-5
496.189	1	-7
496.359	1	5
496.529	1	-5
496.700	1	3
496.870	1	-1
497.040	1	-5
497.211	1	8
497.381	1	-21
497.551	1	9
497.721	1	-4
497.892	1	3
498.062	1	-2
498.232	1	-2
498.403	1	8
498.573	1	-10
498.743	1	-3
498.913	1	2
499.084	1	-5
499.254	1	11
499.424	1	10
499.594	1	-6
499.765	1	2
499.935	1	-18
500.105	1	10
500.275	1	6
500.446	1	-3
500.616	1	4
500.786	1	5
500.956	1	0
501.127	1	6
501.297	1	-3
501.467	1	-4
501.638	1	6
501.808	1	-9
501.978	1	5
502.148	1	4
502.319	1	5
502.489	1	8
502.659	1	4
502.829	1	0
503.000	1	4
503.170	1	1
503.340	1	-6
503.510	1	-8
503.681	1	4
503.851	1	-7
504.021	1	16
504.191	1	11
504.362	1	9
504.532	1	-9
504.702	1	6
504.872	1	-10
505.042	1	6
505.213	1	-7
505.383	1	6
505.553	1	8
505.723	1	4
505.894	1	1
506.064	1	0
506.234	1	5
506.404	1	0
506.575	1	-5
506.745	1	-1
506.915	1	0
507.085	1	-7
507.256	1	-4
507.426	1	0
507.596	1	3
507.766	1	-6
507.936	1	3
508.107	1	-2
508.277	1	0
508.447	1	1
508.617	1	16
508.788	1	1
508.958	1	9
509.128	1	5
509.298	1	9
509.468	1	10
509.639	1	7
509.809	1	1
509.979	1	1
510.149	1	5
510.319	1	-6
510.490	1	3
510.660	1	0
510.830	1	1
511.000	1	1
511.171	1	11
511.341	1	-4
511.511	1	-1
511.681	1	-6
511.851	1	-4
512.022	1	-8
512.192	1	8
512.362	1	-1
512.532	1	-1
512.702	1	-9
512.873	1	5
513.043	1	4
513.213	1	7
513.383	1	-6
513.553	1	-3
513.724	1	9
513.894	1	-5
514.064	1	2
514.234	1	0
514.404	1	-1
514.575	1	2
514.745	1	5
514.915	1	7
515.085	1	4
515.255	1	4
515.425	1	-1
515.596	1	-9
515.766	1	8
515.936	1	4
516.106	1	-4
516.276	1	-4
516.447	1	1
516.617	1	0
516.787	1	-13
516.957	1	-6
517.127	1	-3
517.297	1	-4
517.468	1	-4
517.638	1	6
517.808	1	-3
517.978	1	-10
518.148	1	1
518.319	1	-1
518.489	1	3
518.659	1	-2
518.829	1	-3
518.999	1	2
519.169	1	8
519.340	1	-5
519.510	1	-13
519.680	1	-1
519.850	1	-8
520.020	1	-4
520.190	1	3
520.361	1	-12
520.531	1	5
520.701	1	0
520.871	1	-3
521.041	1	-2
521.211	1	-1
521.382	1	-1
521.552	1	-3
521.722	1	1
521.892	1	-8
522.062	1	-2
522.232	1	-10
522.402	1	-9
522.573	1	-1
522.743	1	8
522.913	1	-1
523.083	1	3
523.253	1	1
523.423	1	-3
523.593	1	-2
523.764	1	14
523.934	1	9
524.104	1	-4
524.274	1	-9
524.444	1	6
524.614	1	7
524.784	1	5
524.955	1	-4
525.125	1	2
525.295	1	-4
525.465	1	3
525.635	1	9
525.805	1	5
525.975	1	-2
526.146	1	0
526.316	1	2
526.486	1	7
526.656	1	4
526.826	1	7
526.996	1	10
527.166	1	-2
527.337	1	3
527.507	1	-12
527.677	1	13
527.847	1	-4
528.017	1	-10
528.187	1	4
528.357	1	1
528.527	1	3
528.698	1	6
528.868	1	-5
529.038	1	11
529.208	1	-7
529.378	1	-3
529.548	1	1
529.718	1	2
529.888	1	-2
530.058	1	-8
530.229	1	1
530.399	1	16
530.569	1	-8
530.739	1	-1
530.909	1	7
531.079	1	12
531.249	1	2
531.419	1	11
531.589	1	-1
531.760	1	3
531.930	1	1
532.100	1	3
532.270	1	6
532.440	1	-4
532.610	1	1
532.780	1	2
532.950	1	-4
533.120	1	-9
533.290	1	1
533.461	1	12
533.631	1	1
533.801	1	4
533.971	1	4
534.141	1	6
534.311	1	7
534.481	1	2
534.651	1	-5
534.821	1	7
534.991	1	5
535.162	1	6
535.332	1	-2
535.502	1	-5
535.672	1	-9
535.842	1	-5
536.012	1	1
536.182	1	4
536.352	1	0
536.522	1	6
536.692	1	6
536.862	1	1
537.032	1	5
537.203	1	2
537.373	1	-8
537.543	1	7
537.713	1	19
537.883	1	17
538.053	1	7
538.223	1	11
538.393	1	1
538.563	1	-3
538.733	1	0
538.903	1	-7
539.073	1	-3
539.243	1	4
539.413	1	-4
539.584	1	-3
539.754	1	5
539.924	1	1
540.094	1	-2
540.264	1	4
540.434	1	-3
540.604	1	7
540.774	1	-2
540.944	1	-4
541.114	1	-5
541.284	1	-7
541.454	1	3
541.624	1	-3
541.794	1	-2
541.964	1	1
542.134	1	10
542.305	1	-1
542.475	1	-5
542.645	1	-5
542.815	1	13
542.985	1	-4
543.155	1	-4
543.325	1	5
543.495	1	-7
543.665	1	2
543.835	1	2
544.005	1	0
544.175	1	-3
544.345	1	-3
544.515	1	-1
544.685	1	3
544.855	1	9
545.025	1	-4
545.195	1	-4
545.365	1	7
545.535	1	-3
545.705	1	5
545.875	1	-1
546.045	1	10
546.216	1	13
546.386	1	0
546.556	1	-11
546.726	1	-5
546.896	1	0
547.066	1	-2
547.236	1	3
547.406	1	8
547.576	1	2
547.746	1	3
547.916	1	0
548.086	1	1
548.256	1	3
548.426	1	-5
548.596	1	3
548.766	1	9
548.936	1	-12
549.106	1	4
549.276	1	10
549.446	1	6
549.616	1	-1
549.786	1	6
549.956	1	5
550.126	1	5
550.296	1	-2
550.466	1	-11
550.636	1	-3
550.806	1	10
550.976	1	0
551.146	1	-6
551.316	1	1
551.486	1	0
551.656	1	-1
551.826	1	4
551.996	1	9
552.166	1	-3
552.336	1	3
552.506	1	-4
552.676	1	-2
552.846	1	5
553.016	1	3
553.186	1	1
553.356	1	2
553.526	1	-9
553.696	1	10
553.866	1	2
554.036	1	1
554.206	1	2
554.376	1	-5
554.546	1	-8
554.716	1	-2
554.886	1	-2
555.056	1	-16
555.226	1	-13
555.396	1	-1
555.566	1	-2
555.736	1	1
555.906	1	9
556.076	1	0
556.246	1	2
556.416	1	-2
556.586	1	9
556.756	1	-4
556.926	1	5
557.096	1	-4
557.266	1	14
557.436	1	7
557.606	1	-5
557.776	1	6
557.946	1	-1
558.116	1	16
558.286	1	11
558.456	1	-4
558.626	1	4
558.796	1	4
558.966	1	12
559.136	1	-2
559.306	1	1
559.476	1	2
559.646	1	-1
559.816	1	7
559.986	1	-6
560.155	1	-3
560.325	1	-12
560.495	1	4
560.665	1	6
560.835	1	6
561.005	1	3
561.175	1	4
561.345	1	2
561.515	1	-4
561.685	1	-2
561.855	1	3
562.025	1	4
562.195	1	-4
562.365	1	5
562.535	1	1
562.705	1	5
562.875	1	-5
563.045	1	0
563.215	1	0
563.385	1	-5
563.555	1	-3
563.725	1	-13
563.895	1	-2
564.064	1	3
564.234	1	4
564.404	1	5
564.574	1	2
564.744	1	2
564.914	1	-9
565.084	1	-8
565.254	1	-3
565.424	1	-6
565.594	1	-3
565.764	1	1
565.934	1	0
566.104	1	1
566.274	1	7
566.444	1	6
566.614	1	3
566.783	1	2
566.953	1	-8
567.123	1	22
567.293	1	2
567.463	1	-6
567.633	1	8
567.803	1	-4
567.973	1	0
568.143	1	0
568.313	1	-6
568.483	1	-8
568.653	1	-3
568.823	1	2
568.993	1	-8
569.162	1	-1
569.332	1	8
569.502	1	5
569.672	1	-2
569.842	1	3
570.012	1	2
570.182	1	3
570.352	1	11
570.522	1	4
570.692	1	1
570.862	1	4
571.031	1	-2
571.201	1	-4
571.371	1	0
571.541	1	-12
571.711	1	0
571.881	1	3
572.051	1	6
572.221	1	-5
572.391	1	5
572.561	1	-7
572.731	1	-7
572.900	1	14
573.070	1	-4
573.240	1	-4
573.410	1	-3
573.580	1	-1
573.750	1	2
573.920	1	3
574.090	1	2
574.260	1	0
574.430	1	2
574.599	1	0
574.769	1	2
574.939	1	2
575.109	1	-1
575.279	1	1
575.449	1	5
575.619	1	-4
575.789	1	13
575.959	1	-6
576.128	1	2
576.298	1	-8
576.468	1	-10
576.638	1	2
576.808	1	-11
576.978	1	-3
577.148	1	12
577.318	1	5
577.487	1	0
577.657	1	-12
577.827	1	0
577.997	1	-11
578.167	1	6
578.337	1	0
578.507	1	-8
578.677	1	-12
578.846	1	3
579.016	1	6
579.186	1	2
579.356	1	-5
579.526	1	-9
579.696	1	-2
579.866	1	7
580.036	1	4
580.205	1	0
580.375	1	2
580.545	1	4
580.715	1	7
580.885	1	-4
581.055	1	4
581.225	1	-8
581.394	1	-11
581.564	1	-8
581.734	1	5
581.904	1	7
582.074	1	1
582.244	1	-6
582.414	1	3
582.583	1	-9
582.753	1	5
582.923	1	5
583.093	1	1
583.263	1	2
583.433	1	-5
583.603	1	0
583.772	1	-1
583.942	1	8
584.112	1	1
584.282	1	2
584.452	1	-8
584.622	1	6
584.791	1	-5
584.961	1	0
585.131	1	-9
585.301	1	12
585.471	1	1
585.641	1	3
585.811	1	-2
585.980	1	-10
586.150	1	3
586.320	1	-6
586.490	1	-14
586.660	1	2
586.830	1	-15
586.999	1	6
587.169	1	-4
587.339	1	6
587.509	1	8
587.679	1	-9
587.849	1	6
588.018	1	7
588.188	1	6
588.358	1	-2
588.528	1	11
588.698	1	-6
588.867	1	3
589.037	1	3
589.207	1	-3
589.377	1	1
589.547	1	-12
589.717	1	4
589.886	1	-13
590.056	1	1
590.226	1	3
590.396	1	3
590.566	1	-12
590.735	1	6
590.905	1	5
591.075	1	-2
591.245	1	5
591.415	1	3
591.585	1	-4
591.754	1	2
591.924	1	-7
592.094	1	3
592.264	1	-2
592.434	1	13
592.603	1	4
592.773	1	-12
592.943	1	-5
593.113	1	-2
593.283	1	0
593.452	1	-20
593.622	1	-7
593.792	1	8
593.962	1	1
594.132	1	-5
594.301	1	8
594.471	1	-2
594.641	1	-7
594.811	1	-11
594.981	1	-2
595.150	1	-7
595.320	1	5
595.490	1	-7
595.660	1	-5
595.829	1	-5
595.999	1	-4
596.169	1	-7
596.339	1	-9
596.509	1	-2
596.678	1	1
596.848	1	4
597.018	1	3
597.188	1	8
597.358	1	3
597.527	1	-8
597.697	1	-2
597.867	1	2
598.037	1	-4
598.206	1	-4
598.376	1	4
598.546	1	-2
598.716	1	-1
598.885	1	-3
599.055	1	-3
599.225	1	2
599.395	1	7
599.565	1	-2
599.734	1	-5
599.904	1	-4
600.074	1	-10
600.244	1	10
600.413	1	-3
600.583	1	-10
600.753	1	9
600.923	1	19
601.092	1	-7
601.262	1	3
601.432	1	0
601.602	1	1
601.771	1	6
601.941	1	1
602.111	1	-10
602.281	1	-5
602.451	1	-4
602.620	1	6
602.790	1	4
602.960	1	-10
603.130	1	5
603.299	1	4
603.469	1	-3
603.639	1	-3
603.809	1	2
603.978	1	-7
604.148	1	4
604.318	1	-1
604.487	1	10
604.657	1	8
604.827	1	-6
604.997	1	-1
605.166	1	-5
605.336	1	-8
605.506	1	11
605.676	1	-4
605.845	1	3
606.015	1	0
606.185	1	6
606.355	1	16
606.524	1	1
606.694	1	6
606.864	1	-1
607.034	1	-8
607.203	1	3
607.373	1	6
607.543	1	-11
607.712	1	3
607.882	1	-6
608.052	1	5
608.222	1	4
608.391	1	0
608.561	1	4
608.731	1	-4
608.901	1	-1
609.070	1	-4
609.240	1	-4
609.410	1	10
609.579	1	-2
609.749	1	3
609.919	1	-10
610.089	1	-1
610.258	1	10
610.428	1	-5
610.598	1	-2
610.767	1	0
610.937	1	7
611.107	1	6
611.277	1	4
611.446	1	-2
611.616	1	-9
611.786	1	2
611.955	1	8
612.125	1	-1
612.295	1	0
612.465	1	5
612.634	1	0
612.804	1	5
612.974	1	5
613.143	1	-9
613.313	1	6
613.483	1	1
613.652	1	0
613.822	1	4
613.992	1	5
614.162	1	2
614.331	1	2
614.501	1	4
614.671	1	3
614.840	1	2
615.010	1	5
615.180	1	-1
615.349	1	2
615.519	1	9
615.689	1	-6
615.858	1	4
616.028	1	-5
616.198	1	1
616.368	1	-11
616.537	1	-8
616.707	1	-5
616.877	1	8
617.046	1	-5
617.216	1	-8
617.386	1	0
617.555	1	-17
617.725	1	3
617.895	1	-1
618.064	1	3
618.234	1	0
618.404	1	12
618.573	1	-5
618.743	1	-9
618.913	1	1
619.082	1	1
619.252	1	1
619.422	1	4
619.591	1	1
619.761	1	2
619.931	1	8
620.100	1	-3
620.270	1	-13
620.440	1	6
620.609	1	-2
620.779	1	-1
620.949	1	1
621.118	1	-2
621.288	1	0
621.458	1	4
621.627	1	-1
621.797	1	-6
621.967	1	-8
622.136	1	7
622.306	1	4
622.476	1	2
622.645	1	11
622.815	1	-5
622.985	1	3
623.154	1	8
623.324	1	1
623.494	1	-3
623.663	1	-4
623.833	1	-11
624.002	1	-8
624.172	1	8
624.342	1	-11
624.511	1	7
624.681	1	-2
624.851	1	-7
625.020	1	-3
625.190	1	4
625.360	1	-4
625.529	1	6
625.699	1	3
625.869	1	5
626.038	1	12
626.208	1	-3
626.377	1	16
626.547	1	-6
626.717	1	-8
626.886	1	2
627.056	1	-1
627.226	1	0
627.395	1	2
627.565	1	10
627.735	1	3
627.904	1	-1
628.074	1	11
628.243	1	-12
628.413	1	-5
628.583	1	1
628.752	1	9
628.922	1	-8
629.091	1	5
629.261	1	7
629.431	1	-8
629.600	1	0
629.770	1	3
629.940	1	6
630.109	1	-9
630.279	1	-7
630.448	1	-6
630.618	1	2
630.788	1	-2
630.957	1	0
631.127	1	12
631.297	1	-6
631.466	1	2
631.636	1	-1
631.805	1	0
631.975	1	2
632.145	1	-13
632.314	1	7
632.484	1	-2
632.653	1	-7
632.823	1	3
632.993	1	3
633.162	1	-1
633.332	1	9
633.501	1	-6
633.671	1	-2
633.841	1	-2
634.010	1	-1
634.180	1	2
634.349	1	3
634.519	1	2
634.689	1	0
634.858	1	-3
635.028	1	-2
635.197	1	-3
635.367	1	0
635.537	1	-6
635.706	1	-9
635.876	1	-1
636.045	1	-1
636.215	1	-8
636.384	1	11
636.554	1	7
636.724	1	2
636.893	1	8
637.063	1	6
637.232	1	-4
637.402	1	4
637.572	1	-2
637.741	1	10
637.911	1	1
638.080	1	6
638.250	1	3
638.419	1	0
638.589	1	14
638.759	1	-5
638.928	1	-8
639.098	1	-8
639.267	1	3
639.437	1	-7
639.606	1	12
639.776	1	-1
639.946	1	-2
640.115	1	-12
640.285	1	-5
640.454	1	12
640.624	1	5
640.793	1	4
640.963	1	-7
641.132	1	5
641.302	1	-6
641.472	1	-11
641.641	1	-13
641.811	1	4
641.980	1	-8
642.150	1	1
642.319	1	-3
642.489	1	-2
642.659	1	-8
642.828	1	1
642.998	1	-10
643.167	1	7
643.337	1	-2
643.506	1	-3
643.676	1	-2
643.845	1	2
644.015	1	5
644.184	1	1
644.354	1	2
644.524	1	0
644.693	1	6
644.863	1	-2
645.032	1	-8
645.202	1	0
645.371	1	-12
645.541	1	-9
645.710	1	-3
645.880	1	8
646.049	1	4
646.219	1	1
646.388	1	-4
646.558	1	1
646.728	1	-3
646.897	1	-4
647.067	1	-3
647.236	1	1
647.406	1	-8
647.575	1	-2
647.745	1	-1
647.914	1	-2
648.084	1	-2
648.253	1	1
648.423	1	0
648.592	1	-3
648.762	1	-4
648.931	1	2
649.101	1	-11
649.270	1	12
649.440	1	-3
649.610	1	10
649.779	1	1
649.949	1	5
650.118	1	-20
650.288	1	-11
650.457	1	-1
650.627	1	2
650.796	1	-8
650.966	1	-14
651.135	1	9
651.305	1	-1
651.474	1	7
651.644	1	3
651.813	1	6
651.983	1	2
652.152	1	2
652.322	1	8
652.491	1	3
652.661	1	-3
652.830	1	7
653.000	1	-8
653.169	1	11
653.339	1	6
653.508	1	-6
653.678	1	-3
653.847	1	1
654.017	1	4
654.186	1	3
654.356	1	3
654.525	1	2
654.695	1	7
654.864	1	0
655.034	1	6
655.203	1	6
655.373	1	1
655.542	1	4
655.712	1	-6
655.881	1	8
656.051	1	-2
656.220	1	-3
656.390	1	-2
656.559	1	-4
656.729	1	4
656.898	1	-1
657.068	1	5
657.237	1	-1
657.406	1	3
657.576	1	-6
657.745	1	-10
657.915	1	11
658.084	1	7
658.254	1	11
658.423	1	-6
658.593	1	0
658.762	1	-5
658.932	1	-7
659.101	1	-5
659.271	1	-2
659.440	1	6
659.610	1	7
659.779	1	-3
659.949	1	-6
660.118	1	7
660.288	1	-7
660.457	1	-4
660.626	1	-8
660.796	1	-4
660.965	1	1
661.135	1	0
661.304	1	-2
661.474	1	-3
661.643	1	-3
661.813	1	2
661.982	1	-1
662.152	1	8
662.321	1	1
662.491	1	-11
662.660	1	-7
662.829	1	-3
662.999	1	-9
663.168	1	-1
663.338	1	-14
663.507	1	-5
663.677	1	-11
663.846	1	9
664.016	1	-6
664.185	1	-5
664.354	1	12
664.524	1	-12
664.693	1	-5
664.863	1	-1
665.032	1	6
665.202	1	-10
665.371	1	-2
665.541	1	-10
665.710	1	1
665.879	1	-10
666.049	1	-6
666.218	1	-9
666.388	1	-8
666.557	1	11
666.727	1	-18
666.896	1	0
667.065	1	5
667.235	1	-2
667.404	1	-7
667.574	1	-2
667.743	1	-7
667.913	1	0
668.082	1	-8
668.251	1	3
668.421	1	-3
668.590	1	-9
668.760	1	-9
668.929	1	4
669.099	1	-7
669.268	1	1
669.437	1	-4
669.607	1	-11
669.776	1	-1
669.946	1	6
670.115	1	-4
670.285	1	1
670.454	1	7
670.623	1	2
670.793	1	3
670.962	1	7
671.132	1	2
671.301	1	-3
671.470	1	0
671.640	1	-14
671.809	1	-7
671.979	1	11
672.148	1	3
672.317	1	-7
672.487	1	-6
672.656	1	3
672.826	1	-15
672.995	1	-2
673.164	1	10
673.334	1	5
673.503	1	-1
673.673	1	16
673.842	1	3
674.011	1	0
674.181	1	-3
674.350	1	2
674.520	1	-4
674.689	1	-6
674.858	1	-7
675.028	1	-9
675.197	1	-9
675.367	1	-5
675.536	1	4
675.705	1	-8
675.875	1	-1
676.044	1	-1
676.214	1	1
676.383	1	-9
676.552	1	-8
676.722	1	2
676.891	1	-13
677.060	1	0
677.230	1	17
677.399	1	4
677.569	1	-9
677.738	1	-3
677.907	1	-6
678.077	1	-1
678.246	1	-3
678.416	1	1
678.585	1	8
678.754	1	-4
678.924	1	-6
679.093	1	3
679.262	1	-6
679.432	1	-8
679.601	1	-11
679.771	1	-3
679.940	1	-10
680.109	1	4
680.279	1	-11
680.448	1	-2
680.617	1	1
680.787	1	5
680.956	1	-1
681.125	1	4
681.295	1	-1
681.464	1	-3
681.634	1	5
681.803	1	-5
681.972	1	-10
682.142	1	4
682.311	1	4
682.480	1	-3
682.650	1	4
682.819	1	1
682.988	1	-13
683.158	1	-5
683.327	1	2
683.496	1	-1
683.666	1	-2
683.835	1	0
684.004	1	5
684.174	1	-9
684.343	1	2
684.512	1	-5
684.682	1	7
684.851	1	-2
685.021	1	-4
685.190	1	16
685.359	1	-11
685.529	1	-3
685.698	1	1
685.867	1	-3
686.037	1	-5
686.206	1	6
686.375	1	4
686.545	1	1
686.714	1	1
686.883	1	-7
687.053	1	11
687.222	1	-9
687.391	1	-10
687.561	1	4
687.730	1	-3
687.899	1	0
688.069	1	-1
688.238	1	0
688.407	1	8
688.577	1	-1
688.746	1	-4
