340.368	1	7
340.539	1	11
340.710	1	-4
340.881	1	5
341.052	1	6
341.223	1	0
341.394	1	-2
341.565	1	-7
341.737	1	12
341.908	1	1
342.079	1	-2
342.250	1	-2
342.421	1	5
342.592	1	-5
342.763	1	-3
342.934	1	-2
343.105	1	8
343.276	1	-3
343.447	1	4
343.618	1	2
343.789	1	2
343.960	1	-3
344.131	1	-3
344.302	1	6
344.473	1	8
344.644	1	0
344.815	1	4
344.986	1	5
345.157	1	9
345.328	1	4
345.499	1	4
345.670	1	14
345.841	1	2
346.012	1	5
346.183	1	-3
346.354	1	2
346.526	1	7
346.697	1	1
346.868	1	2
347.039	1	6
347.210	1	-1
347.381	1	-5
347.552	1	-5
347.723	1	5
347.894	1	-4
348.065	1	-2
348.236	1	2
348.407	1	0
348.578	1	8
348.749	1	11
348.920	1	14
349.091	1	4
349.262	1	-3
349.433	1	-5
349.604	1	7
349.775	1	7
349.946	1	11
350.117	1	12
350.288	1	2
350.459	1	8
350.630	1	-1
350.801	1	6
350.972	1	-1
351.143	1	-2
351.314	1	-4
351.485	1	-6
351.656	1	1
351.827	1	-3
351.998	1	-5
352.169	1	13
352.340	1	-2
352.511	1	-9
352.682	1	3
352.853	1	-1
353.024	1	1
353.195	1	1
353.366	1	6
353.537	1	-1
353.708	1	7
353.879	1	2
354.050	1	10
354.221	1	-8
354.392	1	-3
354.563	1	12
354.734	1	-7
354.905	1	7
355.076	1	2
355.247	1	-4
355.418	1	-6
355.589	1	10
355.760	1	6
355.931	1	-1
356.102	1	-4
356.273	1	-2
356.444	1	-7
356.615	1	3
356.785	1	9
356.956	1	3
357.127	1	7
357.298	1	2
357.469	1	-2
357.640	1	4
357.811	1	15
357.982	1	-8
358.153	1	-2
358.324	1	3
358.495	1	7
358.666	1	0
358.837	1	6
359.008	1	-7
359.179	1	11
359.350	1	2
359.521	1	2
359.692	1	8
359.863	1	-8
360.034	1	5
360.205	1	4
360.376	1	6
360.547	1	1
360.718	1	-6
360.889	1	4
361.060	1	8
361.231	1	-2
361.401	1	-3
361.572	1	2
361.743	1	2
361.914	1	0
362.085	1	-3
362.256	1	10
362.427	1	8
362.598	1	-1
362.769	1	11
362.940	1	-2
363.111	1	8
363.282	1	9
363.453	1	6
363.624	1	6
363.795	1	0
363.966	1	10
364.137	1	-4
364.308	1	-6
364.478	1	9
364.649	1	7
364.820	1	-2
364.991	1	5
365.162	1	-4
365.333	1	4
365.504	1	3
365.675	1	8
365.846	1	2
366.017	1	8
366.188	1	1
366.359	1	6
366.530	1	4
366.701	1	-9
366.871	1	16
367.042	1	11
367.213	1	8
367.384	1	7
367.555	1	2
367.726	1	5
367.897	1	0
368.068	1	-2
368.239	1	8
368.410	1	7
368.581	1	8
368.752	1	-4
368.923	1	-9
369.093	1	11
369.264	1	-3
369.435	1	3
369.606	1	4
369.777	1	-2
369.948	1	3
370.119	1	2
370.290	1	1
370.461	1	4
370.632	1	3
370.803	1	-2
370.973	1	11
371.144	1	8
371.315	1	3
371.486	1	11
371.657	1	10
371.828	1	5
371.999	1	-2
372.170	1	14
372.341	1	13
372.512	1	-4
372.682	1	0
372.853	1	2
373.024	1	-8
373.195	1	-4
373.366	1	-6
373.537	1	-1
373.708	1	2
373.879	1	12
374.050	1	-1
374.220	1	7
374.391	1	15
374.562	1	0
374.733	1	17
374.904	1	-3
375.075	1	11
375.246	1	0
375.417	1	6
375.588	1	5
375.758	1	2
375.929	1	3
376.100	1	13
376.271	1	-2
376.442	1	-5
376.613	1	0
376.784	1	1
376.955	1	-5
377.125	1	5
377.296	1	1
377.467	1	-11
377.638	1	0
377.809	1	4
377.980	1	2
378.151	1	0
378.321	1	4
378.492	1	3
378.663	1	-1
378.834	1	2
379.005	1	6
379.176	1	4
379.347	1	5
379.518	1	-14
379.688	1	2
379.859	1	1
380.030	1	-4
380.201	1	-15
380.372	1	0
380.543	1	8
380.714	1	5
380.884	1	0
381.055	1	5
381.226	1	2
381.397	1	-2
381.568	1	-9
381.739	1	9
381.910	1	6
382.080	1	-11
382.251	1	8
382.422	1	15
382.593	1	-5
382.764	1	8
382.935	1	4
383.105	1	-5
383.276	1	-1
383.447	1	13
383.618	1	10
383.789	1	13
383.960	1	-5
384.130	1	4
384.301	1	8
384.472	1	-9
384.643	1	6
384.814	1	3
384.985	1	4
385.156	1	16
385.326	1	0
385.497	1	7
385.668	1	-5
385.839	1	5
386.010	1	16
386.180	1	6
386.351	1	-1
386.522	1	11
386.693	1	8
386.864	1	3
387.035	1	4
387.205	1	0
387.376	1	11
387.547	1	-6
387.718	1	16
387.889	1	15
388.060	1	-3
388.230	1	3
388.401	1	12
388.572	1	3
388.743	1	9
388.914	1	6
389.084	1	16
389.255	1	5
389.426	1	4
389.597	1	-2
389.768	1	4
389.939	1	6
390.109	1	4
390.280	1	17
390.451	1	10
390.622	1	1
390.793	1	8
390.963	1	-4
391.134	1	13
391.305	1	19
391.476	1	5
391.647	1	0
391.817	1	5
391.988	1	-2
392.159	1	9
392.330	1	8
392.501	1	11
392.671	1	13
392.842	1	13
393.013	1	12
393.184	1	13
393.355	1	21
393.525	1	6
393.696	1	-3
393.867	1	8
394.038	1	3
394.208	1	7
394.379	1	-2
394.550	1	11
394.721	1	12
394.892	1	12
395.062	1	1
395.233	1	7
395.404	1	7
395.575	1	-5
395.746	1	1
395.916	1	1
396.087	1	13
396.258	1	-4
396.429	1	-1
396.599	1	7
396.770	1	5
396.941	1	16
397.112	1	9
397.283	1	-1
397.453	1	-8
397.624	1	8
397.795	1	6
397.966	1	8
398.136	1	11
398.307	1	11
398.478	1	4
398.649	1	7
398.819	1	10
398.990	1	10
399.161	1	-3
399.332	1	11
399.503	1	2
399.673	1	6
399.844	1	1
400.015	1	16
400.186	1	13
400.356	1	2
400.527	1	7
400.698	1	3
400.869	1	5
401.039	1	7
401.210	1	-2
401.381	1	3
401.552	1	19
401.722	1	14
401.893	1	0
402.064	1	0
402.235	1	7
402.405	1	-6
402.576	1	9
402.747	1	-7
402.918	1	-6
403.088	1	3
403.259	1	-8
403.430	1	-2
403.601	1	-6
403.771	1	12
403.942	1	4
404.113	1	20
404.284	1	6
404.454	1	10
404.625	1	1
404.796	1	0
404.967	1	6
405.137	1	1
405.308	1	9
405.479	1	14
405.649	1	-2
405.820	1	11
405.991	1	19
406.162	1	4
406.332	1	-7
406.503	1	6
406.674	1	-2
406.845	1	6
407.015	1	-4
407.186	1	9
407.357	1	2
407.527	1	7
407.698	1	-2
407.869	1	9
408.040	1	-14
408.210	1	3
408.381	1	-3
408.552	1	2
408.722	1	2
408.893	1	-4
409.064	1	-8
409.235	1	6
409.405	1	-4
409.576	1	0
409.747	1	-3
409.917	1	10
410.088	1	0
410.259	1	8
410.430	1	8
410.600	1	3
410.771	1	4
410.942	1	11
411.112	1	12
411.283	1	-4
411.454	1	24
411.625	1	2
411.795	1	12
411.966	1	8
412.137	1	11
412.307	1	6
412.478	1	13
412.649	1	9
412.819	1	-4
412.990	1	3
413.161	1	-5
413.332	1	8
413.502	1	3
413.673	1	3
413.844	1	1
414.014	1	5
414.185	1	0
414.356	1	-5
414.526	1	12
414.697	1	2
414.868	1	5
415.038	1	-5
415.209	1	-2
415.380	1	-1
415.550	1	-7
415.721	1	-7
415.892	1	-2
416.063	1	16
416.233	1	0
416.404	1	5
416.575	1	3
416.745	1	-11
416.916	1	-5
417.087	1	-7
417.257	1	5
417.428	1	-5
417.599	1	10
417.769	1	5
417.940	1	7
418.111	1	4
418.281	1	7
418.452	1	-2
418.623	1	-4
418.793	1	9
418.964	1	-4
419.135	1	8
419.305	1	7
419.476	1	7
419.647	1	7
419.817	1	6
419.988	1	-1
420.159	1	-11
420.329	1	3
420.500	1	13
420.671	1	-1
420.841	1	6
421.012	1	7
421.183	1	1
421.353	1	8
421.524	1	-6
421.695	1	0
421.865	1	-3
422.036	1	7
422.206	1	-3
422.377	1	3
422.548	1	4
422.718	1	-6
422.889	1	9
423.060	1	-2
423.230	1	9
423.401	1	0
423.572	1	-2
423.742	1	3
423.913	1	1
424.084	1	2
424.254	1	10
424.425	1	5
424.595	1	-14
424.766	1	3
424.937	1	-7
425.107	1	3
425.278	1	-15
425.449	1	0
425.619	1	-2
425.790	1	-3
425.961	1	-7
426.131	1	-2
426.302	1	3
426.472	1	-7
426.643	1	-2
426.814	1	9
426.984	1	9
427.155	1	1
427.326	1	10
427.496	1	10
427.667	1	12
427.837	1	-5
428.008	1	13
428.179	1	-9
428.349	1	-2
428.520	1	0
428.691	1	0
428.861	1	1
429.032	1	-1
429.202	1	7
429.373	1	-9
429.544	1	6
429.714	1	12
429.885	1	0
430.055	1	3
430.226	1	6
430.397	1	11
430.567	1	7
430.738	1	-1
430.909	1	-10
431.079	1	11
431.250	1	-16
431.420	1	11
431.591	1	2
431.762	1	5
431.932	1	11
432.103	1	1
432.273	1	2
432.444	1	6
432.615	1	-6
432.785	1	6
432.956	1	7
433.126	1	-6
433.297	1	11
433.468	1	2
433.638	1	-2
433.809	1	1
433.979	1	7
434.150	1	-13
434.320	1	-5
434.491	1	1
434.662	1	-2
434.832	1	-8
435.003	1	4
435.173	1	6
435.344	1	4
435.515	1	-6
435.685	1	6
435.856	1	-1
436.026	1	6
436.197	1	-2
436.368	1	-4
436.538	1	10
436.709	1	-9
436.879	1	-9
437.050	1	7
437.220	1	7
437.391	1	-2
437.562	1	10
437.732	1	4
437.903	1	8
438.073	1	4
438.244	1	-4
438.414	1	-7
438.585	1	8
438.756	1	9
438.926	1	8
439.097	1	6
439.267	1	13
439.438	1	13
439.608	1	0
439.779	1	0
439.949	1	-8
440.120	1	3
440.291	1	-6
440.461	1	-9
440.632	1	2
440.802	1	3
440.973	1	9
441.143	1	11
441.314	1	10
441.485	1	-7
441.655	1	22
441.826	1	-5
441.996	1	0
442.167	1	3
442.337	1	4
442.508	1	-5
442.678	1	-4
442.849	1	8
443.019	1	8
443.190	1	-7
443.361	1	8
443.531	1	10
443.702	1	6
443.872	1	7
444.043	1	2
444.213	1	-4
444.384	1	5
444.554	1	-6
444.725	1	0
444.895	1	2
445.066	1	-2
445.237	1	0
445.407	1	4
445.578	1	5
445.748	1	-11
445.919	1	-4
446.089	1	7
446.260	1	5
446.430	1	-14
446.601	1	-13
446.771	1	2
446.942	1	8
447.112	1	1
447.283	1	7
447.453	1	3
447.624	1	13
447.794	1	-7
447.965	1	-4
448.135	1	-3
448.306	1	4
448.477	1	-6
448.647	1	7
448.818	1	8
448.988	1	-13
449.159	1	-10
449.329	1	-8
449.500	1	9
449.670	1	11
449.841	1	4
450.011	1	0
450.182	1	-2
450.352	1	6
450.523	1	-1
450.693	1	9
450.864	1	8
451.034	1	7
451.205	1	6
451.375	1	8
451.546	1	7
451.716	1	6
451.887	1	-6
452.057	1	8
452.228	1	-4
452.398	1	5
452.569	1	-1
452.739	1	1
452.910	1	3
453.080	1	8
453.251	1	5
453.421	1	1
453.592	1	-3
453.762	1	4
453.933	1	6
454.103	1	-5
454.274	1	1
454.444	1	6
454.615	1	16
454.785	1	-8
454.956	1	-3
455.126	1	-3
455.297	1	9
455.467	1	9
455.638	1	1
455.808	1	6
455.979	1	3
456.149	1	-3
456.320	1	2
456.490	1	4
456.661	1	4
456.831	1	20
457.001	1	7
457.172	1	-1
457.342	1	10
457.513	1	2
457.683	1	0
457.854	1	5
458.024	1	8
458.195	1	-5
458.365	1	1
458.536	1	3
458.706	1	4
458.877	1	-7
459.047	1	-1
459.218	1	8
459.388	1	2
459.559	1	-6
459.729	1	5
459.899	1	13
460.070	1	5
460.240	1	8
460.411	1	11
460.581	1	0
460.752	1	3
460.922	1	7
461.093	1	11
461.263	1	0
461.434	1	12
461.604	1	-7
461.775	1	-1
461.945	1	9
462.115	1	-3
462.286	1	7
462.456	1	-4
462.627	1	6
462.797	1	-5
462.968	1	-5
463.138	1	7
463.309	1	-7
463.479	1	8
463.649	1	8
463.820	1	5
463.990	1	-5
464.161	1	6
464.331	1	2
464.502	1	11
464.672	1	5
464.843	1	5
465.013	1	-6
465.183	1	2
465.354	1	6
465.524	1	17
465.695	1	1
465.865	1	-2
466.036	1	-1
466.206	1	0
466.376	1	-1
466.547	1	-4
466.717	1	4
466.888	1	-3
467.058	1	5
467.229	1	3
467.399	1	2
467.569	1	8
467.740	1	-3
467.910	1	-1
468.081	1	15
468.251	1	3
468.422	1	5
468.592	1	3
468.762	1	-3
468.933	1	6
469.103	1	-5
469.274	1	5
469.444	1	-1
469.614	1	-11
469.785	1	7
469.955	1	-6
470.126	1	13
470.296	1	11
470.467	1	3
470.637	1	13
470.807	1	-4
470.978	1	-9
471.148	1	1
471.319	1	5
471.489	1	-3
471.659	1	10
471.830	1	13
472.000	1	2
472.171	1	1
472.341	1	4
472.511	1	8
472.682	1	4
472.852	1	3
473.023	1	-8
473.193	1	4
473.363	1	-7
473.534	1	-2
473.704	1	17
473.875	1	6
474.045	1	-9
474.215	1	1
474.386	1	11
474.556	1	-10
474.727	1	4
474.897	1	0
475.067	1	6
475.238	1	-6
475.408	1	5
475.578	1	4
475.749	1	-9
475.919	1	10
476.090	1	1
476.260	1	-2
476.430	1	2
476.601	1	-3
476.771	1	7
476.942	1	-4
477.112	1	7
477.282	1	-7
477.453	1	-1
477.623	1	11
477.793	1	10
477.964	1	9
478.134	1	4
478.305	1	4
478.475	1	1
478.645	1	-6
478.816	1	3
478.986	1	0
479.156	1	5
479.327	1	2
479.497	1	2
479.667	1	5
479.838	1	-2
480.008	1	15
480.179	1	7
480.349	1	4
480.519	1	6
480.690	1	-1
480.860	1	1
481.030	1	-2
481.201	1	1
481.371	1	0
481.541	1	3
481.712	1	6
481.882	1	2
482.053	1	8
482.223	1	1
482.393	1	-12
482.564	1	-6
482.734	1	5
482.904	1	3
483.075	1	6
483.245	1	4
483.415	1	1
483.586	1	-1
483.756	1	18
483.926	1	-2
484.097	1	-8
484.267	1	9
484.437	1	-10
484.608	1	1
484.778	1	2
484.948	1	-12
485.119	1	5
485.289	1	6
485.459	1	0
485.630	1	-6
485.800	1	-6
485.970	1	3
486.141	1	-6
486.311	1	7
486.481	1	-2
486.652	1	7
486.822	1	2
486.992	1	-3
487.163	1	-5
487.333	1	4
487.503	1	-9
487.674	1	-2
487.844	1	5
488.014	1	1
488.185	1	-9
488.355	1	6
488.525	1	-6
488.696	1	-4
488.866	1	7
489.036	1	8
489.207	1	3
489.377	1	-3
489.547	1	6
489.718	1	-4
489.888	1	-2
490.058	1	2
490.228	1	-5
490.399	1	3
490.569	1	10
490.739	1	20
490.910	1	-4
491.080	1	5
491.250	1	-2
491.421	1	1
491.591	1	-9
491.761	1	-9
491.932	1	4
492.102	1	-1
492.272	1	7
492.442	1	4
492.613	1	3
492.783	1	-18
492.953	1	3
493.124	1	-4
493.294	1	10
493.464	1	-6
493.635	1	-12
493.805	1	13
493.975	1	-1
494.145	1	7
494.316	1	12
494.486	1	5
494.656	1	1
494.827	1	-2
494.997	1	-5
495.167	1	2
495.337	1	2
495.508	1	-1
495.678	1	7
495.848	1	12
496.019	1	-1
496.189	1	-2
496.359	1	5
496.529	1	-2
496.700	1	-3
496.870	1	4
497.040	1	0
497.211	1	14
497.381	1	-12
497.551	1	14
497.721	1	9
497.892	1	10
498.062	1	6
498.232	1	10
498.403	1	5
498.573	1	-7
498.743	1	4
498.913	1	14
499.084	1	-13
499.254	1	4
499.424	1	8
499.594	1	0
499.765	1	6
499.935	1	-5
500.105	1	6
500.275	1	1
500.446	1	10
500.616	1	4
500.786	1	-1
500.956	1	8
501.127	1	9
501.297	1	3
501.467	1	-2
501.638	1	8
501.808	1	-9
501.978	1	7
502.148	1	-2
502.319	1	4
502.489	1	5
502.659	1	1
502.829	1	4
503.000	1	21
503.170	1	7
503.340	1	-2
503.510	1	2
503.681	1	2
503.851	1	-11
504.021	1	13
504.191	1	8
504.362	1	9
504.532	1	-8
504.702	1	-5
504.872	1	-15
505.042	1	2
505.213	1	-6
505.383	1	-2
505.553	1	4
505.723	1	7
505.894	1	7
506.064	1	5
506.234	1	17
506.404	1	2
506.575	1	5
506.745	1	-2
506.915	1	3
507.085	1	-7
507.256	1	-5
507.426	1	-2
507.596	1	9
507.766	1	-1
507.936	1	9
508.107	1	2
508.277	1	-1
508.447	1	3
508.617	1	23
508.788	1	10
508.958	1	9
509.128	1	-2
509.298	1	14
509.468	1	13
509.639	1	3
509.809	1	5
509.979	1	1
510.149	1	2
510.319	1	-2
510.490	1	12
510.660	1	2
510.830	1	1
511.000	1	7
511.171	1	8
511.341	1	-5
511.511	1	4
511.681	1	0
511.851	1	5
512.022	1	-1
512.192	1	11
512.362	1	9
512.532	1	-2
512.702	1	-7
512.873	1	16
513.043	1	12
513.213	1	4
513.383	1	-11
513.553	1	-8
513.724	1	2
513.894	1	-3
514.064	1	6
514.234	1	1
514.404	1	5
514.575	1	3
514.745	1	2
514.915	1	15
515.085	1	1
515.255	1	-6
515.425	1	8
515.596	1	-6
515.766	1	-7
515.936	1	3
516.106	1	4
516.276	1	5
516.447	1	5
516.617	1	6
516.787	1	-2
516.957	1	5
517.127	1	-3
517.297	1	2
517.468	1	8
517.638	1	3
517.808	1	1
517.978	1	2
518.148	1	4
518.319	1	5
518.489	1	-2
518.659	1	3
518.829	1	5
518.999	1	-6
519.169	1	11
519.340	1	-6
519.510	1	3
519.680	1	-9
519.850	1	-3
520.020	1	-10
520.190	1	14
520.361	1	-3
520.531	1	1
520.701	1	-2
520.871	1	0
521.041	1	4
521.211	1	4
521.382	1	1
521.552	1	0
521.722	1	3
521.892	1	-2
522.062	1	0
522.232	1	-3
522.402	1	-4
522.573	1	-1
522.743	1	6
522.913	1	18
523.083	1	-3
523.253	1	8
523.423	1	4
523.593	1	-10
523.764	1	11
523.934	1	11
524.104	1	1
524.274	1	-10
524.444	1	1
524.614	1	5
524.784	1	-2
524.955	1	-3
525.125	1	1
525.295	1	-6
525.465	1	4
525.635	1	11
525.805	1	-2
525.975	1	8
526.146	1	4
526.316	1	-2
526.486	1	1
526.656	1	16
526.826	1	9
526.996	1	4
527.166	1	5
527.337	1	3
527.507	1	-6
527.677	1	18
527.847	1	0
528.017	1	-3
528.187	1	2
528.357	1	8
528.527	1	0
528.698	1	3
528.868	1	5
529.038	1	7
529.208	1	-7
529.378	1	14
529.548	1	0
529.718	1	2
529.888	1	2
530.058	1	8
530.229	1	9
530.399	1	7
530.569	1	-1
530.739	1	-4
530.909	1	-2
531.079	1	13
531.249	1	2
531.419	1	4
531.589	1	-6
531.760	1	9
531.930	1	4
532.100	1	10
532.270	1	6
532.440	1	2
532.610	1	13
532.780	1	3
532.950	1	-1
533.120	1	1
533.290	1	2
533.461	1	15
533.631	1	5
533.801	1	7
533.971	1	9
534.141	1	10
534.311	1	4
534.481	1	-4
534.651	1	13
534.821	1	8
534.991	1	3
535.162	1	8
535.332	1	4
535.502	1	8
535.672	1	5
535.842	1	7
536.012	1	11
536.182	1	-2
536.352	1	2
536.522	1	14
536.692	1	1
536.862	1	11
537.032	1	5
537.203	1	14
537.373	1	-4
537.543	1	4
537.713	1	15
537.883	1	8
538.053	1	9
538.223	1	9
538.393	1	12
538.563	1	3
538.733	1	0
538.903	1	-2
539.073	1	9
539.243	1	4
539.413	1	-3
539.584	1	3
539.754	1	-2
539.924	1	2
540.094	1	13
540.264	1	5
540.434	1	-1
540.604	1	7
540.774	1	0
540.944	1	8
541.114	1	-1
541.284	1	6
541.454	1	3
541.624	1	1
541.794	1	-2
541.964	1	8
542.134	1	2
542.305	1	-5
542.475	1	-5
542.645	1	-4
542.815	1	5
542.985	1	-4
543.155	1	7
543.325	1	-3
543.495	1	-11
543.665	1	12
543.835	1	-5
544.005	1	-6
544.175	1	-3
544.345	1	-1
544.515	1	1
544.685	1	2
544.855	1	9
545.025	1	-4
545.195	1	-1
545.365	1	6
545.535	1	0
545.705	1	5
545.875	1	-2
546.045	1	9
546.216	1	16
546.386	1	0
546.556	1	-2
546.726	1	8
546.896	1	1
547.066	1	4
547.236	1	-3
547.406	1	18
547.576	1	11
547.746	1	9
547.916	1	6
548.086	1	3
548.256	1	3
548.426	1	-5
548.596	1	7
548.766	1	8
548.936	1	-8
549.106	1	13
549.276	1	12
549.446	1	7
549.616	1	11
549.786	1	11
549.956	1	5
550.126	1	2
550.296	1	0
550.466	1	-3
550.636	1	15
550.806	1	10
550.976	1	9
551.146	1	-2
551.316	1	3
551.486	1	3
551.656	1	-3
551.826	1	6
551.996	1	3
552.166	1	-2
552.336	1	5
552.506	1	-2
552.676	1	-2
552.846	1	11
553.016	1	7
553.186	1	-1
553.356	1	-3
553.526	1	6
553.696	1	13
553.866	1	3
554.036	1	-1
554.206	1	-3
554.376	1	-5
554.546	1	-7
554.716	1	3
554.886	1	3
555.056	1	-5
555.226	1	-9
555.396	1	9
555.566	1	16
555.736	1	-7
555.906	1	1
556.076	1	-2
556.246	1	-4
556.416	1	-2
556.586	1	17
556.756	1	4
556.926	1	5
557.096	1	-8
557.266	1	8
557.436	1	10
557.606	1	-5
557.776	1	-1
557.946	1	5
558.116	1	14
558.286	1	-1
558.456	1	-3
558.626	1	2
558.796	1	-1
558.966	1	-8
559.136	1	7
559.306	1	-2
559.476	1	-7
559.646	1	5
559.816	1	11
559.986	1	-5
560.155	1	4
560.325	1	-8
560.495	1	2
560.665	1	5
560.835	1	2
561.005	1	2
561.175	1	10
561.345	1	-2
561.515	1	-10
561.685	1	-1
561.855	1	15
562.025	1	-2
562.195	1	2
562.365	1	8
562.535	1	11
562.705	1	15
562.875	1	4
563.045	1	6
563.215	1	10
563.385	1	6
563.555	1	10
563.725	1	5
563.895	1	2
564.064	1	10
564.234	1	4
564.404	1	3
564.574	1	-1
564.744	1	14
564.914	1	-14
565.084	1	-6
565.254	1	6
565.424	1	3
565.594	1	-4
565.764	1	15
565.934	1	14
566.104	1	-2
566.274	1	0
566.444	1	8
566.614	1	-4
566.783	1	-3
566.953	1	3
567.123	1	14
567.293	1	3
567.463	1	-1
567.633	1	-5
567.803	1	-12
567.973	1	-6
568.143	1	1
568.313	1	-3
568.483	1	-3
568.653	1	-2
568.823	1	12
568.993	1	-1
569.162	1	6
569.332	1	-7
569.502	1	4
569.672	1	3
569.842	1	-7
570.012	1	12
570.182	1	-3
570.352	1	11
570.522	1	9
570.692	1	6
570.862	1	3
571.031	1	-3
571.201	1	7
571.371	1	-2
571.541	1	-9
571.711	1	9
571.881	1	-1
572.051	1	8
572.221	1	9
572.391	1	12
572.561	1	0
572.731	1	1
572.900	1	2
573.070	1	-2
573.240	1	-3
573.410	1	3
573.580	1	1
573.750	1	7
573.920	1	0
574.090	1	2
574.260	1	3
574.430	1	4
574.599	1	-2
574.769	1	-5
574.939	1	-5
575.109	1	-8
575.279	1	0
575.449	1	9
575.619	1	3
575.789	1	7
575.959	1	-7
576.128	1	-11
576.298	1	-12
576.468	1	-6
576.638	1	-6
576.808	1	0
576.978	1	1
577.148	1	0
577.318	1	7
577.487	1	2
577.657	1	-11
577.827	1	4
577.997	1	-11
578.167	1	11
578.337	1	-3
578.507	1	-5
578.677	1	-2
578.846	1	3
579.016	1	13
579.186	1	-6
579.356	1	-3
579.526	1	8
579.696	1	6
579.866	1	5
580.036	1	0
580.205	1	1
580.375	1	6
580.545	1	5
580.715	1	9
580.885	1	2
581.055	1	7
581.225	1	-10
581.394	1	-4
581.564	1	-4
581.734	1	11
581.904	1	-7
582.074	1	-5
582.244	1	11
582.414	1	4
582.583	1	-9
582.753	1	-1
582.923	1	3
583.093	1	-2
583.263	1	2
583.433	1	-8
583.603	1	15
583.772	1	-5
583.942	1	11
584.112	1	-1
584.282	1	7
584.452	1	3
584.622	1	-2
584.791	1	-4
584.961	1	3
585.131	1	-6
585.301	1	7
585.471	1	-2
585.641	1	5
585.811	1	-4
585.980	1	-16
586.150	1	-1
586.320	1	-7
586.490	1	1
586.660	1	4
586.830	1	-11
586.999	1	8
587.169	1	-2
587.339	1	6
587.509	1	2
587.679	1	4
587.849	1	7
588.018	1	-4
588.188	1	3
588.358	1	9
588.528	1	3
588.698	1	-3
588.867	1	1
589.037	1	4
589.207	1	-11
589.377	1	15
589.547	1	8
589.717	1	-3
589.886	1	-1
590.056	1	-3
590.226	1	2
590.396	1	8
590.566	1	-8
590.735	1	14
590.905	1	13
591.075	1	-9
591.245	1	1
591.415	1	6
591.585	1	-7
591.754	1	9
591.924	1	-9
592.094	1	-1
592.264	1	-1
592.434	1	-2
592.603	1	-1
592.773	1	-5
592.943	1	-6
593.113	1	-6
593.283	1	1
593.452	1	-9
593.622	1	1
593.792	1	-4
593.962	1	8
594.132	1	-2
594.301	1	13
594.471	1	5
594.641	1	-2
594.811	1	-3
594.981	1	2
595.150	1	6
595.320	1	4
595.490	1	-4
595.660	1	-3
595.829	1	-1
595.999	1	5
596.169	1	-3
596.339	1	0
596.509	1	2
596.678	1	0
596.848	1	-6
597.018	1	3
597.188	1	-3
597.358	1	2
597.527	1	-2
597.697	1	0
597.867	1	5
598.037	1	5
598.206	1	-6
598.376	1	11
598.546	1	1
598.716	1	-9
598.885	1	1
599.055	1	6
599.225	1	-8
599.395	1	7
599.565	1	1
599.734	1	3
599.904	1	3
600.074	1	2
600.244	1	6
600.413	1	5
600.583	1	-5
600.753	1	3
600.923	1	21
601.092	1	-9
601.262	1	7
601.432	1	-3
601.602	1	8
601.771	1	9
601.941	1	-3
602.111	1	-10
602.281	1	6
602.451	1	-2
602.620	1	4
602.790	1	2
602.960	1	-3
603.130	1	-2
603.299	1	8
603.469	1	-4
603.639	1	-1
603.809	1	0
603.978	1	9
604.148	1	-1
604.318	1	-2
604.487	1	2
604.657	1	7
604.827	1	-11
604.997	1	5
605.166	1	5
605.336	1	0
605.506	1	2
605.676	1	-3
605.845	1	7
606.015	1	0
606.185	1	3
606.355	1	13
606.524	1	-5
606.694	1	11
606.864	1	4
607.034	1	-8
607.203	1	10
607.373	1	-9
607.543	1	-4
607.712	1	17
607.882	1	-10
608.052	1	10
608.222	1	8
608.391	1	-4
608.561	1	0
608.731	1	-1
608.901	1	-1
609.070	1	2
609.240	1	6
609.410	1	1
609.579	1	6
609.749	1	1
609.919	1	-5
610.089	1	5
610.258	1	8
610.428	1	-5
610.598	1	6
610.767	1	2
610.937	1	-1
611.107	1	6
611.277	1	9
611.446	1	-1
611.616	1	-5
611.786	1	10
611.955	1	4
612.125	1	12
612.295	1	4
612.465	1	-4
612.634	1	2
612.804	1	8
612.974	1	3
613.143	1	3
613.313	1	1
613.483	1	7
613.652	1	-6
613.822	1	2
613.992	1	6
614.162	1	-5
614.331	1	5
614.501	1	4
614.671	1	7
614.840	1	9
615.010	1	1
615.180	1	1
615.349	1	2
615.519	1	12
615.689	1	5
615.858	1	10
616.028	1	-3
616.198	1	10
616.368	1	3
616.537	1	-11
616.707	1	-2
616.877	1	6
617.046	1	-1
617.216	1	0
617.386	1	-2
617.555	1	-5
617.725	1	4
617.895	1	-3
618.064	1	9
618.234	1	4
618.404	1	15
618.573	1	7
618.743	1	2
618.913	1	-13
619.082	1	1
619.252	1	1
619.422	1	7
619.591	1	3
619.761	1	4
619.931	1	16
620.100	1	3
620.270	1	-2
620.440	1	4
620.609	1	-5
620.779	1	2
620.949	1	5
621.118	1	0
621.288	1	10
621.458	1	0
621.627	1	-7
621.797	1	0
621.967	1	-4
622.136	1	0
622.306	1	-1
622.476	1	2
622.645	1	1
622.815	1	4
622.985	1	-3
623.154	1	3
623.324	1	13
623.494	1	-3
623.663	1	-4
623.833	1	8
624.002	1	0
624.172	1	12
624.342	1	-5
624.511	1	1
624.681	1	0
624.851	1	-11
625.020	1	2
625.190	1	9
625.360	1	-7
625.529	1	11
625.699	1	-5
625.869	1	-9
626.038	1	4
626.208	1	0
626.377	1	19
626.547	1	4
626.717	1	3
626.886	1	-6
627.056	1	6
627.226	1	1
627.395	1	-1
627.565	1	11
627.735	1	-1
627.904	1	10
628.074	1	10
628.243	1	-6
628.413	1	-2
628.583	1	1
628.752	1	7
628.922	1	-9
629.091	1	12
629.261	1	5
629.431	1	-14
629.600	1	9
629.770	1	2
629.940	1	7
630.109	1	-2
630.279	1	-13
630.448	1	-3
630.618	1	-6
630.788	1	2
630.957	1	-8
631.127	1	4
631.297	1	0
631.466	1	2
631.636	1	8
631.805	1	-5
631.975	1	5
632.145	1	-2
632.314	1	19
632.484	1	3
632.653	1	-9
632.823	1	11
632.993	1	7
633.162	1	1
633.332	1	9
633.501	1	5
633.671	1	1
633.841	1	-2
634.010	1	3
634.180	1	2
634.349	1	-6
634.519	1	0
634.689	1	8
634.858	1	15
635.028	1	-2
635.197	1	-2
635.367	1	6
635.537	1	-2
635.706	1	0
635.876	1	5
636.045	1	6
636.215	1	3
636.384	1	4
636.554	1	15
636.724	1	-1
636.893	1	-5
637.063	1	15
637.232	1	-2
637.402	1	10
637.572	1	-7
637.741	1	15
637.911	1	-1
638.080	1	4
638.250	1	6
638.419	1	2
638.589	1	10
638.759	1	6
638.928	1	-8
639.098	1	7
639.267	1	0
639.437	1	-9
639.606	1	9
639.776	1	-2
639.946	1	4
640.115	1	-8
640.285	1	10
640.454	1	24
640.624	1	12
640.793	1	-2
640.963	1	-3
641.132	1	8
641.302	1	0
641.472	1	-10
641.641	1	0
641.811	1	2
641.980	1	2
642.150	1	-2
642.319	1	12
642.489	1	-3
642.659	1	-12
642.828	1	-1
642.998	1	-7
643.167	1	9
643.337	1	4
643.506	1	-8
643.676	1	-4
643.845	1	-3
644.015	1	6
644.184	1	4
644.354	1	2
644.524	1	-8
644.693	1	3
644.863	1	2
645.032	1	-2
645.202	1	-1
645.371	1	-2
645.541	1	-14
645.710	1	0
645.880	1	9
646.049	1	4
646.219	1	-2
646.388	1	-7
646.558	1	-1
646.728	1	7
646.897	1	3
647.067	1	1
647.236	1	1
647.406	1	-6
647.575	1	2
647.745	1	5
647.914	1	-5
648.084	1	2
648.253	1	6
648.423	1	-1
648.592	1	1
648.762	1	9
648.931	1	3
649.101	1	5
649.270	1	15
649.440	1	6
649.610	1	8
649.779	1	-5
649.949	1	1
650.118	1	-5
650.288	1	-6
650.457	1	1
650.627	1	3
650.796	1	3
650.966	1	0
651.135	1	11
651.305	1	-9
651.474	1	8
651.644	1	-6
651.813	1	-2
651.983	1	0
652.152	1	-2
652.322	1	9
652.491	1	-1
652.661	1	-3
652.830	1	13
653.000	1	4
653.169	1	7
653.339	1	2
653.508	1	0
653.678	1	8
653.847	1	4
654.017	1	4
654.186	1	-1
654.356	1	8
654.525	1	1
654.695	1	3
654.864	1	7
655.034	1	-3
655.203	1	4
655.373	1	6
655.542	1	0
655.712	1	2
655.881	1	4
656.051	1	3
656.220	1	4
656.390	1	-3
656.559	1	-4
656.729	1	1
656.898	1	7
657.068	1	4
657.237	1	9
657.406	1	-1
657.576	1	-2
657.745	1	-3
657.915	1	6
658.084	1	4
658.254	1	7
658.423	1	-1
658.593	1	-8
658.762	1	-7
658.932	1	8
659.101	1	-3
659.271	1	-2
659.440	1	8
659.610	1	3
659.779	1	-5
659.949	1	-12
660.118	1	1
660.288	1	-8
660.457	1	0
660.626	1	-3
660.796	1	-1
660.965	1	13
661.135	1	1
661.304	1	4
661.474	1	-1
661.643	1	-3
661.813	1	4
661.982	1	-1
662.152	1	2
662.321	1	9
662.491	1	0
662.660	1	6
662.829	1	-6
662.999	1	5
663.168	1	-2
663.338	1	2
663.507	1	-2
663.677	1	-3
663.846	1	11
664.016	1	-6
664.185	1	-1
664.354	1	12
664.524	1	-4
664.693	1	0
664.863	1	4
665.032	1	3
665.202	1	-7
665.371	1	14
665.541	1	-8
665.710	1	-2
665.879	1	1
666.049	1	4
666.218	1	-3
666.388	1	-3
666.557	1	6
666.727	1	-15
666.896	1	-4
667.065	1	11
667.235	1	4
667.404	1	-7
667.574	1	7
667.743	1	4
667.913	1	3
668.082	1	-6
668.251	1	6
668.421	1	9
668.590	1	-6
668.760	1	2
668.929	1	4
669.099	1	-8
669.268	1	5
669.437	1	-5
669.607	1	-2
669.776	1	-6
669.946	1	16
670.115	1	2
670.285	1	1
670.454	1	-3
670.623	1	6
670.793	1	-1
670.962	1	-1
671.132	1	6
671.301	1	1
671.470	1	-7
671.640	1	-12
671.809	1	-6
671.979	1	9
672.148	1	19
672.317	1	-1
672.487	1	-2
672.656	1	1
672.826	1	-7
672.995	1	-3
673.164	1	8
673.334	1	6
673.503	1	-2
673.673	1	9
673.842	1	-1
674.011	1	10
674.181	1	-4
674.350	1	1
674.520	1	-5
674.689	1	4
674.858	1	1
675.028	1	1
675.197	1	1
675.367	1	14
675.536	1	9
675.705	1	4
675.875	1	8
676.044	1	1
676.214	1	-3
676.383	1	-6
676.552	1	-7
676.722	1	2
676.891	1	-8
677.060	1	9
677.230	1	16
677.399	1	5
677.569	1	-4
677.738	1	-4
677.907	1	-4
678.077	1	4
678.246	1	-7
678.416	1	2
678.585	1	15
678.754	1	-1
678.924	1	0
679.093	1	-7
679.262	1	-3
679.432	1	-1
679.601	1	-12
679.771	1	-4
679.940	1	2
680.109	1	8
680.279	1	-2
680.448	1	9
680.617	1	8
680.787	1	-1
680.956	1	-2
681.125	1	-1
681.295	1	3
681.464	1	-2
681.634	1	2
681.803	1	-14
681.972	1	-8
682.142	1	14
682.311	1	4
682.480	1	6
682.650	1	-3
682.819	1	-7
682.988	1	-3
683.158	1	-1
683.327	1	6
683.496	1	-11
683.666	1	4
683.835	1	8
684.004	1	6
684.174	1	6
684.343	1	0
684.512	1	6
684.682	1	-4
684.851	1	1
685.021	1	12
685.190	1	-3
685.359	1	-4
685.529	1	-2
685.698	1	-1
685.867	1	1
686.037	1	4
686.206	1	7
686.375	1	5
686.545	1	8
686.714	1	-1
686.883	1	-7
687.053	1	5
687.222	1	-9
687.391	1	-9
687.561	1	2
687.730	1	-6
687.899	1	-1
688.069	1	-6
688.238	1	1
688.407	1	3
688.577	1	-10
688.746	1	-2
