340.368	1	4
340.539	1	6
340.710	1	-2
340.881	1	4
341.052	1	4
341.223	1	13
341.394	1	-3
341.565	1	-5
341.737	1	3
341.908	1	9
342.079	1	1
342.250	1	6
342.421	1	-5
342.592	1	-1
342.763	1	-2
342.934	1	2
343.105	1	7
343.276	1	-4
343.447	1	9
343.618	1	11
343.789	1	2
343.960	1	-2
344.131	1	1
344.302	1	13
344.473	1	4
344.644	1	2
344.815	1	11
344.986	1	12
345.157	1	3
345.328	1	7
345.499	1	7
345.670	1	9
345.841	1	3
346.012	1	7
346.183	1	2
346.354	1	0
346.526	1	5
346.697	1	2
346.868	1	5
347.039	1	4
347.210	1	-1
347.381	1	6
347.552	1	3
347.723	1	5
347.894	1	3
348.065	1	4
348.236	1	1
348.407	1	2
348.578	1	7
348.749	1	4
348.920	1	12
349.091	1	6
349.262	1	-1
349.433	1	0
349.604	1	15
349.775	1	5
349.946	1	10
350.117	1	8
350.288	1	6
350.459	1	1
350.630	1	-10
350.801	1	6
350.972	1	-8
351.143	1	-3
351.314	1	5
351.485	1	3
351.656	1	8
351.827	1	5
351.998	1	3
352.169	1	13
352.340	1	1
352.511	1	6
352.682	1	-5
352.853	1	-2
353.024	1	-5
353.195	1	1
353.366	1	8
353.537	1	2
353.708	1	11
353.879	1	5
354.050	1	12
354.221	1	-9
354.392	1	11
354.563	1	16
354.734	1	3
354.905	1	12
355.076	1	11
355.247	1	-3
355.418	1	3
355.589	1	3
355.760	1	12
355.931	1	5
356.102	1	-2
356.273	1	3
356.444	1	7
356.615	1	3
356.785	1	19
356.956	1	11
357.127	1	12
357.298	1	7
357.469	1	2
357.640	1	6
357.811	1	22
357.982	1	-10
358.153	1	6
358.324	1	6
358.495	1	15
358.666	1	4
358.837	1	8
359.008	1	10
359.179	1	7
359.350	1	4
359.521	1	13
359.692	1	12
359.863	1	-4
360.034	1	0
360.205	1	3
360.376	1	3
360.547	1	9
360.718	1	-1
360.889	1	11
361.060	1	9
361.231	1	8
361.401	1	8
361.572	1	4
361.743	1	5
361.914	1	5
362.085	1	-1
362.256	1	13
362.427	1	1
362.598	1	11
362.769	1	4
362.940	1	6
363.111	1	12
363.282	1	1
363.453	1	9
363.624	1	21
363.795	1	17
363.966	1	7
364.137	1	10
364.308	1	10
364.478	1	16
364.649	1	13
364.820	1	20
364.991	1	25
365.162	1	-4
365.333	1	17
365.504	1	6
365.675	1	9
365.846	1	9
366.017	1	15
366.188	1	2
366.359	1	11
366.530	1	15
366.701	1	10
366.871	1	18
367.042	1	25
367.213	1	6
367.384	1	15
367.555	1	21
367.726	1	26
367.897	1	8
368.068	1	11
368.239	1	20
368.410	1	15
368.581	1	16
368.752	1	0
368.923	1	11
369.093	1	7
369.264	1	1
369.435	1	13
369.606	1	18
369.777	1	6
369.948	1	10
370.119	1	16
370.290	1	11
370.461	1	15
370.632	1	12
370.803	1	3
370.973	1	20
371.144	1	17
371.315	1	13
371.486	1	16
371.657	1	26
371.828	1	5
371.999	1	12
372.170	1	21
372.341	1	24
372.512	1	5
372.682	1	8
372.853	1	14
373.024	1	7
373.195	1	2
373.366	1	11
373.537	1	15
373.708	1	4
373.879	1	14
374.050	1	9
374.220	1	9
374.391	1	0
374.562	1	4
374.733	1	22
374.904	1	5
375.075	1	6
375.246	1	16
375.417	1	9
375.588	1	1
375.758	1	-3
375.929	1	3
376.100	1	11
376.271	1	1
376.442	1	3
376.613	1	13
376.784	1	12
376.955	1	-5
377.125	1	4
377.296	1	11
377.467	1	-8
377.638	1	9
377.809	1	20
377.980	1	4
378.151	1	5
378.321	1	10
378.492	1	-1
378.663	1	12
378.834	1	7
379.005	1	16
379.176	1	7
379.347	1	16
379.518	1	-3
379.688	1	1
379.859	1	8
380.030	1	4
380.201	1	1
380.372	1	6
380.543	1	7
380.714	1	9
380.884	1	14
381.055	1	10
381.226	1	6
381.397	1	4
381.568	1	5
381.739	1	12
381.910	1	0
382.080	1	-3
382.251	1	4
382.422	1	16
382.593	1	12
382.764	1	13
382.935	1	11
383.105	1	12
383.276	1	7
383.447	1	14
383.618	1	9
383.789	1	20
383.960	1	14
384.130	1	12
384.301	1	6
384.472	1	0
384.643	1	18
384.814	1	7
384.985	1	12
385.156	1	17
385.326	1	17
385.497	1	26
385.668	1	17
385.839	1	15
386.010	1	19
386.180	1	16
386.351	1	11
386.522	1	26
386.693	1	16
386.864	1	9
387.035	1	5
387.205	1	14
387.376	1	27
387.547	1	7
387.718	1	34
387.889	1	25
388.060	1	8
388.230	1	10
388.401	1	25
388.572	1	11
388.743	1	22
388.914	1	21
389.084	1	23
389.255	1	16
389.426	1	17
389.597	1	8
389.768	1	13
389.939	1	29
390.109	1	14
390.280	1	22
390.451	1	18
390.622	1	11
390.793	1	15
390.963	1	23
391.134	1	17
391.305	1	7
391.476	1	24
391.647	1	17
391.817	1	12
391.988	1	8
392.159	1	16
392.330	1	20
392.501	1	16
392.671	1	19
392.842	1	20
393.013	1	33
393.184	1	21
393.355	1	15
393.525	1	21
393.696	1	16
393.867	1	12
394.038	1	19
394.208	1	11
394.379	1	-5
394.550	1	17
394.721	1	24
394.892	1	10
395.062	1	2
395.233	1	15
395.404	1	21
395.575	1	5
395.746	1	14
395.916	1	23
396.087	1	16
396.258	1	15
396.429	1	12
396.599	1	11
396.770	1	12
396.941	1	32
397.112	1	12
397.283	1	14
397.453	1	8
397.624	1	11
397.795	1	17
397.966	1	24
398.136	1	23
398.307	1	8
398.478	1	22
398.649	1	19
398.819	1	18
398.990	1	10
399.161	1	17
399.332	1	23
399.503	1	19
399.673	1	18
399.844	1	22
400.015	1	14
400.186	1	15
400.356	1	5
400.527	1	15
400.698	1	8
400.869	1	22
401.039	1	14
401.210	1	14
401.381	1	15
401.552	1	31
401.722	1	21
401.893	1	17
402.064	1	15
402.235	1	20
402.405	1	4
402.576	1	22
402.747	1	8
402.918	1	6
403.088	1	3
403.259	1	13
403.430	1	5
403.601	1	-1
403.771	1	12
403.942	1	10
404.113	1	27
404.284	1	4
404.454	1	20
404.625	1	14
404.796	1	14
404.967	1	13
405.137	1	11
405.308	1	5
405.479	1	18
405.649	1	10
405.820	1	13
405.991	1	15
406.162	1	-2
406.332	1	-1
406.503	1	3
406.674	1	20
406.845	1	17
407.015	1	8
407.186	1	23
407.357	1	16
407.527	1	12
407.698	1	-1
407.869	1	5
408.040	1	2
408.210	1	12
408.381	1	6
408.552	1	9
408.722	1	-3
408.893	1	7
409.064	1	8
409.235	1	12
409.405	1	14
409.576	1	11
409.747	1	-4
409.917	1	18
410.088	1	13
410.259	1	6
410.430	1	10
410.600	1	8
410.771	1	17
410.942	1	14
411.112	1	15
411.283	1	4
411.454	1	28
411.625	1	10
411.795	1	8
411.966	1	10
412.137	1	8
412.307	1	17
412.478	1	11
412.649	1	7
412.819	1	14
412.990	1	11
413.161	1	6
413.332	1	6
413.502	1	8
413.673	1	13
413.844	1	3
414.014	1	7
414.185	1	5
414.356	1	6
414.526	1	8
414.697	1	13
414.868	1	15
415.038	1	2
415.209	1	1
415.380	1	13
415.550	1	8
415.721	1	14
415.892	1	3
416.063	1	21
416.233	1	12
416.404	1	12
416.575	1	8
416.745	1	0
416.916	1	4
417.087	1	9
417.257	1	18
417.428	1	-1
417.599	1	11
417.769	1	21
417.940	1	10
418.111	1	6
418.281	1	17
418.452	1	7
418.623	1	6
418.793	1	19
418.964	1	8
419.135	1	9
419.305	1	9
419.476	1	18
419.647	1	19
419.817	1	8
419.988	1	3
420.159	1	-3
420.329	1	14
420.500	1	3
420.671	1	12
420.841	1	16
421.012	1	8
421.183	1	18
421.353	1	14
421.524	1	11
421.695	1	3
421.865	1	17
422.036	1	3
422.206	1	18
422.377	1	21
422.548	1	4
422.718	1	13
422.889	1	16
423.060	1	5
423.230	1	16
423.401	1	9
423.572	1	2
423.742	1	3
423.913	1	16
424.084	1	13
424.254	1	5
424.425	1	8
424.595	1	1
424.766	1	20
424.937	1	6
425.107	1	9
425.278	1	5
425.449	1	16
425.619	1	8
425.790	1	2
425.961	1	6
426.131	1	11
426.302	1	11
426.472	1	5
426.643	1	16
426.814	1	12
426.984	1	16
427.155	1	1
427.326	1	20
427.496	1	9
427.667	1	13
427.837	1	-5
428.008	1	18
428.179	1	3
428.349	1	-2
428.520	1	4
428.691	1	13
428.861	1	20
429.032	1	-3
429.202	1	13
429.373	1	-5
429.544	1	10
429.714	1	13
429.885	1	9
430.055	1	14
430.226	1	10
430.397	1	-3
430.567	1	14
430.738	1	5
430.909	1	1
431.079	1	18
431.250	1	0
431.420	1	11
431.591	1	11
431.762	1	7
431.932	1	12
432.103	1	11
432.273	1	2
432.444	1	11
432.615	1	2
432.785	1	6
432.956	1	3
433.126	1	3
433.297	1	14
433.468	1	5
433.638	1	0
433.809	1	10
433.979	1	6
434.150	1	4
434.320	1	10
434.491	1	2
434.662	1	0
434.832	1	4
435.003	1	11
435.173	1	7
435.344	1	9
435.515	1	7
435.685	1	9
435.856	1	1
436.026	1	4
436.197	1	4
436.368	1	7
436.538	1	4
436.709	1	1
436.879	1	6
437.050	1	11
437.220	1	11
437.391	1	7
437.562	1	15
437.732	1	7
437.903	1	6
438.073	1	7
438.244	1	10
438.414	1	2
438.585	1	13
438.756	1	8
438.926	1	5
439.097	1	9
439.267	1	11
439.438	1	19
439.608	1	12
439.779	1	-4
439.949	1	0
440.120	1	10
440.291	1	-2
440.461	1	8
440.632	1	6
440.802	1	13
440.973	1	8
441.143	1	10
441.314	1	4
441.485	1	7
441.655	1	20
441.826	1	1
441.996	1	2
442.167	1	6
442.337	1	6
442.508	1	-1
442.678	1	-2
442.849	1	5
443.019	1	3
443.190	1	-2
443.361	1	16
443.531	1	3
443.702	1	5
443.872	1	4
444.043	1	3
444.213	1	1
444.384	1	2
444.554	1	3
444.725	1	7
444.895	1	4
445.066	1	-3
445.237	1	4
445.407	1	4
445.578	1	12
445.748	1	-3
445.919	1	2
446.089	1	9
446.260	1	1
446.430	1	7
446.601	1	-6
446.771	1	4
446.942	1	16
447.112	1	-2
447.283	1	0
447.453	1	-6
447.624	1	12
447.794	1	0
447.965	1	0
448.135	1	4
448.306	1	11
448.477	1	-2
448.647	1	7
448.818	1	1
448.988	1	-7
449.159	1	3
449.329	1	5
449.500	1	13
449.670	1	7
449.841	1	13
450.011	1	6
450.182	1	1
450.352	1	10
450.523	1	5
450.693	1	5
450.864	1	11
451.034	1	6
451.205	1	9
451.375	1	11
451.546	1	15
451.716	1	1
451.887	1	2
452.057	1	5
452.228	1	-3
452.398	1	5
452.569	1	-2
452.739	1	11
452.910	1	12
453.080	1	11
453.251	1	4
453.421	1	4
453.592	1	-5
453.762	1	9
453.933	1	11
454.103	1	4
454.274	1	6
454.444	1	1
454.615	1	11
454.785	1	3
454.956	1	3
455.126	1	8
455.297	1	14
455.467	1	13
455.638	1	5
455.808	1	0
455.979	1	7
456.149	1	-2
456.320	1	6
456.490	1	4
456.661	1	5
456.831	1	11
457.001	1	7
457.172	1	3
457.342	1	9
457.513	1	11
457.683	1	8
457.854	1	10
458.024	1	1
458.195	1	-6
458.365	1	5
458.536	1	6
458.706	1	9
458.877	1	6
459.047	1	-3
459.218	1	2
459.388	1	6
459.559	1	3
459.729	1	9
459.899	1	21
460.070	1	11
460.240	1	13
460.411	1	8
460.581	1	10
460.752	1	3
460.922	1	7
461.093	1	13
461.263	1	3
461.434	1	18
461.604	1	3
461.775	1	5
461.945	1	12
462.115	1	-1
462.286	1	15
462.456	1	7
462.627	1	9
462.797	1	-8
462.968	1	-4
463.138	1	9
463.309	1	0
463.479	1	14
463.649	1	11
463.820	1	-4
463.990	1	6
464.161	1	11
464.331	1	6
464.502	1	11
464.672	1	-2
464.843	1	9
465.013	1	-1
465.183	1	7
465.354	1	10
465.524	1	6
465.695	1	20
465.865	1	3
466.036	1	3
466.206	1	4
466.376	1	8
466.547	1	7
466.717	1	10
466.888	1	-4
467.058	1	18
467.229	1	5
467.399	1	10
467.569	1	12
467.740	1	2
467.910	1	1
468.081	1	14
468.251	1	3
468.422	1	8
468.592	1	9
468.762	1	-6
468.933	1	20
469.103	1	0
469.274	1	-1
469.444	1	3
469.614	1	0
469.785	1	3
469.955	1	4
470.126	1	2
470.296	1	7
470.467	1	5
470.637	1	16
470.807	1	-2
470.978	1	7
471.148	1	1
471.319	1	9
471.489	1	4
471.659	1	10
471.830	1	15
472.000	1	13
472.171	1	9
472.341	1	0
472.511	1	7
472.682	1	-5
472.852	1	-3
473.023	1	-5
473.193	1	-5
473.363	1	7
473.534	1	1
473.704	1	2
473.875	1	9
474.045	1	0
474.215	1	1
474.386	1	11
474.556	1	-2
474.727	1	0
474.897	1	2
475.067	1	17
475.238	1	0
475.408	1	2
475.578	1	-3
475.749	1	-1
475.919	1	2
476.090	1	-2
476.260	1	-3
476.430	1	7
476.601	1	13
476.771	1	-2
476.942	1	13
477.112	1	-3
477.282	1	-7
477.453	1	0
477.623	1	7
477.793	1	12
477.964	1	9
478.134	1	7
478.305	1	7
478.475	1	1
478.645	1	3
478.816	1	-5
478.986	1	2
479.156	1	2
479.327	1	-7
479.497	1	1
479.667	1	1
479.838	1	5
480.008	1	9
480.179	1	1
480.349	1	2
480.519	1	2
480.690	1	-4
480.860	1	3
481.030	1	3
481.201	1	5
481.371	1	0
481.541	1	13
481.712	1	10
481.882	1	-1
482.053	1	14
482.223	1	-8
482.393	1	-3
482.564	1	-1
482.734	1	8
482.904	1	10
483.075	1	6
483.245	1	4
483.415	1	6
483.586	1	-4
483.756	1	17
483.926	1	10
484.097	1	-6
484.267	1	3
484.437	1	-9
484.608	1	-3
484.778	1	11
484.948	1	-4
485.119	1	8
485.289	1	5
485.459	1	2
485.630	1	-1
485.800	1	-4
485.970	1	-1
486.141	1	0
486.311	1	-2
486.481	1	5
486.652	1	7
486.822	1	2
486.992	1	-2
487.163	1	-8
487.333	1	2
487.503	1	-10
487.674	1	8
487.844	1	5
488.014	1	2
488.185	1	-1
488.355	1	-2
488.525	1	-3
488.696	1	-2
488.866	1	14
489.036	1	-6
489.207	1	14
489.377	1	8
489.547	1	0
489.718	1	6
489.888	1	2
490.058	1	4
490.228	1	0
490.399	1	14
490.569	1	15
490.739	1	9
490.910	1	-7
491.080	1	-2
491.250	1	14
491.421	1	3
491.591	1	-6
491.761	1	6
491.932	1	12
492.102	1	1
492.272	1	11
492.442	1	16
492.613	1	12
492.783	1	-4
492.953	1	9
493.124	1	5
493.294	1	12
493.464	1	-3
493.635	1	-1
493.805	1	19
493.975	1	9
494.145	1	10
494.316	1	15
494.486	1	9
494.656	1	3
494.827	1	5
494.997	1	-3
495.167	1	18
495.337	1	10
495.508	1	-1
495.678	1	19
495.848	1	12
496.019	1	5
496.189	1	3
496.359	1	9
496.529	1	3
496.700	1	9
496.870	1	-1
497.040	1	7
497.211	1	13
497.381	1	-19
497.551	1	14
497.721	1	-3
497.892	1	15
498.062	1	4
498.232	1	13
498.403	1	9
498.573	1	6
498.743	1	6
498.913	1	18
499.084	1	2
499.254	1	4
499.424	1	3
499.594	1	12
499.765	1	1
499.935	1	-6
500.105	1	13
500.275	1	8
500.446	1	14
500.616	1	8
500.786	1	12
500.956	1	10
501.127	1	20
501.297	1	7
501.467	1	1
501.638	1	4
501.808	1	-6
501.978	1	15
502.148	1	10
502.319	1	10
502.489	1	15
502.659	1	9
502.829	1	8
503.000	1	18
503.170	1	10
503.340	1	10
503.510	1	6
503.681	1	14
503.851	1	-12
504.021	1	23
504.191	1	9
504.362	1	9
504.532	1	2
504.702	1	17
504.872	1	-1
505.042	1	8
505.213	1	1
505.383	1	14
505.553	1	13
505.723	1	13
505.894	1	4
506.064	1	16
506.234	1	9
506.404	1	-3
506.575	1	6
506.745	1	-1
506.915	1	7
507.085	1	-5
507.256	1	-4
507.426	1	13
507.596	1	19
507.766	1	11
507.936	1	12
508.107	1	8
508.277	1	4
508.447	1	6
508.617	1	15
508.788	1	6
508.958	1	16
509.128	1	6
509.298	1	19
509.468	1	14
509.639	1	14
509.809	1	15
509.979	1	18
510.149	1	7
510.319	1	4
510.490	1	15
510.660	1	13
510.830	1	11
511.000	1	11
511.171	1	20
511.341	1	2
511.511	1	2
511.681	1	12
511.851	1	9
512.022	1	5
512.192	1	11
512.362	1	9
512.532	1	6
512.702	1	-1
512.873	1	18
513.043	1	7
513.213	1	17
513.383	1	1
513.553	1	0
513.724	1	13
513.894	1	2
514.064	1	6
514.234	1	8
514.404	1	5
514.575	1	14
514.745	1	9
514.915	1	22
515.085	1	7
515.255	1	11
515.425	1	6
515.596	1	5
515.766	1	11
515.936	1	15
516.106	1	6
516.276	1	11
516.447	1	10
516.617	1	15
516.787	1	6
516.957	1	13
517.127	1	5
517.297	1	10
517.468	1	8
517.638	1	19
517.808	1	9
517.978	1	9
518.148	1	8
518.319	1	4
518.489	1	9
518.659	1	4
518.829	1	5
518.999	1	3
519.169	1	17
519.340	1	9
519.510	1	16
519.680	1	7
519.850	1	-3
520.020	1	8
520.190	1	8
520.361	1	15
520.531	1	15
520.701	1	16
520.871	1	18
521.041	1	5
521.211	1	11
521.382	1	10
521.552	1	14
521.722	1	15
521.892	1	3
522.062	1	6
522.232	1	3
522.402	1	3
522.573	1	25
522.743	1	20
522.913	1	9
523.083	1	6
523.253	1	10
523.423	1	5
523.593	1	-4
523.764	1	9
523.934	1	11
524.104	1	4
524.274	1	7
524.444	1	15
524.614	1	14
524.784	1	17
524.955	1	7
525.125	1	13
525.295	1	2
525.465	1	9
525.635	1	23
525.805	1	8
525.975	1	10
526.146	1	12
526.316	1	13
526.486	1	8
526.656	1	24
526.826	1	9
526.996	1	16
527.166	1	9
527.337	1	15
527.507	1	0
527.677	1	19
527.847	1	-3
528.017	1	7
528.187	1	9
528.357	1	21
528.527	1	12
528.698	1	3
528.868	1	-1
529.038	1	10
529.208	1	15
529.378	1	10
529.548	1	18
529.718	1	11
529.888	1	11
530.058	1	5
530.229	1	11
530.399	1	28
530.569	1	23
530.739	1	9
530.909	1	21
531.079	1	23
531.249	1	-2
531.419	1	14
531.589	1	8
531.760	1	23
531.930	1	14
532.100	1	13
532.270	1	27
532.440	1	0
532.610	1	12
532.780	1	19
532.950	1	19
533.120	1	8
533.290	1	5
533.461	1	21
533.631	1	8
533.801	1	3
533.971	1	19
534.141	1	12
534.311	1	15
534.481	1	16
534.651	1	18
534.821	1	22
534.991	1	7
535.162	1	13
535.332	1	17
535.502	1	11
535.672	1	-3
535.842	1	5
536.012	1	24
536.182	1	14
536.352	1	11
536.522	1	17
536.692	1	12
536.862	1	19
537.032	1	15
537.203	1	11
537.373	1	-1
537.543	1	12
537.713	1	19
537.883	1	11
538.053	1	14
538.223	1	22
538.393	1	20
538.563	1	13
538.733	1	9
538.903	1	13
539.073	1	8
539.243	1	5
539.413	1	5
539.584	1	10
539.754	1	8
539.924	1	15
540.094	1	18
540.264	1	12
540.434	1	6
540.604	1	10
540.774	1	18
540.944	1	7
541.114	1	-1
541.284	1	7
541.454	1	14
541.624	1	12
541.794	1	7
541.964	1	11
542.134	1	15
542.305	1	3
542.475	1	7
542.645	1	5
542.815	1	19
542.985	1	5
543.155	1	12
543.325	1	11
543.495	1	11
543.665	1	14
543.835	1	7
544.005	1	6
544.175	1	12
544.345	1	5
544.515	1	8
544.685	1	17
544.855	1	16
545.025	1	-1
545.195	1	12
545.365	1	16
545.535	1	10
545.705	1	6
545.875	1	-1
546.045	1	17
546.216	1	22
546.386	1	17
546.556	1	-1
546.726	1	4
546.896	1	8
547.066	1	-2
547.236	1	3
547.406	1	20
547.576	1	18
547.746	1	19
547.916	1	16
548.086	1	4
548.256	1	23
548.426	1	6
548.596	1	9
548.766	1	8
548.936	1	1
549.106	1	15
549.276	1	15
549.446	1	6
549.616	1	7
549.786	1	11
549.956	1	18
550.126	1	8
550.296	1	7
550.466	1	14
550.636	1	7
550.806	1	16
550.976	1	16
551.146	1	3
551.316	1	-5
551.486	1	10
551.656	1	3
551.826	1	12
551.996	1	10
552.166	1	4
552.336	1	8
552.506	1	5
552.676	1	11
552.846	1	13
553.016	1	8
553.186	1	8
553.356	1	-7
553.526	1	11
553.696	1	12
553.866	1	18
554.036	1	10
554.206	1	14
554.376	1	5
554.546	1	9
554.716	1	6
554.886	1	10
555.056	1	12
555.226	1	3
555.396	1	3
555.566	1	15
555.736	1	10
555.906	1	12
556.076	1	12
556.246	1	8
556.416	1	13
556.586	1	12
556.756	1	7
556.926	1	7
557.096	1	7
557.266	1	15
557.436	1	11
557.606	1	4
557.776	1	12
557.946	1	17
558.116	1	12
558.286	1	15
558.456	1	7
558.626	1	11
558.796	1	8
558.966	1	0
559.136	1	14
559.306	1	1
559.476	1	-2
559.646	1	10
559.816	1	7
559.986	1	10
560.155	1	7
560.325	1	4
560.495	1	4
560.665	1	17
560.835	1	14
561.005	1	12
561.175	1	3
561.345	1	2
561.515	1	16
561.685	1	3
561.855	1	13
562.025	1	9
562.195	1	5
562.365	1	9
562.535	1	9
562.705	1	13
562.875	1	9
563.045	1	13
563.215	1	5
563.385	1	0
563.555	1	10
563.725	1	8
563.895	1	5
564.064	1	16
564.234	1	9
564.404	1	6
564.574	1	6
564.744	1	11
564.914	1	-12
565.084	1	-5
565.254	1	9
565.424	1	9
565.594	1	3
565.764	1	10
565.934	1	12
566.104	1	9
566.274	1	13
566.444	1	5
566.614	1	10
566.783	1	6
566.953	1	6
567.123	1	27
567.293	1	4
567.463	1	13
567.633	1	1
567.803	1	-2
567.973	1	3
568.143	1	-1
568.313	1	6
568.483	1	3
568.653	1	-1
568.823	1	6
568.993	1	6
569.162	1	20
569.332	1	0
569.502	1	3
569.672	1	-3
569.842	1	3
570.012	1	12
570.182	1	0
570.352	1	8
570.522	1	9
570.692	1	16
570.862	1	13
571.031	1	5
571.201	1	8
571.371	1	1
571.541	1	-3
571.711	1	9
571.881	1	11
572.051	1	13
572.221	1	6
572.391	1	14
572.561	1	1
572.731	1	3
572.900	1	15
573.070	1	5
573.240	1	-2
573.410	1	6
573.580	1	11
573.750	1	11
573.920	1	11
574.090	1	5
574.260	1	7
574.430	1	0
574.599	1	14
574.769	1	9
574.939	1	12
575.109	1	0
575.279	1	8
575.449	1	12
575.619	1	4
575.789	1	15
575.959	1	-2
576.128	1	9
576.298	1	1
576.468	1	0
576.638	1	9
576.808	1	-1
576.978	1	7
577.148	1	13
577.318	1	9
577.487	1	9
577.657	1	-6
577.827	1	10
577.997	1	0
578.167	1	12
578.337	1	9
578.507	1	0
578.677	1	6
578.846	1	0
579.016	1	22
579.186	1	-10
579.356	1	2
579.526	1	4
579.696	1	10
579.866	1	9
580.036	1	6
580.205	1	4
580.375	1	2
580.545	1	5
580.715	1	10
580.885	1	7
581.055	1	9
581.225	1	2
581.394	1	1
581.564	1	8
581.734	1	11
581.904	1	4
582.074	1	2
582.244	1	4
582.414	1	6
582.583	1	5
582.753	1	14
582.923	1	11
583.093	1	5
583.263	1	10
583.433	1	-9
583.603	1	7
583.772	1	7
583.942	1	9
584.112	1	10
584.282	1	11
584.452	1	10
584.622	1	11
584.791	1	5
584.961	1	7
585.131	1	-12
585.301	1	7
585.471	1	-1
585.641	1	17
585.811	1	5
585.980	1	-11
586.150	1	4
586.320	1	-6
586.490	1	4
586.660	1	10
586.830	1	-6
586.999	1	3
587.169	1	2
587.339	1	2
587.509	1	10
587.679	1	4
587.849	1	7
588.018	1	-2
588.188	1	0
588.358	1	15
588.528	1	10
588.698	1	10
588.867	1	-3
589.037	1	3
589.207	1	-1
589.377	1	8
589.547	1	-8
589.717	1	5
589.886	1	-1
590.056	1	2
590.226	1	9
590.396	1	16
590.566	1	2
590.735	1	6
590.905	1	7
591.075	1	2
591.245	1	0
591.415	1	-6
591.585	1	1
591.754	1	8
591.924	1	3
592.094	1	0
592.264	1	7
592.434	1	3
592.603	1	-9
592.773	1	-2
592.943	1	3
593.113	1	-6
593.283	1	2
593.452	1	-1
593.622	1	11
593.792	1	-2
593.962	1	6
594.132	1	-2
594.301	1	10
594.471	1	-1
594.641	1	3
594.811	1	14
594.981	1	-2
595.150	1	2
595.320	1	8
595.490	1	-6
595.660	1	0
595.829	1	0
595.999	1	1
596.169	1	9
596.339	1	2
596.509	1	8
596.678	1	14
596.848	1	7
597.018	1	7
597.188	1	5
597.358	1	8
597.527	1	-7
597.697	1	-6
597.867	1	7
598.037	1	1
598.206	1	-5
598.376	1	17
598.546	1	-6
598.716	1	-8
598.885	1	-1
599.055	1	0
599.225	1	-1
599.395	1	13
599.565	1	-2
599.734	1	5
599.904	1	0
600.074	1	10
600.244	1	25
600.413	1	7
600.583	1	-12
600.753	1	12
600.923	1	15
601.092	1	-5
601.262	1	5
601.432	1	-1
601.602	1	11
601.771	1	9
601.941	1	7
602.111	1	-2
602.281	1	4
602.451	1	-1
602.620	1	14
602.790	1	2
602.960	1	-2
603.130	1	7
603.299	1	18
603.469	1	10
603.639	1	3
603.809	1	6
603.978	1	7
604.148	1	14
604.318	1	5
604.487	1	13
604.657	1	5
604.827	1	-8
604.997	1	-1
605.166	1	1
605.336	1	-1
605.506	1	10
605.676	1	-3
605.845	1	8
606.015	1	11
606.185	1	9
606.355	1	10
606.524	1	-2
606.694	1	18
606.864	1	5
607.034	1	3
607.203	1	16
607.373	1	-3
607.543	1	-11
607.712	1	15
607.882	1	-6
608.052	1	-2
608.222	1	4
608.391	1	0
608.561	1	2
608.731	1	2
608.901	1	10
609.070	1	5
609.240	1	8
609.410	1	0
609.579	1	5
609.749	1	-3
609.919	1	-9
610.089	1	2
610.258	1	14
610.428	1	-5
610.598	1	11
610.767	1	1
610.937	1	8
611.107	1	10
611.277	1	-6
611.446	1	6
611.616	1	-1
611.786	1	9
611.955	1	4
612.125	1	7
612.295	1	9
612.465	1	-6
612.634	1	-2
612.804	1	17
612.974	1	2
613.143	1	0
613.313	1	8
613.483	1	7
613.652	1	3
613.822	1	4
613.992	1	6
614.162	1	2
614.331	1	2
614.501	1	9
614.671	1	2
614.840	1	7
615.010	1	10
615.180	1	2
615.349	1	14
615.519	1	9
615.689	1	0
615.858	1	2
616.028	1	2
616.198	1	0
616.368	1	-4
616.537	1	-3
616.707	1	11
616.877	1	2
617.046	1	10
617.216	1	6
617.386	1	-3
617.555	1	-1
617.725	1	5
617.895	1	-1
618.064	1	4
618.234	1	-1
618.404	1	9
618.573	1	7
618.743	1	2
618.913	1	2
619.082	1	4
619.252	1	8
619.422	1	8
619.591	1	14
619.761	1	0
619.931	1	12
620.100	1	13
620.270	1	0
620.440	1	9
620.609	1	9
620.779	1	2
620.949	1	-3
621.118	1	-4
621.288	1	8
621.458	1	9
621.627	1	1
621.797	1	5
621.967	1	3
622.136	1	13
622.306	1	4
622.476	1	5
622.645	1	8
622.815	1	4
622.985	1	5
623.154	1	10
623.324	1	9
623.494	1	8
623.663	1	3
623.833	1	7
624.002	1	0
624.172	1	19
624.342	1	0
624.511	1	12
624.681	1	2
624.851	1	-6
625.020	1	-2
625.190	1	7
625.360	1	1
625.529	1	5
625.699	1	0
625.869	1	8
626.038	1	-3
626.208	1	-2
626.377	1	13
626.547	1	9
626.717	1	7
626.886	1	-8
627.056	1	5
627.226	1	8
627.395	1	15
627.565	1	13
627.735	1	-3
627.904	1	4
628.074	1	10
628.243	1	1
628.413	1	2
628.583	1	6
628.752	1	14
628.922	1	3
629.091	1	17
629.261	1	12
629.431	1	-6
629.600	1	11
629.770	1	8
629.940	1	6
630.109	1	2
630.279	1	-5
630.448	1	0
630.618	1	2
630.788	1	4
630.957	1	3
631.127	1	12
631.297	1	-7
631.466	1	4
631.636	1	12
631.805	1	0
631.975	1	8
632.145	1	0
632.314	1	9
632.484	1	-4
632.653	1	-1
632.823	1	9
632.993	1	10
633.162	1	3
633.332	1	10
633.501	1	4
633.671	1	2
633.841	1	5
634.010	1	4
634.180	1	8
634.349	1	3
634.519	1	4
634.689	1	17
634.858	1	7
635.028	1	3
635.197	1	-3
635.367	1	8
635.537	1	2
635.706	1	4
635.876	1	9
636.045	1	2
636.215	1	5
636.384	1	11
636.554	1	15
636.724	1	5
636.893	1	7
637.063	1	12
637.232	1	7
637.402	1	13
637.572	1	-1
637.741	1	8
637.911	1	-3
638.080	1	8
638.250	1	1
638.419	1	11
638.589	1	15
638.759	1	-5
638.928	1	3
639.098	1	13
639.267	1	5
639.437	1	-2
639.606	1	17
639.776	1	-2
639.946	1	1
640.115	1	-10
640.285	1	6
640.454	1	9
640.624	1	7
640.793	1	7
640.963	1	0
641.132	1	12
641.302	1	7
641.472	1	-3
641.641	1	-5
641.811	1	1
641.980	1	10
642.150	1	2
642.319	1	8
642.489	1	5
642.659	1	-6
642.828	1	5
642.998	1	-3
643.167	1	10
643.337	1	3
643.506	1	-3
643.676	1	2
643.845	1	-2
644.015	1	6
644.184	1	11
644.354	1	6
644.524	1	2
644.693	1	6
644.863	1	0
645.032	1	4
645.202	1	6
645.371	1	-1
645.541	1	-7
645.710	1	2
645.880	1	1
646.049	1	17
646.219	1	7
646.388	1	-9
646.558	1	7
646.728	1	9
646.897	1	5
647.067	1	-1
647.236	1	6
647.406	1	-6
647.575	1	2
647.745	1	15
647.914	1	-1
648.084	1	8
648.253	1	3
648.423	1	0
648.592	1	4
648.762	1	-1
648.931	1	11
649.101	1	-7
649.270	1	19
649.440	1	8
649.610	1	14
649.779	1	2
649.949	1	9
650.118	1	-6
650.288	1	-1
650.457	1	7
650.627	1	4
650.796	1	4
650.966	1	-2
651.135	1	8
651.305	1	4
651.474	1	13
651.644	1	1
651.813	1	6
651.983	1	6
652.152	1	-2
652.322	1	10
652.491	1	11
652.661	1	2
652.830	1	13
653.000	1	1
653.169	1	-3
653.339	1	4
653.508	1	9
653.678	1	14
653.847	1	-2
654.017	1	0
654.186	1	1
654.356	1	7
654.525	1	8
654.695	1	5
654.864	1	14
655.034	1	4
655.203	1	2
655.373	1	13
655.542	1	2
655.712	1	0
655.881	1	4
656.051	1	2
656.220	1	5
656.390	1	-4
656.559	1	7
656.729	1	-1
656.898	1	9
657.068	1	3
657.237	1	7
657.406	1	8
657.576	1	0
657.745	1	5
657.915	1	14
658.084	1	4
658.254	1	12
658.423	1	2
658.593	1	-10
658.762	1	-1
658.932	1	-4
659.101	1	5
659.271	1	14
659.440	1	17
659.610	1	4
659.779	1	-3
659.949	1	-5
660.118	1	12
660.288	1	-6
660.457	1	-12
660.626	1	-1
660.796	1	-4
660.965	1	0
661.135	1	8
661.304	1	3
661.474	1	2
661.643	1	7
661.813	1	11
661.982	1	1
662.152	1	7
662.321	1	-1
662.491	1	8
662.660	1	8
662.829	1	-2
662.999	1	3
663.168	1	-2
663.338	1	0
663.507	1	4
663.677	1	1
663.846	1	8
664.016	1	-3
664.185	1	6
664.354	1	5
664.524	1	-3
664.693	1	4
664.863	1	6
665.032	1	4
665.202	1	-9
665.371	1	1
665.541	1	-4
665.710	1	-4
665.879	1	4
666.049	1	-1
666.218	1	3
666.388	1	-9
666.557	1	2
666.727	1	-16
666.896	1	-1
667.065	1	9
667.235	1	-1
667.404	1	-4
667.574	1	6
667.743	1	-3
667.913	1	8
668.082	1	2
668.251	1	3
668.421	1	6
668.590	1	-13
668.760	1	11
668.929	1	21
669.099	1	-5
669.268	1	5
669.437	1	14
669.607	1	-9
669.776	1	5
669.946	1	11
670.115	1	-4
670.285	1	5
670.454	1	8
670.623	1	0
670.793	1	2
670.962	1	4
671.132	1	4
671.301	1	7
671.470	1	2
671.640	1	-7
671.809	1	5
671.979	1	7
672.148	1	5
672.317	1	2
672.487	1	-7
672.656	1	9
672.826	1	-7
672.995	1	-1
673.164	1	15
673.334	1	14
673.503	1	4
673.673	1	10
673.842	1	1
674.011	1	9
674.181	1	4
674.350	1	3
674.520	1	4
674.689	1	3
674.858	1	4
675.028	1	13
675.197	1	-1
675.367	1	8
675.536	1	8
675.705	1	-7
675.875	1	7
676.044	1	-1
676.214	1	-4
676.383	1	3
676.552	1	1
676.722	1	8
676.891	1	-8
677.060	1	1
677.230	1	13
677.399	1	1
677.569	1	0
677.738	1	3
677.907	1	-7
678.077	1	4
678.246	1	1
678.416	1	11
678.585	1	15
678.754	1	1
678.924	1	-2
679.093	1	6
679.262	1	1
679.432	1	10
679.601	1	-1
679.771	1	3
679.940	1	-1
680.109	1	8
680.279	1	-5
680.448	1	-8
680.617	1	1
680.787	1	6
680.956	1	-7
681.125	1	8
681.295	1	8
681.464	1	4
681.634	1	9
681.803	1	-3
681.972	1	-5
682.142	1	8
682.311	1	-2
682.480	1	6
682.650	1	-4
682.819	1	10
682.988	1	2
683.158	1	5
683.327	1	6
683.496	1	-7
683.666	1	8
683.835	1	2
684.004	1	-1
684.174	1	7
684.343	1	-8
684.512	1	-1
684.682	1	6
684.851	1	-1
685.021	1	6
685.190	1	8
685.359	1	-5
685.529	1	-2
685.698	1	10
685.867	1	-4
686.037	1	2
686.206	1	7
686.375	1	5
686.545	1	2
686.714	1	-1
686.883	1	0
687.053	1	3
687.222	1	-1
687.391	1	2
687.561	1	-1
687.730	1	4
687.899	1	3
688.069	1	-5
688.238	1	2
688.407	1	13
688.577	1	-7
688.746	1	-3
