340.368	1	-2
340.539	1	3
340.710	1	-4
340.881	1	8
341.052	1	-1
341.223	1	6
341.394	1	1
341.565	1	-3
341.737	1	11
341.908	1	-3
342.079	1	-1
342.250	1	-9
342.421	1	-3
342.592	1	-8
342.763	1	0
342.934	1	-1
343.105	1	10
343.276	1	-9
343.447	1	5
343.618	1	4
343.789	1	3
343.960	1	-6
344.131	1	5
344.302	1	2
344.473	1	1
344.644	1	-5
344.815	1	-1
344.986	1	4
345.157	1	8
345.328	1	-3
345.499	1	3
345.670	1	2
345.841	1	3
346.012	1	15
346.183	1	3
346.354	1	-2
346.526	1	6
346.697	1	-5
346.868	1	3
347.039	1	-3
347.210	1	-1
347.381	1	-1
347.552	1	3
347.723	1	2
347.894	1	8
348.065	1	-6
348.236	1	4
348.407	1	-4
348.578	1	9
348.749	1	10
348.920	1	3
349.091	1	5
349.262	1	-3
349.433	1	-3
349.604	1	14
349.775	1	4
349.946	1	5
350.117	1	2
350.288	1	9
350.459	1	5
350.630	1	3
350.801	1	3
350.972	1	-4
351.143	1	-8
351.314	1	1
351.485	1	-11
351.656	1	7
351.827	1	1
351.998	1	-6
352.169	1	11
352.340	1	-2
352.511	1	-3
352.682	1	-5
352.853	1	-4
353.024	1	-6
353.195	1	9
353.366	1	3
353.537	1	0
353.708	1	2
353.879	1	3
354.050	1	5
354.221	1	-6
354.392	1	7
354.563	1	6
354.734	1	-2
354.905	1	4
355.076	1	3
355.247	1	-11
355.418	1	-1
355.589	1	1
355.760	1	3
355.931	1	-2
356.102	1	-10
356.273	1	5
356.444	1	1
356.615	1	0
356.785	1	20
356.956	1	0
357.127	1	-9
357.298	1	1
357.469	1	1
357.640	1	6
357.811	1	14
357.982	1	-8
358.153	1	-1
358.324	1	-2
358.495	1	0
358.666	1	0
358.837	1	1
359.008	1	-3
359.179	1	6
359.350	1	0
359.521	1	2
359.692	1	5
359.863	1	-6
360.034	1	-2
360.205	1	-7
360.376	1	9
360.547	1	-5
360.718	1	-6
360.889	1	8
361.060	1	9
361.231	1	1
361.401	1	8
361.572	1	-5
361.743	1	2
361.914	1	4
362.085	1	-7
362.256	1	9
362.427	1	-4
362.598	1	0
362.769	1	6
362.940	1	0
363.111	1	6
363.282	1	10
363.453	1	-3
363.624	1	3
363.795	1	-2
363.966	1	7
364.137	1	-1
364.308	1	5
364.478	1	5
364.649	1	-1
364.820	1	1
364.991	1	12
365.162	1	-4
365.333	1	8
365.504	1	-7
365.675	1	3
365.846	1	-3
366.017	1	2
366.188	1	6
366.359	1	-4
366.530	1	16
366.701	1	1
366.871	1	8
367.042	1	4
367.213	1	9
367.384	1	5
367.555	1	9
367.726	1	12
367.897	1	8
368.068	1	1
368.239	1	8
368.410	1	5
368.581	1	0
368.752	1	4
368.923	1	-13
369.093	1	-4
369.264	1	3
369.435	1	4
369.606	1	1
369.777	1	-12
369.948	1	9
370.119	1	-4
370.290	1	0
370.461	1	-2
370.632	1	7
370.803	1	3
370.973	1	0
371.144	1	13
371.315	1	4
371.486	1	14
371.657	1	5
371.828	1	0
371.999	1	0
372.170	1	10
372.341	1	0
372.512	1	0
372.682	1	-4
372.853	1	3
373.024	1	11
373.195	1	1
373.366	1	-3
373.537	1	1
373.708	1	2
373.879	1	9
374.050	1	7
374.220	1	-7
374.391	1	1
374.562	1	-5
374.733	1	14
374.904	1	4
375.075	1	11
375.246	1	2
375.417	1	1
375.588	1	7
375.758	1	-3
375.929	1	4
376.100	1	12
376.271	1	-8
376.442	1	3
376.613	1	7
376.784	1	3
376.955	1	-12
377.125	1	5
377.296	1	10
377.467	1	-6
377.638	1	-1
377.809	1	10
377.980	1	11
378.151	1	-1
378.321	1	6
378.492	1	-4
378.663	1	1
378.834	1	-2
379.005	1	3
379.176	1	5
379.347	1	8
379.518	1	-13
379.688	1	2
379.859	1	1
380.030	1	0
380.201	1	-9
380.372	1	2
380.543	1	2
380.714	1	5
380.884	1	2
381.055	1	2
381.226	1	0
381.397	1	2
381.568	1	4
381.739	1	9
381.910	1	1
382.080	1	-6
382.251	1	6
382.422	1	14
382.593	1	2
382.764	1	2
382.935	1	10
383.105	1	0
383.276	1	4
383.447	1	7
383.618	1	1
383.789	1	1
383.960	1	3
384.130	1	-6
384.301	1	5
384.472	1	-3
384.643	1	7
384.814	1	6
384.985	1	-6
385.156	1	14
385.326	1	11
385.497	1	12
385.668	1	6
385.839	1	3
386.010	1	8
386.180	1	12
386.351	1	2
386.522	1	9
386.693	1	4
386.864	1	-5
387.035	1	5
387.205	1	-6
387.376	1	13
387.547	1	-6
387.718	1	14
387.889	1	10
388.060	1	-1
388.230	1	1
388.401	1	14
388.572	1	9
388.743	1	1
388.914	1	5
389.084	1	10
389.255	1	11
389.426	1	7
389.597	1	3
389.768	1	5
389.939	1	16
390.109	1	6
390.280	1	6
390.451	1	15
390.622	1	-2
390.793	1	3
390.963	1	9
391.134	1	4
391.305	1	4
391.476	1	18
391.647	1	9
391.817	1	-2
391.988	1	-1
392.159	1	11
392.330	1	18
392.501	1	5
392.671	1	8
392.842	1	10
393.013	1	10
393.184	1	4
393.355	1	19
393.525	1	9
393.696	1	1
393.867	1	-3
394.038	1	3
394.208	1	7
394.379	1	-4
394.550	1	8
394.721	1	14
394.892	1	13
395.062	1	-8
395.233	1	7
395.404	1	12
395.575	1	-8
395.746	1	4
395.916	1	-7
396.087	1	1
396.258	1	0
396.429	1	8
396.599	1	10
396.770	1	0
396.941	1	6
397.112	1	2
397.283	1	5
397.453	1	-4
397.624	1	7
397.795	1	7
397.966	1	15
398.136	1	6
398.307	1	5
398.478	1	2
398.649	1	8
398.819	1	11
398.990	1	9
399.161	1	6
399.332	1	5
399.503	1	10
399.673	1	3
399.844	1	1
400.015	1	14
400.186	1	9
400.356	1	3
400.527	1	7
400.698	1	5
400.869	1	9
401.039	1	1
401.210	1	6
401.381	1	14
401.552	1	21
401.722	1	12
401.893	1	4
402.064	1	5
402.235	1	16
402.405	1	-4
402.576	1	13
402.747	1	1
402.918	1	-1
403.088	1	-2
403.259	1	-3
403.430	1	2
403.601	1	5
403.771	1	15
403.942	1	6
404.113	1	15
404.284	1	3
404.454	1	15
404.625	1	5
404.796	1	2
404.967	1	6
405.137	1	12
405.308	1	8
405.479	1	6
405.649	1	3
405.820	1	6
405.991	1	9
406.162	1	-5
406.332	1	0
406.503	1	6
406.674	1	4
406.845	1	10
407.015	1	-5
407.186	1	15
407.357	1	1
407.527	1	2
407.698	1	-1
407.869	1	-9
408.040	1	-6
408.210	1	-7
408.381	1	2
408.552	1	0
408.722	1	7
408.893	1	4
409.064	1	2
409.235	1	2
409.405	1	-1
409.576	1	4
409.747	1	-3
409.917	1	-1
410.088	1	7
410.259	1	12
410.430	1	7
410.600	1	5
410.771	1	3
410.942	1	7
411.112	1	10
411.283	1	-10
411.454	1	5
411.625	1	-3
411.795	1	9
411.966	1	2
412.137	1	11
412.307	1	-5
412.478	1	3
412.649	1	8
412.819	1	-6
412.990	1	7
413.161	1	5
413.332	1	2
413.502	1	3
413.673	1	5
413.844	1	-4
414.014	1	-11
414.185	1	-4
414.356	1	-9
414.526	1	3
414.697	1	13
414.868	1	14
415.038	1	1
415.209	1	-5
415.380	1	1
415.550	1	0
415.721	1	-3
415.892	1	-2
416.063	1	4
416.233	1	-1
416.404	1	0
416.575	1	7
416.745	1	-6
416.916	1	1
417.087	1	-6
417.257	1	5
417.428	1	-11
417.599	1	3
417.769	1	8
417.940	1	-3
418.111	1	-1
418.281	1	5
418.452	1	-6
418.623	1	8
418.793	1	11
418.964	1	-1
419.135	1	9
419.305	1	-4
419.476	1	-2
419.647	1	2
419.817	1	3
419.988	1	2
420.159	1	-10
420.329	1	10
420.500	1	10
420.671	1	5
420.841	1	10
421.012	1	-1
421.183	1	14
421.353	1	7
421.524	1	3
421.695	1	-1
421.865	1	3
422.036	1	-1
422.206	1	2
422.377	1	9
422.548	1	5
422.718	1	4
422.889	1	8
423.060	1	12
423.230	1	5
423.401	1	5
423.572	1	-3
423.742	1	-7
423.913	1	9
424.084	1	1
424.254	1	1
424.425	1	0
424.595	1	-9
424.766	1	3
424.937	1	-7
425.107	1	3
425.278	1	-6
425.449	1	3
425.619	1	-11
425.790	1	0
425.961	1	9
426.131	1	0
426.302	1	-1
426.472	1	-5
426.643	1	-3
426.814	1	18
426.984	1	-1
427.155	1	1
427.326	1	8
427.496	1	7
427.667	1	7
427.837	1	-2
428.008	1	2
428.179	1	-1
428.349	1	-4
428.520	1	-9
428.691	1	3
428.861	1	5
429.032	1	3
429.202	1	9
429.373	1	-5
429.544	1	0
429.714	1	12
429.885	1	-1
430.055	1	1
430.226	1	4
430.397	1	-1
430.567	1	12
430.738	1	11
430.909	1	-12
431.079	1	10
431.250	1	-15
431.420	1	5
431.591	1	4
431.762	1	7
431.932	1	9
432.103	1	8
432.273	1	0
432.444	1	5
432.615	1	0
432.785	1	-5
432.956	1	-11
433.126	1	3
433.297	1	8
433.468	1	-4
433.638	1	1
433.809	1	7
433.979	1	-1
434.150	1	-7
434.320	1	5
434.491	1	1
434.662	1	-1
434.832	1	-3
435.003	1	3
435.173	1	0
435.344	1	1
435.515	1	-4
435.685	1	7
435.856	1	-4
436.026	1	4
436.197	1	-4
436.368	1	-4
436.538	1	12
436.709	1	-12
436.879	1	5
437.050	1	6
437.220	1	6
437.391	1	-2
437.562	1	15
437.732	1	-4
437.903	1	-1
438.073	1	7
438.244	1	-1
438.414	1	0
438.585	1	8
438.756	1	2
438.926	1	6
439.097	1	3
439.267	1	7
439.438	1	13
439.608	1	6
439.779	1	-3
439.949	1	-1
440.120	1	4
440.291	1	-11
440.461	1	-10
440.632	1	-2
440.802	1	4
440.973	1	3
441.143	1	10
441.314	1	-1
441.485	1	-4
441.655	1	22
441.826	1	-8
441.996	1	3
442.167	1	-4
442.337	1	-6
442.508	1	6
442.678	1	-5
442.849	1	4
443.019	1	2
443.190	1	-8
443.361	1	3
443.531	1	0
443.702	1	-10
443.872	1	-1
444.043	1	3
444.213	1	-1
444.384	1	4
444.554	1	1
444.725	1	1
444.895	1	0
445.066	1	-4
445.237	1	-12
445.407	1	1
445.578	1	1
445.748	1	-2
445.919	1	3
446.089	1	12
446.260	1	7
446.430	1	-10
446.601	1	-6
446.771	1	6
446.942	1	6
447.112	1	-7
447.283	1	-5
447.453	1	-5
447.624	1	8
447.794	1	-2
447.965	1	-13
448.135	1	14
448.306	1	4
448.477	1	-4
448.647	1	11
448.818	1	10
448.988	1	-8
449.159	1	-3
449.329	1	-3
449.500	1	18
449.670	1	3
449.841	1	-9
450.011	1	-3
450.182	1	-7
450.352	1	9
450.523	1	-2
450.693	1	4
450.864	1	2
451.034	1	9
451.205	1	-1
451.375	1	14
451.546	1	2
451.716	1	-2
451.887	1	-8
452.057	1	3
452.228	1	-13
452.398	1	8
452.569	1	-1
452.739	1	5
452.910	1	0
453.080	1	6
453.251	1	3
453.421	1	3
453.592	1	-7
453.762	1	11
453.933	1	10
454.103	1	2
454.274	1	3
454.444	1	11
454.615	1	17
454.785	1	-6
454.956	1	6
455.126	1	2
455.297	1	-2
455.467	1	2
455.638	1	15
455.808	1	-2
455.979	1	3
456.149	1	2
456.320	1	-1
456.490	1	3
456.661	1	-10
456.831	1	12
457.001	1	4
457.172	1	5
457.342	1	11
457.513	1	9
457.683	1	-3
457.854	1	-2
458.024	1	1
458.195	1	-1
458.365	1	1
458.536	1	-1
458.706	1	5
458.877	1	-9
459.047	1	3
459.218	1	5
459.388	1	-5
459.559	1	3
459.729	1	4
459.899	1	5
460.070	1	10
460.240	1	-2
460.411	1	5
460.581	1	12
460.752	1	9
460.922	1	-2
461.093	1	8
461.263	1	3
461.434	1	7
461.604	1	-2
461.775	1	-3
461.945	1	5
462.115	1	-6
462.286	1	10
462.456	1	-8
462.627	1	6
462.797	1	-4
462.968	1	-8
463.138	1	8
463.309	1	-6
463.479	1	10
463.649	1	-1
463.820	1	5
463.990	1	10
464.161	1	3
464.331	1	2
464.502	1	6
464.672	1	4
464.843	1	7
465.013	1	-1
465.183	1	-4
465.354	1	4
465.524	1	11
465.695	1	15
465.865	1	-4
466.036	1	16
466.206	1	4
466.376	1	-6
466.547	1	1
466.717	1	0
466.888	1	2
467.058	1	6
467.229	1	10
467.399	1	4
467.569	1	-1
467.740	1	-1
467.910	1	3
468.081	1	2
468.251	1	0
468.422	1	2
468.592	1	9
468.762	1	-1
468.933	1	-2
469.103	1	-6
469.274	1	4
469.444	1	-6
469.614	1	-10
469.785	1	6
469.955	1	-4
470.126	1	5
470.296	1	-2
470.467	1	4
470.637	1	18
470.807	1	-2
470.978	1	3
471.148	1	6
471.319	1	3
471.489	1	2
471.659	1	9
471.830	1	10
472.000	1	7
472.171	1	6
472.341	1	0
472.511	1	10
472.682	1	2
472.852	1	-5
473.023	1	3
473.193	1	-2
473.363	1	1
473.534	1	-8
473.704	1	11
473.875	1	2
474.045	1	-6
474.215	1	-2
474.386	1	7
474.556	1	-7
474.727	1	3
474.897	1	-1
475.067	1	6
475.238	1	0
475.408	1	1
475.578	1	-1
475.749	1	1
475.919	1	2
476.090	1	-3
476.260	1	1
476.430	1	-3
476.601	1	-1
476.771	1	8
476.942	1	2
477.112	1	2
477.282	1	-10
477.453	1	7
477.623	1	0
477.793	1	2
477.964	1	2
478.134	1	4
478.305	1	1
478.475	1	2
478.645	1	-3
478.816	1	-4
478.986	1	7
479.156	1	7
479.327	1	-8
479.497	1	-2
479.667	1	-3
479.838	1	2
480.008	1	1
480.179	1	4
480.349	1	-8
480.519	1	1
480.690	1	6
480.860	1	-6
481.030	1	3
481.201	1	0
481.371	1	-4
481.541	1	0
481.712	1	4
481.882	1	-3
482.053	1	4
482.223	1	-3
482.393	1	-4
482.564	1	-8
482.734	1	2
482.904	1	3
483.075	1	-1
483.245	1	2
483.415	1	-1
483.586	1	1
483.756	1	2
483.926	1	6
484.097	1	-1
484.267	1	4
484.437	1	-22
484.608	1	10
484.778	1	-2
484.948	1	-4
485.119	1	12
485.289	1	5
485.459	1	0
485.630	1	-4
485.800	1	-3
485.970	1	-2
486.141	1	-9
486.311	1	-1
486.481	1	2
486.652	1	8
486.822	1	1
486.992	1	-7
487.163	1	-1
487.333	1	2
487.503	1	-10
487.674	1	-4
487.844	1	1
488.014	1	6
488.185	1	-7
488.355	1	-5
488.525	1	5
488.696	1	-5
488.866	1	4
489.036	1	-3
489.207	1	9
489.377	1	8
489.547	1	-4
489.718	1	-4
489.888	1	-5
490.058	1	8
490.228	1	-14
490.399	1	5
490.569	1	10
490.739	1	4
490.910	1	-5
491.080	1	-1
491.250	1	1
491.421	1	-1
491.591	1	-10
491.761	1	4
491.932	1	3
492.102	1	-4
492.272	1	9
492.442	1	0
492.613	1	10
492.783	1	-2
492.953	1	-1
493.124	1	-10
493.294	1	9
493.464	1	-6
493.635	1	-2
493.805	1	10
493.975	1	-6
494.145	1	10
494.316	1	4
494.486	1	2
494.656	1	0
494.827	1	-6
494.997	1	-9
495.167	1	0
495.337	1	13
495.508	1	4
495.678	1	0
495.848	1	13
496.019	1	-4
496.189	1	3
496.359	1	1
496.529	1	-8
496.700	1	1
496.870	1	-3
497.040	1	3
497.211	1	17
497.381	1	-18
497.551	1	22
497.721	1	-4
497.892	1	1
498.062	1	-3
498.232	1	3
498.403	1	7
498.573	1	-5
498.743	1	7
498.913	1	7
499.084	1	-3
499.254	1	6
499.424	1	9
499.594	1	-5
499.765	1	1
499.935	1	-15
500.105	1	10
500.275	1	0
500.446	1	17
500.616	1	4
500.786	1	4
500.956	1	-1
501.127	1	13
501.297	1	0
501.467	1	3
501.638	1	11
501.808	1	-18
501.978	1	5
502.148	1	3
502.319	1	0
502.489	1	5
502.659	1	-14
502.829	1	4
503.000	1	18
503.170	1	-1
503.340	1	-5
503.510	1	2
503.681	1	2
503.851	1	-10
504.021	1	24
504.191	1	8
504.362	1	5
504.532	1	-8
504.702	1	13
504.872	1	-6
505.042	1	6
505.213	1	1
505.383	1	-3
505.553	1	14
505.723	1	1
505.894	1	10
506.064	1	7
506.234	1	4
506.404	1	-11
506.575	1	-2
506.745	1	7
506.915	1	3
507.085	1	-4
507.256	1	-1
507.426	1	7
507.596	1	11
507.766	1	4
507.936	1	8
508.107	1	-3
508.277	1	8
508.447	1	10
508.617	1	10
508.788	1	10
508.958	1	0
509.128	1	-8
509.298	1	16
509.468	1	6
509.639	1	15
509.809	1	3
509.979	1	0
510.149	1	6
510.319	1	-1
510.490	1	7
510.660	1	8
510.830	1	0
511.000	1	4
511.171	1	12
511.341	1	4
511.511	1	1
511.681	1	6
511.851	1	-8
512.022	1	2
512.192	1	12
512.362	1	-2
512.532	1	-1
512.702	1	-2
512.873	1	16
513.043	1	4
513.213	1	-5
513.383	1	6
513.553	1	-3
513.724	1	9
513.894	1	2
514.064	1	1
514.234	1	10
514.404	1	3
514.575	1	6
514.745	1	-5
514.915	1	3
515.085	1	10
515.255	1	-8
515.425	1	-6
515.596	1	-8
515.766	1	4
515.936	1	0
516.106	1	-1
516.276	1	10
516.447	1	3
516.617	1	0
516.787	1	-8
516.957	1	5
517.127	1	-2
517.297	1	4
517.468	1	3
517.638	1	6
517.808	1	6
517.978	1	-9
518.148	1	2
518.319	1	-12
518.489	1	12
518.659	1	1
518.829	1	3
518.999	1	-1
519.169	1	2
519.340	1	-4
519.510	1	7
519.680	1	-6
519.850	1	-6
520.020	1	-1
520.190	1	-2
520.361	1	-7
520.531	1	6
520.701	1	3
520.871	1	-6
521.041	1	10
521.211	1	-2
521.382	1	-2
521.552	1	0
521.722	1	7
521.892	1	-14
522.062	1	0
522.232	1	-7
522.402	1	-8
522.573	1	11
522.743	1	10
522.913	1	10
523.083	1	-4
523.253	1	-1
523.423	1	-2
523.593	1	-5
523.764	1	-3
523.934	1	4
524.104	1	6
524.274	1	-7
524.444	1	12
524.614	1	2
524.784	1	1
524.955	1	1
525.125	1	5
525.295	1	-10
525.465	1	4
525.635	1	11
525.805	1	-2
525.975	1	5
526.146	1	11
526.316	1	-3
526.486	1	5
526.656	1	17
526.826	1	3
526.996	1	11
527.166	1	10
527.337	1	-6
527.507	1	1
527.677	1	16
527.847	1	2
528.017	1	1
528.187	1	4
528.357	1	12
528.527	1	9
528.698	1	8
528.868	1	2
529.038	1	11
529.208	1	4
529.378	1	3
529.548	1	-2
529.718	1	1
529.888	1	3
530.058	1	0
530.229	1	-1
530.399	1	14
530.569	1	9
530.739	1	7
530.909	1	-2
531.079	1	14
531.249	1	-2
531.419	1	11
531.589	1	-9
531.760	1	2
531.930	1	0
532.100	1	2
532.270	1	12
532.440	1	2
532.610	1	4
532.780	1	0
532.950	1	5
533.120	1	-3
533.290	1	-4
533.461	1	19
533.631	1	-7
533.801	1	1
533.971	1	12
534.141	1	15
534.311	1	-2
534.481	1	4
534.651	1	8
534.821	1	6
534.991	1	6
535.162	1	9
535.332	1	-1
535.502	1	12
535.672	1	-1
535.842	1	9
536.012	1	7
536.182	1	8
536.352	1	1
536.522	1	15
536.692	1	9
536.862	1	5
537.032	1	9
537.203	1	14
537.373	1	0
537.543	1	8
537.713	1	16
537.883	1	6
538.053	1	5
538.223	1	14
538.393	1	3
538.563	1	-6
538.733	1	7
538.903	1	4
539.073	1	8
539.243	1	3
539.413	1	1
539.584	1	4
539.754	1	-4
539.924	1	-1
540.094	1	4
540.264	1	5
540.434	1	-4
540.604	1	16
540.774	1	1
540.944	1	-5
541.114	1	-1
541.284	1	-4
541.454	1	2
541.624	1	6
541.794	1	-7
541.964	1	2
542.134	1	9
542.305	1	-6
542.475	1	-7
542.645	1	4
542.815	1	17
542.985	1	-9
543.155	1	11
543.325	1	-6
543.495	1	6
543.665	1	9
543.835	1	-6
544.005	1	-4
544.175	1	6
544.345	1	-9
544.515	1	-2
544.685	1	15
544.855	1	8
545.025	1	-4
545.195	1	-1
545.365	1	8
545.535	1	10
545.705	1	4
545.875	1	-4
546.045	1	8
546.216	1	0
546.386	1	-7
546.556	1	0
546.726	1	4
546.896	1	2
547.066	1	-8
547.236	1	-2
547.406	1	15
547.576	1	4
547.746	1	16
547.916	1	9
548.086	1	13
548.256	1	0
548.426	1	-5
548.596	1	0
548.766	1	4
548.936	1	1
549.106	1	8
549.276	1	2
549.446	1	3
549.616	1	12
549.786	1	-2
549.956	1	14
550.126	1	-2
550.296	1	6
550.466	1	-1
550.636	1	1
550.806	1	11
550.976	1	6
551.146	1	-4
551.316	1	5
551.486	1	2
551.656	1	-12
551.826	1	10
551.996	1	7
552.166	1	1
552.336	1	9
552.506	1	-2
552.676	1	-4
552.846	1	4
553.016	1	5
553.186	1	6
553.356	1	-8
553.526	1	-1
553.696	1	12
553.866	1	7
554.036	1	12
554.206	1	2
554.376	1	1
554.546	1	-11
554.716	1	3
554.886	1	5
555.056	1	9
555.226	1	-11
555.396	1	0
555.566	1	-3
555.736	1	3
555.906	1	1
556.076	1	7
556.246	1	4
556.416	1	2
556.586	1	9
556.756	1	7
556.926	1	15
557.096	1	-3
557.266	1	7
557.436	1	9
557.606	1	-9
557.776	1	1
557.946	1	11
558.116	1	5
558.286	1	4
558.456	1	-5
558.626	1	11
558.796	1	6
558.966	1	5
559.136	1	1
559.306	1	-3
559.476	1	3
559.646	1	-4
559.816	1	10
559.986	1	-6
560.155	1	2
560.325	1	1
560.495	1	1
560.665	1	9
560.835	1	10
561.005	1	5
561.175	1	5
561.345	1	-3
561.515	1	-2
561.685	1	-3
561.855	1	7
562.025	1	-3
562.195	1	1
562.365	1	1
562.535	1	5
562.705	1	5
562.875	1	-3
563.045	1	5
563.215	1	0
563.385	1	-7
563.555	1	18
563.725	1	1
563.895	1	6
564.064	1	12
564.234	1	0
564.404	1	4
564.574	1	3
564.744	1	0
564.914	1	-14
565.084	1	0
565.254	1	-3
565.424	1	1
565.594	1	-1
565.764	1	9
565.934	1	14
566.104	1	-4
566.274	1	0
566.444	1	6
566.614	1	7
566.783	1	-5
566.953	1	-7
567.123	1	15
567.293	1	4
567.463	1	9
567.633	1	1
567.803	1	6
567.973	1	-3
568.143	1	-9
568.313	1	-2
568.483	1	-7
568.653	1	-2
568.823	1	7
568.993	1	-1
569.162	1	22
569.332	1	0
569.502	1	1
569.672	1	9
569.842	1	2
570.012	1	6
570.182	1	-10
570.352	1	9
570.522	1	8
570.692	1	4
570.862	1	-4
571.031	1	0
571.201	1	25
571.371	1	-9
571.541	1	1
571.711	1	2
571.881	1	4
572.051	1	0
572.221	1	2
572.391	1	-7
572.561	1	-8
572.731	1	-4
572.900	1	18
573.070	1	0
573.240	1	-2
573.410	1	-1
573.580	1	4
573.750	1	12
573.920	1	-1
574.090	1	6
574.260	1	1
574.430	1	-8
574.599	1	-1
574.769	1	-3
574.939	1	-2
575.109	1	0
575.279	1	2
575.449	1	5
575.619	1	3
575.789	1	5
575.959	1	0
576.128	1	-3
576.298	1	-2
576.468	1	-3
576.638	1	-1
576.808	1	-5
576.978	1	10
577.148	1	6
577.318	1	7
577.487	1	7
577.657	1	-13
577.827	1	8
577.997	1	-8
578.167	1	3
578.337	1	5
578.507	1	2
578.677	1	2
578.846	1	-6
579.016	1	8
579.186	1	-2
579.356	1	-7
579.526	1	3
579.696	1	5
579.866	1	8
580.036	1	6
580.205	1	3
580.375	1	4
580.545	1	5
580.715	1	12
580.885	1	-4
581.055	1	-1
581.225	1	-5
581.394	1	-13
581.564	1	-1
581.734	1	14
581.904	1	4
582.074	1	6
582.244	1	1
582.414	1	-1
582.583	1	-2
582.753	1	-4
582.923	1	5
583.093	1	-3
583.263	1	-4
583.433	1	-2
583.603	1	5
583.772	1	3
583.942	1	16
584.112	1	3
584.282	1	14
584.452	1	-10
584.622	1	6
584.791	1	2
584.961	1	-1
585.131	1	-1
585.301	1	12
585.471	1	1
585.641	1	7
585.811	1	3
585.980	1	-10
586.150	1	-4
586.320	1	-6
586.490	1	-11
586.660	1	6
586.830	1	-13
586.999	1	5
587.169	1	1
587.339	1	-1
587.509	1	10
587.679	1	9
587.849	1	10
588.018	1	2
588.188	1	0
588.358	1	2
588.528	1	6
588.698	1	1
588.867	1	7
589.037	1	6
589.207	1	-7
589.377	1	12
589.547	1	-5
589.717	1	8
589.886	1	-7
590.056	1	1
590.226	1	5
590.396	1	4
590.566	1	2
590.735	1	17
590.905	1	15
591.075	1	-7
591.245	1	1
591.415	1	-1
591.585	1	-1
591.754	1	12
591.924	1	-2
592.094	1	9
592.264	1	-10
592.434	1	2
592.603	1	-3
592.773	1	2
592.943	1	-1
593.113	1	-10
593.283	1	-4
593.452	1	-4
593.622	1	-4
593.792	1	2
593.962	1	9
594.132	1	0
594.301	1	11
594.471	1	4
594.641	1	-7
594.811	1	-5
594.981	1	-6
595.150	1	2
595.320	1	8
595.490	1	-7
595.660	1	-9
595.829	1	6
595.999	1	7
596.169	1	-1
596.339	1	7
596.509	1	1
596.678	1	4
596.848	1	9
597.018	1	1
597.188	1	5
597.358	1	0
597.527	1	-4
597.697	1	-13
597.867	1	2
598.037	1	8
598.206	1	-9
598.376	1	5
598.546	1	2
598.716	1	-7
598.885	1	1
599.055	1	5
599.225	1	5
599.395	1	4
599.565	1	4
599.734	1	4
599.904	1	-4
600.074	1	5
600.244	1	4
600.413	1	2
600.583	1	2
600.753	1	-5
600.923	1	15
601.092	1	-7
601.262	1	11
601.432	1	0
601.602	1	13
601.771	1	10
601.941	1	-8
602.111	1	-5
602.281	1	-4
602.451	1	4
602.620	1	4
602.790	1	-5
602.960	1	7
603.130	1	1
603.299	1	0
603.469	1	-2
603.639	1	9
603.809	1	7
603.978	1	-4
604.148	1	1
604.318	1	0
604.487	1	6
604.657	1	0
604.827	1	-5
604.997	1	-2
605.166	1	0
605.336	1	-6
605.506	1	10
605.676	1	-7
605.845	1	2
606.015	1	2
606.185	1	-2
606.355	1	7
606.524	1	-1
606.694	1	11
606.864	1	-2
607.034	1	2
607.203	1	11
607.373	1	-2
607.543	1	0
607.712	1	9
607.882	1	-8
608.052	1	5
608.222	1	0
608.391	1	-2
608.561	1	12
608.731	1	-4
608.901	1	2
609.070	1	5
609.240	1	4
609.410	1	3
609.579	1	2
609.749	1	-2
609.919	1	-3
610.089	1	-10
610.258	1	10
610.428	1	-4
610.598	1	4
610.767	1	1
610.937	1	-5
611.107	1	12
611.277	1	-3
611.446	1	-1
611.616	1	-3
611.786	1	3
611.955	1	6
612.125	1	4
612.295	1	7
612.465	1	-2
612.634	1	2
612.804	1	3
612.974	1	5
613.143	1	5
613.313	1	0
613.483	1	2
613.652	1	0
613.822	1	11
613.992	1	4
614.162	1	-1
614.331	1	8
614.501	1	-4
614.671	1	4
614.840	1	5
615.010	1	4
615.180	1	3
615.349	1	1
615.519	1	8
615.689	1	9
615.858	1	1
616.028	1	0
616.198	1	8
616.368	1	-8
616.537	1	8
616.707	1	4
616.877	1	9
617.046	1	3
617.216	1	3
617.386	1	-3
617.555	1	-2
617.725	1	15
617.895	1	-4
618.064	1	3
618.234	1	0
618.404	1	0
618.573	1	-1
618.743	1	4
618.913	1	-4
619.082	1	8
619.252	1	14
619.422	1	-8
619.591	1	1
619.761	1	0
619.931	1	9
620.100	1	2
620.270	1	-3
620.440	1	12
620.609	1	-7
620.779	1	-8
620.949	1	5
621.118	1	-5
621.288	1	6
621.458	1	9
621.627	1	-7
621.797	1	9
621.967	1	4
622.136	1	9
622.306	1	8
622.476	1	-1
622.645	1	5
622.815	1	6
622.985	1	2
623.154	1	-3
623.324	1	0
623.494	1	3
623.663	1	5
623.833	1	6
624.002	1	3
624.172	1	3
624.342	1	-9
624.511	1	10
624.681	1	-3
624.851	1	-7
625.020	1	0
625.190	1	11
625.360	1	-3
625.529	1	8
625.699	1	-3
625.869	1	13
626.038	1	12
626.208	1	-6
626.377	1	12
626.547	1	1
626.717	1	-6
626.886	1	-6
627.056	1	-2
627.226	1	2
627.395	1	4
627.565	1	7
627.735	1	-4
627.904	1	2
628.074	1	5
628.243	1	-5
628.413	1	-4
628.583	1	0
628.752	1	14
628.922	1	-3
629.091	1	8
629.261	1	1
629.431	1	-13
629.600	1	8
629.770	1	8
629.940	1	-3
630.109	1	-2
630.279	1	1
630.448	1	-6
630.618	1	-6
630.788	1	5
630.957	1	-4
631.127	1	8
631.297	1	-1
631.466	1	6
631.636	1	0
631.805	1	8
631.975	1	4
632.145	1	-8
632.314	1	11
632.484	1	-8
632.653	1	-3
632.823	1	11
632.993	1	10
633.162	1	7
633.332	1	4
633.501	1	-4
633.671	1	-4
633.841	1	-5
634.010	1	-4
634.180	1	2
634.349	1	7
634.519	1	4
634.689	1	5
634.858	1	15
635.028	1	-1
635.197	1	-1
635.367	1	-1
635.537	1	3
635.706	1	-3
635.876	1	-5
636.045	1	-6
636.215	1	0
636.384	1	8
636.554	1	13
636.724	1	1
636.893	1	-1
637.063	1	11
637.232	1	0
637.402	1	-2
637.572	1	4
637.741	1	11
637.911	1	1
638.080	1	-1
638.250	1	1
638.419	1	14
638.589	1	12
638.759	1	1
638.928	1	-2
639.098	1	1
639.267	1	7
639.437	1	-2
639.606	1	16
639.776	1	-1
639.946	1	-1
640.115	1	1
640.285	1	1
640.454	1	13
640.624	1	4
640.793	1	4
640.963	1	-2
641.132	1	10
641.302	1	-2
641.472	1	2
641.641	1	-6
641.811	1	2
641.980	1	-4
642.150	1	-1
642.319	1	4
642.489	1	-8
642.659	1	-10
642.828	1	4
642.998	1	-6
643.167	1	12
643.337	1	4
643.506	1	-7
643.676	1	2
643.845	1	1
644.015	1	1
644.184	1	8
644.354	1	-7
644.524	1	-2
644.693	1	3
644.863	1	-3
645.032	1	1
645.202	1	0
645.371	1	-3
645.541	1	-6
645.710	1	3
645.880	1	4
646.049	1	9
646.219	1	8
646.388	1	0
646.558	1	8
646.728	1	7
646.897	1	5
647.067	1	2
647.236	1	5
647.406	1	6
647.575	1	14
647.745	1	10
647.914	1	4
648.084	1	0
648.253	1	4
648.423	1	-4
648.592	1	5
648.762	1	7
648.931	1	1
649.101	1	9
649.270	1	14
649.440	1	6
649.610	1	14
649.779	1	2
649.949	1	-9
650.118	1	-10
650.288	1	-1
650.457	1	-3
650.627	1	-6
650.796	1	2
650.966	1	-4
651.135	1	6
651.305	1	6
651.474	1	9
651.644	1	-6
651.813	1	14
651.983	1	9
652.152	1	0
652.322	1	8
652.491	1	4
652.661	1	7
652.830	1	12
653.000	1	2
653.169	1	5
653.339	1	11
653.508	1	-15
653.678	1	0
653.847	1	-2
654.017	1	-2
654.186	1	9
654.356	1	4
654.525	1	0
654.695	1	7
654.864	1	6
655.034	1	10
655.203	1	8
655.373	1	7
655.542	1	4
655.712	1	-2
655.881	1	-4
656.051	1	17
656.220	1	6
656.390	1	3
656.559	1	-10
656.729	1	9
656.898	1	8
657.068	1	3
657.237	1	12
657.406	1	3
657.576	1	-5
657.745	1	-11
657.915	1	13
658.084	1	12
658.254	1	9
658.423	1	0
658.593	1	-5
658.762	1	-12
658.932	1	-1
659.101	1	3
659.271	1	6
659.440	1	10
659.610	1	0
659.779	1	0
659.949	1	2
660.118	1	5
660.288	1	-5
660.457	1	0
660.626	1	-6
660.796	1	-7
660.965	1	6
661.135	1	0
661.304	1	2
661.474	1	4
661.643	1	2
661.813	1	-1
661.982	1	12
662.152	1	3
662.321	1	-2
662.491	1	-3
662.660	1	0
662.829	1	1
662.999	1	2
663.168	1	-4
663.338	1	-2
663.507	1	2
663.677	1	-15
663.846	1	7
664.016	1	2
664.185	1	3
664.354	1	17
664.524	1	0
664.693	1	3
664.863	1	-5
665.032	1	4
665.202	1	-9
665.371	1	10
665.541	1	-7
665.710	1	-7
665.879	1	0
666.049	1	3
666.218	1	-5
666.388	1	-4
666.557	1	14
666.727	1	-17
666.896	1	1
667.065	1	0
667.235	1	0
667.404	1	-1
667.574	1	2
667.743	1	2
667.913	1	1
668.082	1	-6
668.251	1	-3
668.421	1	2
668.590	1	3
668.760	1	-4
668.929	1	3
669.099	1	-5
669.268	1	-1
669.437	1	-2
669.607	1	-7
669.776	1	3
669.946	1	5
670.115	1	6
670.285	1	10
670.454	1	-11
670.623	1	6
670.793	1	-6
670.962	1	0
671.132	1	7
671.301	1	-5
671.470	1	-4
671.640	1	-12
671.809	1	2
671.979	1	13
672.148	1	12
672.317	1	-3
672.487	1	-4
672.656	1	2
672.826	1	-10
672.995	1	9
673.164	1	4
673.334	1	3
673.503	1	-1
673.673	1	7
673.842	1	4
674.011	1	7
674.181	1	-9
674.350	1	-1
674.520	1	-1
674.689	1	-2
674.858	1	3
675.028	1	4
675.197	1	-11
675.367	1	8
675.536	1	8
675.705	1	-10
675.875	1	5
676.044	1	-8
676.214	1	1
676.383	1	-3
676.552	1	-5
676.722	1	-5
676.891	1	-9
677.060	1	-1
677.230	1	14
677.399	1	8
677.569	1	-8
677.738	1	-7
677.907	1	-7
678.077	1	2
678.246	1	-7
678.416	1	5
678.585	1	6
678.754	1	-6
678.924	1	-3
679.093	1	6
679.262	1	1
679.432	1	1
679.601	1	-8
679.771	1	-7
679.940	1	0
680.109	1	13
680.279	1	-6
680.448	1	10
680.617	1	-5
680.787	1	3
680.956	1	-6
681.125	1	0
681.295	1	10
681.464	1	-1
681.634	1	6
681.803	1	-10
681.972	1	-7
682.142	1	18
682.311	1	-1
682.480	1	-4
682.650	1	3
682.819	1	6
682.988	1	1
683.158	1	8
683.327	1	6
683.496	1	-14
683.666	1	4
683.835	1	15
684.004	1	4
684.174	1	1
684.343	1	-6
684.512	1	0
684.682	1	-1
684.851	1	-3
685.021	1	7
685.190	1	12
685.359	1	-8
685.529	1	6
685.698	1	6
685.867	1	-4
686.037	1	-2
686.206	1	0
686.375	1	1
686.545	1	-1
686.714	1	-6
686.883	1	-7
687.053	1	6
687.222	1	-2
687.391	1	6
687.561	1	7
687.730	1	-3
687.899	1	1
688.069	1	-2
688.238	1	-8
688.407	1	13
688.577	1	-8
688.746	1	8
