340.368	1	-5
340.539	1	2
340.710	1	1
340.881	1	-6
341.052	1	3
341.223	1	5
341.394	1	7
341.565	1	2
341.737	1	9
341.908	1	11
342.079	1	0
342.250	1	-1
342.421	1	-2
342.592	1	-2
342.763	1	1
342.934	1	0
343.105	1	8
343.276	1	-3
343.447	1	3
343.618	1	8
343.789	1	-2
343.960	1	1
344.131	1	4
344.302	1	2
344.473	1	1
344.644	1	0
344.815	1	4
344.986	1	0
345.157	1	7
345.328	1	-4
345.499	1	3
345.670	1	8
345.841	1	10
346.012	1	13
346.183	1	0
346.354	1	-9
346.526	1	8
346.697	1	2
346.868	1	-4
347.039	1	2
347.210	1	6
347.381	1	-1
347.552	1	9
347.723	1	10
347.894	1	4
348.065	1	2
348.236	1	3
348.407	1	-9
348.578	1	7
348.749	1	-4
348.920	1	7
349.091	1	4
349.262	1	-6
349.433	1	-2
349.604	1	3
349.775	1	15
349.946	1	11
350.117	1	8
350.288	1	-6
350.459	1	4
350.630	1	-3
350.801	1	10
350.972	1	1
351.143	1	-2
351.314	1	5
351.485	1	-4
351.656	1	2
351.827	1	-3
351.998	1	-2
352.169	1	10
352.340	1	-3
352.511	1	1
352.682	1	-3
352.853	1	-5
353.024	1	5
353.195	1	-1
353.366	1	2
353.537	1	-4
353.708	1	-3
353.879	1	2
354.050	1	0
354.221	1	-3
354.392	1	4
354.563	1	7
354.734	1	3
354.905	1	9
355.076	1	7
355.247	1	-4
355.418	1	-3
355.589	1	3
355.760	1	-2
355.931	1	8
356.102	1	2
356.273	1	5
356.444	1	3
356.615	1	4
356.785	1	10
356.956	1	12
357.127	1	5
357.298	1	-2
357.469	1	6
357.640	1	3
357.811	1	9
357.982	1	-4
358.153	1	10
358.324	1	-2
358.495	1	4
358.666	1	3
358.837	1	-3
359.008	1	5
359.179	1	7
359.350	1	7
359.521	1	-2
359.692	1	9
359.863	1	4
360.034	1	-5
360.205	1	-2
360.376	1	10
360.547	1	1
360.718	1	-7
360.889	1	8
361.060	1	2
361.231	1	7
361.401	1	2
361.572	1	4
361.743	1	4
361.914	1	-3
362.085	1	-6
362.256	1	4
362.427	1	-1
362.598	1	0
362.769	1	16
362.940	1	6
363.111	1	5
363.282	1	8
363.453	1	11
363.624	1	-9
363.795	1	4
363.966	1	4
364.137	1	-1
364.308	1	5
364.478	1	7
364.649	1	-1
364.820	1	11
364.991	1	5
365.162	1	0
365.333	1	15
365.504	1	3
365.675	1	-5
365.846	1	14
366.017	1	8
366.188	1	2
366.359	1	9
366.530	1	7
366.701	1	-2
366.871	1	7
367.042	1	10
367.213	1	13
367.384	1	14
367.555	1	4
367.726	1	19
367.897	1	-8
368.068	1	-1
368.239	1	9
368.410	1	9
368.581	1	8
368.752	1	-1
368.923	1	-13
369.093	1	7
369.264	1	8
369.435	1	-2
369.606	1	2
369.777	1	1
369.948	1	-7
370.119	1	5
370.290	1	4
370.461	1	1
370.632	1	4
370.803	1	-1
370.973	1	10
371.144	1	10
371.315	1	2
371.486	1	1
371.657	1	2
371.828	1	5
371.999	1	6
372.170	1	19
372.341	1	12
372.512	1	4
372.682	1	-2
372.853	1	7
373.024	1	4
373.195	1	1
373.366	1	3
373.537	1	7
373.708	1	-4
373.879	1	13
374.050	1	15
374.220	1	4
374.391	1	8
374.562	1	3
374.733	1	10
374.904	1	1
375.075	1	10
375.246	1	9
375.417	1	4
375.588	1	9
375.758	1	1
375.929	1	6
376.100	1	10
376.271	1	-1
376.442	1	1
376.613	1	6
376.784	1	6
376.955	1	-8
377.125	1	5
377.296	1	10
377.467	1	7
377.638	1	9
377.809	1	8
377.980	1	7
378.151	1	0
378.321	1	4
378.492	1	7
378.663	1	-3
378.834	1	4
379.005	1	6
379.176	1	2
379.347	1	9
379.518	1	-9
379.688	1	6
379.859	1	2
380.030	1	2
380.201	1	-6
380.372	1	9
380.543	1	7
380.714	1	15
380.884	1	-3
381.055	1	3
381.226	1	-2
381.397	1	-1
381.568	1	0
381.739	1	4
381.910	1	1
382.080	1	-2
382.251	1	4
382.422	1	10
382.593	1	0
382.764	1	4
382.935	1	4
383.105	1	9
383.276	1	5
383.447	1	12
383.618	1	12
383.789	1	4
383.960	1	-1
384.130	1	3
384.301	1	3
384.472	1	-12
384.643	1	10
384.814	1	10
384.985	1	11
385.156	1	18
385.326	1	9
385.497	1	15
385.668	1	6
385.839	1	13
386.010	1	20
386.180	1	3
386.351	1	4
386.522	1	12
386.693	1	3
386.864	1	0
387.035	1	-7
387.205	1	5
387.376	1	19
387.547	1	13
387.718	1	23
387.889	1	25
388.060	1	4
388.230	1	1
388.401	1	26
388.572	1	2
388.743	1	10
388.914	1	18
389.084	1	16
389.255	1	14
389.426	1	14
389.597	1	3
389.768	1	7
389.939	1	14
390.109	1	1
390.280	1	17
390.451	1	9
390.622	1	-1
390.793	1	11
390.963	1	6
391.134	1	16
391.305	1	14
391.476	1	19
391.647	1	9
391.817	1	-1
391.988	1	7
392.159	1	11
392.330	1	11
392.501	1	9
392.671	1	9
392.842	1	17
393.013	1	14
393.184	1	14
393.355	1	21
393.525	1	13
393.696	1	4
393.867	1	3
394.038	1	5
394.208	1	11
394.379	1	6
394.550	1	8
394.721	1	12
394.892	1	11
395.062	1	2
395.233	1	15
395.404	1	12
395.575	1	5
395.746	1	-2
395.916	1	10
396.087	1	2
396.258	1	5
396.429	1	14
396.599	1	15
396.770	1	12
396.941	1	14
397.112	1	-3
397.283	1	8
397.453	1	4
397.624	1	4
397.795	1	10
397.966	1	7
398.136	1	18
398.307	1	12
398.478	1	13
398.649	1	6
398.819	1	14
398.990	1	11
399.161	1	16
399.332	1	15
399.503	1	5
399.673	1	11
399.844	1	13
400.015	1	14
400.186	1	17
400.356	1	-1
400.527	1	9
400.698	1	5
400.869	1	15
401.039	1	-1
401.210	1	5
401.381	1	12
401.552	1	17
401.722	1	12
401.893	1	8
402.064	1	2
402.235	1	11
402.405	1	7
402.576	1	16
402.747	1	4
402.918	1	6
403.088	1	-5
403.259	1	0
403.430	1	1
403.601	1	-8
403.771	1	7
403.942	1	14
404.113	1	9
404.284	1	8
404.454	1	18
404.625	1	11
404.796	1	6
404.967	1	3
405.137	1	9
405.308	1	4
405.479	1	19
405.649	1	6
405.820	1	0
405.991	1	16
406.162	1	1
406.332	1	3
406.503	1	4
406.674	1	7
406.845	1	11
407.015	1	-3
407.186	1	21
407.357	1	4
407.527	1	6
407.698	1	-6
407.869	1	10
408.040	1	3
408.210	1	-6
408.381	1	1
408.552	1	7
408.722	1	7
408.893	1	3
409.064	1	5
409.235	1	4
409.405	1	6
409.576	1	11
409.747	1	6
409.917	1	10
410.088	1	4
410.259	1	3
410.430	1	14
410.600	1	8
410.771	1	7
410.942	1	9
411.112	1	4
411.283	1	-6
411.454	1	11
411.625	1	6
411.795	1	9
411.966	1	5
412.137	1	13
412.307	1	0
412.478	1	10
412.649	1	11
412.819	1	3
412.990	1	10
413.161	1	4
413.332	1	2
413.502	1	5
413.673	1	12
413.844	1	-1
414.014	1	-3
414.185	1	5
414.356	1	-6
414.526	1	-5
414.697	1	5
414.868	1	19
415.038	1	2
415.209	1	1
415.380	1	4
415.550	1	-2
415.721	1	13
415.892	1	7
416.063	1	9
416.233	1	-4
416.404	1	4
416.575	1	-1
416.745	1	-7
416.916	1	-1
417.087	1	9
417.257	1	0
417.428	1	11
417.599	1	5
417.769	1	12
417.940	1	-1
418.111	1	-2
418.281	1	1
418.452	1	-1
418.623	1	10
418.793	1	6
418.964	1	12
419.135	1	12
419.305	1	6
419.476	1	6
419.647	1	15
419.817	1	-2
419.988	1	6
420.159	1	0
420.329	1	1
420.500	1	9
420.671	1	8
420.841	1	7
421.012	1	6
421.183	1	-6
421.353	1	11
421.524	1	1
421.695	1	-8
421.865	1	7
422.036	1	4
422.206	1	1
422.377	1	4
422.548	1	-2
422.718	1	0
422.889	1	8
423.060	1	6
423.230	1	12
423.401	1	10
423.572	1	7
423.742	1	4
423.913	1	17
424.084	1	2
424.254	1	-1
424.425	1	7
424.595	1	-7
424.766	1	8
424.937	1	1
425.107	1	5
425.278	1	-3
425.449	1	10
425.619	1	9
425.790	1	-3
425.961	1	-5
426.131	1	2
426.302	1	-4
426.472	1	12
426.643	1	11
426.814	1	13
426.984	1	4
427.155	1	0
427.326	1	10
427.496	1	9
427.667	1	8
427.837	1	-6
428.008	1	12
428.179	1	-2
428.349	1	-4
428.520	1	4
428.691	1	2
428.861	1	6
429.032	1	0
429.202	1	15
429.373	1	-6
429.544	1	6
429.714	1	20
429.885	1	2
430.055	1	0
430.226	1	0
430.397	1	5
430.567	1	7
430.738	1	0
430.909	1	-9
431.079	1	7
431.250	1	3
431.420	1	3
431.591	1	3
431.762	1	-3
431.932	1	15
432.103	1	6
432.273	1	3
432.444	1	10
432.615	1	9
432.785	1	-2
432.956	1	9
433.126	1	1
433.297	1	6
433.468	1	4
433.638	1	2
433.809	1	9
433.979	1	3
434.150	1	6
434.320	1	9
434.491	1	7
434.662	1	-4
434.832	1	0
435.003	1	11
435.173	1	-2
435.344	1	7
435.515	1	-1
435.685	1	7
435.856	1	0
436.026	1	6
436.197	1	1
436.368	1	-2
436.538	1	8
436.709	1	-5
436.879	1	-6
437.050	1	3
437.220	1	17
437.391	1	0
437.562	1	10
437.732	1	10
437.903	1	3
438.073	1	6
438.244	1	3
438.414	1	11
438.585	1	-2
438.756	1	10
438.926	1	-2
439.097	1	2
439.267	1	14
439.438	1	4
439.608	1	2
439.779	1	10
439.949	1	4
440.120	1	1
440.291	1	-3
440.461	1	-3
440.632	1	16
440.802	1	7
440.973	1	5
441.143	1	11
441.314	1	12
441.485	1	9
441.655	1	16
441.826	1	2
441.996	1	2
442.167	1	0
442.337	1	-2
442.508	1	-5
442.678	1	1
442.849	1	17
443.019	1	4
443.190	1	-4
443.361	1	9
443.531	1	0
443.702	1	-1
443.872	1	3
444.043	1	9
444.213	1	0
444.384	1	4
444.554	1	4
444.725	1	6
444.895	1	5
445.066	1	-11
445.237	1	-16
445.407	1	3
445.578	1	18
445.748	1	-8
445.919	1	-2
446.089	1	14
446.260	1	6
446.430	1	-10
446.601	1	-2
446.771	1	4
446.942	1	5
447.112	1	4
447.283	1	1
447.453	1	6
447.624	1	6
447.794	1	2
447.965	1	-2
448.135	1	0
448.306	1	0
448.477	1	5
448.647	1	17
448.818	1	13
448.988	1	-12
449.159	1	-5
449.329	1	13
449.500	1	11
449.670	1	-3
449.841	1	4
450.011	1	4
450.182	1	-2
450.352	1	6
450.523	1	7
450.693	1	12
450.864	1	2
451.034	1	8
451.205	1	1
451.375	1	11
451.546	1	0
451.716	1	9
451.887	1	-1
452.057	1	7
452.228	1	2
452.398	1	5
452.569	1	1
452.739	1	9
452.910	1	1
453.080	1	2
453.251	1	3
453.421	1	2
453.592	1	-11
453.762	1	7
453.933	1	13
454.103	1	7
454.274	1	0
454.444	1	14
454.615	1	13
454.785	1	-8
454.956	1	-4
455.126	1	11
455.297	1	4
455.467	1	1
455.638	1	-2
455.808	1	2
455.979	1	7
456.149	1	0
456.320	1	4
456.490	1	2
456.661	1	-1
456.831	1	8
457.001	1	5
457.172	1	7
457.342	1	9
457.513	1	9
457.683	1	12
457.854	1	-3
458.024	1	-1
458.195	1	-8
458.365	1	7
458.536	1	8
458.706	1	6
458.877	1	1
459.047	1	2
459.218	1	4
459.388	1	7
459.559	1	5
459.729	1	-4
459.899	1	7
460.070	1	15
460.240	1	4
460.411	1	12
460.581	1	10
460.752	1	7
460.922	1	-2
461.093	1	3
461.263	1	8
461.434	1	8
461.604	1	1
461.775	1	3
461.945	1	19
462.115	1	-2
462.286	1	5
462.456	1	2
462.627	1	5
462.797	1	-2
462.968	1	-6
463.138	1	18
463.309	1	1
463.479	1	10
463.649	1	1
463.820	1	3
463.990	1	3
464.161	1	-1
464.331	1	9
464.502	1	8
464.672	1	-1
464.843	1	5
465.013	1	-1
465.183	1	8
465.354	1	6
465.524	1	14
465.695	1	12
465.865	1	1
466.036	1	-2
466.206	1	7
466.376	1	-3
466.547	1	2
466.717	1	-10
466.888	1	-6
467.058	1	9
467.229	1	3
467.399	1	4
467.569	1	2
467.740	1	3
467.910	1	1
468.081	1	-2
468.251	1	-1
468.422	1	10
468.592	1	13
468.762	1	-11
468.933	1	5
469.103	1	-5
469.274	1	-7
469.444	1	0
469.614	1	-2
469.785	1	12
469.955	1	6
470.126	1	4
470.296	1	8
470.467	1	2
470.637	1	9
470.807	1	7
470.978	1	1
471.148	1	-4
471.319	1	8
471.489	1	2
471.659	1	5
471.830	1	14
472.000	1	5
472.171	1	4
472.341	1	2
472.511	1	6
472.682	1	8
472.852	1	0
473.023	1	-6
473.193	1	5
473.363	1	2
473.534	1	-5
473.704	1	13
473.875	1	11
474.045	1	-10
474.215	1	1
474.386	1	10
474.556	1	-8
474.727	1	0
474.897	1	3
475.067	1	2
475.238	1	-8
475.408	1	0
475.578	1	-9
475.749	1	2
475.919	1	1
476.090	1	1
476.260	1	1
476.430	1	2
476.601	1	1
476.771	1	8
476.942	1	-3
477.112	1	3
477.282	1	-5
477.453	1	5
477.623	1	8
477.793	1	7
477.964	1	9
478.134	1	10
478.305	1	8
478.475	1	0
478.645	1	-9
478.816	1	1
478.986	1	4
479.156	1	2
479.327	1	3
479.497	1	-1
479.667	1	0
479.838	1	4
480.008	1	10
480.179	1	-1
480.349	1	7
480.519	1	-4
480.690	1	-3
480.860	1	0
481.030	1	-1
481.201	1	-1
481.371	1	6
481.541	1	5
481.712	1	2
481.882	1	2
482.053	1	9
482.223	1	-2
482.393	1	-8
482.564	1	1
482.734	1	4
482.904	1	1
483.075	1	4
483.245	1	2
483.415	1	3
483.586	1	2
483.756	1	9
483.926	1	8
484.097	1	-4
484.267	1	3
484.437	1	-2
484.608	1	-1
484.778	1	-6
484.948	1	-2
485.119	1	2
485.289	1	9
485.459	1	5
485.630	1	-1
485.800	1	1
485.970	1	-2
486.141	1	-5
486.311	1	-2
486.481	1	3
486.652	1	9
486.822	1	-4
486.992	1	-4
487.163	1	0
487.333	1	14
487.503	1	-13
487.674	1	3
487.844	1	13
488.014	1	2
488.185	1	-11
488.355	1	-7
488.525	1	1
488.696	1	-4
488.866	1	5
489.036	1	6
489.207	1	2
489.377	1	-1
489.547	1	-3
489.718	1	-6
489.888	1	6
490.058	1	-4
490.228	1	-5
490.399	1	9
490.569	1	2
490.739	1	12
490.910	1	-2
491.080	1	4
491.250	1	2
491.421	1	2
491.591	1	-6
491.761	1	6
491.932	1	4
492.102	1	-2
492.272	1	11
492.442	1	-3
492.613	1	11
492.783	1	-4
492.953	1	3
493.124	1	-4
493.294	1	16
493.464	1	-6
493.635	1	-12
493.805	1	6
493.975	1	1
494.145	1	9
494.316	1	-3
494.486	1	9
494.656	1	4
494.827	1	-6
494.997	1	3
495.167	1	14
495.337	1	1
495.508	1	-2
495.678	1	9
495.848	1	11
496.019	1	6
496.189	1	3
496.359	1	0
496.529	1	0
496.700	1	-1
496.870	1	0
497.040	1	3
497.211	1	21
497.381	1	-12
497.551	1	17
497.721	1	-9
497.892	1	8
498.062	1	-6
498.232	1	8
498.403	1	7
498.573	1	-14
498.743	1	10
498.913	1	5
499.084	1	-6
499.254	1	-5
499.424	1	17
499.594	1	2
499.765	1	3
499.935	1	-2
500.105	1	13
500.275	1	9
500.446	1	11
500.616	1	7
500.786	1	-1
500.956	1	7
501.127	1	9
501.297	1	8
501.467	1	8
501.638	1	12
501.808	1	-8
501.978	1	-1
502.148	1	-2
502.319	1	3
502.489	1	6
502.659	1	-6
502.829	1	8
503.000	1	15
503.170	1	5
503.340	1	-3
503.510	1	5
503.681	1	8
503.851	1	-17
504.021	1	14
504.191	1	10
504.362	1	12
504.532	1	-11
504.702	1	13
504.872	1	-3
505.042	1	2
505.213	1	-4
505.383	1	4
505.553	1	-1
505.723	1	8
505.894	1	5
506.064	1	8
506.234	1	14
506.404	1	4
506.575	1	4
506.745	1	7
506.915	1	7
507.085	1	0
507.256	1	-4
507.426	1	10
507.596	1	14
507.766	1	2
507.936	1	7
508.107	1	5
508.277	1	8
508.447	1	3
508.617	1	8
508.788	1	1
508.958	1	19
509.128	1	10
509.298	1	13
509.468	1	11
509.639	1	9
509.809	1	13
509.979	1	6
510.149	1	5
510.319	1	0
510.490	1	10
510.660	1	5
510.830	1	-1
511.000	1	11
511.171	1	15
511.341	1	-8
511.511	1	4
511.681	1	3
511.851	1	-3
512.022	1	-3
512.192	1	9
512.362	1	11
512.532	1	12
512.702	1	-6
512.873	1	16
513.043	1	10
513.213	1	13
513.383	1	-4
513.553	1	2
513.724	1	5
513.894	1	1
514.064	1	3
514.234	1	-5
514.404	1	4
514.575	1	11
514.745	1	6
514.915	1	18
515.085	1	6
515.255	1	1
515.425	1	-3
515.596	1	-2
515.766	1	-3
515.936	1	10
516.106	1	-1
516.276	1	3
516.447	1	6
516.617	1	10
516.787	1	-9
516.957	1	3
517.127	1	-2
517.297	1	4
517.468	1	-7
517.638	1	4
517.808	1	5
517.978	1	-1
518.148	1	8
518.319	1	0
518.489	1	7
518.659	1	2
518.829	1	-2
518.999	1	-1
519.169	1	12
519.340	1	10
519.510	1	2
519.680	1	-2
519.850	1	3
520.020	1	-3
520.190	1	4
520.361	1	8
520.531	1	12
520.701	1	-2
520.871	1	2
521.041	1	11
521.211	1	8
521.382	1	2
521.552	1	12
521.722	1	10
521.892	1	0
522.062	1	-1
522.232	1	-4
522.402	1	-5
522.573	1	4
522.743	1	18
522.913	1	7
523.083	1	14
523.253	1	4
523.423	1	-4
523.593	1	-15
523.764	1	10
523.934	1	17
524.104	1	-1
524.274	1	4
524.444	1	-2
524.614	1	5
524.784	1	12
524.955	1	-3
525.125	1	5
525.295	1	-6
525.465	1	1
525.635	1	16
525.805	1	-3
525.975	1	2
526.146	1	1
526.316	1	-4
526.486	1	5
526.656	1	22
526.826	1	8
526.996	1	11
527.166	1	0
527.337	1	3
527.507	1	-2
527.677	1	15
527.847	1	0
528.017	1	-2
528.187	1	10
528.357	1	13
528.527	1	4
528.698	1	1
528.868	1	-3
529.038	1	7
529.208	1	-4
529.378	1	11
529.548	1	14
529.718	1	9
529.888	1	15
530.058	1	12
530.229	1	7
530.399	1	8
530.569	1	5
530.739	1	-4
530.909	1	15
531.079	1	0
531.249	1	-4
531.419	1	15
531.589	1	-3
531.760	1	7
531.930	1	8
532.100	1	5
532.270	1	12
532.440	1	9
532.610	1	1
532.780	1	1
532.950	1	7
533.120	1	1
533.290	1	5
533.461	1	19
533.631	1	2
533.801	1	6
533.971	1	-1
534.141	1	6
534.311	1	12
534.481	1	1
534.651	1	5
534.821	1	6
534.991	1	9
535.162	1	3
535.332	1	5
535.502	1	9
535.672	1	-5
535.842	1	-2
536.012	1	15
536.182	1	4
536.352	1	10
536.522	1	15
536.692	1	6
536.862	1	16
537.032	1	3
537.203	1	9
537.373	1	3
537.543	1	12
537.713	1	13
537.883	1	14
538.053	1	9
538.223	1	13
538.393	1	13
538.563	1	6
538.733	1	1
538.903	1	9
539.073	1	11
539.243	1	13
539.413	1	-1
539.584	1	0
539.754	1	-1
539.924	1	6
540.094	1	1
540.264	1	9
540.434	1	4
540.604	1	11
540.774	1	7
540.944	1	-7
541.114	1	-1
541.284	1	2
541.454	1	1
541.624	1	16
541.794	1	0
541.964	1	6
542.134	1	14
542.305	1	5
542.475	1	4
542.645	1	11
542.815	1	15
542.985	1	3
543.155	1	-1
543.325	1	2
543.495	1	0
543.665	1	14
543.835	1	10
544.005	1	2
544.175	1	8
544.345	1	-1
544.515	1	8
544.685	1	11
544.855	1	10
545.025	1	6
545.195	1	-3
545.365	1	5
545.535	1	0
545.705	1	10
545.875	1	-1
546.045	1	2
546.216	1	14
546.386	1	8
546.556	1	-10
546.726	1	4
546.896	1	3
547.066	1	-3
547.236	1	-4
547.406	1	17
547.576	1	9
547.746	1	10
547.916	1	9
548.086	1	6
548.256	1	6
548.426	1	5
548.596	1	10
548.766	1	8
548.936	1	-4
549.106	1	7
549.276	1	14
549.446	1	6
549.616	1	11
549.786	1	15
549.956	1	6
550.126	1	1
550.296	1	7
550.466	1	10
550.636	1	7
550.806	1	10
550.976	1	11
551.146	1	0
551.316	1	-7
551.486	1	11
551.656	1	-6
551.826	1	3
551.996	1	3
552.166	1	10
552.336	1	4
552.506	1	-6
552.676	1	-2
552.846	1	7
553.016	1	5
553.186	1	1
553.356	1	-6
553.526	1	6
553.696	1	17
553.866	1	4
554.036	1	2
554.206	1	5
554.376	1	0
554.546	1	-10
554.716	1	9
554.886	1	3
555.056	1	-5
555.226	1	0
555.396	1	2
555.566	1	15
555.736	1	-4
555.906	1	11
556.076	1	7
556.246	1	2
556.416	1	2
556.586	1	13
556.756	1	14
556.926	1	7
557.096	1	2
557.266	1	13
557.436	1	9
557.606	1	-3
557.776	1	6
557.946	1	12
558.116	1	6
558.286	1	9
558.456	1	-2
558.626	1	13
558.796	1	4
558.966	1	7
559.136	1	3
559.306	1	-2
559.476	1	2
559.646	1	-4
559.816	1	6
559.986	1	-3
560.155	1	-1
560.325	1	-6
560.495	1	7
560.665	1	1
560.835	1	-3
561.005	1	-5
561.175	1	2
561.345	1	2
561.515	1	-3
561.685	1	5
561.855	1	19
562.025	1	-2
562.195	1	5
562.365	1	8
562.535	1	3
562.705	1	11
562.875	1	9
563.045	1	3
563.215	1	5
563.385	1	2
563.555	1	15
563.725	1	0
563.895	1	-2
564.064	1	13
564.234	1	-2
564.404	1	-5
564.574	1	-2
564.744	1	12
564.914	1	-9
565.084	1	-10
565.254	1	5
565.424	1	9
565.594	1	4
565.764	1	11
565.934	1	7
566.104	1	4
566.274	1	3
566.444	1	10
566.614	1	-2
566.783	1	7
566.953	1	2
567.123	1	19
567.293	1	3
567.463	1	7
567.633	1	9
567.803	1	-3
567.973	1	1
568.143	1	-6
568.313	1	-3
568.483	1	4
568.653	1	-7
568.823	1	17
568.993	1	1
569.162	1	10
569.332	1	4
569.502	1	11
569.672	1	5
569.842	1	-7
570.012	1	5
570.182	1	-7
570.352	1	5
570.522	1	13
570.692	1	2
570.862	1	4
571.031	1	-3
571.201	1	2
571.371	1	3
571.541	1	-4
571.711	1	8
571.881	1	12
572.051	1	6
572.221	1	10
572.391	1	4
572.561	1	-5
572.731	1	-3
572.900	1	11
573.070	1	17
573.240	1	-2
573.410	1	4
573.580	1	7
573.750	1	7
573.920	1	9
574.090	1	9
574.260	1	7
574.430	1	0
574.599	1	8
574.769	1	5
574.939	1	-2
575.109	1	0
575.279	1	5
575.449	1	8
575.619	1	4
575.789	1	16
575.959	1	-1
576.128	1	10
576.298	1	-9
576.468	1	-4
576.638	1	6
576.808	1	0
576.978	1	2
577.148	1	10
577.318	1	10
577.487	1	5
577.657	1	-13
577.827	1	7
577.997	1	6
578.167	1	5
578.337	1	3
578.507	1	0
578.677	1	-3
578.846	1	-8
579.016	1	15
579.186	1	-1
579.356	1	5
579.526	1	8
579.696	1	6
579.866	1	12
580.036	1	0
580.205	1	5
580.375	1	4
580.545	1	4
580.715	1	15
580.885	1	0
581.055	1	7
581.225	1	-4
581.394	1	1
581.564	1	8
581.734	1	8
581.904	1	4
582.074	1	4
582.244	1	6
582.414	1	7
582.583	1	-3
582.753	1	5
582.923	1	-2
583.093	1	-2
583.263	1	12
583.433	1	-13
583.603	1	-1
583.772	1	1
583.942	1	-4
584.112	1	5
584.282	1	8
584.452	1	8
584.622	1	12
584.791	1	-5
584.961	1	-1
585.131	1	-4
585.301	1	6
585.471	1	-1
585.641	1	14
585.811	1	-5
585.980	1	-8
586.150	1	2
586.320	1	-9
586.490	1	4
586.660	1	-1
586.830	1	-10
586.999	1	7
587.169	1	1
587.339	1	-4
587.509	1	-1
587.679	1	8
587.849	1	10
588.018	1	8
588.188	1	4
588.358	1	14
588.528	1	4
588.698	1	-4
588.867	1	4
589.037	1	10
589.207	1	-5
589.377	1	3
589.547	1	-2
589.717	1	2
589.886	1	4
590.056	1	8
590.226	1	3
590.396	1	3
590.566	1	4
590.735	1	4
590.905	1	-8
591.075	1	-10
591.245	1	3
591.415	1	7
591.585	1	1
591.754	1	9
591.924	1	-6
592.094	1	10
592.264	1	12
592.434	1	-2
592.603	1	-10
592.773	1	-6
592.943	1	-5
593.113	1	-1
593.283	1	4
593.452	1	-7
593.622	1	-1
593.792	1	1
593.962	1	11
594.132	1	-7
594.301	1	2
594.471	1	0
594.641	1	-10
594.811	1	1
594.981	1	0
595.150	1	-6
595.320	1	17
595.490	1	-1
595.660	1	3
595.829	1	2
595.999	1	10
596.169	1	1
596.339	1	3
596.509	1	8
596.678	1	5
596.848	1	3
597.018	1	8
597.188	1	12
597.358	1	-5
597.527	1	3
597.697	1	3
597.867	1	6
598.037	1	-2
598.206	1	2
598.376	1	7
598.546	1	-8
598.716	1	-2
598.885	1	2
599.055	1	11
599.225	1	10
599.395	1	10
599.565	1	7
599.734	1	-2
599.904	1	-3
600.074	1	-6
600.244	1	4
600.413	1	0
600.583	1	-4
600.753	1	6
600.923	1	6
601.092	1	-3
601.262	1	2
601.432	1	-3
601.602	1	0
601.771	1	1
601.941	1	-6
602.111	1	-9
602.281	1	1
602.451	1	1
602.620	1	5
602.790	1	-2
602.960	1	-6
603.130	1	7
603.299	1	9
603.469	1	8
603.639	1	10
603.809	1	12
603.978	1	6
604.148	1	4
604.318	1	2
604.487	1	9
604.657	1	2
604.827	1	-5
604.997	1	10
605.166	1	-6
605.336	1	1
605.506	1	11
605.676	1	-4
605.845	1	7
606.015	1	6
606.185	1	-1
606.355	1	11
606.524	1	5
606.694	1	10
606.864	1	-4
607.034	1	-1
607.203	1	13
607.373	1	10
607.543	1	-4
607.712	1	10
607.882	1	1
608.052	1	3
608.222	1	10
608.391	1	1
608.561	1	5
608.731	1	-4
608.901	1	-1
609.070	1	-3
609.240	1	-2
609.410	1	3
609.579	1	1
609.749	1	1
609.919	1	5
610.089	1	0
610.258	1	5
610.428	1	2
610.598	1	6
610.767	1	8
610.937	1	3
611.107	1	10
611.277	1	0
611.446	1	0
611.616	1	-8
611.786	1	3
611.955	1	4
612.125	1	2
612.295	1	1
612.465	1	-10
612.634	1	3
612.804	1	6
612.974	1	14
613.143	1	-3
613.313	1	-1
613.483	1	17
613.652	1	-6
613.822	1	5
613.992	1	4
614.162	1	-1
614.331	1	16
614.501	1	-3
614.671	1	12
614.840	1	8
615.010	1	-4
615.180	1	4
615.349	1	3
615.519	1	4
615.689	1	2
615.858	1	5
616.028	1	11
616.198	1	7
616.368	1	-3
616.537	1	-5
616.707	1	-2
616.877	1	-3
617.046	1	1
617.216	1	-6
617.386	1	6
617.555	1	-9
617.725	1	-4
617.895	1	-2
618.064	1	5
618.234	1	-1
618.404	1	1
618.573	1	1
618.743	1	-3
618.913	1	-4
619.082	1	4
619.252	1	9
619.422	1	-1
619.591	1	3
619.761	1	3
619.931	1	3
620.100	1	11
620.270	1	-3
620.440	1	1
620.609	1	2
620.779	1	-2
620.949	1	4
621.118	1	2
621.288	1	16
621.458	1	11
621.627	1	-1
621.797	1	4
621.967	1	6
622.136	1	7
622.306	1	14
622.476	1	5
622.645	1	12
622.815	1	2
622.985	1	5
623.154	1	10
623.324	1	11
623.494	1	2
623.663	1	-4
623.833	1	1
624.002	1	-7
624.172	1	10
624.342	1	1
624.511	1	3
624.681	1	-7
624.851	1	-4
625.020	1	15
625.190	1	-2
625.360	1	-4
625.529	1	6
625.699	1	-3
625.869	1	16
626.038	1	9
626.208	1	-3
626.377	1	15
626.547	1	-4
626.717	1	-9
626.886	1	-3
627.056	1	3
627.226	1	2
627.395	1	9
627.565	1	15
627.735	1	-3
627.904	1	4
628.074	1	8
628.243	1	-1
628.413	1	3
628.583	1	2
628.752	1	18
628.922	1	-6
629.091	1	4
629.261	1	5
629.431	1	-4
629.600	1	11
629.770	1	-8
629.940	1	5
630.109	1	-2
630.279	1	-4
630.448	1	-1
630.618	1	11
630.788	1	4
630.957	1	-6
631.127	1	18
631.297	1	-4
631.466	1	0
631.636	1	2
631.805	1	-10
631.975	1	4
632.145	1	-7
632.314	1	14
632.484	1	-1
632.653	1	2
632.823	1	3
632.993	1	5
633.162	1	-7
633.332	1	9
633.501	1	7
633.671	1	8
633.841	1	5
634.010	1	8
634.180	1	9
634.349	1	5
634.519	1	8
634.689	1	6
634.858	1	10
635.028	1	-1
635.197	1	-6
635.367	1	-4
635.537	1	-1
635.706	1	-5
635.876	1	0
636.045	1	3
636.215	1	-5
636.384	1	8
636.554	1	12
636.724	1	-3
636.893	1	3
637.063	1	7
637.232	1	-7
637.402	1	9
637.572	1	-1
637.741	1	17
637.911	1	4
638.080	1	9
638.250	1	11
638.419	1	-1
638.589	1	15
638.759	1	4
638.928	1	-7
639.098	1	9
639.267	1	-1
639.437	1	-4
639.606	1	15
639.776	1	2
639.946	1	9
640.115	1	-1
640.285	1	2
640.454	1	11
640.624	1	0
640.793	1	6
640.963	1	-14
641.132	1	9
641.302	1	15
641.472	1	-9
641.641	1	1
641.811	1	-3
641.980	1	1
642.150	1	10
642.319	1	-1
642.489	1	3
642.659	1	-9
642.828	1	-4
642.998	1	-5
643.167	1	3
643.337	1	9
643.506	1	-7
643.676	1	4
643.845	1	-5
644.015	1	3
644.184	1	12
644.354	1	1
644.524	1	-14
644.693	1	-1
644.863	1	-2
645.032	1	-7
645.202	1	-4
645.371	1	0
645.541	1	-12
645.710	1	1
645.880	1	-1
646.049	1	7
646.219	1	18
646.388	1	3
646.558	1	-3
646.728	1	6
646.897	1	-6
647.067	1	3
647.236	1	6
647.406	1	-9
647.575	1	4
647.745	1	5
647.914	1	-7
648.084	1	5
648.253	1	1
648.423	1	-2
648.592	1	1
648.762	1	9
648.931	1	11
649.101	1	8
649.270	1	13
649.440	1	10
649.610	1	21
649.779	1	3
649.949	1	9
650.118	1	-12
650.288	1	-6
650.457	1	3
650.627	1	-6
650.796	1	-1
650.966	1	1
651.135	1	9
651.305	1	3
651.474	1	8
651.644	1	2
651.813	1	8
651.983	1	-1
652.152	1	-11
652.322	1	9
652.491	1	13
652.661	1	5
652.830	1	7
653.000	1	-2
653.169	1	4
653.339	1	8
653.508	1	-4
653.678	1	-2
653.847	1	5
654.017	1	3
654.186	1	4
654.356	1	8
654.525	1	0
654.695	1	7
654.864	1	8
655.034	1	-1
655.203	1	12
655.373	1	3
655.542	1	10
655.712	1	0
655.881	1	-3
656.051	1	18
656.220	1	8
656.390	1	5
656.559	1	-10
656.729	1	0
656.898	1	1
657.068	1	-1
657.237	1	6
657.406	1	11
657.576	1	0
657.745	1	-2
657.915	1	11
658.084	1	6
658.254	1	2
658.423	1	-7
658.593	1	-11
658.762	1	-3
658.932	1	-4
659.101	1	-4
659.271	1	4
659.440	1	6
659.610	1	-1
659.779	1	5
659.949	1	0
660.118	1	1
660.288	1	10
660.457	1	5
660.626	1	-4
660.796	1	-1
660.965	1	-5
661.135	1	11
661.304	1	6
661.474	1	8
661.643	1	-4
661.813	1	3
661.982	1	5
662.152	1	4
662.321	1	6
662.491	1	6
662.660	1	13
662.829	1	-11
662.999	1	10
663.168	1	-3
663.338	1	-1
663.507	1	5
663.677	1	-7
663.846	1	7
664.016	1	2
664.185	1	4
664.354	1	6
664.524	1	0
664.693	1	-1
664.863	1	5
665.032	1	6
665.202	1	-8
665.371	1	4
665.541	1	5
665.710	1	-7
665.879	1	-8
666.049	1	-5
666.218	1	-9
666.388	1	-5
666.557	1	3
666.727	1	-8
666.896	1	-5
667.065	1	10
667.235	1	3
667.404	1	-10
667.574	1	1
667.743	1	-2
667.913	1	0
668.082	1	0
668.251	1	5
668.421	1	2
668.590	1	0
668.760	1	-1
668.929	1	8
669.099	1	-3
669.268	1	5
669.437	1	-6
669.607	1	-2
669.776	1	1
669.946	1	12
670.115	1	3
670.285	1	3
670.454	1	9
670.623	1	6
670.793	1	5
670.962	1	-4
671.132	1	7
671.301	1	-3
671.470	1	-1
671.640	1	-12
671.809	1	-7
671.979	1	18
672.148	1	14
672.317	1	-4
672.487	1	-3
672.656	1	8
672.826	1	-10
672.995	1	-3
673.164	1	14
673.334	1	4
673.503	1	1
673.673	1	21
673.842	1	2
674.011	1	9
674.181	1	-9
674.350	1	-5
674.520	1	-6
674.689	1	-1
674.858	1	0
675.028	1	3
675.197	1	-4
675.367	1	9
675.536	1	13
675.705	1	-7
675.875	1	6
676.044	1	-1
676.214	1	-8
676.383	1	-7
676.552	1	-6
676.722	1	-2
676.891	1	-10
677.060	1	0
677.230	1	9
677.399	1	-4
677.569	1	3
677.738	1	-5
677.907	1	-12
678.077	1	3
678.246	1	-8
678.416	1	7
678.585	1	0
678.754	1	-8
678.924	1	2
679.093	1	5
679.262	1	10
679.432	1	-6
679.601	1	-8
679.771	1	-2
679.940	1	5
680.109	1	5
680.279	1	-9
680.448	1	5
680.617	1	-8
680.787	1	3
680.956	1	3
681.125	1	7
681.295	1	7
681.464	1	4
681.634	1	8
681.803	1	-9
681.972	1	-4
682.142	1	14
682.311	1	-4
682.480	1	0
682.650	1	0
682.819	1	2
682.988	1	-2
683.158	1	2
683.327	1	-6
683.496	1	-10
683.666	1	-3
683.835	1	-4
684.004	1	0
684.174	1	-2
684.343	1	5
684.512	1	0
684.682	1	9
684.851	1	-1
685.021	1	7
685.190	1	14
685.359	1	-10
685.529	1	9
685.698	1	-1
685.867	1	1
686.037	1	0
686.206	1	6
686.375	1	2
686.545	1	1
686.714	1	1
686.883	1	-8
687.053	1	5
687.222	1	0
687.391	1	-2
687.561	1	3
687.730	1	-6
687.899	1	2
688.069	1	1
688.238	1	2
688.407	1	10
688.577	1	-9
688.746	1	1
