340.368	1	6
340.539	1	14
340.710	1	-4
340.881	1	2
341.052	1	7
341.223	1	12
341.394	1	-4
341.565	1	-3
341.737	1	5
341.908	1	12
342.079	1	-2
342.250	1	8
342.421	1	6
342.592	1	-3
342.763	1	-3
342.934	1	3
343.105	1	14
343.276	1	4
343.447	1	9
343.618	1	8
343.789	1	5
343.960	1	5
344.131	1	1
344.302	1	-1
344.473	1	1
344.644	1	-5
344.815	1	4
344.986	1	9
345.157	1	12
345.328	1	3
345.499	1	13
345.670	1	8
345.841	1	10
346.012	1	8
346.183	1	-2
346.354	1	-4
346.526	1	11
346.697	1	5
346.868	1	6
347.039	1	7
347.210	1	5
347.381	1	8
347.552	1	8
347.723	1	14
347.894	1	0
348.065	1	13
348.236	1	9
348.407	1	2
348.578	1	8
348.749	1	6
348.920	1	12
349.091	1	9
349.262	1	3
349.433	1	2
349.604	1	18
349.775	1	5
349.946	1	8
350.117	1	12
350.288	1	-3
350.459	1	9
350.630	1	-7
350.801	1	12
350.972	1	3
351.143	1	-1
351.314	1	5
351.485	1	-1
351.656	1	15
351.827	1	-5
351.998	1	2
352.169	1	10
352.340	1	3
352.511	1	4
352.682	1	-2
352.853	1	3
353.024	1	-2
353.195	1	1
353.366	1	5
353.537	1	6
353.708	1	4
353.879	1	8
354.050	1	16
354.221	1	1
354.392	1	11
354.563	1	14
354.734	1	9
354.905	1	8
355.076	1	10
355.247	1	2
355.418	1	6
355.589	1	1
355.760	1	9
355.931	1	3
356.102	1	-1
356.273	1	0
356.444	1	6
356.615	1	5
356.785	1	17
356.956	1	5
357.127	1	5
357.298	1	6
357.469	1	-1
357.640	1	13
357.811	1	17
357.982	1	-1
358.153	1	5
358.324	1	6
358.495	1	12
358.666	1	13
358.837	1	7
359.008	1	9
359.179	1	13
359.350	1	5
359.521	1	6
359.692	1	9
359.863	1	-5
360.034	1	6
360.205	1	9
360.376	1	13
360.547	1	12
360.718	1	1
360.889	1	16
361.060	1	18
361.231	1	9
361.401	1	14
361.572	1	8
361.743	1	14
361.914	1	6
362.085	1	15
362.256	1	24
362.427	1	8
362.598	1	13
362.769	1	23
362.940	1	10
363.111	1	26
363.282	1	12
363.453	1	21
363.624	1	20
363.795	1	24
363.966	1	15
364.137	1	8
364.308	1	15
364.478	1	23
364.649	1	16
364.820	1	24
364.991	1	25
365.162	1	21
365.333	1	30
365.504	1	30
365.675	1	24
365.846	1	23
366.017	1	31
366.188	1	21
366.359	1	29
366.530	1	33
366.701	1	17
366.871	1	34
367.042	1	37
367.213	1	35
367.384	1	33
367.555	1	19
367.726	1	45
367.897	1	13
368.068	1	25
368.239	1	37
368.410	1	24
368.581	1	23
368.752	1	10
368.923	1	9
369.093	1	28
369.264	1	23
369.435	1	21
369.606	1	21
369.777	1	10
369.948	1	21
370.119	1	30
370.290	1	19
370.461	1	24
370.632	1	26
370.803	1	16
370.973	1	31
371.144	1	29
371.315	1	11
371.486	1	25
371.657	1	19
371.828	1	19
371.999	1	20
372.170	1	21
372.341	1	28
372.512	1	18
372.682	1	4
372.853	1	19
373.024	1	18
373.195	1	10
373.366	1	17
373.537	1	22
373.708	1	20
373.879	1	22
374.050	1	17
374.220	1	18
374.391	1	20
374.562	1	7
374.733	1	28
374.904	1	19
375.075	1	18
375.246	1	15
375.417	1	8
375.588	1	19
375.758	1	10
375.929	1	13
376.100	1	27
376.271	1	13
376.442	1	13
376.613	1	8
376.784	1	17
376.955	1	5
377.125	1	9
377.296	1	11
377.467	1	12
377.638	1	12
377.809	1	19
377.980	1	12
378.151	1	5
378.321	1	15
378.492	1	7
378.663	1	9
378.834	1	17
379.005	1	11
379.176	1	16
379.347	1	14
379.518	1	6
379.688	1	8
379.859	1	3
380.030	1	4
380.201	1	-5
380.372	1	20
380.543	1	25
380.714	1	13
380.884	1	9
381.055	1	9
381.226	1	17
381.397	1	-2
381.568	1	17
381.739	1	24
381.910	1	18
382.080	1	6
382.251	1	19
382.422	1	23
382.593	1	10
382.764	1	8
382.935	1	28
383.105	1	23
383.276	1	25
383.447	1	29
383.618	1	27
383.789	1	29
383.960	1	19
384.130	1	19
384.301	1	21
384.472	1	10
384.643	1	32
384.814	1	25
384.985	1	31
385.156	1	29
385.326	1	30
385.497	1	35
385.668	1	31
385.839	1	39
386.010	1	28
386.180	1	35
386.351	1	36
386.522	1	35
386.693	1	42
386.864	1	27
387.035	1	25
387.205	1	44
387.376	1	38
387.547	1	24
387.718	1	41
387.889	1	50
388.060	1	28
388.230	1	37
388.401	1	42
388.572	1	30
388.743	1	35
388.914	1	40
389.084	1	32
389.255	1	43
389.426	1	41
389.597	1	26
389.768	1	34
389.939	1	41
390.109	1	25
390.280	1	44
390.451	1	45
390.622	1	20
390.793	1	41
390.963	1	39
391.134	1	25
391.305	1	46
391.476	1	40
391.647	1	30
391.817	1	26
391.988	1	28
392.159	1	24
392.330	1	34
392.501	1	36
392.671	1	33
392.842	1	39
393.013	1	35
393.184	1	37
393.355	1	40
393.525	1	39
393.696	1	26
393.867	1	22
394.038	1	22
394.208	1	33
394.379	1	27
394.550	1	32
394.721	1	30
394.892	1	45
395.062	1	24
395.233	1	31
395.404	1	31
395.575	1	20
395.746	1	19
395.916	1	23
396.087	1	25
396.258	1	20
396.429	1	32
396.599	1	28
396.770	1	33
396.941	1	32
397.112	1	30
397.283	1	34
397.453	1	30
397.624	1	30
397.795	1	25
397.966	1	34
398.136	1	30
398.307	1	19
398.478	1	22
398.649	1	26
398.819	1	41
398.990	1	34
399.161	1	24
399.332	1	41
399.503	1	31
399.673	1	23
399.844	1	28
400.015	1	28
400.186	1	27
400.356	1	18
400.527	1	31
400.698	1	24
400.869	1	30
401.039	1	29
401.210	1	23
401.381	1	29
401.552	1	38
401.722	1	20
401.893	1	18
402.064	1	22
402.235	1	27
402.405	1	28
402.576	1	24
402.747	1	30
402.918	1	17
403.088	1	18
403.259	1	16
403.430	1	22
403.601	1	11
403.771	1	18
403.942	1	30
404.113	1	38
404.284	1	14
404.454	1	30
404.625	1	19
404.796	1	22
404.967	1	26
405.137	1	24
405.308	1	20
405.479	1	30
405.649	1	20
405.820	1	17
405.991	1	27
406.162	1	22
406.332	1	21
406.503	1	10
406.674	1	20
406.845	1	27
407.015	1	8
407.186	1	32
407.357	1	22
407.527	1	18
407.698	1	13
407.869	1	14
408.040	1	17
408.210	1	20
408.381	1	20
408.552	1	25
408.722	1	17
408.893	1	16
409.064	1	23
409.235	1	14
409.405	1	18
409.576	1	22
409.747	1	10
409.917	1	25
410.088	1	22
410.259	1	16
410.430	1	30
410.600	1	25
410.771	1	17
410.942	1	26
411.112	1	30
411.283	1	14
411.454	1	34
411.625	1	21
411.795	1	21
411.966	1	25
412.137	1	26
412.307	1	12
412.478	1	25
412.649	1	22
412.819	1	17
412.990	1	26
413.161	1	15
413.332	1	19
413.502	1	11
413.673	1	21
413.844	1	19
414.014	1	8
414.185	1	7
414.356	1	6
414.526	1	16
414.697	1	12
414.868	1	28
415.038	1	14
415.209	1	20
415.380	1	11
415.550	1	9
415.721	1	22
415.892	1	8
416.063	1	25
416.233	1	18
416.404	1	15
416.575	1	9
416.745	1	19
416.916	1	15
417.087	1	11
417.257	1	28
417.428	1	13
417.599	1	11
417.769	1	16
417.940	1	14
418.111	1	11
418.281	1	13
418.452	1	16
418.623	1	12
418.793	1	21
418.964	1	15
419.135	1	15
419.305	1	12
419.476	1	15
419.647	1	15
419.817	1	20
419.988	1	10
420.159	1	5
420.329	1	18
420.500	1	19
420.671	1	16
420.841	1	18
421.012	1	11
421.183	1	18
421.353	1	24
421.524	1	14
421.695	1	10
421.865	1	8
422.036	1	17
422.206	1	12
422.377	1	20
422.548	1	16
422.718	1	17
422.889	1	9
423.060	1	12
423.230	1	23
423.401	1	16
423.572	1	7
423.742	1	12
423.913	1	14
424.084	1	25
424.254	1	14
424.425	1	16
424.595	1	9
424.766	1	11
424.937	1	13
425.107	1	6
425.278	1	-1
425.449	1	19
425.619	1	9
425.790	1	8
425.961	1	12
426.131	1	15
426.302	1	12
426.472	1	9
426.643	1	17
426.814	1	14
426.984	1	9
427.155	1	8
427.326	1	23
427.496	1	24
427.667	1	21
427.837	1	1
428.008	1	14
428.179	1	1
428.349	1	16
428.520	1	10
428.691	1	4
428.861	1	5
429.032	1	4
429.202	1	21
429.373	1	3
429.544	1	19
429.714	1	14
429.885	1	3
430.055	1	15
430.226	1	9
430.397	1	5
430.567	1	21
430.738	1	19
430.909	1	1
431.079	1	15
431.250	1	0
431.420	1	13
431.591	1	17
431.762	1	18
431.932	1	14
432.103	1	1
432.273	1	3
432.444	1	14
432.615	1	18
432.785	1	10
432.956	1	16
433.126	1	1
433.297	1	12
433.468	1	14
433.638	1	4
433.809	1	11
433.979	1	0
434.150	1	7
434.320	1	15
434.491	1	2
434.662	1	11
434.832	1	6
435.003	1	12
435.173	1	16
435.344	1	12
435.515	1	17
435.685	1	12
435.856	1	2
436.026	1	2
436.197	1	7
436.368	1	1
436.538	1	14
436.709	1	9
436.879	1	3
437.050	1	16
437.220	1	7
437.391	1	9
437.562	1	23
437.732	1	16
437.903	1	7
438.073	1	15
438.244	1	7
438.414	1	17
438.585	1	11
438.756	1	20
438.926	1	4
439.097	1	16
439.267	1	16
439.438	1	22
439.608	1	12
439.779	1	9
439.949	1	1
440.120	1	10
440.291	1	4
440.461	1	0
440.632	1	10
440.802	1	12
440.973	1	5
441.143	1	9
441.314	1	18
441.485	1	17
441.655	1	27
441.826	1	-3
441.996	1	11
442.167	1	8
442.337	1	7
442.508	1	7
442.678	1	6
442.849	1	8
443.019	1	13
443.190	1	-3
443.361	1	12
443.531	1	3
443.702	1	8
443.872	1	8
444.043	1	8
444.213	1	1
444.384	1	11
444.554	1	0
444.725	1	6
444.895	1	11
445.066	1	7
445.237	1	1
445.407	1	8
445.578	1	8
445.748	1	8
445.919	1	8
446.089	1	16
446.260	1	6
446.430	1	5
446.601	1	6
446.771	1	15
446.942	1	7
447.112	1	2
447.283	1	13
447.453	1	2
447.624	1	9
447.794	1	6
447.965	1	13
448.135	1	8
448.306	1	7
448.477	1	3
448.647	1	20
448.818	1	13
448.988	1	-8
449.159	1	4
449.329	1	11
449.500	1	13
449.670	1	14
449.841	1	4
450.011	1	16
450.182	1	-3
450.352	1	11
450.523	1	-7
450.693	1	13
450.864	1	-1
451.034	1	12
451.205	1	7
451.375	1	3
451.546	1	2
451.716	1	15
451.887	1	-1
452.057	1	21
452.228	1	9
452.398	1	14
452.569	1	7
452.739	1	3
452.910	1	8
453.080	1	24
453.251	1	0
453.421	1	8
453.592	1	11
453.762	1	7
453.933	1	9
454.103	1	5
454.274	1	10
454.444	1	21
454.615	1	14
454.785	1	3
454.956	1	2
455.126	1	12
455.297	1	13
455.467	1	19
455.638	1	1
455.808	1	8
455.979	1	12
456.149	1	6
456.320	1	10
456.490	1	4
456.661	1	8
456.831	1	19
457.001	1	17
457.172	1	2
457.342	1	7
457.513	1	10
457.683	1	9
457.854	1	2
458.024	1	15
458.195	1	7
458.365	1	4
458.536	1	4
458.706	1	10
458.877	1	4
459.047	1	-2
459.218	1	13
459.388	1	9
459.559	1	8
459.729	1	7
459.899	1	17
460.070	1	22
460.240	1	12
460.411	1	6
460.581	1	13
460.752	1	8
460.922	1	6
461.093	1	16
461.263	1	16
461.434	1	8
461.604	1	3
461.775	1	2
461.945	1	13
462.115	1	-5
462.286	1	2
462.456	1	7
462.627	1	7
462.797	1	-3
462.968	1	9
463.138	1	16
463.309	1	6
463.479	1	12
463.649	1	10
463.820	1	13
463.990	1	8
464.161	1	5
464.331	1	8
464.502	1	15
464.672	1	10
464.843	1	11
465.013	1	0
465.183	1	5
465.354	1	0
465.524	1	9
465.695	1	12
465.865	1	5
466.036	1	3
466.206	1	7
466.376	1	8
466.547	1	3
466.717	1	-1
466.888	1	5
467.058	1	11
467.229	1	5
467.399	1	12
467.569	1	7
467.740	1	-7
467.910	1	5
468.081	1	5
468.251	1	1
468.422	1	4
468.592	1	18
468.762	1	-6
468.933	1	10
469.103	1	7
469.274	1	10
469.444	1	5
469.614	1	1
469.785	1	11
469.955	1	9
470.126	1	9
470.296	1	5
470.467	1	2
470.637	1	18
470.807	1	7
470.978	1	6
471.148	1	5
471.319	1	14
471.489	1	7
471.659	1	14
471.830	1	18
472.000	1	7
472.171	1	3
472.341	1	10
472.511	1	12
472.682	1	11
472.852	1	4
473.023	1	-2
473.193	1	-8
473.363	1	8
473.534	1	13
473.704	1	15
473.875	1	16
474.045	1	3
474.215	1	9
474.386	1	13
474.556	1	-1
474.727	1	6
474.897	1	4
475.067	1	-5
475.238	1	2
475.408	1	7
475.578	1	8
475.749	1	-7
475.919	1	4
476.090	1	2
476.260	1	4
476.430	1	10
476.601	1	2
476.771	1	13
476.942	1	5
477.112	1	6
477.282	1	-10
477.453	1	13
477.623	1	14
477.793	1	6
477.964	1	11
478.134	1	16
478.305	1	9
478.475	1	3
478.645	1	5
478.816	1	-4
478.986	1	7
479.156	1	15
479.327	1	6
479.497	1	-3
479.667	1	-2
479.838	1	3
480.008	1	7
480.179	1	6
480.349	1	4
480.519	1	19
480.690	1	9
480.860	1	2
481.030	1	4
481.201	1	6
481.371	1	6
481.541	1	6
481.712	1	10
481.882	1	-2
482.053	1	11
482.223	1	-2
482.393	1	-11
482.564	1	-1
482.734	1	13
482.904	1	9
483.075	1	6
483.245	1	5
483.415	1	18
483.586	1	-2
483.756	1	17
483.926	1	8
484.097	1	-1
484.267	1	-1
484.437	1	7
484.608	1	6
484.778	1	5
484.948	1	4
485.119	1	11
485.289	1	13
485.459	1	14
485.630	1	-1
485.800	1	3
485.970	1	12
486.141	1	1
486.311	1	13
486.481	1	8
486.652	1	7
486.822	1	8
486.992	1	8
487.163	1	-3
487.333	1	9
487.503	1	-1
487.674	1	2
487.844	1	10
488.014	1	-2
488.185	1	0
488.355	1	5
488.525	1	-1
488.696	1	-4
488.866	1	17
489.036	1	7
489.207	1	18
489.377	1	6
489.547	1	-2
489.718	1	2
489.888	1	10
490.058	1	3
490.228	1	-4
490.399	1	18
490.569	1	24
490.739	1	9
490.910	1	6
491.080	1	7
491.250	1	13
491.421	1	14
491.591	1	4
491.761	1	7
491.932	1	10
492.102	1	7
492.272	1	25
492.442	1	5
492.613	1	14
492.783	1	-2
492.953	1	13
493.124	1	1
493.294	1	25
493.464	1	6
493.635	1	9
493.805	1	22
493.975	1	6
494.145	1	-1
494.316	1	10
494.486	1	15
494.656	1	0
494.827	1	10
494.997	1	1
495.167	1	8
495.337	1	5
495.508	1	12
495.678	1	11
495.848	1	18
496.019	1	2
496.189	1	14
496.359	1	7
496.529	1	4
496.700	1	16
496.870	1	16
497.040	1	6
497.211	1	19
497.381	1	1
497.551	1	23
497.721	1	1
497.892	1	16
498.062	1	6
498.232	1	10
498.403	1	9
498.573	1	14
498.743	1	15
498.913	1	12
499.084	1	7
499.254	1	12
499.424	1	17
499.594	1	5
499.765	1	17
499.935	1	2
500.105	1	24
500.275	1	13
500.446	1	23
500.616	1	11
500.786	1	9
500.956	1	15
501.127	1	10
501.297	1	12
501.467	1	14
501.638	1	10
501.808	1	2
501.978	1	17
502.148	1	18
502.319	1	14
502.489	1	22
502.659	1	6
502.829	1	11
503.000	1	20
503.170	1	20
503.340	1	14
503.510	1	11
503.681	1	18
503.851	1	6
504.021	1	32
504.191	1	9
504.362	1	25
504.532	1	10
504.702	1	19
504.872	1	5
505.042	1	17
505.213	1	12
505.383	1	12
505.553	1	16
505.723	1	20
505.894	1	6
506.064	1	20
506.234	1	25
506.404	1	2
506.575	1	13
506.745	1	10
506.915	1	18
507.085	1	3
507.256	1	17
507.426	1	17
507.596	1	24
507.766	1	15
507.936	1	16
508.107	1	18
508.277	1	15
508.447	1	28
508.617	1	30
508.788	1	12
508.958	1	27
509.128	1	16
509.298	1	20
509.468	1	23
509.639	1	21
509.809	1	16
509.979	1	14
510.149	1	13
510.319	1	16
510.490	1	18
510.660	1	21
510.830	1	19
511.000	1	20
511.171	1	22
511.341	1	6
511.511	1	15
511.681	1	13
511.851	1	9
512.022	1	9
512.192	1	22
512.362	1	11
512.532	1	20
512.702	1	12
512.873	1	19
513.043	1	7
513.213	1	14
513.383	1	7
513.553	1	8
513.724	1	23
513.894	1	21
514.064	1	16
514.234	1	20
514.404	1	22
514.575	1	23
514.745	1	18
514.915	1	18
515.085	1	12
515.255	1	5
515.425	1	18
515.596	1	8
515.766	1	14
515.936	1	15
516.106	1	6
516.276	1	22
516.447	1	19
516.617	1	13
516.787	1	16
516.957	1	19
517.127	1	24
517.297	1	17
517.468	1	11
517.638	1	29
517.808	1	15
517.978	1	15
518.148	1	9
518.319	1	17
518.489	1	23
518.659	1	18
518.829	1	9
518.999	1	19
519.169	1	28
519.340	1	7
519.510	1	25
519.680	1	7
519.850	1	14
520.020	1	11
520.190	1	21
520.361	1	9
520.531	1	21
520.701	1	22
520.871	1	6
521.041	1	21
521.211	1	22
521.382	1	15
521.552	1	21
521.722	1	24
521.892	1	14
522.062	1	10
522.232	1	10
522.402	1	9
522.573	1	14
522.743	1	27
522.913	1	17
523.083	1	14
523.253	1	25
523.423	1	15
523.593	1	5
523.764	1	40
523.934	1	29
524.104	1	18
524.274	1	14
524.444	1	24
524.614	1	21
524.784	1	28
524.955	1	16
525.125	1	24
525.295	1	6
525.465	1	24
525.635	1	33
525.805	1	25
525.975	1	14
526.146	1	12
526.316	1	24
526.486	1	22
526.656	1	42
526.826	1	22
526.996	1	33
527.166	1	22
527.337	1	15
527.507	1	15
527.677	1	25
527.847	1	7
528.017	1	14
528.187	1	22
528.357	1	30
528.527	1	22
528.698	1	21
528.868	1	21
529.038	1	23
529.208	1	20
529.378	1	26
529.548	1	23
529.718	1	26
529.888	1	20
530.058	1	26
530.229	1	14
530.399	1	29
530.569	1	29
530.739	1	15
530.909	1	24
531.079	1	27
531.249	1	18
531.419	1	23
531.589	1	20
531.760	1	33
531.930	1	16
532.100	1	29
532.270	1	25
532.440	1	26
532.610	1	22
532.780	1	20
532.950	1	24
533.120	1	19
533.290	1	21
533.461	1	36
533.631	1	29
533.801	1	25
533.971	1	25
534.141	1	27
534.311	1	28
534.481	1	22
534.651	1	30
534.821	1	25
534.991	1	20
535.162	1	11
535.332	1	23
535.502	1	21
535.672	1	23
535.842	1	25
536.012	1	37
536.182	1	30
536.352	1	25
536.522	1	28
536.692	1	15
536.862	1	23
537.032	1	21
537.203	1	25
537.373	1	19
537.543	1	26
537.713	1	32
537.883	1	28
538.053	1	26
538.223	1	21
538.393	1	22
538.563	1	20
538.733	1	15
538.903	1	22
539.073	1	29
539.243	1	16
539.413	1	13
539.584	1	19
539.754	1	25
539.924	1	19
540.094	1	28
540.264	1	14
540.434	1	13
540.604	1	22
540.774	1	15
540.944	1	18
541.114	1	21
541.284	1	17
541.454	1	22
541.624	1	24
541.794	1	15
541.964	1	24
542.134	1	25
542.305	1	14
542.475	1	25
542.645	1	17
542.815	1	34
542.985	1	13
543.155	1	16
543.325	1	12
543.495	1	10
543.665	1	28
543.835	1	12
544.005	1	19
544.175	1	18
544.345	1	12
544.515	1	27
544.685	1	29
544.855	1	31
545.025	1	21
545.195	1	20
545.365	1	22
545.535	1	15
545.705	1	18
545.875	1	14
546.045	1	30
546.216	1	25
546.386	1	22
546.556	1	15
546.726	1	18
546.896	1	21
547.066	1	8
547.236	1	10
547.406	1	22
547.576	1	19
547.746	1	34
547.916	1	24
548.086	1	24
548.256	1	17
548.426	1	17
548.596	1	21
548.766	1	21
548.936	1	14
549.106	1	18
549.276	1	26
549.446	1	11
549.616	1	20
549.786	1	22
549.956	1	24
550.126	1	20
550.296	1	18
550.466	1	12
550.636	1	21
550.806	1	18
550.976	1	11
551.146	1	16
551.316	1	16
551.486	1	28
551.656	1	9
551.826	1	28
551.996	1	18
552.166	1	8
552.336	1	17
552.506	1	16
552.676	1	15
552.846	1	20
553.016	1	7
553.186	1	22
553.356	1	17
553.526	1	13
553.696	1	34
553.866	1	19
554.036	1	14
554.206	1	11
554.376	1	16
554.546	1	5
554.716	1	21
554.886	1	17
555.056	1	7
555.226	1	13
555.396	1	18
555.566	1	22
555.736	1	12
555.906	1	6
556.076	1	15
556.246	1	16
556.416	1	23
556.586	1	20
556.756	1	26
556.926	1	21
557.096	1	19
557.266	1	17
557.436	1	20
557.606	1	0
557.776	1	21
557.946	1	18
558.116	1	23
558.286	1	21
558.456	1	8
558.626	1	20
558.796	1	12
558.966	1	10
559.136	1	13
559.306	1	13
559.476	1	13
559.646	1	18
559.816	1	17
559.986	1	6
560.155	1	16
560.325	1	2
560.495	1	11
560.665	1	20
560.835	1	19
561.005	1	9
561.175	1	2
561.345	1	15
561.515	1	10
561.685	1	14
561.855	1	14
562.025	1	10
562.195	1	13
562.365	1	17
562.535	1	14
562.705	1	24
562.875	1	5
563.045	1	24
563.215	1	13
563.385	1	2
563.555	1	17
563.725	1	22
563.895	1	7
564.064	1	17
564.234	1	11
564.404	1	20
564.574	1	10
564.744	1	21
564.914	1	2
565.084	1	1
565.254	1	13
565.424	1	18
565.594	1	7
565.764	1	17
565.934	1	13
566.104	1	14
566.274	1	23
566.444	1	26
566.614	1	6
566.783	1	11
566.953	1	16
567.123	1	26
567.293	1	4
567.463	1	8
567.633	1	10
567.803	1	9
567.973	1	2
568.143	1	9
568.313	1	4
568.483	1	5
568.653	1	3
568.823	1	19
568.993	1	10
569.162	1	18
569.332	1	5
569.502	1	14
569.672	1	7
569.842	1	10
570.012	1	18
570.182	1	7
570.352	1	16
570.522	1	8
570.692	1	10
570.862	1	12
571.031	1	12
571.201	1	20
571.371	1	14
571.541	1	7
571.711	1	12
571.881	1	7
572.051	1	15
572.221	1	16
572.391	1	10
572.561	1	9
572.731	1	11
572.900	1	23
573.070	1	12
573.240	1	11
573.410	1	9
573.580	1	7
573.750	1	13
573.920	1	5
574.090	1	17
574.260	1	4
574.430	1	0
574.599	1	5
574.769	1	11
574.939	1	13
575.109	1	3
575.279	1	13
575.449	1	14
575.619	1	17
575.789	1	24
575.959	1	10
576.128	1	3
576.298	1	-10
576.468	1	-2
576.638	1	11
576.808	1	3
576.978	1	12
577.148	1	9
577.318	1	18
577.487	1	10
577.657	1	1
577.827	1	21
577.997	1	8
578.167	1	12
578.337	1	11
578.507	1	3
578.677	1	15
578.846	1	11
579.016	1	21
579.186	1	10
579.356	1	6
579.526	1	10
579.696	1	12
579.866	1	13
580.036	1	4
580.205	1	11
580.375	1	6
580.545	1	10
580.715	1	22
580.885	1	12
581.055	1	15
581.225	1	1
581.394	1	1
581.564	1	6
581.734	1	8
581.904	1	7
582.074	1	1
582.244	1	14
582.414	1	9
582.583	1	4
582.753	1	16
582.923	1	11
583.093	1	4
583.263	1	16
583.433	1	2
583.603	1	13
583.772	1	13
583.942	1	9
584.112	1	11
584.282	1	21
584.452	1	6
584.622	1	14
584.791	1	2
584.961	1	13
585.131	1	-2
585.301	1	16
585.471	1	-1
585.641	1	11
585.811	1	0
585.980	1	-4
586.150	1	12
586.320	1	7
586.490	1	1
586.660	1	19
586.830	1	1
586.999	1	4
587.169	1	6
587.339	1	4
587.509	1	12
587.679	1	9
587.849	1	21
588.018	1	13
588.188	1	1
588.358	1	8
588.528	1	8
588.698	1	3
588.867	1	16
589.037	1	10
589.207	1	7
589.377	1	8
589.547	1	10
589.717	1	8
589.886	1	2
590.056	1	6
590.226	1	14
590.396	1	2
590.566	1	6
590.735	1	22
590.905	1	10
591.075	1	-1
591.245	1	10
591.415	1	2
591.585	1	-2
591.754	1	6
591.924	1	4
592.094	1	15
592.264	1	9
592.434	1	5
592.603	1	-5
592.773	1	8
592.943	1	5
593.113	1	-3
593.283	1	7
593.452	1	-5
593.622	1	7
593.792	1	8
593.962	1	10
594.132	1	12
594.301	1	18
594.471	1	13
594.641	1	1
594.811	1	6
594.981	1	2
595.150	1	1
595.320	1	9
595.490	1	-1
595.660	1	-1
595.829	1	4
595.999	1	13
596.169	1	12
596.339	1	16
596.509	1	11
596.678	1	7
596.848	1	6
597.018	1	7
597.188	1	9
597.358	1	4
597.527	1	10
597.697	1	2
597.867	1	14
598.037	1	3
598.206	1	10
598.376	1	10
598.546	1	0
598.716	1	-4
598.885	1	7
599.055	1	7
599.225	1	5
599.395	1	10
599.565	1	12
599.734	1	13
599.904	1	3
600.074	1	8
600.244	1	17
600.413	1	4
600.583	1	5
600.753	1	7
600.923	1	22
601.092	1	-6
601.262	1	5
601.432	1	4
601.602	1	16
601.771	1	12
601.941	1	8
602.111	1	10
602.281	1	2
602.451	1	6
602.620	1	9
602.790	1	22
602.960	1	3
603.130	1	10
603.299	1	12
603.469	1	-4
603.639	1	8
603.809	1	3
603.978	1	1
604.148	1	5
604.318	1	9
604.487	1	18
604.657	1	3
604.827	1	-13
604.997	1	5
605.166	1	10
605.336	1	-6
605.506	1	11
605.676	1	1
605.845	1	7
606.015	1	2
606.185	1	8
606.355	1	9
606.524	1	-3
606.694	1	15
606.864	1	-2
607.034	1	1
607.203	1	11
607.373	1	2
607.543	1	-1
607.712	1	20
607.882	1	1
608.052	1	8
608.222	1	1
608.391	1	5
608.561	1	6
608.731	1	-2
608.901	1	9
609.070	1	12
609.240	1	-1
609.410	1	6
609.579	1	7
609.749	1	3
609.919	1	-4
610.089	1	-6
610.258	1	16
610.428	1	2
610.598	1	-1
610.767	1	2
610.937	1	4
611.107	1	4
611.277	1	11
611.446	1	5
611.616	1	0
611.786	1	11
611.955	1	11
612.125	1	8
612.295	1	5
612.465	1	-8
612.634	1	5
612.804	1	7
612.974	1	10
613.143	1	0
613.313	1	9
613.483	1	11
613.652	1	1
613.822	1	7
613.992	1	11
614.162	1	5
614.331	1	1
614.501	1	14
614.671	1	12
614.840	1	6
615.010	1	7
615.180	1	12
615.349	1	-3
615.519	1	13
615.689	1	8
615.858	1	4
616.028	1	2
616.198	1	9
616.368	1	-1
616.537	1	5
616.707	1	8
616.877	1	10
617.046	1	9
617.216	1	3
617.386	1	8
617.555	1	-1
617.725	1	11
617.895	1	2
618.064	1	5
618.234	1	7
618.404	1	14
618.573	1	10
618.743	1	13
618.913	1	-3
619.082	1	11
619.252	1	5
619.422	1	3
619.591	1	8
619.761	1	18
619.931	1	11
620.100	1	8
620.270	1	0
620.440	1	7
620.609	1	10
620.779	1	6
620.949	1	-1
621.118	1	4
621.288	1	14
621.458	1	10
621.627	1	-6
621.797	1	9
621.967	1	3
622.136	1	8
622.306	1	11
622.476	1	2
622.645	1	7
622.815	1	4
622.985	1	2
623.154	1	7
623.324	1	21
623.494	1	0
623.663	1	12
623.833	1	8
624.002	1	4
624.172	1	11
624.342	1	0
624.511	1	6
624.681	1	-1
624.851	1	3
625.020	1	10
625.190	1	-2
625.360	1	-3
625.529	1	12
625.699	1	-2
625.869	1	11
626.038	1	9
626.208	1	-3
626.377	1	25
626.547	1	16
626.717	1	-4
626.886	1	4
627.056	1	-5
627.226	1	1
627.395	1	5
627.565	1	14
627.735	1	7
627.904	1	14
628.074	1	15
628.243	1	0
628.413	1	3
628.583	1	3
628.752	1	18
628.922	1	3
629.091	1	10
629.261	1	4
629.431	1	-7
629.600	1	7
629.770	1	6
629.940	1	3
630.109	1	8
630.279	1	1
630.448	1	4
630.618	1	5
630.788	1	12
630.957	1	2
631.127	1	19
631.297	1	1
631.466	1	1
631.636	1	8
631.805	1	12
631.975	1	6
632.145	1	-4
632.314	1	17
632.484	1	-1
632.653	1	-1
632.823	1	17
632.993	1	11
633.162	1	-1
633.332	1	11
633.501	1	-1
633.671	1	3
633.841	1	15
634.010	1	14
634.180	1	11
634.349	1	7
634.519	1	6
634.689	1	6
634.858	1	12
635.028	1	-1
635.197	1	4
635.367	1	6
635.537	1	5
635.706	1	-17
635.876	1	7
636.045	1	11
636.215	1	6
636.384	1	6
636.554	1	6
636.724	1	-3
636.893	1	-1
637.063	1	12
637.232	1	7
637.402	1	12
637.572	1	0
637.741	1	6
637.911	1	2
638.080	1	9
638.250	1	1
638.419	1	10
638.589	1	12
638.759	1	4
638.928	1	7
639.098	1	9
639.267	1	1
639.437	1	-4
639.606	1	16
639.776	1	4
639.946	1	10
640.115	1	-3
640.285	1	6
640.454	1	10
640.624	1	6
640.793	1	9
640.963	1	-3
641.132	1	15
641.302	1	2
641.472	1	0
641.641	1	0
641.811	1	7
641.980	1	4
642.150	1	3
642.319	1	4
642.489	1	2
642.659	1	0
642.828	1	7
642.998	1	-6
643.167	1	10
643.337	1	3
643.506	1	9
643.676	1	5
643.845	1	3
644.015	1	6
644.184	1	12
644.354	1	6
644.524	1	-3
644.693	1	4
644.863	1	-2
645.032	1	2
645.202	1	12
645.371	1	-1
645.541	1	-5
645.710	1	3
645.880	1	4
646.049	1	14
646.219	1	11
646.388	1	8
646.558	1	-8
646.728	1	11
646.897	1	2
647.067	1	3
647.236	1	5
647.406	1	3
647.575	1	7
647.745	1	10
647.914	1	-6
648.084	1	-2
648.253	1	11
648.423	1	4
648.592	1	8
648.762	1	2
648.931	1	18
649.101	1	6
649.270	1	14
649.440	1	-7
649.610	1	13
649.779	1	4
649.949	1	6
650.118	1	-6
650.288	1	0
650.457	1	5
650.627	1	11
650.796	1	-1
650.966	1	-2
651.135	1	2
651.305	1	-1
651.474	1	8
651.644	1	0
651.813	1	17
651.983	1	4
652.152	1	12
652.322	1	3
652.491	1	6
652.661	1	9
652.830	1	13
653.000	1	6
653.169	1	7
653.339	1	4
653.508	1	-1
653.678	1	7
653.847	1	11
654.017	1	5
654.186	1	4
654.356	1	16
654.525	1	8
654.695	1	10
654.864	1	11
655.034	1	6
655.203	1	4
655.373	1	10
655.542	1	8
655.712	1	6
655.881	1	9
656.051	1	10
656.220	1	0
656.390	1	8
656.559	1	-2
656.729	1	2
656.898	1	5
657.068	1	3
657.237	1	7
657.406	1	7
657.576	1	5
657.745	1	2
657.915	1	7
658.084	1	8
658.254	1	11
658.423	1	-10
658.593	1	-3
658.762	1	-9
658.932	1	10
659.101	1	2
659.271	1	5
659.440	1	8
659.610	1	0
659.779	1	1
659.949	1	-10
660.118	1	11
660.288	1	8
660.457	1	-2
660.626	1	1
660.796	1	0
660.965	1	5
661.135	1	1
661.304	1	3
661.474	1	-1
661.643	1	-4
661.813	1	8
661.982	1	6
662.152	1	3
662.321	1	3
662.491	1	7
662.660	1	6
662.829	1	-6
662.999	1	2
663.168	1	-7
663.338	1	3
663.507	1	3
663.677	1	-1
663.846	1	18
664.016	1	-1
664.185	1	0
664.354	1	16
664.524	1	-5
664.693	1	4
664.863	1	1
665.032	1	5
665.202	1	3
665.371	1	13
665.541	1	5
665.710	1	3
665.879	1	7
666.049	1	-1
666.218	1	-7
666.388	1	-4
666.557	1	1
666.727	1	-12
666.896	1	4
667.065	1	5
667.235	1	2
667.404	1	-1
667.574	1	9
667.743	1	1
667.913	1	6
668.082	1	8
668.251	1	7
668.421	1	-1
668.590	1	-1
668.760	1	6
668.929	1	3
669.099	1	2
669.268	1	-2
669.437	1	1
669.607	1	-6
669.776	1	10
669.946	1	14
670.115	1	2
670.285	1	7
670.454	1	-1
670.623	1	12
670.793	1	6
670.962	1	3
671.132	1	7
671.301	1	2
671.470	1	5
671.640	1	-8
671.809	1	0
671.979	1	15
672.148	1	13
672.317	1	5
672.487	1	1
672.656	1	2
672.826	1	-12
672.995	1	-1
673.164	1	10
673.334	1	9
673.503	1	1
673.673	1	28
673.842	1	4
674.011	1	12
674.181	1	-3
674.350	1	3
674.520	1	2
674.689	1	5
674.858	1	12
675.028	1	9
675.197	1	4
675.367	1	8
675.536	1	8
675.705	1	-6
675.875	1	4
676.044	1	0
676.214	1	5
676.383	1	2
676.552	1	0
676.722	1	0
676.891	1	-7
677.060	1	5
677.230	1	18
677.399	1	2
677.569	1	-1
677.738	1	-1
677.907	1	-4
678.077	1	10
678.246	1	1
678.416	1	4
678.585	1	7
678.754	1	3
678.924	1	8
679.093	1	1
679.262	1	4
679.432	1	-5
679.601	1	-4
679.771	1	2
679.940	1	2
680.109	1	8
680.279	1	-8
680.448	1	2
680.617	1	-3
680.787	1	-1
680.956	1	-4
681.125	1	7
681.295	1	13
681.464	1	-1
681.634	1	8
681.803	1	-13
681.972	1	-4
682.142	1	19
682.311	1	1
682.480	1	-5
682.650	1	-2
682.819	1	-5
682.988	1	1
683.158	1	8
683.327	1	13
683.496	1	-3
683.666	1	11
683.835	1	-1
684.004	1	10
684.174	1	1
684.343	1	-8
684.512	1	2
684.682	1	2
684.851	1	-2
685.021	1	10
685.190	1	13
685.359	1	-5
685.529	1	4
685.698	1	8
685.867	1	2
686.037	1	2
686.206	1	0
686.375	1	4
686.545	1	9
686.714	1	-1
686.883	1	3
687.053	1	12
687.222	1	-5
687.391	1	5
687.561	1	0
687.730	1	-5
687.899	1	3
688.069	1	1
688.238	1	1
688.407	1	9
688.577	1	4
688.746	1	6
