340.368	1	5
340.539	1	2
340.710	1	0
340.881	1	2
341.052	1	4
341.223	1	9
341.394	1	-6
341.565	1	6
341.737	1	6
341.908	1	0
342.079	1	4
342.250	1	9
342.421	1	-7
342.592	1	2
342.763	1	-2
342.934	1	8
343.105	1	17
343.276	1	-3
343.447	1	14
343.618	1	0
343.789	1	1
343.960	1	-4
344.131	1	9
344.302	1	2
344.473	1	3
344.644	1	-11
344.815	1	12
344.986	1	9
345.157	1	4
345.328	1	-7
345.499	1	7
345.670	1	11
345.841	1	10
346.012	1	5
346.183	1	-3
346.354	1	1
346.526	1	11
346.697	1	5
346.868	1	-2
347.039	1	4
347.210	1	-6
347.381	1	-2
347.552	1	2
347.723	1	5
347.894	1	5
348.065	1	6
348.236	1	9
348.407	1	-2
348.578	1	-1
348.749	1	2
348.920	1	3
349.091	1	-1
349.262	1	-5
349.433	1	6
349.604	1	11
349.775	1	9
349.946	1	7
350.117	1	12
350.288	1	-2
350.459	1	7
350.630	1	-1
350.801	1	3
350.972	1	1
351.143	1	-4
351.314	1	0
351.485	1	2
351.656	1	2
351.827	1	-4
351.998	1	-6
352.169	1	16
352.340	1	4
352.511	1	-6
352.682	1	4
352.853	1	-1
353.024	1	-8
353.195	1	-6
353.366	1	10
353.537	1	2
353.708	1	8
353.879	1	6
354.050	1	8
354.221	1	-7
354.392	1	3
354.563	1	1
354.734	1	9
354.905	1	7
355.076	1	3
355.247	1	-9
355.418	1	5
355.589	1	4
355.760	1	1
355.931	1	7
356.102	1	-3
356.273	1	-6
356.444	1	10
356.615	1	9
356.785	1	14
356.956	1	-5
357.127	1	12
357.298	1	-2
357.469	1	3
357.640	1	10
357.811	1	13
357.982	1	1
358.153	1	4
358.324	1	1
358.495	1	15
358.666	1	0
358.837	1	3
359.008	1	-7
359.179	1	4
359.350	1	0
359.521	1	4
359.692	1	11
359.863	1	0
360.034	1	3
360.205	1	-4
360.376	1	7
360.547	1	5
360.718	1	2
360.889	1	16
361.060	1	12
361.231	1	1
361.401	1	12
361.572	1	0
361.743	1	3
361.914	1	4
362.085	1	3
362.256	1	11
362.427	1	9
362.598	1	9
362.769	1	-1
362.940	1	8
363.111	1	8
363.282	1	2
363.453	1	4
363.624	1	15
363.795	1	0
363.966	1	9
364.137	1	5
364.308	1	3
364.478	1	13
364.649	1	9
364.820	1	9
364.991	1	18
365.162	1	3
365.333	1	16
365.504	1	2
365.675	1	9
365.846	1	8
366.017	1	7
366.188	1	-1
366.359	1	5
366.530	1	14
366.701	1	6
366.871	1	25
367.042	1	17
367.213	1	10
367.384	1	20
367.555	1	8
367.726	1	16
367.897	1	4
368.068	1	14
368.239	1	10
368.410	1	13
368.581	1	16
368.752	1	5
368.923	1	-6
369.093	1	5
369.264	1	7
369.435	1	4
369.606	1	8
369.777	1	0
369.948	1	12
370.119	1	11
370.290	1	12
370.461	1	13
370.632	1	5
370.803	1	-2
370.973	1	19
371.144	1	9
371.315	1	5
371.486	1	15
371.657	1	6
371.828	1	13
371.999	1	2
372.170	1	17
372.341	1	13
372.512	1	4
372.682	1	4
372.853	1	9
373.024	1	5
373.195	1	3
373.366	1	6
373.537	1	6
373.708	1	1
373.879	1	19
374.050	1	4
374.220	1	5
374.391	1	4
374.562	1	4
374.733	1	11
374.904	1	7
375.075	1	10
375.246	1	-2
375.417	1	5
375.588	1	10
375.758	1	4
375.929	1	12
376.100	1	14
376.271	1	6
376.442	1	4
376.613	1	1
376.784	1	2
376.955	1	1
377.125	1	-2
377.296	1	0
377.467	1	1
377.638	1	2
377.809	1	14
377.980	1	16
378.151	1	-1
378.321	1	8
378.492	1	13
378.663	1	0
378.834	1	5
379.005	1	6
379.176	1	8
379.347	1	4
379.518	1	-4
379.688	1	-1
379.859	1	6
380.030	1	-2
380.201	1	-6
380.372	1	12
380.543	1	16
380.714	1	7
380.884	1	-8
381.055	1	10
381.226	1	5
381.397	1	4
381.568	1	9
381.739	1	15
381.910	1	10
382.080	1	-5
382.251	1	9
382.422	1	20
382.593	1	11
382.764	1	4
382.935	1	18
383.105	1	7
383.276	1	-2
383.447	1	18
383.618	1	14
383.789	1	13
383.960	1	8
384.130	1	-2
384.301	1	6
384.472	1	10
384.643	1	16
384.814	1	15
384.985	1	19
385.156	1	16
385.326	1	15
385.497	1	21
385.668	1	5
385.839	1	16
386.010	1	13
386.180	1	11
386.351	1	13
386.522	1	12
386.693	1	10
386.864	1	5
387.035	1	8
387.205	1	10
387.376	1	26
387.547	1	17
387.718	1	22
387.889	1	17
388.060	1	0
388.230	1	14
388.401	1	29
388.572	1	12
388.743	1	8
388.914	1	22
389.084	1	23
389.255	1	17
389.426	1	15
389.597	1	7
389.768	1	11
389.939	1	15
390.109	1	8
390.280	1	17
390.451	1	28
390.622	1	13
390.793	1	18
390.963	1	19
391.134	1	14
391.305	1	26
391.476	1	12
391.647	1	14
391.817	1	8
391.988	1	4
392.159	1	12
392.330	1	18
392.501	1	15
392.671	1	21
392.842	1	20
393.013	1	19
393.184	1	21
393.355	1	27
393.525	1	19
393.696	1	6
393.867	1	9
394.038	1	5
394.208	1	5
394.379	1	0
394.550	1	18
394.721	1	11
394.892	1	16
395.062	1	4
395.233	1	18
395.404	1	6
395.575	1	5
395.746	1	-6
395.916	1	13
396.087	1	15
396.258	1	7
396.429	1	18
396.599	1	16
396.770	1	11
396.941	1	20
397.112	1	7
397.283	1	16
397.453	1	2
397.624	1	15
397.795	1	20
397.966	1	16
398.136	1	14
398.307	1	12
398.478	1	11
398.649	1	19
398.819	1	21
398.990	1	18
399.161	1	14
399.332	1	16
399.503	1	9
399.673	1	14
399.844	1	13
400.015	1	14
400.186	1	13
400.356	1	-1
400.527	1	9
400.698	1	12
400.869	1	19
401.039	1	5
401.210	1	7
401.381	1	10
401.552	1	26
401.722	1	14
401.893	1	13
402.064	1	15
402.235	1	10
402.405	1	8
402.576	1	12
402.747	1	2
402.918	1	3
403.088	1	9
403.259	1	8
403.430	1	4
403.601	1	6
403.771	1	15
403.942	1	13
404.113	1	26
404.284	1	7
404.454	1	19
404.625	1	1
404.796	1	6
404.967	1	9
405.137	1	15
405.308	1	6
405.479	1	7
405.649	1	8
405.820	1	6
405.991	1	15
406.162	1	10
406.332	1	-1
406.503	1	6
406.674	1	4
406.845	1	17
407.015	1	3
407.186	1	15
407.357	1	19
407.527	1	10
407.698	1	-3
407.869	1	7
408.040	1	2
408.210	1	-2
408.381	1	6
408.552	1	11
408.722	1	5
408.893	1	9
409.064	1	6
409.235	1	8
409.405	1	10
409.576	1	3
409.747	1	9
409.917	1	2
410.088	1	12
410.259	1	12
410.430	1	13
410.600	1	13
410.771	1	8
410.942	1	3
411.112	1	13
411.283	1	-4
411.454	1	14
411.625	1	5
411.795	1	14
411.966	1	13
412.137	1	16
412.307	1	4
412.478	1	14
412.649	1	2
412.819	1	9
412.990	1	10
413.161	1	1
413.332	1	6
413.502	1	4
413.673	1	5
413.844	1	12
414.014	1	7
414.185	1	11
414.356	1	0
414.526	1	-2
414.697	1	9
414.868	1	11
415.038	1	7
415.209	1	8
415.380	1	10
415.550	1	1
415.721	1	5
415.892	1	1
416.063	1	22
416.233	1	7
416.404	1	6
416.575	1	4
416.745	1	-1
416.916	1	11
417.087	1	1
417.257	1	7
417.428	1	2
417.599	1	8
417.769	1	9
417.940	1	-7
418.111	1	15
418.281	1	5
418.452	1	3
418.623	1	2
418.793	1	13
418.964	1	9
419.135	1	15
419.305	1	7
419.476	1	11
419.647	1	9
419.817	1	-5
419.988	1	-2
420.159	1	-2
420.329	1	12
420.500	1	13
420.671	1	1
420.841	1	17
421.012	1	16
421.183	1	-1
421.353	1	6
421.524	1	8
421.695	1	9
421.865	1	2
422.036	1	7
422.206	1	-2
422.377	1	9
422.548	1	6
422.718	1	8
422.889	1	21
423.060	1	-3
423.230	1	4
423.401	1	5
423.572	1	1
423.742	1	-1
423.913	1	12
424.084	1	7
424.254	1	8
424.425	1	4
424.595	1	-2
424.766	1	14
424.937	1	4
425.107	1	9
425.278	1	-3
425.449	1	8
425.619	1	7
425.790	1	9
425.961	1	9
426.131	1	5
426.302	1	7
426.472	1	1
426.643	1	3
426.814	1	7
426.984	1	11
427.155	1	9
427.326	1	10
427.496	1	17
427.667	1	11
427.837	1	-6
428.008	1	5
428.179	1	2
428.349	1	2
428.520	1	5
428.691	1	7
428.861	1	9
429.032	1	10
429.202	1	9
429.373	1	-4
429.544	1	2
429.714	1	14
429.885	1	1
430.055	1	12
430.226	1	3
430.397	1	0
430.567	1	18
430.738	1	1
430.909	1	0
431.079	1	-4
431.250	1	-4
431.420	1	-2
431.591	1	15
431.762	1	15
431.932	1	10
432.103	1	12
432.273	1	8
432.444	1	5
432.615	1	5
432.785	1	-4
432.956	1	-6
433.126	1	10
433.297	1	15
433.468	1	4
433.638	1	6
433.809	1	8
433.979	1	4
434.150	1	-5
434.320	1	13
434.491	1	6
434.662	1	1
434.832	1	-3
435.003	1	6
435.173	1	3
435.344	1	8
435.515	1	11
435.685	1	11
435.856	1	-3
436.026	1	8
436.197	1	9
436.368	1	-11
436.538	1	11
436.709	1	-3
436.879	1	7
437.050	1	-2
437.220	1	11
437.391	1	10
437.562	1	16
437.732	1	3
437.903	1	2
438.073	1	8
438.244	1	-2
438.414	1	6
438.585	1	12
438.756	1	8
438.926	1	6
439.097	1	17
439.267	1	11
439.438	1	17
439.608	1	6
439.779	1	4
439.949	1	0
440.120	1	2
440.291	1	-8
440.461	1	3
440.632	1	10
440.802	1	15
440.973	1	8
441.143	1	9
441.314	1	5
441.485	1	3
441.655	1	16
441.826	1	-4
441.996	1	3
442.167	1	-1
442.337	1	7
442.508	1	-3
442.678	1	-7
442.849	1	11
443.019	1	4
443.190	1	-10
443.361	1	12
443.531	1	10
443.702	1	-5
443.872	1	3
444.043	1	7
444.213	1	0
444.384	1	2
444.554	1	-5
444.725	1	6
444.895	1	2
445.066	1	-9
445.237	1	4
445.407	1	-2
445.578	1	4
445.748	1	0
445.919	1	1
446.089	1	6
446.260	1	11
446.430	1	3
446.601	1	-8
446.771	1	-9
446.942	1	7
447.112	1	2
447.283	1	-4
447.453	1	-6
447.624	1	13
447.794	1	-6
447.965	1	-1
448.135	1	-3
448.306	1	6
448.477	1	0
448.647	1	10
448.818	1	12
448.988	1	-9
449.159	1	-9
449.329	1	-3
449.500	1	20
449.670	1	8
449.841	1	1
450.011	1	12
450.182	1	0
450.352	1	10
450.523	1	0
450.693	1	5
450.864	1	7
451.034	1	-2
451.205	1	4
451.375	1	14
451.546	1	9
451.716	1	0
451.887	1	-2
452.057	1	11
452.228	1	-11
452.398	1	14
452.569	1	6
452.739	1	11
452.910	1	-4
453.080	1	13
453.251	1	-1
453.421	1	1
453.592	1	1
453.762	1	7
453.933	1	-2
454.103	1	8
454.274	1	4
454.444	1	10
454.615	1	16
454.785	1	-5
454.956	1	-1
455.126	1	4
455.297	1	0
455.467	1	0
455.638	1	2
455.808	1	3
455.979	1	10
456.149	1	-11
456.320	1	0
456.490	1	7
456.661	1	7
456.831	1	3
457.001	1	-2
457.172	1	1
457.342	1	2
457.513	1	13
457.683	1	9
457.854	1	4
458.024	1	5
458.195	1	3
458.365	1	1
458.536	1	0
458.706	1	-1
458.877	1	-5
459.047	1	2
459.218	1	6
459.388	1	13
459.559	1	11
459.729	1	3
459.899	1	17
460.070	1	11
460.240	1	6
460.411	1	5
460.581	1	3
460.752	1	4
460.922	1	-5
461.093	1	1
461.263	1	17
461.434	1	9
461.604	1	4
461.775	1	-4
461.945	1	5
462.115	1	-7
462.286	1	12
462.456	1	-8
462.627	1	-3
462.797	1	0
462.968	1	-3
463.138	1	16
463.309	1	6
463.479	1	5
463.649	1	4
463.820	1	2
463.990	1	8
464.161	1	6
464.331	1	17
464.502	1	7
464.672	1	0
464.843	1	9
465.013	1	-5
465.183	1	4
465.354	1	9
465.524	1	16
465.695	1	11
465.865	1	-1
466.036	1	0
466.206	1	-5
466.376	1	1
466.547	1	5
466.717	1	-2
466.888	1	6
467.058	1	12
467.229	1	3
467.399	1	6
467.569	1	5
467.740	1	-1
467.910	1	4
468.081	1	3
468.251	1	-6
468.422	1	-2
468.592	1	14
468.762	1	-8
468.933	1	7
469.103	1	-4
469.274	1	-6
469.444	1	-3
469.614	1	3
469.785	1	3
469.955	1	8
470.126	1	8
470.296	1	-1
470.467	1	2
470.637	1	11
470.807	1	0
470.978	1	7
471.148	1	1
471.319	1	8
471.489	1	4
471.659	1	6
471.830	1	19
472.000	1	7
472.171	1	0
472.341	1	2
472.511	1	14
472.682	1	10
472.852	1	5
473.023	1	-1
473.193	1	-2
473.363	1	3
473.534	1	0
473.704	1	7
473.875	1	9
474.045	1	3
474.215	1	-8
474.386	1	12
474.556	1	-9
474.727	1	5
474.897	1	3
475.067	1	3
475.238	1	-8
475.408	1	11
475.578	1	4
475.749	1	7
475.919	1	-3
476.090	1	-1
476.260	1	5
476.430	1	3
476.601	1	-4
476.771	1	4
476.942	1	-13
477.112	1	-1
477.282	1	1
477.453	1	-1
477.623	1	6
477.793	1	11
477.964	1	8
478.134	1	10
478.305	1	0
478.475	1	4
478.645	1	-1
478.816	1	-2
478.986	1	2
479.156	1	7
479.327	1	7
479.497	1	0
479.667	1	0
479.838	1	5
480.008	1	9
480.179	1	6
480.349	1	-8
480.519	1	3
480.690	1	3
480.860	1	0
481.030	1	5
481.201	1	-5
481.371	1	3
481.541	1	0
481.712	1	2
481.882	1	-11
482.053	1	15
482.223	1	-6
482.393	1	-6
482.564	1	-6
482.734	1	-4
482.904	1	12
483.075	1	8
483.245	1	-1
483.415	1	4
483.586	1	2
483.756	1	8
483.926	1	7
484.097	1	-6
484.267	1	-2
484.437	1	-6
484.608	1	6
484.778	1	7
484.948	1	-1
485.119	1	3
485.289	1	4
485.459	1	9
485.630	1	-8
485.800	1	-3
485.970	1	2
486.141	1	-2
486.311	1	5
486.481	1	1
486.652	1	10
486.822	1	6
486.992	1	-2
487.163	1	-5
487.333	1	8
487.503	1	-6
487.674	1	6
487.844	1	-1
488.014	1	11
488.185	1	0
488.355	1	2
488.525	1	3
488.696	1	-6
488.866	1	7
489.036	1	10
489.207	1	10
489.377	1	-1
489.547	1	4
489.718	1	0
489.888	1	5
490.058	1	5
490.228	1	-2
490.399	1	20
490.569	1	1
490.739	1	4
490.910	1	-3
491.080	1	4
491.250	1	2
491.421	1	-3
491.591	1	-1
491.761	1	-1
491.932	1	7
492.102	1	0
492.272	1	15
492.442	1	14
492.613	1	15
492.783	1	-7
492.953	1	4
493.124	1	-4
493.294	1	3
493.464	1	5
493.635	1	3
493.805	1	12
493.975	1	6
494.145	1	8
494.316	1	7
494.486	1	-1
494.656	1	9
494.827	1	-2
494.997	1	5
495.167	1	6
495.337	1	7
495.508	1	-3
495.678	1	15
495.848	1	10
496.019	1	6
496.189	1	1
496.359	1	5
496.529	1	2
496.700	1	-2
496.870	1	3
497.040	1	8
497.211	1	11
497.381	1	-9
497.551	1	13
497.721	1	-5
497.892	1	6
498.062	1	3
498.232	1	2
498.403	1	9
498.573	1	-2
498.743	1	9
498.913	1	3
499.084	1	-3
499.254	1	5
499.424	1	13
499.594	1	17
499.765	1	-1
499.935	1	4
500.105	1	-6
500.275	1	10
500.446	1	6
500.616	1	5
500.786	1	8
500.956	1	6
501.127	1	14
501.297	1	4
501.467	1	8
501.638	1	12
501.808	1	-1
501.978	1	11
502.148	1	5
502.319	1	12
502.489	1	16
502.659	1	3
502.829	1	9
503.000	1	16
503.170	1	5
503.340	1	-8
503.510	1	-6
503.681	1	4
503.851	1	-14
504.021	1	24
504.191	1	0
504.362	1	12
504.532	1	6
504.702	1	9
504.872	1	4
505.042	1	7
505.213	1	1
505.383	1	5
505.553	1	11
505.723	1	2
505.894	1	14
506.064	1	14
506.234	1	3
506.404	1	3
506.575	1	-6
506.745	1	2
506.915	1	0
507.085	1	-11
507.256	1	2
507.426	1	5
507.596	1	13
507.766	1	7
507.936	1	15
508.107	1	9
508.277	1	10
508.447	1	1
508.617	1	17
508.788	1	-2
508.958	1	13
509.128	1	6
509.298	1	24
509.468	1	13
509.639	1	12
509.809	1	12
509.979	1	0
510.149	1	10
510.319	1	1
510.490	1	9
510.660	1	11
510.830	1	5
511.000	1	11
511.171	1	16
511.341	1	-5
511.511	1	0
511.681	1	9
511.851	1	1
512.022	1	8
512.192	1	8
512.362	1	1
512.532	1	-1
512.702	1	-2
512.873	1	25
513.043	1	5
513.213	1	4
513.383	1	-6
513.553	1	5
513.724	1	12
513.894	1	2
514.064	1	11
514.234	1	7
514.404	1	4
514.575	1	8
514.745	1	4
514.915	1	2
515.085	1	10
515.255	1	0
515.425	1	-4
515.596	1	-2
515.766	1	11
515.936	1	8
516.106	1	0
516.276	1	8
516.447	1	17
516.617	1	7
516.787	1	3
516.957	1	6
517.127	1	14
517.297	1	7
517.468	1	-1
517.638	1	9
517.808	1	5
517.978	1	-1
518.148	1	4
518.319	1	1
518.489	1	11
518.659	1	6
518.829	1	4
518.999	1	6
519.169	1	17
519.340	1	11
519.510	1	12
519.680	1	6
519.850	1	-4
520.020	1	3
520.190	1	1
520.361	1	5
520.531	1	3
520.701	1	16
520.871	1	4
521.041	1	8
521.211	1	15
521.382	1	2
521.552	1	8
521.722	1	10
521.892	1	-4
522.062	1	4
522.232	1	-8
522.402	1	-2
522.573	1	12
522.743	1	7
522.913	1	12
523.083	1	7
523.253	1	11
523.423	1	6
523.593	1	2
523.764	1	13
523.934	1	13
524.104	1	0
524.274	1	2
524.444	1	8
524.614	1	11
524.784	1	10
524.955	1	4
525.125	1	15
525.295	1	-4
525.465	1	1
525.635	1	21
525.805	1	18
525.975	1	6
526.146	1	5
526.316	1	16
526.486	1	9
526.656	1	21
526.826	1	12
526.996	1	18
527.166	1	2
527.337	1	5
527.507	1	7
527.677	1	24
527.847	1	5
528.017	1	1
528.187	1	1
528.357	1	7
528.527	1	5
528.698	1	-1
528.868	1	5
529.038	1	19
529.208	1	-1
529.378	1	9
529.548	1	12
529.718	1	3
529.888	1	11
530.058	1	14
530.229	1	12
530.399	1	18
530.569	1	13
530.739	1	7
530.909	1	5
531.079	1	14
531.249	1	3
531.419	1	19
531.589	1	-1
531.760	1	19
531.930	1	3
532.100	1	5
532.270	1	13
532.440	1	12
532.610	1	5
532.780	1	4
532.950	1	10
533.120	1	3
533.290	1	-6
533.461	1	25
533.631	1	8
533.801	1	0
533.971	1	4
534.141	1	18
534.311	1	5
534.481	1	4
534.651	1	3
534.821	1	18
534.991	1	0
535.162	1	19
535.332	1	5
535.502	1	6
535.672	1	4
535.842	1	4
536.012	1	14
536.182	1	3
536.352	1	19
536.522	1	3
536.692	1	4
536.862	1	18
537.032	1	8
537.203	1	19
537.373	1	-6
537.543	1	16
537.713	1	15
537.883	1	10
538.053	1	13
538.223	1	13
538.393	1	12
538.563	1	7
538.733	1	0
538.903	1	6
539.073	1	5
539.243	1	8
539.413	1	-6
539.584	1	6
539.754	1	11
539.924	1	10
540.094	1	15
540.264	1	7
540.434	1	7
540.604	1	14
540.774	1	5
540.944	1	6
541.114	1	-1
541.284	1	11
541.454	1	11
541.624	1	7
541.794	1	3
541.964	1	12
542.134	1	22
542.305	1	-3
542.475	1	4
542.645	1	-1
542.815	1	14
542.985	1	6
543.155	1	6
543.325	1	1
543.495	1	8
543.665	1	15
543.835	1	4
544.005	1	8
544.175	1	0
544.345	1	0
544.515	1	6
544.685	1	14
544.855	1	16
545.025	1	-5
545.195	1	3
545.365	1	12
545.535	1	4
545.705	1	9
545.875	1	5
546.045	1	11
546.216	1	17
546.386	1	12
546.556	1	3
546.726	1	4
546.896	1	6
547.066	1	3
547.236	1	-5
547.406	1	11
547.576	1	6
547.746	1	16
547.916	1	9
548.086	1	7
548.256	1	14
548.426	1	4
548.596	1	8
548.766	1	17
548.936	1	2
549.106	1	5
549.276	1	3
549.446	1	10
549.616	1	17
549.786	1	7
549.956	1	14
550.126	1	7
550.296	1	19
550.466	1	5
550.636	1	10
550.806	1	7
550.976	1	12
551.146	1	-6
551.316	1	7
551.486	1	9
551.656	1	-11
551.826	1	3
551.996	1	16
552.166	1	14
552.336	1	11
552.506	1	-4
552.676	1	2
552.846	1	19
553.016	1	8
553.186	1	9
553.356	1	1
553.526	1	9
553.696	1	17
553.866	1	11
554.036	1	6
554.206	1	2
554.376	1	-3
554.546	1	-4
554.716	1	8
554.886	1	11
555.056	1	-3
555.226	1	-9
555.396	1	8
555.566	1	8
555.736	1	2
555.906	1	4
556.076	1	6
556.246	1	3
556.416	1	14
556.586	1	8
556.756	1	11
556.926	1	4
557.096	1	0
557.266	1	3
557.436	1	22
557.606	1	-11
557.776	1	8
557.946	1	9
558.116	1	10
558.286	1	8
558.456	1	10
558.626	1	17
558.796	1	3
558.966	1	6
559.136	1	7
559.306	1	2
559.476	1	5
559.646	1	4
559.816	1	10
559.986	1	6
560.155	1	4
560.325	1	-5
560.495	1	11
560.665	1	9
560.835	1	8
561.005	1	12
561.175	1	8
561.345	1	4
561.515	1	4
561.685	1	4
561.855	1	9
562.025	1	7
562.195	1	8
562.365	1	16
562.535	1	12
562.705	1	20
562.875	1	6
563.045	1	15
563.215	1	1
563.385	1	5
563.555	1	9
563.725	1	12
563.895	1	4
564.064	1	17
564.234	1	6
564.404	1	-3
564.574	1	8
564.744	1	6
564.914	1	-14
565.084	1	-4
565.254	1	7
565.424	1	4
565.594	1	7
565.764	1	12
565.934	1	11
566.104	1	-3
566.274	1	4
566.444	1	13
566.614	1	-4
566.783	1	12
566.953	1	3
567.123	1	17
567.293	1	-1
567.463	1	9
567.633	1	6
567.803	1	3
567.973	1	4
568.143	1	-6
568.313	1	6
568.483	1	3
568.653	1	-7
568.823	1	8
568.993	1	-1
569.162	1	2
569.332	1	-6
569.502	1	9
569.672	1	7
569.842	1	-3
570.012	1	3
570.182	1	-8
570.352	1	3
570.522	1	12
570.692	1	5
570.862	1	6
571.031	1	5
571.201	1	11
571.371	1	4
571.541	1	3
571.711	1	13
571.881	1	6
572.051	1	7
572.221	1	11
572.391	1	11
572.561	1	-4
572.731	1	-7
572.900	1	14
573.070	1	11
573.240	1	-4
573.410	1	-1
573.580	1	5
573.750	1	-2
573.920	1	-1
574.090	1	16
574.260	1	-4
574.430	1	-10
574.599	1	-5
574.769	1	-4
574.939	1	-1
575.109	1	0
575.279	1	15
575.449	1	1
575.619	1	9
575.789	1	0
575.959	1	3
576.128	1	9
576.298	1	-5
576.468	1	-1
576.638	1	4
576.808	1	-13
576.978	1	-1
577.148	1	8
577.318	1	9
577.487	1	-1
577.657	1	1
577.827	1	11
577.997	1	4
578.167	1	10
578.337	1	4
578.507	1	-1
578.677	1	-2
578.846	1	-1
579.016	1	21
579.186	1	-1
579.356	1	2
579.526	1	4
579.696	1	0
579.866	1	6
580.036	1	-3
580.205	1	1
580.375	1	4
580.545	1	-2
580.715	1	16
580.885	1	11
581.055	1	12
581.225	1	2
581.394	1	-1
581.564	1	-2
581.734	1	3
581.904	1	10
582.074	1	5
582.244	1	1
582.414	1	8
582.583	1	0
582.753	1	5
582.923	1	4
583.093	1	-3
583.263	1	10
583.433	1	-7
583.603	1	5
583.772	1	3
583.942	1	10
584.112	1	13
584.282	1	13
584.452	1	2
584.622	1	4
584.791	1	-1
584.961	1	14
585.131	1	8
585.301	1	8
585.471	1	2
585.641	1	5
585.811	1	1
585.980	1	-9
586.150	1	1
586.320	1	2
586.490	1	0
586.660	1	3
586.830	1	-1
586.999	1	4
587.169	1	-3
587.339	1	10
587.509	1	1
587.679	1	6
587.849	1	12
588.018	1	2
588.188	1	2
588.358	1	13
588.528	1	5
588.698	1	1
588.867	1	8
589.037	1	1
589.207	1	-13
589.377	1	6
589.547	1	0
589.717	1	7
589.886	1	-8
590.056	1	3
590.226	1	2
590.396	1	-1
590.566	1	8
590.735	1	9
590.905	1	6
591.075	1	-1
591.245	1	0
591.415	1	7
591.585	1	-3
591.754	1	5
591.924	1	-9
592.094	1	2
592.264	1	3
592.434	1	10
592.603	1	-3
592.773	1	9
592.943	1	-1
593.113	1	-14
593.283	1	11
593.452	1	-7
593.622	1	4
593.792	1	6
593.962	1	7
594.132	1	3
594.301	1	13
594.471	1	2
594.641	1	-3
594.811	1	6
594.981	1	1
595.150	1	1
595.320	1	9
595.490	1	1
595.660	1	0
595.829	1	4
595.999	1	1
596.169	1	-3
596.339	1	11
596.509	1	8
596.678	1	-3
596.848	1	10
597.018	1	0
597.188	1	4
597.358	1	12
597.527	1	-2
597.697	1	-2
597.867	1	10
598.037	1	3
598.206	1	3
598.376	1	4
598.546	1	5
598.716	1	-4
598.885	1	1
599.055	1	10
599.225	1	-3
599.395	1	9
599.565	1	3
599.734	1	6
599.904	1	3
600.074	1	3
600.244	1	12
600.413	1	4
600.583	1	0
600.753	1	10
600.923	1	12
601.092	1	-15
601.262	1	1
601.432	1	4
601.602	1	1
601.771	1	4
601.941	1	0
602.111	1	-3
602.281	1	-1
602.451	1	8
602.620	1	9
602.790	1	10
602.960	1	-1
603.130	1	10
603.299	1	10
603.469	1	-4
603.639	1	0
603.809	1	9
603.978	1	3
604.148	1	4
604.318	1	2
604.487	1	0
604.657	1	15
604.827	1	-7
604.997	1	-1
605.166	1	2
605.336	1	-6
605.506	1	10
605.676	1	0
605.845	1	-5
606.015	1	6
606.185	1	3
606.355	1	4
606.524	1	2
606.694	1	8
606.864	1	-2
607.034	1	6
607.203	1	6
607.373	1	-3
607.543	1	-2
607.712	1	12
607.882	1	-4
608.052	1	3
608.222	1	13
608.391	1	-1
608.561	1	3
608.731	1	-5
608.901	1	3
609.070	1	-3
609.240	1	-2
609.410	1	7
609.579	1	-2
609.749	1	7
609.919	1	0
610.089	1	-7
610.258	1	4
610.428	1	2
610.598	1	1
610.767	1	2
610.937	1	5
611.107	1	1
611.277	1	9
611.446	1	2
611.616	1	-13
611.786	1	11
611.955	1	6
612.125	1	10
612.295	1	9
612.465	1	-5
612.634	1	6
612.804	1	6
612.974	1	-6
613.143	1	-5
613.313	1	-3
613.483	1	5
613.652	1	-14
613.822	1	3
613.992	1	1
614.162	1	4
614.331	1	4
614.501	1	8
614.671	1	8
614.840	1	12
615.010	1	1
615.180	1	9
615.349	1	8
615.519	1	7
615.689	1	4
615.858	1	11
616.028	1	2
616.198	1	13
616.368	1	5
616.537	1	4
616.707	1	-4
616.877	1	7
617.046	1	1
617.216	1	0
617.386	1	3
617.555	1	-9
617.725	1	-2
617.895	1	1
618.064	1	3
618.234	1	-7
618.404	1	12
618.573	1	7
618.743	1	-4
618.913	1	-4
619.082	1	7
619.252	1	2
619.422	1	-1
619.591	1	2
619.761	1	-11
619.931	1	9
620.100	1	7
620.270	1	2
620.440	1	8
620.609	1	11
620.779	1	-7
620.949	1	1
621.118	1	-1
621.288	1	5
621.458	1	4
621.627	1	1
621.797	1	-5
621.967	1	-1
622.136	1	-2
622.306	1	9
622.476	1	9
622.645	1	7
622.815	1	0
622.985	1	2
623.154	1	14
623.324	1	-2
623.494	1	6
623.663	1	-4
623.833	1	-1
624.002	1	-4
624.172	1	6
624.342	1	0
624.511	1	2
624.681	1	-11
624.851	1	-9
625.020	1	12
625.190	1	8
625.360	1	-7
625.529	1	7
625.699	1	9
625.869	1	-1
626.038	1	0
626.208	1	4
626.377	1	7
626.547	1	2
626.717	1	-4
626.886	1	4
627.056	1	-3
627.226	1	8
627.395	1	10
627.565	1	5
627.735	1	3
627.904	1	9
628.074	1	3
628.243	1	-3
628.413	1	6
628.583	1	3
628.752	1	10
628.922	1	3
629.091	1	0
629.261	1	4
629.431	1	-6
629.600	1	2
629.770	1	3
629.940	1	3
630.109	1	2
630.279	1	-3
630.448	1	6
630.618	1	1
630.788	1	6
630.957	1	-1
631.127	1	15
631.297	1	-7
631.466	1	2
631.636	1	-2
631.805	1	-1
631.975	1	18
632.145	1	-6
632.314	1	11
632.484	1	-4
632.653	1	-4
632.823	1	14
632.993	1	12
633.162	1	4
633.332	1	8
633.501	1	5
633.671	1	10
633.841	1	7
634.010	1	-4
634.180	1	10
634.349	1	6
634.519	1	-11
634.689	1	7
634.858	1	7
635.028	1	1
635.197	1	-2
635.367	1	4
635.537	1	-1
635.706	1	2
635.876	1	4
636.045	1	3
636.215	1	1
636.384	1	4
636.554	1	15
636.724	1	6
636.893	1	-4
637.063	1	4
637.232	1	1
637.402	1	8
637.572	1	3
637.741	1	7
637.911	1	-4
638.080	1	7
638.250	1	6
638.419	1	3
638.589	1	10
638.759	1	7
638.928	1	2
639.098	1	2
639.267	1	3
639.437	1	-4
639.606	1	9
639.776	1	2
639.946	1	5
640.115	1	0
640.285	1	0
640.454	1	10
640.624	1	10
640.793	1	4
640.963	1	-9
641.132	1	6
641.302	1	4
641.472	1	-3
641.641	1	3
641.811	1	0
641.980	1	1
642.150	1	-3
642.319	1	-9
642.489	1	2
642.659	1	-7
642.828	1	7
642.998	1	6
643.167	1	7
643.337	1	-1
643.506	1	1
643.676	1	7
643.845	1	5
644.015	1	6
644.184	1	14
644.354	1	2
644.524	1	1
644.693	1	-3
644.863	1	-1
645.032	1	0
645.202	1	6
645.371	1	-4
645.541	1	1
645.710	1	2
645.880	1	1
646.049	1	13
646.219	1	10
646.388	1	-5
646.558	1	2
646.728	1	6
646.897	1	-2
647.067	1	5
647.236	1	6
647.406	1	-1
647.575	1	2
647.745	1	3
647.914	1	-7
648.084	1	-6
648.253	1	3
648.423	1	-9
648.592	1	10
648.762	1	-3
648.931	1	9
649.101	1	5
649.270	1	14
649.440	1	7
649.610	1	11
649.779	1	6
649.949	1	6
650.118	1	-3
650.288	1	-4
650.457	1	-5
650.627	1	-1
650.796	1	5
650.966	1	3
651.135	1	12
651.305	1	1
651.474	1	2
651.644	1	-1
651.813	1	9
651.983	1	4
652.152	1	5
652.322	1	9
652.491	1	14
652.661	1	5
652.830	1	11
653.000	1	-1
653.169	1	9
653.339	1	5
653.508	1	5
653.678	1	1
653.847	1	0
654.017	1	3
654.186	1	8
654.356	1	12
654.525	1	1
654.695	1	5
654.864	1	9
655.034	1	0
655.203	1	-1
655.373	1	3
655.542	1	6
655.712	1	-4
655.881	1	4
656.051	1	10
656.220	1	-1
656.390	1	6
656.559	1	1
656.729	1	-1
656.898	1	1
657.068	1	-4
657.237	1	-3
657.406	1	10
657.576	1	-7
657.745	1	-4
657.915	1	10
658.084	1	2
658.254	1	1
658.423	1	-6
658.593	1	-9
658.762	1	-13
658.932	1	-5
659.101	1	0
659.271	1	-1
659.440	1	11
659.610	1	5
659.779	1	1
659.949	1	-5
660.118	1	7
660.288	1	-3
660.457	1	0
660.626	1	-2
660.796	1	4
660.965	1	4
661.135	1	12
661.304	1	1
661.474	1	0
661.643	1	2
661.813	1	-6
661.982	1	-6
662.152	1	1
662.321	1	4
662.491	1	3
662.660	1	-3
662.829	1	5
662.999	1	8
663.168	1	-1
663.338	1	-8
663.507	1	1
663.677	1	-6
663.846	1	2
664.016	1	5
664.185	1	-3
664.354	1	1
664.524	1	-5
664.693	1	1
664.863	1	3
665.032	1	6
665.202	1	-7
665.371	1	12
665.541	1	-3
665.710	1	1
665.879	1	6
666.049	1	2
666.218	1	-5
666.388	1	-1
666.557	1	7
666.727	1	-10
666.896	1	-7
667.065	1	4
667.235	1	-4
667.404	1	-7
667.574	1	-1
667.743	1	0
667.913	1	-1
668.082	1	9
668.251	1	7
668.421	1	0
668.590	1	3
668.760	1	2
668.929	1	4
669.099	1	-4
669.268	1	6
669.437	1	-9
669.607	1	1
669.776	1	12
669.946	1	13
670.115	1	-4
670.285	1	1
670.454	1	2
670.623	1	3
670.793	1	0
670.962	1	-4
671.132	1	5
671.301	1	-5
671.470	1	3
671.640	1	-17
671.809	1	3
671.979	1	10
672.148	1	-5
672.317	1	5
672.487	1	-6
672.656	1	4
672.826	1	-17
672.995	1	5
673.164	1	10
673.334	1	11
673.503	1	4
673.673	1	15
673.842	1	5
674.011	1	11
674.181	1	-4
674.350	1	-3
674.520	1	2
674.689	1	-5
674.858	1	2
675.028	1	6
675.197	1	-4
675.367	1	9
675.536	1	12
675.705	1	-10
675.875	1	7
676.044	1	1
676.214	1	5
676.383	1	3
676.552	1	-4
676.722	1	1
676.891	1	-1
677.060	1	4
677.230	1	4
677.399	1	1
677.569	1	-5
677.738	1	-4
677.907	1	-1
678.077	1	6
678.246	1	-10
678.416	1	1
678.585	1	4
678.754	1	3
678.924	1	0
679.093	1	5
679.262	1	0
679.432	1	-4
679.601	1	-8
679.771	1	-2
679.940	1	-3
680.109	1	8
680.279	1	-7
680.448	1	-3
680.617	1	5
680.787	1	-3
680.956	1	3
681.125	1	10
681.295	1	3
681.464	1	7
681.634	1	0
681.803	1	-12
681.972	1	-2
682.142	1	5
682.311	1	-11
682.480	1	1
682.650	1	-4
682.819	1	1
682.988	1	0
683.158	1	0
683.327	1	2
683.496	1	0
683.666	1	3
683.835	1	2
684.004	1	1
684.174	1	-1
684.343	1	-1
684.512	1	-3
684.682	1	10
684.851	1	3
685.021	1	5
685.190	1	9
685.359	1	3
685.529	1	4
685.698	1	4
685.867	1	7
686.037	1	-1
686.206	1	2
686.375	1	5
686.545	1	9
686.714	1	-3
686.883	1	-11
687.053	1	12
687.222	1	-3
687.391	1	0
687.561	1	-1
687.730	1	-5
687.899	1	8
688.069	1	-12
688.238	1	-7
688.407	1	6
688.577	1	6
688.746	1	1
