340.368	1	-3
340.539	1	3
340.710	1	-11
340.881	1	6
341.052	1	-2
341.223	1	13
341.394	1	-1
341.565	1	-7
341.737	1	7
341.908	1	13
342.079	1	-1
342.250	1	2
342.421	1	0
342.592	1	-12
342.763	1	-1
342.934	1	3
343.105	1	11
343.276	1	1
343.447	1	1
343.618	1	-1
343.789	1	-4
343.960	1	-1
344.131	1	0
344.302	1	10
344.473	1	-6
344.644	1	3
344.815	1	4
344.986	1	8
345.157	1	-5
345.328	1	-8
345.499	1	11
345.670	1	5
345.841	1	-2
346.012	1	16
346.183	1	4
346.354	1	3
346.526	1	4
346.697	1	10
346.868	1	9
347.039	1	-1
347.210	1	0
347.381	1	-5
347.552	1	4
347.723	1	7
347.894	1	5
348.065	1	5
348.236	1	10
348.407	1	-2
348.578	1	-2
348.749	1	3
348.920	1	4
349.091	1	-4
349.262	1	-3
349.433	1	-6
349.604	1	7
349.775	1	15
349.946	1	8
350.117	1	9
350.288	1	3
350.459	1	3
350.630	1	-3
350.801	1	7
350.972	1	0
351.143	1	-7
351.314	1	2
351.485	1	-4
351.656	1	13
351.827	1	-2
351.998	1	-1
352.169	1	12
352.340	1	9
352.511	1	-5
352.682	1	-10
352.853	1	-3
353.024	1	-5
353.195	1	-3
353.366	1	4
353.537	1	-6
353.708	1	8
353.879	1	10
354.050	1	2
354.221	1	-8
354.392	1	15
354.563	1	17
354.734	1	1
354.905	1	-1
355.076	1	11
355.247	1	-5
355.418	1	-1
355.589	1	1
355.760	1	6
355.931	1	5
356.102	1	-4
356.273	1	2
356.444	1	5
356.615	1	-1
356.785	1	11
356.956	1	3
357.127	1	-4
357.298	1	10
357.469	1	-5
357.640	1	7
357.811	1	11
357.982	1	-10
358.153	1	6
358.324	1	2
358.495	1	12
358.666	1	-3
358.837	1	7
359.008	1	2
359.179	1	-5
359.350	1	7
359.521	1	0
359.692	1	7
359.863	1	-11
360.034	1	9
360.205	1	2
360.376	1	-4
360.547	1	-2
360.718	1	6
360.889	1	7
361.060	1	9
361.231	1	-1
361.401	1	6
361.572	1	0
361.743	1	5
361.914	1	4
362.085	1	-4
362.256	1	9
362.427	1	-1
362.598	1	-6
362.769	1	2
362.940	1	-2
363.111	1	14
363.282	1	8
363.453	1	2
363.624	1	-1
363.795	1	8
363.966	1	10
364.137	1	-8
364.308	1	2
364.478	1	3
364.649	1	3
364.820	1	5
364.991	1	-5
365.162	1	3
365.333	1	13
365.504	1	-6
365.675	1	-2
365.846	1	-4
366.017	1	-6
366.188	1	0
366.359	1	4
366.530	1	-1
366.701	1	-2
366.871	1	14
367.042	1	9
367.213	1	-3
367.384	1	5
367.555	1	2
367.726	1	8
367.897	1	-1
368.068	1	-6
368.239	1	4
368.410	1	1
368.581	1	6
368.752	1	-7
368.923	1	-1
369.093	1	0
369.264	1	-3
369.435	1	5
369.606	1	-1
369.777	1	-4
369.948	1	5
370.119	1	1
370.290	1	-1
370.461	1	3
370.632	1	4
370.803	1	-1
370.973	1	13
371.144	1	8
371.315	1	3
371.486	1	5
371.657	1	14
371.828	1	2
371.999	1	-5
372.170	1	5
372.341	1	2
372.512	1	-1
372.682	1	-2
372.853	1	9
373.024	1	4
373.195	1	-8
373.366	1	-2
373.537	1	1
373.708	1	-9
373.879	1	9
374.050	1	7
374.220	1	0
374.391	1	-3
374.562	1	4
374.733	1	10
374.904	1	-1
375.075	1	9
375.246	1	3
375.417	1	1
375.588	1	2
375.758	1	1
375.929	1	7
376.100	1	13
376.271	1	2
376.442	1	4
376.613	1	-2
376.784	1	1
376.955	1	-5
377.125	1	-1
377.296	1	7
377.467	1	-3
377.638	1	2
377.809	1	9
377.980	1	-3
378.151	1	5
378.321	1	2
378.492	1	3
378.663	1	-3
378.834	1	2
379.005	1	11
379.176	1	7
379.347	1	-2
379.518	1	-9
379.688	1	1
379.859	1	-3
380.030	1	-2
380.201	1	-2
380.372	1	0
380.543	1	3
380.714	1	5
380.884	1	-10
381.055	1	-1
381.226	1	2
381.397	1	3
381.568	1	-3
381.739	1	7
381.910	1	4
382.080	1	-14
382.251	1	11
382.422	1	11
382.593	1	4
382.764	1	-5
382.935	1	14
383.105	1	-3
383.276	1	7
383.447	1	11
383.618	1	3
383.789	1	7
383.960	1	-7
384.130	1	-5
384.301	1	1
384.472	1	-13
384.643	1	7
384.814	1	10
384.985	1	-2
385.156	1	3
385.326	1	3
385.497	1	14
385.668	1	-4
385.839	1	-2
386.010	1	13
386.180	1	2
386.351	1	-5
386.522	1	2
386.693	1	-2
386.864	1	-3
387.035	1	-4
387.205	1	-5
387.376	1	8
387.547	1	-8
387.718	1	3
387.889	1	15
388.060	1	-2
388.230	1	1
388.401	1	6
388.572	1	7
388.743	1	1
388.914	1	12
389.084	1	10
389.255	1	6
389.426	1	7
389.597	1	2
389.768	1	3
389.939	1	10
390.109	1	-8
390.280	1	4
390.451	1	20
390.622	1	-11
390.793	1	-2
390.963	1	9
391.134	1	5
391.305	1	7
391.476	1	6
391.647	1	4
391.817	1	-3
391.988	1	3
392.159	1	11
392.330	1	1
392.501	1	-1
392.671	1	7
392.842	1	12
393.013	1	7
393.184	1	12
393.355	1	12
393.525	1	11
393.696	1	5
393.867	1	2
394.038	1	-4
394.208	1	4
394.379	1	-3
394.550	1	-3
394.721	1	4
394.892	1	4
395.062	1	-11
395.233	1	10
395.404	1	7
395.575	1	-5
395.746	1	-3
395.916	1	5
396.087	1	0
396.258	1	1
396.429	1	1
396.599	1	4
396.770	1	3
396.941	1	10
397.112	1	0
397.283	1	9
397.453	1	3
397.624	1	0
397.795	1	5
397.966	1	1
398.136	1	6
398.307	1	3
398.478	1	-8
398.649	1	8
398.819	1	7
398.990	1	1
399.161	1	4
399.332	1	14
399.503	1	3
399.673	1	9
399.844	1	-3
400.015	1	-5
400.186	1	11
400.356	1	3
400.527	1	-7
400.698	1	-1
400.869	1	11
401.039	1	-5
401.210	1	-7
401.381	1	0
401.552	1	10
401.722	1	-1
401.893	1	5
402.064	1	-5
402.235	1	5
402.405	1	1
402.576	1	11
402.747	1	2
402.918	1	5
403.088	1	-3
403.259	1	0
403.430	1	-3
403.601	1	-7
403.771	1	-1
403.942	1	10
404.113	1	5
404.284	1	-2
404.454	1	7
404.625	1	7
404.796	1	-9
404.967	1	5
405.137	1	8
405.308	1	-3
405.479	1	5
405.649	1	-3
405.820	1	-1
405.991	1	17
406.162	1	-3
406.332	1	-14
406.503	1	-6
406.674	1	2
406.845	1	7
407.015	1	-11
407.186	1	8
407.357	1	2
407.527	1	-12
407.698	1	-4
407.869	1	1
408.040	1	-6
408.210	1	12
408.381	1	5
408.552	1	-9
408.722	1	0
408.893	1	-1
409.064	1	-2
409.235	1	0
409.405	1	9
409.576	1	6
409.747	1	5
409.917	1	-1
410.088	1	11
410.259	1	6
410.430	1	5
410.600	1	5
410.771	1	0
410.942	1	0
411.112	1	3
411.283	1	-6
411.454	1	4
411.625	1	-3
411.795	1	11
411.966	1	3
412.137	1	8
412.307	1	-8
412.478	1	6
412.649	1	0
412.819	1	-5
412.990	1	0
413.161	1	-3
413.332	1	-3
413.502	1	-5
413.673	1	2
413.844	1	2
414.014	1	-4
414.185	1	1
414.356	1	-10
414.526	1	-1
414.697	1	4
414.868	1	6
415.038	1	2
415.209	1	1
415.380	1	1
415.550	1	-6
415.721	1	1
415.892	1	-2
416.063	1	8
416.233	1	0
416.404	1	5
416.575	1	-1
416.745	1	-10
416.916	1	-2
417.087	1	4
417.257	1	0
417.428	1	-4
417.599	1	2
417.769	1	8
417.940	1	-1
418.111	1	-2
418.281	1	5
418.452	1	-4
418.623	1	-4
418.793	1	7
418.964	1	7
419.135	1	7
419.305	1	1
419.476	1	3
419.647	1	12
419.817	1	3
419.988	1	-2
420.159	1	-5
420.329	1	13
420.500	1	6
420.671	1	0
420.841	1	13
421.012	1	8
421.183	1	4
421.353	1	5
421.524	1	6
421.695	1	7
421.865	1	-11
422.036	1	-5
422.206	1	3
422.377	1	5
422.548	1	-3
422.718	1	3
422.889	1	4
423.060	1	-2
423.230	1	8
423.401	1	5
423.572	1	-10
423.742	1	4
423.913	1	7
424.084	1	-1
424.254	1	-2
424.425	1	4
424.595	1	1
424.766	1	8
424.937	1	3
425.107	1	-6
425.278	1	-3
425.449	1	-3
425.619	1	0
425.790	1	-5
425.961	1	-1
426.131	1	8
426.302	1	-6
426.472	1	-7
426.643	1	-1
426.814	1	10
426.984	1	8
427.155	1	-2
427.326	1	10
427.496	1	7
427.667	1	-2
427.837	1	1
428.008	1	-3
428.179	1	-3
428.349	1	-3
428.520	1	-4
428.691	1	4
428.861	1	0
429.032	1	-9
429.202	1	3
429.373	1	0
429.544	1	-3
429.714	1	7
429.885	1	-3
430.055	1	-1
430.226	1	-6
430.397	1	-6
430.567	1	9
430.738	1	3
430.909	1	-2
431.079	1	5
431.250	1	-9
431.420	1	6
431.591	1	5
431.762	1	-5
431.932	1	5
432.103	1	6
432.273	1	-4
432.444	1	13
432.615	1	5
432.785	1	-8
432.956	1	-6
433.126	1	8
433.297	1	7
433.468	1	0
433.638	1	2
433.809	1	3
433.979	1	-4
434.150	1	-7
434.320	1	3
434.491	1	10
434.662	1	-14
434.832	1	1
435.003	1	-2
435.173	1	-3
435.344	1	14
435.515	1	1
435.685	1	6
435.856	1	-5
436.026	1	12
436.197	1	-7
436.368	1	-4
436.538	1	-1
436.709	1	-10
436.879	1	-9
437.050	1	11
437.220	1	5
437.391	1	2
437.562	1	13
437.732	1	1
437.903	1	-1
438.073	1	1
438.244	1	-12
438.414	1	-6
438.585	1	2
438.756	1	11
438.926	1	5
439.097	1	3
439.267	1	9
439.438	1	4
439.608	1	10
439.779	1	-1
439.949	1	4
440.120	1	-5
440.291	1	0
440.461	1	-4
440.632	1	12
440.802	1	14
440.973	1	5
441.143	1	2
441.314	1	5
441.485	1	-5
441.655	1	10
441.826	1	-1
441.996	1	-3
442.167	1	5
442.337	1	-2
442.508	1	-4
442.678	1	-6
442.849	1	17
443.019	1	4
443.190	1	-14
443.361	1	8
443.531	1	4
443.702	1	-5
443.872	1	0
444.043	1	11
444.213	1	-13
444.384	1	9
444.554	1	6
444.725	1	5
444.895	1	-3
445.066	1	-11
445.237	1	-9
445.407	1	0
445.578	1	11
445.748	1	1
445.919	1	6
446.089	1	12
446.260	1	8
446.430	1	-3
446.601	1	2
446.771	1	5
446.942	1	9
447.112	1	0
447.283	1	-1
447.453	1	-6
447.624	1	15
447.794	1	-10
447.965	1	-1
448.135	1	2
448.306	1	2
448.477	1	3
448.647	1	8
448.818	1	14
448.988	1	-14
449.159	1	-5
449.329	1	3
449.500	1	10
449.670	1	11
449.841	1	1
450.011	1	-1
450.182	1	5
450.352	1	11
450.523	1	-8
450.693	1	5
450.864	1	6
451.034	1	1
451.205	1	7
451.375	1	9
451.546	1	5
451.716	1	6
451.887	1	-9
452.057	1	5
452.228	1	-3
452.398	1	5
452.569	1	0
452.739	1	6
452.910	1	5
453.080	1	19
453.251	1	6
453.421	1	-3
453.592	1	1
453.762	1	4
453.933	1	3
454.103	1	5
454.274	1	-2
454.444	1	15
454.615	1	6
454.785	1	-9
454.956	1	-1
455.126	1	-3
455.297	1	2
455.467	1	6
455.638	1	5
455.808	1	-3
455.979	1	12
456.149	1	-4
456.320	1	9
456.490	1	2
456.661	1	6
456.831	1	14
457.001	1	-1
457.172	1	-1
457.342	1	5
457.513	1	9
457.683	1	5
457.854	1	3
458.024	1	-2
458.195	1	-5
458.365	1	2
458.536	1	1
458.706	1	0
458.877	1	7
459.047	1	-7
459.218	1	0
459.388	1	0
459.559	1	6
459.729	1	-1
459.899	1	8
460.070	1	7
460.240	1	10
460.411	1	-2
460.581	1	7
460.752	1	-6
460.922	1	7
461.093	1	11
461.263	1	4
461.434	1	7
461.604	1	2
461.775	1	2
461.945	1	1
462.115	1	-3
462.286	1	11
462.456	1	1
462.627	1	4
462.797	1	-3
462.968	1	6
463.138	1	2
463.309	1	7
463.479	1	1
463.649	1	-6
463.820	1	8
463.990	1	0
464.161	1	6
464.331	1	3
464.502	1	11
464.672	1	-2
464.843	1	9
465.013	1	-3
465.183	1	1
465.354	1	6
465.524	1	0
465.695	1	4
465.865	1	-5
466.036	1	7
466.206	1	6
466.376	1	10
466.547	1	0
466.717	1	-5
466.888	1	-1
467.058	1	8
467.229	1	-5
467.399	1	2
467.569	1	5
467.740	1	-5
467.910	1	-3
468.081	1	7
468.251	1	-9
468.422	1	-1
468.592	1	15
468.762	1	1
468.933	1	4
469.103	1	-7
469.274	1	-7
469.444	1	-4
469.614	1	-3
469.785	1	12
469.955	1	4
470.126	1	6
470.296	1	9
470.467	1	0
470.637	1	13
470.807	1	-3
470.978	1	3
471.148	1	0
471.319	1	10
471.489	1	0
471.659	1	8
471.830	1	16
472.000	1	9
472.171	1	6
472.341	1	6
472.511	1	7
472.682	1	2
472.852	1	-2
473.023	1	-3
473.193	1	-7
473.363	1	1
473.534	1	-1
473.704	1	9
473.875	1	14
474.045	1	-9
474.215	1	-5
474.386	1	7
474.556	1	-13
474.727	1	0
474.897	1	7
475.067	1	3
475.238	1	-6
475.408	1	4
475.578	1	2
475.749	1	3
475.919	1	8
476.090	1	-11
476.260	1	2
476.430	1	6
476.601	1	-6
476.771	1	8
476.942	1	3
477.112	1	4
477.282	1	-8
477.453	1	9
477.623	1	3
477.793	1	6
477.964	1	7
478.134	1	6
478.305	1	4
478.475	1	-4
478.645	1	-4
478.816	1	0
478.986	1	7
479.156	1	-5
479.327	1	-7
479.497	1	4
479.667	1	-5
479.838	1	1
480.008	1	1
480.179	1	11
480.349	1	8
480.519	1	-1
480.690	1	8
480.860	1	3
481.030	1	0
481.201	1	2
481.371	1	6
481.541	1	7
481.712	1	3
481.882	1	9
482.053	1	8
482.223	1	-13
482.393	1	0
482.564	1	-6
482.734	1	-4
482.904	1	-1
483.075	1	9
483.245	1	11
483.415	1	2
483.586	1	-1
483.756	1	6
483.926	1	11
484.097	1	-2
484.267	1	-4
484.437	1	-2
484.608	1	2
484.778	1	-1
484.948	1	-9
485.119	1	8
485.289	1	2
485.459	1	14
485.630	1	-6
485.800	1	-9
485.970	1	12
486.141	1	-7
486.311	1	5
486.481	1	6
486.652	1	10
486.822	1	6
486.992	1	-4
487.163	1	-6
487.333	1	7
487.503	1	-13
487.674	1	0
487.844	1	5
488.014	1	1
488.185	1	-4
488.355	1	-4
488.525	1	6
488.696	1	-8
488.866	1	11
489.036	1	7
489.207	1	6
489.377	1	-5
489.547	1	-4
489.718	1	-6
489.888	1	3
490.058	1	0
490.228	1	-8
490.399	1	13
490.569	1	7
490.739	1	5
490.910	1	-3
491.080	1	-5
491.250	1	7
491.421	1	3
491.591	1	-2
491.761	1	1
491.932	1	11
492.102	1	6
492.272	1	8
492.442	1	7
492.613	1	7
492.783	1	-3
492.953	1	8
493.124	1	-10
493.294	1	11
493.464	1	-2
493.635	1	-3
493.805	1	6
493.975	1	4
494.145	1	6
494.316	1	4
494.486	1	4
494.656	1	7
494.827	1	-5
494.997	1	-4
495.167	1	8
495.337	1	12
495.508	1	-7
495.678	1	15
495.848	1	13
496.019	1	-4
496.189	1	-1
496.359	1	0
496.529	1	-11
496.700	1	-3
496.870	1	-2
497.040	1	-2
497.211	1	11
497.381	1	-14
497.551	1	9
497.721	1	0
497.892	1	10
498.062	1	-3
498.232	1	1
498.403	1	6
498.573	1	-1
498.743	1	-1
498.913	1	12
499.084	1	-4
499.254	1	3
499.424	1	4
499.594	1	4
499.765	1	5
499.935	1	0
500.105	1	9
500.275	1	20
500.446	1	2
500.616	1	8
500.786	1	-1
500.956	1	2
501.127	1	6
501.297	1	0
501.467	1	1
501.638	1	4
501.808	1	1
501.978	1	-3
502.148	1	3
502.319	1	9
502.489	1	10
502.659	1	-3
502.829	1	12
503.000	1	9
503.170	1	-1
503.340	1	-5
503.510	1	5
503.681	1	7
503.851	1	-18
504.021	1	21
504.191	1	0
504.362	1	10
504.532	1	-11
504.702	1	0
504.872	1	-1
505.042	1	1
505.213	1	-6
505.383	1	0
505.553	1	10
505.723	1	2
505.894	1	8
506.064	1	10
506.234	1	6
506.404	1	-5
506.575	1	-12
506.745	1	-6
506.915	1	0
507.085	1	-2
507.256	1	-12
507.426	1	9
507.596	1	6
507.766	1	3
507.936	1	-2
508.107	1	3
508.277	1	-9
508.447	1	-3
508.617	1	14
508.788	1	4
508.958	1	7
509.128	1	3
509.298	1	7
509.468	1	2
509.639	1	13
509.809	1	5
509.979	1	1
510.149	1	-1
510.319	1	-8
510.490	1	13
510.660	1	6
510.830	1	0
511.000	1	6
511.171	1	18
511.341	1	1
511.511	1	3
511.681	1	5
511.851	1	-16
512.022	1	-3
512.192	1	8
512.362	1	0
512.532	1	1
512.702	1	4
512.873	1	13
513.043	1	3
513.213	1	-2
513.383	1	-7
513.553	1	-1
513.724	1	1
513.894	1	2
514.064	1	6
514.234	1	7
514.404	1	-5
514.575	1	9
514.745	1	-5
514.915	1	8
515.085	1	-3
515.255	1	-1
515.425	1	-2
515.596	1	-5
515.766	1	-2
515.936	1	6
516.106	1	-2
516.276	1	4
516.447	1	0
516.617	1	3
516.787	1	0
516.957	1	2
517.127	1	-5
517.297	1	7
517.468	1	4
517.638	1	9
517.808	1	-2
517.978	1	-3
518.148	1	-1
518.319	1	-4
518.489	1	2
518.659	1	3
518.829	1	-11
518.999	1	-3
519.169	1	19
519.340	1	2
519.510	1	-1
519.680	1	0
519.850	1	2
520.020	1	-9
520.190	1	2
520.361	1	-2
520.531	1	1
520.701	1	10
520.871	1	6
521.041	1	-3
521.211	1	-5
521.382	1	-2
521.552	1	-1
521.722	1	7
521.892	1	-8
522.062	1	-2
522.232	1	-13
522.402	1	0
522.573	1	3
522.743	1	6
522.913	1	0
523.083	1	-4
523.253	1	0
523.423	1	-6
523.593	1	-12
523.764	1	3
523.934	1	10
524.104	1	1
524.274	1	-8
524.444	1	11
524.614	1	-3
524.784	1	-4
524.955	1	10
525.125	1	3
525.295	1	-3
525.465	1	-2
525.635	1	3
525.805	1	-3
525.975	1	-5
526.146	1	8
526.316	1	-9
526.486	1	9
526.656	1	9
526.826	1	13
526.996	1	13
527.166	1	7
527.337	1	4
527.507	1	-10
527.677	1	13
527.847	1	-7
528.017	1	-2
528.187	1	3
528.357	1	6
528.527	1	0
528.698	1	1
528.868	1	-7
529.038	1	2
529.208	1	-11
529.378	1	9
529.548	1	-1
529.718	1	2
529.888	1	-5
530.058	1	-4
530.229	1	-2
530.399	1	10
530.569	1	6
530.739	1	-1
530.909	1	8
531.079	1	10
531.249	1	-4
531.419	1	15
531.589	1	-4
531.760	1	6
531.930	1	-4
532.100	1	13
532.270	1	11
532.440	1	4
532.610	1	0
532.780	1	5
532.950	1	9
533.120	1	-7
533.290	1	-1
533.461	1	10
533.631	1	-1
533.801	1	7
533.971	1	-3
534.141	1	11
534.311	1	10
534.481	1	-3
534.651	1	4
534.821	1	13
534.991	1	-5
535.162	1	8
535.332	1	7
535.502	1	5
535.672	1	-13
535.842	1	5
536.012	1	11
536.182	1	4
536.352	1	4
536.522	1	2
536.692	1	1
536.862	1	11
537.032	1	4
537.203	1	11
537.373	1	-4
537.543	1	7
537.713	1	16
537.883	1	9
538.053	1	7
538.223	1	4
538.393	1	5
538.563	1	9
538.733	1	-6
538.903	1	-4
539.073	1	4
539.243	1	8
539.413	1	-1
539.584	1	3
539.754	1	0
539.924	1	4
540.094	1	-2
540.264	1	7
540.434	1	-1
540.604	1	-5
540.774	1	3
540.944	1	-1
541.114	1	1
541.284	1	-6
541.454	1	7
541.624	1	2
541.794	1	0
541.964	1	2
542.134	1	9
542.305	1	-5
542.475	1	-12
542.645	1	1
542.815	1	7
542.985	1	2
543.155	1	7
543.325	1	-9
543.495	1	-1
543.665	1	10
543.835	1	-5
544.005	1	2
544.175	1	7
544.345	1	-5
544.515	1	3
544.685	1	5
544.855	1	10
545.025	1	-7
545.195	1	5
545.365	1	6
545.535	1	6
545.705	1	8
545.875	1	3
546.045	1	11
546.216	1	12
546.386	1	8
546.556	1	-5
546.726	1	-3
546.896	1	8
547.066	1	-14
547.236	1	-6
547.406	1	9
547.576	1	-2
547.746	1	13
547.916	1	15
548.086	1	11
548.256	1	6
548.426	1	-3
548.596	1	8
548.766	1	0
548.936	1	-10
549.106	1	0
549.276	1	7
549.446	1	-1
549.616	1	4
549.786	1	6
549.956	1	10
550.126	1	1
550.296	1	-3
550.466	1	5
550.636	1	2
550.806	1	3
550.976	1	5
551.146	1	-5
551.316	1	-4
551.486	1	11
551.656	1	-5
551.826	1	11
551.996	1	8
552.166	1	3
552.336	1	3
552.506	1	0
552.676	1	-6
552.846	1	8
553.016	1	1
553.186	1	-1
553.356	1	3
553.526	1	5
553.696	1	9
553.866	1	5
554.036	1	-1
554.206	1	2
554.376	1	-3
554.546	1	-8
554.716	1	0
554.886	1	5
555.056	1	-5
555.226	1	-2
555.396	1	-8
555.566	1	9
555.736	1	-1
555.906	1	2
556.076	1	9
556.246	1	0
556.416	1	6
556.586	1	11
556.756	1	4
556.926	1	3
557.096	1	4
557.266	1	5
557.436	1	8
557.606	1	-8
557.776	1	0
557.946	1	6
558.116	1	0
558.286	1	9
558.456	1	1
558.626	1	3
558.796	1	2
558.966	1	1
559.136	1	3
559.306	1	-2
559.476	1	-9
559.646	1	-9
559.816	1	7
559.986	1	-4
560.155	1	3
560.325	1	-4
560.495	1	-4
560.665	1	11
560.835	1	4
561.005	1	10
561.175	1	7
561.345	1	-1
561.515	1	-7
561.685	1	-3
561.855	1	11
562.025	1	-2
562.195	1	-7
562.365	1	5
562.535	1	4
562.705	1	9
562.875	1	1
563.045	1	13
563.215	1	6
563.385	1	-1
563.555	1	4
563.725	1	-2
563.895	1	-9
564.064	1	2
564.234	1	-1
564.404	1	2
564.574	1	2
564.744	1	1
564.914	1	-10
565.084	1	-4
565.254	1	1
565.424	1	-1
565.594	1	-1
565.764	1	8
565.934	1	-4
566.104	1	0
566.274	1	-3
566.444	1	0
566.614	1	3
566.783	1	0
566.953	1	0
567.123	1	13
567.293	1	2
567.463	1	2
567.633	1	-6
567.803	1	3
567.973	1	0
568.143	1	-12
568.313	1	-5
568.483	1	-5
568.653	1	1
568.823	1	4
568.993	1	-6
569.162	1	2
569.332	1	-3
569.502	1	-2
569.672	1	-1
569.842	1	0
570.012	1	4
570.182	1	-5
570.352	1	6
570.522	1	10
570.692	1	0
570.862	1	7
571.031	1	-2
571.201	1	7
571.371	1	-6
571.541	1	-4
571.711	1	7
571.881	1	7
572.051	1	11
572.221	1	14
572.391	1	7
572.561	1	-3
572.731	1	-3
572.900	1	13
573.070	1	7
573.240	1	-13
573.410	1	-4
573.580	1	3
573.750	1	6
573.920	1	-5
574.090	1	2
574.260	1	2
574.430	1	0
574.599	1	-4
574.769	1	-8
574.939	1	3
575.109	1	2
575.279	1	9
575.449	1	11
575.619	1	7
575.789	1	7
575.959	1	-3
576.128	1	2
576.298	1	-8
576.468	1	0
576.638	1	5
576.808	1	-7
576.978	1	4
577.148	1	3
577.318	1	7
577.487	1	1
577.657	1	-9
577.827	1	18
577.997	1	-17
578.167	1	11
578.337	1	-9
578.507	1	-3
578.677	1	-6
578.846	1	5
579.016	1	19
579.186	1	0
579.356	1	1
579.526	1	7
579.696	1	9
579.866	1	9
580.036	1	-6
580.205	1	4
580.375	1	-1
580.545	1	-6
580.715	1	5
580.885	1	-2
581.055	1	8
581.225	1	-5
581.394	1	-3
581.564	1	3
581.734	1	4
581.904	1	6
582.074	1	-2
582.244	1	0
582.414	1	5
582.583	1	-5
582.753	1	-3
582.923	1	4
583.093	1	1
583.263	1	-2
583.433	1	-12
583.603	1	12
583.772	1	-6
583.942	1	6
584.112	1	4
584.282	1	13
584.452	1	2
584.622	1	15
584.791	1	0
584.961	1	8
585.131	1	-7
585.301	1	0
585.471	1	-3
585.641	1	-4
585.811	1	-5
585.980	1	-9
586.150	1	13
586.320	1	3
586.490	1	-9
586.660	1	12
586.830	1	-7
586.999	1	-3
587.169	1	1
587.339	1	-1
587.509	1	5
587.679	1	8
587.849	1	-1
588.018	1	1
588.188	1	-1
588.358	1	2
588.528	1	5
588.698	1	-3
588.867	1	-1
589.037	1	6
589.207	1	-16
589.377	1	6
589.547	1	1
589.717	1	3
589.886	1	-9
590.056	1	5
590.226	1	1
590.396	1	2
590.566	1	-3
590.735	1	12
590.905	1	5
591.075	1	-10
591.245	1	2
591.415	1	2
591.585	1	4
591.754	1	3
591.924	1	-2
592.094	1	2
592.264	1	2
592.434	1	-10
592.603	1	-4
592.773	1	5
592.943	1	-1
593.113	1	-6
593.283	1	13
593.452	1	-2
593.622	1	0
593.792	1	-3
593.962	1	10
594.132	1	-1
594.301	1	7
594.471	1	3
594.641	1	2
594.811	1	0
594.981	1	5
595.150	1	-4
595.320	1	5
595.490	1	0
595.660	1	0
595.829	1	7
595.999	1	6
596.169	1	-3
596.339	1	1
596.509	1	1
596.678	1	1
596.848	1	2
597.018	1	2
597.188	1	7
597.358	1	2
597.527	1	-3
597.697	1	-12
597.867	1	-3
598.037	1	-5
598.206	1	-6
598.376	1	13
598.546	1	-1
598.716	1	-12
598.885	1	-2
599.055	1	8
599.225	1	-4
599.395	1	10
599.565	1	3
599.734	1	-3
599.904	1	-6
600.074	1	4
600.244	1	2
600.413	1	3
600.583	1	-5
600.753	1	11
600.923	1	10
601.092	1	-11
601.262	1	3
601.432	1	-2
601.602	1	0
601.771	1	5
601.941	1	-9
602.111	1	-8
602.281	1	-4
602.451	1	-2
602.620	1	8
602.790	1	5
602.960	1	1
603.130	1	4
603.299	1	3
603.469	1	-1
603.639	1	3
603.809	1	6
603.978	1	-9
604.148	1	7
604.318	1	-1
604.487	1	4
604.657	1	4
604.827	1	-13
604.997	1	8
605.166	1	-1
605.336	1	-4
605.506	1	6
605.676	1	4
605.845	1	0
606.015	1	7
606.185	1	7
606.355	1	11
606.524	1	-3
606.694	1	14
606.864	1	3
607.034	1	-4
607.203	1	12
607.373	1	4
607.543	1	2
607.712	1	12
607.882	1	-3
608.052	1	8
608.222	1	9
608.391	1	1
608.561	1	11
608.731	1	-8
608.901	1	6
609.070	1	3
609.240	1	0
609.410	1	-1
609.579	1	4
609.749	1	4
609.919	1	2
610.089	1	0
610.258	1	4
610.428	1	-5
610.598	1	4
610.767	1	-1
610.937	1	2
611.107	1	8
611.277	1	-4
611.446	1	4
611.616	1	-6
611.786	1	6
611.955	1	7
612.125	1	8
612.295	1	1
612.465	1	-3
612.634	1	3
612.804	1	11
612.974	1	4
613.143	1	-2
613.313	1	4
613.483	1	-3
613.652	1	-2
613.822	1	8
613.992	1	2
614.162	1	8
614.331	1	11
614.501	1	5
614.671	1	4
614.840	1	0
615.010	1	0
615.180	1	5
615.349	1	1
615.519	1	2
615.689	1	6
615.858	1	5
616.028	1	1
616.198	1	5
616.368	1	-5
616.537	1	-2
616.707	1	1
616.877	1	6
617.046	1	3
617.216	1	7
617.386	1	1
617.555	1	-5
617.725	1	11
617.895	1	-1
618.064	1	-3
618.234	1	9
618.404	1	9
618.573	1	4
618.743	1	2
618.913	1	-4
619.082	1	3
619.252	1	6
619.422	1	3
619.591	1	2
619.761	1	2
619.931	1	6
620.100	1	10
620.270	1	-1
620.440	1	-2
620.609	1	-6
620.779	1	-6
620.949	1	3
621.118	1	-1
621.288	1	13
621.458	1	10
621.627	1	-11
621.797	1	5
621.967	1	-3
622.136	1	4
622.306	1	8
622.476	1	11
622.645	1	8
622.815	1	5
622.985	1	3
623.154	1	-2
623.324	1	15
623.494	1	1
623.663	1	-1
623.833	1	-3
624.002	1	-6
624.172	1	13
624.342	1	-1
624.511	1	5
624.681	1	-9
624.851	1	-5
625.020	1	4
625.190	1	4
625.360	1	-7
625.529	1	14
625.699	1	2
625.869	1	-2
626.038	1	11
626.208	1	-8
626.377	1	19
626.547	1	-1
626.717	1	2
626.886	1	-8
627.056	1	-7
627.226	1	3
627.395	1	3
627.565	1	13
627.735	1	11
627.904	1	-3
628.074	1	10
628.243	1	-13
628.413	1	-9
628.583	1	0
628.752	1	5
628.922	1	6
629.091	1	-5
629.261	1	15
629.431	1	-12
629.600	1	7
629.770	1	1
629.940	1	6
630.109	1	0
630.279	1	-9
630.448	1	-1
630.618	1	4
630.788	1	4
630.957	1	0
631.127	1	9
631.297	1	-2
631.466	1	3
631.636	1	1
631.805	1	2
631.975	1	5
632.145	1	-10
632.314	1	7
632.484	1	-3
632.653	1	-10
632.823	1	9
632.993	1	6
633.162	1	1
633.332	1	2
633.501	1	9
633.671	1	1
633.841	1	0
634.010	1	-1
634.180	1	1
634.349	1	3
634.519	1	4
634.689	1	11
634.858	1	1
635.028	1	8
635.197	1	-1
635.367	1	-2
635.537	1	4
635.706	1	0
635.876	1	-4
636.045	1	5
636.215	1	3
636.384	1	11
636.554	1	12
636.724	1	3
636.893	1	2
637.063	1	3
637.232	1	8
637.402	1	3
637.572	1	-7
637.741	1	15
637.911	1	9
638.080	1	6
638.250	1	5
638.419	1	14
638.589	1	7
638.759	1	16
638.928	1	-5
639.098	1	-5
639.267	1	-6
639.437	1	-2
639.606	1	12
639.776	1	-1
639.946	1	2
640.115	1	1
640.285	1	2
640.454	1	10
640.624	1	4
640.793	1	-1
640.963	1	1
641.132	1	-3
641.302	1	4
641.472	1	-2
641.641	1	-1
641.811	1	1
641.980	1	-3
642.150	1	-2
642.319	1	-1
642.489	1	-5
642.659	1	-7
642.828	1	9
642.998	1	-8
643.167	1	2
643.337	1	3
643.506	1	1
643.676	1	3
643.845	1	3
644.015	1	7
644.184	1	10
644.354	1	1
644.524	1	3
644.693	1	8
644.863	1	-1
645.032	1	7
645.202	1	-4
645.371	1	1
645.541	1	-16
645.710	1	-4
645.880	1	2
646.049	1	15
646.219	1	6
646.388	1	5
646.558	1	0
646.728	1	11
646.897	1	-8
647.067	1	-4
647.236	1	1
647.406	1	-4
647.575	1	4
647.745	1	2
647.914	1	-6
648.084	1	5
648.253	1	-3
648.423	1	2
648.592	1	4
648.762	1	1
648.931	1	2
649.101	1	-4
649.270	1	3
649.440	1	4
649.610	1	14
649.779	1	1
649.949	1	4
650.118	1	-8
650.288	1	-5
650.457	1	-5
650.627	1	1
650.796	1	-3
650.966	1	-4
651.135	1	-2
651.305	1	-10
651.474	1	7
651.644	1	-3
651.813	1	9
651.983	1	-5
652.152	1	-4
652.322	1	3
652.491	1	1
652.661	1	-4
652.830	1	5
653.000	1	-5
653.169	1	6
653.339	1	2
653.508	1	4
653.678	1	10
653.847	1	2
654.017	1	5
654.186	1	1
654.356	1	6
654.525	1	-4
654.695	1	7
654.864	1	-5
655.034	1	3
655.203	1	2
655.373	1	-2
655.542	1	8
655.712	1	2
655.881	1	10
656.051	1	11
656.220	1	5
656.390	1	-1
656.559	1	-6
656.729	1	-3
656.898	1	4
657.068	1	-3
657.237	1	8
657.406	1	15
657.576	1	-17
657.745	1	-2
657.915	1	1
658.084	1	1
658.254	1	2
658.423	1	-9
658.593	1	-5
658.762	1	-3
658.932	1	0
659.101	1	6
659.271	1	8
659.440	1	0
659.610	1	-2
659.779	1	1
659.949	1	-4
660.118	1	-1
660.288	1	4
660.457	1	3
660.626	1	-8
660.796	1	5
660.965	1	10
661.135	1	2
661.304	1	1
661.474	1	6
661.643	1	-6
661.813	1	0
661.982	1	11
662.152	1	3
662.321	1	-7
662.491	1	3
662.660	1	7
662.829	1	-1
662.999	1	4
663.168	1	-7
663.338	1	-9
663.507	1	-5
663.677	1	-10
663.846	1	6
664.016	1	-3
664.185	1	3
664.354	1	11
664.524	1	-10
664.693	1	-4
664.863	1	5
665.032	1	-2
665.202	1	-8
665.371	1	-1
665.541	1	3
665.710	1	-8
665.879	1	-2
666.049	1	7
666.218	1	-3
666.388	1	-7
666.557	1	5
666.727	1	-16
666.896	1	1
667.065	1	8
667.235	1	7
667.404	1	0
667.574	1	-2
667.743	1	-4
667.913	1	3
668.082	1	0
668.251	1	-3
668.421	1	8
668.590	1	-1
668.760	1	-7
668.929	1	3
669.099	1	2
669.268	1	6
669.437	1	4
669.607	1	-8
669.776	1	7
669.946	1	6
670.115	1	-4
670.285	1	13
670.454	1	0
670.623	1	1
670.793	1	1
670.962	1	6
671.132	1	13
671.301	1	-2
671.470	1	0
671.640	1	-16
671.809	1	-15
671.979	1	12
672.148	1	5
672.317	1	-2
672.487	1	5
672.656	1	1
672.826	1	-16
672.995	1	9
673.164	1	5
673.334	1	7
673.503	1	-3
673.673	1	17
673.842	1	2
674.011	1	7
674.181	1	-6
674.350	1	-4
674.520	1	6
674.689	1	-6
674.858	1	-5
675.028	1	6
675.197	1	-2
675.367	1	3
675.536	1	13
675.705	1	-9
675.875	1	7
676.044	1	4
676.214	1	2
676.383	1	1
676.552	1	-6
676.722	1	3
676.891	1	-12
677.060	1	-5
677.230	1	14
677.399	1	-3
677.569	1	-2
677.738	1	-5
677.907	1	-12
678.077	1	2
678.246	1	-6
678.416	1	-4
678.585	1	2
678.754	1	7
678.924	1	0
679.093	1	6
679.262	1	-3
679.432	1	-4
679.601	1	-10
679.771	1	-5
679.940	1	-5
680.109	1	1
680.279	1	-6
680.448	1	0
680.617	1	-1
680.787	1	4
680.956	1	2
681.125	1	10
681.295	1	10
681.464	1	1
681.634	1	7
681.803	1	-12
681.972	1	-1
682.142	1	9
682.311	1	-3
682.480	1	5
682.650	1	-1
682.819	1	9
682.988	1	-2
683.158	1	9
683.327	1	-1
683.496	1	-8
683.666	1	11
683.835	1	2
684.004	1	-3
684.174	1	3
684.343	1	1
684.512	1	3
684.682	1	1
684.851	1	3
685.021	1	6
685.190	1	4
685.359	1	-1
685.529	1	0
685.698	1	3
685.867	1	-8
686.037	1	-2
686.206	1	6
686.375	1	-1
686.545	1	-6
686.714	1	-3
686.883	1	-13
687.053	1	4
687.222	1	0
687.391	1	3
687.561	1	-6
687.730	1	-11
687.899	1	1
688.069	1	-11
688.238	1	-6
688.407	1	14
688.577	1	-7
688.746	1	-3
