340.368	1	-1
340.539	1	11
340.710	1	2
340.881	1	2
341.052	1	3
341.223	1	10
341.394	1	4
341.565	1	-11
341.737	1	6
341.908	1	6
342.079	1	5
342.250	1	5
342.421	1	-2
342.592	1	2
342.763	1	4
342.934	1	12
343.105	1	21
343.276	1	-6
343.447	1	8
343.618	1	8
343.789	1	-1
343.960	1	3
344.131	1	4
344.302	1	1
344.473	1	7
344.644	1	0
344.815	1	4
344.986	1	11
345.157	1	8
345.328	1	-1
345.499	1	7
345.670	1	13
345.841	1	6
346.012	1	9
346.183	1	6
346.354	1	1
346.526	1	9
346.697	1	2
346.868	1	9
347.039	1	0
347.210	1	6
347.381	1	6
347.552	1	7
347.723	1	10
347.894	1	4
348.065	1	8
348.236	1	1
348.407	1	8
348.578	1	4
348.749	1	17
348.920	1	21
349.091	1	7
349.262	1	1
349.433	1	0
349.604	1	16
349.775	1	5
349.946	1	13
350.117	1	16
350.288	1	8
350.459	1	20
350.630	1	-9
350.801	1	11
350.972	1	10
351.143	1	0
351.314	1	1
351.485	1	5
351.656	1	8
351.827	1	4
351.998	1	8
352.169	1	11
352.340	1	6
352.511	1	13
352.682	1	6
352.853	1	2
353.024	1	-1
353.195	1	1
353.366	1	12
353.537	1	4
353.708	1	14
353.879	1	18
354.050	1	14
354.221	1	7
354.392	1	17
354.563	1	26
354.734	1	13
354.905	1	8
355.076	1	25
355.247	1	6
355.418	1	10
355.589	1	8
355.760	1	14
355.931	1	13
356.102	1	14
356.273	1	9
356.444	1	15
356.615	1	13
356.785	1	16
356.956	1	8
357.127	1	13
357.298	1	14
357.469	1	13
357.640	1	19
357.811	1	30
357.982	1	6
358.153	1	13
358.324	1	21
358.495	1	17
358.666	1	12
358.837	1	11
359.008	1	18
359.179	1	18
359.350	1	24
359.521	1	19
359.692	1	24
359.863	1	23
360.034	1	16
360.205	1	21
360.376	1	24
360.547	1	24
360.718	1	22
360.889	1	25
361.060	1	35
361.231	1	36
361.401	1	36
361.572	1	34
361.743	1	35
361.914	1	30
362.085	1	35
362.256	1	46
362.427	1	36
362.598	1	46
362.769	1	53
362.940	1	50
363.111	1	57
363.282	1	50
363.453	1	58
363.624	1	60
363.795	1	65
363.966	1	74
364.137	1	62
364.308	1	61
364.478	1	76
364.649	1	83
364.820	1	88
364.991	1	103
365.162	1	84
365.333	1	93
365.504	1	79
365.675	1	94
365.846	1	98
366.017	1	111
366.188	1	107
366.359	1	119
366.530	1	124
366.701	1	104
366.871	1	124
367.042	1	129
367.213	1	114
367.384	1	115
367.555	1	113
367.726	1	123
367.897	1	109
368.068	1	97
368.239	1	128
368.410	1	107
368.581	1	105
368.752	1	100
368.923	1	94
369.093	1	104
369.264	1	93
369.435	1	86
369.606	1	89
369.777	1	87
369.948	1	87
370.119	1	93
370.290	1	85
370.461	1	86
370.632	1	71
370.803	1	72
370.973	1	88
371.144	1	75
371.315	1	72
371.486	1	75
371.657	1	78
371.828	1	67
371.999	1	66
372.170	1	72
372.341	1	66
372.512	1	56
372.682	1	50
372.853	1	72
373.024	1	65
373.195	1	50
373.366	1	61
373.537	1	55
373.708	1	53
373.879	1	63
374.050	1	62
374.220	1	44
374.391	1	38
374.562	1	46
374.733	1	53
374.904	1	44
375.075	1	51
375.246	1	61
375.417	1	49
375.588	1	40
375.758	1	36
375.929	1	40
376.100	1	55
376.271	1	41
376.442	1	47
376.613	1	51
376.784	1	44
376.955	1	28
377.125	1	41
377.296	1	43
377.467	1	39
377.638	1	32
377.809	1	40
377.980	1	41
378.151	1	33
378.321	1	35
378.492	1	45
378.663	1	40
378.834	1	36
379.005	1	39
379.176	1	39
379.347	1	50
379.518	1	16
379.688	1	32
379.859	1	33
380.030	1	39
380.201	1	35
380.372	1	41
380.543	1	45
380.714	1	38
380.884	1	30
381.055	1	42
381.226	1	46
381.397	1	47
381.568	1	47
381.739	1	56
381.910	1	54
382.080	1	43
382.251	1	60
382.422	1	70
382.593	1	51
382.764	1	58
382.935	1	54
383.105	1	65
383.276	1	58
383.447	1	85
383.618	1	77
383.789	1	79
383.960	1	78
384.130	1	83
384.301	1	87
384.472	1	88
384.643	1	98
384.814	1	107
384.985	1	114
385.156	1	118
385.326	1	125
385.497	1	127
385.668	1	114
385.839	1	131
386.010	1	131
386.180	1	130
386.351	1	118
386.522	1	132
386.693	1	140
386.864	1	132
387.035	1	136
387.205	1	131
387.376	1	146
387.547	1	132
387.718	1	150
387.889	1	140
388.060	1	129
388.230	1	118
388.401	1	147
388.572	1	128
388.743	1	129
388.914	1	138
389.084	1	125
389.255	1	129
389.426	1	128
389.597	1	112
389.768	1	142
389.939	1	122
390.109	1	126
390.280	1	128
390.451	1	141
390.622	1	121
390.793	1	132
390.963	1	122
391.134	1	126
391.305	1	121
391.476	1	128
391.647	1	126
391.817	1	120
391.988	1	117
392.159	1	115
392.330	1	127
392.501	1	119
392.671	1	119
392.842	1	113
393.013	1	109
393.184	1	120
393.355	1	118
393.525	1	105
393.696	1	104
393.867	1	104
394.038	1	101
394.208	1	113
394.379	1	95
394.550	1	102
394.721	1	109
394.892	1	120
395.062	1	101
395.233	1	113
395.404	1	118
395.575	1	103
395.746	1	101
395.916	1	123
396.087	1	111
396.258	1	112
396.429	1	119
396.599	1	114
396.770	1	119
396.941	1	129
397.112	1	121
397.283	1	130
397.453	1	115
397.624	1	128
397.795	1	124
397.966	1	127
398.136	1	117
398.307	1	132
398.478	1	116
398.649	1	125
398.819	1	126
398.990	1	121
399.161	1	127
399.332	1	126
399.503	1	117
399.673	1	125
399.844	1	123
400.015	1	123
400.186	1	118
400.356	1	100
400.527	1	115
400.698	1	101
400.869	1	97
401.039	1	105
401.210	1	98
401.381	1	107
401.552	1	96
401.722	1	101
401.893	1	104
402.064	1	93
402.235	1	84
402.405	1	85
402.576	1	89
402.747	1	94
402.918	1	81
403.088	1	81
403.259	1	84
403.430	1	86
403.601	1	74
403.771	1	79
403.942	1	89
404.113	1	97
404.284	1	91
404.454	1	93
404.625	1	83
404.796	1	73
404.967	1	87
405.137	1	94
405.308	1	89
405.479	1	83
405.649	1	80
405.820	1	81
405.991	1	85
406.162	1	84
406.332	1	77
406.503	1	70
406.674	1	75
406.845	1	80
407.015	1	70
407.186	1	93
407.357	1	77
407.527	1	73
407.698	1	66
407.869	1	61
408.040	1	76
408.210	1	75
408.381	1	71
408.552	1	74
408.722	1	66
408.893	1	73
409.064	1	69
409.235	1	79
409.405	1	78
409.576	1	66
409.747	1	80
409.917	1	63
410.088	1	72
410.259	1	64
410.430	1	70
410.600	1	73
410.771	1	63
410.942	1	65
411.112	1	73
411.283	1	50
411.454	1	68
411.625	1	49
411.795	1	64
411.966	1	62
412.137	1	81
412.307	1	61
412.478	1	61
412.649	1	60
412.819	1	50
412.990	1	53
413.161	1	67
413.332	1	49
413.502	1	59
413.673	1	55
413.844	1	56
414.014	1	48
414.185	1	60
414.356	1	52
414.526	1	60
414.697	1	68
414.868	1	70
415.038	1	50
415.209	1	50
415.380	1	51
415.550	1	45
415.721	1	51
415.892	1	46
416.063	1	68
416.233	1	52
416.404	1	54
416.575	1	49
416.745	1	46
416.916	1	50
417.087	1	55
417.257	1	57
417.428	1	45
417.599	1	45
417.769	1	49
417.940	1	52
418.111	1	52
418.281	1	51
418.452	1	42
418.623	1	53
418.793	1	59
418.964	1	47
419.135	1	39
419.305	1	46
419.476	1	33
419.647	1	55
419.817	1	54
419.988	1	34
420.159	1	35
420.329	1	53
420.500	1	42
420.671	1	46
420.841	1	43
421.012	1	46
421.183	1	47
421.353	1	43
421.524	1	43
421.695	1	42
421.865	1	40
422.036	1	42
422.206	1	42
422.377	1	41
422.548	1	38
422.718	1	37
422.889	1	37
423.060	1	36
423.230	1	40
423.401	1	39
423.572	1	39
423.742	1	41
423.913	1	45
424.084	1	45
424.254	1	42
424.425	1	34
424.595	1	26
424.766	1	49
424.937	1	31
425.107	1	34
425.278	1	32
425.449	1	34
425.619	1	36
425.790	1	31
425.961	1	34
426.131	1	42
426.302	1	29
426.472	1	33
426.643	1	33
426.814	1	28
426.984	1	41
427.155	1	18
427.326	1	32
427.496	1	41
427.667	1	34
427.837	1	16
428.008	1	39
428.179	1	14
428.349	1	32
428.520	1	37
428.691	1	24
428.861	1	30
429.032	1	26
429.202	1	30
429.373	1	22
429.544	1	25
429.714	1	38
429.885	1	22
430.055	1	25
430.226	1	24
430.397	1	29
430.567	1	42
430.738	1	22
430.909	1	13
431.079	1	34
431.250	1	10
431.420	1	28
431.591	1	30
431.762	1	24
431.932	1	30
432.103	1	20
432.273	1	28
432.444	1	34
432.615	1	20
432.785	1	12
432.956	1	17
433.126	1	26
433.297	1	23
433.468	1	24
433.638	1	22
433.809	1	29
433.979	1	14
434.150	1	8
434.320	1	27
434.491	1	27
434.662	1	11
434.832	1	13
435.003	1	36
435.173	1	20
435.344	1	33
435.515	1	14
435.685	1	31
435.856	1	20
436.026	1	18
436.197	1	17
436.368	1	16
436.538	1	19
436.709	1	4
436.879	1	18
437.050	1	27
437.220	1	31
437.391	1	18
437.562	1	24
437.732	1	19
437.903	1	16
438.073	1	14
438.244	1	8
438.414	1	20
438.585	1	22
438.756	1	26
438.926	1	21
439.097	1	22
439.267	1	24
439.438	1	23
439.608	1	8
439.779	1	13
439.949	1	7
440.120	1	14
440.291	1	8
440.461	1	16
440.632	1	26
440.802	1	26
440.973	1	20
441.143	1	25
441.314	1	26
441.485	1	18
441.655	1	33
441.826	1	15
441.996	1	15
442.167	1	19
442.337	1	10
442.508	1	11
442.678	1	6
442.849	1	17
443.019	1	19
443.190	1	1
443.361	1	26
443.531	1	12
443.702	1	19
443.872	1	20
444.043	1	18
444.213	1	14
444.384	1	24
444.554	1	12
444.725	1	11
444.895	1	18
445.066	1	5
445.237	1	10
445.407	1	17
445.578	1	27
445.748	1	8
445.919	1	19
446.089	1	30
446.260	1	14
446.430	1	8
446.601	1	11
446.771	1	15
446.942	1	9
447.112	1	18
447.283	1	14
447.453	1	-5
447.624	1	18
447.794	1	7
447.965	1	2
448.135	1	11
448.306	1	20
448.477	1	2
448.647	1	26
448.818	1	24
448.988	1	5
449.159	1	7
449.329	1	9
449.500	1	15
449.670	1	18
449.841	1	11
450.011	1	23
450.182	1	6
450.352	1	25
450.523	1	6
450.693	1	15
450.864	1	11
451.034	1	19
451.205	1	16
451.375	1	22
451.546	1	11
451.716	1	18
451.887	1	12
452.057	1	21
452.228	1	9
452.398	1	12
452.569	1	13
452.739	1	5
452.910	1	12
453.080	1	22
453.251	1	16
453.421	1	5
453.592	1	14
453.762	1	16
453.933	1	17
454.103	1	16
454.274	1	9
454.444	1	24
454.615	1	14
454.785	1	4
454.956	1	3
455.126	1	8
455.297	1	17
455.467	1	17
455.638	1	12
455.808	1	12
455.979	1	18
456.149	1	9
456.320	1	15
456.490	1	8
456.661	1	9
456.831	1	12
457.001	1	21
457.172	1	14
457.342	1	16
457.513	1	18
457.683	1	12
457.854	1	6
458.024	1	14
458.195	1	10
458.365	1	12
458.536	1	20
458.706	1	4
458.877	1	12
459.047	1	8
459.218	1	15
459.388	1	12
459.559	1	17
459.729	1	10
459.899	1	15
460.070	1	19
460.240	1	12
460.411	1	16
460.581	1	11
460.752	1	13
460.922	1	13
461.093	1	20
461.263	1	17
461.434	1	12
461.604	1	7
461.775	1	9
461.945	1	19
462.115	1	6
462.286	1	17
462.456	1	-2
462.627	1	6
462.797	1	8
462.968	1	9
463.138	1	21
463.309	1	15
463.479	1	12
463.649	1	11
463.820	1	8
463.990	1	4
464.161	1	13
464.331	1	22
464.502	1	14
464.672	1	12
464.843	1	16
465.013	1	4
465.183	1	11
465.354	1	13
465.524	1	25
465.695	1	19
465.865	1	6
466.036	1	1
466.206	1	-1
466.376	1	12
466.547	1	13
466.717	1	5
466.888	1	15
467.058	1	25
467.229	1	11
467.399	1	20
467.569	1	8
467.740	1	4
467.910	1	12
468.081	1	14
468.251	1	12
468.422	1	16
468.592	1	16
468.762	1	3
468.933	1	18
469.103	1	8
469.274	1	8
469.444	1	6
469.614	1	8
469.785	1	17
469.955	1	8
470.126	1	11
470.296	1	14
470.467	1	5
470.637	1	13
470.807	1	4
470.978	1	9
471.148	1	14
471.319	1	11
471.489	1	10
471.659	1	14
471.830	1	30
472.000	1	14
472.171	1	6
472.341	1	12
472.511	1	18
472.682	1	15
472.852	1	3
473.023	1	12
473.193	1	7
473.363	1	11
473.534	1	8
473.704	1	15
473.875	1	15
474.045	1	-2
474.215	1	0
474.386	1	15
474.556	1	8
474.727	1	10
474.897	1	4
475.067	1	19
475.238	1	7
475.408	1	15
475.578	1	7
475.749	1	4
475.919	1	10
476.090	1	9
476.260	1	7
476.430	1	9
476.601	1	12
476.771	1	9
476.942	1	10
477.112	1	8
477.282	1	5
477.453	1	7
477.623	1	18
477.793	1	18
477.964	1	16
478.134	1	10
478.305	1	13
478.475	1	7
478.645	1	8
478.816	1	4
478.986	1	12
479.156	1	16
479.327	1	11
479.497	1	9
479.667	1	16
479.838	1	11
480.008	1	19
480.179	1	13
480.349	1	9
480.519	1	13
480.690	1	14
480.860	1	7
481.030	1	6
481.201	1	3
481.371	1	24
481.541	1	20
481.712	1	13
481.882	1	5
482.053	1	18
482.223	1	7
482.393	1	3
482.564	1	10
482.734	1	19
482.904	1	17
483.075	1	18
483.245	1	13
483.415	1	19
483.586	1	18
483.756	1	22
483.926	1	23
484.097	1	10
484.267	1	12
484.437	1	8
484.608	1	11
484.778	1	23
484.948	1	18
485.119	1	19
485.289	1	18
485.459	1	27
485.630	1	16
485.800	1	16
485.970	1	14
486.141	1	8
486.311	1	19
486.481	1	18
486.652	1	18
486.822	1	15
486.992	1	16
487.163	1	15
487.333	1	21
487.503	1	7
487.674	1	15
487.844	1	16
488.014	1	18
488.185	1	8
488.355	1	8
488.525	1	7
488.696	1	8
488.866	1	23
489.036	1	17
489.207	1	25
489.377	1	18
489.547	1	7
489.718	1	15
489.888	1	14
490.058	1	14
490.228	1	20
490.399	1	33
490.569	1	19
490.739	1	28
490.910	1	11
491.080	1	12
491.250	1	22
491.421	1	15
491.591	1	12
491.761	1	31
491.932	1	19
492.102	1	23
492.272	1	23
492.442	1	21
492.613	1	19
492.783	1	10
492.953	1	24
493.124	1	18
493.294	1	30
493.464	1	19
493.635	1	25
493.805	1	30
493.975	1	26
494.145	1	24
494.316	1	24
494.486	1	19
494.656	1	22
494.827	1	25
494.997	1	26
495.167	1	31
495.337	1	23
495.508	1	14
495.678	1	20
495.848	1	30
496.019	1	28
496.189	1	26
496.359	1	23
496.529	1	10
496.700	1	23
496.870	1	20
497.040	1	23
497.211	1	30
497.381	1	11
497.551	1	41
497.721	1	29
497.892	1	23
498.062	1	22
498.232	1	24
498.403	1	27
498.573	1	21
498.743	1	30
498.913	1	27
499.084	1	19
499.254	1	29
499.424	1	42
499.594	1	26
499.765	1	25
499.935	1	23
500.105	1	30
500.275	1	34
500.446	1	22
500.616	1	25
500.786	1	28
500.956	1	25
501.127	1	33
501.297	1	28
501.467	1	41
501.638	1	34
501.808	1	30
501.978	1	38
502.148	1	39
502.319	1	36
502.489	1	33
502.659	1	33
502.829	1	45
503.000	1	46
503.170	1	40
503.340	1	32
503.510	1	32
503.681	1	35
503.851	1	20
504.021	1	45
504.191	1	39
504.362	1	40
504.532	1	30
504.702	1	52
504.872	1	33
505.042	1	53
505.213	1	36
505.383	1	50
505.553	1	53
505.723	1	47
505.894	1	58
506.064	1	64
506.234	1	55
506.404	1	44
506.575	1	44
506.745	1	47
506.915	1	48
507.085	1	42
507.256	1	42
507.426	1	43
507.596	1	50
507.766	1	54
507.936	1	57
508.107	1	58
508.277	1	42
508.447	1	49
508.617	1	58
508.788	1	36
508.958	1	52
509.128	1	45
509.298	1	55
509.468	1	52
509.639	1	58
509.809	1	55
509.979	1	48
510.149	1	47
510.319	1	46
510.490	1	55
510.660	1	54
510.830	1	60
511.000	1	57
511.171	1	66
511.341	1	51
511.511	1	49
511.681	1	58
511.851	1	50
512.022	1	43
512.192	1	67
512.362	1	56
512.532	1	52
512.702	1	54
512.873	1	70
513.043	1	57
513.213	1	56
513.383	1	62
513.553	1	52
513.724	1	71
513.894	1	57
514.064	1	61
514.234	1	56
514.404	1	62
514.575	1	68
514.745	1	60
514.915	1	65
515.085	1	59
515.255	1	49
515.425	1	53
515.596	1	54
515.766	1	61
515.936	1	71
516.106	1	62
516.276	1	69
516.447	1	74
516.617	1	63
516.787	1	60
516.957	1	61
517.127	1	63
517.297	1	70
517.468	1	70
517.638	1	71
517.808	1	66
517.978	1	59
518.148	1	68
518.319	1	66
518.489	1	69
518.659	1	64
518.829	1	62
518.999	1	67
519.169	1	74
519.340	1	66
519.510	1	73
519.680	1	59
519.850	1	72
520.020	1	63
520.190	1	76
520.361	1	62
520.531	1	71
520.701	1	66
520.871	1	68
521.041	1	69
521.211	1	67
521.382	1	78
521.552	1	78
521.722	1	72
521.892	1	62
522.062	1	58
522.232	1	72
522.402	1	66
522.573	1	78
522.743	1	81
522.913	1	79
523.083	1	68
523.253	1	74
523.423	1	64
523.593	1	60
523.764	1	84
523.934	1	77
524.104	1	79
524.274	1	63
524.444	1	74
524.614	1	74
524.784	1	85
524.955	1	74
525.125	1	73
525.295	1	75
525.465	1	69
525.635	1	80
525.805	1	79
525.975	1	70
526.146	1	72
526.316	1	85
526.486	1	74
526.656	1	95
526.826	1	86
526.996	1	84
527.166	1	93
527.337	1	71
527.507	1	71
527.677	1	83
527.847	1	67
528.017	1	65
528.187	1	81
528.357	1	84
528.527	1	77
528.698	1	72
528.868	1	68
529.038	1	82
529.208	1	77
529.378	1	74
529.548	1	74
529.718	1	95
529.888	1	81
530.058	1	74
530.229	1	75
530.399	1	83
530.569	1	97
530.739	1	80
530.909	1	91
531.079	1	85
531.249	1	80
531.419	1	90
531.589	1	77
531.760	1	87
531.930	1	86
532.100	1	89
532.270	1	95
532.440	1	71
532.610	1	82
532.780	1	77
532.950	1	89
533.120	1	79
533.290	1	87
533.461	1	92
533.631	1	77
533.801	1	86
533.971	1	93
534.141	1	85
534.311	1	86
534.481	1	86
534.651	1	78
534.821	1	78
534.991	1	84
535.162	1	85
535.332	1	70
535.502	1	85
535.672	1	74
535.842	1	77
536.012	1	86
536.182	1	75
536.352	1	80
536.522	1	88
536.692	1	75
536.862	1	78
537.032	1	89
537.203	1	83
537.373	1	89
537.543	1	81
537.713	1	83
537.883	1	83
538.053	1	73
538.223	1	76
538.393	1	80
538.563	1	76
538.733	1	73
538.903	1	75
539.073	1	70
539.243	1	63
539.413	1	68
539.584	1	81
539.754	1	70
539.924	1	80
540.094	1	68
540.264	1	84
540.434	1	61
540.604	1	77
540.774	1	69
540.944	1	77
541.114	1	71
541.284	1	70
541.454	1	74
541.624	1	66
541.794	1	79
541.964	1	81
542.134	1	85
542.305	1	64
542.475	1	64
542.645	1	60
542.815	1	79
542.985	1	76
543.155	1	72
543.325	1	74
543.495	1	67
543.665	1	69
543.835	1	64
544.005	1	68
544.175	1	66
544.345	1	69
544.515	1	61
544.685	1	78
544.855	1	72
545.025	1	55
545.195	1	70
545.365	1	79
545.535	1	62
545.705	1	71
545.875	1	68
546.045	1	81
546.216	1	81
546.386	1	60
546.556	1	66
546.726	1	69
546.896	1	72
547.066	1	56
547.236	1	60
547.406	1	76
547.576	1	64
547.746	1	75
547.916	1	75
548.086	1	72
548.256	1	74
548.426	1	52
548.596	1	71
548.766	1	71
548.936	1	62
549.106	1	74
549.276	1	74
549.446	1	66
549.616	1	76
549.786	1	72
549.956	1	77
550.126	1	56
550.296	1	64
550.466	1	62
550.636	1	77
550.806	1	81
550.976	1	74
551.146	1	66
551.316	1	72
551.486	1	74
551.656	1	59
551.826	1	63
551.996	1	74
552.166	1	61
552.336	1	60
552.506	1	55
552.676	1	58
552.846	1	63
553.016	1	68
553.186	1	62
553.356	1	57
553.526	1	59
553.696	1	65
553.866	1	73
554.036	1	61
554.206	1	65
554.376	1	52
554.546	1	46
554.716	1	56
554.886	1	60
555.056	1	50
555.226	1	55
555.396	1	64
555.566	1	53
555.736	1	45
555.906	1	69
556.076	1	60
556.246	1	60
556.416	1	53
556.586	1	66
556.756	1	56
556.926	1	59
557.096	1	53
557.266	1	62
557.436	1	63
557.606	1	48
557.776	1	57
557.946	1	61
558.116	1	61
558.286	1	53
558.456	1	53
558.626	1	63
558.796	1	57
558.966	1	51
559.136	1	53
559.306	1	51
559.476	1	52
559.646	1	55
559.816	1	55
559.986	1	51
560.155	1	42
560.325	1	41
560.495	1	55
560.665	1	58
560.835	1	55
561.005	1	47
561.175	1	41
561.345	1	41
561.515	1	35
561.685	1	41
561.855	1	49
562.025	1	49
562.195	1	51
562.365	1	42
562.535	1	50
562.705	1	57
562.875	1	53
563.045	1	47
563.215	1	46
563.385	1	41
563.555	1	48
563.725	1	37
563.895	1	44
564.064	1	52
564.234	1	42
564.404	1	44
564.574	1	40
564.744	1	55
564.914	1	29
565.084	1	32
565.254	1	48
565.424	1	37
565.594	1	31
565.764	1	52
565.934	1	50
566.104	1	50
566.274	1	42
566.444	1	43
566.614	1	45
566.783	1	46
566.953	1	49
567.123	1	58
567.293	1	40
567.463	1	39
567.633	1	45
567.803	1	37
567.973	1	43
568.143	1	40
568.313	1	35
568.483	1	33
568.653	1	29
568.823	1	51
568.993	1	31
569.162	1	48
569.332	1	31
569.502	1	41
569.672	1	47
569.842	1	41
570.012	1	37
570.182	1	30
570.352	1	40
570.522	1	44
570.692	1	37
570.862	1	36
571.031	1	32
571.201	1	43
571.371	1	24
571.541	1	31
571.711	1	49
571.881	1	34
572.051	1	39
572.221	1	47
572.391	1	31
572.561	1	30
572.731	1	29
572.900	1	54
573.070	1	33
573.240	1	26
573.410	1	38
573.580	1	31
573.750	1	38
573.920	1	40
574.090	1	32
574.260	1	30
574.430	1	40
574.599	1	31
574.769	1	24
574.939	1	41
575.109	1	28
575.279	1	36
575.449	1	34
575.619	1	27
575.789	1	38
575.959	1	25
576.128	1	28
576.298	1	24
576.468	1	24
576.638	1	30
576.808	1	30
576.978	1	29
577.148	1	38
577.318	1	39
577.487	1	22
577.657	1	19
577.827	1	35
577.997	1	19
578.167	1	37
578.337	1	26
578.507	1	32
578.677	1	25
578.846	1	20
579.016	1	52
579.186	1	23
579.356	1	27
579.526	1	20
579.696	1	27
579.866	1	21
580.036	1	21
580.205	1	26
580.375	1	27
580.545	1	24
580.715	1	28
580.885	1	23
581.055	1	26
581.225	1	16
581.394	1	17
581.564	1	21
581.734	1	26
581.904	1	23
582.074	1	28
582.244	1	21
582.414	1	24
582.583	1	15
582.753	1	37
582.923	1	27
583.093	1	22
583.263	1	27
583.433	1	24
583.603	1	30
583.772	1	13
583.942	1	27
584.112	1	29
584.282	1	29
584.452	1	25
584.622	1	28
584.791	1	24
584.961	1	17
585.131	1	16
585.301	1	24
585.471	1	20
585.641	1	28
585.811	1	27
585.980	1	17
586.150	1	26
586.320	1	15
586.490	1	20
586.660	1	24
586.830	1	18
586.999	1	23
587.169	1	19
587.339	1	22
587.509	1	23
587.679	1	25
587.849	1	31
588.018	1	22
588.188	1	20
588.358	1	29
588.528	1	27
588.698	1	17
588.867	1	25
589.037	1	18
589.207	1	12
589.377	1	19
589.547	1	13
589.717	1	28
589.886	1	21
590.056	1	20
590.226	1	14
590.396	1	11
590.566	1	21
590.735	1	31
590.905	1	18
591.075	1	8
591.245	1	15
591.415	1	15
591.585	1	17
591.754	1	18
591.924	1	13
592.094	1	29
592.264	1	20
592.434	1	23
592.603	1	10
592.773	1	11
592.943	1	15
593.113	1	9
593.283	1	23
593.452	1	6
593.622	1	18
593.792	1	24
593.962	1	20
594.132	1	20
594.301	1	33
594.471	1	18
594.641	1	14
594.811	1	9
594.981	1	20
595.150	1	9
595.320	1	20
595.490	1	11
595.660	1	16
595.829	1	19
595.999	1	19
596.169	1	12
596.339	1	21
596.509	1	14
596.678	1	10
596.848	1	22
597.018	1	19
597.188	1	16
597.358	1	20
597.527	1	6
597.697	1	5
597.867	1	16
598.037	1	17
598.206	1	11
598.376	1	26
598.546	1	14
598.716	1	7
598.885	1	10
599.055	1	14
599.225	1	25
599.395	1	11
599.565	1	13
599.734	1	10
599.904	1	9
600.074	1	12
600.244	1	19
600.413	1	17
600.583	1	18
600.753	1	18
600.923	1	26
601.092	1	7
601.262	1	20
601.432	1	16
601.602	1	19
601.771	1	12
601.941	1	12
602.111	1	8
602.281	1	15
602.451	1	16
602.620	1	16
602.790	1	20
602.960	1	11
603.130	1	17
603.299	1	20
603.469	1	12
603.639	1	23
603.809	1	18
603.978	1	19
604.148	1	19
604.318	1	13
604.487	1	22
604.657	1	14
604.827	1	6
604.997	1	20
605.166	1	9
605.336	1	11
605.506	1	12
605.676	1	5
605.845	1	13
606.015	1	25
606.185	1	17
606.355	1	21
606.524	1	10
606.694	1	36
606.864	1	8
607.034	1	10
607.203	1	28
607.373	1	10
607.543	1	2
607.712	1	27
607.882	1	13
608.052	1	16
608.222	1	15
608.391	1	14
608.561	1	17
608.731	1	5
608.901	1	16
609.070	1	5
609.240	1	15
609.410	1	19
609.579	1	20
609.749	1	13
609.919	1	14
610.089	1	10
610.258	1	15
610.428	1	16
610.598	1	9
610.767	1	10
610.937	1	14
611.107	1	14
611.277	1	25
611.446	1	10
611.616	1	-4
611.786	1	17
611.955	1	21
612.125	1	7
612.295	1	16
612.465	1	5
612.634	1	7
612.804	1	18
612.974	1	15
613.143	1	13
613.313	1	6
613.483	1	16
613.652	1	2
613.822	1	22
613.992	1	4
614.162	1	12
614.331	1	18
614.501	1	12
614.671	1	7
614.840	1	13
615.010	1	21
615.180	1	21
615.349	1	14
615.519	1	10
615.689	1	13
615.858	1	12
616.028	1	16
616.198	1	19
616.368	1	6
616.537	1	8
616.707	1	6
616.877	1	16
617.046	1	14
617.216	1	16
617.386	1	19
617.555	1	9
617.725	1	10
617.895	1	2
618.064	1	18
618.234	1	14
618.404	1	18
618.573	1	14
618.743	1	6
618.913	1	11
619.082	1	14
619.252	1	15
619.422	1	15
619.591	1	17
619.761	1	10
619.931	1	17
620.100	1	14
620.270	1	10
620.440	1	7
620.609	1	23
620.779	1	2
620.949	1	9
621.118	1	5
621.288	1	15
621.458	1	16
621.627	1	-1
621.797	1	15
621.967	1	-3
622.136	1	13
622.306	1	10
622.476	1	11
622.645	1	7
622.815	1	4
622.985	1	16
623.154	1	24
623.324	1	11
623.494	1	5
623.663	1	19
623.833	1	13
624.002	1	12
624.172	1	29
624.342	1	7
624.511	1	9
624.681	1	-2
624.851	1	-2
625.020	1	13
625.190	1	6
625.360	1	4
625.529	1	14
625.699	1	13
625.869	1	13
626.038	1	14
626.208	1	10
626.377	1	28
626.547	1	13
626.717	1	-1
626.886	1	3
627.056	1	3
627.226	1	7
627.395	1	23
627.565	1	23
627.735	1	15
627.904	1	15
628.074	1	9
628.243	1	5
628.413	1	7
628.583	1	10
628.752	1	16
628.922	1	1
629.091	1	25
629.261	1	13
629.431	1	1
629.600	1	9
629.770	1	9
629.940	1	5
630.109	1	5
630.279	1	7
630.448	1	-1
630.618	1	4
630.788	1	6
630.957	1	7
631.127	1	16
631.297	1	12
631.466	1	6
631.636	1	6
631.805	1	4
631.975	1	9
632.145	1	3
632.314	1	21
632.484	1	15
632.653	1	4
632.823	1	21
632.993	1	15
633.162	1	5
633.332	1	8
633.501	1	9
633.671	1	4
633.841	1	12
634.010	1	4
634.180	1	3
634.349	1	4
634.519	1	13
634.689	1	13
634.858	1	15
635.028	1	9
635.197	1	4
635.367	1	12
635.537	1	13
635.706	1	1
635.876	1	6
636.045	1	5
636.215	1	4
636.384	1	12
636.554	1	13
636.724	1	15
636.893	1	14
637.063	1	14
637.232	1	5
637.402	1	9
637.572	1	2
637.741	1	13
637.911	1	5
638.080	1	13
638.250	1	7
638.419	1	12
638.589	1	13
638.759	1	17
638.928	1	3
639.098	1	8
639.267	1	5
639.437	1	-3
639.606	1	11
639.776	1	12
639.946	1	10
640.115	1	14
640.285	1	7
640.454	1	18
640.624	1	17
640.793	1	15
640.963	1	-4
641.132	1	10
641.302	1	9
641.472	1	12
641.641	1	6
641.811	1	5
641.980	1	-1
642.150	1	6
642.319	1	4
642.489	1	6
642.659	1	-8
642.828	1	10
642.998	1	0
643.167	1	7
643.337	1	11
643.506	1	-1
643.676	1	8
643.845	1	8
644.015	1	6
644.184	1	7
644.354	1	7
644.524	1	1
644.693	1	10
644.863	1	4
645.032	1	8
645.202	1	12
645.371	1	2
645.541	1	6
645.710	1	9
645.880	1	2
646.049	1	14
646.219	1	13
646.388	1	19
646.558	1	7
646.728	1	15
646.897	1	8
647.067	1	10
647.236	1	10
647.406	1	4
647.575	1	9
647.745	1	10
647.914	1	-3
648.084	1	14
648.253	1	16
648.423	1	-5
648.592	1	11
648.762	1	9
648.931	1	14
649.101	1	3
649.270	1	10
649.440	1	11
649.610	1	8
649.779	1	6
649.949	1	4
650.118	1	3
650.288	1	9
650.457	1	3
650.627	1	5
650.796	1	2
650.966	1	4
651.135	1	11
651.305	1	8
651.474	1	15
651.644	1	3
651.813	1	16
651.983	1	5
652.152	1	8
652.322	1	11
652.491	1	12
652.661	1	15
652.830	1	9
653.000	1	5
653.169	1	16
653.339	1	10
653.508	1	10
653.678	1	9
653.847	1	14
654.017	1	6
654.186	1	9
654.356	1	9
654.525	1	11
654.695	1	10
654.864	1	16
655.034	1	12
655.203	1	1
655.373	1	16
655.542	1	13
655.712	1	-1
655.881	1	14
656.051	1	14
656.220	1	10
656.390	1	7
656.559	1	0
656.729	1	13
656.898	1	9
657.068	1	7
657.237	1	10
657.406	1	9
657.576	1	4
657.745	1	4
657.915	1	12
658.084	1	10
658.254	1	6
658.423	1	-6
658.593	1	-2
658.762	1	4
658.932	1	7
659.101	1	-1
659.271	1	12
659.440	1	15
659.610	1	6
659.779	1	2
659.949	1	0
660.118	1	8
660.288	1	15
660.457	1	6
660.626	1	7
660.796	1	-4
660.965	1	7
661.135	1	11
661.304	1	4
661.474	1	10
661.643	1	-2
661.813	1	11
661.982	1	15
662.152	1	2
662.321	1	6
662.491	1	-1
662.660	1	9
662.829	1	5
662.999	1	0
663.168	1	9
663.338	1	4
663.507	1	0
663.677	1	-9
663.846	1	14
664.016	1	-2
664.185	1	7
664.354	1	5
664.524	1	-6
664.693	1	7
664.863	1	5
665.032	1	12
665.202	1	-2
665.371	1	20
665.541	1	-3
665.710	1	1
665.879	1	9
666.049	1	0
666.218	1	0
666.388	1	10
666.557	1	-3
666.727	1	-13
666.896	1	9
667.065	1	10
667.235	1	5
667.404	1	3
667.574	1	8
667.743	1	11
667.913	1	1
668.082	1	-1
668.251	1	7
668.421	1	-1
668.590	1	8
668.760	1	12
668.929	1	10
669.099	1	0
669.268	1	8
669.437	1	4
669.607	1	5
669.776	1	3
669.946	1	4
670.115	1	7
670.285	1	10
670.454	1	2
670.623	1	11
670.793	1	4
670.962	1	5
671.132	1	8
671.301	1	5
671.470	1	3
671.640	1	-1
671.809	1	4
671.979	1	23
672.148	1	8
672.317	1	-1
672.487	1	6
672.656	1	9
672.826	1	1
672.995	1	11
673.164	1	11
673.334	1	7
673.503	1	10
673.673	1	24
673.842	1	4
674.011	1	8
674.181	1	-2
674.350	1	5
674.520	1	1
674.689	1	-4
674.858	1	5
675.028	1	10
675.197	1	-2
675.367	1	13
675.536	1	18
675.705	1	-6
675.875	1	6
676.044	1	4
676.214	1	16
676.383	1	4
676.552	1	3
676.722	1	11
676.891	1	2
677.060	1	0
677.230	1	20
677.399	1	12
677.569	1	1
677.738	1	-4
677.907	1	-7
678.077	1	10
678.246	1	-7
678.416	1	7
678.585	1	13
678.754	1	1
678.924	1	-4
679.093	1	6
679.262	1	11
679.432	1	-4
679.601	1	-4
679.771	1	6
679.940	1	-1
680.109	1	20
680.279	1	4
680.448	1	13
680.617	1	11
680.787	1	10
680.956	1	17
681.125	1	4
681.295	1	10
681.464	1	-4
681.634	1	5
681.803	1	-8
681.972	1	-3
682.142	1	17
682.311	1	15
682.480	1	3
682.650	1	5
682.819	1	7
682.988	1	2
683.158	1	2
683.327	1	11
683.496	1	4
683.666	1	9
683.835	1	14
684.004	1	5
684.174	1	6
684.343	1	6
684.512	1	15
684.682	1	18
684.851	1	3
685.021	1	2
685.190	1	9
685.359	1	2
685.529	1	8
685.698	1	9
685.867	1	16
686.037	1	5
686.206	1	10
686.375	1	10
686.545	1	8
686.714	1	13
686.883	1	4
687.053	1	11
687.222	1	0
687.391	1	5
687.561	1	13
687.730	1	12
687.899	1	1
688.069	1	5
688.238	1	11
688.407	1	17
688.577	1	11
688.746	1	14
