340.368	1	-1
340.539	1	6
340.710	1	-1
340.881	1	8
341.052	1	0
341.223	1	4
341.394	1	0
341.565	1	2
341.737	1	3
341.908	1	3
342.079	1	-5
342.250	1	5
342.421	1	-7
342.592	1	-3
342.763	1	5
342.934	1	6
343.105	1	6
343.276	1	2
343.447	1	10
343.618	1	8
343.789	1	1
343.960	1	6
344.131	1	1
344.302	1	-10
344.473	1	-3
344.644	1	4
344.815	1	9
344.986	1	6
345.157	1	7
345.328	1	-5
345.499	1	9
345.670	1	12
345.841	1	-4
346.012	1	14
346.183	1	3
346.354	1	-3
346.526	1	4
346.697	1	0
346.868	1	2
347.039	1	7
347.210	1	-4
347.381	1	5
347.552	1	-3
347.723	1	8
347.894	1	4
348.065	1	3
348.236	1	5
348.407	1	7
348.578	1	2
348.749	1	4
348.920	1	9
349.091	1	4
349.262	1	-4
349.433	1	5
349.604	1	10
349.775	1	6
349.946	1	16
350.117	1	15
350.288	1	4
350.459	1	6
350.630	1	-2
350.801	1	4
350.972	1	2
351.143	1	-6
351.314	1	3
351.485	1	2
351.656	1	4
351.827	1	4
351.998	1	-2
352.169	1	12
352.340	1	-7
352.511	1	-3
352.682	1	-7
352.853	1	-9
353.024	1	4
353.195	1	1
353.366	1	2
353.537	1	9
353.708	1	14
353.879	1	9
354.050	1	2
354.221	1	-6
354.392	1	9
354.563	1	11
354.734	1	8
354.905	1	4
355.076	1	6
355.247	1	1
355.418	1	7
355.589	1	4
355.760	1	11
355.931	1	12
356.102	1	-4
356.273	1	9
356.444	1	5
356.615	1	4
356.785	1	12
356.956	1	4
357.127	1	18
357.298	1	9
357.469	1	5
357.640	1	10
357.811	1	25
357.982	1	-5
358.153	1	5
358.324	1	3
358.495	1	18
358.666	1	8
358.837	1	1
359.008	1	0
359.179	1	13
359.350	1	-6
359.521	1	5
359.692	1	9
359.863	1	3
360.034	1	-2
360.205	1	4
360.376	1	5
360.547	1	2
360.718	1	-6
360.889	1	15
361.060	1	14
361.231	1	9
361.401	1	4
361.572	1	11
361.743	1	7
361.914	1	-1
362.085	1	1
362.256	1	12
362.427	1	0
362.598	1	12
362.769	1	11
362.940	1	6
363.111	1	15
363.282	1	13
363.453	1	12
363.624	1	6
363.795	1	12
363.966	1	12
364.137	1	-4
364.308	1	2
364.478	1	16
364.649	1	8
364.820	1	17
364.991	1	17
365.162	1	4
365.333	1	20
365.504	1	5
365.675	1	9
365.846	1	11
366.017	1	9
366.188	1	-1
366.359	1	12
366.530	1	18
366.701	1	-3
366.871	1	25
367.042	1	16
367.213	1	13
367.384	1	20
367.555	1	16
367.726	1	15
367.897	1	5
368.068	1	10
368.239	1	20
368.410	1	19
368.581	1	13
368.752	1	5
368.923	1	4
369.093	1	11
369.264	1	14
369.435	1	3
369.606	1	0
369.777	1	8
369.948	1	17
370.119	1	14
370.290	1	4
370.461	1	10
370.632	1	11
370.803	1	12
370.973	1	20
371.144	1	19
371.315	1	6
371.486	1	13
371.657	1	17
371.828	1	7
371.999	1	9
372.170	1	12
372.341	1	8
372.512	1	12
372.682	1	3
372.853	1	15
373.024	1	0
373.195	1	0
373.366	1	4
373.537	1	2
373.708	1	3
373.879	1	12
374.050	1	20
374.220	1	7
374.391	1	15
374.562	1	13
374.733	1	22
374.904	1	6
375.075	1	16
375.246	1	0
375.417	1	9
375.588	1	7
375.758	1	2
375.929	1	17
376.100	1	12
376.271	1	4
376.442	1	3
376.613	1	5
376.784	1	9
376.955	1	-3
377.125	1	4
377.296	1	13
377.467	1	5
377.638	1	2
377.809	1	12
377.980	1	11
378.151	1	0
378.321	1	0
378.492	1	15
378.663	1	2
378.834	1	8
379.005	1	9
379.176	1	4
379.347	1	9
379.518	1	-1
379.688	1	-9
379.859	1	3
380.030	1	6
380.201	1	-6
380.372	1	10
380.543	1	5
380.714	1	6
380.884	1	-5
381.055	1	6
381.226	1	8
381.397	1	1
381.568	1	4
381.739	1	18
381.910	1	8
382.080	1	-3
382.251	1	9
382.422	1	14
382.593	1	6
382.764	1	8
382.935	1	17
383.105	1	17
383.276	1	8
383.447	1	19
383.618	1	21
383.789	1	10
383.960	1	9
384.130	1	-1
384.301	1	4
384.472	1	7
384.643	1	23
384.814	1	24
384.985	1	21
385.156	1	26
385.326	1	23
385.497	1	22
385.668	1	16
385.839	1	22
386.010	1	15
386.180	1	18
386.351	1	14
386.522	1	15
386.693	1	18
386.864	1	15
387.035	1	20
387.205	1	11
387.376	1	28
387.547	1	3
387.718	1	30
387.889	1	20
388.060	1	9
388.230	1	11
388.401	1	22
388.572	1	16
388.743	1	23
388.914	1	23
389.084	1	11
389.255	1	15
389.426	1	13
389.597	1	15
389.768	1	14
389.939	1	26
390.109	1	16
390.280	1	22
390.451	1	29
390.622	1	14
390.793	1	21
390.963	1	17
391.134	1	20
391.305	1	22
391.476	1	22
391.647	1	10
391.817	1	3
391.988	1	8
392.159	1	18
392.330	1	19
392.501	1	16
392.671	1	19
392.842	1	28
393.013	1	18
393.184	1	17
393.355	1	21
393.525	1	12
393.696	1	7
393.867	1	4
394.038	1	12
394.208	1	17
394.379	1	17
394.550	1	27
394.721	1	18
394.892	1	14
395.062	1	3
395.233	1	23
395.404	1	25
395.575	1	8
395.746	1	12
395.916	1	15
396.087	1	22
396.258	1	12
396.429	1	21
396.599	1	12
396.770	1	9
396.941	1	25
397.112	1	6
397.283	1	19
397.453	1	9
397.624	1	19
397.795	1	27
397.966	1	24
398.136	1	18
398.307	1	19
398.478	1	11
398.649	1	10
398.819	1	21
398.990	1	24
399.161	1	19
399.332	1	15
399.503	1	20
399.673	1	13
399.844	1	16
400.015	1	12
400.186	1	19
400.356	1	11
400.527	1	10
400.698	1	11
400.869	1	24
401.039	1	15
401.210	1	5
401.381	1	21
401.552	1	27
401.722	1	19
401.893	1	9
402.064	1	10
402.235	1	18
402.405	1	4
402.576	1	17
402.747	1	19
402.918	1	10
403.088	1	21
403.259	1	10
403.430	1	18
403.601	1	8
403.771	1	17
403.942	1	9
404.113	1	11
404.284	1	9
404.454	1	24
404.625	1	16
404.796	1	8
404.967	1	9
405.137	1	17
405.308	1	20
405.479	1	16
405.649	1	15
405.820	1	10
405.991	1	9
406.162	1	4
406.332	1	11
406.503	1	9
406.674	1	23
406.845	1	13
407.015	1	7
407.186	1	22
407.357	1	12
407.527	1	14
407.698	1	1
407.869	1	2
408.040	1	5
408.210	1	2
408.381	1	13
408.552	1	19
408.722	1	5
408.893	1	12
409.064	1	3
409.235	1	10
409.405	1	9
409.576	1	20
409.747	1	-2
409.917	1	5
410.088	1	15
410.259	1	13
410.430	1	16
410.600	1	10
410.771	1	10
410.942	1	23
411.112	1	13
411.283	1	5
411.454	1	15
411.625	1	17
411.795	1	11
411.966	1	10
412.137	1	22
412.307	1	5
412.478	1	12
412.649	1	12
412.819	1	3
412.990	1	10
413.161	1	1
413.332	1	10
413.502	1	7
413.673	1	16
413.844	1	3
414.014	1	9
414.185	1	9
414.356	1	-1
414.526	1	9
414.697	1	11
414.868	1	8
415.038	1	5
415.209	1	17
415.380	1	18
415.550	1	-2
415.721	1	12
415.892	1	6
416.063	1	20
416.233	1	10
416.404	1	19
416.575	1	8
416.745	1	-1
416.916	1	15
417.087	1	8
417.257	1	13
417.428	1	5
417.599	1	11
417.769	1	10
417.940	1	5
418.111	1	4
418.281	1	6
418.452	1	7
418.623	1	17
418.793	1	17
418.964	1	16
419.135	1	13
419.305	1	6
419.476	1	8
419.647	1	12
419.817	1	18
419.988	1	10
420.159	1	2
420.329	1	9
420.500	1	16
420.671	1	9
420.841	1	14
421.012	1	14
421.183	1	11
421.353	1	14
421.524	1	13
421.695	1	16
421.865	1	5
422.036	1	13
422.206	1	5
422.377	1	7
422.548	1	7
422.718	1	5
422.889	1	12
423.060	1	5
423.230	1	20
423.401	1	-1
423.572	1	15
423.742	1	6
423.913	1	13
424.084	1	10
424.254	1	9
424.425	1	4
424.595	1	1
424.766	1	9
424.937	1	0
425.107	1	2
425.278	1	7
425.449	1	14
425.619	1	11
425.790	1	6
425.961	1	10
426.131	1	6
426.302	1	11
426.472	1	5
426.643	1	7
426.814	1	6
426.984	1	9
427.155	1	8
427.326	1	17
427.496	1	15
427.667	1	8
427.837	1	4
428.008	1	16
428.179	1	1
428.349	1	-4
428.520	1	-8
428.691	1	7
428.861	1	3
429.032	1	4
429.202	1	2
429.373	1	-7
429.544	1	5
429.714	1	7
429.885	1	9
430.055	1	-3
430.226	1	5
430.397	1	-4
430.567	1	17
430.738	1	4
430.909	1	-3
431.079	1	14
431.250	1	-3
431.420	1	13
431.591	1	8
431.762	1	8
431.932	1	14
432.103	1	9
432.273	1	-1
432.444	1	4
432.615	1	8
432.785	1	4
432.956	1	-5
433.126	1	4
433.297	1	12
433.468	1	8
433.638	1	0
433.809	1	11
433.979	1	10
434.150	1	6
434.320	1	2
434.491	1	4
434.662	1	0
434.832	1	4
435.003	1	13
435.173	1	7
435.344	1	2
435.515	1	9
435.685	1	14
435.856	1	-4
436.026	1	3
436.197	1	-3
436.368	1	-3
436.538	1	10
436.709	1	0
436.879	1	0
437.050	1	9
437.220	1	18
437.391	1	11
437.562	1	13
437.732	1	-5
437.903	1	9
438.073	1	7
438.244	1	1
438.414	1	12
438.585	1	11
438.756	1	4
438.926	1	13
439.097	1	12
439.267	1	7
439.438	1	11
439.608	1	8
439.779	1	7
439.949	1	5
440.120	1	4
440.291	1	-4
440.461	1	7
440.632	1	12
440.802	1	13
440.973	1	8
441.143	1	8
441.314	1	6
441.485	1	7
441.655	1	0
441.826	1	-2
441.996	1	10
442.167	1	9
442.337	1	7
442.508	1	-8
442.678	1	-2
442.849	1	13
443.019	1	3
443.190	1	0
443.361	1	4
443.531	1	-9
443.702	1	0
443.872	1	5
444.043	1	6
444.213	1	4
444.384	1	13
444.554	1	0
444.725	1	3
444.895	1	1
445.066	1	-3
445.237	1	-1
445.407	1	4
445.578	1	16
445.748	1	1
445.919	1	7
446.089	1	13
446.260	1	13
446.430	1	-11
446.601	1	-4
446.771	1	7
446.942	1	11
447.112	1	-4
447.283	1	3
447.453	1	0
447.624	1	7
447.794	1	0
447.965	1	-1
448.135	1	16
448.306	1	3
448.477	1	-5
448.647	1	9
448.818	1	13
448.988	1	-3
449.159	1	3
449.329	1	10
449.500	1	6
449.670	1	3
449.841	1	1
450.011	1	3
450.182	1	-11
450.352	1	23
450.523	1	-2
450.693	1	6
450.864	1	9
451.034	1	7
451.205	1	5
451.375	1	4
451.546	1	9
451.716	1	14
451.887	1	-2
452.057	1	12
452.228	1	2
452.398	1	6
452.569	1	-3
452.739	1	-3
452.910	1	-5
453.080	1	13
453.251	1	6
453.421	1	3
453.592	1	3
453.762	1	-1
453.933	1	17
454.103	1	6
454.274	1	-3
454.444	1	9
454.615	1	14
454.785	1	2
454.956	1	-5
455.126	1	3
455.297	1	13
455.467	1	8
455.638	1	6
455.808	1	1
455.979	1	7
456.149	1	3
456.320	1	5
456.490	1	7
456.661	1	-1
456.831	1	23
457.001	1	7
457.172	1	6
457.342	1	3
457.513	1	10
457.683	1	0
457.854	1	2
458.024	1	3
458.195	1	-9
458.365	1	5
458.536	1	8
458.706	1	-2
458.877	1	-4
459.047	1	5
459.218	1	12
459.388	1	14
459.559	1	3
459.729	1	1
459.899	1	12
460.070	1	20
460.240	1	6
460.411	1	10
460.581	1	2
460.752	1	2
460.922	1	2
461.093	1	7
461.263	1	10
461.434	1	16
461.604	1	6
461.775	1	8
461.945	1	3
462.115	1	-4
462.286	1	15
462.456	1	3
462.627	1	-2
462.797	1	-1
462.968	1	1
463.138	1	0
463.309	1	4
463.479	1	12
463.649	1	3
463.820	1	0
463.990	1	1
464.161	1	15
464.331	1	-3
464.502	1	3
464.672	1	2
464.843	1	11
465.013	1	-4
465.183	1	6
465.354	1	-2
465.524	1	13
465.695	1	8
465.865	1	-3
466.036	1	6
466.206	1	-1
466.376	1	-9
466.547	1	0
466.717	1	-11
466.888	1	2
467.058	1	14
467.229	1	16
467.399	1	10
467.569	1	6
467.740	1	4
467.910	1	-3
468.081	1	4
468.251	1	-4
468.422	1	0
468.592	1	8
468.762	1	-11
468.933	1	2
469.103	1	-3
469.274	1	6
469.444	1	5
469.614	1	0
469.785	1	7
469.955	1	14
470.126	1	8
470.296	1	12
470.467	1	3
470.637	1	4
470.807	1	2
470.978	1	4
471.148	1	3
471.319	1	12
471.489	1	-1
471.659	1	11
471.830	1	13
472.000	1	4
472.171	1	11
472.341	1	-5
472.511	1	7
472.682	1	7
472.852	1	4
473.023	1	-3
473.193	1	-5
473.363	1	2
473.534	1	6
473.704	1	7
473.875	1	7
474.045	1	-5
474.215	1	-6
474.386	1	8
474.556	1	-8
474.727	1	10
474.897	1	4
475.067	1	10
475.238	1	6
475.408	1	7
475.578	1	-1
475.749	1	-8
475.919	1	3
476.090	1	-1
476.260	1	1
476.430	1	3
476.601	1	8
476.771	1	8
476.942	1	-8
477.112	1	0
477.282	1	-5
477.453	1	2
477.623	1	3
477.793	1	1
477.964	1	24
478.134	1	6
478.305	1	6
478.475	1	6
478.645	1	0
478.816	1	-6
478.986	1	1
479.156	1	12
479.327	1	2
479.497	1	9
479.667	1	9
479.838	1	11
480.008	1	16
480.179	1	3
480.349	1	0
480.519	1	2
480.690	1	1
480.860	1	-3
481.030	1	4
481.201	1	12
481.371	1	4
481.541	1	7
481.712	1	0
481.882	1	1
482.053	1	6
482.223	1	4
482.393	1	-8
482.564	1	-5
482.734	1	8
482.904	1	7
483.075	1	13
483.245	1	2
483.415	1	7
483.586	1	-1
483.756	1	13
483.926	1	13
484.097	1	-3
484.267	1	7
484.437	1	-6
484.608	1	15
484.778	1	7
484.948	1	-2
485.119	1	2
485.289	1	13
485.459	1	10
485.630	1	1
485.800	1	0
485.970	1	-2
486.141	1	3
486.311	1	0
486.481	1	8
486.652	1	11
486.822	1	4
486.992	1	3
487.163	1	-2
487.333	1	15
487.503	1	-2
487.674	1	3
487.844	1	3
488.014	1	4
488.185	1	-4
488.355	1	4
488.525	1	7
488.696	1	-3
488.866	1	7
489.036	1	0
489.207	1	8
489.377	1	8
489.547	1	-3
489.718	1	-5
489.888	1	4
490.058	1	-6
490.228	1	7
490.399	1	10
490.569	1	13
490.739	1	6
490.910	1	7
491.080	1	4
491.250	1	5
491.421	1	-1
491.591	1	-4
491.761	1	10
491.932	1	8
492.102	1	1
492.272	1	7
492.442	1	7
492.613	1	6
492.783	1	-3
492.953	1	10
493.124	1	-3
493.294	1	10
493.464	1	5
493.635	1	3
493.805	1	18
493.975	1	2
494.145	1	4
494.316	1	14
494.486	1	16
494.656	1	10
494.827	1	0
494.997	1	5
495.167	1	7
495.337	1	13
495.508	1	2
495.678	1	8
495.848	1	13
496.019	1	-3
496.189	1	9
496.359	1	12
496.529	1	3
496.700	1	1
496.870	1	7
497.040	1	1
497.211	1	23
497.381	1	-16
497.551	1	21
497.721	1	-1
497.892	1	11
498.062	1	6
498.232	1	6
498.403	1	9
498.573	1	2
498.743	1	9
498.913	1	6
499.084	1	-8
499.254	1	7
499.424	1	17
499.594	1	7
499.765	1	10
499.935	1	0
500.105	1	2
500.275	1	5
500.446	1	5
500.616	1	5
500.786	1	-1
500.956	1	9
501.127	1	9
501.297	1	6
501.467	1	6
501.638	1	8
501.808	1	-8
501.978	1	14
502.148	1	12
502.319	1	11
502.489	1	6
502.659	1	12
502.829	1	7
503.000	1	14
503.170	1	-2
503.340	1	1
503.510	1	9
503.681	1	5
503.851	1	-9
504.021	1	18
504.191	1	6
504.362	1	23
504.532	1	-2
504.702	1	6
504.872	1	-4
505.042	1	12
505.213	1	11
505.383	1	7
505.553	1	8
505.723	1	16
505.894	1	8
506.064	1	14
506.234	1	7
506.404	1	-4
506.575	1	0
506.745	1	-1
506.915	1	8
507.085	1	1
507.256	1	1
507.426	1	11
507.596	1	4
507.766	1	11
507.936	1	11
508.107	1	13
508.277	1	6
508.447	1	8
508.617	1	10
508.788	1	15
508.958	1	13
509.128	1	13
509.298	1	13
509.468	1	12
509.639	1	6
509.809	1	12
509.979	1	2
510.149	1	7
510.319	1	7
510.490	1	18
510.660	1	7
510.830	1	12
511.000	1	21
511.171	1	15
511.341	1	-1
511.511	1	-1
511.681	1	10
511.851	1	1
512.022	1	0
512.192	1	19
512.362	1	12
512.532	1	7
512.702	1	2
512.873	1	13
513.043	1	13
513.213	1	7
513.383	1	13
513.553	1	-1
513.724	1	14
513.894	1	0
514.064	1	9
514.234	1	11
514.404	1	18
514.575	1	9
514.745	1	3
514.915	1	13
515.085	1	15
515.255	1	6
515.425	1	10
515.596	1	4
515.766	1	9
515.936	1	11
516.106	1	6
516.276	1	16
516.447	1	16
516.617	1	10
516.787	1	3
516.957	1	4
517.127	1	13
517.297	1	15
517.468	1	11
517.638	1	11
517.808	1	4
517.978	1	5
518.148	1	12
518.319	1	7
518.489	1	9
518.659	1	10
518.829	1	4
518.999	1	17
519.169	1	20
519.340	1	16
519.510	1	6
519.680	1	0
519.850	1	5
520.020	1	7
520.190	1	12
520.361	1	7
520.531	1	14
520.701	1	9
520.871	1	1
521.041	1	7
521.211	1	17
521.382	1	1
521.552	1	19
521.722	1	10
521.892	1	8
522.062	1	-3
522.232	1	0
522.402	1	9
522.573	1	10
522.743	1	21
522.913	1	14
523.083	1	11
523.253	1	11
523.423	1	13
523.593	1	1
523.764	1	23
523.934	1	8
524.104	1	3
524.274	1	0
524.444	1	5
524.614	1	8
524.784	1	13
524.955	1	11
525.125	1	12
525.295	1	3
525.465	1	10
525.635	1	24
525.805	1	13
525.975	1	4
526.146	1	12
526.316	1	13
526.486	1	6
526.656	1	28
526.826	1	11
526.996	1	22
527.166	1	17
527.337	1	5
527.507	1	-1
527.677	1	15
527.847	1	9
528.017	1	-2
528.187	1	4
528.357	1	13
528.527	1	15
528.698	1	11
528.868	1	8
529.038	1	19
529.208	1	6
529.378	1	10
529.548	1	9
529.718	1	13
529.888	1	6
530.058	1	6
530.229	1	14
530.399	1	7
530.569	1	23
530.739	1	8
530.909	1	15
531.079	1	18
531.249	1	5
531.419	1	15
531.589	1	4
531.760	1	8
531.930	1	0
532.100	1	21
532.270	1	15
532.440	1	11
532.610	1	9
532.780	1	4
532.950	1	22
533.120	1	5
533.290	1	15
533.461	1	22
533.631	1	14
533.801	1	12
533.971	1	12
534.141	1	17
534.311	1	13
534.481	1	11
534.651	1	9
534.821	1	6
534.991	1	15
535.162	1	12
535.332	1	15
535.502	1	14
535.672	1	6
535.842	1	12
536.012	1	20
536.182	1	10
536.352	1	14
536.522	1	12
536.692	1	6
536.862	1	24
537.032	1	17
537.203	1	14
537.373	1	9
537.543	1	14
537.713	1	21
537.883	1	14
538.053	1	11
538.223	1	20
538.393	1	9
538.563	1	9
538.733	1	5
538.903	1	2
539.073	1	9
539.243	1	13
539.413	1	7
539.584	1	11
539.754	1	8
539.924	1	13
540.094	1	13
540.264	1	16
540.434	1	3
540.604	1	18
540.774	1	8
540.944	1	2
541.114	1	-4
541.284	1	8
541.454	1	20
541.624	1	15
541.794	1	7
541.964	1	3
542.134	1	13
542.305	1	1
542.475	1	6
542.645	1	9
542.815	1	12
542.985	1	13
543.155	1	7
543.325	1	7
543.495	1	11
543.665	1	23
543.835	1	6
544.005	1	6
544.175	1	9
544.345	1	1
544.515	1	9
544.685	1	11
544.855	1	21
545.025	1	5
545.195	1	6
545.365	1	12
545.535	1	12
545.705	1	14
545.875	1	2
546.045	1	11
546.216	1	19
546.386	1	10
546.556	1	0
546.726	1	6
546.896	1	16
547.066	1	3
547.236	1	-1
547.406	1	16
547.576	1	13
547.746	1	13
547.916	1	16
548.086	1	4
548.256	1	10
548.426	1	2
548.596	1	2
548.766	1	9
548.936	1	10
549.106	1	7
549.276	1	16
549.446	1	7
549.616	1	4
549.786	1	2
549.956	1	16
550.126	1	4
550.296	1	6
550.466	1	16
550.636	1	15
550.806	1	25
550.976	1	9
551.146	1	6
551.316	1	8
551.486	1	14
551.656	1	-2
551.826	1	9
551.996	1	11
552.166	1	9
552.336	1	12
552.506	1	5
552.676	1	8
552.846	1	8
553.016	1	10
553.186	1	7
553.356	1	-3
553.526	1	0
553.696	1	17
553.866	1	18
554.036	1	13
554.206	1	10
554.376	1	9
554.546	1	3
554.716	1	6
554.886	1	7
555.056	1	0
555.226	1	-8
555.396	1	3
555.566	1	10
555.736	1	-1
555.906	1	17
556.076	1	7
556.246	1	12
556.416	1	0
556.586	1	11
556.756	1	10
556.926	1	0
557.096	1	12
557.266	1	13
557.436	1	9
557.606	1	2
557.776	1	15
557.946	1	17
558.116	1	17
558.286	1	16
558.456	1	3
558.626	1	2
558.796	1	0
558.966	1	10
559.136	1	7
559.306	1	4
559.476	1	2
559.646	1	0
559.816	1	17
559.986	1	5
560.155	1	7
560.325	1	-10
560.495	1	9
560.665	1	11
560.835	1	5
561.005	1	6
561.175	1	9
561.345	1	12
561.515	1	6
561.685	1	13
561.855	1	13
562.025	1	7
562.195	1	3
562.365	1	10
562.535	1	7
562.705	1	4
562.875	1	3
563.045	1	7
563.215	1	8
563.385	1	1
563.555	1	12
563.725	1	4
563.895	1	10
564.064	1	17
564.234	1	11
564.404	1	1
564.574	1	-3
564.744	1	11
564.914	1	5
565.084	1	1
565.254	1	5
565.424	1	-5
565.594	1	1
565.764	1	12
565.934	1	15
566.104	1	-3
566.274	1	12
566.444	1	10
566.614	1	9
566.783	1	6
566.953	1	9
567.123	1	20
567.293	1	6
567.463	1	8
567.633	1	6
567.803	1	0
567.973	1	2
568.143	1	2
568.313	1	0
568.483	1	4
568.653	1	-3
568.823	1	8
568.993	1	1
569.162	1	11
569.332	1	5
569.502	1	15
569.672	1	-1
569.842	1	2
570.012	1	7
570.182	1	0
570.352	1	13
570.522	1	11
570.692	1	13
570.862	1	15
571.031	1	7
571.201	1	12
571.371	1	5
571.541	1	-1
571.711	1	15
571.881	1	6
572.051	1	12
572.221	1	12
572.391	1	11
572.561	1	-5
572.731	1	5
572.900	1	15
573.070	1	18
573.240	1	-2
573.410	1	2
573.580	1	10
573.750	1	12
573.920	1	5
574.090	1	14
574.260	1	11
574.430	1	-1
574.599	1	0
574.769	1	10
574.939	1	-2
575.109	1	5
575.279	1	14
575.449	1	13
575.619	1	7
575.789	1	11
575.959	1	3
576.128	1	1
576.298	1	-1
576.468	1	1
576.638	1	17
576.808	1	5
576.978	1	4
577.148	1	7
577.318	1	11
577.487	1	0
577.657	1	-6
577.827	1	7
577.997	1	3
578.167	1	8
578.337	1	11
578.507	1	5
578.677	1	4
578.846	1	-2
579.016	1	17
579.186	1	6
579.356	1	-6
579.526	1	4
579.696	1	7
579.866	1	10
580.036	1	3
580.205	1	8
580.375	1	0
580.545	1	3
580.715	1	10
580.885	1	3
581.055	1	9
581.225	1	-9
581.394	1	-3
581.564	1	6
581.734	1	5
581.904	1	6
582.074	1	6
582.244	1	2
582.414	1	11
582.583	1	-1
582.753	1	5
582.923	1	5
583.093	1	10
583.263	1	18
583.433	1	-5
583.603	1	2
583.772	1	-1
583.942	1	22
584.112	1	4
584.282	1	23
584.452	1	5
584.622	1	9
584.791	1	5
584.961	1	9
585.131	1	-10
585.301	1	12
585.471	1	-8
585.641	1	14
585.811	1	3
585.980	1	-2
586.150	1	9
586.320	1	-5
586.490	1	-7
586.660	1	6
586.830	1	-1
586.999	1	0
587.169	1	2
587.339	1	4
587.509	1	0
587.679	1	15
587.849	1	17
588.018	1	5
588.188	1	5
588.358	1	-1
588.528	1	4
588.698	1	3
588.867	1	7
589.037	1	6
589.207	1	-8
589.377	1	17
589.547	1	2
589.717	1	-2
589.886	1	-2
590.056	1	3
590.226	1	-1
590.396	1	9
590.566	1	5
590.735	1	16
590.905	1	13
591.075	1	-4
591.245	1	4
591.415	1	7
591.585	1	5
591.754	1	-2
591.924	1	-2
592.094	1	0
592.264	1	-2
592.434	1	3
592.603	1	3
592.773	1	-3
592.943	1	4
593.113	1	-7
593.283	1	7
593.452	1	-4
593.622	1	-4
593.792	1	6
593.962	1	11
594.132	1	-6
594.301	1	12
594.471	1	10
594.641	1	3
594.811	1	2
594.981	1	6
595.150	1	9
595.320	1	9
595.490	1	-11
595.660	1	5
595.829	1	3
595.999	1	3
596.169	1	2
596.339	1	8
596.509	1	10
596.678	1	5
596.848	1	6
597.018	1	12
597.188	1	11
597.358	1	-3
597.527	1	-2
597.697	1	8
597.867	1	9
598.037	1	5
598.206	1	2
598.376	1	8
598.546	1	-1
598.716	1	-9
598.885	1	1
599.055	1	3
599.225	1	4
599.395	1	8
599.565	1	9
599.734	1	2
599.904	1	-1
600.074	1	-1
600.244	1	16
600.413	1	7
600.583	1	-8
600.753	1	11
600.923	1	18
601.092	1	9
601.262	1	12
601.432	1	1
601.602	1	8
601.771	1	11
601.941	1	-1
602.111	1	9
602.281	1	-3
602.451	1	-2
602.620	1	9
602.790	1	9
602.960	1	-4
603.130	1	15
603.299	1	1
603.469	1	4
603.639	1	12
603.809	1	12
603.978	1	3
604.148	1	8
604.318	1	3
604.487	1	6
604.657	1	5
604.827	1	-13
604.997	1	-2
605.166	1	-2
605.336	1	1
605.506	1	-2
605.676	1	4
605.845	1	1
606.015	1	9
606.185	1	5
606.355	1	-4
606.524	1	2
606.694	1	14
606.864	1	4
607.034	1	1
607.203	1	3
607.373	1	3
607.543	1	-2
607.712	1	10
607.882	1	2
608.052	1	9
608.222	1	8
608.391	1	7
608.561	1	0
608.731	1	-8
608.901	1	12
609.070	1	2
609.240	1	9
609.410	1	4
609.579	1	12
609.749	1	2
609.919	1	6
610.089	1	7
610.258	1	10
610.428	1	-2
610.598	1	4
610.767	1	0
610.937	1	-7
611.107	1	13
611.277	1	5
611.446	1	0
611.616	1	-7
611.786	1	14
611.955	1	4
612.125	1	-4
612.295	1	5
612.465	1	0
612.634	1	-8
612.804	1	12
612.974	1	6
613.143	1	0
613.313	1	9
613.483	1	11
613.652	1	2
613.822	1	6
613.992	1	9
614.162	1	-1
614.331	1	-2
614.501	1	-4
614.671	1	-2
614.840	1	5
615.010	1	4
615.180	1	-6
615.349	1	10
615.519	1	16
615.689	1	6
615.858	1	9
616.028	1	-2
616.198	1	10
616.368	1	-3
616.537	1	2
616.707	1	3
616.877	1	1
617.046	1	4
617.216	1	6
617.386	1	-2
617.555	1	2
617.725	1	13
617.895	1	-6
618.064	1	3
618.234	1	1
618.404	1	11
618.573	1	-6
618.743	1	2
618.913	1	7
619.082	1	6
619.252	1	12
619.422	1	0
619.591	1	1
619.761	1	9
619.931	1	3
620.100	1	-4
620.270	1	-7
620.440	1	13
620.609	1	12
620.779	1	-7
620.949	1	-4
621.118	1	1
621.288	1	0
621.458	1	16
621.627	1	-2
621.797	1	0
621.967	1	1
622.136	1	10
622.306	1	16
622.476	1	3
622.645	1	8
622.815	1	0
622.985	1	-1
623.154	1	11
623.324	1	8
623.494	1	2
623.663	1	2
623.833	1	4
624.002	1	0
624.172	1	20
624.342	1	-3
624.511	1	7
624.681	1	0
624.851	1	-3
625.020	1	-6
625.190	1	4
625.360	1	7
625.529	1	8
625.699	1	2
625.869	1	9
626.038	1	9
626.208	1	-2
626.377	1	17
626.547	1	7
626.717	1	4
626.886	1	-1
627.056	1	-4
627.226	1	-3
627.395	1	6
627.565	1	3
627.735	1	6
627.904	1	8
628.074	1	7
628.243	1	3
628.413	1	9
628.583	1	11
628.752	1	12
628.922	1	-3
629.091	1	3
629.261	1	2
629.431	1	-10
629.600	1	7
629.770	1	12
629.940	1	16
630.109	1	4
630.279	1	2
630.448	1	2
630.618	1	3
630.788	1	7
630.957	1	0
631.127	1	13
631.297	1	-2
631.466	1	5
631.636	1	5
631.805	1	8
631.975	1	0
632.145	1	-11
632.314	1	8
632.484	1	0
632.653	1	-1
632.823	1	6
632.993	1	7
633.162	1	10
633.332	1	16
633.501	1	13
633.671	1	1
633.841	1	3
634.010	1	8
634.180	1	-5
634.349	1	10
634.519	1	-2
634.689	1	0
634.858	1	3
635.028	1	-2
635.197	1	4
635.367	1	4
635.537	1	1
635.706	1	-8
635.876	1	-2
636.045	1	4
636.215	1	6
636.384	1	4
636.554	1	12
636.724	1	8
636.893	1	0
637.063	1	9
637.232	1	7
637.402	1	4
637.572	1	3
637.741	1	4
637.911	1	-1
638.080	1	1
638.250	1	-3
638.419	1	7
638.589	1	3
638.759	1	11
638.928	1	0
639.098	1	6
639.267	1	11
639.437	1	-1
639.606	1	15
639.776	1	2
639.946	1	9
640.115	1	0
640.285	1	8
640.454	1	20
640.624	1	12
640.793	1	6
640.963	1	-1
641.132	1	20
641.302	1	6
641.472	1	-4
641.641	1	-3
641.811	1	3
641.980	1	-6
642.150	1	3
642.319	1	-6
642.489	1	-2
642.659	1	-7
642.828	1	-2
642.998	1	0
643.167	1	14
643.337	1	7
643.506	1	1
643.676	1	4
643.845	1	1
644.015	1	-5
644.184	1	12
644.354	1	3
644.524	1	-7
644.693	1	10
644.863	1	-11
645.032	1	-5
645.202	1	-1
645.371	1	2
645.541	1	-9
645.710	1	4
645.880	1	5
646.049	1	9
646.219	1	0
646.388	1	7
646.558	1	6
646.728	1	6
646.897	1	0
647.067	1	0
647.236	1	7
647.406	1	4
647.575	1	9
647.745	1	0
647.914	1	1
648.084	1	-1
648.253	1	-1
648.423	1	-5
648.592	1	5
648.762	1	1
648.931	1	11
649.101	1	-6
649.270	1	15
649.440	1	11
649.610	1	9
649.779	1	4
649.949	1	5
650.118	1	-3
650.288	1	-1
650.457	1	5
650.627	1	-2
650.796	1	-3
650.966	1	7
651.135	1	0
651.305	1	-2
651.474	1	7
651.644	1	-2
651.813	1	14
651.983	1	6
652.152	1	-7
652.322	1	8
652.491	1	8
652.661	1	4
652.830	1	4
653.000	1	-1
653.169	1	6
653.339	1	9
653.508	1	7
653.678	1	0
653.847	1	5
654.017	1	3
654.186	1	9
654.356	1	11
654.525	1	-2
654.695	1	7
654.864	1	12
655.034	1	-2
655.203	1	4
655.373	1	3
655.542	1	4
655.712	1	-3
655.881	1	6
656.051	1	13
656.220	1	9
656.390	1	8
656.559	1	-1
656.729	1	6
656.898	1	5
657.068	1	-2
657.237	1	4
657.406	1	9
657.576	1	-4
657.745	1	-3
657.915	1	11
658.084	1	16
658.254	1	12
658.423	1	-14
658.593	1	-4
658.762	1	0
658.932	1	0
659.101	1	3
659.271	1	13
659.440	1	8
659.610	1	10
659.779	1	-6
659.949	1	-5
660.118	1	6
660.288	1	0
660.457	1	-11
660.626	1	1
660.796	1	1
660.965	1	0
661.135	1	10
661.304	1	9
661.474	1	2
661.643	1	7
661.813	1	-2
661.982	1	1
662.152	1	6
662.321	1	1
662.491	1	9
662.660	1	1
662.829	1	-3
662.999	1	0
663.168	1	-4
663.338	1	-7
663.507	1	-4
663.677	1	-9
663.846	1	14
664.016	1	1
664.185	1	-3
664.354	1	16
664.524	1	-9
664.693	1	4
664.863	1	10
665.032	1	11
665.202	1	2
665.371	1	-4
665.541	1	1
665.710	1	6
665.879	1	1
666.049	1	1
666.218	1	-2
666.388	1	-1
666.557	1	-2
666.727	1	-7
666.896	1	-4
667.065	1	6
667.235	1	-3
667.404	1	-4
667.574	1	7
667.743	1	7
667.913	1	0
668.082	1	6
668.251	1	2
668.421	1	3
668.590	1	-5
668.760	1	4
668.929	1	3
669.099	1	-6
669.268	1	1
669.437	1	0
669.607	1	-6
669.776	1	0
669.946	1	10
670.115	1	5
670.285	1	5
670.454	1	6
670.623	1	13
670.793	1	6
670.962	1	3
671.132	1	-1
671.301	1	-1
671.470	1	1
671.640	1	-10
671.809	1	5
671.979	1	9
672.148	1	5
672.317	1	-3
672.487	1	-1
672.656	1	5
672.826	1	-6
672.995	1	2
673.164	1	2
673.334	1	12
673.503	1	1
673.673	1	16
673.842	1	6
674.011	1	5
674.181	1	-4
674.350	1	-2
674.520	1	1
674.689	1	-1
674.858	1	-10
675.028	1	-7
675.197	1	-5
675.367	1	6
675.536	1	13
675.705	1	-6
675.875	1	7
676.044	1	1
676.214	1	3
676.383	1	6
676.552	1	-5
676.722	1	0
676.891	1	-11
677.060	1	-2
677.230	1	11
677.399	1	2
677.569	1	4
677.738	1	-10
677.907	1	-2
678.077	1	4
678.246	1	1
678.416	1	-1
678.585	1	12
678.754	1	-3
678.924	1	-4
679.093	1	11
679.262	1	6
679.432	1	1
679.601	1	-11
679.771	1	-3
679.940	1	0
680.109	1	4
680.279	1	-7
680.448	1	13
680.617	1	5
680.787	1	-5
680.956	1	6
681.125	1	8
681.295	1	6
681.464	1	-4
681.634	1	6
681.803	1	-7
681.972	1	-5
682.142	1	14
682.311	1	17
682.480	1	9
682.650	1	0
682.819	1	-3
682.988	1	5
683.158	1	6
683.327	1	2
683.496	1	-13
683.666	1	9
683.835	1	12
684.004	1	6
684.174	1	-2
684.343	1	-2
684.512	1	11
684.682	1	2
684.851	1	-6
685.021	1	11
685.190	1	5
685.359	1	1
685.529	1	7
685.698	1	5
685.867	1	4
686.037	1	1
686.206	1	2
686.375	1	-3
686.545	1	0
686.714	1	1
686.883	1	-5
687.053	1	6
687.222	1	2
687.391	1	-4
687.561	1	10
687.730	1	-6
687.899	1	1
688.069	1	2
688.238	1	10
688.407	1	9
688.577	1	-1
688.746	1	5
