325.333	1	7
325.504	1	-9
325.675	1	18
325.846	1	7
326.017	1	4
326.188	1	3
326.359	1	-1
326.531	1	-5
326.702	1	-4
326.873	1	9
327.044	1	15
327.215	1	7
327.386	1	10
327.557	1	2
327.728	1	2
327.899	1	1
328.070	1	16
328.241	1	3
328.412	1	2
328.583	1	9
328.754	1	12
328.926	1	13
329.097	1	1
329.268	1	5
329.439	1	10
329.610	1	12
329.781	1	12
329.952	1	19
330.123	1	0
330.294	1	5
330.465	1	-2
330.636	1	2
330.807	1	4
330.978	1	3
331.149	1	11
331.320	1	-5
331.492	1	-1
331.663	1	8
331.834	1	7
332.005	1	9
332.176	1	10
332.347	1	11
332.518	1	12
332.689	1	10
332.860	1	-1
333.031	1	11
333.202	1	9
333.373	1	19
333.544	1	9
333.715	1	10
333.886	1	0
334.057	1	-2
334.228	1	12
334.399	1	14
334.570	1	2
334.741	1	7
334.912	1	3
335.084	1	13
335.255	1	15
335.426	1	9
335.597	1	3
335.768	1	11
335.939	1	11
336.110	1	12
336.281	1	2
336.452	1	12
336.623	1	2
336.794	1	6
336.965	1	-3
337.136	1	16
337.307	1	0
337.478	1	2
337.649	1	14
337.820	1	5
337.991	1	-5
338.162	1	-1
338.333	1	12
338.504	1	14
338.675	1	3
338.846	1	-2
339.017	1	6
339.188	1	-1
339.359	1	12
339.530	1	-2
339.701	1	9
339.872	1	19
340.043	1	13
340.214	1	10
340.385	1	4
340.556	1	20
340.727	1	12
340.898	1	14
341.069	1	-2
341.240	1	6
341.411	1	14
341.582	1	6
341.753	1	9
341.924	1	9
342.095	1	9
342.266	1	20
342.437	1	6
342.608	1	4
342.779	1	0
342.950	1	11
343.121	1	8
343.292	1	16
343.463	1	17
343.634	1	8
343.805	1	4
343.976	1	22
344.147	1	9
344.318	1	8
344.489	1	-3
344.660	1	5
344.831	1	11
345.002	1	2
345.173	1	-4
345.344	1	8
345.515	1	7
345.686	1	16
345.857	1	22
346.028	1	12
346.199	1	8
346.370	1	10
346.541	1	5
346.712	1	7
346.883	1	6
347.054	1	15
347.225	1	8
347.396	1	6
347.567	1	4
347.738	1	19
347.909	1	12
348.080	1	8
348.251	1	9
348.422	1	17
348.593	1	2
348.764	1	9
348.935	1	9
349.106	1	8
349.277	1	14
349.448	1	16
349.619	1	14
349.790	1	12
349.961	1	0
350.132	1	18
350.303	1	16
350.474	1	5
350.645	1	15
350.816	1	17
350.987	1	14
351.157	1	23
351.328	1	10
351.499	1	8
351.670	1	7
351.841	1	17
352.012	1	20
352.183	1	24
352.354	1	9
352.525	1	15
352.696	1	10
352.867	1	15
353.038	1	14
353.209	1	16
353.380	1	10
353.551	1	15
353.722	1	19
353.893	1	26
354.064	1	15
354.235	1	13
354.406	1	-1
354.576	1	12
354.747	1	16
354.918	1	9
355.089	1	11
355.260	1	13
355.431	1	12
355.602	1	13
355.773	1	10
355.944	1	16
356.115	1	28
356.286	1	16
356.457	1	16
356.628	1	10
356.799	1	15
356.970	1	30
357.141	1	13
357.311	1	16
357.482	1	5
357.653	1	3
357.824	1	16
357.995	1	33
358.166	1	18
358.337	1	11
358.508	1	29
358.679	1	12
358.850	1	26
359.021	1	9
359.192	1	17
359.363	1	11
359.533	1	21
359.704	1	12
359.875	1	8
360.046	1	26
360.217	1	26
360.388	1	21
360.559	1	24
360.730	1	8
360.901	1	8
361.072	1	18
361.243	1	19
361.414	1	23
361.584	1	12
361.755	1	19
361.926	1	24
362.097	1	9
362.268	1	28
362.439	1	7
362.610	1	15
362.781	1	1
362.952	1	15
363.123	1	2
363.293	1	16
363.464	1	14
363.635	1	27
363.806	1	18
363.977	1	10
364.148	1	14
364.319	1	11
364.490	1	17
364.661	1	22
364.832	1	8
365.002	1	16
365.173	1	13
365.344	1	22
365.515	1	15
365.686	1	12
365.857	1	26
366.028	1	21
366.199	1	18
366.370	1	7
366.540	1	15
366.711	1	9
366.882	1	15
367.053	1	21
367.224	1	19
367.395	1	15
367.566	1	18
367.737	1	21
367.908	1	20
368.078	1	-3
368.249	1	33
368.420	1	22
368.591	1	22
368.762	1	22
368.933	1	12
369.104	1	19
369.274	1	20
369.445	1	20
369.616	1	24
369.787	1	12
369.958	1	17
370.129	1	20
370.300	1	8
370.471	1	16
370.641	1	19
370.812	1	23
370.983	1	14
371.154	1	22
371.325	1	22
371.496	1	10
371.667	1	22
371.837	1	24
372.008	1	12
372.179	1	9
372.350	1	21
372.521	1	27
372.692	1	23
372.863	1	14
373.033	1	25
373.204	1	18
373.375	1	8
373.546	1	28
373.717	1	11
373.888	1	21
374.059	1	15
374.229	1	20
374.400	1	16
374.571	1	16
374.742	1	18
374.913	1	5
375.084	1	18
375.254	1	6
375.425	1	19
375.596	1	17
375.767	1	24
375.938	1	8
376.109	1	18
376.279	1	18
376.450	1	21
376.621	1	17
376.792	1	16
376.963	1	16
377.134	1	23
377.304	1	20
377.475	1	14
377.646	1	13
377.817	1	17
377.988	1	19
378.159	1	26
378.329	1	17
378.500	1	28
378.671	1	12
378.842	1	24
379.013	1	19
379.184	1	33
379.354	1	25
379.525	1	22
379.696	1	14
379.867	1	18
380.038	1	19
380.209	1	23
380.379	1	18
380.550	1	8
380.721	1	23
380.892	1	17
381.063	1	26
381.233	1	20
381.404	1	9
381.575	1	28
381.746	1	17
381.917	1	21
382.087	1	26
382.258	1	21
382.429	1	13
382.600	1	19
382.771	1	8
382.941	1	28
383.112	1	14
383.283	1	16
383.454	1	9
383.625	1	19
383.795	1	28
383.966	1	22
384.137	1	37
384.308	1	26
384.479	1	20
384.649	1	23
384.820	1	29
384.991	1	26
385.162	1	34
385.333	1	30
385.503	1	25
385.674	1	22
385.845	1	31
386.016	1	31
386.187	1	24
386.357	1	37
386.528	1	22
386.699	1	25
386.870	1	18
387.041	1	36
387.211	1	19
387.382	1	34
387.553	1	31
387.724	1	6
387.894	1	21
388.065	1	27
388.236	1	25
388.407	1	25
388.578	1	34
388.748	1	31
388.919	1	29
389.090	1	31
389.261	1	29
389.431	1	23
389.602	1	8
389.773	1	27
389.944	1	31
390.114	1	25
390.285	1	29
390.456	1	31
390.627	1	28
390.798	1	30
390.968	1	33
391.139	1	29
391.310	1	26
391.481	1	25
391.651	1	33
391.822	1	32
391.993	1	20
392.164	1	37
392.334	1	21
392.505	1	26
392.676	1	17
392.847	1	22
393.017	1	26
393.188	1	30
393.359	1	38
393.530	1	44
393.700	1	25
393.871	1	31
394.042	1	31
394.213	1	32
394.383	1	33
394.554	1	24
394.725	1	22
394.896	1	44
395.066	1	25
395.237	1	29
395.408	1	26
395.579	1	33
395.749	1	51
395.920	1	38
396.091	1	22
396.262	1	25
396.432	1	19
396.603	1	30
396.774	1	19
396.945	1	37
397.115	1	34
397.286	1	38
397.457	1	24
397.627	1	27
397.798	1	30
397.969	1	32
398.140	1	23
398.310	1	32
398.481	1	33
398.652	1	30
398.823	1	29
398.993	1	22
399.164	1	32
399.335	1	30
399.505	1	21
399.676	1	24
399.847	1	25
400.018	1	15
400.188	1	29
400.359	1	35
400.530	1	30
400.700	1	28
400.871	1	37
401.042	1	31
401.213	1	35
401.383	1	31
401.554	1	31
401.725	1	28
401.895	1	21
402.066	1	36
402.237	1	28
402.408	1	34
402.578	1	40
402.749	1	28
402.920	1	34
403.090	1	31
403.261	1	19
403.432	1	25
403.603	1	35
403.773	1	28
403.944	1	41
404.115	1	37
404.285	1	32
404.456	1	41
404.627	1	42
404.797	1	32
404.968	1	33
405.139	1	31
405.310	1	30
405.480	1	40
405.651	1	28
405.822	1	32
405.992	1	30
406.163	1	25
406.334	1	21
406.504	1	35
406.675	1	27
406.846	1	25
407.016	1	39
407.187	1	27
407.358	1	28
407.528	1	33
407.699	1	37
407.870	1	40
408.041	1	32
408.211	1	30
408.382	1	44
408.553	1	40
408.723	1	39
408.894	1	40
409.065	1	30
409.235	1	39
409.406	1	35
409.577	1	37
409.747	1	27
409.918	1	41
410.089	1	35
410.259	1	31
410.430	1	31
410.601	1	39
410.771	1	35
410.942	1	37
411.113	1	34
411.283	1	33
411.454	1	44
411.625	1	39
411.795	1	36
411.966	1	30
412.137	1	42
412.307	1	32
412.478	1	33
412.649	1	32
412.819	1	32
412.990	1	47
413.161	1	28
413.331	1	29
413.502	1	32
413.672	1	29
413.843	1	31
414.014	1	27
414.184	1	37
414.355	1	29
414.526	1	37
414.696	1	29
414.867	1	27
415.038	1	29
415.208	1	18
415.379	1	20
415.550	1	27
415.720	1	31
415.891	1	35
416.062	1	36
416.232	1	30
416.403	1	35
416.573	1	27
416.744	1	41
416.915	1	33
417.085	1	29
417.256	1	27
417.427	1	31
417.597	1	29
417.768	1	24
417.939	1	30
418.109	1	35
418.280	1	28
418.450	1	40
418.621	1	41
418.792	1	31
418.962	1	29
419.133	1	29
419.304	1	27
419.474	1	36
419.645	1	27
419.815	1	31
419.986	1	35
420.157	1	30
420.327	1	34
420.498	1	36
420.669	1	33
420.839	1	38
421.010	1	36
421.180	1	31
421.351	1	24
421.522	1	29
421.692	1	32
421.863	1	43
422.033	1	39
422.204	1	29
422.375	1	26
422.545	1	37
422.716	1	24
422.886	1	31
423.057	1	33
423.228	1	26
423.398	1	33
423.569	1	22
423.740	1	26
423.910	1	33
424.081	1	32
424.251	1	30
424.422	1	38
424.593	1	34
424.763	1	30
424.934	1	31
425.104	1	46
425.275	1	25
425.445	1	26
425.616	1	26
425.787	1	37
425.957	1	30
426.128	1	32
426.298	1	32
426.469	1	19
426.640	1	28
426.810	1	20
426.981	1	42
427.151	1	27
427.322	1	36
427.493	1	26
427.663	1	34
427.834	1	20
428.004	1	33
428.175	1	33
428.345	1	18
428.516	1	25
428.687	1	37
428.857	1	36
429.028	1	25
429.198	1	24
429.369	1	27
429.540	1	34
429.710	1	35
429.881	1	40
430.051	1	26
430.222	1	23
430.392	1	41
430.563	1	26
430.734	1	28
430.904	1	39
431.075	1	26
431.245	1	33
431.416	1	27
431.586	1	24
431.757	1	29
431.927	1	33
432.098	1	34
432.269	1	33
432.439	1	28
432.610	1	46
432.780	1	24
432.951	1	14
433.121	1	26
433.292	1	21
433.462	1	25
433.633	1	32
433.804	1	29
433.974	1	28
434.145	1	19
434.315	1	28
434.486	1	17
434.656	1	21
434.827	1	34
434.997	1	30
435.168	1	21
435.339	1	53
435.509	1	26
435.680	1	30
435.850	1	23
436.021	1	24
436.191	1	30
436.362	1	32
436.532	1	33
436.703	1	33
436.873	1	23
437.044	1	37
437.214	1	21
437.385	1	28
437.556	1	35
437.726	1	28
437.897	1	26
438.067	1	27
438.238	1	32
438.408	1	36
438.579	1	17
438.749	1	22
438.920	1	39
439.090	1	15
439.261	1	28
439.431	1	19
439.602	1	29
439.772	1	39
439.943	1	21
440.113	1	20
440.284	1	31
440.455	1	25
440.625	1	28
440.796	1	21
440.966	1	32
441.137	1	25
441.307	1	37
441.478	1	20
441.648	1	12
441.819	1	27
441.989	1	35
442.160	1	26
442.330	1	24
442.501	1	28
442.671	1	23
442.842	1	20
443.012	1	26
443.183	1	29
443.353	1	21
443.524	1	34
443.694	1	28
443.865	1	28
444.035	1	30
444.206	1	26
444.376	1	19
444.547	1	28
444.717	1	29
444.888	1	0
445.058	1	25
445.229	1	24
445.399	1	24
445.570	1	28
445.740	1	24
445.911	1	21
446.081	1	30
446.252	1	26
446.422	1	10
446.593	1	26
446.763	1	32
446.934	1	17
447.104	1	24
447.275	1	29
447.445	1	12
447.616	1	20
447.786	1	25
447.957	1	16
448.127	1	19
448.298	1	25
448.468	1	25
448.639	1	6
448.809	1	24
448.979	1	39
449.150	1	15
449.320	1	26
449.491	1	25
449.661	1	20
449.832	1	13
450.002	1	21
450.173	1	33
450.343	1	11
450.514	1	33
450.684	1	28
450.855	1	25
451.025	1	17
451.196	1	24
451.366	1	25
451.537	1	22
451.707	1	33
451.878	1	25
452.048	1	10
452.218	1	23
452.389	1	24
452.559	1	30
452.730	1	28
452.900	1	9
453.071	1	30
453.241	1	28
453.412	1	28
453.582	1	33
453.753	1	27
453.923	1	20
454.093	1	23
454.264	1	35
454.434	1	24
454.605	1	21
454.775	1	34
454.946	1	8
455.116	1	25
455.287	1	22
455.457	1	27
455.628	1	10
455.798	1	31
455.968	1	20
456.139	1	21
456.309	1	23
456.480	1	21
456.650	1	17
456.821	1	25
456.991	1	18
457.161	1	14
457.332	1	24
457.502	1	18
457.673	1	15
457.843	1	23
458.014	1	17
458.184	1	19
458.355	1	18
458.525	1	19
458.695	1	15
458.866	1	7
459.036	1	13
459.207	1	18
459.377	1	21
459.548	1	24
459.718	1	22
459.888	1	9
460.059	1	21
460.229	1	13
460.400	1	14
460.570	1	6
460.740	1	15
460.911	1	18
461.081	1	23
461.252	1	12
461.422	1	20
461.593	1	18
461.763	1	24
461.933	1	26
462.104	1	13
462.274	1	12
462.445	1	25
462.615	1	22
462.785	1	15
462.956	1	11
463.126	1	15
463.297	1	22
463.467	1	23
463.638	1	12
463.808	1	9
463.978	1	3
464.149	1	11
464.319	1	27
464.490	1	17
464.660	1	18
464.830	1	22
465.001	1	13
465.171	1	13
465.342	1	13
465.512	1	13
465.682	1	16
465.853	1	10
466.023	1	26
466.194	1	20
466.364	1	22
466.534	1	7
466.705	1	23
466.875	1	10
467.045	1	-2
467.216	1	20
467.386	1	10
467.557	1	24
467.727	1	7
467.897	1	22
468.068	1	10
468.238	1	12
468.409	1	19
468.579	1	16
468.749	1	11
468.920	1	8
469.090	1	16
469.260	1	22
469.431	1	9
469.601	1	20
469.772	1	20
469.942	1	14
470.112	1	7
470.283	1	17
470.453	1	20
470.623	1	11
470.794	1	18
470.964	1	2
471.135	1	28
471.305	1	15
471.475	1	26
471.646	1	11
471.816	1	15
471.986	1	21
472.157	1	24
472.327	1	19
472.497	1	12
472.668	1	5
472.838	1	16
473.009	1	11
473.179	1	15
473.349	1	15
473.520	1	19
473.690	1	12
473.860	1	8
474.031	1	7
474.201	1	11
474.371	1	15
474.542	1	19
474.712	1	15
474.882	1	13
475.053	1	13
475.223	1	16
475.394	1	8
475.564	1	10
475.734	1	3
475.905	1	20
476.075	1	18
476.245	1	16
476.416	1	17
476.586	1	6
476.756	1	15
476.927	1	9
477.097	1	18
477.267	1	9
477.438	1	28
477.608	1	23
477.778	1	9
477.949	1	0
478.119	1	21
478.289	1	9
478.460	1	9
478.630	1	8
478.800	1	6
478.971	1	22
479.141	1	14
479.311	1	7
479.482	1	6
479.652	1	10
479.822	1	7
479.993	1	13
480.163	1	14
480.333	1	12
480.504	1	14
480.674	1	15
480.844	1	14
481.015	1	19
481.185	1	18
481.355	1	3
481.525	1	6
481.696	1	12
481.866	1	18
482.036	1	-1
482.207	1	21
482.377	1	14
482.547	1	11
482.718	1	15
482.888	1	14
483.058	1	20
483.229	1	15
483.399	1	20
483.569	1	3
483.740	1	12
483.910	1	-4
484.080	1	15
484.250	1	3
484.421	1	4
484.591	1	8
484.761	1	12
484.932	1	4
485.102	1	16
485.272	1	9
485.443	1	16
485.613	1	9
485.783	1	5
485.953	1	0
486.124	1	18
486.294	1	14
486.464	1	14
486.635	1	0
486.805	1	12
486.975	1	3
487.146	1	17
487.316	1	12
487.486	1	18
487.656	1	14
487.827	1	14
487.997	1	5
488.167	1	10
488.338	1	9
488.508	1	13
488.678	1	5
488.848	1	6
489.019	1	4
489.189	1	19
489.359	1	6
489.529	1	7
489.700	1	19
489.870	1	16
490.040	1	3
490.211	1	10
490.381	1	5
490.551	1	5
490.721	1	7
490.892	1	11
491.062	1	6
491.232	1	15
491.402	1	10
491.573	1	18
491.743	1	10
491.913	1	15
492.084	1	18
492.254	1	2
492.424	1	8
492.594	1	15
492.765	1	19
492.935	1	13
493.105	1	12
493.275	1	7
493.446	1	3
493.616	1	-1
493.786	1	12
493.956	1	4
494.127	1	-3
494.297	1	4
494.467	1	8
494.637	1	2
494.808	1	10
494.978	1	9
495.148	1	11
495.318	1	5
495.489	1	2
495.659	1	7
495.829	1	9
495.999	1	8
496.170	1	7
496.340	1	8
496.510	1	19
496.680	1	0
496.851	1	17
497.021	1	6
497.191	1	3
497.361	1	-6
497.532	1	7
497.702	1	23
497.872	1	9
498.042	1	-5
498.213	1	1
498.383	1	10
498.553	1	12
498.723	1	3
498.894	1	1
499.064	1	17
499.234	1	7
499.404	1	11
499.574	1	11
499.745	1	7
499.915	1	16
500.085	1	1
500.255	1	-5
500.426	1	8
500.596	1	-6
500.766	1	-1
500.936	1	3
501.106	1	6
501.277	1	0
501.447	1	11
501.617	1	4
501.787	1	-2
501.958	1	18
502.128	1	6
502.298	1	15
502.468	1	1
502.638	1	14
502.809	1	-7
502.979	1	5
503.149	1	6
503.319	1	18
503.489	1	-3
503.660	1	0
503.830	1	13
504.000	1	8
504.170	1	1
504.340	1	2
504.511	1	0
504.681	1	9
504.851	1	3
505.021	1	-3
505.192	1	2
505.362	1	7
505.532	1	-4
505.702	1	18
505.872	1	0
506.043	1	15
506.213	1	5
506.383	1	7
506.553	1	-1
506.723	1	-4
506.893	1	8
507.064	1	15
507.234	1	1
507.404	1	2
507.574	1	5
507.744	1	7
507.915	1	8
508.085	1	-6
508.255	1	0
508.425	1	-2
508.595	1	3
508.766	1	3
508.936	1	14
509.106	1	4
509.276	1	16
509.446	1	0
509.616	1	0
509.787	1	-1
509.957	1	-6
510.127	1	-3
510.297	1	-1
510.467	1	4
510.638	1	7
510.808	1	18
510.978	1	4
511.148	1	2
511.318	1	-1
511.488	1	11
511.659	1	10
511.829	1	-5
511.999	1	4
512.169	1	10
512.339	1	9
512.509	1	4
512.680	1	-8
512.850	1	13
513.020	1	13
513.190	1	0
513.360	1	15
513.530	1	5
513.700	1	-1
513.871	1	-1
514.041	1	2
514.211	1	4
514.381	1	7
514.551	1	14
514.721	1	5
514.892	1	-2
515.062	1	8
515.232	1	-4
515.402	1	-1
515.572	1	1
515.742	1	18
515.912	1	8
516.083	1	-3
516.253	1	6
516.423	1	7
516.593	1	10
516.763	1	11
516.933	1	1
517.104	1	15
517.274	1	-3
517.444	1	8
517.614	1	11
517.784	1	3
517.954	1	0
518.124	1	4
518.294	1	8
518.465	1	4
518.635	1	-1
518.805	1	16
518.975	1	6
519.145	1	6
519.315	1	6
519.485	1	-7
519.656	1	-2
519.826	1	-5
519.996	1	12
520.166	1	7
520.336	1	6
520.506	1	8
520.676	1	17
520.846	1	6
521.017	1	5
521.187	1	9
521.357	1	2
521.527	1	-3
521.697	1	-1
521.867	1	8
522.037	1	8
522.207	1	3
522.377	1	10
522.548	1	-3
522.718	1	-1
522.888	1	0
523.058	1	6
523.228	1	-3
523.398	1	7
523.568	1	-9
523.738	1	9
523.909	1	6
524.079	1	5
524.249	1	1
524.419	1	10
524.589	1	7
524.759	1	3
524.929	1	3
525.099	1	1
525.269	1	4
525.439	1	4
525.610	1	20
525.780	1	4
525.950	1	10
526.120	1	-1
526.290	1	3
526.460	1	-4
526.630	1	11
526.800	1	2
526.970	1	5
527.140	1	2
527.311	1	9
527.481	1	7
527.651	1	9
527.821	1	-6
527.991	1	-5
528.161	1	1
528.331	1	-6
528.501	1	4
528.671	1	2
528.841	1	14
529.011	1	11
529.181	1	5
529.352	1	4
529.522	1	7
529.692	1	7
529.862	1	2
530.032	1	-3
530.202	1	-7
530.372	1	6
530.542	1	5
530.712	1	1
530.882	1	5
531.052	1	2
531.222	1	1
531.392	1	-4
531.563	1	2
531.733	1	3
531.903	1	0
532.073	1	6
532.243	1	7
532.413	1	25
532.583	1	3
532.753	1	-4
532.923	1	5
533.093	1	2
533.263	1	3
533.433	1	-7
533.603	1	5
533.773	1	3
533.943	1	0
534.113	1	10
534.284	1	4
534.454	1	0
534.624	1	5
534.794	1	-7
534.964	1	5
535.134	1	-9
535.304	1	-2
535.474	1	11
535.644	1	5
535.814	1	7
535.984	1	4
536.154	1	4
536.324	1	4
536.494	1	5
536.664	1	4
536.834	1	1
537.004	1	-2
537.174	1	4
537.344	1	5
537.514	1	-3
537.685	1	13
537.855	1	1
538.025	1	11
538.195	1	-6
538.365	1	1
538.535	1	-6
538.705	1	2
538.875	1	6
539.045	1	11
539.215	1	0
539.385	1	5
539.555	1	7
539.725	1	5
539.895	1	6
540.065	1	2
540.235	1	8
540.405	1	2
540.575	1	2
540.745	1	0
540.915	1	-4
541.085	1	4
541.255	1	1
541.425	1	6
541.595	1	4
541.765	1	7
541.935	1	7
542.105	1	2
542.275	1	7
542.445	1	6
542.615	1	-1
542.785	1	-3
542.955	1	2
543.125	1	7
543.295	1	-1
543.465	1	-2
543.635	1	0
543.805	1	7
543.975	1	6
544.145	1	-4
544.315	1	-5
544.485	1	2
544.655	1	7
544.825	1	6
544.995	1	0
545.165	1	0
545.335	1	6
545.505	1	2
545.675	1	11
545.845	1	7
546.015	1	-6
546.185	1	3
546.355	1	-7
546.525	1	12
546.695	1	-9
546.865	1	8
547.035	1	0
547.205	1	19
547.375	1	6
547.545	1	8
547.715	1	7
547.885	1	3
548.055	1	-1
548.225	1	0
548.395	1	-4
548.565	1	11
548.735	1	-16
548.905	1	11
549.075	1	-6
549.245	1	8
549.415	1	3
549.585	1	5
549.755	1	8
549.925	1	6
550.095	1	-8
550.265	1	3
550.435	1	-2
550.605	1	0
550.775	1	-12
550.945	1	8
551.115	1	6
551.285	1	-2
551.455	1	5
551.625	1	2
551.795	1	4
551.965	1	-3
552.135	1	-1
552.305	1	2
552.475	1	6
552.645	1	-3
552.815	1	1
552.985	1	-8
553.155	1	0
553.325	1	2
553.495	1	9
553.665	1	-1
553.835	1	9
554.004	1	9
554.174	1	-9
554.344	1	8
554.514	1	2
554.684	1	9
554.854	1	-4
555.024	1	9
555.194	1	2
555.364	1	4
555.534	1	-11
555.704	1	7
555.874	1	-2
556.044	1	0
556.214	1	3
556.384	1	9
556.554	1	17
556.724	1	-1
556.894	1	0
557.064	1	-8
557.234	1	-3
557.404	1	0
557.573	1	7
557.743	1	-2
557.913	1	-8
558.083	1	-1
558.253	1	2
558.423	1	0
558.593	1	8
558.763	1	0
558.933	1	-1
559.103	1	-3
559.273	1	8
559.443	1	6
559.613	1	3
559.783	1	3
559.953	1	-15
560.122	1	1
560.292	1	-8
560.462	1	-2
560.632	1	-2
560.802	1	-1
560.972	1	-14
561.142	1	2
561.312	1	4
561.482	1	9
561.652	1	2
561.822	1	-2
561.992	1	7
562.162	1	7
562.331	1	-11
562.501	1	1
562.671	1	1
562.841	1	-10
563.011	1	4
563.181	1	-5
563.351	1	-2
563.521	1	0
563.691	1	0
563.861	1	8
564.031	1	-13
564.201	1	5
564.370	1	6
564.540	1	-14
564.710	1	-8
564.880	1	-3
565.050	1	2
565.220	1	18
565.390	1	-1
565.560	1	8
565.730	1	5
565.900	1	-6
566.069	1	13
566.239	1	3
566.409	1	5
566.579	1	6
566.749	1	5
566.919	1	-17
567.089	1	-12
567.259	1	5
567.429	1	-9
567.599	1	7
567.768	1	3
567.938	1	4
568.108	1	2
568.278	1	3
568.448	1	6
568.618	1	7
568.788	1	-1
568.958	1	-10
569.128	1	-7
569.297	1	-1
569.467	1	9
569.637	1	-1
569.807	1	12
569.977	1	-14
570.147	1	3
570.317	1	-6
570.487	1	-4
570.656	1	1
570.826	1	1
570.996	1	5
571.166	1	5
571.336	1	-1
571.506	1	-9
571.676	1	3
571.846	1	5
572.015	1	6
572.185	1	3
572.355	1	0
572.525	1	-7
572.695	1	-2
572.865	1	13
573.035	1	10
573.205	1	-1
573.374	1	2
573.544	1	-1
573.714	1	-4
573.884	1	-3
574.054	1	4
574.224	1	5
574.394	1	1
574.563	1	-6
574.733	1	11
574.903	1	0
575.073	1	5
575.243	1	-7
575.413	1	0
575.583	1	-6
575.752	1	-2
575.922	1	4
576.092	1	-4
576.262	1	7
576.432	1	0
576.602	1	4
576.772	1	-5
576.941	1	7
577.111	1	3
577.281	1	2
577.451	1	4
577.621	1	1
577.791	1	2
577.960	1	-3
578.130	1	3
578.300	1	-2
578.470	1	6
578.640	1	-6
578.810	1	6
578.979	1	2
579.149	1	-5
579.319	1	-3
579.489	1	14
579.659	1	3
579.829	1	-4
579.998	1	-9
580.168	1	-1
580.338	1	-4
580.508	1	-8
580.678	1	0
580.848	1	2
581.017	1	5
581.187	1	3
581.357	1	10
581.527	1	5
581.697	1	-3
581.867	1	1
582.036	1	-10
582.206	1	0
582.376	1	9
582.546	1	-4
582.716	1	-3
582.885	1	0
583.055	1	-2
583.225	1	2
583.395	1	2
583.565	1	6
583.735	1	-1
583.904	1	-7
584.074	1	-4
584.244	1	-3
584.414	1	7
584.584	1	-3
584.753	1	4
584.923	1	-1
585.093	1	6
585.263	1	5
585.433	1	1
585.602	1	3
585.772	1	5
585.942	1	-4
586.112	1	13
586.282	1	1
586.451	1	7
586.621	1	-12
586.791	1	-3
586.961	1	-4
587.131	1	-1
587.300	1	17
587.470	1	-6
587.640	1	-11
587.810	1	-10
587.980	1	4
588.149	1	8
588.319	1	7
588.489	1	-4
588.659	1	-6
588.829	1	1
588.998	1	4
589.168	1	-11
589.338	1	0
589.508	1	-2
589.677	1	4
589.847	1	0
590.017	1	3
590.187	1	1
590.357	1	1
590.526	1	-5
590.696	1	11
590.866	1	-3
591.036	1	2
591.205	1	9
591.375	1	4
591.545	1	-5
591.715	1	-2
591.885	1	1
592.054	1	0
592.224	1	0
592.394	1	-6
592.564	1	-3
592.733	1	0
592.903	1	0
593.073	1	-2
593.243	1	3
593.412	1	-3
593.582	1	5
593.752	1	-2
593.922	1	-4
594.091	1	5
594.261	1	-8
594.431	1	10
594.601	1	0
594.771	1	-2
594.940	1	8
595.110	1	4
595.280	1	-2
595.450	1	4
595.619	1	1
595.789	1	2
595.959	1	3
596.129	1	5
596.298	1	8
596.468	1	-10
596.638	1	9
596.808	1	-6
596.977	1	-4
597.147	1	-5
597.317	1	-3
597.487	1	9
597.656	1	3
597.826	1	9
597.996	1	1
598.166	1	3
598.335	1	-6
598.505	1	3
598.675	1	-3
598.844	1	3
599.014	1	-7
599.184	1	-6
599.354	1	15
599.523	1	-10
599.693	1	11
599.863	1	4
600.033	1	-1
600.202	1	0
600.372	1	-5
600.542	1	1
600.712	1	2
600.881	1	2
601.051	1	7
601.221	1	-2
601.390	1	8
601.560	1	9
601.730	1	10
601.900	1	-3
602.069	1	1
602.239	1	4
602.409	1	8
602.578	1	7
602.748	1	8
602.918	1	0
603.088	1	4
603.257	1	1
603.427	1	12
603.597	1	1
603.767	1	7
603.936	1	11
604.106	1	-8
604.276	1	1
604.445	1	-3
604.615	1	1
604.785	1	6
604.954	1	2
605.124	1	1
605.294	1	-4
605.464	1	-1
605.633	1	1
605.803	1	6
605.973	1	-6
606.142	1	8
606.312	1	6
606.482	1	-8
606.652	1	2
606.821	1	1
606.991	1	5
607.161	1	4
607.330	1	2
607.500	1	-4
607.670	1	2
607.839	1	-7
608.009	1	-5
608.179	1	6
608.348	1	5
608.518	1	12
608.688	1	-2
608.858	1	1
609.027	1	3
609.197	1	7
609.367	1	-4
609.536	1	0
609.706	1	3
609.876	1	6
610.045	1	4
610.215	1	4
610.385	1	2
610.554	1	0
610.724	1	-4
610.894	1	7
611.063	1	1
611.233	1	3
611.403	1	3
611.572	1	10
611.742	1	1
611.912	1	2
612.081	1	6
612.251	1	5
612.421	1	-4
612.590	1	5
612.760	1	1
612.930	1	-2
613.099	1	5
613.269	1	-1
613.439	1	-6
613.608	1	7
613.778	1	-1
613.948	1	6
614.117	1	-9
614.287	1	0
614.457	1	3
614.626	1	6
614.796	1	1
614.966	1	-6
615.135	1	13
615.305	1	13
615.475	1	0
615.644	1	10
615.814	1	6
615.984	1	0
616.153	1	2
616.323	1	-2
616.493	1	-1
616.662	1	-7
616.832	1	8
617.002	1	8
617.171	1	2
617.341	1	4
617.511	1	-3
617.680	1	-7
617.850	1	3
618.019	1	2
618.189	1	10
618.359	1	3
618.528	1	-2
618.698	1	13
618.868	1	-2
619.037	1	0
619.207	1	4
619.377	1	-2
619.546	1	10
619.716	1	3
619.885	1	4
620.055	1	-3
620.225	1	6
620.394	1	8
620.564	1	13
620.734	1	-3
620.903	1	-2
621.073	1	7
621.242	1	6
621.412	1	1
621.582	1	4
621.751	1	-5
621.921	1	0
622.091	1	5
622.260	1	5
622.430	1	5
622.599	1	-3
622.769	1	-3
622.939	1	-2
623.108	1	7
623.278	1	7
623.448	1	8
623.617	1	14
623.787	1	5
623.956	1	11
624.126	1	9
624.296	1	10
624.465	1	6
624.635	1	3
624.804	1	-12
624.974	1	-10
625.144	1	-2
625.313	1	10
625.483	1	11
625.652	1	7
625.822	1	12
625.992	1	-8
626.161	1	4
626.331	1	-1
626.501	1	1
626.670	1	-4
626.840	1	5
627.009	1	3
627.179	1	7
627.348	1	0
627.518	1	10
627.688	1	3
627.857	1	2
628.027	1	13
628.196	1	3
628.366	1	-10
628.536	1	-1
628.705	1	1
628.875	1	-1
629.044	1	-2
629.214	1	8
629.384	1	9
629.553	1	7
629.723	1	3
629.892	1	4
630.062	1	2
630.232	1	5
630.401	1	1
630.571	1	-3
630.740	1	-5
630.910	1	9
631.079	1	6
631.249	1	12
631.419	1	9
631.588	1	5
631.758	1	-7
631.927	1	11
632.097	1	-9
632.266	1	7
632.436	1	-4
632.606	1	2
632.775	1	10
632.945	1	4
633.114	1	2
633.284	1	5
633.453	1	9
633.623	1	5
633.793	1	0
633.962	1	4
634.132	1	0
634.301	1	5
634.471	1	0
634.640	1	-2
634.810	1	4
634.979	1	-2
635.149	1	-5
635.319	1	9
635.488	1	-1
635.658	1	8
635.827	1	-7
635.997	1	7
636.166	1	13
636.336	1	4
636.505	1	8
636.675	1	2
636.845	1	4
637.014	1	-3
637.184	1	7
637.353	1	-4
637.523	1	-1
637.692	1	7
637.862	1	2
638.031	1	-1
638.201	1	5
638.370	1	2
638.540	1	-1
638.710	1	-6
638.879	1	-1
639.049	1	3
639.218	1	0
639.388	1	-2
639.557	1	1
639.727	1	7
639.896	1	2
640.066	1	-7
640.235	1	-5
640.405	1	-3
640.574	1	11
640.744	1	-3
640.914	1	4
641.083	1	2
641.253	1	-1
641.422	1	0
641.592	1	14
641.761	1	-2
641.931	1	18
642.100	1	0
642.270	1	5
642.439	1	6
642.609	1	12
642.778	1	-1
642.948	1	5
643.117	1	6
643.287	1	-2
643.456	1	4
643.626	1	-5
643.795	1	5
643.965	1	6
644.134	1	-2
644.304	1	-4
644.473	1	1
644.643	1	-1
644.812	1	-2
644.982	1	6
645.151	1	-7
645.321	1	8
645.490	1	6
645.660	1	3
645.829	1	1
645.999	1	0
646.168	1	13
646.338	1	-4
646.507	1	4
646.677	1	1
646.846	1	3
647.016	1	9
647.185	1	8
647.355	1	10
647.524	1	5
647.694	1	-5
647.863	1	-3
648.033	1	2
648.202	1	12
648.372	1	-11
648.541	1	2
648.711	1	0
648.880	1	-1
649.050	1	10
649.219	1	9
649.389	1	-5
649.558	1	5
649.728	1	1
649.897	1	5
650.067	1	12
650.236	1	-9
650.406	1	3
650.575	1	-2
650.745	1	1
650.914	1	7
651.084	1	5
651.253	1	2
651.423	1	-2
651.592	1	9
651.762	1	-5
651.931	1	9
652.101	1	-4
652.270	1	0
652.440	1	2
652.609	1	7
652.778	1	13
652.948	1	8
653.117	1	4
653.287	1	-10
653.456	1	1
653.626	1	-1
653.795	1	2
653.965	1	-6
654.134	1	-6
654.304	1	-2
654.473	1	5
654.643	1	-2
654.812	1	7
654.982	1	7
655.151	1	2
655.320	1	0
655.490	1	3
655.659	1	13
655.829	1	8
655.998	1	14
656.168	1	2
656.337	1	-1
656.507	1	-10
656.676	1	-8
656.846	1	-1
657.015	1	10
657.184	1	1
657.354	1	-3
657.523	1	1
657.693	1	7
657.862	1	3
658.032	1	0
658.201	1	-9
658.371	1	7
658.540	1	-9
658.709	1	3
658.879	1	8
659.048	1	8
659.218	1	-2
659.387	1	17
659.557	1	-2
659.726	1	-1
659.895	1	6
660.065	1	-6
660.234	1	-4
660.404	1	4
660.573	1	-1
660.743	1	8
660.912	1	8
661.081	1	-2
661.251	1	5
661.420	1	8
661.590	1	-8
661.759	1	11
661.929	1	6
662.098	1	1
662.267	1	-7
662.437	1	8
662.606	1	-6
662.776	1	0
662.945	1	8
663.115	1	23
663.284	1	2
663.453	1	1
663.623	1	4
663.792	1	15
663.962	1	5
664.131	1	1
664.300	1	9
664.470	1	-7
664.639	1	4
664.809	1	4
664.978	1	19
665.148	1	8
665.317	1	12
665.486	1	5
665.656	1	2
665.825	1	8
665.995	1	-12
666.164	1	9
666.333	1	-1
666.503	1	-5
666.672	1	0
666.842	1	-5
667.011	1	5
667.180	1	5
667.350	1	8
667.519	1	14
667.689	1	3
667.858	1	3
668.027	1	7
668.197	1	-8
668.366	1	6
668.536	1	-2
668.705	1	-11
668.874	1	6
669.044	1	13
669.213	1	7
669.382	1	7
669.552	1	10
669.721	1	-5
669.891	1	-15
670.060	1	9
670.229	1	5
670.399	1	9
670.568	1	9
670.738	1	-2
670.907	1	7
671.076	1	3
671.246	1	15
671.415	1	15
671.584	1	8
671.754	1	1
671.923	1	-6
672.093	1	7
672.262	1	2
672.431	1	3
672.601	1	19
672.770	1	8
672.939	1	10
673.109	1	6
673.278	1	2
673.448	1	-8
673.617	1	10
673.786	1	0
