325.333	1	7
325.504	1	-8
325.675	1	9
325.846	1	2
326.017	1	2
326.188	1	-6
326.359	1	-3
326.531	1	-7
326.702	1	7
326.873	1	3
327.044	1	7
327.215	1	-11
327.386	1	-5
327.557	1	-15
327.728	1	2
327.899	1	-3
328.070	1	11
328.241	1	7
328.412	1	-1
328.583	1	-7
328.754	1	10
328.926	1	5
329.097	1	1
329.268	1	9
329.439	1	10
329.610	1	1
329.781	1	9
329.952	1	7
330.123	1	0
330.294	1	-12
330.465	1	-9
330.636	1	4
330.807	1	5
330.978	1	-1
331.149	1	-4
331.320	1	-12
331.492	1	3
331.663	1	-8
331.834	1	9
332.005	1	2
332.176	1	-3
332.347	1	-4
332.518	1	5
332.689	1	-4
332.860	1	-8
333.031	1	1
333.202	1	-1
333.373	1	7
333.544	1	6
333.715	1	-1
333.886	1	-6
334.057	1	-1
334.228	1	4
334.399	1	13
334.570	1	2
334.741	1	-3
334.912	1	1
335.084	1	2
335.255	1	5
335.426	1	2
335.597	1	-4
335.768	1	5
335.939	1	-1
336.110	1	-6
336.281	1	-3
336.452	1	9
336.623	1	-3
336.794	1	-1
336.965	1	0
337.136	1	6
337.307	1	-9
337.478	1	2
337.649	1	-3
337.820	1	-8
337.991	1	-1
338.162	1	5
338.333	1	-1
338.504	1	1
338.675	1	-5
338.846	1	-12
339.017	1	0
339.188	1	2
339.359	1	-6
339.530	1	-2
339.701	1	7
339.872	1	11
340.043	1	-7
340.214	1	7
340.385	1	1
340.556	1	8
340.727	1	0
340.898	1	3
341.069	1	-5
341.240	1	-10
341.411	1	3
341.582	1	-10
341.753	1	-5
341.924	1	5
342.095	1	-1
342.266	1	3
342.437	1	5
342.608	1	-1
342.779	1	-15
342.950	1	-6
343.121	1	5
343.292	1	1
343.463	1	6
343.634	1	-5
343.805	1	6
343.976	1	-2
344.147	1	5
344.318	1	-6
344.489	1	-1
344.660	1	3
344.831	1	7
345.002	1	-1
345.173	1	1
345.344	1	-3
345.515	1	8
345.686	1	0
345.857	1	5
346.028	1	2
346.199	1	-1
346.370	1	1
346.541	1	-8
346.712	1	-2
346.883	1	-5
347.054	1	7
347.225	1	-4
347.396	1	4
347.567	1	2
347.738	1	6
347.909	1	7
348.080	1	5
348.251	1	1
348.422	1	6
348.593	1	3
348.764	1	2
348.935	1	2
349.106	1	-6
349.277	1	-7
349.448	1	5
349.619	1	6
349.790	1	4
349.961	1	-13
350.132	1	4
350.303	1	-10
350.474	1	9
350.645	1	-2
350.816	1	-2
350.987	1	9
351.157	1	3
351.328	1	-2
351.499	1	-1
351.670	1	7
351.841	1	9
352.012	1	5
352.183	1	15
352.354	1	-5
352.525	1	6
352.696	1	0
352.867	1	3
353.038	1	9
353.209	1	-1
353.380	1	-2
353.551	1	8
353.722	1	-4
353.893	1	5
354.064	1	5
354.235	1	5
354.406	1	-6
354.576	1	-6
354.747	1	0
354.918	1	-2
355.089	1	2
355.260	1	-4
355.431	1	-3
355.602	1	7
355.773	1	2
355.944	1	3
356.115	1	-1
356.286	1	12
356.457	1	-3
356.628	1	-2
356.799	1	10
356.970	1	8
357.141	1	6
357.311	1	10
357.482	1	4
357.653	1	-6
357.824	1	5
357.995	1	10
358.166	1	4
358.337	1	-5
358.508	1	10
358.679	1	-8
358.850	1	4
359.021	1	-4
359.192	1	4
359.363	1	2
359.533	1	-3
359.704	1	-2
359.875	1	-4
360.046	1	3
360.217	1	10
360.388	1	4
360.559	1	8
360.730	1	-3
360.901	1	7
361.072	1	9
361.243	1	4
361.414	1	10
361.584	1	-3
361.755	1	-3
361.926	1	6
362.097	1	0
362.268	1	11
362.439	1	-3
362.610	1	11
362.781	1	-7
362.952	1	18
363.123	1	-12
363.293	1	0
363.464	1	2
363.635	1	13
363.806	1	5
363.977	1	4
364.148	1	-1
364.319	1	-4
364.490	1	4
364.661	1	2
364.832	1	8
365.002	1	10
365.173	1	9
365.344	1	6
365.515	1	-3
365.686	1	-2
365.857	1	10
366.028	1	11
366.199	1	9
366.370	1	1
366.540	1	1
366.711	1	7
366.882	1	8
367.053	1	8
367.224	1	7
367.395	1	-2
367.566	1	7
367.737	1	-1
367.908	1	2
368.078	1	-3
368.249	1	2
368.420	1	6
368.591	1	4
368.762	1	5
368.933	1	2
369.104	1	5
369.274	1	16
369.445	1	5
369.616	1	-7
369.787	1	-3
369.958	1	6
370.129	1	-4
370.300	1	-6
370.471	1	-9
370.641	1	2
370.812	1	5
370.983	1	-2
371.154	1	-1
371.325	1	6
371.496	1	-3
371.667	1	15
371.837	1	7
372.008	1	1
372.179	1	-1
372.350	1	3
372.521	1	8
372.692	1	7
372.863	1	1
373.033	1	4
373.204	1	-3
373.375	1	3
373.546	1	8
373.717	1	4
373.888	1	10
374.059	1	7
374.229	1	11
374.400	1	1
374.571	1	-1
374.742	1	-2
374.913	1	-7
375.084	1	4
375.254	1	-5
375.425	1	8
375.596	1	1
375.767	1	6
375.938	1	0
376.109	1	-7
376.279	1	0
376.450	1	8
376.621	1	8
376.792	1	9
376.963	1	1
377.134	1	8
377.304	1	10
377.475	1	-1
377.646	1	-7
377.817	1	7
377.988	1	4
378.159	1	14
378.329	1	2
378.500	1	1
378.671	1	3
378.842	1	6
379.013	1	11
379.184	1	1
379.354	1	5
379.525	1	7
379.696	1	5
379.867	1	5
380.038	1	-4
380.209	1	6
380.379	1	9
380.550	1	-10
380.721	1	0
380.892	1	-6
381.063	1	2
381.233	1	7
381.404	1	-1
381.575	1	7
381.746	1	13
381.917	1	-1
382.087	1	6
382.258	1	5
382.429	1	6
382.600	1	4
382.771	1	8
382.941	1	10
383.112	1	3
383.283	1	9
383.454	1	0
383.625	1	10
383.795	1	9
383.966	1	8
384.137	1	11
384.308	1	4
384.479	1	3
384.649	1	0
384.820	1	-3
384.991	1	4
385.162	1	13
385.333	1	8
385.503	1	-3
385.674	1	5
385.845	1	11
386.016	1	7
386.187	1	-5
386.357	1	17
386.528	1	8
386.699	1	-3
386.870	1	-3
387.041	1	6
387.211	1	0
387.382	1	15
387.553	1	0
387.724	1	-4
387.894	1	4
388.065	1	9
388.236	1	3
388.407	1	1
388.578	1	10
388.748	1	4
388.919	1	10
389.090	1	13
389.261	1	8
389.431	1	0
389.602	1	0
389.773	1	9
389.944	1	5
390.114	1	7
390.285	1	0
390.456	1	7
390.627	1	-5
390.798	1	4
390.968	1	19
391.139	1	14
391.310	1	-4
391.481	1	2
391.651	1	14
391.822	1	10
391.993	1	3
392.164	1	2
392.334	1	-9
392.505	1	11
392.676	1	4
392.847	1	-4
393.017	1	-2
393.188	1	8
393.359	1	14
393.530	1	21
393.700	1	4
393.871	1	13
394.042	1	-3
394.213	1	-2
394.383	1	6
394.554	1	0
394.725	1	-4
394.896	1	18
395.066	1	13
395.237	1	0
395.408	1	7
395.579	1	14
395.749	1	13
395.920	1	-2
396.091	1	6
396.262	1	0
396.432	1	0
396.603	1	1
396.774	1	4
396.945	1	3
397.115	1	14
397.286	1	7
397.457	1	5
397.627	1	-3
397.798	1	8
397.969	1	-3
398.140	1	6
398.310	1	9
398.481	1	1
398.652	1	11
398.823	1	2
398.993	1	-2
399.164	1	7
399.335	1	-1
399.505	1	-2
399.676	1	3
399.847	1	4
400.018	1	-4
400.188	1	6
400.359	1	6
400.530	1	3
400.700	1	2
400.871	1	0
401.042	1	8
401.213	1	12
401.383	1	1
401.554	1	1
401.725	1	-2
401.895	1	-2
402.066	1	19
402.237	1	-1
402.408	1	-2
402.578	1	15
402.749	1	7
402.920	1	10
403.090	1	11
403.261	1	0
403.432	1	10
403.603	1	12
403.773	1	19
403.944	1	5
404.115	1	8
404.285	1	9
404.456	1	18
404.627	1	13
404.797	1	0
404.968	1	7
405.139	1	3
405.310	1	6
405.480	1	1
405.651	1	2
405.822	1	5
405.992	1	9
406.163	1	-1
406.334	1	10
406.504	1	7
406.675	1	9
406.846	1	4
407.016	1	5
407.187	1	4
407.358	1	-1
407.528	1	9
407.699	1	13
407.870	1	10
408.041	1	3
408.211	1	10
408.382	1	3
408.553	1	10
408.723	1	11
408.894	1	2
409.065	1	15
409.235	1	4
409.406	1	3
409.577	1	2
409.747	1	11
409.918	1	17
410.089	1	18
410.259	1	5
410.430	1	-2
410.601	1	5
410.771	1	12
410.942	1	3
411.113	1	8
411.283	1	7
411.454	1	17
411.625	1	13
411.795	1	13
411.966	1	4
412.137	1	7
412.307	1	6
412.478	1	8
412.649	1	11
412.819	1	11
412.990	1	12
413.161	1	13
413.331	1	11
413.502	1	0
413.672	1	-5
413.843	1	5
414.014	1	8
414.184	1	13
414.355	1	3
414.526	1	1
414.696	1	11
414.867	1	-4
415.038	1	3
415.208	1	1
415.379	1	7
415.550	1	2
415.720	1	-1
415.891	1	19
416.062	1	6
416.232	1	6
416.403	1	13
416.573	1	4
416.744	1	16
416.915	1	11
417.085	1	6
417.256	1	10
417.427	1	-2
417.597	1	5
417.768	1	3
417.939	1	-1
418.109	1	-3
418.280	1	2
418.450	1	14
418.621	1	7
418.792	1	1
418.962	1	16
419.133	1	5
419.304	1	0
419.474	1	2
419.645	1	5
419.815	1	0
419.986	1	10
420.157	1	9
420.327	1	4
420.498	1	0
420.669	1	15
420.839	1	12
421.010	1	10
421.180	1	0
421.351	1	11
421.522	1	9
421.692	1	16
421.863	1	16
422.033	1	8
422.204	1	12
422.375	1	9
422.545	1	7
422.716	1	-2
422.886	1	4
423.057	1	7
423.228	1	-1
423.398	1	16
423.569	1	12
423.740	1	10
423.910	1	17
424.081	1	8
424.251	1	-2
424.422	1	16
424.593	1	2
424.763	1	14
424.934	1	13
425.104	1	28
425.275	1	-2
425.445	1	15
425.616	1	3
425.787	1	0
425.957	1	1
426.128	1	1
426.298	1	8
426.469	1	-2
426.640	1	0
426.810	1	-4
426.981	1	17
427.151	1	-1
427.322	1	8
427.493	1	5
427.663	1	4
427.834	1	5
428.004	1	17
428.175	1	10
428.345	1	-4
428.516	1	6
428.687	1	20
428.857	1	15
429.028	1	2
429.198	1	5
429.369	1	0
429.540	1	-1
429.710	1	7
429.881	1	2
430.051	1	-1
430.222	1	7
430.392	1	8
430.563	1	0
430.734	1	3
430.904	1	8
431.075	1	4
431.245	1	6
431.416	1	11
431.586	1	1
431.757	1	15
431.927	1	19
432.098	1	8
432.269	1	4
432.439	1	0
432.610	1	27
432.780	1	8
432.951	1	-11
433.121	1	-2
433.292	1	8
433.462	1	8
433.633	1	0
433.804	1	5
433.974	1	12
434.145	1	5
434.315	1	-2
434.486	1	-4
434.656	1	6
434.827	1	8
434.997	1	11
435.168	1	1
435.339	1	7
435.509	1	10
435.680	1	5
435.850	1	7
436.021	1	1
436.191	1	-2
436.362	1	11
436.532	1	3
436.703	1	7
436.873	1	-6
437.044	1	5
437.214	1	-3
437.385	1	7
437.556	1	9
437.726	1	3
437.897	1	-1
438.067	1	4
438.238	1	5
438.408	1	9
438.579	1	2
438.749	1	6
438.920	1	19
439.090	1	3
439.261	1	15
439.431	1	-11
439.602	1	4
439.772	1	8
439.943	1	-1
440.113	1	0
440.284	1	2
440.455	1	0
440.625	1	13
440.796	1	-2
440.966	1	14
441.137	1	9
441.307	1	8
441.478	1	0
441.648	1	-4
441.819	1	4
441.989	1	7
442.160	1	7
442.330	1	5
442.501	1	8
442.671	1	10
442.842	1	8
443.012	1	1
443.183	1	9
443.353	1	-5
443.524	1	-4
443.694	1	6
443.865	1	8
444.035	1	8
444.206	1	10
444.376	1	5
444.547	1	-8
444.717	1	8
444.888	1	-5
445.058	1	10
445.229	1	7
445.399	1	5
445.570	1	10
445.740	1	-2
445.911	1	15
446.081	1	4
446.252	1	6
446.422	1	-2
446.593	1	3
446.763	1	9
446.934	1	2
447.104	1	-5
447.275	1	7
447.445	1	-1
447.616	1	2
447.786	1	5
447.957	1	1
448.127	1	-3
448.298	1	7
448.468	1	0
448.639	1	6
448.809	1	-1
448.979	1	11
449.150	1	-6
449.320	1	4
449.491	1	-10
449.661	1	-2
449.832	1	-1
450.002	1	4
450.173	1	7
450.343	1	-2
450.514	1	4
450.684	1	7
450.855	1	5
451.025	1	7
451.196	1	2
451.366	1	4
451.537	1	9
451.707	1	2
451.878	1	3
452.048	1	-4
452.218	1	-1
452.389	1	7
452.559	1	6
452.730	1	12
452.900	1	-8
453.071	1	12
453.241	1	4
453.412	1	2
453.582	1	13
453.753	1	6
453.923	1	0
454.093	1	-1
454.264	1	11
454.434	1	-4
454.605	1	2
454.775	1	9
454.946	1	-5
455.116	1	12
455.287	1	1
455.457	1	8
455.628	1	-5
455.798	1	15
455.968	1	-6
456.139	1	10
456.309	1	5
456.480	1	-2
456.650	1	4
456.821	1	-2
456.991	1	9
457.161	1	13
457.332	1	2
457.502	1	2
457.673	1	0
457.843	1	-4
458.014	1	1
458.184	1	6
458.355	1	4
458.525	1	5
458.695	1	5
458.866	1	-8
459.036	1	-1
459.207	1	9
459.377	1	13
459.548	1	1
459.718	1	-4
459.888	1	1
460.059	1	8
460.229	1	-3
460.400	1	0
460.570	1	3
460.740	1	1
460.911	1	-5
461.081	1	0
461.252	1	7
461.422	1	-1
461.593	1	11
461.763	1	10
461.933	1	-6
462.104	1	-14
462.274	1	-2
462.445	1	3
462.615	1	13
462.785	1	1
462.956	1	-8
463.126	1	3
463.297	1	1
463.467	1	9
463.638	1	6
463.808	1	3
463.978	1	-10
464.149	1	-1
464.319	1	-1
464.490	1	7
464.660	1	-4
464.830	1	-2
465.001	1	-2
465.171	1	7
465.342	1	-7
465.512	1	3
465.682	1	-6
465.853	1	-5
466.023	1	3
466.194	1	7
466.364	1	15
466.534	1	3
466.705	1	16
466.875	1	-4
467.045	1	4
467.216	1	-5
467.386	1	1
467.557	1	2
467.727	1	6
467.897	1	2
468.068	1	-2
468.238	1	-1
468.409	1	3
468.579	1	8
468.749	1	2
468.920	1	-4
469.090	1	2
469.260	1	4
469.431	1	-7
469.601	1	11
469.772	1	-1
469.942	1	10
470.112	1	-8
470.283	1	5
470.453	1	3
470.623	1	8
470.794	1	5
470.964	1	-8
471.135	1	11
471.305	1	5
471.475	1	14
471.646	1	1
471.816	1	5
471.986	1	5
472.157	1	2
472.327	1	6
472.497	1	-3
472.668	1	5
472.838	1	-4
473.009	1	-3
473.179	1	-1
473.349	1	8
473.520	1	11
473.690	1	5
473.860	1	-4
474.031	1	-11
474.201	1	2
474.371	1	5
474.542	1	-2
474.712	1	-3
474.882	1	3
475.053	1	8
475.223	1	3
475.394	1	5
475.564	1	8
475.734	1	1
475.905	1	9
476.075	1	20
476.245	1	-1
476.416	1	-7
476.586	1	4
476.756	1	10
476.927	1	2
477.097	1	-4
477.267	1	12
477.438	1	4
477.608	1	11
477.778	1	-5
477.949	1	-4
478.119	1	14
478.289	1	-3
478.460	1	0
478.630	1	-2
478.800	1	0
478.971	1	0
479.141	1	9
479.311	1	1
479.482	1	0
479.652	1	4
479.822	1	-10
479.993	1	-6
480.163	1	2
480.333	1	9
480.504	1	-7
480.674	1	4
480.844	1	-10
481.015	1	6
481.185	1	10
481.355	1	-2
481.525	1	-7
481.696	1	1
481.866	1	1
482.036	1	-5
482.207	1	3
482.377	1	-3
482.547	1	10
482.718	1	-2
482.888	1	11
483.058	1	11
483.229	1	3
483.399	1	-1
483.569	1	-1
483.740	1	-1
483.910	1	-9
484.080	1	0
484.250	1	-2
484.421	1	0
484.591	1	-6
484.761	1	5
484.932	1	-1
485.102	1	4
485.272	1	-4
485.443	1	-4
485.613	1	-4
485.783	1	2
485.953	1	-6
486.124	1	-3
486.294	1	7
486.464	1	6
486.635	1	-6
486.805	1	-3
486.975	1	-8
487.146	1	9
487.316	1	6
487.486	1	8
487.656	1	2
487.827	1	6
487.997	1	-11
488.167	1	-1
488.338	1	4
488.508	1	8
488.678	1	2
488.848	1	2
489.019	1	3
489.189	1	3
489.359	1	4
489.529	1	-6
489.700	1	8
489.870	1	2
490.040	1	-3
490.211	1	-11
490.381	1	2
490.551	1	-4
490.721	1	4
490.892	1	-11
491.062	1	-4
491.232	1	0
491.402	1	-4
491.573	1	7
491.743	1	-5
491.913	1	-7
492.084	1	0
492.254	1	-9
492.424	1	2
492.594	1	2
492.765	1	13
492.935	1	7
493.105	1	0
493.275	1	-14
493.446	1	-3
493.616	1	0
493.786	1	1
493.956	1	-1
494.127	1	1
494.297	1	-6
494.467	1	-4
494.637	1	-1
494.808	1	16
494.978	1	1
495.148	1	-6
495.318	1	9
495.489	1	-11
495.659	1	0
495.829	1	-3
495.999	1	15
496.170	1	3
496.340	1	-11
496.510	1	2
496.680	1	7
496.851	1	13
497.021	1	-6
497.191	1	1
497.361	1	-9
497.532	1	-6
497.702	1	2
497.872	1	-5
498.042	1	-3
498.213	1	-10
498.383	1	3
498.553	1	8
498.723	1	-2
498.894	1	3
499.064	1	3
499.234	1	6
499.404	1	8
499.574	1	4
499.745	1	5
499.915	1	0
500.085	1	-2
500.255	1	-10
500.426	1	2
500.596	1	-7
500.766	1	-7
500.936	1	-5
501.106	1	-7
501.277	1	-8
501.447	1	7
501.617	1	-1
501.787	1	-7
501.958	1	11
502.128	1	9
502.298	1	9
502.468	1	4
502.638	1	4
502.809	1	-11
502.979	1	3
503.149	1	-5
503.319	1	-1
503.489	1	-19
503.660	1	0
503.830	1	3
504.000	1	-4
504.170	1	2
504.340	1	-11
504.511	1	-1
504.681	1	-4
504.851	1	-4
505.021	1	4
505.192	1	-3
505.362	1	0
505.532	1	-3
505.702	1	8
505.872	1	3
506.043	1	8
506.213	1	6
506.383	1	3
506.553	1	-9
506.723	1	-17
506.893	1	-4
507.064	1	8
507.234	1	-6
507.404	1	-4
507.574	1	0
507.744	1	2
507.915	1	6
508.085	1	-5
508.255	1	-5
508.425	1	2
508.595	1	-9
508.766	1	-5
508.936	1	4
509.106	1	-3
509.276	1	1
509.446	1	-12
509.616	1	-8
509.787	1	-3
509.957	1	3
510.127	1	-2
510.297	1	-10
510.467	1	-7
510.638	1	1
510.808	1	12
510.978	1	-13
511.148	1	-2
511.318	1	2
511.488	1	13
511.659	1	3
511.829	1	-1
511.999	1	2
512.169	1	2
512.339	1	0
512.509	1	-14
512.680	1	-4
512.850	1	1
513.020	1	9
513.190	1	-8
513.360	1	7
513.530	1	-4
513.700	1	-1
513.871	1	-3
514.041	1	0
514.211	1	2
514.381	1	8
514.551	1	-6
514.721	1	-3
514.892	1	-10
515.062	1	6
515.232	1	-9
515.402	1	-6
515.572	1	2
515.742	1	6
515.912	1	-3
516.083	1	0
516.253	1	6
516.423	1	-5
516.593	1	7
516.763	1	3
516.933	1	5
517.104	1	7
517.274	1	-10
517.444	1	-2
517.614	1	-6
517.784	1	4
517.954	1	1
518.124	1	4
518.294	1	-5
518.465	1	-1
518.635	1	5
518.805	1	7
518.975	1	0
519.145	1	-1
519.315	1	-7
519.485	1	-4
519.656	1	-4
519.826	1	-3
519.996	1	1
520.166	1	2
520.336	1	-3
520.506	1	-7
520.676	1	6
520.846	1	-3
521.017	1	-2
521.187	1	1
521.357	1	-3
521.527	1	2
521.697	1	-1
521.867	1	11
522.037	1	-4
522.207	1	8
522.377	1	8
522.548	1	-12
522.718	1	-6
522.888	1	-2
523.058	1	0
523.228	1	-8
523.398	1	-1
523.568	1	-9
523.738	1	-1
523.909	1	-14
524.079	1	5
524.249	1	-7
524.419	1	5
524.589	1	0
524.759	1	3
524.929	1	0
525.099	1	1
525.269	1	4
525.439	1	-1
525.610	1	10
525.780	1	2
525.950	1	1
526.120	1	-9
526.290	1	-4
526.460	1	-5
526.630	1	4
526.800	1	-8
526.970	1	3
527.140	1	0
527.311	1	-4
527.481	1	1
527.651	1	-2
527.821	1	-2
527.991	1	-7
528.161	1	4
528.331	1	-16
528.501	1	1
528.671	1	0
528.841	1	1
529.011	1	5
529.181	1	-2
529.352	1	3
529.522	1	-3
529.692	1	-3
529.862	1	-3
530.032	1	-14
530.202	1	-8
530.372	1	-1
530.542	1	-1
530.712	1	1
530.882	1	5
531.052	1	4
531.222	1	-2
531.392	1	-6
531.563	1	4
531.733	1	-3
531.903	1	-3
532.073	1	-1
532.243	1	1
532.413	1	15
532.583	1	-3
532.753	1	-5
532.923	1	-3
533.093	1	-11
533.263	1	0
533.433	1	-6
533.603	1	-2
533.773	1	-1
533.943	1	10
534.113	1	1
534.284	1	0
534.454	1	-3
534.624	1	-3
534.794	1	-9
534.964	1	-7
535.134	1	-2
535.304	1	4
535.474	1	6
535.644	1	1
535.814	1	-6
535.984	1	-1
536.154	1	-3
536.324	1	-5
536.494	1	1
536.664	1	-7
536.834	1	0
537.004	1	-2
537.174	1	8
537.344	1	1
537.514	1	0
537.685	1	10
537.855	1	-1
538.025	1	9
538.195	1	2
538.365	1	-6
538.535	1	-5
538.705	1	-5
538.875	1	1
539.045	1	1
539.215	1	-6
539.385	1	-5
539.555	1	-9
539.725	1	3
539.895	1	6
540.065	1	-7
540.235	1	-1
540.405	1	-9
540.575	1	1
540.745	1	1
540.915	1	3
541.085	1	-11
541.255	1	-4
541.425	1	-5
541.595	1	-1
541.765	1	5
541.935	1	-5
542.105	1	5
542.275	1	2
542.445	1	0
542.615	1	-3
542.785	1	2
542.955	1	8
543.125	1	-2
543.295	1	5
543.465	1	4
543.635	1	-11
543.805	1	-7
543.975	1	-3
544.145	1	-1
544.315	1	-10
544.485	1	-11
544.655	1	3
544.825	1	3
544.995	1	3
545.165	1	-3
545.335	1	-1
545.505	1	-8
545.675	1	7
545.845	1	7
546.015	1	-1
546.185	1	-4
546.355	1	8
546.525	1	-1
546.695	1	-4
546.865	1	5
547.035	1	-4
547.205	1	12
547.375	1	2
547.545	1	0
547.715	1	-3
547.885	1	0
548.055	1	-9
548.225	1	0
548.395	1	-2
548.565	1	5
548.735	1	-7
548.905	1	-2
549.075	1	-4
549.245	1	-3
549.415	1	-2
549.585	1	-5
549.755	1	0
549.925	1	-6
550.095	1	-6
550.265	1	9
550.435	1	6
550.605	1	0
550.775	1	-8
550.945	1	-1
551.115	1	2
551.285	1	-2
551.455	1	0
551.625	1	-7
551.795	1	10
551.965	1	-2
552.135	1	-7
552.305	1	-4
552.475	1	-3
552.645	1	1
552.815	1	-1
552.985	1	-4
553.155	1	-6
553.325	1	1
553.495	1	-6
553.665	1	-4
553.835	1	0
554.004	1	5
554.174	1	-3
554.344	1	1
554.514	1	-6
554.684	1	2
554.854	1	-6
555.024	1	12
555.194	1	2
555.364	1	1
555.534	1	-16
555.704	1	2
555.874	1	-3
556.044	1	2
556.214	1	6
556.384	1	5
556.554	1	-1
556.724	1	-10
556.894	1	-7
557.064	1	3
557.234	1	0
557.404	1	-1
557.573	1	5
557.743	1	-7
557.913	1	2
558.083	1	7
558.253	1	-4
558.423	1	-2
558.593	1	-1
558.763	1	-3
558.933	1	-6
559.103	1	-7
559.273	1	0
559.443	1	7
559.613	1	1
559.783	1	4
559.953	1	-9
560.122	1	5
560.292	1	-13
560.462	1	-7
560.632	1	-5
560.802	1	10
560.972	1	-11
561.142	1	4
561.312	1	-6
561.482	1	4
561.652	1	-7
561.822	1	-5
561.992	1	0
562.162	1	-4
562.331	1	-7
562.501	1	2
562.671	1	5
562.841	1	-13
563.011	1	7
563.181	1	-1
563.351	1	-9
563.521	1	-8
563.691	1	5
563.861	1	5
564.031	1	-3
564.201	1	-3
564.370	1	11
564.540	1	3
564.710	1	-8
564.880	1	-4
565.050	1	0
565.220	1	3
565.390	1	-1
565.560	1	5
565.730	1	-2
565.900	1	0
566.069	1	7
566.239	1	13
566.409	1	6
566.579	1	6
566.749	1	1
566.919	1	-5
567.089	1	-13
567.259	1	3
567.429	1	-9
567.599	1	3
567.768	1	-8
567.938	1	0
568.108	1	-8
568.278	1	-2
568.448	1	-3
568.618	1	2
568.788	1	0
568.958	1	-3
569.128	1	-10
569.297	1	-2
569.467	1	9
569.637	1	10
569.807	1	-2
569.977	1	-1
570.147	1	-2
570.317	1	-6
570.487	1	-12
570.656	1	1
570.826	1	-6
570.996	1	2
571.166	1	-1
571.336	1	-4
571.506	1	-11
571.676	1	-3
571.846	1	3
572.015	1	4
572.185	1	5
572.355	1	-7
572.525	1	-5
572.695	1	-2
572.865	1	5
573.035	1	-1
573.205	1	-3
573.374	1	-6
573.544	1	-6
573.714	1	-3
573.884	1	-3
574.054	1	4
574.224	1	-5
574.394	1	-1
574.563	1	-10
574.733	1	1
574.903	1	-6
575.073	1	1
575.243	1	-11
575.413	1	-4
575.583	1	-5
575.752	1	-10
575.922	1	3
576.092	1	-3
576.262	1	5
576.432	1	-3
576.602	1	-1
576.772	1	2
576.941	1	-8
577.111	1	-1
577.281	1	4
577.451	1	1
577.621	1	-3
577.791	1	-3
577.960	1	-6
578.130	1	2
578.300	1	1
578.470	1	6
578.640	1	0
578.810	1	-2
578.979	1	0
579.149	1	-7
579.319	1	-6
579.489	1	12
579.659	1	-5
579.829	1	5
579.998	1	-16
580.168	1	-1
580.338	1	4
580.508	1	-8
580.678	1	2
580.848	1	-4
581.017	1	0
581.187	1	1
581.357	1	4
581.527	1	8
581.697	1	2
581.867	1	0
582.036	1	-4
582.206	1	0
582.376	1	6
582.546	1	-10
582.716	1	2
582.885	1	-7
583.055	1	-7
583.225	1	-2
583.395	1	9
583.565	1	12
583.735	1	-5
583.904	1	-6
584.074	1	-2
584.244	1	-8
584.414	1	-6
584.584	1	2
584.753	1	1
584.923	1	-9
585.093	1	3
585.263	1	3
585.433	1	-4
585.602	1	3
585.772	1	4
585.942	1	-10
586.112	1	4
586.282	1	1
586.451	1	3
586.621	1	-6
586.791	1	-12
586.961	1	-2
587.131	1	-7
587.300	1	13
587.470	1	-5
587.640	1	-7
587.810	1	-11
587.980	1	4
588.149	1	4
588.319	1	5
588.489	1	-2
588.659	1	-5
588.829	1	-5
588.998	1	-5
589.168	1	-2
589.338	1	-2
589.508	1	-1
589.677	1	1
589.847	1	8
590.017	1	-8
590.187	1	0
590.357	1	-9
590.526	1	-11
590.696	1	-2
590.866	1	-7
591.036	1	-5
591.205	1	2
591.375	1	1
591.545	1	-4
591.715	1	-10
591.885	1	7
592.054	1	5
592.224	1	-2
592.394	1	-11
592.564	1	-1
592.733	1	-1
592.903	1	0
593.073	1	-7
593.243	1	10
593.412	1	-7
593.582	1	-3
593.752	1	-11
593.922	1	-3
594.091	1	0
594.261	1	-11
594.431	1	1
594.601	1	0
594.771	1	-5
594.940	1	-7
595.110	1	4
595.280	1	-5
595.450	1	0
595.619	1	-2
595.789	1	-4
595.959	1	-7
596.129	1	-4
596.298	1	5
596.468	1	6
596.638	1	-6
596.808	1	-9
596.977	1	-7
597.147	1	-2
597.317	1	6
597.487	1	-3
597.656	1	7
597.826	1	-1
597.996	1	-7
598.166	1	-2
598.335	1	-4
598.505	1	-2
598.675	1	-5
598.844	1	7
599.014	1	-18
599.184	1	-6
599.354	1	0
599.523	1	-8
599.693	1	2
599.863	1	12
600.033	1	1
600.202	1	-1
600.372	1	-2
600.542	1	-5
600.712	1	-1
600.881	1	0
601.051	1	6
601.221	1	1
601.390	1	-1
601.560	1	0
601.730	1	-4
601.900	1	2
602.069	1	-3
602.239	1	-1
602.409	1	4
602.578	1	5
602.748	1	2
602.918	1	-12
603.088	1	-2
603.257	1	-17
603.427	1	6
603.597	1	-6
603.767	1	-3
603.936	1	-1
604.106	1	-4
604.276	1	0
604.445	1	-6
604.615	1	-7
604.785	1	1
604.954	1	-3
605.124	1	6
605.294	1	-2
605.464	1	-11
605.633	1	-1
605.803	1	2
605.973	1	0
606.142	1	-5
606.312	1	4
606.482	1	2
606.652	1	-7
606.821	1	-8
606.991	1	3
607.161	1	-7
607.330	1	0
607.500	1	6
607.670	1	-5
607.839	1	-12
608.009	1	-7
608.179	1	2
608.348	1	4
608.518	1	7
608.688	1	-14
608.858	1	-5
609.027	1	-2
609.197	1	1
609.367	1	-10
609.536	1	-8
609.706	1	1
609.876	1	5
610.045	1	-1
610.215	1	-3
610.385	1	-3
610.554	1	-2
610.724	1	-11
610.894	1	-2
611.063	1	-1
611.233	1	-4
611.403	1	6
611.572	1	4
611.742	1	-1
611.912	1	4
612.081	1	6
612.251	1	2
612.421	1	1
612.590	1	-2
612.760	1	-1
612.930	1	10
613.099	1	-4
613.269	1	-2
613.439	1	-9
613.608	1	0
613.778	1	3
613.948	1	2
614.117	1	-5
614.287	1	-2
614.457	1	-1
614.626	1	-5
614.796	1	7
614.966	1	-3
615.135	1	10
615.305	1	-8
615.475	1	-4
615.644	1	7
615.814	1	10
615.984	1	-5
616.153	1	1
616.323	1	-4
616.493	1	-7
616.662	1	-5
616.832	1	7
617.002	1	0
617.171	1	1
617.341	1	0
617.511	1	-5
617.680	1	-5
617.850	1	5
618.019	1	-6
618.189	1	6
618.359	1	-1
618.528	1	1
618.698	1	-3
618.868	1	-3
619.037	1	6
619.207	1	-4
619.377	1	-1
619.546	1	1
619.716	1	-7
619.885	1	-1
620.055	1	-5
620.225	1	2
620.394	1	-3
620.564	1	7
620.734	1	-2
620.903	1	-14
621.073	1	9
621.242	1	-9
621.412	1	0
621.582	1	6
621.751	1	-7
621.921	1	-10
622.091	1	1
622.260	1	9
622.430	1	4
622.599	1	-8
622.769	1	-7
622.939	1	-4
623.108	1	-1
623.278	1	-4
623.448	1	-6
623.617	1	2
623.787	1	-4
623.956	1	7
624.126	1	4
624.296	1	6
624.465	1	-4
624.635	1	-1
624.804	1	-8
624.974	1	-5
625.144	1	-4
625.313	1	5
625.483	1	2
625.652	1	-1
625.822	1	5
625.992	1	-11
626.161	1	-2
626.331	1	-7
626.501	1	0
626.670	1	-4
626.840	1	0
627.009	1	3
627.179	1	5
627.348	1	-1
627.518	1	8
627.688	1	1
627.857	1	7
628.027	1	2
628.196	1	6
628.366	1	-13
628.536	1	-8
628.705	1	-10
628.875	1	-3
629.044	1	-5
629.214	1	7
629.384	1	6
629.553	1	5
629.723	1	5
629.892	1	3
630.062	1	-8
630.232	1	1
630.401	1	-1
630.571	1	-5
630.740	1	-1
630.910	1	5
631.079	1	-8
631.249	1	-14
631.419	1	3
631.588	1	11
631.758	1	-7
631.927	1	9
632.097	1	-6
632.266	1	5
632.436	1	1
632.606	1	-7
632.775	1	-2
632.945	1	1
633.114	1	2
633.284	1	1
633.453	1	-1
633.623	1	6
633.793	1	-1
633.962	1	2
634.132	1	-1
634.301	1	6
634.471	1	3
634.640	1	-11
634.810	1	4
634.979	1	1
635.149	1	0
635.319	1	-3
635.488	1	-3
635.658	1	-6
635.827	1	0
635.997	1	10
636.166	1	-4
636.336	1	-7
636.505	1	12
636.675	1	3
636.845	1	-8
637.014	1	-8
637.184	1	5
637.353	1	-7
637.523	1	-6
637.692	1	-3
637.862	1	-4
638.031	1	-3
638.201	1	-3
638.370	1	2
638.540	1	-6
638.710	1	-3
638.879	1	-7
639.049	1	-3
639.218	1	6
639.388	1	-3
639.557	1	-3
639.727	1	-3
639.896	1	3
640.066	1	1
640.235	1	-5
640.405	1	0
640.574	1	8
640.744	1	0
640.914	1	-10
641.083	1	4
641.253	1	-1
641.422	1	-12
641.592	1	6
641.761	1	-4
641.931	1	2
642.100	1	-5
642.270	1	-3
642.439	1	2
642.609	1	6
642.778	1	-6
642.948	1	8
643.117	1	2
643.287	1	6
643.456	1	-8
643.626	1	-5
643.795	1	-1
643.965	1	-2
644.134	1	-4
644.304	1	-3
644.473	1	3
644.643	1	1
644.812	1	-9
644.982	1	6
645.151	1	-7
645.321	1	5
645.490	1	1
645.660	1	-4
645.829	1	-12
645.999	1	-2
646.168	1	20
646.338	1	-1
646.507	1	-6
646.677	1	-6
646.846	1	1
647.016	1	5
647.185	1	4
647.355	1	3
647.524	1	-4
647.694	1	-9
647.863	1	-6
648.033	1	1
648.202	1	1
648.372	1	-7
648.541	1	1
648.711	1	1
648.880	1	2
649.050	1	-7
649.219	1	-2
649.389	1	-17
649.558	1	1
649.728	1	-6
649.897	1	-6
650.067	1	6
650.236	1	-5
650.406	1	-4
650.575	1	-2
650.745	1	0
650.914	1	3
651.084	1	3
651.253	1	-4
651.423	1	-2
651.592	1	-4
651.762	1	-4
651.931	1	-1
652.101	1	-11
652.270	1	-4
652.440	1	3
652.609	1	5
652.778	1	-5
652.948	1	-3
653.117	1	-4
653.287	1	-12
653.456	1	-2
653.626	1	-2
653.795	1	3
653.965	1	1
654.134	1	-11
654.304	1	4
654.473	1	1
654.643	1	-2
654.812	1	2
654.982	1	-4
655.151	1	-3
655.320	1	-2
655.490	1	-6
655.659	1	-6
655.829	1	12
655.998	1	-1
656.168	1	-9
656.337	1	-3
656.507	1	6
656.676	1	-7
656.846	1	-1
657.015	1	4
657.184	1	-3
657.354	1	-8
657.523	1	-5
657.693	1	-1
657.862	1	-6
658.032	1	-3
658.201	1	-12
658.371	1	-2
658.540	1	-9
658.709	1	2
658.879	1	0
659.048	1	5
659.218	1	-7
659.387	1	1
659.557	1	-9
659.726	1	-5
659.895	1	-4
660.065	1	-7
660.234	1	-6
660.404	1	8
660.573	1	-1
660.743	1	0
660.912	1	0
661.081	1	-9
661.251	1	-5
661.420	1	9
661.590	1	-18
661.759	1	-7
661.929	1	-4
662.098	1	-4
662.267	1	-12
662.437	1	11
662.606	1	-1
662.776	1	-5
662.945	1	2
663.115	1	9
663.284	1	1
663.453	1	-11
663.623	1	-6
663.792	1	5
663.962	1	-3
664.131	1	-3
664.300	1	3
664.470	1	-8
664.639	1	0
664.809	1	-10
664.978	1	4
665.148	1	-4
665.317	1	1
665.486	1	-3
665.656	1	3
665.825	1	-3
665.995	1	-9
666.164	1	-4
666.333	1	5
666.503	1	-9
666.672	1	-4
666.842	1	-3
667.011	1	-2
667.180	1	-4
667.350	1	-4
667.519	1	-1
667.689	1	-1
667.858	1	5
668.027	1	-4
668.197	1	-17
668.366	1	4
668.536	1	-5
668.705	1	-5
668.874	1	7
669.044	1	6
669.213	1	1
669.382	1	9
669.552	1	-3
669.721	1	-8
669.891	1	-3
670.060	1	3
670.229	1	1
670.399	1	0
670.568	1	-1
670.738	1	-4
670.907	1	13
671.076	1	-2
671.246	1	7
671.415	1	10
671.584	1	-4
671.754	1	-13
671.923	1	-9
672.093	1	9
672.262	1	-10
672.431	1	5
672.601	1	1
672.770	1	0
672.939	1	-3
673.109	1	-8
673.278	1	-3
673.448	1	0
673.617	1	-6
673.786	1	-9
