325.333	1	6
325.504	1	0
325.675	1	9
325.846	1	4
326.017	1	2
326.188	1	1
326.359	1	7
326.531	1	-1
326.702	1	4
326.873	1	8
327.044	1	8
327.215	1	-2
327.386	1	-2
327.557	1	0
327.728	1	3
327.899	1	-7
328.070	1	8
328.241	1	0
328.412	1	2
328.583	1	8
328.754	1	3
328.926	1	13
329.097	1	-4
329.268	1	9
329.439	1	7
329.610	1	0
329.781	1	8
329.952	1	0
330.123	1	-4
330.294	1	4
330.465	1	-3
330.636	1	10
330.807	1	11
330.978	1	-2
331.149	1	3
331.320	1	4
331.492	1	1
331.663	1	0
331.834	1	12
332.005	1	-1
332.176	1	5
332.347	1	3
332.518	1	6
332.689	1	2
332.860	1	6
333.031	1	3
333.202	1	-6
333.373	1	7
333.544	1	1
333.715	1	1
333.886	1	0
334.057	1	-5
334.228	1	11
334.399	1	-1
334.570	1	3
334.741	1	2
334.912	1	0
335.084	1	11
335.255	1	11
335.426	1	4
335.597	1	-2
335.768	1	5
335.939	1	11
336.110	1	4
336.281	1	-8
336.452	1	19
336.623	1	-1
336.794	1	1
336.965	1	-5
337.136	1	12
337.307	1	-6
337.478	1	-4
337.649	1	-3
337.820	1	14
337.991	1	-3
338.162	1	-3
338.333	1	3
338.504	1	6
338.675	1	-2
338.846	1	-5
339.017	1	12
339.188	1	1
339.359	1	11
339.530	1	5
339.701	1	16
339.872	1	21
340.043	1	4
340.214	1	7
340.385	1	2
340.556	1	7
340.727	1	6
340.898	1	3
341.069	1	-2
341.240	1	0
341.411	1	3
341.582	1	1
341.753	1	-1
341.924	1	13
342.095	1	8
342.266	1	15
342.437	1	5
342.608	1	13
342.779	1	-2
342.950	1	1
343.121	1	1
343.292	1	1
343.463	1	8
343.634	1	3
343.805	1	10
343.976	1	16
344.147	1	9
344.318	1	-1
344.489	1	1
344.660	1	6
344.831	1	11
345.002	1	5
345.173	1	14
345.344	1	5
345.515	1	3
345.686	1	14
345.857	1	16
346.028	1	6
346.199	1	13
346.370	1	6
346.541	1	-1
346.712	1	3
346.883	1	0
347.054	1	15
347.225	1	-1
347.396	1	3
347.567	1	-3
347.738	1	4
347.909	1	0
348.080	1	2
348.251	1	7
348.422	1	9
348.593	1	3
348.764	1	8
348.935	1	5
349.106	1	2
349.277	1	5
349.448	1	3
349.619	1	7
349.790	1	5
349.961	1	2
350.132	1	12
350.303	1	8
350.474	1	11
350.645	1	8
350.816	1	9
350.987	1	16
351.157	1	7
351.328	1	3
351.499	1	5
351.670	1	6
351.841	1	22
352.012	1	10
352.183	1	16
352.354	1	8
352.525	1	18
352.696	1	-2
352.867	1	13
353.038	1	14
353.209	1	5
353.380	1	17
353.551	1	8
353.722	1	6
353.893	1	9
354.064	1	4
354.235	1	-2
354.406	1	4
354.576	1	9
354.747	1	12
354.918	1	1
355.089	1	8
355.260	1	5
355.431	1	3
355.602	1	9
355.773	1	5
355.944	1	6
356.115	1	19
356.286	1	22
356.457	1	3
356.628	1	6
356.799	1	10
356.970	1	19
357.141	1	16
357.311	1	17
357.482	1	3
357.653	1	2
357.824	1	20
357.995	1	19
358.166	1	1
358.337	1	5
358.508	1	12
358.679	1	-3
358.850	1	12
359.021	1	13
359.192	1	14
359.363	1	5
359.533	1	10
359.704	1	-1
359.875	1	2
360.046	1	9
360.217	1	9
360.388	1	6
360.559	1	14
360.730	1	8
360.901	1	6
361.072	1	17
361.243	1	9
361.414	1	18
361.584	1	7
361.755	1	7
361.926	1	9
362.097	1	12
362.268	1	17
362.439	1	4
362.610	1	19
362.781	1	12
362.952	1	10
363.123	1	1
363.293	1	9
363.464	1	4
363.635	1	7
363.806	1	10
363.977	1	7
364.148	1	12
364.319	1	13
364.490	1	16
364.661	1	21
364.832	1	3
365.002	1	17
365.173	1	16
365.344	1	3
365.515	1	14
365.686	1	12
365.857	1	15
366.028	1	9
366.199	1	13
366.370	1	16
366.540	1	0
366.711	1	16
366.882	1	6
367.053	1	16
367.224	1	15
367.395	1	4
367.566	1	12
367.737	1	7
367.908	1	10
368.078	1	9
368.249	1	18
368.420	1	18
368.591	1	13
368.762	1	5
368.933	1	0
369.104	1	17
369.274	1	14
369.445	1	13
369.616	1	7
369.787	1	13
369.958	1	15
370.129	1	17
370.300	1	0
370.471	1	6
370.641	1	5
370.812	1	20
370.983	1	8
371.154	1	7
371.325	1	11
371.496	1	9
371.667	1	25
371.837	1	12
372.008	1	7
372.179	1	9
372.350	1	9
372.521	1	14
372.692	1	13
372.863	1	0
373.033	1	5
373.204	1	16
373.375	1	16
373.546	1	11
373.717	1	11
373.888	1	5
374.059	1	3
374.229	1	15
374.400	1	11
374.571	1	5
374.742	1	5
374.913	1	1
375.084	1	5
375.254	1	-4
375.425	1	13
375.596	1	8
375.767	1	17
375.938	1	-4
376.109	1	13
376.279	1	2
376.450	1	16
376.621	1	16
376.792	1	8
376.963	1	9
377.134	1	12
377.304	1	19
377.475	1	6
377.646	1	3
377.817	1	17
377.988	1	9
378.159	1	22
378.329	1	6
378.500	1	25
378.671	1	15
378.842	1	15
379.013	1	15
379.184	1	15
379.354	1	6
379.525	1	21
379.696	1	16
379.867	1	21
380.038	1	7
380.209	1	16
380.379	1	13
380.550	1	1
380.721	1	8
380.892	1	6
381.063	1	14
381.233	1	7
381.404	1	12
381.575	1	8
381.746	1	26
381.917	1	6
382.087	1	21
382.258	1	6
382.429	1	11
382.600	1	4
382.771	1	11
382.941	1	20
383.112	1	11
383.283	1	20
383.454	1	7
383.625	1	16
383.795	1	13
383.966	1	13
384.137	1	22
384.308	1	7
384.479	1	9
384.649	1	11
384.820	1	19
384.991	1	20
385.162	1	15
385.333	1	12
385.503	1	6
385.674	1	22
385.845	1	19
386.016	1	16
386.187	1	13
386.357	1	28
386.528	1	13
386.699	1	17
386.870	1	8
387.041	1	20
387.211	1	8
387.382	1	25
387.553	1	22
387.724	1	5
387.894	1	10
388.065	1	5
388.236	1	16
388.407	1	13
388.578	1	17
388.748	1	23
388.919	1	10
389.090	1	29
389.261	1	17
389.431	1	9
389.602	1	15
389.773	1	10
389.944	1	12
390.114	1	10
390.285	1	25
390.456	1	17
390.627	1	17
390.798	1	9
390.968	1	18
391.139	1	20
391.310	1	19
391.481	1	15
391.651	1	23
391.822	1	17
391.993	1	15
392.164	1	12
392.334	1	11
392.505	1	19
392.676	1	2
392.847	1	11
393.017	1	12
393.188	1	19
393.359	1	21
393.530	1	23
393.700	1	9
393.871	1	28
394.042	1	5
394.213	1	13
394.383	1	16
394.554	1	11
394.725	1	7
394.896	1	26
395.066	1	11
395.237	1	17
395.408	1	15
395.579	1	11
395.749	1	21
395.920	1	17
396.091	1	13
396.262	1	9
396.432	1	11
396.603	1	19
396.774	1	16
396.945	1	16
397.115	1	19
397.286	1	17
397.457	1	11
397.627	1	3
397.798	1	21
397.969	1	17
398.140	1	14
398.310	1	18
398.481	1	8
398.652	1	19
398.823	1	8
398.993	1	14
399.164	1	17
399.335	1	6
399.505	1	13
399.676	1	10
399.847	1	25
400.018	1	9
400.188	1	22
400.359	1	29
400.530	1	15
400.700	1	10
400.871	1	31
401.042	1	21
401.213	1	25
401.383	1	16
401.554	1	19
401.725	1	20
401.895	1	5
402.066	1	20
402.237	1	9
402.408	1	15
402.578	1	15
402.749	1	11
402.920	1	24
403.090	1	14
403.261	1	4
403.432	1	24
403.603	1	23
403.773	1	28
403.944	1	18
404.115	1	16
404.285	1	18
404.456	1	25
404.627	1	24
404.797	1	19
404.968	1	7
405.139	1	23
405.310	1	16
405.480	1	7
405.651	1	9
405.822	1	13
405.992	1	23
406.163	1	15
406.334	1	21
406.504	1	24
406.675	1	8
406.846	1	10
407.016	1	33
407.187	1	22
407.358	1	1
407.528	1	25
407.699	1	17
407.870	1	29
408.041	1	17
408.211	1	21
408.382	1	34
408.553	1	18
408.723	1	25
408.894	1	29
409.065	1	24
409.235	1	18
409.406	1	18
409.577	1	24
409.747	1	20
409.918	1	21
410.089	1	35
410.259	1	11
410.430	1	20
410.601	1	31
410.771	1	24
410.942	1	19
411.113	1	35
411.283	1	18
411.454	1	28
411.625	1	29
411.795	1	32
411.966	1	14
412.137	1	26
412.307	1	17
412.478	1	22
412.649	1	14
412.819	1	25
412.990	1	28
413.161	1	15
413.331	1	15
413.502	1	19
413.672	1	19
413.843	1	18
414.014	1	13
414.184	1	29
414.355	1	27
414.526	1	16
414.696	1	7
414.867	1	12
415.038	1	15
415.208	1	5
415.379	1	17
415.550	1	21
415.720	1	11
415.891	1	24
416.062	1	26
416.232	1	22
416.403	1	22
416.573	1	1
416.744	1	20
416.915	1	20
417.085	1	17
417.256	1	13
417.427	1	15
417.597	1	14
417.768	1	9
417.939	1	16
418.109	1	9
418.280	1	17
418.450	1	20
418.621	1	15
418.792	1	12
418.962	1	19
419.133	1	21
419.304	1	13
419.474	1	19
419.645	1	22
419.815	1	16
419.986	1	27
420.157	1	21
420.327	1	9
420.498	1	8
420.669	1	28
420.839	1	18
421.010	1	22
421.180	1	20
421.351	1	21
421.522	1	19
421.692	1	28
421.863	1	16
422.033	1	20
422.204	1	26
422.375	1	21
422.545	1	21
422.716	1	-2
422.886	1	17
423.057	1	19
423.228	1	12
423.398	1	22
423.569	1	14
423.740	1	12
423.910	1	18
424.081	1	24
424.251	1	10
424.422	1	16
424.593	1	27
424.763	1	28
424.934	1	29
425.104	1	34
425.275	1	10
425.445	1	26
425.616	1	22
425.787	1	9
425.957	1	13
426.128	1	6
426.298	1	21
426.469	1	14
426.640	1	9
426.810	1	8
426.981	1	34
427.151	1	23
427.322	1	13
427.493	1	27
427.663	1	13
427.834	1	14
428.004	1	35
428.175	1	18
428.345	1	10
428.516	1	29
428.687	1	30
428.857	1	29
429.028	1	18
429.198	1	17
429.369	1	20
429.540	1	14
429.710	1	12
429.881	1	8
430.051	1	16
430.222	1	24
430.392	1	23
430.563	1	5
430.734	1	14
430.904	1	15
431.075	1	22
431.245	1	13
431.416	1	13
431.586	1	10
431.757	1	22
431.927	1	21
432.098	1	16
432.269	1	10
432.439	1	10
432.610	1	20
432.780	1	6
432.951	1	3
433.121	1	12
433.292	1	20
433.462	1	24
433.633	1	6
433.804	1	20
433.974	1	30
434.145	1	8
434.315	1	16
434.486	1	3
434.656	1	12
434.827	1	17
434.997	1	21
435.168	1	17
435.339	1	22
435.509	1	13
435.680	1	21
435.850	1	5
436.021	1	10
436.191	1	7
436.362	1	15
436.532	1	19
436.703	1	14
436.873	1	15
437.044	1	22
437.214	1	17
437.385	1	6
437.556	1	17
437.726	1	12
437.897	1	18
438.067	1	14
438.238	1	17
438.408	1	14
438.579	1	2
438.749	1	11
438.920	1	27
439.090	1	11
439.261	1	19
439.431	1	5
439.602	1	15
439.772	1	15
439.943	1	10
440.113	1	13
440.284	1	16
440.455	1	19
440.625	1	21
440.796	1	14
440.966	1	13
441.137	1	18
441.307	1	21
441.478	1	13
441.648	1	10
441.819	1	13
441.989	1	22
442.160	1	12
442.330	1	11
442.501	1	14
442.671	1	13
442.842	1	12
443.012	1	16
443.183	1	9
443.353	1	15
443.524	1	7
443.694	1	22
443.865	1	26
444.035	1	15
444.206	1	15
444.376	1	9
444.547	1	17
444.717	1	10
444.888	1	5
445.058	1	13
445.229	1	16
445.399	1	20
445.570	1	11
445.740	1	13
445.911	1	11
446.081	1	6
446.252	1	12
446.422	1	12
446.593	1	16
446.763	1	10
446.934	1	7
447.104	1	21
447.275	1	12
447.445	1	15
447.616	1	22
447.786	1	14
447.957	1	13
448.127	1	20
448.298	1	11
448.468	1	11
448.639	1	8
448.809	1	2
448.979	1	19
449.150	1	19
449.320	1	16
449.491	1	11
449.661	1	3
449.832	1	5
450.002	1	12
450.173	1	14
450.343	1	15
450.514	1	19
450.684	1	20
450.855	1	21
451.025	1	-2
451.196	1	10
451.366	1	27
451.537	1	15
451.707	1	14
451.878	1	5
452.048	1	3
452.218	1	13
452.389	1	19
452.559	1	26
452.730	1	16
452.900	1	12
453.071	1	21
453.241	1	15
453.412	1	7
453.582	1	16
453.753	1	12
453.923	1	5
454.093	1	11
454.264	1	19
454.434	1	8
454.605	1	3
454.775	1	13
454.946	1	10
455.116	1	19
455.287	1	9
455.457	1	16
455.628	1	6
455.798	1	21
455.968	1	11
456.139	1	20
456.309	1	15
456.480	1	10
456.650	1	16
456.821	1	7
456.991	1	16
457.161	1	18
457.332	1	5
457.502	1	6
457.673	1	9
457.843	1	17
458.014	1	16
458.184	1	17
458.355	1	13
458.525	1	9
458.695	1	14
458.866	1	3
459.036	1	7
459.207	1	10
459.377	1	12
459.548	1	15
459.718	1	8
459.888	1	2
460.059	1	9
460.229	1	1
460.400	1	14
460.570	1	6
460.740	1	9
460.911	1	8
461.081	1	11
461.252	1	12
461.422	1	5
461.593	1	20
461.763	1	16
461.933	1	10
462.104	1	11
462.274	1	8
462.445	1	14
462.615	1	20
462.785	1	13
462.956	1	2
463.126	1	15
463.297	1	17
463.467	1	17
463.638	1	14
463.808	1	12
463.978	1	5
464.149	1	10
464.319	1	10
464.490	1	10
464.660	1	0
464.830	1	12
465.001	1	10
465.171	1	9
465.342	1	5
465.512	1	13
465.682	1	-1
465.853	1	9
466.023	1	11
466.194	1	8
466.364	1	13
466.534	1	-1
466.705	1	18
466.875	1	0
467.045	1	1
467.216	1	7
467.386	1	4
467.557	1	23
467.727	1	0
467.897	1	2
468.068	1	5
468.238	1	9
468.409	1	13
468.579	1	11
468.749	1	12
468.920	1	1
469.090	1	17
469.260	1	4
469.431	1	7
469.601	1	12
469.772	1	17
469.942	1	14
470.112	1	-2
470.283	1	11
470.453	1	19
470.623	1	13
470.794	1	16
470.964	1	-9
471.135	1	18
471.305	1	12
471.475	1	4
471.646	1	21
471.816	1	15
471.986	1	11
472.157	1	4
472.327	1	9
472.497	1	9
472.668	1	11
472.838	1	8
473.009	1	8
473.179	1	-4
473.349	1	0
473.520	1	12
473.690	1	6
473.860	1	-3
474.031	1	-3
474.201	1	10
474.371	1	6
474.542	1	-5
474.712	1	11
474.882	1	15
475.053	1	11
475.223	1	13
475.394	1	13
475.564	1	2
475.734	1	4
475.905	1	9
476.075	1	18
476.245	1	12
476.416	1	-4
476.586	1	7
476.756	1	17
476.927	1	7
477.097	1	6
477.267	1	1
477.438	1	19
477.608	1	17
477.778	1	9
477.949	1	1
478.119	1	22
478.289	1	-2
478.460	1	0
478.630	1	-3
478.800	1	1
478.971	1	8
479.141	1	14
479.311	1	14
479.482	1	0
479.652	1	1
479.822	1	0
479.993	1	2
480.163	1	10
480.333	1	15
480.504	1	5
480.674	1	14
480.844	1	-1
481.015	1	14
481.185	1	25
481.355	1	14
481.525	1	-6
481.696	1	5
481.866	1	8
482.036	1	6
482.207	1	8
482.377	1	13
482.547	1	2
482.718	1	6
482.888	1	20
483.058	1	14
483.229	1	8
483.399	1	13
483.569	1	-8
483.740	1	4
483.910	1	0
484.080	1	13
484.250	1	-6
484.421	1	4
484.591	1	-1
484.761	1	8
484.932	1	5
485.102	1	18
485.272	1	5
485.443	1	14
485.613	1	12
485.783	1	7
485.953	1	4
486.124	1	-2
486.294	1	12
486.464	1	9
486.635	1	-1
486.805	1	7
486.975	1	2
487.146	1	6
487.316	1	12
487.486	1	1
487.656	1	17
487.827	1	13
487.997	1	3
488.167	1	8
488.338	1	5
488.508	1	11
488.678	1	4
488.848	1	9
489.019	1	4
489.189	1	19
489.359	1	-1
489.529	1	6
489.700	1	9
489.870	1	13
490.040	1	6
490.211	1	6
490.381	1	-1
490.551	1	7
490.721	1	6
490.892	1	-5
491.062	1	-2
491.232	1	13
491.402	1	-3
491.573	1	18
491.743	1	-2
491.913	1	6
492.084	1	5
492.254	1	0
492.424	1	1
492.594	1	0
492.765	1	11
492.935	1	17
493.105	1	1
493.275	1	7
493.446	1	-1
493.616	1	-11
493.786	1	12
493.956	1	-4
494.127	1	8
494.297	1	-4
494.467	1	0
494.637	1	6
494.808	1	7
494.978	1	5
495.148	1	2
495.318	1	4
495.489	1	-2
495.659	1	2
495.829	1	-1
495.999	1	11
496.170	1	10
496.340	1	-2
496.510	1	7
496.680	1	9
496.851	1	14
497.021	1	3
497.191	1	14
497.361	1	-9
497.532	1	5
497.702	1	4
497.872	1	6
498.042	1	-5
498.213	1	-3
498.383	1	6
498.553	1	7
498.723	1	10
498.894	1	6
499.064	1	4
499.234	1	9
499.404	1	0
499.574	1	7
499.745	1	1
499.915	1	12
500.085	1	-2
500.255	1	-3
500.426	1	5
500.596	1	1
500.766	1	0
500.936	1	-9
501.106	1	4
501.277	1	-2
501.447	1	9
501.617	1	-4
501.787	1	9
501.958	1	5
502.128	1	0
502.298	1	-2
502.468	1	-3
502.638	1	12
502.809	1	0
502.979	1	14
503.149	1	8
503.319	1	17
503.489	1	-13
503.660	1	-6
503.830	1	10
504.000	1	5
504.170	1	-1
504.340	1	-5
504.511	1	3
504.681	1	4
504.851	1	-1
505.021	1	-2
505.192	1	2
505.362	1	3
505.532	1	-6
505.702	1	14
505.872	1	-4
506.043	1	10
506.213	1	10
506.383	1	14
506.553	1	2
506.723	1	-2
506.893	1	12
507.064	1	13
507.234	1	1
507.404	1	1
507.574	1	-6
507.744	1	7
507.915	1	-3
508.085	1	0
508.255	1	-1
508.425	1	-1
508.595	1	5
508.766	1	5
508.936	1	9
509.106	1	6
509.276	1	-3
509.446	1	-10
509.616	1	0
509.787	1	2
509.957	1	3
510.127	1	-1
510.297	1	-8
510.467	1	5
510.638	1	1
510.808	1	16
510.978	1	2
511.148	1	-7
511.318	1	2
511.488	1	2
511.659	1	8
511.829	1	-5
511.999	1	4
512.169	1	5
512.339	1	7
512.509	1	-6
512.680	1	8
512.850	1	0
513.020	1	5
513.190	1	-4
513.360	1	9
513.530	1	3
513.700	1	2
513.871	1	9
514.041	1	7
514.211	1	3
514.381	1	10
514.551	1	-3
514.721	1	0
514.892	1	-3
515.062	1	3
515.232	1	-8
515.402	1	3
515.572	1	9
515.742	1	9
515.912	1	1
516.083	1	7
516.253	1	5
516.423	1	11
516.593	1	9
516.763	1	6
516.933	1	-1
517.104	1	7
517.274	1	-7
517.444	1	7
517.614	1	2
517.784	1	3
517.954	1	-3
518.124	1	2
518.294	1	4
518.465	1	1
518.635	1	4
518.805	1	6
518.975	1	5
519.145	1	3
519.315	1	5
519.485	1	5
519.656	1	-1
519.826	1	-9
519.996	1	7
520.166	1	1
520.336	1	3
520.506	1	4
520.676	1	-6
520.846	1	4
521.017	1	-1
521.187	1	7
521.357	1	0
521.527	1	0
521.697	1	4
521.867	1	8
522.037	1	1
522.207	1	4
522.377	1	0
522.548	1	-8
522.718	1	2
522.888	1	-5
523.058	1	6
523.228	1	-10
523.398	1	7
523.568	1	-9
523.738	1	9
523.909	1	4
524.079	1	4
524.249	1	0
524.419	1	2
524.589	1	2
524.759	1	5
524.929	1	-2
525.099	1	-5
525.269	1	-2
525.439	1	-1
525.610	1	11
525.780	1	4
525.950	1	-1
526.120	1	-8
526.290	1	-2
526.460	1	-8
526.630	1	-1
526.800	1	-3
526.970	1	0
527.140	1	2
527.311	1	4
527.481	1	4
527.651	1	1
527.821	1	5
527.991	1	7
528.161	1	0
528.331	1	2
528.501	1	7
528.671	1	14
528.841	1	15
529.011	1	2
529.181	1	-5
529.352	1	-2
529.522	1	-1
529.692	1	3
529.862	1	-3
530.032	1	-4
530.202	1	-3
530.372	1	0
530.542	1	2
530.712	1	1
530.882	1	0
531.052	1	14
531.222	1	8
531.392	1	-3
531.563	1	1
531.733	1	0
531.903	1	-5
532.073	1	6
532.243	1	8
532.413	1	17
532.583	1	3
532.753	1	-7
532.923	1	6
533.093	1	-9
533.263	1	-1
533.433	1	-2
533.603	1	1
533.773	1	3
533.943	1	0
534.113	1	0
534.284	1	-1
534.454	1	5
534.624	1	-6
534.794	1	-9
534.964	1	2
535.134	1	-1
535.304	1	-2
535.474	1	3
535.644	1	-1
535.814	1	-2
535.984	1	4
536.154	1	-3
536.324	1	-1
536.494	1	8
536.664	1	4
536.834	1	-4
537.004	1	7
537.174	1	8
537.344	1	2
537.514	1	-3
537.685	1	10
537.855	1	5
538.025	1	7
538.195	1	-1
538.365	1	-4
538.535	1	4
538.705	1	0
538.875	1	5
539.045	1	-3
539.215	1	-8
539.385	1	-4
539.555	1	-4
539.725	1	-2
539.895	1	6
540.065	1	3
540.235	1	7
540.405	1	4
540.575	1	9
540.745	1	-3
540.915	1	2
541.085	1	-7
541.255	1	2
541.425	1	2
541.595	1	0
541.765	1	7
541.935	1	2
542.105	1	4
542.275	1	-1
542.445	1	4
542.615	1	7
542.785	1	5
542.955	1	3
543.125	1	-11
543.295	1	-2
543.465	1	4
543.635	1	-13
543.805	1	4
543.975	1	0
544.145	1	3
544.315	1	-8
544.485	1	-4
544.655	1	-2
544.825	1	9
544.995	1	-6
545.165	1	-3
545.335	1	-2
545.505	1	0
545.675	1	6
545.845	1	10
546.015	1	-7
546.185	1	-1
546.355	1	-7
546.525	1	6
546.695	1	0
546.865	1	6
547.035	1	-2
547.205	1	7
547.375	1	-1
547.545	1	-1
547.715	1	0
547.885	1	1
548.055	1	-4
548.225	1	5
548.395	1	7
548.565	1	12
548.735	1	-3
548.905	1	0
549.075	1	1
549.245	1	0
549.415	1	11
549.585	1	-1
549.755	1	7
549.925	1	2
550.095	1	3
550.265	1	4
550.435	1	1
550.605	1	2
550.775	1	1
550.945	1	2
551.115	1	11
551.285	1	-6
551.455	1	5
551.625	1	-16
551.795	1	0
551.965	1	0
552.135	1	-5
552.305	1	4
552.475	1	6
552.645	1	-3
552.815	1	3
552.985	1	-9
553.155	1	3
553.325	1	-4
553.495	1	7
553.665	1	-7
553.835	1	5
554.004	1	1
554.174	1	-10
554.344	1	5
554.514	1	4
554.684	1	5
554.854	1	0
555.024	1	4
555.194	1	10
555.364	1	1
555.534	1	-12
555.704	1	0
555.874	1	1
556.044	1	10
556.214	1	-5
556.384	1	4
556.554	1	1
556.724	1	2
556.894	1	2
557.064	1	-4
557.234	1	-7
557.404	1	-2
557.573	1	0
557.743	1	-6
557.913	1	-8
558.083	1	2
558.253	1	5
558.423	1	-1
558.593	1	11
558.763	1	3
558.933	1	3
559.103	1	-4
559.273	1	12
559.443	1	1
559.613	1	-8
559.783	1	-2
559.953	1	-15
560.122	1	3
560.292	1	-9
560.462	1	0
560.632	1	0
560.802	1	1
560.972	1	-7
561.142	1	3
561.312	1	-3
561.482	1	11
561.652	1	6
561.822	1	-3
561.992	1	-3
562.162	1	-7
562.331	1	-9
562.501	1	4
562.671	1	-5
562.841	1	-13
563.011	1	1
563.181	1	-2
563.351	1	-8
563.521	1	0
563.691	1	2
563.861	1	-1
564.031	1	-10
564.201	1	1
564.370	1	6
564.540	1	-5
564.710	1	-4
564.880	1	4
565.050	1	-5
565.220	1	9
565.390	1	-4
565.560	1	9
565.730	1	1
565.900	1	5
566.069	1	19
566.239	1	11
566.409	1	9
566.579	1	-1
566.749	1	-4
566.919	1	-9
567.089	1	-6
567.259	1	-1
567.429	1	-7
567.599	1	11
567.768	1	-2
567.938	1	2
568.108	1	9
568.278	1	8
568.448	1	-1
568.618	1	1
568.788	1	12
568.958	1	-10
569.128	1	-4
569.297	1	-8
569.467	1	10
569.637	1	2
569.807	1	6
569.977	1	-2
570.147	1	1
570.317	1	-4
570.487	1	0
570.656	1	4
570.826	1	-1
570.996	1	2
571.166	1	-7
571.336	1	3
571.506	1	-8
571.676	1	6
571.846	1	8
572.015	1	3
572.185	1	0
572.355	1	2
572.525	1	-3
572.695	1	9
572.865	1	9
573.035	1	3
573.205	1	-4
573.374	1	-3
573.544	1	-1
573.714	1	-1
573.884	1	-7
574.054	1	-8
574.224	1	4
574.394	1	3
574.563	1	-8
574.733	1	4
574.903	1	-4
575.073	1	4
575.243	1	-12
575.413	1	-6
575.583	1	-5
575.752	1	2
575.922	1	9
576.092	1	-5
576.262	1	8
576.432	1	-8
576.602	1	1
576.772	1	-10
576.941	1	9
577.111	1	1
577.281	1	-3
577.451	1	8
577.621	1	4
577.791	1	4
577.960	1	-6
578.130	1	7
578.300	1	-4
578.470	1	2
578.640	1	-2
578.810	1	-2
578.979	1	1
579.149	1	8
579.319	1	-5
579.489	1	14
579.659	1	-1
579.829	1	-6
579.998	1	-14
580.168	1	-6
580.338	1	-2
580.508	1	1
580.678	1	4
580.848	1	7
581.017	1	-2
581.187	1	-1
581.357	1	7
581.527	1	-1
581.697	1	-8
581.867	1	-9
582.036	1	-12
582.206	1	5
582.376	1	-4
582.546	1	7
582.716	1	3
582.885	1	-4
583.055	1	-6
583.225	1	-4
583.395	1	-2
583.565	1	1
583.735	1	6
583.904	1	-2
584.074	1	3
584.244	1	-4
584.414	1	6
584.584	1	-2
584.753	1	6
584.923	1	-10
585.093	1	8
585.263	1	-7
585.433	1	-1
585.602	1	4
585.772	1	19
585.942	1	-5
586.112	1	6
586.282	1	-3
586.451	1	10
586.621	1	-5
586.791	1	-4
586.961	1	3
587.131	1	-3
587.300	1	10
587.470	1	-4
587.640	1	-4
587.810	1	-15
587.980	1	9
588.149	1	2
588.319	1	11
588.489	1	2
588.659	1	-4
588.829	1	-7
588.998	1	-2
589.168	1	5
589.338	1	3
589.508	1	-7
589.677	1	6
589.847	1	8
590.017	1	5
590.187	1	-9
590.357	1	-5
590.526	1	2
590.696	1	-3
590.866	1	-7
591.036	1	4
591.205	1	11
591.375	1	1
591.545	1	-3
591.715	1	-1
591.885	1	6
592.054	1	3
592.224	1	-9
592.394	1	2
592.564	1	-2
592.733	1	5
592.903	1	-10
593.073	1	-2
593.243	1	7
593.412	1	-18
593.582	1	-8
593.752	1	-6
593.922	1	-2
594.091	1	4
594.261	1	-8
594.431	1	12
594.601	1	5
594.771	1	-3
594.940	1	-10
595.110	1	-3
595.280	1	-3
595.450	1	8
595.619	1	2
595.789	1	-5
595.959	1	8
596.129	1	5
596.298	1	6
596.468	1	-4
596.638	1	-7
596.808	1	-7
596.977	1	-11
597.147	1	-9
597.317	1	0
597.487	1	2
597.656	1	10
597.826	1	9
597.996	1	0
598.166	1	-5
598.335	1	-7
598.505	1	-2
598.675	1	-2
598.844	1	6
599.014	1	-16
599.184	1	5
599.354	1	11
599.523	1	0
599.693	1	-2
599.863	1	-3
600.033	1	-2
600.202	1	-9
600.372	1	-8
600.542	1	8
600.712	1	-1
600.881	1	2
601.051	1	-1
601.221	1	7
601.390	1	3
601.560	1	16
601.730	1	-7
601.900	1	4
602.069	1	-4
602.239	1	9
602.409	1	2
602.578	1	7
602.748	1	7
602.918	1	-6
603.088	1	5
603.257	1	-9
603.427	1	6
603.597	1	2
603.767	1	-2
603.936	1	4
604.106	1	0
604.276	1	-4
604.445	1	-9
604.615	1	6
604.785	1	14
604.954	1	5
605.124	1	5
605.294	1	-10
605.464	1	-1
605.633	1	5
605.803	1	5
605.973	1	-3
606.142	1	6
606.312	1	0
606.482	1	-10
606.652	1	-1
606.821	1	1
606.991	1	-3
607.161	1	6
607.330	1	-5
607.500	1	-6
607.670	1	-4
607.839	1	-2
608.009	1	2
608.179	1	11
608.348	1	5
608.518	1	4
608.688	1	0
608.858	1	-9
609.027	1	8
609.197	1	5
609.367	1	-9
609.536	1	-2
609.706	1	2
609.876	1	2
610.045	1	-3
610.215	1	-5
610.385	1	6
610.554	1	0
610.724	1	2
610.894	1	0
611.063	1	-3
611.233	1	11
611.403	1	4
611.572	1	1
611.742	1	-8
611.912	1	1
612.081	1	13
612.251	1	-2
612.421	1	2
612.590	1	4
612.760	1	6
612.930	1	-1
613.099	1	9
613.269	1	1
613.439	1	-10
613.608	1	6
613.778	1	1
613.948	1	5
614.117	1	3
614.287	1	-8
614.457	1	5
614.626	1	-8
614.796	1	-1
614.966	1	-10
615.135	1	13
615.305	1	4
615.475	1	1
615.644	1	11
615.814	1	13
615.984	1	-7
616.153	1	0
616.323	1	-6
616.493	1	-3
616.662	1	-5
616.832	1	1
617.002	1	4
617.171	1	4
617.341	1	6
617.511	1	-6
617.680	1	-3
617.850	1	-1
618.019	1	1
618.189	1	15
618.359	1	-1
618.528	1	5
618.698	1	1
618.868	1	1
619.037	1	1
619.207	1	0
619.377	1	8
619.546	1	6
619.716	1	0
619.885	1	2
620.055	1	-9
620.225	1	4
620.394	1	6
620.564	1	0
620.734	1	-1
620.903	1	-6
621.073	1	-5
621.242	1	0
621.412	1	-7
621.582	1	9
621.751	1	-2
621.921	1	-5
622.091	1	-1
622.260	1	12
622.430	1	7
622.599	1	2
622.769	1	-1
622.939	1	-2
623.108	1	0
623.278	1	5
623.448	1	-4
623.617	1	-2
623.787	1	1
623.956	1	6
624.126	1	7
624.296	1	8
624.465	1	4
624.635	1	2
624.804	1	-8
624.974	1	-4
625.144	1	-5
625.313	1	14
625.483	1	17
625.652	1	-5
625.822	1	5
625.992	1	-3
626.161	1	5
626.331	1	-10
626.501	1	7
626.670	1	-13
626.840	1	8
627.009	1	-3
627.179	1	1
627.348	1	0
627.518	1	8
627.688	1	0
627.857	1	9
628.027	1	1
628.196	1	6
628.366	1	-6
628.536	1	-2
628.705	1	-1
628.875	1	-9
629.044	1	0
629.214	1	-1
629.384	1	14
629.553	1	-5
629.723	1	12
629.892	1	2
630.062	1	5
630.232	1	9
630.401	1	4
630.571	1	-3
630.740	1	-3
630.910	1	4
631.079	1	0
631.249	1	-1
631.419	1	-1
631.588	1	7
631.758	1	-4
631.927	1	11
632.097	1	-14
632.266	1	11
632.436	1	2
632.606	1	-5
632.775	1	2
632.945	1	-3
633.114	1	4
633.284	1	1
633.453	1	6
633.623	1	10
633.793	1	-2
633.962	1	0
634.132	1	4
634.301	1	-3
634.471	1	3
634.640	1	-6
634.810	1	4
634.979	1	1
635.149	1	-1
635.319	1	-1
635.488	1	6
635.658	1	-6
635.827	1	-2
635.997	1	5
636.166	1	5
636.336	1	-1
636.505	1	9
636.675	1	-2
636.845	1	3
637.014	1	-12
637.184	1	10
637.353	1	-2
637.523	1	-8
637.692	1	14
637.862	1	-6
638.031	1	-9
638.201	1	11
638.370	1	-1
638.540	1	3
638.710	1	0
638.879	1	-4
639.049	1	-1
639.218	1	4
639.388	1	7
639.557	1	-1
639.727	1	-5
639.896	1	-10
640.066	1	8
640.235	1	0
640.405	1	5
640.574	1	12
640.744	1	-4
640.914	1	4
641.083	1	1
641.253	1	3
641.422	1	-1
641.592	1	8
641.761	1	-13
641.931	1	6
642.100	1	1
642.270	1	1
642.439	1	2
642.609	1	11
642.778	1	-3
642.948	1	6
643.117	1	6
643.287	1	-1
643.456	1	4
643.626	1	4
643.795	1	-7
643.965	1	9
644.134	1	-4
644.304	1	-5
644.473	1	5
644.643	1	-2
644.812	1	-1
644.982	1	8
645.151	1	1
645.321	1	8
645.490	1	8
645.660	1	-7
645.829	1	8
645.999	1	-7
646.168	1	14
646.338	1	-3
646.507	1	0
646.677	1	3
646.846	1	2
647.016	1	10
647.185	1	5
647.355	1	13
647.524	1	-2
647.694	1	-10
647.863	1	1
648.033	1	2
648.202	1	3
648.372	1	-14
648.541	1	7
648.711	1	3
648.880	1	6
649.050	1	-6
649.219	1	19
649.389	1	1
649.558	1	9
649.728	1	-2
649.897	1	2
650.067	1	-7
650.236	1	-6
650.406	1	-2
650.575	1	11
650.745	1	3
650.914	1	14
651.084	1	4
651.253	1	5
651.423	1	-5
651.592	1	4
651.762	1	-1
651.931	1	6
652.101	1	-9
652.270	1	6
652.440	1	0
652.609	1	5
652.778	1	6
652.948	1	8
653.117	1	5
653.287	1	-13
653.456	1	2
653.626	1	0
653.795	1	0
653.965	1	-1
654.134	1	2
654.304	1	4
654.473	1	2
654.643	1	0
654.812	1	9
654.982	1	2
655.151	1	4
655.320	1	-6
655.490	1	0
655.659	1	-1
655.829	1	-1
655.998	1	1
656.168	1	-6
656.337	1	0
656.507	1	-13
656.676	1	-1
656.846	1	6
657.015	1	10
657.184	1	1
657.354	1	5
657.523	1	-7
657.693	1	2
657.862	1	-4
658.032	1	0
658.201	1	-12
658.371	1	4
658.540	1	-5
658.709	1	12
658.879	1	9
659.048	1	5
659.218	1	6
659.387	1	-1
659.557	1	-6
659.726	1	9
659.895	1	-3
660.065	1	-2
660.234	1	1
660.404	1	8
660.573	1	0
660.743	1	-2
660.912	1	7
661.081	1	0
661.251	1	-6
661.420	1	-3
661.590	1	-10
661.759	1	5
661.929	1	0
662.098	1	7
662.267	1	-11
662.437	1	-1
662.606	1	-4
662.776	1	8
662.945	1	11
663.115	1	9
663.284	1	-2
663.453	1	-7
663.623	1	-1
663.792	1	5
663.962	1	2
664.131	1	-9
664.300	1	5
664.470	1	-9
664.639	1	5
664.809	1	9
664.978	1	13
665.148	1	-6
665.317	1	8
665.486	1	5
665.656	1	-8
665.825	1	1
665.995	1	-12
666.164	1	7
666.333	1	3
666.503	1	1
666.672	1	8
666.842	1	9
667.011	1	-6
667.180	1	3
667.350	1	-2
667.519	1	14
667.689	1	-2
667.858	1	12
668.027	1	-1
668.197	1	-12
668.366	1	9
668.536	1	-2
668.705	1	1
668.874	1	14
669.044	1	0
669.213	1	0
669.382	1	4
669.552	1	1
669.721	1	2
669.891	1	2
670.060	1	3
670.229	1	11
670.399	1	0
670.568	1	2
670.738	1	-11
670.907	1	2
671.076	1	3
671.246	1	6
671.415	1	11
671.584	1	2
671.754	1	-1
671.923	1	-6
672.093	1	3
672.262	1	0
672.431	1	8
672.601	1	1
672.770	1	5
672.939	1	-4
673.109	1	1
673.278	1	-2
673.448	1	10
673.617	1	-2
673.786	1	-7
