325.333	1	-4
325.504	1	-12
325.675	1	5
325.846	1	3
326.017	1	1
326.188	1	-6
326.359	1	6
326.531	1	3
326.702	1	1
326.873	1	-1
327.044	1	5
327.215	1	-5
327.386	1	0
327.557	1	-4
327.728	1	0
327.899	1	-1
328.070	1	18
328.241	1	9
328.412	1	-8
328.583	1	-1
328.754	1	4
328.926	1	8
329.097	1	-12
329.268	1	22
329.439	1	4
329.610	1	1
329.781	1	5
329.952	1	-3
330.123	1	2
330.294	1	-7
330.465	1	-10
330.636	1	8
330.807	1	4
330.978	1	1
331.149	1	-7
331.320	1	0
331.492	1	4
331.663	1	-1
331.834	1	1
332.005	1	1
332.176	1	6
332.347	1	-5
332.518	1	9
332.689	1	3
332.860	1	3
333.031	1	5
333.202	1	-8
333.373	1	9
333.544	1	0
333.715	1	-2
333.886	1	-3
334.057	1	-6
334.228	1	0
334.399	1	1
334.570	1	2
334.741	1	-1
334.912	1	-4
335.084	1	11
335.255	1	4
335.426	1	-5
335.597	1	0
335.768	1	3
335.939	1	7
336.110	1	6
336.281	1	-5
336.452	1	10
336.623	1	1
336.794	1	4
336.965	1	-4
337.136	1	3
337.307	1	6
337.478	1	-6
337.649	1	-2
337.820	1	-2
337.991	1	2
338.162	1	-10
338.333	1	-3
338.504	1	0
338.675	1	-4
338.846	1	-14
339.017	1	5
339.188	1	2
339.359	1	3
339.530	1	-15
339.701	1	6
339.872	1	19
340.043	1	-7
340.214	1	1
340.385	1	-3
340.556	1	0
340.727	1	6
340.898	1	3
341.069	1	1
341.240	1	4
341.411	1	1
341.582	1	-7
341.753	1	7
341.924	1	9
342.095	1	0
342.266	1	2
342.437	1	-3
342.608	1	0
342.779	1	-2
342.950	1	-1
343.121	1	2
343.292	1	-3
343.463	1	8
343.634	1	6
343.805	1	4
343.976	1	10
344.147	1	-4
344.318	1	-12
344.489	1	-9
344.660	1	3
344.831	1	6
345.002	1	3
345.173	1	1
345.344	1	-9
345.515	1	3
345.686	1	1
345.857	1	8
346.028	1	3
346.199	1	-2
346.370	1	2
346.541	1	-1
346.712	1	-2
346.883	1	-6
347.054	1	7
347.225	1	-5
347.396	1	-2
347.567	1	-9
347.738	1	-6
347.909	1	1
348.080	1	-2
348.251	1	0
348.422	1	3
348.593	1	-3
348.764	1	-5
348.935	1	14
349.106	1	-2
349.277	1	0
349.448	1	-3
349.619	1	-6
349.790	1	-2
349.961	1	-10
350.132	1	8
350.303	1	-1
350.474	1	3
350.645	1	-3
350.816	1	2
350.987	1	4
351.157	1	-2
351.328	1	-6
351.499	1	0
351.670	1	-8
351.841	1	4
352.012	1	7
352.183	1	8
352.354	1	0
352.525	1	1
352.696	1	-3
352.867	1	5
353.038	1	-13
353.209	1	-11
353.380	1	2
353.551	1	12
353.722	1	1
353.893	1	3
354.064	1	-2
354.235	1	-7
354.406	1	-7
354.576	1	-4
354.747	1	12
354.918	1	-5
355.089	1	0
355.260	1	-3
355.431	1	-5
355.602	1	-2
355.773	1	-7
355.944	1	1
356.115	1	4
356.286	1	7
356.457	1	4
356.628	1	2
356.799	1	5
356.970	1	7
357.141	1	5
357.311	1	12
357.482	1	0
357.653	1	-12
357.824	1	2
357.995	1	5
358.166	1	-3
358.337	1	-10
358.508	1	10
358.679	1	-9
358.850	1	10
359.021	1	7
359.192	1	8
359.363	1	1
359.533	1	-1
359.704	1	-2
359.875	1	-7
360.046	1	-1
360.217	1	4
360.388	1	7
360.559	1	6
360.730	1	-2
360.901	1	3
361.072	1	4
361.243	1	4
361.414	1	11
361.584	1	-4
361.755	1	0
361.926	1	1
362.097	1	-11
362.268	1	4
362.439	1	-9
362.610	1	8
362.781	1	-11
362.952	1	9
363.123	1	0
363.293	1	11
363.464	1	-3
363.635	1	2
363.806	1	4
363.977	1	-5
364.148	1	-3
364.319	1	-8
364.490	1	8
364.661	1	-2
364.832	1	9
365.002	1	9
365.173	1	4
365.344	1	-7
365.515	1	6
365.686	1	2
365.857	1	7
366.028	1	-3
366.199	1	2
366.370	1	-2
366.540	1	-1
366.711	1	5
366.882	1	4
367.053	1	3
367.224	1	2
367.395	1	0
367.566	1	5
367.737	1	-1
367.908	1	0
368.078	1	-3
368.249	1	-5
368.420	1	-1
368.591	1	2
368.762	1	13
368.933	1	-5
369.104	1	9
369.274	1	2
369.445	1	12
369.616	1	-1
369.787	1	-2
369.958	1	-2
370.129	1	-6
370.300	1	1
370.471	1	1
370.641	1	1
370.812	1	3
370.983	1	-6
371.154	1	1
371.325	1	-1
371.496	1	4
371.667	1	5
371.837	1	5
372.008	1	-8
372.179	1	5
372.350	1	1
372.521	1	2
372.692	1	5
372.863	1	-1
373.033	1	-9
373.204	1	-7
373.375	1	-3
373.546	1	-1
373.717	1	0
373.888	1	10
374.059	1	-6
374.229	1	5
374.400	1	2
374.571	1	-2
374.742	1	4
374.913	1	-9
375.084	1	4
375.254	1	-13
375.425	1	2
375.596	1	5
375.767	1	2
375.938	1	-9
376.109	1	-6
376.279	1	-3
376.450	1	7
376.621	1	1
376.792	1	5
376.963	1	-7
377.134	1	3
377.304	1	12
377.475	1	-8
377.646	1	-6
377.817	1	5
377.988	1	-2
378.159	1	11
378.329	1	4
378.500	1	12
378.671	1	-5
378.842	1	8
379.013	1	-2
379.184	1	3
379.354	1	1
379.525	1	16
379.696	1	6
379.867	1	-3
380.038	1	4
380.209	1	4
380.379	1	8
380.550	1	-12
380.721	1	-9
380.892	1	-8
381.063	1	-6
381.233	1	-4
381.404	1	-3
381.575	1	-4
381.746	1	2
381.917	1	3
382.087	1	8
382.258	1	4
382.429	1	0
382.600	1	-4
382.771	1	-6
382.941	1	11
383.112	1	-3
383.283	1	12
383.454	1	-9
383.625	1	0
383.795	1	10
383.966	1	0
384.137	1	5
384.308	1	-4
384.479	1	5
384.649	1	-8
384.820	1	1
384.991	1	-8
385.162	1	7
385.333	1	-1
385.503	1	-9
385.674	1	0
385.845	1	-3
386.016	1	6
386.187	1	-13
386.357	1	11
386.528	1	-1
386.699	1	-8
386.870	1	-4
387.041	1	6
387.211	1	1
387.382	1	4
387.553	1	1
387.724	1	-10
387.894	1	-13
388.065	1	2
388.236	1	0
388.407	1	-3
388.578	1	0
388.748	1	7
388.919	1	0
389.090	1	12
389.261	1	-8
389.431	1	-3
389.602	1	-4
389.773	1	-7
389.944	1	-7
390.114	1	3
390.285	1	7
390.456	1	-3
390.627	1	-7
390.798	1	-4
390.968	1	4
391.139	1	1
391.310	1	-8
391.481	1	-2
391.651	1	0
391.822	1	15
391.993	1	-1
392.164	1	10
392.334	1	-3
392.505	1	3
392.676	1	-14
392.847	1	-2
393.017	1	-3
393.188	1	2
393.359	1	13
393.530	1	11
393.700	1	-11
393.871	1	8
394.042	1	-7
394.213	1	4
394.383	1	-2
394.554	1	-5
394.725	1	-8
394.896	1	5
395.066	1	2
395.237	1	-7
395.408	1	6
395.579	1	-1
395.749	1	11
395.920	1	0
396.091	1	-1
396.262	1	-2
396.432	1	-1
396.603	1	-2
396.774	1	0
396.945	1	-7
397.115	1	-4
397.286	1	-1
397.457	1	-1
397.627	1	-7
397.798	1	1
397.969	1	-5
398.140	1	-6
398.310	1	-8
398.481	1	5
398.652	1	-7
398.823	1	3
398.993	1	-5
399.164	1	6
399.335	1	-9
399.505	1	-6
399.676	1	0
399.847	1	-8
400.018	1	1
400.188	1	0
400.359	1	6
400.530	1	7
400.700	1	0
400.871	1	3
401.042	1	-7
401.213	1	3
401.383	1	7
401.554	1	1
401.725	1	-5
401.895	1	-11
402.066	1	10
402.237	1	3
402.408	1	-4
402.578	1	0
402.749	1	-5
402.920	1	7
403.090	1	-5
403.261	1	-2
403.432	1	4
403.603	1	9
403.773	1	8
403.944	1	2
404.115	1	1
404.285	1	-11
404.456	1	-1
404.627	1	7
404.797	1	0
404.968	1	6
405.139	1	12
405.310	1	3
405.480	1	-4
405.651	1	-6
405.822	1	-12
405.992	1	1
406.163	1	-4
406.334	1	-4
406.504	1	-1
406.675	1	-8
406.846	1	2
407.016	1	4
407.187	1	-1
407.358	1	-5
407.528	1	7
407.699	1	5
407.870	1	0
408.041	1	-11
408.211	1	6
408.382	1	2
408.553	1	5
408.723	1	4
408.894	1	1
409.065	1	-5
409.235	1	-6
409.406	1	-6
409.577	1	-2
409.747	1	-8
409.918	1	2
410.089	1	17
410.259	1	-2
410.430	1	-2
410.601	1	10
410.771	1	5
410.942	1	3
411.113	1	4
411.283	1	-3
411.454	1	11
411.625	1	0
411.795	1	6
411.966	1	6
412.137	1	8
412.307	1	5
412.478	1	5
412.649	1	-2
412.819	1	3
412.990	1	-3
413.161	1	4
413.331	1	-1
413.502	1	7
413.672	1	-2
413.843	1	-7
414.014	1	-5
414.184	1	14
414.355	1	5
414.526	1	6
414.696	1	-10
414.867	1	-9
415.038	1	-6
415.208	1	-2
415.379	1	3
415.550	1	2
415.720	1	-15
415.891	1	1
416.062	1	5
416.232	1	13
416.403	1	5
416.573	1	-8
416.744	1	2
416.915	1	-3
417.085	1	0
417.256	1	-3
417.427	1	-4
417.597	1	-5
417.768	1	-4
417.939	1	-4
418.109	1	-3
418.280	1	2
418.450	1	11
418.621	1	6
418.792	1	-2
418.962	1	7
419.133	1	-9
419.304	1	-2
419.474	1	-3
419.645	1	6
419.815	1	1
419.986	1	8
420.157	1	-4
420.327	1	-9
420.498	1	-1
420.669	1	0
420.839	1	-3
421.010	1	0
421.180	1	-3
421.351	1	2
421.522	1	0
421.692	1	12
421.863	1	5
422.033	1	-1
422.204	1	6
422.375	1	10
422.545	1	7
422.716	1	-9
422.886	1	6
423.057	1	-3
423.228	1	-4
423.398	1	7
423.569	1	-1
423.740	1	-5
423.910	1	2
424.081	1	7
424.251	1	2
424.422	1	9
424.593	1	1
424.763	1	6
424.934	1	2
425.104	1	16
425.275	1	-3
425.445	1	-4
425.616	1	7
425.787	1	-1
425.957	1	0
426.128	1	0
426.298	1	11
426.469	1	-7
426.640	1	1
426.810	1	-13
426.981	1	9
427.151	1	-9
427.322	1	-4
427.493	1	14
427.663	1	2
427.834	1	-1
428.004	1	5
428.175	1	8
428.345	1	0
428.516	1	1
428.687	1	3
428.857	1	8
429.028	1	7
429.198	1	-2
429.369	1	-2
429.540	1	1
429.710	1	5
429.881	1	-5
430.051	1	1
430.222	1	3
430.392	1	-1
430.563	1	-13
430.734	1	-8
430.904	1	-2
431.075	1	4
431.245	1	-5
431.416	1	-1
431.586	1	-5
431.757	1	7
431.927	1	11
432.098	1	6
432.269	1	-12
432.439	1	-5
432.610	1	10
432.780	1	2
432.951	1	-3
433.121	1	0
433.292	1	1
433.462	1	-6
433.633	1	-3
433.804	1	-6
433.974	1	-6
434.145	1	2
434.315	1	1
434.486	1	-9
434.656	1	3
434.827	1	1
434.997	1	6
435.168	1	5
435.339	1	13
435.509	1	-5
435.680	1	3
435.850	1	-9
436.021	1	-4
436.191	1	-3
436.362	1	5
436.532	1	-1
436.703	1	-3
436.873	1	-3
437.044	1	9
437.214	1	5
437.385	1	-2
437.556	1	3
437.726	1	0
437.897	1	-3
438.067	1	-6
438.238	1	4
438.408	1	6
438.579	1	1
438.749	1	1
438.920	1	8
439.090	1	-2
439.261	1	0
439.431	1	-11
439.602	1	-4
439.772	1	7
439.943	1	-2
440.113	1	-6
440.284	1	5
440.455	1	0
440.625	1	1
440.796	1	-7
440.966	1	4
441.137	1	1
441.307	1	5
441.478	1	-5
441.648	1	-1
441.819	1	-5
441.989	1	5
442.160	1	1
442.330	1	2
442.501	1	-2
442.671	1	-8
442.842	1	6
443.012	1	-7
443.183	1	9
443.353	1	4
443.524	1	4
443.694	1	-1
443.865	1	9
444.035	1	5
444.206	1	-1
444.376	1	-2
444.547	1	2
444.717	1	0
444.888	1	-14
445.058	1	1
445.229	1	-2
445.399	1	0
445.570	1	-9
445.740	1	0
445.911	1	3
446.081	1	-2
446.252	1	0
446.422	1	0
446.593	1	1
446.763	1	-4
446.934	1	-6
447.104	1	-1
447.275	1	2
447.445	1	-8
447.616	1	3
447.786	1	-2
447.957	1	-2
448.127	1	-3
448.298	1	0
448.468	1	2
448.639	1	3
448.809	1	-10
448.979	1	5
449.150	1	-4
449.320	1	5
449.491	1	-11
449.661	1	-5
449.832	1	-3
450.002	1	-10
450.173	1	0
450.343	1	-1
450.514	1	2
450.684	1	4
450.855	1	0
451.025	1	-2
451.196	1	-4
451.366	1	18
451.537	1	7
451.707	1	9
451.878	1	-14
452.048	1	-6
452.218	1	5
452.389	1	8
452.559	1	10
452.730	1	5
452.900	1	2
453.071	1	7
453.241	1	2
453.412	1	-7
453.582	1	10
453.753	1	5
453.923	1	-1
454.093	1	-1
454.264	1	12
454.434	1	4
454.605	1	-7
454.775	1	9
454.946	1	-4
455.116	1	-3
455.287	1	-8
455.457	1	2
455.628	1	-5
455.798	1	5
455.968	1	-1
456.139	1	9
456.309	1	2
456.480	1	0
456.650	1	-3
456.821	1	-6
456.991	1	4
457.161	1	3
457.332	1	-7
457.502	1	-1
457.673	1	-11
457.843	1	-1
458.014	1	-6
458.184	1	9
458.355	1	4
458.525	1	-2
458.695	1	1
458.866	1	-9
459.036	1	0
459.207	1	0
459.377	1	2
459.548	1	3
459.718	1	-2
459.888	1	-9
460.059	1	1
460.229	1	-9
460.400	1	4
460.570	1	-4
460.740	1	9
460.911	1	1
461.081	1	1
461.252	1	10
461.422	1	-4
461.593	1	7
461.763	1	4
461.933	1	5
462.104	1	-4
462.274	1	-6
462.445	1	-10
462.615	1	7
462.785	1	3
462.956	1	2
463.126	1	-1
463.297	1	-3
463.467	1	9
463.638	1	3
463.808	1	8
463.978	1	-11
464.149	1	-2
464.319	1	1
464.490	1	-1
464.660	1	-2
464.830	1	-5
465.001	1	-6
465.171	1	-3
465.342	1	-8
465.512	1	4
465.682	1	-7
465.853	1	2
466.023	1	2
466.194	1	2
466.364	1	4
466.534	1	-7
466.705	1	6
466.875	1	-9
467.045	1	-9
467.216	1	-2
467.386	1	1
467.557	1	7
467.727	1	3
467.897	1	3
468.068	1	-11
468.238	1	-4
468.409	1	4
468.579	1	5
468.749	1	-3
468.920	1	-9
469.090	1	-1
469.260	1	4
469.431	1	-4
469.601	1	12
469.772	1	13
469.942	1	0
470.112	1	-2
470.283	1	2
470.453	1	3
470.623	1	4
470.794	1	6
470.964	1	-8
471.135	1	11
471.305	1	6
471.475	1	5
471.646	1	-3
471.816	1	-5
471.986	1	-9
472.157	1	1
472.327	1	2
472.497	1	11
472.668	1	11
472.838	1	1
473.009	1	3
473.179	1	0
473.349	1	-7
473.520	1	8
473.690	1	-1
473.860	1	-5
474.031	1	-13
474.201	1	-1
474.371	1	8
474.542	1	-3
474.712	1	-5
474.882	1	-1
475.053	1	8
475.223	1	-1
475.394	1	-1
475.564	1	1
475.734	1	-2
475.905	1	1
476.075	1	8
476.245	1	6
476.416	1	-8
476.586	1	0
476.756	1	5
476.927	1	0
477.097	1	-10
477.267	1	-5
477.438	1	12
477.608	1	14
477.778	1	3
477.949	1	4
478.119	1	6
478.289	1	-5
478.460	1	-5
478.630	1	-2
478.800	1	-9
478.971	1	0
479.141	1	10
479.311	1	2
479.482	1	-2
479.652	1	4
479.822	1	-4
479.993	1	-3
480.163	1	-7
480.333	1	4
480.504	1	2
480.674	1	8
480.844	1	-6
481.015	1	14
481.185	1	5
481.355	1	6
481.525	1	-15
481.696	1	-2
481.866	1	-3
482.036	1	-2
482.207	1	-4
482.377	1	-1
482.547	1	-2
482.718	1	9
482.888	1	0
483.058	1	1
483.229	1	0
483.399	1	9
483.569	1	-3
483.740	1	5
483.910	1	-1
484.080	1	2
484.250	1	-4
484.421	1	-1
484.591	1	-1
484.761	1	-1
484.932	1	-4
485.102	1	8
485.272	1	-4
485.443	1	3
485.613	1	-2
485.783	1	-3
485.953	1	-8
486.124	1	3
486.294	1	4
486.464	1	8
486.635	1	-5
486.805	1	7
486.975	1	-7
487.146	1	2
487.316	1	4
487.486	1	0
487.656	1	0
487.827	1	-1
487.997	1	5
488.167	1	0
488.338	1	0
488.508	1	4
488.678	1	-2
488.848	1	1
489.019	1	0
489.189	1	10
489.359	1	-5
489.529	1	7
489.700	1	-2
489.870	1	3
490.040	1	-8
490.211	1	-10
490.381	1	-4
490.551	1	10
490.721	1	8
490.892	1	-11
491.062	1	-3
491.232	1	-5
491.402	1	-5
491.573	1	-3
491.743	1	2
491.913	1	6
492.084	1	5
492.254	1	-7
492.424	1	-2
492.594	1	0
492.765	1	6
492.935	1	18
493.105	1	-8
493.275	1	2
493.446	1	-1
493.616	1	-11
493.786	1	-2
493.956	1	2
494.127	1	-5
494.297	1	-8
494.467	1	-2
494.637	1	9
494.808	1	3
494.978	1	1
495.148	1	9
495.318	1	0
495.489	1	-13
495.659	1	4
495.829	1	-1
495.999	1	4
496.170	1	-2
496.340	1	3
496.510	1	4
496.680	1	2
496.851	1	1
497.021	1	1
497.191	1	10
497.361	1	-13
497.532	1	-5
497.702	1	5
497.872	1	6
498.042	1	0
498.213	1	-1
498.383	1	1
498.553	1	-3
498.723	1	-7
498.894	1	4
499.064	1	5
499.234	1	-1
499.404	1	1
499.574	1	-2
499.745	1	13
499.915	1	-4
500.085	1	6
500.255	1	-16
500.426	1	8
500.596	1	-3
500.766	1	-10
500.936	1	-3
501.106	1	-8
501.277	1	-3
501.447	1	7
501.617	1	5
501.787	1	-1
501.958	1	6
502.128	1	-1
502.298	1	3
502.468	1	-5
502.638	1	7
502.809	1	-3
502.979	1	6
503.149	1	-7
503.319	1	8
503.489	1	-15
503.660	1	-1
503.830	1	-2
504.000	1	-4
504.170	1	-8
504.340	1	-2
504.511	1	4
504.681	1	6
504.851	1	-11
505.021	1	0
505.192	1	-2
505.362	1	8
505.532	1	-3
505.702	1	13
505.872	1	3
506.043	1	6
506.213	1	4
506.383	1	11
506.553	1	2
506.723	1	-5
506.893	1	1
507.064	1	9
507.234	1	5
507.404	1	-7
507.574	1	-1
507.744	1	-3
507.915	1	-3
508.085	1	0
508.255	1	3
508.425	1	-2
508.595	1	1
508.766	1	-10
508.936	1	8
509.106	1	1
509.276	1	5
509.446	1	-2
509.616	1	2
509.787	1	5
509.957	1	0
510.127	1	-6
510.297	1	-5
510.467	1	10
510.638	1	0
510.808	1	10
510.978	1	-5
511.148	1	-2
511.318	1	6
511.488	1	16
511.659	1	-2
511.829	1	-6
511.999	1	-1
512.169	1	3
512.339	1	7
512.509	1	-1
512.680	1	2
512.850	1	2
513.020	1	6
513.190	1	4
513.360	1	7
513.530	1	6
513.700	1	7
513.871	1	-7
514.041	1	7
514.211	1	-4
514.381	1	2
514.551	1	2
514.721	1	-1
514.892	1	-3
515.062	1	6
515.232	1	-7
515.402	1	5
515.572	1	8
515.742	1	7
515.912	1	0
516.083	1	7
516.253	1	14
516.423	1	4
516.593	1	1
516.763	1	7
516.933	1	0
517.104	1	6
517.274	1	-14
517.444	1	-2
517.614	1	-5
517.784	1	9
517.954	1	-3
518.124	1	2
518.294	1	8
518.465	1	-9
518.635	1	11
518.805	1	3
518.975	1	-3
519.145	1	0
519.315	1	5
519.485	1	-6
519.656	1	-2
519.826	1	-8
519.996	1	-3
520.166	1	-4
520.336	1	4
520.506	1	-2
520.676	1	0
520.846	1	6
521.017	1	4
521.187	1	-3
521.357	1	-6
521.527	1	-10
521.697	1	-5
521.867	1	5
522.037	1	-6
522.207	1	7
522.377	1	8
522.548	1	-16
522.718	1	-4
522.888	1	7
523.058	1	0
523.228	1	-5
523.398	1	-9
523.568	1	-17
523.738	1	0
523.909	1	0
524.079	1	2
524.249	1	-3
524.419	1	-1
524.589	1	2
524.759	1	1
524.929	1	-4
525.099	1	-5
525.269	1	7
525.439	1	4
525.610	1	4
525.780	1	3
525.950	1	2
526.120	1	-6
526.290	1	-10
526.460	1	-6
526.630	1	9
526.800	1	-3
526.970	1	5
527.140	1	-4
527.311	1	3
527.481	1	14
527.651	1	2
527.821	1	-4
527.991	1	0
528.161	1	10
528.331	1	-5
528.501	1	-4
528.671	1	9
528.841	1	0
529.011	1	-1
529.181	1	-4
529.352	1	7
529.522	1	5
529.692	1	4
529.862	1	1
530.032	1	-3
530.202	1	-5
530.372	1	0
530.542	1	-4
530.712	1	1
530.882	1	10
531.052	1	5
531.222	1	13
531.392	1	5
531.563	1	4
531.733	1	-3
531.903	1	-5
532.073	1	4
532.243	1	5
532.413	1	16
532.583	1	4
532.753	1	-8
532.923	1	8
533.093	1	-7
533.263	1	4
533.433	1	-1
533.603	1	0
533.773	1	9
533.943	1	0
534.113	1	4
534.284	1	2
534.454	1	-3
534.624	1	-3
534.794	1	5
534.964	1	-3
535.134	1	-7
535.304	1	2
535.474	1	11
535.644	1	2
535.814	1	7
535.984	1	1
536.154	1	3
536.324	1	2
536.494	1	10
536.664	1	0
536.834	1	-3
537.004	1	-3
537.174	1	10
537.344	1	-4
537.514	1	-7
537.685	1	4
537.855	1	13
538.025	1	15
538.195	1	-3
538.365	1	3
538.535	1	-1
538.705	1	-1
538.875	1	3
539.045	1	-3
539.215	1	-20
539.385	1	6
539.555	1	-5
539.725	1	-5
539.895	1	-3
540.065	1	5
540.235	1	3
540.405	1	-2
540.575	1	0
540.745	1	4
540.915	1	1
541.085	1	-8
541.255	1	12
541.425	1	-5
541.595	1	-5
541.765	1	3
541.935	1	1
542.105	1	8
542.275	1	-1
542.445	1	14
542.615	1	6
542.785	1	3
542.955	1	5
543.125	1	-5
543.295	1	6
543.465	1	5
543.635	1	-10
543.805	1	6
543.975	1	-3
544.145	1	-5
544.315	1	0
544.485	1	-2
544.655	1	6
544.825	1	-1
544.995	1	2
545.165	1	6
545.335	1	4
545.505	1	0
545.675	1	4
545.845	1	11
546.015	1	-4
546.185	1	-2
546.355	1	2
546.525	1	7
546.695	1	-4
546.865	1	4
547.035	1	-1
547.205	1	6
547.375	1	8
547.545	1	7
547.715	1	-2
547.885	1	-7
548.055	1	8
548.225	1	13
548.395	1	-2
548.565	1	5
548.735	1	-8
548.905	1	5
549.075	1	7
549.245	1	0
549.415	1	4
549.585	1	4
549.755	1	6
549.925	1	8
550.095	1	-4
550.265	1	-1
550.435	1	6
550.605	1	-9
550.775	1	-12
550.945	1	6
551.115	1	5
551.285	1	-5
551.455	1	8
551.625	1	2
551.795	1	-3
551.965	1	-9
552.135	1	-8
552.305	1	9
552.475	1	3
552.645	1	-7
552.815	1	2
552.985	1	4
553.155	1	7
553.325	1	4
553.495	1	0
553.665	1	12
553.835	1	0
554.004	1	6
554.174	1	-2
554.344	1	-3
554.514	1	0
554.684	1	8
554.854	1	-6
555.024	1	5
555.194	1	2
555.364	1	3
555.534	1	-6
555.704	1	4
555.874	1	5
556.044	1	5
556.214	1	-4
556.384	1	-4
556.554	1	13
556.724	1	-6
556.894	1	-2
557.064	1	-8
557.234	1	0
557.404	1	3
557.573	1	8
557.743	1	-10
557.913	1	-3
558.083	1	-4
558.253	1	3
558.423	1	-4
558.593	1	5
558.763	1	4
558.933	1	3
559.103	1	-12
559.273	1	14
559.443	1	0
559.613	1	-7
559.783	1	-5
559.953	1	-10
560.122	1	-1
560.292	1	-8
560.462	1	-7
560.632	1	-6
560.802	1	6
560.972	1	-14
561.142	1	4
561.312	1	-5
561.482	1	11
561.652	1	-1
561.822	1	-6
561.992	1	0
562.162	1	-4
562.331	1	-5
562.501	1	7
562.671	1	-3
562.841	1	-13
563.011	1	8
563.181	1	-5
563.351	1	1
563.521	1	0
563.691	1	-3
563.861	1	3
564.031	1	-6
564.201	1	10
564.370	1	10
564.540	1	7
564.710	1	1
564.880	1	5
565.050	1	12
565.220	1	6
565.390	1	-6
565.560	1	2
565.730	1	3
565.900	1	5
566.069	1	10
566.239	1	8
566.409	1	11
566.579	1	11
566.749	1	-2
566.919	1	-10
567.089	1	-10
567.259	1	4
567.429	1	2
567.599	1	3
567.768	1	-9
567.938	1	11
568.108	1	-5
568.278	1	1
568.448	1	1
568.618	1	6
568.788	1	6
568.958	1	-4
569.128	1	-1
569.297	1	-7
569.467	1	8
569.637	1	-7
569.807	1	4
569.977	1	1
570.147	1	-6
570.317	1	-3
570.487	1	-8
570.656	1	5
570.826	1	-3
570.996	1	8
571.166	1	-5
571.336	1	-6
571.506	1	-4
571.676	1	5
571.846	1	10
572.015	1	-3
572.185	1	5
572.355	1	0
572.525	1	-8
572.695	1	3
572.865	1	9
573.035	1	14
573.205	1	-7
573.374	1	-7
573.544	1	0
573.714	1	-5
573.884	1	-5
574.054	1	2
574.224	1	-6
574.394	1	4
574.563	1	-5
574.733	1	5
574.903	1	4
575.073	1	8
575.243	1	-3
575.413	1	-3
575.583	1	0
575.752	1	2
575.922	1	6
576.092	1	-10
576.262	1	1
576.432	1	4
576.602	1	-3
576.772	1	10
576.941	1	1
577.111	1	8
577.281	1	-5
577.451	1	5
577.621	1	1
577.791	1	5
577.960	1	-1
578.130	1	6
578.300	1	-10
578.470	1	-5
578.640	1	-3
578.810	1	4
578.979	1	5
579.149	1	-2
579.319	1	-6
579.489	1	8
579.659	1	-2
579.829	1	2
579.998	1	-1
580.168	1	-2
580.338	1	-5
580.508	1	-6
580.678	1	8
580.848	1	6
581.017	1	2
581.187	1	2
581.357	1	5
581.527	1	-1
581.697	1	9
581.867	1	8
582.036	1	-8
582.206	1	4
582.376	1	8
582.546	1	4
582.716	1	1
582.885	1	2
583.055	1	-16
583.225	1	11
583.395	1	-6
583.565	1	5
583.735	1	5
583.904	1	-7
584.074	1	-1
584.244	1	-6
584.414	1	-5
584.584	1	8
584.753	1	6
584.923	1	-6
585.093	1	0
585.263	1	-5
585.433	1	5
585.602	1	6
585.772	1	11
585.942	1	-7
586.112	1	-3
586.282	1	3
586.451	1	17
586.621	1	-5
586.791	1	-7
586.961	1	-4
587.131	1	-9
587.300	1	12
587.470	1	5
587.640	1	-10
587.810	1	-17
587.980	1	-7
588.149	1	7
588.319	1	7
588.489	1	2
588.659	1	-2
588.829	1	-9
588.998	1	3
589.168	1	-4
589.338	1	-8
589.508	1	4
589.677	1	2
589.847	1	3
590.017	1	-6
590.187	1	2
590.357	1	-3
590.526	1	-4
590.696	1	9
590.866	1	-2
591.036	1	1
591.205	1	11
591.375	1	-3
591.545	1	0
591.715	1	-6
591.885	1	10
592.054	1	1
592.224	1	3
592.394	1	-6
592.564	1	1
592.733	1	0
592.903	1	-2
593.073	1	-3
593.243	1	4
593.412	1	-7
593.582	1	0
593.752	1	-8
593.922	1	-3
594.091	1	12
594.261	1	-5
594.431	1	-5
594.601	1	1
594.771	1	1
594.940	1	0
595.110	1	3
595.280	1	4
595.450	1	10
595.619	1	-11
595.789	1	-8
595.959	1	3
596.129	1	8
596.298	1	7
596.468	1	0
596.638	1	2
596.808	1	-15
596.977	1	-7
597.147	1	0
597.317	1	0
597.487	1	3
597.656	1	1
597.826	1	3
597.996	1	-5
598.166	1	5
598.335	1	-3
598.505	1	4
598.675	1	6
598.844	1	4
599.014	1	-6
599.184	1	3
599.354	1	14
599.523	1	-7
599.693	1	4
599.863	1	3
600.033	1	4
600.202	1	-2
600.372	1	-8
600.542	1	-3
600.712	1	6
600.881	1	-3
601.051	1	3
601.221	1	0
601.390	1	4
601.560	1	11
601.730	1	1
601.900	1	-4
602.069	1	-1
602.239	1	-1
602.409	1	-1
602.578	1	8
602.748	1	11
602.918	1	-4
603.088	1	5
603.257	1	-3
603.427	1	5
603.597	1	-2
603.767	1	3
603.936	1	14
604.106	1	-7
604.276	1	-9
604.445	1	-4
604.615	1	-3
604.785	1	7
604.954	1	-3
605.124	1	-2
605.294	1	-3
605.464	1	-2
605.633	1	1
605.803	1	11
605.973	1	-2
606.142	1	11
606.312	1	10
606.482	1	-7
606.652	1	-3
606.821	1	11
606.991	1	5
607.161	1	-6
607.330	1	-9
607.500	1	-2
607.670	1	-1
607.839	1	-2
608.009	1	1
608.179	1	6
608.348	1	8
608.518	1	16
608.688	1	-10
608.858	1	-5
609.027	1	2
609.197	1	5
609.367	1	-4
609.536	1	-3
609.706	1	11
609.876	1	12
610.045	1	-3
610.215	1	0
610.385	1	10
610.554	1	-3
610.724	1	3
610.894	1	5
611.063	1	1
611.233	1	0
611.403	1	0
611.572	1	8
611.742	1	1
611.912	1	1
612.081	1	-3
612.251	1	-4
612.421	1	-6
612.590	1	1
612.760	1	1
612.930	1	-3
613.099	1	-1
613.269	1	-2
613.439	1	-6
613.608	1	-3
613.778	1	0
613.948	1	9
614.117	1	-3
614.287	1	-4
614.457	1	0
614.626	1	1
614.796	1	0
614.966	1	-3
615.135	1	7
615.305	1	13
615.475	1	-6
615.644	1	3
615.814	1	6
615.984	1	-5
616.153	1	4
616.323	1	-3
616.493	1	1
616.662	1	2
616.832	1	-8
617.002	1	5
617.171	1	0
617.341	1	4
617.511	1	-13
617.680	1	-6
617.850	1	4
618.019	1	-3
618.189	1	7
618.359	1	6
618.528	1	7
618.698	1	4
618.868	1	-8
619.037	1	-10
619.207	1	1
619.377	1	8
619.546	1	4
619.716	1	3
619.885	1	0
620.055	1	-10
620.225	1	0
620.394	1	-3
620.564	1	-5
620.734	1	8
620.903	1	-10
621.073	1	18
621.242	1	1
621.412	1	-7
621.582	1	0
621.751	1	4
621.921	1	3
622.091	1	4
622.260	1	3
622.430	1	3
622.599	1	-7
622.769	1	-4
622.939	1	2
623.108	1	0
623.278	1	-8
623.448	1	-3
623.617	1	2
623.787	1	3
623.956	1	0
624.126	1	1
624.296	1	4
624.465	1	5
624.635	1	2
624.804	1	1
624.974	1	-7
625.144	1	1
625.313	1	12
625.483	1	0
625.652	1	-3
625.822	1	9
625.992	1	2
626.161	1	0
626.331	1	-4
626.501	1	11
626.670	1	-8
626.840	1	3
627.009	1	-4
627.179	1	-3
627.348	1	2
627.518	1	1
627.688	1	0
627.857	1	3
628.027	1	3
628.196	1	5
628.366	1	-10
628.536	1	-1
628.705	1	-7
628.875	1	-10
629.044	1	0
629.214	1	4
629.384	1	11
629.553	1	-6
629.723	1	4
629.892	1	-5
630.062	1	-4
630.232	1	-1
630.401	1	6
630.571	1	2
630.740	1	2
630.910	1	10
631.079	1	-10
631.249	1	7
631.419	1	10
631.588	1	6
631.758	1	-7
631.927	1	6
632.097	1	-7
632.266	1	6
632.436	1	0
632.606	1	2
632.775	1	6
632.945	1	-6
633.114	1	-7
633.284	1	-6
633.453	1	3
633.623	1	14
633.793	1	3
633.962	1	13
634.132	1	4
634.301	1	8
634.471	1	14
634.640	1	0
634.810	1	-3
634.979	1	2
635.149	1	-3
635.319	1	-3
635.488	1	9
635.658	1	0
635.827	1	2
635.997	1	7
636.166	1	-2
636.336	1	-9
636.505	1	0
636.675	1	-1
636.845	1	-10
637.014	1	-11
637.184	1	12
637.353	1	-4
637.523	1	-5
637.692	1	-5
637.862	1	-4
638.031	1	-6
638.201	1	5
638.370	1	0
638.540	1	-14
638.710	1	1
638.879	1	-11
639.049	1	7
639.218	1	-5
639.388	1	0
639.557	1	6
639.727	1	-1
639.896	1	-6
640.066	1	-4
640.235	1	3
640.405	1	0
640.574	1	5
640.744	1	-5
640.914	1	-1
641.083	1	6
641.253	1	-11
641.422	1	0
641.592	1	7
641.761	1	6
641.931	1	3
642.100	1	-1
642.270	1	-6
642.439	1	-2
642.609	1	10
642.778	1	-3
642.948	1	10
643.117	1	6
643.287	1	5
643.456	1	5
643.626	1	-4
643.795	1	-3
643.965	1	3
644.134	1	2
644.304	1	-3
644.473	1	-7
644.643	1	-4
644.812	1	1
644.982	1	2
645.151	1	-5
645.321	1	0
645.490	1	14
645.660	1	-5
645.829	1	2
645.999	1	-10
646.168	1	8
646.338	1	-11
646.507	1	-1
646.677	1	8
646.846	1	7
647.016	1	9
647.185	1	5
647.355	1	7
647.524	1	-2
647.694	1	-18
647.863	1	-11
648.033	1	0
648.202	1	11
648.372	1	-10
648.541	1	-1
648.711	1	1
648.880	1	7
649.050	1	-2
649.219	1	10
649.389	1	-1
649.558	1	7
649.728	1	-2
649.897	1	6
650.067	1	6
650.236	1	-10
650.406	1	-2
650.575	1	4
650.745	1	2
650.914	1	5
651.084	1	2
651.253	1	4
651.423	1	-5
651.592	1	-9
651.762	1	-5
651.931	1	14
652.101	1	-9
652.270	1	-2
652.440	1	3
652.609	1	6
652.778	1	8
652.948	1	5
653.117	1	-3
653.287	1	-14
653.456	1	-12
653.626	1	7
653.795	1	6
653.965	1	3
654.134	1	-5
654.304	1	2
654.473	1	-2
654.643	1	0
654.812	1	2
654.982	1	2
655.151	1	3
655.320	1	7
655.490	1	-8
655.659	1	1
655.829	1	-6
655.998	1	-1
656.168	1	3
656.337	1	2
656.507	1	-4
656.676	1	-3
656.846	1	-6
657.015	1	17
657.184	1	-2
657.354	1	0
657.523	1	3
657.693	1	2
657.862	1	-9
658.032	1	2
658.201	1	-10
658.371	1	-1
658.540	1	-9
658.709	1	3
658.879	1	6
659.048	1	4
659.218	1	-4
659.387	1	9
659.557	1	4
659.726	1	4
659.895	1	0
660.065	1	-13
660.234	1	-8
660.404	1	-4
660.573	1	0
660.743	1	-5
660.912	1	0
661.081	1	3
661.251	1	1
661.420	1	8
661.590	1	0
661.759	1	3
661.929	1	-7
662.098	1	-3
662.267	1	-11
662.437	1	0
662.606	1	-5
662.776	1	2
662.945	1	10
663.115	1	7
663.284	1	-4
663.453	1	-6
663.623	1	-7
663.792	1	7
663.962	1	4
664.131	1	-8
664.300	1	0
664.470	1	-10
664.639	1	-3
664.809	1	3
664.978	1	13
665.148	1	6
665.317	1	-3
665.486	1	-8
665.656	1	1
665.825	1	2
665.995	1	-7
666.164	1	-2
666.333	1	-2
666.503	1	-3
666.672	1	5
666.842	1	0
667.011	1	1
667.180	1	-6
667.350	1	4
667.519	1	8
667.689	1	-4
667.858	1	2
668.027	1	-3
668.197	1	-13
668.366	1	3
668.536	1	6
668.705	1	-8
668.874	1	5
669.044	1	0
669.213	1	7
669.382	1	13
669.552	1	-1
669.721	1	-7
669.891	1	2
670.060	1	2
670.229	1	1
670.399	1	8
670.568	1	4
670.738	1	-2
670.907	1	1
671.076	1	3
671.246	1	9
671.415	1	-2
671.584	1	7
671.754	1	-9
671.923	1	0
672.093	1	5
672.262	1	-4
672.431	1	2
672.601	1	7
672.770	1	1
672.939	1	4
673.109	1	1
673.278	1	4
673.448	1	2
673.617	1	5
673.786	1	-8
