325.333	1	23
325.504	1	9
325.675	1	26
325.846	1	17
326.017	1	26
326.188	1	27
326.359	1	33
326.531	1	14
326.702	1	21
326.873	1	33
327.044	1	29
327.215	1	18
327.386	1	21
327.557	1	20
327.728	1	33
327.899	1	26
328.070	1	42
328.241	1	34
328.412	1	34
328.583	1	32
328.754	1	47
328.926	1	33
329.097	1	20
329.268	1	46
329.439	1	39
329.610	1	27
329.781	1	42
329.952	1	34
330.123	1	32
330.294	1	30
330.465	1	25
330.636	1	40
330.807	1	27
330.978	1	25
331.149	1	34
331.320	1	29
331.492	1	38
331.663	1	33
331.834	1	33
332.005	1	33
332.176	1	27
332.347	1	24
332.518	1	38
332.689	1	34
332.860	1	34
333.031	1	41
333.202	1	28
333.373	1	43
333.544	1	33
333.715	1	35
333.886	1	29
334.057	1	30
334.228	1	38
334.399	1	36
334.570	1	36
334.741	1	43
334.912	1	40
335.084	1	43
335.255	1	49
335.426	1	40
335.597	1	43
335.768	1	58
335.939	1	42
336.110	1	46
336.281	1	39
336.452	1	53
336.623	1	44
336.794	1	36
336.965	1	41
337.136	1	51
337.307	1	46
337.478	1	44
337.649	1	45
337.820	1	42
337.991	1	46
338.162	1	43
338.333	1	41
338.504	1	60
338.675	1	32
338.846	1	38
339.017	1	50
339.188	1	43
339.359	1	47
339.530	1	46
339.701	1	51
339.872	1	65
340.043	1	39
340.214	1	57
340.385	1	39
340.556	1	62
340.727	1	44
340.898	1	49
341.069	1	55
341.240	1	52
341.411	1	49
341.582	1	51
341.753	1	51
341.924	1	61
342.095	1	53
342.266	1	56
342.437	1	51
342.608	1	59
342.779	1	45
342.950	1	43
343.121	1	68
343.292	1	59
343.463	1	65
343.634	1	57
343.805	1	64
343.976	1	70
344.147	1	63
344.318	1	47
344.489	1	48
344.660	1	69
344.831	1	70
345.002	1	61
345.173	1	50
345.344	1	56
345.515	1	62
345.686	1	58
345.857	1	64
346.028	1	51
346.199	1	67
346.370	1	62
346.541	1	50
346.712	1	54
346.883	1	61
347.054	1	70
347.225	1	65
347.396	1	66
347.567	1	63
347.738	1	66
347.909	1	60
348.080	1	58
348.251	1	67
348.422	1	67
348.593	1	65
348.764	1	71
348.935	1	71
349.106	1	63
349.277	1	63
349.448	1	64
349.619	1	64
349.790	1	76
349.961	1	72
350.132	1	77
350.303	1	76
350.474	1	78
350.645	1	72
350.816	1	70
350.987	1	83
351.157	1	72
351.328	1	72
351.499	1	79
351.670	1	88
351.841	1	81
352.012	1	77
352.183	1	82
352.354	1	70
352.525	1	86
352.696	1	73
352.867	1	88
353.038	1	81
353.209	1	77
353.380	1	76
353.551	1	87
353.722	1	78
353.893	1	83
354.064	1	81
354.235	1	83
354.406	1	62
354.576	1	70
354.747	1	92
354.918	1	92
355.089	1	77
355.260	1	80
355.431	1	79
355.602	1	73
355.773	1	73
355.944	1	71
356.115	1	88
356.286	1	96
356.457	1	83
356.628	1	87
356.799	1	88
356.970	1	98
357.141	1	89
357.311	1	105
357.482	1	86
357.653	1	81
357.824	1	96
357.995	1	91
358.166	1	83
358.337	1	92
358.508	1	93
358.679	1	83
358.850	1	109
359.021	1	89
359.192	1	106
359.363	1	82
359.533	1	93
359.704	1	89
359.875	1	94
360.046	1	92
360.217	1	102
360.388	1	96
360.559	1	98
360.730	1	84
360.901	1	95
361.072	1	97
361.243	1	99
361.414	1	100
361.584	1	83
361.755	1	99
361.926	1	106
362.097	1	99
362.268	1	103
362.439	1	83
362.610	1	96
362.781	1	89
362.952	1	106
363.123	1	92
363.293	1	80
363.464	1	89
363.635	1	94
363.806	1	103
363.977	1	91
364.148	1	96
364.319	1	84
364.490	1	106
364.661	1	99
364.832	1	105
365.002	1	98
365.173	1	105
365.344	1	88
365.515	1	98
365.686	1	95
365.857	1	111
366.028	1	102
366.199	1	105
366.370	1	101
366.540	1	101
366.711	1	102
366.882	1	107
367.053	1	102
367.224	1	115
367.395	1	99
367.566	1	108
367.737	1	95
367.908	1	102
368.078	1	106
368.249	1	103
368.420	1	99
368.591	1	107
368.762	1	97
368.933	1	107
369.104	1	100
369.274	1	109
369.445	1	104
369.616	1	110
369.787	1	102
369.958	1	102
370.129	1	97
370.300	1	102
370.471	1	97
370.641	1	109
370.812	1	112
370.983	1	96
371.154	1	109
371.325	1	101
371.496	1	101
371.667	1	107
371.837	1	91
372.008	1	99
372.179	1	105
372.350	1	107
372.521	1	109
372.692	1	106
372.863	1	109
373.033	1	93
373.204	1	109
373.375	1	94
373.546	1	107
373.717	1	108
373.888	1	115
374.059	1	117
374.229	1	103
374.400	1	111
374.571	1	107
374.742	1	109
374.913	1	97
375.084	1	112
375.254	1	110
375.425	1	115
375.596	1	109
375.767	1	115
375.938	1	108
376.109	1	113
376.279	1	117
376.450	1	117
376.621	1	111
376.792	1	117
376.963	1	113
377.134	1	115
377.304	1	119
377.475	1	100
377.646	1	106
377.817	1	122
377.988	1	116
378.159	1	123
378.329	1	109
378.500	1	115
378.671	1	114
378.842	1	129
379.013	1	115
379.184	1	122
379.354	1	126
379.525	1	126
379.696	1	126
379.867	1	113
380.038	1	113
380.209	1	126
380.379	1	124
380.550	1	106
380.721	1	116
380.892	1	108
381.063	1	118
381.233	1	116
381.404	1	122
381.575	1	115
381.746	1	117
381.917	1	115
382.087	1	129
382.258	1	123
382.429	1	130
382.600	1	136
382.771	1	118
382.941	1	122
383.112	1	133
383.283	1	137
383.454	1	121
383.625	1	123
383.795	1	128
383.966	1	141
384.137	1	140
384.308	1	122
384.479	1	127
384.649	1	127
384.820	1	130
384.991	1	138
385.162	1	126
385.333	1	127
385.503	1	132
385.674	1	138
385.845	1	135
386.016	1	130
386.187	1	130
386.357	1	139
386.528	1	127
386.699	1	139
386.870	1	138
387.041	1	154
387.211	1	150
387.382	1	148
387.553	1	153
387.724	1	136
387.894	1	131
388.065	1	132
388.236	1	133
388.407	1	137
388.578	1	146
388.748	1	131
388.919	1	145
389.090	1	147
389.261	1	142
389.431	1	132
389.602	1	138
389.773	1	140
389.944	1	142
390.114	1	143
390.285	1	146
390.456	1	142
390.627	1	139
390.798	1	131
390.968	1	135
391.139	1	134
391.310	1	135
391.481	1	134
391.651	1	150
391.822	1	157
391.993	1	131
392.164	1	138
392.334	1	140
392.505	1	126
392.676	1	130
392.847	1	129
393.017	1	143
393.188	1	147
393.359	1	147
393.530	1	157
393.700	1	140
393.871	1	159
394.042	1	148
394.213	1	136
394.383	1	142
394.554	1	144
394.725	1	134
394.896	1	165
395.066	1	157
395.237	1	149
395.408	1	142
395.579	1	153
395.749	1	147
395.920	1	158
396.091	1	147
396.262	1	143
396.432	1	156
396.603	1	154
396.774	1	147
396.945	1	168
397.115	1	166
397.286	1	153
397.457	1	153
397.627	1	154
397.798	1	151
397.969	1	163
398.140	1	149
398.310	1	156
398.481	1	153
398.652	1	159
398.823	1	169
398.993	1	156
399.164	1	164
399.335	1	161
399.505	1	146
399.676	1	168
399.847	1	144
400.018	1	149
400.188	1	167
400.359	1	156
400.530	1	148
400.700	1	162
400.871	1	153
401.042	1	150
401.213	1	152
401.383	1	148
401.554	1	149
401.725	1	140
401.895	1	136
402.066	1	158
402.237	1	151
402.408	1	168
402.578	1	157
402.749	1	158
402.920	1	156
403.090	1	163
403.261	1	158
403.432	1	164
403.603	1	148
403.773	1	156
403.944	1	152
404.115	1	143
404.285	1	152
404.456	1	153
404.627	1	160
404.797	1	144
404.968	1	165
405.139	1	157
405.310	1	146
405.480	1	162
405.651	1	148
405.822	1	158
405.992	1	151
406.163	1	166
406.334	1	174
406.504	1	157
406.675	1	162
406.846	1	169
407.016	1	161
407.187	1	163
407.358	1	169
407.528	1	175
407.699	1	173
407.870	1	173
408.041	1	166
408.211	1	180
408.382	1	175
408.553	1	163
408.723	1	176
408.894	1	173
409.065	1	186
409.235	1	178
409.406	1	166
409.577	1	165
409.747	1	171
409.918	1	184
410.089	1	178
410.259	1	165
410.430	1	177
410.601	1	174
410.771	1	183
410.942	1	172
411.113	1	174
411.283	1	168
411.454	1	166
411.625	1	156
411.795	1	180
411.966	1	164
412.137	1	179
412.307	1	173
412.478	1	165
412.649	1	150
412.819	1	164
412.990	1	175
413.161	1	170
413.331	1	157
413.502	1	161
413.672	1	171
413.843	1	156
414.014	1	159
414.184	1	167
414.355	1	168
414.526	1	170
414.696	1	155
414.867	1	136
415.038	1	145
415.208	1	142
415.379	1	159
415.550	1	157
415.720	1	145
415.891	1	162
416.062	1	169
416.232	1	161
416.403	1	169
416.573	1	156
416.744	1	172
416.915	1	151
417.085	1	165
417.256	1	158
417.427	1	157
417.597	1	154
417.768	1	170
417.939	1	166
418.109	1	162
418.280	1	160
418.450	1	175
418.621	1	166
418.792	1	163
418.962	1	160
419.133	1	152
419.304	1	161
419.474	1	165
419.645	1	172
419.815	1	166
419.986	1	170
420.157	1	161
420.327	1	161
420.498	1	165
420.669	1	171
420.839	1	164
421.010	1	171
421.180	1	152
421.351	1	171
421.522	1	165
421.692	1	167
421.863	1	165
422.033	1	168
422.204	1	152
422.375	1	165
422.545	1	153
422.716	1	150
422.886	1	165
423.057	1	150
423.228	1	151
423.398	1	160
423.569	1	142
423.740	1	138
423.910	1	158
424.081	1	156
424.251	1	155
424.422	1	147
424.593	1	159
424.763	1	143
424.934	1	142
425.104	1	147
425.275	1	162
425.445	1	153
425.616	1	139
425.787	1	142
425.957	1	145
426.128	1	142
426.298	1	154
426.469	1	135
426.640	1	141
426.810	1	137
426.981	1	141
427.151	1	131
427.322	1	135
427.493	1	132
427.663	1	150
427.834	1	143
428.004	1	144
428.175	1	144
428.345	1	133
428.516	1	153
428.687	1	153
428.857	1	144
429.028	1	136
429.198	1	133
429.369	1	151
429.540	1	156
429.710	1	145
429.881	1	138
430.051	1	150
430.222	1	136
430.392	1	147
430.563	1	140
430.734	1	142
430.904	1	145
431.075	1	150
431.245	1	130
431.416	1	142
431.586	1	133
431.757	1	155
431.927	1	147
432.098	1	150
432.269	1	145
432.439	1	140
432.610	1	142
432.780	1	141
432.951	1	145
433.121	1	148
433.292	1	148
433.462	1	128
433.633	1	121
433.804	1	142
433.974	1	149
434.145	1	145
434.315	1	138
434.486	1	134
434.656	1	151
434.827	1	152
434.997	1	154
435.168	1	122
435.339	1	151
435.509	1	149
435.680	1	143
435.850	1	125
436.021	1	130
436.191	1	126
436.362	1	135
436.532	1	144
436.703	1	127
436.873	1	120
437.044	1	129
437.214	1	143
437.385	1	137
437.556	1	137
437.726	1	133
437.897	1	131
438.067	1	135
438.238	1	129
438.408	1	137
438.579	1	122
438.749	1	132
438.920	1	143
439.090	1	123
439.261	1	121
439.431	1	122
439.602	1	126
439.772	1	130
439.943	1	122
440.113	1	119
440.284	1	130
440.455	1	125
440.625	1	141
440.796	1	123
440.966	1	125
441.137	1	125
441.307	1	127
441.478	1	120
441.648	1	128
441.819	1	128
441.989	1	136
442.160	1	124
442.330	1	127
442.501	1	113
442.671	1	136
442.842	1	110
443.012	1	110
443.183	1	126
443.353	1	114
443.524	1	134
443.694	1	124
443.865	1	134
444.035	1	125
444.206	1	122
444.376	1	124
444.547	1	119
444.717	1	125
444.888	1	103
445.058	1	132
445.229	1	118
445.399	1	125
445.570	1	127
445.740	1	128
445.911	1	135
446.081	1	121
446.252	1	114
446.422	1	117
446.593	1	124
446.763	1	125
446.934	1	108
447.104	1	121
447.275	1	120
447.445	1	127
447.616	1	122
447.786	1	123
447.957	1	118
448.127	1	114
448.298	1	128
448.468	1	119
448.639	1	117
448.809	1	116
448.979	1	127
449.150	1	116
449.320	1	124
449.491	1	111
449.661	1	117
449.832	1	111
450.002	1	111
450.173	1	122
450.343	1	112
450.514	1	127
450.684	1	119
450.855	1	120
451.025	1	112
451.196	1	107
451.366	1	120
451.537	1	119
451.707	1	115
451.878	1	109
452.048	1	103
452.218	1	110
452.389	1	104
452.559	1	123
452.730	1	104
452.900	1	117
453.071	1	115
453.241	1	114
453.412	1	108
453.582	1	96
453.753	1	120
453.923	1	95
454.093	1	102
454.264	1	110
454.434	1	111
454.605	1	108
454.775	1	108
454.946	1	100
455.116	1	108
455.287	1	99
455.457	1	116
455.628	1	99
455.798	1	107
455.968	1	109
456.139	1	105
456.309	1	96
456.480	1	111
456.650	1	102
456.821	1	100
456.991	1	98
457.161	1	106
457.332	1	97
457.502	1	89
457.673	1	94
457.843	1	100
458.014	1	105
458.184	1	109
458.355	1	109
458.525	1	98
458.695	1	102
458.866	1	93
459.036	1	101
459.207	1	98
459.377	1	114
459.548	1	95
459.718	1	103
459.888	1	89
460.059	1	93
460.229	1	93
460.400	1	104
460.570	1	102
460.740	1	90
460.911	1	86
461.081	1	95
461.252	1	103
461.422	1	91
461.593	1	95
461.763	1	104
461.933	1	90
462.104	1	92
462.274	1	92
462.445	1	96
462.615	1	87
462.785	1	111
462.956	1	85
463.126	1	92
463.297	1	93
463.467	1	105
463.638	1	98
463.808	1	93
463.978	1	76
464.149	1	92
464.319	1	99
464.490	1	78
464.660	1	77
464.830	1	92
465.001	1	85
465.171	1	74
465.342	1	87
465.512	1	88
465.682	1	78
465.853	1	92
466.023	1	87
466.194	1	85
466.364	1	89
466.534	1	81
466.705	1	91
466.875	1	78
467.045	1	80
467.216	1	82
467.386	1	91
467.557	1	88
467.727	1	90
467.897	1	94
468.068	1	78
468.238	1	86
468.409	1	82
468.579	1	80
468.749	1	82
468.920	1	78
469.090	1	76
469.260	1	82
469.431	1	81
469.601	1	80
469.772	1	90
469.942	1	83
470.112	1	74
470.283	1	87
470.453	1	78
470.623	1	78
470.794	1	83
470.964	1	73
471.135	1	89
471.305	1	69
471.475	1	84
471.646	1	78
471.816	1	83
471.986	1	84
472.157	1	76
472.327	1	82
472.497	1	82
472.668	1	76
472.838	1	68
473.009	1	74
473.179	1	76
473.349	1	72
473.520	1	91
473.690	1	82
473.860	1	63
474.031	1	62
474.201	1	75
474.371	1	89
474.542	1	81
474.712	1	70
474.882	1	79
475.053	1	85
475.223	1	71
475.394	1	74
475.564	1	82
475.734	1	76
475.905	1	79
476.075	1	85
476.245	1	80
476.416	1	72
476.586	1	76
476.756	1	80
476.927	1	74
477.097	1	73
477.267	1	73
477.438	1	83
477.608	1	84
477.778	1	68
477.949	1	64
478.119	1	71
478.289	1	59
478.460	1	67
478.630	1	66
478.800	1	75
478.971	1	75
479.141	1	78
479.311	1	78
479.482	1	77
479.652	1	80
479.822	1	58
479.993	1	65
480.163	1	75
480.333	1	69
480.504	1	69
480.674	1	69
480.844	1	67
481.015	1	78
481.185	1	70
481.355	1	68
481.525	1	50
481.696	1	75
481.866	1	70
482.036	1	82
482.207	1	74
482.377	1	68
482.547	1	63
482.718	1	67
482.888	1	68
483.058	1	62
483.229	1	68
483.399	1	59
483.569	1	58
483.740	1	59
483.910	1	53
484.080	1	74
484.250	1	57
484.421	1	56
484.591	1	63
484.761	1	77
484.932	1	55
485.102	1	71
485.272	1	55
485.443	1	69
485.613	1	55
485.783	1	61
485.953	1	52
486.124	1	66
486.294	1	70
486.464	1	64
486.635	1	62
486.805	1	60
486.975	1	48
487.146	1	61
487.316	1	66
487.486	1	62
487.656	1	58
487.827	1	54
487.997	1	59
488.167	1	54
488.338	1	62
488.508	1	64
488.678	1	51
488.848	1	57
489.019	1	52
489.189	1	61
489.359	1	42
489.529	1	65
489.700	1	51
489.870	1	63
490.040	1	47
490.211	1	58
490.381	1	67
490.551	1	52
490.721	1	57
490.892	1	31
491.062	1	52
491.232	1	41
491.402	1	53
491.573	1	60
491.743	1	55
491.913	1	57
492.084	1	64
492.254	1	56
492.424	1	55
492.594	1	46
492.765	1	55
492.935	1	66
493.105	1	52
493.275	1	49
493.446	1	42
493.616	1	43
493.786	1	58
493.956	1	54
494.127	1	46
494.297	1	46
494.467	1	48
494.637	1	47
494.808	1	64
494.978	1	51
495.148	1	42
495.318	1	54
495.489	1	52
495.659	1	54
495.829	1	43
495.999	1	66
496.170	1	58
496.340	1	43
496.510	1	51
496.680	1	49
496.851	1	62
497.021	1	47
497.191	1	55
497.361	1	37
497.532	1	59
497.702	1	57
497.872	1	60
498.042	1	49
498.213	1	36
498.383	1	57
498.553	1	49
498.723	1	44
498.894	1	51
499.064	1	49
499.234	1	51
499.404	1	44
499.574	1	57
499.745	1	49
499.915	1	50
500.085	1	46
500.255	1	42
500.426	1	48
500.596	1	39
500.766	1	36
500.936	1	40
501.106	1	45
501.277	1	45
501.447	1	50
501.617	1	44
501.787	1	36
501.958	1	55
502.128	1	51
502.298	1	54
502.468	1	39
502.638	1	42
502.809	1	30
502.979	1	48
503.149	1	40
503.319	1	54
503.489	1	27
503.660	1	35
503.830	1	38
504.000	1	47
504.170	1	42
504.340	1	43
504.511	1	40
504.681	1	41
504.851	1	40
505.021	1	46
505.192	1	30
505.362	1	39
505.532	1	45
505.702	1	58
505.872	1	39
506.043	1	48
506.213	1	42
506.383	1	40
506.553	1	50
506.723	1	36
506.893	1	49
507.064	1	45
507.234	1	39
507.404	1	38
507.574	1	37
507.744	1	35
507.915	1	40
508.085	1	31
508.255	1	39
508.425	1	42
508.595	1	30
508.766	1	37
508.936	1	42
509.106	1	37
509.276	1	40
509.446	1	39
509.616	1	32
509.787	1	40
509.957	1	47
510.127	1	40
510.297	1	33
510.467	1	35
510.638	1	35
510.808	1	41
510.978	1	38
511.148	1	40
511.318	1	36
511.488	1	43
511.659	1	36
511.829	1	34
511.999	1	34
512.169	1	43
512.339	1	49
512.509	1	32
512.680	1	39
512.850	1	40
513.020	1	40
513.190	1	28
513.360	1	38
513.530	1	26
513.700	1	36
513.871	1	24
514.041	1	37
514.211	1	39
514.381	1	33
514.551	1	32
514.721	1	32
514.892	1	44
515.062	1	32
515.232	1	32
515.402	1	33
515.572	1	34
515.742	1	45
515.912	1	36
516.083	1	43
516.253	1	42
516.423	1	41
516.593	1	29
516.763	1	32
516.933	1	36
517.104	1	41
517.274	1	27
517.444	1	37
517.614	1	30
517.784	1	31
517.954	1	26
518.124	1	38
518.294	1	38
518.465	1	26
518.635	1	47
518.805	1	37
518.975	1	39
519.145	1	31
519.315	1	42
519.485	1	24
519.656	1	18
519.826	1	14
519.996	1	37
520.166	1	16
520.336	1	32
520.506	1	42
520.676	1	39
520.846	1	37
521.017	1	27
521.187	1	37
521.357	1	27
521.527	1	29
521.697	1	32
521.867	1	30
522.037	1	36
522.207	1	34
522.377	1	37
522.548	1	28
522.718	1	30
522.888	1	34
523.058	1	27
523.228	1	35
523.398	1	25
523.568	1	30
523.738	1	27
523.909	1	28
524.079	1	37
524.249	1	23
524.419	1	31
524.589	1	31
524.759	1	33
524.929	1	23
525.099	1	25
525.269	1	23
525.439	1	21
525.610	1	35
525.780	1	29
525.950	1	21
526.120	1	19
526.290	1	17
526.460	1	16
526.630	1	37
526.800	1	19
526.970	1	23
527.140	1	22
527.311	1	19
527.481	1	26
527.651	1	27
527.821	1	24
527.991	1	15
528.161	1	28
528.331	1	21
528.501	1	21
528.671	1	33
528.841	1	20
529.011	1	20
529.181	1	22
529.352	1	27
529.522	1	26
529.692	1	25
529.862	1	29
530.032	1	22
530.202	1	14
530.372	1	32
530.542	1	29
530.712	1	20
530.882	1	30
531.052	1	31
531.222	1	23
531.392	1	28
531.563	1	33
531.733	1	13
531.903	1	25
532.073	1	22
532.243	1	31
532.413	1	48
532.583	1	22
532.753	1	20
532.923	1	27
533.093	1	20
533.263	1	28
533.433	1	15
533.603	1	24
533.773	1	28
533.943	1	18
534.113	1	31
534.284	1	30
534.454	1	22
534.624	1	29
534.794	1	22
534.964	1	32
535.134	1	18
535.304	1	32
535.474	1	28
535.644	1	21
535.814	1	29
535.984	1	22
536.154	1	20
536.324	1	25
536.494	1	28
536.664	1	16
536.834	1	30
537.004	1	25
537.174	1	27
537.344	1	26
537.514	1	25
537.685	1	22
537.855	1	27
538.025	1	34
538.195	1	16
538.365	1	21
538.535	1	21
538.705	1	15
538.875	1	19
539.045	1	31
539.215	1	8
539.385	1	14
539.555	1	24
539.725	1	19
539.895	1	31
540.065	1	25
540.235	1	15
540.405	1	27
540.575	1	28
540.745	1	20
540.915	1	24
541.085	1	20
541.255	1	14
541.425	1	26
541.595	1	20
541.765	1	20
541.935	1	19
542.105	1	17
542.275	1	17
542.445	1	25
542.615	1	21
542.785	1	13
542.955	1	38
543.125	1	10
543.295	1	18
543.465	1	28
543.635	1	13
543.805	1	26
543.975	1	11
544.145	1	24
544.315	1	8
544.485	1	14
544.655	1	24
544.825	1	28
544.995	1	9
545.165	1	26
545.335	1	30
545.505	1	18
545.675	1	26
545.845	1	29
546.015	1	12
546.185	1	10
546.355	1	25
546.525	1	18
546.695	1	19
546.865	1	30
547.035	1	19
547.205	1	18
547.375	1	21
547.545	1	19
547.715	1	22
547.885	1	8
548.055	1	14
548.225	1	25
548.395	1	24
548.565	1	11
548.735	1	7
548.905	1	19
549.075	1	14
549.245	1	21
549.415	1	17
549.585	1	18
549.755	1	23
549.925	1	17
550.095	1	4
550.265	1	14
550.435	1	21
550.605	1	10
550.775	1	7
550.945	1	18
551.115	1	29
551.285	1	24
551.455	1	23
551.625	1	4
551.795	1	22
551.965	1	7
552.135	1	15
552.305	1	25
552.475	1	24
552.645	1	10
552.815	1	11
552.985	1	14
553.155	1	14
553.325	1	13
553.495	1	15
553.665	1	20
553.835	1	26
554.004	1	15
554.174	1	6
554.344	1	20
554.514	1	20
554.684	1	21
554.854	1	7
555.024	1	19
555.194	1	16
555.364	1	11
555.534	1	9
555.704	1	14
555.874	1	14
556.044	1	11
556.214	1	23
556.384	1	26
556.554	1	13
556.724	1	14
556.894	1	10
557.064	1	8
557.234	1	19
557.404	1	7
557.573	1	16
557.743	1	3
557.913	1	19
558.083	1	17
558.253	1	12
558.423	1	7
558.593	1	23
558.763	1	11
558.933	1	10
559.103	1	17
559.273	1	14
559.443	1	20
559.613	1	10
559.783	1	10
559.953	1	5
560.122	1	17
560.292	1	10
560.462	1	7
560.632	1	8
560.802	1	16
560.972	1	-3
561.142	1	14
561.312	1	7
561.482	1	14
561.652	1	12
561.822	1	5
561.992	1	20
562.162	1	17
562.331	1	6
562.501	1	17
562.671	1	8
562.841	1	4
563.011	1	15
563.181	1	10
563.351	1	0
563.521	1	11
563.691	1	23
563.861	1	8
564.031	1	20
564.201	1	13
564.370	1	15
564.540	1	8
564.710	1	13
564.880	1	14
565.050	1	10
565.220	1	23
565.390	1	10
565.560	1	13
565.730	1	13
565.900	1	14
566.069	1	21
566.239	1	14
566.409	1	19
566.579	1	10
566.749	1	6
566.919	1	4
567.089	1	4
567.259	1	21
567.429	1	2
567.599	1	22
567.768	1	11
567.938	1	13
568.108	1	5
568.278	1	13
568.448	1	13
568.618	1	12
568.788	1	18
568.958	1	7
569.128	1	12
569.297	1	0
569.467	1	25
569.637	1	10
569.807	1	18
569.977	1	-1
570.147	1	4
570.317	1	16
570.487	1	7
570.656	1	20
570.826	1	13
570.996	1	12
571.166	1	14
571.336	1	5
571.506	1	7
571.676	1	17
571.846	1	16
572.015	1	13
572.185	1	15
572.355	1	8
572.525	1	4
572.695	1	3
572.865	1	24
573.035	1	21
573.205	1	3
573.374	1	5
573.544	1	11
573.714	1	12
573.884	1	3
574.054	1	8
574.224	1	17
574.394	1	0
574.563	1	6
574.733	1	19
574.903	1	19
575.073	1	16
575.243	1	10
575.413	1	5
575.583	1	8
575.752	1	9
575.922	1	18
576.092	1	13
576.262	1	6
576.432	1	10
576.602	1	18
576.772	1	10
576.941	1	8
577.111	1	3
577.281	1	7
577.451	1	16
577.621	1	15
577.791	1	10
577.960	1	10
578.130	1	16
578.300	1	7
578.470	1	20
578.640	1	-3
578.810	1	22
578.979	1	15
579.149	1	10
579.319	1	15
579.489	1	17
579.659	1	8
579.829	1	12
579.998	1	-2
580.168	1	9
580.338	1	5
580.508	1	0
580.678	1	18
580.848	1	10
581.017	1	11
581.187	1	12
581.357	1	12
581.527	1	7
581.697	1	10
581.867	1	13
582.036	1	-10
582.206	1	10
582.376	1	11
582.546	1	4
582.716	1	19
582.885	1	10
583.055	1	5
583.225	1	15
583.395	1	13
583.565	1	20
583.735	1	14
583.904	1	8
584.074	1	8
584.244	1	6
584.414	1	10
584.584	1	12
584.753	1	18
584.923	1	4
585.093	1	17
585.263	1	12
585.433	1	15
585.602	1	8
585.772	1	17
585.942	1	3
586.112	1	0
586.282	1	14
586.451	1	27
586.621	1	9
586.791	1	9
586.961	1	14
587.131	1	4
587.300	1	26
587.470	1	7
587.640	1	8
587.810	1	4
587.980	1	11
588.149	1	15
588.319	1	18
588.489	1	22
588.659	1	2
588.829	1	8
588.998	1	9
589.168	1	10
589.338	1	10
589.508	1	8
589.677	1	3
589.847	1	10
590.017	1	0
590.187	1	5
590.357	1	2
590.526	1	6
590.696	1	14
590.866	1	4
591.036	1	8
591.205	1	11
591.375	1	16
591.545	1	5
591.715	1	11
591.885	1	13
592.054	1	8
592.224	1	4
592.394	1	-8
592.564	1	6
592.733	1	3
592.903	1	9
593.073	1	-5
593.243	1	22
593.412	1	11
593.582	1	10
593.752	1	1
593.922	1	15
594.091	1	11
594.261	1	-5
594.431	1	16
594.601	1	5
594.771	1	7
594.940	1	8
595.110	1	20
595.280	1	13
595.450	1	11
595.619	1	11
595.789	1	-2
595.959	1	18
596.129	1	13
596.298	1	19
596.468	1	7
596.638	1	8
596.808	1	-2
596.977	1	10
597.147	1	14
597.317	1	9
597.487	1	11
597.656	1	11
597.826	1	18
597.996	1	14
598.166	1	5
598.335	1	5
598.505	1	13
598.675	1	8
598.844	1	17
599.014	1	8
599.184	1	11
599.354	1	21
599.523	1	11
599.693	1	5
599.863	1	8
600.033	1	21
600.202	1	6
600.372	1	6
600.542	1	10
600.712	1	13
600.881	1	13
601.051	1	17
601.221	1	15
601.390	1	10
601.560	1	14
601.730	1	5
601.900	1	17
602.069	1	19
602.239	1	17
602.409	1	17
602.578	1	16
602.748	1	21
602.918	1	2
603.088	1	20
603.257	1	5
603.427	1	10
603.597	1	8
603.767	1	14
603.936	1	21
604.106	1	2
604.276	1	10
604.445	1	5
604.615	1	19
604.785	1	20
604.954	1	5
605.124	1	7
605.294	1	5
605.464	1	11
605.633	1	12
605.803	1	19
605.973	1	14
606.142	1	23
606.312	1	23
606.482	1	6
606.652	1	9
606.821	1	14
606.991	1	15
607.161	1	-3
607.330	1	13
607.500	1	13
607.670	1	13
607.839	1	13
608.009	1	9
608.179	1	13
608.348	1	24
608.518	1	23
608.688	1	16
608.858	1	9
609.027	1	19
609.197	1	15
609.367	1	9
609.536	1	10
609.706	1	20
609.876	1	27
610.045	1	19
610.215	1	5
610.385	1	7
610.554	1	21
610.724	1	3
610.894	1	15
611.063	1	14
611.233	1	14
611.403	1	14
611.572	1	21
611.742	1	12
611.912	1	15
612.081	1	21
612.251	1	20
612.421	1	9
612.590	1	22
612.760	1	16
612.930	1	13
613.099	1	14
613.269	1	12
613.439	1	7
613.608	1	13
613.778	1	8
613.948	1	21
614.117	1	7
614.287	1	13
614.457	1	11
614.626	1	7
614.796	1	11
614.966	1	14
615.135	1	28
615.305	1	17
615.475	1	6
615.644	1	24
615.814	1	20
615.984	1	1
616.153	1	11
616.323	1	6
616.493	1	14
616.662	1	8
616.832	1	18
617.002	1	12
617.171	1	17
617.341	1	24
617.511	1	8
617.680	1	3
617.850	1	11
618.019	1	4
618.189	1	28
618.359	1	14
618.528	1	15
618.698	1	17
618.868	1	6
619.037	1	15
619.207	1	12
619.377	1	9
619.546	1	23
619.716	1	13
619.885	1	15
620.055	1	3
620.225	1	16
620.394	1	19
620.564	1	18
620.734	1	15
620.903	1	-2
621.073	1	27
621.242	1	24
621.412	1	17
621.582	1	17
621.751	1	9
621.921	1	15
622.091	1	19
622.260	1	23
622.430	1	22
622.599	1	16
622.769	1	9
622.939	1	5
623.108	1	7
623.278	1	11
623.448	1	16
623.617	1	16
623.787	1	26
623.956	1	19
624.126	1	21
624.296	1	25
624.465	1	22
624.635	1	13
624.804	1	7
624.974	1	10
625.144	1	18
625.313	1	22
625.483	1	17
625.652	1	20
625.822	1	25
625.992	1	13
626.161	1	19
626.331	1	11
626.501	1	10
626.670	1	9
626.840	1	18
627.009	1	22
627.179	1	19
627.348	1	20
627.518	1	21
627.688	1	19
627.857	1	25
628.027	1	25
628.196	1	20
628.366	1	6
628.536	1	11
628.705	1	7
628.875	1	8
629.044	1	7
629.214	1	8
629.384	1	26
629.553	1	15
629.723	1	19
629.892	1	21
630.062	1	20
630.232	1	21
630.401	1	17
630.571	1	20
630.740	1	10
630.910	1	25
631.079	1	20
631.249	1	21
631.419	1	12
631.588	1	13
631.758	1	15
631.927	1	22
632.097	1	19
632.266	1	20
632.436	1	19
632.606	1	16
632.775	1	15
632.945	1	20
633.114	1	12
633.284	1	12
633.453	1	22
633.623	1	29
633.793	1	18
633.962	1	18
634.132	1	24
634.301	1	25
634.471	1	21
634.640	1	19
634.810	1	18
634.979	1	16
635.149	1	30
635.319	1	10
635.488	1	23
635.658	1	24
635.827	1	22
635.997	1	24
636.166	1	23
636.336	1	25
636.505	1	22
636.675	1	18
636.845	1	20
637.014	1	7
637.184	1	25
637.353	1	16
637.523	1	20
637.692	1	19
637.862	1	19
638.031	1	9
638.201	1	19
638.370	1	27
638.540	1	11
638.710	1	11
638.879	1	20
639.049	1	15
639.218	1	27
639.388	1	22
639.557	1	20
639.727	1	19
639.896	1	17
640.066	1	20
640.235	1	17
640.405	1	22
640.574	1	21
640.744	1	18
640.914	1	20
641.083	1	39
641.253	1	21
641.422	1	12
641.592	1	28
641.761	1	14
641.931	1	26
642.100	1	17
642.270	1	17
642.439	1	27
642.609	1	22
642.778	1	28
642.948	1	35
643.117	1	19
643.287	1	34
643.456	1	17
643.626	1	17
643.795	1	23
643.965	1	12
644.134	1	21
644.304	1	17
644.473	1	17
644.643	1	22
644.812	1	14
644.982	1	21
645.151	1	20
645.321	1	27
645.490	1	32
645.660	1	9
645.829	1	23
645.999	1	26
646.168	1	31
646.338	1	29
646.507	1	17
646.677	1	17
646.846	1	28
647.016	1	27
647.185	1	28
647.355	1	41
647.524	1	23
647.694	1	25
647.863	1	18
648.033	1	26
648.202	1	37
648.372	1	6
648.541	1	29
648.711	1	29
648.880	1	36
649.050	1	38
649.219	1	29
649.389	1	16
649.558	1	36
649.728	1	22
649.897	1	28
650.067	1	32
650.236	1	10
650.406	1	22
650.575	1	24
650.745	1	18
650.914	1	32
651.084	1	21
651.253	1	19
651.423	1	19
651.592	1	30
651.762	1	14
651.931	1	38
652.101	1	15
652.270	1	23
652.440	1	30
652.609	1	26
652.778	1	38
652.948	1	33
653.117	1	15
653.287	1	18
653.456	1	7
653.626	1	21
653.795	1	25
653.965	1	23
654.134	1	17
654.304	1	28
654.473	1	27
654.643	1	17
654.812	1	39
654.982	1	26
655.151	1	27
655.320	1	20
655.490	1	26
655.659	1	26
655.829	1	29
655.998	1	27
656.168	1	16
656.337	1	31
656.507	1	20
656.676	1	18
656.846	1	31
657.015	1	32
657.184	1	26
657.354	1	25
657.523	1	26
657.693	1	28
657.862	1	21
658.032	1	27
658.201	1	35
658.371	1	25
658.540	1	13
658.709	1	36
658.879	1	38
659.048	1	24
659.218	1	25
659.387	1	28
659.557	1	29
659.726	1	31
659.895	1	16
660.065	1	19
660.234	1	29
660.404	1	29
660.573	1	31
660.743	1	27
660.912	1	33
661.081	1	24
661.251	1	23
661.420	1	30
661.590	1	28
661.759	1	30
661.929	1	23
662.098	1	27
662.267	1	24
662.437	1	38
662.606	1	21
662.776	1	44
662.945	1	38
663.115	1	38
663.284	1	32
663.453	1	20
663.623	1	24
663.792	1	36
663.962	1	41
664.131	1	26
664.300	1	24
664.470	1	19
664.639	1	25
664.809	1	28
664.978	1	40
665.148	1	36
665.317	1	33
665.486	1	30
665.656	1	28
665.825	1	30
665.995	1	22
666.164	1	26
666.333	1	19
666.503	1	18
666.672	1	33
666.842	1	30
667.011	1	35
667.180	1	23
667.350	1	39
667.519	1	35
667.689	1	31
667.858	1	33
668.027	1	26
668.197	1	15
668.366	1	34
668.536	1	17
668.705	1	32
668.874	1	40
669.044	1	25
669.213	1	28
669.382	1	35
669.552	1	23
669.721	1	30
669.891	1	20
670.060	1	23
670.229	1	31
670.399	1	39
670.568	1	28
670.738	1	28
670.907	1	24
671.076	1	27
671.246	1	39
671.415	1	33
671.584	1	34
671.754	1	32
671.923	1	30
672.093	1	31
672.262	1	24
672.431	1	28
672.601	1	28
672.770	1	33
672.939	1	34
673.109	1	40
673.278	1	35
673.448	1	32
673.617	1	28
673.786	1	15
