325.333	1	15
325.504	1	-3
325.675	1	12
325.846	1	7
326.017	1	2
326.188	1	7
326.359	1	1
326.531	1	-8
326.702	1	-4
326.873	1	8
327.044	1	13
327.215	1	-1
327.386	1	-1
327.557	1	-6
327.728	1	0
327.899	1	5
328.070	1	6
328.241	1	1
328.412	1	1
328.583	1	-6
328.754	1	13
328.926	1	6
329.097	1	-1
329.268	1	4
329.439	1	9
329.610	1	2
329.781	1	-3
329.952	1	4
330.123	1	1
330.294	1	-4
330.465	1	-6
330.636	1	0
330.807	1	5
330.978	1	-5
331.149	1	4
331.320	1	-1
331.492	1	2
331.663	1	-9
331.834	1	1
332.005	1	9
332.176	1	2
332.347	1	0
332.518	1	11
332.689	1	9
332.860	1	-1
333.031	1	6
333.202	1	-7
333.373	1	5
333.544	1	3
333.715	1	1
333.886	1	10
334.057	1	-8
334.228	1	4
334.399	1	9
334.570	1	0
334.741	1	4
334.912	1	-6
335.084	1	2
335.255	1	13
335.426	1	3
335.597	1	-8
335.768	1	11
335.939	1	-2
336.110	1	-4
336.281	1	-7
336.452	1	11
336.623	1	8
336.794	1	3
336.965	1	-1
337.136	1	12
337.307	1	-9
337.478	1	9
337.649	1	-1
337.820	1	-4
337.991	1	-4
338.162	1	1
338.333	1	2
338.504	1	7
338.675	1	-5
338.846	1	-13
339.017	1	-3
339.188	1	1
339.359	1	7
339.530	1	-4
339.701	1	-2
339.872	1	5
340.043	1	7
340.214	1	7
340.385	1	-2
340.556	1	8
340.727	1	-3
340.898	1	12
341.069	1	-1
341.240	1	-1
341.411	1	3
341.582	1	-3
341.753	1	-2
341.924	1	17
342.095	1	2
342.266	1	9
342.437	1	3
342.608	1	7
342.779	1	6
342.950	1	-5
343.121	1	9
343.292	1	2
343.463	1	19
343.634	1	-9
343.805	1	1
343.976	1	14
344.147	1	13
344.318	1	-6
344.489	1	-6
344.660	1	8
344.831	1	8
345.002	1	-5
345.173	1	1
345.344	1	2
345.515	1	-8
345.686	1	3
345.857	1	3
346.028	1	-2
346.199	1	10
346.370	1	8
346.541	1	-4
346.712	1	11
346.883	1	-5
347.054	1	2
347.225	1	3
347.396	1	1
347.567	1	-1
347.738	1	2
347.909	1	-4
348.080	1	1
348.251	1	2
348.422	1	2
348.593	1	7
348.764	1	-3
348.935	1	10
349.106	1	-4
349.277	1	2
349.448	1	0
349.619	1	-4
349.790	1	-2
349.961	1	-5
350.132	1	1
350.303	1	-2
350.474	1	4
350.645	1	-3
350.816	1	-10
350.987	1	8
351.157	1	-5
351.328	1	-2
351.499	1	-8
351.670	1	-3
351.841	1	0
352.012	1	5
352.183	1	6
352.354	1	-5
352.525	1	3
352.696	1	3
352.867	1	6
353.038	1	-1
353.209	1	1
353.380	1	-3
353.551	1	7
353.722	1	5
353.893	1	9
354.064	1	-5
354.235	1	-6
354.406	1	-5
354.576	1	-2
354.747	1	4
354.918	1	-4
355.089	1	0
355.260	1	-2
355.431	1	2
355.602	1	4
355.773	1	-1
355.944	1	-2
356.115	1	14
356.286	1	5
356.457	1	4
356.628	1	-1
356.799	1	4
356.970	1	-1
357.141	1	-2
357.311	1	11
357.482	1	-5
357.653	1	-8
357.824	1	0
357.995	1	4
358.166	1	2
358.337	1	-1
358.508	1	10
358.679	1	-3
358.850	1	8
359.021	1	3
359.192	1	6
359.363	1	5
359.533	1	1
359.704	1	-9
359.875	1	-4
360.046	1	8
360.217	1	14
360.388	1	7
360.559	1	12
360.730	1	-9
360.901	1	-3
361.072	1	8
361.243	1	-3
361.414	1	9
361.584	1	-10
361.755	1	15
361.926	1	-1
362.097	1	-1
362.268	1	8
362.439	1	-1
362.610	1	7
362.781	1	-9
362.952	1	7
363.123	1	-10
363.293	1	-3
363.464	1	-1
363.635	1	7
363.806	1	8
363.977	1	5
364.148	1	3
364.319	1	-9
364.490	1	6
364.661	1	-2
364.832	1	-6
365.002	1	7
365.173	1	2
365.344	1	-1
365.515	1	-8
365.686	1	16
365.857	1	3
366.028	1	3
366.199	1	7
366.370	1	2
366.540	1	-2
366.711	1	7
366.882	1	-1
367.053	1	8
367.224	1	-1
367.395	1	7
367.566	1	9
367.737	1	-4
367.908	1	-2
368.078	1	-4
368.249	1	0
368.420	1	1
368.591	1	1
368.762	1	6
368.933	1	7
369.104	1	0
369.274	1	5
369.445	1	9
369.616	1	-2
369.787	1	-2
369.958	1	6
370.129	1	5
370.300	1	3
370.471	1	0
370.641	1	0
370.812	1	9
370.983	1	-3
371.154	1	-2
371.325	1	-9
371.496	1	-1
371.667	1	14
371.837	1	8
372.008	1	5
372.179	1	-4
372.350	1	4
372.521	1	9
372.692	1	1
372.863	1	0
373.033	1	2
373.204	1	3
373.375	1	-1
373.546	1	-1
373.717	1	-4
373.888	1	3
374.059	1	1
374.229	1	1
374.400	1	4
374.571	1	-2
374.742	1	3
374.913	1	-10
375.084	1	1
375.254	1	-6
375.425	1	7
375.596	1	1
375.767	1	-1
375.938	1	-7
376.109	1	-4
376.279	1	-1
376.450	1	-4
376.621	1	11
376.792	1	6
376.963	1	-3
377.134	1	2
377.304	1	8
377.475	1	3
377.646	1	2
377.817	1	4
377.988	1	5
378.159	1	-3
378.329	1	-2
378.500	1	3
378.671	1	2
378.842	1	8
379.013	1	7
379.184	1	6
379.354	1	-4
379.525	1	4
379.696	1	5
379.867	1	4
380.038	1	-3
380.209	1	8
380.379	1	8
380.550	1	-4
380.721	1	-1
380.892	1	1
381.063	1	2
381.233	1	1
381.404	1	-5
381.575	1	2
381.746	1	1
381.917	1	-3
382.087	1	7
382.258	1	-2
382.429	1	-5
382.600	1	3
382.771	1	-1
382.941	1	13
383.112	1	8
383.283	1	5
383.454	1	-7
383.625	1	-1
383.795	1	3
383.966	1	6
384.137	1	5
384.308	1	0
384.479	1	-2
384.649	1	-2
384.820	1	4
384.991	1	-7
385.162	1	11
385.333	1	11
385.503	1	-4
385.674	1	1
385.845	1	7
386.016	1	2
386.187	1	-3
386.357	1	9
386.528	1	-4
386.699	1	-6
386.870	1	-11
387.041	1	14
387.211	1	-6
387.382	1	5
387.553	1	6
387.724	1	0
387.894	1	-14
388.065	1	0
388.236	1	-2
388.407	1	6
388.578	1	3
388.748	1	9
388.919	1	-2
389.090	1	7
389.261	1	7
389.431	1	-10
389.602	1	-2
389.773	1	2
389.944	1	-4
390.114	1	8
390.285	1	5
390.456	1	0
390.627	1	-2
390.798	1	-1
390.968	1	8
391.139	1	-1
391.310	1	-3
391.481	1	2
391.651	1	6
391.822	1	8
391.993	1	1
392.164	1	-3
392.334	1	-1
392.505	1	8
392.676	1	-12
392.847	1	2
393.017	1	-3
393.188	1	6
393.359	1	11
393.530	1	10
393.700	1	2
393.871	1	3
394.042	1	-8
394.213	1	-6
394.383	1	8
394.554	1	0
394.725	1	-5
394.896	1	10
395.066	1	0
395.237	1	7
395.408	1	3
395.579	1	9
395.749	1	7
395.920	1	2
396.091	1	-6
396.262	1	-6
396.432	1	-9
396.603	1	4
396.774	1	-6
396.945	1	6
397.115	1	3
397.286	1	8
397.457	1	-5
397.627	1	-12
397.798	1	4
397.969	1	3
398.140	1	-5
398.310	1	-1
398.481	1	4
398.652	1	9
398.823	1	-1
398.993	1	-5
399.164	1	3
399.335	1	-5
399.505	1	-7
399.676	1	0
399.847	1	-5
400.018	1	-8
400.188	1	5
400.359	1	7
400.530	1	2
400.700	1	6
400.871	1	-3
401.042	1	3
401.213	1	-1
401.383	1	-5
401.554	1	1
401.725	1	4
401.895	1	-8
402.066	1	9
402.237	1	-4
402.408	1	5
402.578	1	13
402.749	1	-1
402.920	1	3
403.090	1	0
403.261	1	-7
403.432	1	6
403.603	1	6
403.773	1	6
403.944	1	0
404.115	1	-2
404.285	1	9
404.456	1	12
404.627	1	1
404.797	1	1
404.968	1	-3
405.139	1	9
405.310	1	0
405.480	1	-14
405.651	1	-6
405.822	1	2
405.992	1	9
406.163	1	-8
406.334	1	5
406.504	1	2
406.675	1	-9
406.846	1	-6
407.016	1	9
407.187	1	7
407.358	1	-7
407.528	1	-3
407.699	1	7
407.870	1	8
408.041	1	-1
408.211	1	1
408.382	1	6
408.553	1	2
408.723	1	-3
408.894	1	-4
409.065	1	9
409.235	1	-6
409.406	1	-2
409.577	1	3
409.747	1	8
409.918	1	6
410.089	1	6
410.259	1	9
410.430	1	-3
410.601	1	-5
410.771	1	-2
410.942	1	1
411.113	1	0
411.283	1	-2
411.454	1	12
411.625	1	12
411.795	1	1
411.966	1	-1
412.137	1	10
412.307	1	-2
412.478	1	-3
412.649	1	10
412.819	1	9
412.990	1	9
413.161	1	1
413.331	1	-1
413.502	1	-1
413.672	1	-1
413.843	1	2
414.014	1	-4
414.184	1	14
414.355	1	11
414.526	1	-4
414.696	1	-1
414.867	1	-1
415.038	1	-6
415.208	1	-1
415.379	1	3
415.550	1	-1
415.720	1	-10
415.891	1	8
416.062	1	7
416.232	1	13
416.403	1	5
416.573	1	-5
416.744	1	7
416.915	1	-5
417.085	1	5
417.256	1	1
417.427	1	-2
417.597	1	1
417.768	1	0
417.939	1	-8
418.109	1	3
418.280	1	-2
418.450	1	10
418.621	1	4
418.792	1	-2
418.962	1	8
419.133	1	-2
419.304	1	-1
419.474	1	-2
419.645	1	4
419.815	1	4
419.986	1	16
420.157	1	-2
420.327	1	7
420.498	1	2
420.669	1	7
420.839	1	5
421.010	1	6
421.180	1	-1
421.351	1	-6
421.522	1	-3
421.692	1	10
421.863	1	-1
422.033	1	4
422.204	1	10
422.375	1	8
422.545	1	6
422.716	1	-9
422.886	1	3
423.057	1	7
423.228	1	-8
423.398	1	2
423.569	1	0
423.740	1	-4
423.910	1	2
424.081	1	14
424.251	1	-3
424.422	1	-1
424.593	1	-7
424.763	1	8
424.934	1	3
425.104	1	15
425.275	1	-10
425.445	1	-5
425.616	1	3
425.787	1	-7
425.957	1	3
426.128	1	4
426.298	1	8
426.469	1	-12
426.640	1	2
426.810	1	-12
426.981	1	11
427.151	1	-8
427.322	1	1
427.493	1	-4
427.663	1	5
427.834	1	2
428.004	1	9
428.175	1	-6
428.345	1	-2
428.516	1	4
428.687	1	13
428.857	1	7
429.028	1	-7
429.198	1	-6
429.369	1	6
429.540	1	3
429.710	1	0
429.881	1	-6
430.051	1	-9
430.222	1	5
430.392	1	3
430.563	1	-3
430.734	1	3
430.904	1	11
431.075	1	-1
431.245	1	-4
431.416	1	1
431.586	1	-9
431.757	1	12
431.927	1	7
432.098	1	0
432.269	1	-4
432.439	1	-5
432.610	1	5
432.780	1	0
432.951	1	-3
433.121	1	1
433.292	1	15
433.462	1	-3
433.633	1	-1
433.804	1	0
433.974	1	1
434.145	1	-1
434.315	1	-8
434.486	1	-8
434.656	1	8
434.827	1	8
434.997	1	-1
435.168	1	-5
435.339	1	5
435.509	1	-9
435.680	1	1
435.850	1	-10
436.021	1	-4
436.191	1	0
436.362	1	9
436.532	1	9
436.703	1	-5
436.873	1	2
437.044	1	9
437.214	1	-3
437.385	1	-4
437.556	1	5
437.726	1	0
437.897	1	-5
438.067	1	-1
438.238	1	7
438.408	1	2
438.579	1	-2
438.749	1	-6
438.920	1	10
439.090	1	-3
439.261	1	8
439.431	1	-8
439.602	1	-7
439.772	1	12
439.943	1	-3
440.113	1	1
440.284	1	-5
440.455	1	-3
440.625	1	5
440.796	1	-9
440.966	1	8
441.137	1	5
441.307	1	3
441.478	1	-2
441.648	1	1
441.819	1	4
441.989	1	6
442.160	1	8
442.330	1	4
442.501	1	5
442.671	1	-1
442.842	1	-5
443.012	1	2
443.183	1	1
443.353	1	2
443.524	1	-1
443.694	1	1
443.865	1	6
444.035	1	1
444.206	1	0
444.376	1	4
444.547	1	-9
444.717	1	-5
444.888	1	-9
445.058	1	12
445.229	1	-3
445.399	1	4
445.570	1	3
445.740	1	-3
445.911	1	3
446.081	1	-2
446.252	1	0
446.422	1	-4
446.593	1	-4
446.763	1	1
446.934	1	3
447.104	1	1
447.275	1	1
447.445	1	-1
447.616	1	-3
447.786	1	7
447.957	1	-6
448.127	1	-2
448.298	1	0
448.468	1	1
448.639	1	-2
448.809	1	-4
448.979	1	6
449.150	1	4
449.320	1	1
449.491	1	-6
449.661	1	0
449.832	1	-2
450.002	1	1
450.173	1	-1
450.343	1	-8
450.514	1	4
450.684	1	-6
450.855	1	5
451.025	1	-11
451.196	1	0
451.366	1	13
451.537	1	17
451.707	1	2
451.878	1	-3
452.048	1	-5
452.218	1	-2
452.389	1	10
452.559	1	12
452.730	1	2
452.900	1	-10
453.071	1	5
453.241	1	6
453.412	1	-3
453.582	1	6
453.753	1	7
453.923	1	2
454.093	1	3
454.264	1	16
454.434	1	7
454.605	1	-5
454.775	1	-1
454.946	1	-5
455.116	1	10
455.287	1	-7
455.457	1	2
455.628	1	1
455.798	1	10
455.968	1	5
456.139	1	5
456.309	1	-6
456.480	1	-1
456.650	1	2
456.821	1	-8
456.991	1	1
457.161	1	6
457.332	1	-1
457.502	1	-8
457.673	1	-1
457.843	1	7
458.014	1	0
458.184	1	2
458.355	1	5
458.525	1	-4
458.695	1	-3
458.866	1	-7
459.036	1	-1
459.207	1	3
459.377	1	6
459.548	1	2
459.718	1	0
459.888	1	-2
460.059	1	-1
460.229	1	-2
460.400	1	-4
460.570	1	-5
460.740	1	-1
460.911	1	-4
461.081	1	-4
461.252	1	2
461.422	1	4
461.593	1	3
461.763	1	8
461.933	1	3
462.104	1	-14
462.274	1	-3
462.445	1	-4
462.615	1	4
462.785	1	6
462.956	1	-5
463.126	1	5
463.297	1	-2
463.467	1	6
463.638	1	-1
463.808	1	8
463.978	1	-11
464.149	1	-3
464.319	1	6
464.490	1	0
464.660	1	5
464.830	1	-2
465.001	1	4
465.171	1	0
465.342	1	2
465.512	1	4
465.682	1	-11
465.853	1	-2
466.023	1	3
466.194	1	3
466.364	1	9
466.534	1	-3
466.705	1	14
466.875	1	-11
467.045	1	0
467.216	1	3
467.386	1	3
467.557	1	1
467.727	1	-2
467.897	1	2
468.068	1	-6
468.238	1	6
468.409	1	7
468.579	1	8
468.749	1	-3
468.920	1	-5
469.090	1	9
469.260	1	0
469.431	1	-12
469.601	1	2
469.772	1	13
469.942	1	7
470.112	1	-11
470.283	1	9
470.453	1	-1
470.623	1	0
470.794	1	-6
470.964	1	-7
471.135	1	5
471.305	1	4
471.475	1	10
471.646	1	10
471.816	1	9
471.986	1	1
472.157	1	4
472.327	1	0
472.497	1	1
472.668	1	7
472.838	1	-11
473.009	1	1
473.179	1	-3
473.349	1	0
473.520	1	22
473.690	1	0
473.860	1	-11
474.031	1	-8
474.201	1	-4
474.371	1	5
474.542	1	-5
474.712	1	-1
474.882	1	4
475.053	1	2
475.223	1	-5
475.394	1	-9
475.564	1	3
475.734	1	-3
475.905	1	4
476.075	1	9
476.245	1	5
476.416	1	0
476.586	1	-7
476.756	1	3
476.927	1	-5
477.097	1	6
477.267	1	-4
477.438	1	8
477.608	1	16
477.778	1	-3
477.949	1	0
478.119	1	8
478.289	1	-3
478.460	1	-10
478.630	1	-3
478.800	1	-7
478.971	1	-2
479.141	1	0
479.311	1	4
479.482	1	-2
479.652	1	-1
479.822	1	-4
479.993	1	-3
480.163	1	7
480.333	1	3
480.504	1	5
480.674	1	6
480.844	1	-3
481.015	1	7
481.185	1	5
481.355	1	3
481.525	1	-4
481.696	1	2
481.866	1	11
482.036	1	1
482.207	1	-3
482.377	1	-4
482.547	1	2
482.718	1	4
482.888	1	5
483.058	1	3
483.229	1	8
483.399	1	1
483.569	1	-11
483.740	1	-1
483.910	1	1
484.080	1	5
484.250	1	-3
484.421	1	-12
484.591	1	0
484.761	1	1
484.932	1	-1
485.102	1	5
485.272	1	-1
485.443	1	13
485.613	1	5
485.783	1	3
485.953	1	-4
486.124	1	1
486.294	1	6
486.464	1	3
486.635	1	-2
486.805	1	1
486.975	1	0
487.146	1	5
487.316	1	1
487.486	1	3
487.656	1	6
487.827	1	-3
487.997	1	-2
488.167	1	2
488.338	1	1
488.508	1	8
488.678	1	-1
488.848	1	2
489.019	1	-4
489.189	1	13
489.359	1	3
489.529	1	4
489.700	1	-6
489.870	1	6
490.040	1	7
490.211	1	-3
490.381	1	-2
490.551	1	3
490.721	1	5
490.892	1	-9
491.062	1	3
491.232	1	3
491.402	1	6
491.573	1	6
491.743	1	5
491.913	1	4
492.084	1	1
492.254	1	0
492.424	1	-5
492.594	1	3
492.765	1	2
492.935	1	6
493.105	1	-3
493.275	1	3
493.446	1	-16
493.616	1	-9
493.786	1	7
493.956	1	1
494.127	1	-4
494.297	1	-3
494.467	1	1
494.637	1	3
494.808	1	6
494.978	1	5
495.148	1	-2
495.318	1	0
495.489	1	-2
495.659	1	1
495.829	1	-3
495.999	1	5
496.170	1	9
496.340	1	-3
496.510	1	0
496.680	1	6
496.851	1	17
497.021	1	2
497.191	1	5
497.361	1	-5
497.532	1	0
497.702	1	9
497.872	1	-3
498.042	1	3
498.213	1	-8
498.383	1	5
498.553	1	0
498.723	1	0
498.894	1	6
499.064	1	2
499.234	1	7
499.404	1	-5
499.574	1	2
499.745	1	2
499.915	1	0
500.085	1	-3
500.255	1	-13
500.426	1	-2
500.596	1	-10
500.766	1	-3
500.936	1	1
501.106	1	-10
501.277	1	-8
501.447	1	5
501.617	1	0
501.787	1	-3
501.958	1	9
502.128	1	1
502.298	1	4
502.468	1	-10
502.638	1	1
502.809	1	-5
502.979	1	7
503.149	1	6
503.319	1	7
503.489	1	-14
503.660	1	-8
503.830	1	5
504.000	1	4
504.170	1	4
504.340	1	-7
504.511	1	-9
504.681	1	1
504.851	1	1
505.021	1	3
505.192	1	-12
505.362	1	3
505.532	1	-5
505.702	1	13
505.872	1	-5
506.043	1	8
506.213	1	3
506.383	1	9
506.553	1	4
506.723	1	-2
506.893	1	7
507.064	1	7
507.234	1	1
507.404	1	-2
507.574	1	5
507.744	1	1
507.915	1	-6
508.085	1	-10
508.255	1	0
508.425	1	-1
508.595	1	-5
508.766	1	-1
508.936	1	12
509.106	1	3
509.276	1	-1
509.446	1	2
509.616	1	8
509.787	1	0
509.957	1	7
510.127	1	-13
510.297	1	-6
510.467	1	5
510.638	1	6
510.808	1	11
510.978	1	-5
511.148	1	4
511.318	1	3
511.488	1	4
511.659	1	8
511.829	1	1
511.999	1	0
512.169	1	8
512.339	1	14
512.509	1	-8
512.680	1	-8
512.850	1	4
513.020	1	0
513.190	1	-13
513.360	1	1
513.530	1	2
513.700	1	3
513.871	1	3
514.041	1	6
514.211	1	2
514.381	1	-1
514.551	1	-7
514.721	1	6
514.892	1	1
515.062	1	6
515.232	1	-8
515.402	1	10
515.572	1	4
515.742	1	-3
515.912	1	7
516.083	1	7
516.253	1	14
516.423	1	8
516.593	1	1
516.763	1	0
516.933	1	-2
517.104	1	3
517.274	1	-8
517.444	1	-1
517.614	1	0
517.784	1	10
517.954	1	-4
518.124	1	2
518.294	1	8
518.465	1	11
518.635	1	6
518.805	1	0
518.975	1	7
519.145	1	-4
519.315	1	4
519.485	1	-2
519.656	1	4
519.826	1	-5
519.996	1	0
520.166	1	3
520.336	1	-3
520.506	1	-8
520.676	1	-3
520.846	1	2
521.017	1	8
521.187	1	9
521.357	1	1
521.527	1	-1
521.697	1	-5
521.867	1	0
522.037	1	4
522.207	1	5
522.377	1	3
522.548	1	-14
522.718	1	-5
522.888	1	5
523.058	1	9
523.228	1	2
523.398	1	-10
523.568	1	-7
523.738	1	4
523.909	1	-5
524.079	1	8
524.249	1	0
524.419	1	4
524.589	1	5
524.759	1	2
524.929	1	1
525.099	1	2
525.269	1	4
525.439	1	-4
525.610	1	14
525.780	1	0
525.950	1	11
526.120	1	-1
526.290	1	-3
526.460	1	-7
526.630	1	5
526.800	1	-18
526.970	1	13
527.140	1	0
527.311	1	5
527.481	1	14
527.651	1	7
527.821	1	-4
527.991	1	5
528.161	1	3
528.331	1	-5
528.501	1	9
528.671	1	4
528.841	1	3
529.011	1	7
529.181	1	-2
529.352	1	5
529.522	1	-3
529.692	1	5
529.862	1	-5
530.032	1	-8
530.202	1	-2
530.372	1	2
530.542	1	1
530.712	1	4
530.882	1	4
531.052	1	4
531.222	1	3
531.392	1	-11
531.563	1	2
531.733	1	-4
531.903	1	1
532.073	1	-1
532.243	1	10
532.413	1	22
532.583	1	8
532.753	1	0
532.923	1	14
533.093	1	-16
533.263	1	-2
533.433	1	-9
533.603	1	2
533.773	1	3
533.943	1	-5
534.113	1	-11
534.284	1	8
534.454	1	-9
534.624	1	0
534.794	1	-4
534.964	1	0
535.134	1	-7
535.304	1	2
535.474	1	3
535.644	1	9
535.814	1	-2
535.984	1	1
536.154	1	6
536.324	1	-1
536.494	1	9
536.664	1	3
536.834	1	-1
537.004	1	3
537.174	1	14
537.344	1	1
537.514	1	-4
537.685	1	3
537.855	1	4
538.025	1	14
538.195	1	-1
538.365	1	1
538.535	1	2
538.705	1	-3
538.875	1	6
539.045	1	2
539.215	1	-7
539.385	1	-2
539.555	1	5
539.725	1	2
539.895	1	5
540.065	1	5
540.235	1	8
540.405	1	3
540.575	1	2
540.745	1	8
540.915	1	6
541.085	1	-11
541.255	1	3
541.425	1	-1
541.595	1	0
541.765	1	0
541.935	1	4
542.105	1	1
542.275	1	1
542.445	1	11
542.615	1	2
542.785	1	0
542.955	1	15
543.125	1	-5
543.295	1	2
543.465	1	3
543.635	1	-10
543.805	1	9
543.975	1	-7
544.145	1	-2
544.315	1	-4
544.485	1	4
544.655	1	5
544.825	1	1
544.995	1	-2
545.165	1	5
545.335	1	6
545.505	1	6
545.675	1	-1
545.845	1	4
546.015	1	-4
546.185	1	-2
546.355	1	-6
546.525	1	17
546.695	1	-2
546.865	1	4
547.035	1	0
547.205	1	15
547.375	1	3
547.545	1	7
547.715	1	1
547.885	1	-6
548.055	1	-5
548.225	1	12
548.395	1	6
548.565	1	2
548.735	1	-7
548.905	1	10
549.075	1	2
549.245	1	3
549.415	1	6
549.585	1	-1
549.755	1	2
549.925	1	0
550.095	1	-5
550.265	1	3
550.435	1	10
550.605	1	7
550.775	1	-9
550.945	1	10
551.115	1	3
551.285	1	2
551.455	1	4
551.625	1	-13
551.795	1	-3
551.965	1	-3
552.135	1	-8
552.305	1	4
552.475	1	6
552.645	1	0
552.815	1	4
552.985	1	-3
553.155	1	-1
553.325	1	1
553.495	1	8
553.665	1	-2
553.835	1	5
554.004	1	-1
554.174	1	-9
554.344	1	4
554.514	1	-3
554.684	1	11
554.854	1	-7
555.024	1	17
555.194	1	-3
555.364	1	-6
555.534	1	-4
555.704	1	4
555.874	1	1
556.044	1	3
556.214	1	-4
556.384	1	7
556.554	1	4
556.724	1	1
556.894	1	12
557.064	1	1
557.234	1	1
557.404	1	4
557.573	1	-3
557.743	1	1
557.913	1	-7
558.083	1	2
558.253	1	7
558.423	1	0
558.593	1	9
558.763	1	6
558.933	1	-6
559.103	1	-9
559.273	1	6
559.443	1	8
559.613	1	5
559.783	1	1
559.953	1	-7
560.122	1	-4
560.292	1	-7
560.462	1	-1
560.632	1	2
560.802	1	-6
560.972	1	-8
561.142	1	5
561.312	1	3
561.482	1	7
561.652	1	10
561.822	1	8
561.992	1	9
562.162	1	7
562.331	1	-16
562.501	1	-3
562.671	1	-6
562.841	1	-6
563.011	1	2
563.181	1	-5
563.351	1	-3
563.521	1	11
563.691	1	13
563.861	1	7
564.031	1	0
564.201	1	7
564.370	1	2
564.540	1	-2
564.710	1	-6
564.880	1	6
565.050	1	9
565.220	1	12
565.390	1	0
565.560	1	6
565.730	1	2
565.900	1	2
566.069	1	9
566.239	1	9
566.409	1	4
566.579	1	4
566.749	1	-2
566.919	1	-8
567.089	1	-12
567.259	1	4
567.429	1	-3
567.599	1	9
567.768	1	0
567.938	1	1
568.108	1	4
568.278	1	-1
568.448	1	-1
568.618	1	14
568.788	1	7
568.958	1	-14
569.128	1	-1
569.297	1	-3
569.467	1	12
569.637	1	6
569.807	1	10
569.977	1	2
570.147	1	7
570.317	1	5
570.487	1	3
570.656	1	3
570.826	1	6
570.996	1	13
571.166	1	-1
571.336	1	0
571.506	1	-6
571.676	1	6
571.846	1	6
572.015	1	-2
572.185	1	-4
572.355	1	-7
572.525	1	-1
572.695	1	8
572.865	1	5
573.035	1	-1
573.205	1	1
573.374	1	-4
573.544	1	4
573.714	1	-2
573.884	1	4
574.054	1	0
574.224	1	5
574.394	1	0
574.563	1	-3
574.733	1	3
574.903	1	-8
575.073	1	8
575.243	1	0
575.413	1	5
575.583	1	-3
575.752	1	1
575.922	1	11
576.092	1	2
576.262	1	1
576.432	1	-1
576.602	1	-4
576.772	1	1
576.941	1	3
577.111	1	3
577.281	1	7
577.451	1	5
577.621	1	9
577.791	1	6
577.960	1	0
578.130	1	0
578.300	1	2
578.470	1	4
578.640	1	3
578.810	1	0
578.979	1	1
579.149	1	-2
579.319	1	-2
579.489	1	10
579.659	1	0
579.829	1	-1
579.998	1	-17
580.168	1	-3
580.338	1	6
580.508	1	-4
580.678	1	9
580.848	1	3
581.017	1	-6
581.187	1	2
581.357	1	4
581.527	1	10
581.697	1	6
581.867	1	2
582.036	1	-8
582.206	1	0
582.376	1	-4
582.546	1	6
582.716	1	4
582.885	1	5
583.055	1	-5
583.225	1	2
583.395	1	-2
583.565	1	12
583.735	1	1
583.904	1	1
584.074	1	-2
584.244	1	2
584.414	1	-8
584.584	1	2
584.753	1	0
584.923	1	-4
585.093	1	13
585.263	1	-6
585.433	1	3
585.602	1	3
585.772	1	11
585.942	1	-8
586.112	1	0
586.282	1	7
586.451	1	15
586.621	1	2
586.791	1	-4
586.961	1	-2
587.131	1	-2
587.300	1	13
587.470	1	-3
587.640	1	-5
587.810	1	-11
587.980	1	6
588.149	1	1
588.319	1	4
588.489	1	3
588.659	1	-5
588.829	1	3
588.998	1	-4
589.168	1	4
589.338	1	2
589.508	1	-4
589.677	1	13
589.847	1	-2
590.017	1	1
590.187	1	4
590.357	1	2
590.526	1	-3
590.696	1	8
590.866	1	-5
591.036	1	-1
591.205	1	1
591.375	1	7
591.545	1	-8
591.715	1	0
591.885	1	17
592.054	1	5
592.224	1	-6
592.394	1	-8
592.564	1	-2
592.733	1	1
592.903	1	6
593.073	1	-2
593.243	1	12
593.412	1	-10
593.582	1	8
593.752	1	-6
593.922	1	-1
594.091	1	5
594.261	1	-4
594.431	1	0
594.601	1	-6
594.771	1	5
594.940	1	-4
595.110	1	6
595.280	1	4
595.450	1	0
595.619	1	-3
595.789	1	-5
595.959	1	-1
596.129	1	-1
596.298	1	9
596.468	1	3
596.638	1	6
596.808	1	-5
596.977	1	-1
597.147	1	3
597.317	1	5
597.487	1	1
597.656	1	-2
597.826	1	9
597.996	1	6
598.166	1	1
598.335	1	-5
598.505	1	9
598.675	1	6
598.844	1	6
599.014	1	-15
599.184	1	4
599.354	1	3
599.523	1	-5
599.693	1	2
599.863	1	2
600.033	1	-1
600.202	1	5
600.372	1	-5
600.542	1	6
600.712	1	-4
600.881	1	0
601.051	1	3
601.221	1	6
601.390	1	1
601.560	1	4
601.730	1	0
601.900	1	9
602.069	1	2
602.239	1	6
602.409	1	7
602.578	1	9
602.748	1	10
602.918	1	-8
603.088	1	0
603.257	1	-9
603.427	1	12
603.597	1	4
603.767	1	3
603.936	1	8
604.106	1	-5
604.276	1	4
604.445	1	-6
604.615	1	0
604.785	1	2
604.954	1	-1
605.124	1	3
605.294	1	-5
605.464	1	-9
605.633	1	-1
605.803	1	3
605.973	1	9
606.142	1	7
606.312	1	13
606.482	1	-4
606.652	1	-3
606.821	1	-1
606.991	1	7
607.161	1	8
607.330	1	-1
607.500	1	0
607.670	1	5
607.839	1	1
608.009	1	3
608.179	1	1
608.348	1	6
608.518	1	6
608.688	1	-4
608.858	1	-7
609.027	1	13
609.197	1	7
609.367	1	-8
609.536	1	-4
609.706	1	9
609.876	1	-3
610.045	1	4
610.215	1	2
610.385	1	7
610.554	1	5
610.724	1	2
610.894	1	-8
611.063	1	-4
611.233	1	4
611.403	1	2
611.572	1	-3
611.742	1	-3
611.912	1	2
612.081	1	13
612.251	1	3
612.421	1	7
612.590	1	7
612.760	1	2
612.930	1	8
613.099	1	-2
613.269	1	1
613.439	1	-1
613.608	1	4
613.778	1	0
613.948	1	11
614.117	1	-4
614.287	1	-5
614.457	1	6
614.626	1	-13
614.796	1	-2
614.966	1	-2
615.135	1	4
615.305	1	5
615.475	1	4
615.644	1	13
615.814	1	13
615.984	1	-7
616.153	1	0
616.323	1	-13
616.493	1	1
616.662	1	-3
616.832	1	0
617.002	1	-3
617.171	1	3
617.341	1	8
617.511	1	-1
617.680	1	2
617.850	1	4
618.019	1	-7
618.189	1	6
618.359	1	-1
618.528	1	-1
618.698	1	8
618.868	1	-1
619.037	1	-4
619.207	1	-1
619.377	1	4
619.546	1	7
619.716	1	-2
619.885	1	2
620.055	1	-2
620.225	1	6
620.394	1	13
620.564	1	6
620.734	1	-8
620.903	1	-10
621.073	1	9
621.242	1	7
621.412	1	2
621.582	1	13
621.751	1	-8
621.921	1	5
622.091	1	-1
622.260	1	7
622.430	1	14
622.599	1	3
622.769	1	-5
622.939	1	-7
623.108	1	-4
623.278	1	-5
623.448	1	3
623.617	1	0
623.787	1	-7
623.956	1	7
624.126	1	8
624.296	1	8
624.465	1	12
624.635	1	1
624.804	1	-7
624.974	1	-12
625.144	1	-3
625.313	1	19
625.483	1	2
625.652	1	5
625.822	1	2
625.992	1	-2
626.161	1	-2
626.331	1	0
626.501	1	0
626.670	1	-10
626.840	1	-1
627.009	1	1
627.179	1	5
627.348	1	-1
627.518	1	18
627.688	1	-3
627.857	1	10
628.027	1	10
628.196	1	10
628.366	1	-5
628.536	1	-4
628.705	1	-6
628.875	1	-3
629.044	1	-5
629.214	1	0
629.384	1	13
629.553	1	-1
629.723	1	10
629.892	1	2
630.062	1	6
630.232	1	10
630.401	1	1
630.571	1	-8
630.740	1	3
630.910	1	5
631.079	1	-9
631.249	1	-3
631.419	1	2
631.588	1	6
631.758	1	-4
631.927	1	16
632.097	1	-7
632.266	1	14
632.436	1	4
632.606	1	-1
632.775	1	1
632.945	1	-6
633.114	1	-5
633.284	1	-1
633.453	1	2
633.623	1	10
633.793	1	2
633.962	1	-3
634.132	1	2
634.301	1	8
634.471	1	4
634.640	1	4
634.810	1	8
634.979	1	4
635.149	1	-7
635.319	1	0
635.488	1	-2
635.658	1	-2
635.827	1	3
635.997	1	1
636.166	1	3
636.336	1	0
636.505	1	4
636.675	1	-1
636.845	1	-1
637.014	1	-8
637.184	1	1
637.353	1	-5
637.523	1	3
637.692	1	4
637.862	1	0
638.031	1	-2
638.201	1	5
638.370	1	-4
638.540	1	0
638.710	1	-3
638.879	1	4
639.049	1	-5
639.218	1	6
639.388	1	-3
639.557	1	3
639.727	1	5
639.896	1	-7
640.066	1	2
640.235	1	-10
640.405	1	1
640.574	1	10
640.744	1	4
640.914	1	-1
641.083	1	3
641.253	1	-5
641.422	1	-4
641.592	1	5
641.761	1	-6
641.931	1	9
642.100	1	-6
642.270	1	3
642.439	1	5
642.609	1	14
642.778	1	-1
642.948	1	11
643.117	1	8
643.287	1	1
643.456	1	-4
643.626	1	1
643.795	1	4
643.965	1	2
644.134	1	1
644.304	1	-8
644.473	1	1
644.643	1	-3
644.812	1	0
644.982	1	-1
645.151	1	3
645.321	1	7
645.490	1	2
645.660	1	-9
645.829	1	4
645.999	1	-2
646.168	1	8
646.338	1	-10
646.507	1	-3
646.677	1	8
646.846	1	2
647.016	1	7
647.185	1	1
647.355	1	13
647.524	1	-7
647.694	1	-4
647.863	1	-5
648.033	1	-2
648.202	1	9
648.372	1	-3
648.541	1	2
648.711	1	4
648.880	1	0
649.050	1	7
649.219	1	0
649.389	1	1
649.558	1	8
649.728	1	1
649.897	1	-2
650.067	1	11
650.236	1	2
650.406	1	0
650.575	1	1
650.745	1	5
650.914	1	4
651.084	1	6
651.253	1	-4
651.423	1	4
651.592	1	6
651.762	1	-2
651.931	1	13
652.101	1	-9
652.270	1	0
652.440	1	8
652.609	1	9
652.778	1	7
652.948	1	5
653.117	1	1
653.287	1	-12
653.456	1	-3
653.626	1	5
653.795	1	5
653.965	1	-4
654.134	1	-3
654.304	1	-1
654.473	1	-6
654.643	1	3
654.812	1	18
654.982	1	3
655.151	1	12
655.320	1	-2
655.490	1	-7
655.659	1	0
655.829	1	7
655.998	1	4
656.168	1	-5
656.337	1	2
656.507	1	-1
656.676	1	-8
656.846	1	-3
657.015	1	5
657.184	1	-2
657.354	1	11
657.523	1	2
657.693	1	5
657.862	1	-3
658.032	1	-3
658.201	1	-4
658.371	1	-11
658.540	1	1
658.709	1	2
658.879	1	6
659.048	1	11
659.218	1	-3
659.387	1	3
659.557	1	-1
659.726	1	2
659.895	1	4
660.065	1	0
660.234	1	-8
660.404	1	7
660.573	1	1
660.743	1	-4
660.912	1	4
661.081	1	0
661.251	1	-1
661.420	1	15
661.590	1	6
661.759	1	-1
661.929	1	3
662.098	1	7
662.267	1	-6
662.437	1	4
662.606	1	-3
662.776	1	-2
662.945	1	8
663.115	1	13
663.284	1	8
663.453	1	0
663.623	1	1
663.792	1	3
663.962	1	12
664.131	1	-4
664.300	1	-4
664.470	1	-2
664.639	1	-9
664.809	1	6
664.978	1	6
665.148	1	2
665.317	1	3
665.486	1	7
665.656	1	8
665.825	1	6
665.995	1	-12
666.164	1	-3
666.333	1	1
666.503	1	0
666.672	1	4
666.842	1	3
667.011	1	1
667.180	1	0
667.350	1	-2
667.519	1	10
667.689	1	0
667.858	1	4
668.027	1	-7
668.197	1	-8
668.366	1	4
668.536	1	1
668.705	1	-7
668.874	1	9
669.044	1	5
669.213	1	1
669.382	1	4
669.552	1	4
669.721	1	-12
669.891	1	-5
670.060	1	-3
670.229	1	5
670.399	1	7
670.568	1	3
670.738	1	2
670.907	1	7
671.076	1	1
671.246	1	5
671.415	1	18
671.584	1	3
671.754	1	-11
671.923	1	6
672.093	1	8
672.262	1	1
672.431	1	7
672.601	1	6
672.770	1	4
672.939	1	6
673.109	1	-4
673.278	1	-1
673.448	1	2
673.617	1	-2
673.786	1	-1
