325.333	1	15
325.504	1	-16
325.675	1	1
325.846	1	5
326.017	1	-3
326.188	1	-8
326.359	1	5
326.531	1	-4
326.702	1	0
326.873	1	5
327.044	1	7
327.215	1	-5
327.386	1	-2
327.557	1	-8
327.728	1	0
327.899	1	-1
328.070	1	5
328.241	1	7
328.412	1	-3
328.583	1	-2
328.754	1	12
328.926	1	3
329.097	1	-13
329.268	1	8
329.439	1	0
329.610	1	0
329.781	1	-1
329.952	1	3
330.123	1	-4
330.294	1	-6
330.465	1	-12
330.636	1	5
330.807	1	-1
330.978	1	-1
331.149	1	6
331.320	1	6
331.492	1	-3
331.663	1	-4
331.834	1	8
332.005	1	6
332.176	1	7
332.347	1	4
332.518	1	5
332.689	1	0
332.860	1	-6
333.031	1	-5
333.202	1	-1
333.373	1	2
333.544	1	-1
333.715	1	0
333.886	1	-3
334.057	1	2
334.228	1	7
334.399	1	2
334.570	1	-6
334.741	1	0
334.912	1	-7
335.084	1	11
335.255	1	0
335.426	1	1
335.597	1	-3
335.768	1	-3
335.939	1	2
336.110	1	1
336.281	1	-4
336.452	1	11
336.623	1	1
336.794	1	5
336.965	1	3
337.136	1	11
337.307	1	0
337.478	1	4
337.649	1	-6
337.820	1	2
337.991	1	-1
338.162	1	6
338.333	1	-4
338.504	1	9
338.675	1	0
338.846	1	-11
339.017	1	1
339.188	1	-3
339.359	1	7
339.530	1	4
339.701	1	-3
339.872	1	6
340.043	1	8
340.214	1	13
340.385	1	-7
340.556	1	10
340.727	1	7
340.898	1	-4
341.069	1	0
341.240	1	-1
341.411	1	-4
341.582	1	-2
341.753	1	-11
341.924	1	11
342.095	1	-5
342.266	1	19
342.437	1	0
342.608	1	-1
342.779	1	-4
342.950	1	-3
343.121	1	4
343.292	1	1
343.463	1	8
343.634	1	2
343.805	1	3
343.976	1	7
344.147	1	6
344.318	1	-3
344.489	1	-7
344.660	1	7
344.831	1	14
345.002	1	-2
345.173	1	0
345.344	1	0
345.515	1	-2
345.686	1	6
345.857	1	7
346.028	1	3
346.199	1	5
346.370	1	4
346.541	1	8
346.712	1	-4
346.883	1	-2
347.054	1	0
347.225	1	5
347.396	1	6
347.567	1	-7
347.738	1	5
347.909	1	11
348.080	1	3
348.251	1	-5
348.422	1	6
348.593	1	3
348.764	1	11
348.935	1	4
349.106	1	0
349.277	1	-9
349.448	1	-4
349.619	1	-7
349.790	1	9
349.961	1	-5
350.132	1	11
350.303	1	-5
350.474	1	1
350.645	1	-3
350.816	1	3
350.987	1	16
351.157	1	-3
351.328	1	-5
351.499	1	5
351.670	1	0
351.841	1	5
352.012	1	5
352.183	1	14
352.354	1	-2
352.525	1	6
352.696	1	-2
352.867	1	8
353.038	1	2
353.209	1	3
353.380	1	4
353.551	1	6
353.722	1	1
353.893	1	2
354.064	1	1
354.235	1	2
354.406	1	-3
354.576	1	0
354.747	1	1
354.918	1	6
355.089	1	7
355.260	1	5
355.431	1	0
355.602	1	6
355.773	1	-6
355.944	1	6
356.115	1	10
356.286	1	6
356.457	1	3
356.628	1	0
356.799	1	9
356.970	1	13
357.141	1	1
357.311	1	20
357.482	1	5
357.653	1	-4
357.824	1	2
357.995	1	16
358.166	1	-9
358.337	1	3
358.508	1	16
358.679	1	-6
358.850	1	9
359.021	1	6
359.192	1	12
359.363	1	-1
359.533	1	-3
359.704	1	-2
359.875	1	-1
360.046	1	11
360.217	1	9
360.388	1	16
360.559	1	3
360.730	1	-6
360.901	1	8
361.072	1	5
361.243	1	1
361.414	1	9
361.584	1	0
361.755	1	1
361.926	1	11
362.097	1	1
362.268	1	12
362.439	1	-3
362.610	1	4
362.781	1	5
362.952	1	4
363.123	1	-3
363.293	1	8
363.464	1	0
363.635	1	1
363.806	1	6
363.977	1	0
364.148	1	2
364.319	1	-5
364.490	1	9
364.661	1	0
364.832	1	-1
365.002	1	5
365.173	1	3
365.344	1	-1
365.515	1	10
365.686	1	-2
365.857	1	5
366.028	1	6
366.199	1	16
366.370	1	8
366.540	1	2
366.711	1	11
366.882	1	4
367.053	1	7
367.224	1	-1
367.395	1	14
367.566	1	8
367.737	1	3
367.908	1	9
368.078	1	4
368.249	1	5
368.420	1	4
368.591	1	12
368.762	1	9
368.933	1	1
369.104	1	5
369.274	1	6
369.445	1	19
369.616	1	5
369.787	1	10
369.958	1	4
370.129	1	-6
370.300	1	-4
370.471	1	1
370.641	1	11
370.812	1	8
370.983	1	2
371.154	1	5
371.325	1	-2
371.496	1	1
371.667	1	15
371.837	1	7
372.008	1	5
372.179	1	4
372.350	1	5
372.521	1	9
372.692	1	9
372.863	1	9
373.033	1	9
373.204	1	9
373.375	1	-3
373.546	1	10
373.717	1	1
373.888	1	9
374.059	1	0
374.229	1	12
374.400	1	6
374.571	1	-3
374.742	1	-4
374.913	1	3
375.084	1	11
375.254	1	3
375.425	1	6
375.596	1	5
375.767	1	9
375.938	1	-1
376.109	1	7
376.279	1	9
376.450	1	12
376.621	1	14
376.792	1	15
376.963	1	8
377.134	1	-1
377.304	1	6
377.475	1	-3
377.646	1	3
377.817	1	2
377.988	1	7
378.159	1	8
378.329	1	7
378.500	1	8
378.671	1	4
378.842	1	8
379.013	1	7
379.184	1	-7
379.354	1	7
379.525	1	6
379.696	1	12
379.867	1	6
380.038	1	3
380.209	1	7
380.379	1	11
380.550	1	-6
380.721	1	5
380.892	1	2
381.063	1	6
381.233	1	2
381.404	1	1
381.575	1	7
381.746	1	6
381.917	1	8
382.087	1	9
382.258	1	5
382.429	1	1
382.600	1	5
382.771	1	1
382.941	1	11
383.112	1	10
383.283	1	6
383.454	1	-1
383.625	1	11
383.795	1	8
383.966	1	10
384.137	1	13
384.308	1	4
384.479	1	0
384.649	1	11
384.820	1	8
384.991	1	4
385.162	1	12
385.333	1	4
385.503	1	-3
385.674	1	8
385.845	1	6
386.016	1	13
386.187	1	-11
386.357	1	8
386.528	1	0
386.699	1	6
386.870	1	1
387.041	1	3
387.211	1	3
387.382	1	21
387.553	1	9
387.724	1	-2
387.894	1	-18
388.065	1	6
388.236	1	4
388.407	1	10
388.578	1	5
388.748	1	5
388.919	1	7
389.090	1	22
389.261	1	13
389.431	1	-10
389.602	1	8
389.773	1	10
389.944	1	9
390.114	1	0
390.285	1	24
390.456	1	4
390.627	1	6
390.798	1	2
390.968	1	13
391.139	1	11
391.310	1	1
391.481	1	0
391.651	1	15
391.822	1	16
391.993	1	-1
392.164	1	7
392.334	1	9
392.505	1	12
392.676	1	-4
392.847	1	5
393.017	1	8
393.188	1	13
393.359	1	27
393.530	1	22
393.700	1	1
393.871	1	16
394.042	1	-5
394.213	1	11
394.383	1	11
394.554	1	-4
394.725	1	4
394.896	1	17
395.066	1	7
395.237	1	10
395.408	1	8
395.579	1	18
395.749	1	14
395.920	1	17
396.091	1	15
396.262	1	9
396.432	1	4
396.603	1	6
396.774	1	-3
396.945	1	17
397.115	1	9
397.286	1	14
397.457	1	8
397.627	1	-4
397.798	1	13
397.969	1	10
398.140	1	4
398.310	1	7
398.481	1	9
398.652	1	9
398.823	1	0
398.993	1	1
399.164	1	8
399.335	1	2
399.505	1	0
399.676	1	0
399.847	1	13
400.018	1	8
400.188	1	6
400.359	1	19
400.530	1	9
400.700	1	16
400.871	1	12
401.042	1	15
401.213	1	13
401.383	1	11
401.554	1	8
401.725	1	10
401.895	1	7
402.066	1	18
402.237	1	9
402.408	1	9
402.578	1	19
402.749	1	13
402.920	1	11
403.090	1	2
403.261	1	11
403.432	1	9
403.603	1	6
403.773	1	15
403.944	1	16
404.115	1	8
404.285	1	18
404.456	1	18
404.627	1	7
404.797	1	7
404.968	1	11
405.139	1	10
405.310	1	7
405.480	1	12
405.651	1	12
405.822	1	3
405.992	1	19
406.163	1	1
406.334	1	7
406.504	1	9
406.675	1	5
406.846	1	13
407.016	1	19
407.187	1	7
407.358	1	-5
407.528	1	10
407.699	1	7
407.870	1	24
408.041	1	11
408.211	1	8
408.382	1	12
408.553	1	15
408.723	1	17
408.894	1	10
409.065	1	5
409.235	1	10
409.406	1	1
409.577	1	16
409.747	1	18
409.918	1	15
410.089	1	10
410.259	1	8
410.430	1	6
410.601	1	4
410.771	1	15
410.942	1	9
411.113	1	14
411.283	1	17
411.454	1	17
411.625	1	18
411.795	1	7
411.966	1	14
412.137	1	24
412.307	1	12
412.478	1	16
412.649	1	9
412.819	1	4
412.990	1	10
413.161	1	14
413.331	1	11
413.502	1	8
413.672	1	1
413.843	1	8
414.014	1	13
414.184	1	23
414.355	1	16
414.526	1	20
414.696	1	7
414.867	1	-4
415.038	1	8
415.208	1	0
415.379	1	4
415.550	1	17
415.720	1	9
415.891	1	16
416.062	1	18
416.232	1	17
416.403	1	12
416.573	1	-1
416.744	1	16
416.915	1	13
417.085	1	13
417.256	1	9
417.427	1	3
417.597	1	-2
417.768	1	8
417.939	1	5
418.109	1	6
418.280	1	15
418.450	1	24
418.621	1	9
418.792	1	10
418.962	1	9
419.133	1	13
419.304	1	5
419.474	1	22
419.645	1	15
419.815	1	11
419.986	1	18
420.157	1	10
420.327	1	10
420.498	1	4
420.669	1	14
420.839	1	13
421.010	1	11
421.180	1	1
421.351	1	8
421.522	1	8
421.692	1	10
421.863	1	9
422.033	1	10
422.204	1	17
422.375	1	13
422.545	1	0
422.716	1	3
422.886	1	13
423.057	1	13
423.228	1	-1
423.398	1	5
423.569	1	5
423.740	1	14
423.910	1	13
424.081	1	9
424.251	1	14
424.422	1	17
424.593	1	8
424.763	1	9
424.934	1	13
425.104	1	13
425.275	1	5
425.445	1	9
425.616	1	10
425.787	1	8
425.957	1	2
426.128	1	7
426.298	1	18
426.469	1	-3
426.640	1	12
426.810	1	-9
426.981	1	19
427.151	1	6
427.322	1	11
427.493	1	9
427.663	1	10
427.834	1	6
428.004	1	17
428.175	1	6
428.345	1	11
428.516	1	3
428.687	1	25
428.857	1	12
429.028	1	5
429.198	1	5
429.369	1	16
429.540	1	14
429.710	1	8
429.881	1	5
430.051	1	6
430.222	1	8
430.392	1	13
430.563	1	1
430.734	1	10
430.904	1	12
431.075	1	5
431.245	1	16
431.416	1	7
431.586	1	4
431.757	1	7
431.927	1	11
432.098	1	12
432.269	1	-1
432.439	1	4
432.610	1	15
432.780	1	3
432.951	1	8
433.121	1	7
433.292	1	13
433.462	1	7
433.633	1	5
433.804	1	22
433.974	1	8
434.145	1	10
434.315	1	5
434.486	1	-3
434.656	1	12
434.827	1	16
434.997	1	13
435.168	1	-2
435.339	1	15
435.509	1	6
435.680	1	10
435.850	1	9
436.021	1	9
436.191	1	11
436.362	1	7
436.532	1	7
436.703	1	7
436.873	1	0
437.044	1	8
437.214	1	3
437.385	1	7
437.556	1	11
437.726	1	14
437.897	1	3
438.067	1	11
438.238	1	8
438.408	1	10
438.579	1	7
438.749	1	-5
438.920	1	11
439.090	1	-3
439.261	1	7
439.431	1	-5
439.602	1	0
439.772	1	15
439.943	1	-3
440.113	1	1
440.284	1	13
440.455	1	8
440.625	1	15
440.796	1	8
440.966	1	8
441.137	1	19
441.307	1	6
441.478	1	-5
441.648	1	11
441.819	1	11
441.989	1	15
442.160	1	5
442.330	1	9
442.501	1	4
442.671	1	8
442.842	1	12
443.012	1	11
443.183	1	13
443.353	1	8
443.524	1	-2
443.694	1	9
443.865	1	14
444.035	1	4
444.206	1	-2
444.376	1	16
444.547	1	12
444.717	1	5
444.888	1	-8
445.058	1	3
445.229	1	-1
445.399	1	15
445.570	1	-6
445.740	1	4
445.911	1	8
446.081	1	10
446.252	1	-3
446.422	1	-2
446.593	1	17
446.763	1	15
446.934	1	1
447.104	1	3
447.275	1	5
447.445	1	7
447.616	1	-3
447.786	1	7
447.957	1	0
448.127	1	4
448.298	1	7
448.468	1	8
448.639	1	7
448.809	1	-4
448.979	1	10
449.150	1	4
449.320	1	8
449.491	1	1
449.661	1	7
449.832	1	-1
450.002	1	-1
450.173	1	12
450.343	1	1
450.514	1	11
450.684	1	6
450.855	1	6
451.025	1	6
451.196	1	0
451.366	1	17
451.537	1	7
451.707	1	18
451.878	1	10
452.048	1	0
452.218	1	7
452.389	1	7
452.559	1	14
452.730	1	8
452.900	1	11
453.071	1	12
453.241	1	10
453.412	1	5
453.582	1	4
453.753	1	13
453.923	1	1
454.093	1	-3
454.264	1	18
454.434	1	7
454.605	1	-1
454.775	1	16
454.946	1	-6
455.116	1	21
455.287	1	1
455.457	1	12
455.628	1	0
455.798	1	12
455.968	1	20
456.139	1	19
456.309	1	0
456.480	1	14
456.650	1	-1
456.821	1	8
456.991	1	2
457.161	1	12
457.332	1	0
457.502	1	11
457.673	1	-1
457.843	1	6
458.014	1	4
458.184	1	14
458.355	1	13
458.525	1	3
458.695	1	7
458.866	1	-7
459.036	1	1
459.207	1	5
459.377	1	-1
459.548	1	7
459.718	1	-3
459.888	1	-1
460.059	1	5
460.229	1	1
460.400	1	6
460.570	1	0
460.740	1	11
460.911	1	-2
461.081	1	12
461.252	1	6
461.422	1	-1
461.593	1	8
461.763	1	8
461.933	1	6
462.104	1	-5
462.274	1	-1
462.445	1	9
462.615	1	9
462.785	1	8
462.956	1	1
463.126	1	-1
463.297	1	-1
463.467	1	22
463.638	1	0
463.808	1	2
463.978	1	-3
464.149	1	5
464.319	1	6
464.490	1	0
464.660	1	7
464.830	1	5
465.001	1	6
465.171	1	3
465.342	1	6
465.512	1	15
465.682	1	0
465.853	1	2
466.023	1	3
466.194	1	0
466.364	1	12
466.534	1	-1
466.705	1	10
466.875	1	-13
467.045	1	-6
467.216	1	9
467.386	1	3
467.557	1	15
467.727	1	5
467.897	1	4
468.068	1	0
468.238	1	-2
468.409	1	12
468.579	1	9
468.749	1	-2
468.920	1	-4
469.090	1	19
469.260	1	1
469.431	1	-4
469.601	1	0
469.772	1	19
469.942	1	7
470.112	1	2
470.283	1	11
470.453	1	8
470.623	1	12
470.794	1	9
470.964	1	0
471.135	1	15
471.305	1	2
471.475	1	9
471.646	1	12
471.816	1	9
471.986	1	0
472.157	1	5
472.327	1	15
472.497	1	4
472.668	1	6
472.838	1	1
473.009	1	2
473.179	1	0
473.349	1	-1
473.520	1	19
473.690	1	1
473.860	1	-5
474.031	1	-7
474.201	1	3
474.371	1	10
474.542	1	-1
474.712	1	-2
474.882	1	7
475.053	1	13
475.223	1	2
475.394	1	1
475.564	1	5
475.734	1	-5
475.905	1	10
476.075	1	12
476.245	1	3
476.416	1	-1
476.586	1	-5
476.756	1	6
476.927	1	-1
477.097	1	-1
477.267	1	3
477.438	1	10
477.608	1	14
477.778	1	-5
477.949	1	10
478.119	1	11
478.289	1	-3
478.460	1	-7
478.630	1	-2
478.800	1	4
478.971	1	4
479.141	1	7
479.311	1	5
479.482	1	-2
479.652	1	3
479.822	1	1
479.993	1	6
480.163	1	13
480.333	1	-5
480.504	1	6
480.674	1	6
480.844	1	2
481.015	1	14
481.185	1	13
481.355	1	4
481.525	1	-8
481.696	1	4
481.866	1	6
482.036	1	7
482.207	1	10
482.377	1	-5
482.547	1	2
482.718	1	2
482.888	1	12
483.058	1	-1
483.229	1	-1
483.399	1	13
483.569	1	-6
483.740	1	2
483.910	1	-4
484.080	1	3
484.250	1	-7
484.421	1	7
484.591	1	2
484.761	1	3
484.932	1	-4
485.102	1	7
485.272	1	1
485.443	1	12
485.613	1	-6
485.783	1	8
485.953	1	3
486.124	1	-2
486.294	1	3
486.464	1	10
486.635	1	7
486.805	1	8
486.975	1	-7
487.146	1	6
487.316	1	12
487.486	1	9
487.656	1	0
487.827	1	13
487.997	1	7
488.167	1	17
488.338	1	-7
488.508	1	7
488.678	1	2
488.848	1	3
489.019	1	-2
489.189	1	-1
489.359	1	-5
489.529	1	7
489.700	1	0
489.870	1	14
490.040	1	5
490.211	1	0
490.381	1	-1
490.551	1	3
490.721	1	-2
490.892	1	-9
491.062	1	-5
491.232	1	1
491.402	1	2
491.573	1	11
491.743	1	5
491.913	1	-3
492.084	1	1
492.254	1	-4
492.424	1	3
492.594	1	-8
492.765	1	9
492.935	1	9
493.105	1	-1
493.275	1	0
493.446	1	-6
493.616	1	5
493.786	1	4
493.956	1	4
494.127	1	-3
494.297	1	-5
494.467	1	4
494.637	1	6
494.808	1	5
494.978	1	-5
495.148	1	0
495.318	1	9
495.489	1	-1
495.659	1	1
495.829	1	2
495.999	1	2
496.170	1	4
496.340	1	-1
496.510	1	10
496.680	1	3
496.851	1	12
497.021	1	6
497.191	1	6
497.361	1	-9
497.532	1	2
497.702	1	1
497.872	1	7
498.042	1	-9
498.213	1	-1
498.383	1	-3
498.553	1	4
498.723	1	-4
498.894	1	2
499.064	1	5
499.234	1	2
499.404	1	2
499.574	1	2
499.745	1	-1
499.915	1	3
500.085	1	2
500.255	1	-5
500.426	1	0
500.596	1	-7
500.766	1	-5
500.936	1	-9
501.106	1	-8
501.277	1	-6
501.447	1	8
501.617	1	0
501.787	1	2
501.958	1	6
502.128	1	5
502.298	1	-7
502.468	1	0
502.638	1	4
502.809	1	-12
502.979	1	2
503.149	1	0
503.319	1	15
503.489	1	-13
503.660	1	-2
503.830	1	8
504.000	1	3
504.170	1	4
504.340	1	-11
504.511	1	0
504.681	1	-7
504.851	1	-3
505.021	1	1
505.192	1	2
505.362	1	-2
505.532	1	-9
505.702	1	12
505.872	1	-8
506.043	1	12
506.213	1	10
506.383	1	4
506.553	1	3
506.723	1	-15
506.893	1	4
507.064	1	5
507.234	1	-5
507.404	1	-7
507.574	1	-3
507.744	1	-1
507.915	1	-2
508.085	1	-6
508.255	1	2
508.425	1	2
508.595	1	-8
508.766	1	2
508.936	1	0
509.106	1	1
509.276	1	8
509.446	1	-8
509.616	1	-3
509.787	1	-1
509.957	1	0
510.127	1	-7
510.297	1	0
510.467	1	1
510.638	1	3
510.808	1	10
510.978	1	-13
511.148	1	6
511.318	1	0
511.488	1	3
511.659	1	1
511.829	1	-2
511.999	1	5
512.169	1	1
512.339	1	15
512.509	1	-9
512.680	1	-10
512.850	1	0
513.020	1	7
513.190	1	-2
513.360	1	3
513.530	1	0
513.700	1	-1
513.871	1	-2
514.041	1	8
514.211	1	-1
514.381	1	-1
514.551	1	-4
514.721	1	10
514.892	1	0
515.062	1	5
515.232	1	-8
515.402	1	-2
515.572	1	3
515.742	1	16
515.912	1	3
516.083	1	-3
516.253	1	7
516.423	1	6
516.593	1	6
516.763	1	3
516.933	1	-3
517.104	1	7
517.274	1	-10
517.444	1	0
517.614	1	-4
517.784	1	4
517.954	1	-8
518.124	1	5
518.294	1	-9
518.465	1	1
518.635	1	16
518.805	1	4
518.975	1	-6
519.145	1	-3
519.315	1	-2
519.485	1	-9
519.656	1	-5
519.826	1	-5
519.996	1	10
520.166	1	2
520.336	1	-12
520.506	1	-5
520.676	1	3
520.846	1	6
521.017	1	-1
521.187	1	5
521.357	1	-1
521.527	1	-7
521.697	1	-7
521.867	1	-1
522.037	1	-2
522.207	1	6
522.377	1	2
522.548	1	-8
522.718	1	-1
522.888	1	1
523.058	1	-3
523.228	1	-1
523.398	1	-1
523.568	1	-11
523.738	1	-2
523.909	1	-1
524.079	1	-3
524.249	1	-8
524.419	1	4
524.589	1	-4
524.759	1	1
524.929	1	3
525.099	1	-2
525.269	1	5
525.439	1	-8
525.610	1	10
525.780	1	-4
525.950	1	6
526.120	1	-2
526.290	1	-8
526.460	1	-9
526.630	1	6
526.800	1	-4
526.970	1	4
527.140	1	8
527.311	1	-1
527.481	1	0
527.651	1	3
527.821	1	-2
527.991	1	-4
528.161	1	8
528.331	1	-11
528.501	1	-3
528.671	1	4
528.841	1	9
529.011	1	6
529.181	1	1
529.352	1	-10
529.522	1	1
529.692	1	7
529.862	1	0
530.032	1	-8
530.202	1	-11
530.372	1	-6
530.542	1	-1
530.712	1	-1
530.882	1	7
531.052	1	1
531.222	1	6
531.392	1	-1
531.563	1	5
531.733	1	-6
531.903	1	2
532.073	1	-6
532.243	1	-4
532.413	1	11
532.583	1	4
532.753	1	-8
532.923	1	0
533.093	1	0
533.263	1	0
533.433	1	-6
533.603	1	-9
533.773	1	2
533.943	1	3
534.113	1	-1
534.284	1	4
534.454	1	4
534.624	1	0
534.794	1	-12
534.964	1	1
535.134	1	-5
535.304	1	1
535.474	1	1
535.644	1	2
535.814	1	1
535.984	1	-3
536.154	1	-8
536.324	1	-2
536.494	1	6
536.664	1	-3
536.834	1	-9
537.004	1	-4
537.174	1	4
537.344	1	-1
537.514	1	5
537.685	1	3
537.855	1	4
538.025	1	12
538.195	1	-1
538.365	1	4
538.535	1	-2
538.705	1	-9
538.875	1	-4
539.045	1	2
539.215	1	-14
539.385	1	4
539.555	1	1
539.725	1	0
539.895	1	-3
540.065	1	1
540.235	1	-8
540.405	1	7
540.575	1	1
540.745	1	6
540.915	1	2
541.085	1	-3
541.255	1	0
541.425	1	-6
541.595	1	-5
541.765	1	3
541.935	1	-1
542.105	1	-7
542.275	1	-7
542.445	1	1
542.615	1	10
542.785	1	-6
542.955	1	8
543.125	1	-6
543.295	1	2
543.465	1	2
543.635	1	-2
543.805	1	6
543.975	1	-4
544.145	1	-3
544.315	1	-9
544.485	1	-1
544.655	1	13
544.825	1	0
544.995	1	-2
545.165	1	0
545.335	1	8
545.505	1	3
545.675	1	13
545.845	1	-4
546.015	1	-9
546.185	1	5
546.355	1	-9
546.525	1	7
546.695	1	-3
546.865	1	3
547.035	1	5
547.205	1	5
547.375	1	9
547.545	1	-1
547.715	1	-1
547.885	1	-7
548.055	1	-4
548.225	1	1
548.395	1	9
548.565	1	4
548.735	1	-13
548.905	1	5
549.075	1	6
549.245	1	6
549.415	1	-1
549.585	1	-4
549.755	1	-1
549.925	1	2
550.095	1	-2
550.265	1	0
550.435	1	7
550.605	1	5
550.775	1	-1
550.945	1	-1
551.115	1	11
551.285	1	-1
551.455	1	2
551.625	1	-11
551.795	1	-6
551.965	1	-4
552.135	1	-3
552.305	1	8
552.475	1	6
552.645	1	-3
552.815	1	-7
552.985	1	-11
553.155	1	-4
553.325	1	-2
553.495	1	4
553.665	1	-6
553.835	1	-6
554.004	1	7
554.174	1	0
554.344	1	-3
554.514	1	-12
554.684	1	4
554.854	1	-3
555.024	1	-4
555.194	1	-1
555.364	1	0
555.534	1	-7
555.704	1	4
555.874	1	5
556.044	1	3
556.214	1	0
556.384	1	2
556.554	1	7
556.724	1	1
556.894	1	-6
557.064	1	-5
557.234	1	4
557.404	1	-1
557.573	1	5
557.743	1	-5
557.913	1	7
558.083	1	-1
558.253	1	-1
558.423	1	-9
558.593	1	1
558.763	1	1
558.933	1	-10
559.103	1	-11
559.273	1	-3
559.443	1	11
559.613	1	5
559.783	1	-4
559.953	1	-18
560.122	1	3
560.292	1	-5
560.462	1	-13
560.632	1	-6
560.802	1	1
560.972	1	-3
561.142	1	2
561.312	1	-8
561.482	1	7
561.652	1	-5
561.822	1	-6
561.992	1	-1
562.162	1	-9
562.331	1	-7
562.501	1	4
562.671	1	-2
562.841	1	-9
563.011	1	-2
563.181	1	-2
563.351	1	-10
563.521	1	-6
563.691	1	2
563.861	1	-1
564.031	1	-1
564.201	1	4
564.370	1	5
564.540	1	-11
564.710	1	-3
564.880	1	-3
565.050	1	2
565.220	1	9
565.390	1	0
565.560	1	-2
565.730	1	1
565.900	1	-4
566.069	1	7
566.239	1	8
566.409	1	12
566.579	1	5
566.749	1	2
566.919	1	-21
567.089	1	-3
567.259	1	9
567.429	1	-7
567.599	1	8
567.768	1	-6
567.938	1	1
568.108	1	-2
568.278	1	3
568.448	1	-3
568.618	1	5
568.788	1	1
568.958	1	1
569.128	1	-8
569.297	1	-9
569.467	1	5
569.637	1	8
569.807	1	0
569.977	1	1
570.147	1	-2
570.317	1	-11
570.487	1	-11
570.656	1	0
570.826	1	0
570.996	1	13
571.166	1	-2
571.336	1	0
571.506	1	1
571.676	1	1
571.846	1	3
572.015	1	-1
572.185	1	-5
572.355	1	-8
572.525	1	-5
572.695	1	-8
572.865	1	4
573.035	1	5
573.205	1	6
573.374	1	-5
573.544	1	-3
573.714	1	1
573.884	1	-2
574.054	1	-1
574.224	1	-5
574.394	1	-5
574.563	1	-9
574.733	1	6
574.903	1	2
575.073	1	11
575.243	1	-2
575.413	1	-7
575.583	1	0
575.752	1	2
575.922	1	2
576.092	1	0
576.262	1	-2
576.432	1	-6
576.602	1	2
576.772	1	-3
576.941	1	-1
577.111	1	3
577.281	1	6
577.451	1	-6
577.621	1	-2
577.791	1	3
577.960	1	-15
578.130	1	7
578.300	1	3
578.470	1	-4
578.640	1	-4
578.810	1	2
578.979	1	-2
579.149	1	2
579.319	1	2
579.489	1	15
579.659	1	-1
579.829	1	-7
579.998	1	-5
580.168	1	-5
580.338	1	4
580.508	1	0
580.678	1	0
580.848	1	-3
581.017	1	6
581.187	1	1
581.357	1	-2
581.527	1	0
581.697	1	0
581.867	1	5
582.036	1	-8
582.206	1	-1
582.376	1	-4
582.546	1	-5
582.716	1	4
582.885	1	-5
583.055	1	-11
583.225	1	-5
583.395	1	4
583.565	1	8
583.735	1	-5
583.904	1	2
584.074	1	-2
584.244	1	-8
584.414	1	-4
584.584	1	-9
584.753	1	3
584.923	1	-14
585.093	1	3
585.263	1	-5
585.433	1	-10
585.602	1	-3
585.772	1	16
585.942	1	-5
586.112	1	-3
586.282	1	1
586.451	1	4
586.621	1	-7
586.791	1	-2
586.961	1	-5
587.131	1	-9
587.300	1	4
587.470	1	-6
587.640	1	-10
587.810	1	-15
587.980	1	2
588.149	1	4
588.319	1	9
588.489	1	2
588.659	1	-1
588.829	1	-4
588.998	1	-5
589.168	1	0
589.338	1	-9
589.508	1	1
589.677	1	0
589.847	1	8
590.017	1	0
590.187	1	-4
590.357	1	-6
590.526	1	-7
590.696	1	3
590.866	1	0
591.036	1	-1
591.205	1	12
591.375	1	0
591.545	1	-3
591.715	1	-3
591.885	1	5
592.054	1	6
592.224	1	-4
592.394	1	-14
592.564	1	-1
592.733	1	-3
592.903	1	1
593.073	1	-9
593.243	1	8
593.412	1	-7
593.582	1	4
593.752	1	-9
593.922	1	0
594.091	1	3
594.261	1	-16
594.431	1	6
594.601	1	-10
594.771	1	-4
594.940	1	-5
595.110	1	-5
595.280	1	3
595.450	1	-4
595.619	1	-4
595.789	1	-11
595.959	1	3
596.129	1	-1
596.298	1	5
596.468	1	-4
596.638	1	-5
596.808	1	-15
596.977	1	-7
597.147	1	-1
597.317	1	-4
597.487	1	4
597.656	1	4
597.826	1	9
597.996	1	-11
598.166	1	0
598.335	1	-7
598.505	1	5
598.675	1	1
598.844	1	9
599.014	1	-8
599.184	1	-6
599.354	1	2
599.523	1	-5
599.693	1	0
599.863	1	5
600.033	1	5
600.202	1	6
600.372	1	-2
600.542	1	2
600.712	1	3
600.881	1	0
601.051	1	4
601.221	1	4
601.390	1	3
601.560	1	5
601.730	1	-1
601.900	1	1
602.069	1	1
602.239	1	-5
602.409	1	5
602.578	1	-1
602.748	1	7
602.918	1	-12
603.088	1	3
603.257	1	-9
603.427	1	3
603.597	1	-10
603.767	1	-1
603.936	1	3
604.106	1	-2
604.276	1	-5
604.445	1	-6
604.615	1	-4
604.785	1	7
604.954	1	-7
605.124	1	-2
605.294	1	-4
605.464	1	-1
605.633	1	-5
605.803	1	-6
605.973	1	-5
606.142	1	3
606.312	1	6
606.482	1	-12
606.652	1	-1
606.821	1	-2
606.991	1	0
607.161	1	-5
607.330	1	-8
607.500	1	-1
607.670	1	8
607.839	1	-4
608.009	1	-4
608.179	1	11
608.348	1	1
608.518	1	3
608.688	1	-7
608.858	1	-1
609.027	1	1
609.197	1	2
609.367	1	-7
609.536	1	-4
609.706	1	2
609.876	1	1
610.045	1	3
610.215	1	2
610.385	1	9
610.554	1	-5
610.724	1	-3
610.894	1	2
611.063	1	-1
611.233	1	3
611.403	1	2
611.572	1	-1
611.742	1	-10
611.912	1	5
612.081	1	1
612.251	1	6
612.421	1	-4
612.590	1	-1
612.760	1	12
612.930	1	11
613.099	1	1
613.269	1	9
613.439	1	-10
613.608	1	-6
613.778	1	0
613.948	1	3
614.117	1	1
614.287	1	-7
614.457	1	-2
614.626	1	4
614.796	1	-1
614.966	1	-5
615.135	1	0
615.305	1	6
615.475	1	3
615.644	1	12
615.814	1	11
615.984	1	-3
616.153	1	-5
616.323	1	-1
616.493	1	-3
616.662	1	3
616.832	1	-3
617.002	1	-5
617.171	1	8
617.341	1	-3
617.511	1	-16
617.680	1	-7
617.850	1	0
618.019	1	1
618.189	1	4
618.359	1	-3
618.528	1	0
618.698	1	-1
618.868	1	4
619.037	1	-4
619.207	1	-7
619.377	1	-13
619.546	1	6
619.716	1	1
619.885	1	-1
620.055	1	-6
620.225	1	6
620.394	1	-7
620.564	1	7
620.734	1	-5
620.903	1	-17
621.073	1	1
621.242	1	3
621.412	1	-9
621.582	1	7
621.751	1	0
621.921	1	2
622.091	1	-3
622.260	1	-7
622.430	1	7
622.599	1	-1
622.769	1	-5
622.939	1	-2
623.108	1	-1
623.278	1	-11
623.448	1	2
623.617	1	-4
623.787	1	-9
623.956	1	-1
624.126	1	5
624.296	1	1
624.465	1	11
624.635	1	-4
624.804	1	-4
624.974	1	-18
625.144	1	-2
625.313	1	13
625.483	1	5
625.652	1	2
625.822	1	2
625.992	1	-13
626.161	1	-4
626.331	1	-6
626.501	1	-3
626.670	1	3
626.840	1	-8
627.009	1	-4
627.179	1	-5
627.348	1	-12
627.518	1	4
627.688	1	1
627.857	1	3
628.027	1	5
628.196	1	3
628.366	1	-8
628.536	1	2
628.705	1	-5
628.875	1	1
629.044	1	-6
629.214	1	-4
629.384	1	4
629.553	1	-6
629.723	1	10
629.892	1	0
630.062	1	3
630.232	1	0
630.401	1	2
630.571	1	1
630.740	1	-6
630.910	1	7
631.079	1	-8
631.249	1	-2
631.419	1	3
631.588	1	2
631.758	1	-8
631.927	1	6
632.097	1	-12
632.266	1	9
632.436	1	-7
632.606	1	-2
632.775	1	0
632.945	1	4
633.114	1	-9
633.284	1	-2
633.453	1	1
633.623	1	13
633.793	1	7
633.962	1	-2
634.132	1	4
634.301	1	3
634.471	1	3
634.640	1	0
634.810	1	1
634.979	1	-2
635.149	1	-12
635.319	1	-2
635.488	1	-5
635.658	1	4
635.827	1	0
635.997	1	3
636.166	1	-5
636.336	1	-10
636.505	1	6
636.675	1	3
636.845	1	3
637.014	1	-8
637.184	1	5
637.353	1	-7
637.523	1	-7
637.692	1	0
637.862	1	-7
638.031	1	-13
638.201	1	-4
638.370	1	8
638.540	1	-4
638.710	1	5
638.879	1	-11
639.049	1	-8
639.218	1	5
639.388	1	-2
639.557	1	-5
639.727	1	1
639.896	1	-11
640.066	1	1
640.235	1	-5
640.405	1	6
640.574	1	2
640.744	1	-6
640.914	1	1
641.083	1	3
641.253	1	-1
641.422	1	-9
641.592	1	-1
641.761	1	-5
641.931	1	8
642.100	1	1
642.270	1	-1
642.439	1	7
642.609	1	-1
642.778	1	-4
642.948	1	4
643.117	1	-4
643.287	1	-2
643.456	1	-2
643.626	1	-2
643.795	1	-1
643.965	1	4
644.134	1	-3
644.304	1	-9
644.473	1	0
644.643	1	-8
644.812	1	-5
644.982	1	5
645.151	1	5
645.321	1	3
645.490	1	6
645.660	1	-3
645.829	1	5
645.999	1	-7
646.168	1	7
646.338	1	-9
646.507	1	-5
646.677	1	-1
646.846	1	-2
647.016	1	7
647.185	1	3
647.355	1	4
647.524	1	-3
647.694	1	-1
647.863	1	-2
648.033	1	-4
648.202	1	-8
648.372	1	-12
648.541	1	2
648.711	1	2
648.880	1	3
649.050	1	-5
649.219	1	2
649.389	1	-5
649.558	1	6
649.728	1	3
649.897	1	7
650.067	1	5
650.236	1	2
650.406	1	-2
650.575	1	2
650.745	1	-4
650.914	1	8
651.084	1	0
651.253	1	-8
651.423	1	-9
651.592	1	-1
651.762	1	-5
651.931	1	10
652.101	1	-5
652.270	1	-12
652.440	1	-3
652.609	1	19
652.778	1	2
652.948	1	5
653.117	1	-3
653.287	1	-14
653.456	1	0
653.626	1	0
653.795	1	6
653.965	1	-3
654.134	1	2
654.304	1	3
654.473	1	-2
654.643	1	-6
654.812	1	13
654.982	1	2
655.151	1	0
655.320	1	-8
655.490	1	-7
655.659	1	9
655.829	1	2
655.998	1	-2
656.168	1	-6
656.337	1	-9
656.507	1	-6
656.676	1	-5
656.846	1	-8
657.015	1	3
657.184	1	0
657.354	1	5
657.523	1	-8
657.693	1	-3
657.862	1	-6
658.032	1	-1
658.201	1	-12
658.371	1	-5
658.540	1	-9
658.709	1	-1
658.879	1	11
659.048	1	11
659.218	1	-1
659.387	1	-1
659.557	1	-6
659.726	1	-2
659.895	1	5
660.065	1	-7
660.234	1	1
660.404	1	-9
660.573	1	-3
660.743	1	-4
660.912	1	-5
661.081	1	0
661.251	1	1
661.420	1	5
661.590	1	-4
661.759	1	8
661.929	1	4
662.098	1	1
662.267	1	-7
662.437	1	1
662.606	1	-13
662.776	1	-1
662.945	1	8
663.115	1	18
663.284	1	-9
663.453	1	-7
663.623	1	4
663.792	1	7
663.962	1	9
664.131	1	-7
664.300	1	1
664.470	1	-11
664.639	1	1
664.809	1	-2
664.978	1	12
665.148	1	0
665.317	1	7
665.486	1	-4
665.656	1	2
665.825	1	0
665.995	1	-6
666.164	1	-5
666.333	1	5
666.503	1	-2
666.672	1	-4
666.842	1	1
667.011	1	2
667.180	1	-1
667.350	1	6
667.519	1	5
667.689	1	1
667.858	1	2
668.027	1	5
668.197	1	-8
668.366	1	-1
668.536	1	0
668.705	1	-13
668.874	1	6
669.044	1	1
669.213	1	6
669.382	1	-2
669.552	1	-4
669.721	1	-7
669.891	1	2
670.060	1	-1
670.229	1	3
670.399	1	9
670.568	1	0
670.738	1	-5
670.907	1	4
671.076	1	-2
671.246	1	13
671.415	1	4
671.584	1	5
671.754	1	-13
671.923	1	1
672.093	1	4
672.262	1	-5
672.431	1	6
672.601	1	0
672.770	1	-2
672.939	1	3
673.109	1	0
673.278	1	-7
673.448	1	2
673.617	1	-3
673.786	1	-18
