325.333	1	23
325.504	1	8
325.675	1	22
325.846	1	24
326.017	1	18
326.188	1	19
326.359	1	38
326.531	1	15
326.702	1	18
326.873	1	33
327.044	1	21
327.215	1	28
327.386	1	16
327.557	1	13
327.728	1	16
327.899	1	29
328.070	1	27
328.241	1	25
328.412	1	23
328.583	1	27
328.754	1	38
328.926	1	30
329.097	1	16
329.268	1	33
329.439	1	26
329.610	1	36
329.781	1	28
329.952	1	29
330.123	1	22
330.294	1	21
330.465	1	22
330.636	1	29
330.807	1	32
330.978	1	25
331.149	1	32
331.320	1	28
331.492	1	33
331.663	1	27
331.834	1	36
332.005	1	36
332.176	1	34
332.347	1	25
332.518	1	44
332.689	1	39
332.860	1	27
333.031	1	29
333.202	1	35
333.373	1	36
333.544	1	27
333.715	1	32
333.886	1	31
334.057	1	19
334.228	1	43
334.399	1	49
334.570	1	38
334.741	1	32
334.912	1	32
335.084	1	58
335.255	1	36
335.426	1	33
335.597	1	28
335.768	1	46
335.939	1	39
336.110	1	34
336.281	1	42
336.452	1	48
336.623	1	36
336.794	1	41
336.965	1	34
337.136	1	49
337.307	1	30
337.478	1	38
337.649	1	44
337.820	1	36
337.991	1	34
338.162	1	42
338.333	1	44
338.504	1	47
338.675	1	36
338.846	1	35
339.017	1	38
339.188	1	38
339.359	1	44
339.530	1	37
339.701	1	51
339.872	1	49
340.043	1	47
340.214	1	50
340.385	1	41
340.556	1	47
340.727	1	53
340.898	1	52
341.069	1	35
341.240	1	43
341.411	1	47
341.582	1	35
341.753	1	40
341.924	1	56
342.095	1	42
342.266	1	58
342.437	1	42
342.608	1	53
342.779	1	46
342.950	1	46
343.121	1	47
343.292	1	52
343.463	1	56
343.634	1	54
343.805	1	56
343.976	1	54
344.147	1	45
344.318	1	53
344.489	1	44
344.660	1	63
344.831	1	69
345.002	1	51
345.173	1	53
345.344	1	45
345.515	1	44
345.686	1	44
345.857	1	64
346.028	1	61
346.199	1	52
346.370	1	65
346.541	1	50
346.712	1	45
346.883	1	47
347.054	1	62
347.225	1	58
347.396	1	61
347.567	1	51
347.738	1	56
347.909	1	58
348.080	1	51
348.251	1	45
348.422	1	56
348.593	1	55
348.764	1	66
348.935	1	61
349.106	1	57
349.277	1	56
349.448	1	64
349.619	1	64
349.790	1	75
349.961	1	58
350.132	1	74
350.303	1	65
350.474	1	59
350.645	1	67
350.816	1	62
350.987	1	68
351.157	1	63
351.328	1	55
351.499	1	65
351.670	1	61
351.841	1	63
352.012	1	75
352.183	1	82
352.354	1	68
352.525	1	82
352.696	1	62
352.867	1	76
353.038	1	75
353.209	1	60
353.380	1	72
353.551	1	72
353.722	1	60
353.893	1	75
354.064	1	76
354.235	1	64
354.406	1	62
354.576	1	70
354.747	1	64
354.918	1	63
355.089	1	65
355.260	1	69
355.431	1	64
355.602	1	77
355.773	1	64
355.944	1	79
356.115	1	76
356.286	1	73
356.457	1	77
356.628	1	75
356.799	1	75
356.970	1	84
357.141	1	75
357.311	1	82
357.482	1	75
357.653	1	74
357.824	1	88
357.995	1	91
358.166	1	73
358.337	1	80
358.508	1	90
358.679	1	76
358.850	1	84
359.021	1	86
359.192	1	95
359.363	1	81
359.533	1	79
359.704	1	85
359.875	1	84
360.046	1	78
360.217	1	96
360.388	1	88
360.559	1	86
360.730	1	76
360.901	1	82
361.072	1	85
361.243	1	86
361.414	1	84
361.584	1	83
361.755	1	76
361.926	1	81
362.097	1	81
362.268	1	87
362.439	1	78
362.610	1	84
362.781	1	70
362.952	1	79
363.123	1	71
363.293	1	70
363.464	1	82
363.635	1	86
363.806	1	82
363.977	1	77
364.148	1	75
364.319	1	86
364.490	1	94
364.661	1	87
364.832	1	89
365.002	1	85
365.173	1	80
365.344	1	83
365.515	1	85
365.686	1	80
365.857	1	89
366.028	1	91
366.199	1	84
366.370	1	90
366.540	1	90
366.711	1	78
366.882	1	94
367.053	1	99
367.224	1	85
367.395	1	93
367.566	1	97
367.737	1	88
367.908	1	97
368.078	1	80
368.249	1	96
368.420	1	96
368.591	1	86
368.762	1	102
368.933	1	92
369.104	1	89
369.274	1	99
369.445	1	95
369.616	1	88
369.787	1	82
369.958	1	106
370.129	1	90
370.300	1	83
370.471	1	90
370.641	1	92
370.812	1	96
370.983	1	86
371.154	1	82
371.325	1	95
371.496	1	85
371.667	1	104
371.837	1	94
372.008	1	89
372.179	1	85
372.350	1	96
372.521	1	92
372.692	1	90
372.863	1	98
373.033	1	92
373.204	1	96
373.375	1	88
373.546	1	101
373.717	1	87
373.888	1	91
374.059	1	88
374.229	1	99
374.400	1	97
374.571	1	97
374.742	1	102
374.913	1	85
375.084	1	98
375.254	1	77
375.425	1	91
375.596	1	95
375.767	1	95
375.938	1	83
376.109	1	93
376.279	1	96
376.450	1	105
376.621	1	101
376.792	1	110
376.963	1	95
377.134	1	97
377.304	1	112
377.475	1	91
377.646	1	100
377.817	1	109
377.988	1	104
378.159	1	96
378.329	1	105
378.500	1	111
378.671	1	111
378.842	1	107
379.013	1	104
379.184	1	102
379.354	1	107
379.525	1	103
379.696	1	107
379.867	1	102
380.038	1	93
380.209	1	107
380.379	1	118
380.550	1	90
380.721	1	92
380.892	1	98
381.063	1	96
381.233	1	101
381.404	1	97
381.575	1	108
381.746	1	111
381.917	1	89
382.087	1	110
382.258	1	110
382.429	1	104
382.600	1	95
382.771	1	106
382.941	1	117
383.112	1	98
383.283	1	103
383.454	1	101
383.625	1	114
383.795	1	113
383.966	1	136
384.137	1	117
384.308	1	99
384.479	1	111
384.649	1	107
384.820	1	119
384.991	1	111
385.162	1	116
385.333	1	116
385.503	1	114
385.674	1	110
385.845	1	115
386.016	1	117
386.187	1	121
386.357	1	133
386.528	1	116
386.699	1	115
386.870	1	111
387.041	1	131
387.211	1	128
387.382	1	129
387.553	1	136
387.724	1	117
387.894	1	111
388.065	1	126
388.236	1	101
388.407	1	132
388.578	1	115
388.748	1	124
388.919	1	122
389.090	1	127
389.261	1	127
389.431	1	112
389.602	1	109
389.773	1	119
389.944	1	124
390.114	1	127
390.285	1	120
390.456	1	118
390.627	1	103
390.798	1	127
390.968	1	123
391.139	1	114
391.310	1	120
391.481	1	123
391.651	1	123
391.822	1	115
391.993	1	116
392.164	1	121
392.334	1	106
392.505	1	121
392.676	1	118
392.847	1	106
393.017	1	116
393.188	1	131
393.359	1	133
393.530	1	142
393.700	1	123
393.871	1	132
394.042	1	106
394.213	1	126
394.383	1	127
394.554	1	119
394.725	1	119
394.896	1	142
395.066	1	133
395.237	1	134
395.408	1	126
395.579	1	134
395.749	1	136
395.920	1	132
396.091	1	134
396.262	1	123
396.432	1	134
396.603	1	138
396.774	1	136
396.945	1	141
397.115	1	139
397.286	1	138
397.457	1	142
397.627	1	136
397.798	1	124
397.969	1	137
398.140	1	131
398.310	1	138
398.481	1	131
398.652	1	133
398.823	1	121
398.993	1	140
399.164	1	142
399.335	1	131
399.505	1	131
399.676	1	128
399.847	1	121
400.018	1	128
400.188	1	136
400.359	1	135
400.530	1	127
400.700	1	133
400.871	1	130
401.042	1	137
401.213	1	142
401.383	1	129
401.554	1	137
401.725	1	127
401.895	1	126
402.066	1	129
402.237	1	126
402.408	1	134
402.578	1	123
402.749	1	137
402.920	1	137
403.090	1	126
403.261	1	133
403.432	1	135
403.603	1	124
403.773	1	140
403.944	1	136
404.115	1	138
404.285	1	142
404.456	1	140
404.627	1	139
404.797	1	146
404.968	1	146
405.139	1	139
405.310	1	127
405.480	1	139
405.651	1	133
405.822	1	129
405.992	1	150
406.163	1	124
406.334	1	142
406.504	1	137
406.675	1	128
406.846	1	136
407.016	1	146
407.187	1	140
407.358	1	149
407.528	1	158
407.699	1	138
407.870	1	151
408.041	1	145
408.211	1	153
408.382	1	145
408.553	1	141
408.723	1	139
408.894	1	139
409.065	1	136
409.235	1	141
409.406	1	138
409.577	1	156
409.747	1	148
409.918	1	141
410.089	1	169
410.259	1	139
410.430	1	140
410.601	1	149
410.771	1	151
410.942	1	138
411.113	1	148
411.283	1	139
411.454	1	144
411.625	1	149
411.795	1	142
411.966	1	141
412.137	1	141
412.307	1	140
412.478	1	136
412.649	1	132
412.819	1	138
412.990	1	134
413.161	1	139
413.331	1	139
413.502	1	139
413.672	1	131
413.843	1	131
414.014	1	140
414.184	1	139
414.355	1	128
414.526	1	127
414.696	1	136
414.867	1	119
415.038	1	132
415.208	1	123
415.379	1	134
415.550	1	140
415.720	1	128
415.891	1	145
416.062	1	145
416.232	1	132
416.403	1	132
416.573	1	131
416.744	1	144
416.915	1	142
417.085	1	134
417.256	1	141
417.427	1	152
417.597	1	137
417.768	1	138
417.939	1	132
418.109	1	138
418.280	1	143
418.450	1	156
418.621	1	139
418.792	1	137
418.962	1	140
419.133	1	125
419.304	1	133
419.474	1	146
419.645	1	146
419.815	1	134
419.986	1	155
420.157	1	135
420.327	1	125
420.498	1	138
420.669	1	145
420.839	1	135
421.010	1	139
421.180	1	133
421.351	1	130
421.522	1	145
421.692	1	149
421.863	1	136
422.033	1	142
422.204	1	129
422.375	1	136
422.545	1	129
422.716	1	122
422.886	1	131
423.057	1	129
423.228	1	122
423.398	1	131
423.569	1	131
423.740	1	131
423.910	1	131
424.081	1	121
424.251	1	138
424.422	1	135
424.593	1	123
424.763	1	120
424.934	1	127
425.104	1	137
425.275	1	119
425.445	1	140
425.616	1	124
425.787	1	129
425.957	1	119
426.128	1	124
426.298	1	121
426.469	1	125
426.640	1	132
426.810	1	103
426.981	1	126
427.151	1	114
427.322	1	125
427.493	1	137
427.663	1	123
427.834	1	125
428.004	1	128
428.175	1	129
428.345	1	114
428.516	1	129
428.687	1	126
428.857	1	132
429.028	1	129
429.198	1	127
429.369	1	126
429.540	1	119
429.710	1	129
429.881	1	127
430.051	1	113
430.222	1	134
430.392	1	125
430.563	1	117
430.734	1	131
430.904	1	134
431.075	1	131
431.245	1	124
431.416	1	122
431.586	1	114
431.757	1	137
431.927	1	134
432.098	1	132
432.269	1	120
432.439	1	121
432.610	1	130
432.780	1	122
432.951	1	110
433.121	1	113
433.292	1	136
433.462	1	124
433.633	1	116
433.804	1	125
433.974	1	119
434.145	1	113
434.315	1	126
434.486	1	118
434.656	1	134
434.827	1	124
434.997	1	124
435.168	1	127
435.339	1	147
435.509	1	119
435.680	1	113
435.850	1	118
436.021	1	114
436.191	1	116
436.362	1	119
436.532	1	132
436.703	1	131
436.873	1	120
437.044	1	134
437.214	1	104
437.385	1	120
437.556	1	123
437.726	1	121
437.897	1	112
438.067	1	112
438.238	1	118
438.408	1	112
438.579	1	115
438.749	1	121
438.920	1	125
439.090	1	109
439.261	1	116
439.431	1	101
439.602	1	117
439.772	1	110
439.943	1	112
440.113	1	107
440.284	1	122
440.455	1	112
440.625	1	115
440.796	1	105
440.966	1	105
441.137	1	109
441.307	1	118
441.478	1	110
441.648	1	101
441.819	1	102
441.989	1	118
442.160	1	121
442.330	1	105
442.501	1	110
442.671	1	106
442.842	1	112
443.012	1	108
443.183	1	106
443.353	1	115
443.524	1	114
443.694	1	109
443.865	1	114
444.035	1	116
444.206	1	107
444.376	1	112
444.547	1	96
444.717	1	113
444.888	1	97
445.058	1	111
445.229	1	109
445.399	1	126
445.570	1	100
445.740	1	114
445.911	1	107
446.081	1	112
446.252	1	111
446.422	1	108
446.593	1	109
446.763	1	109
446.934	1	103
447.104	1	103
447.275	1	114
447.445	1	112
447.616	1	107
447.786	1	94
447.957	1	101
448.127	1	98
448.298	1	112
448.468	1	107
448.639	1	106
448.809	1	103
448.979	1	108
449.150	1	99
449.320	1	97
449.491	1	97
449.661	1	95
449.832	1	105
450.002	1	99
450.173	1	102
450.343	1	94
450.514	1	108
450.684	1	99
450.855	1	105
451.025	1	96
451.196	1	87
451.366	1	102
451.537	1	101
451.707	1	112
451.878	1	90
452.048	1	87
452.218	1	91
452.389	1	103
452.559	1	108
452.730	1	107
452.900	1	90
453.071	1	102
453.241	1	96
453.412	1	92
453.582	1	93
453.753	1	95
453.923	1	85
454.093	1	90
454.264	1	105
454.434	1	100
454.605	1	89
454.775	1	97
454.946	1	84
455.116	1	99
455.287	1	85
455.457	1	100
455.628	1	85
455.798	1	100
455.968	1	90
456.139	1	96
456.309	1	92
456.480	1	92
456.650	1	95
456.821	1	82
456.991	1	99
457.161	1	82
457.332	1	79
457.502	1	94
457.673	1	80
457.843	1	96
458.014	1	94
458.184	1	99
458.355	1	90
458.525	1	70
458.695	1	83
458.866	1	72
459.036	1	93
459.207	1	80
459.377	1	85
459.548	1	88
459.718	1	85
459.888	1	82
460.059	1	88
460.229	1	82
460.400	1	98
460.570	1	80
460.740	1	92
460.911	1	86
461.081	1	90
461.252	1	87
461.422	1	82
461.593	1	92
461.763	1	88
461.933	1	76
462.104	1	82
462.274	1	80
462.445	1	84
462.615	1	107
462.785	1	90
462.956	1	72
463.126	1	79
463.297	1	81
463.467	1	90
463.638	1	86
463.808	1	83
463.978	1	65
464.149	1	84
464.319	1	75
464.490	1	82
464.660	1	70
464.830	1	74
465.001	1	74
465.171	1	75
465.342	1	77
465.512	1	74
465.682	1	67
465.853	1	80
466.023	1	79
466.194	1	88
466.364	1	86
466.534	1	66
466.705	1	83
466.875	1	61
467.045	1	68
467.216	1	71
467.386	1	61
467.557	1	82
467.727	1	72
467.897	1	72
468.068	1	68
468.238	1	80
468.409	1	76
468.579	1	73
468.749	1	75
468.920	1	68
469.090	1	75
469.260	1	67
469.431	1	66
469.601	1	75
469.772	1	80
469.942	1	75
470.112	1	62
470.283	1	61
470.453	1	72
470.623	1	73
470.794	1	66
470.964	1	68
471.135	1	71
471.305	1	68
471.475	1	71
471.646	1	78
471.816	1	72
471.986	1	57
472.157	1	71
472.327	1	73
472.497	1	72
472.668	1	67
472.838	1	58
473.009	1	69
473.179	1	63
473.349	1	65
473.520	1	77
473.690	1	71
473.860	1	62
474.031	1	61
474.201	1	74
474.371	1	74
474.542	1	55
474.712	1	68
474.882	1	71
475.053	1	74
475.223	1	72
475.394	1	60
475.564	1	71
475.734	1	63
475.905	1	76
476.075	1	73
476.245	1	66
476.416	1	66
476.586	1	58
476.756	1	73
476.927	1	57
477.097	1	68
477.267	1	62
477.438	1	75
477.608	1	73
477.778	1	53
477.949	1	57
478.119	1	65
478.289	1	60
478.460	1	57
478.630	1	58
478.800	1	60
478.971	1	68
479.141	1	61
479.311	1	62
479.482	1	63
479.652	1	69
479.822	1	63
479.993	1	57
480.163	1	68
480.333	1	62
480.504	1	59
480.674	1	65
480.844	1	56
481.015	1	64
481.185	1	64
481.355	1	65
481.525	1	60
481.696	1	66
481.866	1	47
482.036	1	60
482.207	1	66
482.377	1	62
482.547	1	54
482.718	1	67
482.888	1	70
483.058	1	65
483.229	1	60
483.399	1	60
483.569	1	53
483.740	1	62
483.910	1	54
484.080	1	61
484.250	1	47
484.421	1	56
484.591	1	61
484.761	1	57
484.932	1	51
485.102	1	64
485.272	1	44
485.443	1	60
485.613	1	54
485.783	1	44
485.953	1	49
486.124	1	58
486.294	1	62
486.464	1	59
486.635	1	54
486.805	1	55
486.975	1	46
487.146	1	58
487.316	1	60
487.486	1	49
487.656	1	56
487.827	1	62
487.997	1	44
488.167	1	60
488.338	1	48
488.508	1	66
488.678	1	46
488.848	1	54
489.019	1	54
489.189	1	62
489.359	1	45
489.529	1	60
489.700	1	45
489.870	1	60
490.040	1	47
490.211	1	38
490.381	1	52
490.551	1	47
490.721	1	48
490.892	1	38
491.062	1	43
491.232	1	48
491.402	1	50
491.573	1	51
491.743	1	51
491.913	1	55
492.084	1	54
492.254	1	44
492.424	1	54
492.594	1	44
492.765	1	58
492.935	1	58
493.105	1	53
493.275	1	36
493.446	1	48
493.616	1	37
493.786	1	51
493.956	1	58
494.127	1	47
494.297	1	28
494.467	1	43
494.637	1	47
494.808	1	56
494.978	1	52
495.148	1	52
495.318	1	54
495.489	1	46
495.659	1	48
495.829	1	39
495.999	1	47
496.170	1	51
496.340	1	39
496.510	1	47
496.680	1	61
496.851	1	58
497.021	1	49
497.191	1	36
497.361	1	32
497.532	1	46
497.702	1	45
497.872	1	52
498.042	1	42
498.213	1	42
498.383	1	47
498.553	1	47
498.723	1	41
498.894	1	44
499.064	1	43
499.234	1	46
499.404	1	50
499.574	1	45
499.745	1	38
499.915	1	44
500.085	1	43
500.255	1	24
500.426	1	33
500.596	1	36
500.766	1	30
500.936	1	31
501.106	1	42
501.277	1	26
501.447	1	50
501.617	1	31
501.787	1	39
501.958	1	45
502.128	1	40
502.298	1	44
502.468	1	46
502.638	1	40
502.809	1	31
502.979	1	49
503.149	1	35
503.319	1	46
503.489	1	15
503.660	1	29
503.830	1	38
504.000	1	39
504.170	1	37
504.340	1	31
504.511	1	30
504.681	1	39
504.851	1	31
505.021	1	41
505.192	1	32
505.362	1	35
505.532	1	26
505.702	1	39
505.872	1	35
506.043	1	36
506.213	1	51
506.383	1	37
506.553	1	31
506.723	1	28
506.893	1	40
507.064	1	56
507.234	1	34
507.404	1	38
507.574	1	38
507.744	1	37
507.915	1	27
508.085	1	32
508.255	1	24
508.425	1	37
508.595	1	38
508.766	1	30
508.936	1	36
509.106	1	36
509.276	1	43
509.446	1	36
509.616	1	32
509.787	1	30
509.957	1	35
510.127	1	22
510.297	1	31
510.467	1	40
510.638	1	42
510.808	1	38
510.978	1	18
511.148	1	33
511.318	1	33
511.488	1	29
511.659	1	29
511.829	1	31
511.999	1	35
512.169	1	40
512.339	1	43
512.509	1	29
512.680	1	25
512.850	1	30
513.020	1	30
513.190	1	16
513.360	1	38
513.530	1	36
513.700	1	49
513.871	1	38
514.041	1	29
514.211	1	26
514.381	1	31
514.551	1	26
514.721	1	36
514.892	1	28
515.062	1	37
515.232	1	32
515.402	1	33
515.572	1	32
515.742	1	44
515.912	1	27
516.083	1	35
516.253	1	35
516.423	1	27
516.593	1	36
516.763	1	34
516.933	1	26
517.104	1	37
517.274	1	27
517.444	1	36
517.614	1	28
517.784	1	24
517.954	1	20
518.124	1	42
518.294	1	19
518.465	1	37
518.635	1	40
518.805	1	31
518.975	1	34
519.145	1	36
519.315	1	25
519.485	1	22
519.656	1	14
519.826	1	19
519.996	1	24
520.166	1	28
520.336	1	30
520.506	1	26
520.676	1	25
520.846	1	25
521.017	1	29
521.187	1	23
521.357	1	15
521.527	1	23
521.697	1	17
521.867	1	33
522.037	1	27
522.207	1	34
522.377	1	34
522.548	1	14
522.718	1	20
522.888	1	30
523.058	1	20
523.228	1	18
523.398	1	30
523.568	1	18
523.738	1	31
523.909	1	27
524.079	1	23
524.249	1	22
524.419	1	22
524.589	1	19
524.759	1	31
524.929	1	16
525.099	1	20
525.269	1	34
525.439	1	17
525.610	1	20
525.780	1	33
525.950	1	30
526.120	1	16
526.290	1	19
526.460	1	15
526.630	1	18
526.800	1	28
526.970	1	25
527.140	1	15
527.311	1	29
527.481	1	22
527.651	1	21
527.821	1	21
527.991	1	18
528.161	1	16
528.331	1	16
528.501	1	11
528.671	1	19
528.841	1	23
529.011	1	25
529.181	1	18
529.352	1	23
529.522	1	13
529.692	1	14
529.862	1	20
530.032	1	9
530.202	1	21
530.372	1	20
530.542	1	21
530.712	1	33
530.882	1	20
531.052	1	18
531.222	1	26
531.392	1	25
531.563	1	16
531.733	1	10
531.903	1	28
532.073	1	18
532.243	1	29
532.413	1	40
532.583	1	18
532.753	1	14
532.923	1	28
533.093	1	17
533.263	1	14
533.433	1	18
533.603	1	25
533.773	1	22
533.943	1	24
534.113	1	25
534.284	1	10
534.454	1	35
534.624	1	26
534.794	1	22
534.964	1	27
535.134	1	12
535.304	1	29
535.474	1	23
535.644	1	20
535.814	1	18
535.984	1	17
536.154	1	14
536.324	1	10
536.494	1	28
536.664	1	16
536.834	1	18
537.004	1	15
537.174	1	25
537.344	1	30
537.514	1	16
537.685	1	24
537.855	1	13
538.025	1	21
538.195	1	3
538.365	1	11
538.535	1	9
538.705	1	15
538.875	1	13
539.045	1	20
539.215	1	4
539.385	1	24
539.555	1	18
539.725	1	15
539.895	1	20
540.065	1	22
540.235	1	17
540.405	1	30
540.575	1	17
540.745	1	20
540.915	1	17
541.085	1	19
541.255	1	13
541.425	1	13
541.595	1	21
541.765	1	16
541.935	1	15
542.105	1	15
542.275	1	3
542.445	1	23
542.615	1	16
542.785	1	19
542.955	1	22
543.125	1	14
543.295	1	21
543.465	1	21
543.635	1	9
543.805	1	24
543.975	1	15
544.145	1	20
544.315	1	2
544.485	1	11
544.655	1	25
544.825	1	25
544.995	1	12
545.165	1	16
545.335	1	11
545.505	1	19
545.675	1	22
545.845	1	27
546.015	1	11
546.185	1	5
546.355	1	9
546.525	1	19
546.695	1	16
546.865	1	11
547.035	1	13
547.205	1	16
547.375	1	23
547.545	1	24
547.715	1	16
547.885	1	14
548.055	1	9
548.225	1	24
548.395	1	19
548.565	1	15
548.735	1	4
548.905	1	24
549.075	1	15
549.245	1	19
549.415	1	16
549.585	1	12
549.755	1	16
549.925	1	14
550.095	1	8
550.265	1	18
550.435	1	21
550.605	1	13
550.775	1	5
550.945	1	11
551.115	1	27
551.285	1	12
551.455	1	14
551.625	1	9
551.795	1	14
551.965	1	3
552.135	1	3
552.305	1	26
552.475	1	16
552.645	1	8
552.815	1	11
552.985	1	11
553.155	1	7
553.325	1	12
553.495	1	24
553.665	1	9
553.835	1	10
554.004	1	12
554.174	1	0
554.344	1	22
554.514	1	17
554.684	1	21
554.854	1	0
555.024	1	17
555.194	1	15
555.364	1	19
555.534	1	7
555.704	1	7
555.874	1	18
556.044	1	8
556.214	1	8
556.384	1	18
556.554	1	21
556.724	1	11
556.894	1	7
557.064	1	10
557.234	1	16
557.404	1	21
557.573	1	18
557.743	1	6
557.913	1	10
558.083	1	12
558.253	1	9
558.423	1	8
558.593	1	16
558.763	1	14
558.933	1	20
559.103	1	5
559.273	1	18
559.443	1	17
559.613	1	16
559.783	1	11
559.953	1	2
560.122	1	16
560.292	1	2
560.462	1	2
560.632	1	16
560.802	1	23
560.972	1	9
561.142	1	13
561.312	1	6
561.482	1	18
561.652	1	18
561.822	1	6
561.992	1	10
562.162	1	11
562.331	1	1
562.501	1	8
562.671	1	14
562.841	1	3
563.011	1	10
563.181	1	4
563.351	1	5
563.521	1	15
563.691	1	14
563.861	1	7
564.031	1	6
564.201	1	5
564.370	1	10
564.540	1	5
564.710	1	9
564.880	1	12
565.050	1	16
565.220	1	15
565.390	1	5
565.560	1	10
565.730	1	10
565.900	1	17
566.069	1	16
566.239	1	22
566.409	1	16
566.579	1	11
566.749	1	4
566.919	1	5
567.089	1	-1
567.259	1	16
567.429	1	0
567.599	1	19
567.768	1	4
567.938	1	17
568.108	1	7
568.278	1	11
568.448	1	9
568.618	1	10
568.788	1	17
568.958	1	4
569.128	1	8
569.297	1	2
569.467	1	15
569.637	1	22
569.807	1	16
569.977	1	10
570.147	1	6
570.317	1	9
570.487	1	0
570.656	1	12
570.826	1	1
570.996	1	17
571.166	1	11
571.336	1	12
571.506	1	5
571.676	1	16
571.846	1	13
572.015	1	8
572.185	1	7
572.355	1	9
572.525	1	1
572.695	1	11
572.865	1	20
573.035	1	19
573.205	1	10
573.374	1	2
573.544	1	9
573.714	1	2
573.884	1	5
574.054	1	18
574.224	1	16
574.394	1	7
574.563	1	-2
574.733	1	13
574.903	1	10
575.073	1	5
575.243	1	7
575.413	1	6
575.583	1	1
575.752	1	12
575.922	1	11
576.092	1	8
576.262	1	7
576.432	1	0
576.602	1	9
576.772	1	15
576.941	1	9
577.111	1	3
577.281	1	8
577.451	1	13
577.621	1	10
577.791	1	14
577.960	1	6
578.130	1	14
578.300	1	9
578.470	1	11
578.640	1	4
578.810	1	14
578.979	1	6
579.149	1	6
579.319	1	11
579.489	1	12
579.659	1	5
579.829	1	1
579.998	1	-3
580.168	1	0
580.338	1	14
580.508	1	8
580.678	1	12
580.848	1	14
581.017	1	9
581.187	1	11
581.357	1	16
581.527	1	1
581.697	1	4
581.867	1	7
582.036	1	-6
582.206	1	10
582.376	1	8
582.546	1	6
582.716	1	22
582.885	1	6
583.055	1	8
583.225	1	12
583.395	1	17
583.565	1	16
583.735	1	1
583.904	1	7
584.074	1	13
584.244	1	8
584.414	1	11
584.584	1	9
584.753	1	16
584.923	1	1
585.093	1	16
585.263	1	7
585.433	1	-3
585.602	1	19
585.772	1	16
585.942	1	6
586.112	1	7
586.282	1	12
586.451	1	15
586.621	1	0
586.791	1	1
586.961	1	6
587.131	1	2
587.300	1	19
587.470	1	3
587.640	1	14
587.810	1	5
587.980	1	11
588.149	1	12
588.319	1	21
588.489	1	13
588.659	1	10
588.829	1	16
588.998	1	0
589.168	1	6
589.338	1	9
589.508	1	7
589.677	1	10
589.847	1	16
590.017	1	14
590.187	1	9
590.357	1	13
590.526	1	8
590.696	1	23
590.866	1	0
591.036	1	16
591.205	1	5
591.375	1	15
591.545	1	1
591.715	1	0
591.885	1	17
592.054	1	18
592.224	1	5
592.394	1	-4
592.564	1	7
592.733	1	7
592.903	1	12
593.073	1	5
593.243	1	25
593.412	1	1
593.582	1	10
593.752	1	3
593.922	1	1
594.091	1	22
594.261	1	0
594.431	1	11
594.601	1	3
594.771	1	18
594.940	1	7
595.110	1	12
595.280	1	12
595.450	1	13
595.619	1	12
595.789	1	1
595.959	1	8
596.129	1	2
596.298	1	19
596.468	1	12
596.638	1	18
596.808	1	3
596.977	1	11
597.147	1	5
597.317	1	11
597.487	1	7
597.656	1	8
597.826	1	23
597.996	1	2
598.166	1	7
598.335	1	3
598.505	1	9
598.675	1	6
598.844	1	22
599.014	1	-2
599.184	1	9
599.354	1	11
599.523	1	5
599.693	1	17
599.863	1	10
600.033	1	16
600.202	1	5
600.372	1	6
600.542	1	11
600.712	1	1
600.881	1	14
601.051	1	16
601.221	1	11
601.390	1	8
601.560	1	21
601.730	1	11
601.900	1	5
602.069	1	6
602.239	1	4
602.409	1	11
602.578	1	10
602.748	1	9
602.918	1	3
603.088	1	22
603.257	1	3
603.427	1	14
603.597	1	6
603.767	1	4
603.936	1	19
604.106	1	19
604.276	1	9
604.445	1	-5
604.615	1	10
604.785	1	17
604.954	1	10
605.124	1	8
605.294	1	-2
605.464	1	7
605.633	1	6
605.803	1	11
605.973	1	7
606.142	1	15
606.312	1	20
606.482	1	0
606.652	1	15
606.821	1	13
606.991	1	14
607.161	1	14
607.330	1	13
607.500	1	10
607.670	1	20
607.839	1	9
608.009	1	10
608.179	1	13
608.348	1	15
608.518	1	21
608.688	1	5
608.858	1	4
609.027	1	25
609.197	1	8
609.367	1	0
609.536	1	6
609.706	1	17
609.876	1	10
610.045	1	15
610.215	1	18
610.385	1	14
610.554	1	10
610.724	1	3
610.894	1	14
611.063	1	10
611.233	1	21
611.403	1	18
611.572	1	14
611.742	1	4
611.912	1	14
612.081	1	22
612.251	1	23
612.421	1	13
612.590	1	7
612.760	1	16
612.930	1	4
613.099	1	6
613.269	1	11
613.439	1	5
613.608	1	15
613.778	1	12
613.948	1	22
614.117	1	15
614.287	1	5
614.457	1	7
614.626	1	9
614.796	1	5
614.966	1	14
615.135	1	28
615.305	1	9
615.475	1	8
615.644	1	25
615.814	1	19
615.984	1	19
616.153	1	16
616.323	1	8
616.493	1	21
616.662	1	0
616.832	1	16
617.002	1	9
617.171	1	22
617.341	1	18
617.511	1	9
617.680	1	11
617.850	1	14
618.019	1	9
618.189	1	24
618.359	1	12
618.528	1	10
618.698	1	12
618.868	1	8
619.037	1	18
619.207	1	12
619.377	1	24
619.546	1	21
619.716	1	15
619.885	1	25
620.055	1	6
620.225	1	21
620.394	1	14
620.564	1	12
620.734	1	13
620.903	1	1
621.073	1	21
621.242	1	4
621.412	1	12
621.582	1	20
621.751	1	13
621.921	1	14
622.091	1	11
622.260	1	20
622.430	1	15
622.599	1	10
622.769	1	13
622.939	1	13
623.108	1	11
623.278	1	8
623.448	1	17
623.617	1	17
623.787	1	10
623.956	1	14
624.126	1	19
624.296	1	19
624.465	1	14
624.635	1	14
624.804	1	3
624.974	1	14
625.144	1	10
625.313	1	28
625.483	1	19
625.652	1	24
625.822	1	14
625.992	1	7
626.161	1	21
626.331	1	10
626.501	1	11
626.670	1	14
626.840	1	14
627.009	1	12
627.179	1	14
627.348	1	13
627.518	1	19
627.688	1	13
627.857	1	21
628.027	1	19
628.196	1	20
628.366	1	11
628.536	1	3
628.705	1	4
628.875	1	8
629.044	1	11
629.214	1	21
629.384	1	17
629.553	1	17
629.723	1	18
629.892	1	23
630.062	1	18
630.232	1	25
630.401	1	5
630.571	1	12
630.740	1	9
630.910	1	23
631.079	1	14
631.249	1	14
631.419	1	10
631.588	1	20
631.758	1	9
631.927	1	28
632.097	1	7
632.266	1	22
632.436	1	10
632.606	1	5
632.775	1	13
632.945	1	10
633.114	1	16
633.284	1	13
633.453	1	19
633.623	1	27
633.793	1	14
633.962	1	24
634.132	1	13
634.301	1	13
634.471	1	20
634.640	1	16
634.810	1	16
634.979	1	17
635.149	1	18
635.319	1	17
635.488	1	13
635.658	1	24
635.827	1	12
635.997	1	15
636.166	1	19
636.336	1	7
636.505	1	24
636.675	1	14
636.845	1	7
637.014	1	13
637.184	1	17
637.353	1	20
637.523	1	9
637.692	1	21
637.862	1	10
638.031	1	13
638.201	1	25
638.370	1	19
638.540	1	4
638.710	1	16
638.879	1	8
639.049	1	7
639.218	1	19
639.388	1	23
639.557	1	13
639.727	1	16
639.896	1	13
640.066	1	19
640.235	1	14
640.405	1	17
640.574	1	19
640.744	1	22
640.914	1	17
641.083	1	22
641.253	1	16
641.422	1	14
641.592	1	18
641.761	1	14
641.931	1	24
642.100	1	14
642.270	1	19
642.439	1	23
642.609	1	23
642.778	1	10
642.948	1	24
643.117	1	23
643.287	1	19
643.456	1	15
643.626	1	10
643.795	1	11
643.965	1	17
644.134	1	11
644.304	1	9
644.473	1	12
644.643	1	10
644.812	1	8
644.982	1	26
645.151	1	22
645.321	1	16
645.490	1	39
645.660	1	17
645.829	1	18
645.999	1	17
646.168	1	32
646.338	1	21
646.507	1	13
646.677	1	24
646.846	1	29
647.016	1	25
647.185	1	21
647.355	1	38
647.524	1	9
647.694	1	5
647.863	1	20
648.033	1	20
648.202	1	27
648.372	1	4
648.541	1	17
648.711	1	19
648.880	1	20
649.050	1	13
649.219	1	21
649.389	1	17
649.558	1	34
649.728	1	19
649.897	1	25
650.067	1	43
650.236	1	13
650.406	1	13
650.575	1	23
650.745	1	24
650.914	1	25
651.084	1	16
651.253	1	13
651.423	1	13
651.592	1	21
651.762	1	7
651.931	1	28
652.101	1	6
652.270	1	16
652.440	1	30
652.609	1	29
652.778	1	19
652.948	1	21
653.117	1	17
653.287	1	7
653.456	1	20
653.626	1	21
653.795	1	17
653.965	1	23
654.134	1	6
654.304	1	25
654.473	1	28
654.643	1	15
654.812	1	26
654.982	1	18
655.151	1	26
655.320	1	6
655.490	1	22
655.659	1	17
655.829	1	27
655.998	1	29
656.168	1	16
656.337	1	23
656.507	1	20
656.676	1	22
656.846	1	5
657.015	1	29
657.184	1	26
657.354	1	22
657.523	1	13
657.693	1	27
657.862	1	15
658.032	1	18
658.201	1	18
658.371	1	14
658.540	1	8
658.709	1	37
658.879	1	20
659.048	1	26
659.218	1	13
659.387	1	27
659.557	1	23
659.726	1	21
659.895	1	31
660.065	1	253
660.234	1	136
660.404	1	36
660.573	1	28
660.743	1	22
660.912	1	25
661.081	1	30
661.251	1	28
661.420	1	19
661.590	1	31
661.759	1	35
661.929	1	12
662.098	1	34
662.267	1	21
662.437	1	26
662.606	1	20
662.776	1	26
662.945	1	29
663.115	1	40
663.284	1	32
663.453	1	25
663.623	1	23
663.792	1	31
663.962	1	31
664.131	1	25
664.300	1	25
664.470	1	27
664.639	1	31
664.809	1	25
664.978	1	45
665.148	1	32
665.317	1	27
665.486	1	24
665.656	1	30
665.825	1	28
665.995	1	13
666.164	1	29
666.333	1	28
666.503	1	14
666.672	1	35
666.842	1	35
667.011	1	22
667.180	1	26
667.350	1	28
667.519	1	23
667.689	1	33
667.858	1	31
668.027	1	18
668.197	1	25
668.366	1	35
668.536	1	12
668.705	1	23
668.874	1	25
669.044	1	27
669.213	1	27
669.382	1	24
669.552	1	38
669.721	1	18
669.891	1	13
670.060	1	21
670.229	1	39
670.399	1	30
670.568	1	24
670.738	1	27
670.907	1	32
671.076	1	21
671.246	1	29
671.415	1	36
671.584	1	24
671.754	1	12
671.923	1	31
672.093	1	27
672.262	1	11
672.431	1	30
672.601	1	33
672.770	1	25
672.939	1	33
673.109	1	19
673.278	1	33
673.448	1	30
673.617	1	27
673.786	1	14
