325.333	1	8
325.504	1	-10
325.675	1	16
325.846	1	6
326.017	1	7
326.188	1	13
326.359	1	2
326.531	1	3
326.702	1	3
326.873	1	9
327.044	1	4
327.215	1	2
327.386	1	3
327.557	1	3
327.728	1	1
327.899	1	8
328.070	1	10
328.241	1	13
328.412	1	10
328.583	1	6
328.754	1	14
328.926	1	15
329.097	1	2
329.268	1	13
329.439	1	19
329.610	1	3
329.781	1	20
329.952	1	8
330.123	1	5
330.294	1	1
330.465	1	13
330.636	1	13
330.807	1	13
330.978	1	12
331.149	1	10
331.320	1	8
331.492	1	7
331.663	1	12
331.834	1	14
332.005	1	10
332.176	1	14
332.347	1	-3
332.518	1	15
332.689	1	3
332.860	1	5
333.031	1	16
333.202	1	13
333.373	1	16
333.544	1	11
333.715	1	18
333.886	1	8
334.057	1	-2
334.228	1	6
334.399	1	19
334.570	1	12
334.741	1	8
334.912	1	9
335.084	1	16
335.255	1	15
335.426	1	14
335.597	1	10
335.768	1	18
335.939	1	6
336.110	1	11
336.281	1	15
336.452	1	16
336.623	1	12
336.794	1	18
336.965	1	11
337.136	1	27
337.307	1	7
337.478	1	19
337.649	1	3
337.820	1	9
337.991	1	10
338.162	1	11
338.333	1	9
338.504	1	32
338.675	1	14
338.846	1	4
339.017	1	13
339.188	1	13
339.359	1	21
339.530	1	6
339.701	1	15
339.872	1	26
340.043	1	12
340.214	1	20
340.385	1	2
340.556	1	16
340.727	1	21
340.898	1	21
341.069	1	12
341.240	1	6
341.411	1	21
341.582	1	2
341.753	1	16
341.924	1	13
342.095	1	19
342.266	1	19
342.437	1	23
342.608	1	15
342.779	1	9
342.950	1	23
343.121	1	15
343.292	1	11
343.463	1	32
343.634	1	14
343.805	1	11
343.976	1	22
344.147	1	18
344.318	1	6
344.489	1	8
344.660	1	24
344.831	1	25
345.002	1	19
345.173	1	20
345.344	1	13
345.515	1	24
345.686	1	15
345.857	1	23
346.028	1	31
346.199	1	22
346.370	1	3
346.541	1	25
346.712	1	15
346.883	1	17
347.054	1	32
347.225	1	24
347.396	1	16
347.567	1	16
347.738	1	24
347.909	1	26
348.080	1	33
348.251	1	15
348.422	1	31
348.593	1	21
348.764	1	13
348.935	1	34
349.106	1	19
349.277	1	16
349.448	1	31
349.619	1	22
349.790	1	22
349.961	1	17
350.132	1	25
350.303	1	17
350.474	1	34
350.645	1	14
350.816	1	23
350.987	1	33
351.157	1	16
351.328	1	10
351.499	1	30
351.670	1	16
351.841	1	32
352.012	1	30
352.183	1	21
352.354	1	23
352.525	1	30
352.696	1	17
352.867	1	32
353.038	1	31
353.209	1	19
353.380	1	25
353.551	1	21
353.722	1	24
353.893	1	38
354.064	1	17
354.235	1	33
354.406	1	11
354.576	1	21
354.747	1	31
354.918	1	20
355.089	1	42
355.260	1	22
355.431	1	17
355.602	1	39
355.773	1	30
355.944	1	22
356.115	1	31
356.286	1	33
356.457	1	20
356.628	1	36
356.799	1	26
356.970	1	37
357.141	1	28
357.311	1	37
357.482	1	23
357.653	1	21
357.824	1	37
357.995	1	38
358.166	1	25
358.337	1	33
358.508	1	46
358.679	1	24
358.850	1	41
359.021	1	24
359.192	1	39
359.363	1	29
359.533	1	27
359.704	1	31
359.875	1	33
360.046	1	37
360.217	1	35
360.388	1	42
360.559	1	31
360.730	1	31
360.901	1	30
361.072	1	34
361.243	1	21
361.414	1	42
361.584	1	29
361.755	1	26
361.926	1	39
362.097	1	31
362.268	1	43
362.439	1	26
362.610	1	35
362.781	1	20
362.952	1	43
363.123	1	24
363.293	1	36
363.464	1	26
363.635	1	36
363.806	1	33
363.977	1	42
364.148	1	29
364.319	1	20
364.490	1	35
364.661	1	30
364.832	1	40
365.002	1	18
365.173	1	32
365.344	1	37
365.515	1	36
365.686	1	43
365.857	1	43
366.028	1	41
366.199	1	38
366.370	1	31
366.540	1	32
366.711	1	45
366.882	1	35
367.053	1	28
367.224	1	31
367.395	1	38
367.566	1	32
367.737	1	34
367.908	1	34
368.078	1	22
368.249	1	33
368.420	1	36
368.591	1	41
368.762	1	43
368.933	1	30
369.104	1	32
369.274	1	42
369.445	1	51
369.616	1	34
369.787	1	34
369.958	1	38
370.129	1	30
370.300	1	30
370.471	1	46
370.641	1	39
370.812	1	36
370.983	1	26
371.154	1	42
371.325	1	33
371.496	1	27
371.667	1	43
371.837	1	36
372.008	1	39
372.179	1	33
372.350	1	46
372.521	1	30
372.692	1	38
372.863	1	39
373.033	1	33
373.204	1	39
373.375	1	29
373.546	1	35
373.717	1	28
373.888	1	43
374.059	1	36
374.229	1	46
374.400	1	40
374.571	1	34
374.742	1	33
374.913	1	23
375.084	1	37
375.254	1	39
375.425	1	33
375.596	1	34
375.767	1	38
375.938	1	26
376.109	1	35
376.279	1	44
376.450	1	38
376.621	1	39
376.792	1	40
376.963	1	36
377.134	1	38
377.304	1	42
377.475	1	34
377.646	1	34
377.817	1	40
377.988	1	43
378.159	1	50
378.329	1	35
378.500	1	46
378.671	1	34
378.842	1	35
379.013	1	40
379.184	1	35
379.354	1	38
379.525	1	42
379.696	1	47
379.867	1	39
380.038	1	37
380.209	1	42
380.379	1	39
380.550	1	27
380.721	1	39
380.892	1	33
381.063	1	42
381.233	1	39
381.404	1	33
381.575	1	33
381.746	1	40
381.917	1	40
382.087	1	33
382.258	1	47
382.429	1	31
382.600	1	40
382.771	1	37
382.941	1	53
383.112	1	42
383.283	1	42
383.454	1	30
383.625	1	51
383.795	1	52
383.966	1	38
384.137	1	45
384.308	1	43
384.479	1	44
384.649	1	41
384.820	1	44
384.991	1	38
385.162	1	55
385.333	1	38
385.503	1	43
385.674	1	44
385.845	1	49
386.016	1	51
386.187	1	34
386.357	1	63
386.528	1	43
386.699	1	44
386.870	1	45
387.041	1	45
387.211	1	38
387.382	1	61
387.553	1	51
387.724	1	52
387.894	1	36
388.065	1	52
388.236	1	44
388.407	1	57
388.578	1	41
388.748	1	58
388.919	1	50
389.090	1	64
389.261	1	54
389.431	1	36
389.602	1	53
389.773	1	46
389.944	1	46
390.114	1	59
390.285	1	61
390.456	1	44
390.627	1	41
390.798	1	43
390.968	1	56
391.139	1	51
391.310	1	45
391.481	1	48
391.651	1	51
391.822	1	51
391.993	1	43
392.164	1	39
392.334	1	37
392.505	1	51
392.676	1	37
392.847	1	43
393.017	1	56
393.188	1	51
393.359	1	65
393.530	1	59
393.700	1	43
393.871	1	49
394.042	1	51
394.213	1	49
394.383	1	51
394.554	1	55
394.725	1	45
394.896	1	54
395.066	1	54
395.237	1	49
395.408	1	53
395.579	1	46
395.749	1	70
395.920	1	49
396.091	1	49
396.262	1	44
396.432	1	47
396.603	1	54
396.774	1	34
396.945	1	51
397.115	1	52
397.286	1	47
397.457	1	47
397.627	1	48
397.798	1	57
397.969	1	53
398.140	1	43
398.310	1	55
398.481	1	43
398.652	1	68
398.823	1	42
398.993	1	51
399.164	1	60
399.335	1	45
399.505	1	44
399.676	1	58
399.847	1	51
400.018	1	47
400.188	1	63
400.359	1	57
400.530	1	47
400.700	1	45
400.871	1	53
401.042	1	45
401.213	1	47
401.383	1	51
401.554	1	52
401.725	1	44
401.895	1	34
402.066	1	55
402.237	1	39
402.408	1	51
402.578	1	61
402.749	1	53
402.920	1	53
403.090	1	57
403.261	1	54
403.432	1	50
403.603	1	57
403.773	1	56
403.944	1	61
404.115	1	42
404.285	1	67
404.456	1	60
404.627	1	50
404.797	1	59
404.968	1	53
405.139	1	51
405.310	1	54
405.480	1	46
405.651	1	49
405.822	1	56
405.992	1	65
406.163	1	46
406.334	1	55
406.504	1	63
406.675	1	54
406.846	1	63
407.016	1	61
407.187	1	59
407.358	1	43
407.528	1	59
407.699	1	67
407.870	1	53
408.041	1	49
408.211	1	61
408.382	1	52
408.553	1	58
408.723	1	61
408.894	1	41
409.065	1	60
409.235	1	64
409.406	1	53
409.577	1	60
409.747	1	44
409.918	1	70
410.089	1	71
410.259	1	40
410.430	1	46
410.601	1	59
410.771	1	67
410.942	1	50
411.113	1	50
411.283	1	52
411.454	1	66
411.625	1	54
411.795	1	61
411.966	1	52
412.137	1	64
412.307	1	54
412.478	1	59
412.649	1	55
412.819	1	55
412.990	1	65
413.161	1	54
413.331	1	52
413.502	1	46
413.672	1	53
413.843	1	49
414.014	1	51
414.184	1	67
414.355	1	64
414.526	1	56
414.696	1	58
414.867	1	50
415.038	1	50
415.208	1	45
415.379	1	54
415.550	1	61
415.720	1	47
415.891	1	64
416.062	1	49
416.232	1	56
416.403	1	62
416.573	1	42
416.744	1	64
416.915	1	50
417.085	1	54
417.256	1	50
417.427	1	55
417.597	1	44
417.768	1	55
417.939	1	47
418.109	1	55
418.280	1	70
418.450	1	71
418.621	1	52
418.792	1	48
418.962	1	59
419.133	1	56
419.304	1	54
419.474	1	53
419.645	1	51
419.815	1	50
419.986	1	59
420.157	1	58
420.327	1	45
420.498	1	60
420.669	1	57
420.839	1	52
421.010	1	64
421.180	1	47
421.351	1	47
421.522	1	58
421.692	1	64
421.863	1	57
422.033	1	53
422.204	1	65
422.375	1	64
422.545	1	61
422.716	1	46
422.886	1	52
423.057	1	59
423.228	1	45
423.398	1	48
423.569	1	52
423.740	1	47
423.910	1	47
424.081	1	58
424.251	1	55
424.422	1	59
424.593	1	42
424.763	1	53
424.934	1	62
425.104	1	62
425.275	1	45
425.445	1	50
425.616	1	50
425.787	1	51
425.957	1	51
426.128	1	48
426.298	1	46
426.469	1	42
426.640	1	54
426.810	1	43
426.981	1	57
427.151	1	42
427.322	1	53
427.493	1	49
427.663	1	50
427.834	1	60
428.004	1	61
428.175	1	63
428.345	1	45
428.516	1	41
428.687	1	56
428.857	1	60
429.028	1	38
429.198	1	47
429.369	1	47
429.540	1	55
429.710	1	46
429.881	1	46
430.051	1	41
430.222	1	57
430.392	1	51
430.563	1	38
430.734	1	46
430.904	1	62
431.075	1	49
431.245	1	46
431.416	1	55
431.586	1	44
431.757	1	51
431.927	1	45
432.098	1	48
432.269	1	49
432.439	1	35
432.610	1	58
432.780	1	66
432.951	1	43
433.121	1	47
433.292	1	44
433.462	1	53
433.633	1	57
433.804	1	51
433.974	1	49
434.145	1	48
434.315	1	42
434.486	1	43
434.656	1	58
434.827	1	56
434.997	1	54
435.168	1	46
435.339	1	59
435.509	1	46
435.680	1	57
435.850	1	35
436.021	1	43
436.191	1	43
436.362	1	45
436.532	1	54
436.703	1	38
436.873	1	52
437.044	1	37
437.214	1	39
437.385	1	43
437.556	1	55
437.726	1	39
437.897	1	48
438.067	1	53
438.238	1	47
438.408	1	45
438.579	1	42
438.749	1	46
438.920	1	55
439.090	1	48
439.261	1	55
439.431	1	31
439.602	1	45
439.772	1	53
439.943	1	38
440.113	1	38
440.284	1	50
440.455	1	49
440.625	1	53
440.796	1	38
440.966	1	48
441.137	1	41
441.307	1	50
441.478	1	39
441.648	1	41
441.819	1	37
441.989	1	56
442.160	1	51
442.330	1	47
442.501	1	39
442.671	1	37
442.842	1	49
443.012	1	45
443.183	1	40
443.353	1	44
443.524	1	43
443.694	1	51
443.865	1	49
444.035	1	44
444.206	1	43
444.376	1	42
444.547	1	42
444.717	1	41
444.888	1	41
445.058	1	42
445.229	1	39
445.399	1	47
445.570	1	50
445.740	1	33
445.911	1	42
446.081	1	38
446.252	1	43
446.422	1	47
446.593	1	42
446.763	1	48
446.934	1	40
447.104	1	45
447.275	1	42
447.445	1	47
447.616	1	44
447.786	1	41
447.957	1	40
448.127	1	36
448.298	1	54
448.468	1	45
448.639	1	40
448.809	1	42
448.979	1	55
449.150	1	42
449.320	1	34
449.491	1	29
449.661	1	38
449.832	1	38
450.002	1	35
450.173	1	44
450.343	1	42
450.514	1	46
450.684	1	44
450.855	1	49
451.025	1	34
451.196	1	32
451.366	1	43
451.537	1	52
451.707	1	46
451.878	1	39
452.048	1	39
452.218	1	38
452.389	1	52
452.559	1	61
452.730	1	43
452.900	1	33
453.071	1	48
453.241	1	39
453.412	1	39
453.582	1	51
453.753	1	41
453.923	1	30
454.093	1	24
454.264	1	51
454.434	1	42
454.605	1	30
454.775	1	45
454.946	1	34
455.116	1	44
455.287	1	29
455.457	1	41
455.628	1	24
455.798	1	47
455.968	1	25
456.139	1	56
456.309	1	40
456.480	1	39
456.650	1	34
456.821	1	38
456.991	1	48
457.161	1	42
457.332	1	35
457.502	1	28
457.673	1	31
457.843	1	37
458.014	1	39
458.184	1	42
458.355	1	36
458.525	1	38
458.695	1	33
458.866	1	25
459.036	1	41
459.207	1	37
459.377	1	39
459.548	1	39
459.718	1	49
459.888	1	31
460.059	1	30
460.229	1	30
460.400	1	42
460.570	1	40
460.740	1	28
460.911	1	34
461.081	1	42
461.252	1	37
461.422	1	31
461.593	1	46
461.763	1	44
461.933	1	34
462.104	1	29
462.274	1	25
462.445	1	34
462.615	1	37
462.785	1	38
462.956	1	34
463.126	1	37
463.297	1	30
463.467	1	51
463.638	1	37
463.808	1	39
463.978	1	24
464.149	1	27
464.319	1	28
464.490	1	25
464.660	1	30
464.830	1	35
465.001	1	33
465.171	1	24
465.342	1	20
465.512	1	28
465.682	1	23
465.853	1	28
466.023	1	36
466.194	1	38
466.364	1	24
466.534	1	26
466.705	1	43
466.875	1	20
467.045	1	25
467.216	1	29
467.386	1	29
467.557	1	48
467.727	1	26
467.897	1	32
468.068	1	28
468.238	1	36
468.409	1	35
468.579	1	30
468.749	1	31
468.920	1	26
469.090	1	36
469.260	1	35
469.431	1	29
469.601	1	45
469.772	1	35
469.942	1	26
470.112	1	22
470.283	1	38
470.453	1	24
470.623	1	30
470.794	1	30
470.964	1	30
471.135	1	36
471.305	1	23
471.475	1	23
471.646	1	34
471.816	1	30
471.986	1	23
472.157	1	32
472.327	1	32
472.497	1	28
472.668	1	34
472.838	1	28
473.009	1	35
473.179	1	29
473.349	1	24
473.520	1	42
473.690	1	30
473.860	1	20
474.031	1	23
474.201	1	31
474.371	1	30
474.542	1	22
474.712	1	24
474.882	1	26
475.053	1	29
475.223	1	27
475.394	1	21
475.564	1	36
475.734	1	23
475.905	1	34
476.075	1	26
476.245	1	34
476.416	1	27
476.586	1	16
476.756	1	25
476.927	1	31
477.097	1	18
477.267	1	17
477.438	1	44
477.608	1	28
477.778	1	24
477.949	1	30
478.119	1	29
478.289	1	23
478.460	1	23
478.630	1	27
478.800	1	28
478.971	1	34
479.141	1	28
479.311	1	28
479.482	1	22
479.652	1	30
479.822	1	17
479.993	1	18
480.163	1	28
480.333	1	29
480.504	1	21
480.674	1	27
480.844	1	24
481.015	1	26
481.185	1	41
481.355	1	31
481.525	1	10
481.696	1	34
481.866	1	17
482.036	1	20
482.207	1	31
482.377	1	15
482.547	1	17
482.718	1	34
482.888	1	27
483.058	1	26
483.229	1	27
483.399	1	25
483.569	1	15
483.740	1	24
483.910	1	20
484.080	1	17
484.250	1	20
484.421	1	23
484.591	1	20
484.761	1	29
484.932	1	19
485.102	1	21
485.272	1	25
485.443	1	26
485.613	1	19
485.783	1	17
485.953	1	21
486.124	1	12
486.294	1	18
486.464	1	42
486.635	1	15
486.805	1	17
486.975	1	24
487.146	1	25
487.316	1	28
487.486	1	24
487.656	1	23
487.827	1	24
487.997	1	14
488.167	1	15
488.338	1	24
488.508	1	25
488.678	1	26
488.848	1	32
489.019	1	11
489.189	1	21
489.359	1	20
489.529	1	15
489.700	1	16
489.870	1	21
490.040	1	9
490.211	1	11
490.381	1	13
490.551	1	17
490.721	1	16
490.892	1	7
491.062	1	15
491.232	1	23
491.402	1	9
491.573	1	25
491.743	1	16
491.913	1	20
492.084	1	21
492.254	1	18
492.424	1	18
492.594	1	17
492.765	1	27
492.935	1	25
493.105	1	20
493.275	1	21
493.446	1	9
493.616	1	12
493.786	1	26
493.956	1	15
494.127	1	16
494.297	1	2
494.467	1	7
494.637	1	14
494.808	1	17
494.978	1	10
495.148	1	20
495.318	1	20
495.489	1	12
495.659	1	21
495.829	1	18
495.999	1	23
496.170	1	11
496.340	1	12
496.510	1	19
496.680	1	13
496.851	1	20
497.021	1	20
497.191	1	27
497.361	1	7
497.532	1	10
497.702	1	22
497.872	1	10
498.042	1	20
498.213	1	7
498.383	1	16
498.553	1	16
498.723	1	23
498.894	1	26
499.064	1	15
499.234	1	24
499.404	1	21
499.574	1	18
499.745	1	13
499.915	1	17
500.085	1	10
500.255	1	3
500.426	1	0
500.596	1	5
500.766	1	17
500.936	1	16
501.106	1	12
501.277	1	5
501.447	1	17
501.617	1	18
501.787	1	8
501.958	1	18
502.128	1	9
502.298	1	15
502.468	1	8
502.638	1	22
502.809	1	4
502.979	1	21
503.149	1	10
503.319	1	20
503.489	1	-12
503.660	1	9
503.830	1	22
504.000	1	14
504.170	1	11
504.340	1	6
504.511	1	10
504.681	1	8
504.851	1	11
505.021	1	5
505.192	1	2
505.362	1	15
505.532	1	13
505.702	1	22
505.872	1	2
506.043	1	22
506.213	1	14
506.383	1	18
506.553	1	13
506.723	1	-4
506.893	1	16
507.064	1	21
507.234	1	12
507.404	1	16
507.574	1	6
507.744	1	12
507.915	1	18
508.085	1	11
508.255	1	4
508.425	1	7
508.595	1	2
508.766	1	5
508.936	1	20
509.106	1	12
509.276	1	17
509.446	1	-1
509.616	1	11
509.787	1	9
509.957	1	15
510.127	1	12
510.297	1	1
510.467	1	16
510.638	1	9
510.808	1	20
510.978	1	3
511.148	1	11
511.318	1	15
511.488	1	21
511.659	1	8
511.829	1	6
511.999	1	11
512.169	1	14
512.339	1	11
512.509	1	9
512.680	1	8
512.850	1	17
513.020	1	10
513.190	1	0
513.360	1	17
513.530	1	5
513.700	1	12
513.871	1	15
514.041	1	8
514.211	1	16
514.381	1	13
514.551	1	6
514.721	1	12
514.892	1	15
515.062	1	7
515.232	1	1
515.402	1	4
515.572	1	10
515.742	1	22
515.912	1	0
516.083	1	12
516.253	1	13
516.423	1	8
516.593	1	16
516.763	1	10
516.933	1	10
517.104	1	12
517.274	1	4
517.444	1	7
517.614	1	11
517.784	1	12
517.954	1	3
518.124	1	4
518.294	1	19
518.465	1	3
518.635	1	17
518.805	1	17
518.975	1	13
519.145	1	12
519.315	1	-2
519.485	1	8
519.656	1	2
519.826	1	-5
519.996	1	17
520.166	1	9
520.336	1	13
520.506	1	5
520.676	1	13
520.846	1	2
521.017	1	10
521.187	1	14
521.357	1	8
521.527	1	10
521.697	1	2
521.867	1	16
522.037	1	12
522.207	1	13
522.377	1	13
522.548	1	1
522.718	1	12
522.888	1	15
523.058	1	12
523.228	1	3
523.398	1	1
523.568	1	-2
523.738	1	10
523.909	1	11
524.079	1	-5
524.249	1	4
524.419	1	11
524.589	1	13
524.759	1	14
524.929	1	7
525.099	1	13
525.269	1	7
525.439	1	0
525.610	1	19
525.780	1	5
525.950	1	14
526.120	1	2
526.290	1	4
526.460	1	-1
526.630	1	8
526.800	1	6
526.970	1	14
527.140	1	6
527.311	1	5
527.481	1	12
527.651	1	7
527.821	1	2
527.991	1	8
528.161	1	7
528.331	1	1
528.501	1	5
528.671	1	20
528.841	1	10
529.011	1	5
529.181	1	5
529.352	1	13
529.522	1	6
529.692	1	7
529.862	1	8
530.032	1	-6
530.202	1	-2
530.372	1	14
530.542	1	2
530.712	1	6
530.882	1	15
531.052	1	13
531.222	1	8
531.392	1	0
531.563	1	14
531.733	1	10
531.903	1	2
532.073	1	7
532.243	1	16
532.413	1	21
532.583	1	9
532.753	1	0
532.923	1	17
533.093	1	-2
533.263	1	2
533.433	1	1
533.603	1	9
533.773	1	6
533.943	1	6
534.113	1	9
534.284	1	9
534.454	1	7
534.624	1	11
534.794	1	12
534.964	1	3
535.134	1	2
535.304	1	14
535.474	1	12
535.644	1	3
535.814	1	7
535.984	1	8
536.154	1	15
536.324	1	12
536.494	1	8
536.664	1	10
536.834	1	0
537.004	1	7
537.174	1	20
537.344	1	4
537.514	1	7
537.685	1	13
537.855	1	7
538.025	1	11
538.195	1	-2
538.365	1	5
538.535	1	7
538.705	1	15
538.875	1	8
539.045	1	18
539.215	1	-7
539.385	1	8
539.555	1	7
539.725	1	9
539.895	1	4
540.065	1	9
540.235	1	9
540.405	1	3
540.575	1	8
540.745	1	-3
540.915	1	2
541.085	1	10
541.255	1	5
541.425	1	11
541.595	1	2
541.765	1	11
541.935	1	9
542.105	1	6
542.275	1	3
542.445	1	9
542.615	1	5
542.785	1	1
542.955	1	14
543.125	1	3
543.295	1	11
543.465	1	7
543.635	1	0
543.805	1	16
543.975	1	5
544.145	1	6
544.315	1	-5
544.485	1	-5
544.655	1	13
544.825	1	8
544.995	1	6
545.165	1	7
545.335	1	5
545.505	1	5
545.675	1	6
545.845	1	13
546.015	1	-5
546.185	1	2
546.355	1	1
546.525	1	16
546.695	1	-2
546.865	1	8
547.035	1	6
547.205	1	9
547.375	1	2
547.545	1	4
547.715	1	9
547.885	1	-3
548.055	1	6
548.225	1	17
548.395	1	6
548.565	1	12
548.735	1	6
548.905	1	8
549.075	1	3
549.245	1	5
549.415	1	4
549.585	1	1
549.755	1	9
549.925	1	6
550.095	1	5
550.265	1	8
550.435	1	10
550.605	1	14
550.775	1	7
550.945	1	7
551.115	1	15
551.285	1	8
551.455	1	6
551.625	1	-8
551.795	1	5
551.965	1	-3
552.135	1	10
552.305	1	16
552.475	1	8
552.645	1	-1
552.815	1	2
552.985	1	6
553.155	1	1
553.325	1	10
553.495	1	9
553.665	1	0
553.835	1	-3
554.004	1	1
554.174	1	4
554.344	1	9
554.514	1	-6
554.684	1	10
554.854	1	-7
555.024	1	4
555.194	1	12
555.364	1	5
555.534	1	-5
555.704	1	15
555.874	1	12
556.044	1	2
556.214	1	5
556.384	1	9
556.554	1	7
556.724	1	13
556.894	1	5
557.064	1	9
557.234	1	0
557.404	1	0
557.573	1	11
557.743	1	1
557.913	1	-1
558.083	1	8
558.253	1	6
558.423	1	8
558.593	1	11
558.763	1	4
558.933	1	12
559.103	1	6
559.273	1	2
559.443	1	4
559.613	1	8
559.783	1	1
559.953	1	-4
560.122	1	11
560.292	1	-6
560.462	1	-9
560.632	1	9
560.802	1	8
560.972	1	-11
561.142	1	17
561.312	1	4
561.482	1	13
561.652	1	4
561.822	1	0
561.992	1	6
562.162	1	5
562.331	1	-6
562.501	1	4
562.671	1	1
562.841	1	-9
563.011	1	1
563.181	1	7
563.351	1	6
563.521	1	-3
563.691	1	7
563.861	1	4
564.031	1	9
564.201	1	6
564.370	1	-1
564.540	1	10
564.710	1	1
564.880	1	0
565.050	1	6
565.220	1	6
565.390	1	5
565.560	1	7
565.730	1	13
565.900	1	4
566.069	1	16
566.239	1	17
566.409	1	11
566.579	1	3
566.749	1	3
566.919	1	-4
567.089	1	0
567.259	1	2
567.429	1	-8
567.599	1	18
567.768	1	-2
567.938	1	6
568.108	1	6
568.278	1	13
568.448	1	0
568.618	1	11
568.788	1	11
568.958	1	5
569.128	1	1
569.297	1	2
569.467	1	9
569.637	1	6
569.807	1	0
569.977	1	4
570.147	1	11
570.317	1	0
570.487	1	2
570.656	1	14
570.826	1	8
570.996	1	3
571.166	1	2
571.336	1	3
571.506	1	0
571.676	1	-3
571.846	1	8
572.015	1	5
572.185	1	8
572.355	1	-2
572.525	1	-1
572.695	1	2
572.865	1	7
573.035	1	1
573.205	1	5
573.374	1	-5
573.544	1	6
573.714	1	0
573.884	1	-7
574.054	1	7
574.224	1	10
574.394	1	6
574.563	1	4
574.733	1	3
574.903	1	3
575.073	1	7
575.243	1	1
575.413	1	1
575.583	1	-2
575.752	1	-1
575.922	1	10
576.092	1	-2
576.262	1	8
576.432	1	9
576.602	1	5
576.772	1	-2
576.941	1	8
577.111	1	0
577.281	1	4
577.451	1	7
577.621	1	3
577.791	1	8
577.960	1	-1
578.130	1	3
578.300	1	7
578.470	1	11
578.640	1	5
578.810	1	-1
578.979	1	4
579.149	1	6
579.319	1	5
579.489	1	12
579.659	1	3
579.829	1	4
579.998	1	-8
580.168	1	-1
580.338	1	6
580.508	1	0
580.678	1	3
580.848	1	4
581.017	1	5
581.187	1	2
581.357	1	2
581.527	1	4
581.697	1	11
581.867	1	7
582.036	1	-10
582.206	1	3
582.376	1	-4
582.546	1	2
582.716	1	1
582.885	1	4
583.055	1	-3
583.225	1	4
583.395	1	11
583.565	1	10
583.735	1	12
583.904	1	-3
584.074	1	-2
584.244	1	-3
584.414	1	7
584.584	1	1
584.753	1	1
584.923	1	-4
585.093	1	10
585.263	1	12
585.433	1	1
585.602	1	1
585.772	1	22
585.942	1	0
586.112	1	2
586.282	1	12
586.451	1	10
586.621	1	2
586.791	1	-3
586.961	1	3
587.131	1	-2
587.300	1	6
587.470	1	-2
587.640	1	-1
587.810	1	-1
587.980	1	8
588.149	1	7
588.319	1	15
588.489	1	5
588.659	1	-2
588.829	1	6
588.998	1	3
589.168	1	9
589.338	1	5
589.508	1	-1
589.677	1	5
589.847	1	14
590.017	1	0
590.187	1	-2
590.357	1	0
590.526	1	-3
590.696	1	6
590.866	1	2
591.036	1	3
591.205	1	6
591.375	1	-4
591.545	1	-5
591.715	1	7
591.885	1	8
592.054	1	9
592.224	1	8
592.394	1	0
592.564	1	5
592.733	1	4
592.903	1	3
593.073	1	-6
593.243	1	3
593.412	1	-5
593.582	1	3
593.752	1	-6
593.922	1	8
594.091	1	0
594.261	1	-8
594.431	1	2
594.601	1	-2
594.771	1	-1
594.940	1	-2
595.110	1	2
595.280	1	1
595.450	1	6
595.619	1	12
595.789	1	9
595.959	1	-2
596.129	1	-1
596.298	1	15
596.468	1	-1
596.638	1	0
596.808	1	-5
596.977	1	-2
597.147	1	2
597.317	1	9
597.487	1	11
597.656	1	5
597.826	1	9
597.996	1	-3
598.166	1	6
598.335	1	-7
598.505	1	10
598.675	1	9
598.844	1	11
599.014	1	-11
599.184	1	1
599.354	1	13
599.523	1	-8
599.693	1	2
599.863	1	4
600.033	1	0
600.202	1	0
600.372	1	-1
600.542	1	0
600.712	1	-2
600.881	1	7
601.051	1	15
601.221	1	3
601.390	1	1
601.560	1	13
601.730	1	6
601.900	1	6
602.069	1	8
602.239	1	-8
602.409	1	3
602.578	1	15
602.748	1	4
602.918	1	-5
603.088	1	4
603.257	1	11
603.427	1	18
603.597	1	-3
603.767	1	5
603.936	1	4
604.106	1	-9
604.276	1	5
604.445	1	-3
604.615	1	6
604.785	1	10
604.954	1	4
605.124	1	-2
605.294	1	-2
605.464	1	4
605.633	1	5
605.803	1	7
605.973	1	0
606.142	1	17
606.312	1	13
606.482	1	-4
606.652	1	5
606.821	1	0
606.991	1	12
607.161	1	6
607.330	1	7
607.500	1	7
607.670	1	6
607.839	1	1
608.009	1	-8
608.179	1	1
608.348	1	3
608.518	1	16
608.688	1	-6
608.858	1	-5
609.027	1	6
609.197	1	8
609.367	1	-9
609.536	1	-2
609.706	1	9
609.876	1	12
610.045	1	8
610.215	1	11
610.385	1	6
610.554	1	-3
610.724	1	-7
610.894	1	-6
611.063	1	7
611.233	1	9
611.403	1	16
611.572	1	4
611.742	1	2
611.912	1	9
612.081	1	8
612.251	1	7
612.421	1	2
612.590	1	4
612.760	1	2
612.930	1	7
613.099	1	5
613.269	1	7
613.439	1	-13
613.608	1	1
613.778	1	7
613.948	1	18
614.117	1	7
614.287	1	8
614.457	1	-2
614.626	1	7
614.796	1	19
614.966	1	2
615.135	1	14
615.305	1	1
615.475	1	3
615.644	1	17
615.814	1	10
615.984	1	1
616.153	1	-4
616.323	1	-2
616.493	1	4
616.662	1	5
616.832	1	7
617.002	1	-2
617.171	1	9
617.341	1	7
617.511	1	-6
617.680	1	-7
617.850	1	11
618.019	1	2
618.189	1	12
618.359	1	5
618.528	1	2
618.698	1	6
618.868	1	1
619.037	1	18
619.207	1	2
619.377	1	7
619.546	1	11
619.716	1	1
619.885	1	5
620.055	1	-2
620.225	1	4
620.394	1	14
620.564	1	12
620.734	1	3
620.903	1	-4
621.073	1	8
621.242	1	-2
621.412	1	-3
621.582	1	10
621.751	1	5
621.921	1	3
622.091	1	6
622.260	1	11
622.430	1	9
622.599	1	3
622.769	1	2
622.939	1	1
623.108	1	3
623.278	1	5
623.448	1	-3
623.617	1	14
623.787	1	6
623.956	1	9
624.126	1	4
624.296	1	6
624.465	1	7
624.635	1	0
624.804	1	-1
624.974	1	-4
625.144	1	3
625.313	1	6
625.483	1	17
625.652	1	4
625.822	1	12
625.992	1	-2
626.161	1	6
626.331	1	8
626.501	1	8
626.670	1	2
626.840	1	9
627.009	1	8
627.179	1	9
627.348	1	2
627.518	1	19
627.688	1	7
627.857	1	8
628.027	1	12
628.196	1	19
628.366	1	4
628.536	1	-1
628.705	1	-3
628.875	1	-1
629.044	1	0
629.214	1	8
629.384	1	15
629.553	1	-3
629.723	1	7
629.892	1	4
630.062	1	12
630.232	1	13
630.401	1	10
630.571	1	11
630.740	1	8
630.910	1	14
631.079	1	7
631.249	1	4
631.419	1	14
631.588	1	10
631.758	1	2
631.927	1	16
632.097	1	0
632.266	1	14
632.436	1	11
632.606	1	3
632.775	1	7
632.945	1	0
633.114	1	0
633.284	1	7
633.453	1	7
633.623	1	18
633.793	1	3
633.962	1	16
634.132	1	5
634.301	1	17
634.471	1	3
634.640	1	0
634.810	1	8
634.979	1	8
635.149	1	-4
635.319	1	3
635.488	1	18
635.658	1	-4
635.827	1	1
635.997	1	11
636.166	1	7
636.336	1	8
636.505	1	9
636.675	1	1
636.845	1	-2
637.014	1	-2
637.184	1	16
637.353	1	3
637.523	1	-5
637.692	1	5
637.862	1	2
638.031	1	3
638.201	1	6
638.370	1	4
638.540	1	0
638.710	1	3
638.879	1	-4
639.049	1	2
639.218	1	15
639.388	1	13
639.557	1	8
639.727	1	15
639.896	1	6
640.066	1	6
640.235	1	8
640.405	1	21
640.574	1	3
640.744	1	8
640.914	1	8
641.083	1	2
641.253	1	2
641.422	1	4
641.592	1	12
641.761	1	-2
641.931	1	18
642.100	1	8
642.270	1	5
642.439	1	7
642.609	1	13
642.778	1	1
642.948	1	7
643.117	1	6
643.287	1	8
643.456	1	9
643.626	1	2
643.795	1	14
643.965	1	8
644.134	1	2
644.304	1	5
644.473	1	13
644.643	1	7
644.812	1	1
644.982	1	7
645.151	1	8
645.321	1	8
645.490	1	17
645.660	1	7
645.829	1	24
645.999	1	2
646.168	1	23
646.338	1	3
646.507	1	-1
646.677	1	9
646.846	1	12
647.016	1	11
647.185	1	5
647.355	1	17
647.524	1	-2
647.694	1	1
647.863	1	5
648.033	1	4
648.202	1	16
648.372	1	-5
648.541	1	2
648.711	1	6
648.880	1	8
649.050	1	11
649.219	1	10
649.389	1	2
649.558	1	8
649.728	1	13
649.897	1	16
650.067	1	12
650.236	1	1
650.406	1	1
650.575	1	10
650.745	1	3
650.914	1	9
651.084	1	5
651.253	1	4
651.423	1	11
651.592	1	10
651.762	1	3
651.931	1	7
652.101	1	4
652.270	1	4
652.440	1	10
652.609	1	6
652.778	1	18
652.948	1	-4
653.117	1	5
653.287	1	0
653.456	1	2
653.626	1	7
653.795	1	6
653.965	1	13
654.134	1	2
654.304	1	0
654.473	1	5
654.643	1	5
654.812	1	20
654.982	1	7
655.151	1	21
655.320	1	8
655.490	1	5
655.659	1	12
655.829	1	12
655.998	1	7
656.168	1	4
656.337	1	3
656.507	1	7
656.676	1	7
656.846	1	7
657.015	1	17
657.184	1	9
657.354	1	6
657.523	1	4
657.693	1	9
657.862	1	-4
658.032	1	4
658.201	1	0
658.371	1	7
658.540	1	-3
658.709	1	14
658.879	1	13
659.048	1	16
659.218	1	3
659.387	1	15
659.557	1	7
659.726	1	-6
659.895	1	4
660.065	1	2
660.234	1	1
660.404	1	9
660.573	1	14
660.743	1	0
660.912	1	10
661.081	1	1
661.251	1	6
661.420	1	11
661.590	1	9
661.759	1	11
661.929	1	3
662.098	1	20
662.267	1	6
662.437	1	16
662.606	1	4
662.776	1	9
662.945	1	9
663.115	1	15
663.284	1	9
663.453	1	3
663.623	1	7
663.792	1	9
663.962	1	18
664.131	1	14
664.300	1	5
664.470	1	4
664.639	1	14
664.809	1	9
664.978	1	17
665.148	1	11
665.317	1	9
665.486	1	7
665.656	1	14
665.825	1	8
665.995	1	5
666.164	1	5
666.333	1	14
666.503	1	1
666.672	1	-1
666.842	1	9
667.011	1	11
667.180	1	8
667.350	1	3
667.519	1	13
667.689	1	9
667.858	1	13
668.027	1	13
668.197	1	3
668.366	1	6
668.536	1	6
668.705	1	-2
668.874	1	10
669.044	1	6
669.213	1	8
669.382	1	9
669.552	1	11
669.721	1	1
669.891	1	4
670.060	1	7
670.229	1	4
670.399	1	6
670.568	1	12
670.738	1	13
670.907	1	3
671.076	1	14
671.246	1	11
671.415	1	22
671.584	1	13
671.754	1	-8
671.923	1	1
672.093	1	15
672.262	1	10
672.431	1	16
672.601	1	5
672.770	1	9
672.939	1	11
673.109	1	12
673.278	1	3
673.448	1	14
673.617	1	3
673.786	1	-2
