325.333	1	18
325.504	1	12
325.675	1	20
325.846	1	19
326.017	1	17
326.188	1	23
326.359	1	21
326.531	1	16
326.702	1	15
326.873	1	32
327.044	1	36
327.215	1	18
327.386	1	24
327.557	1	18
327.728	1	24
327.899	1	16
328.070	1	21
328.241	1	18
328.412	1	33
328.583	1	14
328.754	1	32
328.926	1	21
329.097	1	17
329.268	1	26
329.439	1	30
329.610	1	29
329.781	1	28
329.952	1	34
330.123	1	28
330.294	1	25
330.465	1	18
330.636	1	30
330.807	1	30
330.978	1	26
331.149	1	32
331.320	1	29
331.492	1	24
331.663	1	28
331.834	1	27
332.005	1	33
332.176	1	28
332.347	1	24
332.518	1	36
332.689	1	28
332.860	1	28
333.031	1	35
333.202	1	29
333.373	1	37
333.544	1	32
333.715	1	35
333.886	1	32
334.057	1	30
334.228	1	36
334.399	1	35
334.570	1	31
334.741	1	36
334.912	1	30
335.084	1	42
335.255	1	37
335.426	1	40
335.597	1	35
335.768	1	35
335.939	1	28
336.110	1	37
336.281	1	39
336.452	1	45
336.623	1	34
336.794	1	37
336.965	1	33
337.136	1	46
337.307	1	37
337.478	1	27
337.649	1	29
337.820	1	35
337.991	1	42
338.162	1	37
338.333	1	36
338.504	1	44
338.675	1	41
338.846	1	23
339.017	1	49
339.188	1	32
339.359	1	34
339.530	1	38
339.701	1	39
339.872	1	52
340.043	1	35
340.214	1	41
340.385	1	34
340.556	1	41
340.727	1	34
340.898	1	38
341.069	1	43
341.240	1	45
341.411	1	48
341.582	1	33
341.753	1	42
341.924	1	53
342.095	1	47
342.266	1	47
342.437	1	48
342.608	1	52
342.779	1	46
342.950	1	36
343.121	1	52
343.292	1	45
343.463	1	60
343.634	1	46
343.805	1	50
343.976	1	59
344.147	1	54
344.318	1	40
344.489	1	53
344.660	1	57
344.831	1	50
345.002	1	56
345.173	1	38
345.344	1	51
345.515	1	57
345.686	1	52
345.857	1	61
346.028	1	54
346.199	1	57
346.370	1	54
346.541	1	49
346.712	1	46
346.883	1	46
347.054	1	54
347.225	1	51
347.396	1	45
347.567	1	47
347.738	1	42
347.909	1	46
348.080	1	50
348.251	1	53
348.422	1	57
348.593	1	56
348.764	1	55
348.935	1	57
349.106	1	51
349.277	1	58
349.448	1	45
349.619	1	57
349.790	1	67
349.961	1	47
350.132	1	62
350.303	1	67
350.474	1	69
350.645	1	57
350.816	1	63
350.987	1	74
351.157	1	64
351.328	1	59
351.499	1	69
351.670	1	66
351.841	1	71
352.012	1	64
352.183	1	78
352.354	1	56
352.525	1	70
352.696	1	56
352.867	1	74
353.038	1	76
353.209	1	54
353.380	1	66
353.551	1	54
353.722	1	72
353.893	1	71
354.064	1	65
354.235	1	58
354.406	1	58
354.576	1	59
354.747	1	65
354.918	1	55
355.089	1	73
355.260	1	66
355.431	1	59
355.602	1	60
355.773	1	59
355.944	1	61
356.115	1	66
356.286	1	81
356.457	1	70
356.628	1	74
356.799	1	73
356.970	1	76
357.141	1	70
357.311	1	85
357.482	1	74
357.653	1	75
357.824	1	71
357.995	1	77
358.166	1	67
358.337	1	68
358.508	1	80
358.679	1	63
358.850	1	89
359.021	1	74
359.192	1	80
359.363	1	76
359.533	1	77
359.704	1	69
359.875	1	75
360.046	1	77
360.217	1	80
360.388	1	79
360.559	1	79
360.730	1	74
360.901	1	79
361.072	1	75
361.243	1	75
361.414	1	83
361.584	1	77
361.755	1	80
361.926	1	78
362.097	1	85
362.268	1	78
362.439	1	77
362.610	1	76
362.781	1	69
362.952	1	74
363.123	1	67
363.293	1	71
363.464	1	74
363.635	1	85
363.806	1	77
363.977	1	71
364.148	1	71
364.319	1	75
364.490	1	82
364.661	1	87
364.832	1	77
365.002	1	81
365.173	1	68
365.344	1	69
365.515	1	85
365.686	1	80
365.857	1	91
366.028	1	75
366.199	1	80
366.370	1	82
366.540	1	81
366.711	1	81
366.882	1	88
367.053	1	79
367.224	1	90
367.395	1	91
367.566	1	89
367.737	1	86
367.908	1	87
368.078	1	68
368.249	1	94
368.420	1	87
368.591	1	88
368.762	1	86
368.933	1	79
369.104	1	81
369.274	1	84
369.445	1	86
369.616	1	77
369.787	1	86
369.958	1	83
370.129	1	71
370.300	1	77
370.471	1	86
370.641	1	84
370.812	1	84
370.983	1	73
371.154	1	82
371.325	1	85
371.496	1	77
371.667	1	86
371.837	1	83
372.008	1	79
372.179	1	80
372.350	1	82
372.521	1	87
372.692	1	93
372.863	1	77
373.033	1	82
373.204	1	88
373.375	1	71
373.546	1	81
373.717	1	88
373.888	1	83
374.059	1	85
374.229	1	89
374.400	1	99
374.571	1	81
374.742	1	88
374.913	1	92
375.084	1	86
375.254	1	91
375.425	1	88
375.596	1	95
375.767	1	85
375.938	1	88
376.109	1	82
376.279	1	93
376.450	1	102
376.621	1	100
376.792	1	95
376.963	1	85
377.134	1	92
377.304	1	107
377.475	1	88
377.646	1	92
377.817	1	106
377.988	1	95
378.159	1	91
378.329	1	97
378.500	1	96
378.671	1	87
378.842	1	99
379.013	1	95
379.184	1	90
379.354	1	96
379.525	1	100
379.696	1	101
379.867	1	99
380.038	1	89
380.209	1	104
380.379	1	94
380.550	1	78
380.721	1	95
380.892	1	90
381.063	1	97
381.233	1	104
381.404	1	93
381.575	1	90
381.746	1	106
381.917	1	88
382.087	1	108
382.258	1	94
382.429	1	95
382.600	1	98
382.771	1	88
382.941	1	118
383.112	1	104
383.283	1	102
383.454	1	102
383.625	1	100
383.795	1	104
383.966	1	114
384.137	1	115
384.308	1	104
384.479	1	96
384.649	1	101
384.820	1	116
384.991	1	93
385.162	1	112
385.333	1	106
385.503	1	113
385.674	1	109
385.845	1	108
386.016	1	123
386.187	1	96
386.357	1	121
386.528	1	103
386.699	1	113
386.870	1	110
387.041	1	112
387.211	1	108
387.382	1	117
387.553	1	124
387.724	1	101
387.894	1	104
388.065	1	111
388.236	1	113
388.407	1	112
388.578	1	115
388.748	1	122
388.919	1	110
389.090	1	116
389.261	1	120
389.431	1	103
389.602	1	109
389.773	1	112
389.944	1	117
390.114	1	118
390.285	1	115
390.456	1	113
390.627	1	106
390.798	1	118
390.968	1	104
391.139	1	120
391.310	1	120
391.481	1	123
391.651	1	113
391.822	1	128
391.993	1	113
392.164	1	117
392.334	1	113
392.505	1	124
392.676	1	104
392.847	1	104
393.017	1	116
393.188	1	129
393.359	1	122
393.530	1	124
393.700	1	108
393.871	1	125
394.042	1	109
394.213	1	117
394.383	1	123
394.554	1	112
394.725	1	108
394.896	1	127
395.066	1	126
395.237	1	120
395.408	1	128
395.579	1	125
395.749	1	121
395.920	1	131
396.091	1	113
396.262	1	118
396.432	1	126
396.603	1	119
396.774	1	129
396.945	1	124
397.115	1	134
397.286	1	126
397.457	1	127
397.627	1	119
397.798	1	119
397.969	1	119
398.140	1	124
398.310	1	131
398.481	1	122
398.652	1	125
398.823	1	122
398.993	1	123
399.164	1	137
399.335	1	123
399.505	1	108
399.676	1	120
399.847	1	128
400.018	1	116
400.188	1	129
400.359	1	125
400.530	1	131
400.700	1	130
400.871	1	124
401.042	1	120
401.213	1	124
401.383	1	135
401.554	1	130
401.725	1	115
401.895	1	108
402.066	1	137
402.237	1	132
402.408	1	125
402.578	1	138
402.749	1	116
402.920	1	134
403.090	1	124
403.261	1	124
403.432	1	125
403.603	1	128
403.773	1	128
403.944	1	138
404.115	1	120
404.285	1	135
404.456	1	129
404.627	1	126
404.797	1	117
404.968	1	132
405.139	1	135
405.310	1	124
405.480	1	123
405.651	1	114
405.822	1	128
405.992	1	131
406.163	1	111
406.334	1	131
406.504	1	146
406.675	1	125
406.846	1	133
407.016	1	131
407.187	1	126
407.358	1	119
407.528	1	126
407.699	1	138
407.870	1	142
408.041	1	128
408.211	1	142
408.382	1	139
408.553	1	137
408.723	1	135
408.894	1	132
409.065	1	129
409.235	1	130
409.406	1	138
409.577	1	148
409.747	1	124
409.918	1	141
410.089	1	149
410.259	1	133
410.430	1	145
410.601	1	136
410.771	1	146
410.942	1	135
411.113	1	133
411.283	1	130
411.454	1	151
411.625	1	138
411.795	1	146
411.966	1	115
412.137	1	143
412.307	1	128
412.478	1	130
412.649	1	131
412.819	1	127
412.990	1	138
413.161	1	121
413.331	1	132
413.502	1	125
413.672	1	134
413.843	1	128
414.014	1	129
414.184	1	140
414.355	1	125
414.526	1	133
414.696	1	132
414.867	1	126
415.038	1	124
415.208	1	112
415.379	1	118
415.550	1	134
415.720	1	132
415.891	1	144
416.062	1	124
416.232	1	131
416.403	1	135
416.573	1	134
416.744	1	132
416.915	1	127
417.085	1	136
417.256	1	129
417.427	1	125
417.597	1	127
417.768	1	138
417.939	1	135
418.109	1	126
418.280	1	129
418.450	1	139
418.621	1	134
418.792	1	117
418.962	1	125
419.133	1	125
419.304	1	119
419.474	1	138
419.645	1	142
419.815	1	128
419.986	1	135
420.157	1	128
420.327	1	124
420.498	1	127
420.669	1	133
420.839	1	135
421.010	1	117
421.180	1	116
421.351	1	122
421.522	1	131
421.692	1	139
421.863	1	134
422.033	1	139
422.204	1	128
422.375	1	132
422.545	1	136
422.716	1	115
422.886	1	140
423.057	1	130
423.228	1	122
423.398	1	135
423.569	1	124
423.740	1	117
423.910	1	123
424.081	1	122
424.251	1	114
424.422	1	134
424.593	1	119
424.763	1	117
424.934	1	114
425.104	1	128
425.275	1	115
425.445	1	119
425.616	1	122
425.787	1	113
425.957	1	110
426.128	1	124
426.298	1	125
426.469	1	108
426.640	1	120
426.810	1	100
426.981	1	136
427.151	1	109
427.322	1	122
427.493	1	132
427.663	1	118
427.834	1	109
428.004	1	125
428.175	1	117
428.345	1	119
428.516	1	115
428.687	1	122
428.857	1	122
429.028	1	116
429.198	1	119
429.369	1	114
429.540	1	132
429.710	1	122
429.881	1	121
430.051	1	111
430.222	1	122
430.392	1	130
430.563	1	100
430.734	1	112
430.904	1	122
431.075	1	123
431.245	1	118
431.416	1	108
431.586	1	109
431.757	1	132
431.927	1	125
432.098	1	113
432.269	1	118
432.439	1	113
432.610	1	118
432.780	1	123
432.951	1	123
433.121	1	122
433.292	1	114
433.462	1	110
433.633	1	114
433.804	1	126
433.974	1	116
434.145	1	118
434.315	1	116
434.486	1	106
434.656	1	119
434.827	1	117
434.997	1	120
435.168	1	103
435.339	1	134
435.509	1	111
435.680	1	123
435.850	1	103
436.021	1	115
436.191	1	113
436.362	1	116
436.532	1	122
436.703	1	114
436.873	1	116
437.044	1	113
437.214	1	102
437.385	1	107
437.556	1	117
437.726	1	121
437.897	1	104
438.067	1	94
438.238	1	121
438.408	1	119
438.579	1	102
438.749	1	97
438.920	1	115
439.090	1	111
439.261	1	117
439.431	1	95
439.602	1	105
439.772	1	105
439.943	1	109
440.113	1	119
440.284	1	117
440.455	1	107
440.625	1	117
440.796	1	100
440.966	1	107
441.137	1	117
441.307	1	104
441.478	1	96
441.648	1	103
441.819	1	103
441.989	1	107
442.160	1	104
442.330	1	113
442.501	1	100
442.671	1	103
442.842	1	105
443.012	1	95
443.183	1	102
443.353	1	104
443.524	1	103
443.694	1	102
443.865	1	114
444.035	1	111
444.206	1	98
444.376	1	106
444.547	1	92
444.717	1	94
444.888	1	89
445.058	1	101
445.229	1	90
445.399	1	108
445.570	1	86
445.740	1	99
445.911	1	102
446.081	1	104
446.252	1	105
446.422	1	104
446.593	1	104
446.763	1	105
446.934	1	99
447.104	1	106
447.275	1	100
447.445	1	107
447.616	1	98
447.786	1	91
447.957	1	93
448.127	1	97
448.298	1	104
448.468	1	101
448.639	1	93
448.809	1	99
448.979	1	103
449.150	1	98
449.320	1	97
449.491	1	96
449.661	1	92
449.832	1	86
450.002	1	107
450.173	1	95
450.343	1	93
450.514	1	94
450.684	1	104
450.855	1	96
451.025	1	91
451.196	1	93
451.366	1	102
451.537	1	99
451.707	1	95
451.878	1	91
452.048	1	87
452.218	1	100
452.389	1	84
452.559	1	104
452.730	1	96
452.900	1	84
453.071	1	90
453.241	1	92
453.412	1	95
453.582	1	94
453.753	1	93
453.923	1	80
454.093	1	93
454.264	1	100
454.434	1	90
454.605	1	83
454.775	1	93
454.946	1	88
455.116	1	92
455.287	1	73
455.457	1	88
455.628	1	86
455.798	1	94
455.968	1	84
456.139	1	92
456.309	1	78
456.480	1	91
456.650	1	86
456.821	1	83
456.991	1	85
457.161	1	88
457.332	1	87
457.502	1	78
457.673	1	85
457.843	1	74
458.014	1	86
458.184	1	92
458.355	1	84
458.525	1	72
458.695	1	80
458.866	1	77
459.036	1	88
459.207	1	91
459.377	1	78
459.548	1	85
459.718	1	84
459.888	1	79
460.059	1	88
460.229	1	70
460.400	1	76
460.570	1	71
460.740	1	78
460.911	1	74
461.081	1	90
461.252	1	76
461.422	1	78
461.593	1	79
461.763	1	82
461.933	1	81
462.104	1	70
462.274	1	79
462.445	1	73
462.615	1	88
462.785	1	80
462.956	1	69
463.126	1	69
463.297	1	80
463.467	1	82
463.638	1	80
463.808	1	75
463.978	1	62
464.149	1	74
464.319	1	74
464.490	1	69
464.660	1	65
464.830	1	76
465.001	1	63
465.171	1	72
465.342	1	77
465.512	1	72
465.682	1	70
465.853	1	75
466.023	1	81
466.194	1	76
466.364	1	82
466.534	1	74
466.705	1	86
466.875	1	52
467.045	1	69
467.216	1	69
467.386	1	73
467.557	1	72
467.727	1	64
467.897	1	81
468.068	1	65
468.238	1	65
468.409	1	79
468.579	1	70
468.749	1	60
468.920	1	61
469.090	1	70
469.260	1	69
469.431	1	60
469.601	1	66
469.772	1	72
469.942	1	75
470.112	1	58
470.283	1	70
470.453	1	57
470.623	1	68
470.794	1	75
470.964	1	52
471.135	1	75
471.305	1	53
471.475	1	71
471.646	1	62
471.816	1	68
471.986	1	59
472.157	1	66
472.327	1	68
472.497	1	71
472.668	1	68
472.838	1	68
473.009	1	69
473.179	1	62
473.349	1	68
473.520	1	74
473.690	1	55
473.860	1	61
474.031	1	55
474.201	1	71
474.371	1	73
474.542	1	63
474.712	1	57
474.882	1	67
475.053	1	77
475.223	1	73
475.394	1	57
475.564	1	65
475.734	1	57
475.905	1	76
476.075	1	66
476.245	1	69
476.416	1	51
476.586	1	50
476.756	1	64
476.927	1	67
477.097	1	65
477.267	1	67
477.438	1	63
477.608	1	74
477.778	1	57
477.949	1	45
478.119	1	64
478.289	1	63
478.460	1	59
478.630	1	62
478.800	1	66
478.971	1	60
479.141	1	58
479.311	1	52
479.482	1	64
479.652	1	59
479.822	1	47
479.993	1	52
480.163	1	61
480.333	1	60
480.504	1	60
480.674	1	54
480.844	1	56
481.015	1	66
481.185	1	60
481.355	1	67
481.525	1	33
481.696	1	56
481.866	1	68
482.036	1	64
482.207	1	59
482.377	1	43
482.547	1	52
482.718	1	55
482.888	1	63
483.058	1	63
483.229	1	62
483.399	1	58
483.569	1	50
483.740	1	55
483.910	1	34
484.080	1	49
484.250	1	48
484.421	1	43
484.591	1	54
484.761	1	46
484.932	1	43
485.102	1	68
485.272	1	46
485.443	1	56
485.613	1	45
485.783	1	44
485.953	1	50
486.124	1	57
486.294	1	59
486.464	1	50
486.635	1	44
486.805	1	49
486.975	1	41
487.146	1	52
487.316	1	60
487.486	1	52
487.656	1	51
487.827	1	51
487.997	1	46
488.167	1	61
488.338	1	32
488.508	1	53
488.678	1	50
488.848	1	48
489.019	1	46
489.189	1	45
489.359	1	36
489.529	1	38
489.700	1	46
489.870	1	50
490.040	1	38
490.211	1	37
490.381	1	52
490.551	1	49
490.721	1	49
490.892	1	37
491.062	1	34
491.232	1	41
491.402	1	39
491.573	1	53
491.743	1	49
491.913	1	45
492.084	1	48
492.254	1	51
492.424	1	44
492.594	1	39
492.765	1	43
492.935	1	56
493.105	1	39
493.275	1	39
493.446	1	40
493.616	1	40
493.786	1	59
493.956	1	44
494.127	1	41
494.297	1	24
494.467	1	43
494.637	1	34
494.808	1	45
494.978	1	35
495.148	1	39
495.318	1	47
495.489	1	39
495.659	1	54
495.829	1	40
495.999	1	55
496.170	1	42
496.340	1	44
496.510	1	42
496.680	1	47
496.851	1	47
497.021	1	43
497.191	1	41
497.361	1	33
497.532	1	35
497.702	1	47
497.872	1	39
498.042	1	37
498.213	1	40
498.383	1	43
498.553	1	50
498.723	1	39
498.894	1	44
499.064	1	36
499.234	1	47
499.404	1	43
499.574	1	41
499.745	1	42
499.915	1	41
500.085	1	36
500.255	1	27
500.426	1	36
500.596	1	40
500.766	1	37
500.936	1	36
501.106	1	36
501.277	1	32
501.447	1	39
501.617	1	37
501.787	1	31
501.958	1	32
502.128	1	32
502.298	1	48
502.468	1	36
502.638	1	44
502.809	1	37
502.979	1	33
503.149	1	43
503.319	1	41
503.489	1	25
503.660	1	36
503.830	1	38
504.000	1	33
504.170	1	36
504.340	1	29
504.511	1	35
504.681	1	35
504.851	1	34
505.021	1	34
505.192	1	24
505.362	1	36
505.532	1	30
505.702	1	43
505.872	1	29
506.043	1	42
506.213	1	40
506.383	1	37
506.553	1	39
506.723	1	34
506.893	1	39
507.064	1	38
507.234	1	23
507.404	1	25
507.574	1	42
507.744	1	45
507.915	1	35
508.085	1	29
508.255	1	24
508.425	1	29
508.595	1	33
508.766	1	22
508.936	1	29
509.106	1	39
509.276	1	42
509.446	1	21
509.616	1	28
509.787	1	38
509.957	1	40
510.127	1	22
510.297	1	27
510.467	1	42
510.638	1	34
510.808	1	43
510.978	1	30
511.148	1	40
511.318	1	40
511.488	1	31
511.659	1	22
511.829	1	21
511.999	1	34
512.169	1	23
512.339	1	35
512.509	1	25
512.680	1	23
512.850	1	27
513.020	1	31
513.190	1	23
513.360	1	39
513.530	1	36
513.700	1	34
513.871	1	22
514.041	1	33
514.211	1	30
514.381	1	39
514.551	1	22
514.721	1	44
514.892	1	26
515.062	1	36
515.232	1	31
515.402	1	28
515.572	1	33
515.742	1	36
515.912	1	30
516.083	1	25
516.253	1	38
516.423	1	31
516.593	1	28
516.763	1	29
516.933	1	24
517.104	1	32
517.274	1	24
517.444	1	31
517.614	1	19
517.784	1	32
517.954	1	24
518.124	1	21
518.294	1	31
518.465	1	30
518.635	1	29
518.805	1	23
518.975	1	39
519.145	1	31
519.315	1	19
519.485	1	23
519.656	1	23
519.826	1	9
519.996	1	35
520.166	1	22
520.336	1	26
520.506	1	28
520.676	1	34
520.846	1	30
521.017	1	26
521.187	1	25
521.357	1	19
521.527	1	20
521.697	1	20
521.867	1	32
522.037	1	22
522.207	1	36
522.377	1	33
522.548	1	14
522.718	1	19
522.888	1	32
523.058	1	17
523.228	1	13
523.398	1	31
523.568	1	12
523.738	1	25
523.909	1	17
524.079	1	23
524.249	1	18
524.419	1	24
524.589	1	17
524.759	1	22
524.929	1	25
525.099	1	21
525.269	1	22
525.439	1	27
525.610	1	20
525.780	1	21
525.950	1	27
526.120	1	16
526.290	1	17
526.460	1	28
526.630	1	8
526.800	1	13
526.970	1	27
527.140	1	12
527.311	1	16
527.481	1	21
527.651	1	25
527.821	1	20
527.991	1	23
528.161	1	21
528.331	1	20
528.501	1	22
528.671	1	15
528.841	1	28
529.011	1	21
529.181	1	16
529.352	1	24
529.522	1	19
529.692	1	21
529.862	1	24
530.032	1	7
530.202	1	11
530.372	1	21
530.542	1	11
530.712	1	26
530.882	1	17
531.052	1	14
531.222	1	28
531.392	1	7
531.563	1	24
531.733	1	24
531.903	1	22
532.073	1	14
532.243	1	30
532.413	1	23
532.583	1	19
532.753	1	28
532.923	1	21
533.093	1	9
533.263	1	22
533.433	1	5
533.603	1	12
533.773	1	22
533.943	1	23
534.113	1	17
534.284	1	20
534.454	1	7
534.624	1	23
534.794	1	13
534.964	1	25
535.134	1	18
535.304	1	17
535.474	1	26
535.644	1	20
535.814	1	30
535.984	1	18
536.154	1	15
536.324	1	19
536.494	1	13
536.664	1	16
536.834	1	16
537.004	1	23
537.174	1	29
537.344	1	21
537.514	1	8
537.685	1	35
537.855	1	13
538.025	1	23
538.195	1	18
538.365	1	15
538.535	1	13
538.705	1	15
538.875	1	15
539.045	1	24
539.215	1	13
539.385	1	13
539.555	1	11
539.725	1	18
539.895	1	23
540.065	1	18
540.235	1	24
540.405	1	16
540.575	1	22
540.745	1	11
540.915	1	16
541.085	1	9
541.255	1	25
541.425	1	15
541.595	1	15
541.765	1	22
541.935	1	16
542.105	1	16
542.275	1	20
542.445	1	8
542.615	1	26
542.785	1	13
542.955	1	25
543.125	1	8
543.295	1	19
543.465	1	23
543.635	1	5
543.805	1	20
543.975	1	14
544.145	1	21
544.315	1	7
544.485	1	10
544.655	1	13
544.825	1	15
544.995	1	15
545.165	1	16
545.335	1	19
545.505	1	13
545.675	1	15
545.845	1	15
546.015	1	9
546.185	1	9
546.355	1	18
546.525	1	15
546.695	1	16
546.865	1	16
547.035	1	17
547.205	1	14
547.375	1	12
547.545	1	19
547.715	1	11
547.885	1	12
548.055	1	16
548.225	1	11
548.395	1	20
548.565	1	22
548.735	1	3
548.905	1	18
549.075	1	19
549.245	1	21
549.415	1	10
549.585	1	20
549.755	1	23
549.925	1	17
550.095	1	14
550.265	1	14
550.435	1	13
550.605	1	12
550.775	1	2
550.945	1	11
551.115	1	19
551.285	1	12
551.455	1	21
551.625	1	9
551.795	1	5
551.965	1	-2
552.135	1	10
552.305	1	18
552.475	1	18
552.645	1	9
552.815	1	8
552.985	1	9
553.155	1	13
553.325	1	5
553.495	1	14
553.665	1	12
553.835	1	11
554.004	1	13
554.174	1	1
554.344	1	6
554.514	1	20
554.684	1	11
554.854	1	3
555.024	1	18
555.194	1	13
555.364	1	18
555.534	1	10
555.704	1	4
555.874	1	5
556.044	1	13
556.214	1	9
556.384	1	15
556.554	1	18
556.724	1	13
556.894	1	10
557.064	1	13
557.234	1	10
557.404	1	8
557.573	1	9
557.743	1	4
557.913	1	6
558.083	1	13
558.253	1	21
558.423	1	8
558.593	1	14
558.763	1	11
558.933	1	14
559.103	1	11
559.273	1	24
559.443	1	20
559.613	1	17
559.783	1	8
559.953	1	5
560.122	1	9
560.292	1	14
560.462	1	14
560.632	1	8
560.802	1	9
560.972	1	5
561.142	1	22
561.312	1	2
561.482	1	21
561.652	1	11
561.822	1	13
561.992	1	13
562.162	1	4
562.331	1	-1
562.501	1	14
562.671	1	12
562.841	1	-1
563.011	1	15
563.181	1	8
563.351	1	3
563.521	1	3
563.691	1	14
563.861	1	9
564.031	1	9
564.201	1	12
564.370	1	24
564.540	1	11
564.710	1	6
564.880	1	9
565.050	1	6
565.220	1	14
565.390	1	9
565.560	1	13
565.730	1	12
565.900	1	14
566.069	1	18
566.239	1	21
566.409	1	14
566.579	1	10
566.749	1	1
566.919	1	-1
567.089	1	-5
567.259	1	17
567.429	1	1
567.599	1	24
567.768	1	3
567.938	1	8
568.108	1	12
568.278	1	15
568.448	1	14
568.618	1	15
568.788	1	9
568.958	1	8
569.128	1	10
569.297	1	5
569.467	1	21
569.637	1	11
569.807	1	15
569.977	1	0
570.147	1	9
570.317	1	16
570.487	1	8
570.656	1	19
570.826	1	11
570.996	1	9
571.166	1	9
571.336	1	8
571.506	1	4
571.676	1	14
571.846	1	16
572.015	1	6
572.185	1	12
572.355	1	7
572.525	1	6
572.695	1	17
572.865	1	14
573.035	1	12
573.205	1	9
573.374	1	-5
573.544	1	11
573.714	1	7
573.884	1	3
574.054	1	12
574.224	1	15
574.394	1	8
574.563	1	12
574.733	1	11
574.903	1	15
575.073	1	7
575.243	1	4
575.413	1	3
575.583	1	4
575.752	1	3
575.922	1	9
576.092	1	6
576.262	1	6
576.432	1	9
576.602	1	13
576.772	1	12
576.941	1	7
577.111	1	6
577.281	1	10
577.451	1	12
577.621	1	8
577.791	1	14
577.960	1	8
578.130	1	11
578.300	1	15
578.470	1	3
578.640	1	6
578.810	1	4
578.979	1	13
579.149	1	12
579.319	1	5
579.489	1	17
579.659	1	12
579.829	1	-1
579.998	1	3
580.168	1	15
580.338	1	5
580.508	1	7
580.678	1	11
580.848	1	2
581.017	1	7
581.187	1	15
581.357	1	16
581.527	1	10
581.697	1	6
581.867	1	5
582.036	1	5
582.206	1	12
582.376	1	3
582.546	1	2
582.716	1	13
582.885	1	10
583.055	1	2
583.225	1	7
583.395	1	10
583.565	1	23
583.735	1	6
583.904	1	6
584.074	1	8
584.244	1	0
584.414	1	6
584.584	1	-1
584.753	1	10
584.923	1	-4
585.093	1	11
585.263	1	11
585.433	1	7
585.602	1	11
585.772	1	27
585.942	1	5
586.112	1	13
586.282	1	10
586.451	1	22
586.621	1	8
586.791	1	-1
586.961	1	4
587.131	1	6
587.300	1	16
587.470	1	-3
587.640	1	9
587.810	1	-1
587.980	1	7
588.149	1	12
588.319	1	15
588.489	1	9
588.659	1	7
588.829	1	14
588.998	1	7
589.168	1	12
589.338	1	6
589.508	1	12
589.677	1	14
589.847	1	17
590.017	1	9
590.187	1	7
590.357	1	5
590.526	1	9
590.696	1	1
590.866	1	-2
591.036	1	16
591.205	1	12
591.375	1	9
591.545	1	10
591.715	1	12
591.885	1	24
592.054	1	14
592.224	1	4
592.394	1	-3
592.564	1	9
592.733	1	-1
592.903	1	13
593.073	1	7
593.243	1	20
593.412	1	3
593.582	1	10
593.752	1	5
593.922	1	13
594.091	1	19
594.261	1	-2
594.431	1	12
594.601	1	0
594.771	1	1
594.940	1	4
595.110	1	11
595.280	1	5
595.450	1	11
595.619	1	14
595.789	1	16
595.959	1	9
596.129	1	11
596.298	1	19
596.468	1	6
596.638	1	0
596.808	1	-10
596.977	1	8
597.147	1	7
597.317	1	15
597.487	1	15
597.656	1	15
597.826	1	22
597.996	1	9
598.166	1	14
598.335	1	6
598.505	1	16
598.675	1	13
598.844	1	27
599.014	1	0
599.184	1	7
599.354	1	22
599.523	1	12
599.693	1	4
599.863	1	8
600.033	1	6
600.202	1	7
600.372	1	1
600.542	1	14
600.712	1	9
600.881	1	4
601.051	1	12
601.221	1	8
601.390	1	5
601.560	1	23
601.730	1	6
601.900	1	8
602.069	1	8
602.239	1	6
602.409	1	5
602.578	1	18
602.748	1	24
602.918	1	3
603.088	1	22
603.257	1	7
603.427	1	13
603.597	1	1
603.767	1	7
603.936	1	10
604.106	1	11
604.276	1	19
604.445	1	6
604.615	1	14
604.785	1	13
604.954	1	7
605.124	1	13
605.294	1	10
605.464	1	-2
605.633	1	19
605.803	1	13
605.973	1	9
606.142	1	14
606.312	1	18
606.482	1	7
606.652	1	15
606.821	1	14
606.991	1	22
607.161	1	3
607.330	1	12
607.500	1	7
607.670	1	11
607.839	1	2
608.009	1	0
608.179	1	16
608.348	1	14
608.518	1	18
608.688	1	2
608.858	1	6
609.027	1	21
609.197	1	19
609.367	1	5
609.536	1	3
609.706	1	14
609.876	1	18
610.045	1	13
610.215	1	13
610.385	1	20
610.554	1	13
610.724	1	7
610.894	1	10
611.063	1	10
611.233	1	18
611.403	1	17
611.572	1	12
611.742	1	-3
611.912	1	9
612.081	1	20
612.251	1	16
612.421	1	8
612.590	1	16
612.760	1	11
612.930	1	13
613.099	1	14
613.269	1	13
613.439	1	-3
613.608	1	22
613.778	1	13
613.948	1	25
614.117	1	10
614.287	1	3
614.457	1	17
614.626	1	21
614.796	1	16
614.966	1	7
615.135	1	30
615.305	1	8
615.475	1	12
615.644	1	13
615.814	1	15
615.984	1	5
616.153	1	9
616.323	1	9
616.493	1	9
616.662	1	15
616.832	1	15
617.002	1	5
617.171	1	21
617.341	1	22
617.511	1	4
617.680	1	9
617.850	1	13
618.019	1	4
618.189	1	13
618.359	1	13
618.528	1	16
618.698	1	20
618.868	1	8
619.037	1	16
619.207	1	4
619.377	1	16
619.546	1	17
619.716	1	14
619.885	1	14
620.055	1	4
620.225	1	16
620.394	1	9
620.564	1	18
620.734	1	12
620.903	1	3
621.073	1	11
621.242	1	25
621.412	1	9
621.582	1	13
621.751	1	17
621.921	1	8
622.091	1	14
622.260	1	20
622.430	1	17
622.599	1	10
622.769	1	16
622.939	1	4
623.108	1	5
623.278	1	12
623.448	1	10
623.617	1	16
623.787	1	15
623.956	1	10
624.126	1	14
624.296	1	14
624.465	1	9
624.635	1	10
624.804	1	4
624.974	1	6
625.144	1	14
625.313	1	26
625.483	1	16
625.652	1	9
625.822	1	22
625.992	1	5
626.161	1	7
626.331	1	13
626.501	1	18
626.670	1	12
626.840	1	18
627.009	1	20
627.179	1	15
627.348	1	14
627.518	1	19
627.688	1	9
627.857	1	18
628.027	1	23
628.196	1	14
628.366	1	4
628.536	1	8
628.705	1	15
628.875	1	14
629.044	1	8
629.214	1	12
629.384	1	28
629.553	1	12
629.723	1	16
629.892	1	19
630.062	1	17
630.232	1	20
630.401	1	15
630.571	1	9
630.740	1	9
630.910	1	25
631.079	1	12
631.249	1	21
631.419	1	10
631.588	1	14
631.758	1	11
631.927	1	23
632.097	1	10
632.266	1	22
632.436	1	8
632.606	1	11
632.775	1	15
632.945	1	15
633.114	1	11
633.284	1	11
633.453	1	15
633.623	1	25
633.793	1	11
633.962	1	18
634.132	1	14
634.301	1	31
634.471	1	16
634.640	1	4
634.810	1	16
634.979	1	16
635.149	1	8
635.319	1	9
635.488	1	16
635.658	1	17
635.827	1	16
635.997	1	17
636.166	1	17
636.336	1	5
636.505	1	14
636.675	1	17
636.845	1	12
637.014	1	8
637.184	1	20
637.353	1	13
637.523	1	17
637.692	1	20
637.862	1	13
638.031	1	15
638.201	1	21
638.370	1	17
638.540	1	6
638.710	1	11
638.879	1	14
639.049	1	19
639.218	1	21
639.388	1	15
639.557	1	26
639.727	1	22
639.896	1	8
640.066	1	9
640.235	1	14
640.405	1	17
640.574	1	20
640.744	1	19
640.914	1	12
641.083	1	26
641.253	1	16
641.422	1	25
641.592	1	25
641.761	1	13
641.931	1	24
642.100	1	22
642.270	1	18
642.439	1	21
642.609	1	32
642.778	1	20
642.948	1	30
643.117	1	31
643.287	1	19
643.456	1	12
643.626	1	16
643.795	1	21
643.965	1	23
644.134	1	12
644.304	1	11
644.473	1	11
644.643	1	13
644.812	1	14
644.982	1	22
645.151	1	20
645.321	1	19
645.490	1	29
645.660	1	8
645.829	1	20
645.999	1	16
646.168	1	33
646.338	1	6
646.507	1	12
646.677	1	21
646.846	1	21
647.016	1	23
647.185	1	24
647.355	1	27
647.524	1	11
647.694	1	11
647.863	1	9
648.033	1	16
648.202	1	21
648.372	1	14
648.541	1	14
648.711	1	21
648.880	1	32
649.050	1	22
649.219	1	15
649.389	1	23
649.558	1	20
649.728	1	17
649.897	1	26
650.067	1	24
650.236	1	10
650.406	1	14
650.575	1	19
650.745	1	16
650.914	1	20
651.084	1	20
651.253	1	18
651.423	1	20
651.592	1	17
651.762	1	18
651.931	1	34
652.101	1	10
652.270	1	15
652.440	1	29
652.609	1	25
652.778	1	18
652.948	1	32
653.117	1	15
653.287	1	3
653.456	1	26
653.626	1	18
653.795	1	12
653.965	1	22
654.134	1	11
654.304	1	22
654.473	1	30
654.643	1	21
654.812	1	24
654.982	1	25
655.151	1	23
655.320	1	20
655.490	1	3
655.659	1	22
655.829	1	34
655.998	1	20
656.168	1	24
656.337	1	27
656.507	1	11
656.676	1	25
656.846	1	28
657.015	1	27
657.184	1	20
657.354	1	22
657.523	1	17
657.693	1	31
657.862	1	11
658.032	1	23
658.201	1	17
658.371	1	15
658.540	1	21
658.709	1	34
658.879	1	28
659.048	1	37
659.218	1	22
659.387	1	25
659.557	1	17
659.726	1	21
659.895	1	20
660.065	1	8
660.234	1	11
660.404	1	28
660.573	1	20
660.743	1	22
660.912	1	20
661.081	1	13
661.251	1	21
661.420	1	31
661.590	1	15
661.759	1	31
661.929	1	27
662.098	1	16
662.267	1	24
662.437	1	28
662.606	1	15
662.776	1	29
662.945	1	39
663.115	1	33
663.284	1	29
663.453	1	17
663.623	1	23
663.792	1	37
663.962	1	31
664.131	1	25
664.300	1	25
664.470	1	15
664.639	1	26
664.809	1	22
664.978	1	36
665.148	1	29
665.317	1	24
665.486	1	23
665.656	1	33
665.825	1	21
665.995	1	3
666.164	1	20
666.333	1	21
666.503	1	8
666.672	1	21
666.842	1	14
667.011	1	24
667.180	1	24
667.350	1	28
667.519	1	24
667.689	1	29
667.858	1	35
668.027	1	19
668.197	1	13
668.366	1	29
668.536	1	20
668.705	1	17
668.874	1	36
669.044	1	26
669.213	1	22
669.382	1	28
669.552	1	19
669.721	1	20
669.891	1	29
670.060	1	23
670.229	1	40
670.399	1	19
670.568	1	22
670.738	1	26
670.907	1	18
671.076	1	20
671.246	1	34
671.415	1	28
671.584	1	28
671.754	1	21
671.923	1	22
672.093	1	34
672.262	1	18
672.431	1	31
672.601	1	27
672.770	1	15
672.939	1	32
673.109	1	29
673.278	1	17
673.448	1	18
673.617	1	26
673.786	1	13
