325.333	1	9
325.504	1	-12
325.675	1	10
325.846	1	-1
326.017	1	8
326.188	1	10
326.359	1	1
326.531	1	-11
326.702	1	8
326.873	1	7
327.044	1	8
327.215	1	-4
327.386	1	-4
327.557	1	-5
327.728	1	1
327.899	1	0
328.070	1	15
328.241	1	14
328.412	1	10
328.583	1	-1
328.754	1	13
328.926	1	-2
329.097	1	-12
329.268	1	8
329.439	1	2
329.610	1	2
329.781	1	1
329.952	1	7
330.123	1	-4
330.294	1	0
330.465	1	-6
330.636	1	4
330.807	1	1
330.978	1	-6
331.149	1	-2
331.320	1	3
331.492	1	-3
331.663	1	1
331.834	1	-4
332.005	1	12
332.176	1	4
332.347	1	-7
332.518	1	8
332.689	1	0
332.860	1	-5
333.031	1	2
333.202	1	-2
333.373	1	10
333.544	1	-1
333.715	1	0
333.886	1	5
334.057	1	-2
334.228	1	9
334.399	1	10
334.570	1	-4
334.741	1	3
334.912	1	-4
335.084	1	2
335.255	1	14
335.426	1	5
335.597	1	-3
335.768	1	5
335.939	1	0
336.110	1	-1
336.281	1	1
336.452	1	7
336.623	1	2
336.794	1	1
336.965	1	7
337.136	1	6
337.307	1	-2
337.478	1	-3
337.649	1	-2
337.820	1	5
337.991	1	-2
338.162	1	0
338.333	1	4
338.504	1	2
338.675	1	-4
338.846	1	-4
339.017	1	5
339.188	1	6
339.359	1	9
339.530	1	-5
339.701	1	8
339.872	1	13
340.043	1	4
340.214	1	6
340.385	1	-2
340.556	1	8
340.727	1	5
340.898	1	9
341.069	1	0
341.240	1	-1
341.411	1	6
341.582	1	-7
341.753	1	3
341.924	1	16
342.095	1	5
342.266	1	2
342.437	1	6
342.608	1	2
342.779	1	-2
342.950	1	-3
343.121	1	3
343.292	1	13
343.463	1	18
343.634	1	9
343.805	1	1
343.976	1	11
344.147	1	9
344.318	1	-1
344.489	1	-1
344.660	1	6
344.831	1	14
345.002	1	1
345.173	1	-2
345.344	1	-8
345.515	1	2
345.686	1	10
345.857	1	12
346.028	1	4
346.199	1	9
346.370	1	6
346.541	1	-2
346.712	1	-7
346.883	1	-1
347.054	1	10
347.225	1	6
347.396	1	4
347.567	1	-6
347.738	1	11
347.909	1	5
348.080	1	2
348.251	1	3
348.422	1	7
348.593	1	1
348.764	1	2
348.935	1	10
349.106	1	-4
349.277	1	-4
349.448	1	13
349.619	1	0
349.790	1	9
349.961	1	-8
350.132	1	9
350.303	1	4
350.474	1	3
350.645	1	0
350.816	1	7
350.987	1	12
351.157	1	3
351.328	1	-5
351.499	1	0
351.670	1	-8
351.841	1	2
352.012	1	5
352.183	1	8
352.354	1	3
352.525	1	11
352.696	1	6
352.867	1	3
353.038	1	7
353.209	1	-3
353.380	1	3
353.551	1	9
353.722	1	11
353.893	1	6
354.064	1	3
354.235	1	10
354.406	1	2
354.576	1	3
354.747	1	4
354.918	1	5
355.089	1	7
355.260	1	-4
355.431	1	-2
355.602	1	11
355.773	1	-4
355.944	1	10
356.115	1	18
356.286	1	11
356.457	1	6
356.628	1	6
356.799	1	3
356.970	1	10
357.141	1	8
357.311	1	16
357.482	1	6
357.653	1	4
357.824	1	9
357.995	1	12
358.166	1	0
358.337	1	3
358.508	1	12
358.679	1	1
358.850	1	5
359.021	1	13
359.192	1	5
359.363	1	12
359.533	1	9
359.704	1	3
359.875	1	2
360.046	1	8
360.217	1	11
360.388	1	7
360.559	1	9
360.730	1	5
360.901	1	1
361.072	1	-2
361.243	1	5
361.414	1	4
361.584	1	3
361.755	1	7
361.926	1	8
362.097	1	7
362.268	1	19
362.439	1	5
362.610	1	9
362.781	1	-1
362.952	1	12
363.123	1	3
363.293	1	7
363.464	1	5
363.635	1	10
363.806	1	11
363.977	1	12
364.148	1	0
364.319	1	3
364.490	1	12
364.661	1	7
364.832	1	7
365.002	1	10
365.173	1	-4
365.344	1	7
365.515	1	5
365.686	1	8
365.857	1	13
366.028	1	9
366.199	1	12
366.370	1	12
366.540	1	1
366.711	1	10
366.882	1	8
367.053	1	4
367.224	1	8
367.395	1	13
367.566	1	9
367.737	1	2
367.908	1	17
368.078	1	-1
368.249	1	14
368.420	1	6
368.591	1	16
368.762	1	5
368.933	1	5
369.104	1	10
369.274	1	25
369.445	1	16
369.616	1	11
369.787	1	0
369.958	1	4
370.129	1	1
370.300	1	1
370.471	1	9
370.641	1	1
370.812	1	13
370.983	1	3
371.154	1	9
371.325	1	9
371.496	1	7
371.667	1	21
371.837	1	11
372.008	1	-2
372.179	1	7
372.350	1	9
372.521	1	6
372.692	1	10
372.863	1	1
373.033	1	2
373.204	1	2
373.375	1	7
373.546	1	14
373.717	1	2
373.888	1	13
374.059	1	3
374.229	1	12
374.400	1	9
374.571	1	-1
374.742	1	8
374.913	1	3
375.084	1	8
375.254	1	-3
375.425	1	5
375.596	1	11
375.767	1	5
375.938	1	1
376.109	1	3
376.279	1	5
376.450	1	4
376.621	1	13
376.792	1	11
376.963	1	3
377.134	1	16
377.304	1	10
377.475	1	-6
377.646	1	4
377.817	1	11
377.988	1	8
378.159	1	10
378.329	1	7
378.500	1	12
378.671	1	5
378.842	1	11
379.013	1	13
379.184	1	7
379.354	1	8
379.525	1	14
379.696	1	14
379.867	1	8
380.038	1	10
380.209	1	10
380.379	1	1
380.550	1	-3
380.721	1	14
380.892	1	8
381.063	1	5
381.233	1	9
381.404	1	13
381.575	1	2
381.746	1	15
381.917	1	4
382.087	1	8
382.258	1	15
382.429	1	4
382.600	1	5
382.771	1	3
382.941	1	18
383.112	1	10
383.283	1	12
383.454	1	2
383.625	1	0
383.795	1	13
383.966	1	5
384.137	1	13
384.308	1	4
384.479	1	12
384.649	1	2
384.820	1	12
384.991	1	9
385.162	1	9
385.333	1	8
385.503	1	9
385.674	1	12
385.845	1	13
386.016	1	19
386.187	1	7
386.357	1	19
386.528	1	4
386.699	1	9
386.870	1	6
387.041	1	24
387.211	1	24
387.382	1	13
387.553	1	8
387.724	1	11
387.894	1	-1
388.065	1	14
388.236	1	10
388.407	1	22
388.578	1	15
388.748	1	12
388.919	1	12
389.090	1	21
389.261	1	9
389.431	1	-2
389.602	1	8
389.773	1	4
389.944	1	17
390.114	1	14
390.285	1	10
390.456	1	5
390.627	1	8
390.798	1	6
390.968	1	23
391.139	1	10
391.310	1	11
391.481	1	5
391.651	1	12
391.822	1	20
391.993	1	12
392.164	1	11
392.334	1	26
392.505	1	9
392.676	1	0
392.847	1	15
393.017	1	11
393.188	1	12
393.359	1	20
393.530	1	29
393.700	1	8
393.871	1	22
394.042	1	7
394.213	1	15
394.383	1	6
394.554	1	3
394.725	1	-2
394.896	1	16
395.066	1	19
395.237	1	10
395.408	1	16
395.579	1	17
395.749	1	30
395.920	1	17
396.091	1	10
396.262	1	15
396.432	1	10
396.603	1	11
396.774	1	7
396.945	1	24
397.115	1	13
397.286	1	15
397.457	1	13
397.627	1	6
397.798	1	13
397.969	1	13
398.140	1	12
398.310	1	17
398.481	1	10
398.652	1	19
398.823	1	14
398.993	1	7
399.164	1	9
399.335	1	7
399.505	1	12
399.676	1	11
399.847	1	8
400.018	1	6
400.188	1	16
400.359	1	9
400.530	1	8
400.700	1	14
400.871	1	13
401.042	1	14
401.213	1	13
401.383	1	4
401.554	1	18
401.725	1	14
401.895	1	0
402.066	1	10
402.237	1	17
402.408	1	14
402.578	1	12
402.749	1	12
402.920	1	21
403.090	1	8
403.261	1	4
403.432	1	11
403.603	1	18
403.773	1	15
403.944	1	7
404.115	1	14
404.285	1	16
404.456	1	20
404.627	1	9
404.797	1	8
404.968	1	16
405.139	1	12
405.310	1	11
405.480	1	15
405.651	1	18
405.822	1	16
405.992	1	19
406.163	1	3
406.334	1	7
406.504	1	15
406.675	1	6
406.846	1	19
407.016	1	24
407.187	1	8
407.358	1	3
407.528	1	18
407.699	1	21
407.870	1	25
408.041	1	10
408.211	1	20
408.382	1	15
408.553	1	5
408.723	1	15
408.894	1	12
409.065	1	13
409.235	1	16
409.406	1	9
409.577	1	9
409.747	1	13
409.918	1	24
410.089	1	19
410.259	1	15
410.430	1	-1
410.601	1	21
410.771	1	17
410.942	1	10
411.113	1	14
411.283	1	11
411.454	1	18
411.625	1	12
411.795	1	16
411.966	1	21
412.137	1	17
412.307	1	8
412.478	1	15
412.649	1	4
412.819	1	9
412.990	1	17
413.161	1	9
413.331	1	8
413.502	1	3
413.672	1	9
413.843	1	17
414.014	1	7
414.184	1	27
414.355	1	11
414.526	1	17
414.696	1	10
414.867	1	1
415.038	1	8
415.208	1	6
415.379	1	3
415.550	1	17
415.720	1	11
415.891	1	15
416.062	1	9
416.232	1	19
416.403	1	19
416.573	1	4
416.744	1	13
416.915	1	14
417.085	1	24
417.256	1	12
417.427	1	9
417.597	1	8
417.768	1	14
417.939	1	6
418.109	1	10
418.280	1	12
418.450	1	17
418.621	1	10
418.792	1	10
418.962	1	25
419.133	1	4
419.304	1	12
419.474	1	20
419.645	1	15
419.815	1	14
419.986	1	15
420.157	1	13
420.327	1	0
420.498	1	6
420.669	1	14
420.839	1	9
421.010	1	13
421.180	1	9
421.351	1	8
421.522	1	15
421.692	1	12
421.863	1	18
422.033	1	18
422.204	1	15
422.375	1	18
422.545	1	19
422.716	1	0
422.886	1	25
423.057	1	19
423.228	1	10
423.398	1	11
423.569	1	16
423.740	1	1
423.910	1	16
424.081	1	12
424.251	1	17
424.422	1	12
424.593	1	5
424.763	1	15
424.934	1	22
425.104	1	27
425.275	1	10
425.445	1	15
425.616	1	9
425.787	1	14
425.957	1	5
426.128	1	16
426.298	1	22
426.469	1	10
426.640	1	8
426.810	1	4
426.981	1	18
427.151	1	7
427.322	1	14
427.493	1	2
427.663	1	13
427.834	1	11
428.004	1	16
428.175	1	17
428.345	1	3
428.516	1	6
428.687	1	16
428.857	1	20
429.028	1	1
429.198	1	4
429.369	1	21
429.540	1	14
429.710	1	19
429.881	1	5
430.051	1	13
430.222	1	18
430.392	1	14
430.563	1	8
430.734	1	13
430.904	1	15
431.075	1	15
431.245	1	8
431.416	1	11
431.586	1	4
431.757	1	14
431.927	1	29
432.098	1	20
432.269	1	3
432.439	1	14
432.610	1	16
432.780	1	18
432.951	1	2
433.121	1	9
433.292	1	14
433.462	1	15
433.633	1	13
433.804	1	23
433.974	1	12
434.145	1	12
434.315	1	9
434.486	1	10
434.656	1	7
434.827	1	13
434.997	1	17
435.168	1	12
435.339	1	23
435.509	1	9
435.680	1	9
435.850	1	0
436.021	1	19
436.191	1	13
436.362	1	9
436.532	1	21
436.703	1	18
436.873	1	10
437.044	1	9
437.214	1	3
437.385	1	16
437.556	1	9
437.726	1	10
437.897	1	14
438.067	1	12
438.238	1	10
438.408	1	14
438.579	1	6
438.749	1	15
438.920	1	18
439.090	1	10
439.261	1	18
439.431	1	11
439.602	1	15
439.772	1	10
439.943	1	11
440.113	1	11
440.284	1	18
440.455	1	8
440.625	1	10
440.796	1	3
440.966	1	21
441.137	1	9
441.307	1	11
441.478	1	8
441.648	1	3
441.819	1	11
441.989	1	16
442.160	1	20
442.330	1	21
442.501	1	17
442.671	1	15
442.842	1	12
443.012	1	4
443.183	1	21
443.353	1	9
443.524	1	11
443.694	1	8
443.865	1	16
444.035	1	3
444.206	1	15
444.376	1	10
444.547	1	5
444.717	1	13
444.888	1	4
445.058	1	6
445.229	1	5
445.399	1	5
445.570	1	10
445.740	1	0
445.911	1	14
446.081	1	17
446.252	1	8
446.422	1	5
446.593	1	5
446.763	1	7
446.934	1	-4
447.104	1	6
447.275	1	5
447.445	1	11
447.616	1	3
447.786	1	6
447.957	1	8
448.127	1	3
448.298	1	5
448.468	1	7
448.639	1	3
448.809	1	5
448.979	1	18
449.150	1	13
449.320	1	4
449.491	1	9
449.661	1	-2
449.832	1	6
450.002	1	5
450.173	1	15
450.343	1	6
450.514	1	17
450.684	1	11
450.855	1	20
451.025	1	2
451.196	1	7
451.366	1	19
451.537	1	19
451.707	1	26
451.878	1	14
452.048	1	2
452.218	1	1
452.389	1	21
452.559	1	19
452.730	1	10
452.900	1	3
453.071	1	17
453.241	1	13
453.412	1	5
453.582	1	14
453.753	1	11
453.923	1	7
454.093	1	8
454.264	1	19
454.434	1	24
454.605	1	0
454.775	1	22
454.946	1	0
455.116	1	11
455.287	1	0
455.457	1	13
455.628	1	-10
455.798	1	8
455.968	1	8
456.139	1	16
456.309	1	9
456.480	1	17
456.650	1	11
456.821	1	9
456.991	1	9
457.161	1	19
457.332	1	2
457.502	1	-5
457.673	1	8
457.843	1	3
458.014	1	18
458.184	1	8
458.355	1	8
458.525	1	7
458.695	1	6
458.866	1	-5
459.036	1	4
459.207	1	10
459.377	1	11
459.548	1	8
459.718	1	12
459.888	1	8
460.059	1	11
460.229	1	0
460.400	1	2
460.570	1	10
460.740	1	11
460.911	1	-4
461.081	1	12
461.252	1	10
461.422	1	11
461.593	1	12
461.763	1	17
461.933	1	11
462.104	1	8
462.274	1	1
462.445	1	9
462.615	1	13
462.785	1	14
462.956	1	4
463.126	1	9
463.297	1	10
463.467	1	14
463.638	1	16
463.808	1	14
463.978	1	-6
464.149	1	8
464.319	1	2
464.490	1	6
464.660	1	2
464.830	1	6
465.001	1	6
465.171	1	1
465.342	1	-2
465.512	1	17
465.682	1	1
465.853	1	1
466.023	1	16
466.194	1	14
466.364	1	16
466.534	1	1
466.705	1	12
466.875	1	2
467.045	1	4
467.216	1	6
467.386	1	12
467.557	1	13
467.727	1	5
467.897	1	18
468.068	1	6
468.238	1	12
468.409	1	4
468.579	1	1
468.749	1	-2
468.920	1	-9
469.090	1	15
469.260	1	8
469.431	1	0
469.601	1	9
469.772	1	12
469.942	1	6
470.112	1	3
470.283	1	11
470.453	1	11
470.623	1	14
470.794	1	8
470.964	1	1
471.135	1	18
471.305	1	7
471.475	1	13
471.646	1	13
471.816	1	17
471.986	1	4
472.157	1	12
472.327	1	10
472.497	1	3
472.668	1	9
472.838	1	1
473.009	1	6
473.179	1	1
473.349	1	2
473.520	1	15
473.690	1	6
473.860	1	-2
474.031	1	-1
474.201	1	6
474.371	1	15
474.542	1	-1
474.712	1	5
474.882	1	3
475.053	1	6
475.223	1	3
475.394	1	3
475.564	1	-1
475.734	1	-3
475.905	1	10
476.075	1	17
476.245	1	5
476.416	1	-2
476.586	1	9
476.756	1	7
476.927	1	6
477.097	1	9
477.267	1	3
477.438	1	8
477.608	1	15
477.778	1	0
477.949	1	2
478.119	1	5
478.289	1	4
478.460	1	14
478.630	1	4
478.800	1	0
478.971	1	5
479.141	1	0
479.311	1	-2
479.482	1	-3
479.652	1	1
479.822	1	-2
479.993	1	7
480.163	1	6
480.333	1	5
480.504	1	5
480.674	1	9
480.844	1	9
481.015	1	9
481.185	1	7
481.355	1	8
481.525	1	-1
481.696	1	12
481.866	1	10
482.036	1	9
482.207	1	9
482.377	1	0
482.547	1	1
482.718	1	2
482.888	1	2
483.058	1	9
483.229	1	6
483.399	1	8
483.569	1	-3
483.740	1	-1
483.910	1	-1
484.080	1	12
484.250	1	-4
484.421	1	-8
484.591	1	2
484.761	1	9
484.932	1	-1
485.102	1	15
485.272	1	11
485.443	1	14
485.613	1	10
485.783	1	4
485.953	1	5
486.124	1	5
486.294	1	7
486.464	1	13
486.635	1	5
486.805	1	11
486.975	1	-1
487.146	1	6
487.316	1	7
487.486	1	17
487.656	1	5
487.827	1	0
487.997	1	1
488.167	1	8
488.338	1	-10
488.508	1	13
488.678	1	4
488.848	1	6
489.019	1	-3
489.189	1	10
489.359	1	9
489.529	1	11
489.700	1	6
489.870	1	13
490.040	1	-8
490.211	1	-9
490.381	1	0
490.551	1	5
490.721	1	4
490.892	1	-2
491.062	1	4
491.232	1	13
491.402	1	-1
491.573	1	13
491.743	1	1
491.913	1	-2
492.084	1	1
492.254	1	3
492.424	1	-4
492.594	1	6
492.765	1	14
492.935	1	13
493.105	1	5
493.275	1	4
493.446	1	-8
493.616	1	-13
493.786	1	6
493.956	1	3
494.127	1	4
494.297	1	-10
494.467	1	-1
494.637	1	7
494.808	1	12
494.978	1	-2
495.148	1	-3
495.318	1	14
495.489	1	-7
495.659	1	5
495.829	1	5
495.999	1	18
496.170	1	4
496.340	1	3
496.510	1	2
496.680	1	-5
496.851	1	-2
497.021	1	0
497.191	1	11
497.361	1	-16
497.532	1	7
497.702	1	10
497.872	1	7
498.042	1	-1
498.213	1	-8
498.383	1	-6
498.553	1	11
498.723	1	3
498.894	1	6
499.064	1	-2
499.234	1	3
499.404	1	15
499.574	1	12
499.745	1	1
499.915	1	-2
500.085	1	1
500.255	1	-7
500.426	1	2
500.596	1	-11
500.766	1	7
500.936	1	-9
501.106	1	-10
501.277	1	-5
501.447	1	4
501.617	1	-3
501.787	1	-4
501.958	1	2
502.128	1	0
502.298	1	2
502.468	1	7
502.638	1	1
502.809	1	6
502.979	1	3
503.149	1	2
503.319	1	8
503.489	1	-14
503.660	1	-1
503.830	1	6
504.000	1	14
504.170	1	-2
504.340	1	0
504.511	1	8
504.681	1	1
504.851	1	-2
505.021	1	3
505.192	1	-8
505.362	1	5
505.532	1	-1
505.702	1	17
505.872	1	1
506.043	1	3
506.213	1	8
506.383	1	2
506.553	1	-1
506.723	1	-4
506.893	1	5
507.064	1	13
507.234	1	-2
507.404	1	-2
507.574	1	-5
507.744	1	0
507.915	1	-7
508.085	1	0
508.255	1	0
508.425	1	-4
508.595	1	1
508.766	1	-9
508.936	1	7
509.106	1	2
509.276	1	11
509.446	1	-6
509.616	1	6
509.787	1	5
509.957	1	5
510.127	1	-13
510.297	1	-13
510.467	1	6
510.638	1	8
510.808	1	13
510.978	1	-8
511.148	1	-2
511.318	1	-1
511.488	1	10
511.659	1	-5
511.829	1	3
511.999	1	1
512.169	1	1
512.339	1	6
512.509	1	-3
512.680	1	7
512.850	1	6
513.020	1	10
513.190	1	-14
513.360	1	5
513.530	1	2
513.700	1	2
513.871	1	1
514.041	1	2
514.211	1	-2
514.381	1	2
514.551	1	-1
514.721	1	5
514.892	1	-2
515.062	1	0
515.232	1	-6
515.402	1	1
515.572	1	2
515.742	1	2
515.912	1	6
516.083	1	1
516.253	1	1
516.423	1	2
516.593	1	4
516.763	1	13
516.933	1	1
517.104	1	8
517.274	1	-3
517.444	1	7
517.614	1	-6
517.784	1	2
517.954	1	-2
518.124	1	12
518.294	1	-3
518.465	1	4
518.635	1	7
518.805	1	4
518.975	1	6
519.145	1	-3
519.315	1	-4
519.485	1	-1
519.656	1	-6
519.826	1	3
519.996	1	2
520.166	1	-2
520.336	1	0
520.506	1	3
520.676	1	1
520.846	1	-6
521.017	1	-3
521.187	1	7
521.357	1	3
521.527	1	1
521.697	1	0
521.867	1	4
522.037	1	-5
522.207	1	11
522.377	1	-4
522.548	1	-13
522.718	1	-3
522.888	1	5
523.058	1	11
523.228	1	-13
523.398	1	-3
523.568	1	-2
523.738	1	6
523.909	1	-2
524.079	1	-8
524.249	1	-6
524.419	1	-3
524.589	1	10
524.759	1	6
524.929	1	-5
525.099	1	8
525.269	1	9
525.439	1	3
525.610	1	11
525.780	1	7
525.950	1	14
526.120	1	-13
526.290	1	-7
526.460	1	-1
526.630	1	3
526.800	1	-8
526.970	1	0
527.140	1	-4
527.311	1	3
527.481	1	0
527.651	1	0
527.821	1	-9
527.991	1	-4
528.161	1	5
528.331	1	-1
528.501	1	-1
528.671	1	0
528.841	1	7
529.011	1	4
529.181	1	-2
529.352	1	-7
529.522	1	11
529.692	1	-3
529.862	1	-1
530.032	1	6
530.202	1	-5
530.372	1	-1
530.542	1	-1
530.712	1	4
530.882	1	-2
531.052	1	5
531.222	1	-2
531.392	1	2
531.563	1	4
531.733	1	4
531.903	1	6
532.073	1	14
532.243	1	8
532.413	1	6
532.583	1	5
532.753	1	-18
532.923	1	13
533.093	1	-17
533.263	1	4
533.433	1	3
533.603	1	-9
533.773	1	-3
533.943	1	2
534.113	1	-3
534.284	1	-2
534.454	1	-7
534.624	1	4
534.794	1	-4
534.964	1	9
535.134	1	-5
535.304	1	13
535.474	1	3
535.644	1	14
535.814	1	2
535.984	1	4
536.154	1	-6
536.324	1	-3
536.494	1	2
536.664	1	10
536.834	1	-6
537.004	1	6
537.174	1	3
537.344	1	4
537.514	1	-3
537.685	1	10
537.855	1	1
538.025	1	13
538.195	1	-3
538.365	1	-6
538.535	1	-5
538.705	1	11
538.875	1	2
539.045	1	0
539.215	1	-11
539.385	1	2
539.555	1	-1
539.725	1	-2
539.895	1	5
540.065	1	2
540.235	1	8
540.405	1	-3
540.575	1	9
540.745	1	10
540.915	1	-6
541.085	1	-5
541.255	1	5
541.425	1	-2
541.595	1	-1
541.765	1	0
541.935	1	0
542.105	1	1
542.275	1	3
542.445	1	8
542.615	1	4
542.785	1	-3
542.955	1	2
543.125	1	4
543.295	1	-4
543.465	1	11
543.635	1	-6
543.805	1	5
543.975	1	-10
544.145	1	0
544.315	1	-4
544.485	1	0
544.655	1	-2
544.825	1	7
544.995	1	-4
545.165	1	-1
545.335	1	7
545.505	1	-4
545.675	1	3
545.845	1	9
546.015	1	-12
546.185	1	-1
546.355	1	-7
546.525	1	9
546.695	1	-6
546.865	1	10
547.035	1	7
547.205	1	3
547.375	1	13
547.545	1	2
547.715	1	-3
547.885	1	-8
548.055	1	-8
548.225	1	5
548.395	1	7
548.565	1	0
548.735	1	-12
548.905	1	1
549.075	1	-1
549.245	1	7
549.415	1	10
549.585	1	6
549.755	1	4
549.925	1	10
550.095	1	-10
550.265	1	2
550.435	1	5
550.605	1	1
550.775	1	-8
550.945	1	-3
551.115	1	2
551.285	1	0
551.455	1	7
551.625	1	-6
551.795	1	-10
551.965	1	-5
552.135	1	0
552.305	1	0
552.475	1	12
552.645	1	-5
552.815	1	1
552.985	1	6
553.155	1	-1
553.325	1	5
553.495	1	-4
553.665	1	-1
553.835	1	3
554.004	1	2
554.174	1	-5
554.344	1	1
554.514	1	0
554.684	1	12
554.854	1	0
555.024	1	2
555.194	1	4
555.364	1	1
555.534	1	-11
555.704	1	-5
555.874	1	-2
556.044	1	-8
556.214	1	-3
556.384	1	8
556.554	1	12
556.724	1	0
556.894	1	-1
557.064	1	2
557.234	1	-6
557.404	1	-4
557.573	1	1
557.743	1	-12
557.913	1	4
558.083	1	1
558.253	1	2
558.423	1	-7
558.593	1	5
558.763	1	2
558.933	1	3
559.103	1	-2
559.273	1	7
559.443	1	1
559.613	1	-2
559.783	1	1
559.953	1	-16
560.122	1	3
560.292	1	-16
560.462	1	0
560.632	1	-15
560.802	1	6
560.972	1	-12
561.142	1	-2
561.312	1	-4
561.482	1	6
561.652	1	0
561.822	1	-7
561.992	1	7
562.162	1	3
562.331	1	-8
562.501	1	-5
562.671	1	-7
562.841	1	-13
563.011	1	8
563.181	1	-3
563.351	1	-5
563.521	1	-6
563.691	1	2
563.861	1	-7
564.031	1	-1
564.201	1	-6
564.370	1	1
564.540	1	-7
564.710	1	5
564.880	1	3
565.050	1	7
565.220	1	15
565.390	1	-9
565.560	1	3
565.730	1	7
565.900	1	4
566.069	1	13
566.239	1	1
566.409	1	8
566.579	1	7
566.749	1	5
566.919	1	-7
567.089	1	-11
567.259	1	4
567.429	1	-6
567.599	1	8
567.768	1	-9
567.938	1	1
568.108	1	-3
568.278	1	0
568.448	1	-1
568.618	1	-3
568.788	1	4
568.958	1	-7
569.128	1	-5
569.297	1	-2
569.467	1	8
569.637	1	-1
569.807	1	1
569.977	1	-6
570.147	1	3
570.317	1	3
570.487	1	1
570.656	1	0
570.826	1	1
570.996	1	13
571.166	1	1
571.336	1	-5
571.506	1	-8
571.676	1	1
571.846	1	5
572.015	1	3
572.185	1	-5
572.355	1	-10
572.525	1	-5
572.695	1	0
572.865	1	4
573.035	1	10
573.205	1	1
573.374	1	-2
573.544	1	1
573.714	1	-9
573.884	1	-4
574.054	1	-5
574.224	1	2
574.394	1	4
574.563	1	-5
574.733	1	2
574.903	1	-11
575.073	1	2
575.243	1	-5
575.413	1	-13
575.583	1	-10
575.752	1	3
575.922	1	7
576.092	1	-6
576.262	1	2
576.432	1	3
576.602	1	-2
576.772	1	0
576.941	1	-3
577.111	1	-4
577.281	1	-1
577.451	1	5
577.621	1	0
577.791	1	5
577.960	1	-2
578.130	1	-7
578.300	1	-3
578.470	1	6
578.640	1	-13
578.810	1	-6
578.979	1	-4
579.149	1	1
579.319	1	-9
579.489	1	8
579.659	1	-7
579.829	1	-1
579.998	1	-7
580.168	1	-1
580.338	1	3
580.508	1	-8
580.678	1	-4
580.848	1	-2
581.017	1	-6
581.187	1	2
581.357	1	3
581.527	1	0
581.697	1	1
581.867	1	-7
582.036	1	1
582.206	1	5
582.376	1	-3
582.546	1	-10
582.716	1	3
582.885	1	-2
583.055	1	-9
583.225	1	0
583.395	1	-5
583.565	1	3
583.735	1	-3
583.904	1	-5
584.074	1	0
584.244	1	1
584.414	1	-4
584.584	1	-8
584.753	1	-7
584.923	1	-7
585.093	1	-3
585.263	1	0
585.433	1	-11
585.602	1	0
585.772	1	13
585.942	1	-8
586.112	1	-4
586.282	1	-3
586.451	1	6
586.621	1	0
586.791	1	-8
586.961	1	-8
587.131	1	-3
587.300	1	10
587.470	1	2
587.640	1	-5
587.810	1	-15
587.980	1	-1
588.149	1	3
588.319	1	3
588.489	1	3
588.659	1	-8
588.829	1	1
588.998	1	-10
589.168	1	8
589.338	1	-6
589.508	1	-9
589.677	1	3
589.847	1	9
590.017	1	-8
590.187	1	0
590.357	1	1
590.526	1	-7
590.696	1	6
590.866	1	-11
591.036	1	3
591.205	1	-2
591.375	1	2
591.545	1	-12
591.715	1	-6
591.885	1	8
592.054	1	7
592.224	1	-3
592.394	1	-13
592.564	1	3
592.733	1	2
592.903	1	-3
593.073	1	3
593.243	1	7
593.412	1	-12
593.582	1	-2
593.752	1	-2
593.922	1	6
594.091	1	-2
594.261	1	-2
594.431	1	1
594.601	1	-3
594.771	1	-1
594.940	1	-3
595.110	1	7
595.280	1	-2
595.450	1	0
595.619	1	1
595.789	1	-6
595.959	1	-5
596.129	1	-4
596.298	1	8
596.468	1	-4
596.638	1	-1
596.808	1	-8
596.977	1	-6
597.147	1	1
597.317	1	4
597.487	1	3
597.656	1	2
597.826	1	3
597.996	1	0
598.166	1	-3
598.335	1	-5
598.505	1	4
598.675	1	7
598.844	1	10
599.014	1	-11
599.184	1	-4
599.354	1	15
599.523	1	-10
599.693	1	6
599.863	1	4
600.033	1	-2
600.202	1	-3
600.372	1	-5
600.542	1	14
600.712	1	-4
600.881	1	1
601.051	1	-4
601.221	1	7
601.390	1	3
601.560	1	5
601.730	1	5
601.900	1	4
602.069	1	-1
602.239	1	-2
602.409	1	4
602.578	1	7
602.748	1	5
602.918	1	-10
603.088	1	6
603.257	1	-9
603.427	1	11
603.597	1	1
603.767	1	-3
603.936	1	11
604.106	1	-7
604.276	1	5
604.445	1	-9
604.615	1	3
604.785	1	7
604.954	1	5
605.124	1	-1
605.294	1	-1
605.464	1	-4
605.633	1	-1
605.803	1	4
605.973	1	2
606.142	1	8
606.312	1	6
606.482	1	-10
606.652	1	-3
606.821	1	-1
606.991	1	0
607.161	1	1
607.330	1	-2
607.500	1	6
607.670	1	12
607.839	1	-1
608.009	1	1
608.179	1	2
608.348	1	1
608.518	1	7
608.688	1	-1
608.858	1	-4
609.027	1	9
609.197	1	3
609.367	1	-1
609.536	1	-3
609.706	1	0
609.876	1	0
610.045	1	2
610.215	1	-1
610.385	1	3
610.554	1	-9
610.724	1	3
610.894	1	3
611.063	1	2
611.233	1	3
611.403	1	3
611.572	1	1
611.742	1	0
611.912	1	-2
612.081	1	24
612.251	1	0
612.421	1	-8
612.590	1	1
612.760	1	-2
612.930	1	7
613.099	1	5
613.269	1	-1
613.439	1	-5
613.608	1	-1
613.778	1	3
613.948	1	5
614.117	1	-2
614.287	1	0
614.457	1	3
614.626	1	-7
614.796	1	-6
614.966	1	0
615.135	1	10
615.305	1	-2
615.475	1	4
615.644	1	6
615.814	1	11
615.984	1	-5
616.153	1	2
616.323	1	-7
616.493	1	0
616.662	1	-1
616.832	1	7
617.002	1	0
617.171	1	3
617.341	1	2
617.511	1	-7
617.680	1	-11
617.850	1	5
618.019	1	-7
618.189	1	16
618.359	1	1
618.528	1	0
618.698	1	4
618.868	1	6
619.037	1	6
619.207	1	-10
619.377	1	-11
619.546	1	5
619.716	1	1
619.885	1	-3
620.055	1	-6
620.225	1	5
620.394	1	9
620.564	1	5
620.734	1	0
620.903	1	-11
621.073	1	9
621.242	1	-5
621.412	1	-2
621.582	1	2
621.751	1	-3
621.921	1	4
622.091	1	-4
622.260	1	3
622.430	1	1
622.599	1	-5
622.769	1	1
622.939	1	-10
623.108	1	-2
623.278	1	-3
623.448	1	1
623.617	1	-5
623.787	1	-3
623.956	1	2
624.126	1	10
624.296	1	0
624.465	1	4
624.635	1	1
624.804	1	0
624.974	1	-9
625.144	1	5
625.313	1	10
625.483	1	10
625.652	1	-6
625.822	1	1
625.992	1	-8
626.161	1	4
626.331	1	-1
626.501	1	2
626.670	1	-8
626.840	1	-1
627.009	1	1
627.179	1	11
627.348	1	-1
627.518	1	5
627.688	1	1
627.857	1	4
628.027	1	5
628.196	1	-3
628.366	1	-14
628.536	1	0
628.705	1	2
628.875	1	0
629.044	1	-5
629.214	1	0
629.384	1	5
629.553	1	3
629.723	1	8
629.892	1	9
630.062	1	2
630.232	1	4
630.401	1	6
630.571	1	-5
630.740	1	-7
630.910	1	8
631.079	1	2
631.249	1	-5
631.419	1	-1
631.588	1	1
631.758	1	-2
631.927	1	11
632.097	1	-2
632.266	1	8
632.436	1	-9
632.606	1	-1
632.775	1	1
632.945	1	0
633.114	1	-9
633.284	1	0
633.453	1	-3
633.623	1	8
633.793	1	-6
633.962	1	7
634.132	1	-8
634.301	1	10
634.471	1	-1
634.640	1	-4
634.810	1	2
634.979	1	2
635.149	1	2
635.319	1	-7
635.488	1	-3
635.658	1	0
635.827	1	-5
635.997	1	4
636.166	1	-1
636.336	1	-5
636.505	1	7
636.675	1	0
636.845	1	-2
637.014	1	-21
637.184	1	5
637.353	1	-5
637.523	1	-4
637.692	1	-3
637.862	1	7
638.031	1	-9
638.201	1	6
638.370	1	-4
638.540	1	-7
638.710	1	-8
638.879	1	-8
639.049	1	3
639.218	1	-1
639.388	1	-8
639.557	1	4
639.727	1	1
639.896	1	2
640.066	1	-2
640.235	1	-3
640.405	1	1
640.574	1	7
640.744	1	-7
640.914	1	11
641.083	1	3
641.253	1	-2
641.422	1	-6
641.592	1	8
641.761	1	-4
641.931	1	8
642.100	1	-7
642.270	1	0
642.439	1	6
642.609	1	13
642.778	1	2
642.948	1	7
643.117	1	8
643.287	1	3
643.456	1	-2
643.626	1	-8
643.795	1	-1
643.965	1	-3
644.134	1	-2
644.304	1	-2
644.473	1	0
644.643	1	-2
644.812	1	-1
644.982	1	8
645.151	1	6
645.321	1	5
645.490	1	6
645.660	1	-4
645.829	1	-8
645.999	1	2
646.168	1	12
646.338	1	0
646.507	1	-11
646.677	1	10
646.846	1	0
647.016	1	9
647.185	1	3
647.355	1	3
647.524	1	-9
647.694	1	-8
647.863	1	-2
648.033	1	1
648.202	1	6
648.372	1	-5
648.541	1	6
648.711	1	4
648.880	1	1
649.050	1	-4
649.219	1	1
649.389	1	3
649.558	1	4
649.728	1	3
649.897	1	3
650.067	1	3
650.236	1	-7
650.406	1	6
650.575	1	1
650.745	1	1
650.914	1	8
651.084	1	5
651.253	1	4
651.423	1	-3
651.592	1	3
651.762	1	-1
651.931	1	4
652.101	1	-11
652.270	1	-9
652.440	1	3
652.609	1	7
652.778	1	11
652.948	1	-1
653.117	1	-4
653.287	1	-16
653.456	1	-10
653.626	1	-3
653.795	1	3
653.965	1	-5
654.134	1	-6
654.304	1	-1
654.473	1	12
654.643	1	-5
654.812	1	13
654.982	1	4
655.151	1	8
655.320	1	-4
655.490	1	-2
655.659	1	4
655.829	1	-2
655.998	1	7
656.168	1	-1
656.337	1	3
656.507	1	-11
656.676	1	-1
656.846	1	4
657.015	1	5
657.184	1	-8
657.354	1	3
657.523	1	0
657.693	1	11
657.862	1	-1
658.032	1	3
658.201	1	-12
658.371	1	2
658.540	1	-6
658.709	1	11
658.879	1	7
659.048	1	10
659.218	1	0
659.387	1	9
659.557	1	-1
659.726	1	-3
659.895	1	3
660.065	1	3
660.234	1	-5
660.404	1	-2
660.573	1	5
660.743	1	3
660.912	1	0
661.081	1	-4
661.251	1	-3
661.420	1	10
661.590	1	-1
661.759	1	5
661.929	1	0
662.098	1	-1
662.267	1	-3
662.437	1	2
662.606	1	1
662.776	1	1
662.945	1	10
663.115	1	11
663.284	1	6
663.453	1	-6
663.623	1	-8
663.792	1	2
663.962	1	0
664.131	1	-4
664.300	1	-4
664.470	1	-4
664.639	1	6
664.809	1	7
664.978	1	10
665.148	1	3
665.317	1	-2
665.486	1	6
665.656	1	0
665.825	1	10
665.995	1	-2
666.164	1	4
666.333	1	-6
666.503	1	-10
666.672	1	2
666.842	1	2
667.011	1	4
667.180	1	1
667.350	1	7
667.519	1	-6
667.689	1	3
667.858	1	3
668.027	1	-4
668.197	1	-16
668.366	1	10
668.536	1	-6
668.705	1	0
668.874	1	10
669.044	1	6
669.213	1	6
669.382	1	-2
669.552	1	0
669.721	1	-3
669.891	1	-8
670.060	1	2
670.229	1	1
670.399	1	9
670.568	1	7
670.738	1	-5
670.907	1	9
671.076	1	-11
671.246	1	6
671.415	1	8
671.584	1	5
671.754	1	-5
671.923	1	-2
672.093	1	9
672.262	1	1
672.431	1	9
672.601	1	8
672.770	1	-4
672.939	1	-2
673.109	1	-3
673.278	1	3
673.448	1	4
673.617	1	3
673.786	1	-15
