325.333	1	23
325.504	1	20
325.675	1	40
325.846	1	31
326.017	1	36
326.188	1	21
326.359	1	30
326.531	1	27
326.702	1	33
326.873	1	49
327.044	1	35
327.215	1	23
327.386	1	33
327.557	1	33
327.728	1	38
327.899	1	32
328.070	1	47
328.241	1	34
328.412	1	39
328.583	1	13
328.754	1	40
328.926	1	36
329.097	1	26
329.268	1	36
329.439	1	43
329.610	1	40
329.781	1	41
329.952	1	41
330.123	1	44
330.294	1	31
330.465	1	39
330.636	1	45
330.807	1	39
330.978	1	31
331.149	1	40
331.320	1	44
331.492	1	46
331.663	1	40
331.834	1	54
332.005	1	41
332.176	1	44
332.347	1	38
332.518	1	47
332.689	1	47
332.860	1	40
333.031	1	43
333.202	1	43
333.373	1	44
333.544	1	40
333.715	1	49
333.886	1	34
334.057	1	48
334.228	1	51
334.399	1	52
334.570	1	50
334.741	1	40
334.912	1	46
335.084	1	53
335.255	1	48
335.426	1	55
335.597	1	52
335.768	1	50
335.939	1	58
336.110	1	56
336.281	1	54
336.452	1	66
336.623	1	48
336.794	1	45
336.965	1	43
337.136	1	52
337.307	1	55
337.478	1	70
337.649	1	46
337.820	1	46
337.991	1	60
338.162	1	52
338.333	1	58
338.504	1	59
338.675	1	61
338.846	1	38
339.017	1	64
339.188	1	62
339.359	1	59
339.530	1	68
339.701	1	60
339.872	1	61
340.043	1	61
340.214	1	65
340.385	1	45
340.556	1	64
340.727	1	64
340.898	1	51
341.069	1	64
341.240	1	56
341.411	1	66
341.582	1	58
341.753	1	66
341.924	1	71
342.095	1	62
342.266	1	70
342.437	1	64
342.608	1	72
342.779	1	66
342.950	1	62
343.121	1	79
343.292	1	64
343.463	1	72
343.634	1	76
343.805	1	73
343.976	1	86
344.147	1	77
344.318	1	59
344.489	1	70
344.660	1	91
344.831	1	74
345.002	1	65
345.173	1	78
345.344	1	56
345.515	1	75
345.686	1	77
345.857	1	75
346.028	1	80
346.199	1	84
346.370	1	75
346.541	1	68
346.712	1	77
346.883	1	73
347.054	1	86
347.225	1	78
347.396	1	79
347.567	1	77
347.738	1	84
347.909	1	90
348.080	1	86
348.251	1	79
348.422	1	99
348.593	1	84
348.764	1	78
348.935	1	89
349.106	1	76
349.277	1	81
349.448	1	95
349.619	1	84
349.790	1	93
349.961	1	75
350.132	1	99
350.303	1	96
350.474	1	88
350.645	1	95
350.816	1	101
350.987	1	103
351.157	1	93
351.328	1	98
351.499	1	93
351.670	1	100
351.841	1	100
352.012	1	103
352.183	1	105
352.354	1	94
352.525	1	94
352.696	1	88
352.867	1	105
353.038	1	105
353.209	1	103
353.380	1	105
353.551	1	107
353.722	1	100
353.893	1	103
354.064	1	104
354.235	1	97
354.406	1	89
354.576	1	99
354.747	1	95
354.918	1	103
355.089	1	106
355.260	1	108
355.431	1	103
355.602	1	108
355.773	1	106
355.944	1	113
356.115	1	109
356.286	1	109
356.457	1	101
356.628	1	105
356.799	1	113
356.970	1	120
357.141	1	118
357.311	1	124
357.482	1	108
357.653	1	121
357.824	1	106
357.995	1	133
358.166	1	109
358.337	1	120
358.508	1	119
358.679	1	107
358.850	1	121
359.021	1	126
359.192	1	111
359.363	1	109
359.533	1	103
359.704	1	108
359.875	1	111
360.046	1	133
360.217	1	117
360.388	1	120
360.559	1	121
360.730	1	103
360.901	1	108
361.072	1	117
361.243	1	129
361.414	1	126
361.584	1	109
361.755	1	125
361.926	1	127
362.097	1	119
362.268	1	124
362.439	1	113
362.610	1	113
362.781	1	109
362.952	1	116
363.123	1	109
363.293	1	118
363.464	1	111
363.635	1	120
363.806	1	118
363.977	1	117
364.148	1	116
364.319	1	114
364.490	1	126
364.661	1	123
364.832	1	113
365.002	1	133
365.173	1	128
365.344	1	115
365.515	1	135
365.686	1	150
365.857	1	132
366.028	1	136
366.199	1	126
366.370	1	129
366.540	1	124
366.711	1	123
366.882	1	132
367.053	1	132
367.224	1	137
367.395	1	131
367.566	1	138
367.737	1	131
367.908	1	129
368.078	1	136
368.249	1	132
368.420	1	126
368.591	1	132
368.762	1	141
368.933	1	127
369.104	1	129
369.274	1	140
369.445	1	140
369.616	1	124
369.787	1	136
369.958	1	138
370.129	1	114
370.300	1	128
370.471	1	139
370.641	1	130
370.812	1	124
370.983	1	129
371.154	1	126
371.325	1	120
371.496	1	118
371.667	1	135
371.837	1	136
372.008	1	116
372.179	1	119
372.350	1	118
372.521	1	138
372.692	1	135
372.863	1	120
373.033	1	118
373.204	1	121
373.375	1	124
373.546	1	134
373.717	1	127
373.888	1	130
374.059	1	136
374.229	1	139
374.400	1	141
374.571	1	143
374.742	1	135
374.913	1	117
375.084	1	123
375.254	1	125
375.425	1	145
375.596	1	151
375.767	1	131
375.938	1	134
376.109	1	138
376.279	1	142
376.450	1	146
376.621	1	143
376.792	1	134
376.963	1	138
377.134	1	148
377.304	1	154
377.475	1	132
377.646	1	140
377.817	1	141
377.988	1	136
378.159	1	154
378.329	1	138
378.500	1	136
378.671	1	150
378.842	1	145
379.013	1	150
379.184	1	139
379.354	1	153
379.525	1	159
379.696	1	143
379.867	1	148
380.038	1	160
380.209	1	152
380.379	1	149
380.550	1	138
380.721	1	134
380.892	1	143
381.063	1	150
381.233	1	160
381.404	1	145
381.575	1	154
381.746	1	149
381.917	1	150
382.087	1	143
382.258	1	158
382.429	1	154
382.600	1	146
382.771	1	158
382.941	1	155
383.112	1	140
383.283	1	157
383.454	1	141
383.625	1	172
383.795	1	171
383.966	1	162
384.137	1	177
384.308	1	163
384.479	1	175
384.649	1	164
384.820	1	169
384.991	1	165
385.162	1	183
385.333	1	160
385.503	1	176
385.674	1	169
385.845	1	178
386.016	1	173
386.187	1	176
386.357	1	188
386.528	1	175
386.699	1	179
386.870	1	173
387.041	1	190
387.211	1	189
387.382	1	189
387.553	1	184
387.724	1	175
387.894	1	171
388.065	1	185
388.236	1	177
388.407	1	182
388.578	1	178
388.748	1	166
388.919	1	172
389.090	1	193
389.261	1	168
389.431	1	154
389.602	1	173
389.773	1	196
389.944	1	195
390.114	1	183
390.285	1	191
390.456	1	183
390.627	1	182
390.798	1	181
390.968	1	181
391.139	1	188
391.310	1	179
391.481	1	168
391.651	1	180
391.822	1	192
391.993	1	182
392.164	1	169
392.334	1	169
392.505	1	172
392.676	1	183
392.847	1	176
393.017	1	172
393.188	1	190
393.359	1	181
393.530	1	188
393.700	1	175
393.871	1	185
394.042	1	185
394.213	1	191
394.383	1	187
394.554	1	178
394.725	1	181
394.896	1	196
395.066	1	183
395.237	1	193
395.408	1	197
395.579	1	199
395.749	1	212
395.920	1	198
396.091	1	189
396.262	1	185
396.432	1	183
396.603	1	196
396.774	1	183
396.945	1	191
397.115	1	198
397.286	1	199
397.457	1	203
397.627	1	202
397.798	1	197
397.969	1	198
398.140	1	190
398.310	1	201
398.481	1	199
398.652	1	191
398.823	1	204
398.993	1	198
399.164	1	201
399.335	1	182
399.505	1	193
399.676	1	192
399.847	1	192
400.018	1	195
400.188	1	189
400.359	1	199
400.530	1	199
400.700	1	206
400.871	1	202
401.042	1	189
401.213	1	187
401.383	1	196
401.554	1	183
401.725	1	199
401.895	1	178
402.066	1	203
402.237	1	201
402.408	1	189
402.578	1	191
402.749	1	189
402.920	1	198
403.090	1	192
403.261	1	200
403.432	1	197
403.603	1	200
403.773	1	202
403.944	1	212
404.115	1	199
404.285	1	195
404.456	1	205
404.627	1	206
404.797	1	210
404.968	1	207
405.139	1	201
405.310	1	191
405.480	1	197
405.651	1	195
405.822	1	196
405.992	1	198
406.163	1	205
406.334	1	203
406.504	1	205
406.675	1	210
406.846	1	205
407.016	1	212
407.187	1	229
407.358	1	205
407.528	1	211
407.699	1	221
407.870	1	214
408.041	1	206
408.211	1	213
408.382	1	220
408.553	1	215
408.723	1	205
408.894	1	201
409.065	1	201
409.235	1	217
409.406	1	208
409.577	1	206
409.747	1	215
409.918	1	216
410.089	1	222
410.259	1	207
410.430	1	213
410.601	1	213
410.771	1	222
410.942	1	207
411.113	1	212
411.283	1	206
411.454	1	213
411.625	1	217
411.795	1	204
411.966	1	198
412.137	1	205
412.307	1	216
412.478	1	201
412.649	1	194
412.819	1	204
412.990	1	222
413.161	1	191
413.331	1	204
413.502	1	196
413.672	1	206
413.843	1	203
414.014	1	203
414.184	1	200
414.355	1	192
414.526	1	196
414.696	1	196
414.867	1	193
415.038	1	201
415.208	1	176
415.379	1	201
415.550	1	200
415.720	1	204
415.891	1	215
416.062	1	197
416.232	1	213
416.403	1	191
416.573	1	193
416.744	1	217
416.915	1	196
417.085	1	211
417.256	1	191
417.427	1	203
417.597	1	203
417.768	1	208
417.939	1	195
418.109	1	208
418.280	1	203
418.450	1	234
418.621	1	206
418.792	1	213
418.962	1	208
419.133	1	197
419.304	1	193
419.474	1	203
419.645	1	215
419.815	1	216
419.986	1	212
420.157	1	205
420.327	1	193
420.498	1	204
420.669	1	202
420.839	1	198
421.010	1	196
421.180	1	197
421.351	1	201
421.522	1	191
421.692	1	201
421.863	1	203
422.033	1	215
422.204	1	206
422.375	1	204
422.545	1	192
422.716	1	193
422.886	1	195
423.057	1	194
423.228	1	199
423.398	1	199
423.569	1	181
423.740	1	194
423.910	1	198
424.081	1	198
424.251	1	193
424.422	1	183
424.593	1	188
424.763	1	187
424.934	1	194
425.104	1	188
425.275	1	173
425.445	1	183
425.616	1	186
425.787	1	178
425.957	1	172
426.128	1	195
426.298	1	181
426.469	1	185
426.640	1	184
426.810	1	170
426.981	1	182
427.151	1	183
427.322	1	179
427.493	1	179
427.663	1	196
427.834	1	173
428.004	1	180
428.175	1	182
428.345	1	181
428.516	1	189
428.687	1	186
428.857	1	188
429.028	1	181
429.198	1	185
429.369	1	181
429.540	1	188
429.710	1	192
429.881	1	175
430.051	1	178
430.222	1	179
430.392	1	187
430.563	1	178
430.734	1	172
430.904	1	188
431.075	1	181
431.245	1	180
431.416	1	186
431.586	1	180
431.757	1	191
431.927	1	199
432.098	1	180
432.269	1	170
432.439	1	174
432.610	1	181
432.780	1	192
432.951	1	172
433.121	1	176
433.292	1	180
433.462	1	187
433.633	1	176
433.804	1	187
433.974	1	170
434.145	1	175
434.315	1	183
434.486	1	166
434.656	1	182
434.827	1	176
434.997	1	185
435.168	1	184
435.339	1	186
435.509	1	177
435.680	1	178
435.850	1	173
436.021	1	178
436.191	1	174
436.362	1	175
436.532	1	170
436.703	1	177
436.873	1	153
437.044	1	172
437.214	1	169
437.385	1	178
437.556	1	179
437.726	1	170
437.897	1	156
438.067	1	170
438.238	1	156
438.408	1	171
438.579	1	169
438.749	1	163
438.920	1	182
439.090	1	151
439.261	1	167
439.431	1	156
439.602	1	168
439.772	1	159
439.943	1	143
440.113	1	147
440.284	1	155
440.455	1	147
440.625	1	170
440.796	1	155
440.966	1	173
441.137	1	166
441.307	1	169
441.478	1	144
441.648	1	163
441.819	1	159
441.989	1	161
442.160	1	169
442.330	1	170
442.501	1	151
442.671	1	146
442.842	1	161
443.012	1	166
443.183	1	147
443.353	1	157
443.524	1	151
443.694	1	143
443.865	1	168
444.035	1	152
444.206	1	146
444.376	1	149
444.547	1	159
444.717	1	140
444.888	1	145
445.058	1	152
445.229	1	151
445.399	1	175
445.570	1	140
445.740	1	161
445.911	1	158
446.081	1	162
446.252	1	149
446.422	1	153
446.593	1	153
446.763	1	146
446.934	1	162
447.104	1	160
447.275	1	148
447.445	1	165
447.616	1	151
447.786	1	141
447.957	1	161
448.127	1	147
448.298	1	160
448.468	1	158
448.639	1	135
448.809	1	150
448.979	1	155
449.150	1	139
449.320	1	147
449.491	1	134
449.661	1	133
449.832	1	140
450.002	1	134
450.173	1	145
450.343	1	144
450.514	1	140
450.684	1	135
450.855	1	139
451.025	1	140
451.196	1	124
451.366	1	164
451.537	1	135
451.707	1	142
451.878	1	133
452.048	1	132
452.218	1	150
452.389	1	148
452.559	1	142
452.730	1	135
452.900	1	135
453.071	1	133
453.241	1	133
453.412	1	132
453.582	1	139
453.753	1	133
453.923	1	116
454.093	1	128
454.264	1	154
454.434	1	127
454.605	1	125
454.775	1	130
454.946	1	130
455.116	1	129
455.287	1	114
455.457	1	131
455.628	1	116
455.798	1	141
455.968	1	129
456.139	1	142
456.309	1	125
456.480	1	123
456.650	1	135
456.821	1	126
456.991	1	133
457.161	1	136
457.332	1	120
457.502	1	117
457.673	1	116
457.843	1	120
458.014	1	135
458.184	1	125
458.355	1	130
458.525	1	114
458.695	1	124
458.866	1	113
459.036	1	130
459.207	1	124
459.377	1	126
459.548	1	127
459.718	1	120
459.888	1	116
460.059	1	119
460.229	1	113
460.400	1	122
460.570	1	128
460.740	1	126
460.911	1	116
461.081	1	114
461.252	1	116
461.422	1	117
461.593	1	124
461.763	1	119
461.933	1	117
462.104	1	124
462.274	1	110
462.445	1	117
462.615	1	131
462.785	1	122
462.956	1	112
463.126	1	121
463.297	1	106
463.467	1	132
463.638	1	126
463.808	1	117
463.978	1	102
464.149	1	115
464.319	1	124
464.490	1	105
464.660	1	108
464.830	1	108
465.001	1	110
465.171	1	121
465.342	1	118
465.512	1	111
465.682	1	101
465.853	1	102
466.023	1	112
466.194	1	109
466.364	1	103
466.534	1	98
466.705	1	116
466.875	1	86
467.045	1	105
467.216	1	99
467.386	1	109
467.557	1	109
467.727	1	106
467.897	1	101
468.068	1	103
468.238	1	95
468.409	1	108
468.579	1	105
468.749	1	99
468.920	1	82
469.090	1	109
469.260	1	102
469.431	1	93
469.601	1	106
469.772	1	113
469.942	1	106
470.112	1	91
470.283	1	106
470.453	1	99
470.623	1	102
470.794	1	85
470.964	1	94
471.135	1	102
471.305	1	94
471.475	1	94
471.646	1	98
471.816	1	92
471.986	1	99
472.157	1	91
472.327	1	111
472.497	1	102
472.668	1	96
472.838	1	81
473.009	1	94
473.179	1	86
473.349	1	82
473.520	1	108
473.690	1	99
473.860	1	75
474.031	1	89
474.201	1	97
474.371	1	106
474.542	1	92
474.712	1	86
474.882	1	91
475.053	1	99
475.223	1	101
475.394	1	103
475.564	1	94
475.734	1	97
475.905	1	109
476.075	1	102
476.245	1	89
476.416	1	85
476.586	1	94
476.756	1	100
476.927	1	98
477.097	1	94
477.267	1	101
477.438	1	92
477.608	1	101
477.778	1	81
477.949	1	86
478.119	1	90
478.289	1	86
478.460	1	86
478.630	1	83
478.800	1	89
478.971	1	98
479.141	1	85
479.311	1	88
479.482	1	89
479.652	1	86
479.822	1	88
479.993	1	89
480.163	1	93
480.333	1	97
480.504	1	97
480.674	1	104
480.844	1	82
481.015	1	91
481.185	1	85
481.355	1	79
481.525	1	75
481.696	1	74
481.866	1	76
482.036	1	82
482.207	1	89
482.377	1	88
482.547	1	88
482.718	1	82
482.888	1	91
483.058	1	84
483.229	1	84
483.399	1	78
483.569	1	65
483.740	1	77
483.910	1	73
484.080	1	78
484.250	1	68
484.421	1	71
484.591	1	77
484.761	1	73
484.932	1	77
485.102	1	86
485.272	1	76
485.443	1	85
485.613	1	69
485.783	1	72
485.953	1	67
486.124	1	76
486.294	1	79
486.464	1	76
486.635	1	70
486.805	1	68
486.975	1	65
487.146	1	79
487.316	1	76
487.486	1	75
487.656	1	81
487.827	1	79
487.997	1	66
488.167	1	74
488.338	1	76
488.508	1	75
488.678	1	65
488.848	1	67
489.019	1	57
489.189	1	76
489.359	1	73
489.529	1	78
489.700	1	63
489.870	1	73
490.040	1	67
490.211	1	65
490.381	1	60
490.551	1	75
490.721	1	68
490.892	1	56
491.062	1	64
491.232	1	68
491.402	1	66
491.573	1	71
491.743	1	64
491.913	1	66
492.084	1	55
492.254	1	71
492.424	1	61
492.594	1	69
492.765	1	84
492.935	1	68
493.105	1	81
493.275	1	69
493.446	1	68
493.616	1	57
493.786	1	61
493.956	1	59
494.127	1	66
494.297	1	49
494.467	1	64
494.637	1	62
494.808	1	73
494.978	1	66
495.148	1	62
495.318	1	62
495.489	1	63
495.659	1	65
495.829	1	70
495.999	1	59
496.170	1	69
496.340	1	61
496.510	1	68
496.680	1	67
496.851	1	68
497.021	1	64
497.191	1	72
497.361	1	50
497.532	1	61
497.702	1	62
497.872	1	70
498.042	1	56
498.213	1	61
498.383	1	59
498.553	1	62
498.723	1	57
498.894	1	56
499.064	1	60
499.234	1	63
499.404	1	66
499.574	1	65
499.745	1	66
499.915	1	57
500.085	1	50
500.255	1	50
500.426	1	51
500.596	1	44
500.766	1	55
500.936	1	44
501.106	1	53
501.277	1	51
501.447	1	64
501.617	1	58
501.787	1	53
501.958	1	63
502.128	1	50
502.298	1	58
502.468	1	53
502.638	1	59
502.809	1	49
502.979	1	61
503.149	1	66
503.319	1	54
503.489	1	40
503.660	1	40
503.830	1	54
504.000	1	42
504.170	1	53
504.340	1	49
504.511	1	54
504.681	1	55
504.851	1	45
505.021	1	44
505.192	1	45
505.362	1	49
505.532	1	53
505.702	1	58
505.872	1	49
506.043	1	61
506.213	1	58
506.383	1	46
506.553	1	45
506.723	1	39
506.893	1	60
507.064	1	56
507.234	1	48
507.404	1	55
507.574	1	46
507.744	1	48
507.915	1	57
508.085	1	49
508.255	1	47
508.425	1	52
508.595	1	44
508.766	1	44
508.936	1	52
509.106	1	64
509.276	1	63
509.446	1	33
509.616	1	64
509.787	1	53
509.957	1	48
510.127	1	46
510.297	1	25
510.467	1	45
510.638	1	50
510.808	1	61
510.978	1	42
511.148	1	55
511.318	1	45
511.488	1	49
511.659	1	50
511.829	1	45
511.999	1	46
512.169	1	54
512.339	1	54
512.509	1	44
512.680	1	34
512.850	1	43
513.020	1	47
513.190	1	40
513.360	1	52
513.530	1	49
513.700	1	56
513.871	1	42
514.041	1	39
514.211	1	55
514.381	1	57
514.551	1	38
514.721	1	51
514.892	1	28
515.062	1	38
515.232	1	37
515.402	1	47
515.572	1	48
515.742	1	48
515.912	1	44
516.083	1	48
516.253	1	53
516.423	1	46
516.593	1	48
516.763	1	44
516.933	1	39
517.104	1	51
517.274	1	41
517.444	1	50
517.614	1	32
517.784	1	54
517.954	1	37
518.124	1	36
518.294	1	39
518.465	1	37
518.635	1	39
518.805	1	35
518.975	1	46
519.145	1	41
519.315	1	27
519.485	1	22
519.656	1	31
519.826	1	30
519.996	1	39
520.166	1	33
520.336	1	32
520.506	1	47
520.676	1	44
520.846	1	33
521.017	1	38
521.187	1	44
521.357	1	37
521.527	1	37
521.697	1	34
521.867	1	55
522.037	1	45
522.207	1	31
522.377	1	44
522.548	1	19
522.718	1	39
522.888	1	32
523.058	1	44
523.228	1	33
523.398	1	39
523.568	1	27
523.738	1	41
523.909	1	35
524.079	1	38
524.249	1	35
524.419	1	44
524.589	1	37
524.759	1	36
524.929	1	36
525.099	1	45
525.269	1	33
525.439	1	31
525.610	1	37
525.780	1	37
525.950	1	33
526.120	1	31
526.290	1	38
526.460	1	25
526.630	1	29
526.800	1	30
526.970	1	38
527.140	1	29
527.311	1	33
527.481	1	38
527.651	1	37
527.821	1	28
527.991	1	31
528.161	1	36
528.331	1	35
528.501	1	37
528.671	1	40
528.841	1	43
529.011	1	29
529.181	1	24
529.352	1	35
529.522	1	39
529.692	1	35
529.862	1	38
530.032	1	22
530.202	1	29
530.372	1	38
530.542	1	33
530.712	1	30
530.882	1	35
531.052	1	31
531.222	1	42
531.392	1	28
531.563	1	42
531.733	1	23
531.903	1	33
532.073	1	26
532.243	1	42
532.413	1	46
532.583	1	35
532.753	1	27
532.923	1	38
533.093	1	34
533.263	1	40
533.433	1	26
533.603	1	39
533.773	1	24
533.943	1	29
534.113	1	35
534.284	1	43
534.454	1	33
534.624	1	35
534.794	1	29
534.964	1	32
535.134	1	14
535.304	1	31
535.474	1	34
535.644	1	29
535.814	1	28
535.984	1	27
536.154	1	27
536.324	1	35
536.494	1	33
536.664	1	29
536.834	1	20
537.004	1	37
537.174	1	37
537.344	1	25
537.514	1	15
537.685	1	34
537.855	1	19
538.025	1	36
538.195	1	34
538.365	1	34
538.535	1	29
538.705	1	24
538.875	1	38
539.045	1	35
539.215	1	23
539.385	1	34
539.555	1	36
539.725	1	36
539.895	1	32
540.065	1	26
540.235	1	36
540.405	1	29
540.575	1	29
540.745	1	34
540.915	1	28
541.085	1	25
541.255	1	32
541.425	1	22
541.595	1	31
541.765	1	33
541.935	1	38
542.105	1	26
542.275	1	34
542.445	1	33
542.615	1	31
542.785	1	26
542.955	1	41
543.125	1	25
543.295	1	27
543.465	1	29
543.635	1	30
543.805	1	27
543.975	1	20
544.145	1	21
544.315	1	17
544.485	1	32
544.655	1	28
544.825	1	31
544.995	1	18
545.165	1	26
545.335	1	26
545.505	1	23
545.675	1	36
545.845	1	24
546.015	1	22
546.185	1	18
546.355	1	13
546.525	1	33
546.695	1	15
546.865	1	27
547.035	1	27
547.205	1	26
547.375	1	37
547.545	1	32
547.715	1	19
547.885	1	15
548.055	1	20
548.225	1	31
548.395	1	18
548.565	1	35
548.735	1	20
548.905	1	25
549.075	1	32
549.245	1	21
549.415	1	15
549.585	1	18
549.755	1	14
549.925	1	25
550.095	1	12
550.265	1	20
550.435	1	23
550.605	1	23
550.775	1	18
550.945	1	28
551.115	1	22
551.285	1	17
551.455	1	24
551.625	1	1
551.795	1	19
551.965	1	14
552.135	1	17
552.305	1	27
552.475	1	26
552.645	1	19
552.815	1	18
552.985	1	15
553.155	1	14
553.325	1	17
553.495	1	23
553.665	1	25
553.835	1	16
554.004	1	18
554.174	1	29
554.344	1	18
554.514	1	15
554.684	1	23
554.854	1	4
555.024	1	22
555.194	1	23
555.364	1	26
555.534	1	7
555.704	1	21
555.874	1	25
556.044	1	9
556.214	1	25
556.384	1	25
556.554	1	22
556.724	1	29
556.894	1	20
557.064	1	13
557.234	1	27
557.404	1	17
557.573	1	28
557.743	1	24
557.913	1	10
558.083	1	26
558.253	1	29
558.423	1	19
558.593	1	25
558.763	1	18
558.933	1	10
559.103	1	14
559.273	1	15
559.443	1	22
559.613	1	13
559.783	1	13
559.953	1	6
560.122	1	23
560.292	1	7
560.462	1	10
560.632	1	4
560.802	1	24
560.972	1	7
561.142	1	18
561.312	1	9
561.482	1	13
561.652	1	19
561.822	1	15
561.992	1	23
562.162	1	14
562.331	1	9
562.501	1	14
562.671	1	14
562.841	1	6
563.011	1	12
563.181	1	9
563.351	1	15
563.521	1	13
563.691	1	15
563.861	1	18
564.031	1	15
564.201	1	24
564.370	1	20
564.540	1	13
564.710	1	8
564.880	1	19
565.050	1	18
565.220	1	17
565.390	1	13
565.560	1	20
565.730	1	16
565.900	1	24
566.069	1	19
566.239	1	21
566.409	1	18
566.579	1	13
566.749	1	12
566.919	1	14
567.089	1	2
567.259	1	15
567.429	1	6
567.599	1	23
567.768	1	16
567.938	1	13
568.108	1	10
568.278	1	11
568.448	1	22
568.618	1	23
568.788	1	20
568.958	1	8
569.128	1	6
569.297	1	4
569.467	1	24
569.637	1	11
569.807	1	21
569.977	1	5
570.147	1	13
570.317	1	12
570.487	1	13
570.656	1	16
570.826	1	14
570.996	1	21
571.166	1	9
571.336	1	13
571.506	1	2
571.676	1	18
571.846	1	16
572.015	1	10
572.185	1	11
572.355	1	8
572.525	1	17
572.695	1	12
572.865	1	18
573.035	1	25
573.205	1	10
573.374	1	1
573.544	1	17
573.714	1	9
573.884	1	6
574.054	1	10
574.224	1	18
574.394	1	23
574.563	1	20
574.733	1	12
574.903	1	18
575.073	1	17
575.243	1	11
575.413	1	12
575.583	1	15
575.752	1	10
575.922	1	25
576.092	1	11
576.262	1	22
576.432	1	9
576.602	1	20
576.772	1	6
576.941	1	8
577.111	1	12
577.281	1	11
577.451	1	20
577.621	1	10
577.791	1	17
577.960	1	13
578.130	1	9
578.300	1	9
578.470	1	16
578.640	1	13
578.810	1	9
578.979	1	13
579.149	1	19
579.319	1	16
579.489	1	16
579.659	1	5
579.829	1	13
579.998	1	0
580.168	1	5
580.338	1	19
580.508	1	7
580.678	1	13
580.848	1	15
581.017	1	14
581.187	1	8
581.357	1	11
581.527	1	21
581.697	1	12
581.867	1	14
582.036	1	5
582.206	1	22
582.376	1	11
582.546	1	11
582.716	1	11
582.885	1	13
583.055	1	4
583.225	1	12
583.395	1	1
583.565	1	18
583.735	1	13
583.904	1	14
584.074	1	13
584.244	1	2
584.414	1	18
584.584	1	9
584.753	1	20
584.923	1	15
585.093	1	19
585.263	1	14
585.433	1	15
585.602	1	14
585.772	1	24
585.942	1	8
586.112	1	14
586.282	1	6
586.451	1	22
586.621	1	8
586.791	1	7
586.961	1	12
587.131	1	13
587.300	1	20
587.470	1	11
587.640	1	9
587.810	1	11
587.980	1	13
588.149	1	23
588.319	1	24
588.489	1	19
588.659	1	4
588.829	1	9
588.998	1	10
589.168	1	19
589.338	1	8
589.508	1	10
589.677	1	12
589.847	1	19
590.017	1	12
590.187	1	14
590.357	1	10
590.526	1	9
590.696	1	19
590.866	1	6
591.036	1	13
591.205	1	18
591.375	1	10
591.545	1	20
591.715	1	9
591.885	1	24
592.054	1	21
592.224	1	10
592.394	1	-2
592.564	1	13
592.733	1	10
592.903	1	4
593.073	1	7
593.243	1	24
593.412	1	7
593.582	1	13
593.752	1	14
593.922	1	20
594.091	1	21
594.261	1	3
594.431	1	11
594.601	1	12
594.771	1	15
594.940	1	16
595.110	1	18
595.280	1	8
595.450	1	6
595.619	1	20
595.789	1	10
595.959	1	18
596.129	1	13
596.298	1	24
596.468	1	12
596.638	1	14
596.808	1	17
596.977	1	12
597.147	1	16
597.317	1	29
597.487	1	8
597.656	1	12
597.826	1	27
597.996	1	6
598.166	1	14
598.335	1	5
598.505	1	21
598.675	1	32
598.844	1	29
599.014	1	6
599.184	1	12
599.354	1	17
599.523	1	3
599.693	1	9
599.863	1	14
600.033	1	12
600.202	1	18
600.372	1	11
600.542	1	15
600.712	1	11
600.881	1	12
601.051	1	23
601.221	1	19
601.390	1	17
601.560	1	23
601.730	1	7
601.900	1	28
602.069	1	9
602.239	1	16
602.409	1	24
602.578	1	19
602.748	1	14
602.918	1	8
603.088	1	16
603.257	1	6
603.427	1	15
603.597	1	13
603.767	1	9
603.936	1	20
604.106	1	12
604.276	1	14
604.445	1	12
604.615	1	14
604.785	1	16
604.954	1	21
605.124	1	4
605.294	1	12
605.464	1	13
605.633	1	20
605.803	1	20
605.973	1	17
606.142	1	21
606.312	1	23
606.482	1	10
606.652	1	17
606.821	1	12
606.991	1	27
607.161	1	6
607.330	1	19
607.500	1	26
607.670	1	9
607.839	1	8
608.009	1	13
608.179	1	22
608.348	1	15
608.518	1	24
608.688	1	11
608.858	1	10
609.027	1	24
609.197	1	15
609.367	1	15
609.536	1	14
609.706	1	25
609.876	1	20
610.045	1	24
610.215	1	4
610.385	1	15
610.554	1	6
610.724	1	16
610.894	1	16
611.063	1	23
611.233	1	22
611.403	1	22
611.572	1	26
611.742	1	20
611.912	1	13
612.081	1	28
612.251	1	28
612.421	1	8
612.590	1	17
612.760	1	23
612.930	1	20
613.099	1	23
613.269	1	14
613.439	1	-2
613.608	1	27
613.778	1	21
613.948	1	21
614.117	1	20
614.287	1	17
614.457	1	16
614.626	1	9
614.796	1	17
614.966	1	25
615.135	1	22
615.305	1	23
615.475	1	17
615.644	1	23
615.814	1	21
615.984	1	13
616.153	1	14
616.323	1	17
616.493	1	19
616.662	1	18
616.832	1	17
617.002	1	9
617.171	1	21
617.341	1	26
617.511	1	4
617.680	1	19
617.850	1	24
618.019	1	19
618.189	1	29
618.359	1	22
618.528	1	9
618.698	1	25
618.868	1	6
619.037	1	24
619.207	1	14
619.377	1	19
619.546	1	26
619.716	1	19
619.885	1	28
620.055	1	10
620.225	1	17
620.394	1	24
620.564	1	19
620.734	1	16
620.903	1	6
621.073	1	32
621.242	1	15
621.412	1	21
621.582	1	28
621.751	1	16
621.921	1	22
622.091	1	10
622.260	1	20
622.430	1	14
622.599	1	12
622.769	1	19
622.939	1	13
623.108	1	24
623.278	1	15
623.448	1	14
623.617	1	28
623.787	1	17
623.956	1	16
624.126	1	29
624.296	1	22
624.465	1	29
624.635	1	27
624.804	1	11
624.974	1	16
625.144	1	15
625.313	1	26
625.483	1	23
625.652	1	20
625.822	1	18
625.992	1	9
626.161	1	19
626.331	1	9
626.501	1	23
626.670	1	17
626.840	1	27
627.009	1	13
627.179	1	14
627.348	1	18
627.518	1	29
627.688	1	22
627.857	1	17
628.027	1	21
628.196	1	34
628.366	1	4
628.536	1	24
628.705	1	18
628.875	1	13
629.044	1	24
629.214	1	24
629.384	1	32
629.553	1	20
629.723	1	21
629.892	1	30
630.062	1	15
630.232	1	28
630.401	1	25
630.571	1	16
630.740	1	12
630.910	1	21
631.079	1	14
631.249	1	22
631.419	1	28
631.588	1	26
631.758	1	10
631.927	1	31
632.097	1	15
632.266	1	27
632.436	1	22
632.606	1	24
632.775	1	18
632.945	1	14
633.114	1	18
633.284	1	10
633.453	1	37
633.623	1	23
633.793	1	19
633.962	1	27
634.132	1	23
634.301	1	32
634.471	1	29
634.640	1	18
634.810	1	23
634.979	1	31
635.149	1	15
635.319	1	22
635.488	1	24
635.658	1	12
635.827	1	14
635.997	1	24
636.166	1	17
636.336	1	20
636.505	1	29
636.675	1	21
636.845	1	26
637.014	1	25
637.184	1	23
637.353	1	30
637.523	1	24
637.692	1	21
637.862	1	15
638.031	1	23
638.201	1	25
638.370	1	28
638.540	1	23
638.710	1	17
638.879	1	26
639.049	1	26
639.218	1	25
639.388	1	29
639.557	1	28
639.727	1	27
639.896	1	21
640.066	1	24
640.235	1	30
640.405	1	32
640.574	1	32
640.744	1	22
640.914	1	21
641.083	1	31
641.253	1	23
641.422	1	9
641.592	1	33
641.761	1	32
641.931	1	42
642.100	1	26
642.270	1	26
642.439	1	27
642.609	1	43
642.778	1	25
642.948	1	30
643.117	1	32
643.287	1	30
643.456	1	15
643.626	1	30
643.795	1	32
643.965	1	26
644.134	1	26
644.304	1	27
644.473	1	31
644.643	1	24
644.812	1	19
644.982	1	31
645.151	1	24
645.321	1	32
645.490	1	32
645.660	1	30
645.829	1	26
645.999	1	25
646.168	1	43
646.338	1	23
646.507	1	19
646.677	1	30
646.846	1	30
647.016	1	34
647.185	1	28
647.355	1	44
647.524	1	24
647.694	1	17
647.863	1	26
648.033	1	37
648.202	1	24
648.372	1	11
648.541	1	30
648.711	1	28
648.880	1	31
649.050	1	34
649.219	1	32
649.389	1	25
649.558	1	38
649.728	1	31
649.897	1	33
650.067	1	40
650.236	1	30
650.406	1	29
650.575	1	35
650.745	1	27
650.914	1	31
651.084	1	34
651.253	1	37
651.423	1	27
651.592	1	29
651.762	1	28
651.931	1	41
652.101	1	21
652.270	1	41
652.440	1	35
652.609	1	36
652.778	1	33
652.948	1	36
653.117	1	34
653.287	1	25
653.456	1	28
653.626	1	28
653.795	1	26
653.965	1	32
654.134	1	28
654.304	1	39
654.473	1	29
654.643	1	30
654.812	1	45
654.982	1	41
655.151	1	40
655.320	1	37
655.490	1	28
655.659	1	36
655.829	1	37
655.998	1	41
656.168	1	26
656.337	1	32
656.507	1	25
656.676	1	26
656.846	1	32
657.015	1	40
657.184	1	25
657.354	1	38
657.523	1	31
657.693	1	47
657.862	1	22
658.032	1	31
658.201	1	21
658.371	1	37
658.540	1	28
658.709	1	37
658.879	1	31
659.048	1	41
659.218	1	29
659.387	1	42
659.557	1	34
659.726	1	39
659.895	1	27
660.065	1	29
660.234	1	36
660.404	1	35
660.573	1	27
660.743	1	26
660.912	1	30
661.081	1	30
661.251	1	39
661.420	1	49
661.590	1	40
661.759	1	42
661.929	1	36
662.098	1	44
662.267	1	32
662.437	1	41
662.606	1	32
662.776	1	30
662.945	1	36
663.115	1	33
663.284	1	35
663.453	1	31
663.623	1	47
663.792	1	49
663.962	1	51
664.131	1	30
664.300	1	37
664.470	1	34
664.639	1	42
664.809	1	26
664.978	1	32
665.148	1	35
665.317	1	38
665.486	1	32
665.656	1	38
665.825	1	44
665.995	1	31
666.164	1	35
666.333	1	35
666.503	1	32
666.672	1	39
666.842	1	39
667.011	1	35
667.180	1	41
667.350	1	35
667.519	1	45
667.689	1	38
667.858	1	42
668.027	1	30
668.197	1	24
668.366	1	34
668.536	1	37
668.705	1	32
668.874	1	35
669.044	1	38
669.213	1	36
669.382	1	44
669.552	1	36
669.721	1	36
669.891	1	37
670.060	1	29
670.229	1	52
670.399	1	36
670.568	1	37
670.738	1	33
670.907	1	42
671.076	1	34
671.246	1	38
671.415	1	48
671.584	1	42
671.754	1	36
671.923	1	39
672.093	1	33
672.262	1	38
672.431	1	36
672.601	1	44
672.770	1	33
672.939	1	42
673.109	1	33
673.278	1	34
673.448	1	33
673.617	1	38
673.786	1	30
