325.333	1	1
325.504	1	-8
325.675	1	7
325.846	1	2
326.017	1	-2
326.188	1	-9
326.359	1	5
326.531	1	-7
326.702	1	-2
326.873	1	5
327.044	1	3
327.215	1	-6
327.386	1	1
327.557	1	-10
327.728	1	-4
327.899	1	-3
328.070	1	11
328.241	1	-1
328.412	1	-4
328.583	1	-9
328.754	1	9
328.926	1	9
329.097	1	-10
329.268	1	9
329.439	1	9
329.610	1	5
329.781	1	8
329.952	1	-10
330.123	1	-6
330.294	1	-4
330.465	1	-14
330.636	1	5
330.807	1	0
330.978	1	-3
331.149	1	-6
331.320	1	1
331.492	1	-3
331.663	1	2
331.834	1	-2
332.005	1	10
332.176	1	3
332.347	1	-3
332.518	1	13
332.689	1	2
332.860	1	4
333.031	1	5
333.202	1	8
333.373	1	10
333.544	1	-3
333.715	1	-2
333.886	1	-1
334.057	1	-14
334.228	1	8
334.399	1	9
334.570	1	10
334.741	1	-5
334.912	1	-7
335.084	1	10
335.255	1	11
335.426	1	-2
335.597	1	-3
335.768	1	8
335.939	1	-3
336.110	1	-2
336.281	1	-1
336.452	1	15
336.623	1	7
336.794	1	4
336.965	1	1
337.136	1	14
337.307	1	2
337.478	1	2
337.649	1	4
337.820	1	3
337.991	1	-2
338.162	1	-8
338.333	1	-5
338.504	1	3
338.675	1	-1
338.846	1	-7
339.017	1	11
339.188	1	0
339.359	1	7
339.530	1	-3
339.701	1	10
339.872	1	6
340.043	1	1
340.214	1	11
340.385	1	-9
340.556	1	13
340.727	1	5
340.898	1	4
341.069	1	5
341.240	1	-2
341.411	1	3
341.582	1	-1
341.753	1	0
341.924	1	11
342.095	1	-4
342.266	1	8
342.437	1	-5
342.608	1	19
342.779	1	-4
342.950	1	8
343.121	1	7
343.292	1	8
343.463	1	12
343.634	1	4
343.805	1	5
343.976	1	8
344.147	1	8
344.318	1	-4
344.489	1	-2
344.660	1	-1
344.831	1	11
345.002	1	1
345.173	1	-10
345.344	1	3
345.515	1	7
345.686	1	3
345.857	1	7
346.028	1	11
346.199	1	9
346.370	1	-3
346.541	1	4
346.712	1	2
346.883	1	-1
347.054	1	6
347.225	1	-2
347.396	1	3
347.567	1	2
347.738	1	7
347.909	1	1
348.080	1	-2
348.251	1	2
348.422	1	16
348.593	1	4
348.764	1	0
348.935	1	3
349.106	1	-1
349.277	1	2
349.448	1	-5
349.619	1	11
349.790	1	11
349.961	1	0
350.132	1	7
350.303	1	6
350.474	1	-5
350.645	1	-1
350.816	1	2
350.987	1	14
351.157	1	3
351.328	1	6
351.499	1	5
351.670	1	-2
351.841	1	9
352.012	1	5
352.183	1	18
352.354	1	-1
352.525	1	8
352.696	1	3
352.867	1	11
353.038	1	12
353.209	1	10
353.380	1	9
353.551	1	9
353.722	1	0
353.893	1	11
354.064	1	6
354.235	1	8
354.406	1	-11
354.576	1	3
354.747	1	3
354.918	1	3
355.089	1	0
355.260	1	3
355.431	1	0
355.602	1	4
355.773	1	-1
355.944	1	6
356.115	1	19
356.286	1	12
356.457	1	-3
356.628	1	1
356.799	1	4
356.970	1	13
357.141	1	14
357.311	1	12
357.482	1	2
357.653	1	-1
357.824	1	2
357.995	1	2
358.166	1	6
358.337	1	-4
358.508	1	5
358.679	1	-2
358.850	1	17
359.021	1	5
359.192	1	19
359.363	1	3
359.533	1	12
359.704	1	8
359.875	1	2
360.046	1	9
360.217	1	11
360.388	1	9
360.559	1	3
360.730	1	-5
360.901	1	6
361.072	1	9
361.243	1	12
361.414	1	9
361.584	1	5
361.755	1	-2
361.926	1	10
362.097	1	6
362.268	1	15
362.439	1	1
362.610	1	12
362.781	1	-2
362.952	1	16
363.123	1	8
363.293	1	5
363.464	1	2
363.635	1	9
363.806	1	8
363.977	1	12
364.148	1	13
364.319	1	-8
364.490	1	15
364.661	1	4
364.832	1	10
365.002	1	10
365.173	1	6
365.344	1	9
365.515	1	6
365.686	1	17
365.857	1	19
366.028	1	6
366.199	1	2
366.370	1	4
366.540	1	2
366.711	1	11
366.882	1	12
367.053	1	6
367.224	1	15
367.395	1	13
367.566	1	10
367.737	1	3
367.908	1	6
368.078	1	-2
368.249	1	3
368.420	1	6
368.591	1	19
368.762	1	12
368.933	1	8
369.104	1	19
369.274	1	13
369.445	1	15
369.616	1	5
369.787	1	-1
369.958	1	10
370.129	1	3
370.300	1	0
370.471	1	7
370.641	1	4
370.812	1	6
370.983	1	2
371.154	1	5
371.325	1	4
371.496	1	-3
371.667	1	7
371.837	1	6
372.008	1	8
372.179	1	4
372.350	1	0
372.521	1	14
372.692	1	5
372.863	1	8
373.033	1	2
373.204	1	12
373.375	1	0
373.546	1	9
373.717	1	12
373.888	1	13
374.059	1	6
374.229	1	11
374.400	1	-1
374.571	1	6
374.742	1	7
374.913	1	-6
375.084	1	2
375.254	1	-11
375.425	1	11
375.596	1	9
375.767	1	13
375.938	1	4
376.109	1	6
376.279	1	6
376.450	1	9
376.621	1	15
376.792	1	22
376.963	1	-2
377.134	1	13
377.304	1	16
377.475	1	-2
377.646	1	5
377.817	1	12
377.988	1	11
378.159	1	8
378.329	1	6
378.500	1	22
378.671	1	4
378.842	1	10
379.013	1	14
379.184	1	5
379.354	1	12
379.525	1	11
379.696	1	12
379.867	1	18
380.038	1	2
380.209	1	12
380.379	1	9
380.550	1	0
380.721	1	6
380.892	1	-4
381.063	1	8
381.233	1	12
381.404	1	0
381.575	1	13
381.746	1	14
381.917	1	3
382.087	1	10
382.258	1	20
382.429	1	11
382.600	1	4
382.771	1	5
382.941	1	15
383.112	1	6
383.283	1	16
383.454	1	4
383.625	1	7
383.795	1	10
383.966	1	19
384.137	1	12
384.308	1	11
384.479	1	13
384.649	1	1
384.820	1	3
384.991	1	7
385.162	1	11
385.333	1	13
385.503	1	6
385.674	1	8
385.845	1	9
386.016	1	4
386.187	1	-1
386.357	1	22
386.528	1	6
386.699	1	7
386.870	1	19
387.041	1	17
387.211	1	4
387.382	1	9
387.553	1	17
387.724	1	-2
387.894	1	2
388.065	1	16
388.236	1	12
388.407	1	9
388.578	1	1
388.748	1	14
388.919	1	6
389.090	1	19
389.261	1	17
389.431	1	-8
389.602	1	5
389.773	1	13
389.944	1	6
390.114	1	14
390.285	1	18
390.456	1	17
390.627	1	10
390.798	1	2
390.968	1	14
391.139	1	19
391.310	1	4
391.481	1	14
391.651	1	12
391.822	1	23
391.993	1	10
392.164	1	7
392.334	1	11
392.505	1	13
392.676	1	4
392.847	1	2
393.017	1	3
393.188	1	6
393.359	1	16
393.530	1	17
393.700	1	11
393.871	1	8
394.042	1	0
394.213	1	10
394.383	1	11
394.554	1	2
394.725	1	2
394.896	1	12
395.066	1	11
395.237	1	15
395.408	1	3
395.579	1	23
395.749	1	19
395.920	1	13
396.091	1	9
396.262	1	2
396.432	1	3
396.603	1	11
396.774	1	5
396.945	1	14
397.115	1	17
397.286	1	12
397.457	1	9
397.627	1	5
397.798	1	12
397.969	1	7
398.140	1	5
398.310	1	10
398.481	1	5
398.652	1	11
398.823	1	11
398.993	1	10
399.164	1	13
399.335	1	6
399.505	1	4
399.676	1	9
399.847	1	18
400.018	1	5
400.188	1	15
400.359	1	11
400.530	1	15
400.700	1	19
400.871	1	21
401.042	1	6
401.213	1	15
401.383	1	16
401.554	1	13
401.725	1	7
401.895	1	7
402.066	1	9
402.237	1	11
402.408	1	8
402.578	1	18
402.749	1	3
402.920	1	20
403.090	1	12
403.261	1	9
403.432	1	29
403.603	1	11
403.773	1	15
403.944	1	22
404.115	1	16
404.285	1	1
404.456	1	11
404.627	1	15
404.797	1	6
404.968	1	10
405.139	1	20
405.310	1	11
405.480	1	8
405.651	1	6
405.822	1	9
405.992	1	16
406.163	1	10
406.334	1	13
406.504	1	11
406.675	1	6
406.846	1	8
407.016	1	18
407.187	1	16
407.358	1	10
407.528	1	15
407.699	1	11
407.870	1	19
408.041	1	10
408.211	1	17
408.382	1	17
408.553	1	15
408.723	1	15
408.894	1	14
409.065	1	15
409.235	1	8
409.406	1	18
409.577	1	11
409.747	1	7
409.918	1	25
410.089	1	23
410.259	1	13
410.430	1	15
410.601	1	15
410.771	1	9
410.942	1	9
411.113	1	9
411.283	1	17
411.454	1	26
411.625	1	16
411.795	1	18
411.966	1	12
412.137	1	13
412.307	1	10
412.478	1	10
412.649	1	5
412.819	1	15
412.990	1	8
413.161	1	22
413.331	1	15
413.502	1	13
413.672	1	6
413.843	1	12
414.014	1	18
414.184	1	23
414.355	1	8
414.526	1	6
414.696	1	8
414.867	1	6
415.038	1	8
415.208	1	1
415.379	1	12
415.550	1	25
415.720	1	5
415.891	1	18
416.062	1	17
416.232	1	14
416.403	1	16
416.573	1	1
416.744	1	14
416.915	1	13
417.085	1	18
417.256	1	14
417.427	1	6
417.597	1	5
417.768	1	8
417.939	1	8
418.109	1	1
418.280	1	5
418.450	1	15
418.621	1	6
418.792	1	12
418.962	1	17
419.133	1	16
419.304	1	9
419.474	1	15
419.645	1	7
419.815	1	16
419.986	1	17
420.157	1	7
420.327	1	12
420.498	1	15
420.669	1	22
420.839	1	12
421.010	1	6
421.180	1	12
421.351	1	9
421.522	1	19
421.692	1	11
421.863	1	15
422.033	1	9
422.204	1	19
422.375	1	10
422.545	1	19
422.716	1	6
422.886	1	23
423.057	1	13
423.228	1	5
423.398	1	9
423.569	1	11
423.740	1	5
423.910	1	9
424.081	1	21
424.251	1	7
424.422	1	20
424.593	1	7
424.763	1	17
424.934	1	17
425.104	1	23
425.275	1	11
425.445	1	11
425.616	1	12
425.787	1	5
425.957	1	9
426.128	1	14
426.298	1	13
426.469	1	2
426.640	1	13
426.810	1	-1
426.981	1	19
427.151	1	2
427.322	1	11
427.493	1	9
427.663	1	14
427.834	1	13
428.004	1	23
428.175	1	18
428.345	1	2
428.516	1	11
428.687	1	20
428.857	1	11
429.028	1	14
429.198	1	10
429.369	1	12
429.540	1	4
429.710	1	13
429.881	1	15
430.051	1	4
430.222	1	14
430.392	1	4
430.563	1	7
430.734	1	8
430.904	1	19
431.075	1	9
431.245	1	11
431.416	1	7
431.586	1	5
431.757	1	6
431.927	1	9
432.098	1	15
432.269	1	6
432.439	1	7
432.610	1	18
432.780	1	20
432.951	1	15
433.121	1	4
433.292	1	11
433.462	1	2
433.633	1	6
433.804	1	6
433.974	1	16
434.145	1	13
434.315	1	8
434.486	1	8
434.656	1	10
434.827	1	17
434.997	1	11
435.168	1	-1
435.339	1	24
435.509	1	18
435.680	1	8
435.850	1	-2
436.021	1	6
436.191	1	12
436.362	1	6
436.532	1	16
436.703	1	7
436.873	1	4
437.044	1	16
437.214	1	5
437.385	1	10
437.556	1	17
437.726	1	11
437.897	1	11
438.067	1	12
438.238	1	9
438.408	1	14
438.579	1	1
438.749	1	15
438.920	1	18
439.090	1	2
439.261	1	19
439.431	1	3
439.602	1	7
439.772	1	10
439.943	1	-7
440.113	1	4
440.284	1	24
440.455	1	10
440.625	1	10
440.796	1	13
440.966	1	14
441.137	1	17
441.307	1	19
441.478	1	0
441.648	1	7
441.819	1	16
441.989	1	14
442.160	1	17
442.330	1	12
442.501	1	10
442.671	1	8
442.842	1	15
443.012	1	5
443.183	1	11
443.353	1	16
443.524	1	3
443.694	1	11
443.865	1	14
444.035	1	8
444.206	1	-5
444.376	1	12
444.547	1	11
444.717	1	4
444.888	1	4
445.058	1	9
445.229	1	13
445.399	1	5
445.570	1	14
445.740	1	11
445.911	1	14
446.081	1	14
446.252	1	9
446.422	1	11
446.593	1	11
446.763	1	-1
446.934	1	1
447.104	1	2
447.275	1	2
447.445	1	13
447.616	1	6
447.786	1	-2
447.957	1	7
448.127	1	0
448.298	1	7
448.468	1	10
448.639	1	-1
448.809	1	-2
448.979	1	12
449.150	1	0
449.320	1	6
449.491	1	7
449.661	1	5
449.832	1	-5
450.002	1	11
450.173	1	13
450.343	1	1
450.514	1	11
450.684	1	6
450.855	1	12
451.025	1	0
451.196	1	4
451.366	1	21
451.537	1	16
451.707	1	16
451.878	1	-1
452.048	1	7
452.218	1	7
452.389	1	13
452.559	1	18
452.730	1	12
452.900	1	6
453.071	1	16
453.241	1	20
453.412	1	5
453.582	1	11
453.753	1	15
453.923	1	2
454.093	1	8
454.264	1	21
454.434	1	11
454.605	1	6
454.775	1	14
454.946	1	0
455.116	1	12
455.287	1	5
455.457	1	6
455.628	1	-2
455.798	1	10
455.968	1	16
456.139	1	9
456.309	1	14
456.480	1	9
456.650	1	10
456.821	1	5
456.991	1	17
457.161	1	11
457.332	1	0
457.502	1	3
457.673	1	10
457.843	1	6
458.014	1	6
458.184	1	7
458.355	1	9
458.525	1	4
458.695	1	8
458.866	1	-11
459.036	1	1
459.207	1	4
459.377	1	4
459.548	1	16
459.718	1	11
459.888	1	-2
460.059	1	7
460.229	1	4
460.400	1	10
460.570	1	0
460.740	1	18
460.911	1	9
461.081	1	8
461.252	1	7
461.422	1	2
461.593	1	13
461.763	1	9
461.933	1	8
462.104	1	0
462.274	1	-2
462.445	1	7
462.615	1	13
462.785	1	12
462.956	1	3
463.126	1	9
463.297	1	5
463.467	1	20
463.638	1	12
463.808	1	7
463.978	1	-2
464.149	1	9
464.319	1	4
464.490	1	9
464.660	1	3
464.830	1	-1
465.001	1	5
465.171	1	-12
465.342	1	2
465.512	1	6
465.682	1	4
465.853	1	0
466.023	1	7
466.194	1	6
466.364	1	3
466.534	1	-4
466.705	1	18
466.875	1	1
467.045	1	2
467.216	1	10
467.386	1	0
467.557	1	18
467.727	1	-3
467.897	1	6
468.068	1	0
468.238	1	1
468.409	1	2
468.579	1	2
468.749	1	0
468.920	1	7
469.090	1	7
469.260	1	11
469.431	1	-8
469.601	1	10
469.772	1	20
469.942	1	3
470.112	1	-4
470.283	1	8
470.453	1	7
470.623	1	8
470.794	1	7
470.964	1	-1
471.135	1	14
471.305	1	5
471.475	1	4
471.646	1	14
471.816	1	5
471.986	1	4
472.157	1	6
472.327	1	12
472.497	1	5
472.668	1	4
472.838	1	1
473.009	1	6
473.179	1	0
473.349	1	3
473.520	1	19
473.690	1	0
473.860	1	2
474.031	1	5
474.201	1	0
474.371	1	-1
474.542	1	3
474.712	1	10
474.882	1	14
475.053	1	10
475.223	1	2
475.394	1	4
475.564	1	5
475.734	1	-1
475.905	1	9
476.075	1	12
476.245	1	-4
476.416	1	-1
476.586	1	3
476.756	1	5
476.927	1	4
477.097	1	4
477.267	1	3
477.438	1	19
477.608	1	7
477.778	1	1
477.949	1	-7
478.119	1	2
478.289	1	-3
478.460	1	-2
478.630	1	3
478.800	1	3
478.971	1	8
479.141	1	11
479.311	1	1
479.482	1	4
479.652	1	-4
479.822	1	-4
479.993	1	6
480.163	1	6
480.333	1	5
480.504	1	4
480.674	1	9
480.844	1	12
481.015	1	13
481.185	1	-4
481.355	1	5
481.525	1	-2
481.696	1	4
481.866	1	0
482.036	1	2
482.207	1	4
482.377	1	5
482.547	1	9
482.718	1	8
482.888	1	17
483.058	1	6
483.229	1	-2
483.399	1	6
483.569	1	-3
483.740	1	4
483.910	1	-3
484.080	1	5
484.250	1	-2
484.421	1	-1
484.591	1	8
484.761	1	1
484.932	1	4
485.102	1	16
485.272	1	-3
485.443	1	6
485.613	1	1
485.783	1	1
485.953	1	-1
486.124	1	3
486.294	1	14
486.464	1	12
486.635	1	-7
486.805	1	4
486.975	1	-5
487.146	1	6
487.316	1	7
487.486	1	7
487.656	1	8
487.827	1	5
487.997	1	-2
488.167	1	7
488.338	1	1
488.508	1	8
488.678	1	2
488.848	1	4
489.019	1	-3
489.189	1	11
489.359	1	4
489.529	1	15
489.700	1	2
489.870	1	10
490.040	1	-4
490.211	1	-1
490.381	1	-1
490.551	1	12
490.721	1	10
490.892	1	-3
491.062	1	-1
491.232	1	6
491.402	1	-4
491.573	1	8
491.743	1	2
491.913	1	5
492.084	1	3
492.254	1	-1
492.424	1	0
492.594	1	-5
492.765	1	8
492.935	1	16
493.105	1	0
493.275	1	1
493.446	1	-1
493.616	1	-7
493.786	1	7
493.956	1	4
494.127	1	0
494.297	1	-13
494.467	1	4
494.637	1	5
494.808	1	14
494.978	1	0
495.148	1	-1
495.318	1	3
495.489	1	-7
495.659	1	-2
495.829	1	13
495.999	1	7
496.170	1	6
496.340	1	-5
496.510	1	3
496.680	1	4
496.851	1	14
497.021	1	3
497.191	1	-6
497.361	1	-5
497.532	1	11
497.702	1	4
497.872	1	8
498.042	1	-1
498.213	1	3
498.383	1	11
498.553	1	4
498.723	1	1
498.894	1	-4
499.064	1	5
499.234	1	5
499.404	1	13
499.574	1	7
499.745	1	2
499.915	1	10
500.085	1	-1
500.255	1	-6
500.426	1	-2
500.596	1	-16
500.766	1	-3
500.936	1	2
501.106	1	1
501.277	1	-5
501.447	1	1
501.617	1	-6
501.787	1	-2
501.958	1	5
502.128	1	7
502.298	1	-2
502.468	1	-2
502.638	1	4
502.809	1	-2
502.979	1	7
503.149	1	8
503.319	1	17
503.489	1	-7
503.660	1	-13
503.830	1	5
504.000	1	3
504.170	1	-7
504.340	1	-6
504.511	1	-1
504.681	1	7
504.851	1	-2
505.021	1	2
505.192	1	-6
505.362	1	0
505.532	1	-11
505.702	1	13
505.872	1	-4
506.043	1	7
506.213	1	13
506.383	1	5
506.553	1	-3
506.723	1	-15
506.893	1	6
507.064	1	12
507.234	1	4
507.404	1	-5
507.574	1	3
507.744	1	-2
507.915	1	-7
508.085	1	-9
508.255	1	8
508.425	1	0
508.595	1	2
508.766	1	-1
508.936	1	7
509.106	1	1
509.276	1	1
509.446	1	3
509.616	1	0
509.787	1	-1
509.957	1	-6
510.127	1	-4
510.297	1	-1
510.467	1	9
510.638	1	-5
510.808	1	9
510.978	1	-8
511.148	1	13
511.318	1	2
511.488	1	7
511.659	1	3
511.829	1	2
511.999	1	7
512.169	1	10
512.339	1	15
512.509	1	-9
512.680	1	-4
512.850	1	2
513.020	1	5
513.190	1	1
513.360	1	-1
513.530	1	-2
513.700	1	4
513.871	1	-5
514.041	1	5
514.211	1	6
514.381	1	1
514.551	1	-4
514.721	1	4
514.892	1	9
515.062	1	6
515.232	1	-1
515.402	1	-5
515.572	1	3
515.742	1	-4
515.912	1	-1
516.083	1	4
516.253	1	9
516.423	1	7
516.593	1	4
516.763	1	11
516.933	1	-4
517.104	1	7
517.274	1	2
517.444	1	4
517.614	1	-13
517.784	1	-1
517.954	1	1
518.124	1	-8
518.294	1	3
518.465	1	0
518.635	1	7
518.805	1	9
518.975	1	-1
519.145	1	4
519.315	1	-2
519.485	1	-6
519.656	1	-2
519.826	1	-8
519.996	1	1
520.166	1	-6
520.336	1	1
520.506	1	0
520.676	1	2
520.846	1	-5
521.017	1	-1
521.187	1	-1
521.357	1	-2
521.527	1	-2
521.697	1	4
521.867	1	7
522.037	1	3
522.207	1	4
522.377	1	6
522.548	1	-14
522.718	1	-8
522.888	1	6
523.058	1	3
523.228	1	-6
523.398	1	-6
523.568	1	-5
523.738	1	6
523.909	1	0
524.079	1	-3
524.249	1	-7
524.419	1	0
524.589	1	4
524.759	1	2
524.929	1	0
525.099	1	-2
525.269	1	-4
525.439	1	-3
525.610	1	15
525.780	1	2
525.950	1	2
526.120	1	-9
526.290	1	-8
526.460	1	-9
526.630	1	0
526.800	1	1
526.970	1	3
527.140	1	-3
527.311	1	-6
527.481	1	4
527.651	1	-2
527.821	1	-6
527.991	1	3
528.161	1	4
528.331	1	0
528.501	1	-10
528.671	1	8
528.841	1	2
529.011	1	-3
529.181	1	-5
529.352	1	1
529.522	1	0
529.692	1	6
529.862	1	-6
530.032	1	-1
530.202	1	-11
530.372	1	2
530.542	1	-5
530.712	1	0
530.882	1	-4
531.052	1	2
531.222	1	2
531.392	1	-3
531.563	1	2
531.733	1	-4
531.903	1	4
532.073	1	1
532.243	1	6
532.413	1	7
532.583	1	0
532.753	1	-6
532.923	1	6
533.093	1	-6
533.263	1	-13
533.433	1	-6
533.603	1	-2
533.773	1	-1
533.943	1	11
534.113	1	7
534.284	1	-6
534.454	1	5
534.624	1	2
534.794	1	-2
534.964	1	1
535.134	1	-12
535.304	1	1
535.474	1	4
535.644	1	7
535.814	1	-4
535.984	1	1
536.154	1	-2
536.324	1	0
536.494	1	6
536.664	1	6
536.834	1	-1
537.004	1	10
537.174	1	12
537.344	1	8
537.514	1	-5
537.685	1	-1
537.855	1	1
538.025	1	11
538.195	1	2
538.365	1	3
538.535	1	-7
538.705	1	0
538.875	1	-7
539.045	1	1
539.215	1	-10
539.385	1	-3
539.555	1	-7
539.725	1	0
539.895	1	7
540.065	1	0
540.235	1	1
540.405	1	-1
540.575	1	1
540.745	1	-1
540.915	1	1
541.085	1	3
541.255	1	-4
541.425	1	-6
541.595	1	-1
541.765	1	2
541.935	1	1
542.105	1	-11
542.275	1	-7
542.445	1	4
542.615	1	5
542.785	1	5
542.955	1	11
543.125	1	0
543.295	1	5
543.465	1	0
543.635	1	-12
543.805	1	11
543.975	1	4
544.145	1	-4
544.315	1	-5
544.485	1	2
544.655	1	10
544.825	1	3
544.995	1	-11
545.165	1	-5
545.335	1	9
545.505	1	-12
545.675	1	9
545.845	1	4
546.015	1	-2
546.185	1	-6
546.355	1	1
546.525	1	2
546.695	1	-4
546.865	1	4
547.035	1	0
547.205	1	5
547.375	1	11
547.545	1	-2
547.715	1	3
547.885	1	-9
548.055	1	-9
548.225	1	9
548.395	1	5
548.565	1	9
548.735	1	-6
548.905	1	6
549.075	1	-2
549.245	1	5
549.415	1	-4
549.585	1	-4
549.755	1	3
549.925	1	2
550.095	1	-7
550.265	1	4
550.435	1	2
550.605	1	-5
550.775	1	-8
550.945	1	-2
551.115	1	11
551.285	1	1
551.455	1	2
551.625	1	-5
551.795	1	-7
551.965	1	9
552.135	1	-6
552.305	1	5
552.475	1	1
552.645	1	-6
552.815	1	0
552.985	1	-2
553.155	1	-5
553.325	1	3
553.495	1	4
553.665	1	-2
553.835	1	-1
554.004	1	4
554.174	1	-13
554.344	1	-2
554.514	1	-7
554.684	1	3
554.854	1	-8
555.024	1	7
555.194	1	-1
555.364	1	5
555.534	1	-18
555.704	1	5
555.874	1	-2
556.044	1	-3
556.214	1	-8
556.384	1	-2
556.554	1	10
556.724	1	-3
556.894	1	3
557.064	1	-1
557.234	1	5
557.404	1	-1
557.573	1	-5
557.743	1	-13
557.913	1	-2
558.083	1	4
558.253	1	4
558.423	1	-5
558.593	1	12
558.763	1	-8
558.933	1	1
559.103	1	3
559.273	1	4
559.443	1	2
559.613	1	-3
559.783	1	0
559.953	1	-7
560.122	1	4
560.292	1	-9
560.462	1	-3
560.632	1	-1
560.802	1	4
560.972	1	-11
561.142	1	-2
561.312	1	0
561.482	1	13
561.652	1	-2
561.822	1	-13
561.992	1	2
562.162	1	5
562.331	1	-6
562.501	1	3
562.671	1	-7
562.841	1	-14
563.011	1	3
563.181	1	-11
563.351	1	2
563.521	1	-2
563.691	1	6
563.861	1	0
564.031	1	-1
564.201	1	-1
564.370	1	4
564.540	1	-5
564.710	1	-5
564.880	1	-3
565.050	1	2
565.220	1	10
565.390	1	-7
565.560	1	0
565.730	1	2
565.900	1	-2
566.069	1	10
566.239	1	2
566.409	1	8
566.579	1	4
566.749	1	6
566.919	1	-5
567.089	1	-8
567.259	1	6
567.429	1	-5
567.599	1	9
567.768	1	-5
567.938	1	-6
568.108	1	-2
568.278	1	5
568.448	1	6
568.618	1	4
568.788	1	0
568.958	1	-12
569.128	1	0
569.297	1	-1
569.467	1	9
569.637	1	3
569.807	1	8
569.977	1	-11
570.147	1	2
570.317	1	0
570.487	1	4
570.656	1	1
570.826	1	-1
570.996	1	4
571.166	1	0
571.336	1	1
571.506	1	-6
571.676	1	10
571.846	1	-2
572.015	1	-4
572.185	1	0
572.355	1	0
572.525	1	-3
572.695	1	-5
572.865	1	-3
573.035	1	2
573.205	1	-4
573.374	1	-7
573.544	1	2
573.714	1	-5
573.884	1	-3
574.054	1	-5
574.224	1	1
574.394	1	5
574.563	1	-13
574.733	1	1
574.903	1	0
575.073	1	6
575.243	1	-10
575.413	1	-4
575.583	1	3
575.752	1	2
575.922	1	1
576.092	1	-10
576.262	1	7
576.432	1	-4
576.602	1	3
576.772	1	-9
576.941	1	1
577.111	1	-1
577.281	1	-2
577.451	1	5
577.621	1	-8
577.791	1	7
577.960	1	9
578.130	1	2
578.300	1	-1
578.470	1	-1
578.640	1	4
578.810	1	-5
578.979	1	6
579.149	1	-1
579.319	1	1
579.489	1	3
579.659	1	-2
579.829	1	-6
579.998	1	-11
580.168	1	-4
580.338	1	3
580.508	1	-6
580.678	1	-2
580.848	1	-8
581.017	1	1
581.187	1	1
581.357	1	-11
581.527	1	1
581.697	1	-3
581.867	1	0
582.036	1	-10
582.206	1	8
582.376	1	-6
582.546	1	-8
582.716	1	-6
582.885	1	-3
583.055	1	-5
583.225	1	4
583.395	1	-4
583.565	1	4
583.735	1	2
583.904	1	-5
584.074	1	-10
584.244	1	-4
584.414	1	-5
584.584	1	-12
584.753	1	-5
584.923	1	-7
585.093	1	7
585.263	1	1
585.433	1	-2
585.602	1	2
585.772	1	16
585.942	1	-7
586.112	1	-5
586.282	1	3
586.451	1	17
586.621	1	-2
586.791	1	-17
586.961	1	-8
587.131	1	-8
587.300	1	4
587.470	1	-11
587.640	1	-10
587.810	1	-15
587.980	1	-12
588.149	1	7
588.319	1	11
588.489	1	8
588.659	1	-3
588.829	1	0
588.998	1	1
589.168	1	2
589.338	1	-1
589.508	1	1
589.677	1	3
589.847	1	3
590.017	1	3
590.187	1	-4
590.357	1	-10
590.526	1	-9
590.696	1	5
590.866	1	-10
591.036	1	1
591.205	1	0
591.375	1	5
591.545	1	2
591.715	1	-1
591.885	1	4
592.054	1	2
592.224	1	-4
592.394	1	-15
592.564	1	-5
592.733	1	-3
592.903	1	3
593.073	1	-1
593.243	1	16
593.412	1	-12
593.582	1	-3
593.752	1	-8
593.922	1	1
594.091	1	-1
594.261	1	-2
594.431	1	7
594.601	1	-2
594.771	1	-6
594.940	1	-2
595.110	1	1
595.280	1	0
595.450	1	1
595.619	1	4
595.789	1	-12
595.959	1	-3
596.129	1	-8
596.298	1	3
596.468	1	-7
596.638	1	-11
596.808	1	-5
596.977	1	-2
597.147	1	0
597.317	1	4
597.487	1	6
597.656	1	1
597.826	1	-1
597.996	1	-7
598.166	1	5
598.335	1	2
598.505	1	5
598.675	1	7
598.844	1	14
599.014	1	-14
599.184	1	-6
599.354	1	10
599.523	1	-9
599.693	1	6
599.863	1	1
600.033	1	7
600.202	1	1
600.372	1	-8
600.542	1	-3
600.712	1	-5
600.881	1	-5
601.051	1	3
601.221	1	7
601.390	1	15
601.560	1	8
601.730	1	3
601.900	1	-3
602.069	1	-4
602.239	1	-3
602.409	1	1
602.578	1	2
602.748	1	3
602.918	1	-12
603.088	1	0
603.257	1	-7
603.427	1	1
603.597	1	0
603.767	1	2
603.936	1	11
604.106	1	-6
604.276	1	4
604.445	1	-10
604.615	1	-9
604.785	1	4
604.954	1	-6
605.124	1	-4
605.294	1	-1
605.464	1	-3
605.633	1	9
605.803	1	2
605.973	1	-4
606.142	1	5
606.312	1	6
606.482	1	-13
606.652	1	3
606.821	1	-2
606.991	1	7
607.161	1	0
607.330	1	-5
607.500	1	6
607.670	1	3
607.839	1	-6
608.009	1	-11
608.179	1	13
608.348	1	-3
608.518	1	15
608.688	1	0
608.858	1	-6
609.027	1	13
609.197	1	1
609.367	1	-7
609.536	1	-10
609.706	1	10
609.876	1	8
610.045	1	1
610.215	1	-7
610.385	1	0
610.554	1	-8
610.724	1	-3
610.894	1	3
611.063	1	5
611.233	1	6
611.403	1	8
611.572	1	1
611.742	1	-9
611.912	1	-6
612.081	1	9
612.251	1	1
612.421	1	-4
612.590	1	4
612.760	1	-3
612.930	1	0
613.099	1	-6
613.269	1	-5
613.439	1	-8
613.608	1	1
613.778	1	-5
613.948	1	9
614.117	1	-4
614.287	1	-9
614.457	1	7
614.626	1	-3
614.796	1	-2
614.966	1	-3
615.135	1	14
615.305	1	4
615.475	1	4
615.644	1	12
615.814	1	14
615.984	1	0
616.153	1	-9
616.323	1	-8
616.493	1	3
616.662	1	-1
616.832	1	6
617.002	1	-6
617.171	1	-1
617.341	1	8
617.511	1	-6
617.680	1	0
617.850	1	-1
618.019	1	-6
618.189	1	6
618.359	1	-3
618.528	1	6
618.698	1	0
618.868	1	-2
619.037	1	-3
619.207	1	-8
619.377	1	-4
619.546	1	10
619.716	1	2
619.885	1	0
620.055	1	-7
620.225	1	14
620.394	1	2
620.564	1	3
620.734	1	0
620.903	1	-11
621.073	1	-1
621.242	1	1
621.412	1	3
621.582	1	9
621.751	1	-10
621.921	1	-3
622.091	1	3
622.260	1	8
622.430	1	-6
622.599	1	-6
622.769	1	-6
622.939	1	-1
623.108	1	1
623.278	1	1
623.448	1	2
623.617	1	4
623.787	1	0
623.956	1	4
624.126	1	5
624.296	1	6
624.465	1	8
624.635	1	3
624.804	1	-14
624.974	1	-9
625.144	1	-9
625.313	1	12
625.483	1	1
625.652	1	0
625.822	1	7
625.992	1	0
626.161	1	4
626.331	1	-1
626.501	1	-2
626.670	1	-11
626.840	1	3
627.009	1	-5
627.179	1	7
627.348	1	0
627.518	1	19
627.688	1	0
627.857	1	9
628.027	1	7
628.196	1	0
628.366	1	-12
628.536	1	1
628.705	1	-7
628.875	1	1
629.044	1	-8
629.214	1	-3
629.384	1	12
629.553	1	0
629.723	1	2
629.892	1	2
630.062	1	3
630.232	1	1
630.401	1	9
630.571	1	-2
630.740	1	-2
630.910	1	7
631.079	1	-3
631.249	1	7
631.419	1	1
631.588	1	5
631.758	1	-5
631.927	1	6
632.097	1	-12
632.266	1	2
632.436	1	-5
632.606	1	2
632.775	1	2
632.945	1	1
633.114	1	-10
633.284	1	-3
633.453	1	-1
633.623	1	12
633.793	1	-2
633.962	1	2
634.132	1	-4
634.301	1	1
634.471	1	5
634.640	1	-1
634.810	1	2
634.979	1	-2
635.149	1	-7
635.319	1	0
635.488	1	2
635.658	1	-10
635.827	1	-5
635.997	1	3
636.166	1	12
636.336	1	-3
636.505	1	-3
636.675	1	1
636.845	1	-7
637.014	1	-12
637.184	1	5
637.353	1	0
637.523	1	3
637.692	1	-3
637.862	1	-3
638.031	1	-8
638.201	1	9
638.370	1	0
638.540	1	-13
638.710	1	-4
638.879	1	-6
639.049	1	-2
639.218	1	8
639.388	1	-2
639.557	1	-2
639.727	1	8
639.896	1	-5
640.066	1	-4
640.235	1	0
640.405	1	3
640.574	1	3
640.744	1	-8
640.914	1	-2
641.083	1	3
641.253	1	-7
641.422	1	-11
641.592	1	4
641.761	1	-8
641.931	1	2
642.100	1	-8
642.270	1	5
642.439	1	2
642.609	1	4
642.778	1	0
642.948	1	5
643.117	1	4
643.287	1	1
643.456	1	-1
643.626	1	-5
643.795	1	-7
643.965	1	4
644.134	1	4
644.304	1	-6
644.473	1	-1
644.643	1	-3
644.812	1	-6
644.982	1	-2
645.151	1	-4
645.321	1	10
645.490	1	9
645.660	1	-14
645.829	1	-3
645.999	1	-4
646.168	1	20
646.338	1	-5
646.507	1	-5
646.677	1	-5
646.846	1	3
647.016	1	15
647.185	1	13
647.355	1	14
647.524	1	-6
647.694	1	-8
647.863	1	-8
648.033	1	5
648.202	1	0
648.372	1	-12
648.541	1	2
648.711	1	8
648.880	1	2
649.050	1	-1
649.219	1	-5
649.389	1	-10
649.558	1	9
649.728	1	2
649.897	1	7
650.067	1	3
650.236	1	-11
650.406	1	-5
650.575	1	0
650.745	1	-4
650.914	1	6
651.084	1	4
651.253	1	1
651.423	1	-4
651.592	1	1
651.762	1	-1
651.931	1	2
652.101	1	-9
652.270	1	-1
652.440	1	6
652.609	1	9
652.778	1	-1
652.948	1	1
653.117	1	-3
653.287	1	-6
653.456	1	-8
653.626	1	5
653.795	1	-4
653.965	1	-1
654.134	1	-3
654.304	1	8
654.473	1	-2
654.643	1	-6
654.812	1	7
654.982	1	-3
655.151	1	14
655.320	1	-3
655.490	1	-15
655.659	1	1
655.829	1	10
655.998	1	0
656.168	1	-9
656.337	1	5
656.507	1	-9
656.676	1	3
656.846	1	4
657.015	1	10
657.184	1	2
657.354	1	-9
657.523	1	-8
657.693	1	-1
657.862	1	-18
658.032	1	4
658.201	1	-3
658.371	1	-3
658.540	1	3
658.709	1	2
658.879	1	2
659.048	1	10
659.218	1	5
659.387	1	4
659.557	1	-2
659.726	1	-8
659.895	1	-5
660.065	1	-14
660.234	1	2
660.404	1	3
660.573	1	10
660.743	1	0
660.912	1	4
661.081	1	-4
661.251	1	-8
661.420	1	2
661.590	1	-9
661.759	1	6
661.929	1	-8
662.098	1	1
662.267	1	-9
662.437	1	6
662.606	1	2
662.776	1	-8
662.945	1	10
663.115	1	5
663.284	1	3
663.453	1	-2
663.623	1	1
663.792	1	7
663.962	1	2
664.131	1	-2
664.300	1	-8
664.470	1	-11
664.639	1	-3
664.809	1	3
664.978	1	15
665.148	1	1
665.317	1	-5
665.486	1	1
665.656	1	5
665.825	1	5
665.995	1	-15
666.164	1	-2
666.333	1	-3
666.503	1	-3
666.672	1	7
666.842	1	4
667.011	1	1
667.180	1	-3
667.350	1	-1
667.519	1	5
667.689	1	-5
667.858	1	2
668.027	1	-1
668.197	1	-8
668.366	1	6
668.536	1	-3
668.705	1	3
668.874	1	8
669.044	1	3
669.213	1	3
669.382	1	-3
669.552	1	5
669.721	1	-2
669.891	1	0
670.060	1	0
670.229	1	3
670.399	1	12
670.568	1	5
670.738	1	0
670.907	1	6
671.076	1	4
671.246	1	5
671.415	1	9
671.584	1	6
671.754	1	-11
671.923	1	3
672.093	1	7
672.262	1	2
672.431	1	-12
672.601	1	0
672.770	1	1
672.939	1	6
673.109	1	-10
673.278	1	-1
673.448	1	3
673.617	1	5
673.786	1	-11
