325.333	1	16
325.504	1	1
325.675	1	19
325.846	1	8
326.017	1	5
326.188	1	7
326.359	1	18
326.531	1	2
326.702	1	-3
326.873	1	16
327.044	1	12
327.215	1	9
327.386	1	5
327.557	1	1
327.728	1	14
327.899	1	4
328.070	1	18
328.241	1	8
328.412	1	14
328.583	1	12
328.754	1	11
328.926	1	11
329.097	1	2
329.268	1	25
329.439	1	21
329.610	1	6
329.781	1	21
329.952	1	14
330.123	1	10
330.294	1	6
330.465	1	6
330.636	1	13
330.807	1	8
330.978	1	5
331.149	1	13
331.320	1	14
331.492	1	9
331.663	1	3
331.834	1	16
332.005	1	10
332.176	1	4
332.347	1	0
332.518	1	10
332.689	1	13
332.860	1	12
333.031	1	14
333.202	1	12
333.373	1	15
333.544	1	7
333.715	1	6
333.886	1	7
334.057	1	11
334.228	1	15
334.399	1	12
334.570	1	15
334.741	1	7
334.912	1	12
335.084	1	18
335.255	1	22
335.426	1	16
335.597	1	1
335.768	1	16
335.939	1	11
336.110	1	12
336.281	1	19
336.452	1	27
336.623	1	10
336.794	1	26
336.965	1	5
337.136	1	26
337.307	1	15
337.478	1	12
337.649	1	10
337.820	1	9
337.991	1	13
338.162	1	9
338.333	1	12
338.504	1	17
338.675	1	10
338.846	1	8
339.017	1	18
339.188	1	6
339.359	1	11
339.530	1	7
339.701	1	21
339.872	1	21
340.043	1	22
340.214	1	19
340.385	1	10
340.556	1	24
340.727	1	18
340.898	1	15
341.069	1	3
341.240	1	10
341.411	1	13
341.582	1	8
341.753	1	12
341.924	1	30
342.095	1	19
342.266	1	22
342.437	1	13
342.608	1	12
342.779	1	10
342.950	1	12
343.121	1	17
343.292	1	17
343.463	1	30
343.634	1	15
343.805	1	21
343.976	1	29
344.147	1	22
344.318	1	16
344.489	1	14
344.660	1	20
344.831	1	19
345.002	1	12
345.173	1	19
345.344	1	6
345.515	1	23
345.686	1	17
345.857	1	20
346.028	1	22
346.199	1	30
346.370	1	23
346.541	1	15
346.712	1	30
346.883	1	20
347.054	1	29
347.225	1	21
347.396	1	18
347.567	1	14
347.738	1	21
347.909	1	25
348.080	1	19
348.251	1	25
348.422	1	23
348.593	1	12
348.764	1	20
348.935	1	19
349.106	1	11
349.277	1	14
349.448	1	21
349.619	1	13
349.790	1	21
349.961	1	13
350.132	1	19
350.303	1	21
350.474	1	14
350.645	1	21
350.816	1	21
350.987	1	33
351.157	1	20
351.328	1	22
351.499	1	33
351.670	1	30
351.841	1	34
352.012	1	27
352.183	1	36
352.354	1	21
352.525	1	35
352.696	1	16
352.867	1	32
353.038	1	26
353.209	1	10
353.380	1	30
353.551	1	28
353.722	1	24
353.893	1	28
354.064	1	30
354.235	1	22
354.406	1	22
354.576	1	22
354.747	1	26
354.918	1	23
355.089	1	23
355.260	1	28
355.431	1	23
355.602	1	27
355.773	1	31
355.944	1	36
356.115	1	35
356.286	1	35
356.457	1	26
356.628	1	23
356.799	1	30
356.970	1	34
357.141	1	36
357.311	1	41
357.482	1	31
357.653	1	20
357.824	1	29
357.995	1	35
358.166	1	26
358.337	1	28
358.508	1	33
358.679	1	28
358.850	1	39
359.021	1	38
359.192	1	42
359.363	1	27
359.533	1	27
359.704	1	21
359.875	1	18
360.046	1	28
360.217	1	43
360.388	1	36
360.559	1	41
360.730	1	26
360.901	1	39
361.072	1	34
361.243	1	33
361.414	1	30
361.584	1	29
361.755	1	36
361.926	1	33
362.097	1	25
362.268	1	44
362.439	1	31
362.610	1	31
362.781	1	22
362.952	1	34
363.123	1	29
363.293	1	42
363.464	1	26
363.635	1	28
363.806	1	40
363.977	1	34
364.148	1	28
364.319	1	29
364.490	1	37
364.661	1	30
364.832	1	33
365.002	1	40
365.173	1	37
365.344	1	21
365.515	1	37
365.686	1	37
365.857	1	37
366.028	1	33
366.199	1	32
366.370	1	29
366.540	1	32
366.711	1	40
366.882	1	42
367.053	1	37
367.224	1	27
367.395	1	30
367.566	1	40
367.737	1	32
367.908	1	31
368.078	1	24
368.249	1	40
368.420	1	37
368.591	1	30
368.762	1	40
368.933	1	38
369.104	1	45
369.274	1	34
369.445	1	50
369.616	1	39
369.787	1	33
369.958	1	27
370.129	1	30
370.300	1	29
370.471	1	33
370.641	1	35
370.812	1	42
370.983	1	31
371.154	1	46
371.325	1	28
371.496	1	29
371.667	1	35
371.837	1	26
372.008	1	32
372.179	1	29
372.350	1	29
372.521	1	36
372.692	1	35
372.863	1	33
373.033	1	37
373.204	1	30
373.375	1	40
373.546	1	37
373.717	1	37
373.888	1	41
374.059	1	27
374.229	1	35
374.400	1	27
374.571	1	40
374.742	1	34
374.913	1	30
375.084	1	34
375.254	1	31
375.425	1	42
375.596	1	38
375.767	1	42
375.938	1	21
376.109	1	37
376.279	1	30
376.450	1	34
376.621	1	44
376.792	1	42
376.963	1	39
377.134	1	29
377.304	1	37
377.475	1	30
377.646	1	29
377.817	1	49
377.988	1	37
378.159	1	47
378.329	1	42
378.500	1	44
378.671	1	48
378.842	1	43
379.013	1	45
379.184	1	38
379.354	1	40
379.525	1	37
379.696	1	43
379.867	1	40
380.038	1	34
380.209	1	42
380.379	1	45
380.550	1	33
380.721	1	32
380.892	1	28
381.063	1	39
381.233	1	41
381.404	1	30
381.575	1	38
381.746	1	58
381.917	1	44
382.087	1	49
382.258	1	41
382.429	1	39
382.600	1	36
382.771	1	38
382.941	1	51
383.112	1	38
383.283	1	44
383.454	1	35
383.625	1	47
383.795	1	42
383.966	1	53
384.137	1	47
384.308	1	38
384.479	1	38
384.649	1	40
384.820	1	53
384.991	1	27
385.162	1	49
385.333	1	38
385.503	1	37
385.674	1	33
385.845	1	43
386.016	1	51
386.187	1	38
386.357	1	45
386.528	1	38
386.699	1	43
386.870	1	36
387.041	1	48
387.211	1	43
387.382	1	48
387.553	1	45
387.724	1	41
387.894	1	41
388.065	1	46
388.236	1	39
388.407	1	44
388.578	1	41
388.748	1	47
388.919	1	37
389.090	1	70
389.261	1	59
389.431	1	42
389.602	1	38
389.773	1	50
389.944	1	45
390.114	1	55
390.285	1	45
390.456	1	43
390.627	1	37
390.798	1	47
390.968	1	46
391.139	1	36
391.310	1	50
391.481	1	49
391.651	1	48
391.822	1	53
391.993	1	37
392.164	1	50
392.334	1	46
392.505	1	45
392.676	1	31
392.847	1	43
393.017	1	41
393.188	1	50
393.359	1	58
393.530	1	60
393.700	1	50
393.871	1	52
394.042	1	44
394.213	1	44
394.383	1	37
394.554	1	41
394.725	1	44
394.896	1	56
395.066	1	46
395.237	1	47
395.408	1	54
395.579	1	51
395.749	1	54
395.920	1	55
396.091	1	36
396.262	1	52
396.432	1	43
396.603	1	54
396.774	1	46
396.945	1	59
397.115	1	54
397.286	1	58
397.457	1	46
397.627	1	46
397.798	1	44
397.969	1	63
398.140	1	42
398.310	1	50
398.481	1	56
398.652	1	49
398.823	1	45
398.993	1	57
399.164	1	58
399.335	1	43
399.505	1	47
399.676	1	54
399.847	1	49
400.018	1	39
400.188	1	58
400.359	1	42
400.530	1	56
400.700	1	48
400.871	1	58
401.042	1	60
401.213	1	58
401.383	1	49
401.554	1	53
401.725	1	57
401.895	1	43
402.066	1	46
402.237	1	62
402.408	1	48
402.578	1	49
402.749	1	55
402.920	1	48
403.090	1	43
403.261	1	36
403.432	1	59
403.603	1	55
403.773	1	56
403.944	1	51
404.115	1	52
404.285	1	54
404.456	1	56
404.627	1	48
404.797	1	43
404.968	1	50
405.139	1	51
405.310	1	65
405.480	1	61
405.651	1	53
405.822	1	44
405.992	1	53
406.163	1	52
406.334	1	48
406.504	1	52
406.675	1	47
406.846	1	55
407.016	1	57
407.187	1	56
407.358	1	36
407.528	1	55
407.699	1	60
407.870	1	68
408.041	1	44
408.211	1	63
408.382	1	53
408.553	1	62
408.723	1	57
408.894	1	50
409.065	1	52
409.235	1	59
409.406	1	45
409.577	1	55
409.747	1	62
409.918	1	51
410.089	1	64
410.259	1	65
410.430	1	56
410.601	1	67
410.771	1	66
410.942	1	58
411.113	1	61
411.283	1	60
411.454	1	67
411.625	1	59
411.795	1	59
411.966	1	56
412.137	1	58
412.307	1	51
412.478	1	57
412.649	1	57
412.819	1	52
412.990	1	69
413.161	1	51
413.331	1	60
413.502	1	50
413.672	1	47
413.843	1	50
414.014	1	61
414.184	1	62
414.355	1	59
414.526	1	56
414.696	1	48
414.867	1	48
415.038	1	57
415.208	1	50
415.379	1	47
415.550	1	48
415.720	1	38
415.891	1	64
416.062	1	55
416.232	1	59
416.403	1	61
416.573	1	52
416.744	1	48
416.915	1	50
417.085	1	58
417.256	1	63
417.427	1	59
417.597	1	44
417.768	1	54
417.939	1	44
418.109	1	53
418.280	1	54
418.450	1	70
418.621	1	54
418.792	1	46
418.962	1	56
419.133	1	49
419.304	1	55
419.474	1	53
419.645	1	63
419.815	1	52
419.986	1	62
420.157	1	58
420.327	1	43
420.498	1	48
420.669	1	52
420.839	1	59
421.010	1	50
421.180	1	49
421.351	1	54
421.522	1	47
421.692	1	51
421.863	1	57
422.033	1	58
422.204	1	55
422.375	1	59
422.545	1	51
422.716	1	43
422.886	1	54
423.057	1	52
423.228	1	45
423.398	1	53
423.569	1	41
423.740	1	51
423.910	1	58
424.081	1	55
424.251	1	45
424.422	1	39
424.593	1	58
424.763	1	52
424.934	1	46
425.104	1	52
425.275	1	50
425.445	1	53
425.616	1	46
425.787	1	50
425.957	1	43
426.128	1	47
426.298	1	60
426.469	1	35
426.640	1	50
426.810	1	38
426.981	1	53
427.151	1	41
427.322	1	50
427.493	1	42
427.663	1	58
427.834	1	49
428.004	1	58
428.175	1	51
428.345	1	31
428.516	1	46
428.687	1	59
428.857	1	56
429.028	1	51
429.198	1	38
429.369	1	53
429.540	1	54
429.710	1	44
429.881	1	47
430.051	1	42
430.222	1	45
430.392	1	52
430.563	1	50
430.734	1	48
430.904	1	41
431.075	1	49
431.245	1	48
431.416	1	56
431.586	1	45
431.757	1	52
431.927	1	51
432.098	1	52
432.269	1	51
432.439	1	52
432.610	1	56
432.780	1	47
432.951	1	49
433.121	1	43
433.292	1	59
433.462	1	49
433.633	1	50
433.804	1	42
433.974	1	43
434.145	1	41
434.315	1	41
434.486	1	46
434.656	1	53
434.827	1	48
434.997	1	47
435.168	1	48
435.339	1	58
435.509	1	58
435.680	1	55
435.850	1	33
436.021	1	45
436.191	1	50
436.362	1	54
436.532	1	46
436.703	1	56
436.873	1	44
437.044	1	52
437.214	1	40
437.385	1	46
437.556	1	51
437.726	1	47
437.897	1	46
438.067	1	51
438.238	1	40
438.408	1	41
438.579	1	34
438.749	1	43
438.920	1	59
439.090	1	37
439.261	1	49
439.431	1	35
439.602	1	38
439.772	1	46
439.943	1	42
440.113	1	38
440.284	1	59
440.455	1	54
440.625	1	49
440.796	1	39
440.966	1	47
441.137	1	45
441.307	1	52
441.478	1	31
441.648	1	37
441.819	1	36
441.989	1	48
442.160	1	43
442.330	1	43
442.501	1	45
442.671	1	39
442.842	1	46
443.012	1	35
443.183	1	47
443.353	1	42
443.524	1	44
443.694	1	43
443.865	1	51
444.035	1	44
444.206	1	34
444.376	1	52
444.547	1	50
444.717	1	46
444.888	1	33
445.058	1	40
445.229	1	44
445.399	1	42
445.570	1	41
445.740	1	40
445.911	1	48
446.081	1	48
446.252	1	52
446.422	1	40
446.593	1	45
446.763	1	41
446.934	1	27
447.104	1	32
447.275	1	44
447.445	1	46
447.616	1	51
447.786	1	44
447.957	1	35
448.127	1	43
448.298	1	35
448.468	1	42
448.639	1	35
448.809	1	32
448.979	1	54
449.150	1	43
449.320	1	43
449.491	1	35
449.661	1	39
449.832	1	43
450.002	1	36
450.173	1	41
450.343	1	37
450.514	1	39
450.684	1	42
450.855	1	46
451.025	1	32
451.196	1	35
451.366	1	50
451.537	1	46
451.707	1	49
451.878	1	29
452.048	1	36
452.218	1	50
452.389	1	48
452.559	1	37
452.730	1	36
452.900	1	37
453.071	1	53
453.241	1	40
453.412	1	39
453.582	1	39
453.753	1	41
453.923	1	36
454.093	1	40
454.264	1	45
454.434	1	41
454.605	1	31
454.775	1	40
454.946	1	37
455.116	1	37
455.287	1	34
455.457	1	37
455.628	1	32
455.798	1	36
455.968	1	33
456.139	1	45
456.309	1	40
456.480	1	43
456.650	1	30
456.821	1	30
456.991	1	42
457.161	1	36
457.332	1	36
457.502	1	30
457.673	1	35
457.843	1	36
458.014	1	35
458.184	1	34
458.355	1	41
458.525	1	32
458.695	1	32
458.866	1	17
459.036	1	30
459.207	1	37
459.377	1	35
459.548	1	31
459.718	1	35
459.888	1	32
460.059	1	39
460.229	1	29
460.400	1	37
460.570	1	26
460.740	1	33
460.911	1	27
461.081	1	45
461.252	1	36
461.422	1	35
461.593	1	37
461.763	1	41
461.933	1	31
462.104	1	27
462.274	1	27
462.445	1	25
462.615	1	42
462.785	1	40
462.956	1	26
463.126	1	24
463.297	1	33
463.467	1	38
463.638	1	46
463.808	1	40
463.978	1	31
464.149	1	31
464.319	1	29
464.490	1	24
464.660	1	25
464.830	1	34
465.001	1	35
465.171	1	28
465.342	1	25
465.512	1	28
465.682	1	27
465.853	1	30
466.023	1	32
466.194	1	34
466.364	1	43
466.534	1	30
466.705	1	30
466.875	1	15
467.045	1	27
467.216	1	22
467.386	1	32
467.557	1	40
467.727	1	17
467.897	1	33
468.068	1	30
468.238	1	23
468.409	1	36
468.579	1	29
468.749	1	38
468.920	1	21
469.090	1	35
469.260	1	17
469.431	1	15
469.601	1	34
469.772	1	34
469.942	1	37
470.112	1	17
470.283	1	33
470.453	1	32
470.623	1	41
470.794	1	22
470.964	1	27
471.135	1	33
471.305	1	22
471.475	1	31
471.646	1	36
471.816	1	30
471.986	1	30
472.157	1	27
472.327	1	43
472.497	1	32
472.668	1	38
472.838	1	19
473.009	1	36
473.179	1	29
473.349	1	15
473.520	1	33
473.690	1	27
473.860	1	15
474.031	1	8
474.201	1	27
474.371	1	24
474.542	1	29
474.712	1	20
474.882	1	25
475.053	1	41
475.223	1	27
475.394	1	24
475.564	1	27
475.734	1	26
475.905	1	39
476.075	1	40
476.245	1	32
476.416	1	20
476.586	1	21
476.756	1	35
476.927	1	28
477.097	1	22
477.267	1	24
477.438	1	22
477.608	1	35
477.778	1	23
477.949	1	15
478.119	1	41
478.289	1	24
478.460	1	21
478.630	1	24
478.800	1	31
478.971	1	19
479.141	1	23
479.311	1	31
479.482	1	23
479.652	1	32
479.822	1	18
479.993	1	21
480.163	1	23
480.333	1	31
480.504	1	23
480.674	1	20
480.844	1	25
481.015	1	32
481.185	1	29
481.355	1	29
481.525	1	17
481.696	1	23
481.866	1	27
482.036	1	29
482.207	1	25
482.377	1	20
482.547	1	22
482.718	1	13
482.888	1	26
483.058	1	20
483.229	1	29
483.399	1	20
483.569	1	11
483.740	1	26
483.910	1	9
484.080	1	23
484.250	1	15
484.421	1	13
484.591	1	9
484.761	1	19
484.932	1	14
485.102	1	27
485.272	1	5
485.443	1	21
485.613	1	16
485.783	1	18
485.953	1	7
486.124	1	10
486.294	1	18
486.464	1	26
486.635	1	21
486.805	1	28
486.975	1	15
487.146	1	17
487.316	1	23
487.486	1	21
487.656	1	19
487.827	1	13
487.997	1	7
488.167	1	24
488.338	1	18
488.508	1	32
488.678	1	14
488.848	1	21
489.019	1	18
489.189	1	31
489.359	1	18
489.529	1	11
489.700	1	26
489.870	1	21
490.040	1	22
490.211	1	23
490.381	1	17
490.551	1	26
490.721	1	24
490.892	1	4
491.062	1	18
491.232	1	20
491.402	1	15
491.573	1	19
491.743	1	6
491.913	1	25
492.084	1	14
492.254	1	10
492.424	1	27
492.594	1	16
492.765	1	21
492.935	1	20
493.105	1	7
493.275	1	13
493.446	1	5
493.616	1	20
493.786	1	22
493.956	1	16
494.127	1	15
494.297	1	12
494.467	1	15
494.637	1	20
494.808	1	23
494.978	1	11
495.148	1	13
495.318	1	14
495.489	1	12
495.659	1	14
495.829	1	14
495.999	1	26
496.170	1	17
496.340	1	9
496.510	1	12
496.680	1	16
496.851	1	24
497.021	1	8
497.191	1	23
497.361	1	7
497.532	1	16
497.702	1	14
497.872	1	16
498.042	1	14
498.213	1	8
498.383	1	28
498.553	1	18
498.723	1	7
498.894	1	29
499.064	1	13
499.234	1	16
499.404	1	13
499.574	1	16
499.745	1	16
499.915	1	21
500.085	1	21
500.255	1	3
500.426	1	8
500.596	1	4
500.766	1	10
500.936	1	12
501.106	1	11
501.277	1	7
501.447	1	23
501.617	1	14
501.787	1	7
501.958	1	19
502.128	1	21
502.298	1	18
502.468	1	11
502.638	1	13
502.809	1	18
502.979	1	13
503.149	1	16
503.319	1	24
503.489	1	7
503.660	1	13
503.830	1	11
504.000	1	13
504.170	1	7
504.340	1	12
504.511	1	6
504.681	1	16
504.851	1	7
505.021	1	14
505.192	1	4
505.362	1	7
505.532	1	3
505.702	1	28
505.872	1	16
506.043	1	20
506.213	1	24
506.383	1	13
506.553	1	12
506.723	1	7
506.893	1	15
507.064	1	16
507.234	1	11
507.404	1	5
507.574	1	6
507.744	1	6
507.915	1	6
508.085	1	10
508.255	1	3
508.425	1	7
508.595	1	3
508.766	1	6
508.936	1	20
509.106	1	11
509.276	1	19
509.446	1	5
509.616	1	6
509.787	1	8
509.957	1	23
510.127	1	4
510.297	1	13
510.467	1	19
510.638	1	9
510.808	1	20
510.978	1	6
511.148	1	-1
511.318	1	6
511.488	1	14
511.659	1	15
511.829	1	6
511.999	1	12
512.169	1	17
512.339	1	19
512.509	1	10
512.680	1	9
512.850	1	4
513.020	1	16
513.190	1	1
513.360	1	8
513.530	1	7
513.700	1	10
513.871	1	6
514.041	1	20
514.211	1	11
514.381	1	13
514.551	1	6
514.721	1	6
514.892	1	5
515.062	1	13
515.232	1	1
515.402	1	10
515.572	1	15
515.742	1	13
515.912	1	17
516.083	1	20
516.253	1	11
516.423	1	9
516.593	1	7
516.763	1	8
516.933	1	7
517.104	1	15
517.274	1	3
517.444	1	7
517.614	1	0
517.784	1	10
517.954	1	4
518.124	1	3
518.294	1	18
518.465	1	7
518.635	1	16
518.805	1	14
518.975	1	13
519.145	1	9
519.315	1	7
519.485	1	1
519.656	1	8
519.826	1	-3
519.996	1	10
520.166	1	0
520.336	1	14
520.506	1	8
520.676	1	12
520.846	1	17
521.017	1	11
521.187	1	14
521.357	1	2
521.527	1	7
521.697	1	2
521.867	1	17
522.037	1	13
522.207	1	17
522.377	1	13
522.548	1	-1
522.718	1	11
522.888	1	14
523.058	1	12
523.228	1	0
523.398	1	3
523.568	1	2
523.738	1	-2
523.909	1	5
524.079	1	10
524.249	1	-3
524.419	1	11
524.589	1	11
524.759	1	20
524.929	1	9
525.099	1	9
525.269	1	12
525.439	1	1
525.610	1	20
525.780	1	7
525.950	1	11
526.120	1	3
526.290	1	-5
526.460	1	5
526.630	1	13
526.800	1	3
526.970	1	17
527.140	1	14
527.311	1	0
527.481	1	12
527.651	1	9
527.821	1	6
527.991	1	1
528.161	1	2
528.331	1	8
528.501	1	3
528.671	1	9
528.841	1	3
529.011	1	5
529.181	1	0
529.352	1	5
529.522	1	3
529.692	1	8
529.862	1	-1
530.032	1	5
530.202	1	1
530.372	1	3
530.542	1	7
530.712	1	6
530.882	1	11
531.052	1	8
531.222	1	3
531.392	1	5
531.563	1	12
531.733	1	5
531.903	1	-1
532.073	1	11
532.243	1	8
532.413	1	26
532.583	1	10
532.753	1	-4
532.923	1	14
533.093	1	4
533.263	1	10
533.433	1	3
533.603	1	4
533.773	1	9
533.943	1	7
534.113	1	10
534.284	1	11
534.454	1	6
534.624	1	4
534.794	1	6
534.964	1	13
535.134	1	1
535.304	1	16
535.474	1	25
535.644	1	17
535.814	1	6
535.984	1	8
536.154	1	6
536.324	1	3
536.494	1	7
536.664	1	5
536.834	1	13
537.004	1	13
537.174	1	16
537.344	1	9
537.514	1	-1
537.685	1	5
537.855	1	9
538.025	1	16
538.195	1	4
538.365	1	7
538.535	1	9
538.705	1	16
538.875	1	8
539.045	1	17
539.215	1	0
539.385	1	15
539.555	1	8
539.725	1	7
539.895	1	11
540.065	1	-1
540.235	1	3
540.405	1	2
540.575	1	8
540.745	1	10
540.915	1	9
541.085	1	7
541.255	1	1
541.425	1	4
541.595	1	7
541.765	1	11
541.935	1	-3
542.105	1	4
542.275	1	3
542.445	1	10
542.615	1	7
542.785	1	6
542.955	1	20
543.125	1	10
543.295	1	10
543.465	1	10
543.635	1	5
543.805	1	11
543.975	1	-5
544.145	1	9
544.315	1	3
544.485	1	-2
544.655	1	13
544.825	1	5
544.995	1	5
545.165	1	5
545.335	1	7
545.505	1	-5
545.675	1	9
545.845	1	15
546.015	1	4
546.185	1	3
546.355	1	8
546.525	1	9
546.695	1	4
546.865	1	6
547.035	1	1
547.205	1	16
547.375	1	13
547.545	1	16
547.715	1	7
547.885	1	4
548.055	1	-1
548.225	1	13
548.395	1	-1
548.565	1	3
548.735	1	-7
548.905	1	10
549.075	1	2
549.245	1	2
549.415	1	17
549.585	1	-1
549.755	1	2
549.925	1	15
550.095	1	2
550.265	1	10
550.435	1	-2
550.605	1	2
550.775	1	2
550.945	1	7
551.115	1	11
551.285	1	-11
551.455	1	6
551.625	1	-6
551.795	1	3
551.965	1	-5
552.135	1	-2
552.305	1	5
552.475	1	6
552.645	1	3
552.815	1	9
552.985	1	1
553.155	1	-7
553.325	1	7
553.495	1	3
553.665	1	-4
553.835	1	15
554.004	1	-1
554.174	1	1
554.344	1	11
554.514	1	3
554.684	1	8
554.854	1	5
555.024	1	9
555.194	1	7
555.364	1	-5
555.534	1	-3
555.704	1	6
555.874	1	1
556.044	1	2
556.214	1	1
556.384	1	8
556.554	1	12
556.724	1	2
556.894	1	2
557.064	1	-1
557.234	1	3
557.404	1	2
557.573	1	14
557.743	1	-2
557.913	1	0
558.083	1	10
558.253	1	9
558.423	1	7
558.593	1	11
558.763	1	7
558.933	1	-4
559.103	1	5
559.273	1	11
559.443	1	9
559.613	1	4
559.783	1	9
559.953	1	-7
560.122	1	0
560.292	1	-7
560.462	1	1
560.632	1	-9
560.802	1	7
560.972	1	-7
561.142	1	7
561.312	1	3
561.482	1	13
561.652	1	7
561.822	1	-7
561.992	1	2
562.162	1	-2
562.331	1	-12
562.501	1	5
562.671	1	-3
562.841	1	-9
563.011	1	10
563.181	1	1
563.351	1	-9
563.521	1	0
563.691	1	1
563.861	1	2
564.031	1	7
564.201	1	5
564.370	1	4
564.540	1	4
564.710	1	-8
564.880	1	9
565.050	1	4
565.220	1	9
565.390	1	7
565.560	1	5
565.730	1	11
565.900	1	5
566.069	1	13
566.239	1	16
566.409	1	8
566.579	1	5
566.749	1	7
566.919	1	-5
567.089	1	-7
567.259	1	8
567.429	1	-6
567.599	1	15
567.768	1	-1
567.938	1	0
568.108	1	2
568.278	1	3
568.448	1	0
568.618	1	10
568.788	1	6
568.958	1	9
569.128	1	4
569.297	1	-3
569.467	1	16
569.637	1	12
569.807	1	7
569.977	1	2
570.147	1	2
570.317	1	2
570.487	1	1
570.656	1	19
570.826	1	5
570.996	1	1
571.166	1	-4
571.336	1	-3
571.506	1	-1
571.676	1	4
571.846	1	16
572.015	1	14
572.185	1	4
572.355	1	2
572.525	1	-11
572.695	1	3
572.865	1	5
573.035	1	5
573.205	1	-5
573.374	1	-2
573.544	1	9
573.714	1	4
573.884	1	5
574.054	1	1
574.224	1	2
574.394	1	-7
574.563	1	-9
574.733	1	10
574.903	1	3
575.073	1	4
575.243	1	6
575.413	1	-4
575.583	1	-2
575.752	1	-2
575.922	1	10
576.092	1	-6
576.262	1	4
576.432	1	-5
576.602	1	5
576.772	1	1
576.941	1	-4
577.111	1	0
577.281	1	11
577.451	1	12
577.621	1	10
577.791	1	-4
577.960	1	13
578.130	1	2
578.300	1	2
578.470	1	-6
578.640	1	5
578.810	1	2
578.979	1	16
579.149	1	-5
579.319	1	-4
579.489	1	7
579.659	1	-1
579.829	1	5
579.998	1	1
580.168	1	-1
580.338	1	11
580.508	1	7
580.678	1	6
580.848	1	2
581.017	1	7
581.187	1	12
581.357	1	8
581.527	1	-3
581.697	1	4
581.867	1	-10
582.036	1	-5
582.206	1	7
582.376	1	1
582.546	1	4
582.716	1	7
582.885	1	-5
583.055	1	-4
583.225	1	-5
583.395	1	3
583.565	1	12
583.735	1	9
583.904	1	0
584.074	1	2
584.244	1	10
584.414	1	2
584.584	1	9
584.753	1	4
584.923	1	5
585.093	1	3
585.263	1	1
585.433	1	-1
585.602	1	2
585.772	1	19
585.942	1	-2
586.112	1	-2
586.282	1	2
586.451	1	9
586.621	1	3
586.791	1	-1
586.961	1	-1
587.131	1	-1
587.300	1	13
587.470	1	-7
587.640	1	3
587.810	1	-6
587.980	1	7
588.149	1	3
588.319	1	12
588.489	1	3
588.659	1	-5
588.829	1	8
588.998	1	3
589.168	1	5
589.338	1	8
589.508	1	3
589.677	1	9
589.847	1	8
590.017	1	-2
590.187	1	3
590.357	1	0
590.526	1	3
590.696	1	9
590.866	1	1
591.036	1	3
591.205	1	10
591.375	1	3
591.545	1	3
591.715	1	-9
591.885	1	15
592.054	1	8
592.224	1	5
592.394	1	1
592.564	1	-3
592.733	1	14
592.903	1	5
593.073	1	-2
593.243	1	9
593.412	1	-3
593.582	1	3
593.752	1	-4
593.922	1	1
594.091	1	8
594.261	1	-4
594.431	1	11
594.601	1	7
594.771	1	8
594.940	1	1
595.110	1	3
595.280	1	11
595.450	1	4
595.619	1	-2
595.789	1	0
595.959	1	-9
596.129	1	6
596.298	1	10
596.468	1	7
596.638	1	-1
596.808	1	-6
596.977	1	5
597.147	1	6
597.317	1	2
597.487	1	5
597.656	1	3
597.826	1	11
597.996	1	2
598.166	1	9
598.335	1	1
598.505	1	4
598.675	1	7
598.844	1	15
599.014	1	-5
599.184	1	2
599.354	1	18
599.523	1	0
599.693	1	2
599.863	1	15
600.033	1	1
600.202	1	0
600.372	1	-3
600.542	1	5
600.712	1	-1
600.881	1	2
601.051	1	13
601.221	1	15
601.390	1	11
601.560	1	13
601.730	1	7
601.900	1	2
602.069	1	4
602.239	1	4
602.409	1	7
602.578	1	5
602.748	1	16
602.918	1	-10
603.088	1	4
603.257	1	-5
603.427	1	6
603.597	1	-3
603.767	1	5
603.936	1	4
604.106	1	3
604.276	1	3
604.445	1	2
604.615	1	10
604.785	1	4
604.954	1	5
605.124	1	8
605.294	1	-4
605.464	1	-3
605.633	1	0
605.803	1	-3
605.973	1	5
606.142	1	10
606.312	1	8
606.482	1	-2
606.652	1	7
606.821	1	2
606.991	1	5
607.161	1	3
607.330	1	2
607.500	1	6
607.670	1	7
607.839	1	-3
608.009	1	-6
608.179	1	0
608.348	1	2
608.518	1	12
608.688	1	9
608.858	1	-1
609.027	1	9
609.197	1	7
609.367	1	0
609.536	1	-7
609.706	1	6
609.876	1	4
610.045	1	6
610.215	1	8
610.385	1	11
610.554	1	2
610.724	1	-1
610.894	1	8
611.063	1	0
611.233	1	0
611.403	1	13
611.572	1	9
611.742	1	6
611.912	1	5
612.081	1	6
612.251	1	5
612.421	1	-1
612.590	1	5
612.760	1	8
612.930	1	12
613.099	1	8
613.269	1	9
613.439	1	-9
613.608	1	6
613.778	1	-2
613.948	1	15
614.117	1	1
614.287	1	-2
614.457	1	4
614.626	1	7
614.796	1	0
614.966	1	2
615.135	1	13
615.305	1	4
615.475	1	-5
615.644	1	13
615.814	1	12
615.984	1	-3
616.153	1	1
616.323	1	-1
616.493	1	7
616.662	1	4
616.832	1	7
617.002	1	7
617.171	1	2
617.341	1	14
617.511	1	-8
617.680	1	-6
617.850	1	3
618.019	1	0
618.189	1	12
618.359	1	1
618.528	1	5
618.698	1	9
618.868	1	3
619.037	1	9
619.207	1	2
619.377	1	7
619.546	1	14
619.716	1	-1
619.885	1	1
620.055	1	1
620.225	1	12
620.394	1	6
620.564	1	10
620.734	1	13
620.903	1	-7
621.073	1	10
621.242	1	0
621.412	1	2
621.582	1	4
621.751	1	5
621.921	1	0
622.091	1	5
622.260	1	15
622.430	1	4
622.599	1	5
622.769	1	4
622.939	1	1
623.108	1	5
623.278	1	9
623.448	1	1
623.617	1	6
623.787	1	-2
623.956	1	17
624.126	1	6
624.296	1	12
624.465	1	0
624.635	1	1
624.804	1	-6
624.974	1	0
625.144	1	2
625.313	1	15
625.483	1	2
625.652	1	-1
625.822	1	10
625.992	1	11
626.161	1	4
626.331	1	-3
626.501	1	4
626.670	1	0
626.840	1	6
627.009	1	13
627.179	1	2
627.348	1	3
627.518	1	13
627.688	1	1
627.857	1	14
628.027	1	7
628.196	1	7
628.366	1	0
628.536	1	4
628.705	1	7
628.875	1	12
629.044	1	7
629.214	1	5
629.384	1	15
629.553	1	8
629.723	1	10
629.892	1	8
630.062	1	6
630.232	1	9
630.401	1	4
630.571	1	-2
630.740	1	7
630.910	1	13
631.079	1	2
631.249	1	2
631.419	1	6
631.588	1	10
631.758	1	-1
631.927	1	10
632.097	1	-4
632.266	1	16
632.436	1	4
632.606	1	14
632.775	1	8
632.945	1	-4
633.114	1	4
633.284	1	1
633.453	1	16
633.623	1	18
633.793	1	3
633.962	1	9
634.132	1	10
634.301	1	11
634.471	1	4
634.640	1	-1
634.810	1	7
634.979	1	15
635.149	1	14
635.319	1	5
635.488	1	6
635.658	1	2
635.827	1	9
635.997	1	8
636.166	1	8
636.336	1	2
636.505	1	5
636.675	1	3
636.845	1	11
637.014	1	-9
637.184	1	10
637.353	1	5
637.523	1	6
637.692	1	8
637.862	1	-2
638.031	1	3
638.201	1	6
638.370	1	-4
638.540	1	-1
638.710	1	4
638.879	1	3
639.049	1	10
639.218	1	12
639.388	1	14
639.557	1	18
639.727	1	9
639.896	1	2
640.066	1	11
640.235	1	-1
640.405	1	-5
640.574	1	5
640.744	1	4
640.914	1	11
641.083	1	8
641.253	1	5
641.422	1	9
641.592	1	14
641.761	1	8
641.931	1	11
642.100	1	0
642.270	1	5
642.439	1	7
642.609	1	23
642.778	1	15
642.948	1	18
643.117	1	12
643.287	1	10
643.456	1	-2
643.626	1	7
643.795	1	1
643.965	1	5
644.134	1	1
644.304	1	9
644.473	1	-4
644.643	1	7
644.812	1	8
644.982	1	9
645.151	1	2
645.321	1	8
645.490	1	21
645.660	1	7
645.829	1	2
645.999	1	4
646.168	1	16
646.338	1	-2
646.507	1	1
646.677	1	3
646.846	1	2
647.016	1	12
647.185	1	8
647.355	1	8
647.524	1	-3
647.694	1	3
647.863	1	2
648.033	1	7
648.202	1	13
648.372	1	-8
648.541	1	3
648.711	1	11
648.880	1	13
649.050	1	14
649.219	1	10
649.389	1	2
649.558	1	17
649.728	1	8
649.897	1	17
650.067	1	11
650.236	1	4
650.406	1	-4
650.575	1	11
650.745	1	12
650.914	1	21
651.084	1	22
651.253	1	11
651.423	1	6
651.592	1	9
651.762	1	0
651.931	1	6
652.101	1	2
652.270	1	5
652.440	1	12
652.609	1	5
652.778	1	11
652.948	1	10
653.117	1	-2
653.287	1	-2
653.456	1	-2
653.626	1	8
653.795	1	9
653.965	1	7
654.134	1	-2
654.304	1	15
654.473	1	10
654.643	1	7
654.812	1	19
654.982	1	17
655.151	1	11
655.320	1	5
655.490	1	11
655.659	1	7
655.829	1	14
655.998	1	7
656.168	1	0
656.337	1	1
656.507	1	2
656.676	1	5
656.846	1	14
657.015	1	9
657.184	1	14
657.354	1	2
657.523	1	0
657.693	1	13
657.862	1	5
658.032	1	1
658.201	1	-2
658.371	1	9
658.540	1	14
658.709	1	8
658.879	1	9
659.048	1	13
659.218	1	5
659.387	1	14
659.557	1	5
659.726	1	5
659.895	1	4
660.065	1	-1
660.234	1	7
660.404	1	8
660.573	1	7
660.743	1	13
660.912	1	7
661.081	1	2
661.251	1	2
661.420	1	10
661.590	1	5
661.759	1	12
661.929	1	6
662.098	1	9
662.267	1	5
662.437	1	10
662.606	1	3
662.776	1	13
662.945	1	13
663.115	1	18
663.284	1	12
663.453	1	10
663.623	1	10
663.792	1	19
663.962	1	16
664.131	1	1
664.300	1	8
664.470	1	9
664.639	1	5
664.809	1	7
664.978	1	15
665.148	1	12
665.317	1	3
665.486	1	10
665.656	1	15
665.825	1	20
665.995	1	-1
666.164	1	4
666.333	1	4
666.503	1	2
666.672	1	13
666.842	1	6
667.011	1	12
667.180	1	11
667.350	1	13
667.519	1	10
667.689	1	13
667.858	1	5
668.027	1	1
668.197	1	2
668.366	1	14
668.536	1	8
668.705	1	1
668.874	1	18
669.044	1	19
669.213	1	13
669.382	1	8
669.552	1	6
669.721	1	-5
669.891	1	4
670.060	1	15
670.229	1	16
670.399	1	18
670.568	1	7
670.738	1	8
670.907	1	5
671.076	1	3
671.246	1	12
671.415	1	15
671.584	1	6
671.754	1	-5
671.923	1	7
672.093	1	12
672.262	1	6
672.431	1	10
672.601	1	19
672.770	1	8
672.939	1	14
673.109	1	2
673.278	1	6
673.448	1	10
673.617	1	11
673.786	1	4
