325.333	1	33
325.504	1	22
325.675	1	46
325.846	1	33
326.017	1	39
326.188	1	38
326.359	1	43
326.531	1	36
326.702	1	37
326.873	1	51
327.044	1	45
327.215	1	33
327.386	1	32
327.557	1	38
327.728	1	42
327.899	1	39
328.070	1	54
328.241	1	39
328.412	1	34
328.583	1	37
328.754	1	56
328.926	1	51
329.097	1	36
329.268	1	47
329.439	1	46
329.610	1	47
329.781	1	40
329.952	1	59
330.123	1	40
330.294	1	46
330.465	1	41
330.636	1	50
330.807	1	46
330.978	1	38
331.149	1	47
331.320	1	49
331.492	1	51
331.663	1	42
331.834	1	59
332.005	1	57
332.176	1	56
332.347	1	39
332.518	1	56
332.689	1	61
332.860	1	50
333.031	1	53
333.202	1	53
333.373	1	56
333.544	1	59
333.715	1	61
333.886	1	57
334.057	1	54
334.228	1	65
334.399	1	60
334.570	1	53
334.741	1	59
334.912	1	60
335.084	1	63
335.255	1	61
335.426	1	62
335.597	1	65
335.768	1	74
335.939	1	60
336.110	1	58
336.281	1	59
336.452	1	75
336.623	1	58
336.794	1	67
336.965	1	57
337.136	1	77
337.307	1	63
337.478	1	63
337.649	1	55
337.820	1	57
337.991	1	69
338.162	1	71
338.333	1	64
338.504	1	70
338.675	1	74
338.846	1	54
339.017	1	64
339.188	1	71
339.359	1	73
339.530	1	67
339.701	1	77
339.872	1	87
340.043	1	76
340.214	1	78
340.385	1	64
340.556	1	84
340.727	1	76
340.898	1	79
341.069	1	74
341.240	1	82
341.411	1	86
341.582	1	79
341.753	1	77
341.924	1	89
342.095	1	85
342.266	1	88
342.437	1	85
342.608	1	93
342.779	1	86
342.950	1	81
343.121	1	93
343.292	1	99
343.463	1	92
343.634	1	99
343.805	1	79
343.976	1	99
344.147	1	98
344.318	1	78
344.489	1	88
344.660	1	90
344.831	1	98
345.002	1	95
345.173	1	100
345.344	1	95
345.515	1	100
345.686	1	91
345.857	1	99
346.028	1	99
346.199	1	95
346.370	1	84
346.541	1	89
346.712	1	88
346.883	1	89
347.054	1	95
347.225	1	101
347.396	1	102
347.567	1	95
347.738	1	103
347.909	1	99
348.080	1	92
348.251	1	102
348.422	1	110
348.593	1	101
348.764	1	104
348.935	1	103
349.106	1	96
349.277	1	124
349.448	1	98
349.619	1	105
349.790	1	101
349.961	1	115
350.132	1	121
350.303	1	110
350.474	1	106
350.645	1	103
350.816	1	109
350.987	1	124
351.157	1	121
351.328	1	113
351.499	1	128
351.670	1	117
351.841	1	120
352.012	1	138
352.183	1	122
352.354	1	120
352.525	1	133
352.696	1	116
352.867	1	134
353.038	1	126
353.209	1	122
353.380	1	122
353.551	1	113
353.722	1	114
353.893	1	133
354.064	1	119
354.235	1	122
354.406	1	113
354.576	1	112
354.747	1	115
354.918	1	128
355.089	1	120
355.260	1	125
355.431	1	121
355.602	1	129
355.773	1	123
355.944	1	125
356.115	1	150
356.286	1	146
356.457	1	127
356.628	1	129
356.799	1	147
356.970	1	149
357.141	1	126
357.311	1	147
357.482	1	138
357.653	1	138
357.824	1	139
357.995	1	150
358.166	1	137
358.337	1	152
358.508	1	145
358.679	1	140
358.850	1	148
359.021	1	151
359.192	1	154
359.363	1	144
359.533	1	137
359.704	1	143
359.875	1	156
360.046	1	148
360.217	1	159
360.388	1	158
360.559	1	140
360.730	1	135
360.901	1	141
361.072	1	160
361.243	1	136
361.414	1	156
361.584	1	134
361.755	1	148
361.926	1	144
362.097	1	146
362.268	1	151
362.439	1	146
362.610	1	141
362.781	1	133
362.952	1	136
363.123	1	138
363.293	1	146
363.464	1	147
363.635	1	157
363.806	1	134
363.977	1	147
364.148	1	166
364.319	1	145
364.490	1	152
364.661	1	152
364.832	1	150
365.002	1	164
365.173	1	157
365.344	1	163
365.515	1	159
365.686	1	170
365.857	1	157
366.028	1	169
366.199	1	180
366.370	1	163
366.540	1	161
366.711	1	158
366.882	1	158
367.053	1	165
367.224	1	172
367.395	1	163
367.566	1	167
367.737	1	165
367.908	1	155
368.078	1	160
368.249	1	182
368.420	1	160
368.591	1	169
368.762	1	159
368.933	1	174
369.104	1	163
369.274	1	182
369.445	1	160
369.616	1	160
369.787	1	169
369.958	1	168
370.129	1	159
370.300	1	163
370.471	1	149
370.641	1	172
370.812	1	163
370.983	1	167
371.154	1	166
371.325	1	170
371.496	1	154
371.667	1	178
371.837	1	166
372.008	1	160
372.179	1	166
372.350	1	167
372.521	1	175
372.692	1	154
372.863	1	165
373.033	1	159
373.204	1	164
373.375	1	152
373.546	1	189
373.717	1	163
373.888	1	175
374.059	1	181
374.229	1	183
374.400	1	180
374.571	1	170
374.742	1	184
374.913	1	166
375.084	1	179
375.254	1	187
375.425	1	185
375.596	1	192
375.767	1	183
375.938	1	169
376.109	1	182
376.279	1	188
376.450	1	185
376.621	1	204
376.792	1	192
376.963	1	190
377.134	1	185
377.304	1	190
377.475	1	185
377.646	1	184
377.817	1	192
377.988	1	199
378.159	1	197
378.329	1	188
378.500	1	198
378.671	1	197
378.842	1	201
379.013	1	205
379.184	1	182
379.354	1	193
379.525	1	198
379.696	1	186
379.867	1	190
380.038	1	181
380.209	1	200
380.379	1	195
380.550	1	165
380.721	1	180
380.892	1	188
381.063	1	192
381.233	1	181
381.404	1	201
381.575	1	201
381.746	1	186
381.917	1	196
382.087	1	199
382.258	1	186
382.429	1	178
382.600	1	193
382.771	1	184
382.941	1	197
383.112	1	200
383.283	1	203
383.454	1	196
383.625	1	207
383.795	1	203
383.966	1	217
384.137	1	223
384.308	1	215
384.479	1	203
384.649	1	197
384.820	1	211
384.991	1	216
385.162	1	227
385.333	1	212
385.503	1	214
385.674	1	211
385.845	1	209
386.016	1	230
386.187	1	218
386.357	1	220
386.528	1	224
386.699	1	215
386.870	1	213
387.041	1	229
387.211	1	220
387.382	1	242
387.553	1	222
387.724	1	210
387.894	1	217
388.065	1	220
388.236	1	215
388.407	1	213
388.578	1	215
388.748	1	229
388.919	1	220
389.090	1	220
389.261	1	229
389.431	1	206
389.602	1	223
389.773	1	224
389.944	1	227
390.114	1	217
390.285	1	227
390.456	1	213
390.627	1	216
390.798	1	208
390.968	1	226
391.139	1	221
391.310	1	224
391.481	1	224
391.651	1	224
391.822	1	228
391.993	1	220
392.164	1	223
392.334	1	214
392.505	1	232
392.676	1	212
392.847	1	217
393.017	1	223
393.188	1	220
393.359	1	230
393.530	1	228
393.700	1	222
393.871	1	236
394.042	1	227
394.213	1	231
394.383	1	226
394.554	1	219
394.725	1	237
394.896	1	239
395.066	1	227
395.237	1	246
395.408	1	236
395.579	1	248
395.749	1	246
395.920	1	249
396.091	1	240
396.262	1	229
396.432	1	223
396.603	1	245
396.774	1	241
396.945	1	242
397.115	1	249
397.286	1	243
397.457	1	244
397.627	1	227
397.798	1	240
397.969	1	236
398.140	1	240
398.310	1	253
398.481	1	232
398.652	1	246
398.823	1	253
398.993	1	233
399.164	1	246
399.335	1	242
399.505	1	234
399.676	1	233
399.847	1	239
400.018	1	245
400.188	1	230
400.359	1	243
400.530	1	242
400.700	1	234
400.871	1	232
401.042	1	233
401.213	1	236
401.383	1	238
401.554	1	240
401.725	1	240
401.895	1	232
402.066	1	235
402.237	1	240
402.408	1	234
402.578	1	257
402.749	1	241
402.920	1	241
403.090	1	235
403.261	1	228
403.432	1	237
403.603	1	240
403.773	1	245
403.944	1	237
404.115	1	249
404.285	1	246
404.456	1	251
404.627	1	253
404.797	1	244
404.968	1	244
405.139	1	258
405.310	1	242
405.480	1	239
405.651	1	267
405.822	1	248
405.992	1	255
406.163	1	252
406.334	1	263
406.504	1	274
406.675	1	240
406.846	1	262
407.016	1	261
407.187	1	252
407.358	1	262
407.528	1	260
407.699	1	267
407.870	1	265
408.041	1	261
408.211	1	256
408.382	1	266
408.553	1	273
408.723	1	260
408.894	1	272
409.065	1	257
409.235	1	253
409.406	1	244
409.577	1	257
409.747	1	266
409.918	1	269
410.089	1	265
410.259	1	254
410.430	1	253
410.601	1	272
410.771	1	249
410.942	1	253
411.113	1	247
411.283	1	249
411.454	1	272
411.625	1	248
411.795	1	270
411.966	1	244
412.137	1	252
412.307	1	256
412.478	1	241
412.649	1	242
412.819	1	250
412.990	1	262
413.161	1	238
413.331	1	258
413.502	1	240
413.672	1	233
413.843	1	236
414.014	1	237
414.184	1	269
414.355	1	243
414.526	1	243
414.696	1	233
414.867	1	229
415.038	1	251
415.208	1	241
415.379	1	240
415.550	1	237
415.720	1	246
415.891	1	228
416.062	1	247
416.232	1	253
416.403	1	243
416.573	1	242
416.744	1	249
416.915	1	256
417.085	1	255
417.256	1	239
417.427	1	245
417.597	1	245
417.768	1	246
417.939	1	248
418.109	1	262
418.280	1	254
418.450	1	261
418.621	1	250
418.792	1	257
418.962	1	243
419.133	1	253
419.304	1	241
419.474	1	248
419.645	1	237
419.815	1	253
419.986	1	248
420.157	1	263
420.327	1	246
420.498	1	235
420.669	1	243
420.839	1	255
421.010	1	242
421.180	1	243
421.351	1	257
421.522	1	236
421.692	1	253
421.863	1	246
422.033	1	241
422.204	1	243
422.375	1	228
422.545	1	247
422.716	1	231
422.886	1	230
423.057	1	243
423.228	1	247
423.398	1	243
423.569	1	226
423.740	1	227
423.910	1	234
424.081	1	234
424.251	1	231
424.422	1	224
424.593	1	224
424.763	1	222
424.934	1	227
425.104	1	240
425.275	1	222
425.445	1	222
425.616	1	229
425.787	1	221
425.957	1	222
426.128	1	217
426.298	1	229
426.469	1	211
426.640	1	214
426.810	1	199
426.981	1	232
427.151	1	210
427.322	1	232
427.493	1	229
427.663	1	223
427.834	1	216
428.004	1	221
428.175	1	224
428.345	1	211
428.516	1	214
428.687	1	231
428.857	1	227
429.028	1	210
429.198	1	210
429.369	1	226
429.540	1	225
429.710	1	221
429.881	1	217
430.051	1	225
430.222	1	225
430.392	1	220
430.563	1	214
430.734	1	224
430.904	1	221
431.075	1	229
431.245	1	214
431.416	1	235
431.586	1	205
431.757	1	240
431.927	1	231
432.098	1	230
432.269	1	235
432.439	1	215
432.610	1	234
432.780	1	232
432.951	1	227
433.121	1	222
433.292	1	235
433.462	1	219
433.633	1	213
433.804	1	225
433.974	1	215
434.145	1	226
434.315	1	215
434.486	1	209
434.656	1	219
434.827	1	214
434.997	1	229
435.168	1	221
435.339	1	212
435.509	1	219
435.680	1	220
435.850	1	213
436.021	1	209
436.191	1	215
436.362	1	218
436.532	1	218
436.703	1	213
436.873	1	207
437.044	1	204
437.214	1	185
437.385	1	205
437.556	1	203
437.726	1	203
437.897	1	197
438.067	1	207
438.238	1	199
438.408	1	205
438.579	1	197
438.749	1	189
438.920	1	208
439.090	1	186
439.261	1	206
439.431	1	186
439.602	1	188
439.772	1	207
439.943	1	193
440.113	1	185
440.284	1	200
440.455	1	196
440.625	1	200
440.796	1	192
440.966	1	190
441.137	1	199
441.307	1	203
441.478	1	195
441.648	1	189
441.819	1	198
441.989	1	199
442.160	1	197
442.330	1	194
442.501	1	190
442.671	1	178
442.842	1	200
443.012	1	194
443.183	1	200
443.353	1	184
443.524	1	184
443.694	1	180
443.865	1	202
444.035	1	204
444.206	1	194
444.376	1	189
444.547	1	192
444.717	1	187
444.888	1	191
445.058	1	196
445.229	1	202
445.399	1	196
445.570	1	192
445.740	1	194
445.911	1	197
446.081	1	194
446.252	1	183
446.422	1	191
446.593	1	191
446.763	1	192
446.934	1	175
447.104	1	181
447.275	1	196
447.445	1	179
447.616	1	179
447.786	1	185
447.957	1	187
448.127	1	179
448.298	1	191
448.468	1	186
448.639	1	198
448.809	1	184
448.979	1	193
449.150	1	182
449.320	1	175
449.491	1	176
449.661	1	174
449.832	1	169
450.002	1	178
450.173	1	187
450.343	1	174
450.514	1	178
450.684	1	184
450.855	1	173
451.025	1	175
451.196	1	173
451.366	1	165
451.537	1	183
451.707	1	189
451.878	1	170
452.048	1	165
452.218	1	176
452.389	1	170
452.559	1	184
452.730	1	189
452.900	1	163
453.071	1	183
453.241	1	153
453.412	1	162
453.582	1	164
453.753	1	163
453.923	1	152
454.093	1	169
454.264	1	164
454.434	1	177
454.605	1	161
454.775	1	172
454.946	1	155
455.116	1	165
455.287	1	157
455.457	1	157
455.628	1	160
455.798	1	158
455.968	1	157
456.139	1	164
456.309	1	156
456.480	1	146
456.650	1	167
456.821	1	155
456.991	1	166
457.161	1	162
457.332	1	150
457.502	1	161
457.673	1	159
457.843	1	144
458.014	1	159
458.184	1	170
458.355	1	151
458.525	1	153
458.695	1	141
458.866	1	152
459.036	1	160
459.207	1	158
459.377	1	171
459.548	1	146
459.718	1	161
459.888	1	157
460.059	1	150
460.229	1	151
460.400	1	165
460.570	1	136
460.740	1	140
460.911	1	136
461.081	1	153
461.252	1	158
461.422	1	155
461.593	1	155
461.763	1	153
461.933	1	142
462.104	1	156
462.274	1	132
462.445	1	157
462.615	1	156
462.785	1	149
462.956	1	133
463.126	1	142
463.297	1	140
463.467	1	159
463.638	1	144
463.808	1	150
463.978	1	135
464.149	1	145
464.319	1	149
464.490	1	135
464.660	1	135
464.830	1	135
465.001	1	134
465.171	1	144
465.342	1	138
465.512	1	141
465.682	1	123
465.853	1	136
466.023	1	139
466.194	1	141
466.364	1	145
466.534	1	124
466.705	1	136
466.875	1	127
467.045	1	125
467.216	1	134
467.386	1	133
467.557	1	138
467.727	1	126
467.897	1	120
468.068	1	119
468.238	1	121
468.409	1	127
468.579	1	122
468.749	1	136
468.920	1	112
469.090	1	137
469.260	1	122
469.431	1	117
469.601	1	118
469.772	1	131
469.942	1	134
470.112	1	119
470.283	1	129
470.453	1	126
470.623	1	114
470.794	1	117
470.964	1	121
471.135	1	115
471.305	1	116
471.475	1	117
471.646	1	119
471.816	1	119
471.986	1	126
472.157	1	117
472.327	1	115
472.497	1	121
472.668	1	122
472.838	1	117
473.009	1	106
473.179	1	123
473.349	1	114
473.520	1	132
473.690	1	117
473.860	1	111
474.031	1	104
474.201	1	115
474.371	1	108
474.542	1	124
474.712	1	121
474.882	1	124
475.053	1	118
475.223	1	116
475.394	1	110
475.564	1	104
475.734	1	115
475.905	1	131
476.075	1	120
476.245	1	118
476.416	1	111
476.586	1	113
476.756	1	116
476.927	1	108
477.097	1	101
477.267	1	110
477.438	1	116
477.608	1	122
477.778	1	104
477.949	1	108
478.119	1	124
478.289	1	103
478.460	1	115
478.630	1	113
478.800	1	101
478.971	1	111
479.141	1	115
479.311	1	111
479.482	1	109
479.652	1	98
479.822	1	106
479.993	1	114
480.163	1	113
480.333	1	109
480.504	1	120
480.674	1	118
480.844	1	108
481.015	1	105
481.185	1	110
481.355	1	97
481.525	1	94
481.696	1	105
481.866	1	105
482.036	1	119
482.207	1	111
482.377	1	99
482.547	1	112
482.718	1	94
482.888	1	105
483.058	1	108
483.229	1	103
483.399	1	106
483.569	1	93
483.740	1	95
483.910	1	100
484.080	1	96
484.250	1	93
484.421	1	86
484.591	1	101
484.761	1	102
484.932	1	89
485.102	1	98
485.272	1	95
485.443	1	101
485.613	1	87
485.783	1	104
485.953	1	92
486.124	1	95
486.294	1	91
486.464	1	95
486.635	1	99
486.805	1	96
486.975	1	96
487.146	1	89
487.316	1	97
487.486	1	104
487.656	1	90
487.827	1	91
487.997	1	86
488.167	1	101
488.338	1	88
488.508	1	102
488.678	1	100
488.848	1	83
489.019	1	83
489.189	1	95
489.359	1	88
489.529	1	91
489.700	1	82
489.870	1	90
490.040	1	82
490.211	1	74
490.381	1	93
490.551	1	81
490.721	1	81
490.892	1	84
491.062	1	77
491.232	1	79
491.402	1	90
491.573	1	94
491.743	1	86
491.913	1	92
492.084	1	90
492.254	1	83
492.424	1	85
492.594	1	97
492.765	1	88
492.935	1	92
493.105	1	78
493.275	1	77
493.446	1	67
493.616	1	74
493.786	1	81
493.956	1	79
494.127	1	78
494.297	1	74
494.467	1	81
494.637	1	77
494.808	1	83
494.978	1	77
495.148	1	81
495.318	1	81
495.489	1	70
495.659	1	80
495.829	1	80
495.999	1	85
496.170	1	89
496.340	1	70
496.510	1	96
496.680	1	90
496.851	1	80
497.021	1	81
497.191	1	78
497.361	1	61
497.532	1	70
497.702	1	74
497.872	1	80
498.042	1	65
498.213	1	68
498.383	1	69
498.553	1	83
498.723	1	83
498.894	1	79
499.064	1	75
499.234	1	74
499.404	1	77
499.574	1	75
499.745	1	74
499.915	1	75
500.085	1	72
500.255	1	65
500.426	1	72
500.596	1	66
500.766	1	63
500.936	1	57
501.106	1	64
501.277	1	59
501.447	1	77
501.617	1	60
501.787	1	59
501.958	1	60
502.128	1	73
502.298	1	76
502.468	1	60
502.638	1	68
502.809	1	66
502.979	1	72
503.149	1	68
503.319	1	78
503.489	1	46
503.660	1	64
503.830	1	69
504.000	1	67
504.170	1	68
504.340	1	61
504.511	1	71
504.681	1	68
504.851	1	58
505.021	1	75
505.192	1	52
505.362	1	58
505.532	1	54
505.702	1	70
505.872	1	70
506.043	1	78
506.213	1	81
506.383	1	69
506.553	1	60
506.723	1	51
506.893	1	68
507.064	1	66
507.234	1	59
507.404	1	72
507.574	1	63
507.744	1	62
507.915	1	64
508.085	1	68
508.255	1	65
508.425	1	54
508.595	1	60
508.766	1	61
508.936	1	70
509.106	1	64
509.276	1	52
509.446	1	54
509.616	1	65
509.787	1	61
509.957	1	62
510.127	1	57
510.297	1	57
510.467	1	63
510.638	1	67
510.808	1	59
510.978	1	55
511.148	1	50
511.318	1	61
511.488	1	68
511.659	1	62
511.829	1	54
511.999	1	71
512.169	1	69
512.339	1	65
512.509	1	51
512.680	1	55
512.850	1	54
513.020	1	58
513.190	1	49
513.360	1	64
513.530	1	58
513.700	1	55
513.871	1	52
514.041	1	64
514.211	1	56
514.381	1	54
514.551	1	53
514.721	1	63
514.892	1	55
515.062	1	53
515.232	1	50
515.402	1	55
515.572	1	60
515.742	1	53
515.912	1	65
516.083	1	60
516.253	1	57
516.423	1	49
516.593	1	54
516.763	1	59
516.933	1	62
517.104	1	53
517.274	1	38
517.444	1	48
517.614	1	50
517.784	1	54
517.954	1	44
518.124	1	50
518.294	1	61
518.465	1	55
518.635	1	56
518.805	1	60
518.975	1	54
519.145	1	44
519.315	1	47
519.485	1	42
519.656	1	45
519.826	1	41
519.996	1	52
520.166	1	54
520.336	1	55
520.506	1	49
520.676	1	62
520.846	1	52
521.017	1	42
521.187	1	52
521.357	1	45
521.527	1	39
521.697	1	41
521.867	1	51
522.037	1	44
522.207	1	48
522.377	1	59
522.548	1	43
522.718	1	43
522.888	1	53
523.058	1	53
523.228	1	43
523.398	1	34
523.568	1	32
523.738	1	43
523.909	1	44
524.079	1	46
524.249	1	38
524.419	1	40
524.589	1	39
524.759	1	48
524.929	1	53
525.099	1	45
525.269	1	49
525.439	1	38
525.610	1	49
525.780	1	48
525.950	1	43
526.120	1	38
526.290	1	37
526.460	1	31
526.630	1	56
526.800	1	40
526.970	1	48
527.140	1	41
527.311	1	46
527.481	1	47
527.651	1	50
527.821	1	38
527.991	1	33
528.161	1	38
528.331	1	34
528.501	1	49
528.671	1	48
528.841	1	40
529.011	1	43
529.181	1	47
529.352	1	42
529.522	1	37
529.692	1	40
529.862	1	39
530.032	1	29
530.202	1	38
530.372	1	42
530.542	1	32
530.712	1	42
530.882	1	38
531.052	1	53
531.222	1	44
531.392	1	48
531.563	1	42
531.733	1	36
531.903	1	36
532.073	1	45
532.243	1	51
532.413	1	58
532.583	1	47
532.753	1	38
532.923	1	56
533.093	1	39
533.263	1	39
533.433	1	27
533.603	1	34
533.773	1	49
533.943	1	43
534.113	1	41
534.284	1	35
534.454	1	38
534.624	1	42
534.794	1	27
534.964	1	46
535.134	1	26
535.304	1	42
535.474	1	35
535.644	1	46
535.814	1	39
535.984	1	41
536.154	1	36
536.324	1	46
536.494	1	47
536.664	1	28
536.834	1	35
537.004	1	37
537.174	1	47
537.344	1	39
537.514	1	40
537.685	1	41
537.855	1	38
538.025	1	44
538.195	1	24
538.365	1	31
538.535	1	42
538.705	1	43
538.875	1	33
539.045	1	41
539.215	1	27
539.385	1	38
539.555	1	29
539.725	1	35
539.895	1	35
540.065	1	45
540.235	1	44
540.405	1	31
540.575	1	32
540.745	1	37
540.915	1	24
541.085	1	33
541.255	1	34
541.425	1	41
541.595	1	39
541.765	1	35
541.935	1	33
542.105	1	40
542.275	1	39
542.445	1	33
542.615	1	45
542.785	1	33
542.955	1	43
543.125	1	26
543.295	1	39
543.465	1	40
543.635	1	32
543.805	1	39
543.975	1	29
544.145	1	32
544.315	1	35
544.485	1	26
544.655	1	29
544.825	1	37
544.995	1	32
545.165	1	31
545.335	1	37
545.505	1	34
545.675	1	34
545.845	1	37
546.015	1	32
546.185	1	32
546.355	1	30
546.525	1	29
546.695	1	31
546.865	1	38
547.035	1	21
547.205	1	36
547.375	1	40
547.545	1	30
547.715	1	27
547.885	1	36
548.055	1	30
548.225	1	30
548.395	1	28
548.565	1	27
548.735	1	32
548.905	1	37
549.075	1	20
549.245	1	38
549.415	1	34
549.585	1	29
549.755	1	36
549.925	1	32
550.095	1	27
550.265	1	31
550.435	1	39
550.605	1	34
550.775	1	19
550.945	1	30
551.115	1	39
551.285	1	28
551.455	1	34
551.625	1	19
551.795	1	32
551.965	1	27
552.135	1	24
552.305	1	31
552.475	1	29
552.645	1	31
552.815	1	27
552.985	1	35
553.155	1	20
553.325	1	28
553.495	1	34
553.665	1	27
553.835	1	40
554.004	1	29
554.174	1	21
554.344	1	26
554.514	1	21
554.684	1	36
554.854	1	8
555.024	1	38
555.194	1	42
555.364	1	25
555.534	1	9
555.704	1	25
555.874	1	30
556.044	1	18
556.214	1	35
556.384	1	35
556.554	1	23
556.724	1	32
556.894	1	21
557.064	1	24
557.234	1	19
557.404	1	22
557.573	1	30
557.743	1	10
557.913	1	28
558.083	1	27
558.253	1	29
558.423	1	29
558.593	1	33
558.763	1	29
558.933	1	24
559.103	1	26
559.273	1	30
559.443	1	31
559.613	1	27
559.783	1	23
559.953	1	20
560.122	1	35
560.292	1	21
560.462	1	22
560.632	1	18
560.802	1	28
560.972	1	16
561.142	1	13
561.312	1	23
561.482	1	29
561.652	1	20
561.822	1	24
561.992	1	19
562.162	1	15
562.331	1	13
562.501	1	18
562.671	1	14
562.841	1	2
563.011	1	28
563.181	1	23
563.351	1	17
563.521	1	28
563.691	1	27
563.861	1	27
564.031	1	19
564.201	1	20
564.370	1	24
564.540	1	21
564.710	1	17
564.880	1	18
565.050	1	28
565.220	1	28
565.390	1	13
565.560	1	32
565.730	1	18
565.900	1	23
566.069	1	38
566.239	1	29
566.409	1	22
566.579	1	31
566.749	1	22
566.919	1	10
567.089	1	9
567.259	1	31
567.429	1	14
567.599	1	27
567.768	1	28
567.938	1	23
568.108	1	20
568.278	1	28
568.448	1	18
568.618	1	19
568.788	1	32
568.958	1	17
569.128	1	12
569.297	1	12
569.467	1	24
569.637	1	21
569.807	1	28
569.977	1	19
570.147	1	13
570.317	1	19
570.487	1	11
570.656	1	26
570.826	1	10
570.996	1	29
571.166	1	22
571.336	1	15
571.506	1	10
571.676	1	25
571.846	1	23
572.015	1	24
572.185	1	17
572.355	1	17
572.525	1	10
572.695	1	15
572.865	1	26
573.035	1	16
573.205	1	8
573.374	1	9
573.544	1	23
573.714	1	9
573.884	1	21
574.054	1	14
574.224	1	28
574.394	1	25
574.563	1	12
574.733	1	31
574.903	1	26
575.073	1	19
575.243	1	15
575.413	1	20
575.583	1	16
575.752	1	20
575.922	1	21
576.092	1	15
576.262	1	22
576.432	1	16
576.602	1	29
576.772	1	15
576.941	1	23
577.111	1	18
577.281	1	15
577.451	1	17
577.621	1	19
577.791	1	15
577.960	1	21
578.130	1	19
578.300	1	19
578.470	1	14
578.640	1	15
578.810	1	16
578.979	1	16
579.149	1	20
579.319	1	21
579.489	1	28
579.659	1	0
579.829	1	21
579.998	1	12
580.168	1	17
580.338	1	20
580.508	1	21
580.678	1	20
580.848	1	19
581.017	1	21
581.187	1	16
581.357	1	24
581.527	1	20
581.697	1	24
581.867	1	6
582.036	1	17
582.206	1	18
582.376	1	15
582.546	1	24
582.716	1	26
582.885	1	13
583.055	1	21
583.225	1	21
583.395	1	18
583.565	1	32
583.735	1	18
583.904	1	18
584.074	1	14
584.244	1	22
584.414	1	19
584.584	1	19
584.753	1	29
584.923	1	7
585.093	1	28
585.263	1	25
585.433	1	15
585.602	1	29
585.772	1	38
585.942	1	17
586.112	1	30
586.282	1	32
586.451	1	25
586.621	1	15
586.791	1	14
586.961	1	6
587.131	1	9
587.300	1	26
587.470	1	17
587.640	1	13
587.810	1	10
587.980	1	17
588.149	1	17
588.319	1	20
588.489	1	18
588.659	1	11
588.829	1	20
588.998	1	15
589.168	1	17
589.338	1	15
589.508	1	17
589.677	1	25
589.847	1	10
590.017	1	12
590.187	1	14
590.357	1	14
590.526	1	8
590.696	1	23
590.866	1	13
591.036	1	19
591.205	1	25
591.375	1	27
591.545	1	12
591.715	1	16
591.885	1	30
592.054	1	17
592.224	1	4
592.394	1	26
592.564	1	16
592.733	1	11
592.903	1	21
593.073	1	22
593.243	1	29
593.412	1	4
593.582	1	23
593.752	1	17
593.922	1	21
594.091	1	25
594.261	1	17
594.431	1	15
594.601	1	9
594.771	1	28
594.940	1	21
595.110	1	19
595.280	1	27
595.450	1	16
595.619	1	19
595.789	1	20
595.959	1	15
596.129	1	24
596.298	1	17
596.468	1	22
596.638	1	22
596.808	1	2
596.977	1	22
597.147	1	21
597.317	1	23
597.487	1	27
597.656	1	20
597.826	1	22
597.996	1	23
598.166	1	19
598.335	1	11
598.505	1	22
598.675	1	21
598.844	1	28
599.014	1	5
599.184	1	15
599.354	1	29
599.523	1	11
599.693	1	18
599.863	1	19
600.033	1	17
600.202	1	18
600.372	1	7
600.542	1	11
600.712	1	23
600.881	1	25
601.051	1	26
601.221	1	24
601.390	1	23
601.560	1	22
601.730	1	21
601.900	1	20
602.069	1	19
602.239	1	15
602.409	1	14
602.578	1	27
602.748	1	27
602.918	1	8
603.088	1	23
603.257	1	9
603.427	1	23
603.597	1	9
603.767	1	26
603.936	1	21
604.106	1	15
604.276	1	20
604.445	1	18
604.615	1	16
604.785	1	10
604.954	1	8
605.124	1	15
605.294	1	8
605.464	1	15
605.633	1	23
605.803	1	29
605.973	1	20
606.142	1	28
606.312	1	29
606.482	1	8
606.652	1	32
606.821	1	9
606.991	1	19
607.161	1	22
607.330	1	13
607.500	1	26
607.670	1	22
607.839	1	19
608.009	1	18
608.179	1	23
608.348	1	21
608.518	1	31
608.688	1	3
608.858	1	15
609.027	1	23
609.197	1	25
609.367	1	15
609.536	1	21
609.706	1	20
609.876	1	17
610.045	1	25
610.215	1	19
610.385	1	23
610.554	1	12
610.724	1	10
610.894	1	16
611.063	1	25
611.233	1	27
611.403	1	23
611.572	1	29
611.742	1	17
611.912	1	28
612.081	1	32
612.251	1	19
612.421	1	31
612.590	1	26
612.760	1	22
612.930	1	40
613.099	1	34
613.269	1	25
613.439	1	14
613.608	1	21
613.778	1	29
613.948	1	23
614.117	1	15
614.287	1	22
614.457	1	21
614.626	1	18
614.796	1	24
614.966	1	19
615.135	1	34
615.305	1	30
615.475	1	15
615.644	1	38
615.814	1	32
615.984	1	10
616.153	1	14
616.323	1	29
616.493	1	15
616.662	1	16
616.832	1	24
617.002	1	20
617.171	1	19
617.341	1	29
617.511	1	9
617.680	1	8
617.850	1	14
618.019	1	23
618.189	1	33
618.359	1	28
618.528	1	27
618.698	1	35
618.868	1	27
619.037	1	27
619.207	1	28
619.377	1	34
619.546	1	34
619.716	1	28
619.885	1	24
620.055	1	25
620.225	1	31
620.394	1	37
620.564	1	23
620.734	1	28
620.903	1	21
621.073	1	22
621.242	1	29
621.412	1	21
621.582	1	28
621.751	1	26
621.921	1	33
622.091	1	25
622.260	1	33
622.430	1	27
622.599	1	28
622.769	1	21
622.939	1	22
623.108	1	31
623.278	1	25
623.448	1	33
623.617	1	27
623.787	1	29
623.956	1	34
624.126	1	37
624.296	1	35
624.465	1	28
624.635	1	33
624.804	1	17
624.974	1	33
625.144	1	25
625.313	1	45
625.483	1	19
625.652	1	22
625.822	1	33
625.992	1	15
626.161	1	36
626.331	1	29
626.501	1	27
626.670	1	20
626.840	1	37
627.009	1	30
627.179	1	42
627.348	1	8
627.518	1	45
627.688	1	25
627.857	1	25
628.027	1	38
628.196	1	26
628.366	1	13
628.536	1	25
628.705	1	21
628.875	1	23
629.044	1	29
629.214	1	40
629.384	1	41
629.553	1	25
629.723	1	29
629.892	1	33
630.062	1	29
630.232	1	29
630.401	1	37
630.571	1	31
630.740	1	29
630.910	1	34
631.079	1	25
631.249	1	36
631.419	1	33
631.588	1	39
631.758	1	23
631.927	1	42
632.097	1	28
632.266	1	46
632.436	1	35
632.606	1	39
632.775	1	33
632.945	1	34
633.114	1	27
633.284	1	34
633.453	1	48
633.623	1	48
633.793	1	31
633.962	1	31
634.132	1	36
634.301	1	40
634.471	1	31
634.640	1	26
634.810	1	21
634.979	1	35
635.149	1	20
635.319	1	27
635.488	1	29
635.658	1	40
635.827	1	22
635.997	1	40
636.166	1	37
636.336	1	31
636.505	1	34
636.675	1	31
636.845	1	37
637.014	1	22
637.184	1	39
637.353	1	32
637.523	1	28
637.692	1	35
637.862	1	27
638.031	1	24
638.201	1	45
638.370	1	37
638.540	1	29
638.710	1	22
638.879	1	31
639.049	1	29
639.218	1	32
639.388	1	39
639.557	1	39
639.727	1	42
639.896	1	23
640.066	1	34
640.235	1	31
640.405	1	34
640.574	1	34
640.744	1	29
640.914	1	32
641.083	1	44
641.253	1	32
641.422	1	34
641.592	1	37
641.761	1	34
641.931	1	51
642.100	1	35
642.270	1	40
642.439	1	33
642.609	1	42
642.778	1	34
642.948	1	44
643.117	1	42
643.287	1	37
643.456	1	30
643.626	1	34
643.795	1	32
643.965	1	35
644.134	1	30
644.304	1	34
644.473	1	33
644.643	1	31
644.812	1	33
644.982	1	44
645.151	1	34
645.321	1	36
645.490	1	45
645.660	1	30
645.829	1	42
645.999	1	29
646.168	1	61
646.338	1	32
646.507	1	34
646.677	1	37
646.846	1	32
647.016	1	40
647.185	1	36
647.355	1	45
647.524	1	39
647.694	1	33
647.863	1	33
648.033	1	48
648.202	1	43
648.372	1	28
648.541	1	37
648.711	1	36
648.880	1	41
649.050	1	48
649.219	1	39
649.389	1	36
649.558	1	46
649.728	1	39
649.897	1	46
650.067	1	43
650.236	1	32
650.406	1	31
650.575	1	35
650.745	1	37
650.914	1	54
651.084	1	45
651.253	1	38
651.423	1	42
651.592	1	43
651.762	1	37
651.931	1	40
652.101	1	37
652.270	1	34
652.440	1	46
652.609	1	40
652.778	1	43
652.948	1	41
653.117	1	39
653.287	1	18
653.456	1	36
653.626	1	48
653.795	1	37
653.965	1	48
654.134	1	31
654.304	1	50
654.473	1	38
654.643	1	44
654.812	1	49
654.982	1	40
655.151	1	39
655.320	1	35
655.490	1	31
655.659	1	42
655.829	1	48
655.998	1	37
656.168	1	42
656.337	1	45
656.507	1	33
656.676	1	43
656.846	1	38
657.015	1	48
657.184	1	39
657.354	1	38
657.523	1	35
657.693	1	57
657.862	1	30
658.032	1	44
658.201	1	35
658.371	1	48
658.540	1	31
658.709	1	47
658.879	1	49
659.048	1	47
659.218	1	33
659.387	1	45
659.557	1	43
659.726	1	35
659.895	1	45
660.065	1	51
660.234	1	43
660.404	1	48
660.573	1	39
660.743	1	38
660.912	1	42
661.081	1	41
661.251	1	43
661.420	1	50
661.590	1	38
661.759	1	54
661.929	1	47
662.098	1	44
662.267	1	39
662.437	1	45
662.606	1	41
662.776	1	47
662.945	1	51
663.115	1	48
663.284	1	48
663.453	1	42
663.623	1	47
663.792	1	52
663.962	1	46
664.131	1	38
664.300	1	40
664.470	1	39
664.639	1	38
664.809	1	51
664.978	1	57
665.148	1	43
665.317	1	48
665.486	1	41
665.656	1	48
665.825	1	55
665.995	1	25
666.164	1	52
666.333	1	45
666.503	1	37
666.672	1	44
666.842	1	45
667.011	1	49
667.180	1	41
667.350	1	47
667.519	1	43
667.689	1	42
667.858	1	51
668.027	1	40
668.197	1	40
668.366	1	54
668.536	1	41
668.705	1	34
668.874	1	47
669.044	1	58
669.213	1	53
669.382	1	55
669.552	1	47
669.721	1	36
669.891	1	37
670.060	1	43
670.229	1	50
670.399	1	54
670.568	1	46
670.738	1	41
670.907	1	46
671.076	1	56
671.246	1	55
671.415	1	50
671.584	1	38
671.754	1	35
671.923	1	47
672.093	1	49
672.262	1	46
672.431	1	52
672.601	1	40
672.770	1	46
672.939	1	51
673.109	1	43
673.278	1	41
673.448	1	43
673.617	1	45
673.786	1	39
