325.333	1	-3
325.504	1	-3
325.675	1	8
325.846	1	4
326.017	1	2
326.188	1	-4
326.359	1	7
326.531	1	-10
326.702	1	-7
326.873	1	3
327.044	1	7
327.215	1	0
327.386	1	-1
327.557	1	-1
327.728	1	-9
327.899	1	-2
328.070	1	3
328.241	1	-3
328.412	1	0
328.583	1	-6
328.754	1	9
328.926	1	5
329.097	1	2
329.268	1	-2
329.439	1	11
329.610	1	-5
329.781	1	2
329.952	1	-2
330.123	1	-2
330.294	1	-6
330.465	1	-11
330.636	1	2
330.807	1	6
330.978	1	1
331.149	1	0
331.320	1	-1
331.492	1	0
331.663	1	-2
331.834	1	0
332.005	1	-5
332.176	1	9
332.347	1	-5
332.518	1	8
332.689	1	4
332.860	1	-2
333.031	1	-5
333.202	1	-1
333.373	1	5
333.544	1	3
333.715	1	-3
333.886	1	5
334.057	1	-4
334.228	1	6
334.399	1	10
334.570	1	-2
334.741	1	-7
334.912	1	-6
335.084	1	8
335.255	1	2
335.426	1	-1
335.597	1	-4
335.768	1	1
335.939	1	1
336.110	1	2
336.281	1	3
336.452	1	14
336.623	1	-3
336.794	1	-1
336.965	1	3
337.136	1	9
337.307	1	-7
337.478	1	5
337.649	1	3
337.820	1	0
337.991	1	3
338.162	1	3
338.333	1	0
338.504	1	2
338.675	1	0
338.846	1	-14
339.017	1	1
339.188	1	-2
339.359	1	12
339.530	1	-5
339.701	1	9
339.872	1	11
340.043	1	0
340.214	1	3
340.385	1	-10
340.556	1	14
340.727	1	6
340.898	1	1
341.069	1	2
341.240	1	-3
341.411	1	10
341.582	1	2
341.753	1	1
341.924	1	9
342.095	1	4
342.266	1	8
342.437	1	1
342.608	1	0
342.779	1	-10
342.950	1	-6
343.121	1	8
343.292	1	3
343.463	1	9
343.634	1	2
343.805	1	6
343.976	1	14
344.147	1	7
344.318	1	0
344.489	1	0
344.660	1	7
344.831	1	0
345.002	1	-3
345.173	1	-6
345.344	1	2
345.515	1	4
345.686	1	-4
345.857	1	-1
346.028	1	2
346.199	1	8
346.370	1	6
346.541	1	2
346.712	1	-3
346.883	1	-12
347.054	1	-6
347.225	1	4
347.396	1	7
347.567	1	-6
347.738	1	3
347.909	1	10
348.080	1	12
348.251	1	3
348.422	1	5
348.593	1	-3
348.764	1	1
348.935	1	-3
349.106	1	-7
349.277	1	-2
349.448	1	3
349.619	1	2
349.790	1	6
349.961	1	-1
350.132	1	5
350.303	1	3
350.474	1	-6
350.645	1	6
350.816	1	4
350.987	1	13
351.157	1	-7
351.328	1	5
351.499	1	9
351.670	1	-2
351.841	1	16
352.012	1	2
352.183	1	8
352.354	1	-10
352.525	1	8
352.696	1	-5
352.867	1	2
353.038	1	-4
353.209	1	4
353.380	1	5
353.551	1	9
353.722	1	-1
353.893	1	3
354.064	1	4
354.235	1	-3
354.406	1	-6
354.576	1	4
354.747	1	9
354.918	1	2
355.089	1	0
355.260	1	8
355.431	1	0
355.602	1	-3
355.773	1	-1
355.944	1	-3
356.115	1	3
356.286	1	6
356.457	1	3
356.628	1	7
356.799	1	0
356.970	1	10
357.141	1	9
357.311	1	5
357.482	1	-3
357.653	1	-12
357.824	1	4
357.995	1	12
358.166	1	1
358.337	1	-1
358.508	1	13
358.679	1	-6
358.850	1	4
359.021	1	6
359.192	1	10
359.363	1	8
359.533	1	0
359.704	1	-6
359.875	1	3
360.046	1	3
360.217	1	11
360.388	1	19
360.559	1	4
360.730	1	-3
360.901	1	1
361.072	1	8
361.243	1	-2
361.414	1	11
361.584	1	-9
361.755	1	0
361.926	1	10
362.097	1	-4
362.268	1	17
362.439	1	-8
362.610	1	11
362.781	1	0
362.952	1	12
363.123	1	-4
363.293	1	8
363.464	1	0
363.635	1	4
363.806	1	9
363.977	1	4
364.148	1	-3
364.319	1	0
364.490	1	5
364.661	1	8
364.832	1	-1
365.002	1	10
365.173	1	5
365.344	1	-2
365.515	1	4
365.686	1	1
365.857	1	6
366.028	1	5
366.199	1	1
366.370	1	1
366.540	1	0
366.711	1	8
366.882	1	6
367.053	1	5
367.224	1	10
367.395	1	3
367.566	1	15
367.737	1	1
367.908	1	2
368.078	1	-8
368.249	1	6
368.420	1	7
368.591	1	15
368.762	1	0
368.933	1	3
369.104	1	3
369.274	1	8
369.445	1	6
369.616	1	1
369.787	1	-2
369.958	1	5
370.129	1	-2
370.300	1	4
370.471	1	3
370.641	1	8
370.812	1	16
370.983	1	-5
371.154	1	2
371.325	1	10
371.496	1	4
371.667	1	8
371.837	1	12
372.008	1	-3
372.179	1	2
372.350	1	4
372.521	1	7
372.692	1	11
372.863	1	5
373.033	1	1
373.204	1	0
373.375	1	-1
373.546	1	12
373.717	1	1
373.888	1	5
374.059	1	6
374.229	1	9
374.400	1	3
374.571	1	11
374.742	1	5
374.913	1	-7
375.084	1	-2
375.254	1	-3
375.425	1	0
375.596	1	14
375.767	1	0
375.938	1	-1
376.109	1	-2
376.279	1	0
376.450	1	15
376.621	1	12
376.792	1	6
376.963	1	-3
377.134	1	6
377.304	1	4
377.475	1	-3
377.646	1	2
377.817	1	9
377.988	1	7
378.159	1	4
378.329	1	3
378.500	1	2
378.671	1	9
378.842	1	2
379.013	1	6
379.184	1	9
379.354	1	6
379.525	1	8
379.696	1	3
379.867	1	-2
380.038	1	-3
380.209	1	19
380.379	1	4
380.550	1	-4
380.721	1	0
380.892	1	-2
381.063	1	4
381.233	1	5
381.404	1	-6
381.575	1	1
381.746	1	3
381.917	1	0
382.087	1	11
382.258	1	3
382.429	1	0
382.600	1	7
382.771	1	1
382.941	1	20
383.112	1	4
383.283	1	7
383.454	1	5
383.625	1	0
383.795	1	2
383.966	1	11
384.137	1	6
384.308	1	2
384.479	1	-4
384.649	1	4
384.820	1	9
384.991	1	-3
385.162	1	6
385.333	1	2
385.503	1	6
385.674	1	-4
385.845	1	9
386.016	1	5
386.187	1	-2
386.357	1	14
386.528	1	-2
386.699	1	-9
386.870	1	7
387.041	1	11
387.211	1	3
387.382	1	9
387.553	1	4
387.724	1	8
387.894	1	-7
388.065	1	3
388.236	1	6
388.407	1	3
388.578	1	6
388.748	1	6
388.919	1	10
389.090	1	13
389.261	1	8
389.431	1	-2
389.602	1	6
389.773	1	13
389.944	1	12
390.114	1	1
390.285	1	9
390.456	1	4
390.627	1	5
390.798	1	-1
390.968	1	9
391.139	1	5
391.310	1	0
391.481	1	1
391.651	1	9
391.822	1	9
391.993	1	3
392.164	1	12
392.334	1	-8
392.505	1	4
392.676	1	-1
392.847	1	11
393.017	1	5
393.188	1	7
393.359	1	22
393.530	1	18
393.700	1	2
393.871	1	12
394.042	1	-3
394.213	1	13
394.383	1	2
394.554	1	3
394.725	1	-8
394.896	1	23
395.066	1	-2
395.237	1	10
395.408	1	11
395.579	1	11
395.749	1	17
395.920	1	10
396.091	1	10
396.262	1	3
396.432	1	-4
396.603	1	9
396.774	1	-2
396.945	1	9
397.115	1	6
397.286	1	15
397.457	1	5
397.627	1	0
397.798	1	2
397.969	1	6
398.140	1	1
398.310	1	3
398.481	1	11
398.652	1	7
398.823	1	-1
398.993	1	-1
399.164	1	4
399.335	1	-2
399.505	1	-3
399.676	1	8
399.847	1	10
400.018	1	7
400.188	1	4
400.359	1	14
400.530	1	7
400.700	1	11
400.871	1	9
401.042	1	3
401.213	1	13
401.383	1	8
401.554	1	5
401.725	1	7
401.895	1	10
402.066	1	14
402.237	1	4
402.408	1	7
402.578	1	7
402.749	1	1
402.920	1	12
403.090	1	2
403.261	1	4
403.432	1	12
403.603	1	7
403.773	1	10
403.944	1	8
404.115	1	9
404.285	1	6
404.456	1	15
404.627	1	12
404.797	1	2
404.968	1	5
405.139	1	10
405.310	1	4
405.480	1	6
405.651	1	10
405.822	1	6
405.992	1	10
406.163	1	-3
406.334	1	3
406.504	1	7
406.675	1	2
406.846	1	9
407.016	1	13
407.187	1	18
407.358	1	-1
407.528	1	3
407.699	1	6
407.870	1	11
408.041	1	9
408.211	1	13
408.382	1	12
408.553	1	6
408.723	1	6
408.894	1	3
409.065	1	5
409.235	1	11
409.406	1	1
409.577	1	7
409.747	1	6
409.918	1	17
410.089	1	14
410.259	1	5
410.430	1	12
410.601	1	2
410.771	1	17
410.942	1	3
411.113	1	9
411.283	1	5
411.454	1	10
411.625	1	15
411.795	1	14
411.966	1	9
412.137	1	12
412.307	1	6
412.478	1	11
412.649	1	5
412.819	1	13
412.990	1	10
413.161	1	12
413.331	1	1
413.502	1	4
413.672	1	7
413.843	1	5
414.014	1	4
414.184	1	17
414.355	1	5
414.526	1	10
414.696	1	6
414.867	1	-3
415.038	1	8
415.208	1	2
415.379	1	7
415.550	1	14
415.720	1	5
415.891	1	2
416.062	1	11
416.232	1	21
416.403	1	11
416.573	1	5
416.744	1	16
416.915	1	4
417.085	1	10
417.256	1	2
417.427	1	8
417.597	1	1
417.768	1	15
417.939	1	2
418.109	1	2
418.280	1	12
418.450	1	25
418.621	1	9
418.792	1	14
418.962	1	2
419.133	1	4
419.304	1	5
419.474	1	10
419.645	1	3
419.815	1	14
419.986	1	18
420.157	1	10
420.327	1	3
420.498	1	1
420.669	1	9
420.839	1	19
421.010	1	10
421.180	1	-1
421.351	1	13
421.522	1	8
421.692	1	14
421.863	1	14
422.033	1	13
422.204	1	16
422.375	1	8
422.545	1	13
422.716	1	9
422.886	1	6
423.057	1	12
423.228	1	5
423.398	1	15
423.569	1	-1
423.740	1	12
423.910	1	17
424.081	1	20
424.251	1	8
424.422	1	10
424.593	1	9
424.763	1	9
424.934	1	7
425.104	1	25
425.275	1	4
425.445	1	-1
425.616	1	12
425.787	1	5
425.957	1	8
426.128	1	5
426.298	1	2
426.469	1	-6
426.640	1	8
426.810	1	0
426.981	1	18
427.151	1	8
427.322	1	9
427.493	1	3
427.663	1	0
427.834	1	0
428.004	1	13
428.175	1	4
428.345	1	3
428.516	1	-3
428.687	1	16
428.857	1	14
429.028	1	-5
429.198	1	1
429.369	1	18
429.540	1	8
429.710	1	13
429.881	1	9
430.051	1	2
430.222	1	10
430.392	1	8
430.563	1	3
430.734	1	-3
430.904	1	17
431.075	1	10
431.245	1	7
431.416	1	9
431.586	1	1
431.757	1	3
431.927	1	16
432.098	1	7
432.269	1	-2
432.439	1	-1
432.610	1	14
432.780	1	10
432.951	1	10
433.121	1	8
433.292	1	14
433.462	1	10
433.633	1	9
433.804	1	1
433.974	1	3
434.145	1	5
434.315	1	0
434.486	1	-3
434.656	1	13
434.827	1	10
434.997	1	9
435.168	1	5
435.339	1	18
435.509	1	3
435.680	1	11
435.850	1	5
436.021	1	-6
436.191	1	6
436.362	1	0
436.532	1	15
436.703	1	10
436.873	1	-1
437.044	1	6
437.214	1	0
437.385	1	2
437.556	1	8
437.726	1	9
437.897	1	2
438.067	1	12
438.238	1	14
438.408	1	9
438.579	1	-1
438.749	1	-1
438.920	1	16
439.090	1	-9
439.261	1	17
439.431	1	1
439.602	1	2
439.772	1	9
439.943	1	4
440.113	1	5
440.284	1	14
440.455	1	-1
440.625	1	9
440.796	1	2
440.966	1	16
441.137	1	6
441.307	1	7
441.478	1	-1
441.648	1	2
441.819	1	3
441.989	1	15
442.160	1	7
442.330	1	6
442.501	1	12
442.671	1	11
442.842	1	3
443.012	1	9
443.183	1	7
443.353	1	6
443.524	1	-2
443.694	1	1
443.865	1	6
444.035	1	10
444.206	1	-2
444.376	1	14
444.547	1	6
444.717	1	1
444.888	1	-12
445.058	1	5
445.229	1	2
445.399	1	9
445.570	1	2
445.740	1	-1
445.911	1	10
446.081	1	2
446.252	1	-2
446.422	1	3
446.593	1	-1
446.763	1	14
446.934	1	-2
447.104	1	2
447.275	1	7
447.445	1	6
447.616	1	3
447.786	1	2
447.957	1	5
448.127	1	7
448.298	1	8
448.468	1	11
448.639	1	-1
448.809	1	4
448.979	1	14
449.150	1	0
449.320	1	8
449.491	1	-5
449.661	1	-2
449.832	1	-4
450.002	1	6
450.173	1	12
450.343	1	5
450.514	1	14
450.684	1	-4
450.855	1	14
451.025	1	3
451.196	1	10
451.366	1	6
451.537	1	16
451.707	1	7
451.878	1	-2
452.048	1	-4
452.218	1	3
452.389	1	10
452.559	1	21
452.730	1	2
452.900	1	0
453.071	1	10
453.241	1	3
453.412	1	6
453.582	1	2
453.753	1	6
453.923	1	8
454.093	1	5
454.264	1	18
454.434	1	3
454.605	1	4
454.775	1	8
454.946	1	0
455.116	1	10
455.287	1	-5
455.457	1	5
455.628	1	-6
455.798	1	9
455.968	1	2
456.139	1	11
456.309	1	-2
456.480	1	-2
456.650	1	8
456.821	1	-2
456.991	1	-1
457.161	1	10
457.332	1	4
457.502	1	10
457.673	1	-3
457.843	1	1
458.014	1	14
458.184	1	9
458.355	1	7
458.525	1	2
458.695	1	-1
458.866	1	-2
459.036	1	0
459.207	1	-1
459.377	1	5
459.548	1	9
459.718	1	-6
459.888	1	1
460.059	1	2
460.229	1	1
460.400	1	5
460.570	1	1
460.740	1	10
460.911	1	2
461.081	1	3
461.252	1	9
461.422	1	4
461.593	1	10
461.763	1	10
461.933	1	3
462.104	1	7
462.274	1	1
462.445	1	-3
462.615	1	9
462.785	1	11
462.956	1	-3
463.126	1	-2
463.297	1	13
463.467	1	13
463.638	1	12
463.808	1	7
463.978	1	-12
464.149	1	2
464.319	1	8
464.490	1	0
464.660	1	2
464.830	1	-4
465.001	1	7
465.171	1	0
465.342	1	3
465.512	1	-1
465.682	1	-7
465.853	1	7
466.023	1	6
466.194	1	12
466.364	1	12
466.534	1	-3
466.705	1	14
466.875	1	-6
467.045	1	-1
467.216	1	3
467.386	1	10
467.557	1	13
467.727	1	-1
467.897	1	0
468.068	1	-1
468.238	1	-2
468.409	1	6
468.579	1	1
468.749	1	0
468.920	1	-9
469.090	1	3
469.260	1	11
469.431	1	1
469.601	1	13
469.772	1	9
469.942	1	3
470.112	1	1
470.283	1	8
470.453	1	8
470.623	1	13
470.794	1	2
470.964	1	-7
471.135	1	7
471.305	1	2
471.475	1	4
471.646	1	4
471.816	1	8
471.986	1	5
472.157	1	2
472.327	1	9
472.497	1	0
472.668	1	11
472.838	1	2
473.009	1	7
473.179	1	3
473.349	1	4
473.520	1	15
473.690	1	-2
473.860	1	-8
474.031	1	6
474.201	1	1
474.371	1	1
474.542	1	1
474.712	1	-3
474.882	1	1
475.053	1	5
475.223	1	6
475.394	1	-4
475.564	1	0
475.734	1	-5
475.905	1	12
476.075	1	6
476.245	1	0
476.416	1	-6
476.586	1	-6
476.756	1	7
476.927	1	0
477.097	1	4
477.267	1	4
477.438	1	8
477.608	1	9
477.778	1	-8
477.949	1	-3
478.119	1	10
478.289	1	3
478.460	1	-7
478.630	1	-8
478.800	1	-6
478.971	1	3
479.141	1	6
479.311	1	2
479.482	1	3
479.652	1	3
479.822	1	-4
479.993	1	-2
480.163	1	3
480.333	1	2
480.504	1	7
480.674	1	3
480.844	1	3
481.015	1	10
481.185	1	16
481.355	1	5
481.525	1	-11
481.696	1	6
481.866	1	9
482.036	1	1
482.207	1	4
482.377	1	-5
482.547	1	0
482.718	1	13
482.888	1	1
483.058	1	4
483.229	1	3
483.399	1	5
483.569	1	-7
483.740	1	0
483.910	1	-19
484.080	1	9
484.250	1	-8
484.421	1	-3
484.591	1	4
484.761	1	1
484.932	1	-2
485.102	1	-4
485.272	1	-1
485.443	1	-1
485.613	1	-9
485.783	1	-4
485.953	1	3
486.124	1	2
486.294	1	8
486.464	1	1
486.635	1	-2
486.805	1	0
486.975	1	-4
487.146	1	10
487.316	1	-1
487.486	1	7
487.656	1	6
487.827	1	0
487.997	1	-2
488.167	1	5
488.338	1	2
488.508	1	12
488.678	1	-6
488.848	1	6
489.019	1	1
489.189	1	13
489.359	1	8
489.529	1	5
489.700	1	1
489.870	1	11
490.040	1	-5
490.211	1	-4
490.381	1	-4
490.551	1	-4
490.721	1	6
490.892	1	-10
491.062	1	-1
491.232	1	5
491.402	1	-3
491.573	1	-4
491.743	1	-9
491.913	1	8
492.084	1	4
492.254	1	-5
492.424	1	-1
492.594	1	0
492.765	1	4
492.935	1	8
493.105	1	-1
493.275	1	2
493.446	1	-1
493.616	1	-9
493.786	1	10
493.956	1	9
494.127	1	-9
494.297	1	-13
494.467	1	-1
494.637	1	2
494.808	1	6
494.978	1	-4
495.148	1	2
495.318	1	-1
495.489	1	-3
495.659	1	9
495.829	1	2
495.999	1	5
496.170	1	1
496.340	1	-4
496.510	1	7
496.680	1	4
496.851	1	9
497.021	1	4
497.191	1	3
497.361	1	-8
497.532	1	7
497.702	1	14
497.872	1	5
498.042	1	-7
498.213	1	-1
498.383	1	1
498.553	1	15
498.723	1	2
498.894	1	1
499.064	1	-2
499.234	1	3
499.404	1	2
499.574	1	0
499.745	1	-3
499.915	1	3
500.085	1	7
500.255	1	-7
500.426	1	-5
500.596	1	-4
500.766	1	0
500.936	1	-2
501.106	1	-8
501.277	1	-10
501.447	1	9
501.617	1	-4
501.787	1	1
501.958	1	2
502.128	1	4
502.298	1	-5
502.468	1	-4
502.638	1	-2
502.809	1	-3
502.979	1	2
503.149	1	0
503.319	1	1
503.489	1	-17
503.660	1	-1
503.830	1	9
504.000	1	5
504.170	1	-8
504.340	1	-7
504.511	1	2
504.681	1	3
504.851	1	5
505.021	1	-3
505.192	1	-10
505.362	1	-1
505.532	1	4
505.702	1	9
505.872	1	-5
506.043	1	6
506.213	1	9
506.383	1	1
506.553	1	-2
506.723	1	-12
506.893	1	11
507.064	1	8
507.234	1	-7
507.404	1	0
507.574	1	1
507.744	1	-4
507.915	1	-1
508.085	1	-8
508.255	1	2
508.425	1	-3
508.595	1	0
508.766	1	-8
508.936	1	7
509.106	1	4
509.276	1	3
509.446	1	-7
509.616	1	-4
509.787	1	3
509.957	1	14
510.127	1	-8
510.297	1	-5
510.467	1	5
510.638	1	2
510.808	1	4
510.978	1	-9
511.148	1	2
511.318	1	0
511.488	1	10
511.659	1	-1
511.829	1	1
511.999	1	-5
512.169	1	-3
512.339	1	-2
512.509	1	-4
512.680	1	-1
512.850	1	3
513.020	1	1
513.190	1	-4
513.360	1	5
513.530	1	-7
513.700	1	-5
513.871	1	2
514.041	1	-4
514.211	1	1
514.381	1	0
514.551	1	1
514.721	1	7
514.892	1	1
515.062	1	1
515.232	1	-6
515.402	1	-3
515.572	1	-4
515.742	1	2
515.912	1	2
516.083	1	6
516.253	1	1
516.423	1	2
516.593	1	4
516.763	1	6
516.933	1	-9
517.104	1	5
517.274	1	-7
517.444	1	11
517.614	1	0
517.784	1	-5
517.954	1	-4
518.124	1	4
518.294	1	1
518.465	1	-12
518.635	1	-1
518.805	1	2
518.975	1	3
519.145	1	-4
519.315	1	-1
519.485	1	2
519.656	1	-6
519.826	1	-15
519.996	1	0
520.166	1	-2
520.336	1	-3
520.506	1	-7
520.676	1	12
520.846	1	-1
521.017	1	-3
521.187	1	5
521.357	1	-2
521.527	1	-10
521.697	1	-9
521.867	1	0
522.037	1	-2
522.207	1	5
522.377	1	-3
522.548	1	-13
522.718	1	-8
522.888	1	6
523.058	1	7
523.228	1	-7
523.398	1	-10
523.568	1	-3
523.738	1	8
523.909	1	5
524.079	1	-12
524.249	1	-4
524.419	1	-3
524.589	1	2
524.759	1	11
524.929	1	2
525.099	1	3
525.269	1	3
525.439	1	-6
525.610	1	5
525.780	1	-4
525.950	1	3
526.120	1	-3
526.290	1	-8
526.460	1	-9
526.630	1	0
526.800	1	0
526.970	1	9
527.140	1	4
527.311	1	0
527.481	1	-1
527.651	1	3
527.821	1	2
527.991	1	-11
528.161	1	4
528.331	1	-6
528.501	1	5
528.671	1	6
528.841	1	0
529.011	1	-10
529.181	1	-2
529.352	1	-10
529.522	1	2
529.692	1	-1
529.862	1	-7
530.032	1	-5
530.202	1	-3
530.372	1	5
530.542	1	-1
530.712	1	-3
530.882	1	3
531.052	1	-1
531.222	1	-9
531.392	1	-7
531.563	1	2
531.733	1	-2
531.903	1	0
532.073	1	-7
532.243	1	8
532.413	1	6
532.583	1	5
532.753	1	-6
532.923	1	6
533.093	1	-17
533.263	1	-3
533.433	1	-9
533.603	1	-9
533.773	1	3
533.943	1	-4
534.113	1	5
534.284	1	-5
534.454	1	-2
534.624	1	-2
534.794	1	5
534.964	1	-5
535.134	1	-13
535.304	1	0
535.474	1	0
535.644	1	10
535.814	1	-8
535.984	1	-4
536.154	1	-2
536.324	1	-3
536.494	1	6
536.664	1	-6
536.834	1	-7
537.004	1	3
537.174	1	-3
537.344	1	-3
537.514	1	-1
537.685	1	9
537.855	1	11
538.025	1	9
538.195	1	-8
538.365	1	-6
538.535	1	-7
538.705	1	-7
538.875	1	-6
539.045	1	4
539.215	1	-9
539.385	1	-2
539.555	1	-2
539.725	1	-5
539.895	1	-6
540.065	1	-2
540.235	1	5
540.405	1	-3
540.575	1	1
540.745	1	2
540.915	1	0
541.085	1	-6
541.255	1	-2
541.425	1	-3
541.595	1	-9
541.765	1	-3
541.935	1	-6
542.105	1	3
542.275	1	1
542.445	1	8
542.615	1	10
542.785	1	-8
542.955	1	4
543.125	1	-5
543.295	1	1
543.465	1	9
543.635	1	-13
543.805	1	0
543.975	1	-7
544.145	1	2
544.315	1	-2
544.485	1	-1
544.655	1	7
544.825	1	-1
544.995	1	-1
545.165	1	1
545.335	1	3
545.505	1	-6
545.675	1	10
545.845	1	4
546.015	1	-2
546.185	1	-8
546.355	1	-8
546.525	1	3
546.695	1	-6
546.865	1	1
547.035	1	6
547.205	1	8
547.375	1	14
547.545	1	2
547.715	1	-5
547.885	1	1
548.055	1	1
548.225	1	13
548.395	1	-2
548.565	1	5
548.735	1	-15
548.905	1	3
549.075	1	7
549.245	1	-1
549.415	1	-4
549.585	1	-3
549.755	1	4
549.925	1	-2
550.095	1	-11
550.265	1	-1
550.435	1	-2
550.605	1	0
550.775	1	-12
550.945	1	7
551.115	1	8
551.285	1	4
551.455	1	1
551.625	1	-9
551.795	1	-7
551.965	1	-5
552.135	1	-3
552.305	1	6
552.475	1	-2
552.645	1	-5
552.815	1	1
552.985	1	-8
553.155	1	-10
553.325	1	1
553.495	1	2
553.665	1	5
553.835	1	-3
554.004	1	3
554.174	1	-11
554.344	1	3
554.514	1	-3
554.684	1	9
554.854	1	-15
555.024	1	4
555.194	1	2
555.364	1	-4
555.534	1	-14
555.704	1	8
555.874	1	-3
556.044	1	3
556.214	1	-3
556.384	1	6
556.554	1	-5
556.724	1	-2
556.894	1	-2
557.064	1	-1
557.234	1	-4
557.404	1	-5
557.573	1	0
557.743	1	-3
557.913	1	3
558.083	1	-7
558.253	1	-3
558.423	1	2
558.593	1	5
558.763	1	3
558.933	1	-1
559.103	1	-4
559.273	1	0
559.443	1	0
559.613	1	5
559.783	1	-6
559.953	1	-3
560.122	1	-7
560.292	1	-7
560.462	1	-6
560.632	1	-9
560.802	1	12
560.972	1	-12
561.142	1	5
561.312	1	-3
561.482	1	8
561.652	1	-5
561.822	1	-6
561.992	1	5
562.162	1	-1
562.331	1	-13
562.501	1	1
562.671	1	-1
562.841	1	-14
563.011	1	-5
563.181	1	-6
563.351	1	0
563.521	1	0
563.691	1	-6
563.861	1	-8
564.031	1	5
564.201	1	-1
564.370	1	-5
564.540	1	-1
564.710	1	-9
564.880	1	-1
565.050	1	0
565.220	1	3
565.390	1	-11
565.560	1	4
565.730	1	-4
565.900	1	-5
566.069	1	11
566.239	1	14
566.409	1	7
566.579	1	-2
566.749	1	1
566.919	1	-11
567.089	1	-11
567.259	1	1
567.429	1	-1
567.599	1	8
567.768	1	-7
567.938	1	-2
568.108	1	-4
568.278	1	2
568.448	1	-4
568.618	1	0
568.788	1	1
568.958	1	-10
569.128	1	-5
569.297	1	-1
569.467	1	17
569.637	1	-3
569.807	1	-3
569.977	1	-4
570.147	1	1
570.317	1	-7
570.487	1	-4
570.656	1	0
570.826	1	2
570.996	1	7
571.166	1	8
571.336	1	-14
571.506	1	-5
571.676	1	16
571.846	1	2
572.015	1	10
572.185	1	-4
572.355	1	-2
572.525	1	-7
572.695	1	-5
572.865	1	-2
573.035	1	2
573.205	1	-4
573.374	1	-14
573.544	1	-6
573.714	1	-6
573.884	1	-7
574.054	1	1
574.224	1	-3
574.394	1	2
574.563	1	-7
574.733	1	8
574.903	1	-9
575.073	1	-5
575.243	1	-7
575.413	1	-7
575.583	1	-3
575.752	1	-8
575.922	1	11
576.092	1	1
576.262	1	3
576.432	1	-3
576.602	1	-4
576.772	1	-8
576.941	1	-5
577.111	1	0
577.281	1	0
577.451	1	2
577.621	1	2
577.791	1	-2
577.960	1	0
578.130	1	2
578.300	1	7
578.470	1	-3
578.640	1	-1
578.810	1	-2
578.979	1	-1
579.149	1	-1
579.319	1	-10
579.489	1	1
579.659	1	0
579.829	1	-9
579.998	1	-3
580.168	1	-8
580.338	1	-2
580.508	1	-9
580.678	1	0
580.848	1	-5
581.017	1	4
581.187	1	-7
581.357	1	2
581.527	1	0
581.697	1	-2
581.867	1	-5
582.036	1	-7
582.206	1	-2
582.376	1	-5
582.546	1	-7
582.716	1	2
582.885	1	-5
583.055	1	-10
583.225	1	-7
583.395	1	10
583.565	1	8
583.735	1	-4
583.904	1	-3
584.074	1	-3
584.244	1	-11
584.414	1	2
584.584	1	-7
584.753	1	-7
584.923	1	-9
585.093	1	6
585.263	1	0
585.433	1	-8
585.602	1	12
585.772	1	21
585.942	1	-15
586.112	1	-7
586.282	1	-2
586.451	1	4
586.621	1	-4
586.791	1	-11
586.961	1	1
587.131	1	-3
587.300	1	10
587.470	1	-2
587.640	1	-6
587.810	1	-12
587.980	1	-12
588.149	1	7
588.319	1	1
588.489	1	-2
588.659	1	-3
588.829	1	-2
588.998	1	2
589.168	1	-4
589.338	1	-6
589.508	1	-3
589.677	1	5
589.847	1	-8
590.017	1	-1
590.187	1	1
590.357	1	-10
590.526	1	-1
590.696	1	0
590.866	1	-6
591.036	1	1
591.205	1	-3
591.375	1	-2
591.545	1	-5
591.715	1	6
591.885	1	8
592.054	1	7
592.224	1	-6
592.394	1	-7
592.564	1	1
592.733	1	-1
592.903	1	0
593.073	1	-3
593.243	1	10
593.412	1	-8
593.582	1	0
593.752	1	-5
593.922	1	-3
594.091	1	8
594.261	1	-9
594.431	1	4
594.601	1	-7
594.771	1	0
594.940	1	-6
595.110	1	-2
595.280	1	-1
595.450	1	1
595.619	1	0
595.789	1	-10
595.959	1	4
596.129	1	-6
596.298	1	8
596.468	1	-10
596.638	1	-7
596.808	1	-5
596.977	1	-4
597.147	1	-5
597.317	1	0
597.487	1	8
597.656	1	5
597.826	1	12
597.996	1	-6
598.166	1	-1
598.335	1	-13
598.505	1	3
598.675	1	-2
598.844	1	9
599.014	1	-10
599.184	1	2
599.354	1	-1
599.523	1	-8
599.693	1	1
599.863	1	-3
600.033	1	1
600.202	1	-11
600.372	1	-12
600.542	1	-7
600.712	1	-5
600.881	1	1
601.051	1	8
601.221	1	0
601.390	1	0
601.560	1	-1
601.730	1	-6
601.900	1	-2
602.069	1	-1
602.239	1	-5
602.409	1	-2
602.578	1	2
602.748	1	3
602.918	1	-10
603.088	1	8
603.257	1	-9
603.427	1	-8
603.597	1	-7
603.767	1	-6
603.936	1	4
604.106	1	-2
604.276	1	-2
604.445	1	-3
604.615	1	-5
604.785	1	5
604.954	1	4
605.124	1	6
605.294	1	-10
605.464	1	-4
605.633	1	-3
605.803	1	7
605.973	1	2
606.142	1	2
606.312	1	1
606.482	1	-7
606.652	1	0
606.821	1	0
606.991	1	-3
607.161	1	-2
607.330	1	-9
607.500	1	-3
607.670	1	1
607.839	1	-5
608.009	1	-10
608.179	1	1
608.348	1	5
608.518	1	8
608.688	1	-4
608.858	1	-11
609.027	1	9
609.197	1	2
609.367	1	-15
609.536	1	-5
609.706	1	7
609.876	1	9
610.045	1	-3
610.215	1	3
610.385	1	-1
610.554	1	-2
610.724	1	0
610.894	1	-1
611.063	1	-1
611.233	1	7
611.403	1	0
611.572	1	-7
611.742	1	-1
611.912	1	-1
612.081	1	5
612.251	1	1
612.421	1	-6
612.590	1	3
612.760	1	-2
612.930	1	1
613.099	1	-3
613.269	1	-9
613.439	1	-4
613.608	1	-1
613.778	1	-1
613.948	1	7
614.117	1	-10
614.287	1	5
614.457	1	1
614.626	1	-6
614.796	1	-4
614.966	1	-3
615.135	1	9
615.305	1	2
615.475	1	-1
615.644	1	12
615.814	1	10
615.984	1	-5
616.153	1	-2
616.323	1	-5
616.493	1	-3
616.662	1	-8
616.832	1	3
617.002	1	1
617.171	1	-4
617.341	1	12
617.511	1	-14
617.680	1	-5
617.850	1	-3
618.019	1	-2
618.189	1	7
618.359	1	3
618.528	1	-2
618.698	1	5
618.868	1	1
619.037	1	-1
619.207	1	-14
619.377	1	-4
619.546	1	3
619.716	1	-16
619.885	1	1
620.055	1	-8
620.225	1	4
620.394	1	7
620.564	1	4
620.734	1	0
620.903	1	-9
621.073	1	4
621.242	1	-4
621.412	1	-2
621.582	1	-3
621.751	1	-2
621.921	1	3
622.091	1	-2
622.260	1	0
622.430	1	5
622.599	1	-9
622.769	1	-12
622.939	1	-8
623.108	1	-9
623.278	1	-4
623.448	1	-3
623.617	1	2
623.787	1	4
623.956	1	-5
624.126	1	0
624.296	1	4
624.465	1	6
624.635	1	-2
624.804	1	-11
624.974	1	-11
625.144	1	-3
625.313	1	16
625.483	1	6
625.652	1	5
625.822	1	2
625.992	1	-4
626.161	1	-8
626.331	1	-13
626.501	1	-5
626.670	1	-10
626.840	1	-3
627.009	1	-4
627.179	1	1
627.348	1	-2
627.518	1	7
627.688	1	-5
627.857	1	9
628.027	1	3
628.196	1	1
628.366	1	-8
628.536	1	-1
628.705	1	0
628.875	1	2
629.044	1	0
629.214	1	5
629.384	1	10
629.553	1	-4
629.723	1	0
629.892	1	-3
630.062	1	-6
630.232	1	4
630.401	1	2
630.571	1	-2
630.740	1	-5
630.910	1	9
631.079	1	5
631.249	1	-9
631.419	1	-1
631.588	1	6
631.758	1	-5
631.927	1	5
632.097	1	-7
632.266	1	2
632.436	1	-4
632.606	1	-5
632.775	1	4
632.945	1	-8
633.114	1	-10
633.284	1	-6
633.453	1	-1
633.623	1	9
633.793	1	0
633.962	1	1
634.132	1	4
634.301	1	10
634.471	1	4
634.640	1	-5
634.810	1	3
634.979	1	-7
635.149	1	-7
635.319	1	-2
635.488	1	-6
635.658	1	-7
635.827	1	-5
635.997	1	7
636.166	1	5
636.336	1	-1
636.505	1	2
636.675	1	3
636.845	1	-9
637.014	1	-11
637.184	1	2
637.353	1	0
637.523	1	-1
637.692	1	0
637.862	1	-2
638.031	1	-5
638.201	1	4
638.370	1	-5
638.540	1	-7
638.710	1	-5
638.879	1	-9
639.049	1	2
639.218	1	6
639.388	1	0
639.557	1	-3
639.727	1	-3
639.896	1	-8
640.066	1	1
640.235	1	-4
640.405	1	-4
640.574	1	4
640.744	1	-12
640.914	1	-2
641.083	1	0
641.253	1	2
641.422	1	-4
641.592	1	-1
641.761	1	-7
641.931	1	7
642.100	1	0
642.270	1	4
642.439	1	-2
642.609	1	8
642.778	1	4
642.948	1	8
643.117	1	-5
643.287	1	-2
643.456	1	-7
643.626	1	-7
643.795	1	-1
643.965	1	-1
644.134	1	3
644.304	1	-2
644.473	1	-1
644.643	1	-6
644.812	1	-9
644.982	1	-2
645.151	1	-3
645.321	1	6
645.490	1	7
645.660	1	5
645.829	1	-2
645.999	1	-9
646.168	1	11
646.338	1	-6
646.507	1	2
646.677	1	0
646.846	1	1
647.016	1	15
647.185	1	-8
647.355	1	8
647.524	1	-1
647.694	1	-16
647.863	1	-4
648.033	1	3
648.202	1	-2
648.372	1	-16
648.541	1	-4
648.711	1	2
648.880	1	8
649.050	1	-6
649.219	1	-5
649.389	1	-9
649.558	1	7
649.728	1	-5
649.897	1	10
650.067	1	1
650.236	1	-4
650.406	1	-14
650.575	1	2
650.745	1	2
650.914	1	3
651.084	1	1
651.253	1	5
651.423	1	-7
651.592	1	7
651.762	1	-10
651.931	1	0
652.101	1	-4
652.270	1	3
652.440	1	4
652.609	1	-4
652.778	1	-1
652.948	1	0
653.117	1	6
653.287	1	-17
653.456	1	1
653.626	1	-1
653.795	1	2
653.965	1	-11
654.134	1	-9
654.304	1	-2
654.473	1	-3
654.643	1	5
654.812	1	2
654.982	1	-1
655.151	1	2
655.320	1	-3
655.490	1	-6
655.659	1	3
655.829	1	9
655.998	1	-5
656.168	1	-2
656.337	1	4
656.507	1	0
656.676	1	-13
656.846	1	-5
657.015	1	-1
657.184	1	-1
657.354	1	5
657.523	1	-5
657.693	1	4
657.862	1	-2
658.032	1	-5
658.201	1	0
658.371	1	-1
658.540	1	-16
658.709	1	-1
658.879	1	8
659.048	1	6
659.218	1	-1
659.387	1	-1
659.557	1	1
659.726	1	8
659.895	1	-11
660.065	1	-15
660.234	1	-1
660.404	1	-2
660.573	1	-5
660.743	1	-1
660.912	1	1
661.081	1	-4
661.251	1	-9
661.420	1	2
661.590	1	-8
661.759	1	0
661.929	1	7
662.098	1	-1
662.267	1	-8
662.437	1	-2
662.606	1	-9
662.776	1	0
662.945	1	4
663.115	1	13
663.284	1	-1
663.453	1	-13
663.623	1	2
663.792	1	0
663.962	1	-7
664.131	1	-3
664.300	1	-14
664.470	1	-8
664.639	1	-7
664.809	1	-5
664.978	1	10
665.148	1	4
665.317	1	8
665.486	1	0
665.656	1	1
665.825	1	-7
665.995	1	-11
666.164	1	1
666.333	1	-2
666.503	1	-8
666.672	1	9
666.842	1	8
667.011	1	3
667.180	1	1
667.350	1	1
667.519	1	5
667.689	1	-9
667.858	1	0
668.027	1	-3
668.197	1	-11
668.366	1	3
668.536	1	5
668.705	1	-7
668.874	1	2
669.044	1	1
669.213	1	1
669.382	1	8
669.552	1	1
669.721	1	-5
669.891	1	-7
670.060	1	1
670.229	1	-2
670.399	1	8
670.568	1	3
670.738	1	1
670.907	1	4
671.076	1	-7
671.246	1	-2
671.415	1	5
671.584	1	3
671.754	1	-5
671.923	1	-2
672.093	1	9
672.262	1	-6
672.431	1	2
672.601	1	-6
672.770	1	0
672.939	1	7
673.109	1	-9
673.278	1	2
673.448	1	3
673.617	1	-1
673.786	1	-7
