325.333	1	9
325.504	1	-5
325.675	1	6
325.846	1	0
326.017	1	6
326.188	1	-1
326.359	1	10
326.531	1	0
326.702	1	4
326.873	1	11
327.044	1	13
327.215	1	0
327.386	1	-1
327.557	1	-4
327.728	1	-4
327.899	1	7
328.070	1	11
328.241	1	-3
328.412	1	1
328.583	1	0
328.754	1	13
328.926	1	7
329.097	1	-2
329.268	1	5
329.439	1	7
329.610	1	8
329.781	1	6
329.952	1	5
330.123	1	5
330.294	1	12
330.465	1	-8
330.636	1	2
330.807	1	7
330.978	1	3
331.149	1	11
331.320	1	9
331.492	1	2
331.663	1	5
331.834	1	5
332.005	1	16
332.176	1	5
332.347	1	-3
332.518	1	12
332.689	1	3
332.860	1	5
333.031	1	11
333.202	1	-2
333.373	1	13
333.544	1	5
333.715	1	2
333.886	1	4
334.057	1	-5
334.228	1	14
334.399	1	14
334.570	1	1
334.741	1	0
334.912	1	0
335.084	1	10
335.255	1	15
335.426	1	5
335.597	1	7
335.768	1	6
335.939	1	12
336.110	1	6
336.281	1	3
336.452	1	11
336.623	1	3
336.794	1	10
336.965	1	2
337.136	1	18
337.307	1	3
337.478	1	0
337.649	1	9
337.820	1	5
337.991	1	6
338.162	1	3
338.333	1	4
338.504	1	13
338.675	1	3
338.846	1	-3
339.017	1	6
339.188	1	15
339.359	1	19
339.530	1	4
339.701	1	13
339.872	1	19
340.043	1	7
340.214	1	7
340.385	1	2
340.556	1	17
340.727	1	14
340.898	1	7
341.069	1	-2
341.240	1	0
341.411	1	14
341.582	1	-6
341.753	1	20
341.924	1	6
342.095	1	0
342.266	1	12
342.437	1	5
342.608	1	6
342.779	1	2
342.950	1	11
343.121	1	12
343.292	1	15
343.463	1	24
343.634	1	17
343.805	1	13
343.976	1	16
344.147	1	11
344.318	1	-2
344.489	1	3
344.660	1	8
344.831	1	20
345.002	1	16
345.173	1	12
345.344	1	4
345.515	1	15
345.686	1	14
345.857	1	21
346.028	1	12
346.199	1	15
346.370	1	5
346.541	1	1
346.712	1	7
346.883	1	4
347.054	1	12
347.225	1	0
347.396	1	6
347.567	1	7
347.738	1	7
347.909	1	10
348.080	1	7
348.251	1	8
348.422	1	19
348.593	1	13
348.764	1	3
348.935	1	12
349.106	1	-1
349.277	1	11
349.448	1	3
349.619	1	13
349.790	1	13
349.961	1	-2
350.132	1	9
350.303	1	9
350.474	1	12
350.645	1	9
350.816	1	21
350.987	1	15
351.157	1	18
351.328	1	12
351.499	1	19
351.670	1	15
351.841	1	24
352.012	1	10
352.183	1	17
352.354	1	17
352.525	1	18
352.696	1	8
352.867	1	17
353.038	1	15
353.209	1	19
353.380	1	22
353.551	1	19
353.722	1	13
353.893	1	18
354.064	1	18
354.235	1	7
354.406	1	4
354.576	1	13
354.747	1	21
354.918	1	9
355.089	1	18
355.260	1	15
355.431	1	8
355.602	1	15
355.773	1	10
355.944	1	11
356.115	1	5
356.286	1	19
356.457	1	8
356.628	1	14
356.799	1	19
356.970	1	23
357.141	1	20
357.311	1	16
357.482	1	8
357.653	1	3
357.824	1	20
357.995	1	15
358.166	1	18
358.337	1	9
358.508	1	21
358.679	1	6
358.850	1	24
359.021	1	23
359.192	1	19
359.363	1	18
359.533	1	17
359.704	1	4
359.875	1	5
360.046	1	15
360.217	1	17
360.388	1	27
360.559	1	31
360.730	1	11
360.901	1	19
361.072	1	23
361.243	1	15
361.414	1	15
361.584	1	10
361.755	1	17
361.926	1	25
362.097	1	15
362.268	1	28
362.439	1	13
362.610	1	16
362.781	1	14
362.952	1	16
363.123	1	7
363.293	1	11
363.464	1	13
363.635	1	19
363.806	1	12
363.977	1	9
364.148	1	15
364.319	1	11
364.490	1	19
364.661	1	16
364.832	1	1
365.002	1	24
365.173	1	14
365.344	1	9
365.515	1	16
365.686	1	19
365.857	1	24
366.028	1	17
366.199	1	23
366.370	1	15
366.540	1	11
366.711	1	15
366.882	1	22
367.053	1	19
367.224	1	23
367.395	1	12
367.566	1	21
367.737	1	17
367.908	1	17
368.078	1	17
368.249	1	27
368.420	1	16
368.591	1	11
368.762	1	28
368.933	1	18
369.104	1	23
369.274	1	40
369.445	1	18
369.616	1	14
369.787	1	17
369.958	1	22
370.129	1	24
370.300	1	12
370.471	1	19
370.641	1	30
370.812	1	16
370.983	1	11
371.154	1	21
371.325	1	12
371.496	1	15
371.667	1	19
371.837	1	12
372.008	1	18
372.179	1	10
372.350	1	18
372.521	1	23
372.692	1	24
372.863	1	27
373.033	1	17
373.204	1	7
373.375	1	21
373.546	1	17
373.717	1	25
373.888	1	20
374.059	1	19
374.229	1	22
374.400	1	20
374.571	1	8
374.742	1	22
374.913	1	1
375.084	1	20
375.254	1	11
375.425	1	20
375.596	1	18
375.767	1	26
375.938	1	5
376.109	1	18
376.279	1	23
376.450	1	14
376.621	1	23
376.792	1	28
376.963	1	13
377.134	1	16
377.304	1	27
377.475	1	9
377.646	1	15
377.817	1	13
377.988	1	35
378.159	1	22
378.329	1	18
378.500	1	35
378.671	1	24
378.842	1	27
379.013	1	24
379.184	1	21
379.354	1	21
379.525	1	21
379.696	1	18
379.867	1	20
380.038	1	16
380.209	1	26
380.379	1	22
380.550	1	11
380.721	1	25
380.892	1	14
381.063	1	12
381.233	1	20
381.404	1	17
381.575	1	21
381.746	1	24
381.917	1	14
382.087	1	23
382.258	1	26
382.429	1	17
382.600	1	17
382.771	1	20
382.941	1	18
383.112	1	16
383.283	1	31
383.454	1	18
383.625	1	22
383.795	1	23
383.966	1	23
384.137	1	25
384.308	1	24
384.479	1	17
384.649	1	24
384.820	1	28
384.991	1	25
385.162	1	38
385.333	1	29
385.503	1	29
385.674	1	24
385.845	1	30
386.016	1	32
386.187	1	17
386.357	1	34
386.528	1	26
386.699	1	25
386.870	1	22
387.041	1	29
387.211	1	26
387.382	1	37
387.553	1	27
387.724	1	21
387.894	1	18
388.065	1	27
388.236	1	25
388.407	1	25
388.578	1	33
388.748	1	29
388.919	1	24
389.090	1	31
389.261	1	29
389.431	1	21
389.602	1	14
389.773	1	32
389.944	1	27
390.114	1	24
390.285	1	30
390.456	1	25
390.627	1	27
390.798	1	21
390.968	1	25
391.139	1	27
391.310	1	30
391.481	1	21
391.651	1	41
391.822	1	34
391.993	1	31
392.164	1	38
392.334	1	24
392.505	1	33
392.676	1	12
392.847	1	20
393.017	1	26
393.188	1	24
393.359	1	28
393.530	1	49
393.700	1	16
393.871	1	28
394.042	1	23
394.213	1	21
394.383	1	14
394.554	1	14
394.725	1	5
394.896	1	28
395.066	1	25
395.237	1	28
395.408	1	39
395.579	1	32
395.749	1	36
395.920	1	25
396.091	1	20
396.262	1	38
396.432	1	14
396.603	1	18
396.774	1	30
396.945	1	31
397.115	1	27
397.286	1	39
397.457	1	27
397.627	1	21
397.798	1	36
397.969	1	26
398.140	1	30
398.310	1	36
398.481	1	25
398.652	1	28
398.823	1	31
398.993	1	29
399.164	1	28
399.335	1	28
399.505	1	20
399.676	1	35
399.847	1	16
400.018	1	30
400.188	1	36
400.359	1	30
400.530	1	28
400.700	1	31
400.871	1	30
401.042	1	30
401.213	1	27
401.383	1	37
401.554	1	27
401.725	1	20
401.895	1	25
402.066	1	26
402.237	1	16
402.408	1	32
402.578	1	24
402.749	1	22
402.920	1	38
403.090	1	17
403.261	1	29
403.432	1	31
403.603	1	32
403.773	1	47
403.944	1	35
404.115	1	39
404.285	1	25
404.456	1	43
404.627	1	30
404.797	1	21
404.968	1	25
405.139	1	40
405.310	1	13
405.480	1	33
405.651	1	25
405.822	1	19
405.992	1	43
406.163	1	25
406.334	1	24
406.504	1	30
406.675	1	27
406.846	1	26
407.016	1	30
407.187	1	23
407.358	1	28
407.528	1	28
407.699	1	33
407.870	1	34
408.041	1	38
408.211	1	36
408.382	1	39
408.553	1	27
408.723	1	31
408.894	1	36
409.065	1	29
409.235	1	29
409.406	1	30
409.577	1	35
409.747	1	32
409.918	1	45
410.089	1	40
410.259	1	32
410.430	1	33
410.601	1	33
410.771	1	34
410.942	1	31
411.113	1	30
411.283	1	29
411.454	1	39
411.625	1	29
411.795	1	44
411.966	1	33
412.137	1	46
412.307	1	31
412.478	1	30
412.649	1	33
412.819	1	36
412.990	1	43
413.161	1	33
413.331	1	25
413.502	1	25
413.672	1	32
413.843	1	36
414.014	1	27
414.184	1	47
414.355	1	37
414.526	1	30
414.696	1	37
414.867	1	23
415.038	1	25
415.208	1	26
415.379	1	35
415.550	1	38
415.720	1	27
415.891	1	43
416.062	1	41
416.232	1	37
416.403	1	37
416.573	1	25
416.744	1	38
416.915	1	31
417.085	1	31
417.256	1	37
417.427	1	33
417.597	1	32
417.768	1	21
417.939	1	25
418.109	1	33
418.280	1	16
418.450	1	51
418.621	1	27
418.792	1	25
418.962	1	28
419.133	1	31
419.304	1	24
419.474	1	36
419.645	1	30
419.815	1	39
419.986	1	36
420.157	1	32
420.327	1	16
420.498	1	30
420.669	1	37
420.839	1	28
421.010	1	32
421.180	1	25
421.351	1	26
421.522	1	32
421.692	1	41
421.863	1	31
422.033	1	31
422.204	1	40
422.375	1	36
422.545	1	34
422.716	1	24
422.886	1	37
423.057	1	31
423.228	1	29
423.398	1	34
423.569	1	38
423.740	1	25
423.910	1	34
424.081	1	35
424.251	1	32
424.422	1	35
424.593	1	32
424.763	1	36
424.934	1	32
425.104	1	45
425.275	1	20
425.445	1	32
425.616	1	29
425.787	1	32
425.957	1	31
426.128	1	35
426.298	1	42
426.469	1	20
426.640	1	26
426.810	1	15
426.981	1	36
427.151	1	20
427.322	1	21
427.493	1	26
427.663	1	37
427.834	1	24
428.004	1	39
428.175	1	28
428.345	1	29
428.516	1	20
428.687	1	41
428.857	1	36
429.028	1	20
429.198	1	27
429.369	1	29
429.540	1	42
429.710	1	29
429.881	1	27
430.051	1	21
430.222	1	35
430.392	1	33
430.563	1	33
430.734	1	31
430.904	1	28
431.075	1	28
431.245	1	27
431.416	1	36
431.586	1	21
431.757	1	33
431.927	1	30
432.098	1	27
432.269	1	37
432.439	1	25
432.610	1	33
432.780	1	37
432.951	1	22
433.121	1	24
433.292	1	38
433.462	1	27
433.633	1	30
433.804	1	31
433.974	1	28
434.145	1	23
434.315	1	33
434.486	1	21
434.656	1	25
434.827	1	29
434.997	1	34
435.168	1	19
435.339	1	40
435.509	1	31
435.680	1	25
435.850	1	15
436.021	1	22
436.191	1	13
436.362	1	33
436.532	1	44
436.703	1	21
436.873	1	31
437.044	1	30
437.214	1	18
437.385	1	28
437.556	1	36
437.726	1	35
437.897	1	27
438.067	1	26
438.238	1	32
438.408	1	25
438.579	1	29
438.749	1	31
438.920	1	46
439.090	1	21
439.261	1	34
439.431	1	19
439.602	1	24
439.772	1	33
439.943	1	18
440.113	1	30
440.284	1	34
440.455	1	31
440.625	1	28
440.796	1	27
440.966	1	25
441.137	1	27
441.307	1	35
441.478	1	15
441.648	1	34
441.819	1	21
441.989	1	30
442.160	1	24
442.330	1	21
442.501	1	13
442.671	1	18
442.842	1	28
443.012	1	13
443.183	1	16
443.353	1	20
443.524	1	14
443.694	1	18
443.865	1	28
444.035	1	19
444.206	1	19
444.376	1	23
444.547	1	25
444.717	1	13
444.888	1	14
445.058	1	25
445.229	1	20
445.399	1	30
445.570	1	18
445.740	1	18
445.911	1	32
446.081	1	16
446.252	1	25
446.422	1	19
446.593	1	21
446.763	1	27
446.934	1	15
447.104	1	14
447.275	1	28
447.445	1	25
447.616	1	28
447.786	1	29
447.957	1	25
448.127	1	24
448.298	1	35
448.468	1	26
448.639	1	22
448.809	1	20
448.979	1	24
449.150	1	17
449.320	1	29
449.491	1	12
449.661	1	13
449.832	1	22
450.002	1	22
450.173	1	18
450.343	1	20
450.514	1	34
450.684	1	30
450.855	1	31
451.025	1	21
451.196	1	24
451.366	1	31
451.537	1	40
451.707	1	28
451.878	1	21
452.048	1	10
452.218	1	20
452.389	1	25
452.559	1	35
452.730	1	16
452.900	1	12
453.071	1	34
453.241	1	23
453.412	1	21
453.582	1	27
453.753	1	23
453.923	1	22
454.093	1	23
454.264	1	27
454.434	1	25
454.605	1	21
454.775	1	15
454.946	1	11
455.116	1	27
455.287	1	16
455.457	1	18
455.628	1	10
455.798	1	18
455.968	1	25
456.139	1	30
456.309	1	16
456.480	1	25
456.650	1	23
456.821	1	15
456.991	1	28
457.161	1	13
457.332	1	18
457.502	1	26
457.673	1	15
457.843	1	23
458.014	1	26
458.184	1	16
458.355	1	29
458.525	1	28
458.695	1	13
458.866	1	17
459.036	1	19
459.207	1	18
459.377	1	26
459.548	1	20
459.718	1	16
459.888	1	15
460.059	1	17
460.229	1	6
460.400	1	8
460.570	1	17
460.740	1	15
460.911	1	10
461.081	1	26
461.252	1	20
461.422	1	25
461.593	1	25
461.763	1	27
461.933	1	20
462.104	1	2
462.274	1	11
462.445	1	19
462.615	1	14
462.785	1	25
462.956	1	9
463.126	1	17
463.297	1	15
463.467	1	33
463.638	1	18
463.808	1	29
463.978	1	16
464.149	1	10
464.319	1	26
464.490	1	18
464.660	1	15
464.830	1	18
465.001	1	15
465.171	1	12
465.342	1	15
465.512	1	18
465.682	1	4
465.853	1	10
466.023	1	10
466.194	1	20
466.364	1	32
466.534	1	3
466.705	1	29
466.875	1	17
467.045	1	12
467.216	1	9
467.386	1	15
467.557	1	23
467.727	1	25
467.897	1	17
468.068	1	2
468.238	1	22
468.409	1	20
468.579	1	14
468.749	1	8
468.920	1	14
469.090	1	26
469.260	1	17
469.431	1	1
469.601	1	16
469.772	1	29
469.942	1	27
470.112	1	7
470.283	1	12
470.453	1	20
470.623	1	12
470.794	1	14
470.964	1	8
471.135	1	18
471.305	1	8
471.475	1	14
471.646	1	22
471.816	1	14
471.986	1	10
472.157	1	15
472.327	1	19
472.497	1	15
472.668	1	20
472.838	1	9
473.009	1	17
473.179	1	7
473.349	1	3
473.520	1	25
473.690	1	10
473.860	1	9
474.031	1	7
474.201	1	10
474.371	1	16
474.542	1	4
474.712	1	8
474.882	1	20
475.053	1	11
475.223	1	18
475.394	1	9
475.564	1	9
475.734	1	6
475.905	1	18
476.075	1	26
476.245	1	14
476.416	1	4
476.586	1	15
476.756	1	19
476.927	1	15
477.097	1	20
477.267	1	9
477.438	1	23
477.608	1	20
477.778	1	5
477.949	1	5
478.119	1	8
478.289	1	4
478.460	1	2
478.630	1	13
478.800	1	23
478.971	1	4
479.141	1	11
479.311	1	16
479.482	1	8
479.652	1	16
479.822	1	5
479.993	1	21
480.163	1	9
480.333	1	14
480.504	1	10
480.674	1	17
480.844	1	6
481.015	1	19
481.185	1	20
481.355	1	11
481.525	1	4
481.696	1	15
481.866	1	17
482.036	1	10
482.207	1	21
482.377	1	12
482.547	1	22
482.718	1	13
482.888	1	15
483.058	1	18
483.229	1	16
483.399	1	20
483.569	1	3
483.740	1	15
483.910	1	6
484.080	1	14
484.250	1	3
484.421	1	8
484.591	1	10
484.761	1	15
484.932	1	14
485.102	1	16
485.272	1	8
485.443	1	17
485.613	1	6
485.783	1	8
485.953	1	8
486.124	1	11
486.294	1	20
486.464	1	15
486.635	1	11
486.805	1	8
486.975	1	14
487.146	1	10
487.316	1	6
487.486	1	19
487.656	1	8
487.827	1	11
487.997	1	1
488.167	1	11
488.338	1	7
488.508	1	12
488.678	1	9
488.848	1	8
489.019	1	10
489.189	1	20
489.359	1	3
489.529	1	10
489.700	1	10
489.870	1	10
490.040	1	8
490.211	1	5
490.381	1	8
490.551	1	12
490.721	1	24
490.892	1	-8
491.062	1	-4
491.232	1	14
491.402	1	0
491.573	1	19
491.743	1	5
491.913	1	6
492.084	1	13
492.254	1	8
492.424	1	9
492.594	1	10
492.765	1	12
492.935	1	21
493.105	1	7
493.275	1	4
493.446	1	1
493.616	1	7
493.786	1	16
493.956	1	6
494.127	1	10
494.297	1	-1
494.467	1	9
494.637	1	7
494.808	1	12
494.978	1	9
495.148	1	4
495.318	1	15
495.489	1	-4
495.659	1	10
495.829	1	13
495.999	1	19
496.170	1	7
496.340	1	10
496.510	1	8
496.680	1	5
496.851	1	9
497.021	1	13
497.191	1	17
497.361	1	-4
497.532	1	-2
497.702	1	11
497.872	1	8
498.042	1	9
498.213	1	3
498.383	1	17
498.553	1	12
498.723	1	8
498.894	1	13
499.064	1	15
499.234	1	9
499.404	1	14
499.574	1	12
499.745	1	0
499.915	1	7
500.085	1	10
500.255	1	4
500.426	1	12
500.596	1	-4
500.766	1	-2
500.936	1	-2
501.106	1	7
501.277	1	-4
501.447	1	7
501.617	1	7
501.787	1	12
501.958	1	11
502.128	1	10
502.298	1	11
502.468	1	9
502.638	1	11
502.809	1	1
502.979	1	11
503.149	1	7
503.319	1	17
503.489	1	-6
503.660	1	8
503.830	1	5
504.000	1	10
504.170	1	2
504.340	1	-2
504.511	1	3
504.681	1	9
504.851	1	1
505.021	1	6
505.192	1	3
505.362	1	-1
505.532	1	6
505.702	1	24
505.872	1	9
506.043	1	8
506.213	1	14
506.383	1	17
506.553	1	5
506.723	1	-1
506.893	1	11
507.064	1	16
507.234	1	6
507.404	1	1
507.574	1	10
507.744	1	9
507.915	1	4
508.085	1	13
508.255	1	9
508.425	1	4
508.595	1	3
508.766	1	1
508.936	1	8
509.106	1	-2
509.276	1	7
509.446	1	-6
509.616	1	5
509.787	1	4
509.957	1	12
510.127	1	-4
510.297	1	-5
510.467	1	9
510.638	1	2
510.808	1	13
510.978	1	-6
511.148	1	6
511.318	1	2
511.488	1	10
511.659	1	7
511.829	1	1
511.999	1	7
512.169	1	12
512.339	1	15
512.509	1	-2
512.680	1	3
512.850	1	12
513.020	1	3
513.190	1	-7
513.360	1	6
513.530	1	5
513.700	1	4
513.871	1	-8
514.041	1	5
514.211	1	7
514.381	1	13
514.551	1	-1
514.721	1	5
514.892	1	6
515.062	1	5
515.232	1	-1
515.402	1	5
515.572	1	3
515.742	1	6
515.912	1	8
516.083	1	17
516.253	1	16
516.423	1	1
516.593	1	3
516.763	1	12
516.933	1	2
517.104	1	4
517.274	1	0
517.444	1	10
517.614	1	6
517.784	1	12
517.954	1	0
518.124	1	12
518.294	1	9
518.465	1	8
518.635	1	5
518.805	1	5
518.975	1	9
519.145	1	14
519.315	1	5
519.485	1	6
519.656	1	-6
519.826	1	-6
519.996	1	3
520.166	1	8
520.336	1	7
520.506	1	4
520.676	1	10
520.846	1	-3
521.017	1	9
521.187	1	3
521.357	1	2
521.527	1	4
521.697	1	2
521.867	1	9
522.037	1	-6
522.207	1	7
522.377	1	10
522.548	1	-11
522.718	1	7
522.888	1	-1
523.058	1	8
523.228	1	-7
523.398	1	1
523.568	1	2
523.738	1	1
523.909	1	5
524.079	1	3
524.249	1	-2
524.419	1	3
524.589	1	14
524.759	1	8
524.929	1	0
525.099	1	-5
525.269	1	-7
525.439	1	-1
525.610	1	19
525.780	1	6
525.950	1	-5
526.120	1	-6
526.290	1	4
526.460	1	-1
526.630	1	5
526.800	1	-4
526.970	1	5
527.140	1	1
527.311	1	2
527.481	1	3
527.651	1	1
527.821	1	-2
527.991	1	2
528.161	1	1
528.331	1	-6
528.501	1	-4
528.671	1	1
528.841	1	7
529.011	1	3
529.181	1	-5
529.352	1	4
529.522	1	5
529.692	1	7
529.862	1	-8
530.032	1	-5
530.202	1	0
530.372	1	-2
530.542	1	1
530.712	1	10
530.882	1	10
531.052	1	7
531.222	1	5
531.392	1	2
531.563	1	6
531.733	1	-2
531.903	1	-3
532.073	1	-3
532.243	1	11
532.413	1	22
532.583	1	6
532.753	1	-2
532.923	1	9
533.093	1	-2
533.263	1	1
533.433	1	-5
533.603	1	-6
533.773	1	1
533.943	1	1
534.113	1	5
534.284	1	6
534.454	1	0
534.624	1	4
534.794	1	-1
534.964	1	3
535.134	1	-4
535.304	1	9
535.474	1	12
535.644	1	5
535.814	1	6
535.984	1	10
536.154	1	2
536.324	1	-5
536.494	1	1
536.664	1	5
536.834	1	2
537.004	1	3
537.174	1	8
537.344	1	4
537.514	1	-4
537.685	1	5
537.855	1	7
538.025	1	15
538.195	1	-5
538.365	1	2
538.535	1	1
538.705	1	-2
538.875	1	8
539.045	1	4
539.215	1	-18
539.385	1	5
539.555	1	0
539.725	1	-6
539.895	1	4
540.065	1	-3
540.235	1	10
540.405	1	7
540.575	1	8
540.745	1	10
540.915	1	8
541.085	1	2
541.255	1	-2
541.425	1	2
541.595	1	-4
541.765	1	8
541.935	1	-1
542.105	1	3
542.275	1	0
542.445	1	6
542.615	1	6
542.785	1	4
542.955	1	15
543.125	1	0
543.295	1	-2
543.465	1	6
543.635	1	-2
543.805	1	12
543.975	1	6
544.145	1	4
544.315	1	-12
544.485	1	10
544.655	1	-1
544.825	1	10
544.995	1	-1
545.165	1	3
545.335	1	4
545.505	1	-4
545.675	1	2
545.845	1	12
546.015	1	-4
546.185	1	0
546.355	1	3
546.525	1	11
546.695	1	6
546.865	1	6
547.035	1	0
547.205	1	12
547.375	1	4
547.545	1	6
547.715	1	1
547.885	1	-4
548.055	1	3
548.225	1	8
548.395	1	2
548.565	1	8
548.735	1	-6
548.905	1	-1
549.075	1	0
549.245	1	4
549.415	1	7
549.585	1	0
549.755	1	8
549.925	1	7
550.095	1	-7
550.265	1	-6
550.435	1	2
550.605	1	-1
550.775	1	-5
550.945	1	0
551.115	1	11
551.285	1	5
551.455	1	3
551.625	1	5
551.795	1	-4
551.965	1	-10
552.135	1	-12
552.305	1	8
552.475	1	4
552.645	1	0
552.815	1	6
552.985	1	-1
553.155	1	-4
553.325	1	1
553.495	1	7
553.665	1	-4
553.835	1	-1
554.004	1	0
554.174	1	-2
554.344	1	1
554.514	1	-9
554.684	1	8
554.854	1	-3
555.024	1	11
555.194	1	9
555.364	1	2
555.534	1	-2
555.704	1	2
555.874	1	-1
556.044	1	0
556.214	1	2
556.384	1	3
556.554	1	4
556.724	1	-3
556.894	1	-5
557.064	1	-1
557.234	1	0
557.404	1	2
557.573	1	-2
557.743	1	-8
557.913	1	2
558.083	1	3
558.253	1	6
558.423	1	0
558.593	1	5
558.763	1	-5
558.933	1	3
559.103	1	6
559.273	1	8
559.443	1	3
559.613	1	7
559.783	1	-6
559.953	1	-12
560.122	1	5
560.292	1	-11
560.462	1	1
560.632	1	1
560.802	1	5
560.972	1	-16
561.142	1	3
561.312	1	-3
561.482	1	8
561.652	1	8
561.822	1	5
561.992	1	8
562.162	1	6
562.331	1	-7
562.501	1	0
562.671	1	2
562.841	1	-6
563.011	1	5
563.181	1	-4
563.351	1	-1
563.521	1	-4
563.691	1	11
563.861	1	0
564.031	1	4
564.201	1	10
564.370	1	4
564.540	1	-2
564.710	1	5
564.880	1	9
565.050	1	-1
565.220	1	9
565.390	1	4
565.560	1	9
565.730	1	2
565.900	1	4
566.069	1	16
566.239	1	14
566.409	1	13
566.579	1	2
566.749	1	-1
566.919	1	-3
567.089	1	-13
567.259	1	7
567.429	1	-5
567.599	1	11
567.768	1	-8
567.938	1	-1
568.108	1	-2
568.278	1	5
568.448	1	-1
568.618	1	5
568.788	1	3
568.958	1	-5
569.128	1	-5
569.297	1	-9
569.467	1	5
569.637	1	7
569.807	1	11
569.977	1	-8
570.147	1	3
570.317	1	-6
570.487	1	7
570.656	1	7
570.826	1	-1
570.996	1	8
571.166	1	-4
571.336	1	1
571.506	1	0
571.676	1	8
571.846	1	1
572.015	1	-2
572.185	1	-5
572.355	1	2
572.525	1	-14
572.695	1	-4
572.865	1	1
573.035	1	11
573.205	1	6
573.374	1	-4
573.544	1	-3
573.714	1	9
573.884	1	0
574.054	1	-7
574.224	1	8
574.394	1	0
574.563	1	-7
574.733	1	-4
574.903	1	-4
575.073	1	2
575.243	1	-7
575.413	1	-1
575.583	1	-9
575.752	1	3
575.922	1	7
576.092	1	-4
576.262	1	-4
576.432	1	-5
576.602	1	5
576.772	1	-3
576.941	1	4
577.111	1	-2
577.281	1	9
577.451	1	6
577.621	1	-8
577.791	1	0
577.960	1	-10
578.130	1	-2
578.300	1	-8
578.470	1	3
578.640	1	-1
578.810	1	7
578.979	1	1
579.149	1	-2
579.319	1	-1
579.489	1	7
579.659	1	1
579.829	1	3
579.998	1	-7
580.168	1	-3
580.338	1	1
580.508	1	6
580.678	1	3
580.848	1	-2
581.017	1	0
581.187	1	6
581.357	1	-6
581.527	1	-8
581.697	1	4
581.867	1	7
582.036	1	-1
582.206	1	0
582.376	1	-1
582.546	1	-4
582.716	1	2
582.885	1	-6
583.055	1	-8
583.225	1	3
583.395	1	5
583.565	1	10
583.735	1	4
583.904	1	-7
584.074	1	-2
584.244	1	1
584.414	1	-2
584.584	1	0
584.753	1	6
584.923	1	-4
585.093	1	6
585.263	1	0
585.433	1	1
585.602	1	0
585.772	1	12
585.942	1	-6
586.112	1	7
586.282	1	-4
586.451	1	-3
586.621	1	-6
586.791	1	-3
586.961	1	-6
587.131	1	-7
587.300	1	5
587.470	1	5
587.640	1	-4
587.810	1	-11
587.980	1	3
588.149	1	2
588.319	1	10
588.489	1	14
588.659	1	-1
588.829	1	4
588.998	1	-3
589.168	1	-4
589.338	1	-5
589.508	1	-3
589.677	1	-3
589.847	1	3
590.017	1	-1
590.187	1	6
590.357	1	-5
590.526	1	-2
590.696	1	6
590.866	1	-3
591.036	1	4
591.205	1	7
591.375	1	7
591.545	1	-2
591.715	1	1
591.885	1	6
592.054	1	6
592.224	1	-2
592.394	1	-3
592.564	1	2
592.733	1	-3
592.903	1	4
593.073	1	1
593.243	1	16
593.412	1	-11
593.582	1	2
593.752	1	-8
593.922	1	1
594.091	1	4
594.261	1	-7
594.431	1	10
594.601	1	-1
594.771	1	-2
594.940	1	6
595.110	1	-5
595.280	1	-1
595.450	1	5
595.619	1	7
595.789	1	-3
595.959	1	5
596.129	1	3
596.298	1	15
596.468	1	-3
596.638	1	-1
596.808	1	-5
596.977	1	-7
597.147	1	-2
597.317	1	2
597.487	1	5
597.656	1	4
597.826	1	15
597.996	1	-2
598.166	1	6
598.335	1	-3
598.505	1	4
598.675	1	4
598.844	1	13
599.014	1	-13
599.184	1	-2
599.354	1	6
599.523	1	0
599.693	1	0
599.863	1	0
600.033	1	8
600.202	1	3
600.372	1	-3
600.542	1	-3
600.712	1	4
600.881	1	-2
601.051	1	7
601.221	1	-3
601.390	1	-3
601.560	1	7
601.730	1	11
601.900	1	-1
602.069	1	4
602.239	1	7
602.409	1	10
602.578	1	4
602.748	1	12
602.918	1	-6
603.088	1	2
603.257	1	-1
603.427	1	7
603.597	1	4
603.767	1	-4
603.936	1	0
604.106	1	-2
604.276	1	8
604.445	1	3
604.615	1	9
604.785	1	-2
604.954	1	-3
605.124	1	6
605.294	1	-3
605.464	1	2
605.633	1	-1
605.803	1	6
605.973	1	0
606.142	1	2
606.312	1	3
606.482	1	-1
606.652	1	-3
606.821	1	9
606.991	1	1
607.161	1	6
607.330	1	-4
607.500	1	2
607.670	1	-3
607.839	1	-3
608.009	1	0
608.179	1	5
608.348	1	3
608.518	1	5
608.688	1	6
608.858	1	-6
609.027	1	14
609.197	1	12
609.367	1	-5
609.536	1	-7
609.706	1	11
609.876	1	8
610.045	1	4
610.215	1	-3
610.385	1	9
610.554	1	2
610.724	1	-8
610.894	1	7
611.063	1	5
611.233	1	9
611.403	1	-2
611.572	1	7
611.742	1	-2
611.912	1	12
612.081	1	5
612.251	1	6
612.421	1	5
612.590	1	-1
612.760	1	2
612.930	1	11
613.099	1	3
613.269	1	3
613.439	1	-11
613.608	1	8
613.778	1	6
613.948	1	12
614.117	1	0
614.287	1	-6
614.457	1	6
614.626	1	-1
614.796	1	3
614.966	1	-5
615.135	1	2
615.305	1	-1
615.475	1	-2
615.644	1	17
615.814	1	9
615.984	1	-8
616.153	1	-2
616.323	1	-1
616.493	1	-1
616.662	1	-6
616.832	1	-1
617.002	1	1
617.171	1	-1
617.341	1	11
617.511	1	-10
617.680	1	-2
617.850	1	0
618.019	1	-4
618.189	1	8
618.359	1	6
618.528	1	4
618.698	1	0
618.868	1	8
619.037	1	-1
619.207	1	-9
619.377	1	2
619.546	1	11
619.716	1	4
619.885	1	5
620.055	1	-6
620.225	1	7
620.394	1	6
620.564	1	11
620.734	1	0
620.903	1	-10
621.073	1	1
621.242	1	-5
621.412	1	-6
621.582	1	8
621.751	1	3
621.921	1	2
622.091	1	2
622.260	1	2
622.430	1	3
622.599	1	-1
622.769	1	-2
622.939	1	-3
623.108	1	0
623.278	1	8
623.448	1	1
623.617	1	2
623.787	1	3
623.956	1	11
624.126	1	6
624.296	1	6
624.465	1	8
624.635	1	0
624.804	1	0
624.974	1	0
625.144	1	4
625.313	1	15
625.483	1	3
625.652	1	-7
625.822	1	3
625.992	1	-4
626.161	1	8
626.331	1	-13
626.501	1	8
626.670	1	-4
626.840	1	-1
627.009	1	5
627.179	1	6
627.348	1	-1
627.518	1	10
627.688	1	-5
627.857	1	14
628.027	1	11
628.196	1	9
628.366	1	1
628.536	1	-1
628.705	1	2
628.875	1	-6
629.044	1	-1
629.214	1	3
629.384	1	8
629.553	1	-1
629.723	1	6
629.892	1	12
630.062	1	12
630.232	1	9
630.401	1	3
630.571	1	-4
630.740	1	-1
630.910	1	9
631.079	1	-3
631.249	1	4
631.419	1	2
631.588	1	4
631.758	1	-7
631.927	1	12
632.097	1	3
632.266	1	5
632.436	1	1
632.606	1	0
632.775	1	1
632.945	1	5
633.114	1	3
633.284	1	1
633.453	1	-4
633.623	1	20
633.793	1	-2
633.962	1	9
634.132	1	2
634.301	1	9
634.471	1	3
634.640	1	-2
634.810	1	9
634.979	1	12
635.149	1	-7
635.319	1	-4
635.488	1	4
635.658	1	-3
635.827	1	6
635.997	1	4
636.166	1	-1
636.336	1	8
636.505	1	11
636.675	1	4
636.845	1	4
637.014	1	-8
637.184	1	11
637.353	1	-1
637.523	1	-2
637.692	1	-4
637.862	1	2
638.031	1	1
638.201	1	-1
638.370	1	3
638.540	1	-8
638.710	1	4
638.879	1	-4
639.049	1	-3
639.218	1	13
639.388	1	9
639.557	1	-1
639.727	1	3
639.896	1	-5
640.066	1	1
640.235	1	7
640.405	1	2
640.574	1	6
640.744	1	1
640.914	1	1
641.083	1	13
641.253	1	-6
641.422	1	-5
641.592	1	6
641.761	1	-4
641.931	1	7
642.100	1	-1
642.270	1	2
642.439	1	-1
642.609	1	9
642.778	1	9
642.948	1	12
643.117	1	7
643.287	1	3
643.456	1	1
643.626	1	1
643.795	1	-2
643.965	1	5
644.134	1	2
644.304	1	0
644.473	1	4
644.643	1	1
644.812	1	-7
644.982	1	-2
645.151	1	3
645.321	1	6
645.490	1	2
645.660	1	-6
645.829	1	8
645.999	1	-2
646.168	1	18
646.338	1	-2
646.507	1	-1
646.677	1	8
646.846	1	-4
647.016	1	17
647.185	1	-1
647.355	1	16
647.524	1	0
647.694	1	-3
647.863	1	-1
648.033	1	4
648.202	1	11
648.372	1	-3
648.541	1	-2
648.711	1	-2
648.880	1	11
649.050	1	7
649.219	1	7
649.389	1	-2
649.558	1	11
649.728	1	-2
649.897	1	6
650.067	1	5
650.236	1	-2
650.406	1	-2
650.575	1	7
650.745	1	2
650.914	1	4
651.084	1	4
651.253	1	-1
651.423	1	-7
651.592	1	8
651.762	1	1
651.931	1	7
652.101	1	2
652.270	1	-5
652.440	1	8
652.609	1	10
652.778	1	10
652.948	1	9
653.117	1	-2
653.287	1	-4
653.456	1	2
653.626	1	4
653.795	1	2
653.965	1	-1
654.134	1	1
654.304	1	3
654.473	1	9
654.643	1	2
654.812	1	11
654.982	1	2
655.151	1	8
655.320	1	3
655.490	1	4
655.659	1	4
655.829	1	6
655.998	1	7
656.168	1	-1
656.337	1	-1
656.507	1	-7
656.676	1	0
656.846	1	5
657.015	1	11
657.184	1	-1
657.354	1	5
657.523	1	-1
657.693	1	7
657.862	1	1
658.032	1	0
658.201	1	0
658.371	1	-1
658.540	1	2
658.709	1	9
658.879	1	9
659.048	1	12
659.218	1	-7
659.387	1	10
659.557	1	4
659.726	1	-3
659.895	1	3
660.065	1	-4
660.234	1	1
660.404	1	7
660.573	1	2
660.743	1	2
660.912	1	-3
661.081	1	7
661.251	1	8
661.420	1	1
661.590	1	-7
661.759	1	1
661.929	1	2
662.098	1	3
662.267	1	0
662.437	1	5
662.606	1	-7
662.776	1	6
662.945	1	16
663.115	1	15
663.284	1	10
663.453	1	4
663.623	1	-6
663.792	1	10
663.962	1	14
664.131	1	2
664.300	1	2
664.470	1	2
664.639	1	-3
664.809	1	11
664.978	1	6
665.148	1	14
665.317	1	3
665.486	1	11
665.656	1	1
665.825	1	5
665.995	1	-6
666.164	1	2
666.333	1	-3
666.503	1	-6
666.672	1	2
666.842	1	-1
667.011	1	14
667.180	1	-4
667.350	1	3
667.519	1	-1
667.689	1	7
667.858	1	5
668.027	1	-1
668.197	1	-8
668.366	1	9
668.536	1	-4
668.705	1	-11
668.874	1	13
669.044	1	9
669.213	1	14
669.382	1	9
669.552	1	4
669.721	1	-3
669.891	1	-3
670.060	1	-4
670.229	1	1
670.399	1	7
670.568	1	14
670.738	1	-2
670.907	1	4
671.076	1	6
671.246	1	12
671.415	1	9
671.584	1	8
671.754	1	-5
671.923	1	1
672.093	1	10
672.262	1	-6
672.431	1	6
672.601	1	8
672.770	1	3
672.939	1	11
673.109	1	4
673.278	1	-2
673.448	1	6
673.617	1	0
673.786	1	-8
