325.333	1	12
325.504	1	-8
325.675	1	10
325.846	1	-1
326.017	1	-2
326.188	1	9
326.359	1	8
326.531	1	-5
326.702	1	1
326.873	1	15
327.044	1	9
327.215	1	1
327.386	1	0
327.557	1	-2
327.728	1	-4
327.899	1	1
328.070	1	5
328.241	1	-1
328.412	1	1
328.583	1	4
328.754	1	8
328.926	1	2
329.097	1	7
329.268	1	8
329.439	1	8
329.610	1	4
329.781	1	8
329.952	1	9
330.123	1	3
330.294	1	0
330.465	1	-4
330.636	1	5
330.807	1	8
330.978	1	-8
331.149	1	3
331.320	1	1
331.492	1	-1
331.663	1	-1
331.834	1	4
332.005	1	7
332.176	1	5
332.347	1	-4
332.518	1	4
332.689	1	-7
332.860	1	4
333.031	1	12
333.202	1	3
333.373	1	-1
333.544	1	5
333.715	1	2
333.886	1	1
334.057	1	-6
334.228	1	14
334.399	1	6
334.570	1	6
334.741	1	3
334.912	1	3
335.084	1	5
335.255	1	9
335.426	1	7
335.597	1	0
335.768	1	5
335.939	1	3
336.110	1	5
336.281	1	0
336.452	1	7
336.623	1	-7
336.794	1	2
336.965	1	8
337.136	1	10
337.307	1	2
337.478	1	6
337.649	1	5
337.820	1	5
337.991	1	0
338.162	1	5
338.333	1	8
338.504	1	13
338.675	1	5
338.846	1	2
339.017	1	4
339.188	1	4
339.359	1	3
339.530	1	5
339.701	1	8
339.872	1	16
340.043	1	7
340.214	1	10
340.385	1	-1
340.556	1	18
340.727	1	13
340.898	1	7
341.069	1	4
341.240	1	-4
341.411	1	5
341.582	1	-4
341.753	1	6
341.924	1	16
342.095	1	-1
342.266	1	15
342.437	1	8
342.608	1	3
342.779	1	-2
342.950	1	7
343.121	1	6
343.292	1	15
343.463	1	8
343.634	1	3
343.805	1	1
343.976	1	13
344.147	1	13
344.318	1	-3
344.489	1	-1
344.660	1	13
344.831	1	17
345.002	1	7
345.173	1	9
345.344	1	6
345.515	1	7
345.686	1	8
345.857	1	10
346.028	1	6
346.199	1	-2
346.370	1	5
346.541	1	0
346.712	1	5
346.883	1	3
347.054	1	17
347.225	1	14
347.396	1	16
347.567	1	-3
347.738	1	11
347.909	1	8
348.080	1	10
348.251	1	7
348.422	1	8
348.593	1	5
348.764	1	9
348.935	1	6
349.106	1	-7
349.277	1	9
349.448	1	8
349.619	1	0
349.790	1	18
349.961	1	-4
350.132	1	9
350.303	1	9
350.474	1	5
350.645	1	5
350.816	1	10
350.987	1	19
351.157	1	2
351.328	1	10
351.499	1	9
351.670	1	7
351.841	1	17
352.012	1	9
352.183	1	20
352.354	1	1
352.525	1	10
352.696	1	10
352.867	1	15
353.038	1	10
353.209	1	7
353.380	1	13
353.551	1	14
353.722	1	18
353.893	1	16
354.064	1	7
354.235	1	-6
354.406	1	0
354.576	1	-2
354.747	1	14
354.918	1	8
355.089	1	20
355.260	1	5
355.431	1	4
355.602	1	10
355.773	1	6
355.944	1	12
356.115	1	9
356.286	1	16
356.457	1	9
356.628	1	2
356.799	1	10
356.970	1	15
357.141	1	9
357.311	1	21
357.482	1	0
357.653	1	0
357.824	1	13
357.995	1	20
358.166	1	0
358.337	1	4
358.508	1	12
358.679	1	13
358.850	1	17
359.021	1	6
359.192	1	16
359.363	1	17
359.533	1	4
359.704	1	3
359.875	1	4
360.046	1	15
360.217	1	24
360.388	1	15
360.559	1	15
360.730	1	-2
360.901	1	12
361.072	1	3
361.243	1	8
361.414	1	24
361.584	1	0
361.755	1	11
361.926	1	11
362.097	1	9
362.268	1	25
362.439	1	10
362.610	1	12
362.781	1	5
362.952	1	9
363.123	1	5
363.293	1	13
363.464	1	5
363.635	1	13
363.806	1	9
363.977	1	11
364.148	1	17
364.319	1	8
364.490	1	14
364.661	1	11
364.832	1	21
365.002	1	15
365.173	1	13
365.344	1	8
365.515	1	22
365.686	1	14
365.857	1	20
366.028	1	13
366.199	1	14
366.370	1	8
366.540	1	15
366.711	1	14
366.882	1	16
367.053	1	14
367.224	1	21
367.395	1	10
367.566	1	11
367.737	1	14
367.908	1	15
368.078	1	2
368.249	1	18
368.420	1	15
368.591	1	12
368.762	1	18
368.933	1	4
369.104	1	11
369.274	1	14
369.445	1	13
369.616	1	13
369.787	1	7
369.958	1	20
370.129	1	1
370.300	1	12
370.471	1	9
370.641	1	13
370.812	1	15
370.983	1	6
371.154	1	13
371.325	1	8
371.496	1	13
371.667	1	27
371.837	1	20
372.008	1	11
372.179	1	3
372.350	1	12
372.521	1	13
372.692	1	15
372.863	1	12
373.033	1	11
373.204	1	13
373.375	1	12
373.546	1	20
373.717	1	5
373.888	1	16
374.059	1	5
374.229	1	21
374.400	1	10
374.571	1	5
374.742	1	8
374.913	1	0
375.084	1	12
375.254	1	7
375.425	1	11
375.596	1	9
375.767	1	16
375.938	1	11
376.109	1	4
376.279	1	0
376.450	1	12
376.621	1	23
376.792	1	20
376.963	1	9
377.134	1	17
377.304	1	13
377.475	1	11
377.646	1	4
377.817	1	20
377.988	1	18
378.159	1	20
378.329	1	15
378.500	1	21
378.671	1	5
378.842	1	12
379.013	1	18
379.184	1	8
379.354	1	19
379.525	1	20
379.696	1	13
379.867	1	18
380.038	1	8
380.209	1	12
380.379	1	14
380.550	1	3
380.721	1	10
380.892	1	11
381.063	1	29
381.233	1	12
381.404	1	10
381.575	1	12
381.746	1	10
381.917	1	16
382.087	1	19
382.258	1	15
382.429	1	20
382.600	1	16
382.771	1	14
382.941	1	23
383.112	1	15
383.283	1	20
383.454	1	6
383.625	1	21
383.795	1	15
383.966	1	22
384.137	1	21
384.308	1	10
384.479	1	12
384.649	1	10
384.820	1	20
384.991	1	18
385.162	1	13
385.333	1	17
385.503	1	13
385.674	1	17
385.845	1	15
386.016	1	20
386.187	1	12
386.357	1	26
386.528	1	16
386.699	1	17
386.870	1	14
387.041	1	15
387.211	1	12
387.382	1	30
387.553	1	18
387.724	1	7
387.894	1	15
388.065	1	16
388.236	1	9
388.407	1	28
388.578	1	18
388.748	1	22
388.919	1	27
389.090	1	30
389.261	1	19
389.431	1	14
389.602	1	15
389.773	1	22
389.944	1	32
390.114	1	18
390.285	1	39
390.456	1	18
390.627	1	9
390.798	1	17
390.968	1	18
391.139	1	12
391.310	1	13
391.481	1	10
391.651	1	29
391.822	1	34
391.993	1	13
392.164	1	27
392.334	1	17
392.505	1	16
392.676	1	19
392.847	1	17
393.017	1	24
393.188	1	34
393.359	1	24
393.530	1	41
393.700	1	21
393.871	1	25
394.042	1	16
394.213	1	23
394.383	1	18
394.554	1	7
394.725	1	14
394.896	1	19
395.066	1	15
395.237	1	11
395.408	1	20
395.579	1	32
395.749	1	33
395.920	1	17
396.091	1	24
396.262	1	22
396.432	1	13
396.603	1	21
396.774	1	13
396.945	1	21
397.115	1	26
397.286	1	24
397.457	1	16
397.627	1	11
397.798	1	14
397.969	1	8
398.140	1	11
398.310	1	30
398.481	1	17
398.652	1	21
398.823	1	17
398.993	1	12
399.164	1	22
399.335	1	15
399.505	1	12
399.676	1	9
399.847	1	10
400.018	1	21
400.188	1	22
400.359	1	26
400.530	1	30
400.700	1	17
400.871	1	19
401.042	1	32
401.213	1	22
401.383	1	19
401.554	1	14
401.725	1	12
401.895	1	15
402.066	1	27
402.237	1	13
402.408	1	24
402.578	1	37
402.749	1	10
402.920	1	40
403.090	1	21
403.261	1	17
403.432	1	10
403.603	1	16
403.773	1	27
403.944	1	33
404.115	1	18
404.285	1	23
404.456	1	35
404.627	1	20
404.797	1	21
404.968	1	28
405.139	1	23
405.310	1	18
405.480	1	26
405.651	1	10
405.822	1	14
405.992	1	34
406.163	1	14
406.334	1	26
406.504	1	21
406.675	1	13
406.846	1	22
407.016	1	24
407.187	1	21
407.358	1	14
407.528	1	20
407.699	1	26
407.870	1	17
408.041	1	19
408.211	1	22
408.382	1	20
408.553	1	31
408.723	1	19
408.894	1	18
409.065	1	26
409.235	1	18
409.406	1	17
409.577	1	36
409.747	1	20
409.918	1	17
410.089	1	31
410.259	1	21
410.430	1	21
410.601	1	35
410.771	1	41
410.942	1	12
411.113	1	20
411.283	1	21
411.454	1	34
411.625	1	30
411.795	1	24
411.966	1	26
412.137	1	37
412.307	1	11
412.478	1	28
412.649	1	19
412.819	1	29
412.990	1	34
413.161	1	21
413.331	1	29
413.502	1	13
413.672	1	6
413.843	1	22
414.014	1	13
414.184	1	26
414.355	1	25
414.526	1	24
414.696	1	20
414.867	1	23
415.038	1	36
415.208	1	17
415.379	1	20
415.550	1	35
415.720	1	21
415.891	1	22
416.062	1	29
416.232	1	31
416.403	1	18
416.573	1	28
416.744	1	29
416.915	1	17
417.085	1	29
417.256	1	27
417.427	1	14
417.597	1	23
417.768	1	23
417.939	1	11
418.109	1	28
418.280	1	29
418.450	1	25
418.621	1	23
418.792	1	18
418.962	1	20
419.133	1	32
419.304	1	24
419.474	1	18
419.645	1	25
419.815	1	25
419.986	1	32
420.157	1	22
420.327	1	15
420.498	1	17
420.669	1	30
420.839	1	25
421.010	1	22
421.180	1	26
421.351	1	18
421.522	1	22
421.692	1	39
421.863	1	23
422.033	1	21
422.204	1	25
422.375	1	31
422.545	1	28
422.716	1	11
422.886	1	21
423.057	1	30
423.228	1	14
423.398	1	20
423.569	1	21
423.740	1	17
423.910	1	25
424.081	1	18
424.251	1	18
424.422	1	13
424.593	1	24
424.763	1	37
424.934	1	30
425.104	1	30
425.275	1	25
425.445	1	18
425.616	1	15
425.787	1	23
425.957	1	19
426.128	1	23
426.298	1	31
426.469	1	17
426.640	1	8
426.810	1	18
426.981	1	32
427.151	1	13
427.322	1	25
427.493	1	15
427.663	1	15
427.834	1	20
428.004	1	24
428.175	1	19
428.345	1	14
428.516	1	18
428.687	1	35
428.857	1	22
429.028	1	10
429.198	1	21
429.369	1	13
429.540	1	17
429.710	1	21
429.881	1	15
430.051	1	12
430.222	1	24
430.392	1	22
430.563	1	14
430.734	1	17
430.904	1	26
431.075	1	20
431.245	1	23
431.416	1	23
431.586	1	10
431.757	1	28
431.927	1	29
432.098	1	27
432.269	1	24
432.439	1	22
432.610	1	24
432.780	1	33
432.951	1	16
433.121	1	15
433.292	1	32
433.462	1	12
433.633	1	15
433.804	1	28
433.974	1	17
434.145	1	13
434.315	1	24
434.486	1	14
434.656	1	29
434.827	1	18
434.997	1	29
435.168	1	22
435.339	1	30
435.509	1	26
435.680	1	37
435.850	1	8
436.021	1	31
436.191	1	17
436.362	1	15
436.532	1	24
436.703	1	15
436.873	1	13
437.044	1	24
437.214	1	12
437.385	1	14
437.556	1	17
437.726	1	23
437.897	1	21
438.067	1	22
438.238	1	20
438.408	1	28
438.579	1	10
438.749	1	11
438.920	1	27
439.090	1	-1
439.261	1	22
439.431	1	2
439.602	1	15
439.772	1	19
439.943	1	26
440.113	1	13
440.284	1	18
440.455	1	29
440.625	1	24
440.796	1	11
440.966	1	17
441.137	1	17
441.307	1	24
441.478	1	6
441.648	1	15
441.819	1	9
441.989	1	26
442.160	1	13
442.330	1	28
442.501	1	22
442.671	1	19
442.842	1	11
443.012	1	10
443.183	1	18
443.353	1	24
443.524	1	12
443.694	1	10
443.865	1	30
444.035	1	20
444.206	1	16
444.376	1	26
444.547	1	12
444.717	1	15
444.888	1	9
445.058	1	22
445.229	1	17
445.399	1	29
445.570	1	16
445.740	1	11
445.911	1	28
446.081	1	15
446.252	1	17
446.422	1	32
446.593	1	7
446.763	1	11
446.934	1	19
447.104	1	14
447.275	1	13
447.445	1	16
447.616	1	22
447.786	1	18
447.957	1	13
448.127	1	20
448.298	1	16
448.468	1	19
448.639	1	10
448.809	1	13
448.979	1	31
449.150	1	19
449.320	1	21
449.491	1	13
449.661	1	4
449.832	1	14
450.002	1	6
450.173	1	27
450.343	1	7
450.514	1	23
450.684	1	18
450.855	1	21
451.025	1	9
451.196	1	17
451.366	1	24
451.537	1	29
451.707	1	17
451.878	1	10
452.048	1	10
452.218	1	17
452.389	1	16
452.559	1	28
452.730	1	16
452.900	1	9
453.071	1	20
453.241	1	16
453.412	1	12
453.582	1	16
453.753	1	18
453.923	1	12
454.093	1	12
454.264	1	21
454.434	1	21
454.605	1	11
454.775	1	21
454.946	1	5
455.116	1	25
455.287	1	11
455.457	1	17
455.628	1	9
455.798	1	16
455.968	1	6
456.139	1	21
456.309	1	18
456.480	1	8
456.650	1	15
456.821	1	11
456.991	1	17
457.161	1	19
457.332	1	13
457.502	1	15
457.673	1	9
457.843	1	11
458.014	1	13
458.184	1	14
458.355	1	17
458.525	1	13
458.695	1	8
458.866	1	7
459.036	1	17
459.207	1	17
459.377	1	14
459.548	1	19
459.718	1	7
459.888	1	12
460.059	1	9
460.229	1	17
460.400	1	8
460.570	1	10
460.740	1	7
460.911	1	8
461.081	1	23
461.252	1	18
461.422	1	14
461.593	1	8
461.763	1	26
461.933	1	14
462.104	1	8
462.274	1	7
462.445	1	14
462.615	1	9
462.785	1	19
462.956	1	2
463.126	1	21
463.297	1	13
463.467	1	19
463.638	1	13
463.808	1	16
463.978	1	2
464.149	1	16
464.319	1	12
464.490	1	11
464.660	1	11
464.830	1	15
465.001	1	10
465.171	1	8
465.342	1	6
465.512	1	18
465.682	1	7
465.853	1	9
466.023	1	17
466.194	1	11
466.364	1	23
466.534	1	1
466.705	1	21
466.875	1	-2
467.045	1	4
467.216	1	26
467.386	1	19
467.557	1	15
467.727	1	12
467.897	1	13
468.068	1	3
468.238	1	8
468.409	1	20
468.579	1	13
468.749	1	8
468.920	1	1
469.090	1	16
469.260	1	15
469.431	1	1
469.601	1	22
469.772	1	25
469.942	1	15
470.112	1	3
470.283	1	9
470.453	1	9
470.623	1	18
470.794	1	12
470.964	1	17
471.135	1	8
471.305	1	5
471.475	1	13
471.646	1	12
471.816	1	9
471.986	1	9
472.157	1	14
472.327	1	11
472.497	1	15
472.668	1	7
472.838	1	7
473.009	1	12
473.179	1	11
473.349	1	6
473.520	1	22
473.690	1	10
473.860	1	-4
474.031	1	-4
474.201	1	6
474.371	1	9
474.542	1	-3
474.712	1	0
474.882	1	15
475.053	1	9
475.223	1	5
475.394	1	17
475.564	1	15
475.734	1	6
475.905	1	15
476.075	1	16
476.245	1	6
476.416	1	10
476.586	1	10
476.756	1	10
476.927	1	8
477.097	1	15
477.267	1	10
477.438	1	27
477.608	1	21
477.778	1	8
477.949	1	9
478.119	1	14
478.289	1	0
478.460	1	8
478.630	1	12
478.800	1	1
478.971	1	4
479.141	1	12
479.311	1	4
479.482	1	3
479.652	1	11
479.822	1	0
479.993	1	8
480.163	1	12
480.333	1	12
480.504	1	14
480.674	1	15
480.844	1	11
481.015	1	16
481.185	1	17
481.355	1	14
481.525	1	5
481.696	1	6
481.866	1	10
482.036	1	14
482.207	1	14
482.377	1	11
482.547	1	5
482.718	1	15
482.888	1	11
483.058	1	10
483.229	1	10
483.399	1	14
483.569	1	0
483.740	1	9
483.910	1	6
484.080	1	1
484.250	1	-5
484.421	1	4
484.591	1	9
484.761	1	15
484.932	1	3
485.102	1	22
485.272	1	6
485.443	1	18
485.613	1	-5
485.783	1	16
485.953	1	10
486.124	1	11
486.294	1	16
486.464	1	13
486.635	1	-6
486.805	1	13
486.975	1	9
487.146	1	13
487.316	1	15
487.486	1	14
487.656	1	9
487.827	1	1
487.997	1	6
488.167	1	15
488.338	1	11
488.508	1	8
488.678	1	0
488.848	1	6
489.019	1	-6
489.189	1	10
489.359	1	5
489.529	1	9
489.700	1	2
489.870	1	9
490.040	1	4
490.211	1	4
490.381	1	6
490.551	1	10
490.721	1	11
490.892	1	-4
491.062	1	7
491.232	1	8
491.402	1	4
491.573	1	12
491.743	1	1
491.913	1	5
492.084	1	3
492.254	1	-1
492.424	1	8
492.594	1	-1
492.765	1	11
492.935	1	13
493.105	1	11
493.275	1	5
493.446	1	-3
493.616	1	5
493.786	1	13
493.956	1	1
494.127	1	-2
494.297	1	-2
494.467	1	2
494.637	1	3
494.808	1	13
494.978	1	8
495.148	1	5
495.318	1	14
495.489	1	3
495.659	1	0
495.829	1	-2
495.999	1	14
496.170	1	2
496.340	1	4
496.510	1	14
496.680	1	11
496.851	1	11
497.021	1	7
497.191	1	7
497.361	1	-3
497.532	1	7
497.702	1	10
497.872	1	11
498.042	1	-8
498.213	1	-2
498.383	1	13
498.553	1	6
498.723	1	2
498.894	1	7
499.064	1	11
499.234	1	7
499.404	1	7
499.574	1	11
499.745	1	3
499.915	1	4
500.085	1	1
500.255	1	0
500.426	1	9
500.596	1	-5
500.766	1	-8
500.936	1	2
501.106	1	-4
501.277	1	1
501.447	1	12
501.617	1	5
501.787	1	0
501.958	1	15
502.128	1	7
502.298	1	7
502.468	1	7
502.638	1	14
502.809	1	-2
502.979	1	1
503.149	1	13
503.319	1	20
503.489	1	-9
503.660	1	6
503.830	1	15
504.000	1	2
504.170	1	3
504.340	1	-8
504.511	1	2
504.681	1	2
504.851	1	5
505.021	1	4
505.192	1	-6
505.362	1	4
505.532	1	3
505.702	1	14
505.872	1	7
506.043	1	17
506.213	1	19
506.383	1	9
506.553	1	-3
506.723	1	-7
506.893	1	9
507.064	1	8
507.234	1	-2
507.404	1	1
507.574	1	5
507.744	1	13
507.915	1	0
508.085	1	0
508.255	1	12
508.425	1	7
508.595	1	-1
508.766	1	0
508.936	1	11
509.106	1	4
509.276	1	7
509.446	1	-3
509.616	1	3
509.787	1	4
509.957	1	9
510.127	1	-8
510.297	1	0
510.467	1	3
510.638	1	5
510.808	1	7
510.978	1	-8
511.148	1	8
511.318	1	7
511.488	1	4
511.659	1	7
511.829	1	3
511.999	1	9
512.169	1	4
512.339	1	4
512.509	1	1
512.680	1	-2
512.850	1	6
513.020	1	9
513.190	1	-2
513.360	1	13
513.530	1	15
513.700	1	-2
513.871	1	-2
514.041	1	6
514.211	1	7
514.381	1	10
514.551	1	-2
514.721	1	3
514.892	1	-3
515.062	1	2
515.232	1	-3
515.402	1	7
515.572	1	1
515.742	1	8
515.912	1	13
516.083	1	2
516.253	1	13
516.423	1	2
516.593	1	6
516.763	1	10
516.933	1	6
517.104	1	6
517.274	1	-1
517.444	1	-3
517.614	1	0
517.784	1	-2
517.954	1	2
518.124	1	7
518.294	1	10
518.465	1	3
518.635	1	11
518.805	1	7
518.975	1	4
519.145	1	6
519.315	1	5
519.485	1	-3
519.656	1	1
519.826	1	-1
519.996	1	-5
520.166	1	0
520.336	1	4
520.506	1	8
520.676	1	7
520.846	1	7
521.017	1	-1
521.187	1	2
521.357	1	4
521.527	1	-5
521.697	1	-5
521.867	1	8
522.037	1	0
522.207	1	6
522.377	1	7
522.548	1	-9
522.718	1	2
522.888	1	-2
523.058	1	9
523.228	1	-1
523.398	1	2
523.568	1	-2
523.738	1	-1
523.909	1	4
524.079	1	-2
524.249	1	-10
524.419	1	0
524.589	1	9
524.759	1	6
524.929	1	-2
525.099	1	-7
525.269	1	-3
525.439	1	1
525.610	1	7
525.780	1	6
525.950	1	0
526.120	1	-4
526.290	1	-5
526.460	1	-5
526.630	1	6
526.800	1	-7
526.970	1	8
527.140	1	-12
527.311	1	3
527.481	1	1
527.651	1	6
527.821	1	-2
527.991	1	2
528.161	1	11
528.331	1	-12
528.501	1	-1
528.671	1	6
528.841	1	10
529.011	1	6
529.181	1	-1
529.352	1	7
529.522	1	10
529.692	1	7
529.862	1	1
530.032	1	-4
530.202	1	-6
530.372	1	13
530.542	1	-1
530.712	1	5
530.882	1	1
531.052	1	13
531.222	1	6
531.392	1	1
531.563	1	10
531.733	1	2
531.903	1	0
532.073	1	0
532.243	1	11
532.413	1	16
532.583	1	6
532.753	1	-13
532.923	1	-2
533.093	1	-8
533.263	1	0
533.433	1	-4
533.603	1	0
533.773	1	0
533.943	1	11
534.113	1	6
534.284	1	8
534.454	1	0
534.624	1	1
534.794	1	-8
534.964	1	11
535.134	1	-2
535.304	1	3
535.474	1	5
535.644	1	9
535.814	1	-5
535.984	1	5
536.154	1	-5
536.324	1	2
536.494	1	-1
536.664	1	-8
536.834	1	-2
537.004	1	8
537.174	1	14
537.344	1	6
537.514	1	-7
537.685	1	14
537.855	1	6
538.025	1	12
538.195	1	-3
538.365	1	1
538.535	1	4
538.705	1	2
538.875	1	7
539.045	1	-3
539.215	1	-2
539.385	1	3
539.555	1	1
539.725	1	1
539.895	1	7
540.065	1	2
540.235	1	1
540.405	1	7
540.575	1	7
540.745	1	2
540.915	1	2
541.085	1	-1
541.255	1	0
541.425	1	4
541.595	1	3
541.765	1	9
541.935	1	0
542.105	1	2
542.275	1	-1
542.445	1	6
542.615	1	2
542.785	1	-5
542.955	1	1
543.125	1	-2
543.295	1	3
543.465	1	5
543.635	1	2
543.805	1	6
543.975	1	0
544.145	1	2
544.315	1	-11
544.485	1	-3
544.655	1	10
544.825	1	0
544.995	1	-1
545.165	1	0
545.335	1	8
545.505	1	-1
545.675	1	7
545.845	1	10
546.015	1	-5
546.185	1	-4
546.355	1	-1
546.525	1	8
546.695	1	1
546.865	1	-3
547.035	1	0
547.205	1	17
547.375	1	8
547.545	1	-2
547.715	1	7
547.885	1	-2
548.055	1	0
548.225	1	0
548.395	1	-1
548.565	1	2
548.735	1	0
548.905	1	7
549.075	1	5
549.245	1	6
549.415	1	5
549.585	1	-4
549.755	1	-2
549.925	1	-2
550.095	1	-3
550.265	1	1
550.435	1	6
550.605	1	9
550.775	1	7
550.945	1	-1
551.115	1	13
551.285	1	6
551.455	1	8
551.625	1	-9
551.795	1	-5
551.965	1	-8
552.135	1	-12
552.305	1	9
552.475	1	4
552.645	1	-2
552.815	1	-6
552.985	1	-5
553.155	1	-3
553.325	1	-1
553.495	1	7
553.665	1	1
553.835	1	2
554.004	1	0
554.174	1	3
554.344	1	1
554.514	1	-7
554.684	1	15
554.854	1	-15
555.024	1	8
555.194	1	4
555.364	1	-1
555.534	1	-7
555.704	1	-7
555.874	1	-2
556.044	1	-2
556.214	1	3
556.384	1	3
556.554	1	6
556.724	1	3
556.894	1	-1
557.064	1	0
557.234	1	0
557.404	1	-1
557.573	1	0
557.743	1	3
557.913	1	-2
558.083	1	-2
558.253	1	1
558.423	1	-3
558.593	1	0
558.763	1	3
558.933	1	3
559.103	1	-3
559.273	1	7
559.443	1	5
559.613	1	-7
559.783	1	6
559.953	1	-2
560.122	1	9
560.292	1	-12
560.462	1	-5
560.632	1	-7
560.802	1	18
560.972	1	-1
561.142	1	0
561.312	1	-3
561.482	1	10
561.652	1	-2
561.822	1	2
561.992	1	4
562.162	1	5
562.331	1	-3
562.501	1	-2
562.671	1	-4
562.841	1	-13
563.011	1	0
563.181	1	-9
563.351	1	-6
563.521	1	-3
563.691	1	0
563.861	1	5
564.031	1	-7
564.201	1	3
564.370	1	1
564.540	1	0
564.710	1	3
564.880	1	4
565.050	1	0
565.220	1	4
565.390	1	-11
565.560	1	13
565.730	1	10
565.900	1	9
566.069	1	12
566.239	1	7
566.409	1	3
566.579	1	4
566.749	1	-4
566.919	1	-10
567.089	1	-7
567.259	1	5
567.429	1	-2
567.599	1	10
567.768	1	0
567.938	1	-2
568.108	1	0
568.278	1	-6
568.448	1	6
568.618	1	3
568.788	1	3
568.958	1	-4
569.128	1	-3
569.297	1	0
569.467	1	6
569.637	1	5
569.807	1	1
569.977	1	-1
570.147	1	-3
570.317	1	0
570.487	1	-4
570.656	1	4
570.826	1	0
570.996	1	0
571.166	1	5
571.336	1	6
571.506	1	-5
571.676	1	1
571.846	1	0
572.015	1	9
572.185	1	-5
572.355	1	5
572.525	1	-4
572.695	1	2
572.865	1	8
573.035	1	7
573.205	1	-4
573.374	1	-1
573.544	1	4
573.714	1	-3
573.884	1	-7
574.054	1	8
574.224	1	0
574.394	1	6
574.563	1	-4
574.733	1	6
574.903	1	0
575.073	1	0
575.243	1	4
575.413	1	-2
575.583	1	-3
575.752	1	0
575.922	1	6
576.092	1	-3
576.262	1	-2
576.432	1	-8
576.602	1	5
576.772	1	-4
576.941	1	-5
577.111	1	-6
577.281	1	6
577.451	1	9
577.621	1	4
577.791	1	-4
577.960	1	-2
578.130	1	-6
578.300	1	-7
578.470	1	7
578.640	1	1
578.810	1	-5
578.979	1	1
579.149	1	-3
579.319	1	10
579.489	1	2
579.659	1	5
579.829	1	-4
579.998	1	-18
580.168	1	-5
580.338	1	2
580.508	1	-10
580.678	1	5
580.848	1	-1
581.017	1	1
581.187	1	7
581.357	1	-1
581.527	1	7
581.697	1	-8
581.867	1	-9
582.036	1	-4
582.206	1	0
582.376	1	-9
582.546	1	1
582.716	1	4
582.885	1	7
583.055	1	-11
583.225	1	0
583.395	1	-2
583.565	1	10
583.735	1	1
583.904	1	-2
584.074	1	-1
584.244	1	8
584.414	1	-13
584.584	1	-5
584.753	1	-1
584.923	1	-9
585.093	1	3
585.263	1	-4
585.433	1	-4
585.602	1	-2
585.772	1	18
585.942	1	-5
586.112	1	2
586.282	1	8
586.451	1	19
586.621	1	-10
586.791	1	-15
586.961	1	-7
587.131	1	-3
587.300	1	19
587.470	1	-1
587.640	1	-2
587.810	1	-8
587.980	1	6
588.149	1	5
588.319	1	4
588.489	1	6
588.659	1	-3
588.829	1	4
588.998	1	-4
589.168	1	1
589.338	1	-6
589.508	1	5
589.677	1	1
589.847	1	1
590.017	1	-6
590.187	1	3
590.357	1	-7
590.526	1	-5
590.696	1	1
590.866	1	-5
591.036	1	6
591.205	1	6
591.375	1	1
591.545	1	1
591.715	1	-7
591.885	1	8
592.054	1	-9
592.224	1	-2
592.394	1	-4
592.564	1	6
592.733	1	-6
592.903	1	7
593.073	1	-7
593.243	1	14
593.412	1	-4
593.582	1	-7
593.752	1	-7
593.922	1	-1
594.091	1	6
594.261	1	-6
594.431	1	-1
594.601	1	0
594.771	1	-8
594.940	1	2
595.110	1	0
595.280	1	14
595.450	1	5
595.619	1	7
595.789	1	0
595.959	1	0
596.129	1	-1
596.298	1	6
596.468	1	-6
596.638	1	-2
596.808	1	-6
596.977	1	4
597.147	1	-1
597.317	1	0
597.487	1	5
597.656	1	12
597.826	1	8
597.996	1	-3
598.166	1	0
598.335	1	0
598.505	1	-1
598.675	1	-2
598.844	1	17
599.014	1	-8
599.184	1	-1
599.354	1	6
599.523	1	0
599.693	1	0
599.863	1	7
600.033	1	5
600.202	1	3
600.372	1	-12
600.542	1	-3
600.712	1	-2
600.881	1	9
601.051	1	6
601.221	1	-2
601.390	1	8
601.560	1	2
601.730	1	1
601.900	1	-1
602.069	1	3
602.239	1	2
602.409	1	-9
602.578	1	5
602.748	1	14
602.918	1	-5
603.088	1	5
603.257	1	-12
603.427	1	1
603.597	1	-1
603.767	1	-1
603.936	1	0
604.106	1	-9
604.276	1	-1
604.445	1	1
604.615	1	1
604.785	1	6
604.954	1	6
605.124	1	6
605.294	1	2
605.464	1	-8
605.633	1	-4
605.803	1	5
605.973	1	-2
606.142	1	4
606.312	1	1
606.482	1	-11
606.652	1	9
606.821	1	2
606.991	1	11
607.161	1	-7
607.330	1	-1
607.500	1	4
607.670	1	-2
607.839	1	4
608.009	1	1
608.179	1	2
608.348	1	0
608.518	1	11
608.688	1	4
608.858	1	-1
609.027	1	6
609.197	1	-1
609.367	1	-7
609.536	1	3
609.706	1	10
609.876	1	6
610.045	1	4
610.215	1	2
610.385	1	3
610.554	1	-1
610.724	1	1
610.894	1	0
611.063	1	1
611.233	1	4
611.403	1	3
611.572	1	-2
611.742	1	-4
611.912	1	0
612.081	1	12
612.251	1	8
612.421	1	7
612.590	1	10
612.760	1	1
612.930	1	7
613.099	1	6
613.269	1	-7
613.439	1	-19
613.608	1	2
613.778	1	1
613.948	1	7
614.117	1	2
614.287	1	-2
614.457	1	3
614.626	1	7
614.796	1	6
614.966	1	-5
615.135	1	6
615.305	1	-1
615.475	1	0
615.644	1	15
615.814	1	6
615.984	1	-2
616.153	1	2
616.323	1	-3
616.493	1	0
616.662	1	-12
616.832	1	3
617.002	1	7
617.171	1	6
617.341	1	9
617.511	1	-10
617.680	1	-6
617.850	1	0
618.019	1	-3
618.189	1	13
618.359	1	0
618.528	1	8
618.698	1	10
618.868	1	-2
619.037	1	2
619.207	1	-4
619.377	1	-1
619.546	1	5
619.716	1	2
619.885	1	-7
620.055	1	-6
620.225	1	2
620.394	1	2
620.564	1	11
620.734	1	6
620.903	1	-7
621.073	1	5
621.242	1	-4
621.412	1	-7
621.582	1	11
621.751	1	-6
621.921	1	5
622.091	1	-4
622.260	1	3
622.430	1	6
622.599	1	1
622.769	1	-3
622.939	1	-1
623.108	1	-5
623.278	1	4
623.448	1	-3
623.617	1	10
623.787	1	3
623.956	1	9
624.126	1	5
624.296	1	5
624.465	1	2
624.635	1	8
624.804	1	-10
624.974	1	-10
625.144	1	0
625.313	1	11
625.483	1	8
625.652	1	-6
625.822	1	4
625.992	1	-10
626.161	1	2
626.331	1	-2
626.501	1	5
626.670	1	-10
626.840	1	1
627.009	1	-1
627.179	1	4
627.348	1	-7
627.518	1	11
627.688	1	-4
627.857	1	4
628.027	1	8
628.196	1	8
628.366	1	-4
628.536	1	-2
628.705	1	-5
628.875	1	0
629.044	1	-4
629.214	1	9
629.384	1	11
629.553	1	-5
629.723	1	-1
629.892	1	5
630.062	1	1
630.232	1	7
630.401	1	0
630.571	1	-2
630.740	1	1
630.910	1	4
631.079	1	-4
631.249	1	0
631.419	1	8
631.588	1	3
631.758	1	-8
631.927	1	12
632.097	1	-1
632.266	1	8
632.436	1	1
632.606	1	9
632.775	1	7
632.945	1	3
633.114	1	-2
633.284	1	2
633.453	1	0
633.623	1	10
633.793	1	2
633.962	1	3
634.132	1	7
634.301	1	12
634.471	1	6
634.640	1	5
634.810	1	8
634.979	1	4
635.149	1	-3
635.319	1	-1
635.488	1	6
635.658	1	-3
635.827	1	0
635.997	1	7
636.166	1	10
636.336	1	0
636.505	1	8
636.675	1	0
636.845	1	1
637.014	1	-11
637.184	1	7
637.353	1	0
637.523	1	0
637.692	1	-2
637.862	1	5
638.031	1	-9
638.201	1	8
638.370	1	3
638.540	1	-3
638.710	1	-13
638.879	1	0
639.049	1	-4
639.218	1	11
639.388	1	-3
639.557	1	16
639.727	1	2
639.896	1	-3
640.066	1	-4
640.235	1	3
640.405	1	5
640.574	1	2
640.744	1	-2
640.914	1	-5
641.083	1	4
641.253	1	0
641.422	1	-3
641.592	1	2
641.761	1	-2
641.931	1	5
642.100	1	3
642.270	1	8
642.439	1	5
642.609	1	9
642.778	1	4
642.948	1	10
643.117	1	-5
643.287	1	5
643.456	1	-6
643.626	1	-3
643.795	1	5
643.965	1	6
644.134	1	3
644.304	1	-5
644.473	1	3
644.643	1	1
644.812	1	0
644.982	1	-1
645.151	1	-7
645.321	1	3
645.490	1	19
645.660	1	-2
645.829	1	-2
645.999	1	-5
646.168	1	16
646.338	1	-6
646.507	1	3
646.677	1	4
646.846	1	11
647.016	1	4
647.185	1	-1
647.355	1	12
647.524	1	-7
647.694	1	-1
647.863	1	2
648.033	1	0
648.202	1	1
648.372	1	-15
648.541	1	3
648.711	1	-2
648.880	1	5
649.050	1	11
649.219	1	5
649.389	1	-4
649.558	1	10
649.728	1	-5
649.897	1	3
650.067	1	-1
650.236	1	-6
650.406	1	-5
650.575	1	1
650.745	1	9
650.914	1	11
651.084	1	10
651.253	1	-1
651.423	1	-1
651.592	1	-2
651.762	1	-7
651.931	1	9
652.101	1	-6
652.270	1	5
652.440	1	2
652.609	1	8
652.778	1	0
652.948	1	2
653.117	1	1
653.287	1	-7
653.456	1	1
653.626	1	-1
653.795	1	-3
653.965	1	-6
654.134	1	2
654.304	1	11
654.473	1	2
654.643	1	-6
654.812	1	13
654.982	1	8
655.151	1	9
655.320	1	-3
655.490	1	0
655.659	1	0
655.829	1	7
655.998	1	-2
656.168	1	-4
656.337	1	3
656.507	1	1
656.676	1	5
656.846	1	1
657.015	1	4
657.184	1	0
657.354	1	3
657.523	1	-4
657.693	1	2
657.862	1	-6
658.032	1	-5
658.201	1	-4
658.371	1	4
658.540	1	2
658.709	1	13
658.879	1	9
659.048	1	14
659.218	1	-5
659.387	1	1
659.557	1	1
659.726	1	3
659.895	1	7
660.065	1	-6
660.234	1	-3
660.404	1	1
660.573	1	4
660.743	1	-2
660.912	1	5
661.081	1	-4
661.251	1	-5
661.420	1	-3
661.590	1	0
661.759	1	5
661.929	1	-2
662.098	1	4
662.267	1	0
662.437	1	8
662.606	1	-13
662.776	1	13
662.945	1	12
663.115	1	13
663.284	1	8
663.453	1	-5
663.623	1	-5
663.792	1	6
663.962	1	16
664.131	1	-4
664.300	1	-6
664.470	1	-10
664.639	1	5
664.809	1	1
664.978	1	7
665.148	1	-4
665.317	1	4
665.486	1	-1
665.656	1	0
665.825	1	0
665.995	1	-5
666.164	1	2
666.333	1	1
666.503	1	-1
666.672	1	0
666.842	1	6
667.011	1	1
667.180	1	8
667.350	1	12
667.519	1	4
667.689	1	-3
667.858	1	5
668.027	1	8
668.197	1	-7
668.366	1	2
668.536	1	-3
668.705	1	-8
668.874	1	13
669.044	1	5
669.213	1	2
669.382	1	5
669.552	1	3
669.721	1	-6
669.891	1	-11
670.060	1	1
670.229	1	11
670.399	1	12
670.568	1	11
670.738	1	-4
670.907	1	-4
671.076	1	0
671.246	1	7
671.415	1	8
671.584	1	6
671.754	1	-7
671.923	1	3
672.093	1	9
672.262	1	2
672.431	1	3
672.601	1	0
672.770	1	0
672.939	1	8
673.109	1	4
673.278	1	3
673.448	1	7
673.617	1	-7
673.786	1	-5
