325.333	1	5
325.504	1	-8
325.675	1	7
325.846	1	-1
326.017	1	10
326.188	1	103
326.359	1	74
326.531	1	2
326.702	1	-1
326.873	1	9
327.044	1	6
327.215	1	-4
327.386	1	1
327.557	1	-3
327.728	1	0
327.899	1	1
328.070	1	1
328.241	1	3
328.412	1	-1
328.583	1	-4
328.754	1	2
328.926	1	9
329.097	1	-2
329.268	1	3
329.439	1	13
329.610	1	9
329.781	1	2
329.952	1	9
330.123	1	7
330.294	1	-7
330.465	1	-7
330.636	1	8
330.807	1	1
330.978	1	-6
331.149	1	0
331.320	1	7
331.492	1	0
331.663	1	-3
331.834	1	8
332.005	1	3
332.176	1	3
332.347	1	-2
332.518	1	9
332.689	1	5
332.860	1	2
333.031	1	4
333.202	1	0
333.373	1	11
333.544	1	16
333.715	1	1
333.886	1	-6
334.057	1	-11
334.228	1	9
334.399	1	9
334.570	1	1
334.741	1	-4
334.912	1	-3
335.084	1	16
335.255	1	0
335.426	1	5
335.597	1	-1
335.768	1	9
335.939	1	10
336.110	1	7
336.281	1	4
336.452	1	15
336.623	1	1
336.794	1	1
336.965	1	6
337.136	1	5
337.307	1	-13
337.478	1	6
337.649	1	1
337.820	1	7
337.991	1	4
338.162	1	4
338.333	1	2
338.504	1	0
338.675	1	7
338.846	1	1
339.017	1	5
339.188	1	1
339.359	1	-1
339.530	1	0
339.701	1	12
339.872	1	13
340.043	1	3
340.214	1	3
340.385	1	-10
340.556	1	6
340.727	1	12
340.898	1	5
341.069	1	-1
341.240	1	-2
341.411	1	8
341.582	1	-5
341.753	1	3
341.924	1	10
342.095	1	2
342.266	1	9
342.437	1	2
342.608	1	7
342.779	1	13
342.950	1	0
343.121	1	11
343.292	1	6
343.463	1	1
343.634	1	5
343.805	1	9
343.976	1	13
344.147	1	8
344.318	1	-3
344.489	1	7
344.660	1	6
344.831	1	12
345.002	1	4
345.173	1	-1
345.344	1	5
345.515	1	8
345.686	1	14
345.857	1	3
346.028	1	11
346.199	1	5
346.370	1	5
346.541	1	5
346.712	1	5
346.883	1	-4
347.054	1	5
347.225	1	3
347.396	1	-1
347.567	1	-1
347.738	1	7
347.909	1	13
348.080	1	9
348.251	1	6
348.422	1	9
348.593	1	-3
348.764	1	1
348.935	1	10
349.106	1	1
349.277	1	3
349.448	1	10
349.619	1	-3
349.790	1	11
349.961	1	-1
350.132	1	14
350.303	1	6
350.474	1	1
350.645	1	4
350.816	1	-4
350.987	1	14
351.157	1	3
351.328	1	5
351.499	1	5
351.670	1	5
351.841	1	8
352.012	1	17
352.183	1	9
352.354	1	4
352.525	1	11
352.696	1	-2
352.867	1	16
353.038	1	4
353.209	1	9
353.380	1	16
353.551	1	16
353.722	1	12
353.893	1	3
354.064	1	12
354.235	1	8
354.406	1	-3
354.576	1	12
354.747	1	7
354.918	1	1
355.089	1	14
355.260	1	12
355.431	1	2
355.602	1	8
355.773	1	2
355.944	1	2
356.115	1	16
356.286	1	12
356.457	1	8
356.628	1	2
356.799	1	13
356.970	1	21
357.141	1	8
357.311	1	15
357.482	1	-2
357.653	1	1
357.824	1	7
357.995	1	11
358.166	1	3
358.337	1	10
358.508	1	22
358.679	1	3
358.850	1	16
359.021	1	5
359.192	1	13
359.363	1	9
359.533	1	3
359.704	1	8
359.875	1	1
360.046	1	19
360.217	1	18
360.388	1	13
360.559	1	17
360.730	1	-2
360.901	1	15
361.072	1	10
361.243	1	12
361.414	1	9
361.584	1	6
361.755	1	9
361.926	1	11
362.097	1	8
362.268	1	12
362.439	1	6
362.610	1	17
362.781	1	0
362.952	1	14
363.123	1	-5
363.293	1	6
363.464	1	5
363.635	1	19
363.806	1	6
363.977	1	8
364.148	1	3
364.319	1	0
364.490	1	12
364.661	1	19
364.832	1	7
365.002	1	12
365.173	1	18
365.344	1	4
365.515	1	15
365.686	1	13
365.857	1	17
366.028	1	14
366.199	1	10
366.370	1	11
366.540	1	4
366.711	1	11
366.882	1	11
367.053	1	8
367.224	1	8
367.395	1	4
367.566	1	15
367.737	1	11
367.908	1	14
368.078	1	8
368.249	1	4
368.420	1	13
368.591	1	11
368.762	1	16
368.933	1	8
369.104	1	18
369.274	1	18
369.445	1	10
369.616	1	10
369.787	1	10
369.958	1	12
370.129	1	8
370.300	1	9
370.471	1	9
370.641	1	11
370.812	1	12
370.983	1	8
371.154	1	14
371.325	1	5
371.496	1	2
371.667	1	9
371.837	1	13
372.008	1	6
372.179	1	7
372.350	1	13
372.521	1	20
372.692	1	16
372.863	1	2
373.033	1	14
373.204	1	5
373.375	1	11
373.546	1	10
373.717	1	8
373.888	1	19
374.059	1	6
374.229	1	19
374.400	1	11
374.571	1	7
374.742	1	10
374.913	1	4
375.084	1	6
375.254	1	5
375.425	1	10
375.596	1	13
375.767	1	12
375.938	1	4
376.109	1	9
376.279	1	8
376.450	1	7
376.621	1	5
376.792	1	18
376.963	1	3
377.134	1	17
377.304	1	15
377.475	1	-3
377.646	1	3
377.817	1	10
377.988	1	15
378.159	1	10
378.329	1	2
378.500	1	16
378.671	1	15
378.842	1	10
379.013	1	7
379.184	1	8
379.354	1	13
379.525	1	22
379.696	1	18
379.867	1	15
380.038	1	-2
380.209	1	10
380.379	1	13
380.550	1	3
380.721	1	1
380.892	1	10
381.063	1	16
381.233	1	12
381.404	1	7
381.575	1	9
381.746	1	15
381.917	1	8
382.087	1	19
382.258	1	13
382.429	1	22
382.600	1	10
382.771	1	16
382.941	1	20
383.112	1	11
383.283	1	9
383.454	1	8
383.625	1	16
383.795	1	22
383.966	1	20
384.137	1	14
384.308	1	11
384.479	1	16
384.649	1	16
384.820	1	2
384.991	1	5
385.162	1	22
385.333	1	15
385.503	1	8
385.674	1	13
385.845	1	10
386.016	1	16
386.187	1	5
386.357	1	19
386.528	1	15
386.699	1	13
386.870	1	5
387.041	1	18
387.211	1	12
387.382	1	24
387.553	1	12
387.724	1	4
387.894	1	5
388.065	1	19
388.236	1	15
388.407	1	7
388.578	1	24
388.748	1	9
388.919	1	12
389.090	1	29
389.261	1	21
389.431	1	3
389.602	1	6
389.773	1	16
389.944	1	21
390.114	1	11
390.285	1	19
390.456	1	19
390.627	1	12
390.798	1	7
390.968	1	16
391.139	1	25
391.310	1	15
391.481	1	11
391.651	1	21
391.822	1	23
391.993	1	10
392.164	1	14
392.334	1	6
392.505	1	11
392.676	1	6
392.847	1	14
393.017	1	6
393.188	1	12
393.359	1	20
393.530	1	36
393.700	1	10
393.871	1	30
394.042	1	18
394.213	1	8
394.383	1	17
394.554	1	16
394.725	1	8
394.896	1	22
395.066	1	10
395.237	1	17
395.408	1	22
395.579	1	7
395.749	1	33
395.920	1	19
396.091	1	9
396.262	1	14
396.432	1	19
396.603	1	18
396.774	1	10
396.945	1	23
397.115	1	24
397.286	1	24
397.457	1	11
397.627	1	9
397.798	1	15
397.969	1	8
398.140	1	15
398.310	1	15
398.481	1	17
398.652	1	16
398.823	1	5
398.993	1	15
399.164	1	18
399.335	1	18
399.505	1	-1
399.676	1	19
399.847	1	19
400.018	1	4
400.188	1	19
400.359	1	21
400.530	1	16
400.700	1	13
400.871	1	26
401.042	1	12
401.213	1	20
401.383	1	25
401.554	1	14
401.725	1	8
401.895	1	8
402.066	1	19
402.237	1	12
402.408	1	20
402.578	1	19
402.749	1	12
402.920	1	22
403.090	1	5
403.261	1	13
403.432	1	12
403.603	1	12
403.773	1	28
403.944	1	15
404.115	1	13
404.285	1	12
404.456	1	25
404.627	1	24
404.797	1	20
404.968	1	6
405.139	1	12
405.310	1	12
405.480	1	7
405.651	1	9
405.822	1	19
405.992	1	19
406.163	1	6
406.334	1	15
406.504	1	15
406.675	1	9
406.846	1	25
407.016	1	25
407.187	1	20
407.358	1	17
407.528	1	12
407.699	1	21
407.870	1	24
408.041	1	17
408.211	1	18
408.382	1	23
408.553	1	17
408.723	1	27
408.894	1	9
409.065	1	18
409.235	1	21
409.406	1	5
409.577	1	18
409.747	1	11
409.918	1	24
410.089	1	30
410.259	1	23
410.430	1	18
410.601	1	18
410.771	1	32
410.942	1	12
411.113	1	20
411.283	1	25
411.454	1	21
411.625	1	20
411.795	1	23
411.966	1	24
412.137	1	22
412.307	1	27
412.478	1	19
412.649	1	20
412.819	1	26
412.990	1	29
413.161	1	16
413.331	1	22
413.502	1	19
413.672	1	16
413.843	1	21
414.014	1	11
414.184	1	31
414.355	1	21
414.526	1	13
414.696	1	19
414.867	1	5
415.038	1	12
415.208	1	1
415.379	1	18
415.550	1	18
415.720	1	11
415.891	1	19
416.062	1	21
416.232	1	22
416.403	1	13
416.573	1	12
416.744	1	21
416.915	1	8
417.085	1	25
417.256	1	19
417.427	1	21
417.597	1	8
417.768	1	16
417.939	1	18
418.109	1	14
418.280	1	9
418.450	1	30
418.621	1	11
418.792	1	14
418.962	1	14
419.133	1	14
419.304	1	15
419.474	1	18
419.645	1	18
419.815	1	10
419.986	1	22
420.157	1	16
420.327	1	10
420.498	1	5
420.669	1	16
420.839	1	22
421.010	1	16
421.180	1	17
421.351	1	10
421.522	1	16
421.692	1	20
421.863	1	16
422.033	1	22
422.204	1	16
422.375	1	21
422.545	1	26
422.716	1	14
422.886	1	20
423.057	1	11
423.228	1	3
423.398	1	19
423.569	1	12
423.740	1	19
423.910	1	17
424.081	1	16
424.251	1	19
424.422	1	15
424.593	1	19
424.763	1	15
424.934	1	18
425.104	1	26
425.275	1	13
425.445	1	21
425.616	1	24
425.787	1	17
425.957	1	7
426.128	1	35
426.298	1	18
426.469	1	8
426.640	1	20
426.810	1	1
426.981	1	22
427.151	1	12
427.322	1	5
427.493	1	17
427.663	1	19
427.834	1	17
428.004	1	30
428.175	1	21
428.345	1	2
428.516	1	29
428.687	1	19
428.857	1	22
429.028	1	25
429.198	1	9
429.369	1	5
429.540	1	18
429.710	1	22
429.881	1	9
430.051	1	17
430.222	1	20
430.392	1	27
430.563	1	3
430.734	1	8
430.904	1	32
431.075	1	14
431.245	1	11
431.416	1	20
431.586	1	6
431.757	1	21
431.927	1	16
432.098	1	22
432.269	1	10
432.439	1	9
432.610	1	22
432.780	1	11
432.951	1	13
433.121	1	17
433.292	1	28
433.462	1	10
433.633	1	8
433.804	1	24
433.974	1	20
434.145	1	13
434.315	1	17
434.486	1	1
434.656	1	31
434.827	1	11
434.997	1	21
435.168	1	22
435.339	1	31
435.509	1	22
435.680	1	23
435.850	1	7
436.021	1	16
436.191	1	13
436.362	1	9
436.532	1	15
436.703	1	21
436.873	1	9
437.044	1	10
437.214	1	9
437.385	1	10
437.556	1	26
437.726	1	20
437.897	1	20
438.067	1	6
438.238	1	14
438.408	1	11
438.579	1	10
438.749	1	17
438.920	1	25
439.090	1	7
439.261	1	23
439.431	1	7
439.602	1	16
439.772	1	16
439.943	1	4
440.113	1	15
440.284	1	20
440.455	1	10
440.625	1	19
440.796	1	15
440.966	1	20
441.137	1	23
441.307	1	20
441.478	1	7
441.648	1	8
441.819	1	13
441.989	1	25
442.160	1	18
442.330	1	17
442.501	1	11
442.671	1	15
442.842	1	22
443.012	1	11
443.183	1	15
443.353	1	2
443.524	1	13
443.694	1	11
443.865	1	24
444.035	1	14
444.206	1	8
444.376	1	13
444.547	1	10
444.717	1	6
444.888	1	5
445.058	1	12
445.229	1	19
445.399	1	18
445.570	1	8
445.740	1	13
445.911	1	10
446.081	1	17
446.252	1	16
446.422	1	15
446.593	1	10
446.763	1	17
446.934	1	16
447.104	1	16
447.275	1	22
447.445	1	12
447.616	1	12
447.786	1	18
447.957	1	14
448.127	1	8
448.298	1	20
448.468	1	18
448.639	1	16
448.809	1	4
448.979	1	21
449.150	1	3
449.320	1	12
449.491	1	2
449.661	1	-6
449.832	1	4
450.002	1	12
450.173	1	15
450.343	1	11
450.514	1	12
450.684	1	15
450.855	1	17
451.025	1	15
451.196	1	8
451.366	1	21
451.537	1	14
451.707	1	24
451.878	1	2
452.048	1	6
452.218	1	15
452.389	1	20
452.559	1	20
452.730	1	12
452.900	1	9
453.071	1	23
453.241	1	16
453.412	1	13
453.582	1	8
453.753	1	10
453.923	1	15
454.093	1	7
454.264	1	28
454.434	1	10
454.605	1	6
454.775	1	13
454.946	1	12
455.116	1	13
455.287	1	2
455.457	1	6
455.628	1	4
455.798	1	21
455.968	1	13
456.139	1	19
456.309	1	16
456.480	1	9
456.650	1	10
456.821	1	10
456.991	1	11
457.161	1	16
457.332	1	15
457.502	1	-2
457.673	1	17
457.843	1	9
458.014	1	12
458.184	1	17
458.355	1	17
458.525	1	6
458.695	1	7
458.866	1	4
459.036	1	9
459.207	1	14
459.377	1	17
459.548	1	9
459.718	1	7
459.888	1	1
460.059	1	13
460.229	1	4
460.400	1	4
460.570	1	-2
460.740	1	16
460.911	1	-2
461.081	1	12
461.252	1	14
461.422	1	10
461.593	1	16
461.763	1	11
461.933	1	9
462.104	1	-2
462.274	1	3
462.445	1	0
462.615	1	19
462.785	1	16
462.956	1	-9
463.126	1	12
463.297	1	10
463.467	1	18
463.638	1	13
463.808	1	9
463.978	1	-6
464.149	1	10
464.319	1	21
464.490	1	2
464.660	1	7
464.830	1	2
465.001	1	10
465.171	1	12
465.342	1	6
465.512	1	6
465.682	1	9
465.853	1	5
466.023	1	21
466.194	1	4
466.364	1	20
466.534	1	2
466.705	1	17
466.875	1	-5
467.045	1	1
467.216	1	12
467.386	1	4
467.557	1	14
467.727	1	3
467.897	1	10
468.068	1	0
468.238	1	11
468.409	1	13
468.579	1	14
468.749	1	10
468.920	1	-4
469.090	1	7
469.260	1	11
469.431	1	-2
469.601	1	12
469.772	1	24
469.942	1	14
470.112	1	5
470.283	1	14
470.453	1	16
470.623	1	14
470.794	1	6
470.964	1	2
471.135	1	17
471.305	1	0
471.475	1	12
471.646	1	13
471.816	1	9
471.986	1	7
472.157	1	8
472.327	1	10
472.497	1	12
472.668	1	12
472.838	1	2
473.009	1	4
473.179	1	4
473.349	1	1
473.520	1	15
473.690	1	0
473.860	1	8
474.031	1	5
474.201	1	18
474.371	1	13
474.542	1	7
474.712	1	-1
474.882	1	6
475.053	1	19
475.223	1	7
475.394	1	4
475.564	1	6
475.734	1	6
475.905	1	15
476.075	1	1
476.245	1	10
476.416	1	5
476.586	1	-1
476.756	1	8
476.927	1	15
477.097	1	-1
477.267	1	5
477.438	1	20
477.608	1	17
477.778	1	-4
477.949	1	0
478.119	1	5
478.289	1	9
478.460	1	2
478.630	1	7
478.800	1	8
478.971	1	4
479.141	1	13
479.311	1	3
479.482	1	7
479.652	1	7
479.822	1	2
479.993	1	7
480.163	1	8
480.333	1	14
480.504	1	8
480.674	1	9
480.844	1	10
481.015	1	9
481.185	1	11
481.355	1	6
481.525	1	2
481.696	1	6
481.866	1	5
482.036	1	10
482.207	1	10
482.377	1	-3
482.547	1	12
482.718	1	13
482.888	1	10
483.058	1	13
483.229	1	8
483.399	1	8
483.569	1	2
483.740	1	8
483.910	1	3
484.080	1	9
484.250	1	2
484.421	1	0
484.591	1	3
484.761	1	7
484.932	1	2
485.102	1	15
485.272	1	-1
485.443	1	5
485.613	1	9
485.783	1	8
485.953	1	0
486.124	1	11
486.294	1	18
486.464	1	13
486.635	1	1
486.805	1	6
486.975	1	3
487.146	1	7
487.316	1	21
487.486	1	15
487.656	1	13
487.827	1	4
487.997	1	6
488.167	1	5
488.338	1	6
488.508	1	10
488.678	1	5
488.848	1	9
489.019	1	0
489.189	1	8
489.359	1	3
489.529	1	10
489.700	1	7
489.870	1	7
490.040	1	6
490.211	1	-2
490.381	1	8
490.551	1	9
490.721	1	4
490.892	1	-1
491.062	1	-8
491.232	1	18
491.402	1	3
491.573	1	20
491.743	1	2
491.913	1	7
492.084	1	10
492.254	1	1
492.424	1	3
492.594	1	-5
492.765	1	0
492.935	1	12
493.105	1	-1
493.275	1	-2
493.446	1	-3
493.616	1	-1
493.786	1	7
493.956	1	9
494.127	1	-3
494.297	1	-4
494.467	1	5
494.637	1	0
494.808	1	13
494.978	1	1
495.148	1	3
495.318	1	6
495.489	1	5
495.659	1	3
495.829	1	8
495.999	1	11
496.170	1	7
496.340	1	-2
496.510	1	11
496.680	1	4
496.851	1	13
497.021	1	7
497.191	1	9
497.361	1	-7
497.532	1	6
497.702	1	1
497.872	1	11
498.042	1	2
498.213	1	-1
498.383	1	2
498.553	1	7
498.723	1	1
498.894	1	6
499.064	1	-4
499.234	1	13
499.404	1	10
499.574	1	0
499.745	1	2
499.915	1	7
500.085	1	2
500.255	1	-7
500.426	1	-1
500.596	1	-2
500.766	1	-1
500.936	1	4
501.106	1	-5
501.277	1	-1
501.447	1	6
501.617	1	3
501.787	1	1
501.958	1	8
502.128	1	2
502.298	1	8
502.468	1	-3
502.638	1	3
502.809	1	-2
502.979	1	4
503.149	1	5
503.319	1	12
503.489	1	-9
503.660	1	1
503.830	1	-3
504.000	1	3
504.170	1	-1
504.340	1	-8
504.511	1	3
504.681	1	7
504.851	1	2
505.021	1	1
505.192	1	-10
505.362	1	1
505.532	1	-1
505.702	1	19
505.872	1	2
506.043	1	6
506.213	1	16
506.383	1	2
506.553	1	6
506.723	1	-2
506.893	1	5
507.064	1	-2
507.234	1	-2
507.404	1	-2
507.574	1	7
507.744	1	6
507.915	1	1
508.085	1	3
508.255	1	1
508.425	1	7
508.595	1	2
508.766	1	-6
508.936	1	8
509.106	1	6
509.276	1	10
509.446	1	-9
509.616	1	-1
509.787	1	3
509.957	1	8
510.127	1	-2
510.297	1	1
510.467	1	3
510.638	1	2
510.808	1	12
510.978	1	1
511.148	1	9
511.318	1	5
511.488	1	8
511.659	1	5
511.829	1	-5
511.999	1	2
512.169	1	8
512.339	1	3
512.509	1	-2
512.680	1	-3
512.850	1	6
513.020	1	7
513.190	1	-10
513.360	1	11
513.530	1	7
513.700	1	1
513.871	1	0
514.041	1	-2
514.211	1	5
514.381	1	6
514.551	1	10
514.721	1	-1
514.892	1	-6
515.062	1	12
515.232	1	-8
515.402	1	-2
515.572	1	9
515.742	1	5
515.912	1	1
516.083	1	2
516.253	1	8
516.423	1	7
516.593	1	0
516.763	1	4
516.933	1	2
517.104	1	4
517.274	1	2
517.444	1	1
517.614	1	-1
517.784	1	9
517.954	1	2
518.124	1	9
518.294	1	6
518.465	1	2
518.635	1	12
518.805	1	-6
518.975	1	11
519.145	1	-2
519.315	1	6
519.485	1	-3
519.656	1	-5
519.826	1	-3
519.996	1	14
520.166	1	-2
520.336	1	11
520.506	1	1
520.676	1	9
520.846	1	6
521.017	1	4
521.187	1	-1
521.357	1	3
521.527	1	4
521.697	1	-1
521.867	1	5
522.037	1	2
522.207	1	15
522.377	1	5
522.548	1	-4
522.718	1	1
522.888	1	5
523.058	1	0
523.228	1	-5
523.398	1	2
523.568	1	-10
523.738	1	0
523.909	1	-3
524.079	1	2
524.249	1	-3
524.419	1	3
524.589	1	1
524.759	1	9
524.929	1	-4
525.099	1	-6
525.269	1	-5
525.439	1	3
525.610	1	8
525.780	1	3
525.950	1	7
526.120	1	-4
526.290	1	-7
526.460	1	-2
526.630	1	4
526.800	1	-6
526.970	1	5
527.140	1	7
527.311	1	2
527.481	1	3
527.651	1	6
527.821	1	-4
527.991	1	2
528.161	1	6
528.331	1	-12
528.501	1	-2
528.671	1	1
528.841	1	-1
529.011	1	0
529.181	1	-4
529.352	1	-3
529.522	1	8
529.692	1	9
529.862	1	-4
530.032	1	-3
530.202	1	-1
530.372	1	-2
530.542	1	-1
530.712	1	0
530.882	1	2
531.052	1	0
531.222	1	2
531.392	1	1
531.563	1	12
531.733	1	-8
531.903	1	3
532.073	1	5
532.243	1	12
532.413	1	13
532.583	1	-2
532.753	1	-10
532.923	1	6
533.093	1	4
533.263	1	2
533.433	1	-7
533.603	1	-3
533.773	1	4
533.943	1	-8
534.113	1	6
534.284	1	3
534.454	1	6
534.624	1	0
534.794	1	4
534.964	1	9
535.134	1	-4
535.304	1	3
535.474	1	8
535.644	1	6
535.814	1	0
535.984	1	8
536.154	1	-4
536.324	1	6
536.494	1	3
536.664	1	10
536.834	1	7
537.004	1	2
537.174	1	14
537.344	1	1
537.514	1	-1
537.685	1	16
537.855	1	2
538.025	1	9
538.195	1	-3
538.365	1	-5
538.535	1	-7
538.705	1	-4
538.875	1	2
539.045	1	4
539.215	1	-3
539.385	1	3
539.555	1	-4
539.725	1	5
539.895	1	8
540.065	1	-4
540.235	1	1
540.405	1	-1
540.575	1	-2
540.745	1	3
540.915	1	0
541.085	1	-8
541.255	1	1
541.425	1	4
541.595	1	0
541.765	1	-5
541.935	1	7
542.105	1	-3
542.275	1	7
542.445	1	4
542.615	1	8
542.785	1	5
542.955	1	10
543.125	1	-7
543.295	1	2
543.465	1	16
543.635	1	0
543.805	1	11
543.975	1	0
544.145	1	-5
544.315	1	-5
544.485	1	9
544.655	1	4
544.825	1	9
544.995	1	-2
545.165	1	-3
545.335	1	1
545.505	1	1
545.675	1	-2
545.845	1	4
546.015	1	-4
546.185	1	-3
546.355	1	-6
546.525	1	5
546.695	1	3
546.865	1	3
547.035	1	4
547.205	1	7
547.375	1	10
547.545	1	2
547.715	1	-5
547.885	1	-7
548.055	1	0
548.225	1	10
548.395	1	2
548.565	1	5
548.735	1	0
548.905	1	6
549.075	1	2
549.245	1	-3
549.415	1	-3
549.585	1	-1
549.755	1	1
549.925	1	8
550.095	1	-7
550.265	1	-6
550.435	1	-1
550.605	1	-1
550.775	1	0
550.945	1	-2
551.115	1	12
551.285	1	6
551.455	1	3
551.625	1	-12
551.795	1	0
551.965	1	-8
552.135	1	4
552.305	1	9
552.475	1	8
552.645	1	-4
552.815	1	-3
552.985	1	0
553.155	1	1
553.325	1	1
553.495	1	11
553.665	1	1
553.835	1	-1
554.004	1	8
554.174	1	-11
554.344	1	7
554.514	1	1
554.684	1	4
554.854	1	-4
555.024	1	11
555.194	1	3
555.364	1	-1
555.534	1	-13
555.704	1	3
555.874	1	-3
556.044	1	6
556.214	1	6
556.384	1	7
556.554	1	-2
556.724	1	2
556.894	1	3
557.064	1	1
557.234	1	-4
557.404	1	-3
557.573	1	-1
557.743	1	-3
557.913	1	2
558.083	1	8
558.253	1	-1
558.423	1	-1
558.593	1	-5
558.763	1	3
558.933	1	-4
559.103	1	-14
559.273	1	11
559.443	1	2
559.613	1	-6
559.783	1	-6
559.953	1	-6
560.122	1	8
560.292	1	-13
560.462	1	-12
560.632	1	-4
560.802	1	3
560.972	1	-2
561.142	1	13
561.312	1	-1
561.482	1	7
561.652	1	10
561.822	1	-3
561.992	1	7
562.162	1	2
562.331	1	-12
562.501	1	1
562.671	1	3
562.841	1	-5
563.011	1	3
563.181	1	-11
563.351	1	0
563.521	1	-4
563.691	1	1
563.861	1	-5
564.031	1	-4
564.201	1	4
564.370	1	6
564.540	1	-5
564.710	1	0
564.880	1	4
565.050	1	3
565.220	1	7
565.390	1	0
565.560	1	4
565.730	1	7
565.900	1	-2
566.069	1	13
566.239	1	6
566.409	1	13
566.579	1	1
566.749	1	-1
566.919	1	-9
567.089	1	-5
567.259	1	-1
567.429	1	-5
567.599	1	14
567.768	1	-2
567.938	1	-5
568.108	1	-3
568.278	1	4
568.448	1	3
568.618	1	7
568.788	1	5
568.958	1	-6
569.128	1	-5
569.297	1	-13
569.467	1	14
569.637	1	-4
569.807	1	11
569.977	1	-14
570.147	1	6
570.317	1	-2
570.487	1	-9
570.656	1	0
570.826	1	4
570.996	1	6
571.166	1	9
571.336	1	-4
571.506	1	-7
571.676	1	9
571.846	1	0
572.015	1	-1
572.185	1	-7
572.355	1	-6
572.525	1	-8
572.695	1	2
572.865	1	2
573.035	1	8
573.205	1	-4
573.374	1	1
573.544	1	-1
573.714	1	1
573.884	1	-7
574.054	1	-6
574.224	1	0
574.394	1	-5
574.563	1	-4
574.733	1	3
574.903	1	6
575.073	1	5
575.243	1	-4
575.413	1	-5
575.583	1	-5
575.752	1	2
575.922	1	6
576.092	1	-7
576.262	1	-2
576.432	1	-3
576.602	1	1
576.772	1	-1
576.941	1	3
577.111	1	-3
577.281	1	-5
577.451	1	7
577.621	1	5
577.791	1	-1
577.960	1	7
578.130	1	11
578.300	1	-7
578.470	1	1
578.640	1	-3
578.810	1	1
578.979	1	-4
579.149	1	-1
579.319	1	0
579.489	1	6
579.659	1	-11
579.829	1	5
579.998	1	-10
580.168	1	-4
580.338	1	10
580.508	1	3
580.678	1	-1
580.848	1	-2
581.017	1	-6
581.187	1	2
581.357	1	0
581.527	1	5
581.697	1	0
581.867	1	3
582.036	1	-9
582.206	1	10
582.376	1	-5
582.546	1	-5
582.716	1	0
582.885	1	1
583.055	1	-8
583.225	1	4
583.395	1	-3
583.565	1	10
583.735	1	-4
583.904	1	-9
584.074	1	-4
584.244	1	4
584.414	1	4
584.584	1	-7
584.753	1	-3
584.923	1	-7
585.093	1	11
585.263	1	2
585.433	1	4
585.602	1	3
585.772	1	9
585.942	1	-6
586.112	1	-2
586.282	1	9
586.451	1	15
586.621	1	-7
586.791	1	-2
586.961	1	-13
587.131	1	-7
587.300	1	7
587.470	1	-10
587.640	1	1
587.810	1	-8
587.980	1	5
588.149	1	3
588.319	1	-4
588.489	1	-1
588.659	1	-8
588.829	1	-3
588.998	1	-1
589.168	1	-4
589.338	1	-3
589.508	1	2
589.677	1	7
589.847	1	-7
590.017	1	-4
590.187	1	-4
590.357	1	-4
590.526	1	-10
590.696	1	5
590.866	1	0
591.036	1	4
591.205	1	1
591.375	1	2
591.545	1	-8
591.715	1	-8
591.885	1	2
592.054	1	8
592.224	1	1
592.394	1	-13
592.564	1	-8
592.733	1	1
592.903	1	2
593.073	1	-8
593.243	1	2
593.412	1	-4
593.582	1	-6
593.752	1	-1
593.922	1	4
594.091	1	6
594.261	1	-13
594.431	1	4
594.601	1	-3
594.771	1	-2
594.940	1	-8
595.110	1	2
595.280	1	-6
595.450	1	12
595.619	1	0
595.789	1	-3
595.959	1	-3
596.129	1	-2
596.298	1	10
596.468	1	1
596.638	1	0
596.808	1	-5
596.977	1	-4
597.147	1	-2
597.317	1	2
597.487	1	5
597.656	1	7
597.826	1	6
597.996	1	-4
598.166	1	-2
598.335	1	-6
598.505	1	3
598.675	1	-2
598.844	1	10
599.014	1	-13
599.184	1	-1
599.354	1	9
599.523	1	-1
599.693	1	-3
599.863	1	1
600.033	1	7
600.202	1	1
600.372	1	-6
600.542	1	3
600.712	1	-2
600.881	1	6
601.051	1	9
601.221	1	0
601.390	1	4
601.560	1	2
601.730	1	6
601.900	1	11
602.069	1	-2
602.239	1	-1
602.409	1	4
602.578	1	9
602.748	1	1
602.918	1	-7
603.088	1	-2
603.257	1	-4
603.427	1	2
603.597	1	1
603.767	1	-5
603.936	1	-1
604.106	1	1
604.276	1	4
604.445	1	-1
604.615	1	6
604.785	1	6
604.954	1	6
605.124	1	0
605.294	1	7
605.464	1	-3
605.633	1	-3
605.803	1	0
605.973	1	1
606.142	1	7
606.312	1	9
606.482	1	0
606.652	1	-6
606.821	1	3
606.991	1	2
607.161	1	1
607.330	1	-6
607.500	1	2
607.670	1	-3
607.839	1	5
608.009	1	-3
608.179	1	6
608.348	1	7
608.518	1	14
608.688	1	-5
608.858	1	-1
609.027	1	12
609.197	1	2
609.367	1	-8
609.536	1	-5
609.706	1	1
609.876	1	-7
610.045	1	4
610.215	1	2
610.385	1	3
610.554	1	-1
610.724	1	2
610.894	1	10
611.063	1	2
611.233	1	0
611.403	1	2
611.572	1	3
611.742	1	-7
611.912	1	-1
612.081	1	10
612.251	1	2
612.421	1	-3
612.590	1	-4
612.760	1	12
612.930	1	-1
613.099	1	-7
613.269	1	5
613.439	1	0
613.608	1	1
613.778	1	5
613.948	1	12
614.117	1	-2
614.287	1	-6
614.457	1	-1
614.626	1	-1
614.796	1	-5
614.966	1	-8
615.135	1	13
615.305	1	2
615.475	1	4
615.644	1	13
615.814	1	13
615.984	1	5
616.153	1	-5
616.323	1	-4
616.493	1	-5
616.662	1	-2
616.832	1	8
617.002	1	-2
617.171	1	9
617.341	1	5
617.511	1	-6
617.680	1	-2
617.850	1	9
618.019	1	1
618.189	1	2
618.359	1	1
618.528	1	-1
618.698	1	2
618.868	1	1
619.037	1	3
619.207	1	-12
619.377	1	6
619.546	1	-2
619.716	1	2
619.885	1	-4
620.055	1	0
620.225	1	-5
620.394	1	-1
620.564	1	12
620.734	1	5
620.903	1	-2
621.073	1	11
621.242	1	-2
621.412	1	0
621.582	1	11
621.751	1	-2
621.921	1	0
622.091	1	0
622.260	1	3
622.430	1	2
622.599	1	-5
622.769	1	-4
622.939	1	-5
623.108	1	1
623.278	1	3
623.448	1	1
623.617	1	1
623.787	1	2
623.956	1	5
624.126	1	6
624.296	1	11
624.465	1	9
624.635	1	-3
624.804	1	-7
624.974	1	-3
625.144	1	3
625.313	1	13
625.483	1	1
625.652	1	-13
625.822	1	0
625.992	1	1
626.161	1	-4
626.331	1	3
626.501	1	-3
626.670	1	-3
626.840	1	2
627.009	1	6
627.179	1	0
627.348	1	2
627.518	1	12
627.688	1	-2
627.857	1	10
628.027	1	9
628.196	1	10
628.366	1	-4
628.536	1	2
628.705	1	-6
628.875	1	-6
629.044	1	-2
629.214	1	2
629.384	1	13
629.553	1	2
629.723	1	-1
629.892	1	5
630.062	1	1
630.232	1	3
630.401	1	1
630.571	1	-4
630.740	1	2
630.910	1	5
631.079	1	-3
631.249	1	3
631.419	1	-1
631.588	1	10
631.758	1	-1
631.927	1	13
632.097	1	-7
632.266	1	10
632.436	1	-1
632.606	1	-2
632.775	1	6
632.945	1	7
633.114	1	-1
633.284	1	-2
633.453	1	0
633.623	1	6
633.793	1	7
633.962	1	1
634.132	1	3
634.301	1	5
634.471	1	3
634.640	1	-5
634.810	1	9
634.979	1	-1
635.149	1	-6
635.319	1	-8
635.488	1	1
635.658	1	-2
635.827	1	4
635.997	1	7
636.166	1	8
636.336	1	-1
636.505	1	3
636.675	1	2
636.845	1	0
637.014	1	-10
637.184	1	11
637.353	1	3
637.523	1	-2
637.692	1	1
637.862	1	1
638.031	1	-13
638.201	1	11
638.370	1	-2
638.540	1	0
638.710	1	-2
638.879	1	-7
639.049	1	1
639.218	1	7
639.388	1	4
639.557	1	8
639.727	1	3
639.896	1	-2
640.066	1	-4
640.235	1	6
640.405	1	-2
640.574	1	1
640.744	1	3
640.914	1	-8
641.083	1	4
641.253	1	-5
641.422	1	1
641.592	1	6
641.761	1	-5
641.931	1	8
642.100	1	7
642.270	1	5
642.439	1	1
642.609	1	3
642.778	1	4
642.948	1	12
643.117	1	9
643.287	1	1
643.456	1	-5
643.626	1	-2
643.795	1	-3
643.965	1	5
644.134	1	6
644.304	1	-6
644.473	1	-6
644.643	1	-2
644.812	1	-2
644.982	1	8
645.151	1	-12
645.321	1	12
645.490	1	3
645.660	1	-17
645.829	1	5
645.999	1	-5
646.168	1	9
646.338	1	-9
646.507	1	6
646.677	1	8
646.846	1	1
647.016	1	3
647.185	1	7
647.355	1	11
647.524	1	-10
647.694	1	-9
647.863	1	-7
648.033	1	-2
648.202	1	12
648.372	1	-11
648.541	1	6
648.711	1	8
648.880	1	-5
649.050	1	8
649.219	1	0
649.389	1	-5
649.558	1	9
649.728	1	4
649.897	1	8
650.067	1	0
650.236	1	-11
650.406	1	0
650.575	1	5
650.745	1	8
650.914	1	6
651.084	1	-2
651.253	1	-5
651.423	1	-4
651.592	1	-2
651.762	1	-6
651.931	1	3
652.101	1	-5
652.270	1	2
652.440	1	7
652.609	1	2
652.778	1	7
652.948	1	1
653.117	1	-1
653.287	1	-15
653.456	1	4
653.626	1	4
653.795	1	-4
653.965	1	0
654.134	1	-2
654.304	1	-2
654.473	1	-2
654.643	1	3
654.812	1	7
654.982	1	2
655.151	1	8
655.320	1	4
655.490	1	0
655.659	1	-3
655.829	1	11
655.998	1	1
656.168	1	0
656.337	1	-2
656.507	1	-9
656.676	1	-5
656.846	1	7
657.015	1	12
657.184	1	3
657.354	1	3
657.523	1	-4
657.693	1	1
657.862	1	-3
658.032	1	5
658.201	1	-7
658.371	1	2
658.540	1	-8
658.709	1	7
658.879	1	10
659.048	1	5
659.218	1	-6
659.387	1	6
659.557	1	-6
659.726	1	-1
659.895	1	2
660.065	1	-7
660.234	1	-7
660.404	1	7
660.573	1	-3
660.743	1	-2
660.912	1	3
661.081	1	6
661.251	1	-4
661.420	1	7
661.590	1	-3
661.759	1	1
661.929	1	-9
662.098	1	6
662.267	1	-10
662.437	1	2
662.606	1	-10
662.776	1	8
662.945	1	8
663.115	1	2
663.284	1	5
663.453	1	-8
663.623	1	6
663.792	1	8
663.962	1	9
664.131	1	2
664.300	1	-1
664.470	1	-3
664.639	1	6
664.809	1	0
664.978	1	13
665.148	1	4
665.317	1	14
665.486	1	2
665.656	1	1
665.825	1	0
665.995	1	-12
666.164	1	1
666.333	1	-1
666.503	1	-2
666.672	1	-1
666.842	1	-2
667.011	1	5
667.180	1	-3
667.350	1	6
667.519	1	9
667.689	1	0
667.858	1	-1
668.027	1	-1
668.197	1	-4
668.366	1	6
668.536	1	-1
668.705	1	-9
668.874	1	3
669.044	1	1
669.213	1	20
669.382	1	3
669.552	1	-1
669.721	1	-4
669.891	1	-4
670.060	1	-5
670.229	1	3
670.399	1	7
670.568	1	8
670.738	1	-1
670.907	1	4
671.076	1	6
671.246	1	8
671.415	1	9
671.584	1	5
671.754	1	-12
671.923	1	-1
672.093	1	8
672.262	1	3
672.431	1	1
672.601	1	6
672.770	1	-3
672.939	1	6
673.109	1	2
673.278	1	9
673.448	1	-3
673.617	1	0
673.786	1	-3
