325.333	1	3
325.504	1	-7
325.675	1	14
325.846	1	-5
326.017	1	3
326.188	1	1
326.359	1	0
326.531	1	-2
326.702	1	-1
326.873	1	1
327.044	1	2
327.215	1	0
327.386	1	1
327.557	1	-3
327.728	1	2
327.899	1	0
328.070	1	10
328.241	1	-11
328.412	1	5
328.583	1	-4
328.754	1	8
328.926	1	9
329.097	1	-7
329.268	1	5
329.439	1	16
329.610	1	2
329.781	1	8
329.952	1	-4
330.123	1	-3
330.294	1	-9
330.465	1	3
330.636	1	4
330.807	1	3
330.978	1	-4
331.149	1	0
331.320	1	-7
331.492	1	8
331.663	1	8
331.834	1	-3
332.005	1	3
332.176	1	6
332.347	1	2
332.518	1	3
332.689	1	6
332.860	1	-5
333.031	1	5
333.202	1	4
333.373	1	7
333.544	1	2
333.715	1	0
333.886	1	0
334.057	1	-10
334.228	1	-2
334.399	1	15
334.570	1	5
334.741	1	7
334.912	1	-2
335.084	1	5
335.255	1	4
335.426	1	2
335.597	1	-2
335.768	1	7
335.939	1	5
336.110	1	9
336.281	1	-3
336.452	1	11
336.623	1	1
336.794	1	-10
336.965	1	-5
337.136	1	9
337.307	1	4
337.478	1	-3
337.649	1	-1
337.820	1	0
337.991	1	8
338.162	1	-5
338.333	1	4
338.504	1	10
338.675	1	-6
338.846	1	-15
339.017	1	4
339.188	1	2
339.359	1	3
339.530	1	-2
339.701	1	2
339.872	1	13
340.043	1	4
340.214	1	12
340.385	1	-7
340.556	1	9
340.727	1	10
340.898	1	4
341.069	1	0
341.240	1	3
341.411	1	-1
341.582	1	-2
341.753	1	-1
341.924	1	14
342.095	1	-3
342.266	1	14
342.437	1	4
342.608	1	3
342.779	1	-5
342.950	1	-4
343.121	1	3
343.292	1	4
343.463	1	18
343.634	1	6
343.805	1	7
343.976	1	13
344.147	1	13
344.318	1	-3
344.489	1	-2
344.660	1	16
344.831	1	8
345.002	1	-4
345.173	1	4
345.344	1	-6
345.515	1	3
345.686	1	-4
345.857	1	8
346.028	1	7
346.199	1	9
346.370	1	-5
346.541	1	2
346.712	1	1
346.883	1	-2
347.054	1	9
347.225	1	-2
347.396	1	5
347.567	1	-9
347.738	1	6
347.909	1	3
348.080	1	-4
348.251	1	3
348.422	1	5
348.593	1	2
348.764	1	1
348.935	1	5
349.106	1	-9
349.277	1	-4
349.448	1	5
349.619	1	2
349.790	1	13
349.961	1	-8
350.132	1	6
350.303	1	2
350.474	1	1
350.645	1	-4
350.816	1	5
350.987	1	14
351.157	1	1
351.328	1	-3
351.499	1	5
351.670	1	2
351.841	1	9
352.012	1	14
352.183	1	13
352.354	1	2
352.525	1	13
352.696	1	-6
352.867	1	8
353.038	1	1
353.209	1	8
353.380	1	1
353.551	1	9
353.722	1	4
353.893	1	13
354.064	1	5
354.235	1	0
354.406	1	-5
354.576	1	1
354.747	1	2
354.918	1	4
355.089	1	13
355.260	1	2
355.431	1	-1
355.602	1	7
355.773	1	7
355.944	1	5
356.115	1	8
356.286	1	6
356.457	1	5
356.628	1	2
356.799	1	10
356.970	1	11
357.141	1	7
357.311	1	14
357.482	1	4
357.653	1	-4
357.824	1	14
357.995	1	17
358.166	1	12
358.337	1	5
358.508	1	10
358.679	1	-1
358.850	1	8
359.021	1	11
359.192	1	8
359.363	1	3
359.533	1	5
359.704	1	1
359.875	1	2
360.046	1	13
360.217	1	8
360.388	1	8
360.559	1	12
360.730	1	7
360.901	1	9
361.072	1	15
361.243	1	4
361.414	1	11
361.584	1	1
361.755	1	-5
361.926	1	6
362.097	1	7
362.268	1	13
362.439	1	5
362.610	1	8
362.781	1	-2
362.952	1	7
363.123	1	-8
363.293	1	8
363.464	1	0
363.635	1	11
363.806	1	10
363.977	1	11
364.148	1	-1
364.319	1	-1
364.490	1	13
364.661	1	6
364.832	1	-4
365.002	1	14
365.173	1	-3
365.344	1	4
365.515	1	7
365.686	1	9
365.857	1	14
366.028	1	13
366.199	1	5
366.370	1	11
366.540	1	10
366.711	1	8
366.882	1	4
367.053	1	11
367.224	1	10
367.395	1	7
367.566	1	13
367.737	1	1
367.908	1	11
368.078	1	4
368.249	1	11
368.420	1	6
368.591	1	10
368.762	1	12
368.933	1	4
369.104	1	20
369.274	1	16
369.445	1	10
369.616	1	12
369.787	1	17
369.958	1	10
370.129	1	3
370.300	1	-2
370.471	1	14
370.641	1	6
370.812	1	5
370.983	1	7
371.154	1	-3
371.325	1	4
371.496	1	13
371.667	1	17
371.837	1	9
372.008	1	1
372.179	1	5
372.350	1	13
372.521	1	7
372.692	1	3
372.863	1	10
373.033	1	13
373.204	1	3
373.375	1	9
373.546	1	10
373.717	1	9
373.888	1	12
374.059	1	2
374.229	1	17
374.400	1	1
374.571	1	0
374.742	1	-1
374.913	1	-9
375.084	1	6
375.254	1	-3
375.425	1	10
375.596	1	3
375.767	1	5
375.938	1	1
376.109	1	1
376.279	1	3
376.450	1	17
376.621	1	11
376.792	1	6
376.963	1	1
377.134	1	8
377.304	1	14
377.475	1	1
377.646	1	7
377.817	1	9
377.988	1	22
378.159	1	11
378.329	1	2
378.500	1	14
378.671	1	4
378.842	1	11
379.013	1	13
379.184	1	3
379.354	1	13
379.525	1	14
379.696	1	10
379.867	1	14
380.038	1	4
380.209	1	5
380.379	1	12
380.550	1	-2
380.721	1	11
380.892	1	9
381.063	1	3
381.233	1	6
381.404	1	4
381.575	1	10
381.746	1	13
381.917	1	7
382.087	1	16
382.258	1	13
382.429	1	16
382.600	1	8
382.771	1	9
382.941	1	17
383.112	1	17
383.283	1	13
383.454	1	2
383.625	1	9
383.795	1	11
383.966	1	13
384.137	1	18
384.308	1	12
384.479	1	9
384.649	1	4
384.820	1	2
384.991	1	3
385.162	1	18
385.333	1	10
385.503	1	6
385.674	1	4
385.845	1	14
386.016	1	15
386.187	1	-3
386.357	1	17
386.528	1	4
386.699	1	15
386.870	1	9
387.041	1	21
387.211	1	8
387.382	1	13
387.553	1	2
387.724	1	6
387.894	1	-4
388.065	1	17
388.236	1	5
388.407	1	16
388.578	1	10
388.748	1	5
388.919	1	12
389.090	1	22
389.261	1	14
389.431	1	0
389.602	1	5
389.773	1	9
389.944	1	13
390.114	1	12
390.285	1	10
390.456	1	7
390.627	1	4
390.798	1	6
390.968	1	8
391.139	1	17
391.310	1	6
391.481	1	5
391.651	1	23
391.822	1	22
391.993	1	8
392.164	1	7
392.334	1	0
392.505	1	13
392.676	1	-1
392.847	1	9
393.017	1	10
393.188	1	14
393.359	1	17
393.530	1	30
393.700	1	9
393.871	1	14
394.042	1	1
394.213	1	15
394.383	1	8
394.554	1	-3
394.725	1	6
394.896	1	16
395.066	1	7
395.237	1	10
395.408	1	9
395.579	1	9
395.749	1	24
395.920	1	12
396.091	1	6
396.262	1	16
396.432	1	3
396.603	1	13
396.774	1	6
396.945	1	16
397.115	1	13
397.286	1	19
397.457	1	11
397.627	1	1
397.798	1	15
397.969	1	7
398.140	1	3
398.310	1	12
398.481	1	14
398.652	1	12
398.823	1	14
398.993	1	13
399.164	1	20
399.335	1	2
399.505	1	1
399.676	1	6
399.847	1	4
400.018	1	7
400.188	1	21
400.359	1	16
400.530	1	17
400.700	1	8
400.871	1	14
401.042	1	5
401.213	1	10
401.383	1	7
401.554	1	10
401.725	1	7
401.895	1	1
402.066	1	9
402.237	1	10
402.408	1	18
402.578	1	9
402.749	1	10
402.920	1	13
403.090	1	5
403.261	1	7
403.432	1	16
403.603	1	8
403.773	1	27
403.944	1	14
404.115	1	10
404.285	1	13
404.456	1	29
404.627	1	14
404.797	1	8
404.968	1	4
405.139	1	14
405.310	1	6
405.480	1	12
405.651	1	8
405.822	1	7
405.992	1	20
406.163	1	18
406.334	1	21
406.504	1	15
406.675	1	6
406.846	1	9
407.016	1	14
407.187	1	15
407.358	1	10
407.528	1	17
407.699	1	17
407.870	1	16
408.041	1	12
408.211	1	21
408.382	1	13
408.553	1	15
408.723	1	16
408.894	1	-2
409.065	1	12
409.235	1	12
409.406	1	12
409.577	1	8
409.747	1	17
409.918	1	15
410.089	1	18
410.259	1	9
410.430	1	12
410.601	1	12
410.771	1	17
410.942	1	6
411.113	1	12
411.283	1	10
411.454	1	28
411.625	1	23
411.795	1	19
411.966	1	7
412.137	1	21
412.307	1	16
412.478	1	12
412.649	1	7
412.819	1	12
412.990	1	20
413.161	1	17
413.331	1	23
413.502	1	8
413.672	1	8
413.843	1	8
414.014	1	13
414.184	1	25
414.355	1	17
414.526	1	16
414.696	1	-2
414.867	1	-3
415.038	1	9
415.208	1	6
415.379	1	3
415.550	1	6
415.720	1	13
415.891	1	21
416.062	1	9
416.232	1	28
416.403	1	15
416.573	1	6
416.744	1	11
416.915	1	9
417.085	1	14
417.256	1	13
417.427	1	9
417.597	1	8
417.768	1	13
417.939	1	11
418.109	1	11
418.280	1	21
418.450	1	18
418.621	1	8
418.792	1	12
418.962	1	11
419.133	1	8
419.304	1	11
419.474	1	16
419.645	1	9
419.815	1	10
419.986	1	17
420.157	1	18
420.327	1	1
420.498	1	14
420.669	1	15
420.839	1	14
421.010	1	16
421.180	1	5
421.351	1	14
421.522	1	12
421.692	1	19
421.863	1	12
422.033	1	19
422.204	1	18
422.375	1	16
422.545	1	20
422.716	1	3
422.886	1	13
423.057	1	13
423.228	1	1
423.398	1	11
423.569	1	6
423.740	1	10
423.910	1	11
424.081	1	15
424.251	1	20
424.422	1	11
424.593	1	17
424.763	1	11
424.934	1	28
425.104	1	30
425.275	1	8
425.445	1	18
425.616	1	7
425.787	1	9
425.957	1	13
426.128	1	8
426.298	1	20
426.469	1	-1
426.640	1	21
426.810	1	-13
426.981	1	16
427.151	1	11
427.322	1	10
427.493	1	8
427.663	1	5
427.834	1	7
428.004	1	22
428.175	1	11
428.345	1	7
428.516	1	20
428.687	1	19
428.857	1	21
429.028	1	1
429.198	1	1
429.369	1	8
429.540	1	10
429.710	1	12
429.881	1	11
430.051	1	16
430.222	1	11
430.392	1	11
430.563	1	8
430.734	1	13
430.904	1	11
431.075	1	14
431.245	1	10
431.416	1	13
431.586	1	9
431.757	1	14
431.927	1	17
432.098	1	15
432.269	1	9
432.439	1	7
432.610	1	23
432.780	1	10
432.951	1	9
433.121	1	13
433.292	1	15
433.462	1	12
433.633	1	11
433.804	1	14
433.974	1	17
434.145	1	3
434.315	1	4
434.486	1	0
434.656	1	13
434.827	1	19
434.997	1	11
435.168	1	12
435.339	1	19
435.509	1	11
435.680	1	19
435.850	1	-2
436.021	1	5
436.191	1	7
436.362	1	11
436.532	1	12
436.703	1	12
436.873	1	3
437.044	1	19
437.214	1	13
437.385	1	1
437.556	1	11
437.726	1	7
437.897	1	8
438.067	1	11
438.238	1	7
438.408	1	9
438.579	1	1
438.749	1	11
438.920	1	20
439.090	1	-9
439.261	1	18
439.431	1	-3
439.602	1	7
439.772	1	15
439.943	1	7
440.113	1	5
440.284	1	13
440.455	1	-1
440.625	1	24
440.796	1	10
440.966	1	21
441.137	1	8
441.307	1	7
441.478	1	2
441.648	1	3
441.819	1	12
441.989	1	24
442.160	1	11
442.330	1	3
442.501	1	4
442.671	1	7
442.842	1	10
443.012	1	9
443.183	1	10
443.353	1	13
443.524	1	10
443.694	1	11
443.865	1	18
444.035	1	8
444.206	1	2
444.376	1	16
444.547	1	13
444.717	1	7
444.888	1	-8
445.058	1	15
445.229	1	5
445.399	1	10
445.570	1	5
445.740	1	11
445.911	1	14
446.081	1	13
446.252	1	3
446.422	1	15
446.593	1	3
446.763	1	7
446.934	1	5
447.104	1	2
447.275	1	4
447.445	1	15
447.616	1	11
447.786	1	10
447.957	1	11
448.127	1	11
448.298	1	12
448.468	1	13
448.639	1	0
448.809	1	6
448.979	1	13
449.150	1	17
449.320	1	14
449.491	1	6
449.661	1	5
449.832	1	0
450.002	1	8
450.173	1	4
450.343	1	-5
450.514	1	13
450.684	1	3
450.855	1	12
451.025	1	9
451.196	1	-1
451.366	1	19
451.537	1	16
451.707	1	9
451.878	1	4
452.048	1	8
452.218	1	11
452.389	1	8
452.559	1	16
452.730	1	17
452.900	1	8
453.071	1	11
453.241	1	7
453.412	1	5
453.582	1	11
453.753	1	11
453.923	1	-2
454.093	1	4
454.264	1	28
454.434	1	11
454.605	1	6
454.775	1	18
454.946	1	5
455.116	1	5
455.287	1	-2
455.457	1	9
455.628	1	-2
455.798	1	9
455.968	1	5
456.139	1	15
456.309	1	11
456.480	1	5
456.650	1	10
456.821	1	5
456.991	1	9
457.161	1	9
457.332	1	5
457.502	1	-2
457.673	1	2
457.843	1	7
458.014	1	7
458.184	1	8
458.355	1	15
458.525	1	4
458.695	1	6
458.866	1	-3
459.036	1	12
459.207	1	16
459.377	1	3
459.548	1	8
459.718	1	7
459.888	1	7
460.059	1	9
460.229	1	7
460.400	1	9
460.570	1	9
460.740	1	6
460.911	1	-2
461.081	1	5
461.252	1	12
461.422	1	1
461.593	1	7
461.763	1	9
461.933	1	10
462.104	1	-4
462.274	1	-7
462.445	1	4
462.615	1	7
462.785	1	19
462.956	1	1
463.126	1	11
463.297	1	15
463.467	1	15
463.638	1	9
463.808	1	5
463.978	1	-10
464.149	1	6
464.319	1	10
464.490	1	12
464.660	1	0
464.830	1	3
465.001	1	6
465.171	1	8
465.342	1	8
465.512	1	11
465.682	1	0
465.853	1	10
466.023	1	13
466.194	1	11
466.364	1	13
466.534	1	-3
466.705	1	19
466.875	1	-2
467.045	1	2
467.216	1	8
467.386	1	9
467.557	1	10
467.727	1	0
467.897	1	10
468.068	1	2
468.238	1	4
468.409	1	8
468.579	1	3
468.749	1	2
468.920	1	0
469.090	1	16
469.260	1	6
469.431	1	-4
469.601	1	17
469.772	1	12
469.942	1	10
470.112	1	0
470.283	1	7
470.453	1	6
470.623	1	8
470.794	1	7
470.964	1	-1
471.135	1	8
471.305	1	10
471.475	1	4
471.646	1	9
471.816	1	9
471.986	1	6
472.157	1	7
472.327	1	7
472.497	1	-3
472.668	1	10
472.838	1	4
473.009	1	5
473.179	1	5
473.349	1	4
473.520	1	21
473.690	1	5
473.860	1	-12
474.031	1	-6
474.201	1	3
474.371	1	7
474.542	1	9
474.712	1	0
474.882	1	11
475.053	1	10
475.223	1	-1
475.394	1	-6
475.564	1	4
475.734	1	-3
475.905	1	16
476.075	1	7
476.245	1	2
476.416	1	5
476.586	1	4
476.756	1	7
476.927	1	2
477.097	1	3
477.267	1	7
477.438	1	3
477.608	1	22
477.778	1	2
477.949	1	-9
478.119	1	6
478.289	1	-1
478.460	1	2
478.630	1	-1
478.800	1	0
478.971	1	2
479.141	1	1
479.311	1	1
479.482	1	1
479.652	1	3
479.822	1	5
479.993	1	7
480.163	1	10
480.333	1	12
480.504	1	8
480.674	1	14
480.844	1	-3
481.015	1	7
481.185	1	11
481.355	1	14
481.525	1	-4
481.696	1	11
481.866	1	9
482.036	1	1
482.207	1	8
482.377	1	-9
482.547	1	10
482.718	1	11
482.888	1	11
483.058	1	13
483.229	1	2
483.399	1	7
483.569	1	0
483.740	1	-6
483.910	1	7
484.080	1	-2
484.250	1	-6
484.421	1	1
484.591	1	3
484.761	1	6
484.932	1	12
485.102	1	13
485.272	1	9
485.443	1	10
485.613	1	2
485.783	1	3
485.953	1	0
486.124	1	-1
486.294	1	9
486.464	1	11
486.635	1	7
486.805	1	8
486.975	1	-3
487.146	1	13
487.316	1	10
487.486	1	12
487.656	1	10
487.827	1	3
487.997	1	4
488.167	1	-3
488.338	1	-1
488.508	1	8
488.678	1	4
488.848	1	4
489.019	1	1
489.189	1	3
489.359	1	7
489.529	1	4
489.700	1	2
489.870	1	14
490.040	1	3
490.211	1	-7
490.381	1	-2
490.551	1	0
490.721	1	10
490.892	1	-7
491.062	1	-1
491.232	1	3
491.402	1	1
491.573	1	7
491.743	1	0
491.913	1	2
492.084	1	9
492.254	1	-3
492.424	1	-2
492.594	1	-8
492.765	1	10
492.935	1	14
493.105	1	-1
493.275	1	5
493.446	1	-1
493.616	1	-7
493.786	1	7
493.956	1	-3
494.127	1	2
494.297	1	-17
494.467	1	-2
494.637	1	5
494.808	1	9
494.978	1	10
495.148	1	7
495.318	1	6
495.489	1	1
495.659	1	7
495.829	1	-4
495.999	1	8
496.170	1	-5
496.340	1	3
496.510	1	4
496.680	1	12
496.851	1	8
497.021	1	1
497.191	1	7
497.361	1	-10
497.532	1	-3
497.702	1	6
497.872	1	0
498.042	1	-10
498.213	1	-7
498.383	1	4
498.553	1	9
498.723	1	1
498.894	1	3
499.064	1	0
499.234	1	4
499.404	1	5
499.574	1	3
499.745	1	-2
499.915	1	7
500.085	1	4
500.255	1	-3
500.426	1	-8
500.596	1	-1
500.766	1	1
500.936	1	-2
501.106	1	-3
501.277	1	-10
501.447	1	7
501.617	1	5
501.787	1	-1
501.958	1	-1
502.128	1	0
502.298	1	7
502.468	1	-1
502.638	1	6
502.809	1	-7
502.979	1	4
503.149	1	6
503.319	1	11
503.489	1	-6
503.660	1	-8
503.830	1	11
504.000	1	3
504.170	1	2
504.340	1	-6
504.511	1	-5
504.681	1	-2
504.851	1	1
505.021	1	-3
505.192	1	4
505.362	1	-1
505.532	1	-6
505.702	1	18
505.872	1	-4
506.043	1	3
506.213	1	9
506.383	1	3
506.553	1	-2
506.723	1	-11
506.893	1	-1
507.064	1	-2
507.234	1	5
507.404	1	-5
507.574	1	8
507.744	1	-11
507.915	1	1
508.085	1	6
508.255	1	-2
508.425	1	1
508.595	1	-6
508.766	1	-10
508.936	1	9
509.106	1	3
509.276	1	10
509.446	1	-13
509.616	1	7
509.787	1	-1
509.957	1	3
510.127	1	-6
510.297	1	-1
510.467	1	2
510.638	1	7
510.808	1	16
510.978	1	-3
511.148	1	10
511.318	1	2
511.488	1	12
511.659	1	5
511.829	1	-6
511.999	1	16
512.169	1	2
512.339	1	11
512.509	1	-10
512.680	1	6
512.850	1	-8
513.020	1	8
513.190	1	-3
513.360	1	-1
513.530	1	-3
513.700	1	2
513.871	1	2
514.041	1	6
514.211	1	3
514.381	1	8
514.551	1	-6
514.721	1	1
514.892	1	0
515.062	1	0
515.232	1	-5
515.402	1	2
515.572	1	-1
515.742	1	-2
515.912	1	-2
516.083	1	7
516.253	1	9
516.423	1	-1
516.593	1	1
516.763	1	2
516.933	1	-2
517.104	1	1
517.274	1	-5
517.444	1	-2
517.614	1	-3
517.784	1	5
517.954	1	1
518.124	1	-2
518.294	1	3
518.465	1	2
518.635	1	3
518.805	1	6
518.975	1	6
519.145	1	0
519.315	1	4
519.485	1	-3
519.656	1	-4
519.826	1	-5
519.996	1	5
520.166	1	-2
520.336	1	0
520.506	1	-4
520.676	1	8
520.846	1	-2
521.017	1	5
521.187	1	0
521.357	1	3
521.527	1	-3
521.697	1	1
521.867	1	-1
522.037	1	3
522.207	1	5
522.377	1	15
522.548	1	-6
522.718	1	6
522.888	1	2
523.058	1	1
523.228	1	-1
523.398	1	-2
523.568	1	-5
523.738	1	-5
523.909	1	6
524.079	1	5
524.249	1	-2
524.419	1	-7
524.589	1	-5
524.759	1	-1
524.929	1	5
525.099	1	2
525.269	1	6
525.439	1	6
525.610	1	13
525.780	1	-2
525.950	1	8
526.120	1	-2
526.290	1	-5
526.460	1	-4
526.630	1	-4
526.800	1	-7
526.970	1	9
527.140	1	0
527.311	1	-5
527.481	1	4
527.651	1	-2
527.821	1	3
527.991	1	-3
528.161	1	1
528.331	1	-4
528.501	1	0
528.671	1	-5
528.841	1	6
529.011	1	-4
529.181	1	5
529.352	1	1
529.522	1	5
529.692	1	8
529.862	1	-2
530.032	1	-17
530.202	1	-1
530.372	1	4
530.542	1	-9
530.712	1	-1
530.882	1	-2
531.052	1	0
531.222	1	-1
531.392	1	-3
531.563	1	-4
531.733	1	0
531.903	1	-10
532.073	1	3
532.243	1	9
532.413	1	11
532.583	1	-6
532.753	1	-6
532.923	1	-1
533.093	1	-1
533.263	1	-6
533.433	1	-9
533.603	1	-12
533.773	1	9
533.943	1	4
534.113	1	7
534.284	1	2
534.454	1	-4
534.624	1	3
534.794	1	0
534.964	1	2
535.134	1	-10
535.304	1	1
535.474	1	1
535.644	1	5
535.814	1	-7
535.984	1	-1
536.154	1	2
536.324	1	-1
536.494	1	3
536.664	1	5
536.834	1	4
537.004	1	7
537.174	1	5
537.344	1	-3
537.514	1	-7
537.685	1	8
537.855	1	1
538.025	1	6
538.195	1	-9
538.365	1	12
538.535	1	2
538.705	1	-4
538.875	1	10
539.045	1	2
539.215	1	-4
539.385	1	3
539.555	1	-7
539.725	1	-2
539.895	1	-2
540.065	1	3
540.235	1	5
540.405	1	0
540.575	1	-2
540.745	1	2
540.915	1	1
541.085	1	-5
541.255	1	0
541.425	1	2
541.595	1	1
541.765	1	2
541.935	1	-8
542.105	1	1
542.275	1	-7
542.445	1	0
542.615	1	3
542.785	1	-5
542.955	1	4
543.125	1	-1
543.295	1	-9
543.465	1	8
543.635	1	-4
543.805	1	4
543.975	1	0
544.145	1	1
544.315	1	-5
544.485	1	-4
544.655	1	9
544.825	1	-1
544.995	1	-6
545.165	1	0
545.335	1	7
545.505	1	-6
545.675	1	10
545.845	1	2
546.015	1	-1
546.185	1	-4
546.355	1	-3
546.525	1	1
546.695	1	-3
546.865	1	3
547.035	1	1
547.205	1	15
547.375	1	2
547.545	1	9
547.715	1	1
547.885	1	-5
548.055	1	-4
548.225	1	3
548.395	1	3
548.565	1	4
548.735	1	-8
548.905	1	3
549.075	1	3
549.245	1	-1
549.415	1	-2
549.585	1	2
549.755	1	-2
549.925	1	-2
550.095	1	-7
550.265	1	3
550.435	1	2
550.605	1	7
550.775	1	-11
550.945	1	5
551.115	1	7
551.285	1	1
551.455	1	-1
551.625	1	-4
551.795	1	-5
551.965	1	-3
552.135	1	-5
552.305	1	5
552.475	1	5
552.645	1	-4
552.815	1	-4
552.985	1	-4
553.155	1	-11
553.325	1	1
553.495	1	1
553.665	1	-3
553.835	1	-6
554.004	1	-3
554.174	1	-7
554.344	1	6
554.514	1	-9
554.684	1	4
554.854	1	0
555.024	1	9
555.194	1	1
555.364	1	-4
555.534	1	-9
555.704	1	1
555.874	1	2
556.044	1	2
556.214	1	4
556.384	1	1
556.554	1	3
556.724	1	-1
556.894	1	-1
557.064	1	0
557.234	1	2
557.404	1	6
557.573	1	1
557.743	1	-8
557.913	1	-5
558.083	1	1
558.253	1	-5
558.423	1	-3
558.593	1	10
558.763	1	0
558.933	1	1
559.103	1	1
559.273	1	2
559.443	1	2
559.613	1	-7
559.783	1	-4
559.953	1	-13
560.122	1	3
560.292	1	-10
560.462	1	-10
560.632	1	4
560.802	1	7
560.972	1	-3
561.142	1	-4
561.312	1	-5
561.482	1	10
561.652	1	7
561.822	1	1
561.992	1	8
562.162	1	-12
562.331	1	-2
562.501	1	5
562.671	1	-1
562.841	1	-6
563.011	1	-2
563.181	1	1
563.351	1	-16
563.521	1	2
563.691	1	-3
563.861	1	2
564.031	1	-12
564.201	1	3
564.370	1	3
564.540	1	-7
564.710	1	-3
564.880	1	2
565.050	1	7
565.220	1	3
565.390	1	0
565.560	1	7
565.730	1	12
565.900	1	-1
566.069	1	10
566.239	1	7
566.409	1	6
566.579	1	2
566.749	1	0
566.919	1	-5
567.089	1	-10
567.259	1	-4
567.429	1	-8
567.599	1	11
567.768	1	-3
567.938	1	9
568.108	1	-4
568.278	1	1
568.448	1	-10
568.618	1	-2
568.788	1	9
568.958	1	0
569.128	1	-6
569.297	1	-1
569.467	1	11
569.637	1	7
569.807	1	7
569.977	1	-6
570.147	1	-5
570.317	1	-1
570.487	1	0
570.656	1	-1
570.826	1	1
570.996	1	10
571.166	1	0
571.336	1	-4
571.506	1	-6
571.676	1	2
571.846	1	0
572.015	1	5
572.185	1	2
572.355	1	11
572.525	1	-14
572.695	1	1
572.865	1	5
573.035	1	3
573.205	1	1
573.374	1	-5
573.544	1	-3
573.714	1	3
573.884	1	-7
574.054	1	4
574.224	1	0
574.394	1	-2
574.563	1	-6
574.733	1	-3
574.903	1	-8
575.073	1	2
575.243	1	-2
575.413	1	1
575.583	1	-9
575.752	1	-3
575.922	1	5
576.092	1	-2
576.262	1	1
576.432	1	-1
576.602	1	2
576.772	1	-6
576.941	1	2
577.111	1	-2
577.281	1	-2
577.451	1	1
577.621	1	-1
577.791	1	-1
577.960	1	-5
578.130	1	-3
578.300	1	-10
578.470	1	0
578.640	1	-4
578.810	1	-2
578.979	1	6
579.149	1	3
579.319	1	-3
579.489	1	11
579.659	1	4
579.829	1	-1
579.998	1	-12
580.168	1	-6
580.338	1	0
580.508	1	-6
580.678	1	-5
580.848	1	-1
581.017	1	-1
581.187	1	-3
581.357	1	0
581.527	1	3
581.697	1	-1
581.867	1	-1
582.036	1	-11
582.206	1	6
582.376	1	-4
582.546	1	-10
582.716	1	4
582.885	1	-1
583.055	1	-3
583.225	1	1
583.395	1	5
583.565	1	7
583.735	1	-2
583.904	1	0
584.074	1	7
584.244	1	-2
584.414	1	3
584.584	1	3
584.753	1	1
584.923	1	-6
585.093	1	6
585.263	1	2
585.433	1	-6
585.602	1	-2
585.772	1	7
585.942	1	-5
586.112	1	8
586.282	1	6
586.451	1	6
586.621	1	-8
586.791	1	-11
586.961	1	-9
587.131	1	-1
587.300	1	7
587.470	1	-5
587.640	1	-4
587.810	1	-12
587.980	1	4
588.149	1	3
588.319	1	6
588.489	1	3
588.659	1	-14
588.829	1	-2
588.998	1	5
589.168	1	-9
589.338	1	4
589.508	1	-5
589.677	1	3
589.847	1	5
590.017	1	-7
590.187	1	-1
590.357	1	-8
590.526	1	3
590.696	1	10
590.866	1	4
591.036	1	-2
591.205	1	1
591.375	1	4
591.545	1	2
591.715	1	-11
591.885	1	3
592.054	1	2
592.224	1	5
592.394	1	-3
592.564	1	-2
592.733	1	2
592.903	1	-9
593.073	1	-4
593.243	1	6
593.412	1	0
593.582	1	7
593.752	1	-12
593.922	1	-3
594.091	1	5
594.261	1	-9
594.431	1	8
594.601	1	-4
594.771	1	7
594.940	1	-1
595.110	1	0
595.280	1	-9
595.450	1	-7
595.619	1	4
595.789	1	-8
595.959	1	4
596.129	1	0
596.298	1	4
596.468	1	0
596.638	1	0
596.808	1	-6
596.977	1	-8
597.147	1	-4
597.317	1	1
597.487	1	1
597.656	1	8
597.826	1	4
597.996	1	-1
598.166	1	-6
598.335	1	-4
598.505	1	1
598.675	1	2
598.844	1	12
599.014	1	-4
599.184	1	-2
599.354	1	4
599.523	1	-4
599.693	1	-9
599.863	1	-1
600.033	1	-1
600.202	1	-8
600.372	1	-8
600.542	1	-5
600.712	1	-1
600.881	1	-9
601.051	1	4
601.221	1	8
601.390	1	-7
601.560	1	-2
601.730	1	3
601.900	1	9
602.069	1	1
602.239	1	-4
602.409	1	1
602.578	1	-1
602.748	1	6
602.918	1	-8
603.088	1	2
603.257	1	-6
603.427	1	5
603.597	1	-1
603.767	1	-1
603.936	1	1
604.106	1	-5
604.276	1	-2
604.445	1	-5
604.615	1	4
604.785	1	5
604.954	1	1
605.124	1	0
605.294	1	-8
605.464	1	-5
605.633	1	-1
605.803	1	3
605.973	1	4
606.142	1	5
606.312	1	4
606.482	1	-6
606.652	1	4
606.821	1	-1
606.991	1	11
607.161	1	1
607.330	1	-4
607.500	1	3
607.670	1	3
607.839	1	1
608.009	1	-7
608.179	1	4
608.348	1	5
608.518	1	6
608.688	1	0
608.858	1	-10
609.027	1	7
609.197	1	-1
609.367	1	-1
609.536	1	-5
609.706	1	5
609.876	1	4
610.045	1	1
610.215	1	4
610.385	1	3
610.554	1	0
610.724	1	1
610.894	1	-2
611.063	1	-11
611.233	1	-1
611.403	1	6
611.572	1	3
611.742	1	-5
611.912	1	0
612.081	1	8
612.251	1	-4
612.421	1	-1
612.590	1	3
612.760	1	-2
612.930	1	7
613.099	1	0
613.269	1	-5
613.439	1	-8
613.608	1	1
613.778	1	-5
613.948	1	2
614.117	1	-10
614.287	1	-5
614.457	1	7
614.626	1	-1
614.796	1	1
614.966	1	-2
615.135	1	10
615.305	1	3
615.475	1	-1
615.644	1	10
615.814	1	8
615.984	1	-4
616.153	1	3
616.323	1	-2
616.493	1	-6
616.662	1	-1
616.832	1	11
617.002	1	-4
617.171	1	0
617.341	1	17
617.511	1	-6
617.680	1	0
617.850	1	-1
618.019	1	0
618.189	1	2
618.359	1	-4
618.528	1	-1
618.698	1	8
618.868	1	-4
619.037	1	2
619.207	1	-8
619.377	1	6
619.546	1	12
619.716	1	2
619.885	1	-8
620.055	1	-11
620.225	1	2
620.394	1	3
620.564	1	5
620.734	1	-6
620.903	1	-6
621.073	1	6
621.242	1	-1
621.412	1	-8
621.582	1	8
621.751	1	-8
621.921	1	4
622.091	1	4
622.260	1	2
622.430	1	-2
622.599	1	-6
622.769	1	-6
622.939	1	1
623.108	1	-3
623.278	1	2
623.448	1	-4
623.617	1	-3
623.787	1	0
623.956	1	6
624.126	1	2
624.296	1	7
624.465	1	4
624.635	1	-7
624.804	1	-12
624.974	1	-10
625.144	1	-3
625.313	1	8
625.483	1	11
625.652	1	-7
625.822	1	6
625.992	1	-12
626.161	1	4
626.331	1	-3
626.501	1	7
626.670	1	5
626.840	1	0
627.009	1	0
627.179	1	5
627.348	1	-5
627.518	1	6
627.688	1	-9
627.857	1	5
628.027	1	6
628.196	1	-3
628.366	1	-11
628.536	1	-6
628.705	1	-3
628.875	1	-7
629.044	1	-1
629.214	1	4
629.384	1	8
629.553	1	1
629.723	1	-1
629.892	1	2
630.062	1	0
630.232	1	7
630.401	1	-2
630.571	1	-8
630.740	1	-4
630.910	1	10
631.079	1	-1
631.249	1	-2
631.419	1	6
631.588	1	0
631.758	1	-1
631.927	1	11
632.097	1	-11
632.266	1	6
632.436	1	-3
632.606	1	1
632.775	1	2
632.945	1	2
633.114	1	-9
633.284	1	-4
633.453	1	1
633.623	1	18
633.793	1	5
633.962	1	2
634.132	1	11
634.301	1	4
634.471	1	5
634.640	1	-6
634.810	1	8
634.979	1	6
635.149	1	-8
635.319	1	-3
635.488	1	-2
635.658	1	-4
635.827	1	-6
635.997	1	4
636.166	1	-1
636.336	1	3
636.505	1	1
636.675	1	-1
636.845	1	1
637.014	1	-10
637.184	1	8
637.353	1	-4
637.523	1	-8
637.692	1	-3
637.862	1	-1
638.031	1	-10
638.201	1	4
638.370	1	4
638.540	1	-5
638.710	1	-6
638.879	1	-9
639.049	1	-6
639.218	1	-2
639.388	1	-3
639.557	1	10
639.727	1	-3
639.896	1	5
640.066	1	-6
640.235	1	-2
640.405	1	-2
640.574	1	8
640.744	1	-7
640.914	1	3
641.083	1	6
641.253	1	-5
641.422	1	-4
641.592	1	11
641.761	1	-12
641.931	1	6
642.100	1	-1
642.270	1	-1
642.439	1	0
642.609	1	-5
642.778	1	2
642.948	1	2
643.117	1	5
643.287	1	3
643.456	1	1
643.626	1	-7
643.795	1	2
643.965	1	-9
644.134	1	0
644.304	1	-7
644.473	1	-5
644.643	1	-2
644.812	1	-10
644.982	1	9
645.151	1	-1
645.321	1	1
645.490	1	7
645.660	1	-4
645.829	1	2
645.999	1	-12
646.168	1	17
646.338	1	-6
646.507	1	-1
646.677	1	-3
646.846	1	5
647.016	1	-2
647.185	1	2
647.355	1	17
647.524	1	-10
647.694	1	-8
647.863	1	-6
648.033	1	2
648.202	1	9
648.372	1	-10
648.541	1	-2
648.711	1	-8
648.880	1	1
649.050	1	2
649.219	1	2
649.389	1	3
649.558	1	11
649.728	1	0
649.897	1	7
650.067	1	7
650.236	1	-9
650.406	1	-6
650.575	1	-5
650.745	1	5
650.914	1	10
651.084	1	2
651.253	1	0
651.423	1	-2
651.592	1	-3
651.762	1	-1
651.931	1	10
652.101	1	-5
652.270	1	-7
652.440	1	11
652.609	1	5
652.778	1	11
652.948	1	8
653.117	1	-7
653.287	1	-16
653.456	1	2
653.626	1	0
653.795	1	-1
653.965	1	-5
654.134	1	-6
654.304	1	4
654.473	1	6
654.643	1	-4
654.812	1	12
654.982	1	1
655.151	1	5
655.320	1	-14
655.490	1	-5
655.659	1	12
655.829	1	4
655.998	1	7
656.168	1	0
656.337	1	2
656.507	1	-7
656.676	1	-6
656.846	1	7
657.015	1	7
657.184	1	2
657.354	1	-2
657.523	1	-2
657.693	1	-4
657.862	1	-5
658.032	1	-1
658.201	1	-2
658.371	1	1
658.540	1	-9
658.709	1	6
658.879	1	3
659.048	1	9
659.218	1	1
659.387	1	-2
659.557	1	-5
659.726	1	-2
659.895	1	10
660.065	1	0
660.234	1	-4
660.404	1	-1
660.573	1	-5
660.743	1	-7
660.912	1	1
661.081	1	-5
661.251	1	-11
661.420	1	0
661.590	1	-6
661.759	1	7
661.929	1	2
662.098	1	-1
662.267	1	-13
662.437	1	1
662.606	1	-10
662.776	1	1
662.945	1	6
663.115	1	13
663.284	1	6
663.453	1	0
663.623	1	-3
663.792	1	-1
663.962	1	5
664.131	1	-5
664.300	1	-3
664.470	1	-2
664.639	1	-1
664.809	1	-1
664.978	1	8
665.148	1	2
665.317	1	-4
665.486	1	2
665.656	1	-3
665.825	1	5
665.995	1	-3
666.164	1	2
666.333	1	0
666.503	1	-8
666.672	1	-3
666.842	1	8
667.011	1	2
667.180	1	1
667.350	1	5
667.519	1	1
667.689	1	0
667.858	1	2
668.027	1	-10
668.197	1	-7
668.366	1	-8
668.536	1	5
668.705	1	-9
668.874	1	-5
669.044	1	6
669.213	1	3
669.382	1	6
669.552	1	-1
669.721	1	-10
669.891	1	0
670.060	1	-4
670.229	1	5
670.399	1	9
670.568	1	7
670.738	1	1
670.907	1	8
671.076	1	3
671.246	1	10
671.415	1	15
671.584	1	4
671.754	1	-14
671.923	1	-3
672.093	1	1
672.262	1	-4
672.431	1	8
672.601	1	6
672.770	1	5
672.939	1	3
673.109	1	-7
673.278	1	-1
673.448	1	0
673.617	1	2
673.786	1	-6
