325.333	1	5
325.504	1	6
325.675	1	19
325.846	1	6
326.017	1	3
326.188	1	9
326.359	1	7
326.531	1	-5
326.702	1	-1
326.873	1	17
327.044	1	8
327.215	1	0
327.386	1	13
327.557	1	4
327.728	1	0
327.899	1	-1
328.070	1	17
328.241	1	11
328.412	1	6
328.583	1	1
328.754	1	14
328.926	1	17
329.097	1	1
329.268	1	10
329.439	1	16
329.610	1	11
329.781	1	16
329.952	1	18
330.123	1	16
330.294	1	13
330.465	1	5
330.636	1	12
330.807	1	7
330.978	1	6
331.149	1	16
331.320	1	11
331.492	1	-1
331.663	1	7
331.834	1	20
332.005	1	15
332.176	1	10
332.347	1	0
332.518	1	17
332.689	1	10
332.860	1	4
333.031	1	9
333.202	1	15
333.373	1	8
333.544	1	14
333.715	1	10
333.886	1	14
334.057	1	3
334.228	1	16
334.399	1	17
334.570	1	10
334.741	1	7
334.912	1	10
335.084	1	9
335.255	1	21
335.426	1	23
335.597	1	15
335.768	1	25
335.939	1	21
336.110	1	14
336.281	1	23
336.452	1	11
336.623	1	7
336.794	1	21
336.965	1	15
337.136	1	23
337.307	1	23
337.478	1	15
337.649	1	14
337.820	1	21
337.991	1	4
338.162	1	-1
338.333	1	11
338.504	1	23
338.675	1	13
338.846	1	5
339.017	1	19
339.188	1	18
339.359	1	21
339.530	1	7
339.701	1	16
339.872	1	23
340.043	1	15
340.214	1	20
340.385	1	7
340.556	1	30
340.727	1	20
340.898	1	10
341.069	1	18
341.240	1	13
341.411	1	23
341.582	1	4
341.753	1	23
341.924	1	22
342.095	1	16
342.266	1	30
342.437	1	9
342.608	1	14
342.779	1	27
342.950	1	16
343.121	1	20
343.292	1	20
343.463	1	31
343.634	1	17
343.805	1	23
343.976	1	26
344.147	1	28
344.318	1	7
344.489	1	14
344.660	1	36
344.831	1	27
345.002	1	12
345.173	1	10
345.344	1	14
345.515	1	19
345.686	1	32
345.857	1	18
346.028	1	16
346.199	1	25
346.370	1	14
346.541	1	7
346.712	1	15
346.883	1	12
347.054	1	23
347.225	1	15
347.396	1	15
347.567	1	9
347.738	1	18
347.909	1	23
348.080	1	24
348.251	1	25
348.422	1	25
348.593	1	18
348.764	1	29
348.935	1	16
349.106	1	25
349.277	1	22
349.448	1	26
349.619	1	17
349.790	1	31
349.961	1	19
350.132	1	22
350.303	1	29
350.474	1	29
350.645	1	22
350.816	1	21
350.987	1	38
351.157	1	21
351.328	1	15
351.499	1	28
351.670	1	20
351.841	1	23
352.012	1	32
352.183	1	34
352.354	1	23
352.525	1	31
352.696	1	37
352.867	1	38
353.038	1	20
353.209	1	26
353.380	1	32
353.551	1	17
353.722	1	35
353.893	1	26
354.064	1	26
354.235	1	20
354.406	1	14
354.576	1	25
354.747	1	26
354.918	1	31
355.089	1	38
355.260	1	35
355.431	1	33
355.602	1	29
355.773	1	17
355.944	1	41
356.115	1	37
356.286	1	31
356.457	1	32
356.628	1	26
356.799	1	33
356.970	1	39
357.141	1	30
357.311	1	40
357.482	1	18
357.653	1	34
357.824	1	29
357.995	1	24
358.166	1	28
358.337	1	30
358.508	1	29
358.679	1	18
358.850	1	40
359.021	1	28
359.192	1	48
359.363	1	28
359.533	1	37
359.704	1	30
359.875	1	27
360.046	1	34
360.217	1	43
360.388	1	51
360.559	1	26
360.730	1	22
360.901	1	38
361.072	1	38
361.243	1	33
361.414	1	32
361.584	1	29
361.755	1	29
361.926	1	38
362.097	1	26
362.268	1	35
362.439	1	28
362.610	1	36
362.781	1	28
362.952	1	39
363.123	1	31
363.293	1	31
363.464	1	31
363.635	1	41
363.806	1	34
363.977	1	38
364.148	1	32
364.319	1	30
364.490	1	30
364.661	1	37
364.832	1	30
365.002	1	37
365.173	1	34
365.344	1	28
365.515	1	33
365.686	1	39
365.857	1	43
366.028	1	37
366.199	1	33
366.370	1	32
366.540	1	36
366.711	1	38
366.882	1	42
367.053	1	33
367.224	1	33
367.395	1	37
367.566	1	36
367.737	1	25
367.908	1	39
368.078	1	28
368.249	1	41
368.420	1	37
368.591	1	34
368.762	1	31
368.933	1	30
369.104	1	38
369.274	1	51
369.445	1	47
369.616	1	41
369.787	1	34
369.958	1	37
370.129	1	23
370.300	1	31
370.471	1	31
370.641	1	27
370.812	1	46
370.983	1	31
371.154	1	33
371.325	1	37
371.496	1	39
371.667	1	48
371.837	1	40
372.008	1	37
372.179	1	37
372.350	1	34
372.521	1	42
372.692	1	34
372.863	1	35
373.033	1	29
373.204	1	42
373.375	1	33
373.546	1	38
373.717	1	36
373.888	1	25
374.059	1	30
374.229	1	31
374.400	1	22
374.571	1	36
374.742	1	41
374.913	1	34
375.084	1	36
375.254	1	34
375.425	1	44
375.596	1	42
375.767	1	44
375.938	1	26
376.109	1	41
376.279	1	38
376.450	1	37
376.621	1	40
376.792	1	42
376.963	1	33
377.134	1	36
377.304	1	32
377.475	1	33
377.646	1	35
377.817	1	53
377.988	1	44
378.159	1	37
378.329	1	39
378.500	1	42
378.671	1	32
378.842	1	48
379.013	1	53
379.184	1	43
379.354	1	42
379.525	1	37
379.696	1	34
379.867	1	45
380.038	1	38
380.209	1	44
380.379	1	42
380.550	1	36
380.721	1	23
380.892	1	39
381.063	1	45
381.233	1	39
381.404	1	31
381.575	1	30
381.746	1	52
381.917	1	36
382.087	1	53
382.258	1	46
382.429	1	46
382.600	1	35
382.771	1	33
382.941	1	50
383.112	1	33
383.283	1	41
383.454	1	35
383.625	1	42
383.795	1	53
383.966	1	46
384.137	1	54
384.308	1	45
384.479	1	44
384.649	1	34
384.820	1	42
384.991	1	39
385.162	1	48
385.333	1	44
385.503	1	46
385.674	1	35
385.845	1	60
386.016	1	57
386.187	1	44
386.357	1	54
386.528	1	51
386.699	1	46
386.870	1	46
387.041	1	50
387.211	1	43
387.382	1	48
387.553	1	44
387.724	1	51
387.894	1	48
388.065	1	51
388.236	1	40
388.407	1	51
388.578	1	46
388.748	1	47
388.919	1	45
389.090	1	66
389.261	1	48
389.431	1	45
389.602	1	48
389.773	1	56
389.944	1	57
390.114	1	41
390.285	1	58
390.456	1	42
390.627	1	42
390.798	1	48
390.968	1	53
391.139	1	58
391.310	1	47
391.481	1	41
391.651	1	63
391.822	1	53
391.993	1	35
392.164	1	52
392.334	1	41
392.505	1	47
392.676	1	43
392.847	1	48
393.017	1	43
393.188	1	48
393.359	1	58
393.530	1	67
393.700	1	40
393.871	1	56
394.042	1	55
394.213	1	52
394.383	1	55
394.554	1	48
394.725	1	40
394.896	1	52
395.066	1	55
395.237	1	55
395.408	1	49
395.579	1	50
395.749	1	57
395.920	1	47
396.091	1	45
396.262	1	60
396.432	1	44
396.603	1	62
396.774	1	50
396.945	1	43
397.115	1	50
397.286	1	59
397.457	1	53
397.627	1	43
397.798	1	60
397.969	1	53
398.140	1	49
398.310	1	49
398.481	1	49
398.652	1	60
398.823	1	48
398.993	1	51
399.164	1	57
399.335	1	46
399.505	1	37
399.676	1	63
399.847	1	50
400.018	1	45
400.188	1	57
400.359	1	61
400.530	1	53
400.700	1	42
400.871	1	57
401.042	1	47
401.213	1	62
401.383	1	41
401.554	1	58
401.725	1	49
401.895	1	46
402.066	1	52
402.237	1	48
402.408	1	48
402.578	1	52
402.749	1	43
402.920	1	56
403.090	1	54
403.261	1	54
403.432	1	56
403.603	1	62
403.773	1	71
403.944	1	54
404.115	1	58
404.285	1	60
404.456	1	58
404.627	1	54
404.797	1	57
404.968	1	59
405.139	1	66
405.310	1	60
405.480	1	58
405.651	1	59
405.822	1	53
405.992	1	59
406.163	1	45
406.334	1	60
406.504	1	53
406.675	1	47
406.846	1	58
407.016	1	55
407.187	1	58
407.358	1	48
407.528	1	67
407.699	1	61
407.870	1	60
408.041	1	48
408.211	1	70
408.382	1	67
408.553	1	54
408.723	1	63
408.894	1	52
409.065	1	59
409.235	1	55
409.406	1	45
409.577	1	57
409.747	1	59
409.918	1	66
410.089	1	64
410.259	1	52
410.430	1	62
410.601	1	70
410.771	1	65
410.942	1	61
411.113	1	53
411.283	1	51
411.454	1	72
411.625	1	67
411.795	1	62
411.966	1	54
412.137	1	65
412.307	1	60
412.478	1	57
412.649	1	48
412.819	1	58
412.990	1	61
413.161	1	54
413.331	1	61
413.502	1	53
413.672	1	50
413.843	1	60
414.014	1	58
414.184	1	56
414.355	1	60
414.526	1	56
414.696	1	51
414.867	1	47
415.038	1	64
415.208	1	46
415.379	1	69
415.550	1	50
415.720	1	48
415.891	1	59
416.062	1	56
416.232	1	61
416.403	1	70
416.573	1	39
416.744	1	58
416.915	1	47
417.085	1	68
417.256	1	55
417.427	1	49
417.597	1	49
417.768	1	58
417.939	1	53
418.109	1	51
418.280	1	51
418.450	1	71
418.621	1	55
418.792	1	52
418.962	1	53
419.133	1	60
419.304	1	49
419.474	1	50
419.645	1	57
419.815	1	48
419.986	1	68
420.157	1	50
420.327	1	45
420.498	1	52
420.669	1	66
420.839	1	58
421.010	1	64
421.180	1	50
421.351	1	59
421.522	1	52
421.692	1	56
421.863	1	55
422.033	1	54
422.204	1	63
422.375	1	54
422.545	1	58
422.716	1	36
422.886	1	59
423.057	1	60
423.228	1	63
423.398	1	40
423.569	1	48
423.740	1	51
423.910	1	48
424.081	1	60
424.251	1	53
424.422	1	60
424.593	1	62
424.763	1	50
424.934	1	51
425.104	1	57
425.275	1	45
425.445	1	50
425.616	1	52
425.787	1	47
425.957	1	48
426.128	1	55
426.298	1	59
426.469	1	40
426.640	1	46
426.810	1	39
426.981	1	60
427.151	1	48
427.322	1	49
427.493	1	56
427.663	1	55
427.834	1	46
428.004	1	62
428.175	1	41
428.345	1	49
428.516	1	44
428.687	1	53
428.857	1	56
429.028	1	49
429.198	1	50
429.369	1	55
429.540	1	48
429.710	1	44
429.881	1	44
430.051	1	52
430.222	1	56
430.392	1	54
430.563	1	51
430.734	1	43
430.904	1	47
431.075	1	56
431.245	1	54
431.416	1	41
431.586	1	44
431.757	1	69
431.927	1	48
432.098	1	53
432.269	1	49
432.439	1	54
432.610	1	56
432.780	1	50
432.951	1	46
433.121	1	54
433.292	1	57
433.462	1	45
433.633	1	51
433.804	1	46
433.974	1	48
434.145	1	44
434.315	1	50
434.486	1	48
434.656	1	60
434.827	1	56
434.997	1	57
435.168	1	58
435.339	1	55
435.509	1	50
435.680	1	60
435.850	1	50
436.021	1	49
436.191	1	47
436.362	1	39
436.532	1	53
436.703	1	50
436.873	1	45
437.044	1	51
437.214	1	44
437.385	1	47
437.556	1	56
437.726	1	54
437.897	1	49
438.067	1	58
438.238	1	53
438.408	1	47
438.579	1	45
438.749	1	37
438.920	1	51
439.090	1	33
439.261	1	54
439.431	1	39
439.602	1	53
439.772	1	47
439.943	1	45
440.113	1	36
440.284	1	44
440.455	1	43
440.625	1	45
440.796	1	53
440.966	1	46
441.137	1	41
441.307	1	54
441.478	1	39
441.648	1	49
441.819	1	43
441.989	1	58
442.160	1	48
442.330	1	47
442.501	1	44
442.671	1	48
442.842	1	45
443.012	1	37
443.183	1	48
443.353	1	45
443.524	1	40
443.694	1	38
443.865	1	52
444.035	1	44
444.206	1	41
444.376	1	52
444.547	1	46
444.717	1	50
444.888	1	38
445.058	1	46
445.229	1	37
445.399	1	51
445.570	1	39
445.740	1	48
445.911	1	48
446.081	1	43
446.252	1	40
446.422	1	43
446.593	1	43
446.763	1	53
446.934	1	32
447.104	1	40
447.275	1	49
447.445	1	40
447.616	1	45
447.786	1	46
447.957	1	49
448.127	1	48
448.298	1	40
448.468	1	43
448.639	1	35
448.809	1	40
448.979	1	50
449.150	1	37
449.320	1	45
449.491	1	38
449.661	1	39
449.832	1	42
450.002	1	39
450.173	1	45
450.343	1	37
450.514	1	45
450.684	1	43
450.855	1	43
451.025	1	44
451.196	1	36
451.366	1	47
451.537	1	50
451.707	1	48
451.878	1	47
452.048	1	29
452.218	1	44
452.389	1	43
452.559	1	50
452.730	1	46
452.900	1	25
453.071	1	43
453.241	1	44
453.412	1	26
453.582	1	32
453.753	1	46
453.923	1	40
454.093	1	36
454.264	1	45
454.434	1	44
454.605	1	29
454.775	1	43
454.946	1	36
455.116	1	44
455.287	1	28
455.457	1	45
455.628	1	27
455.798	1	54
455.968	1	36
456.139	1	42
456.309	1	32
456.480	1	36
456.650	1	35
456.821	1	36
456.991	1	32
457.161	1	37
457.332	1	37
457.502	1	42
457.673	1	38
457.843	1	37
458.014	1	41
458.184	1	31
458.355	1	42
458.525	1	37
458.695	1	33
458.866	1	27
459.036	1	47
459.207	1	35
459.377	1	44
459.548	1	43
459.718	1	30
459.888	1	32
460.059	1	41
460.229	1	30
460.400	1	33
460.570	1	42
460.740	1	40
460.911	1	33
461.081	1	44
461.252	1	39
461.422	1	27
461.593	1	37
461.763	1	41
461.933	1	43
462.104	1	34
462.274	1	24
462.445	1	29
462.615	1	42
462.785	1	40
462.956	1	30
463.126	1	32
463.297	1	32
463.467	1	45
463.638	1	37
463.808	1	39
463.978	1	28
464.149	1	30
464.319	1	29
464.490	1	33
464.660	1	25
464.830	1	34
465.001	1	31
465.171	1	29
465.342	1	23
465.512	1	45
465.682	1	27
465.853	1	29
466.023	1	38
466.194	1	37
466.364	1	40
466.534	1	25
466.705	1	45
466.875	1	27
467.045	1	18
467.216	1	35
467.386	1	30
467.557	1	50
467.727	1	27
467.897	1	20
468.068	1	31
468.238	1	32
468.409	1	26
468.579	1	40
468.749	1	36
468.920	1	27
469.090	1	28
469.260	1	28
469.431	1	22
469.601	1	38
469.772	1	38
469.942	1	38
470.112	1	22
470.283	1	26
470.453	1	34
470.623	1	29
470.794	1	26
470.964	1	21
471.135	1	35
471.305	1	39
471.475	1	28
471.646	1	35
471.816	1	35
471.986	1	23
472.157	1	25
472.327	1	39
472.497	1	31
472.668	1	36
472.838	1	25
473.009	1	37
473.179	1	33
473.349	1	24
473.520	1	40
473.690	1	26
473.860	1	17
474.031	1	15
474.201	1	17
474.371	1	40
474.542	1	29
474.712	1	17
474.882	1	37
475.053	1	40
475.223	1	29
475.394	1	29
475.564	1	29
475.734	1	16
475.905	1	28
476.075	1	39
476.245	1	22
476.416	1	22
476.586	1	29
476.756	1	19
476.927	1	30
477.097	1	32
477.267	1	23
477.438	1	40
477.608	1	38
477.778	1	23
477.949	1	25
478.119	1	41
478.289	1	22
478.460	1	24
478.630	1	23
478.800	1	30
478.971	1	20
479.141	1	36
479.311	1	29
479.482	1	18
479.652	1	35
479.822	1	20
479.993	1	13
480.163	1	34
480.333	1	32
480.504	1	26
480.674	1	27
480.844	1	26
481.015	1	38
481.185	1	33
481.355	1	23
481.525	1	15
481.696	1	21
481.866	1	25
482.036	1	19
482.207	1	33
482.377	1	13
482.547	1	31
482.718	1	30
482.888	1	24
483.058	1	28
483.229	1	28
483.399	1	26
483.569	1	12
483.740	1	24
483.910	1	15
484.080	1	29
484.250	1	24
484.421	1	7
484.591	1	26
484.761	1	25
484.932	1	17
485.102	1	31
485.272	1	13
485.443	1	24
485.613	1	28
485.783	1	20
485.953	1	20
486.124	1	16
486.294	1	29
486.464	1	34
486.635	1	18
486.805	1	19
486.975	1	23
487.146	1	13
487.316	1	20
487.486	1	22
487.656	1	30
487.827	1	22
487.997	1	6
488.167	1	30
488.338	1	19
488.508	1	23
488.678	1	26
488.848	1	25
489.019	1	18
489.189	1	27
489.359	1	9
489.529	1	14
489.700	1	21
489.870	1	17
490.040	1	17
490.211	1	11
490.381	1	15
490.551	1	20
490.721	1	28
490.892	1	11
491.062	1	12
491.232	1	19
491.402	1	14
491.573	1	33
491.743	1	16
491.913	1	22
492.084	1	27
492.254	1	18
492.424	1	10
492.594	1	21
492.765	1	23
492.935	1	34
493.105	1	21
493.275	1	11
493.446	1	16
493.616	1	17
493.786	1	18
493.956	1	32
494.127	1	16
494.297	1	14
494.467	1	19
494.637	1	18
494.808	1	30
494.978	1	14
495.148	1	10
495.318	1	22
495.489	1	13
495.659	1	26
495.829	1	17
495.999	1	20
496.170	1	22
496.340	1	13
496.510	1	25
496.680	1	12
496.851	1	26
497.021	1	12
497.191	1	17
497.361	1	9
497.532	1	12
497.702	1	17
497.872	1	23
498.042	1	14
498.213	1	7
498.383	1	19
498.553	1	12
498.723	1	5
498.894	1	22
499.064	1	22
499.234	1	10
499.404	1	23
499.574	1	23
499.745	1	14
499.915	1	15
500.085	1	17
500.255	1	5
500.426	1	8
500.596	1	8
500.766	1	11
500.936	1	3
501.106	1	1
501.277	1	14
501.447	1	17
501.617	1	15
501.787	1	11
501.958	1	12
502.128	1	17
502.298	1	11
502.468	1	13
502.638	1	14
502.809	1	2
502.979	1	24
503.149	1	17
503.319	1	24
503.489	1	-9
503.660	1	6
503.830	1	18
504.000	1	15
504.170	1	10
504.340	1	1
504.511	1	2
504.681	1	16
504.851	1	14
505.021	1	13
505.192	1	6
505.362	1	7
505.532	1	4
505.702	1	24
505.872	1	8
506.043	1	17
506.213	1	20
506.383	1	18
506.553	1	18
506.723	1	4
506.893	1	17
507.064	1	24
507.234	1	5
507.404	1	7
507.574	1	10
507.744	1	2
507.915	1	4
508.085	1	9
508.255	1	13
508.425	1	6
508.595	1	13
508.766	1	6
508.936	1	26
509.106	1	17
509.276	1	21
509.446	1	1
509.616	1	5
509.787	1	7
509.957	1	16
510.127	1	-2
510.297	1	9
510.467	1	12
510.638	1	18
510.808	1	25
510.978	1	15
511.148	1	13
511.318	1	13
511.488	1	11
511.659	1	9
511.829	1	-6
511.999	1	5
512.169	1	13
512.339	1	17
512.509	1	17
512.680	1	15
512.850	1	16
513.020	1	12
513.190	1	7
513.360	1	9
513.530	1	16
513.700	1	12
513.871	1	6
514.041	1	12
514.211	1	15
514.381	1	20
514.551	1	9
514.721	1	2
514.892	1	5
515.062	1	12
515.232	1	6
515.402	1	2
515.572	1	18
515.742	1	15
515.912	1	13
516.083	1	14
516.253	1	9
516.423	1	5
516.593	1	10
516.763	1	9
516.933	1	10
517.104	1	9
517.274	1	-1
517.444	1	8
517.614	1	9
517.784	1	4
517.954	1	11
518.124	1	7
518.294	1	14
518.465	1	11
518.635	1	14
518.805	1	15
518.975	1	7
519.145	1	5
519.315	1	11
519.485	1	3
519.656	1	9
519.826	1	3
519.996	1	16
520.166	1	15
520.336	1	13
520.506	1	6
520.676	1	10
520.846	1	12
521.017	1	15
521.187	1	18
521.357	1	12
521.527	1	4
521.697	1	4
521.867	1	13
522.037	1	8
522.207	1	14
522.377	1	10
522.548	1	0
522.718	1	4
522.888	1	8
523.058	1	19
523.228	1	5
523.398	1	13
523.568	1	2
523.738	1	6
523.909	1	8
524.079	1	4
524.249	1	3
524.419	1	7
524.589	1	8
524.759	1	17
524.929	1	-1
525.099	1	4
525.269	1	13
525.439	1	2
525.610	1	10
525.780	1	0
525.950	1	3
526.120	1	4
526.290	1	7
526.460	1	2
526.630	1	7
526.800	1	0
526.970	1	13
527.140	1	4
527.311	1	8
527.481	1	9
527.651	1	8
527.821	1	9
527.991	1	-5
528.161	1	12
528.331	1	4
528.501	1	8
528.671	1	8
528.841	1	11
529.011	1	9
529.181	1	2
529.352	1	1
529.522	1	5
529.692	1	12
529.862	1	5
530.032	1	-1
530.202	1	5
530.372	1	10
530.542	1	-1
530.712	1	4
530.882	1	13
531.052	1	12
531.222	1	2
531.392	1	13
531.563	1	7
531.733	1	4
531.903	1	3
532.073	1	8
532.243	1	10
532.413	1	26
532.583	1	12
532.753	1	-1
532.923	1	8
533.093	1	2
533.263	1	12
533.433	1	2
533.603	1	10
533.773	1	12
533.943	1	1
534.113	1	10
534.284	1	9
534.454	1	7
534.624	1	4
534.794	1	7
534.964	1	11
535.134	1	3
535.304	1	13
535.474	1	10
535.644	1	10
535.814	1	3
535.984	1	9
536.154	1	4
536.324	1	5
536.494	1	21
536.664	1	4
536.834	1	4
537.004	1	1
537.174	1	8
537.344	1	5
537.514	1	9
537.685	1	9
537.855	1	5
538.025	1	2
538.195	1	6
538.365	1	10
538.535	1	5
538.705	1	7
538.875	1	6
539.045	1	14
539.215	1	-7
539.385	1	10
539.555	1	0
539.725	1	6
539.895	1	14
540.065	1	5
540.235	1	9
540.405	1	7
540.575	1	8
540.745	1	15
540.915	1	13
541.085	1	6
541.255	1	6
541.425	1	2
541.595	1	2
541.765	1	13
541.935	1	8
542.105	1	1
542.275	1	8
542.445	1	8
542.615	1	15
542.785	1	11
542.955	1	9
543.125	1	5
543.295	1	6
543.465	1	6
543.635	1	1
543.805	1	8
543.975	1	7
544.145	1	8
544.315	1	3
544.485	1	7
544.655	1	8
544.825	1	3
544.995	1	9
545.165	1	6
545.335	1	14
545.505	1	1
545.675	1	14
545.845	1	9
546.015	1	-6
546.185	1	4
546.355	1	2
546.525	1	6
546.695	1	-5
546.865	1	6
547.035	1	4
547.205	1	18
547.375	1	9
547.545	1	3
547.715	1	13
547.885	1	-3
548.055	1	8
548.225	1	21
548.395	1	10
548.565	1	9
548.735	1	5
548.905	1	16
549.075	1	8
549.245	1	12
549.415	1	12
549.585	1	-6
549.755	1	5
549.925	1	9
550.095	1	-4
550.265	1	3
550.435	1	8
550.605	1	11
550.775	1	-2
550.945	1	1
551.115	1	14
551.285	1	2
551.455	1	7
551.625	1	-5
551.795	1	4
551.965	1	2
552.135	1	1
552.305	1	10
552.475	1	8
552.645	1	-2
552.815	1	4
552.985	1	5
553.155	1	-4
553.325	1	2
553.495	1	-2
553.665	1	5
553.835	1	7
554.004	1	11
554.174	1	-3
554.344	1	8
554.514	1	3
554.684	1	16
554.854	1	-8
555.024	1	13
555.194	1	13
555.364	1	5
555.534	1	-12
555.704	1	6
555.874	1	3
556.044	1	10
556.214	1	6
556.384	1	2
556.554	1	5
556.724	1	-2
556.894	1	-5
557.064	1	-2
557.234	1	5
557.404	1	6
557.573	1	8
557.743	1	1
557.913	1	-5
558.083	1	4
558.253	1	5
558.423	1	17
558.593	1	4
558.763	1	-4
558.933	1	-3
559.103	1	-5
559.273	1	7
559.443	1	9
559.613	1	6
559.783	1	4
559.953	1	-5
560.122	1	7
560.292	1	-7
560.462	1	-3
560.632	1	0
560.802	1	7
560.972	1	-2
561.142	1	1
561.312	1	9
561.482	1	14
561.652	1	8
561.822	1	5
561.992	1	1
562.162	1	7
562.331	1	-3
562.501	1	6
562.671	1	-2
562.841	1	-6
563.011	1	-2
563.181	1	5
563.351	1	-2
563.521	1	1
563.691	1	12
563.861	1	4
564.031	1	-1
564.201	1	13
564.370	1	7
564.540	1	-4
564.710	1	-3
564.880	1	8
565.050	1	6
565.220	1	13
565.390	1	4
565.560	1	13
565.730	1	12
565.900	1	3
566.069	1	18
566.239	1	8
566.409	1	10
566.579	1	12
566.749	1	-2
566.919	1	-2
567.089	1	1
567.259	1	6
567.429	1	-8
567.599	1	12
567.768	1	-4
567.938	1	4
568.108	1	-2
568.278	1	4
568.448	1	14
568.618	1	3
568.788	1	7
568.958	1	5
569.128	1	-2
569.297	1	2
569.467	1	6
569.637	1	11
569.807	1	4
569.977	1	-1
570.147	1	8
570.317	1	4
570.487	1	0
570.656	1	7
570.826	1	5
570.996	1	14
571.166	1	4
571.336	1	-8
571.506	1	-2
571.676	1	10
571.846	1	4
572.015	1	4
572.185	1	6
572.355	1	4
572.525	1	4
572.695	1	9
572.865	1	5
573.035	1	8
573.205	1	0
573.374	1	0
573.544	1	-3
573.714	1	4
573.884	1	-4
574.054	1	1
574.224	1	2
574.394	1	8
574.563	1	-1
574.733	1	4
574.903	1	0
575.073	1	1
575.243	1	5
575.413	1	-2
575.583	1	6
575.752	1	-1
575.922	1	11
576.092	1	-5
576.262	1	3
576.432	1	6
576.602	1	2
576.772	1	1
576.941	1	2
577.111	1	8
577.281	1	4
577.451	1	11
577.621	1	7
577.791	1	6
577.960	1	4
578.130	1	3
578.300	1	4
578.470	1	-2
578.640	1	2
578.810	1	-4
578.979	1	8
579.149	1	3
579.319	1	3
579.489	1	12
579.659	1	5
579.829	1	3
579.998	1	-8
580.168	1	-4
580.338	1	5
580.508	1	-1
580.678	1	3
580.848	1	9
581.017	1	-3
581.187	1	-1
581.357	1	5
581.527	1	4
581.697	1	-1
581.867	1	5
582.036	1	0
582.206	1	7
582.376	1	-3
582.546	1	3
582.716	1	3
582.885	1	0
583.055	1	-5
583.225	1	7
583.395	1	2
583.565	1	13
583.735	1	8
583.904	1	4
584.074	1	-4
584.244	1	2
584.414	1	1
584.584	1	-2
584.753	1	2
584.923	1	-3
585.093	1	7
585.263	1	1
585.433	1	4
585.602	1	7
585.772	1	13
585.942	1	-7
586.112	1	7
586.282	1	12
586.451	1	22
586.621	1	-10
586.791	1	-5
586.961	1	-2
587.131	1	3
587.300	1	9
587.470	1	-3
587.640	1	-6
587.810	1	-13
587.980	1	8
588.149	1	7
588.319	1	8
588.489	1	7
588.659	1	-6
588.829	1	6
588.998	1	4
589.168	1	2
589.338	1	2
589.508	1	3
589.677	1	-5
589.847	1	6
590.017	1	-3
590.187	1	3
590.357	1	1
590.526	1	0
590.696	1	11
590.866	1	-8
591.036	1	8
591.205	1	5
591.375	1	-3
591.545	1	-2
591.715	1	1
591.885	1	12
592.054	1	-3
592.224	1	-11
592.394	1	-9
592.564	1	-4
592.733	1	12
592.903	1	-6
593.073	1	7
593.243	1	10
593.412	1	-7
593.582	1	4
593.752	1	-2
593.922	1	5
594.091	1	1
594.261	1	-11
594.431	1	8
594.601	1	4
594.771	1	6
594.940	1	4
595.110	1	10
595.280	1	6
595.450	1	6
595.619	1	0
595.789	1	-6
595.959	1	-1
596.129	1	3
596.298	1	8
596.468	1	-1
596.638	1	1
596.808	1	1
596.977	1	1
597.147	1	-3
597.317	1	7
597.487	1	1
597.656	1	9
597.826	1	7
597.996	1	-1
598.166	1	4
598.335	1	-5
598.505	1	11
598.675	1	7
598.844	1	18
599.014	1	-7
599.184	1	6
599.354	1	15
599.523	1	5
599.693	1	2
599.863	1	3
600.033	1	12
600.202	1	-5
600.372	1	-4
600.542	1	4
600.712	1	4
600.881	1	4
601.051	1	6
601.221	1	4
601.390	1	-2
601.560	1	12
601.730	1	7
601.900	1	7
602.069	1	1
602.239	1	-5
602.409	1	2
602.578	1	13
602.748	1	14
602.918	1	-7
603.088	1	0
603.257	1	2
603.427	1	7
603.597	1	2
603.767	1	10
603.936	1	14
604.106	1	-7
604.276	1	-3
604.445	1	8
604.615	1	7
604.785	1	14
604.954	1	1
605.124	1	4
605.294	1	-3
605.464	1	-4
605.633	1	1
605.803	1	1
605.973	1	6
606.142	1	4
606.312	1	3
606.482	1	-3
606.652	1	13
606.821	1	8
606.991	1	4
607.161	1	-2
607.330	1	5
607.500	1	11
607.670	1	4
607.839	1	-3
608.009	1	-3
608.179	1	10
608.348	1	10
608.518	1	10
608.688	1	5
608.858	1	0
609.027	1	10
609.197	1	4
609.367	1	0
609.536	1	-2
609.706	1	12
609.876	1	6
610.045	1	10
610.215	1	-6
610.385	1	5
610.554	1	12
610.724	1	8
610.894	1	8
611.063	1	1
611.233	1	16
611.403	1	6
611.572	1	4
611.742	1	-3
611.912	1	6
612.081	1	19
612.251	1	7
612.421	1	2
612.590	1	0
612.760	1	7
612.930	1	7
613.099	1	6
613.269	1	2
613.439	1	-5
613.608	1	8
613.778	1	-2
613.948	1	12
614.117	1	-4
614.287	1	2
614.457	1	5
614.626	1	-7
614.796	1	2
614.966	1	11
615.135	1	11
615.305	1	12
615.475	1	5
615.644	1	12
615.814	1	14
615.984	1	-6
616.153	1	0
616.323	1	-7
616.493	1	-1
616.662	1	3
616.832	1	13
617.002	1	6
617.171	1	5
617.341	1	11
617.511	1	-6
617.680	1	10
617.850	1	10
618.019	1	6
618.189	1	5
618.359	1	12
618.528	1	3
618.698	1	11
618.868	1	0
619.037	1	-3
619.207	1	6
619.377	1	4
619.546	1	14
619.716	1	-3
619.885	1	3
620.055	1	2
620.225	1	9
620.394	1	5
620.564	1	14
620.734	1	0
620.903	1	0
621.073	1	15
621.242	1	9
621.412	1	-2
621.582	1	17
621.751	1	-5
621.921	1	4
622.091	1	2
622.260	1	6
622.430	1	7
622.599	1	-4
622.769	1	-1
622.939	1	-8
623.108	1	6
623.278	1	3
623.448	1	3
623.617	1	3
623.787	1	10
623.956	1	8
624.126	1	8
624.296	1	13
624.465	1	9
624.635	1	6
624.804	1	2
624.974	1	-3
625.144	1	-1
625.313	1	18
625.483	1	7
625.652	1	10
625.822	1	12
625.992	1	1
626.161	1	4
626.331	1	5
626.501	1	1
626.670	1	0
626.840	1	8
627.009	1	9
627.179	1	5
627.348	1	2
627.518	1	20
627.688	1	6
627.857	1	11
628.027	1	15
628.196	1	5
628.366	1	-11
628.536	1	6
628.705	1	2
628.875	1	-4
629.044	1	2
629.214	1	4
629.384	1	8
629.553	1	5
629.723	1	9
629.892	1	8
630.062	1	2
630.232	1	7
630.401	1	9
630.571	1	13
630.740	1	6
630.910	1	4
631.079	1	10
631.249	1	2
631.419	1	11
631.588	1	11
631.758	1	-5
631.927	1	14
632.097	1	-2
632.266	1	13
632.436	1	-1
632.606	1	9
632.775	1	8
632.945	1	7
633.114	1	10
633.284	1	4
633.453	1	12
633.623	1	6
633.793	1	2
633.962	1	7
634.132	1	13
634.301	1	13
634.471	1	13
634.640	1	6
634.810	1	17
634.979	1	-2
635.149	1	-2
635.319	1	3
635.488	1	2
635.658	1	3
635.827	1	-1
635.997	1	22
636.166	1	4
636.336	1	3
636.505	1	16
636.675	1	4
636.845	1	-8
637.014	1	-4
637.184	1	20
637.353	1	1
637.523	1	-1
637.692	1	15
637.862	1	-1
638.031	1	0
638.201	1	4
638.370	1	3
638.540	1	2
638.710	1	10
638.879	1	4
639.049	1	11
639.218	1	5
639.388	1	7
639.557	1	10
639.727	1	12
639.896	1	4
640.066	1	0
640.235	1	10
640.405	1	3
640.574	1	5
640.744	1	-1
640.914	1	6
641.083	1	9
641.253	1	-5
641.422	1	-6
641.592	1	10
641.761	1	-1
641.931	1	20
642.100	1	1
642.270	1	12
642.439	1	2
642.609	1	10
642.778	1	14
642.948	1	13
643.117	1	12
643.287	1	8
643.456	1	5
643.626	1	5
643.795	1	-1
643.965	1	8
644.134	1	6
644.304	1	3
644.473	1	5
644.643	1	-5
644.812	1	0
644.982	1	8
645.151	1	8
645.321	1	8
645.490	1	17
645.660	1	-6
645.829	1	4
645.999	1	3
646.168	1	24
646.338	1	-2
646.507	1	3
646.677	1	6
646.846	1	9
647.016	1	12
647.185	1	10
647.355	1	14
647.524	1	10
647.694	1	-1
647.863	1	2
648.033	1	9
648.202	1	7
648.372	1	-7
648.541	1	12
648.711	1	4
648.880	1	7
649.050	1	14
649.219	1	7
649.389	1	1
649.558	1	12
649.728	1	9
649.897	1	2
650.067	1	10
650.236	1	5
650.406	1	7
650.575	1	12
650.745	1	7
650.914	1	18
651.084	1	8
651.253	1	8
651.423	1	-6
651.592	1	9
651.762	1	10
651.931	1	18
652.101	1	0
652.270	1	9
652.440	1	7
652.609	1	15
652.778	1	12
652.948	1	6
653.117	1	6
653.287	1	-5
653.456	1	-5
653.626	1	8
653.795	1	1
653.965	1	2
654.134	1	5
654.304	1	-2
654.473	1	16
654.643	1	2
654.812	1	12
654.982	1	9
655.151	1	17
655.320	1	-2
655.490	1	6
655.659	1	1
655.829	1	11
655.998	1	8
656.168	1	7
656.337	1	7
656.507	1	-2
656.676	1	0
656.846	1	-1
657.015	1	12
657.184	1	-1
657.354	1	4
657.523	1	9
657.693	1	14
657.862	1	-2
658.032	1	8
658.201	1	-1
658.371	1	6
658.540	1	2
658.709	1	5
658.879	1	16
659.048	1	11
659.218	1	1
659.387	1	10
659.557	1	2
659.726	1	-1
659.895	1	8
660.065	1	5
660.234	1	5
660.404	1	10
660.573	1	14
660.743	1	8
660.912	1	8
661.081	1	4
661.251	1	14
661.420	1	11
661.590	1	7
661.759	1	13
661.929	1	8
662.098	1	15
662.267	1	0
662.437	1	17
662.606	1	8
662.776	1	7
662.945	1	8
663.115	1	16
663.284	1	5
663.453	1	0
663.623	1	1
663.792	1	8
663.962	1	11
664.131	1	6
664.300	1	-4
664.470	1	6
664.639	1	15
664.809	1	17
664.978	1	14
665.148	1	10
665.317	1	7
665.486	1	17
665.656	1	4
665.825	1	3
665.995	1	-2
666.164	1	4
666.333	1	1
666.503	1	-3
666.672	1	19
666.842	1	3
667.011	1	5
667.180	1	0
667.350	1	18
667.519	1	17
667.689	1	5
667.858	1	8
668.027	1	10
668.197	1	3
668.366	1	6
668.536	1	7
668.705	1	9
668.874	1	11
669.044	1	14
669.213	1	14
669.382	1	8
669.552	1	5
669.721	1	8
669.891	1	12
670.060	1	8
670.229	1	8
670.399	1	14
670.568	1	14
670.738	1	6
670.907	1	5
671.076	1	15
671.246	1	18
671.415	1	7
671.584	1	9
671.754	1	8
671.923	1	-4
672.093	1	8
672.262	1	2
672.431	1	9
672.601	1	5
672.770	1	5
672.939	1	6
673.109	1	11
673.278	1	3
673.448	1	9
673.617	1	17
673.786	1	-2
