325.333	1	31
325.504	1	25
325.675	1	42
325.846	1	29
326.017	1	33
326.188	1	33
326.359	1	37
326.531	1	31
326.702	1	30
326.873	1	40
327.044	1	31
327.215	1	23
327.386	1	41
327.557	1	30
327.728	1	33
327.899	1	35
328.070	1	39
328.241	1	35
328.412	1	39
328.583	1	30
328.754	1	50
328.926	1	40
329.097	1	31
329.268	1	55
329.439	1	43
329.610	1	45
329.781	1	45
329.952	1	44
330.123	1	43
330.294	1	37
330.465	1	30
330.636	1	40
330.807	1	47
330.978	1	42
331.149	1	46
331.320	1	44
331.492	1	49
331.663	1	47
331.834	1	50
332.005	1	49
332.176	1	42
332.347	1	33
332.518	1	45
332.689	1	47
332.860	1	58
333.031	1	47
333.202	1	39
333.373	1	57
333.544	1	45
333.715	1	51
333.886	1	45
334.057	1	39
334.228	1	54
334.399	1	50
334.570	1	55
334.741	1	43
334.912	1	51
335.084	1	62
335.255	1	56
335.426	1	50
335.597	1	53
335.768	1	59
335.939	1	48
336.110	1	69
336.281	1	65
336.452	1	69
336.623	1	59
336.794	1	64
336.965	1	61
337.136	1	71
337.307	1	54
337.478	1	58
337.649	1	57
337.820	1	55
337.991	1	66
338.162	1	61
338.333	1	72
338.504	1	63
338.675	1	60
338.846	1	52
339.017	1	73
339.188	1	58
339.359	1	62
339.530	1	61
339.701	1	63
339.872	1	79
340.043	1	73
340.214	1	84
340.385	1	55
340.556	1	72
340.727	1	66
340.898	1	73
341.069	1	67
341.240	1	65
341.411	1	75
341.582	1	68
341.753	1	74
341.924	1	91
342.095	1	66
342.266	1	83
342.437	1	71
342.608	1	73
342.779	1	79
342.950	1	75
343.121	1	77
343.292	1	79
343.463	1	93
343.634	1	75
343.805	1	86
343.976	1	89
344.147	1	93
344.318	1	72
344.489	1	74
344.660	1	80
344.831	1	91
345.002	1	88
345.173	1	87
345.344	1	72
345.515	1	93
345.686	1	98
345.857	1	93
346.028	1	85
346.199	1	92
346.370	1	81
346.541	1	70
346.712	1	78
346.883	1	87
347.054	1	90
347.225	1	83
347.396	1	86
347.567	1	83
347.738	1	89
347.909	1	99
348.080	1	86
348.251	1	95
348.422	1	99
348.593	1	105
348.764	1	99
348.935	1	95
349.106	1	88
349.277	1	94
349.448	1	105
349.619	1	100
349.790	1	108
349.961	1	90
350.132	1	113
350.303	1	107
350.474	1	108
350.645	1	107
350.816	1	120
350.987	1	120
351.157	1	104
351.328	1	116
351.499	1	106
351.670	1	99
351.841	1	107
352.012	1	122
352.183	1	116
352.354	1	110
352.525	1	110
352.696	1	111
352.867	1	114
353.038	1	118
353.209	1	97
353.380	1	113
353.551	1	109
353.722	1	110
353.893	1	116
354.064	1	116
354.235	1	106
354.406	1	105
354.576	1	117
354.747	1	109
354.918	1	100
355.089	1	119
355.260	1	108
355.431	1	112
355.602	1	116
355.773	1	115
355.944	1	117
356.115	1	136
356.286	1	128
356.457	1	127
356.628	1	105
356.799	1	132
356.970	1	127
357.141	1	122
357.311	1	129
357.482	1	106
357.653	1	120
357.824	1	132
357.995	1	146
358.166	1	130
358.337	1	122
358.508	1	135
358.679	1	128
358.850	1	144
359.021	1	131
359.192	1	143
359.363	1	132
359.533	1	122
359.704	1	124
359.875	1	127
360.046	1	143
360.217	1	135
360.388	1	135
360.559	1	120
360.730	1	121
360.901	1	141
361.072	1	142
361.243	1	122
361.414	1	139
361.584	1	141
361.755	1	130
361.926	1	131
362.097	1	127
362.268	1	141
362.439	1	131
362.610	1	131
362.781	1	129
362.952	1	151
363.123	1	130
363.293	1	135
363.464	1	137
363.635	1	141
363.806	1	139
363.977	1	145
364.148	1	131
364.319	1	134
364.490	1	145
364.661	1	144
364.832	1	138
365.002	1	157
365.173	1	135
365.344	1	137
365.515	1	162
365.686	1	146
365.857	1	150
366.028	1	138
366.199	1	157
366.370	1	146
366.540	1	151
366.711	1	147
366.882	1	144
367.053	1	149
367.224	1	139
367.395	1	145
367.566	1	148
367.737	1	158
367.908	1	158
368.078	1	147
368.249	1	155
368.420	1	144
368.591	1	153
368.762	1	162
368.933	1	145
369.104	1	161
369.274	1	149
369.445	1	143
369.616	1	149
369.787	1	143
369.958	1	150
370.129	1	147
370.300	1	142
370.471	1	148
370.641	1	140
370.812	1	151
370.983	1	148
371.154	1	159
371.325	1	137
371.496	1	148
371.667	1	145
371.837	1	144
372.008	1	138
372.179	1	142
372.350	1	149
372.521	1	142
372.692	1	139
372.863	1	155
373.033	1	155
373.204	1	147
373.375	1	139
373.546	1	165
373.717	1	148
373.888	1	165
374.059	1	143
374.229	1	159
374.400	1	159
374.571	1	145
374.742	1	166
374.913	1	157
375.084	1	151
375.254	1	159
375.425	1	170
375.596	1	168
375.767	1	159
375.938	1	156
376.109	1	165
376.279	1	166
376.450	1	175
376.621	1	180
376.792	1	179
376.963	1	171
377.134	1	165
377.304	1	185
377.475	1	178
377.646	1	154
377.817	1	164
377.988	1	175
378.159	1	176
378.329	1	159
378.500	1	184
378.671	1	168
378.842	1	149
379.013	1	179
379.184	1	166
379.354	1	173
379.525	1	172
379.696	1	167
379.867	1	182
380.038	1	173
380.209	1	166
380.379	1	174
380.550	1	165
380.721	1	171
380.892	1	175
381.063	1	170
381.233	1	170
381.404	1	171
381.575	1	174
381.746	1	185
381.917	1	168
382.087	1	200
382.258	1	166
382.429	1	178
382.600	1	169
382.771	1	163
382.941	1	181
383.112	1	180
383.283	1	191
383.454	1	178
383.625	1	186
383.795	1	189
383.966	1	200
384.137	1	194
384.308	1	183
384.479	1	182
384.649	1	194
384.820	1	197
384.991	1	187
385.162	1	197
385.333	1	191
385.503	1	199
385.674	1	206
385.845	1	202
386.016	1	204
386.187	1	193
386.357	1	204
386.528	1	189
386.699	1	208
386.870	1	184
387.041	1	210
387.211	1	190
387.382	1	214
387.553	1	211
387.724	1	199
387.894	1	188
388.065	1	196
388.236	1	199
388.407	1	206
388.578	1	193
388.748	1	187
388.919	1	197
389.090	1	208
389.261	1	211
389.431	1	184
389.602	1	192
389.773	1	207
389.944	1	220
390.114	1	200
390.285	1	208
390.456	1	195
390.627	1	190
390.798	1	192
390.968	1	219
391.139	1	203
391.310	1	200
391.481	1	198
391.651	1	204
391.822	1	199
391.993	1	206
392.164	1	194
392.334	1	205
392.505	1	206
392.676	1	194
392.847	1	200
393.017	1	203
393.188	1	203
393.359	1	217
393.530	1	222
393.700	1	203
393.871	1	210
394.042	1	198
394.213	1	207
394.383	1	203
394.554	1	202
394.725	1	205
394.896	1	223
395.066	1	206
395.237	1	211
395.408	1	218
395.579	1	215
395.749	1	222
395.920	1	219
396.091	1	218
396.262	1	229
396.432	1	224
396.603	1	225
396.774	1	219
396.945	1	205
397.115	1	231
397.286	1	219
397.457	1	214
397.627	1	228
397.798	1	217
397.969	1	237
398.140	1	231
398.310	1	221
398.481	1	220
398.652	1	223
398.823	1	222
398.993	1	218
399.164	1	220
399.335	1	216
399.505	1	219
399.676	1	212
399.847	1	210
400.018	1	211
400.188	1	223
400.359	1	218
400.530	1	222
400.700	1	220
400.871	1	223
401.042	1	224
401.213	1	219
401.383	1	214
401.554	1	215
401.725	1	211
401.895	1	207
402.066	1	218
402.237	1	217
402.408	1	215
402.578	1	224
402.749	1	224
402.920	1	230
403.090	1	214
403.261	1	216
403.432	1	237
403.603	1	219
403.773	1	230
403.944	1	223
404.115	1	243
404.285	1	223
404.456	1	222
404.627	1	222
404.797	1	228
404.968	1	221
405.139	1	223
405.310	1	231
405.480	1	217
405.651	1	219
405.822	1	224
405.992	1	239
406.163	1	227
406.334	1	235
406.504	1	245
406.675	1	221
406.846	1	229
407.016	1	243
407.187	1	218
407.358	1	225
407.528	1	229
407.699	1	248
407.870	1	232
408.041	1	242
408.211	1	230
408.382	1	243
408.553	1	241
408.723	1	248
408.894	1	246
409.065	1	235
409.235	1	238
409.406	1	244
409.577	1	227
409.747	1	237
409.918	1	241
410.089	1	258
410.259	1	235
410.430	1	241
410.601	1	233
410.771	1	233
410.942	1	233
411.113	1	237
411.283	1	230
411.454	1	249
411.625	1	236
411.795	1	226
411.966	1	218
412.137	1	228
412.307	1	239
412.478	1	230
412.649	1	229
412.819	1	236
412.990	1	239
413.161	1	233
413.331	1	230
413.502	1	222
413.672	1	204
413.843	1	217
414.014	1	216
414.184	1	233
414.355	1	230
414.526	1	235
414.696	1	220
414.867	1	215
415.038	1	202
415.208	1	221
415.379	1	227
415.550	1	227
415.720	1	216
415.891	1	223
416.062	1	240
416.232	1	232
416.403	1	229
416.573	1	220
416.744	1	227
416.915	1	225
417.085	1	229
417.256	1	227
417.427	1	219
417.597	1	238
417.768	1	234
417.939	1	221
418.109	1	228
418.280	1	234
418.450	1	241
418.621	1	221
418.792	1	244
418.962	1	237
419.133	1	227
419.304	1	222
419.474	1	238
419.645	1	237
419.815	1	220
419.986	1	249
420.157	1	224
420.327	1	213
420.498	1	214
420.669	1	224
420.839	1	228
421.010	1	228
421.180	1	207
421.351	1	227
421.522	1	212
421.692	1	223
421.863	1	224
422.033	1	218
422.204	1	238
422.375	1	224
422.545	1	213
422.716	1	209
422.886	1	212
423.057	1	208
423.228	1	216
423.398	1	220
423.569	1	214
423.740	1	210
423.910	1	219
424.081	1	206
424.251	1	190
424.422	1	233
424.593	1	210
424.763	1	214
424.934	1	216
425.104	1	216
425.275	1	201
425.445	1	199
425.616	1	201
425.787	1	206
425.957	1	194
426.128	1	212
426.298	1	199
426.469	1	190
426.640	1	194
426.810	1	203
426.981	1	222
427.151	1	195
427.322	1	195
427.493	1	206
427.663	1	200
427.834	1	199
428.004	1	206
428.175	1	215
428.345	1	202
428.516	1	212
428.687	1	211
428.857	1	228
429.028	1	198
429.198	1	190
429.369	1	208
429.540	1	201
429.710	1	204
429.881	1	207
430.051	1	191
430.222	1	203
430.392	1	207
430.563	1	199
430.734	1	211
430.904	1	215
431.075	1	202
431.245	1	201
431.416	1	213
431.586	1	214
431.757	1	210
431.927	1	216
432.098	1	224
432.269	1	195
432.439	1	203
432.610	1	219
432.780	1	217
432.951	1	196
433.121	1	204
433.292	1	221
433.462	1	205
433.633	1	195
433.804	1	211
433.974	1	211
434.145	1	205
434.315	1	191
434.486	1	186
434.656	1	215
434.827	1	202
434.997	1	192
435.168	1	208
435.339	1	202
435.509	1	202
435.680	1	205
435.850	1	182
436.021	1	187
436.191	1	200
436.362	1	189
436.532	1	193
436.703	1	196
436.873	1	198
437.044	1	194
437.214	1	191
437.385	1	193
437.556	1	188
437.726	1	192
437.897	1	184
438.067	1	203
438.238	1	188
438.408	1	180
438.579	1	174
438.749	1	182
438.920	1	204
439.090	1	181
439.261	1	189
439.431	1	167
439.602	1	179
439.772	1	184
439.943	1	172
440.113	1	175
440.284	1	189
440.455	1	178
440.625	1	183
440.796	1	177
440.966	1	193
441.137	1	189
441.307	1	189
441.478	1	167
441.648	1	177
441.819	1	168
441.989	1	189
442.160	1	181
442.330	1	189
442.501	1	169
442.671	1	175
442.842	1	189
443.012	1	173
443.183	1	195
443.353	1	185
443.524	1	177
443.694	1	180
443.865	1	181
444.035	1	177
444.206	1	175
444.376	1	184
444.547	1	181
444.717	1	178
444.888	1	161
445.058	1	182
445.229	1	174
445.399	1	177
445.570	1	170
445.740	1	177
445.911	1	174
446.081	1	187
446.252	1	172
446.422	1	177
446.593	1	175
446.763	1	174
446.934	1	161
447.104	1	165
447.275	1	172
447.445	1	182
447.616	1	165
447.786	1	174
447.957	1	157
448.127	1	163
448.298	1	171
448.468	1	180
448.639	1	169
448.809	1	164
448.979	1	170
449.150	1	164
449.320	1	161
449.491	1	157
449.661	1	169
449.832	1	167
450.002	1	168
450.173	1	181
450.343	1	165
450.514	1	159
450.684	1	152
450.855	1	163
451.025	1	158
451.196	1	143
451.366	1	157
451.537	1	161
451.707	1	165
451.878	1	149
452.048	1	152
452.218	1	173
452.389	1	166
452.559	1	157
452.730	1	148
452.900	1	143
453.071	1	153
453.241	1	156
453.412	1	142
453.582	1	145
453.753	1	152
453.923	1	140
454.093	1	132
454.264	1	160
454.434	1	155
454.605	1	144
454.775	1	152
454.946	1	150
455.116	1	147
455.287	1	138
455.457	1	143
455.628	1	129
455.798	1	155
455.968	1	137
456.139	1	141
456.309	1	142
456.480	1	140
456.650	1	145
456.821	1	142
456.991	1	149
457.161	1	137
457.332	1	137
457.502	1	153
457.673	1	139
457.843	1	144
458.014	1	143
458.184	1	141
458.355	1	143
458.525	1	136
458.695	1	139
458.866	1	132
459.036	1	133
459.207	1	140
459.377	1	145
459.548	1	126
459.718	1	123
459.888	1	149
460.059	1	129
460.229	1	136
460.400	1	133
460.570	1	130
460.740	1	126
460.911	1	131
461.081	1	138
461.252	1	138
461.422	1	137
461.593	1	136
461.763	1	134
461.933	1	136
462.104	1	117
462.274	1	129
462.445	1	132
462.615	1	155
462.785	1	140
462.956	1	117
463.126	1	128
463.297	1	125
463.467	1	140
463.638	1	120
463.808	1	134
463.978	1	116
464.149	1	120
464.319	1	125
464.490	1	107
464.660	1	128
464.830	1	126
465.001	1	112
465.171	1	127
465.342	1	127
465.512	1	125
465.682	1	106
465.853	1	130
466.023	1	127
466.194	1	119
466.364	1	134
466.534	1	109
466.705	1	123
466.875	1	108
467.045	1	119
467.216	1	122
467.386	1	120
467.557	1	124
467.727	1	110
467.897	1	113
468.068	1	97
468.238	1	108
468.409	1	108
468.579	1	122
468.749	1	111
468.920	1	105
469.090	1	127
469.260	1	104
469.431	1	115
469.601	1	120
469.772	1	123
469.942	1	117
470.112	1	101
470.283	1	109
470.453	1	114
470.623	1	116
470.794	1	115
470.964	1	99
471.135	1	122
471.305	1	107
471.475	1	109
471.646	1	115
471.816	1	109
471.986	1	103
472.157	1	105
472.327	1	103
472.497	1	101
472.668	1	122
472.838	1	97
473.009	1	106
473.179	1	96
473.349	1	110
473.520	1	114
473.690	1	103
473.860	1	100
474.031	1	97
474.201	1	105
474.371	1	110
474.542	1	104
474.712	1	100
474.882	1	106
475.053	1	108
475.223	1	111
475.394	1	96
475.564	1	112
475.734	1	95
475.905	1	115
476.075	1	113
476.245	1	109
476.416	1	94
476.586	1	105
476.756	1	108
476.927	1	95
477.097	1	104
477.267	1	102
477.438	1	117
477.608	1	104
477.778	1	98
477.949	1	106
478.119	1	119
478.289	1	106
478.460	1	103
478.630	1	101
478.800	1	91
478.971	1	105
479.141	1	105
479.311	1	94
479.482	1	94
479.652	1	102
479.822	1	106
479.993	1	103
480.163	1	90
480.333	1	102
480.504	1	107
480.674	1	91
480.844	1	104
481.015	1	94
481.185	1	104
481.355	1	100
481.525	1	77
481.696	1	102
481.866	1	95
482.036	1	98
482.207	1	95
482.377	1	89
482.547	1	92
482.718	1	96
482.888	1	97
483.058	1	91
483.229	1	98
483.399	1	82
483.569	1	77
483.740	1	92
483.910	1	80
484.080	1	85
484.250	1	75
484.421	1	72
484.591	1	79
484.761	1	85
484.932	1	80
485.102	1	104
485.272	1	93
485.443	1	88
485.613	1	74
485.783	1	89
485.953	1	78
486.124	1	79
486.294	1	82
486.464	1	99
486.635	1	85
486.805	1	80
486.975	1	76
487.146	1	74
487.316	1	91
487.486	1	75
487.656	1	84
487.827	1	73
487.997	1	76
488.167	1	86
488.338	1	82
488.508	1	92
488.678	1	73
488.848	1	81
489.019	1	80
489.189	1	88
489.359	1	80
489.529	1	82
489.700	1	78
489.870	1	87
490.040	1	78
490.211	1	68
490.381	1	73
490.551	1	82
490.721	1	79
490.892	1	66
491.062	1	77
491.232	1	79
491.402	1	73
491.573	1	80
491.743	1	73
491.913	1	84
492.084	1	76
492.254	1	81
492.424	1	70
492.594	1	79
492.765	1	83
492.935	1	84
493.105	1	67
493.275	1	77
493.446	1	69
493.616	1	66
493.786	1	77
493.956	1	72
494.127	1	74
494.297	1	68
494.467	1	71
494.637	1	80
494.808	1	75
494.978	1	73
495.148	1	78
495.318	1	77
495.489	1	68
495.659	1	83
495.829	1	73
495.999	1	77
496.170	1	71
496.340	1	69
496.510	1	79
496.680	1	70
496.851	1	82
497.021	1	74
497.191	1	77
497.361	1	57
497.532	1	72
497.702	1	85
497.872	1	67
498.042	1	71
498.213	1	60
498.383	1	69
498.553	1	68
498.723	1	66
498.894	1	57
499.064	1	68
499.234	1	70
499.404	1	74
499.574	1	64
499.745	1	76
499.915	1	70
500.085	1	56
500.255	1	39
500.426	1	57
500.596	1	62
500.766	1	62
500.936	1	62
501.106	1	58
501.277	1	60
501.447	1	67
501.617	1	60
501.787	1	51
501.958	1	64
502.128	1	63
502.298	1	57
502.468	1	55
502.638	1	67
502.809	1	55
502.979	1	66
503.149	1	55
503.319	1	60
503.489	1	56
503.660	1	62
503.830	1	60
504.000	1	68
504.170	1	62
504.340	1	46
504.511	1	54
504.681	1	55
504.851	1	53
505.021	1	64
505.192	1	59
505.362	1	54
505.532	1	51
505.702	1	63
505.872	1	50
506.043	1	74
506.213	1	66
506.383	1	53
506.553	1	58
506.723	1	50
506.893	1	55
507.064	1	64
507.234	1	57
507.404	1	54
507.574	1	57
507.744	1	50
507.915	1	63
508.085	1	57
508.255	1	49
508.425	1	58
508.595	1	50
508.766	1	63
508.936	1	74
509.106	1	59
509.276	1	56
509.446	1	46
509.616	1	55
509.787	1	50
509.957	1	53
510.127	1	54
510.297	1	42
510.467	1	53
510.638	1	58
510.808	1	63
510.978	1	51
511.148	1	57
511.318	1	55
511.488	1	63
511.659	1	54
511.829	1	45
511.999	1	62
512.169	1	57
512.339	1	48
512.509	1	39
512.680	1	46
512.850	1	54
513.020	1	60
513.190	1	38
513.360	1	54
513.530	1	48
513.700	1	57
513.871	1	42
514.041	1	48
514.211	1	61
514.381	1	52
514.551	1	44
514.721	1	43
514.892	1	36
515.062	1	49
515.232	1	42
515.402	1	46
515.572	1	57
515.742	1	62
515.912	1	48
516.083	1	48
516.253	1	56
516.423	1	42
516.593	1	35
516.763	1	53
516.933	1	40
517.104	1	47
517.274	1	43
517.444	1	47
517.614	1	51
517.784	1	48
517.954	1	39
518.124	1	43
518.294	1	53
518.465	1	44
518.635	1	49
518.805	1	52
518.975	1	54
519.145	1	39
519.315	1	54
519.485	1	37
519.656	1	49
519.826	1	36
519.996	1	52
520.166	1	37
520.336	1	41
520.506	1	47
520.676	1	45
520.846	1	50
521.017	1	33
521.187	1	49
521.357	1	35
521.527	1	29
521.697	1	35
521.867	1	34
522.037	1	43
522.207	1	42
522.377	1	54
522.548	1	30
522.718	1	38
522.888	1	47
523.058	1	38
523.228	1	31
523.398	1	38
523.568	1	21
523.738	1	32
523.909	1	39
524.079	1	37
524.249	1	31
524.419	1	43
524.589	1	42
524.759	1	37
524.929	1	34
525.099	1	43
525.269	1	47
525.439	1	39
525.610	1	44
525.780	1	38
525.950	1	41
526.120	1	30
526.290	1	41
526.460	1	29
526.630	1	37
526.800	1	34
526.970	1	43
527.140	1	32
527.311	1	30
527.481	1	48
527.651	1	48
527.821	1	38
527.991	1	40
528.161	1	49
528.331	1	35
528.501	1	43
528.671	1	46
528.841	1	45
529.011	1	38
529.181	1	33
529.352	1	27
529.522	1	36
529.692	1	35
529.862	1	40
530.032	1	29
530.202	1	31
530.372	1	35
530.542	1	34
530.712	1	37
530.882	1	33
531.052	1	38
531.222	1	39
531.392	1	33
531.563	1	42
531.733	1	39
531.903	1	32
532.073	1	31
532.243	1	44
532.413	1	45
532.583	1	40
532.753	1	32
532.923	1	38
533.093	1	27
533.263	1	46
533.433	1	22
533.603	1	38
533.773	1	34
533.943	1	36
534.113	1	33
534.284	1	35
534.454	1	43
534.624	1	30
534.794	1	42
534.964	1	32
535.134	1	21
535.304	1	39
535.474	1	33
535.644	1	30
535.814	1	30
535.984	1	35
536.154	1	33
536.324	1	37
536.494	1	45
536.664	1	37
536.834	1	29
537.004	1	33
537.174	1	40
537.344	1	34
537.514	1	36
537.685	1	34
537.855	1	36
538.025	1	43
538.195	1	33
538.365	1	35
538.535	1	28
538.705	1	27
538.875	1	28
539.045	1	27
539.215	1	20
539.385	1	36
539.555	1	31
539.725	1	27
539.895	1	37
540.065	1	38
540.235	1	33
540.405	1	35
540.575	1	33
540.745	1	30
540.915	1	27
541.085	1	21
541.255	1	37
541.425	1	27
541.595	1	31
541.765	1	30
541.935	1	27
542.105	1	33
542.275	1	24
542.445	1	34
542.615	1	36
542.785	1	36
542.955	1	41
543.125	1	32
543.295	1	38
543.465	1	39
543.635	1	18
543.805	1	29
543.975	1	22
544.145	1	32
544.315	1	23
544.485	1	36
544.655	1	26
544.825	1	27
544.995	1	25
545.165	1	17
545.335	1	43
545.505	1	22
545.675	1	28
545.845	1	28
546.015	1	29
546.185	1	23
546.355	1	22
546.525	1	30
546.695	1	21
546.865	1	15
547.035	1	33
547.205	1	46
547.375	1	34
547.545	1	36
547.715	1	25
547.885	1	29
548.055	1	14
548.225	1	36
548.395	1	36
548.565	1	25
548.735	1	26
548.905	1	33
549.075	1	30
549.245	1	35
549.415	1	26
549.585	1	35
549.755	1	34
549.925	1	32
550.095	1	19
550.265	1	19
550.435	1	31
550.605	1	28
550.775	1	15
550.945	1	30
551.115	1	35
551.285	1	25
551.455	1	37
551.625	1	18
551.795	1	22
551.965	1	19
552.135	1	25
552.305	1	28
552.475	1	33
552.645	1	23
552.815	1	22
552.985	1	21
553.155	1	24
553.325	1	16
553.495	1	25
553.665	1	36
553.835	1	29
554.004	1	12
554.174	1	19
554.344	1	22
554.514	1	18
554.684	1	37
554.854	1	11
555.024	1	28
555.194	1	24
555.364	1	17
555.534	1	12
555.704	1	17
555.874	1	24
556.044	1	16
556.214	1	24
556.384	1	31
556.554	1	17
556.724	1	11
556.894	1	22
557.064	1	19
557.234	1	23
557.404	1	22
557.573	1	22
557.743	1	23
557.913	1	12
558.083	1	24
558.253	1	27
558.423	1	14
558.593	1	18
558.763	1	24
558.933	1	26
559.103	1	14
559.273	1	29
559.443	1	30
559.613	1	12
559.783	1	28
559.953	1	12
560.122	1	23
560.292	1	8
560.462	1	14
560.632	1	14
560.802	1	28
560.972	1	11
561.142	1	26
561.312	1	20
561.482	1	23
561.652	1	17
561.822	1	17
561.992	1	31
562.162	1	13
562.331	1	9
562.501	1	21
562.671	1	18
562.841	1	10
563.011	1	18
563.181	1	11
563.351	1	16
563.521	1	16
563.691	1	17
563.861	1	13
564.031	1	15
564.201	1	22
564.370	1	25
564.540	1	13
564.710	1	16
564.880	1	11
565.050	1	27
565.220	1	22
565.390	1	25
565.560	1	31
565.730	1	25
565.900	1	30
566.069	1	37
566.239	1	23
566.409	1	28
566.579	1	23
566.749	1	15
566.919	1	11
567.089	1	2
567.259	1	23
567.429	1	9
567.599	1	42
567.768	1	22
567.938	1	11
568.108	1	19
568.278	1	29
568.448	1	19
568.618	1	15
568.788	1	27
568.958	1	9
569.128	1	4
569.297	1	25
569.467	1	29
569.637	1	27
569.807	1	23
569.977	1	9
570.147	1	30
570.317	1	11
570.487	1	13
570.656	1	31
570.826	1	9
570.996	1	22
571.166	1	17
571.336	1	8
571.506	1	8
571.676	1	22
571.846	1	26
572.015	1	15
572.185	1	13
572.355	1	21
572.525	1	18
572.695	1	11
572.865	1	27
573.035	1	19
573.205	1	17
573.374	1	14
573.544	1	19
573.714	1	19
573.884	1	13
574.054	1	4
574.224	1	8
574.394	1	20
574.563	1	7
574.733	1	15
574.903	1	13
575.073	1	19
575.243	1	17
575.413	1	14
575.583	1	24
575.752	1	7
575.922	1	26
576.092	1	13
576.262	1	12
576.432	1	8
576.602	1	18
576.772	1	10
576.941	1	15
577.111	1	22
577.281	1	22
577.451	1	19
577.621	1	4
577.791	1	12
577.960	1	8
578.130	1	11
578.300	1	20
578.470	1	21
578.640	1	18
578.810	1	10
578.979	1	16
579.149	1	10
579.319	1	20
579.489	1	20
579.659	1	18
579.829	1	15
579.998	1	3
580.168	1	5
580.338	1	16
580.508	1	15
580.678	1	23
580.848	1	22
581.017	1	13
581.187	1	9
581.357	1	16
581.527	1	16
581.697	1	12
581.867	1	18
582.036	1	17
582.206	1	19
582.376	1	17
582.546	1	17
582.716	1	14
582.885	1	16
583.055	1	0
583.225	1	14
583.395	1	14
583.565	1	18
583.735	1	22
583.904	1	11
584.074	1	9
584.244	1	18
584.414	1	17
584.584	1	18
584.753	1	17
584.923	1	10
585.093	1	14
585.263	1	9
585.433	1	12
585.602	1	23
585.772	1	27
585.942	1	3
586.112	1	18
586.282	1	8
586.451	1	23
586.621	1	12
586.791	1	4
586.961	1	14
587.131	1	8
587.300	1	21
587.470	1	15
587.640	1	10
587.810	1	-3
587.980	1	14
588.149	1	16
588.319	1	24
588.489	1	17
588.659	1	18
588.829	1	22
588.998	1	13
589.168	1	14
589.338	1	11
589.508	1	15
589.677	1	25
589.847	1	16
590.017	1	7
590.187	1	5
590.357	1	19
590.526	1	14
590.696	1	22
590.866	1	6
591.036	1	24
591.205	1	15
591.375	1	19
591.545	1	10
591.715	1	13
591.885	1	20
592.054	1	12
592.224	1	11
592.394	1	2
592.564	1	11
592.733	1	14
592.903	1	21
593.073	1	19
593.243	1	20
593.412	1	3
593.582	1	9
593.752	1	5
593.922	1	11
594.091	1	19
594.261	1	10
594.431	1	23
594.601	1	8
594.771	1	11
594.940	1	7
595.110	1	16
595.280	1	18
595.450	1	14
595.619	1	12
595.789	1	15
595.959	1	10
596.129	1	18
596.298	1	24
596.468	1	13
596.638	1	13
596.808	1	15
596.977	1	11
597.147	1	14
597.317	1	25
597.487	1	10
597.656	1	20
597.826	1	30
597.996	1	-1
598.166	1	12
598.335	1	6
598.505	1	22
598.675	1	5
598.844	1	25
599.014	1	-1
599.184	1	15
599.354	1	23
599.523	1	14
599.693	1	13
599.863	1	26
600.033	1	19
600.202	1	13
600.372	1	2
600.542	1	10
600.712	1	8
600.881	1	14
601.051	1	21
601.221	1	28
601.390	1	18
601.560	1	25
601.730	1	18
601.900	1	13
602.069	1	0
602.239	1	20
602.409	1	10
602.578	1	25
602.748	1	13
602.918	1	14
603.088	1	12
603.257	1	8
603.427	1	17
603.597	1	15
603.767	1	15
603.936	1	11
604.106	1	13
604.276	1	20
604.445	1	6
604.615	1	14
604.785	1	19
604.954	1	18
605.124	1	14
605.294	1	12
605.464	1	11
605.633	1	22
605.803	1	17
605.973	1	17
606.142	1	19
606.312	1	20
606.482	1	9
606.652	1	22
606.821	1	17
606.991	1	14
607.161	1	20
607.330	1	14
607.500	1	11
607.670	1	13
607.839	1	11
608.009	1	22
608.179	1	12
608.348	1	23
608.518	1	33
608.688	1	17
608.858	1	8
609.027	1	33
609.197	1	22
609.367	1	10
609.536	1	19
609.706	1	24
609.876	1	19
610.045	1	29
610.215	1	27
610.385	1	14
610.554	1	27
610.724	1	19
610.894	1	20
611.063	1	27
611.233	1	16
611.403	1	23
611.572	1	22
611.742	1	11
611.912	1	16
612.081	1	23
612.251	1	19
612.421	1	21
612.590	1	28
612.760	1	13
612.930	1	25
613.099	1	27
613.269	1	13
613.439	1	15
613.608	1	29
613.778	1	13
613.948	1	21
614.117	1	17
614.287	1	12
614.457	1	29
614.626	1	23
614.796	1	23
614.966	1	19
615.135	1	34
615.305	1	21
615.475	1	18
615.644	1	32
615.814	1	19
615.984	1	19
616.153	1	23
616.323	1	15
616.493	1	35
616.662	1	18
616.832	1	19
617.002	1	22
617.171	1	19
617.341	1	26
617.511	1	9
617.680	1	20
617.850	1	15
618.019	1	13
618.189	1	34
618.359	1	26
618.528	1	19
618.698	1	29
618.868	1	21
619.037	1	16
619.207	1	23
619.377	1	26
619.546	1	23
619.716	1	30
619.885	1	30
620.055	1	15
620.225	1	22
620.394	1	33
620.564	1	31
620.734	1	17
620.903	1	15
621.073	1	29
621.242	1	11
621.412	1	15
621.582	1	31
621.751	1	21
621.921	1	21
622.091	1	26
622.260	1	32
622.430	1	21
622.599	1	22
622.769	1	19
622.939	1	16
623.108	1	24
623.278	1	18
623.448	1	19
623.617	1	25
623.787	1	21
623.956	1	28
624.126	1	23
624.296	1	29
624.465	1	34
624.635	1	25
624.804	1	9
624.974	1	22
625.144	1	22
625.313	1	34
625.483	1	34
625.652	1	24
625.822	1	25
625.992	1	21
626.161	1	27
626.331	1	14
626.501	1	28
626.670	1	24
626.840	1	20
627.009	1	34
627.179	1	29
627.348	1	20
627.518	1	39
627.688	1	26
627.857	1	20
628.027	1	28
628.196	1	31
628.366	1	20
628.536	1	22
628.705	1	18
628.875	1	31
629.044	1	25
629.214	1	23
629.384	1	40
629.553	1	25
629.723	1	30
629.892	1	32
630.062	1	18
630.232	1	30
630.401	1	27
630.571	1	14
630.740	1	21
630.910	1	30
631.079	1	13
631.249	1	35
631.419	1	34
631.588	1	27
631.758	1	24
631.927	1	45
632.097	1	31
632.266	1	41
632.436	1	32
632.606	1	30
632.775	1	33
632.945	1	24
633.114	1	24
633.284	1	30
633.453	1	37
633.623	1	45
633.793	1	28
633.962	1	26
634.132	1	25
634.301	1	31
634.471	1	31
634.640	1	18
634.810	1	30
634.979	1	31
635.149	1	26
635.319	1	31
635.488	1	31
635.658	1	34
635.827	1	27
635.997	1	22
636.166	1	36
636.336	1	27
636.505	1	33
636.675	1	33
636.845	1	31
637.014	1	25
637.184	1	36
637.353	1	26
637.523	1	34
637.692	1	31
637.862	1	28
638.031	1	25
638.201	1	31
638.370	1	39
638.540	1	29
638.710	1	30
638.879	1	27
639.049	1	35
639.218	1	28
639.388	1	33
639.557	1	29
639.727	1	30
639.896	1	28
640.066	1	26
640.235	1	30
640.405	1	39
640.574	1	31
640.744	1	25
640.914	1	25
641.083	1	34
641.253	1	28
641.422	1	30
641.592	1	37
641.761	1	32
641.931	1	38
642.100	1	34
642.270	1	29
642.439	1	32
642.609	1	32
642.778	1	32
642.948	1	36
643.117	1	36
643.287	1	41
643.456	1	30
643.626	1	31
643.795	1	27
643.965	1	28
644.134	1	34
644.304	1	34
644.473	1	35
644.643	1	33
644.812	1	23
644.982	1	41
645.151	1	28
645.321	1	31
645.490	1	43
645.660	1	25
645.829	1	31
645.999	1	25
646.168	1	47
646.338	1	31
646.507	1	33
646.677	1	37
646.846	1	37
647.016	1	49
647.185	1	31
647.355	1	49
647.524	1	30
647.694	1	26
647.863	1	30
648.033	1	37
648.202	1	39
648.372	1	29
648.541	1	39
648.711	1	36
648.880	1	39
649.050	1	35
649.219	1	35
649.389	1	24
649.558	1	42
649.728	1	35
649.897	1	41
650.067	1	39
650.236	1	35
650.406	1	36
650.575	1	40
650.745	1	35
650.914	1	37
651.084	1	38
651.253	1	34
651.423	1	37
651.592	1	33
651.762	1	35
651.931	1	36
652.101	1	30
652.270	1	35
652.440	1	37
652.609	1	44
652.778	1	38
652.948	1	40
653.117	1	35
653.287	1	23
653.456	1	35
653.626	1	31
653.795	1	41
653.965	1	37
654.134	1	37
654.304	1	42
654.473	1	34
654.643	1	33
654.812	1	34
654.982	1	38
655.151	1	51
655.320	1	36
655.490	1	36
655.659	1	38
655.829	1	39
655.998	1	36
656.168	1	32
656.337	1	37
656.507	1	34
656.676	1	32
656.846	1	45
657.015	1	39
657.184	1	34
657.354	1	44
657.523	1	38
657.693	1	39
657.862	1	27
658.032	1	37
658.201	1	33
658.371	1	41
658.540	1	35
658.709	1	40
658.879	1	47
659.048	1	50
659.218	1	28
659.387	1	41
659.557	1	34
659.726	1	31
659.895	1	41
660.065	1	32
660.234	1	45
660.404	1	28
660.573	1	41
660.743	1	39
660.912	1	40
661.081	1	41
661.251	1	39
661.420	1	42
661.590	1	34
661.759	1	41
661.929	1	36
662.098	1	46
662.267	1	37
662.437	1	46
662.606	1	43
662.776	1	37
662.945	1	55
663.115	1	52
663.284	1	42
663.453	1	34
663.623	1	34
663.792	1	43
663.962	1	53
664.131	1	28
664.300	1	36
664.470	1	29
664.639	1	41
664.809	1	51
664.978	1	49
665.148	1	41
665.317	1	42
665.486	1	43
665.656	1	40
665.825	1	46
665.995	1	34
666.164	1	43
666.333	1	32
666.503	1	36
666.672	1	39
666.842	1	53
667.011	1	41
667.180	1	33
667.350	1	46
667.519	1	49
667.689	1	42
667.858	1	45
668.027	1	41
668.197	1	25
668.366	1	34
668.536	1	30
668.705	1	22
668.874	1	44
669.044	1	41
669.213	1	48
669.382	1	46
669.552	1	36
669.721	1	31
669.891	1	25
670.060	1	38
670.229	1	35
670.399	1	41
670.568	1	43
670.738	1	46
670.907	1	50
671.076	1	37
671.246	1	55
671.415	1	46
671.584	1	38
671.754	1	26
671.923	1	42
672.093	1	41
672.262	1	39
672.431	1	37
672.601	1	43
672.770	1	39
672.939	1	43
673.109	1	47
673.278	1	44
673.448	1	41
673.617	1	34
673.786	1	45
