325.333	1	7
325.504	1	-6
325.675	1	13
325.846	1	3
326.017	1	7
326.188	1	0
326.359	1	4
326.531	1	-12
326.702	1	-5
326.873	1	7
327.044	1	13
327.215	1	1
327.386	1	0
327.557	1	-9
327.728	1	-2
327.899	1	-8
328.070	1	-1
328.241	1	-2
328.412	1	7
328.583	1	-4
328.754	1	4
328.926	1	5
329.097	1	-5
329.268	1	2
329.439	1	5
329.610	1	1
329.781	1	-1
329.952	1	10
330.123	1	-6
330.294	1	-3
330.465	1	-7
330.636	1	1
330.807	1	2
330.978	1	-1
331.149	1	2
331.320	1	1
331.492	1	1
331.663	1	0
331.834	1	-1
332.005	1	2
332.176	1	5
332.347	1	-6
332.518	1	8
332.689	1	8
332.860	1	1
333.031	1	4
333.202	1	-10
333.373	1	3
333.544	1	-5
333.715	1	-5
333.886	1	2
334.057	1	-12
334.228	1	6
334.399	1	11
334.570	1	9
334.741	1	4
334.912	1	-3
335.084	1	5
335.255	1	5
335.426	1	-1
335.597	1	-8
335.768	1	-3
335.939	1	5
336.110	1	-5
336.281	1	-6
336.452	1	11
336.623	1	-5
336.794	1	1
336.965	1	-2
337.136	1	16
337.307	1	-6
337.478	1	0
337.649	1	0
337.820	1	2
337.991	1	-3
338.162	1	-3
338.333	1	5
338.504	1	6
338.675	1	-2
338.846	1	-10
339.017	1	8
339.188	1	-2
339.359	1	9
339.530	1	-4
339.701	1	2
339.872	1	14
340.043	1	4
340.214	1	3
340.385	1	-8
340.556	1	8
340.727	1	11
340.898	1	3
341.069	1	0
341.240	1	7
341.411	1	10
341.582	1	-10
341.753	1	-4
341.924	1	7
342.095	1	-4
342.266	1	6
342.437	1	4
342.608	1	0
342.779	1	4
342.950	1	2
343.121	1	8
343.292	1	2
343.463	1	14
343.634	1	2
343.805	1	-5
343.976	1	7
344.147	1	-1
344.318	1	-7
344.489	1	-1
344.660	1	12
344.831	1	11
345.002	1	12
345.173	1	-2
345.344	1	2
345.515	1	6
345.686	1	11
345.857	1	3
346.028	1	4
346.199	1	12
346.370	1	-8
346.541	1	-1
346.712	1	3
346.883	1	-2
347.054	1	5
347.225	1	2
347.396	1	9
347.567	1	0
347.738	1	3
347.909	1	7
348.080	1	8
348.251	1	0
348.422	1	8
348.593	1	4
348.764	1	-2
348.935	1	4
349.106	1	-10
349.277	1	6
349.448	1	4
349.619	1	-1
349.790	1	7
349.961	1	3
350.132	1	1
350.303	1	5
350.474	1	12
350.645	1	-2
350.816	1	-2
350.987	1	7
351.157	1	-6
351.328	1	5
351.499	1	12
351.670	1	6
351.841	1	6
352.012	1	10
352.183	1	16
352.354	1	3
352.525	1	23
352.696	1	0
352.867	1	11
353.038	1	4
353.209	1	-8
353.380	1	4
353.551	1	5
353.722	1	0
353.893	1	11
354.064	1	4
354.235	1	6
354.406	1	-6
354.576	1	3
354.747	1	14
354.918	1	-1
355.089	1	3
355.260	1	5
355.431	1	0
355.602	1	12
355.773	1	1
355.944	1	3
356.115	1	18
356.286	1	5
356.457	1	9
356.628	1	5
356.799	1	9
356.970	1	6
357.141	1	0
357.311	1	13
357.482	1	-1
357.653	1	3
357.824	1	3
357.995	1	14
358.166	1	7
358.337	1	-5
358.508	1	15
358.679	1	1
358.850	1	7
359.021	1	2
359.192	1	9
359.363	1	13
359.533	1	-1
359.704	1	0
359.875	1	3
360.046	1	16
360.217	1	-3
360.388	1	16
360.559	1	6
360.730	1	2
360.901	1	8
361.072	1	9
361.243	1	8
361.414	1	6
361.584	1	0
361.755	1	5
361.926	1	17
362.097	1	1
362.268	1	13
362.439	1	-3
362.610	1	9
362.781	1	-5
362.952	1	9
363.123	1	-7
363.293	1	6
363.464	1	1
363.635	1	7
363.806	1	5
363.977	1	3
364.148	1	-1
364.319	1	0
364.490	1	6
364.661	1	6
364.832	1	7
365.002	1	14
365.173	1	2
365.344	1	0
365.515	1	-2
365.686	1	8
365.857	1	8
366.028	1	8
366.199	1	10
366.370	1	13
366.540	1	2
366.711	1	12
366.882	1	3
367.053	1	6
367.224	1	5
367.395	1	10
367.566	1	7
367.737	1	8
367.908	1	10
368.078	1	1
368.249	1	6
368.420	1	7
368.591	1	6
368.762	1	0
368.933	1	4
369.104	1	8
369.274	1	16
369.445	1	4
369.616	1	3
369.787	1	6
369.958	1	5
370.129	1	-2
370.300	1	1
370.471	1	-2
370.641	1	6
370.812	1	8
370.983	1	-5
371.154	1	-2
371.325	1	-1
371.496	1	7
371.667	1	20
371.837	1	5
372.008	1	10
372.179	1	11
372.350	1	-1
372.521	1	4
372.692	1	17
372.863	1	3
373.033	1	9
373.204	1	12
373.375	1	-3
373.546	1	9
373.717	1	0
373.888	1	15
374.059	1	3
374.229	1	6
374.400	1	4
374.571	1	-7
374.742	1	9
374.913	1	-2
375.084	1	5
375.254	1	2
375.425	1	7
375.596	1	16
375.767	1	11
375.938	1	-8
376.109	1	7
376.279	1	6
376.450	1	16
376.621	1	8
376.792	1	13
376.963	1	-1
377.134	1	5
377.304	1	15
377.475	1	5
377.646	1	2
377.817	1	20
377.988	1	7
378.159	1	11
378.329	1	3
378.500	1	9
378.671	1	1
378.842	1	5
379.013	1	13
379.184	1	6
379.354	1	16
379.525	1	16
379.696	1	12
379.867	1	3
380.038	1	7
380.209	1	11
380.379	1	15
380.550	1	-4
380.721	1	13
380.892	1	2
381.063	1	11
381.233	1	13
381.404	1	8
381.575	1	3
381.746	1	7
381.917	1	10
382.087	1	13
382.258	1	7
382.429	1	6
382.600	1	3
382.771	1	3
382.941	1	16
383.112	1	7
383.283	1	20
383.454	1	4
383.625	1	7
383.795	1	5
383.966	1	10
384.137	1	14
384.308	1	7
384.479	1	4
384.649	1	9
384.820	1	10
384.991	1	6
385.162	1	16
385.333	1	14
385.503	1	4
385.674	1	4
385.845	1	7
386.016	1	19
386.187	1	-1
386.357	1	18
386.528	1	-8
386.699	1	1
386.870	1	9
387.041	1	13
387.211	1	1
387.382	1	16
387.553	1	18
387.724	1	10
387.894	1	-1
388.065	1	7
388.236	1	7
388.407	1	20
388.578	1	11
388.748	1	9
388.919	1	5
389.090	1	14
389.261	1	15
389.431	1	2
389.602	1	12
389.773	1	9
389.944	1	11
390.114	1	10
390.285	1	18
390.456	1	7
390.627	1	1
390.798	1	5
390.968	1	16
391.139	1	11
391.310	1	2
391.481	1	6
391.651	1	18
391.822	1	16
391.993	1	9
392.164	1	4
392.334	1	12
392.505	1	12
392.676	1	1
392.847	1	4
393.017	1	6
393.188	1	18
393.359	1	6
393.530	1	18
393.700	1	11
393.871	1	8
394.042	1	9
394.213	1	15
394.383	1	8
394.554	1	15
394.725	1	-2
394.896	1	20
395.066	1	10
395.237	1	2
395.408	1	10
395.579	1	19
395.749	1	18
395.920	1	16
396.091	1	9
396.262	1	10
396.432	1	5
396.603	1	15
396.774	1	3
396.945	1	12
397.115	1	12
397.286	1	20
397.457	1	6
397.627	1	3
397.798	1	5
397.969	1	17
398.140	1	6
398.310	1	13
398.481	1	11
398.652	1	16
398.823	1	-1
398.993	1	10
399.164	1	9
399.335	1	6
399.505	1	1
399.676	1	5
399.847	1	12
400.018	1	7
400.188	1	5
400.359	1	11
400.530	1	14
400.700	1	11
400.871	1	17
401.042	1	21
401.213	1	9
401.383	1	11
401.554	1	13
401.725	1	9
401.895	1	2
402.066	1	13
402.237	1	16
402.408	1	4
402.578	1	25
402.749	1	2
402.920	1	24
403.090	1	12
403.261	1	14
403.432	1	11
403.603	1	8
403.773	1	10
403.944	1	10
404.115	1	5
404.285	1	6
404.456	1	11
404.627	1	8
404.797	1	9
404.968	1	4
405.139	1	7
405.310	1	6
405.480	1	15
405.651	1	0
405.822	1	11
405.992	1	12
406.163	1	4
406.334	1	7
406.504	1	18
406.675	1	13
406.846	1	12
407.016	1	6
407.187	1	17
407.358	1	1
407.528	1	7
407.699	1	10
407.870	1	16
408.041	1	-1
408.211	1	16
408.382	1	17
408.553	1	11
408.723	1	17
408.894	1	4
409.065	1	13
409.235	1	18
409.406	1	13
409.577	1	9
409.747	1	13
409.918	1	20
410.089	1	17
410.259	1	11
410.430	1	15
410.601	1	16
410.771	1	14
410.942	1	6
411.113	1	11
411.283	1	18
411.454	1	14
411.625	1	13
411.795	1	10
411.966	1	8
412.137	1	18
412.307	1	10
412.478	1	9
412.649	1	8
412.819	1	19
412.990	1	17
413.161	1	9
413.331	1	11
413.502	1	14
413.672	1	15
413.843	1	11
414.014	1	16
414.184	1	20
414.355	1	14
414.526	1	8
414.696	1	10
414.867	1	4
415.038	1	10
415.208	1	3
415.379	1	6
415.550	1	6
415.720	1	7
415.891	1	20
416.062	1	11
416.232	1	19
416.403	1	16
416.573	1	15
416.744	1	10
416.915	1	5
417.085	1	8
417.256	1	5
417.427	1	8
417.597	1	1
417.768	1	21
417.939	1	6
418.109	1	12
418.280	1	12
418.450	1	25
418.621	1	11
418.792	1	11
418.962	1	10
419.133	1	3
419.304	1	6
419.474	1	7
419.645	1	1
419.815	1	9
419.986	1	14
420.157	1	8
420.327	1	12
420.498	1	9
420.669	1	17
420.839	1	14
421.010	1	15
421.180	1	6
421.351	1	14
421.522	1	8
421.692	1	15
421.863	1	11
422.033	1	5
422.204	1	22
422.375	1	14
422.545	1	15
422.716	1	2
422.886	1	9
423.057	1	9
423.228	1	2
423.398	1	11
423.569	1	12
423.740	1	16
423.910	1	9
424.081	1	5
424.251	1	11
424.422	1	4
424.593	1	15
424.763	1	14
424.934	1	11
425.104	1	18
425.275	1	2
425.445	1	6
425.616	1	15
425.787	1	9
425.957	1	16
426.128	1	5
426.298	1	10
426.469	1	1
426.640	1	11
426.810	1	1
426.981	1	22
427.151	1	13
427.322	1	10
427.493	1	9
427.663	1	17
427.834	1	1
428.004	1	13
428.175	1	11
428.345	1	6
428.516	1	12
428.687	1	22
428.857	1	16
429.028	1	6
429.198	1	0
429.369	1	7
429.540	1	24
429.710	1	8
429.881	1	6
430.051	1	8
430.222	1	20
430.392	1	19
430.563	1	9
430.734	1	0
430.904	1	13
431.075	1	11
431.245	1	10
431.416	1	12
431.586	1	-3
431.757	1	18
431.927	1	22
432.098	1	12
432.269	1	10
432.439	1	11
432.610	1	21
432.780	1	13
432.951	1	-2
433.121	1	12
433.292	1	13
433.462	1	6
433.633	1	4
433.804	1	12
433.974	1	19
434.145	1	-4
434.315	1	12
434.486	1	1
434.656	1	13
434.827	1	11
434.997	1	19
435.168	1	13
435.339	1	23
435.509	1	16
435.680	1	13
435.850	1	4
436.021	1	3
436.191	1	13
436.362	1	12
436.532	1	8
436.703	1	14
436.873	1	2
437.044	1	13
437.214	1	5
437.385	1	12
437.556	1	15
437.726	1	17
437.897	1	3
438.067	1	5
438.238	1	4
438.408	1	18
438.579	1	-1
438.749	1	13
438.920	1	18
439.090	1	0
439.261	1	13
439.431	1	6
439.602	1	15
439.772	1	3
439.943	1	4
440.113	1	5
440.284	1	10
440.455	1	11
440.625	1	15
440.796	1	11
440.966	1	13
441.137	1	11
441.307	1	5
441.478	1	9
441.648	1	6
441.819	1	6
441.989	1	18
442.160	1	15
442.330	1	4
442.501	1	14
442.671	1	7
442.842	1	7
443.012	1	-2
443.183	1	17
443.353	1	10
443.524	1	1
443.694	1	8
443.865	1	11
444.035	1	11
444.206	1	7
444.376	1	14
444.547	1	8
444.717	1	12
444.888	1	-7
445.058	1	21
445.229	1	4
445.399	1	9
445.570	1	1
445.740	1	8
445.911	1	9
446.081	1	8
446.252	1	15
446.422	1	5
446.593	1	6
446.763	1	2
446.934	1	-8
447.104	1	5
447.275	1	7
447.445	1	1
447.616	1	3
447.786	1	8
447.957	1	9
448.127	1	12
448.298	1	15
448.468	1	10
448.639	1	-12
448.809	1	0
448.979	1	17
449.150	1	6
449.320	1	6
449.491	1	2
449.661	1	13
449.832	1	2
450.002	1	8
450.173	1	5
450.343	1	9
450.514	1	14
450.684	1	10
450.855	1	11
451.025	1	9
451.196	1	3
451.366	1	17
451.537	1	13
451.707	1	20
451.878	1	7
452.048	1	3
452.218	1	10
452.389	1	11
452.559	1	15
452.730	1	4
452.900	1	-4
453.071	1	14
453.241	1	10
453.412	1	4
453.582	1	19
453.753	1	16
453.923	1	-5
454.093	1	4
454.264	1	13
454.434	1	12
454.605	1	2
454.775	1	12
454.946	1	7
455.116	1	13
455.287	1	6
455.457	1	8
455.628	1	3
455.798	1	23
455.968	1	9
456.139	1	13
456.309	1	0
456.480	1	1
456.650	1	4
456.821	1	4
456.991	1	19
457.161	1	10
457.332	1	17
457.502	1	5
457.673	1	-4
457.843	1	3
458.014	1	6
458.184	1	8
458.355	1	7
458.525	1	1
458.695	1	7
458.866	1	-2
459.036	1	9
459.207	1	1
459.377	1	9
459.548	1	7
459.718	1	11
459.888	1	9
460.059	1	3
460.229	1	-2
460.400	1	-1
460.570	1	1
460.740	1	9
460.911	1	4
461.081	1	12
461.252	1	11
461.422	1	6
461.593	1	10
461.763	1	17
461.933	1	3
462.104	1	-1
462.274	1	-7
462.445	1	8
462.615	1	8
462.785	1	14
462.956	1	-1
463.126	1	7
463.297	1	3
463.467	1	4
463.638	1	9
463.808	1	7
463.978	1	-5
464.149	1	1
464.319	1	5
464.490	1	2
464.660	1	-4
464.830	1	-4
465.001	1	8
465.171	1	-3
465.342	1	-6
465.512	1	13
465.682	1	-1
465.853	1	8
466.023	1	7
466.194	1	9
466.364	1	12
466.534	1	-4
466.705	1	11
466.875	1	-7
467.045	1	-3
467.216	1	11
467.386	1	7
467.557	1	20
467.727	1	-6
467.897	1	2
468.068	1	5
468.238	1	0
468.409	1	8
468.579	1	9
468.749	1	9
468.920	1	-1
469.090	1	16
469.260	1	6
469.431	1	2
469.601	1	5
469.772	1	10
469.942	1	9
470.112	1	4
470.283	1	8
470.453	1	6
470.623	1	2
470.794	1	8
470.964	1	-1
471.135	1	10
471.305	1	7
471.475	1	4
471.646	1	8
471.816	1	9
471.986	1	10
472.157	1	13
472.327	1	4
472.497	1	8
472.668	1	9
472.838	1	-3
473.009	1	7
473.179	1	-1
473.349	1	-8
473.520	1	15
473.690	1	8
473.860	1	-3
474.031	1	-3
474.201	1	4
474.371	1	13
474.542	1	10
474.712	1	4
474.882	1	11
475.053	1	6
475.223	1	5
475.394	1	2
475.564	1	3
475.734	1	0
475.905	1	1
476.075	1	19
476.245	1	0
476.416	1	1
476.586	1	5
476.756	1	3
476.927	1	-2
477.097	1	-5
477.267	1	0
477.438	1	8
477.608	1	13
477.778	1	4
477.949	1	1
478.119	1	5
478.289	1	2
478.460	1	-3
478.630	1	10
478.800	1	-6
478.971	1	7
479.141	1	8
479.311	1	4
479.482	1	0
479.652	1	9
479.822	1	-8
479.993	1	-6
480.163	1	0
480.333	1	-1
480.504	1	7
480.674	1	10
480.844	1	3
481.015	1	17
481.185	1	16
481.355	1	6
481.525	1	3
481.696	1	6
481.866	1	3
482.036	1	3
482.207	1	1
482.377	1	-3
482.547	1	7
482.718	1	6
482.888	1	14
483.058	1	4
483.229	1	2
483.399	1	8
483.569	1	-12
483.740	1	9
483.910	1	-8
484.080	1	0
484.250	1	0
484.421	1	-4
484.591	1	-4
484.761	1	2
484.932	1	3
485.102	1	6
485.272	1	2
485.443	1	11
485.613	1	-1
485.783	1	4
485.953	1	0
486.124	1	2
486.294	1	11
486.464	1	11
486.635	1	-1
486.805	1	5
486.975	1	4
487.146	1	1
487.316	1	11
487.486	1	10
487.656	1	7
487.827	1	1
487.997	1	4
488.167	1	11
488.338	1	1
488.508	1	13
488.678	1	0
488.848	1	3
489.019	1	-1
489.189	1	11
489.359	1	7
489.529	1	8
489.700	1	8
489.870	1	16
490.040	1	5
490.211	1	2
490.381	1	-1
490.551	1	4
490.721	1	-1
490.892	1	-7
491.062	1	0
491.232	1	7
491.402	1	-3
491.573	1	20
491.743	1	4
491.913	1	10
492.084	1	2
492.254	1	7
492.424	1	-6
492.594	1	-2
492.765	1	10
492.935	1	15
493.105	1	-7
493.275	1	4
493.446	1	-8
493.616	1	-9
493.786	1	6
493.956	1	2
494.127	1	-10
494.297	1	-7
494.467	1	8
494.637	1	2
494.808	1	1
494.978	1	6
495.148	1	2
495.318	1	3
495.489	1	-13
495.659	1	5
495.829	1	3
495.999	1	10
496.170	1	8
496.340	1	2
496.510	1	10
496.680	1	-7
496.851	1	15
497.021	1	-5
497.191	1	5
497.361	1	-5
497.532	1	9
497.702	1	6
497.872	1	-4
498.042	1	8
498.213	1	-6
498.383	1	8
498.553	1	4
498.723	1	4
498.894	1	9
499.064	1	7
499.234	1	13
499.404	1	9
499.574	1	14
499.745	1	0
499.915	1	-1
500.085	1	-2
500.255	1	-4
500.426	1	3
500.596	1	-3
500.766	1	-5
500.936	1	-3
501.106	1	0
501.277	1	2
501.447	1	1
501.617	1	-5
501.787	1	2
501.958	1	7
502.128	1	3
502.298	1	-7
502.468	1	0
502.638	1	8
502.809	1	-2
502.979	1	2
503.149	1	-1
503.319	1	13
503.489	1	-12
503.660	1	0
503.830	1	6
504.000	1	5
504.170	1	6
504.340	1	0
504.511	1	-8
504.681	1	7
504.851	1	4
505.021	1	3
505.192	1	-4
505.362	1	4
505.532	1	-5
505.702	1	16
505.872	1	-2
506.043	1	3
506.213	1	15
506.383	1	4
506.553	1	0
506.723	1	-9
506.893	1	6
507.064	1	9
507.234	1	-4
507.404	1	-4
507.574	1	2
507.744	1	2
507.915	1	-4
508.085	1	0
508.255	1	-3
508.425	1	2
508.595	1	-5
508.766	1	-7
508.936	1	9
509.106	1	3
509.276	1	-2
509.446	1	-7
509.616	1	10
509.787	1	-6
509.957	1	12
510.127	1	-7
510.297	1	-7
510.467	1	4
510.638	1	7
510.808	1	6
510.978	1	-5
511.148	1	-2
511.318	1	2
511.488	1	4
511.659	1	2
511.829	1	-3
511.999	1	16
512.169	1	-3
512.339	1	0
512.509	1	-2
512.680	1	-4
512.850	1	-4
513.020	1	10
513.190	1	-7
513.360	1	7
513.530	1	-8
513.700	1	9
513.871	1	-7
514.041	1	6
514.211	1	8
514.381	1	2
514.551	1	-2
514.721	1	-5
514.892	1	-2
515.062	1	-2
515.232	1	1
515.402	1	5
515.572	1	7
515.742	1	6
515.912	1	5
516.083	1	8
516.253	1	5
516.423	1	0
516.593	1	6
516.763	1	6
516.933	1	1
517.104	1	8
517.274	1	-11
517.444	1	-3
517.614	1	1
517.784	1	1
517.954	1	1
518.124	1	14
518.294	1	1
518.465	1	-8
518.635	1	12
518.805	1	-5
518.975	1	3
519.145	1	1
519.315	1	4
519.485	1	0
519.656	1	-1
519.826	1	-10
519.996	1	8
520.166	1	0
520.336	1	1
520.506	1	-9
520.676	1	2
520.846	1	-3
521.017	1	7
521.187	1	5
521.357	1	-3
521.527	1	-1
521.697	1	-5
521.867	1	4
522.037	1	-6
522.207	1	6
522.377	1	11
522.548	1	-9
522.718	1	-1
522.888	1	1
523.058	1	0
523.228	1	-13
523.398	1	-5
523.568	1	-7
523.738	1	-1
523.909	1	1
524.079	1	2
524.249	1	-3
524.419	1	1
524.589	1	-5
524.759	1	5
524.929	1	3
525.099	1	-5
525.269	1	-3
525.439	1	-8
525.610	1	4
525.780	1	9
525.950	1	11
526.120	1	-6
526.290	1	-2
526.460	1	-4
526.630	1	9
526.800	1	-9
526.970	1	6
527.140	1	5
527.311	1	3
527.481	1	-2
527.651	1	7
527.821	1	-9
527.991	1	2
528.161	1	9
528.331	1	-2
528.501	1	4
528.671	1	0
528.841	1	-3
529.011	1	-11
529.181	1	1
529.352	1	4
529.522	1	-4
529.692	1	1
529.862	1	4
530.032	1	0
530.202	1	-11
530.372	1	-7
530.542	1	4
530.712	1	-3
530.882	1	4
531.052	1	1
531.222	1	12
531.392	1	-1
531.563	1	0
531.733	1	1
531.903	1	-3
532.073	1	2
532.243	1	4
532.413	1	15
532.583	1	5
532.753	1	-2
532.923	1	1
533.093	1	-11
533.263	1	5
533.433	1	-5
533.603	1	-9
533.773	1	-1
533.943	1	-6
534.113	1	-4
534.284	1	2
534.454	1	-5
534.624	1	-3
534.794	1	0
534.964	1	5
535.134	1	2
535.304	1	6
535.474	1	-9
535.644	1	6
535.814	1	-1
535.984	1	7
536.154	1	-6
536.324	1	-1
536.494	1	3
536.664	1	-1
536.834	1	-1
537.004	1	3
537.174	1	8
537.344	1	4
537.514	1	0
537.685	1	4
537.855	1	-3
538.025	1	13
538.195	1	-3
538.365	1	8
538.535	1	-5
538.705	1	4
538.875	1	5
539.045	1	3
539.215	1	-10
539.385	1	-2
539.555	1	0
539.725	1	-2
539.895	1	4
540.065	1	-3
540.235	1	7
540.405	1	4
540.575	1	8
540.745	1	2
540.915	1	-9
541.085	1	-6
541.255	1	-4
541.425	1	-9
541.595	1	-1
541.765	1	8
541.935	1	0
542.105	1	0
542.275	1	-8
542.445	1	4
542.615	1	6
542.785	1	6
542.955	1	5
543.125	1	-4
543.295	1	5
543.465	1	5
543.635	1	-9
543.805	1	-6
543.975	1	-5
544.145	1	0
544.315	1	-8
544.485	1	-5
544.655	1	5
544.825	1	1
544.995	1	-8
545.165	1	-1
545.335	1	2
545.505	1	1
545.675	1	0
545.845	1	5
546.015	1	-5
546.185	1	8
546.355	1	-1
546.525	1	6
546.695	1	-4
546.865	1	4
547.035	1	-4
547.205	1	16
547.375	1	7
547.545	1	2
547.715	1	3
547.885	1	-2
548.055	1	-8
548.225	1	11
548.395	1	4
548.565	1	11
548.735	1	-9
548.905	1	5
549.075	1	-4
549.245	1	0
549.415	1	3
549.585	1	-1
549.755	1	1
549.925	1	2
550.095	1	-3
550.265	1	2
550.435	1	-2
550.605	1	-5
550.775	1	-5
550.945	1	3
551.115	1	17
551.285	1	4
551.455	1	11
551.625	1	-8
551.795	1	-3
551.965	1	-14
552.135	1	-7
552.305	1	2
552.475	1	-2
552.645	1	-6
552.815	1	-2
552.985	1	-3
553.155	1	-1
553.325	1	-4
553.495	1	6
553.665	1	-4
553.835	1	-3
554.004	1	5
554.174	1	-6
554.344	1	6
554.514	1	-3
554.684	1	-2
554.854	1	-11
555.024	1	9
555.194	1	5
555.364	1	0
555.534	1	-3
555.704	1	2
555.874	1	-4
556.044	1	-1
556.214	1	-1
556.384	1	7
556.554	1	-4
556.724	1	2
556.894	1	-3
557.064	1	-11
557.234	1	-4
557.404	1	-1
557.573	1	2
557.743	1	-9
557.913	1	1
558.083	1	4
558.253	1	0
558.423	1	1
558.593	1	-1
558.763	1	2
558.933	1	-2
559.103	1	0
559.273	1	5
559.443	1	9
559.613	1	-1
559.783	1	0
559.953	1	-15
560.122	1	0
560.292	1	-12
560.462	1	-2
560.632	1	-6
560.802	1	5
560.972	1	-10
561.142	1	5
561.312	1	6
561.482	1	4
561.652	1	-1
561.822	1	-2
561.992	1	0
562.162	1	-1
562.331	1	-15
562.501	1	-4
562.671	1	0
562.841	1	-13
563.011	1	-1
563.181	1	-3
563.351	1	-5
563.521	1	-9
563.691	1	1
563.861	1	-1
564.031	1	-2
564.201	1	0
564.370	1	1
564.540	1	-5
564.710	1	-4
564.880	1	-3
565.050	1	0
565.220	1	2
565.390	1	-8
565.560	1	-1
565.730	1	7
565.900	1	0
566.069	1	9
566.239	1	2
566.409	1	6
566.579	1	1
566.749	1	3
566.919	1	-5
567.089	1	-12
567.259	1	-4
567.429	1	-12
567.599	1	8
567.768	1	-4
567.938	1	1
568.108	1	-2
568.278	1	-2
568.448	1	6
568.618	1	4
568.788	1	-1
568.958	1	-4
569.128	1	-2
569.297	1	-14
569.467	1	5
569.637	1	-5
569.807	1	-4
569.977	1	-4
570.147	1	5
570.317	1	-2
570.487	1	-6
570.656	1	1
570.826	1	-6
570.996	1	11
571.166	1	-5
571.336	1	1
571.506	1	-8
571.676	1	1
571.846	1	5
572.015	1	6
572.185	1	-5
572.355	1	1
572.525	1	-5
572.695	1	1
572.865	1	3
573.035	1	-3
573.205	1	-4
573.374	1	2
573.544	1	3
573.714	1	-2
573.884	1	-6
574.054	1	-3
574.224	1	2
574.394	1	-3
574.563	1	1
574.733	1	0
574.903	1	1
575.073	1	-1
575.243	1	0
575.413	1	-5
575.583	1	-6
575.752	1	-2
575.922	1	13
576.092	1	-5
576.262	1	-4
576.432	1	-10
576.602	1	2
576.772	1	-5
576.941	1	-5
577.111	1	1
577.281	1	3
577.451	1	3
577.621	1	-7
577.791	1	8
577.960	1	-4
578.130	1	-4
578.300	1	-2
578.470	1	5
578.640	1	-5
578.810	1	-12
578.979	1	0
579.149	1	-7
579.319	1	0
579.489	1	6
579.659	1	-1
579.829	1	-13
579.998	1	-9
580.168	1	-2
580.338	1	-3
580.508	1	-2
580.678	1	-1
580.848	1	-2
581.017	1	-1
581.187	1	2
581.357	1	8
581.527	1	-6
581.697	1	-4
581.867	1	-3
582.036	1	-1
582.206	1	-7
582.376	1	-2
582.546	1	-1
582.716	1	-3
582.885	1	6
583.055	1	-1
583.225	1	-4
583.395	1	-7
583.565	1	5
583.735	1	1
583.904	1	-5
584.074	1	-5
584.244	1	-6
584.414	1	-7
584.584	1	0
584.753	1	-4
584.923	1	0
585.093	1	-1
585.263	1	-4
585.433	1	-11
585.602	1	6
585.772	1	12
585.942	1	-1
586.112	1	-3
586.282	1	-6
586.451	1	10
586.621	1	-4
586.791	1	-6
586.961	1	-16
587.131	1	-8
587.300	1	12
587.470	1	-6
587.640	1	-4
587.810	1	-15
587.980	1	4
588.149	1	3
588.319	1	5
588.489	1	1
588.659	1	-4
588.829	1	5
588.998	1	-9
589.168	1	-2
589.338	1	-2
589.508	1	13
589.677	1	2
589.847	1	5
590.017	1	-4
590.187	1	0
590.357	1	-14
590.526	1	-5
590.696	1	0
590.866	1	-12
591.036	1	6
591.205	1	3
591.375	1	1
591.545	1	-8
591.715	1	2
591.885	1	1
592.054	1	6
592.224	1	-5
592.394	1	-7
592.564	1	-3
592.733	1	2
592.903	1	3
593.073	1	-1
593.243	1	4
593.412	1	-5
593.582	1	0
593.752	1	-5
593.922	1	-5
594.091	1	-4
594.261	1	-10
594.431	1	4
594.601	1	2
594.771	1	0
594.940	1	-4
595.110	1	-4
595.280	1	-1
595.450	1	-2
595.619	1	0
595.789	1	-10
595.959	1	-5
596.129	1	-8
596.298	1	10
596.468	1	-3
596.638	1	5
596.808	1	-11
596.977	1	-7
597.147	1	-11
597.317	1	1
597.487	1	1
597.656	1	-8
597.826	1	7
597.996	1	5
598.166	1	1
598.335	1	-6
598.505	1	2
598.675	1	5
598.844	1	8
599.014	1	-6
599.184	1	2
599.354	1	4
599.523	1	-2
599.693	1	-1
599.863	1	3
600.033	1	0
600.202	1	-5
600.372	1	-14
600.542	1	1
600.712	1	-12
600.881	1	2
601.051	1	7
601.221	1	-3
601.390	1	4
601.560	1	0
601.730	1	-5
601.900	1	0
602.069	1	12
602.239	1	-2
602.409	1	-4
602.578	1	7
602.748	1	12
602.918	1	0
603.088	1	3
603.257	1	-3
603.427	1	-1
603.597	1	-2
603.767	1	-2
603.936	1	15
604.106	1	-2
604.276	1	-11
604.445	1	-1
604.615	1	3
604.785	1	-2
604.954	1	-5
605.124	1	-4
605.294	1	1
605.464	1	-10
605.633	1	3
605.803	1	9
605.973	1	5
606.142	1	3
606.312	1	4
606.482	1	-5
606.652	1	4
606.821	1	-3
606.991	1	2
607.161	1	0
607.330	1	-7
607.500	1	-2
607.670	1	0
607.839	1	-2
608.009	1	-4
608.179	1	7
608.348	1	-8
608.518	1	10
608.688	1	-7
608.858	1	-3
609.027	1	11
609.197	1	13
609.367	1	-6
609.536	1	-10
609.706	1	0
609.876	1	3
610.045	1	6
610.215	1	5
610.385	1	1
610.554	1	-3
610.724	1	-1
610.894	1	6
611.063	1	-1
611.233	1	0
611.403	1	-1
611.572	1	-2
611.742	1	-8
611.912	1	-5
612.081	1	4
612.251	1	7
612.421	1	1
612.590	1	-1
612.760	1	3
612.930	1	2
613.099	1	8
613.269	1	-3
613.439	1	-13
613.608	1	2
613.778	1	2
613.948	1	13
614.117	1	-7
614.287	1	-10
614.457	1	2
614.626	1	-7
614.796	1	-3
614.966	1	-12
615.135	1	8
615.305	1	6
615.475	1	-2
615.644	1	14
615.814	1	7
615.984	1	-3
616.153	1	-1
616.323	1	-7
616.493	1	-2
616.662	1	0
616.832	1	-6
617.002	1	3
617.171	1	3
617.341	1	13
617.511	1	-15
617.680	1	4
617.850	1	-4
618.019	1	-2
618.189	1	6
618.359	1	-4
618.528	1	-7
618.698	1	6
618.868	1	-2
619.037	1	5
619.207	1	-4
619.377	1	-3
619.546	1	8
619.716	1	8
619.885	1	-4
620.055	1	-6
620.225	1	1
620.394	1	6
620.564	1	0
620.734	1	0
620.903	1	-12
621.073	1	6
621.242	1	0
621.412	1	-9
621.582	1	11
621.751	1	3
621.921	1	3
622.091	1	-3
622.260	1	0
622.430	1	2
622.599	1	2
622.769	1	5
622.939	1	-5
623.108	1	-4
623.278	1	-3
623.448	1	4
623.617	1	4
623.787	1	-7
623.956	1	-3
624.126	1	5
624.296	1	11
624.465	1	6
624.635	1	0
624.804	1	-12
624.974	1	-9
625.144	1	1
625.313	1	9
625.483	1	3
625.652	1	1
625.822	1	3
625.992	1	0
626.161	1	2
626.331	1	1
626.501	1	-1
626.670	1	-2
626.840	1	7
627.009	1	0
627.179	1	-1
627.348	1	-3
627.518	1	4
627.688	1	-11
627.857	1	11
628.027	1	9
628.196	1	2
628.366	1	-10
628.536	1	0
628.705	1	2
628.875	1	-6
629.044	1	-8
629.214	1	0
629.384	1	8
629.553	1	-11
629.723	1	4
629.892	1	1
630.062	1	-5
630.232	1	9
630.401	1	1
630.571	1	1
630.740	1	-6
630.910	1	3
631.079	1	-3
631.249	1	-7
631.419	1	2
631.588	1	7
631.758	1	3
631.927	1	7
632.097	1	0
632.266	1	7
632.436	1	-5
632.606	1	-1
632.775	1	11
632.945	1	-4
633.114	1	-12
633.284	1	-1
633.453	1	5
633.623	1	12
633.793	1	-2
633.962	1	5
634.132	1	6
634.301	1	3
634.471	1	-1
634.640	1	2
634.810	1	-2
634.979	1	-7
635.149	1	-1
635.319	1	1
635.488	1	-1
635.658	1	-3
635.827	1	-1
635.997	1	-3
636.166	1	-7
636.336	1	-4
636.505	1	5
636.675	1	3
636.845	1	0
637.014	1	-8
637.184	1	-3
637.353	1	-6
637.523	1	-3
637.692	1	-7
637.862	1	-8
638.031	1	-5
638.201	1	7
638.370	1	-4
638.540	1	-9
638.710	1	-6
638.879	1	-6
639.049	1	3
639.218	1	2
639.388	1	1
639.557	1	-2
639.727	1	8
639.896	1	-4
640.066	1	-4
640.235	1	0
640.405	1	0
640.574	1	8
640.744	1	-5
640.914	1	-5
641.083	1	6
641.253	1	-11
641.422	1	-10
641.592	1	3
641.761	1	11
641.931	1	8
642.100	1	-9
642.270	1	-6
642.439	1	-1
642.609	1	8
642.778	1	-2
642.948	1	-1
643.117	1	8
643.287	1	7
643.456	1	-2
643.626	1	-4
643.795	1	-4
643.965	1	3
644.134	1	-1
644.304	1	-3
644.473	1	-11
644.643	1	-6
644.812	1	-7
644.982	1	1
645.151	1	-1
645.321	1	7
645.490	1	10
645.660	1	-4
645.829	1	-5
645.999	1	0
646.168	1	13
646.338	1	-6
646.507	1	1
646.677	1	0
646.846	1	8
647.016	1	7
647.185	1	7
647.355	1	5
647.524	1	-2
647.694	1	-5
647.863	1	-5
648.033	1	-2
648.202	1	8
648.372	1	-11
648.541	1	2
648.711	1	5
648.880	1	3
649.050	1	-7
649.219	1	-1
649.389	1	-12
649.558	1	6
649.728	1	-2
649.897	1	10
650.067	1	8
650.236	1	-6
650.406	1	-1
650.575	1	8
650.745	1	-2
650.914	1	5
651.084	1	5
651.253	1	2
651.423	1	-7
651.592	1	-4
651.762	1	-2
651.931	1	1
652.101	1	-7
652.270	1	0
652.440	1	4
652.609	1	-2
652.778	1	5
652.948	1	-15
653.117	1	-4
653.287	1	-7
653.456	1	-8
653.626	1	6
653.795	1	3
653.965	1	1
654.134	1	-7
654.304	1	5
654.473	1	-2
654.643	1	5
654.812	1	4
654.982	1	-5
655.151	1	8
655.320	1	0
655.490	1	-4
655.659	1	1
655.829	1	4
655.998	1	7
656.168	1	-2
656.337	1	1
656.507	1	-11
656.676	1	-9
656.846	1	-3
657.015	1	11
657.184	1	8
657.354	1	2
657.523	1	-4
657.693	1	8
657.862	1	1
658.032	1	1
658.201	1	-6
658.371	1	-8
658.540	1	-12
658.709	1	1
658.879	1	9
659.048	1	9
659.218	1	-5
659.387	1	6
659.557	1	4
659.726	1	-3
659.895	1	0
660.065	1	-9
660.234	1	-4
660.404	1	4
660.573	1	4
660.743	1	-6
660.912	1	4
661.081	1	-4
661.251	1	1
661.420	1	5
661.590	1	-6
661.759	1	-6
661.929	1	-10
662.098	1	10
662.267	1	-13
662.437	1	2
662.606	1	-5
662.776	1	7
662.945	1	2
663.115	1	0
663.284	1	0
663.453	1	-12
663.623	1	-3
663.792	1	10
663.962	1	10
664.131	1	0
664.300	1	1
664.470	1	-3
664.639	1	0
664.809	1	-6
664.978	1	5
665.148	1	0
665.317	1	-5
665.486	1	5
665.656	1	-2
665.825	1	9
665.995	1	-8
666.164	1	1
666.333	1	1
666.503	1	-6
666.672	1	-5
666.842	1	-1
667.011	1	8
667.180	1	-2
667.350	1	4
667.519	1	-1
667.689	1	3
667.858	1	6
668.027	1	3
668.197	1	-14
668.366	1	-4
668.536	1	-9
668.705	1	-8
668.874	1	6
669.044	1	7
669.213	1	3
669.382	1	0
669.552	1	1
669.721	1	-13
669.891	1	-4
670.060	1	5
670.229	1	3
670.399	1	5
670.568	1	4
670.738	1	2
670.907	1	4
671.076	1	-1
671.246	1	3
671.415	1	7
671.584	1	2
671.754	1	-7
671.923	1	-6
672.093	1	6
672.262	1	-6
672.431	1	8
672.601	1	10
672.770	1	1
672.939	1	-5
673.109	1	-5
673.278	1	4
673.448	1	8
673.617	1	3
673.786	1	-9
