325.333	1	11
325.504	1	-5
325.675	1	10
325.846	1	5
326.017	1	7
326.188	1	11
326.359	1	3
326.531	1	-7
326.702	1	5
326.873	1	6
327.044	1	3
327.215	1	-3
327.386	1	6
327.557	1	0
327.728	1	8
327.899	1	1
328.070	1	11
328.241	1	1
328.412	1	4
328.583	1	1
328.754	1	16
328.926	1	5
329.097	1	-8
329.268	1	12
329.439	1	10
329.610	1	5
329.781	1	10
329.952	1	8
330.123	1	-1
330.294	1	-8
330.465	1	-2
330.636	1	7
330.807	1	2
330.978	1	3
331.149	1	15
331.320	1	1
331.492	1	6
331.663	1	4
331.834	1	13
332.005	1	8
332.176	1	-2
332.347	1	-8
332.518	1	7
332.689	1	4
332.860	1	-3
333.031	1	3
333.202	1	0
333.373	1	12
333.544	1	12
333.715	1	3
333.886	1	-6
334.057	1	-4
334.228	1	11
334.399	1	15
334.570	1	0
334.741	1	1
334.912	1	-2
335.084	1	11
335.255	1	21
335.426	1	7
335.597	1	1
335.768	1	1
335.939	1	23
336.110	1	3
336.281	1	-2
336.452	1	18
336.623	1	0
336.794	1	2
336.965	1	3
337.136	1	20
337.307	1	-2
337.478	1	6
337.649	1	6
337.820	1	4
337.991	1	5
338.162	1	6
338.333	1	7
338.504	1	4
338.675	1	5
338.846	1	-5
339.017	1	-1
339.188	1	4
339.359	1	8
339.530	1	3
339.701	1	8
339.872	1	11
340.043	1	13
340.214	1	1
340.385	1	-1
340.556	1	19
340.727	1	17
340.898	1	12
341.069	1	3
341.240	1	-4
341.411	1	21
341.582	1	-10
341.753	1	5
341.924	1	23
342.095	1	4
342.266	1	10
342.437	1	4
342.608	1	9
342.779	1	3
342.950	1	-6
343.121	1	22
343.292	1	19
343.463	1	19
343.634	1	4
343.805	1	9
343.976	1	11
344.147	1	12
344.318	1	-4
344.489	1	0
344.660	1	13
344.831	1	11
345.002	1	6
345.173	1	13
345.344	1	-2
345.515	1	3
345.686	1	11
345.857	1	10
346.028	1	14
346.199	1	12
346.370	1	9
346.541	1	3
346.712	1	6
346.883	1	10
347.054	1	15
347.225	1	-1
347.396	1	3
347.567	1	-2
347.738	1	16
347.909	1	13
348.080	1	8
348.251	1	8
348.422	1	13
348.593	1	10
348.764	1	10
348.935	1	12
349.106	1	13
349.277	1	-3
349.448	1	6
349.619	1	-1
349.790	1	13
349.961	1	1
350.132	1	10
350.303	1	11
350.474	1	11
350.645	1	3
350.816	1	7
350.987	1	21
351.157	1	15
351.328	1	3
351.499	1	12
351.670	1	12
351.841	1	15
352.012	1	13
352.183	1	18
352.354	1	5
352.525	1	9
352.696	1	11
352.867	1	7
353.038	1	8
353.209	1	13
353.380	1	11
353.551	1	12
353.722	1	3
353.893	1	16
354.064	1	13
354.235	1	5
354.406	1	0
354.576	1	5
354.747	1	8
354.918	1	6
355.089	1	12
355.260	1	2
355.431	1	12
355.602	1	15
355.773	1	12
355.944	1	15
356.115	1	14
356.286	1	12
356.457	1	5
356.628	1	12
356.799	1	17
356.970	1	23
357.141	1	13
357.311	1	20
357.482	1	11
357.653	1	11
357.824	1	21
357.995	1	18
358.166	1	5
358.337	1	8
358.508	1	20
358.679	1	9
358.850	1	18
359.021	1	9
359.192	1	12
359.363	1	20
359.533	1	17
359.704	1	13
359.875	1	3
360.046	1	14
360.217	1	22
360.388	1	14
360.559	1	16
360.730	1	11
360.901	1	15
361.072	1	9
361.243	1	9
361.414	1	19
361.584	1	9
361.755	1	21
361.926	1	20
362.097	1	12
362.268	1	12
362.439	1	9
362.610	1	18
362.781	1	8
362.952	1	14
363.123	1	11
363.293	1	6
363.464	1	16
363.635	1	23
363.806	1	8
363.977	1	12
364.148	1	12
364.319	1	5
364.490	1	17
364.661	1	14
364.832	1	11
365.002	1	18
365.173	1	14
365.344	1	6
365.515	1	10
365.686	1	9
365.857	1	16
366.028	1	14
366.199	1	14
366.370	1	15
366.540	1	13
366.711	1	12
366.882	1	18
367.053	1	9
367.224	1	7
367.395	1	10
367.566	1	14
367.737	1	0
367.908	1	19
368.078	1	12
368.249	1	16
368.420	1	19
368.591	1	18
368.762	1	22
368.933	1	5
369.104	1	7
369.274	1	10
369.445	1	21
369.616	1	14
369.787	1	11
369.958	1	22
370.129	1	10
370.300	1	4
370.471	1	18
370.641	1	13
370.812	1	21
370.983	1	4
371.154	1	5
371.325	1	21
371.496	1	21
371.667	1	14
371.837	1	17
372.008	1	7
372.179	1	15
372.350	1	14
372.521	1	19
372.692	1	18
372.863	1	7
373.033	1	7
373.204	1	12
373.375	1	15
373.546	1	14
373.717	1	7
373.888	1	15
374.059	1	13
374.229	1	24
374.400	1	16
374.571	1	9
374.742	1	22
374.913	1	5
375.084	1	13
375.254	1	4
375.425	1	20
375.596	1	14
375.767	1	21
375.938	1	5
376.109	1	13
376.279	1	7
376.450	1	17
376.621	1	16
376.792	1	20
376.963	1	9
377.134	1	19
377.304	1	17
377.475	1	17
377.646	1	11
377.817	1	16
377.988	1	19
378.159	1	16
378.329	1	14
378.500	1	20
378.671	1	12
378.842	1	20
379.013	1	15
379.184	1	11
379.354	1	15
379.525	1	16
379.696	1	11
379.867	1	11
380.038	1	8
380.209	1	21
380.379	1	25
380.550	1	9
380.721	1	15
380.892	1	16
381.063	1	14
381.233	1	7
381.404	1	14
381.575	1	21
381.746	1	22
381.917	1	18
382.087	1	18
382.258	1	26
382.429	1	14
382.600	1	5
382.771	1	18
382.941	1	20
383.112	1	14
383.283	1	12
383.454	1	11
383.625	1	26
383.795	1	16
383.966	1	25
384.137	1	37
384.308	1	11
384.479	1	10
384.649	1	15
384.820	1	20
384.991	1	16
385.162	1	18
385.333	1	25
385.503	1	18
385.674	1	22
385.845	1	30
386.016	1	20
386.187	1	19
386.357	1	24
386.528	1	6
386.699	1	18
386.870	1	21
387.041	1	31
387.211	1	19
387.382	1	35
387.553	1	29
387.724	1	8
387.894	1	21
388.065	1	29
388.236	1	6
388.407	1	15
388.578	1	21
388.748	1	17
388.919	1	23
389.090	1	34
389.261	1	29
389.431	1	14
389.602	1	23
389.773	1	18
389.944	1	25
390.114	1	23
390.285	1	18
390.456	1	29
390.627	1	13
390.798	1	23
390.968	1	24
391.139	1	27
391.310	1	19
391.481	1	14
391.651	1	26
391.822	1	17
391.993	1	26
392.164	1	20
392.334	1	18
392.505	1	24
392.676	1	12
392.847	1	16
393.017	1	17
393.188	1	23
393.359	1	30
393.530	1	26
393.700	1	15
393.871	1	36
394.042	1	8
394.213	1	22
394.383	1	27
394.554	1	18
394.725	1	12
394.896	1	39
395.066	1	14
395.237	1	17
395.408	1	25
395.579	1	24
395.749	1	26
395.920	1	26
396.091	1	14
396.262	1	15
396.432	1	16
396.603	1	26
396.774	1	14
396.945	1	27
397.115	1	30
397.286	1	29
397.457	1	27
397.627	1	19
397.798	1	26
397.969	1	25
398.140	1	24
398.310	1	30
398.481	1	21
398.652	1	31
398.823	1	26
398.993	1	12
399.164	1	23
399.335	1	20
399.505	1	22
399.676	1	28
399.847	1	35
400.018	1	26
400.188	1	27
400.359	1	34
400.530	1	28
400.700	1	21
400.871	1	21
401.042	1	27
401.213	1	18
401.383	1	25
401.554	1	27
401.725	1	33
401.895	1	25
402.066	1	33
402.237	1	25
402.408	1	24
402.578	1	17
402.749	1	22
402.920	1	22
403.090	1	22
403.261	1	26
403.432	1	14
403.603	1	37
403.773	1	35
403.944	1	18
404.115	1	16
404.285	1	35
404.456	1	24
404.627	1	27
404.797	1	34
404.968	1	24
405.139	1	30
405.310	1	22
405.480	1	30
405.651	1	20
405.822	1	35
405.992	1	27
406.163	1	18
406.334	1	27
406.504	1	29
406.675	1	19
406.846	1	33
407.016	1	27
407.187	1	34
407.358	1	16
407.528	1	22
407.699	1	32
407.870	1	33
408.041	1	15
408.211	1	31
408.382	1	37
408.553	1	30
408.723	1	32
408.894	1	25
409.065	1	29
409.235	1	29
409.406	1	23
409.577	1	28
409.747	1	29
409.918	1	31
410.089	1	39
410.259	1	28
410.430	1	27
410.601	1	32
410.771	1	33
410.942	1	26
411.113	1	18
411.283	1	21
411.454	1	35
411.625	1	24
411.795	1	32
411.966	1	24
412.137	1	30
412.307	1	26
412.478	1	29
412.649	1	27
412.819	1	21
412.990	1	39
413.161	1	27
413.331	1	22
413.502	1	28
413.672	1	28
413.843	1	19
414.014	1	31
414.184	1	29
414.355	1	28
414.526	1	28
414.696	1	19
414.867	1	17
415.038	1	27
415.208	1	3
415.379	1	32
415.550	1	25
415.720	1	19
415.891	1	29
416.062	1	42
416.232	1	32
416.403	1	26
416.573	1	21
416.744	1	25
416.915	1	12
417.085	1	33
417.256	1	22
417.427	1	21
417.597	1	25
417.768	1	14
417.939	1	26
418.109	1	27
418.280	1	26
418.450	1	39
418.621	1	26
418.792	1	23
418.962	1	31
419.133	1	27
419.304	1	23
419.474	1	32
419.645	1	35
419.815	1	22
419.986	1	30
420.157	1	31
420.327	1	13
420.498	1	16
420.669	1	34
420.839	1	25
421.010	1	25
421.180	1	18
421.351	1	22
421.522	1	29
421.692	1	26
421.863	1	17
422.033	1	35
422.204	1	25
422.375	1	27
422.545	1	26
422.716	1	10
422.886	1	30
423.057	1	23
423.228	1	25
423.398	1	27
423.569	1	33
423.740	1	30
423.910	1	37
424.081	1	18
424.251	1	20
424.422	1	34
424.593	1	21
424.763	1	20
424.934	1	38
425.104	1	35
425.275	1	19
425.445	1	22
425.616	1	29
425.787	1	26
425.957	1	23
426.128	1	27
426.298	1	26
426.469	1	21
426.640	1	30
426.810	1	0
426.981	1	41
427.151	1	18
427.322	1	17
427.493	1	22
427.663	1	23
427.834	1	21
428.004	1	26
428.175	1	32
428.345	1	10
428.516	1	17
428.687	1	34
428.857	1	25
429.028	1	16
429.198	1	21
429.369	1	22
429.540	1	20
429.710	1	31
429.881	1	21
430.051	1	18
430.222	1	29
430.392	1	32
430.563	1	19
430.734	1	21
430.904	1	34
431.075	1	25
431.245	1	17
431.416	1	22
431.586	1	24
431.757	1	23
431.927	1	23
432.098	1	22
432.269	1	17
432.439	1	18
432.610	1	29
432.780	1	22
432.951	1	13
433.121	1	17
433.292	1	28
433.462	1	23
433.633	1	20
433.804	1	26
433.974	1	32
434.145	1	14
434.315	1	20
434.486	1	15
434.656	1	30
434.827	1	30
434.997	1	33
435.168	1	25
435.339	1	34
435.509	1	14
435.680	1	24
435.850	1	9
436.021	1	14
436.191	1	13
436.362	1	22
436.532	1	31
436.703	1	28
436.873	1	18
437.044	1	24
437.214	1	21
437.385	1	15
437.556	1	16
437.726	1	20
437.897	1	14
438.067	1	26
438.238	1	28
438.408	1	24
438.579	1	17
438.749	1	25
438.920	1	21
439.090	1	1
439.261	1	31
439.431	1	6
439.602	1	23
439.772	1	27
439.943	1	20
440.113	1	25
440.284	1	29
440.455	1	16
440.625	1	28
440.796	1	16
440.966	1	18
441.137	1	21
441.307	1	17
441.478	1	20
441.648	1	15
441.819	1	5
441.989	1	27
442.160	1	21
442.330	1	25
442.501	1	19
442.671	1	14
442.842	1	15
443.012	1	14
443.183	1	18
443.353	1	19
443.524	1	15
443.694	1	11
443.865	1	23
444.035	1	19
444.206	1	21
444.376	1	20
444.547	1	17
444.717	1	18
444.888	1	-5
445.058	1	21
445.229	1	12
445.399	1	24
445.570	1	15
445.740	1	26
445.911	1	20
446.081	1	24
446.252	1	25
446.422	1	16
446.593	1	14
446.763	1	22
446.934	1	15
447.104	1	19
447.275	1	13
447.445	1	17
447.616	1	20
447.786	1	15
447.957	1	14
448.127	1	17
448.298	1	18
448.468	1	14
448.639	1	12
448.809	1	14
448.979	1	20
449.150	1	19
449.320	1	20
449.491	1	26
449.661	1	8
449.832	1	10
450.002	1	16
450.173	1	21
450.343	1	12
450.514	1	15
450.684	1	18
450.855	1	14
451.025	1	14
451.196	1	13
451.366	1	26
451.537	1	21
451.707	1	24
451.878	1	18
452.048	1	12
452.218	1	18
452.389	1	16
452.559	1	23
452.730	1	13
452.900	1	11
453.071	1	25
453.241	1	18
453.412	1	16
453.582	1	13
453.753	1	25
453.923	1	10
454.093	1	7
454.264	1	21
454.434	1	22
454.605	1	6
454.775	1	15
454.946	1	10
455.116	1	30
455.287	1	14
455.457	1	30
455.628	1	16
455.798	1	13
455.968	1	14
456.139	1	29
456.309	1	16
456.480	1	17
456.650	1	11
456.821	1	19
456.991	1	21
457.161	1	15
457.332	1	11
457.502	1	16
457.673	1	18
457.843	1	12
458.014	1	13
458.184	1	20
458.355	1	17
458.525	1	12
458.695	1	16
458.866	1	5
459.036	1	5
459.207	1	17
459.377	1	12
459.548	1	15
459.718	1	9
459.888	1	11
460.059	1	13
460.229	1	8
460.400	1	7
460.570	1	4
460.740	1	18
460.911	1	18
461.081	1	10
461.252	1	16
461.422	1	17
461.593	1	19
461.763	1	21
461.933	1	16
462.104	1	18
462.274	1	2
462.445	1	9
462.615	1	34
462.785	1	15
462.956	1	12
463.126	1	17
463.297	1	12
463.467	1	16
463.638	1	13
463.808	1	20
463.978	1	6
464.149	1	14
464.319	1	18
464.490	1	12
464.660	1	10
464.830	1	11
465.001	1	8
465.171	1	17
465.342	1	13
465.512	1	19
465.682	1	4
465.853	1	7
466.023	1	16
466.194	1	7
466.364	1	28
466.534	1	7
466.705	1	23
466.875	1	-1
467.045	1	6
467.216	1	7
467.386	1	14
467.557	1	28
467.727	1	9
467.897	1	7
468.068	1	8
468.238	1	1
468.409	1	10
468.579	1	14
468.749	1	15
468.920	1	14
469.090	1	20
469.260	1	10
469.431	1	3
469.601	1	17
469.772	1	31
469.942	1	11
470.112	1	1
470.283	1	18
470.453	1	25
470.623	1	23
470.794	1	16
470.964	1	2
471.135	1	13
471.305	1	8
471.475	1	17
471.646	1	11
471.816	1	23
471.986	1	8
472.157	1	17
472.327	1	14
472.497	1	4
472.668	1	8
472.838	1	8
473.009	1	8
473.179	1	4
473.349	1	9
473.520	1	21
473.690	1	4
473.860	1	-2
474.031	1	9
474.201	1	19
474.371	1	12
474.542	1	4
474.712	1	12
474.882	1	18
475.053	1	4
475.223	1	15
475.394	1	10
475.564	1	16
475.734	1	7
475.905	1	13
476.075	1	19
476.245	1	9
476.416	1	10
476.586	1	12
476.756	1	17
476.927	1	3
477.097	1	6
477.267	1	10
477.438	1	24
477.608	1	25
477.778	1	3
477.949	1	11
478.119	1	7
478.289	1	0
478.460	1	11
478.630	1	14
478.800	1	2
478.971	1	20
479.141	1	19
479.311	1	5
479.482	1	4
479.652	1	7
479.822	1	1
479.993	1	6
480.163	1	6
480.333	1	15
480.504	1	19
480.674	1	8
480.844	1	10
481.015	1	15
481.185	1	18
481.355	1	8
481.525	1	12
481.696	1	20
481.866	1	7
482.036	1	11
482.207	1	6
482.377	1	2
482.547	1	18
482.718	1	15
482.888	1	13
483.058	1	20
483.229	1	6
483.399	1	22
483.569	1	5
483.740	1	5
483.910	1	3
484.080	1	10
484.250	1	5
484.421	1	7
484.591	1	11
484.761	1	13
484.932	1	5
485.102	1	11
485.272	1	12
485.443	1	20
485.613	1	10
485.783	1	15
485.953	1	4
486.124	1	10
486.294	1	6
486.464	1	19
486.635	1	5
486.805	1	17
486.975	1	7
487.146	1	19
487.316	1	13
487.486	1	20
487.656	1	18
487.827	1	2
487.997	1	2
488.167	1	12
488.338	1	10
488.508	1	20
488.678	1	7
488.848	1	20
489.019	1	2
489.189	1	17
489.359	1	4
489.529	1	7
489.700	1	3
489.870	1	11
490.040	1	4
490.211	1	4
490.381	1	8
490.551	1	10
490.721	1	7
490.892	1	-6
491.062	1	4
491.232	1	10
491.402	1	13
491.573	1	18
491.743	1	6
491.913	1	10
492.084	1	12
492.254	1	0
492.424	1	9
492.594	1	0
492.765	1	18
492.935	1	16
493.105	1	4
493.275	1	10
493.446	1	-1
493.616	1	-13
493.786	1	9
493.956	1	-2
494.127	1	6
494.297	1	-1
494.467	1	1
494.637	1	9
494.808	1	11
494.978	1	8
495.148	1	3
495.318	1	11
495.489	1	5
495.659	1	12
495.829	1	3
495.999	1	15
496.170	1	3
496.340	1	6
496.510	1	13
496.680	1	13
496.851	1	16
497.021	1	3
497.191	1	13
497.361	1	4
497.532	1	6
497.702	1	12
497.872	1	4
498.042	1	3
498.213	1	1
498.383	1	15
498.553	1	6
498.723	1	6
498.894	1	1
499.064	1	3
499.234	1	3
499.404	1	9
499.574	1	17
499.745	1	5
499.915	1	6
500.085	1	6
500.255	1	-12
500.426	1	4
500.596	1	-4
500.766	1	-5
500.936	1	-4
501.106	1	-1
501.277	1	-4
501.447	1	12
501.617	1	15
501.787	1	3
501.958	1	2
502.128	1	10
502.298	1	7
502.468	1	-4
502.638	1	6
502.809	1	1
502.979	1	4
503.149	1	0
503.319	1	12
503.489	1	-10
503.660	1	4
503.830	1	6
504.000	1	6
504.170	1	3
504.340	1	-9
504.511	1	5
504.681	1	-2
504.851	1	-5
505.021	1	11
505.192	1	3
505.362	1	6
505.532	1	-2
505.702	1	13
505.872	1	4
506.043	1	9
506.213	1	16
506.383	1	8
506.553	1	5
506.723	1	1
506.893	1	5
507.064	1	3
507.234	1	7
507.404	1	2
507.574	1	-6
507.744	1	5
507.915	1	5
508.085	1	-4
508.255	1	-4
508.425	1	1
508.595	1	4
508.766	1	0
508.936	1	16
509.106	1	11
509.276	1	2
509.446	1	-3
509.616	1	5
509.787	1	2
509.957	1	10
510.127	1	0
510.297	1	1
510.467	1	7
510.638	1	7
510.808	1	21
510.978	1	-3
511.148	1	-4
511.318	1	6
511.488	1	1
511.659	1	12
511.829	1	8
511.999	1	10
512.169	1	10
512.339	1	12
512.509	1	-3
512.680	1	1
512.850	1	14
513.020	1	-2
513.190	1	-3
513.360	1	7
513.530	1	4
513.700	1	-2
513.871	1	0
514.041	1	7
514.211	1	1
514.381	1	7
514.551	1	-1
514.721	1	0
514.892	1	5
515.062	1	3
515.232	1	-2
515.402	1	7
515.572	1	11
515.742	1	5
515.912	1	12
516.083	1	9
516.253	1	12
516.423	1	7
516.593	1	2
516.763	1	-3
516.933	1	6
517.104	1	14
517.274	1	-5
517.444	1	2
517.614	1	-1
517.784	1	9
517.954	1	4
518.124	1	10
518.294	1	10
518.465	1	2
518.635	1	5
518.805	1	9
518.975	1	4
519.145	1	6
519.315	1	1
519.485	1	1
519.656	1	-2
519.826	1	-6
519.996	1	10
520.166	1	3
520.336	1	6
520.506	1	-8
520.676	1	11
520.846	1	6
521.017	1	4
521.187	1	8
521.357	1	1
521.527	1	2
521.697	1	-3
521.867	1	9
522.037	1	-9
522.207	1	11
522.377	1	5
522.548	1	-9
522.718	1	2
522.888	1	4
523.058	1	5
523.228	1	-9
523.398	1	3
523.568	1	-11
523.738	1	0
523.909	1	1
524.079	1	6
524.249	1	0
524.419	1	3
524.589	1	9
524.759	1	4
524.929	1	2
525.099	1	8
525.269	1	11
525.439	1	6
525.610	1	17
525.780	1	8
525.950	1	10
526.120	1	-6
526.290	1	-8
526.460	1	-7
526.630	1	-2
526.800	1	2
526.970	1	5
527.140	1	-2
527.311	1	1
527.481	1	12
527.651	1	-1
527.821	1	4
527.991	1	11
528.161	1	10
528.331	1	-3
528.501	1	-1
528.671	1	0
528.841	1	5
529.011	1	6
529.181	1	8
529.352	1	8
529.522	1	8
529.692	1	4
529.862	1	-2
530.032	1	-11
530.202	1	-4
530.372	1	1
530.542	1	-4
530.712	1	1
530.882	1	9
531.052	1	8
531.222	1	15
531.392	1	5
531.563	1	13
531.733	1	0
531.903	1	2
532.073	1	5
532.243	1	11
532.413	1	14
532.583	1	7
532.753	1	-7
532.923	1	4
533.093	1	-3
533.263	1	12
533.433	1	-4
533.603	1	1
533.773	1	4
533.943	1	0
534.113	1	7
534.284	1	6
534.454	1	10
534.624	1	-2
534.794	1	-4
534.964	1	9
535.134	1	1
535.304	1	-3
535.474	1	7
535.644	1	11
535.814	1	5
535.984	1	8
536.154	1	5
536.324	1	-2
536.494	1	2
536.664	1	3
536.834	1	4
537.004	1	5
537.174	1	-4
537.344	1	1
537.514	1	-2
537.685	1	4
537.855	1	0
538.025	1	7
538.195	1	3
538.365	1	3
538.535	1	2
538.705	1	-1
538.875	1	2
539.045	1	3
539.215	1	1
539.385	1	6
539.555	1	-8
539.725	1	3
539.895	1	2
540.065	1	0
540.235	1	7
540.405	1	6
540.575	1	7
540.745	1	3
540.915	1	6
541.085	1	2
541.255	1	5
541.425	1	3
541.595	1	2
541.765	1	-2
541.935	1	-1
542.105	1	2
542.275	1	1
542.445	1	8
542.615	1	8
542.785	1	1
542.955	1	12
543.125	1	5
543.295	1	2
543.465	1	9
543.635	1	-8
543.805	1	9
543.975	1	-3
544.145	1	4
544.315	1	-7
544.485	1	-1
544.655	1	12
544.825	1	1
544.995	1	3
545.165	1	5
545.335	1	-1
545.505	1	0
545.675	1	5
545.845	1	9
546.015	1	-9
546.185	1	-3
546.355	1	4
546.525	1	10
546.695	1	2
546.865	1	-2
547.035	1	1
547.205	1	15
547.375	1	9
547.545	1	7
547.715	1	5
547.885	1	-3
548.055	1	-8
548.225	1	9
548.395	1	1
548.565	1	3
548.735	1	-7
548.905	1	6
549.075	1	4
549.245	1	7
549.415	1	3
549.585	1	-1
549.755	1	5
549.925	1	-3
550.095	1	-9
550.265	1	5
550.435	1	11
550.605	1	-4
550.775	1	-7
550.945	1	3
551.115	1	12
551.285	1	12
551.455	1	8
551.625	1	-10
551.795	1	-1
551.965	1	-10
552.135	1	-6
552.305	1	10
552.475	1	5
552.645	1	1
552.815	1	4
552.985	1	-3
553.155	1	6
553.325	1	-1
553.495	1	-2
553.665	1	5
553.835	1	5
554.004	1	5
554.174	1	-13
554.344	1	1
554.514	1	-5
554.684	1	11
554.854	1	-16
555.024	1	8
555.194	1	-7
555.364	1	-2
555.534	1	-7
555.704	1	0
555.874	1	2
556.044	1	10
556.214	1	0
556.384	1	10
556.554	1	3
556.724	1	-8
556.894	1	-6
557.064	1	-9
557.234	1	-3
557.404	1	7
557.573	1	11
557.743	1	0
557.913	1	-1
558.083	1	8
558.253	1	3
558.423	1	2
558.593	1	-6
558.763	1	0
558.933	1	-3
559.103	1	-5
559.273	1	14
559.443	1	6
559.613	1	-1
559.783	1	-1
559.953	1	-2
560.122	1	0
560.292	1	-13
560.462	1	-1
560.632	1	-3
560.802	1	8
560.972	1	-3
561.142	1	1
561.312	1	-6
561.482	1	9
561.652	1	10
561.822	1	-6
561.992	1	-6
562.162	1	3
562.331	1	0
562.501	1	-7
562.671	1	-8
562.841	1	-6
563.011	1	-1
563.181	1	-3
563.351	1	-4
563.521	1	-1
563.691	1	4
563.861	1	2
564.031	1	-2
564.201	1	5
564.370	1	6
564.540	1	2
564.710	1	-3
564.880	1	2
565.050	1	5
565.220	1	5
565.390	1	-4
565.560	1	4
565.730	1	3
565.900	1	3
566.069	1	15
566.239	1	6
566.409	1	7
566.579	1	2
566.749	1	-2
566.919	1	-5
567.089	1	-12
567.259	1	11
567.429	1	-9
567.599	1	11
567.768	1	-1
567.938	1	5
568.108	1	-10
568.278	1	3
568.448	1	-14
568.618	1	0
568.788	1	4
568.958	1	-5
569.128	1	-7
569.297	1	-5
569.467	1	5
569.637	1	0
569.807	1	1
569.977	1	0
570.147	1	5
570.317	1	-4
570.487	1	-1
570.656	1	4
570.826	1	-2
570.996	1	9
571.166	1	-1
571.336	1	-1
571.506	1	-3
571.676	1	-7
571.846	1	7
572.015	1	-1
572.185	1	6
572.355	1	-6
572.525	1	-4
572.695	1	-7
572.865	1	2
573.035	1	4
573.205	1	3
573.374	1	-11
573.544	1	2
573.714	1	-12
573.884	1	-6
574.054	1	-1
574.224	1	-1
574.394	1	7
574.563	1	-4
574.733	1	-2
574.903	1	-6
575.073	1	6
575.243	1	-5
575.413	1	-3
575.583	1	-7
575.752	1	3
575.922	1	15
576.092	1	-2
576.262	1	9
576.432	1	-4
576.602	1	0
576.772	1	2
576.941	1	-6
577.111	1	-2
577.281	1	-2
577.451	1	13
577.621	1	-1
577.791	1	5
577.960	1	-8
578.130	1	3
578.300	1	0
578.470	1	1
578.640	1	-6
578.810	1	-2
578.979	1	1
579.149	1	8
579.319	1	8
579.489	1	6
579.659	1	6
579.829	1	1
579.998	1	-10
580.168	1	-2
580.338	1	1
580.508	1	-3
580.678	1	0
580.848	1	1
581.017	1	1
581.187	1	-3
581.357	1	0
581.527	1	4
581.697	1	-4
581.867	1	-3
582.036	1	-7
582.206	1	-4
582.376	1	2
582.546	1	-2
582.716	1	4
582.885	1	-4
583.055	1	-4
583.225	1	0
583.395	1	1
583.565	1	6
583.735	1	7
583.904	1	-3
584.074	1	1
584.244	1	-1
584.414	1	-10
584.584	1	-2
584.753	1	-3
584.923	1	-5
585.093	1	8
585.263	1	-1
585.433	1	0
585.602	1	5
585.772	1	11
585.942	1	3
586.112	1	10
586.282	1	-2
586.451	1	17
586.621	1	-3
586.791	1	-5
586.961	1	-6
587.131	1	-5
587.300	1	11
587.470	1	1
587.640	1	-2
587.810	1	-12
587.980	1	2
588.149	1	7
588.319	1	4
588.489	1	12
588.659	1	-4
588.829	1	9
588.998	1	-2
589.168	1	4
589.338	1	1
589.508	1	-3
589.677	1	-1
589.847	1	4
590.017	1	-4
590.187	1	1
590.357	1	-4
590.526	1	-3
590.696	1	3
590.866	1	-8
591.036	1	6
591.205	1	5
591.375	1	3
591.545	1	-5
591.715	1	0
591.885	1	7
592.054	1	7
592.224	1	0
592.394	1	-5
592.564	1	4
592.733	1	7
592.903	1	-1
593.073	1	1
593.243	1	0
593.412	1	-5
593.582	1	-7
593.752	1	-1
593.922	1	-1
594.091	1	8
594.261	1	-11
594.431	1	4
594.601	1	-3
594.771	1	5
594.940	1	2
595.110	1	12
595.280	1	1
595.450	1	-5
595.619	1	2
595.789	1	0
595.959	1	-4
596.129	1	4
596.298	1	8
596.468	1	5
596.638	1	2
596.808	1	-4
596.977	1	-8
597.147	1	-3
597.317	1	3
597.487	1	0
597.656	1	5
597.826	1	5
597.996	1	-8
598.166	1	1
598.335	1	-3
598.505	1	3
598.675	1	2
598.844	1	8
599.014	1	-3
599.184	1	2
599.354	1	7
599.523	1	-8
599.693	1	-1
599.863	1	4
600.033	1	7
600.202	1	0
600.372	1	-5
600.542	1	-4
600.712	1	8
600.881	1	8
601.051	1	12
601.221	1	6
601.390	1	7
601.560	1	5
601.730	1	5
601.900	1	8
602.069	1	4
602.239	1	-3
602.409	1	-1
602.578	1	9
602.748	1	6
602.918	1	-9
603.088	1	-1
603.257	1	-4
603.427	1	8
603.597	1	8
603.767	1	8
603.936	1	1
604.106	1	0
604.276	1	8
604.445	1	-5
604.615	1	2
604.785	1	7
604.954	1	-3
605.124	1	3
605.294	1	3
605.464	1	-1
605.633	1	-1
605.803	1	-1
605.973	1	1
606.142	1	-1
606.312	1	7
606.482	1	-5
606.652	1	-4
606.821	1	4
606.991	1	5
607.161	1	5
607.330	1	8
607.500	1	4
607.670	1	-1
607.839	1	-5
608.009	1	-2
608.179	1	-9
608.348	1	5
608.518	1	12
608.688	1	-3
608.858	1	1
609.027	1	16
609.197	1	-4
609.367	1	-4
609.536	1	-5
609.706	1	10
609.876	1	1
610.045	1	9
610.215	1	8
610.385	1	4
610.554	1	0
610.724	1	-6
610.894	1	4
611.063	1	1
611.233	1	1
611.403	1	0
611.572	1	5
611.742	1	-3
611.912	1	-3
612.081	1	4
612.251	1	4
612.421	1	3
612.590	1	7
612.760	1	6
612.930	1	2
613.099	1	7
613.269	1	2
613.439	1	-9
613.608	1	1
613.778	1	0
613.948	1	15
614.117	1	8
614.287	1	0
614.457	1	7
614.626	1	7
614.796	1	4
614.966	1	-9
615.135	1	20
615.305	1	10
615.475	1	-3
615.644	1	9
615.814	1	9
615.984	1	-2
616.153	1	-5
616.323	1	-9
616.493	1	-1
616.662	1	1
616.832	1	-5
617.002	1	2
617.171	1	7
617.341	1	12
617.511	1	-10
617.680	1	-5
617.850	1	-7
618.019	1	-1
618.189	1	1
618.359	1	0
618.528	1	-6
618.698	1	9
618.868	1	-2
619.037	1	4
619.207	1	2
619.377	1	-6
619.546	1	7
619.716	1	-4
619.885	1	6
620.055	1	-1
620.225	1	4
620.394	1	6
620.564	1	8
620.734	1	5
620.903	1	-11
621.073	1	15
621.242	1	1
621.412	1	3
621.582	1	18
621.751	1	-5
621.921	1	-5
622.091	1	1
622.260	1	12
622.430	1	5
622.599	1	-1
622.769	1	-5
622.939	1	-8
623.108	1	3
623.278	1	-7
623.448	1	3
623.617	1	7
623.787	1	5
623.956	1	6
624.126	1	7
624.296	1	4
624.465	1	10
624.635	1	8
624.804	1	-14
624.974	1	-9
625.144	1	-4
625.313	1	12
625.483	1	7
625.652	1	-4
625.822	1	11
625.992	1	-1
626.161	1	4
626.331	1	0
626.501	1	1
626.670	1	-8
626.840	1	5
627.009	1	4
627.179	1	-4
627.348	1	-4
627.518	1	8
627.688	1	0
627.857	1	2
628.027	1	10
628.196	1	1
628.366	1	-4
628.536	1	-9
628.705	1	0
628.875	1	-1
629.044	1	-3
629.214	1	2
629.384	1	15
629.553	1	1
629.723	1	4
629.892	1	10
630.062	1	1
630.232	1	8
630.401	1	8
630.571	1	-6
630.740	1	-1
630.910	1	2
631.079	1	4
631.249	1	5
631.419	1	2
631.588	1	4
631.758	1	0
631.927	1	8
632.097	1	-1
632.266	1	11
632.436	1	2
632.606	1	-3
632.775	1	6
632.945	1	-2
633.114	1	-9
633.284	1	-4
633.453	1	8
633.623	1	13
633.793	1	8
633.962	1	11
634.132	1	2
634.301	1	11
634.471	1	11
634.640	1	-2
634.810	1	3
634.979	1	-2
635.149	1	-9
635.319	1	7
635.488	1	9
635.658	1	4
635.827	1	0
635.997	1	4
636.166	1	-3
636.336	1	-9
636.505	1	1
636.675	1	-4
636.845	1	-6
637.014	1	2
637.184	1	10
637.353	1	-4
637.523	1	-3
637.692	1	8
637.862	1	-1
638.031	1	-9
638.201	1	5
638.370	1	3
638.540	1	-7
638.710	1	0
638.879	1	-4
639.049	1	10
639.218	1	14
639.388	1	0
639.557	1	10
639.727	1	3
639.896	1	-1
640.066	1	-2
640.235	1	2
640.405	1	8
640.574	1	-1
640.744	1	-4
640.914	1	-8
641.083	1	5
641.253	1	8
641.422	1	-4
641.592	1	2
641.761	1	-4
641.931	1	9
642.100	1	6
642.270	1	3
642.439	1	2
642.609	1	17
642.778	1	-2
642.948	1	14
643.117	1	5
643.287	1	9
643.456	1	-8
643.626	1	0
643.795	1	0
643.965	1	2
644.134	1	-2
644.304	1	-2
644.473	1	-2
644.643	1	0
644.812	1	-8
644.982	1	1
645.151	1	6
645.321	1	5
645.490	1	4
645.660	1	-3
645.829	1	5
645.999	1	-4
646.168	1	19
646.338	1	-10
646.507	1	-3
646.677	1	4
646.846	1	12
647.016	1	9
647.185	1	6
647.355	1	12
647.524	1	-5
647.694	1	-7
647.863	1	-3
648.033	1	4
648.202	1	14
648.372	1	-6
648.541	1	10
648.711	1	-3
648.880	1	1
649.050	1	2
649.219	1	6
649.389	1	-1
649.558	1	5
649.728	1	5
649.897	1	5
650.067	1	9
650.236	1	-12
650.406	1	0
650.575	1	5
650.745	1	2
650.914	1	7
651.084	1	9
651.253	1	4
651.423	1	-5
651.592	1	-4
651.762	1	5
651.931	1	9
652.101	1	-6
652.270	1	10
652.440	1	6
652.609	1	5
652.778	1	4
652.948	1	6
653.117	1	-1
653.287	1	-4
653.456	1	-1
653.626	1	0
653.795	1	4
653.965	1	-7
654.134	1	2
654.304	1	4
654.473	1	4
654.643	1	-9
654.812	1	9
654.982	1	1
655.151	1	10
655.320	1	-2
655.490	1	-3
655.659	1	13
655.829	1	13
655.998	1	3
656.168	1	1
656.337	1	2
656.507	1	3
656.676	1	1
656.846	1	0
657.015	1	5
657.184	1	1
657.354	1	2
657.523	1	0
657.693	1	5
657.862	1	3
658.032	1	-2
658.201	1	-2
658.371	1	-2
658.540	1	-3
658.709	1	11
658.879	1	8
659.048	1	7
659.218	1	-2
659.387	1	9
659.557	1	1
659.726	1	-7
659.895	1	5
660.065	1	-8
660.234	1	3
660.404	1	6
660.573	1	8
660.743	1	6
660.912	1	6
661.081	1	6
661.251	1	-2
661.420	1	3
661.590	1	1
661.759	1	-1
661.929	1	-1
662.098	1	7
662.267	1	-4
662.437	1	10
662.606	1	3
662.776	1	3
662.945	1	11
663.115	1	18
663.284	1	3
663.453	1	-4
663.623	1	1
663.792	1	9
663.962	1	11
664.131	1	-7
664.300	1	3
664.470	1	-5
664.639	1	2
664.809	1	4
664.978	1	12
665.148	1	0
665.317	1	3
665.486	1	7
665.656	1	6
665.825	1	3
665.995	1	-5
666.164	1	9
666.333	1	-3
666.503	1	-6
666.672	1	-1
666.842	1	-1
667.011	1	-2
667.180	1	2
667.350	1	9
667.519	1	8
667.689	1	7
667.858	1	12
668.027	1	-2
668.197	1	-12
668.366	1	7
668.536	1	2
668.705	1	-8
668.874	1	2
669.044	1	6
669.213	1	8
669.382	1	5
669.552	1	-4
669.721	1	-8
669.891	1	-5
670.060	1	5
670.229	1	-3
670.399	1	11
670.568	1	6
670.738	1	-2
670.907	1	2
671.076	1	8
671.246	1	11
671.415	1	17
671.584	1	7
671.754	1	-6
671.923	1	5
672.093	1	10
672.262	1	-7
672.431	1	3
672.601	1	4
672.770	1	7
672.939	1	2
673.109	1	-1
673.278	1	1
673.448	1	0
673.617	1	1
673.786	1	-3
