325.333	1	5
325.504	1	-8
325.675	1	2
325.846	1	0
326.017	1	-3
326.188	1	5
326.359	1	3
326.531	1	-10
326.702	1	-7
326.873	1	5
327.044	1	7
327.215	1	-6
327.386	1	1
327.557	1	-7
327.728	1	-8
327.899	1	-3
328.070	1	4
328.241	1	-9
328.412	1	-3
328.583	1	0
328.754	1	9
328.926	1	-5
329.097	1	-6
329.268	1	2
329.439	1	7
329.610	1	4
329.781	1	1
329.952	1	8
330.123	1	-4
330.294	1	2
330.465	1	-4
330.636	1	6
330.807	1	13
330.978	1	-3
331.149	1	-4
331.320	1	1
331.492	1	-2
331.663	1	-3
331.834	1	-1
332.005	1	-1
332.176	1	-3
332.347	1	-2
332.518	1	1
332.689	1	0
332.860	1	-7
333.031	1	6
333.202	1	-10
333.373	1	2
333.544	1	1
333.715	1	2
333.886	1	-4
334.057	1	-4
334.228	1	6
334.399	1	7
334.570	1	-1
334.741	1	1
334.912	1	-2
335.084	1	6
335.255	1	5
335.426	1	9
335.597	1	0
335.768	1	4
335.939	1	5
336.110	1	3
336.281	1	-4
336.452	1	17
336.623	1	-4
336.794	1	1
336.965	1	1
337.136	1	16
337.307	1	-3
337.478	1	4
337.649	1	-7
337.820	1	-3
337.991	1	2
338.162	1	3
338.333	1	2
338.504	1	0
338.675	1	-4
338.846	1	-9
339.017	1	-5
339.188	1	-4
339.359	1	4
339.530	1	-3
339.701	1	2
339.872	1	14
340.043	1	8
340.214	1	8
340.385	1	-15
340.556	1	18
340.727	1	4
340.898	1	2
341.069	1	-3
341.240	1	0
341.411	1	0
341.582	1	-5
341.753	1	2
341.924	1	14
342.095	1	-10
342.266	1	6
342.437	1	0
342.608	1	0
342.779	1	-3
342.950	1	-2
343.121	1	8
343.292	1	3
343.463	1	12
343.634	1	1
343.805	1	11
343.976	1	6
344.147	1	4
344.318	1	-2
344.489	1	-7
344.660	1	3
344.831	1	7
345.002	1	0
345.173	1	3
345.344	1	-4
345.515	1	1
345.686	1	-2
345.857	1	-1
346.028	1	4
346.199	1	1
346.370	1	-4
346.541	1	1
346.712	1	6
346.883	1	0
347.054	1	12
347.225	1	-1
347.396	1	2
347.567	1	-6
347.738	1	3
347.909	1	7
348.080	1	4
348.251	1	3
348.422	1	5
348.593	1	0
348.764	1	-7
348.935	1	3
349.106	1	-5
349.277	1	1
349.448	1	5
349.619	1	-2
349.790	1	12
349.961	1	1
350.132	1	16
350.303	1	4
350.474	1	1
350.645	1	3
350.816	1	5
350.987	1	17
351.157	1	-1
351.328	1	-2
351.499	1	9
351.670	1	2
351.841	1	5
352.012	1	7
352.183	1	11
352.354	1	-5
352.525	1	8
352.696	1	-4
352.867	1	10
353.038	1	5
353.209	1	-1
353.380	1	0
353.551	1	10
353.722	1	1
353.893	1	0
354.064	1	5
354.235	1	-7
354.406	1	-2
354.576	1	-7
354.747	1	4
354.918	1	7
355.089	1	3
355.260	1	-1
355.431	1	-1
355.602	1	6
355.773	1	11
355.944	1	9
356.115	1	8
356.286	1	10
356.457	1	4
356.628	1	3
356.799	1	13
356.970	1	9
357.141	1	9
357.311	1	13
357.482	1	7
357.653	1	-2
357.824	1	3
357.995	1	8
358.166	1	2
358.337	1	-1
358.508	1	13
358.679	1	-3
358.850	1	5
359.021	1	11
359.192	1	15
359.363	1	5
359.533	1	2
359.704	1	10
359.875	1	-4
360.046	1	6
360.217	1	12
360.388	1	12
360.559	1	7
360.730	1	9
360.901	1	9
361.072	1	9
361.243	1	6
361.414	1	15
361.584	1	-9
361.755	1	-3
361.926	1	4
362.097	1	3
362.268	1	17
362.439	1	8
362.610	1	7
362.781	1	1
362.952	1	0
363.123	1	-3
363.293	1	-1
363.464	1	0
363.635	1	12
363.806	1	6
363.977	1	8
364.148	1	3
364.319	1	3
364.490	1	7
364.661	1	10
364.832	1	4
365.002	1	8
365.173	1	9
365.344	1	-6
365.515	1	1
365.686	1	9
365.857	1	12
366.028	1	15
366.199	1	5
366.370	1	20
366.540	1	-1
366.711	1	12
366.882	1	1
367.053	1	7
367.224	1	5
367.395	1	7
367.566	1	-1
367.737	1	12
367.908	1	5
368.078	1	-3
368.249	1	6
368.420	1	6
368.591	1	4
368.762	1	5
368.933	1	-1
369.104	1	9
369.274	1	9
369.445	1	10
369.616	1	2
369.787	1	7
369.958	1	9
370.129	1	11
370.300	1	2
370.471	1	6
370.641	1	8
370.812	1	0
370.983	1	2
371.154	1	1
371.325	1	7
371.496	1	-2
371.667	1	12
371.837	1	8
372.008	1	-1
372.179	1	0
372.350	1	0
372.521	1	8
372.692	1	13
372.863	1	10
373.033	1	13
373.204	1	9
373.375	1	-1
373.546	1	14
373.717	1	5
373.888	1	5
374.059	1	-2
374.229	1	13
374.400	1	4
374.571	1	1
374.742	1	2
374.913	1	-7
375.084	1	0
375.254	1	-4
375.425	1	6
375.596	1	5
375.767	1	4
375.938	1	1
376.109	1	2
376.279	1	5
376.450	1	8
376.621	1	17
376.792	1	7
376.963	1	0
377.134	1	14
377.304	1	8
377.475	1	0
377.646	1	1
377.817	1	14
377.988	1	4
378.159	1	9
378.329	1	-2
378.500	1	12
378.671	1	5
378.842	1	17
379.013	1	2
379.184	1	-8
379.354	1	14
379.525	1	15
379.696	1	6
379.867	1	7
380.038	1	3
380.209	1	11
380.379	1	14
380.550	1	-9
380.721	1	8
380.892	1	9
381.063	1	7
381.233	1	4
381.404	1	1
381.575	1	4
381.746	1	6
381.917	1	-2
382.087	1	7
382.258	1	17
382.429	1	2
382.600	1	3
382.771	1	-1
382.941	1	6
383.112	1	0
383.283	1	13
383.454	1	4
383.625	1	4
383.795	1	9
383.966	1	0
384.137	1	13
384.308	1	-3
384.479	1	10
384.649	1	3
384.820	1	6
384.991	1	9
385.162	1	13
385.333	1	2
385.503	1	1
385.674	1	16
385.845	1	12
386.016	1	9
386.187	1	-2
386.357	1	16
386.528	1	-1
386.699	1	3
386.870	1	8
387.041	1	12
387.211	1	12
387.382	1	13
387.553	1	16
387.724	1	4
387.894	1	-8
388.065	1	9
388.236	1	3
388.407	1	10
388.578	1	15
388.748	1	9
388.919	1	16
389.090	1	20
389.261	1	20
389.431	1	-6
389.602	1	12
389.773	1	12
389.944	1	7
390.114	1	6
390.285	1	15
390.456	1	9
390.627	1	5
390.798	1	3
390.968	1	10
391.139	1	8
391.310	1	6
391.481	1	9
391.651	1	12
391.822	1	12
391.993	1	-4
392.164	1	13
392.334	1	-1
392.505	1	12
392.676	1	-2
392.847	1	10
393.017	1	9
393.188	1	12
393.359	1	20
393.530	1	28
393.700	1	5
393.871	1	17
394.042	1	-5
394.213	1	17
394.383	1	12
394.554	1	6
394.725	1	10
394.896	1	11
395.066	1	0
395.237	1	2
395.408	1	15
395.579	1	15
395.749	1	24
395.920	1	11
396.091	1	12
396.262	1	4
396.432	1	3
396.603	1	10
396.774	1	11
396.945	1	12
397.115	1	13
397.286	1	13
397.457	1	13
397.627	1	2
397.798	1	2
397.969	1	8
398.140	1	11
398.310	1	9
398.481	1	8
398.652	1	17
398.823	1	7
398.993	1	11
399.164	1	12
399.335	1	3
399.505	1	4
399.676	1	14
399.847	1	9
400.018	1	1
400.188	1	12
400.359	1	5
400.530	1	13
400.700	1	8
400.871	1	13
401.042	1	11
401.213	1	15
401.383	1	12
401.554	1	13
401.725	1	11
401.895	1	2
402.066	1	10
402.237	1	10
402.408	1	12
402.578	1	14
402.749	1	13
402.920	1	15
403.090	1	6
403.261	1	0
403.432	1	14
403.603	1	14
403.773	1	15
403.944	1	12
404.115	1	19
404.285	1	19
404.456	1	13
404.627	1	18
404.797	1	2
404.968	1	10
405.139	1	6
405.310	1	9
405.480	1	19
405.651	1	6
405.822	1	6
405.992	1	6
406.163	1	5
406.334	1	10
406.504	1	11
406.675	1	5
406.846	1	11
407.016	1	16
407.187	1	15
407.358	1	5
407.528	1	8
407.699	1	8
407.870	1	15
408.041	1	2
408.211	1	12
408.382	1	13
408.553	1	10
408.723	1	21
408.894	1	8
409.065	1	10
409.235	1	3
409.406	1	7
409.577	1	4
409.747	1	6
409.918	1	18
410.089	1	17
410.259	1	9
410.430	1	11
410.601	1	20
410.771	1	11
410.942	1	15
411.113	1	8
411.283	1	2
411.454	1	20
411.625	1	12
411.795	1	15
411.966	1	10
412.137	1	18
412.307	1	16
412.478	1	8
412.649	1	8
412.819	1	12
412.990	1	15
413.161	1	14
413.331	1	7
413.502	1	9
413.672	1	9
413.843	1	16
414.014	1	18
414.184	1	21
414.355	1	12
414.526	1	12
414.696	1	5
414.867	1	2
415.038	1	5
415.208	1	-1
415.379	1	3
415.550	1	14
415.720	1	2
415.891	1	14
416.062	1	18
416.232	1	21
416.403	1	18
416.573	1	1
416.744	1	13
416.915	1	4
417.085	1	8
417.256	1	14
417.427	1	9
417.597	1	6
417.768	1	5
417.939	1	1
418.109	1	2
418.280	1	14
418.450	1	34
418.621	1	3
418.792	1	9
418.962	1	17
419.133	1	-2
419.304	1	8
419.474	1	17
419.645	1	10
419.815	1	15
419.986	1	21
420.157	1	6
420.327	1	7
420.498	1	6
420.669	1	16
420.839	1	19
421.010	1	4
421.180	1	10
421.351	1	7
421.522	1	10
421.692	1	12
421.863	1	18
422.033	1	13
422.204	1	15
422.375	1	13
422.545	1	22
422.716	1	5
422.886	1	11
423.057	1	17
423.228	1	9
423.398	1	11
423.569	1	12
423.740	1	6
423.910	1	11
424.081	1	9
424.251	1	2
424.422	1	19
424.593	1	8
424.763	1	22
424.934	1	15
425.104	1	15
425.275	1	5
425.445	1	17
425.616	1	9
425.787	1	3
425.957	1	13
426.128	1	4
426.298	1	22
426.469	1	1
426.640	1	3
426.810	1	-9
426.981	1	16
427.151	1	3
427.322	1	8
427.493	1	7
427.663	1	20
427.834	1	6
428.004	1	21
428.175	1	4
428.345	1	8
428.516	1	4
428.687	1	16
428.857	1	18
429.028	1	8
429.198	1	7
429.369	1	17
429.540	1	10
429.710	1	7
429.881	1	8
430.051	1	8
430.222	1	7
430.392	1	10
430.563	1	0
430.734	1	14
430.904	1	26
431.075	1	14
431.245	1	0
431.416	1	7
431.586	1	-3
431.757	1	18
431.927	1	10
432.098	1	11
432.269	1	8
432.439	1	9
432.610	1	11
432.780	1	15
432.951	1	1
433.121	1	5
433.292	1	18
433.462	1	4
433.633	1	11
433.804	1	0
433.974	1	5
434.145	1	5
434.315	1	14
434.486	1	-2
434.656	1	10
434.827	1	10
434.997	1	7
435.168	1	9
435.339	1	20
435.509	1	16
435.680	1	18
435.850	1	5
436.021	1	2
436.191	1	11
436.362	1	6
436.532	1	15
436.703	1	10
436.873	1	-1
437.044	1	5
437.214	1	9
437.385	1	6
437.556	1	5
437.726	1	-1
437.897	1	8
438.067	1	10
438.238	1	5
438.408	1	12
438.579	1	0
438.749	1	6
438.920	1	20
439.090	1	6
439.261	1	16
439.431	1	1
439.602	1	12
439.772	1	6
439.943	1	0
440.113	1	6
440.284	1	16
440.455	1	6
440.625	1	14
440.796	1	6
440.966	1	14
441.137	1	15
441.307	1	8
441.478	1	6
441.648	1	8
441.819	1	12
441.989	1	18
442.160	1	11
442.330	1	9
442.501	1	6
442.671	1	10
442.842	1	5
443.012	1	-5
443.183	1	11
443.353	1	3
443.524	1	-1
443.694	1	12
443.865	1	23
444.035	1	9
444.206	1	4
444.376	1	7
444.547	1	4
444.717	1	14
444.888	1	-12
445.058	1	6
445.229	1	7
445.399	1	13
445.570	1	4
445.740	1	14
445.911	1	12
446.081	1	6
446.252	1	8
446.422	1	8
446.593	1	10
446.763	1	12
446.934	1	5
447.104	1	0
447.275	1	6
447.445	1	7
447.616	1	6
447.786	1	-4
447.957	1	1
448.127	1	19
448.298	1	2
448.468	1	8
448.639	1	-4
448.809	1	4
448.979	1	11
449.150	1	0
449.320	1	7
449.491	1	7
449.661	1	-3
449.832	1	8
450.002	1	10
450.173	1	15
450.343	1	4
450.514	1	14
450.684	1	10
450.855	1	9
451.025	1	8
451.196	1	3
451.366	1	13
451.537	1	18
451.707	1	14
451.878	1	1
452.048	1	-3
452.218	1	8
452.389	1	13
452.559	1	24
452.730	1	14
452.900	1	14
453.071	1	12
453.241	1	11
453.412	1	1
453.582	1	8
453.753	1	10
453.923	1	2
454.093	1	-1
454.264	1	10
454.434	1	10
454.605	1	4
454.775	1	15
454.946	1	0
455.116	1	14
455.287	1	-8
455.457	1	8
455.628	1	-1
455.798	1	12
455.968	1	6
456.139	1	6
456.309	1	0
456.480	1	4
456.650	1	8
456.821	1	3
456.991	1	9
457.161	1	6
457.332	1	-1
457.502	1	9
457.673	1	1
457.843	1	14
458.014	1	4
458.184	1	8
458.355	1	6
458.525	1	-8
458.695	1	8
458.866	1	-4
459.036	1	9
459.207	1	7
459.377	1	7
459.548	1	10
459.718	1	2
459.888	1	-5
460.059	1	7
460.229	1	-2
460.400	1	1
460.570	1	-7
460.740	1	7
460.911	1	-2
461.081	1	15
461.252	1	3
461.422	1	6
461.593	1	5
461.763	1	5
461.933	1	4
462.104	1	-4
462.274	1	-2
462.445	1	1
462.615	1	10
462.785	1	13
462.956	1	2
463.126	1	10
463.297	1	14
463.467	1	15
463.638	1	12
463.808	1	5
463.978	1	2
464.149	1	5
464.319	1	4
464.490	1	3
464.660	1	3
464.830	1	-7
465.001	1	0
465.171	1	-4
465.342	1	4
465.512	1	-4
465.682	1	-3
465.853	1	-1
466.023	1	17
466.194	1	8
466.364	1	16
466.534	1	2
466.705	1	7
466.875	1	1
467.045	1	-6
467.216	1	3
467.386	1	8
467.557	1	9
467.727	1	6
467.897	1	1
468.068	1	-2
468.238	1	8
468.409	1	8
468.579	1	-2
468.749	1	8
468.920	1	-13
469.090	1	13
469.260	1	7
469.431	1	-2
469.601	1	15
469.772	1	16
469.942	1	7
470.112	1	-5
470.283	1	4
470.453	1	21
470.623	1	8
470.794	1	5
470.964	1	-1
471.135	1	7
471.305	1	-3
471.475	1	11
471.646	1	14
471.816	1	8
471.986	1	3
472.157	1	7
472.327	1	1
472.497	1	5
472.668	1	15
472.838	1	-3
473.009	1	6
473.179	1	-2
473.349	1	5
473.520	1	16
473.690	1	2
473.860	1	5
474.031	1	-1
474.201	1	-6
474.371	1	9
474.542	1	1
474.712	1	6
474.882	1	0
475.053	1	9
475.223	1	6
475.394	1	0
475.564	1	4
475.734	1	-7
475.905	1	17
476.075	1	15
476.245	1	3
476.416	1	-1
476.586	1	0
476.756	1	-1
476.927	1	2
477.097	1	3
477.267	1	8
477.438	1	13
477.608	1	7
477.778	1	-8
477.949	1	3
478.119	1	13
478.289	1	-1
478.460	1	0
478.630	1	4
478.800	1	4
478.971	1	-1
479.141	1	9
479.311	1	1
479.482	1	2
479.652	1	2
479.822	1	1
479.993	1	4
480.163	1	-1
480.333	1	7
480.504	1	5
480.674	1	4
480.844	1	3
481.015	1	14
481.185	1	8
481.355	1	5
481.525	1	-14
481.696	1	5
481.866	1	0
482.036	1	8
482.207	1	8
482.377	1	-5
482.547	1	4
482.718	1	5
482.888	1	15
483.058	1	0
483.229	1	12
483.399	1	7
483.569	1	-7
483.740	1	-1
483.910	1	-8
484.080	1	5
484.250	1	2
484.421	1	0
484.591	1	3
484.761	1	2
484.932	1	-2
485.102	1	0
485.272	1	2
485.443	1	7
485.613	1	1
485.783	1	2
485.953	1	2
486.124	1	3
486.294	1	8
486.464	1	3
486.635	1	8
486.805	1	3
486.975	1	-3
487.146	1	4
487.316	1	17
487.486	1	5
487.656	1	6
487.827	1	-10
487.997	1	5
488.167	1	10
488.338	1	2
488.508	1	14
488.678	1	-1
488.848	1	11
489.019	1	7
489.189	1	9
489.359	1	0
489.529	1	3
489.700	1	1
489.870	1	11
490.040	1	-4
490.211	1	4
490.381	1	-2
490.551	1	11
490.721	1	1
490.892	1	-5
491.062	1	-10
491.232	1	5
491.402	1	-3
491.573	1	12
491.743	1	2
491.913	1	3
492.084	1	7
492.254	1	1
492.424	1	-3
492.594	1	-5
492.765	1	9
492.935	1	13
493.105	1	-5
493.275	1	-3
493.446	1	-13
493.616	1	-2
493.786	1	12
493.956	1	4
494.127	1	4
494.297	1	-3
494.467	1	0
494.637	1	4
494.808	1	7
494.978	1	2
495.148	1	5
495.318	1	5
495.489	1	-10
495.659	1	0
495.829	1	6
495.999	1	5
496.170	1	-10
496.340	1	-8
496.510	1	6
496.680	1	-5
496.851	1	7
497.021	1	1
497.191	1	11
497.361	1	-12
497.532	1	-1
497.702	1	6
497.872	1	5
498.042	1	-1
498.213	1	-4
498.383	1	4
498.553	1	3
498.723	1	-8
498.894	1	6
499.064	1	2
499.234	1	5
499.404	1	5
499.574	1	3
499.745	1	5
499.915	1	6
500.085	1	1
500.255	1	-9
500.426	1	0
500.596	1	-8
500.766	1	-5
500.936	1	-5
501.106	1	4
501.277	1	-5
501.447	1	0
501.617	1	-2
501.787	1	-3
501.958	1	3
502.128	1	-6
502.298	1	6
502.468	1	0
502.638	1	6
502.809	1	-2
502.979	1	0
503.149	1	1
503.319	1	16
503.489	1	-10
503.660	1	-1
503.830	1	6
504.000	1	-1
504.170	1	-2
504.340	1	-7
504.511	1	-8
504.681	1	9
504.851	1	0
505.021	1	5
505.192	1	-4
505.362	1	7
505.532	1	-6
505.702	1	21
505.872	1	-4
506.043	1	8
506.213	1	4
506.383	1	3
506.553	1	2
506.723	1	-10
506.893	1	5
507.064	1	9
507.234	1	-3
507.404	1	-7
507.574	1	2
507.744	1	-1
507.915	1	6
508.085	1	2
508.255	1	5
508.425	1	-2
508.595	1	1
508.766	1	-8
508.936	1	8
509.106	1	3
509.276	1	2
509.446	1	-9
509.616	1	-2
509.787	1	-6
509.957	1	-3
510.127	1	-6
510.297	1	-5
510.467	1	9
510.638	1	1
510.808	1	6
510.978	1	0
511.148	1	12
511.318	1	-4
511.488	1	1
511.659	1	-3
511.829	1	-9
511.999	1	4
512.169	1	14
512.339	1	11
512.509	1	-7
512.680	1	1
512.850	1	-4
513.020	1	0
513.190	1	-9
513.360	1	1
513.530	1	-1
513.700	1	-3
513.871	1	-2
514.041	1	1
514.211	1	11
514.381	1	2
514.551	1	-3
514.721	1	0
514.892	1	-6
515.062	1	2
515.232	1	-6
515.402	1	0
515.572	1	3
515.742	1	6
515.912	1	5
516.083	1	2
516.253	1	7
516.423	1	2
516.593	1	2
516.763	1	-6
516.933	1	-2
517.104	1	1
517.274	1	0
517.444	1	5
517.614	1	-1
517.784	1	5
517.954	1	-4
518.124	1	-1
518.294	1	7
518.465	1	-1
518.635	1	3
518.805	1	12
518.975	1	12
519.145	1	-7
519.315	1	-6
519.485	1	-6
519.656	1	-1
519.826	1	-12
519.996	1	7
520.166	1	-8
520.336	1	6
520.506	1	-3
520.676	1	2
520.846	1	2
521.017	1	-6
521.187	1	1
521.357	1	1
521.527	1	-1
521.697	1	-6
521.867	1	2
522.037	1	3
522.207	1	7
522.377	1	9
522.548	1	-14
522.718	1	3
522.888	1	3
523.058	1	10
523.228	1	-11
523.398	1	-3
523.568	1	-12
523.738	1	6
523.909	1	-5
524.079	1	2
524.249	1	-6
524.419	1	1
524.589	1	3
524.759	1	10
524.929	1	-1
525.099	1	2
525.269	1	0
525.439	1	0
525.610	1	11
525.780	1	-5
525.950	1	-1
526.120	1	-7
526.290	1	-11
526.460	1	-5
526.630	1	-2
526.800	1	-5
526.970	1	4
527.140	1	2
527.311	1	-2
527.481	1	6
527.651	1	-2
527.821	1	-10
527.991	1	-4
528.161	1	4
528.331	1	-9
528.501	1	-6
528.671	1	3
528.841	1	-2
529.011	1	8
529.181	1	-1
529.352	1	-5
529.522	1	1
529.692	1	11
529.862	1	4
530.032	1	-7
530.202	1	-12
530.372	1	1
530.542	1	-2
530.712	1	3
530.882	1	5
531.052	1	3
531.222	1	0
531.392	1	-3
531.563	1	2
531.733	1	-6
531.903	1	-5
532.073	1	-6
532.243	1	6
532.413	1	17
532.583	1	5
532.753	1	-3
532.923	1	0
533.093	1	-2
533.263	1	6
533.433	1	-8
533.603	1	-1
533.773	1	-3
533.943	1	0
534.113	1	-1
534.284	1	8
534.454	1	-8
534.624	1	0
534.794	1	-7
534.964	1	5
535.134	1	-8
535.304	1	3
535.474	1	7
535.644	1	4
535.814	1	-5
535.984	1	-6
536.154	1	5
536.324	1	-1
536.494	1	12
536.664	1	1
536.834	1	1
537.004	1	-6
537.174	1	2
537.344	1	0
537.514	1	-3
537.685	1	0
537.855	1	-10
538.025	1	11
538.195	1	-1
538.365	1	0
538.535	1	-5
538.705	1	-7
538.875	1	2
539.045	1	-3
539.215	1	-5
539.385	1	1
539.555	1	-5
539.725	1	-1
539.895	1	2
540.065	1	2
540.235	1	0
540.405	1	7
540.575	1	-1
540.745	1	-4
540.915	1	-5
541.085	1	-9
541.255	1	7
541.425	1	-9
541.595	1	4
541.765	1	3
541.935	1	-4
542.105	1	-2
542.275	1	-4
542.445	1	1
542.615	1	4
542.785	1	0
542.955	1	9
543.125	1	-1
543.295	1	-1
543.465	1	4
543.635	1	-10
543.805	1	4
543.975	1	-1
544.145	1	-1
544.315	1	-9
544.485	1	-5
544.655	1	-6
544.825	1	-3
544.995	1	4
545.165	1	2
545.335	1	3
545.505	1	-4
545.675	1	-1
545.845	1	11
546.015	1	-9
546.185	1	2
546.355	1	-7
546.525	1	9
546.695	1	-11
546.865	1	6
547.035	1	-2
547.205	1	8
547.375	1	4
547.545	1	1
547.715	1	-9
547.885	1	-2
548.055	1	7
548.225	1	5
548.395	1	0
548.565	1	-1
548.735	1	-17
548.905	1	-1
549.075	1	-1
549.245	1	-4
549.415	1	-1
549.585	1	1
549.755	1	4
549.925	1	0
550.095	1	-4
550.265	1	-1
550.435	1	2
550.605	1	0
550.775	1	-10
550.945	1	1
551.115	1	14
551.285	1	-3
551.455	1	7
551.625	1	-3
551.795	1	-1
551.965	1	-2
552.135	1	-2
552.305	1	1
552.475	1	-5
552.645	1	-8
552.815	1	-2
552.985	1	3
553.155	1	-6
553.325	1	3
553.495	1	-3
553.665	1	7
553.835	1	0
554.004	1	0
554.174	1	-5
554.344	1	7
554.514	1	-11
554.684	1	6
554.854	1	-10
555.024	1	6
555.194	1	5
555.364	1	-6
555.534	1	-12
555.704	1	-3
555.874	1	0
556.044	1	-4
556.214	1	4
556.384	1	10
556.554	1	5
556.724	1	-3
556.894	1	-4
557.064	1	-7
557.234	1	3
557.404	1	-2
557.573	1	-1
557.743	1	-9
557.913	1	-7
558.083	1	-4
558.253	1	3
558.423	1	9
558.593	1	-2
558.763	1	-3
558.933	1	1
559.103	1	-6
559.273	1	7
559.443	1	3
559.613	1	-3
559.783	1	-10
559.953	1	-12
560.122	1	-1
560.292	1	-5
560.462	1	1
560.632	1	-1
560.802	1	-1
560.972	1	-13
561.142	1	2
561.312	1	-6
561.482	1	10
561.652	1	-6
561.822	1	0
561.992	1	3
562.162	1	-8
562.331	1	-14
562.501	1	-6
562.671	1	-8
562.841	1	-12
563.011	1	3
563.181	1	-2
563.351	1	-9
563.521	1	-6
563.691	1	2
563.861	1	-7
564.031	1	-6
564.201	1	-8
564.370	1	8
564.540	1	-2
564.710	1	-7
564.880	1	-1
565.050	1	3
565.220	1	9
565.390	1	-1
565.560	1	5
565.730	1	-11
565.900	1	-1
566.069	1	9
566.239	1	1
566.409	1	8
566.579	1	1
566.749	1	-6
566.919	1	-11
567.089	1	-9
567.259	1	-2
567.429	1	-6
567.599	1	12
567.768	1	-1
567.938	1	9
568.108	1	-6
568.278	1	4
568.448	1	-2
568.618	1	2
568.788	1	4
568.958	1	-4
569.128	1	1
569.297	1	-4
569.467	1	9
569.637	1	-4
569.807	1	4
569.977	1	-3
570.147	1	4
570.317	1	-1
570.487	1	1
570.656	1	11
570.826	1	-5
570.996	1	6
571.166	1	-8
571.336	1	0
571.506	1	-10
571.676	1	2
571.846	1	7
572.015	1	4
572.185	1	2
572.355	1	-6
572.525	1	-3
572.695	1	8
572.865	1	1
573.035	1	9
573.205	1	5
573.374	1	-8
573.544	1	-3
573.714	1	-1
573.884	1	-2
574.054	1	-3
574.224	1	2
574.394	1	-3
574.563	1	-6
574.733	1	-2
574.903	1	0
575.073	1	3
575.243	1	0
575.413	1	-2
575.583	1	-1
575.752	1	3
575.922	1	5
576.092	1	-14
576.262	1	-3
576.432	1	-2
576.602	1	-8
576.772	1	-3
576.941	1	1
577.111	1	-5
577.281	1	2
577.451	1	0
577.621	1	4
577.791	1	1
577.960	1	5
578.130	1	-3
578.300	1	-3
578.470	1	3
578.640	1	1
578.810	1	-6
578.979	1	-4
579.149	1	-1
579.319	1	-6
579.489	1	6
579.659	1	-9
579.829	1	-4
579.998	1	-13
580.168	1	3
580.338	1	-7
580.508	1	-7
580.678	1	-2
580.848	1	3
581.017	1	-1
581.187	1	0
581.357	1	1
581.527	1	4
581.697	1	-10
581.867	1	1
582.036	1	-10
582.206	1	-7
582.376	1	-4
582.546	1	-5
582.716	1	-14
582.885	1	0
583.055	1	-8
583.225	1	-1
583.395	1	1
583.565	1	2
583.735	1	0
583.904	1	-4
584.074	1	-4
584.244	1	-13
584.414	1	-3
584.584	1	2
584.753	1	0
584.923	1	4
585.093	1	3
585.263	1	-2
585.433	1	1
585.602	1	-2
585.772	1	12
585.942	1	-7
586.112	1	-1
586.282	1	-1
586.451	1	1
586.621	1	1
586.791	1	-11
586.961	1	1
587.131	1	-5
587.300	1	9
587.470	1	0
587.640	1	-10
587.810	1	-6
587.980	1	3
588.149	1	9
588.319	1	3
588.489	1	4
588.659	1	-3
588.829	1	0
588.998	1	2
589.168	1	2
589.338	1	-2
589.508	1	-4
589.677	1	1
589.847	1	4
590.017	1	-2
590.187	1	1
590.357	1	2
590.526	1	-5
590.696	1	-4
590.866	1	-5
591.036	1	0
591.205	1	5
591.375	1	-2
591.545	1	-4
591.715	1	7
591.885	1	6
592.054	1	11
592.224	1	-7
592.394	1	-4
592.564	1	5
592.733	1	0
592.903	1	1
593.073	1	-10
593.243	1	8
593.412	1	-4
593.582	1	-3
593.752	1	-6
593.922	1	3
594.091	1	6
594.261	1	-11
594.431	1	-6
594.601	1	-11
594.771	1	-2
594.940	1	-2
595.110	1	4
595.280	1	1
595.450	1	-3
595.619	1	7
595.789	1	-7
595.959	1	-6
596.129	1	-5
596.298	1	12
596.468	1	4
596.638	1	-10
596.808	1	-10
596.977	1	-5
597.147	1	1
597.317	1	-6
597.487	1	-2
597.656	1	0
597.826	1	10
597.996	1	-6
598.166	1	2
598.335	1	7
598.505	1	5
598.675	1	-3
598.844	1	4
599.014	1	-12
599.184	1	1
599.354	1	6
599.523	1	0
599.693	1	6
599.863	1	2
600.033	1	2
600.202	1	0
600.372	1	-9
600.542	1	2
600.712	1	-1
600.881	1	0
601.051	1	5
601.221	1	4
601.390	1	-5
601.560	1	9
601.730	1	3
601.900	1	3
602.069	1	-5
602.239	1	-5
602.409	1	-3
602.578	1	4
602.748	1	7
602.918	1	-6
603.088	1	1
603.257	1	-6
603.427	1	8
603.597	1	-2
603.767	1	-2
603.936	1	8
604.106	1	3
604.276	1	3
604.445	1	0
604.615	1	-5
604.785	1	7
604.954	1	-3
605.124	1	-1
605.294	1	-10
605.464	1	-5
605.633	1	-1
605.803	1	-3
605.973	1	4
606.142	1	9
606.312	1	8
606.482	1	-12
606.652	1	6
606.821	1	2
606.991	1	9
607.161	1	1
607.330	1	-5
607.500	1	-3
607.670	1	-6
607.839	1	0
608.009	1	-7
608.179	1	-2
608.348	1	1
608.518	1	8
608.688	1	2
608.858	1	-5
609.027	1	4
609.197	1	4
609.367	1	-6
609.536	1	-8
609.706	1	5
609.876	1	4
610.045	1	1
610.215	1	3
610.385	1	0
610.554	1	-7
610.724	1	-2
610.894	1	5
611.063	1	3
611.233	1	11
611.403	1	5
611.572	1	-5
611.742	1	-5
611.912	1	-1
612.081	1	12
612.251	1	1
612.421	1	4
612.590	1	-4
612.760	1	-2
612.930	1	3
613.099	1	2
613.269	1	1
613.439	1	-7
613.608	1	4
613.778	1	-1
613.948	1	17
614.117	1	-10
614.287	1	2
614.457	1	3
614.626	1	-8
614.796	1	-1
614.966	1	-3
615.135	1	12
615.305	1	2
615.475	1	6
615.644	1	9
615.814	1	8
615.984	1	-13
616.153	1	-4
616.323	1	3
616.493	1	1
616.662	1	-3
616.832	1	3
617.002	1	-5
617.171	1	5
617.341	1	11
617.511	1	-2
617.680	1	-3
617.850	1	-5
618.019	1	-13
618.189	1	13
618.359	1	8
618.528	1	-1
618.698	1	3
618.868	1	2
619.037	1	-7
619.207	1	-6
619.377	1	-1
619.546	1	3
619.716	1	-1
619.885	1	0
620.055	1	-5
620.225	1	1
620.394	1	-4
620.564	1	7
620.734	1	6
620.903	1	-9
621.073	1	1
621.242	1	2
621.412	1	-8
621.582	1	-6
621.751	1	-6
621.921	1	2
622.091	1	-4
622.260	1	1
622.430	1	1
622.599	1	-1
622.769	1	-2
622.939	1	-13
623.108	1	4
623.278	1	2
623.448	1	4
623.617	1	-6
623.787	1	4
623.956	1	-4
624.126	1	6
624.296	1	1
624.465	1	8
624.635	1	1
624.804	1	-3
624.974	1	-14
625.144	1	2
625.313	1	11
625.483	1	4
625.652	1	-4
625.822	1	-4
625.992	1	-7
626.161	1	2
626.331	1	-2
626.501	1	3
626.670	1	-7
626.840	1	10
627.009	1	-5
627.179	1	-5
627.348	1	3
627.518	1	5
627.688	1	-4
627.857	1	1
628.027	1	6
628.196	1	12
628.366	1	-10
628.536	1	-7
628.705	1	-8
628.875	1	-3
629.044	1	-2
629.214	1	2
629.384	1	5
629.553	1	-11
629.723	1	-1
629.892	1	14
630.062	1	0
630.232	1	1
630.401	1	4
630.571	1	-4
630.740	1	-3
630.910	1	1
631.079	1	-7
631.249	1	-1
631.419	1	3
631.588	1	8
631.758	1	-5
631.927	1	9
632.097	1	-5
632.266	1	6
632.436	1	-7
632.606	1	-7
632.775	1	-2
632.945	1	4
633.114	1	-5
633.284	1	-3
633.453	1	6
633.623	1	10
633.793	1	0
633.962	1	-9
634.132	1	-3
634.301	1	7
634.471	1	1
634.640	1	-5
634.810	1	1
634.979	1	4
635.149	1	-2
635.319	1	-15
635.488	1	-2
635.658	1	-4
635.827	1	-5
635.997	1	4
636.166	1	-1
636.336	1	0
636.505	1	1
636.675	1	-5
636.845	1	0
637.014	1	-9
637.184	1	11
637.353	1	3
637.523	1	0
637.692	1	3
637.862	1	-11
638.031	1	-11
638.201	1	-1
638.370	1	4
638.540	1	-4
638.710	1	-1
638.879	1	-1
639.049	1	-3
639.218	1	-3
639.388	1	-4
639.557	1	3
639.727	1	10
639.896	1	-3
640.066	1	-3
640.235	1	0
640.405	1	3
640.574	1	6
640.744	1	-1
640.914	1	-6
641.083	1	1
641.253	1	2
641.422	1	-2
641.592	1	10
641.761	1	-3
641.931	1	5
642.100	1	0
642.270	1	0
642.439	1	-9
642.609	1	6
642.778	1	5
642.948	1	7
643.117	1	11
643.287	1	3
643.456	1	-3
643.626	1	-5
643.795	1	0
643.965	1	-5
644.134	1	-6
644.304	1	-7
644.473	1	-4
644.643	1	4
644.812	1	-5
644.982	1	8
645.151	1	3
645.321	1	11
645.490	1	1
645.660	1	-14
645.829	1	-10
645.999	1	0
646.168	1	20
646.338	1	-17
646.507	1	-5
646.677	1	1
646.846	1	8
647.016	1	7
647.185	1	13
647.355	1	16
647.524	1	1
647.694	1	-7
647.863	1	-1
648.033	1	10
648.202	1	4
648.372	1	-8
648.541	1	-6
648.711	1	5
648.880	1	4
649.050	1	6
649.219	1	-3
649.389	1	-3
649.558	1	4
649.728	1	7
649.897	1	4
650.067	1	6
650.236	1	-9
650.406	1	0
650.575	1	-2
650.745	1	4
650.914	1	3
651.084	1	-2
651.253	1	3
651.423	1	-7
651.592	1	-2
651.762	1	0
651.931	1	1
652.101	1	-8
652.270	1	4
652.440	1	8
652.609	1	-3
652.778	1	6
652.948	1	5
653.117	1	-5
653.287	1	-6
653.456	1	-7
653.626	1	-3
653.795	1	0
653.965	1	0
654.134	1	0
654.304	1	-2
654.473	1	0
654.643	1	0
654.812	1	15
654.982	1	3
655.151	1	7
655.320	1	-9
655.490	1	-15
655.659	1	0
655.829	1	2
655.998	1	-3
656.168	1	-3
656.337	1	-4
656.507	1	-5
656.676	1	-1
656.846	1	2
657.015	1	10
657.184	1	-1
657.354	1	-1
657.523	1	1
657.693	1	4
657.862	1	-17
658.032	1	-8
658.201	1	-7
658.371	1	-4
658.540	1	3
658.709	1	15
658.879	1	3
659.048	1	10
659.218	1	0
659.387	1	2
659.557	1	1
659.726	1	-10
659.895	1	-2
660.065	1	-14
660.234	1	3
660.404	1	-1
660.573	1	3
660.743	1	-15
660.912	1	5
661.081	1	2
661.251	1	-7
661.420	1	6
661.590	1	-1
661.759	1	2
661.929	1	2
662.098	1	1
662.267	1	-8
662.437	1	-3
662.606	1	-7
662.776	1	6
662.945	1	3
663.115	1	2
663.284	1	11
663.453	1	-7
663.623	1	-3
663.792	1	4
663.962	1	6
664.131	1	-3
664.300	1	0
664.470	1	-3
664.639	1	1
664.809	1	-3
664.978	1	14
665.148	1	1
665.317	1	0
665.486	1	6
665.656	1	1
665.825	1	7
665.995	1	-8
666.164	1	2
666.333	1	-10
666.503	1	-7
666.672	1	3
666.842	1	5
667.011	1	-8
667.180	1	-1
667.350	1	1
667.519	1	-2
667.689	1	2
667.858	1	11
668.027	1	0
668.197	1	-5
668.366	1	1
668.536	1	-15
668.705	1	-6
668.874	1	18
669.044	1	-1
669.213	1	2
669.382	1	3
669.552	1	3
669.721	1	0
669.891	1	-8
670.060	1	-3
670.229	1	-5
670.399	1	2
670.568	1	7
670.738	1	-4
670.907	1	1
671.076	1	8
671.246	1	11
671.415	1	7
671.584	1	-4
671.754	1	-7
671.923	1	-1
672.093	1	4
672.262	1	-5
672.431	1	-5
672.601	1	7
672.770	1	2
672.939	1	6
673.109	1	-10
673.278	1	-2
673.448	1	2
673.617	1	5
673.786	1	-10
