325.333	1	-4
325.504	1	-9
325.675	1	7
325.846	1	-3
326.017	1	3
326.188	1	-3
326.359	1	11
326.531	1	-2
326.702	1	-3
326.873	1	1
327.044	1	3
327.215	1	-6
327.386	1	8
327.557	1	-4
327.728	1	3
327.899	1	-3
328.070	1	5
328.241	1	-7
328.412	1	0
328.583	1	0
328.754	1	5
328.926	1	4
329.097	1	-2
329.268	1	2
329.439	1	8
329.610	1	7
329.781	1	7
329.952	1	-4
330.123	1	-6
330.294	1	10
330.465	1	-6
330.636	1	5
330.807	1	1
330.978	1	-6
331.149	1	-2
331.320	1	2
331.492	1	-4
331.663	1	-4
331.834	1	-1
332.005	1	2
332.176	1	2
332.347	1	-4
332.518	1	8
332.689	1	11
332.860	1	1
333.031	1	10
333.202	1	-2
333.373	1	8
333.544	1	2
333.715	1	-4
333.886	1	-6
334.057	1	-9
334.228	1	9
334.399	1	11
334.570	1	8
334.741	1	-2
334.912	1	2
335.084	1	9
335.255	1	3
335.426	1	5
335.597	1	0
335.768	1	8
335.939	1	1
336.110	1	-3
336.281	1	4
336.452	1	13
336.623	1	2
336.794	1	4
336.965	1	-5
337.136	1	1
337.307	1	2
337.478	1	3
337.649	1	-1
337.820	1	0
337.991	1	-7
338.162	1	4
338.333	1	-1
338.504	1	7
338.675	1	-3
338.846	1	-13
339.017	1	2
339.188	1	-7
339.359	1	6
339.530	1	-5
339.701	1	-5
339.872	1	10
340.043	1	10
340.214	1	7
340.385	1	-15
340.556	1	8
340.727	1	9
340.898	1	9
341.069	1	-9
341.240	1	-2
341.411	1	10
341.582	1	-5
341.753	1	-2
341.924	1	13
342.095	1	1
342.266	1	4
342.437	1	-2
342.608	1	1
342.779	1	0
342.950	1	2
343.121	1	3
343.292	1	15
343.463	1	13
343.634	1	-5
343.805	1	2
343.976	1	0
344.147	1	0
344.318	1	-8
344.489	1	-3
344.660	1	5
344.831	1	7
345.002	1	9
345.173	1	2
345.344	1	6
345.515	1	8
345.686	1	6
345.857	1	5
346.028	1	5
346.199	1	-1
346.370	1	2
346.541	1	-6
346.712	1	3
346.883	1	-6
347.054	1	17
347.225	1	-5
347.396	1	3
347.567	1	-3
347.738	1	5
347.909	1	6
348.080	1	0
348.251	1	6
348.422	1	9
348.593	1	4
348.764	1	0
348.935	1	4
349.106	1	-4
349.277	1	5
349.448	1	-3
349.619	1	2
349.790	1	13
349.961	1	-17
350.132	1	6
350.303	1	4
350.474	1	2
350.645	1	-1
350.816	1	10
350.987	1	17
351.157	1	2
351.328	1	5
351.499	1	10
351.670	1	10
351.841	1	4
352.012	1	5
352.183	1	8
352.354	1	-4
352.525	1	8
352.696	1	0
352.867	1	7
353.038	1	11
353.209	1	-1
353.380	1	7
353.551	1	5
353.722	1	11
353.893	1	11
354.064	1	14
354.235	1	-4
354.406	1	-10
354.576	1	0
354.747	1	9
354.918	1	11
355.089	1	-1
355.260	1	5
355.431	1	-10
355.602	1	6
355.773	1	-5
355.944	1	5
356.115	1	7
356.286	1	8
356.457	1	5
356.628	1	8
356.799	1	7
356.970	1	0
357.141	1	11
357.311	1	11
357.482	1	7
357.653	1	3
357.824	1	6
357.995	1	15
358.166	1	5
358.337	1	2
358.508	1	11
358.679	1	-2
358.850	1	16
359.021	1	8
359.192	1	18
359.363	1	1
359.533	1	13
359.704	1	0
359.875	1	-1
360.046	1	13
360.217	1	10
360.388	1	14
360.559	1	6
360.730	1	0
360.901	1	11
361.072	1	-2
361.243	1	7
361.414	1	17
361.584	1	7
361.755	1	1
361.926	1	11
362.097	1	-4
362.268	1	11
362.439	1	-6
362.610	1	13
362.781	1	-9
362.952	1	11
363.123	1	4
363.293	1	1
363.464	1	4
363.635	1	10
363.806	1	4
363.977	1	14
364.148	1	-2
364.319	1	4
364.490	1	16
364.661	1	5
364.832	1	7
365.002	1	12
365.173	1	13
365.344	1	-9
365.515	1	13
365.686	1	1
365.857	1	5
366.028	1	12
366.199	1	8
366.370	1	8
366.540	1	7
366.711	1	9
366.882	1	6
367.053	1	7
367.224	1	7
367.395	1	15
367.566	1	14
367.737	1	-1
367.908	1	0
368.078	1	2
368.249	1	2
368.420	1	12
368.591	1	5
368.762	1	10
368.933	1	8
369.104	1	8
369.274	1	17
369.445	1	14
369.616	1	11
369.787	1	4
369.958	1	14
370.129	1	10
370.300	1	0
370.471	1	6
370.641	1	5
370.812	1	13
370.983	1	1
371.154	1	4
371.325	1	6
371.496	1	9
371.667	1	16
371.837	1	14
372.008	1	-7
372.179	1	7
372.350	1	10
372.521	1	8
372.692	1	16
372.863	1	12
373.033	1	8
373.204	1	5
373.375	1	5
373.546	1	2
373.717	1	-2
373.888	1	18
374.059	1	-1
374.229	1	6
374.400	1	-1
374.571	1	1
374.742	1	9
374.913	1	7
375.084	1	3
375.254	1	6
375.425	1	10
375.596	1	1
375.767	1	8
375.938	1	3
376.109	1	9
376.279	1	7
376.450	1	12
376.621	1	16
376.792	1	15
376.963	1	9
377.134	1	4
377.304	1	8
377.475	1	-6
377.646	1	0
377.817	1	8
377.988	1	-2
378.159	1	10
378.329	1	6
378.500	1	14
378.671	1	21
378.842	1	11
379.013	1	13
379.184	1	1
379.354	1	7
379.525	1	9
379.696	1	8
379.867	1	8
380.038	1	3
380.209	1	13
380.379	1	23
380.550	1	-2
380.721	1	1
380.892	1	6
381.063	1	9
381.233	1	-6
381.404	1	-4
381.575	1	7
381.746	1	9
381.917	1	3
382.087	1	14
382.258	1	10
382.429	1	6
382.600	1	2
382.771	1	8
382.941	1	6
383.112	1	0
383.283	1	16
383.454	1	3
383.625	1	6
383.795	1	7
383.966	1	11
384.137	1	18
384.308	1	8
384.479	1	3
384.649	1	3
384.820	1	6
384.991	1	12
385.162	1	12
385.333	1	5
385.503	1	2
385.674	1	7
385.845	1	5
386.016	1	17
386.187	1	-1
386.357	1	20
386.528	1	13
386.699	1	-1
386.870	1	8
387.041	1	20
387.211	1	1
387.382	1	18
387.553	1	15
387.724	1	3
387.894	1	-4
388.065	1	13
388.236	1	12
388.407	1	10
388.578	1	15
388.748	1	18
388.919	1	9
389.090	1	17
389.261	1	12
389.431	1	4
389.602	1	6
389.773	1	14
389.944	1	6
390.114	1	22
390.285	1	19
390.456	1	12
390.627	1	2
390.798	1	2
390.968	1	5
391.139	1	14
391.310	1	5
391.481	1	5
391.651	1	10
391.822	1	23
391.993	1	15
392.164	1	4
392.334	1	2
392.505	1	15
392.676	1	10
392.847	1	0
393.017	1	6
393.188	1	10
393.359	1	25
393.530	1	22
393.700	1	12
393.871	1	9
394.042	1	7
394.213	1	0
394.383	1	14
394.554	1	7
394.725	1	5
394.896	1	15
395.066	1	13
395.237	1	15
395.408	1	12
395.579	1	17
395.749	1	18
395.920	1	22
396.091	1	5
396.262	1	4
396.432	1	2
396.603	1	19
396.774	1	12
396.945	1	24
397.115	1	17
397.286	1	21
397.457	1	7
397.627	1	-4
397.798	1	7
397.969	1	6
398.140	1	-4
398.310	1	5
398.481	1	6
398.652	1	16
398.823	1	8
398.993	1	10
399.164	1	16
399.335	1	2
399.505	1	3
399.676	1	11
399.847	1	11
400.018	1	2
400.188	1	11
400.359	1	17
400.530	1	15
400.700	1	8
400.871	1	19
401.042	1	12
401.213	1	11
401.383	1	10
401.554	1	8
401.725	1	0
401.895	1	-4
402.066	1	15
402.237	1	8
402.408	1	1
402.578	1	13
402.749	1	10
402.920	1	15
403.090	1	4
403.261	1	7
403.432	1	18
403.603	1	23
403.773	1	24
403.944	1	21
404.115	1	5
404.285	1	22
404.456	1	18
404.627	1	16
404.797	1	10
404.968	1	21
405.139	1	8
405.310	1	8
405.480	1	3
405.651	1	11
405.822	1	7
405.992	1	15
406.163	1	3
406.334	1	18
406.504	1	12
406.675	1	6
406.846	1	10
407.016	1	21
407.187	1	18
407.358	1	6
407.528	1	10
407.699	1	17
407.870	1	12
408.041	1	15
408.211	1	10
408.382	1	14
408.553	1	20
408.723	1	19
408.894	1	7
409.065	1	15
409.235	1	23
409.406	1	5
409.577	1	18
409.747	1	19
409.918	1	19
410.089	1	17
410.259	1	4
410.430	1	6
410.601	1	12
410.771	1	15
410.942	1	15
411.113	1	5
411.283	1	12
411.454	1	25
411.625	1	19
411.795	1	28
411.966	1	11
412.137	1	13
412.307	1	15
412.478	1	10
412.649	1	4
412.819	1	19
412.990	1	20
413.161	1	7
413.331	1	21
413.502	1	13
413.672	1	14
413.843	1	11
414.014	1	9
414.184	1	16
414.355	1	12
414.526	1	14
414.696	1	13
414.867	1	4
415.038	1	6
415.208	1	1
415.379	1	6
415.550	1	9
415.720	1	3
415.891	1	22
416.062	1	22
416.232	1	19
416.403	1	11
416.573	1	0
416.744	1	20
416.915	1	7
417.085	1	13
417.256	1	15
417.427	1	11
417.597	1	19
417.768	1	13
417.939	1	10
418.109	1	4
418.280	1	9
418.450	1	16
418.621	1	10
418.792	1	14
418.962	1	1
419.133	1	1
419.304	1	5
419.474	1	16
419.645	1	7
419.815	1	9
419.986	1	13
420.157	1	3
420.327	1	8
420.498	1	4
420.669	1	21
420.839	1	17
421.010	1	16
421.180	1	11
421.351	1	14
421.522	1	17
421.692	1	19
421.863	1	8
422.033	1	17
422.204	1	15
422.375	1	12
422.545	1	14
422.716	1	-2
422.886	1	14
423.057	1	16
423.228	1	5
423.398	1	21
423.569	1	11
423.740	1	13
423.910	1	14
424.081	1	22
424.251	1	9
424.422	1	20
424.593	1	12
424.763	1	19
424.934	1	14
425.104	1	18
425.275	1	10
425.445	1	5
425.616	1	18
425.787	1	-2
425.957	1	5
426.128	1	10
426.298	1	23
426.469	1	11
426.640	1	14
426.810	1	-6
426.981	1	18
427.151	1	2
427.322	1	10
427.493	1	4
427.663	1	12
427.834	1	13
428.004	1	11
428.175	1	12
428.345	1	-3
428.516	1	14
428.687	1	22
428.857	1	20
429.028	1	7
429.198	1	-1
429.369	1	5
429.540	1	20
429.710	1	13
429.881	1	2
430.051	1	0
430.222	1	16
430.392	1	11
430.563	1	7
430.734	1	16
430.904	1	20
431.075	1	11
431.245	1	4
431.416	1	22
431.586	1	4
431.757	1	13
431.927	1	15
432.098	1	21
432.269	1	3
432.439	1	4
432.610	1	19
432.780	1	20
432.951	1	5
433.121	1	-1
433.292	1	15
433.462	1	8
433.633	1	10
433.804	1	6
433.974	1	9
434.145	1	9
434.315	1	7
434.486	1	5
434.656	1	15
434.827	1	8
434.997	1	18
435.168	1	18
435.339	1	18
435.509	1	3
435.680	1	21
435.850	1	13
436.021	1	3
436.191	1	2
436.362	1	17
436.532	1	16
436.703	1	9
436.873	1	2
437.044	1	12
437.214	1	9
437.385	1	10
437.556	1	16
437.726	1	16
437.897	1	19
438.067	1	15
438.238	1	16
438.408	1	2
438.579	1	7
438.749	1	5
438.920	1	23
439.090	1	4
439.261	1	12
439.431	1	-1
439.602	1	12
439.772	1	13
439.943	1	6
440.113	1	10
440.284	1	10
440.455	1	8
440.625	1	9
440.796	1	0
440.966	1	17
441.137	1	17
441.307	1	22
441.478	1	0
441.648	1	5
441.819	1	9
441.989	1	14
442.160	1	16
442.330	1	9
442.501	1	8
442.671	1	13
442.842	1	3
443.012	1	9
443.183	1	12
443.353	1	9
443.524	1	5
443.694	1	6
443.865	1	17
444.035	1	12
444.206	1	16
444.376	1	12
444.547	1	14
444.717	1	0
444.888	1	1
445.058	1	4
445.229	1	18
445.399	1	7
445.570	1	9
445.740	1	5
445.911	1	9
446.081	1	8
446.252	1	0
446.422	1	11
446.593	1	10
446.763	1	7
446.934	1	4
447.104	1	8
447.275	1	-3
447.445	1	4
447.616	1	8
447.786	1	10
447.957	1	12
448.127	1	3
448.298	1	-9
448.468	1	9
448.639	1	6
448.809	1	2
448.979	1	11
449.150	1	7
449.320	1	6
449.491	1	6
449.661	1	8
449.832	1	-4
450.002	1	1
450.173	1	3
450.343	1	7
450.514	1	9
450.684	1	3
450.855	1	10
451.025	1	-7
451.196	1	6
451.366	1	26
451.537	1	17
451.707	1	14
451.878	1	9
452.048	1	-4
452.218	1	12
452.389	1	16
452.559	1	9
452.730	1	9
452.900	1	8
453.071	1	13
453.241	1	5
453.412	1	-1
453.582	1	11
453.753	1	8
453.923	1	4
454.093	1	2
454.264	1	14
454.434	1	16
454.605	1	6
454.775	1	17
454.946	1	11
455.116	1	9
455.287	1	-1
455.457	1	10
455.628	1	0
455.798	1	13
455.968	1	13
456.139	1	22
456.309	1	9
456.480	1	8
456.650	1	11
456.821	1	8
456.991	1	11
457.161	1	1
457.332	1	3
457.502	1	4
457.673	1	1
457.843	1	-1
458.014	1	12
458.184	1	6
458.355	1	14
458.525	1	8
458.695	1	-1
458.866	1	0
459.036	1	-3
459.207	1	10
459.377	1	14
459.548	1	5
459.718	1	8
459.888	1	-1
460.059	1	10
460.229	1	7
460.400	1	2
460.570	1	-3
460.740	1	5
460.911	1	2
461.081	1	6
461.252	1	3
461.422	1	9
461.593	1	6
461.763	1	15
461.933	1	7
462.104	1	2
462.274	1	3
462.445	1	8
462.615	1	14
462.785	1	15
462.956	1	-4
463.126	1	11
463.297	1	12
463.467	1	10
463.638	1	12
463.808	1	6
463.978	1	-1
464.149	1	16
464.319	1	10
464.490	1	3
464.660	1	-2
464.830	1	7
465.001	1	7
465.171	1	2
465.342	1	2
465.512	1	10
465.682	1	0
465.853	1	-3
466.023	1	16
466.194	1	7
466.364	1	12
466.534	1	-1
466.705	1	23
466.875	1	-6
467.045	1	-7
467.216	1	15
467.386	1	10
467.557	1	21
467.727	1	4
467.897	1	7
468.068	1	3
468.238	1	-1
468.409	1	1
468.579	1	8
468.749	1	2
468.920	1	-8
469.090	1	9
469.260	1	0
469.431	1	-3
469.601	1	12
469.772	1	16
469.942	1	8
470.112	1	4
470.283	1	10
470.453	1	9
470.623	1	6
470.794	1	5
470.964	1	-3
471.135	1	4
471.305	1	6
471.475	1	3
471.646	1	10
471.816	1	-5
471.986	1	5
472.157	1	2
472.327	1	20
472.497	1	-4
472.668	1	12
472.838	1	2
473.009	1	8
473.179	1	2
473.349	1	3
473.520	1	10
473.690	1	3
473.860	1	-2
474.031	1	1
474.201	1	8
474.371	1	5
474.542	1	-5
474.712	1	7
474.882	1	1
475.053	1	8
475.223	1	-1
475.394	1	6
475.564	1	3
475.734	1	-1
475.905	1	10
476.075	1	11
476.245	1	5
476.416	1	1
476.586	1	2
476.756	1	12
476.927	1	0
477.097	1	7
477.267	1	2
477.438	1	7
477.608	1	21
477.778	1	-2
477.949	1	-4
478.119	1	14
478.289	1	1
478.460	1	-4
478.630	1	3
478.800	1	4
478.971	1	-1
479.141	1	8
479.311	1	7
479.482	1	-1
479.652	1	4
479.822	1	6
479.993	1	7
480.163	1	-1
480.333	1	-1
480.504	1	5
480.674	1	13
480.844	1	5
481.015	1	15
481.185	1	2
481.355	1	4
481.525	1	2
481.696	1	13
481.866	1	10
482.036	1	3
482.207	1	5
482.377	1	2
482.547	1	6
482.718	1	-2
482.888	1	15
483.058	1	9
483.229	1	8
483.399	1	7
483.569	1	1
483.740	1	6
483.910	1	3
484.080	1	7
484.250	1	-14
484.421	1	2
484.591	1	-9
484.761	1	7
484.932	1	2
485.102	1	1
485.272	1	7
485.443	1	5
485.613	1	3
485.783	1	8
485.953	1	2
486.124	1	-4
486.294	1	-1
486.464	1	5
486.635	1	-7
486.805	1	2
486.975	1	-3
487.146	1	16
487.316	1	5
487.486	1	10
487.656	1	8
487.827	1	0
487.997	1	7
488.167	1	5
488.338	1	10
488.508	1	3
488.678	1	-1
488.848	1	3
489.019	1	3
489.189	1	12
489.359	1	-5
489.529	1	7
489.700	1	0
489.870	1	8
490.040	1	2
490.211	1	-5
490.381	1	8
490.551	1	5
490.721	1	10
490.892	1	-10
491.062	1	0
491.232	1	12
491.402	1	4
491.573	1	5
491.743	1	0
491.913	1	-1
492.084	1	5
492.254	1	1
492.424	1	-1
492.594	1	-7
492.765	1	7
492.935	1	14
493.105	1	6
493.275	1	4
493.446	1	-10
493.616	1	-8
493.786	1	2
493.956	1	-5
494.127	1	2
494.297	1	-7
494.467	1	-2
494.637	1	2
494.808	1	7
494.978	1	7
495.148	1	0
495.318	1	6
495.489	1	4
495.659	1	3
495.829	1	1
495.999	1	10
496.170	1	9
496.340	1	2
496.510	1	12
496.680	1	8
496.851	1	5
497.021	1	-7
497.191	1	3
497.361	1	-7
497.532	1	7
497.702	1	3
497.872	1	3
498.042	1	-5
498.213	1	-1
498.383	1	-3
498.553	1	1
498.723	1	0
498.894	1	-2
499.064	1	2
499.234	1	8
499.404	1	5
499.574	1	8
499.745	1	-2
499.915	1	10
500.085	1	4
500.255	1	-10
500.426	1	-2
500.596	1	-10
500.766	1	-9
500.936	1	4
501.106	1	-14
501.277	1	3
501.447	1	6
501.617	1	2
501.787	1	-7
501.958	1	8
502.128	1	0
502.298	1	9
502.468	1	-14
502.638	1	-1
502.809	1	-3
502.979	1	5
503.149	1	3
503.319	1	8
503.489	1	-12
503.660	1	4
503.830	1	7
504.000	1	8
504.170	1	8
504.340	1	-9
504.511	1	0
504.681	1	1
504.851	1	-9
505.021	1	0
505.192	1	-6
505.362	1	-6
505.532	1	4
505.702	1	17
505.872	1	4
506.043	1	6
506.213	1	8
506.383	1	3
506.553	1	1
506.723	1	-5
506.893	1	17
507.064	1	8
507.234	1	7
507.404	1	-13
507.574	1	-5
507.744	1	6
507.915	1	-3
508.085	1	-3
508.255	1	-4
508.425	1	-1
508.595	1	-4
508.766	1	-13
508.936	1	16
509.106	1	2
509.276	1	1
509.446	1	-7
509.616	1	2
509.787	1	-6
509.957	1	1
510.127	1	-5
510.297	1	-5
510.467	1	-3
510.638	1	9
510.808	1	13
510.978	1	-2
511.148	1	-9
511.318	1	8
511.488	1	2
511.659	1	-6
511.829	1	-8
511.999	1	10
512.169	1	3
512.339	1	6
512.509	1	-4
512.680	1	-3
512.850	1	2
513.020	1	4
513.190	1	-10
513.360	1	8
513.530	1	0
513.700	1	4
513.871	1	-1
514.041	1	2
514.211	1	3
514.381	1	4
514.551	1	-5
514.721	1	-2
514.892	1	0
515.062	1	1
515.232	1	-7
515.402	1	6
515.572	1	4
515.742	1	8
515.912	1	0
516.083	1	9
516.253	1	2
516.423	1	4
516.593	1	2
516.763	1	5
516.933	1	2
517.104	1	6
517.274	1	-1
517.444	1	0
517.614	1	-7
517.784	1	3
517.954	1	4
518.124	1	6
518.294	1	10
518.465	1	7
518.635	1	14
518.805	1	13
518.975	1	-2
519.145	1	-3
519.315	1	8
519.485	1	-9
519.656	1	-2
519.826	1	-14
519.996	1	10
520.166	1	3
520.336	1	7
520.506	1	-1
520.676	1	8
520.846	1	2
521.017	1	6
521.187	1	3
521.357	1	-3
521.527	1	3
521.697	1	3
521.867	1	6
522.037	1	1
522.207	1	2
522.377	1	1
522.548	1	-14
522.718	1	7
522.888	1	2
523.058	1	4
523.228	1	-2
523.398	1	-1
523.568	1	-19
523.738	1	-1
523.909	1	0
524.079	1	-3
524.249	1	-1
524.419	1	7
524.589	1	-3
524.759	1	1
524.929	1	1
525.099	1	4
525.269	1	7
525.439	1	0
525.610	1	6
525.780	1	1
525.950	1	-2
526.120	1	-7
526.290	1	-3
526.460	1	-6
526.630	1	4
526.800	1	-16
526.970	1	8
527.140	1	3
527.311	1	7
527.481	1	4
527.651	1	12
527.821	1	-10
527.991	1	2
528.161	1	7
528.331	1	-2
528.501	1	-4
528.671	1	4
528.841	1	10
529.011	1	5
529.181	1	5
529.352	1	3
529.522	1	-2
529.692	1	0
529.862	1	-5
530.032	1	-12
530.202	1	-9
530.372	1	-3
530.542	1	3
530.712	1	0
530.882	1	10
531.052	1	8
531.222	1	-7
531.392	1	-1
531.563	1	-1
531.733	1	-11
531.903	1	1
532.073	1	-3
532.243	1	3
532.413	1	21
532.583	1	10
532.753	1	-4
532.923	1	-4
533.093	1	-6
533.263	1	-7
533.433	1	-9
533.603	1	-7
533.773	1	3
533.943	1	3
534.113	1	6
534.284	1	7
534.454	1	-10
534.624	1	-2
534.794	1	-4
534.964	1	7
535.134	1	-7
535.304	1	0
535.474	1	-2
535.644	1	7
535.814	1	5
535.984	1	4
536.154	1	0
536.324	1	1
536.494	1	2
536.664	1	8
536.834	1	-7
537.004	1	3
537.174	1	2
537.344	1	1
537.514	1	-8
537.685	1	10
537.855	1	2
538.025	1	14
538.195	1	0
538.365	1	-3
538.535	1	-1
538.705	1	-2
538.875	1	3
539.045	1	5
539.215	1	-11
539.385	1	-2
539.555	1	-1
539.725	1	2
539.895	1	6
540.065	1	3
540.235	1	6
540.405	1	5
540.575	1	1
540.745	1	3
540.915	1	2
541.085	1	-10
541.255	1	-7
541.425	1	4
541.595	1	9
541.765	1	6
541.935	1	-2
542.105	1	2
542.275	1	5
542.445	1	0
542.615	1	14
542.785	1	0
542.955	1	5
543.125	1	-1
543.295	1	0
543.465	1	11
543.635	1	-2
543.805	1	-1
543.975	1	-8
544.145	1	-1
544.315	1	-2
544.485	1	-8
544.655	1	3
544.825	1	10
544.995	1	-9
545.165	1	5
545.335	1	9
545.505	1	0
545.675	1	5
545.845	1	-2
546.015	1	-3
546.185	1	-2
546.355	1	-3
546.525	1	0
546.695	1	-6
546.865	1	-2
547.035	1	2
547.205	1	6
547.375	1	8
547.545	1	7
547.715	1	-3
547.885	1	-13
548.055	1	-4
548.225	1	10
548.395	1	-12
548.565	1	4
548.735	1	-2
548.905	1	1
549.075	1	3
549.245	1	10
549.415	1	4
549.585	1	-1
549.755	1	-10
549.925	1	7
550.095	1	-7
550.265	1	-3
550.435	1	-6
550.605	1	3
550.775	1	-6
550.945	1	-3
551.115	1	1
551.285	1	-7
551.455	1	6
551.625	1	-6
551.795	1	-3
551.965	1	-8
552.135	1	0
552.305	1	7
552.475	1	5
552.645	1	-1
552.815	1	-6
552.985	1	-3
553.155	1	3
553.325	1	-1
553.495	1	0
553.665	1	-7
553.835	1	2
554.004	1	1
554.174	1	-3
554.344	1	4
554.514	1	-4
554.684	1	-1
554.854	1	-7
555.024	1	1
555.194	1	-1
555.364	1	1
555.534	1	-6
555.704	1	6
555.874	1	-4
556.044	1	0
556.214	1	-12
556.384	1	13
556.554	1	-1
556.724	1	1
556.894	1	-5
557.064	1	-7
557.234	1	-5
557.404	1	0
557.573	1	2
557.743	1	-1
557.913	1	-8
558.083	1	5
558.253	1	1
558.423	1	0
558.593	1	5
558.763	1	7
558.933	1	-4
559.103	1	-2
559.273	1	12
559.443	1	9
559.613	1	-1
559.783	1	-2
559.953	1	-13
560.122	1	1
560.292	1	-15
560.462	1	0
560.632	1	-8
560.802	1	-1
560.972	1	-8
561.142	1	10
561.312	1	-4
561.482	1	1
561.652	1	-3
561.822	1	-5
561.992	1	1
562.162	1	-6
562.331	1	-2
562.501	1	2
562.671	1	-5
562.841	1	-19
563.011	1	2
563.181	1	-1
563.351	1	-12
563.521	1	3
563.691	1	10
563.861	1	-9
564.031	1	-3
564.201	1	4
564.370	1	0
564.540	1	-8
564.710	1	-1
564.880	1	6
565.050	1	4
565.220	1	0
565.390	1	-2
565.560	1	7
565.730	1	10
565.900	1	-5
566.069	1	12
566.239	1	7
566.409	1	4
566.579	1	5
566.749	1	-3
566.919	1	-6
567.089	1	-15
567.259	1	2
567.429	1	-12
567.599	1	12
567.768	1	-9
567.938	1	-4
568.108	1	-7
568.278	1	10
568.448	1	0
568.618	1	-2
568.788	1	-4
568.958	1	-5
569.128	1	-7
569.297	1	-8
569.467	1	2
569.637	1	-2
569.807	1	-1
569.977	1	-8
570.147	1	1
570.317	1	4
570.487	1	1
570.656	1	-4
570.826	1	-9
570.996	1	10
571.166	1	4
571.336	1	-1
571.506	1	-7
571.676	1	-4
571.846	1	8
572.015	1	4
572.185	1	4
572.355	1	-5
572.525	1	-5
572.695	1	0
572.865	1	4
573.035	1	2
573.205	1	-1
573.374	1	-5
573.544	1	3
573.714	1	-5
573.884	1	-1
574.054	1	-2
574.224	1	0
574.394	1	-4
574.563	1	-6
574.733	1	-2
574.903	1	3
575.073	1	-1
575.243	1	-1
575.413	1	-9
575.583	1	-8
575.752	1	2
575.922	1	11
576.092	1	-4
576.262	1	-2
576.432	1	-4
576.602	1	5
576.772	1	1
576.941	1	-3
577.111	1	-4
577.281	1	-3
577.451	1	2
577.621	1	-2
577.791	1	1
577.960	1	0
578.130	1	0
578.300	1	-11
578.470	1	1
578.640	1	-9
578.810	1	-5
578.979	1	0
579.149	1	-1
579.319	1	-3
579.489	1	-3
579.659	1	-5
579.829	1	-8
579.998	1	-11
580.168	1	2
580.338	1	0
580.508	1	-1
580.678	1	3
580.848	1	2
581.017	1	5
581.187	1	-6
581.357	1	6
581.527	1	4
581.697	1	2
581.867	1	1
582.036	1	-8
582.206	1	3
582.376	1	-1
582.546	1	0
582.716	1	1
582.885	1	8
583.055	1	-6
583.225	1	-1
583.395	1	0
583.565	1	4
583.735	1	4
583.904	1	-2
584.074	1	-2
584.244	1	-3
584.414	1	1
584.584	1	-6
584.753	1	-5
584.923	1	-7
585.093	1	9
585.263	1	1
585.433	1	-4
585.602	1	1
585.772	1	13
585.942	1	-9
586.112	1	-5
586.282	1	-6
586.451	1	4
586.621	1	-8
586.791	1	-9
586.961	1	-4
587.131	1	1
587.300	1	4
587.470	1	-1
587.640	1	-9
587.810	1	-12
587.980	1	3
588.149	1	1
588.319	1	2
588.489	1	0
588.659	1	-5
588.829	1	0
588.998	1	3
589.168	1	-6
589.338	1	-9
589.508	1	-1
589.677	1	7
589.847	1	4
590.017	1	2
590.187	1	1
590.357	1	3
590.526	1	-2
590.696	1	-2
590.866	1	-7
591.036	1	5
591.205	1	-4
591.375	1	-4
591.545	1	-3
591.715	1	-3
591.885	1	7
592.054	1	13
592.224	1	-4
592.394	1	-12
592.564	1	-3
592.733	1	-4
592.903	1	-1
593.073	1	-1
593.243	1	3
593.412	1	-5
593.582	1	0
593.752	1	3
593.922	1	11
594.091	1	-2
594.261	1	-7
594.431	1	-2
594.601	1	-1
594.771	1	-1
594.940	1	6
595.110	1	9
595.280	1	-3
595.450	1	3
595.619	1	-3
595.789	1	-2
595.959	1	-6
596.129	1	8
596.298	1	0
596.468	1	-11
596.638	1	-1
596.808	1	-6
596.977	1	-5
597.147	1	2
597.317	1	-1
597.487	1	-1
597.656	1	5
597.826	1	9
597.996	1	-15
598.166	1	-5
598.335	1	-1
598.505	1	0
598.675	1	6
598.844	1	6
599.014	1	-11
599.184	1	6
599.354	1	11
599.523	1	0
599.693	1	1
599.863	1	-1
600.033	1	-5
600.202	1	-6
600.372	1	-1
600.542	1	5
600.712	1	-1
600.881	1	-6
601.051	1	10
601.221	1	6
601.390	1	-1
601.560	1	8
601.730	1	4
601.900	1	2
602.069	1	-2
602.239	1	2
602.409	1	0
602.578	1	0
602.748	1	-1
602.918	1	-3
603.088	1	-4
603.257	1	-12
603.427	1	5
603.597	1	-3
603.767	1	-1
603.936	1	6
604.106	1	-9
604.276	1	6
604.445	1	-7
604.615	1	2
604.785	1	3
604.954	1	-4
605.124	1	5
605.294	1	-3
605.464	1	-2
605.633	1	5
605.803	1	10
605.973	1	-5
606.142	1	-1
606.312	1	5
606.482	1	-7
606.652	1	6
606.821	1	-1
606.991	1	8
607.161	1	5
607.330	1	-13
607.500	1	-6
607.670	1	0
607.839	1	-3
608.009	1	-6
608.179	1	5
608.348	1	9
608.518	1	12
608.688	1	-3
608.858	1	-3
609.027	1	3
609.197	1	-8
609.367	1	-9
609.536	1	-4
609.706	1	6
609.876	1	1
610.045	1	-5
610.215	1	5
610.385	1	-6
610.554	1	1
610.724	1	-4
610.894	1	1
611.063	1	1
611.233	1	9
611.403	1	4
611.572	1	1
611.742	1	-6
611.912	1	-1
612.081	1	8
612.251	1	5
612.421	1	-4
612.590	1	9
612.760	1	2
612.930	1	3
613.099	1	0
613.269	1	-4
613.439	1	-12
613.608	1	-3
613.778	1	3
613.948	1	6
614.117	1	-5
614.287	1	-8
614.457	1	0
614.626	1	-1
614.796	1	7
614.966	1	-8
615.135	1	18
615.305	1	-3
615.475	1	1
615.644	1	14
615.814	1	11
615.984	1	-6
616.153	1	-5
616.323	1	-1
616.493	1	-1
616.662	1	-1
616.832	1	6
617.002	1	1
617.171	1	-3
617.341	1	1
617.511	1	-12
617.680	1	-1
617.850	1	2
618.019	1	-4
618.189	1	7
618.359	1	-2
618.528	1	6
618.698	1	1
618.868	1	-5
619.037	1	6
619.207	1	-2
619.377	1	10
619.546	1	2
619.716	1	-5
619.885	1	-3
620.055	1	-2
620.225	1	5
620.394	1	4
620.564	1	0
620.734	1	-3
620.903	1	-8
621.073	1	6
621.242	1	5
621.412	1	-5
621.582	1	6
621.751	1	0
621.921	1	-9
622.091	1	-3
622.260	1	4
622.430	1	2
622.599	1	6
622.769	1	-5
622.939	1	3
623.108	1	-4
623.278	1	-5
623.448	1	8
623.617	1	7
623.787	1	9
623.956	1	0
624.126	1	-2
624.296	1	6
624.465	1	4
624.635	1	-1
624.804	1	-3
624.974	1	-4
625.144	1	-11
625.313	1	10
625.483	1	9
625.652	1	-3
625.822	1	7
625.992	1	-2
626.161	1	1
626.331	1	-8
626.501	1	2
626.670	1	2
626.840	1	0
627.009	1	-3
627.179	1	1
627.348	1	-4
627.518	1	15
627.688	1	1
627.857	1	7
628.027	1	-3
628.196	1	-2
628.366	1	-11
628.536	1	2
628.705	1	1
628.875	1	-6
629.044	1	-3
629.214	1	9
629.384	1	12
629.553	1	-5
629.723	1	6
629.892	1	2
630.062	1	-5
630.232	1	2
630.401	1	4
630.571	1	-2
630.740	1	-3
630.910	1	8
631.079	1	-6
631.249	1	2
631.419	1	1
631.588	1	-1
631.758	1	-5
631.927	1	11
632.097	1	4
632.266	1	4
632.436	1	6
632.606	1	3
632.775	1	-1
632.945	1	-8
633.114	1	-8
633.284	1	-4
633.453	1	5
633.623	1	10
633.793	1	-1
633.962	1	3
634.132	1	1
634.301	1	7
634.471	1	0
634.640	1	-5
634.810	1	3
634.979	1	8
635.149	1	2
635.319	1	2
635.488	1	-2
635.658	1	-7
635.827	1	2
635.997	1	4
636.166	1	3
636.336	1	-3
636.505	1	1
636.675	1	-1
636.845	1	-5
637.014	1	-5
637.184	1	5
637.353	1	3
637.523	1	-1
637.692	1	3
637.862	1	-9
638.031	1	-6
638.201	1	0
638.370	1	4
638.540	1	-8
638.710	1	-3
638.879	1	-4
639.049	1	-6
639.218	1	12
639.388	1	4
639.557	1	5
639.727	1	3
639.896	1	-11
640.066	1	-1
640.235	1	2
640.405	1	4
640.574	1	-2
640.744	1	1
640.914	1	0
641.083	1	5
641.253	1	-12
641.422	1	-10
641.592	1	11
641.761	1	4
641.931	1	7
642.100	1	-3
642.270	1	-2
642.439	1	11
642.609	1	10
642.778	1	6
642.948	1	12
643.117	1	3
643.287	1	1
643.456	1	2
643.626	1	-8
643.795	1	3
643.965	1	-6
644.134	1	-4
644.304	1	0
644.473	1	2
644.643	1	-4
644.812	1	-6
644.982	1	-7
645.151	1	-10
645.321	1	5
645.490	1	13
645.660	1	-1
645.829	1	2
645.999	1	-2
646.168	1	15
646.338	1	-7
646.507	1	4
646.677	1	-2
646.846	1	-3
647.016	1	-4
647.185	1	3
647.355	1	7
647.524	1	-3
647.694	1	-9
647.863	1	-3
648.033	1	10
648.202	1	-3
648.372	1	-11
648.541	1	-1
648.711	1	-3
648.880	1	-2
649.050	1	2
649.219	1	7
649.389	1	0
649.558	1	17
649.728	1	9
649.897	1	6
650.067	1	8
650.236	1	-4
650.406	1	-11
650.575	1	-2
650.745	1	0
650.914	1	1
651.084	1	2
651.253	1	-3
651.423	1	-3
651.592	1	-3
651.762	1	-4
651.931	1	5
652.101	1	0
652.270	1	-1
652.440	1	5
652.609	1	6
652.778	1	4
652.948	1	-3
653.117	1	2
653.287	1	-8
653.456	1	-4
653.626	1	1
653.795	1	-3
653.965	1	-1
654.134	1	-8
654.304	1	-1
654.473	1	0
654.643	1	-2
654.812	1	7
654.982	1	5
655.151	1	0
655.320	1	-6
655.490	1	-6
655.659	1	-2
655.829	1	4
655.998	1	0
656.168	1	-4
656.337	1	-4
656.507	1	-4
656.676	1	-3
656.846	1	-1
657.015	1	2
657.184	1	-4
657.354	1	1
657.523	1	5
657.693	1	8
657.862	1	5
658.032	1	3
658.201	1	-3
658.371	1	-6
658.540	1	-12
658.709	1	2
658.879	1	13
659.048	1	1
659.218	1	-6
659.387	1	6
659.557	1	0
659.726	1	6
659.895	1	3
660.065	1	-6
660.234	1	3
660.404	1	-3
660.573	1	-2
660.743	1	-2
660.912	1	0
661.081	1	-1
661.251	1	-8
661.420	1	9
661.590	1	-11
661.759	1	-1
661.929	1	1
662.098	1	8
662.267	1	-19
662.437	1	4
662.606	1	-11
662.776	1	-3
662.945	1	3
663.115	1	11
663.284	1	0
663.453	1	-1
663.623	1	6
663.792	1	10
663.962	1	8
664.131	1	-3
664.300	1	-11
664.470	1	-7
664.639	1	3
664.809	1	2
664.978	1	9
665.148	1	7
665.317	1	2
665.486	1	-1
665.656	1	8
665.825	1	10
665.995	1	-10
666.164	1	-5
666.333	1	-1
666.503	1	-10
666.672	1	1
666.842	1	-4
667.011	1	10
667.180	1	-3
667.350	1	6
667.519	1	3
667.689	1	-7
667.858	1	0
668.027	1	6
668.197	1	-9
668.366	1	0
668.536	1	-3
668.705	1	-5
668.874	1	5
669.044	1	4
669.213	1	-3
669.382	1	4
669.552	1	5
669.721	1	-7
669.891	1	2
670.060	1	2
670.229	1	1
670.399	1	1
670.568	1	2
670.738	1	2
670.907	1	1
671.076	1	-3
671.246	1	4
671.415	1	5
671.584	1	0
671.754	1	-12
671.923	1	-9
672.093	1	0
672.262	1	-3
672.431	1	10
672.601	1	8
672.770	1	-9
672.939	1	1
673.109	1	0
673.278	1	-3
673.448	1	10
673.617	1	1
673.786	1	-5
