325.333	1	9
325.504	1	-4
325.675	1	0
325.846	1	1
326.017	1	4
326.188	1	2
326.359	1	5
326.531	1	-4
326.702	1	7
326.873	1	9
327.044	1	11
327.215	1	-5
327.386	1	7
327.557	1	-1
327.728	1	12
327.899	1	0
328.070	1	12
328.241	1	0
328.412	1	-2
328.583	1	3
328.754	1	11
328.926	1	8
329.097	1	2
329.268	1	20
329.439	1	2
329.610	1	6
329.781	1	7
329.952	1	12
330.123	1	1
330.294	1	1
330.465	1	-2
330.636	1	1
330.807	1	13
330.978	1	2
331.149	1	9
331.320	1	1
331.492	1	1
331.663	1	3
331.834	1	10
332.005	1	8
332.176	1	8
332.347	1	-6
332.518	1	7
332.689	1	14
332.860	1	-6
333.031	1	6
333.202	1	3
333.373	1	10
333.544	1	15
333.715	1	5
333.886	1	12
334.057	1	-1
334.228	1	10
334.399	1	9
334.570	1	18
334.741	1	5
334.912	1	-3
335.084	1	5
335.255	1	10
335.426	1	2
335.597	1	5
335.768	1	10
335.939	1	8
336.110	1	10
336.281	1	5
336.452	1	17
336.623	1	-1
336.794	1	7
336.965	1	8
337.136	1	11
337.307	1	8
337.478	1	-1
337.649	1	2
337.820	1	11
337.991	1	11
338.162	1	-3
338.333	1	11
338.504	1	18
338.675	1	8
338.846	1	-4
339.017	1	11
339.188	1	5
339.359	1	10
339.530	1	8
339.701	1	14
339.872	1	14
340.043	1	3
340.214	1	18
340.385	1	-3
340.556	1	19
340.727	1	7
340.898	1	5
341.069	1	5
341.240	1	8
341.411	1	9
341.582	1	-9
341.753	1	8
341.924	1	17
342.095	1	6
342.266	1	16
342.437	1	17
342.608	1	8
342.779	1	1
342.950	1	4
343.121	1	13
343.292	1	3
343.463	1	20
343.634	1	10
343.805	1	16
343.976	1	24
344.147	1	13
344.318	1	2
344.489	1	8
344.660	1	17
344.831	1	21
345.002	1	10
345.173	1	9
345.344	1	0
345.515	1	8
345.686	1	20
345.857	1	17
346.028	1	14
346.199	1	14
346.370	1	7
346.541	1	4
346.712	1	7
346.883	1	9
347.054	1	22
347.225	1	0
347.396	1	5
347.567	1	-7
347.738	1	15
347.909	1	5
348.080	1	6
348.251	1	2
348.422	1	10
348.593	1	6
348.764	1	17
348.935	1	15
349.106	1	0
349.277	1	10
349.448	1	9
349.619	1	10
349.790	1	11
349.961	1	-1
350.132	1	16
350.303	1	18
350.474	1	12
350.645	1	12
350.816	1	8
350.987	1	25
351.157	1	3
351.328	1	15
351.499	1	13
351.670	1	4
351.841	1	7
352.012	1	13
352.183	1	19
352.354	1	19
352.525	1	20
352.696	1	10
352.867	1	19
353.038	1	20
353.209	1	8
353.380	1	19
353.551	1	20
353.722	1	15
353.893	1	17
354.064	1	14
354.235	1	13
354.406	1	3
354.576	1	12
354.747	1	10
354.918	1	13
355.089	1	13
355.260	1	14
355.431	1	4
355.602	1	14
355.773	1	6
355.944	1	15
356.115	1	13
356.286	1	19
356.457	1	13
356.628	1	16
356.799	1	18
356.970	1	26
357.141	1	17
357.311	1	23
357.482	1	10
357.653	1	-2
357.824	1	24
357.995	1	10
358.166	1	12
358.337	1	7
358.508	1	22
358.679	1	13
358.850	1	16
359.021	1	8
359.192	1	17
359.363	1	21
359.533	1	14
359.704	1	9
359.875	1	9
360.046	1	19
360.217	1	18
360.388	1	22
360.559	1	21
360.730	1	12
360.901	1	15
361.072	1	13
361.243	1	16
361.414	1	29
361.584	1	18
361.755	1	13
361.926	1	19
362.097	1	5
362.268	1	31
362.439	1	12
362.610	1	15
362.781	1	3
362.952	1	17
363.123	1	13
363.293	1	16
363.464	1	12
363.635	1	28
363.806	1	23
363.977	1	16
364.148	1	9
364.319	1	13
364.490	1	22
364.661	1	20
364.832	1	10
365.002	1	25
365.173	1	16
365.344	1	6
365.515	1	11
365.686	1	16
365.857	1	15
366.028	1	17
366.199	1	24
366.370	1	18
366.540	1	4
366.711	1	11
366.882	1	14
367.053	1	13
367.224	1	24
367.395	1	12
367.566	1	23
367.737	1	12
367.908	1	23
368.078	1	8
368.249	1	19
368.420	1	21
368.591	1	17
368.762	1	19
368.933	1	11
369.104	1	11
369.274	1	24
369.445	1	24
369.616	1	19
369.787	1	16
369.958	1	19
370.129	1	10
370.300	1	3
370.471	1	21
370.641	1	17
370.812	1	18
370.983	1	7
371.154	1	25
371.325	1	23
371.496	1	21
371.667	1	29
371.837	1	24
372.008	1	-1
372.179	1	9
372.350	1	22
372.521	1	21
372.692	1	27
372.863	1	7
373.033	1	13
373.204	1	16
373.375	1	10
373.546	1	28
373.717	1	18
373.888	1	25
374.059	1	16
374.229	1	23
374.400	1	9
374.571	1	15
374.742	1	22
374.913	1	10
375.084	1	12
375.254	1	5
375.425	1	12
375.596	1	25
375.767	1	20
375.938	1	12
376.109	1	19
376.279	1	17
376.450	1	25
376.621	1	17
376.792	1	19
376.963	1	21
377.134	1	27
377.304	1	26
377.475	1	19
377.646	1	17
377.817	1	17
377.988	1	21
378.159	1	38
378.329	1	19
378.500	1	25
378.671	1	13
378.842	1	20
379.013	1	15
379.184	1	17
379.354	1	21
379.525	1	26
379.696	1	24
379.867	1	23
380.038	1	15
380.209	1	16
380.379	1	30
380.550	1	3
380.721	1	22
380.892	1	27
381.063	1	24
381.233	1	25
381.404	1	21
381.575	1	31
381.746	1	24
381.917	1	11
382.087	1	28
382.258	1	21
382.429	1	17
382.600	1	33
382.771	1	11
382.941	1	30
383.112	1	29
383.283	1	18
383.454	1	23
383.625	1	31
383.795	1	21
383.966	1	33
384.137	1	23
384.308	1	26
384.479	1	25
384.649	1	17
384.820	1	33
384.991	1	29
385.162	1	18
385.333	1	20
385.503	1	25
385.674	1	15
385.845	1	23
386.016	1	34
386.187	1	14
386.357	1	34
386.528	1	30
386.699	1	15
386.870	1	25
387.041	1	29
387.211	1	23
387.382	1	40
387.553	1	23
387.724	1	33
387.894	1	19
388.065	1	34
388.236	1	20
388.407	1	32
388.578	1	24
388.748	1	33
388.919	1	25
389.090	1	47
389.261	1	42
389.431	1	28
389.602	1	27
389.773	1	33
389.944	1	33
390.114	1	30
390.285	1	25
390.456	1	29
390.627	1	20
390.798	1	22
390.968	1	25
391.139	1	35
391.310	1	34
391.481	1	24
391.651	1	33
391.822	1	29
391.993	1	24
392.164	1	24
392.334	1	17
392.505	1	26
392.676	1	19
392.847	1	19
393.017	1	28
393.188	1	40
393.359	1	20
393.530	1	41
393.700	1	15
393.871	1	39
394.042	1	27
394.213	1	19
394.383	1	30
394.554	1	28
394.725	1	16
394.896	1	43
395.066	1	31
395.237	1	22
395.408	1	30
395.579	1	38
395.749	1	33
395.920	1	24
396.091	1	30
396.262	1	29
396.432	1	16
396.603	1	24
396.774	1	29
396.945	1	23
397.115	1	40
397.286	1	31
397.457	1	25
397.627	1	27
397.798	1	30
397.969	1	31
398.140	1	22
398.310	1	27
398.481	1	33
398.652	1	27
398.823	1	27
398.993	1	27
399.164	1	33
399.335	1	26
399.505	1	28
399.676	1	29
399.847	1	31
400.018	1	20
400.188	1	36
400.359	1	35
400.530	1	39
400.700	1	37
400.871	1	37
401.042	1	27
401.213	1	24
401.383	1	33
401.554	1	27
401.725	1	15
401.895	1	26
402.066	1	39
402.237	1	26
402.408	1	28
402.578	1	41
402.749	1	34
402.920	1	41
403.090	1	19
403.261	1	23
403.432	1	27
403.603	1	25
403.773	1	38
403.944	1	37
404.115	1	20
404.285	1	37
404.456	1	33
404.627	1	30
404.797	1	29
404.968	1	26
405.139	1	24
405.310	1	23
405.480	1	32
405.651	1	19
405.822	1	37
405.992	1	32
406.163	1	15
406.334	1	40
406.504	1	34
406.675	1	12
406.846	1	39
407.016	1	35
407.187	1	31
407.358	1	18
407.528	1	28
407.699	1	35
407.870	1	32
408.041	1	33
408.211	1	39
408.382	1	37
408.553	1	41
408.723	1	28
408.894	1	23
409.065	1	34
409.235	1	38
409.406	1	29
409.577	1	34
409.747	1	31
409.918	1	44
410.089	1	43
410.259	1	31
410.430	1	28
410.601	1	34
410.771	1	44
410.942	1	32
411.113	1	30
411.283	1	34
411.454	1	37
411.625	1	31
411.795	1	35
411.966	1	29
412.137	1	37
412.307	1	39
412.478	1	29
412.649	1	30
412.819	1	39
412.990	1	39
413.161	1	29
413.331	1	39
413.502	1	26
413.672	1	32
413.843	1	17
414.014	1	31
414.184	1	37
414.355	1	29
414.526	1	40
414.696	1	36
414.867	1	17
415.038	1	29
415.208	1	30
415.379	1	38
415.550	1	34
415.720	1	23
415.891	1	33
416.062	1	38
416.232	1	39
416.403	1	43
416.573	1	22
416.744	1	31
416.915	1	29
417.085	1	36
417.256	1	37
417.427	1	25
417.597	1	25
417.768	1	27
417.939	1	26
418.109	1	28
418.280	1	26
418.450	1	47
418.621	1	42
418.792	1	37
418.962	1	33
419.133	1	28
419.304	1	24
419.474	1	36
419.645	1	32
419.815	1	27
419.986	1	41
420.157	1	23
420.327	1	20
420.498	1	25
420.669	1	34
420.839	1	31
421.010	1	22
421.180	1	25
421.351	1	38
421.522	1	27
421.692	1	43
421.863	1	30
422.033	1	34
422.204	1	28
422.375	1	20
422.545	1	35
422.716	1	26
422.886	1	21
423.057	1	29
423.228	1	26
423.398	1	29
423.569	1	39
423.740	1	31
423.910	1	37
424.081	1	44
424.251	1	34
424.422	1	33
424.593	1	34
424.763	1	38
424.934	1	36
425.104	1	42
425.275	1	19
425.445	1	29
425.616	1	34
425.787	1	33
425.957	1	28
426.128	1	32
426.298	1	36
426.469	1	20
426.640	1	33
426.810	1	8
426.981	1	33
427.151	1	24
427.322	1	23
427.493	1	28
427.663	1	37
427.834	1	29
428.004	1	35
428.175	1	38
428.345	1	22
428.516	1	29
428.687	1	46
428.857	1	38
429.028	1	27
429.198	1	16
429.369	1	32
429.540	1	27
429.710	1	19
429.881	1	29
430.051	1	29
430.222	1	21
430.392	1	32
430.563	1	22
430.734	1	25
430.904	1	40
431.075	1	35
431.245	1	34
431.416	1	32
431.586	1	30
431.757	1	40
431.927	1	37
432.098	1	30
432.269	1	26
432.439	1	13
432.610	1	35
432.780	1	26
432.951	1	22
433.121	1	33
433.292	1	42
433.462	1	31
433.633	1	26
433.804	1	30
433.974	1	28
434.145	1	31
434.315	1	35
434.486	1	25
434.656	1	34
434.827	1	31
434.997	1	35
435.168	1	31
435.339	1	34
435.509	1	34
435.680	1	39
435.850	1	10
436.021	1	23
436.191	1	30
436.362	1	16
436.532	1	36
436.703	1	40
436.873	1	25
437.044	1	25
437.214	1	19
437.385	1	27
437.556	1	46
437.726	1	32
437.897	1	29
438.067	1	26
438.238	1	20
438.408	1	26
438.579	1	21
438.749	1	22
438.920	1	37
439.090	1	17
439.261	1	37
439.431	1	17
439.602	1	29
439.772	1	32
439.943	1	23
440.113	1	20
440.284	1	28
440.455	1	20
440.625	1	23
440.796	1	26
440.966	1	21
441.137	1	29
441.307	1	30
441.478	1	17
441.648	1	24
441.819	1	27
441.989	1	45
442.160	1	28
442.330	1	26
442.501	1	22
442.671	1	24
442.842	1	37
443.012	1	21
443.183	1	29
443.353	1	25
443.524	1	23
443.694	1	32
443.865	1	35
444.035	1	25
444.206	1	20
444.376	1	23
444.547	1	27
444.717	1	25
444.888	1	18
445.058	1	34
445.229	1	20
445.399	1	23
445.570	1	22
445.740	1	22
445.911	1	21
446.081	1	31
446.252	1	20
446.422	1	20
446.593	1	22
446.763	1	16
446.934	1	17
447.104	1	26
447.275	1	24
447.445	1	22
447.616	1	38
447.786	1	15
447.957	1	7
448.127	1	28
448.298	1	23
448.468	1	27
448.639	1	17
448.809	1	15
448.979	1	39
449.150	1	14
449.320	1	31
449.491	1	14
449.661	1	18
449.832	1	19
450.002	1	20
450.173	1	30
450.343	1	27
450.514	1	15
450.684	1	21
450.855	1	20
451.025	1	7
451.196	1	8
451.366	1	24
451.537	1	30
451.707	1	36
451.878	1	11
452.048	1	12
452.218	1	23
452.389	1	24
452.559	1	21
452.730	1	15
452.900	1	11
453.071	1	28
453.241	1	31
453.412	1	22
453.582	1	25
453.753	1	31
453.923	1	21
454.093	1	7
454.264	1	32
454.434	1	23
454.605	1	9
454.775	1	23
454.946	1	14
455.116	1	24
455.287	1	11
455.457	1	21
455.628	1	16
455.798	1	31
455.968	1	10
456.139	1	23
456.309	1	21
456.480	1	9
456.650	1	23
456.821	1	7
456.991	1	31
457.161	1	14
457.332	1	11
457.502	1	22
457.673	1	13
457.843	1	19
458.014	1	17
458.184	1	15
458.355	1	16
458.525	1	14
458.695	1	16
458.866	1	14
459.036	1	11
459.207	1	20
459.377	1	13
459.548	1	23
459.718	1	15
459.888	1	17
460.059	1	19
460.229	1	13
460.400	1	11
460.570	1	20
460.740	1	22
460.911	1	17
461.081	1	25
461.252	1	22
461.422	1	8
461.593	1	23
461.763	1	16
461.933	1	19
462.104	1	10
462.274	1	16
462.445	1	15
462.615	1	22
462.785	1	16
462.956	1	5
463.126	1	21
463.297	1	22
463.467	1	28
463.638	1	21
463.808	1	17
463.978	1	11
464.149	1	15
464.319	1	20
464.490	1	4
464.660	1	9
464.830	1	10
465.001	1	24
465.171	1	4
465.342	1	18
465.512	1	24
465.682	1	1
465.853	1	8
466.023	1	20
466.194	1	27
466.364	1	21
466.534	1	18
466.705	1	43
466.875	1	3
467.045	1	20
467.216	1	19
467.386	1	20
467.557	1	33
467.727	1	11
467.897	1	13
468.068	1	21
468.238	1	18
468.409	1	20
468.579	1	29
468.749	1	12
468.920	1	7
469.090	1	29
469.260	1	13
469.431	1	13
469.601	1	32
469.772	1	24
469.942	1	13
470.112	1	18
470.283	1	15
470.453	1	19
470.623	1	29
470.794	1	10
470.964	1	3
471.135	1	26
471.305	1	15
471.475	1	17
471.646	1	14
471.816	1	24
471.986	1	10
472.157	1	13
472.327	1	19
472.497	1	10
472.668	1	23
472.838	1	8
473.009	1	15
473.179	1	13
473.349	1	8
473.520	1	19
473.690	1	23
473.860	1	4
474.031	1	3
474.201	1	19
474.371	1	7
474.542	1	12
474.712	1	10
474.882	1	10
475.053	1	14
475.223	1	15
475.394	1	12
475.564	1	20
475.734	1	0
475.905	1	17
476.075	1	21
476.245	1	14
476.416	1	11
476.586	1	7
476.756	1	13
476.927	1	14
477.097	1	10
477.267	1	10
477.438	1	14
477.608	1	31
477.778	1	9
477.949	1	5
478.119	1	16
478.289	1	10
478.460	1	12
478.630	1	17
478.800	1	6
478.971	1	20
479.141	1	12
479.311	1	8
479.482	1	12
479.652	1	22
479.822	1	-2
479.993	1	-2
480.163	1	10
480.333	1	17
480.504	1	25
480.674	1	15
480.844	1	6
481.015	1	20
481.185	1	9
481.355	1	10
481.525	1	14
481.696	1	7
481.866	1	21
482.036	1	6
482.207	1	16
482.377	1	8
482.547	1	17
482.718	1	9
482.888	1	15
483.058	1	17
483.229	1	9
483.399	1	19
483.569	1	3
483.740	1	8
483.910	1	-4
484.080	1	14
484.250	1	4
484.421	1	7
484.591	1	8
484.761	1	15
484.932	1	9
485.102	1	10
485.272	1	7
485.443	1	11
485.613	1	10
485.783	1	9
485.953	1	13
486.124	1	6
486.294	1	20
486.464	1	8
486.635	1	3
486.805	1	14
486.975	1	-1
487.146	1	13
487.316	1	17
487.486	1	17
487.656	1	15
487.827	1	12
487.997	1	11
488.167	1	17
488.338	1	5
488.508	1	11
488.678	1	8
488.848	1	5
489.019	1	18
489.189	1	23
489.359	1	9
489.529	1	13
489.700	1	18
489.870	1	14
490.040	1	3
490.211	1	1
490.381	1	1
490.551	1	1
490.721	1	5
490.892	1	-3
491.062	1	10
491.232	1	5
491.402	1	10
491.573	1	25
491.743	1	12
491.913	1	12
492.084	1	9
492.254	1	4
492.424	1	7
492.594	1	3
492.765	1	11
492.935	1	16
493.105	1	6
493.275	1	6
493.446	1	2
493.616	1	-1
493.786	1	4
493.956	1	12
494.127	1	0
494.297	1	3
494.467	1	6
494.637	1	15
494.808	1	4
494.978	1	12
495.148	1	10
495.318	1	12
495.489	1	10
495.659	1	11
495.829	1	5
495.999	1	7
496.170	1	12
496.340	1	11
496.510	1	21
496.680	1	10
496.851	1	19
497.021	1	9
497.191	1	11
497.361	1	1
497.532	1	0
497.702	1	15
497.872	1	6
498.042	1	7
498.213	1	8
498.383	1	4
498.553	1	12
498.723	1	0
498.894	1	5
499.064	1	10
499.234	1	15
499.404	1	7
499.574	1	15
499.745	1	13
499.915	1	7
500.085	1	5
500.255	1	-2
500.426	1	3
500.596	1	3
500.766	1	7
500.936	1	-3
501.106	1	0
501.277	1	6
501.447	1	7
501.617	1	1
501.787	1	-6
501.958	1	8
502.128	1	9
502.298	1	16
502.468	1	0
502.638	1	10
502.809	1	-1
502.979	1	14
503.149	1	2
503.319	1	10
503.489	1	-8
503.660	1	6
503.830	1	7
504.000	1	9
504.170	1	7
504.340	1	7
504.511	1	3
504.681	1	5
504.851	1	-2
505.021	1	4
505.192	1	-4
505.362	1	7
505.532	1	2
505.702	1	9
505.872	1	6
506.043	1	13
506.213	1	15
506.383	1	5
506.553	1	5
506.723	1	-11
506.893	1	14
507.064	1	4
507.234	1	-2
507.404	1	3
507.574	1	6
507.744	1	14
507.915	1	1
508.085	1	2
508.255	1	5
508.425	1	7
508.595	1	-3
508.766	1	3
508.936	1	14
509.106	1	10
509.276	1	10
509.446	1	5
509.616	1	9
509.787	1	-1
509.957	1	11
510.127	1	3
510.297	1	6
510.467	1	11
510.638	1	10
510.808	1	24
510.978	1	-3
511.148	1	3
511.318	1	9
511.488	1	16
511.659	1	3
511.829	1	-3
511.999	1	5
512.169	1	13
512.339	1	12
512.509	1	7
512.680	1	12
512.850	1	12
513.020	1	3
513.190	1	-3
513.360	1	7
513.530	1	3
513.700	1	4
513.871	1	1
514.041	1	-2
514.211	1	7
514.381	1	-4
514.551	1	6
514.721	1	4
514.892	1	-5
515.062	1	5
515.232	1	-1
515.402	1	7
515.572	1	9
515.742	1	3
515.912	1	3
516.083	1	2
516.253	1	18
516.423	1	6
516.593	1	2
516.763	1	9
516.933	1	3
517.104	1	4
517.274	1	2
517.444	1	4
517.614	1	0
517.784	1	7
517.954	1	1
518.124	1	5
518.294	1	3
518.465	1	-6
518.635	1	11
518.805	1	11
518.975	1	0
519.145	1	7
519.315	1	9
519.485	1	-3
519.656	1	1
519.826	1	3
519.996	1	6
520.166	1	-1
520.336	1	0
520.506	1	-1
520.676	1	7
520.846	1	11
521.017	1	8
521.187	1	12
521.357	1	-2
521.527	1	-5
521.697	1	-2
521.867	1	16
522.037	1	10
522.207	1	11
522.377	1	1
522.548	1	-2
522.718	1	2
522.888	1	5
523.058	1	2
523.228	1	6
523.398	1	0
523.568	1	-5
523.738	1	8
523.909	1	2
524.079	1	3
524.249	1	2
524.419	1	2
524.589	1	7
524.759	1	3
524.929	1	8
525.099	1	1
525.269	1	7
525.439	1	7
525.610	1	14
525.780	1	4
525.950	1	-3
526.120	1	-8
526.290	1	-2
526.460	1	-1
526.630	1	4
526.800	1	1
526.970	1	5
527.140	1	3
527.311	1	0
527.481	1	9
527.651	1	9
527.821	1	3
527.991	1	4
528.161	1	2
528.331	1	-1
528.501	1	2
528.671	1	7
528.841	1	3
529.011	1	8
529.181	1	9
529.352	1	3
529.522	1	1
529.692	1	6
529.862	1	-1
530.032	1	-10
530.202	1	-8
530.372	1	5
530.542	1	9
530.712	1	2
530.882	1	2
531.052	1	1
531.222	1	7
531.392	1	3
531.563	1	10
531.733	1	-6
531.903	1	1
532.073	1	2
532.243	1	17
532.413	1	17
532.583	1	10
532.753	1	-4
532.923	1	4
533.093	1	3
533.263	1	3
533.433	1	3
533.603	1	3
533.773	1	6
533.943	1	2
534.113	1	-1
534.284	1	1
534.454	1	7
534.624	1	-2
534.794	1	3
534.964	1	11
535.134	1	-6
535.304	1	3
535.474	1	7
535.644	1	1
535.814	1	2
535.984	1	-1
536.154	1	0
536.324	1	0
536.494	1	5
536.664	1	3
536.834	1	4
537.004	1	14
537.174	1	3
537.344	1	4
537.514	1	1
537.685	1	11
537.855	1	1
538.025	1	5
538.195	1	-6
538.365	1	4
538.535	1	-1
538.705	1	10
538.875	1	2
539.045	1	7
539.215	1	-5
539.385	1	7
539.555	1	-4
539.725	1	-2
539.895	1	5
540.065	1	0
540.235	1	5
540.405	1	2
540.575	1	-1
540.745	1	2
540.915	1	12
541.085	1	-4
541.255	1	3
541.425	1	1
541.595	1	6
541.765	1	1
541.935	1	4
542.105	1	1
542.275	1	0
542.445	1	8
542.615	1	1
542.785	1	6
542.955	1	12
543.125	1	-3
543.295	1	-4
543.465	1	1
543.635	1	-4
543.805	1	18
543.975	1	0
544.145	1	4
544.315	1	-2
544.485	1	2
544.655	1	10
544.825	1	8
544.995	1	-3
545.165	1	6
545.335	1	2
545.505	1	-2
545.675	1	8
545.845	1	2
546.015	1	-7
546.185	1	-3
546.355	1	1
546.525	1	2
546.695	1	-1
546.865	1	0
547.035	1	6
547.205	1	14
547.375	1	14
547.545	1	13
547.715	1	7
547.885	1	3
548.055	1	5
548.225	1	9
548.395	1	-4
548.565	1	7
548.735	1	-12
548.905	1	14
549.075	1	1
549.245	1	12
549.415	1	4
549.585	1	3
549.755	1	7
549.925	1	4
550.095	1	-3
550.265	1	2
550.435	1	3
550.605	1	-2
550.775	1	-3
550.945	1	7
551.115	1	8
551.285	1	-1
551.455	1	6
551.625	1	4
551.795	1	-3
551.965	1	-3
552.135	1	-10
552.305	1	8
552.475	1	9
552.645	1	-1
552.815	1	10
552.985	1	-5
553.155	1	-5
553.325	1	-10
553.495	1	13
553.665	1	2
553.835	1	1
554.004	1	2
554.174	1	0
554.344	1	13
554.514	1	-3
554.684	1	11
554.854	1	-10
555.024	1	8
555.194	1	3
555.364	1	3
555.534	1	-14
555.704	1	6
555.874	1	6
556.044	1	-4
556.214	1	1
556.384	1	6
556.554	1	7
556.724	1	3
556.894	1	0
557.064	1	-3
557.234	1	1
557.404	1	5
557.573	1	3
557.743	1	0
557.913	1	-6
558.083	1	4
558.253	1	-5
558.423	1	0
558.593	1	-8
558.763	1	-1
558.933	1	-3
559.103	1	-2
559.273	1	6
559.443	1	2
559.613	1	-3
559.783	1	-1
559.953	1	-9
560.122	1	5
560.292	1	-13
560.462	1	3
560.632	1	-11
560.802	1	10
560.972	1	-1
561.142	1	0
561.312	1	-6
561.482	1	3
561.652	1	-1
561.822	1	-7
561.992	1	7
562.162	1	-1
562.331	1	-4
562.501	1	7
562.671	1	-5
562.841	1	-4
563.011	1	4
563.181	1	-5
563.351	1	-7
563.521	1	-4
563.691	1	4
563.861	1	2
564.031	1	4
564.201	1	2
564.370	1	4
564.540	1	1
564.710	1	0
564.880	1	-9
565.050	1	7
565.220	1	4
565.390	1	-4
565.560	1	5
565.730	1	6
565.900	1	-1
566.069	1	14
566.239	1	6
566.409	1	11
566.579	1	4
566.749	1	-5
566.919	1	-10
567.089	1	-2
567.259	1	6
567.429	1	-8
567.599	1	9
567.768	1	-10
567.938	1	2
568.108	1	11
568.278	1	1
568.448	1	1
568.618	1	5
568.788	1	4
568.958	1	2
569.128	1	-5
569.297	1	0
569.467	1	9
569.637	1	4
569.807	1	11
569.977	1	-8
570.147	1	10
570.317	1	2
570.487	1	1
570.656	1	4
570.826	1	-3
570.996	1	11
571.166	1	-1
571.336	1	7
571.506	1	-5
571.676	1	5
571.846	1	3
572.015	1	-1
572.185	1	7
572.355	1	-2
572.525	1	-6
572.695	1	-1
572.865	1	11
573.035	1	12
573.205	1	-6
573.374	1	1
573.544	1	6
573.714	1	-5
573.884	1	6
574.054	1	5
574.224	1	0
574.394	1	3
574.563	1	2
574.733	1	0
574.903	1	4
575.073	1	2
575.243	1	5
575.413	1	-1
575.583	1	1
575.752	1	-4
575.922	1	10
576.092	1	-4
576.262	1	8
576.432	1	-2
576.602	1	6
576.772	1	-1
576.941	1	1
577.111	1	-8
577.281	1	2
577.451	1	2
577.621	1	8
577.791	1	5
577.960	1	1
578.130	1	3
578.300	1	-3
578.470	1	8
578.640	1	10
578.810	1	2
578.979	1	4
579.149	1	1
579.319	1	-5
579.489	1	9
579.659	1	-2
579.829	1	0
579.998	1	-5
580.168	1	0
580.338	1	6
580.508	1	4
580.678	1	9
580.848	1	-1
581.017	1	4
581.187	1	-6
581.357	1	1
581.527	1	-1
581.697	1	9
581.867	1	4
582.036	1	-3
582.206	1	8
582.376	1	3
582.546	1	8
582.716	1	4
582.885	1	1
583.055	1	-6
583.225	1	-4
583.395	1	-5
583.565	1	15
583.735	1	13
583.904	1	1
584.074	1	6
584.244	1	0
584.414	1	3
584.584	1	-6
584.753	1	5
584.923	1	-5
585.093	1	3
585.263	1	4
585.433	1	-4
585.602	1	0
585.772	1	22
585.942	1	2
586.112	1	-1
586.282	1	4
586.451	1	6
586.621	1	2
586.791	1	-4
586.961	1	-2
587.131	1	-2
587.300	1	10
587.470	1	0
587.640	1	-1
587.810	1	-13
587.980	1	0
588.149	1	2
588.319	1	5
588.489	1	4
588.659	1	1
588.829	1	3
588.998	1	4
589.168	1	2
589.338	1	-2
589.508	1	3
589.677	1	-2
589.847	1	5
590.017	1	-1
590.187	1	1
590.357	1	-4
590.526	1	-4
590.696	1	1
590.866	1	-2
591.036	1	11
591.205	1	6
591.375	1	-4
591.545	1	-5
591.715	1	-6
591.885	1	9
592.054	1	10
592.224	1	1
592.394	1	-14
592.564	1	-9
592.733	1	2
592.903	1	-3
593.073	1	-2
593.243	1	9
593.412	1	-1
593.582	1	-3
593.752	1	-6
593.922	1	2
594.091	1	11
594.261	1	-8
594.431	1	3
594.601	1	-7
594.771	1	6
594.940	1	5
595.110	1	6
595.280	1	3
595.450	1	-2
595.619	1	-3
595.789	1	-3
595.959	1	2
596.129	1	13
596.298	1	16
596.468	1	-2
596.638	1	-1
596.808	1	-6
596.977	1	-3
597.147	1	-11
597.317	1	2
597.487	1	6
597.656	1	4
597.826	1	12
597.996	1	3
598.166	1	4
598.335	1	-2
598.505	1	2
598.675	1	2
598.844	1	11
599.014	1	-8
599.184	1	8
599.354	1	16
599.523	1	-1
599.693	1	7
599.863	1	2
600.033	1	5
600.202	1	-10
600.372	1	-12
600.542	1	0
600.712	1	4
600.881	1	4
601.051	1	9
601.221	1	6
601.390	1	7
601.560	1	-2
601.730	1	-4
601.900	1	-3
602.069	1	-4
602.239	1	3
602.409	1	3
602.578	1	19
602.748	1	5
602.918	1	-10
603.088	1	-3
603.257	1	-14
603.427	1	4
603.597	1	0
603.767	1	4
603.936	1	6
604.106	1	-8
604.276	1	2
604.445	1	1
604.615	1	0
604.785	1	8
604.954	1	2
605.124	1	6
605.294	1	-2
605.464	1	-5
605.633	1	7
605.803	1	7
605.973	1	13
606.142	1	5
606.312	1	9
606.482	1	0
606.652	1	10
606.821	1	-6
606.991	1	-5
607.161	1	3
607.330	1	5
607.500	1	6
607.670	1	-2
607.839	1	4
608.009	1	-6
608.179	1	4
608.348	1	4
608.518	1	18
608.688	1	-2
608.858	1	-4
609.027	1	11
609.197	1	9
609.367	1	-1
609.536	1	-3
609.706	1	10
609.876	1	12
610.045	1	2
610.215	1	5
610.385	1	-2
610.554	1	6
610.724	1	-1
610.894	1	2
611.063	1	-2
611.233	1	4
611.403	1	9
611.572	1	9
611.742	1	8
611.912	1	2
612.081	1	15
612.251	1	6
612.421	1	3
612.590	1	-1
612.760	1	5
612.930	1	9
613.099	1	2
613.269	1	-4
613.439	1	-6
613.608	1	5
613.778	1	5
613.948	1	10
614.117	1	-4
614.287	1	-7
614.457	1	2
614.626	1	-6
614.796	1	3
614.966	1	-4
615.135	1	15
615.305	1	1
615.475	1	3
615.644	1	15
615.814	1	3
615.984	1	-9
616.153	1	-12
616.323	1	-4
616.493	1	-2
616.662	1	1
616.832	1	5
617.002	1	5
617.171	1	12
617.341	1	9
617.511	1	-7
617.680	1	-1
617.850	1	5
618.019	1	-1
618.189	1	4
618.359	1	8
618.528	1	-2
618.698	1	16
618.868	1	-2
619.037	1	4
619.207	1	1
619.377	1	1
619.546	1	10
619.716	1	-3
619.885	1	4
620.055	1	4
620.225	1	-6
620.394	1	9
620.564	1	2
620.734	1	-2
620.903	1	-11
621.073	1	1
621.242	1	1
621.412	1	-1
621.582	1	14
621.751	1	7
621.921	1	12
622.091	1	-5
622.260	1	6
622.430	1	9
622.599	1	-1
622.769	1	1
622.939	1	0
623.108	1	-5
623.278	1	-1
623.448	1	-2
623.617	1	14
623.787	1	5
623.956	1	3
624.126	1	11
624.296	1	1
624.465	1	3
624.635	1	2
624.804	1	-11
624.974	1	-3
625.144	1	-2
625.313	1	23
625.483	1	8
625.652	1	2
625.822	1	0
625.992	1	-3
626.161	1	3
626.331	1	1
626.501	1	8
626.670	1	-4
626.840	1	1
627.009	1	13
627.179	1	10
627.348	1	0
627.518	1	15
627.688	1	-1
627.857	1	3
628.027	1	4
628.196	1	7
628.366	1	-6
628.536	1	8
628.705	1	-5
628.875	1	2
629.044	1	1
629.214	1	-2
629.384	1	0
629.553	1	-10
629.723	1	3
629.892	1	0
630.062	1	9
630.232	1	10
630.401	1	4
630.571	1	1
630.740	1	-8
630.910	1	10
631.079	1	-7
631.249	1	-3
631.419	1	7
631.588	1	8
631.758	1	-7
631.927	1	9
632.097	1	1
632.266	1	11
632.436	1	3
632.606	1	-5
632.775	1	9
632.945	1	8
633.114	1	-8
633.284	1	3
633.453	1	2
633.623	1	16
633.793	1	-5
633.962	1	4
634.132	1	6
634.301	1	2
634.471	1	4
634.640	1	0
634.810	1	6
634.979	1	5
635.149	1	0
635.319	1	-4
635.488	1	4
635.658	1	0
635.827	1	3
635.997	1	5
636.166	1	4
636.336	1	-4
636.505	1	5
636.675	1	6
636.845	1	3
637.014	1	-9
637.184	1	2
637.353	1	2
637.523	1	2
637.692	1	3
637.862	1	0
638.031	1	-8
638.201	1	3
638.370	1	13
638.540	1	2
638.710	1	2
638.879	1	-6
639.049	1	0
639.218	1	3
639.388	1	-4
639.557	1	9
639.727	1	-2
639.896	1	-11
640.066	1	5
640.235	1	8
640.405	1	7
640.574	1	10
640.744	1	-3
640.914	1	2
641.083	1	8
641.253	1	-6
641.422	1	2
641.592	1	7
641.761	1	0
641.931	1	20
642.100	1	2
642.270	1	2
642.439	1	1
642.609	1	10
642.778	1	-2
642.948	1	13
643.117	1	-1
643.287	1	2
643.456	1	-1
643.626	1	3
643.795	1	11
643.965	1	1
644.134	1	1
644.304	1	2
644.473	1	-2
644.643	1	-3
644.812	1	-4
644.982	1	-1
645.151	1	8
645.321	1	5
645.490	1	12
645.660	1	-3
645.829	1	4
645.999	1	1
646.168	1	17
646.338	1	-7
646.507	1	-1
646.677	1	-6
646.846	1	7
647.016	1	4
647.185	1	13
647.355	1	5
647.524	1	-5
647.694	1	-1
647.863	1	0
648.033	1	2
648.202	1	6
648.372	1	-4
648.541	1	-5
648.711	1	5
648.880	1	1
649.050	1	7
649.219	1	4
649.389	1	-1
649.558	1	6
649.728	1	5
649.897	1	2
650.067	1	9
650.236	1	3
650.406	1	-9
650.575	1	-4
650.745	1	11
650.914	1	9
651.084	1	7
651.253	1	0
651.423	1	-6
651.592	1	8
651.762	1	0
651.931	1	2
652.101	1	-4
652.270	1	-4
652.440	1	13
652.609	1	12
652.778	1	9
652.948	1	14
653.117	1	3
653.287	1	-6
653.456	1	-6
653.626	1	0
653.795	1	-3
653.965	1	-2
654.134	1	-3
654.304	1	6
654.473	1	15
654.643	1	-2
654.812	1	11
654.982	1	4
655.151	1	16
655.320	1	-3
655.490	1	-7
655.659	1	11
655.829	1	14
655.998	1	10
656.168	1	0
656.337	1	14
656.507	1	-3
656.676	1	-3
656.846	1	-1
657.015	1	13
657.184	1	3
657.354	1	-1
657.523	1	6
657.693	1	9
657.862	1	5
658.032	1	2
658.201	1	-7
658.371	1	-4
658.540	1	-6
658.709	1	8
658.879	1	9
659.048	1	13
659.218	1	-2
659.387	1	7
659.557	1	2
659.726	1	-4
659.895	1	1
660.065	1	-1
660.234	1	1
660.404	1	5
660.573	1	-3
660.743	1	1
660.912	1	1
661.081	1	6
661.251	1	5
661.420	1	11
661.590	1	7
661.759	1	9
661.929	1	-1
662.098	1	2
662.267	1	-6
662.437	1	4
662.606	1	0
662.776	1	2
662.945	1	13
663.115	1	10
663.284	1	11
663.453	1	4
663.623	1	-4
663.792	1	11
663.962	1	10
664.131	1	5
664.300	1	-4
664.470	1	-6
664.639	1	8
664.809	1	5
664.978	1	19
665.148	1	10
665.317	1	-3
665.486	1	7
665.656	1	1
665.825	1	8
665.995	1	-8
666.164	1	-2
666.333	1	-5
666.503	1	-3
666.672	1	5
666.842	1	9
667.011	1	-4
667.180	1	-1
667.350	1	-1
667.519	1	11
667.689	1	3
667.858	1	6
668.027	1	4
668.197	1	-11
668.366	1	6
668.536	1	2
668.705	1	-7
668.874	1	6
669.044	1	11
669.213	1	7
669.382	1	6
669.552	1	8
669.721	1	-6
669.891	1	9
670.060	1	0
670.229	1	19
670.399	1	6
670.568	1	11
670.738	1	-3
670.907	1	8
671.076	1	-2
671.246	1	7
671.415	1	12
671.584	1	4
671.754	1	2
671.923	1	-2
672.093	1	1
672.262	1	-1
672.431	1	7
672.601	1	7
672.770	1	-6
672.939	1	6
673.109	1	1
673.278	1	3
673.448	1	5
673.617	1	3
673.786	1	-13
