325.333	1	12
325.504	1	-6
325.675	1	16
325.846	1	4
326.017	1	9
326.188	1	7
326.359	1	8
326.531	1	-5
326.702	1	-5
326.873	1	11
327.044	1	10
327.215	1	2
327.386	1	2
327.557	1	-3
327.728	1	-2
327.899	1	3
328.070	1	13
328.241	1	8
328.412	1	6
328.583	1	5
328.754	1	12
328.926	1	13
329.097	1	5
329.268	1	16
329.439	1	15
329.610	1	5
329.781	1	7
329.952	1	21
330.123	1	15
330.294	1	5
330.465	1	-8
330.636	1	12
330.807	1	12
330.978	1	4
331.149	1	8
331.320	1	1
331.492	1	4
331.663	1	5
331.834	1	3
332.005	1	4
332.176	1	8
332.347	1	0
332.518	1	15
332.689	1	6
332.860	1	-1
333.031	1	8
333.202	1	11
333.373	1	19
333.544	1	8
333.715	1	6
333.886	1	7
334.057	1	9
334.228	1	8
334.399	1	9
334.570	1	9
334.741	1	0
334.912	1	-3
335.084	1	11
335.255	1	16
335.426	1	6
335.597	1	12
335.768	1	13
335.939	1	10
336.110	1	12
336.281	1	3
336.452	1	14
336.623	1	6
336.794	1	8
336.965	1	6
337.136	1	26
337.307	1	7
337.478	1	8
337.649	1	4
337.820	1	10
337.991	1	7
338.162	1	6
338.333	1	2
338.504	1	13
338.675	1	1
338.846	1	-2
339.017	1	11
339.188	1	5
339.359	1	13
339.530	1	5
339.701	1	17
339.872	1	32
340.043	1	12
340.214	1	19
340.385	1	8
340.556	1	18
340.727	1	12
340.898	1	12
341.069	1	13
341.240	1	12
341.411	1	9
341.582	1	-6
341.753	1	16
341.924	1	19
342.095	1	5
342.266	1	19
342.437	1	10
342.608	1	19
342.779	1	5
342.950	1	13
343.121	1	14
343.292	1	9
343.463	1	14
343.634	1	13
343.805	1	18
343.976	1	18
344.147	1	22
344.318	1	6
344.489	1	13
344.660	1	21
344.831	1	26
345.002	1	8
345.173	1	2
345.344	1	12
345.515	1	8
345.686	1	16
345.857	1	12
346.028	1	13
346.199	1	13
346.370	1	8
346.541	1	13
346.712	1	10
346.883	1	6
347.054	1	15
347.225	1	8
347.396	1	15
347.567	1	8
347.738	1	20
347.909	1	19
348.080	1	16
348.251	1	6
348.422	1	15
348.593	1	15
348.764	1	19
348.935	1	22
349.106	1	0
349.277	1	1
349.448	1	7
349.619	1	13
349.790	1	25
349.961	1	13
350.132	1	12
350.303	1	13
350.474	1	9
350.645	1	14
350.816	1	17
350.987	1	18
351.157	1	7
351.328	1	14
351.499	1	21
351.670	1	8
351.841	1	25
352.012	1	11
352.183	1	21
352.354	1	-1
352.525	1	20
352.696	1	13
352.867	1	13
353.038	1	20
353.209	1	12
353.380	1	23
353.551	1	20
353.722	1	22
353.893	1	22
354.064	1	16
354.235	1	3
354.406	1	7
354.576	1	10
354.747	1	16
354.918	1	16
355.089	1	25
355.260	1	15
355.431	1	6
355.602	1	16
355.773	1	7
355.944	1	18
356.115	1	24
356.286	1	29
356.457	1	22
356.628	1	14
356.799	1	21
356.970	1	23
357.141	1	25
357.311	1	25
357.482	1	17
357.653	1	6
357.824	1	34
357.995	1	27
358.166	1	10
358.337	1	19
358.508	1	23
358.679	1	13
358.850	1	22
359.021	1	21
359.192	1	30
359.363	1	21
359.533	1	18
359.704	1	9
359.875	1	15
360.046	1	23
360.217	1	29
360.388	1	28
360.559	1	27
360.730	1	24
360.901	1	24
361.072	1	13
361.243	1	25
361.414	1	16
361.584	1	16
361.755	1	33
361.926	1	32
362.097	1	13
362.268	1	33
362.439	1	25
362.610	1	19
362.781	1	20
362.952	1	33
363.123	1	4
363.293	1	15
363.464	1	28
363.635	1	32
363.806	1	25
363.977	1	22
364.148	1	30
364.319	1	21
364.490	1	16
364.661	1	29
364.832	1	22
365.002	1	20
365.173	1	28
365.344	1	24
365.515	1	20
365.686	1	32
365.857	1	31
366.028	1	27
366.199	1	22
366.370	1	26
366.540	1	28
366.711	1	25
366.882	1	24
367.053	1	25
367.224	1	17
367.395	1	25
367.566	1	37
367.737	1	23
367.908	1	31
368.078	1	22
368.249	1	33
368.420	1	29
368.591	1	25
368.762	1	28
368.933	1	31
369.104	1	17
369.274	1	39
369.445	1	17
369.616	1	14
369.787	1	28
369.958	1	27
370.129	1	27
370.300	1	20
370.471	1	33
370.641	1	23
370.812	1	33
370.983	1	17
371.154	1	27
371.325	1	27
371.496	1	15
371.667	1	37
371.837	1	29
372.008	1	13
372.179	1	26
372.350	1	32
372.521	1	22
372.692	1	31
372.863	1	21
373.033	1	18
373.204	1	30
373.375	1	21
373.546	1	21
373.717	1	25
373.888	1	27
374.059	1	16
374.229	1	36
374.400	1	26
374.571	1	13
374.742	1	38
374.913	1	24
375.084	1	31
375.254	1	18
375.425	1	30
375.596	1	40
375.767	1	31
375.938	1	17
376.109	1	22
376.279	1	27
376.450	1	32
376.621	1	34
376.792	1	33
376.963	1	23
377.134	1	30
377.304	1	23
377.475	1	17
377.646	1	21
377.817	1	29
377.988	1	34
378.159	1	22
378.329	1	30
378.500	1	36
378.671	1	17
378.842	1	33
379.013	1	24
379.184	1	18
379.354	1	32
379.525	1	28
379.696	1	27
379.867	1	35
380.038	1	30
380.209	1	39
380.379	1	37
380.550	1	18
380.721	1	20
380.892	1	17
381.063	1	36
381.233	1	17
381.404	1	18
381.575	1	34
381.746	1	27
381.917	1	21
382.087	1	35
382.258	1	21
382.429	1	30
382.600	1	24
382.771	1	15
382.941	1	34
383.112	1	25
383.283	1	29
383.454	1	28
383.625	1	30
383.795	1	32
383.966	1	27
384.137	1	42
384.308	1	28
384.479	1	21
384.649	1	34
384.820	1	37
384.991	1	17
385.162	1	37
385.333	1	28
385.503	1	31
385.674	1	34
385.845	1	27
386.016	1	33
386.187	1	20
386.357	1	35
386.528	1	36
386.699	1	26
386.870	1	33
387.041	1	47
387.211	1	33
387.382	1	36
387.553	1	34
387.724	1	23
387.894	1	20
388.065	1	31
388.236	1	32
388.407	1	35
388.578	1	24
388.748	1	41
388.919	1	25
389.090	1	43
389.261	1	37
389.431	1	34
389.602	1	35
389.773	1	31
389.944	1	26
390.114	1	30
390.285	1	36
390.456	1	40
390.627	1	31
390.798	1	35
390.968	1	45
391.139	1	33
391.310	1	31
391.481	1	40
391.651	1	37
391.822	1	42
391.993	1	38
392.164	1	42
392.334	1	31
392.505	1	38
392.676	1	29
392.847	1	34
393.017	1	41
393.188	1	43
393.359	1	38
393.530	1	52
393.700	1	30
393.871	1	44
394.042	1	33
394.213	1	37
394.383	1	23
394.554	1	32
394.725	1	22
394.896	1	31
395.066	1	32
395.237	1	36
395.408	1	43
395.579	1	40
395.749	1	44
395.920	1	39
396.091	1	33
396.262	1	32
396.432	1	24
396.603	1	35
396.774	1	31
396.945	1	38
397.115	1	40
397.286	1	46
397.457	1	31
397.627	1	27
397.798	1	36
397.969	1	36
398.140	1	33
398.310	1	52
398.481	1	34
398.652	1	33
398.823	1	28
398.993	1	35
399.164	1	42
399.335	1	26
399.505	1	29
399.676	1	36
399.847	1	38
400.018	1	32
400.188	1	39
400.359	1	44
400.530	1	34
400.700	1	42
400.871	1	41
401.042	1	36
401.213	1	37
401.383	1	38
401.554	1	35
401.725	1	37
401.895	1	45
402.066	1	48
402.237	1	26
402.408	1	33
402.578	1	49
402.749	1	36
402.920	1	41
403.090	1	29
403.261	1	37
403.432	1	44
403.603	1	38
403.773	1	45
403.944	1	39
404.115	1	35
404.285	1	35
404.456	1	45
404.627	1	44
404.797	1	43
404.968	1	33
405.139	1	40
405.310	1	29
405.480	1	34
405.651	1	32
405.822	1	38
405.992	1	37
406.163	1	29
406.334	1	39
406.504	1	36
406.675	1	29
406.846	1	47
407.016	1	44
407.187	1	37
407.358	1	34
407.528	1	50
407.699	1	48
407.870	1	45
408.041	1	30
408.211	1	39
408.382	1	49
408.553	1	44
408.723	1	52
408.894	1	40
409.065	1	44
409.235	1	39
409.406	1	43
409.577	1	40
409.747	1	32
409.918	1	48
410.089	1	46
410.259	1	33
410.430	1	40
410.601	1	39
410.771	1	41
410.942	1	42
411.113	1	46
411.283	1	35
411.454	1	52
411.625	1	45
411.795	1	44
411.966	1	36
412.137	1	46
412.307	1	42
412.478	1	36
412.649	1	43
412.819	1	42
412.990	1	49
413.161	1	31
413.331	1	46
413.502	1	34
413.672	1	38
413.843	1	33
414.014	1	39
414.184	1	46
414.355	1	35
414.526	1	41
414.696	1	32
414.867	1	32
415.038	1	45
415.208	1	27
415.379	1	32
415.550	1	36
415.720	1	31
415.891	1	43
416.062	1	41
416.232	1	42
416.403	1	46
416.573	1	29
416.744	1	44
416.915	1	43
417.085	1	46
417.256	1	42
417.427	1	34
417.597	1	29
417.768	1	41
417.939	1	33
418.109	1	37
418.280	1	41
418.450	1	53
418.621	1	40
418.792	1	46
418.962	1	29
419.133	1	31
419.304	1	25
419.474	1	36
419.645	1	41
419.815	1	44
419.986	1	44
420.157	1	38
420.327	1	32
420.498	1	36
420.669	1	38
420.839	1	41
421.010	1	51
421.180	1	38
421.351	1	39
421.522	1	35
421.692	1	49
421.863	1	33
422.033	1	34
422.204	1	46
422.375	1	40
422.545	1	39
422.716	1	36
422.886	1	42
423.057	1	35
423.228	1	32
423.398	1	42
423.569	1	30
423.740	1	34
423.910	1	44
424.081	1	48
424.251	1	40
424.422	1	42
424.593	1	39
424.763	1	44
424.934	1	55
425.104	1	45
425.275	1	29
425.445	1	36
425.616	1	45
425.787	1	37
425.957	1	39
426.128	1	38
426.298	1	47
426.469	1	28
426.640	1	31
426.810	1	28
426.981	1	48
427.151	1	36
427.322	1	43
427.493	1	44
427.663	1	40
427.834	1	40
428.004	1	41
428.175	1	26
428.345	1	33
428.516	1	30
428.687	1	40
428.857	1	51
429.028	1	27
429.198	1	41
429.369	1	42
429.540	1	38
429.710	1	41
429.881	1	40
430.051	1	35
430.222	1	42
430.392	1	32
430.563	1	37
430.734	1	37
430.904	1	41
431.075	1	36
431.245	1	25
431.416	1	39
431.586	1	20
431.757	1	48
431.927	1	33
432.098	1	41
432.269	1	36
432.439	1	26
432.610	1	39
432.780	1	35
432.951	1	22
433.121	1	37
433.292	1	49
433.462	1	36
433.633	1	37
433.804	1	42
433.974	1	45
434.145	1	39
434.315	1	44
434.486	1	26
434.656	1	38
434.827	1	43
434.997	1	37
435.168	1	33
435.339	1	56
435.509	1	30
435.680	1	38
435.850	1	35
436.021	1	33
436.191	1	31
436.362	1	41
436.532	1	39
436.703	1	36
436.873	1	28
437.044	1	31
437.214	1	33
437.385	1	37
437.556	1	44
437.726	1	33
437.897	1	25
438.067	1	35
438.238	1	33
438.408	1	39
438.579	1	29
438.749	1	33
438.920	1	35
439.090	1	34
439.261	1	43
439.431	1	21
439.602	1	29
439.772	1	25
439.943	1	24
440.113	1	30
440.284	1	45
440.455	1	34
440.625	1	32
440.796	1	32
440.966	1	37
441.137	1	32
441.307	1	25
441.478	1	21
441.648	1	32
441.819	1	20
441.989	1	42
442.160	1	34
442.330	1	39
442.501	1	26
442.671	1	42
442.842	1	31
443.012	1	24
443.183	1	37
443.353	1	35
443.524	1	37
443.694	1	28
443.865	1	32
444.035	1	32
444.206	1	36
444.376	1	38
444.547	1	31
444.717	1	34
444.888	1	23
445.058	1	32
445.229	1	24
445.399	1	32
445.570	1	38
445.740	1	22
445.911	1	31
446.081	1	34
446.252	1	36
446.422	1	33
446.593	1	35
446.763	1	26
446.934	1	28
447.104	1	28
447.275	1	37
447.445	1	37
447.616	1	25
447.786	1	24
447.957	1	28
448.127	1	28
448.298	1	33
448.468	1	30
448.639	1	28
448.809	1	24
448.979	1	43
449.150	1	34
449.320	1	35
449.491	1	14
449.661	1	20
449.832	1	24
450.002	1	23
450.173	1	37
450.343	1	28
450.514	1	38
450.684	1	26
450.855	1	34
451.025	1	21
451.196	1	25
451.366	1	36
451.537	1	38
451.707	1	40
451.878	1	22
452.048	1	22
452.218	1	35
452.389	1	34
452.559	1	37
452.730	1	28
452.900	1	28
453.071	1	39
453.241	1	29
453.412	1	29
453.582	1	38
453.753	1	18
453.923	1	23
454.093	1	30
454.264	1	26
454.434	1	27
454.605	1	19
454.775	1	31
454.946	1	29
455.116	1	28
455.287	1	25
455.457	1	28
455.628	1	26
455.798	1	34
455.968	1	33
456.139	1	29
456.309	1	26
456.480	1	17
456.650	1	22
456.821	1	20
456.991	1	32
457.161	1	24
457.332	1	33
457.502	1	29
457.673	1	14
457.843	1	26
458.014	1	25
458.184	1	27
458.355	1	33
458.525	1	21
458.695	1	27
458.866	1	21
459.036	1	27
459.207	1	34
459.377	1	28
459.548	1	33
459.718	1	23
459.888	1	22
460.059	1	15
460.229	1	20
460.400	1	19
460.570	1	17
460.740	1	30
460.911	1	12
461.081	1	29
461.252	1	35
461.422	1	12
461.593	1	30
461.763	1	35
461.933	1	20
462.104	1	17
462.274	1	21
462.445	1	17
462.615	1	42
462.785	1	32
462.956	1	7
463.126	1	27
463.297	1	27
463.467	1	26
463.638	1	33
463.808	1	22
463.978	1	11
464.149	1	28
464.319	1	17
464.490	1	14
464.660	1	15
464.830	1	20
465.001	1	18
465.171	1	13
465.342	1	27
465.512	1	19
465.682	1	13
465.853	1	20
466.023	1	27
466.194	1	24
466.364	1	20
466.534	1	23
466.705	1	31
466.875	1	16
467.045	1	19
467.216	1	20
467.386	1	23
467.557	1	35
467.727	1	13
467.897	1	20
468.068	1	16
468.238	1	20
468.409	1	19
468.579	1	25
468.749	1	17
468.920	1	14
469.090	1	36
469.260	1	14
469.431	1	14
469.601	1	21
469.772	1	26
469.942	1	25
470.112	1	9
470.283	1	23
470.453	1	21
470.623	1	22
470.794	1	16
470.964	1	9
471.135	1	27
471.305	1	15
471.475	1	20
471.646	1	24
471.816	1	19
471.986	1	21
472.157	1	11
472.327	1	16
472.497	1	15
472.668	1	26
472.838	1	18
473.009	1	20
473.179	1	12
473.349	1	18
473.520	1	27
473.690	1	16
473.860	1	10
474.031	1	9
474.201	1	18
474.371	1	19
474.542	1	15
474.712	1	17
474.882	1	15
475.053	1	21
475.223	1	25
475.394	1	13
475.564	1	18
475.734	1	19
475.905	1	19
476.075	1	16
476.245	1	27
476.416	1	12
476.586	1	22
476.756	1	20
476.927	1	12
477.097	1	23
477.267	1	14
477.438	1	23
477.608	1	25
477.778	1	12
477.949	1	9
478.119	1	16
478.289	1	9
478.460	1	10
478.630	1	16
478.800	1	6
478.971	1	20
479.141	1	19
479.311	1	17
479.482	1	13
479.652	1	13
479.822	1	11
479.993	1	22
480.163	1	21
480.333	1	17
480.504	1	18
480.674	1	19
480.844	1	11
481.015	1	22
481.185	1	26
481.355	1	25
481.525	1	-2
481.696	1	20
481.866	1	12
482.036	1	13
482.207	1	12
482.377	1	15
482.547	1	14
482.718	1	16
482.888	1	22
483.058	1	19
483.229	1	11
483.399	1	21
483.569	1	12
483.740	1	22
483.910	1	6
484.080	1	11
484.250	1	9
484.421	1	12
484.591	1	16
484.761	1	23
484.932	1	7
485.102	1	21
485.272	1	5
485.443	1	13
485.613	1	7
485.783	1	18
485.953	1	6
486.124	1	11
486.294	1	13
486.464	1	29
486.635	1	20
486.805	1	18
486.975	1	11
487.146	1	16
487.316	1	15
487.486	1	13
487.656	1	10
487.827	1	13
487.997	1	9
488.167	1	16
488.338	1	5
488.508	1	13
488.678	1	8
488.848	1	18
489.019	1	13
489.189	1	20
489.359	1	13
489.529	1	17
489.700	1	14
489.870	1	17
490.040	1	10
490.211	1	9
490.381	1	17
490.551	1	19
490.721	1	8
490.892	1	4
491.062	1	5
491.232	1	9
491.402	1	16
491.573	1	17
491.743	1	18
491.913	1	7
492.084	1	15
492.254	1	13
492.424	1	7
492.594	1	4
492.765	1	9
492.935	1	19
493.105	1	5
493.275	1	7
493.446	1	5
493.616	1	0
493.786	1	17
493.956	1	5
494.127	1	10
494.297	1	-4
494.467	1	13
494.637	1	10
494.808	1	15
494.978	1	16
495.148	1	12
495.318	1	16
495.489	1	5
495.659	1	12
495.829	1	12
495.999	1	21
496.170	1	6
496.340	1	7
496.510	1	28
496.680	1	9
496.851	1	25
497.021	1	14
497.191	1	21
497.361	1	-4
497.532	1	9
497.702	1	14
497.872	1	9
498.042	1	10
498.213	1	10
498.383	1	12
498.553	1	25
498.723	1	3
498.894	1	19
499.064	1	6
499.234	1	14
499.404	1	12
499.574	1	10
499.745	1	14
499.915	1	15
500.085	1	11
500.255	1	-7
500.426	1	0
500.596	1	1
500.766	1	5
500.936	1	5
501.106	1	1
501.277	1	3
501.447	1	14
501.617	1	6
501.787	1	2
501.958	1	16
502.128	1	16
502.298	1	7
502.468	1	3
502.638	1	3
502.809	1	3
502.979	1	11
503.149	1	13
503.319	1	21
503.489	1	-6
503.660	1	5
503.830	1	9
504.000	1	9
504.170	1	7
504.340	1	-7
504.511	1	1
504.681	1	5
504.851	1	9
505.021	1	15
505.192	1	6
505.362	1	9
505.532	1	2
505.702	1	20
505.872	1	5
506.043	1	10
506.213	1	20
506.383	1	13
506.553	1	10
506.723	1	2
506.893	1	12
507.064	1	11
507.234	1	2
507.404	1	6
507.574	1	2
507.744	1	8
507.915	1	5
508.085	1	6
508.255	1	11
508.425	1	11
508.595	1	4
508.766	1	12
508.936	1	19
509.106	1	7
509.276	1	23
509.446	1	-9
509.616	1	0
509.787	1	7
509.957	1	8
510.127	1	5
510.297	1	4
510.467	1	7
510.638	1	10
510.808	1	14
510.978	1	0
511.148	1	13
511.318	1	4
511.488	1	7
511.659	1	1
511.829	1	6
511.999	1	12
512.169	1	14
512.339	1	18
512.509	1	0
512.680	1	12
512.850	1	8
513.020	1	9
513.190	1	-3
513.360	1	7
513.530	1	6
513.700	1	10
513.871	1	7
514.041	1	20
514.211	1	4
514.381	1	17
514.551	1	3
514.721	1	5
514.892	1	4
515.062	1	8
515.232	1	2
515.402	1	6
515.572	1	11
515.742	1	11
515.912	1	9
516.083	1	8
516.253	1	11
516.423	1	2
516.593	1	0
516.763	1	2
516.933	1	4
517.104	1	19
517.274	1	6
517.444	1	5
517.614	1	7
517.784	1	16
517.954	1	5
518.124	1	6
518.294	1	13
518.465	1	10
518.635	1	7
518.805	1	10
518.975	1	16
519.145	1	6
519.315	1	12
519.485	1	6
519.656	1	6
519.826	1	-6
519.996	1	9
520.166	1	4
520.336	1	9
520.506	1	3
520.676	1	5
520.846	1	11
521.017	1	8
521.187	1	2
521.357	1	6
521.527	1	4
521.697	1	-4
521.867	1	18
522.037	1	3
522.207	1	13
522.377	1	9
522.548	1	4
522.718	1	6
522.888	1	17
523.058	1	10
523.228	1	2
523.398	1	3
523.568	1	-6
523.738	1	2
523.909	1	5
524.079	1	3
524.249	1	-11
524.419	1	9
524.589	1	5
524.759	1	11
524.929	1	9
525.099	1	7
525.269	1	5
525.439	1	6
525.610	1	21
525.780	1	3
525.950	1	14
526.120	1	2
526.290	1	1
526.460	1	-6
526.630	1	8
526.800	1	-7
526.970	1	9
527.140	1	8
527.311	1	3
527.481	1	12
527.651	1	8
527.821	1	-6
527.991	1	5
528.161	1	10
528.331	1	-9
528.501	1	8
528.671	1	7
528.841	1	12
529.011	1	5
529.181	1	-3
529.352	1	-2
529.522	1	1
529.692	1	9
529.862	1	3
530.032	1	1
530.202	1	2
530.372	1	8
530.542	1	5
530.712	1	10
530.882	1	8
531.052	1	-1
531.222	1	11
531.392	1	-2
531.563	1	12
531.733	1	0
531.903	1	0
532.073	1	4
532.243	1	7
532.413	1	16
532.583	1	14
532.753	1	4
532.923	1	3
533.093	1	0
533.263	1	0
533.433	1	3
533.603	1	0
533.773	1	5
533.943	1	11
534.113	1	11
534.284	1	15
534.454	1	3
534.624	1	13
534.794	1	3
534.964	1	8
535.134	1	-2
535.304	1	3
535.474	1	7
535.644	1	4
535.814	1	2
535.984	1	9
536.154	1	7
536.324	1	0
536.494	1	8
536.664	1	-1
536.834	1	-2
537.004	1	10
537.174	1	13
537.344	1	7
537.514	1	0
537.685	1	15
537.855	1	6
538.025	1	14
538.195	1	-3
538.365	1	3
538.535	1	2
538.705	1	1
538.875	1	5
539.045	1	1
539.215	1	-5
539.385	1	0
539.555	1	8
539.725	1	13
539.895	1	9
540.065	1	8
540.235	1	1
540.405	1	5
540.575	1	5
540.745	1	10
540.915	1	8
541.085	1	-1
541.255	1	3
541.425	1	9
541.595	1	2
541.765	1	9
541.935	1	-5
542.105	1	2
542.275	1	1
542.445	1	7
542.615	1	8
542.785	1	-1
542.955	1	3
543.125	1	2
543.295	1	3
543.465	1	14
543.635	1	-2
543.805	1	17
543.975	1	0
544.145	1	1
544.315	1	-6
544.485	1	3
544.655	1	11
544.825	1	3
544.995	1	-1
545.165	1	8
545.335	1	5
545.505	1	1
545.675	1	5
545.845	1	11
546.015	1	-4
546.185	1	9
546.355	1	6
546.525	1	8
546.695	1	-5
546.865	1	3
547.035	1	12
547.205	1	9
547.375	1	3
547.545	1	2
547.715	1	3
547.885	1	5
548.055	1	3
548.225	1	17
548.395	1	8
548.565	1	0
548.735	1	-2
548.905	1	-2
549.075	1	4
549.245	1	14
549.415	1	8
549.585	1	4
549.755	1	1
549.925	1	1
550.095	1	-10
550.265	1	5
550.435	1	7
550.605	1	3
550.775	1	-6
550.945	1	-1
551.115	1	9
551.285	1	-5
551.455	1	10
551.625	1	-4
551.795	1	4
551.965	1	-7
552.135	1	-8
552.305	1	2
552.475	1	8
552.645	1	2
552.815	1	9
552.985	1	1
553.155	1	2
553.325	1	5
553.495	1	7
553.665	1	2
553.835	1	2
554.004	1	-2
554.174	1	3
554.344	1	4
554.514	1	2
554.684	1	15
554.854	1	-4
555.024	1	13
555.194	1	8
555.364	1	1
555.534	1	-16
555.704	1	-1
555.874	1	5
556.044	1	2
556.214	1	9
556.384	1	15
556.554	1	7
556.724	1	-1
556.894	1	0
557.064	1	2
557.234	1	-4
557.404	1	1
557.573	1	7
557.743	1	1
557.913	1	-3
558.083	1	5
558.253	1	11
558.423	1	6
558.593	1	3
558.763	1	7
558.933	1	-1
559.103	1	0
559.273	1	17
559.443	1	11
559.613	1	3
559.783	1	-8
559.953	1	-10
560.122	1	5
560.292	1	-10
560.462	1	-9
560.632	1	-8
560.802	1	11
560.972	1	-9
561.142	1	6
561.312	1	-2
561.482	1	18
561.652	1	1
561.822	1	2
561.992	1	4
562.162	1	0
562.331	1	-3
562.501	1	6
562.671	1	-4
562.841	1	-8
563.011	1	5
563.181	1	-4
563.351	1	-4
563.521	1	-3
563.691	1	0
563.861	1	-3
564.031	1	10
564.201	1	1
564.370	1	5
564.540	1	5
564.710	1	0
564.880	1	1
565.050	1	9
565.220	1	9
565.390	1	6
565.560	1	8
565.730	1	6
565.900	1	0
566.069	1	14
566.239	1	11
566.409	1	9
566.579	1	1
566.749	1	-2
566.919	1	-1
567.089	1	-9
567.259	1	6
567.429	1	-14
567.599	1	13
567.768	1	0
567.938	1	4
568.108	1	-2
568.278	1	3
568.448	1	10
568.618	1	6
568.788	1	11
568.958	1	4
569.128	1	1
569.297	1	0
569.467	1	8
569.637	1	-4
569.807	1	2
569.977	1	-1
570.147	1	12
570.317	1	8
570.487	1	2
570.656	1	8
570.826	1	6
570.996	1	15
571.166	1	7
571.336	1	-2
571.506	1	1
571.676	1	0
571.846	1	7
572.015	1	4
572.185	1	7
572.355	1	-9
572.525	1	-2
572.695	1	-3
572.865	1	14
573.035	1	8
573.205	1	4
573.374	1	-2
573.544	1	9
573.714	1	-2
573.884	1	4
574.054	1	-2
574.224	1	2
574.394	1	10
574.563	1	-10
574.733	1	5
574.903	1	5
575.073	1	6
575.243	1	-5
575.413	1	-6
575.583	1	-4
575.752	1	9
575.922	1	12
576.092	1	-8
576.262	1	2
576.432	1	5
576.602	1	1
576.772	1	1
576.941	1	8
577.111	1	-4
577.281	1	-2
577.451	1	9
577.621	1	4
577.791	1	5
577.960	1	-2
578.130	1	-4
578.300	1	3
578.470	1	-2
578.640	1	2
578.810	1	-1
578.979	1	6
579.149	1	-2
579.319	1	5
579.489	1	9
579.659	1	3
579.829	1	0
579.998	1	3
580.168	1	2
580.338	1	0
580.508	1	-4
580.678	1	-3
580.848	1	1
581.017	1	-3
581.187	1	0
581.357	1	5
581.527	1	8
581.697	1	1
581.867	1	1
582.036	1	-2
582.206	1	4
582.376	1	2
582.546	1	-2
582.716	1	0
582.885	1	-2
583.055	1	-9
583.225	1	-3
583.395	1	1
583.565	1	8
583.735	1	0
583.904	1	3
584.074	1	-5
584.244	1	-7
584.414	1	-2
584.584	1	-6
584.753	1	8
584.923	1	3
585.093	1	6
585.263	1	2
585.433	1	-6
585.602	1	4
585.772	1	20
585.942	1	-3
586.112	1	1
586.282	1	5
586.451	1	9
586.621	1	0
586.791	1	-5
586.961	1	-9
587.131	1	-1
587.300	1	11
587.470	1	1
587.640	1	5
587.810	1	-6
587.980	1	4
588.149	1	8
588.319	1	10
588.489	1	4
588.659	1	-5
588.829	1	0
588.998	1	-1
589.168	1	15
589.338	1	-3
589.508	1	9
589.677	1	6
589.847	1	-1
590.017	1	-3
590.187	1	7
590.357	1	1
590.526	1	0
590.696	1	2
590.866	1	1
591.036	1	1
591.205	1	0
591.375	1	2
591.545	1	-2
591.715	1	-2
591.885	1	-3
592.054	1	3
592.224	1	-1
592.394	1	-10
592.564	1	14
592.733	1	3
592.903	1	-2
593.073	1	-3
593.243	1	3
593.412	1	-9
593.582	1	-3
593.752	1	-3
593.922	1	7
594.091	1	9
594.261	1	1
594.431	1	2
594.601	1	-7
594.771	1	2
594.940	1	2
595.110	1	0
595.280	1	-2
595.450	1	9
595.619	1	-1
595.789	1	-7
595.959	1	2
596.129	1	5
596.298	1	17
596.468	1	4
596.638	1	-1
596.808	1	-8
596.977	1	0
597.147	1	-4
597.317	1	9
597.487	1	-3
597.656	1	-1
597.826	1	11
597.996	1	1
598.166	1	7
598.335	1	2
598.505	1	3
598.675	1	-4
598.844	1	12
599.014	1	-13
599.184	1	11
599.354	1	8
599.523	1	3
599.693	1	-1
599.863	1	11
600.033	1	10
600.202	1	-2
600.372	1	-7
600.542	1	4
600.712	1	-2
600.881	1	5
601.051	1	0
601.221	1	12
601.390	1	1
601.560	1	5
601.730	1	7
601.900	1	6
602.069	1	7
602.239	1	-5
602.409	1	3
602.578	1	9
602.748	1	10
602.918	1	0
603.088	1	3
603.257	1	0
603.427	1	2
603.597	1	5
603.767	1	-4
603.936	1	4
604.106	1	4
604.276	1	0
604.445	1	-7
604.615	1	1
604.785	1	7
604.954	1	4
605.124	1	10
605.294	1	-4
605.464	1	2
605.633	1	6
605.803	1	-1
605.973	1	3
606.142	1	4
606.312	1	7
606.482	1	-6
606.652	1	1
606.821	1	2
606.991	1	10
607.161	1	-5
607.330	1	3
607.500	1	1
607.670	1	7
607.839	1	2
608.009	1	-4
608.179	1	8
608.348	1	3
608.518	1	16
608.688	1	2
608.858	1	6
609.027	1	7
609.197	1	2
609.367	1	-6
609.536	1	-7
609.706	1	10
609.876	1	2
610.045	1	4
610.215	1	2
610.385	1	4
610.554	1	-2
610.724	1	6
610.894	1	7
611.063	1	11
611.233	1	5
611.403	1	-1
611.572	1	4
611.742	1	0
611.912	1	5
612.081	1	5
612.251	1	10
612.421	1	5
612.590	1	-6
612.760	1	5
612.930	1	1
613.099	1	6
613.269	1	-5
613.439	1	1
613.608	1	6
613.778	1	11
613.948	1	11
614.117	1	8
614.287	1	-3
614.457	1	7
614.626	1	-5
614.796	1	-3
614.966	1	-5
615.135	1	6
615.305	1	3
615.475	1	1
615.644	1	11
615.814	1	15
615.984	1	-4
616.153	1	-3
616.323	1	-6
616.493	1	3
616.662	1	-1
616.832	1	3
617.002	1	0
617.171	1	5
617.341	1	2
617.511	1	-3
617.680	1	3
617.850	1	2
618.019	1	5
618.189	1	11
618.359	1	7
618.528	1	5
618.698	1	2
618.868	1	-4
619.037	1	4
619.207	1	1
619.377	1	4
619.546	1	7
619.716	1	5
619.885	1	-5
620.055	1	1
620.225	1	5
620.394	1	8
620.564	1	0
620.734	1	3
620.903	1	-7
621.073	1	18
621.242	1	0
621.412	1	2
621.582	1	6
621.751	1	-2
621.921	1	3
622.091	1	-1
622.260	1	9
622.430	1	9
622.599	1	1
622.769	1	-3
622.939	1	2
623.108	1	1
623.278	1	5
623.448	1	-4
623.617	1	-1
623.787	1	3
623.956	1	4
624.126	1	11
624.296	1	8
624.465	1	14
624.635	1	4
624.804	1	-3
624.974	1	-3
625.144	1	0
625.313	1	6
625.483	1	0
625.652	1	0
625.822	1	7
625.992	1	-1
626.161	1	6
626.331	1	-3
626.501	1	-2
626.670	1	3
626.840	1	4
627.009	1	0
627.179	1	2
627.348	1	1
627.518	1	15
627.688	1	1
627.857	1	9
628.027	1	13
628.196	1	13
628.366	1	-6
628.536	1	3
628.705	1	4
628.875	1	-1
629.044	1	3
629.214	1	9
629.384	1	17
629.553	1	3
629.723	1	6
629.892	1	13
630.062	1	4
630.232	1	12
630.401	1	10
630.571	1	7
630.740	1	0
630.910	1	8
631.079	1	5
631.249	1	2
631.419	1	5
631.588	1	6
631.758	1	0
631.927	1	16
632.097	1	-2
632.266	1	10
632.436	1	2
632.606	1	4
632.775	1	3
632.945	1	7
633.114	1	6
633.284	1	0
633.453	1	10
633.623	1	9
633.793	1	8
633.962	1	-1
634.132	1	2
634.301	1	8
634.471	1	8
634.640	1	-2
634.810	1	9
634.979	1	7
635.149	1	-6
635.319	1	5
635.488	1	8
635.658	1	0
635.827	1	-2
635.997	1	5
636.166	1	11
636.336	1	3
636.505	1	7
636.675	1	8
636.845	1	-4
637.014	1	-13
637.184	1	13
637.353	1	-5
637.523	1	0
637.692	1	-1
637.862	1	2
638.031	1	-7
638.201	1	9
638.370	1	7
638.540	1	-2
638.710	1	-1
638.879	1	-4
639.049	1	1
639.218	1	9
639.388	1	5
639.557	1	10
639.727	1	3
639.896	1	-12
640.066	1	-1
640.235	1	2
640.405	1	-1
640.574	1	7
640.744	1	6
640.914	1	14
641.083	1	8
641.253	1	-6
641.422	1	-4
641.592	1	17
641.761	1	-2
641.931	1	8
642.100	1	6
642.270	1	9
642.439	1	6
642.609	1	4
642.778	1	13
642.948	1	10
643.117	1	3
643.287	1	8
643.456	1	7
643.626	1	4
643.795	1	9
643.965	1	9
644.134	1	-1
644.304	1	-4
644.473	1	2
644.643	1	-3
644.812	1	-9
644.982	1	7
645.151	1	-4
645.321	1	13
645.490	1	8
645.660	1	-9
645.829	1	1
645.999	1	-5
646.168	1	19
646.338	1	-5
646.507	1	3
646.677	1	4
646.846	1	5
647.016	1	14
647.185	1	4
647.355	1	12
647.524	1	-4
647.694	1	1
647.863	1	0
648.033	1	-1
648.202	1	9
648.372	1	0
648.541	1	-1
648.711	1	6
648.880	1	11
649.050	1	1
649.219	1	10
649.389	1	4
649.558	1	8
649.728	1	13
649.897	1	16
650.067	1	9
650.236	1	0
650.406	1	4
650.575	1	8
650.745	1	5
650.914	1	9
651.084	1	5
651.253	1	0
651.423	1	-3
651.592	1	10
651.762	1	12
651.931	1	5
652.101	1	-6
652.270	1	1
652.440	1	18
652.609	1	8
652.778	1	9
652.948	1	5
653.117	1	6
653.287	1	-10
653.456	1	2
653.626	1	4
653.795	1	9
653.965	1	3
654.134	1	0
654.304	1	7
654.473	1	7
654.643	1	-2
654.812	1	17
654.982	1	9
655.151	1	9
655.320	1	0
655.490	1	3
655.659	1	13
655.829	1	9
655.998	1	9
656.168	1	9
656.337	1	4
656.507	1	-4
656.676	1	0
656.846	1	-1
657.015	1	6
657.184	1	2
657.354	1	6
657.523	1	12
657.693	1	4
657.862	1	4
658.032	1	0
658.201	1	3
658.371	1	-2
658.540	1	0
658.709	1	16
658.879	1	-7
659.048	1	6
659.218	1	11
659.387	1	9
659.557	1	-1
659.726	1	-1
659.895	1	-1
660.065	1	1
660.234	1	0
660.404	1	3
660.573	1	-3
660.743	1	5
660.912	1	4
661.081	1	0
661.251	1	-4
661.420	1	15
661.590	1	0
661.759	1	15
661.929	1	4
662.098	1	11
662.267	1	0
662.437	1	14
662.606	1	-3
662.776	1	4
662.945	1	14
663.115	1	10
663.284	1	8
663.453	1	9
663.623	1	7
663.792	1	15
663.962	1	6
664.131	1	4
664.300	1	4
664.470	1	-5
664.639	1	4
664.809	1	5
664.978	1	16
665.148	1	11
665.317	1	9
665.486	1	7
665.656	1	9
665.825	1	12
665.995	1	-1
666.164	1	2
666.333	1	-5
666.503	1	-5
666.672	1	1
666.842	1	10
667.011	1	15
667.180	1	-7
667.350	1	13
667.519	1	10
667.689	1	8
667.858	1	10
668.027	1	5
668.197	1	-3
668.366	1	4
668.536	1	3
668.705	1	-6
668.874	1	20
669.044	1	8
669.213	1	12
669.382	1	4
669.552	1	8
669.721	1	1
669.891	1	5
670.060	1	-4
670.229	1	11
670.399	1	11
670.568	1	13
670.738	1	-3
670.907	1	8
671.076	1	12
671.246	1	6
671.415	1	4
671.584	1	6
671.754	1	-2
671.923	1	2
672.093	1	13
672.262	1	4
672.431	1	14
672.601	1	6
672.770	1	5
672.939	1	9
673.109	1	3
673.278	1	4
673.448	1	8
673.617	1	7
673.786	1	1
