325.333	1	1
325.504	1	-2
325.675	1	3
325.846	1	-6
326.017	1	4
326.188	1	-4
326.359	1	7
326.531	1	-12
326.702	1	7
326.873	1	-1
327.044	1	17
327.215	1	0
327.386	1	6
327.557	1	-2
327.728	1	-3
327.899	1	-8
328.070	1	9
328.241	1	-7
328.412	1	6
328.583	1	1
328.754	1	9
328.926	1	12
329.097	1	3
329.268	1	8
329.439	1	4
329.610	1	5
329.781	1	0
329.952	1	5
330.123	1	-3
330.294	1	-4
330.465	1	-11
330.636	1	5
330.807	1	2
330.978	1	-6
331.149	1	2
331.320	1	4
331.492	1	0
331.663	1	-6
331.834	1	10
332.005	1	0
332.176	1	12
332.347	1	0
332.518	1	12
332.689	1	-2
332.860	1	-2
333.031	1	10
333.202	1	-5
333.373	1	2
333.544	1	2
333.715	1	1
333.886	1	9
334.057	1	-2
334.228	1	4
334.399	1	7
334.570	1	4
334.741	1	-5
334.912	1	2
335.084	1	6
335.255	1	8
335.426	1	0
335.597	1	-11
335.768	1	0
335.939	1	7
336.110	1	1
336.281	1	-2
336.452	1	9
336.623	1	-11
336.794	1	-4
336.965	1	-4
337.136	1	7
337.307	1	-2
337.478	1	-4
337.649	1	2
337.820	1	-4
337.991	1	-1
338.162	1	-4
338.333	1	7
338.504	1	4
338.675	1	-1
338.846	1	-11
339.017	1	-1
339.188	1	0
339.359	1	7
339.530	1	4
339.701	1	0
339.872	1	12
340.043	1	7
340.214	1	3
340.385	1	-13
340.556	1	-1
340.727	1	2
340.898	1	10
341.069	1	5
341.240	1	0
341.411	1	3
341.582	1	-4
341.753	1	3
341.924	1	6
342.095	1	-6
342.266	1	1
342.437	1	-2
342.608	1	-3
342.779	1	1
342.950	1	-2
343.121	1	10
343.292	1	1
343.463	1	14
343.634	1	-1
343.805	1	6
343.976	1	5
344.147	1	15
344.318	1	-8
344.489	1	-3
344.660	1	0
344.831	1	10
345.002	1	-1
345.173	1	0
345.344	1	-4
345.515	1	10
345.686	1	5
345.857	1	5
346.028	1	6
346.199	1	1
346.370	1	4
346.541	1	-4
346.712	1	-2
346.883	1	-5
347.054	1	11
347.225	1	-11
347.396	1	-1
347.567	1	-12
347.738	1	4
347.909	1	2
348.080	1	9
348.251	1	4
348.422	1	11
348.593	1	6
348.764	1	-6
348.935	1	0
349.106	1	4
349.277	1	-2
349.448	1	1
349.619	1	-3
349.790	1	3
349.961	1	-12
350.132	1	6
350.303	1	-2
350.474	1	-4
350.645	1	-5
350.816	1	-2
350.987	1	12
351.157	1	-8
351.328	1	-9
351.499	1	6
351.670	1	2
351.841	1	0
352.012	1	-3
352.183	1	4
352.354	1	-6
352.525	1	1
352.696	1	-4
352.867	1	9
353.038	1	-3
353.209	1	2
353.380	1	0
353.551	1	4
353.722	1	3
353.893	1	4
354.064	1	-1
354.235	1	-12
354.406	1	-8
354.576	1	-5
354.747	1	-1
354.918	1	2
355.089	1	1
355.260	1	2
355.431	1	-3
355.602	1	4
355.773	1	-1
355.944	1	2
356.115	1	3
356.286	1	11
356.457	1	-5
356.628	1	-3
356.799	1	-1
356.970	1	11
357.141	1	1
357.311	1	10
357.482	1	-4
357.653	1	-3
357.824	1	-6
357.995	1	13
358.166	1	-3
358.337	1	4
358.508	1	14
358.679	1	-7
358.850	1	13
359.021	1	2
359.192	1	6
359.363	1	-8
359.533	1	5
359.704	1	0
359.875	1	8
360.046	1	2
360.217	1	8
360.388	1	6
360.559	1	12
360.730	1	-11
360.901	1	1
361.072	1	6
361.243	1	-5
361.414	1	5
361.584	1	-10
361.755	1	-3
361.926	1	6
362.097	1	4
362.268	1	11
362.439	1	-2
362.610	1	8
362.781	1	-12
362.952	1	-2
363.123	1	-4
363.293	1	5
363.464	1	-1
363.635	1	9
363.806	1	5
363.977	1	3
364.148	1	4
364.319	1	2
364.490	1	5
364.661	1	1
364.832	1	2
365.002	1	9
365.173	1	2
365.344	1	0
365.515	1	-4
365.686	1	8
365.857	1	3
366.028	1	3
366.199	1	4
366.370	1	-3
366.540	1	1
366.711	1	6
366.882	1	5
367.053	1	-4
367.224	1	-1
367.395	1	-1
367.566	1	-2
367.737	1	-10
367.908	1	5
368.078	1	0
368.249	1	3
368.420	1	-5
368.591	1	-2
368.762	1	3
368.933	1	-3
369.104	1	7
369.274	1	9
369.445	1	3
369.616	1	-6
369.787	1	-8
369.958	1	8
370.129	1	2
370.300	1	-1
370.471	1	5
370.641	1	-3
370.812	1	0
370.983	1	-14
371.154	1	2
371.325	1	0
371.496	1	1
371.667	1	5
371.837	1	4
372.008	1	-5
372.179	1	2
372.350	1	-3
372.521	1	3
372.692	1	11
372.863	1	3
373.033	1	6
373.204	1	-3
373.375	1	-8
373.546	1	7
373.717	1	2
373.888	1	1
374.059	1	-2
374.229	1	1
374.400	1	2
374.571	1	-10
374.742	1	2
374.913	1	-13
375.084	1	-1
375.254	1	-3
375.425	1	4
375.596	1	0
375.767	1	3
375.938	1	-5
376.109	1	-4
376.279	1	-6
376.450	1	2
376.621	1	8
376.792	1	4
376.963	1	1
377.134	1	-6
377.304	1	0
377.475	1	-8
377.646	1	-5
377.817	1	8
377.988	1	-2
378.159	1	7
378.329	1	1
378.500	1	10
378.671	1	-2
378.842	1	6
379.013	1	-1
379.184	1	0
379.354	1	0
379.525	1	5
379.696	1	9
379.867	1	12
380.038	1	0
380.209	1	7
380.379	1	2
380.550	1	-5
380.721	1	-6
380.892	1	1
381.063	1	1
381.233	1	2
381.404	1	0
381.575	1	-7
381.746	1	-2
381.917	1	-4
382.087	1	12
382.258	1	10
382.429	1	-4
382.600	1	-4
382.771	1	1
382.941	1	3
383.112	1	-2
383.283	1	-4
383.454	1	-5
383.625	1	2
383.795	1	-2
383.966	1	12
384.137	1	10
384.308	1	5
384.479	1	6
384.649	1	2
384.820	1	-3
384.991	1	0
385.162	1	7
385.333	1	-2
385.503	1	1
385.674	1	2
385.845	1	2
386.016	1	10
386.187	1	-8
386.357	1	14
386.528	1	-7
386.699	1	2
386.870	1	3
387.041	1	8
387.211	1	-12
387.382	1	0
387.553	1	10
387.724	1	-8
387.894	1	-3
388.065	1	-1
388.236	1	4
388.407	1	-5
388.578	1	3
388.748	1	7
388.919	1	-3
389.090	1	6
389.261	1	11
389.431	1	-6
389.602	1	6
389.773	1	-9
389.944	1	7
390.114	1	-1
390.285	1	9
390.456	1	1
390.627	1	-7
390.798	1	-5
390.968	1	-6
391.139	1	-5
391.310	1	-5
391.481	1	7
391.651	1	13
391.822	1	10
391.993	1	-10
392.164	1	1
392.334	1	-3
392.505	1	6
392.676	1	-11
392.847	1	-1
393.017	1	-7
393.188	1	2
393.359	1	17
393.530	1	11
393.700	1	-3
393.871	1	4
394.042	1	8
394.213	1	3
394.383	1	-5
394.554	1	0
394.725	1	-10
394.896	1	18
395.066	1	1
395.237	1	-1
395.408	1	1
395.579	1	7
395.749	1	8
395.920	1	8
396.091	1	1
396.262	1	6
396.432	1	-14
396.603	1	4
396.774	1	1
396.945	1	8
397.115	1	2
397.286	1	1
397.457	1	1
397.627	1	-5
397.798	1	7
397.969	1	-5
398.140	1	-9
398.310	1	8
398.481	1	-2
398.652	1	5
398.823	1	-2
398.993	1	0
399.164	1	6
399.335	1	-10
399.505	1	-6
399.676	1	-7
399.847	1	-5
400.018	1	-9
400.188	1	3
400.359	1	4
400.530	1	3
400.700	1	-7
400.871	1	15
401.042	1	-4
401.213	1	7
401.383	1	0
401.554	1	2
401.725	1	-6
401.895	1	-4
402.066	1	-1
402.237	1	4
402.408	1	2
402.578	1	10
402.749	1	-8
402.920	1	0
403.090	1	-7
403.261	1	-3
403.432	1	9
403.603	1	-3
403.773	1	12
403.944	1	6
404.115	1	2
404.285	1	13
404.456	1	7
404.627	1	4
404.797	1	-5
404.968	1	1
405.139	1	4
405.310	1	3
405.480	1	-2
405.651	1	2
405.822	1	-8
405.992	1	10
406.163	1	-7
406.334	1	0
406.504	1	-3
406.675	1	5
406.846	1	0
407.016	1	6
407.187	1	-4
407.358	1	-5
407.528	1	-5
407.699	1	13
407.870	1	11
408.041	1	7
408.211	1	5
408.382	1	2
408.553	1	10
408.723	1	-2
408.894	1	2
409.065	1	-4
409.235	1	1
409.406	1	-4
409.577	1	5
409.747	1	7
409.918	1	8
410.089	1	3
410.259	1	-8
410.430	1	-9
410.601	1	12
410.771	1	4
410.942	1	-2
411.113	1	-4
411.283	1	2
411.454	1	10
411.625	1	10
411.795	1	7
411.966	1	-3
412.137	1	8
412.307	1	12
412.478	1	-3
412.649	1	0
412.819	1	3
412.990	1	1
413.161	1	-10
413.331	1	-10
413.502	1	-3
413.672	1	0
413.843	1	-2
414.014	1	-3
414.184	1	9
414.355	1	6
414.526	1	-1
414.696	1	-5
414.867	1	-3
415.038	1	-12
415.208	1	-6
415.379	1	0
415.550	1	9
415.720	1	-4
415.891	1	9
416.062	1	6
416.232	1	4
416.403	1	3
416.573	1	-3
416.744	1	4
416.915	1	-6
417.085	1	6
417.256	1	6
417.427	1	6
417.597	1	0
417.768	1	-1
417.939	1	-16
418.109	1	-8
418.280	1	5
418.450	1	7
418.621	1	6
418.792	1	-6
418.962	1	1
419.133	1	2
419.304	1	5
419.474	1	5
419.645	1	-7
419.815	1	-1
419.986	1	7
420.157	1	2
420.327	1	1
420.498	1	-7
420.669	1	4
420.839	1	8
421.010	1	-3
421.180	1	-3
421.351	1	-4
421.522	1	9
421.692	1	8
421.863	1	8
422.033	1	7
422.204	1	7
422.375	1	0
422.545	1	5
422.716	1	-5
422.886	1	-4
423.057	1	2
423.228	1	1
423.398	1	6
423.569	1	1
423.740	1	-4
423.910	1	5
424.081	1	6
424.251	1	-8
424.422	1	2
424.593	1	-2
424.763	1	9
424.934	1	8
425.104	1	13
425.275	1	5
425.445	1	8
425.616	1	-1
425.787	1	-6
425.957	1	-1
426.128	1	1
426.298	1	5
426.469	1	-8
426.640	1	4
426.810	1	-12
426.981	1	11
427.151	1	-5
427.322	1	2
427.493	1	-2
427.663	1	10
427.834	1	-2
428.004	1	5
428.175	1	4
428.345	1	-9
428.516	1	-5
428.687	1	16
428.857	1	8
429.028	1	4
429.198	1	3
429.369	1	0
429.540	1	1
429.710	1	5
429.881	1	-8
430.051	1	-4
430.222	1	-2
430.392	1	-1
430.563	1	1
430.734	1	-7
430.904	1	5
431.075	1	3
431.245	1	7
431.416	1	2
431.586	1	-3
431.757	1	-1
431.927	1	6
432.098	1	-5
432.269	1	-6
432.439	1	-8
432.610	1	8
432.780	1	0
432.951	1	-2
433.121	1	-2
433.292	1	3
433.462	1	-6
433.633	1	-9
433.804	1	7
433.974	1	9
434.145	1	6
434.315	1	-10
434.486	1	-4
434.656	1	10
434.827	1	3
434.997	1	-2
435.168	1	-5
435.339	1	4
435.509	1	-19
435.680	1	13
435.850	1	-10
436.021	1	-4
436.191	1	-1
436.362	1	3
436.532	1	6
436.703	1	-7
436.873	1	-7
437.044	1	2
437.214	1	-14
437.385	1	5
437.556	1	9
437.726	1	4
437.897	1	-9
438.067	1	-6
438.238	1	9
438.408	1	4
438.579	1	-5
438.749	1	1
438.920	1	10
439.090	1	-4
439.261	1	4
439.431	1	-12
439.602	1	-3
439.772	1	6
439.943	1	-3
440.113	1	-2
440.284	1	3
440.455	1	2
440.625	1	5
440.796	1	-6
440.966	1	6
441.137	1	0
441.307	1	9
441.478	1	-2
441.648	1	0
441.819	1	0
441.989	1	9
442.160	1	0
442.330	1	9
442.501	1	-1
442.671	1	-1
442.842	1	-2
443.012	1	3
443.183	1	8
443.353	1	-1
443.524	1	4
443.694	1	-7
443.865	1	15
444.035	1	-1
444.206	1	-1
444.376	1	9
444.547	1	-1
444.717	1	-5
444.888	1	4
445.058	1	3
445.229	1	-4
445.399	1	3
445.570	1	1
445.740	1	-4
445.911	1	8
446.081	1	-1
446.252	1	1
446.422	1	5
446.593	1	6
446.763	1	-1
446.934	1	-1
447.104	1	6
447.275	1	1
447.445	1	6
447.616	1	0
447.786	1	-3
447.957	1	-1
448.127	1	-6
448.298	1	1
448.468	1	-4
448.639	1	-2
448.809	1	-7
448.979	1	10
449.150	1	-7
449.320	1	1
449.491	1	-11
449.661	1	0
449.832	1	-4
450.002	1	6
450.173	1	7
450.343	1	-5
450.514	1	2
450.684	1	6
450.855	1	1
451.025	1	0
451.196	1	-8
451.366	1	8
451.537	1	7
451.707	1	4
451.878	1	-2
452.048	1	-2
452.218	1	-2
452.389	1	6
452.559	1	11
452.730	1	1
452.900	1	-6
453.071	1	5
453.241	1	8
453.412	1	3
453.582	1	1
453.753	1	5
453.923	1	-10
454.093	1	-1
454.264	1	5
454.434	1	1
454.605	1	0
454.775	1	8
454.946	1	-4
455.116	1	6
455.287	1	-5
455.457	1	9
455.628	1	-4
455.798	1	0
455.968	1	-5
456.139	1	6
456.309	1	-5
456.480	1	0
456.650	1	5
456.821	1	-3
456.991	1	7
457.161	1	-8
457.332	1	3
457.502	1	-4
457.673	1	-1
457.843	1	-5
458.014	1	6
458.184	1	9
458.355	1	1
458.525	1	-3
458.695	1	1
458.866	1	-1
459.036	1	2
459.207	1	2
459.377	1	-8
459.548	1	4
459.718	1	4
459.888	1	-5
460.059	1	1
460.229	1	-4
460.400	1	0
460.570	1	-4
460.740	1	2
460.911	1	-5
461.081	1	4
461.252	1	3
461.422	1	-9
461.593	1	6
461.763	1	9
461.933	1	-1
462.104	1	-8
462.274	1	-2
462.445	1	-3
462.615	1	9
462.785	1	3
462.956	1	-2
463.126	1	0
463.297	1	4
463.467	1	10
463.638	1	5
463.808	1	4
463.978	1	-9
464.149	1	-8
464.319	1	4
464.490	1	-1
464.660	1	2
464.830	1	-2
465.001	1	-1
465.171	1	-3
465.342	1	-7
465.512	1	1
465.682	1	2
465.853	1	3
466.023	1	12
466.194	1	9
466.364	1	8
466.534	1	-11
466.705	1	8
466.875	1	-10
467.045	1	-5
467.216	1	5
467.386	1	6
467.557	1	7
467.727	1	-2
467.897	1	4
468.068	1	-1
468.238	1	4
468.409	1	1
468.579	1	6
468.749	1	9
468.920	1	-1
469.090	1	0
469.260	1	2
469.431	1	-5
469.601	1	12
469.772	1	20
469.942	1	6
470.112	1	-1
470.283	1	4
470.453	1	1
470.623	1	6
470.794	1	9
470.964	1	-12
471.135	1	15
471.305	1	-1
471.475	1	3
471.646	1	4
471.816	1	3
471.986	1	2
472.157	1	7
472.327	1	0
472.497	1	0
472.668	1	-2
472.838	1	-1
473.009	1	1
473.179	1	3
473.349	1	-13
473.520	1	7
473.690	1	8
473.860	1	-6
474.031	1	-9
474.201	1	1
474.371	1	0
474.542	1	4
474.712	1	2
474.882	1	7
475.053	1	2
475.223	1	8
475.394	1	1
475.564	1	-3
475.734	1	-12
475.905	1	-1
476.075	1	4
476.245	1	-2
476.416	1	1
476.586	1	8
476.756	1	0
476.927	1	-4
477.097	1	2
477.267	1	-4
477.438	1	7
477.608	1	10
477.778	1	0
477.949	1	-6
478.119	1	1
478.289	1	-3
478.460	1	1
478.630	1	2
478.800	1	-3
478.971	1	-5
479.141	1	6
479.311	1	-1
479.482	1	-3
479.652	1	2
479.822	1	-6
479.993	1	-2
480.163	1	3
480.333	1	5
480.504	1	8
480.674	1	-1
480.844	1	6
481.015	1	7
481.185	1	15
481.355	1	-2
481.525	1	-4
481.696	1	-2
481.866	1	4
482.036	1	-2
482.207	1	5
482.377	1	4
482.547	1	11
482.718	1	3
482.888	1	-5
483.058	1	14
483.229	1	3
483.399	1	7
483.569	1	0
483.740	1	7
483.910	1	-6
484.080	1	-4
484.250	1	7
484.421	1	6
484.591	1	0
484.761	1	11
484.932	1	2
485.102	1	-1
485.272	1	-4
485.443	1	-2
485.613	1	2
485.783	1	2
485.953	1	1
486.124	1	0
486.294	1	13
486.464	1	11
486.635	1	6
486.805	1	0
486.975	1	-8
487.146	1	10
487.316	1	-2
487.486	1	10
487.656	1	-5
487.827	1	5
487.997	1	-9
488.167	1	16
488.338	1	-7
488.508	1	6
488.678	1	-3
488.848	1	4
489.019	1	-3
489.189	1	9
489.359	1	-2
489.529	1	6
489.700	1	1
489.870	1	15
490.040	1	2
490.211	1	-7
490.381	1	4
490.551	1	8
490.721	1	0
490.892	1	-8
491.062	1	-5
491.232	1	-1
491.402	1	8
491.573	1	6
491.743	1	6
491.913	1	0
492.084	1	-3
492.254	1	-12
492.424	1	0
492.594	1	1
492.765	1	-1
492.935	1	12
493.105	1	1
493.275	1	2
493.446	1	-6
493.616	1	-5
493.786	1	-2
493.956	1	-2
494.127	1	-7
494.297	1	-10
494.467	1	-5
494.637	1	-4
494.808	1	2
494.978	1	0
495.148	1	8
495.318	1	7
495.489	1	-7
495.659	1	7
495.829	1	2
495.999	1	5
496.170	1	0
496.340	1	-3
496.510	1	6
496.680	1	-3
496.851	1	14
497.021	1	-2
497.191	1	10
497.361	1	-15
497.532	1	2
497.702	1	4
497.872	1	2
498.042	1	1
498.213	1	-3
498.383	1	-1
498.553	1	7
498.723	1	1
498.894	1	7
499.064	1	1
499.234	1	3
499.404	1	3
499.574	1	8
499.745	1	3
499.915	1	1
500.085	1	-4
500.255	1	-18
500.426	1	-1
500.596	1	-7
500.766	1	0
500.936	1	-6
501.106	1	-1
501.277	1	-9
501.447	1	6
501.617	1	2
501.787	1	0
501.958	1	8
502.128	1	4
502.298	1	4
502.468	1	1
502.638	1	15
502.809	1	-5
502.979	1	5
503.149	1	2
503.319	1	3
503.489	1	-15
503.660	1	4
503.830	1	3
504.000	1	3
504.170	1	1
504.340	1	-9
504.511	1	-8
504.681	1	-2
504.851	1	-4
505.021	1	3
505.192	1	1
505.362	1	6
505.532	1	0
505.702	1	16
505.872	1	9
506.043	1	6
506.213	1	1
506.383	1	6
506.553	1	-2
506.723	1	-4
506.893	1	5
507.064	1	10
507.234	1	-8
507.404	1	-10
507.574	1	-7
507.744	1	11
507.915	1	9
508.085	1	7
508.255	1	4
508.425	1	0
508.595	1	-1
508.766	1	-3
508.936	1	4
509.106	1	0
509.276	1	5
509.446	1	-3
509.616	1	0
509.787	1	-2
509.957	1	5
510.127	1	-2
510.297	1	0
510.467	1	1
510.638	1	2
510.808	1	7
510.978	1	-6
511.148	1	-1
511.318	1	5
511.488	1	6
511.659	1	5
511.829	1	-2
511.999	1	1
512.169	1	-8
512.339	1	14
512.509	1	-6
512.680	1	-3
512.850	1	7
513.020	1	12
513.190	1	-5
513.360	1	4
513.530	1	1
513.700	1	-4
513.871	1	-9
514.041	1	4
514.211	1	4
514.381	1	3
514.551	1	-4
514.721	1	2
514.892	1	1
515.062	1	0
515.232	1	-7
515.402	1	7
515.572	1	0
515.742	1	0
515.912	1	0
516.083	1	6
516.253	1	5
516.423	1	3
516.593	1	-4
516.763	1	9
516.933	1	-4
517.104	1	8
517.274	1	-6
517.444	1	13
517.614	1	-2
517.784	1	-3
517.954	1	-5
518.124	1	-2
518.294	1	8
518.465	1	-1
518.635	1	7
518.805	1	-1
518.975	1	6
519.145	1	-10
519.315	1	-2
519.485	1	-7
519.656	1	2
519.826	1	-7
519.996	1	3
520.166	1	1
520.336	1	8
520.506	1	6
520.676	1	13
520.846	1	3
521.017	1	-6
521.187	1	6
521.357	1	-4
521.527	1	-3
521.697	1	-5
521.867	1	9
522.037	1	-3
522.207	1	4
522.377	1	11
522.548	1	-8
522.718	1	-5
522.888	1	-2
523.058	1	3
523.228	1	-5
523.398	1	1
523.568	1	-2
523.738	1	3
523.909	1	-1
524.079	1	3
524.249	1	-9
524.419	1	11
524.589	1	2
524.759	1	12
524.929	1	-1
525.099	1	2
525.269	1	-7
525.439	1	-7
525.610	1	16
525.780	1	3
525.950	1	-2
526.120	1	-5
526.290	1	-3
526.460	1	1
526.630	1	4
526.800	1	-2
526.970	1	12
527.140	1	-4
527.311	1	1
527.481	1	13
527.651	1	2
527.821	1	0
527.991	1	-3
528.161	1	10
528.331	1	-4
528.501	1	2
528.671	1	-2
528.841	1	5
529.011	1	-8
529.181	1	3
529.352	1	-9
529.522	1	1
529.692	1	6
529.862	1	-1
530.032	1	-3
530.202	1	4
530.372	1	3
530.542	1	-5
530.712	1	10
530.882	1	8
531.052	1	-1
531.222	1	6
531.392	1	-2
531.563	1	5
531.733	1	-2
531.903	1	3
532.073	1	3
532.243	1	11
532.413	1	16
532.583	1	1
532.753	1	-4
532.923	1	4
533.093	1	2
533.263	1	3
533.433	1	-7
533.603	1	-1
533.773	1	-4
533.943	1	-1
534.113	1	3
534.284	1	2
534.454	1	-3
534.624	1	5
534.794	1	8
534.964	1	8
535.134	1	-6
535.304	1	9
535.474	1	4
535.644	1	3
535.814	1	3
535.984	1	4
536.154	1	7
536.324	1	-2
536.494	1	7
536.664	1	5
536.834	1	-1
537.004	1	7
537.174	1	1
537.344	1	10
537.514	1	-6
537.685	1	11
537.855	1	5
538.025	1	6
538.195	1	-6
538.365	1	5
538.535	1	5
538.705	1	1
538.875	1	9
539.045	1	7
539.215	1	-9
539.385	1	2
539.555	1	-2
539.725	1	9
539.895	1	7
540.065	1	-1
540.235	1	2
540.405	1	3
540.575	1	3
540.745	1	5
540.915	1	-3
541.085	1	-7
541.255	1	3
541.425	1	-8
541.595	1	-1
541.765	1	4
541.935	1	-1
542.105	1	3
542.275	1	-3
542.445	1	6
542.615	1	7
542.785	1	-2
542.955	1	5
543.125	1	-4
543.295	1	-2
543.465	1	9
543.635	1	-6
543.805	1	6
543.975	1	-1
544.145	1	4
544.315	1	-12
544.485	1	-6
544.655	1	4
544.825	1	6
544.995	1	7
545.165	1	4
545.335	1	6
545.505	1	3
545.675	1	6
545.845	1	8
546.015	1	-12
546.185	1	1
546.355	1	-2
546.525	1	12
546.695	1	-2
546.865	1	1
547.035	1	-1
547.205	1	10
547.375	1	11
547.545	1	1
547.715	1	2
547.885	1	-10
548.055	1	-5
548.225	1	11
548.395	1	11
548.565	1	2
548.735	1	-4
548.905	1	9
549.075	1	12
549.245	1	1
549.415	1	3
549.585	1	-1
549.755	1	3
549.925	1	0
550.095	1	0
550.265	1	7
550.435	1	5
550.605	1	1
550.775	1	-2
550.945	1	5
551.115	1	6
551.285	1	0
551.455	1	3
551.625	1	-11
551.795	1	-3
551.965	1	-7
552.135	1	-1
552.305	1	13
552.475	1	1
552.645	1	-8
552.815	1	-3
552.985	1	-4
553.155	1	-4
553.325	1	2
553.495	1	-1
553.665	1	2
553.835	1	1
554.004	1	8
554.174	1	0
554.344	1	8
554.514	1	-5
554.684	1	9
554.854	1	-12
555.024	1	14
555.194	1	2
555.364	1	-4
555.534	1	-6
555.704	1	12
555.874	1	9
556.044	1	7
556.214	1	-2
556.384	1	9
556.554	1	4
556.724	1	0
556.894	1	-3
557.064	1	-6
557.234	1	2
557.404	1	0
557.573	1	7
557.743	1	-8
557.913	1	0
558.083	1	11
558.253	1	1
558.423	1	-3
558.593	1	-1
558.763	1	-1
558.933	1	-5
559.103	1	1
559.273	1	6
559.443	1	11
559.613	1	-2
559.783	1	3
559.953	1	-6
560.122	1	6
560.292	1	-12
560.462	1	6
560.632	1	-12
560.802	1	-11
560.972	1	2
561.142	1	9
561.312	1	1
561.482	1	6
561.652	1	3
561.822	1	-4
561.992	1	0
562.162	1	-4
562.331	1	-7
562.501	1	0
562.671	1	4
562.841	1	-5
563.011	1	9
563.181	1	0
563.351	1	-7
563.521	1	-4
563.691	1	3
563.861	1	1
564.031	1	-2
564.201	1	3
564.370	1	8
564.540	1	7
564.710	1	-7
564.880	1	2
565.050	1	4
565.220	1	11
565.390	1	-1
565.560	1	8
565.730	1	8
565.900	1	18
566.069	1	14
566.239	1	6
566.409	1	8
566.579	1	8
566.749	1	-6
566.919	1	-16
567.089	1	-11
567.259	1	1
567.429	1	2
567.599	1	15
567.768	1	-1
567.938	1	8
568.108	1	0
568.278	1	5
568.448	1	-4
568.618	1	1
568.788	1	-1
568.958	1	0
569.128	1	8
569.297	1	-3
569.467	1	12
569.637	1	7
569.807	1	-6
569.977	1	-2
570.147	1	6
570.317	1	-3
570.487	1	-6
570.656	1	10
570.826	1	11
570.996	1	9
571.166	1	-9
571.336	1	0
571.506	1	-14
571.676	1	4
571.846	1	7
572.015	1	-1
572.185	1	1
572.355	1	-1
572.525	1	-8
572.695	1	3
572.865	1	2
573.035	1	5
573.205	1	-1
573.374	1	-4
573.544	1	-3
573.714	1	-3
573.884	1	2
574.054	1	2
574.224	1	2
574.394	1	1
574.563	1	2
574.733	1	-1
574.903	1	-1
575.073	1	-6
575.243	1	-10
575.413	1	0
575.583	1	-10
575.752	1	6
575.922	1	9
576.092	1	-1
576.262	1	4
576.432	1	-3
576.602	1	7
576.772	1	-3
576.941	1	0
577.111	1	0
577.281	1	12
577.451	1	9
577.621	1	3
577.791	1	7
577.960	1	4
578.130	1	4
578.300	1	1
578.470	1	-1
578.640	1	4
578.810	1	-10
578.979	1	2
579.149	1	2
579.319	1	3
579.489	1	15
579.659	1	0
579.829	1	4
579.998	1	-7
580.168	1	-9
580.338	1	4
580.508	1	3
580.678	1	2
580.848	1	-1
581.017	1	-1
581.187	1	7
581.357	1	9
581.527	1	7
581.697	1	3
581.867	1	1
582.036	1	-10
582.206	1	7
582.376	1	6
582.546	1	-7
582.716	1	10
582.885	1	-2
583.055	1	-1
583.225	1	-5
583.395	1	5
583.565	1	8
583.735	1	3
583.904	1	0
584.074	1	-1
584.244	1	-1
584.414	1	5
584.584	1	5
584.753	1	0
584.923	1	-2
585.093	1	-1
585.263	1	2
585.433	1	-1
585.602	1	2
585.772	1	17
585.942	1	-2
586.112	1	-4
586.282	1	3
586.451	1	10
586.621	1	0
586.791	1	-9
586.961	1	-9
587.131	1	4
587.300	1	8
587.470	1	-1
587.640	1	6
587.810	1	-9
587.980	1	2
588.149	1	0
588.319	1	9
588.489	1	4
588.659	1	2
588.829	1	-1
588.998	1	-2
589.168	1	-4
589.338	1	5
589.508	1	6
589.677	1	0
589.847	1	9
590.017	1	-12
590.187	1	-1
590.357	1	-2
590.526	1	-5
590.696	1	0
590.866	1	-10
591.036	1	-4
591.205	1	6
591.375	1	16
591.545	1	-3
591.715	1	2
591.885	1	3
592.054	1	4
592.224	1	4
592.394	1	-9
592.564	1	4
592.733	1	-4
592.903	1	-6
593.073	1	-1
593.243	1	8
593.412	1	-10
593.582	1	-3
593.752	1	-7
593.922	1	0
594.091	1	3
594.261	1	-5
594.431	1	-1
594.601	1	-2
594.771	1	0
594.940	1	-3
595.110	1	5
595.280	1	0
595.450	1	-4
595.619	1	4
595.789	1	-9
595.959	1	0
596.129	1	1
596.298	1	10
596.468	1	-5
596.638	1	-2
596.808	1	-9
596.977	1	-2
597.147	1	6
597.317	1	1
597.487	1	2
597.656	1	1
597.826	1	1
597.996	1	-5
598.166	1	3
598.335	1	-4
598.505	1	8
598.675	1	7
598.844	1	6
599.014	1	-6
599.184	1	3
599.354	1	9
599.523	1	-4
599.693	1	5
599.863	1	5
600.033	1	1
600.202	1	-2
600.372	1	6
600.542	1	-1
600.712	1	-6
600.881	1	0
601.051	1	11
601.221	1	2
601.390	1	3
601.560	1	12
601.730	1	3
601.900	1	4
602.069	1	0
602.239	1	7
602.409	1	3
602.578	1	10
602.748	1	10
602.918	1	-4
603.088	1	1
603.257	1	-6
603.427	1	4
603.597	1	-1
603.767	1	3
603.936	1	8
604.106	1	-6
604.276	1	-9
604.445	1	-6
604.615	1	-4
604.785	1	3
604.954	1	-3
605.124	1	4
605.294	1	3
605.464	1	-1
605.633	1	0
605.803	1	5
605.973	1	1
606.142	1	-1
606.312	1	7
606.482	1	-1
606.652	1	4
606.821	1	-1
606.991	1	4
607.161	1	4
607.330	1	-2
607.500	1	2
607.670	1	2
607.839	1	-6
608.009	1	3
608.179	1	0
608.348	1	3
608.518	1	9
608.688	1	2
608.858	1	-5
609.027	1	5
609.197	1	-2
609.367	1	0
609.536	1	-8
609.706	1	7
609.876	1	1
610.045	1	9
610.215	1	0
610.385	1	6
610.554	1	8
610.724	1	-1
610.894	1	0
611.063	1	7
611.233	1	9
611.403	1	0
611.572	1	2
611.742	1	-9
611.912	1	8
612.081	1	9
612.251	1	1
612.421	1	15
612.590	1	3
612.760	1	-4
612.930	1	2
613.099	1	10
613.269	1	-4
613.439	1	-10
613.608	1	6
613.778	1	1
613.948	1	10
614.117	1	2
614.287	1	5
614.457	1	3
614.626	1	6
614.796	1	0
614.966	1	-1
615.135	1	10
615.305	1	4
615.475	1	6
615.644	1	11
615.814	1	8
615.984	1	-9
616.153	1	-1
616.323	1	1
616.493	1	-3
616.662	1	0
616.832	1	-1
617.002	1	-4
617.171	1	-5
617.341	1	4
617.511	1	-13
617.680	1	-3
617.850	1	-3
618.019	1	-5
618.189	1	10
618.359	1	3
618.528	1	-2
618.698	1	2
618.868	1	-3
619.037	1	0
619.207	1	-5
619.377	1	2
619.546	1	15
619.716	1	2
619.885	1	-1
620.055	1	-13
620.225	1	10
620.394	1	6
620.564	1	0
620.734	1	-8
620.903	1	-11
621.073	1	4
621.242	1	7
621.412	1	2
621.582	1	8
621.751	1	-10
621.921	1	6
622.091	1	2
622.260	1	7
622.430	1	3
622.599	1	-5
622.769	1	-7
622.939	1	-6
623.108	1	8
623.278	1	-3
623.448	1	8
623.617	1	7
623.787	1	7
623.956	1	11
624.126	1	-3
624.296	1	3
624.465	1	5
624.635	1	3
624.804	1	-6
624.974	1	-8
625.144	1	6
625.313	1	11
625.483	1	6
625.652	1	-1
625.822	1	-2
625.992	1	-2
626.161	1	2
626.331	1	-5
626.501	1	3
626.670	1	-7
626.840	1	2
627.009	1	3
627.179	1	-2
627.348	1	6
627.518	1	9
627.688	1	-4
627.857	1	4
628.027	1	8
628.196	1	8
628.366	1	-6
628.536	1	-3
628.705	1	-8
628.875	1	-7
629.044	1	-3
629.214	1	13
629.384	1	2
629.553	1	0
629.723	1	4
629.892	1	1
630.062	1	3
630.232	1	10
630.401	1	3
630.571	1	-6
630.740	1	-8
630.910	1	14
631.079	1	2
631.249	1	5
631.419	1	4
631.588	1	0
631.758	1	-5
631.927	1	9
632.097	1	1
632.266	1	14
632.436	1	1
632.606	1	-1
632.775	1	-4
632.945	1	3
633.114	1	-4
633.284	1	-14
633.453	1	9
633.623	1	10
633.793	1	-1
633.962	1	1
634.132	1	1
634.301	1	11
634.471	1	3
634.640	1	-3
634.810	1	13
634.979	1	0
635.149	1	2
635.319	1	-7
635.488	1	-1
635.658	1	-3
635.827	1	-4
635.997	1	11
636.166	1	4
636.336	1	0
636.505	1	3
636.675	1	4
636.845	1	-2
637.014	1	-12
637.184	1	1
637.353	1	-4
637.523	1	1
637.692	1	0
637.862	1	-3
638.031	1	-3
638.201	1	3
638.370	1	9
638.540	1	-1
638.710	1	-4
638.879	1	-3
639.049	1	-4
639.218	1	5
639.388	1	-1
639.557	1	5
639.727	1	6
639.896	1	1
640.066	1	6
640.235	1	12
640.405	1	3
640.574	1	10
640.744	1	4
640.914	1	1
641.083	1	-1
641.253	1	-3
641.422	1	-2
641.592	1	7
641.761	1	1
641.931	1	13
642.100	1	0
642.270	1	7
642.439	1	2
642.609	1	1
642.778	1	-6
642.948	1	14
643.117	1	6
643.287	1	3
643.456	1	-4
643.626	1	1
643.795	1	0
643.965	1	3
644.134	1	-2
644.304	1	-2
644.473	1	-1
644.643	1	2
644.812	1	0
644.982	1	6
645.151	1	1
645.321	1	14
645.490	1	12
645.660	1	0
645.829	1	-1
645.999	1	-9
646.168	1	19
646.338	1	-11
646.507	1	3
646.677	1	5
646.846	1	10
647.016	1	2
647.185	1	4
647.355	1	14
647.524	1	-6
647.694	1	-10
647.863	1	-11
648.033	1	0
648.202	1	6
648.372	1	-8
648.541	1	2
648.711	1	-5
648.880	1	8
649.050	1	11
649.219	1	11
649.389	1	-7
649.558	1	13
649.728	1	-1
649.897	1	6
650.067	1	1
650.236	1	-1
650.406	1	-1
650.575	1	8
650.745	1	10
650.914	1	11
651.084	1	1
651.253	1	7
651.423	1	-8
651.592	1	-6
651.762	1	0
651.931	1	0
652.101	1	-9
652.270	1	-5
652.440	1	0
652.609	1	11
652.778	1	6
652.948	1	-1
653.117	1	-3
653.287	1	-13
653.456	1	-3
653.626	1	3
653.795	1	-3
653.965	1	-6
654.134	1	1
654.304	1	6
654.473	1	0
654.643	1	-5
654.812	1	11
654.982	1	7
655.151	1	2
655.320	1	-1
655.490	1	-8
655.659	1	5
655.829	1	10
655.998	1	4
656.168	1	-2
656.337	1	2
656.507	1	-4
656.676	1	-2
656.846	1	2
657.015	1	11
657.184	1	-3
657.354	1	0
657.523	1	-7
657.693	1	5
657.862	1	0
658.032	1	0
658.201	1	-9
658.371	1	-6
658.540	1	-8
658.709	1	1
658.879	1	9
659.048	1	1
659.218	1	-2
659.387	1	4
659.557	1	5
659.726	1	-4
659.895	1	3
660.065	1	-2
660.234	1	1
660.404	1	-1
660.573	1	2
660.743	1	5
660.912	1	2
661.081	1	-3
661.251	1	-9
661.420	1	1
661.590	1	1
661.759	1	0
661.929	1	1
662.098	1	6
662.267	1	-7
662.437	1	-5
662.606	1	0
662.776	1	14
662.945	1	6
663.115	1	15
663.284	1	4
663.453	1	-3
663.623	1	-4
663.792	1	11
663.962	1	8
664.131	1	-1
664.300	1	1
664.470	1	-4
664.639	1	3
664.809	1	1
664.978	1	16
665.148	1	4
665.317	1	0
665.486	1	6
665.656	1	-4
665.825	1	8
665.995	1	-4
666.164	1	1
666.333	1	-2
666.503	1	-7
666.672	1	-5
666.842	1	8
667.011	1	0
667.180	1	-1
667.350	1	6
667.519	1	4
667.689	1	3
667.858	1	8
668.027	1	-5
668.197	1	-12
668.366	1	-1
668.536	1	3
668.705	1	-2
668.874	1	9
669.044	1	3
669.213	1	7
669.382	1	5
669.552	1	-3
669.721	1	0
669.891	1	-2
670.060	1	-1
670.229	1	4
670.399	1	8
670.568	1	6
670.738	1	-1
670.907	1	4
671.076	1	2
671.246	1	8
671.415	1	5
671.584	1	-6
671.754	1	-18
671.923	1	-4
672.093	1	-1
672.262	1	-6
672.431	1	2
672.601	1	2
672.770	1	6
672.939	1	8
673.109	1	-5
673.278	1	2
673.448	1	3
673.617	1	-1
673.786	1	-11
