325.333	1	15
325.504	1	10
325.675	1	22
325.846	1	14
326.017	1	19
326.188	1	22
326.359	1	23
326.531	1	15
326.702	1	26
326.873	1	31
327.044	1	29
327.215	1	22
327.386	1	26
327.557	1	16
327.728	1	23
327.899	1	26
328.070	1	24
328.241	1	23
328.412	1	28
328.583	1	27
328.754	1	39
328.926	1	34
329.097	1	15
329.268	1	34
329.439	1	32
329.610	1	33
329.781	1	32
329.952	1	26
330.123	1	28
330.294	1	24
330.465	1	19
330.636	1	28
330.807	1	28
330.978	1	28
331.149	1	35
331.320	1	24
331.492	1	20
331.663	1	28
331.834	1	32
332.005	1	49
332.176	1	26
332.347	1	26
332.518	1	36
332.689	1	25
332.860	1	25
333.031	1	34
333.202	1	39
333.373	1	38
333.544	1	43
333.715	1	34
333.886	1	32
334.057	1	21
334.228	1	35
334.399	1	38
334.570	1	36
334.741	1	25
334.912	1	30
335.084	1	41
335.255	1	40
335.426	1	43
335.597	1	33
335.768	1	42
335.939	1	48
336.110	1	41
336.281	1	42
336.452	1	49
336.623	1	43
336.794	1	42
336.965	1	35
337.136	1	49
337.307	1	31
337.478	1	44
337.649	1	34
337.820	1	37
337.991	1	39
338.162	1	42
338.333	1	46
338.504	1	46
338.675	1	39
338.846	1	32
339.017	1	47
339.188	1	48
339.359	1	49
339.530	1	36
339.701	1	39
339.872	1	59
340.043	1	47
340.214	1	51
340.385	1	36
340.556	1	52
340.727	1	47
340.898	1	51
341.069	1	43
341.240	1	35
341.411	1	49
341.582	1	43
341.753	1	46
341.924	1	54
342.095	1	46
342.266	1	47
342.437	1	57
342.608	1	45
342.779	1	51
342.950	1	42
343.121	1	56
343.292	1	54
343.463	1	61
343.634	1	44
343.805	1	56
343.976	1	66
344.147	1	56
344.318	1	50
344.489	1	47
344.660	1	54
344.831	1	73
345.002	1	46
345.173	1	55
345.344	1	53
345.515	1	51
345.686	1	53
345.857	1	61
346.028	1	61
346.199	1	57
346.370	1	58
346.541	1	60
346.712	1	56
346.883	1	54
347.054	1	75
347.225	1	54
347.396	1	53
347.567	1	51
347.738	1	64
347.909	1	59
348.080	1	59
348.251	1	55
348.422	1	66
348.593	1	69
348.764	1	63
348.935	1	78
349.106	1	46
349.277	1	56
349.448	1	62
349.619	1	70
349.790	1	77
349.961	1	67
350.132	1	74
350.303	1	65
350.474	1	67
350.645	1	71
350.816	1	76
350.987	1	74
351.157	1	74
351.328	1	58
351.499	1	76
351.670	1	64
351.841	1	80
352.012	1	73
352.183	1	78
352.354	1	57
352.525	1	76
352.696	1	72
352.867	1	68
353.038	1	76
353.209	1	68
353.380	1	71
353.551	1	68
353.722	1	63
353.893	1	68
354.064	1	79
354.235	1	65
354.406	1	65
354.576	1	71
354.747	1	74
354.918	1	66
355.089	1	76
355.260	1	78
355.431	1	70
355.602	1	75
355.773	1	76
355.944	1	69
356.115	1	72
356.286	1	79
356.457	1	82
356.628	1	76
356.799	1	74
356.970	1	83
357.141	1	77
357.311	1	86
357.482	1	67
357.653	1	69
357.824	1	85
357.995	1	95
358.166	1	80
358.337	1	78
358.508	1	83
358.679	1	76
358.850	1	97
359.021	1	96
359.192	1	83
359.363	1	92
359.533	1	74
359.704	1	80
359.875	1	83
360.046	1	82
360.217	1	78
360.388	1	97
360.559	1	82
360.730	1	80
360.901	1	90
361.072	1	88
361.243	1	81
361.414	1	91
361.584	1	77
361.755	1	90
361.926	1	84
362.097	1	80
362.268	1	96
362.439	1	80
362.610	1	87
362.781	1	80
362.952	1	88
363.123	1	83
363.293	1	75
363.464	1	80
363.635	1	91
363.806	1	86
363.977	1	81
364.148	1	85
364.319	1	81
364.490	1	96
364.661	1	90
364.832	1	93
365.002	1	94
365.173	1	88
365.344	1	84
365.515	1	93
365.686	1	91
365.857	1	94
366.028	1	99
366.199	1	102
366.370	1	89
366.540	1	84
366.711	1	92
366.882	1	95
367.053	1	91
367.224	1	103
367.395	1	92
367.566	1	103
367.737	1	92
367.908	1	98
368.078	1	86
368.249	1	100
368.420	1	104
368.591	1	104
368.762	1	94
368.933	1	90
369.104	1	97
369.274	1	97
369.445	1	106
369.616	1	90
369.787	1	92
369.958	1	97
370.129	1	91
370.300	1	87
370.471	1	92
370.641	1	96
370.812	1	108
370.983	1	90
371.154	1	92
371.325	1	93
371.496	1	98
371.667	1	106
371.837	1	83
372.008	1	89
372.179	1	98
372.350	1	95
372.521	1	98
372.692	1	96
372.863	1	98
373.033	1	92
373.204	1	95
373.375	1	94
373.546	1	102
373.717	1	95
373.888	1	101
374.059	1	91
374.229	1	108
374.400	1	103
374.571	1	95
374.742	1	93
374.913	1	83
375.084	1	98
375.254	1	92
375.425	1	102
375.596	1	94
375.767	1	107
375.938	1	84
376.109	1	97
376.279	1	100
376.450	1	104
376.621	1	110
376.792	1	104
376.963	1	97
377.134	1	96
377.304	1	107
377.475	1	86
377.646	1	107
377.817	1	105
377.988	1	114
378.159	1	113
378.329	1	107
378.500	1	109
378.671	1	109
378.842	1	106
379.013	1	108
379.184	1	96
379.354	1	110
379.525	1	102
379.696	1	111
379.867	1	109
380.038	1	112
380.209	1	119
380.379	1	111
380.550	1	94
380.721	1	109
380.892	1	98
381.063	1	103
381.233	1	114
381.404	1	112
381.575	1	93
381.746	1	110
381.917	1	116
382.087	1	106
382.258	1	110
382.429	1	108
382.600	1	103
382.771	1	107
382.941	1	114
383.112	1	101
383.283	1	122
383.454	1	103
383.625	1	113
383.795	1	123
383.966	1	123
384.137	1	124
384.308	1	119
384.479	1	110
384.649	1	115
384.820	1	131
384.991	1	106
385.162	1	131
385.333	1	122
385.503	1	119
385.674	1	102
385.845	1	130
386.016	1	129
386.187	1	120
386.357	1	127
386.528	1	120
386.699	1	118
386.870	1	122
387.041	1	133
387.211	1	127
387.382	1	143
387.553	1	125
387.724	1	116
387.894	1	121
388.065	1	128
388.236	1	130
388.407	1	103
388.578	1	127
388.748	1	115
388.919	1	120
389.090	1	140
389.261	1	140
389.431	1	112
389.602	1	133
389.773	1	132
389.944	1	117
390.114	1	131
390.285	1	129
390.456	1	124
390.627	1	121
390.798	1	123
390.968	1	131
391.139	1	138
391.310	1	116
391.481	1	125
391.651	1	124
391.822	1	107
391.993	1	130
392.164	1	116
392.334	1	111
392.505	1	126
392.676	1	109
392.847	1	132
393.017	1	131
393.188	1	137
393.359	1	132
393.530	1	136
393.700	1	125
393.871	1	136
394.042	1	120
394.213	1	139
394.383	1	144
394.554	1	126
394.725	1	123
394.896	1	145
395.066	1	126
395.237	1	136
395.408	1	132
395.579	1	133
395.749	1	146
395.920	1	144
396.091	1	134
396.262	1	132
396.432	1	132
396.603	1	137
396.774	1	125
396.945	1	142
397.115	1	138
397.286	1	148
397.457	1	126
397.627	1	126
397.798	1	130
397.969	1	137
398.140	1	130
398.310	1	146
398.481	1	136
398.652	1	130
398.823	1	134
398.993	1	141
399.164	1	150
399.335	1	145
399.505	1	130
399.676	1	142
399.847	1	135
400.018	1	131
400.188	1	136
400.359	1	149
400.530	1	135
400.700	1	134
400.871	1	133
401.042	1	128
401.213	1	133
401.383	1	135
401.554	1	129
401.725	1	133
401.895	1	120
402.066	1	138
402.237	1	142
402.408	1	146
402.578	1	137
402.749	1	135
402.920	1	147
403.090	1	128
403.261	1	125
403.432	1	137
403.603	1	142
403.773	1	144
403.944	1	150
404.115	1	140
404.285	1	144
404.456	1	151
404.627	1	138
404.797	1	142
404.968	1	140
405.139	1	137
405.310	1	135
405.480	1	145
405.651	1	131
405.822	1	145
405.992	1	143
406.163	1	138
406.334	1	145
406.504	1	159
406.675	1	139
406.846	1	144
407.016	1	154
407.187	1	152
407.358	1	137
407.528	1	158
407.699	1	145
407.870	1	169
408.041	1	145
408.211	1	156
408.382	1	172
408.553	1	164
408.723	1	159
408.894	1	148
409.065	1	152
409.235	1	151
409.406	1	143
409.577	1	135
409.747	1	145
409.918	1	158
410.089	1	165
410.259	1	144
410.430	1	149
410.601	1	154
410.771	1	156
410.942	1	150
411.113	1	161
411.283	1	150
411.454	1	155
411.625	1	154
411.795	1	146
411.966	1	130
412.137	1	162
412.307	1	151
412.478	1	153
412.649	1	136
412.819	1	155
412.990	1	153
413.161	1	133
413.331	1	136
413.502	1	135
413.672	1	132
413.843	1	147
414.014	1	138
414.184	1	137
414.355	1	137
414.526	1	144
414.696	1	145
414.867	1	142
415.038	1	138
415.208	1	130
415.379	1	134
415.550	1	141
415.720	1	141
415.891	1	146
416.062	1	142
416.232	1	143
416.403	1	153
416.573	1	142
416.744	1	169
416.915	1	139
417.085	1	151
417.256	1	144
417.427	1	137
417.597	1	134
417.768	1	140
417.939	1	148
418.109	1	143
418.280	1	141
418.450	1	152
418.621	1	146
418.792	1	138
418.962	1	142
419.133	1	141
419.304	1	144
419.474	1	146
419.645	1	135
419.815	1	134
419.986	1	158
420.157	1	147
420.327	1	133
420.498	1	136
420.669	1	159
420.839	1	147
421.010	1	146
421.180	1	118
421.351	1	139
421.522	1	132
421.692	1	145
421.863	1	148
422.033	1	132
422.204	1	140
422.375	1	139
422.545	1	154
422.716	1	139
422.886	1	136
423.057	1	138
423.228	1	121
423.398	1	140
423.569	1	141
423.740	1	134
423.910	1	139
424.081	1	134
424.251	1	133
424.422	1	138
424.593	1	135
424.763	1	138
424.934	1	144
425.104	1	148
425.275	1	117
425.445	1	143
425.616	1	128
425.787	1	134
425.957	1	121
426.128	1	129
426.298	1	131
426.469	1	119
426.640	1	128
426.810	1	125
426.981	1	133
427.151	1	136
427.322	1	147
427.493	1	120
427.663	1	129
427.834	1	135
428.004	1	141
428.175	1	136
428.345	1	129
428.516	1	128
428.687	1	150
428.857	1	138
429.028	1	120
429.198	1	130
429.369	1	145
429.540	1	142
429.710	1	137
429.881	1	127
430.051	1	130
430.222	1	137
430.392	1	132
430.563	1	129
430.734	1	136
430.904	1	130
431.075	1	138
431.245	1	124
431.416	1	125
431.586	1	130
431.757	1	136
431.927	1	145
432.098	1	137
432.269	1	128
432.439	1	121
432.610	1	127
432.780	1	133
432.951	1	133
433.121	1	133
433.292	1	143
433.462	1	133
433.633	1	131
433.804	1	130
433.974	1	129
434.145	1	133
434.315	1	119
434.486	1	127
434.656	1	140
434.827	1	127
434.997	1	134
435.168	1	131
435.339	1	140
435.509	1	131
435.680	1	124
435.850	1	114
436.021	1	121
436.191	1	123
436.362	1	123
436.532	1	131
436.703	1	125
436.873	1	115
437.044	1	132
437.214	1	131
437.385	1	118
437.556	1	123
437.726	1	126
437.897	1	114
438.067	1	133
438.238	1	119
438.408	1	124
438.579	1	109
438.749	1	117
438.920	1	133
439.090	1	110
439.261	1	121
439.431	1	97
439.602	1	115
439.772	1	121
439.943	1	116
440.113	1	110
440.284	1	124
440.455	1	123
440.625	1	110
440.796	1	118
440.966	1	119
441.137	1	113
441.307	1	110
441.478	1	102
441.648	1	106
441.819	1	117
441.989	1	117
442.160	1	116
442.330	1	116
442.501	1	107
442.671	1	115
442.842	1	111
443.012	1	112
443.183	1	114
443.353	1	113
443.524	1	115
443.694	1	113
443.865	1	119
444.035	1	114
444.206	1	103
444.376	1	115
444.547	1	109
444.717	1	106
444.888	1	101
445.058	1	104
445.229	1	111
445.399	1	119
445.570	1	111
445.740	1	116
445.911	1	117
446.081	1	117
446.252	1	106
446.422	1	107
446.593	1	110
446.763	1	114
446.934	1	108
447.104	1	105
447.275	1	109
447.445	1	120
447.616	1	115
447.786	1	108
447.957	1	105
448.127	1	113
448.298	1	108
448.468	1	117
448.639	1	105
448.809	1	99
448.979	1	122
449.150	1	101
449.320	1	107
449.491	1	99
449.661	1	103
449.832	1	96
450.002	1	102
450.173	1	104
450.343	1	101
450.514	1	105
450.684	1	100
450.855	1	114
451.025	1	94
451.196	1	89
451.366	1	118
451.537	1	111
451.707	1	117
451.878	1	99
452.048	1	95
452.218	1	109
452.389	1	115
452.559	1	112
452.730	1	93
452.900	1	88
453.071	1	102
453.241	1	104
453.412	1	104
453.582	1	103
453.753	1	105
453.923	1	98
454.093	1	91
454.264	1	102
454.434	1	95
454.605	1	84
454.775	1	97
454.946	1	85
455.116	1	106
455.287	1	80
455.457	1	94
455.628	1	87
455.798	1	106
455.968	1	93
456.139	1	96
456.309	1	96
456.480	1	90
456.650	1	96
456.821	1	85
456.991	1	92
457.161	1	97
457.332	1	92
457.502	1	91
457.673	1	91
457.843	1	83
458.014	1	87
458.184	1	94
458.355	1	92
458.525	1	91
458.695	1	81
458.866	1	84
459.036	1	99
459.207	1	91
459.377	1	90
459.548	1	91
459.718	1	92
459.888	1	88
460.059	1	94
460.229	1	85
460.400	1	89
460.570	1	81
460.740	1	100
460.911	1	90
461.081	1	88
461.252	1	100
461.422	1	86
461.593	1	95
461.763	1	102
461.933	1	81
462.104	1	80
462.274	1	91
462.445	1	95
462.615	1	86
462.785	1	87
462.956	1	81
463.126	1	87
463.297	1	95
463.467	1	101
463.638	1	87
463.808	1	83
463.978	1	71
464.149	1	84
464.319	1	87
464.490	1	84
464.660	1	58
464.830	1	74
465.001	1	87
465.171	1	73
465.342	1	75
465.512	1	87
465.682	1	76
465.853	1	81
466.023	1	84
466.194	1	88
466.364	1	87
466.534	1	71
466.705	1	81
466.875	1	66
467.045	1	62
467.216	1	85
467.386	1	83
467.557	1	86
467.727	1	74
467.897	1	68
468.068	1	67
468.238	1	83
468.409	1	76
468.579	1	85
468.749	1	75
468.920	1	83
469.090	1	81
469.260	1	77
469.431	1	75
469.601	1	73
469.772	1	80
469.942	1	84
470.112	1	68
470.283	1	69
470.453	1	71
470.623	1	72
470.794	1	74
470.964	1	57
471.135	1	79
471.305	1	73
471.475	1	66
471.646	1	84
471.816	1	75
471.986	1	71
472.157	1	77
472.327	1	78
472.497	1	80
472.668	1	70
472.838	1	66
473.009	1	62
473.179	1	60
473.349	1	62
473.520	1	81
473.690	1	69
473.860	1	62
474.031	1	54
474.201	1	62
474.371	1	75
474.542	1	68
474.712	1	69
474.882	1	67
475.053	1	63
475.223	1	64
475.394	1	62
475.564	1	67
475.734	1	68
475.905	1	66
476.075	1	76
476.245	1	75
476.416	1	60
476.586	1	62
476.756	1	60
476.927	1	64
477.097	1	60
477.267	1	76
477.438	1	81
477.608	1	78
477.778	1	56
477.949	1	66
478.119	1	72
478.289	1	62
478.460	1	63
478.630	1	65
478.800	1	67
478.971	1	69
479.141	1	65
479.311	1	66
479.482	1	65
479.652	1	78
479.822	1	55
479.993	1	65
480.163	1	63
480.333	1	79
480.504	1	63
480.674	1	59
480.844	1	59
481.015	1	70
481.185	1	75
481.355	1	67
481.525	1	53
481.696	1	62
481.866	1	64
482.036	1	60
482.207	1	62
482.377	1	63
482.547	1	68
482.718	1	65
482.888	1	75
483.058	1	56
483.229	1	61
483.399	1	64
483.569	1	47
483.740	1	51
483.910	1	50
484.080	1	56
484.250	1	45
484.421	1	56
484.591	1	57
484.761	1	61
484.932	1	41
485.102	1	59
485.272	1	63
485.443	1	59
485.613	1	55
485.783	1	58
485.953	1	55
486.124	1	62
486.294	1	62
486.464	1	60
486.635	1	53
486.805	1	57
486.975	1	44
487.146	1	59
487.316	1	60
487.486	1	61
487.656	1	63
487.827	1	51
487.997	1	50
488.167	1	54
488.338	1	40
488.508	1	60
488.678	1	46
488.848	1	52
489.019	1	41
489.189	1	65
489.359	1	44
489.529	1	55
489.700	1	56
489.870	1	69
490.040	1	50
490.211	1	43
490.381	1	49
490.551	1	57
490.721	1	56
490.892	1	54
491.062	1	50
491.232	1	58
491.402	1	49
491.573	1	52
491.743	1	53
491.913	1	52
492.084	1	50
492.254	1	48
492.424	1	49
492.594	1	51
492.765	1	53
492.935	1	57
493.105	1	54
493.275	1	41
493.446	1	43
493.616	1	48
493.786	1	54
493.956	1	55
494.127	1	50
494.297	1	33
494.467	1	45
494.637	1	43
494.808	1	46
494.978	1	51
495.148	1	43
495.318	1	43
495.489	1	48
495.659	1	59
495.829	1	47
495.999	1	45
496.170	1	44
496.340	1	35
496.510	1	43
496.680	1	37
496.851	1	57
497.021	1	50
497.191	1	45
497.361	1	36
497.532	1	56
497.702	1	49
497.872	1	47
498.042	1	39
498.213	1	35
498.383	1	42
498.553	1	57
498.723	1	42
498.894	1	41
499.064	1	34
499.234	1	54
499.404	1	46
499.574	1	48
499.745	1	39
499.915	1	49
500.085	1	48
500.255	1	36
500.426	1	39
500.596	1	32
500.766	1	37
500.936	1	38
501.106	1	46
501.277	1	36
501.447	1	49
501.617	1	37
501.787	1	43
501.958	1	43
502.128	1	39
502.298	1	39
502.468	1	45
502.638	1	31
502.809	1	32
502.979	1	44
503.149	1	43
503.319	1	50
503.489	1	25
503.660	1	35
503.830	1	40
504.000	1	34
504.170	1	33
504.340	1	24
504.511	1	36
504.681	1	32
504.851	1	34
505.021	1	36
505.192	1	33
505.362	1	22
505.532	1	26
505.702	1	49
505.872	1	32
506.043	1	40
506.213	1	54
506.383	1	40
506.553	1	45
506.723	1	26
506.893	1	37
507.064	1	48
507.234	1	34
507.404	1	36
507.574	1	37
507.744	1	40
507.915	1	38
508.085	1	28
508.255	1	38
508.425	1	29
508.595	1	35
508.766	1	29
508.936	1	40
509.106	1	37
509.276	1	40
509.446	1	30
509.616	1	37
509.787	1	30
509.957	1	35
510.127	1	32
510.297	1	28
510.467	1	28
510.638	1	32
510.808	1	39
510.978	1	33
511.148	1	34
511.318	1	41
511.488	1	45
511.659	1	43
511.829	1	31
511.999	1	42
512.169	1	39
512.339	1	42
512.509	1	22
512.680	1	37
512.850	1	40
513.020	1	28
513.190	1	27
513.360	1	29
513.530	1	34
513.700	1	44
513.871	1	27
514.041	1	39
514.211	1	36
514.381	1	30
514.551	1	29
514.721	1	39
514.892	1	22
515.062	1	26
515.232	1	28
515.402	1	38
515.572	1	42
515.742	1	31
515.912	1	28
516.083	1	41
516.253	1	46
516.423	1	22
516.593	1	31
516.763	1	36
516.933	1	30
517.104	1	31
517.274	1	33
517.444	1	25
517.614	1	30
517.784	1	26
517.954	1	32
518.124	1	31
518.294	1	33
518.465	1	33
518.635	1	38
518.805	1	27
518.975	1	39
519.145	1	27
519.315	1	39
519.485	1	21
519.656	1	27
519.826	1	23
519.996	1	35
520.166	1	15
520.336	1	26
520.506	1	31
520.676	1	29
520.846	1	31
521.017	1	35
521.187	1	39
521.357	1	26
521.527	1	28
521.697	1	26
521.867	1	35
522.037	1	23
522.207	1	34
522.377	1	33
522.548	1	11
522.718	1	32
522.888	1	23
523.058	1	30
523.228	1	17
523.398	1	12
523.568	1	13
523.738	1	31
523.909	1	17
524.079	1	24
524.249	1	25
524.419	1	28
524.589	1	39
524.759	1	32
524.929	1	29
525.099	1	13
525.269	1	27
525.439	1	19
525.610	1	32
525.780	1	32
525.950	1	19
526.120	1	18
526.290	1	22
526.460	1	14
526.630	1	26
526.800	1	24
526.970	1	31
527.140	1	25
527.311	1	23
527.481	1	33
527.651	1	31
527.821	1	13
527.991	1	24
528.161	1	24
528.331	1	24
528.501	1	27
528.671	1	17
528.841	1	26
529.011	1	25
529.181	1	21
529.352	1	28
529.522	1	15
529.692	1	16
529.862	1	24
530.032	1	20
530.202	1	16
530.372	1	30
530.542	1	25
530.712	1	24
530.882	1	27
531.052	1	37
531.222	1	24
531.392	1	23
531.563	1	25
531.733	1	22
531.903	1	23
532.073	1	19
532.243	1	28
532.413	1	44
532.583	1	21
532.753	1	15
532.923	1	27
533.093	1	16
533.263	1	20
533.433	1	20
533.603	1	23
533.773	1	16
533.943	1	27
534.113	1	24
534.284	1	27
534.454	1	23
534.624	1	10
534.794	1	31
534.964	1	27
535.134	1	4
535.304	1	23
535.474	1	25
535.644	1	23
535.814	1	14
535.984	1	22
536.154	1	17
536.324	1	7
536.494	1	21
536.664	1	17
536.834	1	24
537.004	1	9
537.174	1	16
537.344	1	37
537.514	1	20
537.685	1	25
537.855	1	20
538.025	1	37
538.195	1	20
538.365	1	20
538.535	1	24
538.705	1	31
538.875	1	24
539.045	1	17
539.215	1	10
539.385	1	22
539.555	1	16
539.725	1	22
539.895	1	17
540.065	1	20
540.235	1	9
540.405	1	18
540.575	1	18
540.745	1	20
540.915	1	16
541.085	1	13
541.255	1	13
541.425	1	14
541.595	1	15
541.765	1	17
541.935	1	7
542.105	1	9
542.275	1	14
542.445	1	22
542.615	1	15
542.785	1	6
542.955	1	21
543.125	1	16
543.295	1	18
543.465	1	28
543.635	1	6
543.805	1	24
543.975	1	17
544.145	1	11
544.315	1	4
544.485	1	8
544.655	1	13
544.825	1	14
544.995	1	11
545.165	1	12
545.335	1	22
545.505	1	15
545.675	1	22
545.845	1	30
546.015	1	4
546.185	1	12
546.355	1	22
546.525	1	26
546.695	1	10
546.865	1	15
547.035	1	21
547.205	1	24
547.375	1	23
547.545	1	20
547.715	1	9
547.885	1	18
548.055	1	19
548.225	1	22
548.395	1	14
548.565	1	17
548.735	1	15
548.905	1	14
549.075	1	18
549.245	1	18
549.415	1	15
549.585	1	15
549.755	1	17
549.925	1	20
550.095	1	10
550.265	1	11
550.435	1	14
550.605	1	14
550.775	1	7
550.945	1	14
551.115	1	28
551.285	1	12
551.455	1	19
551.625	1	15
551.795	1	21
551.965	1	13
552.135	1	11
552.305	1	23
552.475	1	17
552.645	1	8
552.815	1	8
552.985	1	15
553.155	1	13
553.325	1	18
553.495	1	20
553.665	1	17
553.835	1	17
554.004	1	13
554.174	1	9
554.344	1	16
554.514	1	11
554.684	1	17
554.854	1	8
555.024	1	22
555.194	1	14
555.364	1	14
555.534	1	10
555.704	1	18
555.874	1	10
556.044	1	3
556.214	1	13
556.384	1	21
556.554	1	18
556.724	1	19
556.894	1	5
557.064	1	9
557.234	1	13
557.404	1	6
557.573	1	14
557.743	1	6
557.913	1	5
558.083	1	19
558.253	1	15
558.423	1	17
558.593	1	20
558.763	1	14
558.933	1	8
559.103	1	12
559.273	1	19
559.443	1	26
559.613	1	7
559.783	1	18
559.953	1	-3
560.122	1	10
560.292	1	-1
560.462	1	2
560.632	1	9
560.802	1	23
560.972	1	6
561.142	1	21
561.312	1	10
561.482	1	18
561.652	1	18
561.822	1	10
561.992	1	15
562.162	1	17
562.331	1	1
562.501	1	10
562.671	1	0
562.841	1	4
563.011	1	15
563.181	1	9
563.351	1	9
563.521	1	12
563.691	1	11
563.861	1	7
564.031	1	6
564.201	1	17
564.370	1	13
564.540	1	17
564.710	1	8
564.880	1	15
565.050	1	10
565.220	1	16
565.390	1	-1
565.560	1	12
565.730	1	11
565.900	1	12
566.069	1	21
566.239	1	19
566.409	1	14
566.579	1	15
566.749	1	11
566.919	1	5
567.089	1	1
567.259	1	15
567.429	1	2
567.599	1	20
567.768	1	9
567.938	1	10
568.108	1	5
568.278	1	16
568.448	1	17
568.618	1	14
568.788	1	12
568.958	1	3
569.128	1	7
569.297	1	4
569.467	1	18
569.637	1	18
569.807	1	15
569.977	1	9
570.147	1	12
570.317	1	7
570.487	1	5
570.656	1	13
570.826	1	-2
570.996	1	18
571.166	1	14
571.336	1	9
571.506	1	12
571.676	1	19
571.846	1	12
572.015	1	11
572.185	1	6
572.355	1	15
572.525	1	8
572.695	1	4
572.865	1	15
573.035	1	14
573.205	1	13
573.374	1	10
573.544	1	11
573.714	1	10
573.884	1	6
574.054	1	14
574.224	1	13
574.394	1	9
574.563	1	2
574.733	1	8
574.903	1	11
575.073	1	6
575.243	1	11
575.413	1	8
575.583	1	6
575.752	1	9
575.922	1	21
576.092	1	-1
576.262	1	12
576.432	1	5
576.602	1	16
576.772	1	7
576.941	1	11
577.111	1	10
577.281	1	12
577.451	1	11
577.621	1	12
577.791	1	18
577.960	1	6
578.130	1	7
578.300	1	10
578.470	1	11
578.640	1	3
578.810	1	10
578.979	1	22
579.149	1	6
579.319	1	9
579.489	1	22
579.659	1	5
579.829	1	15
579.998	1	5
580.168	1	6
580.338	1	11
580.508	1	11
580.678	1	15
580.848	1	15
581.017	1	11
581.187	1	11
581.357	1	8
581.527	1	6
581.697	1	16
581.867	1	10
582.036	1	10
582.206	1	12
582.376	1	5
582.546	1	9
582.716	1	9
582.885	1	11
583.055	1	2
583.225	1	0
583.395	1	15
583.565	1	18
583.735	1	13
583.904	1	5
584.074	1	2
584.244	1	17
584.414	1	4
584.584	1	9
584.753	1	12
584.923	1	7
585.093	1	19
585.263	1	13
585.433	1	4
585.602	1	11
585.772	1	27
585.942	1	2
586.112	1	22
586.282	1	8
586.451	1	11
586.621	1	2
586.791	1	-5
586.961	1	0
587.131	1	0
587.300	1	17
587.470	1	-2
587.640	1	9
587.810	1	-2
587.980	1	9
588.149	1	9
588.319	1	22
588.489	1	13
588.659	1	5
588.829	1	8
588.998	1	13
589.168	1	11
589.338	1	7
589.508	1	14
589.677	1	14
589.847	1	13
590.017	1	8
590.187	1	16
590.357	1	7
590.526	1	5
590.696	1	14
590.866	1	10
591.036	1	18
591.205	1	10
591.375	1	13
591.545	1	-2
591.715	1	7
591.885	1	16
592.054	1	10
592.224	1	12
592.394	1	4
592.564	1	10
592.733	1	5
592.903	1	10
593.073	1	5
593.243	1	18
593.412	1	3
593.582	1	13
593.752	1	8
593.922	1	17
594.091	1	21
594.261	1	5
594.431	1	13
594.601	1	1
594.771	1	5
594.940	1	4
595.110	1	7
595.280	1	7
595.450	1	11
595.619	1	11
595.789	1	1
595.959	1	4
596.129	1	10
596.298	1	25
596.468	1	8
596.638	1	10
596.808	1	3
596.977	1	1
597.147	1	7
597.317	1	13
597.487	1	2
597.656	1	15
597.826	1	9
597.996	1	3
598.166	1	21
598.335	1	0
598.505	1	11
598.675	1	18
598.844	1	23
599.014	1	6
599.184	1	13
599.354	1	24
599.523	1	6
599.693	1	16
599.863	1	10
600.033	1	13
600.202	1	10
600.372	1	-2
600.542	1	19
600.712	1	16
600.881	1	19
601.051	1	14
601.221	1	14
601.390	1	11
601.560	1	16
601.730	1	7
601.900	1	0
602.069	1	7
602.239	1	-2
602.409	1	11
602.578	1	11
602.748	1	20
602.918	1	11
603.088	1	22
603.257	1	5
603.427	1	15
603.597	1	6
603.767	1	10
603.936	1	20
604.106	1	12
604.276	1	9
604.445	1	1
604.615	1	13
604.785	1	14
604.954	1	11
605.124	1	15
605.294	1	7
605.464	1	2
605.633	1	10
605.803	1	10
605.973	1	8
606.142	1	17
606.312	1	24
606.482	1	10
606.652	1	7
606.821	1	14
606.991	1	12
607.161	1	9
607.330	1	-3
607.500	1	17
607.670	1	4
607.839	1	9
608.009	1	5
608.179	1	13
608.348	1	24
608.518	1	23
608.688	1	13
608.858	1	4
609.027	1	16
609.197	1	12
609.367	1	11
609.536	1	8
609.706	1	16
609.876	1	19
610.045	1	15
610.215	1	12
610.385	1	20
610.554	1	13
610.724	1	19
610.894	1	9
611.063	1	9
611.233	1	20
611.403	1	19
611.572	1	13
611.742	1	10
611.912	1	12
612.081	1	13
612.251	1	21
612.421	1	13
612.590	1	18
612.760	1	6
612.930	1	15
613.099	1	9
613.269	1	8
613.439	1	1
613.608	1	16
613.778	1	16
613.948	1	25
614.117	1	6
614.287	1	-1
614.457	1	9
614.626	1	11
614.796	1	13
614.966	1	9
615.135	1	24
615.305	1	13
615.475	1	12
615.644	1	14
615.814	1	19
615.984	1	7
616.153	1	15
616.323	1	5
616.493	1	14
616.662	1	7
616.832	1	14
617.002	1	13
617.171	1	17
617.341	1	20
617.511	1	6
617.680	1	7
617.850	1	8
618.019	1	4
618.189	1	21
618.359	1	4
618.528	1	17
618.698	1	16
618.868	1	11
619.037	1	21
619.207	1	12
619.377	1	16
619.546	1	19
619.716	1	10
619.885	1	19
620.055	1	4
620.225	1	21
620.394	1	3
620.564	1	15
620.734	1	3
620.903	1	6
621.073	1	27
621.242	1	7
621.412	1	11
621.582	1	13
621.751	1	6
621.921	1	17
622.091	1	12
622.260	1	16
622.430	1	14
622.599	1	3
622.769	1	16
622.939	1	6
623.108	1	8
623.278	1	15
623.448	1	16
623.617	1	19
623.787	1	24
623.956	1	14
624.126	1	18
624.296	1	28
624.465	1	21
624.635	1	18
624.804	1	6
624.974	1	7
625.144	1	10
625.313	1	27
625.483	1	12
625.652	1	6
625.822	1	23
625.992	1	15
626.161	1	19
626.331	1	11
626.501	1	17
626.670	1	13
626.840	1	17
627.009	1	12
627.179	1	12
627.348	1	15
627.518	1	20
627.688	1	12
627.857	1	24
628.027	1	9
628.196	1	22
628.366	1	9
628.536	1	15
628.705	1	20
628.875	1	16
629.044	1	11
629.214	1	30
629.384	1	17
629.553	1	17
629.723	1	21
629.892	1	16
630.062	1	12
630.232	1	23
630.401	1	11
630.571	1	8
630.740	1	10
630.910	1	18
631.079	1	14
631.249	1	20
631.419	1	19
631.588	1	23
631.758	1	12
631.927	1	19
632.097	1	5
632.266	1	20
632.436	1	18
632.606	1	15
632.775	1	14
632.945	1	16
633.114	1	8
633.284	1	12
633.453	1	16
633.623	1	33
633.793	1	16
633.962	1	24
634.132	1	29
634.301	1	30
634.471	1	21
634.640	1	14
634.810	1	28
634.979	1	11
635.149	1	12
635.319	1	24
635.488	1	23
635.658	1	17
635.827	1	19
635.997	1	18
636.166	1	8
636.336	1	17
636.505	1	23
636.675	1	22
636.845	1	16
637.014	1	4
637.184	1	18
637.353	1	16
637.523	1	13
637.692	1	20
637.862	1	10
638.031	1	11
638.201	1	22
638.370	1	16
638.540	1	12
638.710	1	5
638.879	1	13
639.049	1	16
639.218	1	23
639.388	1	9
639.557	1	18
639.727	1	15
639.896	1	11
640.066	1	10
640.235	1	14
640.405	1	18
640.574	1	22
640.744	1	17
640.914	1	13
641.083	1	29
641.253	1	10
641.422	1	10
641.592	1	26
641.761	1	12
641.931	1	26
642.100	1	23
642.270	1	13
642.439	1	17
642.609	1	32
642.778	1	21
642.948	1	28
643.117	1	32
643.287	1	21
643.456	1	12
643.626	1	18
643.795	1	23
643.965	1	18
644.134	1	11
644.304	1	26
644.473	1	21
644.643	1	23
644.812	1	14
644.982	1	12
645.151	1	25
645.321	1	20
645.490	1	24
645.660	1	20
645.829	1	14
645.999	1	16
646.168	1	42
646.338	1	11
646.507	1	15
646.677	1	30
646.846	1	32
647.016	1	28
647.185	1	28
647.355	1	31
647.524	1	13
647.694	1	15
647.863	1	11
648.033	1	15
648.202	1	22
648.372	1	11
648.541	1	24
648.711	1	24
648.880	1	21
649.050	1	22
649.219	1	18
649.389	1	16
649.558	1	24
649.728	1	17
649.897	1	16
650.067	1	31
650.236	1	20
650.406	1	19
650.575	1	32
650.745	1	28
650.914	1	18
651.084	1	32
651.253	1	22
651.423	1	12
651.592	1	26
651.762	1	14
651.931	1	19
652.101	1	13
652.270	1	16
652.440	1	26
652.609	1	23
652.778	1	31
652.948	1	15
653.117	1	24
653.287	1	21
653.456	1	21
653.626	1	28
653.795	1	22
653.965	1	23
654.134	1	20
654.304	1	23
654.473	1	34
654.643	1	22
654.812	1	21
654.982	1	33
655.151	1	18
655.320	1	20
655.490	1	18
655.659	1	26
655.829	1	31
655.998	1	15
656.168	1	13
656.337	1	29
656.507	1	18
656.676	1	15
656.846	1	20
657.015	1	28
657.184	1	21
657.354	1	24
657.523	1	8
657.693	1	24
657.862	1	13
658.032	1	20
658.201	1	21
658.371	1	22
658.540	1	15
658.709	1	45
658.879	1	34
659.048	1	20
659.218	1	24
659.387	1	37
659.557	1	19
659.726	1	26
659.895	1	19
660.065	1	16
660.234	1	25
660.404	1	14
660.573	1	19
660.743	1	27
660.912	1	31
661.081	1	16
661.251	1	34
661.420	1	31
661.590	1	10
661.759	1	27
661.929	1	36
662.098	1	30
662.267	1	11
662.437	1	30
662.606	1	18
662.776	1	19
662.945	1	37
663.115	1	43
663.284	1	26
663.453	1	27
663.623	1	27
663.792	1	27
663.962	1	35
664.131	1	25
664.300	1	14
664.470	1	26
664.639	1	23
664.809	1	25
664.978	1	33
665.148	1	28
665.317	1	41
665.486	1	15
665.656	1	33
665.825	1	32
665.995	1	8
666.164	1	21
666.333	1	34
666.503	1	16
666.672	1	21
666.842	1	37
667.011	1	31
667.180	1	18
667.350	1	25
667.519	1	31
667.689	1	21
667.858	1	35
668.027	1	22
668.197	1	14
668.366	1	26
668.536	1	27
668.705	1	11
668.874	1	35
669.044	1	26
669.213	1	27
669.382	1	34
669.552	1	12
669.721	1	6
669.891	1	27
670.060	1	20
670.229	1	26
670.399	1	28
670.568	1	29
670.738	1	18
670.907	1	33
671.076	1	28
671.246	1	22
671.415	1	47
671.584	1	36
671.754	1	17
671.923	1	22
672.093	1	32
672.262	1	27
672.431	1	32
672.601	1	30
672.770	1	18
672.939	1	23
673.109	1	28
673.278	1	20
673.448	1	30
673.617	1	25
673.786	1	15
