325.333	1	11
325.504	1	2
325.675	1	16
325.846	1	4
326.017	1	12
326.188	1	13
326.359	1	11
326.531	1	10
326.702	1	6
326.873	1	16
327.044	1	13
327.215	1	2
327.386	1	8
327.557	1	3
327.728	1	1
327.899	1	-2
328.070	1	18
328.241	1	9
328.412	1	2
328.583	1	0
328.754	1	12
328.926	1	13
329.097	1	6
329.268	1	20
329.439	1	16
329.610	1	15
329.781	1	12
329.952	1	17
330.123	1	6
330.294	1	6
330.465	1	4
330.636	1	8
330.807	1	12
330.978	1	7
331.149	1	15
331.320	1	8
331.492	1	6
331.663	1	18
331.834	1	15
332.005	1	9
332.176	1	22
332.347	1	5
332.518	1	21
332.689	1	20
332.860	1	13
333.031	1	14
333.202	1	5
333.373	1	21
333.544	1	11
333.715	1	9
333.886	1	16
334.057	1	8
334.228	1	24
334.399	1	18
334.570	1	13
334.741	1	16
334.912	1	4
335.084	1	19
335.255	1	17
335.426	1	17
335.597	1	8
335.768	1	14
335.939	1	16
336.110	1	15
336.281	1	14
336.452	1	22
336.623	1	19
336.794	1	16
336.965	1	18
337.136	1	34
337.307	1	7
337.478	1	12
337.649	1	23
337.820	1	15
337.991	1	12
338.162	1	18
338.333	1	13
338.504	1	26
338.675	1	9
338.846	1	10
339.017	1	30
339.188	1	12
339.359	1	16
339.530	1	15
339.701	1	13
339.872	1	20
340.043	1	23
340.214	1	26
340.385	1	9
340.556	1	32
340.727	1	6
340.898	1	18
341.069	1	19
341.240	1	11
341.411	1	23
341.582	1	10
341.753	1	17
341.924	1	21
342.095	1	13
342.266	1	20
342.437	1	19
342.608	1	18
342.779	1	13
342.950	1	9
343.121	1	13
343.292	1	28
343.463	1	29
343.634	1	18
343.805	1	29
343.976	1	25
344.147	1	24
344.318	1	27
344.489	1	19
344.660	1	22
344.831	1	29
345.002	1	25
345.173	1	19
345.344	1	16
345.515	1	29
345.686	1	14
345.857	1	17
346.028	1	24
346.199	1	21
346.370	1	17
346.541	1	12
346.712	1	11
346.883	1	12
347.054	1	39
347.225	1	16
347.396	1	24
347.567	1	14
347.738	1	18
347.909	1	41
348.080	1	13
348.251	1	27
348.422	1	37
348.593	1	21
348.764	1	20
348.935	1	25
349.106	1	16
349.277	1	29
349.448	1	34
349.619	1	21
349.790	1	35
349.961	1	16
350.132	1	26
350.303	1	31
350.474	1	21
350.645	1	21
350.816	1	40
350.987	1	37
351.157	1	18
351.328	1	31
351.499	1	38
351.670	1	24
351.841	1	30
352.012	1	34
352.183	1	47
352.354	1	28
352.525	1	28
352.696	1	33
352.867	1	41
353.038	1	31
353.209	1	31
353.380	1	33
353.551	1	35
353.722	1	27
353.893	1	37
354.064	1	42
354.235	1	25
354.406	1	20
354.576	1	30
354.747	1	32
354.918	1	25
355.089	1	30
355.260	1	15
355.431	1	26
355.602	1	36
355.773	1	27
355.944	1	43
356.115	1	35
356.286	1	33
356.457	1	32
356.628	1	29
356.799	1	30
356.970	1	42
357.141	1	25
357.311	1	46
357.482	1	34
357.653	1	17
357.824	1	38
357.995	1	47
358.166	1	21
358.337	1	23
358.508	1	42
358.679	1	37
358.850	1	46
359.021	1	32
359.192	1	49
359.363	1	38
359.533	1	36
359.704	1	38
359.875	1	35
360.046	1	41
360.217	1	38
360.388	1	42
360.559	1	46
360.730	1	34
360.901	1	41
361.072	1	40
361.243	1	34
361.414	1	40
361.584	1	28
361.755	1	31
361.926	1	42
362.097	1	32
362.268	1	50
362.439	1	21
362.610	1	45
362.781	1	37
362.952	1	50
363.123	1	34
363.293	1	34
363.464	1	29
363.635	1	41
363.806	1	40
363.977	1	39
364.148	1	33
364.319	1	33
364.490	1	41
364.661	1	35
364.832	1	32
365.002	1	44
365.173	1	32
365.344	1	39
365.515	1	35
365.686	1	41
365.857	1	40
366.028	1	36
366.199	1	49
366.370	1	37
366.540	1	39
366.711	1	37
366.882	1	37
367.053	1	37
367.224	1	38
367.395	1	39
367.566	1	43
367.737	1	27
367.908	1	39
368.078	1	26
368.249	1	41
368.420	1	45
368.591	1	43
368.762	1	44
368.933	1	36
369.104	1	34
369.274	1	49
369.445	1	38
369.616	1	40
369.787	1	31
369.958	1	57
370.129	1	32
370.300	1	34
370.471	1	43
370.641	1	37
370.812	1	43
370.983	1	22
371.154	1	35
371.325	1	29
371.496	1	41
371.667	1	37
371.837	1	42
372.008	1	40
372.179	1	43
372.350	1	34
372.521	1	52
372.692	1	47
372.863	1	29
373.033	1	41
373.204	1	35
373.375	1	35
373.546	1	44
373.717	1	39
373.888	1	39
374.059	1	37
374.229	1	53
374.400	1	40
374.571	1	26
374.742	1	43
374.913	1	38
375.084	1	33
375.254	1	32
375.425	1	42
375.596	1	43
375.767	1	52
375.938	1	42
376.109	1	31
376.279	1	45
376.450	1	41
376.621	1	44
376.792	1	51
376.963	1	39
377.134	1	39
377.304	1	50
377.475	1	37
377.646	1	30
377.817	1	55
377.988	1	44
378.159	1	41
378.329	1	45
378.500	1	50
378.671	1	51
378.842	1	45
379.013	1	50
379.184	1	38
379.354	1	47
379.525	1	44
379.696	1	49
379.867	1	42
380.038	1	54
380.209	1	53
380.379	1	49
380.550	1	40
380.721	1	44
380.892	1	33
381.063	1	52
381.233	1	43
381.404	1	38
381.575	1	39
381.746	1	48
381.917	1	46
382.087	1	55
382.258	1	52
382.429	1	52
382.600	1	34
382.771	1	42
382.941	1	53
383.112	1	46
383.283	1	52
383.454	1	51
383.625	1	45
383.795	1	51
383.966	1	53
384.137	1	57
384.308	1	51
384.479	1	45
384.649	1	38
384.820	1	48
384.991	1	43
385.162	1	62
385.333	1	50
385.503	1	44
385.674	1	60
385.845	1	45
386.016	1	53
386.187	1	47
386.357	1	55
386.528	1	56
386.699	1	42
386.870	1	54
387.041	1	65
387.211	1	43
387.382	1	65
387.553	1	49
387.724	1	44
387.894	1	37
388.065	1	56
388.236	1	43
388.407	1	54
388.578	1	50
388.748	1	51
388.919	1	58
389.090	1	60
389.261	1	56
389.431	1	45
389.602	1	45
389.773	1	53
389.944	1	59
390.114	1	52
390.285	1	56
390.456	1	53
390.627	1	44
390.798	1	49
390.968	1	60
391.139	1	57
391.310	1	48
391.481	1	55
391.651	1	53
391.822	1	70
391.993	1	39
392.164	1	47
392.334	1	50
392.505	1	55
392.676	1	41
392.847	1	48
393.017	1	51
393.188	1	64
393.359	1	64
393.530	1	61
393.700	1	45
393.871	1	62
394.042	1	50
394.213	1	57
394.383	1	60
394.554	1	53
394.725	1	49
394.896	1	55
395.066	1	58
395.237	1	64
395.408	1	50
395.579	1	61
395.749	1	61
395.920	1	61
396.091	1	61
396.262	1	58
396.432	1	55
396.603	1	53
396.774	1	52
396.945	1	52
397.115	1	65
397.286	1	61
397.457	1	51
397.627	1	49
397.798	1	58
397.969	1	56
398.140	1	59
398.310	1	66
398.481	1	60
398.652	1	56
398.823	1	60
398.993	1	55
399.164	1	48
399.335	1	53
399.505	1	60
399.676	1	62
399.847	1	57
400.018	1	57
400.188	1	52
400.359	1	45
400.530	1	59
400.700	1	58
400.871	1	58
401.042	1	60
401.213	1	63
401.383	1	65
401.554	1	63
401.725	1	61
401.895	1	50
402.066	1	63
402.237	1	52
402.408	1	68
402.578	1	67
402.749	1	44
402.920	1	70
403.090	1	51
403.261	1	56
403.432	1	64
403.603	1	65
403.773	1	68
403.944	1	62
404.115	1	53
404.285	1	70
404.456	1	51
404.627	1	63
404.797	1	56
404.968	1	65
405.139	1	70
405.310	1	58
405.480	1	59
405.651	1	60
405.822	1	53
405.992	1	61
406.163	1	50
406.334	1	55
406.504	1	67
406.675	1	62
406.846	1	61
407.016	1	64
407.187	1	60
407.358	1	51
407.528	1	71
407.699	1	52
407.870	1	62
408.041	1	58
408.211	1	64
408.382	1	68
408.553	1	59
408.723	1	64
408.894	1	56
409.065	1	69
409.235	1	65
409.406	1	66
409.577	1	57
409.747	1	64
409.918	1	62
410.089	1	77
410.259	1	65
410.430	1	57
410.601	1	61
410.771	1	73
410.942	1	54
411.113	1	63
411.283	1	60
411.454	1	67
411.625	1	63
411.795	1	62
411.966	1	62
412.137	1	68
412.307	1	57
412.478	1	74
412.649	1	55
412.819	1	67
412.990	1	59
413.161	1	60
413.331	1	62
413.502	1	55
413.672	1	60
413.843	1	60
414.014	1	56
414.184	1	55
414.355	1	55
414.526	1	62
414.696	1	58
414.867	1	55
415.038	1	63
415.208	1	43
415.379	1	60
415.550	1	56
415.720	1	60
415.891	1	62
416.062	1	66
416.232	1	64
416.403	1	62
416.573	1	58
416.744	1	66
416.915	1	54
417.085	1	58
417.256	1	58
417.427	1	68
417.597	1	45
417.768	1	61
417.939	1	49
418.109	1	62
418.280	1	60
418.450	1	80
418.621	1	56
418.792	1	63
418.962	1	67
419.133	1	67
419.304	1	57
419.474	1	62
419.645	1	64
419.815	1	66
419.986	1	58
420.157	1	59
420.327	1	63
420.498	1	48
420.669	1	70
420.839	1	61
421.010	1	61
421.180	1	56
421.351	1	57
421.522	1	56
421.692	1	62
421.863	1	62
422.033	1	60
422.204	1	70
422.375	1	75
422.545	1	65
422.716	1	50
422.886	1	61
423.057	1	51
423.228	1	43
423.398	1	59
423.569	1	53
423.740	1	62
423.910	1	70
424.081	1	61
424.251	1	51
424.422	1	53
424.593	1	61
424.763	1	53
424.934	1	54
425.104	1	71
425.275	1	58
425.445	1	57
425.616	1	55
425.787	1	58
425.957	1	55
426.128	1	54
426.298	1	64
426.469	1	44
426.640	1	63
426.810	1	45
426.981	1	60
427.151	1	48
427.322	1	56
427.493	1	60
427.663	1	56
427.834	1	55
428.004	1	59
428.175	1	57
428.345	1	47
428.516	1	55
428.687	1	68
428.857	1	68
429.028	1	54
429.198	1	51
429.369	1	62
429.540	1	61
429.710	1	66
429.881	1	46
430.051	1	47
430.222	1	49
430.392	1	55
430.563	1	44
430.734	1	56
430.904	1	63
431.075	1	53
431.245	1	53
431.416	1	60
431.586	1	42
431.757	1	59
431.927	1	54
432.098	1	48
432.269	1	50
432.439	1	62
432.610	1	67
432.780	1	47
432.951	1	45
433.121	1	52
433.292	1	57
433.462	1	50
433.633	1	56
433.804	1	55
433.974	1	62
434.145	1	52
434.315	1	49
434.486	1	45
434.656	1	56
434.827	1	56
434.997	1	64
435.168	1	49
435.339	1	66
435.509	1	59
435.680	1	47
435.850	1	46
436.021	1	49
436.191	1	50
436.362	1	59
436.532	1	55
436.703	1	48
436.873	1	44
437.044	1	59
437.214	1	53
437.385	1	52
437.556	1	59
437.726	1	55
437.897	1	56
438.067	1	64
438.238	1	55
438.408	1	58
438.579	1	43
438.749	1	37
438.920	1	60
439.090	1	49
439.261	1	63
439.431	1	47
439.602	1	50
439.772	1	54
439.943	1	45
440.113	1	38
440.284	1	52
440.455	1	47
440.625	1	59
440.796	1	51
440.966	1	55
441.137	1	50
441.307	1	49
441.478	1	39
441.648	1	54
441.819	1	53
441.989	1	52
442.160	1	56
442.330	1	50
442.501	1	51
442.671	1	47
442.842	1	54
443.012	1	41
443.183	1	57
443.353	1	45
443.524	1	46
443.694	1	48
443.865	1	51
444.035	1	50
444.206	1	46
444.376	1	51
444.547	1	48
444.717	1	47
444.888	1	40
445.058	1	48
445.229	1	55
445.399	1	49
445.570	1	47
445.740	1	45
445.911	1	51
446.081	1	46
446.252	1	44
446.422	1	60
446.593	1	45
446.763	1	43
446.934	1	41
447.104	1	39
447.275	1	58
447.445	1	48
447.616	1	43
447.786	1	46
447.957	1	49
448.127	1	55
448.298	1	56
448.468	1	59
448.639	1	33
448.809	1	43
448.979	1	53
449.150	1	44
449.320	1	48
449.491	1	40
449.661	1	42
449.832	1	44
450.002	1	45
450.173	1	52
450.343	1	40
450.514	1	50
450.684	1	52
450.855	1	50
451.025	1	41
451.196	1	41
451.366	1	60
451.537	1	47
451.707	1	48
451.878	1	41
452.048	1	36
452.218	1	47
452.389	1	53
452.559	1	52
452.730	1	43
452.900	1	44
453.071	1	52
453.241	1	54
453.412	1	32
453.582	1	51
453.753	1	49
453.923	1	42
454.093	1	40
454.264	1	61
454.434	1	44
454.605	1	41
454.775	1	50
454.946	1	35
455.116	1	49
455.287	1	32
455.457	1	41
455.628	1	35
455.798	1	46
455.968	1	38
456.139	1	46
456.309	1	48
456.480	1	38
456.650	1	52
456.821	1	37
456.991	1	48
457.161	1	44
457.332	1	46
457.502	1	35
457.673	1	39
457.843	1	40
458.014	1	36
458.184	1	45
458.355	1	50
458.525	1	37
458.695	1	37
458.866	1	36
459.036	1	40
459.207	1	52
459.377	1	36
459.548	1	41
459.718	1	37
459.888	1	38
460.059	1	37
460.229	1	37
460.400	1	41
460.570	1	40
460.740	1	42
460.911	1	29
461.081	1	41
461.252	1	44
461.422	1	40
461.593	1	31
461.763	1	52
461.933	1	39
462.104	1	33
462.274	1	40
462.445	1	38
462.615	1	46
462.785	1	45
462.956	1	37
463.126	1	36
463.297	1	42
463.467	1	46
463.638	1	40
463.808	1	42
463.978	1	21
464.149	1	41
464.319	1	48
464.490	1	27
464.660	1	41
464.830	1	42
465.001	1	35
465.171	1	36
465.342	1	26
465.512	1	43
465.682	1	32
465.853	1	46
466.023	1	48
466.194	1	38
466.364	1	40
466.534	1	29
466.705	1	45
466.875	1	26
467.045	1	28
467.216	1	41
467.386	1	37
467.557	1	44
467.727	1	24
467.897	1	27
468.068	1	30
468.238	1	25
468.409	1	34
468.579	1	39
468.749	1	34
468.920	1	27
469.090	1	43
469.260	1	36
469.431	1	33
469.601	1	38
469.772	1	42
469.942	1	37
470.112	1	23
470.283	1	39
470.453	1	42
470.623	1	35
470.794	1	29
470.964	1	22
471.135	1	37
471.305	1	31
471.475	1	38
471.646	1	33
471.816	1	43
471.986	1	36
472.157	1	29
472.327	1	39
472.497	1	45
472.668	1	41
472.838	1	30
473.009	1	26
473.179	1	31
473.349	1	33
473.520	1	47
473.690	1	36
473.860	1	25
474.031	1	17
474.201	1	27
474.371	1	39
474.542	1	30
474.712	1	23
474.882	1	37
475.053	1	36
475.223	1	29
475.394	1	29
475.564	1	40
475.734	1	28
475.905	1	36
476.075	1	34
476.245	1	30
476.416	1	22
476.586	1	31
476.756	1	36
476.927	1	26
477.097	1	24
477.267	1	30
477.438	1	42
477.608	1	49
477.778	1	23
477.949	1	19
478.119	1	30
478.289	1	21
478.460	1	24
478.630	1	34
478.800	1	27
478.971	1	19
479.141	1	29
479.311	1	32
479.482	1	17
479.652	1	38
479.822	1	25
479.993	1	21
480.163	1	34
480.333	1	36
480.504	1	19
480.674	1	35
480.844	1	27
481.015	1	31
481.185	1	41
481.355	1	32
481.525	1	22
481.696	1	30
481.866	1	33
482.036	1	29
482.207	1	30
482.377	1	24
482.547	1	27
482.718	1	34
482.888	1	29
483.058	1	32
483.229	1	32
483.399	1	43
483.569	1	21
483.740	1	25
483.910	1	10
484.080	1	24
484.250	1	23
484.421	1	11
484.591	1	19
484.761	1	34
484.932	1	28
485.102	1	30
485.272	1	23
485.443	1	26
485.613	1	16
485.783	1	26
485.953	1	24
486.124	1	20
486.294	1	29
486.464	1	36
486.635	1	13
486.805	1	31
486.975	1	15
487.146	1	22
487.316	1	25
487.486	1	20
487.656	1	27
487.827	1	19
487.997	1	26
488.167	1	36
488.338	1	13
488.508	1	35
488.678	1	21
488.848	1	21
489.019	1	22
489.189	1	22
489.359	1	20
489.529	1	34
489.700	1	23
489.870	1	18
490.040	1	21
490.211	1	31
490.381	1	21
490.551	1	27
490.721	1	26
490.892	1	23
491.062	1	12
491.232	1	33
491.402	1	25
491.573	1	24
491.743	1	32
491.913	1	19
492.084	1	17
492.254	1	25
492.424	1	22
492.594	1	14
492.765	1	23
492.935	1	25
493.105	1	15
493.275	1	18
493.446	1	14
493.616	1	20
493.786	1	27
493.956	1	24
494.127	1	26
494.297	1	8
494.467	1	29
494.637	1	19
494.808	1	22
494.978	1	24
495.148	1	16
495.318	1	25
495.489	1	25
495.659	1	23
495.829	1	20
495.999	1	29
496.170	1	16
496.340	1	16
496.510	1	37
496.680	1	14
496.851	1	24
497.021	1	20
497.191	1	27
497.361	1	5
497.532	1	20
497.702	1	30
497.872	1	23
498.042	1	19
498.213	1	15
498.383	1	12
498.553	1	9
498.723	1	13
498.894	1	27
499.064	1	21
499.234	1	14
499.404	1	27
499.574	1	19
499.745	1	22
499.915	1	21
500.085	1	26
500.255	1	9
500.426	1	3
500.596	1	11
500.766	1	9
500.936	1	14
501.106	1	11
501.277	1	10
501.447	1	15
501.617	1	21
501.787	1	8
501.958	1	20
502.128	1	14
502.298	1	24
502.468	1	15
502.638	1	19
502.809	1	3
502.979	1	11
503.149	1	16
503.319	1	26
503.489	1	-5
503.660	1	19
503.830	1	13
504.000	1	16
504.170	1	8
504.340	1	9
504.511	1	14
504.681	1	11
504.851	1	7
505.021	1	11
505.192	1	0
505.362	1	13
505.532	1	10
505.702	1	18
505.872	1	20
506.043	1	25
506.213	1	17
506.383	1	16
506.553	1	11
506.723	1	10
506.893	1	12
507.064	1	15
507.234	1	4
507.404	1	12
507.574	1	7
507.744	1	12
507.915	1	21
508.085	1	12
508.255	1	12
508.425	1	3
508.595	1	4
508.766	1	7
508.936	1	15
509.106	1	16
509.276	1	22
509.446	1	13
509.616	1	18
509.787	1	17
509.957	1	23
510.127	1	6
510.297	1	7
510.467	1	17
510.638	1	12
510.808	1	17
510.978	1	7
511.148	1	7
511.318	1	19
511.488	1	20
511.659	1	10
511.829	1	8
511.999	1	13
512.169	1	20
512.339	1	21
512.509	1	11
512.680	1	8
512.850	1	15
513.020	1	18
513.190	1	6
513.360	1	17
513.530	1	7
513.700	1	11
513.871	1	5
514.041	1	19
514.211	1	7
514.381	1	16
514.551	1	8
514.721	1	12
514.892	1	9
515.062	1	17
515.232	1	6
515.402	1	13
515.572	1	16
515.742	1	16
515.912	1	16
516.083	1	18
516.253	1	13
516.423	1	7
516.593	1	16
516.763	1	17
516.933	1	9
517.104	1	22
517.274	1	-3
517.444	1	11
517.614	1	9
517.784	1	7
517.954	1	14
518.124	1	14
518.294	1	16
518.465	1	11
518.635	1	20
518.805	1	11
518.975	1	17
519.145	1	7
519.315	1	10
519.485	1	9
519.656	1	5
519.826	1	5
519.996	1	13
520.166	1	6
520.336	1	12
520.506	1	10
520.676	1	20
520.846	1	10
521.017	1	3
521.187	1	7
521.357	1	9
521.527	1	11
521.697	1	5
521.867	1	10
522.037	1	13
522.207	1	14
522.377	1	19
522.548	1	-3
522.718	1	3
522.888	1	16
523.058	1	14
523.228	1	-10
523.398	1	9
523.568	1	3
523.738	1	6
523.909	1	4
524.079	1	6
524.249	1	8
524.419	1	6
524.589	1	9
524.759	1	16
524.929	1	7
525.099	1	15
525.269	1	8
525.439	1	5
525.610	1	26
525.780	1	7
525.950	1	7
526.120	1	0
526.290	1	-3
526.460	1	1
526.630	1	8
526.800	1	2
526.970	1	14
527.140	1	14
527.311	1	7
527.481	1	11
527.651	1	15
527.821	1	1
527.991	1	17
528.161	1	11
528.331	1	2
528.501	1	9
528.671	1	16
528.841	1	5
529.011	1	9
529.181	1	7
529.352	1	11
529.522	1	7
529.692	1	13
529.862	1	5
530.032	1	-5
530.202	1	-7
530.372	1	6
530.542	1	7
530.712	1	7
530.882	1	13
531.052	1	11
531.222	1	12
531.392	1	5
531.563	1	9
531.733	1	8
531.903	1	1
532.073	1	5
532.243	1	18
532.413	1	24
532.583	1	9
532.753	1	5
532.923	1	9
533.093	1	-1
533.263	1	8
533.433	1	-2
533.603	1	5
533.773	1	3
533.943	1	10
534.113	1	13
534.284	1	13
534.454	1	4
534.624	1	5
534.794	1	1
534.964	1	7
535.134	1	-3
535.304	1	6
535.474	1	11
535.644	1	11
535.814	1	7
535.984	1	7
536.154	1	8
536.324	1	6
536.494	1	8
536.664	1	13
536.834	1	11
537.004	1	7
537.174	1	14
537.344	1	-2
537.514	1	0
537.685	1	15
537.855	1	13
538.025	1	16
538.195	1	11
538.365	1	15
538.535	1	7
538.705	1	3
538.875	1	12
539.045	1	6
539.215	1	0
539.385	1	7
539.555	1	10
539.725	1	12
539.895	1	9
540.065	1	9
540.235	1	8
540.405	1	6
540.575	1	12
540.745	1	8
540.915	1	13
541.085	1	9
541.255	1	9
541.425	1	5
541.595	1	4
541.765	1	13
541.935	1	12
542.105	1	9
542.275	1	4
542.445	1	4
542.615	1	17
542.785	1	-1
542.955	1	19
543.125	1	4
543.295	1	12
543.465	1	12
543.635	1	-5
543.805	1	12
543.975	1	3
544.145	1	4
544.315	1	-3
544.485	1	2
544.655	1	7
544.825	1	11
544.995	1	7
545.165	1	6
545.335	1	11
545.505	1	2
545.675	1	8
545.845	1	23
546.015	1	-4
546.185	1	3
546.355	1	5
546.525	1	19
546.695	1	4
546.865	1	3
547.035	1	0
547.205	1	14
547.375	1	7
547.545	1	3
547.715	1	1
547.885	1	7
548.055	1	-2
548.225	1	23
548.395	1	2
548.565	1	6
548.735	1	-1
548.905	1	3
549.075	1	10
549.245	1	8
549.415	1	4
549.585	1	8
549.755	1	10
549.925	1	8
550.095	1	4
550.265	1	-4
550.435	1	4
550.605	1	7
550.775	1	3
550.945	1	2
551.115	1	15
551.285	1	4
551.455	1	20
551.625	1	-11
551.795	1	4
551.965	1	5
552.135	1	0
552.305	1	7
552.475	1	5
552.645	1	0
552.815	1	-7
552.985	1	7
553.155	1	3
553.325	1	-3
553.495	1	9
553.665	1	-2
553.835	1	2
554.004	1	2
554.174	1	-2
554.344	1	14
554.514	1	7
554.684	1	2
554.854	1	1
555.024	1	8
555.194	1	10
555.364	1	2
555.534	1	5
555.704	1	11
555.874	1	6
556.044	1	-1
556.214	1	15
556.384	1	8
556.554	1	6
556.724	1	8
556.894	1	4
557.064	1	3
557.234	1	6
557.404	1	7
557.573	1	4
557.743	1	-9
557.913	1	4
558.083	1	7
558.253	1	9
558.423	1	2
558.593	1	8
558.763	1	8
558.933	1	3
559.103	1	3
559.273	1	18
559.443	1	2
559.613	1	4
559.783	1	-1
559.953	1	-3
560.122	1	7
560.292	1	-2
560.462	1	11
560.632	1	5
560.802	1	8
560.972	1	-8
561.142	1	11
561.312	1	-7
561.482	1	15
561.652	1	12
561.822	1	9
561.992	1	2
562.162	1	-3
562.331	1	-5
562.501	1	2
562.671	1	0
562.841	1	-11
563.011	1	9
563.181	1	-6
563.351	1	3
563.521	1	-2
563.691	1	8
563.861	1	5
564.031	1	1
564.201	1	4
564.370	1	14
564.540	1	-7
564.710	1	7
564.880	1	6
565.050	1	3
565.220	1	8
565.390	1	5
565.560	1	12
565.730	1	-3
565.900	1	9
566.069	1	4
566.239	1	13
566.409	1	14
566.579	1	9
566.749	1	-1
566.919	1	5
567.089	1	-12
567.259	1	8
567.429	1	-3
567.599	1	7
567.768	1	-1
567.938	1	4
568.108	1	6
568.278	1	9
568.448	1	5
568.618	1	9
568.788	1	3
568.958	1	-1
569.128	1	-4
569.297	1	-4
569.467	1	6
569.637	1	3
569.807	1	14
569.977	1	-2
570.147	1	11
570.317	1	6
570.487	1	0
570.656	1	7
570.826	1	5
570.996	1	9
571.166	1	-3
571.336	1	9
571.506	1	-2
571.676	1	-3
571.846	1	5
572.015	1	12
572.185	1	0
572.355	1	7
572.525	1	-11
572.695	1	7
572.865	1	12
573.035	1	13
573.205	1	2
573.374	1	3
573.544	1	6
573.714	1	2
573.884	1	-8
574.054	1	1
574.224	1	2
574.394	1	13
574.563	1	-3
574.733	1	5
574.903	1	9
575.073	1	11
575.243	1	1
575.413	1	0
575.583	1	1
575.752	1	2
575.922	1	11
576.092	1	-7
576.262	1	3
576.432	1	2
576.602	1	3
576.772	1	4
576.941	1	5
577.111	1	7
577.281	1	2
577.451	1	3
577.621	1	5
577.791	1	5
577.960	1	0
578.130	1	2
578.300	1	-2
578.470	1	0
578.640	1	9
578.810	1	-6
578.979	1	7
579.149	1	0
579.319	1	8
579.489	1	10
579.659	1	4
579.829	1	9
579.998	1	-11
580.168	1	11
580.338	1	6
580.508	1	-3
580.678	1	4
580.848	1	9
581.017	1	7
581.187	1	4
581.357	1	8
581.527	1	3
581.697	1	4
581.867	1	-2
582.036	1	-14
582.206	1	6
582.376	1	6
582.546	1	5
582.716	1	6
582.885	1	-1
583.055	1	-12
583.225	1	3
583.395	1	4
583.565	1	14
583.735	1	7
583.904	1	6
584.074	1	3
584.244	1	-4
584.414	1	-3
584.584	1	0
584.753	1	5
584.923	1	1
585.093	1	2
585.263	1	8
585.433	1	-3
585.602	1	5
585.772	1	18
585.942	1	-4
586.112	1	-1
586.282	1	5
586.451	1	11
586.621	1	0
586.791	1	-6
586.961	1	4
587.131	1	-8
587.300	1	12
587.470	1	-2
587.640	1	-3
587.810	1	2
587.980	1	0
588.149	1	15
588.319	1	7
588.489	1	10
588.659	1	1
588.829	1	1
588.998	1	5
589.168	1	8
589.338	1	8
589.508	1	3
589.677	1	4
589.847	1	13
590.017	1	-1
590.187	1	8
590.357	1	-1
590.526	1	4
590.696	1	7
590.866	1	-9
591.036	1	10
591.205	1	16
591.375	1	4
591.545	1	-6
591.715	1	1
591.885	1	8
592.054	1	8
592.224	1	-5
592.394	1	-5
592.564	1	-5
592.733	1	4
592.903	1	1
593.073	1	0
593.243	1	13
593.412	1	-11
593.582	1	4
593.752	1	1
593.922	1	4
594.091	1	4
594.261	1	-9
594.431	1	-2
594.601	1	7
594.771	1	11
594.940	1	3
595.110	1	2
595.280	1	5
595.450	1	7
595.619	1	1
595.789	1	0
595.959	1	8
596.129	1	8
596.298	1	12
596.468	1	3
596.638	1	9
596.808	1	-3
596.977	1	-6
597.147	1	1
597.317	1	9
597.487	1	7
597.656	1	2
597.826	1	13
597.996	1	-1
598.166	1	7
598.335	1	-6
598.505	1	6
598.675	1	9
598.844	1	18
599.014	1	-2
599.184	1	-4
599.354	1	8
599.523	1	0
599.693	1	3
599.863	1	9
600.033	1	0
600.202	1	-5
600.372	1	-1
600.542	1	6
600.712	1	-2
600.881	1	3
601.051	1	6
601.221	1	10
601.390	1	8
601.560	1	8
601.730	1	6
601.900	1	0
602.069	1	9
602.239	1	6
602.409	1	-2
602.578	1	10
602.748	1	13
602.918	1	-3
603.088	1	6
603.257	1	-6
603.427	1	6
603.597	1	3
603.767	1	6
603.936	1	8
604.106	1	2
604.276	1	3
604.445	1	6
604.615	1	9
604.785	1	17
604.954	1	4
605.124	1	4
605.294	1	6
605.464	1	-1
605.633	1	1
605.803	1	4
605.973	1	6
606.142	1	13
606.312	1	14
606.482	1	0
606.652	1	11
606.821	1	1
606.991	1	7
607.161	1	12
607.330	1	6
607.500	1	8
607.670	1	4
607.839	1	3
608.009	1	1
608.179	1	7
608.348	1	7
608.518	1	20
608.688	1	3
608.858	1	2
609.027	1	13
609.197	1	5
609.367	1	-1
609.536	1	-2
609.706	1	9
609.876	1	4
610.045	1	8
610.215	1	13
610.385	1	8
610.554	1	3
610.724	1	1
610.894	1	6
611.063	1	0
611.233	1	1
611.403	1	11
611.572	1	5
611.742	1	6
611.912	1	0
612.081	1	19
612.251	1	10
612.421	1	7
612.590	1	5
612.760	1	4
612.930	1	9
613.099	1	2
613.269	1	1
613.439	1	-6
613.608	1	12
613.778	1	7
613.948	1	15
614.117	1	7
614.287	1	7
614.457	1	14
614.626	1	-2
614.796	1	3
614.966	1	6
615.135	1	21
615.305	1	1
615.475	1	4
615.644	1	11
615.814	1	18
615.984	1	-7
616.153	1	8
616.323	1	4
616.493	1	1
616.662	1	-2
616.832	1	5
617.002	1	6
617.171	1	9
617.341	1	14
617.511	1	-4
617.680	1	8
617.850	1	9
618.019	1	0
618.189	1	18
618.359	1	9
618.528	1	4
618.698	1	13
618.868	1	4
619.037	1	3
619.207	1	3
619.377	1	3
619.546	1	16
619.716	1	2
619.885	1	12
620.055	1	6
620.225	1	10
620.394	1	14
620.564	1	10
620.734	1	4
620.903	1	-5
621.073	1	2
621.242	1	3
621.412	1	1
621.582	1	12
621.751	1	1
621.921	1	7
622.091	1	-1
622.260	1	12
622.430	1	12
622.599	1	7
622.769	1	6
622.939	1	-2
623.108	1	0
623.278	1	11
623.448	1	-1
623.617	1	10
623.787	1	7
623.956	1	14
624.126	1	8
624.296	1	7
624.465	1	12
624.635	1	12
624.804	1	-8
624.974	1	7
625.144	1	7
625.313	1	13
625.483	1	10
625.652	1	11
625.822	1	10
625.992	1	8
626.161	1	9
626.331	1	2
626.501	1	10
626.670	1	5
626.840	1	9
627.009	1	0
627.179	1	6
627.348	1	2
627.518	1	13
627.688	1	8
627.857	1	15
628.027	1	12
628.196	1	13
628.366	1	0
628.536	1	2
628.705	1	2
628.875	1	3
629.044	1	-1
629.214	1	5
629.384	1	22
629.553	1	2
629.723	1	15
629.892	1	13
630.062	1	8
630.232	1	10
630.401	1	10
630.571	1	-2
630.740	1	6
630.910	1	20
631.079	1	5
631.249	1	6
631.419	1	2
631.588	1	4
631.758	1	-3
631.927	1	14
632.097	1	4
632.266	1	16
632.436	1	2
632.606	1	8
632.775	1	11
632.945	1	7
633.114	1	13
633.284	1	4
633.453	1	8
633.623	1	9
633.793	1	0
633.962	1	8
634.132	1	16
634.301	1	5
634.471	1	6
634.640	1	-9
634.810	1	1
634.979	1	11
635.149	1	3
635.319	1	7
635.488	1	9
635.658	1	1
635.827	1	5
635.997	1	11
636.166	1	3
636.336	1	3
636.505	1	16
636.675	1	1
636.845	1	2
637.014	1	0
637.184	1	8
637.353	1	3
637.523	1	12
637.692	1	12
637.862	1	7
638.031	1	4
638.201	1	12
638.370	1	13
638.540	1	7
638.710	1	1
638.879	1	4
639.049	1	7
639.218	1	-1
639.388	1	9
639.557	1	4
639.727	1	9
639.896	1	17
640.066	1	2
640.235	1	0
640.405	1	16
640.574	1	12
640.744	1	5
640.914	1	8
641.083	1	16
641.253	1	1
641.422	1	2
641.592	1	11
641.761	1	6
641.931	1	15
642.100	1	9
642.270	1	12
642.439	1	9
642.609	1	9
642.778	1	10
642.948	1	15
643.117	1	9
643.287	1	5
643.456	1	-2
643.626	1	-1
643.795	1	7
643.965	1	5
644.134	1	9
644.304	1	7
644.473	1	6
644.643	1	2
644.812	1	0
644.982	1	-8
645.151	1	4
645.321	1	8
645.490	1	11
645.660	1	0
645.829	1	10
645.999	1	3
646.168	1	17
646.338	1	-2
646.507	1	6
646.677	1	0
646.846	1	10
647.016	1	13
647.185	1	10
647.355	1	12
647.524	1	2
647.694	1	3
647.863	1	2
648.033	1	10
648.202	1	16
648.372	1	-6
648.541	1	15
648.711	1	9
648.880	1	5
649.050	1	5
649.219	1	11
649.389	1	7
649.558	1	12
649.728	1	10
649.897	1	16
650.067	1	13
650.236	1	6
650.406	1	12
650.575	1	10
650.745	1	14
650.914	1	17
651.084	1	7
651.253	1	3
651.423	1	-5
651.592	1	10
651.762	1	1
651.931	1	19
652.101	1	-2
652.270	1	15
652.440	1	15
652.609	1	8
652.778	1	5
652.948	1	10
653.117	1	4
653.287	1	-3
653.456	1	9
653.626	1	7
653.795	1	1
653.965	1	6
654.134	1	-3
654.304	1	8
654.473	1	1
654.643	1	10
654.812	1	12
654.982	1	6
655.151	1	14
655.320	1	7
655.490	1	2
655.659	1	14
655.829	1	20
655.998	1	18
656.168	1	-1
656.337	1	2
656.507	1	6
656.676	1	4
656.846	1	6
657.015	1	17
657.184	1	8
657.354	1	6
657.523	1	0
657.693	1	19
657.862	1	-4
658.032	1	10
658.201	1	4
658.371	1	8
658.540	1	-1
658.709	1	13
658.879	1	23
659.048	1	22
659.218	1	1
659.387	1	14
659.557	1	4
659.726	1	5
659.895	1	10
660.065	1	2
660.234	1	7
660.404	1	2
660.573	1	6
660.743	1	9
660.912	1	5
661.081	1	13
661.251	1	1
661.420	1	14
661.590	1	7
661.759	1	7
661.929	1	7
662.098	1	17
662.267	1	10
662.437	1	15
662.606	1	3
662.776	1	8
662.945	1	18
663.115	1	13
663.284	1	17
663.453	1	2
663.623	1	4
663.792	1	11
663.962	1	7
664.131	1	4
664.300	1	1
664.470	1	-2
664.639	1	10
664.809	1	6
664.978	1	20
665.148	1	13
665.317	1	13
665.486	1	13
665.656	1	3
665.825	1	13
665.995	1	-1
666.164	1	4
666.333	1	3
666.503	1	0
666.672	1	4
666.842	1	11
667.011	1	8
667.180	1	9
667.350	1	12
667.519	1	10
667.689	1	9
667.858	1	10
668.027	1	-2
668.197	1	7
668.366	1	7
668.536	1	10
668.705	1	5
668.874	1	23
669.044	1	7
669.213	1	18
669.382	1	6
669.552	1	12
669.721	1	6
669.891	1	-2
670.060	1	10
670.229	1	9
670.399	1	10
670.568	1	14
670.738	1	5
670.907	1	13
671.076	1	8
671.246	1	7
671.415	1	16
671.584	1	7
671.754	1	-6
671.923	1	6
672.093	1	11
672.262	1	3
672.431	1	18
672.601	1	3
672.770	1	11
672.939	1	7
673.109	1	5
673.278	1	4
673.448	1	12
673.617	1	16
673.786	1	1
