325.333	1	3
325.504	1	-7
325.675	1	5
325.846	1	10
326.017	1	15
326.188	1	1
326.359	1	18
326.531	1	6
326.702	1	-2
326.873	1	19
327.044	1	1
327.215	1	-4
327.386	1	-2
327.557	1	-12
327.728	1	-3
327.899	1	-2
328.070	1	7
328.241	1	0
328.412	1	-3
328.583	1	1
328.754	1	7
328.926	1	5
329.097	1	-5
329.268	1	3
329.439	1	12
329.610	1	8
329.781	1	7
329.952	1	9
330.123	1	1
330.294	1	-2
330.465	1	-10
330.636	1	0
330.807	1	-3
330.978	1	-6
331.149	1	5
331.320	1	-5
331.492	1	1
331.663	1	2
331.834	1	6
332.005	1	1
332.176	1	6
332.347	1	-10
332.518	1	6
332.689	1	-2
332.860	1	-5
333.031	1	3
333.202	1	3
333.373	1	13
333.544	1	-4
333.715	1	7
333.886	1	4
334.057	1	-5
334.228	1	9
334.399	1	8
334.570	1	0
334.741	1	-8
334.912	1	-2
335.084	1	7
335.255	1	0
335.426	1	4
335.597	1	0
335.768	1	6
335.939	1	2
336.110	1	0
336.281	1	2
336.452	1	-1
336.623	1	0
336.794	1	-4
336.965	1	-2
337.136	1	10
337.307	1	-3
337.478	1	-2
337.649	1	6
337.820	1	0
337.991	1	11
338.162	1	0
338.333	1	-7
338.504	1	6
338.675	1	-3
338.846	1	-8
339.017	1	0
339.188	1	4
339.359	1	3
339.530	1	-3
339.701	1	-3
339.872	1	6
340.043	1	-5
340.214	1	18
340.385	1	-9
340.556	1	13
340.727	1	5
340.898	1	7
341.069	1	5
341.240	1	-5
341.411	1	-2
341.582	1	-2
341.753	1	-2
341.924	1	6
342.095	1	-3
342.266	1	10
342.437	1	-3
342.608	1	5
342.779	1	-1
342.950	1	-5
343.121	1	-4
343.292	1	11
343.463	1	10
343.634	1	3
343.805	1	6
343.976	1	10
344.147	1	8
344.318	1	-5
344.489	1	0
344.660	1	7
344.831	1	3
345.002	1	-3
345.173	1	-5
345.344	1	-3
345.515	1	3
345.686	1	3
345.857	1	3
346.028	1	6
346.199	1	6
346.370	1	-4
346.541	1	-8
346.712	1	0
346.883	1	-8
347.054	1	15
347.225	1	1
347.396	1	0
347.567	1	-2
347.738	1	5
347.909	1	6
348.080	1	-8
348.251	1	-1
348.422	1	10
348.593	1	-1
348.764	1	2
348.935	1	6
349.106	1	-5
349.277	1	-1
349.448	1	-3
349.619	1	-5
349.790	1	10
349.961	1	-12
350.132	1	6
350.303	1	-10
350.474	1	4
350.645	1	-5
350.816	1	-6
350.987	1	11
351.157	1	1
351.328	1	-8
351.499	1	1
351.670	1	-3
351.841	1	3
352.012	1	4
352.183	1	3
352.354	1	7
352.525	1	1
352.696	1	-3
352.867	1	5
353.038	1	-4
353.209	1	-2
353.380	1	3
353.551	1	6
353.722	1	9
353.893	1	1
354.064	1	3
354.235	1	3
354.406	1	-13
354.576	1	-3
354.747	1	8
354.918	1	-2
355.089	1	-3
355.260	1	-3
355.431	1	0
355.602	1	7
355.773	1	-7
355.944	1	7
356.115	1	-3
356.286	1	2
356.457	1	0
356.628	1	1
356.799	1	5
356.970	1	1
357.141	1	6
357.311	1	6
357.482	1	-2
357.653	1	-6
357.824	1	4
357.995	1	7
358.166	1	-2
358.337	1	-6
358.508	1	12
358.679	1	-8
358.850	1	8
359.021	1	3
359.192	1	10
359.363	1	2
359.533	1	0
359.704	1	-11
359.875	1	0
360.046	1	-3
360.217	1	6
360.388	1	8
360.559	1	5
360.730	1	-10
360.901	1	1
361.072	1	5
361.243	1	-1
361.414	1	11
361.584	1	-4
361.755	1	3
361.926	1	-6
362.097	1	-5
362.268	1	5
362.439	1	-11
362.610	1	6
362.781	1	-9
362.952	1	7
363.123	1	-3
363.293	1	5
363.464	1	0
363.635	1	5
363.806	1	4
363.977	1	-3
364.148	1	-3
364.319	1	-8
364.490	1	7
364.661	1	3
364.832	1	7
365.002	1	5
365.173	1	5
365.344	1	-3
365.515	1	4
365.686	1	-6
365.857	1	13
366.028	1	4
366.199	1	-2
366.370	1	4
366.540	1	1
366.711	1	2
366.882	1	-1
367.053	1	0
367.224	1	3
367.395	1	-4
367.566	1	4
367.737	1	2
367.908	1	0
368.078	1	-3
368.249	1	7
368.420	1	2
368.591	1	5
368.762	1	11
368.933	1	-5
369.104	1	-2
369.274	1	6
369.445	1	0
369.616	1	2
369.787	1	-4
369.958	1	1
370.129	1	2
370.300	1	-4
370.471	1	-3
370.641	1	4
370.812	1	4
370.983	1	0
371.154	1	-7
371.325	1	-1
371.496	1	-3
371.667	1	9
371.837	1	2
372.008	1	2
372.179	1	-1
372.350	1	0
372.521	1	6
372.692	1	0
372.863	1	1
373.033	1	5
373.204	1	4
373.375	1	-6
373.546	1	7
373.717	1	-4
373.888	1	8
374.059	1	-2
374.229	1	-3
374.400	1	-7
374.571	1	3
374.742	1	-2
374.913	1	-9
375.084	1	2
375.254	1	-2
375.425	1	-2
375.596	1	-3
375.767	1	2
375.938	1	-9
376.109	1	-2
376.279	1	-3
376.450	1	-1
376.621	1	1
376.792	1	3
376.963	1	0
377.134	1	2
377.304	1	5
377.475	1	-5
377.646	1	-13
377.817	1	5
377.988	1	9
378.159	1	3
378.329	1	6
378.500	1	9
378.671	1	3
378.842	1	2
379.013	1	6
379.184	1	-3
379.354	1	-1
379.525	1	1
379.696	1	6
379.867	1	3
380.038	1	-1
380.209	1	1
380.379	1	3
380.550	1	-12
380.721	1	-10
380.892	1	0
381.063	1	0
381.233	1	2
381.404	1	-5
381.575	1	7
381.746	1	9
381.917	1	-3
382.087	1	6
382.258	1	-1
382.429	1	-3
382.600	1	-2
382.771	1	-7
382.941	1	6
383.112	1	2
383.283	1	4
383.454	1	-7
383.625	1	-2
383.795	1	-1
383.966	1	1
384.137	1	3
384.308	1	-3
384.479	1	1
384.649	1	0
384.820	1	2
384.991	1	-1
385.162	1	7
385.333	1	5
385.503	1	1
385.674	1	0
385.845	1	-1
386.016	1	6
386.187	1	-9
386.357	1	-2
386.528	1	-8
386.699	1	-5
386.870	1	0
387.041	1	4
387.211	1	0
387.382	1	6
387.553	1	13
387.724	1	-9
387.894	1	-10
388.065	1	1
388.236	1	-1
388.407	1	4
388.578	1	-1
388.748	1	-1
388.919	1	8
389.090	1	9
389.261	1	1
389.431	1	-7
389.602	1	2
389.773	1	-10
389.944	1	-3
390.114	1	6
390.285	1	8
390.456	1	6
390.627	1	-9
390.798	1	-3
390.968	1	12
391.139	1	0
391.310	1	0
391.481	1	-2
391.651	1	7
391.822	1	4
391.993	1	-3
392.164	1	-1
392.334	1	0
392.505	1	4
392.676	1	-8
392.847	1	-3
393.017	1	5
393.188	1	2
393.359	1	6
393.530	1	9
393.700	1	-2
393.871	1	11
394.042	1	-2
394.213	1	4
394.383	1	2
394.554	1	-7
394.725	1	-7
394.896	1	2
395.066	1	-3
395.237	1	0
395.408	1	-3
395.579	1	6
395.749	1	15
395.920	1	1
396.091	1	3
396.262	1	-2
396.432	1	-8
396.603	1	5
396.774	1	-1
396.945	1	1
397.115	1	3
397.286	1	-1
397.457	1	2
397.627	1	-4
397.798	1	10
397.969	1	-1
398.140	1	-12
398.310	1	2
398.481	1	4
398.652	1	1
398.823	1	4
398.993	1	-4
399.164	1	11
399.335	1	-10
399.505	1	-2
399.676	1	4
399.847	1	6
400.018	1	-10
400.188	1	-3
400.359	1	0
400.530	1	-7
400.700	1	4
400.871	1	7
401.042	1	4
401.213	1	6
401.383	1	1
401.554	1	-1
401.725	1	-2
401.895	1	-7
402.066	1	-5
402.237	1	-5
402.408	1	2
402.578	1	10
402.749	1	-6
402.920	1	7
403.090	1	1
403.261	1	-2
403.432	1	-5
403.603	1	3
403.773	1	8
403.944	1	10
404.115	1	8
404.285	1	5
404.456	1	10
404.627	1	4
404.797	1	-3
404.968	1	4
405.139	1	1
405.310	1	-2
405.480	1	-6
405.651	1	-3
405.822	1	-4
405.992	1	10
406.163	1	-5
406.334	1	-3
406.504	1	-3
406.675	1	-11
406.846	1	1
407.016	1	8
407.187	1	1
407.358	1	-1
407.528	1	4
407.699	1	2
407.870	1	10
408.041	1	-1
408.211	1	-1
408.382	1	4
408.553	1	8
408.723	1	4
408.894	1	0
409.065	1	-1
409.235	1	0
409.406	1	2
409.577	1	-5
409.747	1	4
409.918	1	-1
410.089	1	6
410.259	1	-5
410.430	1	0
410.601	1	0
410.771	1	11
410.942	1	1
411.113	1	2
411.283	1	0
411.454	1	14
411.625	1	4
411.795	1	16
411.966	1	-9
412.137	1	7
412.307	1	3
412.478	1	0
412.649	1	2
412.819	1	4
412.990	1	-3
413.161	1	1
413.331	1	0
413.502	1	2
413.672	1	5
413.843	1	5
414.014	1	-6
414.184	1	9
414.355	1	-1
414.526	1	4
414.696	1	-5
414.867	1	-5
415.038	1	2
415.208	1	-9
415.379	1	-5
415.550	1	10
415.720	1	-11
415.891	1	2
416.062	1	0
416.232	1	8
416.403	1	5
416.573	1	-6
416.744	1	-4
416.915	1	2
417.085	1	10
417.256	1	1
417.427	1	-6
417.597	1	6
417.768	1	2
417.939	1	-5
418.109	1	-7
418.280	1	-1
418.450	1	17
418.621	1	5
418.792	1	3
418.962	1	-1
419.133	1	-1
419.304	1	-6
419.474	1	3
419.645	1	1
419.815	1	2
419.986	1	11
420.157	1	7
420.327	1	-2
420.498	1	-5
420.669	1	7
420.839	1	7
421.010	1	-10
421.180	1	-4
421.351	1	2
421.522	1	-1
421.692	1	11
421.863	1	-4
422.033	1	0
422.204	1	2
422.375	1	3
422.545	1	9
422.716	1	1
422.886	1	0
423.057	1	3
423.228	1	-4
423.398	1	7
423.569	1	-3
423.740	1	3
423.910	1	8
424.081	1	-4
424.251	1	6
424.422	1	-1
424.593	1	4
424.763	1	2
424.934	1	9
425.104	1	9
425.275	1	-4
425.445	1	2
425.616	1	-4
425.787	1	4
425.957	1	6
426.128	1	-1
426.298	1	0
426.469	1	-4
426.640	1	-1
426.810	1	-14
426.981	1	4
427.151	1	-3
427.322	1	-3
427.493	1	1
427.663	1	5
427.834	1	-10
428.004	1	5
428.175	1	1
428.345	1	-12
428.516	1	-3
428.687	1	3
428.857	1	0
429.028	1	-7
429.198	1	-2
429.369	1	7
429.540	1	2
429.710	1	-8
429.881	1	-9
430.051	1	0
430.222	1	3
430.392	1	2
430.563	1	-1
430.734	1	5
430.904	1	0
431.075	1	0
431.245	1	-8
431.416	1	0
431.586	1	-6
431.757	1	9
431.927	1	2
432.098	1	4
432.269	1	-4
432.439	1	-6
432.610	1	15
432.780	1	10
432.951	1	-11
433.121	1	0
433.292	1	4
433.462	1	0
433.633	1	-8
433.804	1	3
433.974	1	-3
434.145	1	1
434.315	1	-4
434.486	1	-10
434.656	1	3
434.827	1	4
434.997	1	7
435.168	1	7
435.339	1	7
435.509	1	0
435.680	1	-4
435.850	1	-6
436.021	1	2
436.191	1	-4
436.362	1	-3
436.532	1	5
436.703	1	6
436.873	1	-3
437.044	1	4
437.214	1	-2
437.385	1	-1
437.556	1	2
437.726	1	0
437.897	1	-2
438.067	1	-2
438.238	1	6
438.408	1	4
438.579	1	-6
438.749	1	-3
438.920	1	10
439.090	1	-13
439.261	1	1
439.431	1	-10
439.602	1	-2
439.772	1	-2
439.943	1	-5
440.113	1	1
440.284	1	6
440.455	1	2
440.625	1	1
440.796	1	2
440.966	1	7
441.137	1	0
441.307	1	-5
441.478	1	-3
441.648	1	-2
441.819	1	-2
441.989	1	10
442.160	1	7
442.330	1	6
442.501	1	3
442.671	1	-3
442.842	1	1
443.012	1	-5
443.183	1	7
443.353	1	10
443.524	1	4
443.694	1	-6
443.865	1	1
444.035	1	-7
444.206	1	1
444.376	1	5
444.547	1	3
444.717	1	-3
444.888	1	-12
445.058	1	1
445.229	1	1
445.399	1	6
445.570	1	-4
445.740	1	-2
445.911	1	0
446.081	1	-3
446.252	1	9
446.422	1	2
446.593	1	0
446.763	1	-2
446.934	1	1
447.104	1	-10
447.275	1	7
447.445	1	3
447.616	1	-5
447.786	1	-1
447.957	1	-8
448.127	1	-3
448.298	1	3
448.468	1	4
448.639	1	-6
448.809	1	1
448.979	1	1
449.150	1	1
449.320	1	-7
449.491	1	1
449.661	1	-10
449.832	1	-3
450.002	1	-11
450.173	1	4
450.343	1	-9
450.514	1	11
450.684	1	-2
450.855	1	3
451.025	1	-6
451.196	1	-4
451.366	1	7
451.537	1	6
451.707	1	13
451.878	1	-6
452.048	1	-13
452.218	1	6
452.389	1	3
452.559	1	20
452.730	1	14
452.900	1	-6
453.071	1	11
453.241	1	7
453.412	1	-4
453.582	1	2
453.753	1	1
453.923	1	-6
454.093	1	6
454.264	1	11
454.434	1	4
454.605	1	-8
454.775	1	8
454.946	1	-4
455.116	1	7
455.287	1	-9
455.457	1	2
455.628	1	-7
455.798	1	12
455.968	1	6
456.139	1	7
456.309	1	2
456.480	1	-7
456.650	1	-4
456.821	1	-2
456.991	1	5
457.161	1	6
457.332	1	-5
457.502	1	5
457.673	1	-7
457.843	1	6
458.014	1	3
458.184	1	-2
458.355	1	4
458.525	1	-1
458.695	1	2
458.866	1	-5
459.036	1	-4
459.207	1	-2
459.377	1	-1
459.548	1	2
459.718	1	-5
459.888	1	-6
460.059	1	-1
460.229	1	1
460.400	1	-3
460.570	1	-10
460.740	1	-5
460.911	1	-6
461.081	1	8
461.252	1	3
461.422	1	5
461.593	1	1
461.763	1	7
461.933	1	4
462.104	1	-7
462.274	1	-10
462.445	1	-6
462.615	1	8
462.785	1	5
462.956	1	-8
463.126	1	-2
463.297	1	4
463.467	1	10
463.638	1	4
463.808	1	0
463.978	1	-12
464.149	1	-4
464.319	1	2
464.490	1	-4
464.660	1	1
464.830	1	-2
465.001	1	2
465.171	1	-4
465.342	1	1
465.512	1	0
465.682	1	-8
465.853	1	0
466.023	1	5
466.194	1	1
466.364	1	6
466.534	1	-3
466.705	1	3
466.875	1	-4
467.045	1	-7
467.216	1	2
467.386	1	2
467.557	1	17
467.727	1	3
467.897	1	4
468.068	1	-6
468.238	1	-1
468.409	1	1
468.579	1	4
468.749	1	5
468.920	1	-7
469.090	1	1
469.260	1	3
469.431	1	-1
469.601	1	8
469.772	1	13
469.942	1	3
470.112	1	4
470.283	1	4
470.453	1	0
470.623	1	-6
470.794	1	-3
470.964	1	-1
471.135	1	14
471.305	1	3
471.475	1	1
471.646	1	10
471.816	1	-1
471.986	1	-4
472.157	1	4
472.327	1	7
472.497	1	1
472.668	1	5
472.838	1	1
473.009	1	4
473.179	1	6
473.349	1	-5
473.520	1	15
473.690	1	-6
473.860	1	-1
474.031	1	-17
474.201	1	-4
474.371	1	3
474.542	1	6
474.712	1	2
474.882	1	5
475.053	1	-1
475.223	1	3
475.394	1	7
475.564	1	2
475.734	1	0
475.905	1	3
476.075	1	9
476.245	1	2
476.416	1	-7
476.586	1	-5
476.756	1	7
476.927	1	1
477.097	1	1
477.267	1	-4
477.438	1	6
477.608	1	10
477.778	1	-2
477.949	1	-1
478.119	1	4
478.289	1	-3
478.460	1	-6
478.630	1	6
478.800	1	-2
478.971	1	2
479.141	1	10
479.311	1	4
479.482	1	-1
479.652	1	-9
479.822	1	-2
479.993	1	4
480.163	1	1
480.333	1	-5
480.504	1	11
480.674	1	14
480.844	1	-3
481.015	1	6
481.185	1	17
481.355	1	12
481.525	1	-9
481.696	1	8
481.866	1	-4
482.036	1	3
482.207	1	3
482.377	1	3
482.547	1	5
482.718	1	-6
482.888	1	-2
483.058	1	11
483.229	1	1
483.399	1	6
483.569	1	3
483.740	1	7
483.910	1	-8
484.080	1	1
484.250	1	3
484.421	1	-1
484.591	1	-2
484.761	1	4
484.932	1	2
485.102	1	4
485.272	1	5
485.443	1	-5
485.613	1	-7
485.783	1	2
485.953	1	2
486.124	1	-3
486.294	1	13
486.464	1	8
486.635	1	-5
486.805	1	3
486.975	1	-4
487.146	1	2
487.316	1	7
487.486	1	11
487.656	1	6
487.827	1	-8
487.997	1	-9
488.167	1	3
488.338	1	3
488.508	1	8
488.678	1	12
488.848	1	7
489.019	1	-3
489.189	1	12
489.359	1	-7
489.529	1	9
489.700	1	-7
489.870	1	8
490.040	1	-6
490.211	1	4
490.381	1	2
490.551	1	5
490.721	1	3
490.892	1	-8
491.062	1	1
491.232	1	-5
491.402	1	-3
491.573	1	8
491.743	1	6
491.913	1	1
492.084	1	-2
492.254	1	-1
492.424	1	-8
492.594	1	-3
492.765	1	3
492.935	1	11
493.105	1	1
493.275	1	-3
493.446	1	-8
493.616	1	-11
493.786	1	6
493.956	1	3
494.127	1	-8
494.297	1	-9
494.467	1	-1
494.637	1	2
494.808	1	15
494.978	1	-5
495.148	1	-4
495.318	1	1
495.489	1	1
495.659	1	8
495.829	1	1
495.999	1	3
496.170	1	5
496.340	1	-2
496.510	1	10
496.680	1	5
496.851	1	1
497.021	1	2
497.191	1	8
497.361	1	-8
497.532	1	4
497.702	1	4
497.872	1	-4
498.042	1	4
498.213	1	-12
498.383	1	-2
498.553	1	-3
498.723	1	-1
498.894	1	2
499.064	1	3
499.234	1	0
499.404	1	14
499.574	1	5
499.745	1	6
499.915	1	7
500.085	1	-6
500.255	1	-14
500.426	1	3
500.596	1	1
500.766	1	2
500.936	1	2
501.106	1	-5
501.277	1	-9
501.447	1	5
501.617	1	5
501.787	1	1
501.958	1	6
502.128	1	-2
502.298	1	-11
502.468	1	5
502.638	1	9
502.809	1	-7
502.979	1	3
503.149	1	0
503.319	1	3
503.489	1	-11
503.660	1	-8
503.830	1	9
504.000	1	-1
504.170	1	5
504.340	1	-3
504.511	1	-1
504.681	1	-3
504.851	1	2
505.021	1	4
505.192	1	-9
505.362	1	3
505.532	1	-11
505.702	1	5
505.872	1	-3
506.043	1	12
506.213	1	13
506.383	1	14
506.553	1	-3
506.723	1	-18
506.893	1	0
507.064	1	9
507.234	1	0
507.404	1	1
507.574	1	-7
507.744	1	3
507.915	1	3
508.085	1	0
508.255	1	-1
508.425	1	-1
508.595	1	-6
508.766	1	3
508.936	1	5
509.106	1	3
509.276	1	-1
509.446	1	-13
509.616	1	0
509.787	1	3
509.957	1	2
510.127	1	-5
510.297	1	-5
510.467	1	4
510.638	1	5
510.808	1	10
510.978	1	-2
511.148	1	-6
511.318	1	-1
511.488	1	-2
511.659	1	5
511.829	1	-9
511.999	1	-1
512.169	1	7
512.339	1	4
512.509	1	-4
512.680	1	-5
512.850	1	-3
513.020	1	6
513.190	1	-19
513.360	1	4
513.530	1	-1
513.700	1	2
513.871	1	2
514.041	1	6
514.211	1	5
514.381	1	3
514.551	1	0
514.721	1	-6
514.892	1	0
515.062	1	0
515.232	1	6
515.402	1	-7
515.572	1	0
515.742	1	1
515.912	1	11
516.083	1	7
516.253	1	2
516.423	1	1
516.593	1	-5
516.763	1	6
516.933	1	0
517.104	1	7
517.274	1	-8
517.444	1	4
517.614	1	-2
517.784	1	-4
517.954	1	1
518.124	1	4
518.294	1	1
518.465	1	-1
518.635	1	8
518.805	1	12
518.975	1	4
519.145	1	0
519.315	1	6
519.485	1	1
519.656	1	-10
519.826	1	-13
519.996	1	8
520.166	1	3
520.336	1	6
520.506	1	-6
520.676	1	9
520.846	1	2
521.017	1	1
521.187	1	5
521.357	1	-3
521.527	1	-4
521.697	1	5
521.867	1	6
522.037	1	-3
522.207	1	14
522.377	1	6
522.548	1	-7
522.718	1	-10
522.888	1	-4
523.058	1	-3
523.228	1	-4
523.398	1	8
523.568	1	-6
523.738	1	-5
523.909	1	2
524.079	1	5
524.249	1	-6
524.419	1	7
524.589	1	-3
524.759	1	4
524.929	1	1
525.099	1	-2
525.269	1	1
525.439	1	2
525.610	1	5
525.780	1	4
525.950	1	5
526.120	1	0
526.290	1	-3
526.460	1	-3
526.630	1	-3
526.800	1	-8
526.970	1	3
527.140	1	2
527.311	1	3
527.481	1	0
527.651	1	5
527.821	1	-4
527.991	1	0
528.161	1	1
528.331	1	-6
528.501	1	6
528.671	1	3
528.841	1	2
529.011	1	7
529.181	1	-6
529.352	1	-1
529.522	1	-1
529.692	1	3
529.862	1	5
530.032	1	-10
530.202	1	6
530.372	1	9
530.542	1	-7
530.712	1	9
530.882	1	10
531.052	1	-2
531.222	1	-7
531.392	1	-8
531.563	1	7
531.733	1	1
531.903	1	0
532.073	1	0
532.243	1	4
532.413	1	27
532.583	1	8
532.753	1	-2
532.923	1	2
533.093	1	-3
533.263	1	2
533.433	1	-5
533.603	1	4
533.773	1	0
533.943	1	-1
534.113	1	5
534.284	1	7
534.454	1	-1
534.624	1	2
534.794	1	-1
534.964	1	6
535.134	1	-4
535.304	1	-1
535.474	1	6
535.644	1	8
535.814	1	4
535.984	1	-6
536.154	1	1
536.324	1	3
536.494	1	3
536.664	1	1
536.834	1	-3
537.004	1	1
537.174	1	6
537.344	1	-3
537.514	1	3
537.685	1	0
537.855	1	5
538.025	1	6
538.195	1	-3
538.365	1	-3
538.535	1	2
538.705	1	1
538.875	1	7
539.045	1	2
539.215	1	-3
539.385	1	0
539.555	1	3
539.725	1	1
539.895	1	-1
540.065	1	1
540.235	1	5
540.405	1	5
540.575	1	-1
540.745	1	-5
540.915	1	0
541.085	1	-6
541.255	1	2
541.425	1	2
541.595	1	-2
541.765	1	4
541.935	1	3
542.105	1	-3
542.275	1	-11
542.445	1	1
542.615	1	7
542.785	1	2
542.955	1	10
543.125	1	-1
543.295	1	9
543.465	1	6
543.635	1	-3
543.805	1	5
543.975	1	-2
544.145	1	6
544.315	1	0
544.485	1	1
544.655	1	-2
544.825	1	-1
544.995	1	-5
545.165	1	-9
545.335	1	8
545.505	1	3
545.675	1	6
545.845	1	10
546.015	1	-5
546.185	1	0
546.355	1	-5
546.525	1	12
546.695	1	-5
546.865	1	2
547.035	1	-3
547.205	1	11
547.375	1	5
547.545	1	4
547.715	1	3
547.885	1	-2
548.055	1	0
548.225	1	5
548.395	1	0
548.565	1	5
548.735	1	-8
548.905	1	2
549.075	1	8
549.245	1	11
549.415	1	-1
549.585	1	1
549.755	1	6
549.925	1	-2
550.095	1	-7
550.265	1	0
550.435	1	8
550.605	1	1
550.775	1	2
550.945	1	8
551.115	1	8
551.285	1	0
551.455	1	-4
551.625	1	2
551.795	1	0
551.965	1	-1
552.135	1	-5
552.305	1	4
552.475	1	8
552.645	1	-7
552.815	1	3
552.985	1	-3
553.155	1	5
553.325	1	-2
553.495	1	3
553.665	1	-2
553.835	1	4
554.004	1	2
554.174	1	-4
554.344	1	-3
554.514	1	-4
554.684	1	8
554.854	1	-3
555.024	1	7
555.194	1	10
555.364	1	-2
555.534	1	-10
555.704	1	8
555.874	1	-7
556.044	1	1
556.214	1	-3
556.384	1	12
556.554	1	4
556.724	1	5
556.894	1	1
557.064	1	6
557.234	1	11
557.404	1	2
557.573	1	8
557.743	1	-5
557.913	1	-5
558.083	1	-2
558.253	1	3
558.423	1	-1
558.593	1	2
558.763	1	4
558.933	1	3
559.103	1	-6
559.273	1	4
559.443	1	4
559.613	1	2
559.783	1	-3
559.953	1	-11
560.122	1	6
560.292	1	-8
560.462	1	-3
560.632	1	-10
560.802	1	5
560.972	1	-8
561.142	1	8
561.312	1	-4
561.482	1	-3
561.652	1	0
561.822	1	2
561.992	1	-1
562.162	1	9
562.331	1	-8
562.501	1	0
562.671	1	1
562.841	1	-14
563.011	1	4
563.181	1	-5
563.351	1	-9
563.521	1	0
563.691	1	1
563.861	1	9
564.031	1	2
564.201	1	0
564.370	1	3
564.540	1	1
564.710	1	1
564.880	1	-1
565.050	1	3
565.220	1	7
565.390	1	-5
565.560	1	10
565.730	1	7
565.900	1	3
566.069	1	17
566.239	1	12
566.409	1	3
566.579	1	0
566.749	1	6
566.919	1	-9
567.089	1	-15
567.259	1	4
567.429	1	-1
567.599	1	15
567.768	1	4
567.938	1	3
568.108	1	5
568.278	1	3
568.448	1	3
568.618	1	-6
568.788	1	8
568.958	1	0
569.128	1	-3
569.297	1	-12
569.467	1	10
569.637	1	-3
569.807	1	9
569.977	1	-4
570.147	1	6
570.317	1	5
570.487	1	-2
570.656	1	-2
570.826	1	-4
570.996	1	10
571.166	1	-3
571.336	1	-2
571.506	1	-8
571.676	1	8
571.846	1	4
572.015	1	6
572.185	1	7
572.355	1	5
572.525	1	-6
572.695	1	-1
572.865	1	16
573.035	1	7
573.205	1	-8
573.374	1	-1
573.544	1	3
573.714	1	-1
573.884	1	2
574.054	1	-3
574.224	1	2
574.394	1	-1
574.563	1	-8
574.733	1	6
574.903	1	-2
575.073	1	4
575.243	1	0
575.413	1	-3
575.583	1	-2
575.752	1	4
575.922	1	12
576.092	1	-1
576.262	1	-2
576.432	1	-5
576.602	1	4
576.772	1	4
576.941	1	-2
577.111	1	1
577.281	1	-2
577.451	1	11
577.621	1	-2
577.791	1	2
577.960	1	-3
578.130	1	2
578.300	1	-3
578.470	1	-5
578.640	1	1
578.810	1	-8
578.979	1	6
579.149	1	-2
579.319	1	-4
579.489	1	5
579.659	1	2
579.829	1	1
579.998	1	-14
580.168	1	-4
580.338	1	6
580.508	1	0
580.678	1	2
580.848	1	5
581.017	1	-7
581.187	1	5
581.357	1	9
581.527	1	-2
581.697	1	0
581.867	1	4
582.036	1	-8
582.206	1	5
582.376	1	-3
582.546	1	4
582.716	1	1
582.885	1	-8
583.055	1	-8
583.225	1	-2
583.395	1	2
583.565	1	6
583.735	1	3
583.904	1	9
584.074	1	1
584.244	1	-5
584.414	1	-4
584.584	1	-2
584.753	1	-5
584.923	1	-9
585.093	1	4
585.263	1	4
585.433	1	1
585.602	1	12
585.772	1	18
585.942	1	-7
586.112	1	7
586.282	1	-2
586.451	1	4
586.621	1	-13
586.791	1	-12
586.961	1	-1
587.131	1	-10
587.300	1	19
587.470	1	0
587.640	1	0
587.810	1	-10
587.980	1	10
588.149	1	0
588.319	1	6
588.489	1	5
588.659	1	2
588.829	1	-4
588.998	1	-2
589.168	1	-8
589.338	1	0
589.508	1	0
589.677	1	-6
589.847	1	-2
590.017	1	-3
590.187	1	-1
590.357	1	0
590.526	1	4
590.696	1	2
590.866	1	0
591.036	1	8
591.205	1	-1
591.375	1	-1
591.545	1	-5
591.715	1	-2
591.885	1	12
592.054	1	-4
592.224	1	2
592.394	1	-6
592.564	1	2
592.733	1	6
592.903	1	-2
593.073	1	-10
593.243	1	11
593.412	1	3
593.582	1	3
593.752	1	-3
593.922	1	1
594.091	1	11
594.261	1	-5
594.431	1	-1
594.601	1	-9
594.771	1	-4
594.940	1	-1
595.110	1	-2
595.280	1	-2
595.450	1	2
595.619	1	6
595.789	1	-2
595.959	1	0
596.129	1	0
596.298	1	3
596.468	1	-2
596.638	1	-3
596.808	1	-8
596.977	1	-4
597.147	1	2
597.317	1	-2
597.487	1	1
597.656	1	2
597.826	1	12
597.996	1	0
598.166	1	8
598.335	1	-7
598.505	1	-2
598.675	1	6
598.844	1	6
599.014	1	-4
599.184	1	-1
599.354	1	11
599.523	1	-3
599.693	1	0
599.863	1	2
600.033	1	9
600.202	1	2
600.372	1	-8
600.542	1	-7
600.712	1	2
600.881	1	4
601.051	1	16
601.221	1	0
601.390	1	5
601.560	1	9
601.730	1	9
601.900	1	1
602.069	1	-4
602.239	1	1
602.409	1	1
602.578	1	8
602.748	1	13
602.918	1	-5
603.088	1	6
603.257	1	-5
603.427	1	8
603.597	1	1
603.767	1	2
603.936	1	1
604.106	1	-11
604.276	1	-4
604.445	1	5
604.615	1	5
604.785	1	5
604.954	1	-3
605.124	1	5
605.294	1	-8
605.464	1	-3
605.633	1	-2
605.803	1	-1
605.973	1	2
606.142	1	2
606.312	1	8
606.482	1	-12
606.652	1	2
606.821	1	7
606.991	1	8
607.161	1	2
607.330	1	-3
607.500	1	3
607.670	1	-2
607.839	1	-5
608.009	1	-10
608.179	1	0
608.348	1	7
608.518	1	9
608.688	1	-3
608.858	1	-1
609.027	1	17
609.197	1	6
609.367	1	-9
609.536	1	-6
609.706	1	0
609.876	1	1
610.045	1	8
610.215	1	4
610.385	1	7
610.554	1	-7
610.724	1	3
610.894	1	1
611.063	1	2
611.233	1	-1
611.403	1	10
611.572	1	5
611.742	1	-2
611.912	1	1
612.081	1	10
612.251	1	2
612.421	1	-3
612.590	1	1
612.760	1	-1
612.930	1	5
613.099	1	0
613.269	1	0
613.439	1	-7
613.608	1	-4
613.778	1	1
613.948	1	16
614.117	1	1
614.287	1	-7
614.457	1	-8
614.626	1	2
614.796	1	2
614.966	1	-1
615.135	1	10
615.305	1	-7
615.475	1	6
615.644	1	14
615.814	1	3
615.984	1	-2
616.153	1	3
616.323	1	0
616.493	1	-5
616.662	1	1
616.832	1	1
617.002	1	4
617.171	1	12
617.341	1	5
617.511	1	-15
617.680	1	-10
617.850	1	-2
618.019	1	-4
618.189	1	10
618.359	1	4
618.528	1	2
618.698	1	8
618.868	1	3
619.037	1	5
619.207	1	-7
619.377	1	-1
619.546	1	-4
619.716	1	-8
619.885	1	7
620.055	1	-3
620.225	1	14
620.394	1	-5
620.564	1	1
620.734	1	1
620.903	1	-14
621.073	1	-1
621.242	1	0
621.412	1	-7
621.582	1	6
621.751	1	2
621.921	1	10
622.091	1	2
622.260	1	-4
622.430	1	6
622.599	1	-4
622.769	1	-1
622.939	1	-10
623.108	1	-3
623.278	1	-3
623.448	1	7
623.617	1	6
623.787	1	-3
623.956	1	8
624.126	1	2
624.296	1	4
624.465	1	0
624.635	1	1
624.804	1	-6
624.974	1	-8
625.144	1	-5
625.313	1	13
625.483	1	4
625.652	1	-3
625.822	1	2
625.992	1	-1
626.161	1	-4
626.331	1	5
626.501	1	-8
626.670	1	-10
626.840	1	1
627.009	1	-1
627.179	1	0
627.348	1	-6
627.518	1	13
627.688	1	-11
627.857	1	9
628.027	1	-1
628.196	1	6
628.366	1	-11
628.536	1	0
628.705	1	-6
628.875	1	-1
629.044	1	-2
629.214	1	7
629.384	1	11
629.553	1	-8
629.723	1	10
629.892	1	3
630.062	1	-1
630.232	1	5
630.401	1	1
630.571	1	-6
630.740	1	3
630.910	1	13
631.079	1	2
631.249	1	0
631.419	1	-2
631.588	1	5
631.758	1	-12
631.927	1	6
632.097	1	-8
632.266	1	10
632.436	1	-7
632.606	1	2
632.775	1	2
632.945	1	4
633.114	1	-6
633.284	1	-3
633.453	1	1
633.623	1	5
633.793	1	1
633.962	1	4
634.132	1	13
634.301	1	-4
634.471	1	4
634.640	1	-3
634.810	1	-5
634.979	1	-7
635.149	1	-8
635.319	1	3
635.488	1	-4
635.658	1	5
635.827	1	-2
635.997	1	0
636.166	1	0
636.336	1	4
636.505	1	9
636.675	1	-9
636.845	1	-4
637.014	1	-11
637.184	1	17
637.353	1	-8
637.523	1	2
637.692	1	-1
637.862	1	-2
638.031	1	-2
638.201	1	10
638.370	1	-3
638.540	1	-4
638.710	1	-10
638.879	1	-4
639.049	1	-6
639.218	1	9
639.388	1	3
639.557	1	13
639.727	1	6
639.896	1	1
640.066	1	4
640.235	1	-5
640.405	1	-1
640.574	1	-6
640.744	1	-8
640.914	1	-2
641.083	1	10
641.253	1	-2
641.422	1	-3
641.592	1	2
641.761	1	-10
641.931	1	16
642.100	1	0
642.270	1	-4
642.439	1	8
642.609	1	15
642.778	1	-4
642.948	1	1
643.117	1	6
643.287	1	6
643.456	1	2
643.626	1	-3
643.795	1	-7
643.965	1	-2
644.134	1	4
644.304	1	-4
644.473	1	3
644.643	1	-2
644.812	1	-1
644.982	1	9
645.151	1	-2
645.321	1	9
645.490	1	17
645.660	1	-12
645.829	1	-3
645.999	1	-5
646.168	1	13
646.338	1	-6
646.507	1	2
646.677	1	0
646.846	1	-1
647.016	1	6
647.185	1	4
647.355	1	3
647.524	1	-5
647.694	1	-13
647.863	1	-3
648.033	1	-3
648.202	1	3
648.372	1	-5
648.541	1	9
648.711	1	-3
648.880	1	1
649.050	1	5
649.219	1	5
649.389	1	-4
649.558	1	6
649.728	1	-2
649.897	1	3
650.067	1	12
650.236	1	-6
650.406	1	-3
650.575	1	-2
650.745	1	-5
650.914	1	7
651.084	1	6
651.253	1	5
651.423	1	0
651.592	1	3
651.762	1	-12
651.931	1	0
652.101	1	-6
652.270	1	3
652.440	1	8
652.609	1	8
652.778	1	4
652.948	1	0
653.117	1	-6
653.287	1	-4
653.456	1	-2
653.626	1	-6
653.795	1	0
653.965	1	-5
654.134	1	-2
654.304	1	1
654.473	1	4
654.643	1	-3
654.812	1	8
654.982	1	0
655.151	1	8
655.320	1	-10
655.490	1	-5
655.659	1	3
655.829	1	6
655.998	1	3
656.168	1	-4
656.337	1	3
656.507	1	1
656.676	1	0
656.846	1	-8
657.015	1	6
657.184	1	-1
657.354	1	3
657.523	1	1
657.693	1	11
657.862	1	-3
658.032	1	-1
658.201	1	-15
658.371	1	4
658.540	1	-3
658.709	1	0
658.879	1	3
659.048	1	-1
659.218	1	-2
659.387	1	-3
659.557	1	3
659.726	1	5
659.895	1	4
660.065	1	-6
660.234	1	-1
660.404	1	1
660.573	1	10
660.743	1	-5
660.912	1	8
661.081	1	-9
661.251	1	-6
661.420	1	7
661.590	1	2
661.759	1	5
661.929	1	-5
662.098	1	-3
662.267	1	-5
662.437	1	-7
662.606	1	3
662.776	1	3
662.945	1	-1
663.115	1	11
663.284	1	-2
663.453	1	-4
663.623	1	-1
663.792	1	4
663.962	1	8
664.131	1	-4
664.300	1	-7
664.470	1	-8
664.639	1	7
664.809	1	1
664.978	1	10
665.148	1	4
665.317	1	0
665.486	1	3
665.656	1	-5
665.825	1	-2
665.995	1	-8
666.164	1	-1
666.333	1	4
666.503	1	4
666.672	1	2
666.842	1	0
667.011	1	1
667.180	1	-4
667.350	1	0
667.519	1	3
667.689	1	-4
667.858	1	1
668.027	1	2
668.197	1	-7
668.366	1	6
668.536	1	-1
668.705	1	-8
668.874	1	3
669.044	1	6
669.213	1	3
669.382	1	5
669.552	1	0
669.721	1	-1
669.891	1	-5
670.060	1	0
670.229	1	3
670.399	1	-1
670.568	1	2
670.738	1	-7
670.907	1	3
671.076	1	-6
671.246	1	2
671.415	1	14
671.584	1	9
671.754	1	-5
671.923	1	-1
672.093	1	2
672.262	1	-2
672.431	1	8
672.601	1	9
672.770	1	7
672.939	1	-2
673.109	1	1
673.278	1	-1
673.448	1	-1
673.617	1	6
673.786	1	-7
