325.333	1	9
325.504	1	-1
325.675	1	22
325.846	1	-6
326.017	1	1
326.188	1	12
326.359	1	-4
326.531	1	-11
326.702	1	11
326.873	1	10
327.044	1	10
327.215	1	-5
327.386	1	7
327.557	1	0
327.728	1	-3
327.899	1	-1
328.070	1	10
328.241	1	1
328.412	1	3
328.583	1	5
328.754	1	13
328.926	1	9
329.097	1	2
329.268	1	13
329.439	1	14
329.610	1	-4
329.781	1	13
329.952	1	11
330.123	1	3
330.294	1	2
330.465	1	-3
330.636	1	3
330.807	1	9
330.978	1	-4
331.149	1	9
331.320	1	6
331.492	1	-1
331.663	1	5
331.834	1	8
332.005	1	7
332.176	1	-5
332.347	1	8
332.518	1	4
332.689	1	7
332.860	1	10
333.031	1	12
333.202	1	8
333.373	1	6
333.544	1	3
333.715	1	-2
333.886	1	-3
334.057	1	-4
334.228	1	14
334.399	1	8
334.570	1	7
334.741	1	4
334.912	1	-1
335.084	1	7
335.255	1	8
335.426	1	12
335.597	1	4
335.768	1	9
335.939	1	1
336.110	1	2
336.281	1	3
336.452	1	16
336.623	1	2
336.794	1	11
336.965	1	4
337.136	1	18
337.307	1	-1
337.478	1	0
337.649	1	2
337.820	1	2
337.991	1	7
338.162	1	4
338.333	1	6
338.504	1	12
338.675	1	10
338.846	1	-1
339.017	1	3
339.188	1	-2
339.359	1	6
339.530	1	1
339.701	1	16
339.872	1	6
340.043	1	1
340.214	1	11
340.385	1	-3
340.556	1	17
340.727	1	3
340.898	1	6
341.069	1	-1
341.240	1	3
341.411	1	8
341.582	1	-1
341.753	1	-1
341.924	1	15
342.095	1	3
342.266	1	6
342.437	1	3
342.608	1	7
342.779	1	1
342.950	1	-4
343.121	1	13
343.292	1	6
343.463	1	21
343.634	1	0
343.805	1	11
343.976	1	10
344.147	1	10
344.318	1	-3
344.489	1	8
344.660	1	6
344.831	1	19
345.002	1	0
345.173	1	8
345.344	1	6
345.515	1	6
345.686	1	15
345.857	1	11
346.028	1	3
346.199	1	7
346.370	1	9
346.541	1	4
346.712	1	-1
346.883	1	-1
347.054	1	17
347.225	1	0
347.396	1	4
347.567	1	3
347.738	1	18
347.909	1	5
348.080	1	8
348.251	1	2
348.422	1	17
348.593	1	2
348.764	1	7
348.935	1	10
349.106	1	6
349.277	1	7
349.448	1	4
349.619	1	12
349.790	1	15
349.961	1	2
350.132	1	15
350.303	1	9
350.474	1	8
350.645	1	0
350.816	1	15
350.987	1	18
351.157	1	5
351.328	1	6
351.499	1	12
351.670	1	2
351.841	1	13
352.012	1	10
352.183	1	13
352.354	1	1
352.525	1	19
352.696	1	1
352.867	1	12
353.038	1	11
353.209	1	4
353.380	1	6
353.551	1	13
353.722	1	12
353.893	1	21
354.064	1	10
354.235	1	7
354.406	1	3
354.576	1	5
354.747	1	21
354.918	1	10
355.089	1	20
355.260	1	3
355.431	1	4
355.602	1	0
355.773	1	2
355.944	1	15
356.115	1	17
356.286	1	12
356.457	1	-1
356.628	1	3
356.799	1	16
356.970	1	23
357.141	1	18
357.311	1	19
357.482	1	6
357.653	1	6
357.824	1	12
357.995	1	16
358.166	1	9
358.337	1	7
358.508	1	24
358.679	1	3
358.850	1	18
359.021	1	9
359.192	1	13
359.363	1	12
359.533	1	13
359.704	1	2
359.875	1	10
360.046	1	9
360.217	1	19
360.388	1	22
360.559	1	16
360.730	1	3
360.901	1	10
361.072	1	15
361.243	1	13
361.414	1	15
361.584	1	13
361.755	1	12
361.926	1	26
362.097	1	8
362.268	1	14
362.439	1	4
362.610	1	16
362.781	1	3
362.952	1	16
363.123	1	5
363.293	1	14
363.464	1	7
363.635	1	18
363.806	1	9
363.977	1	17
364.148	1	16
364.319	1	5
364.490	1	20
364.661	1	6
364.832	1	22
365.002	1	17
365.173	1	18
365.344	1	9
365.515	1	21
365.686	1	20
365.857	1	16
366.028	1	6
366.199	1	21
366.370	1	13
366.540	1	11
366.711	1	19
366.882	1	13
367.053	1	11
367.224	1	20
367.395	1	2
367.566	1	18
367.737	1	7
367.908	1	16
368.078	1	13
368.249	1	10
368.420	1	12
368.591	1	14
368.762	1	10
368.933	1	5
369.104	1	22
369.274	1	10
369.445	1	18
369.616	1	17
369.787	1	12
369.958	1	16
370.129	1	9
370.300	1	8
370.471	1	18
370.641	1	14
370.812	1	17
370.983	1	7
371.154	1	2
371.325	1	9
371.496	1	9
371.667	1	17
371.837	1	15
372.008	1	12
372.179	1	18
372.350	1	13
372.521	1	16
372.692	1	16
372.863	1	12
373.033	1	19
373.204	1	2
373.375	1	23
373.546	1	18
373.717	1	-2
373.888	1	25
374.059	1	6
374.229	1	29
374.400	1	18
374.571	1	11
374.742	1	18
374.913	1	2
375.084	1	13
375.254	1	13
375.425	1	11
375.596	1	7
375.767	1	16
375.938	1	5
376.109	1	11
376.279	1	11
376.450	1	14
376.621	1	13
376.792	1	15
376.963	1	8
377.134	1	17
377.304	1	24
377.475	1	8
377.646	1	4
377.817	1	17
377.988	1	17
378.159	1	25
378.329	1	20
378.500	1	20
378.671	1	17
378.842	1	17
379.013	1	20
379.184	1	13
379.354	1	17
379.525	1	22
379.696	1	16
379.867	1	14
380.038	1	15
380.209	1	16
380.379	1	15
380.550	1	5
380.721	1	15
380.892	1	11
381.063	1	10
381.233	1	20
381.404	1	8
381.575	1	9
381.746	1	15
381.917	1	18
382.087	1	16
382.258	1	16
382.429	1	12
382.600	1	13
382.771	1	13
382.941	1	25
383.112	1	14
383.283	1	15
383.454	1	10
383.625	1	13
383.795	1	23
383.966	1	21
384.137	1	22
384.308	1	12
384.479	1	20
384.649	1	13
384.820	1	16
384.991	1	6
385.162	1	30
385.333	1	23
385.503	1	15
385.674	1	25
385.845	1	7
386.016	1	18
386.187	1	7
386.357	1	31
386.528	1	18
386.699	1	7
386.870	1	30
387.041	1	27
387.211	1	22
387.382	1	31
387.553	1	17
387.724	1	28
387.894	1	15
388.065	1	19
388.236	1	14
388.407	1	24
388.578	1	18
388.748	1	18
388.919	1	27
389.090	1	33
389.261	1	22
389.431	1	17
389.602	1	16
389.773	1	25
389.944	1	24
390.114	1	16
390.285	1	33
390.456	1	25
390.627	1	14
390.798	1	21
390.968	1	31
391.139	1	27
391.310	1	31
391.481	1	15
391.651	1	31
391.822	1	24
391.993	1	22
392.164	1	30
392.334	1	11
392.505	1	26
392.676	1	11
392.847	1	14
393.017	1	28
393.188	1	16
393.359	1	32
393.530	1	31
393.700	1	24
393.871	1	30
394.042	1	11
394.213	1	27
394.383	1	30
394.554	1	14
394.725	1	16
394.896	1	38
395.066	1	20
395.237	1	25
395.408	1	17
395.579	1	14
395.749	1	37
395.920	1	25
396.091	1	19
396.262	1	20
396.432	1	19
396.603	1	22
396.774	1	23
396.945	1	21
397.115	1	20
397.286	1	27
397.457	1	12
397.627	1	10
397.798	1	29
397.969	1	22
398.140	1	23
398.310	1	31
398.481	1	25
398.652	1	32
398.823	1	21
398.993	1	17
399.164	1	22
399.335	1	28
399.505	1	11
399.676	1	20
399.847	1	21
400.018	1	11
400.188	1	21
400.359	1	39
400.530	1	15
400.700	1	23
400.871	1	29
401.042	1	22
401.213	1	24
401.383	1	18
401.554	1	18
401.725	1	17
401.895	1	12
402.066	1	21
402.237	1	20
402.408	1	22
402.578	1	24
402.749	1	14
402.920	1	21
403.090	1	24
403.261	1	24
403.432	1	20
403.603	1	26
403.773	1	38
403.944	1	16
404.115	1	25
404.285	1	33
404.456	1	35
404.627	1	30
404.797	1	27
404.968	1	33
405.139	1	26
405.310	1	26
405.480	1	18
405.651	1	23
405.822	1	21
405.992	1	31
406.163	1	16
406.334	1	29
406.504	1	28
406.675	1	18
406.846	1	32
407.016	1	32
407.187	1	27
407.358	1	16
407.528	1	26
407.699	1	31
407.870	1	29
408.041	1	20
408.211	1	35
408.382	1	28
408.553	1	39
408.723	1	28
408.894	1	23
409.065	1	20
409.235	1	32
409.406	1	20
409.577	1	18
409.747	1	24
409.918	1	35
410.089	1	19
410.259	1	38
410.430	1	27
410.601	1	31
410.771	1	31
410.942	1	27
411.113	1	20
411.283	1	23
411.454	1	42
411.625	1	28
411.795	1	25
411.966	1	40
412.137	1	23
412.307	1	26
412.478	1	25
412.649	1	22
412.819	1	29
412.990	1	41
413.161	1	25
413.331	1	27
413.502	1	24
413.672	1	28
413.843	1	32
414.014	1	24
414.184	1	28
414.355	1	27
414.526	1	27
414.696	1	19
414.867	1	19
415.038	1	32
415.208	1	12
415.379	1	27
415.550	1	33
415.720	1	19
415.891	1	28
416.062	1	37
416.232	1	29
416.403	1	28
416.573	1	24
416.744	1	40
416.915	1	25
417.085	1	26
417.256	1	24
417.427	1	21
417.597	1	19
417.768	1	28
417.939	1	25
418.109	1	14
418.280	1	24
418.450	1	39
418.621	1	13
418.792	1	28
418.962	1	25
419.133	1	24
419.304	1	22
419.474	1	35
419.645	1	30
419.815	1	34
419.986	1	39
420.157	1	22
420.327	1	20
420.498	1	22
420.669	1	42
420.839	1	22
421.010	1	28
421.180	1	26
421.351	1	18
421.522	1	29
421.692	1	27
421.863	1	18
422.033	1	34
422.204	1	21
422.375	1	20
422.545	1	33
422.716	1	20
422.886	1	25
423.057	1	30
423.228	1	22
423.398	1	23
423.569	1	24
423.740	1	29
423.910	1	26
424.081	1	35
424.251	1	33
424.422	1	21
424.593	1	29
424.763	1	27
424.934	1	21
425.104	1	35
425.275	1	30
425.445	1	15
425.616	1	28
425.787	1	23
425.957	1	15
426.128	1	29
426.298	1	24
426.469	1	11
426.640	1	29
426.810	1	6
426.981	1	30
427.151	1	21
427.322	1	25
427.493	1	22
427.663	1	35
427.834	1	17
428.004	1	21
428.175	1	28
428.345	1	14
428.516	1	20
428.687	1	30
428.857	1	23
429.028	1	11
429.198	1	7
429.369	1	22
429.540	1	18
429.710	1	25
429.881	1	20
430.051	1	17
430.222	1	30
430.392	1	18
430.563	1	17
430.734	1	30
430.904	1	34
431.075	1	10
431.245	1	22
431.416	1	26
431.586	1	14
431.757	1	32
431.927	1	37
432.098	1	30
432.269	1	20
432.439	1	15
432.610	1	28
432.780	1	23
432.951	1	16
433.121	1	21
433.292	1	26
433.462	1	17
433.633	1	26
433.804	1	24
433.974	1	19
434.145	1	20
434.315	1	12
434.486	1	8
434.656	1	28
434.827	1	26
434.997	1	19
435.168	1	29
435.339	1	35
435.509	1	18
435.680	1	19
435.850	1	17
436.021	1	13
436.191	1	20
436.362	1	22
436.532	1	26
436.703	1	30
436.873	1	17
437.044	1	19
437.214	1	17
437.385	1	11
437.556	1	30
437.726	1	15
437.897	1	20
438.067	1	31
438.238	1	18
438.408	1	21
438.579	1	10
438.749	1	24
438.920	1	28
439.090	1	10
439.261	1	18
439.431	1	5
439.602	1	19
439.772	1	26
439.943	1	9
440.113	1	16
440.284	1	38
440.455	1	16
440.625	1	22
440.796	1	20
440.966	1	25
441.137	1	26
441.307	1	19
441.478	1	10
441.648	1	30
441.819	1	15
441.989	1	23
442.160	1	25
442.330	1	23
442.501	1	16
442.671	1	12
442.842	1	14
443.012	1	22
443.183	1	21
443.353	1	18
443.524	1	29
443.694	1	18
443.865	1	19
444.035	1	20
444.206	1	8
444.376	1	24
444.547	1	25
444.717	1	18
444.888	1	0
445.058	1	15
445.229	1	14
445.399	1	19
445.570	1	17
445.740	1	18
445.911	1	19
446.081	1	21
446.252	1	15
446.422	1	19
446.593	1	20
446.763	1	17
446.934	1	4
447.104	1	12
447.275	1	16
447.445	1	28
447.616	1	17
447.786	1	12
447.957	1	18
448.127	1	13
448.298	1	17
448.468	1	15
448.639	1	14
448.809	1	12
448.979	1	24
449.150	1	18
449.320	1	16
449.491	1	11
449.661	1	9
449.832	1	9
450.002	1	6
450.173	1	15
450.343	1	24
450.514	1	20
450.684	1	19
450.855	1	32
451.025	1	14
451.196	1	14
451.366	1	23
451.537	1	14
451.707	1	20
451.878	1	10
452.048	1	22
452.218	1	19
452.389	1	23
452.559	1	33
452.730	1	10
452.900	1	18
453.071	1	34
453.241	1	25
453.412	1	13
453.582	1	27
453.753	1	10
453.923	1	15
454.093	1	21
454.264	1	27
454.434	1	30
454.605	1	9
454.775	1	17
454.946	1	19
455.116	1	16
455.287	1	9
455.457	1	25
455.628	1	12
455.798	1	19
455.968	1	3
456.139	1	27
456.309	1	12
456.480	1	14
456.650	1	16
456.821	1	12
456.991	1	21
457.161	1	24
457.332	1	18
457.502	1	14
457.673	1	-2
457.843	1	8
458.014	1	15
458.184	1	15
458.355	1	24
458.525	1	6
458.695	1	14
458.866	1	5
459.036	1	22
459.207	1	20
459.377	1	14
459.548	1	13
459.718	1	16
459.888	1	2
460.059	1	17
460.229	1	5
460.400	1	22
460.570	1	9
460.740	1	21
460.911	1	13
461.081	1	22
461.252	1	10
461.422	1	10
461.593	1	15
461.763	1	21
461.933	1	5
462.104	1	9
462.274	1	8
462.445	1	9
462.615	1	23
462.785	1	15
462.956	1	8
463.126	1	12
463.297	1	19
463.467	1	19
463.638	1	22
463.808	1	10
463.978	1	5
464.149	1	13
464.319	1	19
464.490	1	3
464.660	1	9
464.830	1	16
465.001	1	8
465.171	1	7
465.342	1	7
465.512	1	15
465.682	1	6
465.853	1	17
466.023	1	20
466.194	1	16
466.364	1	22
466.534	1	4
466.705	1	21
466.875	1	1
467.045	1	2
467.216	1	20
467.386	1	7
467.557	1	22
467.727	1	3
467.897	1	25
468.068	1	10
468.238	1	3
468.409	1	19
468.579	1	18
468.749	1	8
468.920	1	11
469.090	1	8
469.260	1	19
469.431	1	4
469.601	1	15
469.772	1	29
469.942	1	17
470.112	1	-6
470.283	1	18
470.453	1	20
470.623	1	6
470.794	1	9
470.964	1	1
471.135	1	10
471.305	1	12
471.475	1	10
471.646	1	10
471.816	1	4
471.986	1	12
472.157	1	-1
472.327	1	15
472.497	1	4
472.668	1	13
472.838	1	9
473.009	1	6
473.179	1	8
473.349	1	10
473.520	1	23
473.690	1	12
473.860	1	5
474.031	1	4
474.201	1	14
474.371	1	11
474.542	1	4
474.712	1	8
474.882	1	6
475.053	1	13
475.223	1	15
475.394	1	1
475.564	1	10
475.734	1	5
475.905	1	10
476.075	1	14
476.245	1	9
476.416	1	0
476.586	1	7
476.756	1	8
476.927	1	10
477.097	1	9
477.267	1	2
477.438	1	13
477.608	1	23
477.778	1	7
477.949	1	5
478.119	1	12
478.289	1	2
478.460	1	-2
478.630	1	14
478.800	1	5
478.971	1	12
479.141	1	18
479.311	1	12
479.482	1	4
479.652	1	16
479.822	1	4
479.993	1	18
480.163	1	13
480.333	1	11
480.504	1	8
480.674	1	14
480.844	1	13
481.015	1	18
481.185	1	15
481.355	1	10
481.525	1	4
481.696	1	12
481.866	1	13
482.036	1	15
482.207	1	13
482.377	1	2
482.547	1	6
482.718	1	21
482.888	1	9
483.058	1	12
483.229	1	2
483.399	1	16
483.569	1	4
483.740	1	13
483.910	1	1
484.080	1	6
484.250	1	4
484.421	1	-3
484.591	1	9
484.761	1	16
484.932	1	11
485.102	1	14
485.272	1	7
485.443	1	17
485.613	1	5
485.783	1	19
485.953	1	2
486.124	1	6
486.294	1	11
486.464	1	11
486.635	1	8
486.805	1	2
486.975	1	7
487.146	1	10
487.316	1	6
487.486	1	10
487.656	1	8
487.827	1	13
487.997	1	-1
488.167	1	14
488.338	1	8
488.508	1	9
488.678	1	4
488.848	1	6
489.019	1	11
489.189	1	7
489.359	1	14
489.529	1	8
489.700	1	10
489.870	1	16
490.040	1	2
490.211	1	-4
490.381	1	11
490.551	1	7
490.721	1	14
490.892	1	6
491.062	1	8
491.232	1	12
491.402	1	10
491.573	1	13
491.743	1	0
491.913	1	3
492.084	1	14
492.254	1	9
492.424	1	5
492.594	1	2
492.765	1	16
492.935	1	14
493.105	1	7
493.275	1	5
493.446	1	-13
493.616	1	-2
493.786	1	6
493.956	1	10
494.127	1	3
494.297	1	-8
494.467	1	12
494.637	1	7
494.808	1	14
494.978	1	15
495.148	1	9
495.318	1	7
495.489	1	4
495.659	1	9
495.829	1	7
495.999	1	15
496.170	1	20
496.340	1	-1
496.510	1	9
496.680	1	0
496.851	1	17
497.021	1	6
497.191	1	8
497.361	1	-1
497.532	1	18
497.702	1	8
497.872	1	5
498.042	1	7
498.213	1	-4
498.383	1	-3
498.553	1	3
498.723	1	9
498.894	1	12
499.064	1	-3
499.234	1	11
499.404	1	13
499.574	1	10
499.745	1	17
499.915	1	7
500.085	1	0
500.255	1	-7
500.426	1	6
500.596	1	3
500.766	1	2
500.936	1	6
501.106	1	8
501.277	1	-5
501.447	1	6
501.617	1	-1
501.787	1	-4
501.958	1	8
502.128	1	0
502.298	1	15
502.468	1	-3
502.638	1	10
502.809	1	-5
502.979	1	8
503.149	1	6
503.319	1	12
503.489	1	-5
503.660	1	-5
503.830	1	7
504.000	1	13
504.170	1	-4
504.340	1	1
504.511	1	-1
504.681	1	-2
504.851	1	-4
505.021	1	12
505.192	1	7
505.362	1	5
505.532	1	-1
505.702	1	19
505.872	1	-5
506.043	1	10
506.213	1	11
506.383	1	1
506.553	1	-4
506.723	1	4
506.893	1	7
507.064	1	12
507.234	1	7
507.404	1	-3
507.574	1	2
507.744	1	8
507.915	1	3
508.085	1	2
508.255	1	11
508.425	1	-1
508.595	1	0
508.766	1	-2
508.936	1	5
509.106	1	4
509.276	1	9
509.446	1	-11
509.616	1	6
509.787	1	5
509.957	1	3
510.127	1	-8
510.297	1	-1
510.467	1	12
510.638	1	5
510.808	1	7
510.978	1	-3
511.148	1	3
511.318	1	11
511.488	1	9
511.659	1	5
511.829	1	-8
511.999	1	1
512.169	1	5
512.339	1	11
512.509	1	6
512.680	1	5
512.850	1	4
513.020	1	14
513.190	1	-7
513.360	1	5
513.530	1	-6
513.700	1	3
513.871	1	0
514.041	1	3
514.211	1	3
514.381	1	10
514.551	1	-1
514.721	1	10
514.892	1	-5
515.062	1	5
515.232	1	2
515.402	1	7
515.572	1	6
515.742	1	0
515.912	1	-1
516.083	1	6
516.253	1	8
516.423	1	2
516.593	1	4
516.763	1	10
516.933	1	10
517.104	1	9
517.274	1	-12
517.444	1	-3
517.614	1	-3
517.784	1	2
517.954	1	3
518.124	1	12
518.294	1	-1
518.465	1	-1
518.635	1	18
518.805	1	9
518.975	1	11
519.145	1	0
519.315	1	5
519.485	1	-2
519.656	1	-4
519.826	1	-2
519.996	1	11
520.166	1	5
520.336	1	7
520.506	1	11
520.676	1	5
520.846	1	1
521.017	1	4
521.187	1	8
521.357	1	-4
521.527	1	-2
521.697	1	-1
521.867	1	11
522.037	1	3
522.207	1	0
522.377	1	3
522.548	1	-4
522.718	1	3
522.888	1	0
523.058	1	3
523.228	1	-2
523.398	1	0
523.568	1	0
523.738	1	-4
523.909	1	2
524.079	1	-5
524.249	1	3
524.419	1	4
524.589	1	4
524.759	1	10
524.929	1	6
525.099	1	1
525.269	1	3
525.439	1	-5
525.610	1	7
525.780	1	8
525.950	1	17
526.120	1	-5
526.290	1	-1
526.460	1	-4
526.630	1	3
526.800	1	-3
526.970	1	-3
527.140	1	7
527.311	1	1
527.481	1	17
527.651	1	5
527.821	1	-3
527.991	1	3
528.161	1	7
528.331	1	-5
528.501	1	-7
528.671	1	10
528.841	1	11
529.011	1	1
529.181	1	6
529.352	1	6
529.522	1	4
529.692	1	3
529.862	1	-7
530.032	1	3
530.202	1	0
530.372	1	5
530.542	1	-1
530.712	1	1
530.882	1	10
531.052	1	2
531.222	1	12
531.392	1	-2
531.563	1	5
531.733	1	7
531.903	1	8
532.073	1	3
532.243	1	3
532.413	1	15
532.583	1	12
532.753	1	-4
532.923	1	6
533.093	1	-8
533.263	1	-3
533.433	1	-12
533.603	1	-4
533.773	1	13
533.943	1	13
534.113	1	8
534.284	1	7
534.454	1	1
534.624	1	-2
534.794	1	1
534.964	1	-2
535.134	1	-3
535.304	1	8
535.474	1	2
535.644	1	8
535.814	1	1
535.984	1	0
536.154	1	5
536.324	1	4
536.494	1	5
536.664	1	6
536.834	1	-2
537.004	1	6
537.174	1	1
537.344	1	13
537.514	1	-6
537.685	1	11
537.855	1	1
538.025	1	9
538.195	1	1
538.365	1	5
538.535	1	-7
538.705	1	-6
538.875	1	1
539.045	1	5
539.215	1	-2
539.385	1	3
539.555	1	1
539.725	1	3
539.895	1	5
540.065	1	2
540.235	1	6
540.405	1	5
540.575	1	3
540.745	1	3
540.915	1	6
541.085	1	-2
541.255	1	3
541.425	1	-9
541.595	1	6
541.765	1	9
541.935	1	6
542.105	1	-4
542.275	1	0
542.445	1	-3
542.615	1	2
542.785	1	0
542.955	1	12
543.125	1	-4
543.295	1	8
543.465	1	13
543.635	1	0
543.805	1	8
543.975	1	-6
544.145	1	3
544.315	1	1
544.485	1	0
544.655	1	9
544.825	1	7
544.995	1	-3
545.165	1	-7
545.335	1	1
545.505	1	-1
545.675	1	10
545.845	1	3
546.015	1	1
546.185	1	-6
546.355	1	-1
546.525	1	6
546.695	1	-4
546.865	1	6
547.035	1	6
547.205	1	11
547.375	1	9
547.545	1	7
547.715	1	5
547.885	1	-1
548.055	1	-1
548.225	1	13
548.395	1	2
548.565	1	4
548.735	1	-12
548.905	1	18
549.075	1	4
549.245	1	4
549.415	1	-4
549.585	1	5
549.755	1	7
549.925	1	3
550.095	1	-10
550.265	1	-1
550.435	1	0
550.605	1	0
550.775	1	-10
550.945	1	1
551.115	1	6
551.285	1	-2
551.455	1	8
551.625	1	-11
551.795	1	-8
551.965	1	-6
552.135	1	-2
552.305	1	6
552.475	1	-2
552.645	1	-1
552.815	1	2
552.985	1	2
553.155	1	3
553.325	1	-4
553.495	1	2
553.665	1	-3
553.835	1	-3
554.004	1	4
554.174	1	-2
554.344	1	3
554.514	1	1
554.684	1	7
554.854	1	-9
555.024	1	7
555.194	1	4
555.364	1	-4
555.534	1	-5
555.704	1	11
555.874	1	6
556.044	1	1
556.214	1	1
556.384	1	-2
556.554	1	11
556.724	1	4
556.894	1	7
557.064	1	3
557.234	1	0
557.404	1	2
557.573	1	5
557.743	1	0
557.913	1	6
558.083	1	6
558.253	1	7
558.423	1	2
558.593	1	5
558.763	1	5
558.933	1	-1
559.103	1	-7
559.273	1	7
559.443	1	1
559.613	1	8
559.783	1	-2
559.953	1	-1
560.122	1	1
560.292	1	-11
560.462	1	1
560.632	1	-1
560.802	1	12
560.972	1	-5
561.142	1	7
561.312	1	1
561.482	1	14
561.652	1	1
561.822	1	3
561.992	1	4
562.162	1	-4
562.331	1	0
562.501	1	7
562.671	1	2
562.841	1	-5
563.011	1	1
563.181	1	-5
563.351	1	-9
563.521	1	-2
563.691	1	6
563.861	1	7
564.031	1	-3
564.201	1	2
564.370	1	-1
564.540	1	-3
564.710	1	2
564.880	1	1
565.050	1	1
565.220	1	-1
565.390	1	-4
565.560	1	9
565.730	1	7
565.900	1	6
566.069	1	10
566.239	1	10
566.409	1	6
566.579	1	6
566.749	1	-3
566.919	1	-3
567.089	1	-14
567.259	1	0
567.429	1	-9
567.599	1	7
567.768	1	-6
567.938	1	-7
568.108	1	2
568.278	1	6
568.448	1	-6
568.618	1	5
568.788	1	2
568.958	1	3
569.128	1	-1
569.297	1	-6
569.467	1	9
569.637	1	6
569.807	1	6
569.977	1	-1
570.147	1	4
570.317	1	4
570.487	1	-2
570.656	1	5
570.826	1	-5
570.996	1	12
571.166	1	-2
571.336	1	6
571.506	1	-6
571.676	1	13
571.846	1	2
572.015	1	9
572.185	1	-1
572.355	1	2
572.525	1	-20
572.695	1	-1
572.865	1	8
573.035	1	0
573.205	1	3
573.374	1	-5
573.544	1	3
573.714	1	-3
573.884	1	0
574.054	1	4
574.224	1	-5
574.394	1	0
574.563	1	-5
574.733	1	-2
574.903	1	1
575.073	1	-1
575.243	1	1
575.413	1	-5
575.583	1	-1
575.752	1	-3
575.922	1	8
576.092	1	-10
576.262	1	7
576.432	1	0
576.602	1	7
576.772	1	1
576.941	1	2
577.111	1	-3
577.281	1	0
577.451	1	4
577.621	1	5
577.791	1	5
577.960	1	7
578.130	1	5
578.300	1	-13
578.470	1	0
578.640	1	-6
578.810	1	6
578.979	1	2
579.149	1	2
579.319	1	8
579.489	1	3
579.659	1	-6
579.829	1	-6
579.998	1	-13
580.168	1	-16
580.338	1	2
580.508	1	7
580.678	1	3
580.848	1	-4
581.017	1	0
581.187	1	0
581.357	1	8
581.527	1	-4
581.697	1	2
581.867	1	-4
582.036	1	-4
582.206	1	0
582.376	1	0
582.546	1	2
582.716	1	2
582.885	1	1
583.055	1	-8
583.225	1	1
583.395	1	-8
583.565	1	8
583.735	1	3
583.904	1	1
584.074	1	-6
584.244	1	-3
584.414	1	3
584.584	1	0
584.753	1	-2
584.923	1	-1
585.093	1	5
585.263	1	2
585.433	1	1
585.602	1	8
585.772	1	11
585.942	1	-4
586.112	1	1
586.282	1	3
586.451	1	5
586.621	1	1
586.791	1	-6
586.961	1	-1
587.131	1	-1
587.300	1	5
587.470	1	2
587.640	1	-6
587.810	1	-14
587.980	1	8
588.149	1	-1
588.319	1	5
588.489	1	4
588.659	1	3
588.829	1	-3
588.998	1	6
589.168	1	3
589.338	1	5
589.508	1	-6
589.677	1	4
589.847	1	8
590.017	1	0
590.187	1	2
590.357	1	0
590.526	1	-8
590.696	1	5
590.866	1	-10
591.036	1	-1
591.205	1	11
591.375	1	2
591.545	1	-3
591.715	1	-2
591.885	1	7
592.054	1	4
592.224	1	-3
592.394	1	-9
592.564	1	-2
592.733	1	-5
592.903	1	0
593.073	1	-11
593.243	1	16
593.412	1	-7
593.582	1	2
593.752	1	2
593.922	1	3
594.091	1	7
594.261	1	-10
594.431	1	9
594.601	1	-3
594.771	1	1
594.940	1	-12
595.110	1	8
595.280	1	3
595.450	1	0
595.619	1	2
595.789	1	-1
595.959	1	3
596.129	1	-3
596.298	1	11
596.468	1	-1
596.638	1	5
596.808	1	-13
596.977	1	2
597.147	1	-11
597.317	1	0
597.487	1	-3
597.656	1	-6
597.826	1	11
597.996	1	0
598.166	1	-6
598.335	1	-8
598.505	1	0
598.675	1	0
598.844	1	11
599.014	1	-12
599.184	1	-1
599.354	1	11
599.523	1	1
599.693	1	-2
599.863	1	-2
600.033	1	1
600.202	1	-9
600.372	1	-4
600.542	1	-3
600.712	1	-8
600.881	1	-3
601.051	1	9
601.221	1	4
601.390	1	11
601.560	1	9
601.730	1	-2
601.900	1	-3
602.069	1	1
602.239	1	-5
602.409	1	3
602.578	1	4
602.748	1	18
602.918	1	-2
603.088	1	7
603.257	1	-3
603.427	1	3
603.597	1	-4
603.767	1	-6
603.936	1	0
604.106	1	6
604.276	1	0
604.445	1	-8
604.615	1	6
604.785	1	3
604.954	1	-2
605.124	1	7
605.294	1	2
605.464	1	-4
605.633	1	2
605.803	1	9
605.973	1	3
606.142	1	5
606.312	1	2
606.482	1	-6
606.652	1	7
606.821	1	6
606.991	1	9
607.161	1	-7
607.330	1	0
607.500	1	7
607.670	1	6
607.839	1	0
608.009	1	-3
608.179	1	6
608.348	1	6
608.518	1	15
608.688	1	-1
608.858	1	6
609.027	1	1
609.197	1	13
609.367	1	1
609.536	1	-2
609.706	1	0
609.876	1	7
610.045	1	5
610.215	1	0
610.385	1	3
610.554	1	-1
610.724	1	3
610.894	1	2
611.063	1	-2
611.233	1	10
611.403	1	1
611.572	1	10
611.742	1	-1
611.912	1	4
612.081	1	3
612.251	1	0
612.421	1	5
612.590	1	1
612.760	1	-3
612.930	1	2
613.099	1	11
613.269	1	6
613.439	1	-5
613.608	1	-2
613.778	1	-2
613.948	1	8
614.117	1	3
614.287	1	-9
614.457	1	3
614.626	1	9
614.796	1	6
614.966	1	3
615.135	1	7
615.305	1	1
615.475	1	4
615.644	1	6
615.814	1	13
615.984	1	-8
616.153	1	0
616.323	1	-9
616.493	1	-2
616.662	1	-4
616.832	1	11
617.002	1	4
617.171	1	2
617.341	1	10
617.511	1	1
617.680	1	-6
617.850	1	-3
618.019	1	3
618.189	1	8
618.359	1	7
618.528	1	-5
618.698	1	3
618.868	1	1
619.037	1	2
619.207	1	-1
619.377	1	3
619.546	1	3
619.716	1	-4
619.885	1	-3
620.055	1	-2
620.225	1	2
620.394	1	4
620.564	1	7
620.734	1	6
620.903	1	-16
621.073	1	5
621.242	1	5
621.412	1	2
621.582	1	9
621.751	1	-14
621.921	1	-7
622.091	1	3
622.260	1	2
622.430	1	-4
622.599	1	1
622.769	1	-6
622.939	1	-6
623.108	1	-1
623.278	1	-1
623.448	1	-1
623.617	1	3
623.787	1	1
623.956	1	8
624.126	1	12
624.296	1	5
624.465	1	9
624.635	1	-3
624.804	1	-1
624.974	1	-5
625.144	1	2
625.313	1	8
625.483	1	2
625.652	1	-8
625.822	1	17
625.992	1	0
626.161	1	5
626.331	1	-2
626.501	1	-4
626.670	1	-1
626.840	1	-3
627.009	1	6
627.179	1	8
627.348	1	-2
627.518	1	8
627.688	1	-10
627.857	1	13
628.027	1	7
628.196	1	10
628.366	1	-12
628.536	1	-6
628.705	1	-10
628.875	1	3
629.044	1	2
629.214	1	10
629.384	1	15
629.553	1	-1
629.723	1	4
629.892	1	3
630.062	1	6
630.232	1	9
630.401	1	7
630.571	1	-4
630.740	1	3
630.910	1	2
631.079	1	-3
631.249	1	-1
631.419	1	-4
631.588	1	8
631.758	1	-4
631.927	1	8
632.097	1	-4
632.266	1	7
632.436	1	1
632.606	1	3
632.775	1	11
632.945	1	-1
633.114	1	-5
633.284	1	-1
633.453	1	5
633.623	1	6
633.793	1	-7
633.962	1	13
634.132	1	0
634.301	1	7
634.471	1	2
634.640	1	-1
634.810	1	9
634.979	1	8
635.149	1	4
635.319	1	8
635.488	1	5
635.658	1	12
635.827	1	-2
635.997	1	5
636.166	1	0
636.336	1	-3
636.505	1	-2
636.675	1	7
636.845	1	3
637.014	1	-4
637.184	1	7
637.353	1	-4
637.523	1	-1
637.692	1	15
637.862	1	-1
638.031	1	-3
638.201	1	12
638.370	1	4
638.540	1	3
638.710	1	-2
638.879	1	-10
639.049	1	4
639.218	1	5
639.388	1	-3
639.557	1	5
639.727	1	9
639.896	1	-9
640.066	1	-3
640.235	1	-8
640.405	1	7
640.574	1	10
640.744	1	-5
640.914	1	8
641.083	1	8
641.253	1	2
641.422	1	-7
641.592	1	-1
641.761	1	0
641.931	1	20
642.100	1	-2
642.270	1	-3
642.439	1	6
642.609	1	12
642.778	1	1
642.948	1	5
643.117	1	6
643.287	1	-3
643.456	1	-9
643.626	1	4
643.795	1	-5
643.965	1	5
644.134	1	2
644.304	1	-3
644.473	1	-1
644.643	1	-9
644.812	1	-5
644.982	1	9
645.151	1	3
645.321	1	3
645.490	1	19
645.660	1	-9
645.829	1	-1
645.999	1	-4
646.168	1	27
646.338	1	-6
646.507	1	-7
646.677	1	6
646.846	1	3
647.016	1	12
647.185	1	9
647.355	1	15
647.524	1	-8
647.694	1	-1
647.863	1	-7
648.033	1	7
648.202	1	-1
648.372	1	-5
648.541	1	-2
648.711	1	2
648.880	1	6
649.050	1	14
649.219	1	0
649.389	1	-6
649.558	1	-1
649.728	1	6
649.897	1	8
650.067	1	16
650.236	1	-8
650.406	1	1
650.575	1	8
650.745	1	2
650.914	1	11
651.084	1	-1
651.253	1	11
651.423	1	-2
651.592	1	1
651.762	1	-2
651.931	1	2
652.101	1	-9
652.270	1	5
652.440	1	-4
652.609	1	-1
652.778	1	5
652.948	1	10
653.117	1	-4
653.287	1	-8
653.456	1	-7
653.626	1	5
653.795	1	5
653.965	1	2
654.134	1	0
654.304	1	12
654.473	1	9
654.643	1	0
654.812	1	13
654.982	1	7
655.151	1	8
655.320	1	-6
655.490	1	-4
655.659	1	4
655.829	1	-2
655.998	1	4
656.168	1	-4
656.337	1	4
656.507	1	0
656.676	1	-1
656.846	1	-3
657.015	1	11
657.184	1	-2
657.354	1	6
657.523	1	-4
657.693	1	9
657.862	1	-5
658.032	1	-3
658.201	1	-4
658.371	1	1
658.540	1	-1
658.709	1	4
658.879	1	7
659.048	1	4
659.218	1	3
659.387	1	6
659.557	1	-2
659.726	1	1
659.895	1	6
660.065	1	-12
660.234	1	-6
660.404	1	-2
660.573	1	3
660.743	1	-5
660.912	1	8
661.081	1	-4
661.251	1	7
661.420	1	7
661.590	1	-1
661.759	1	8
661.929	1	2
662.098	1	-2
662.267	1	-7
662.437	1	-4
662.606	1	-4
662.776	1	-2
662.945	1	4
663.115	1	7
663.284	1	9
663.453	1	3
663.623	1	5
663.792	1	13
663.962	1	3
664.131	1	-10
664.300	1	-5
664.470	1	4
664.639	1	8
664.809	1	3
664.978	1	12
665.148	1	15
665.317	1	1
665.486	1	2
665.656	1	0
665.825	1	9
665.995	1	-3
666.164	1	3
666.333	1	1
666.503	1	-7
666.672	1	5
666.842	1	6
667.011	1	-1
667.180	1	-3
667.350	1	10
667.519	1	11
667.689	1	-3
667.858	1	8
668.027	1	4
668.197	1	-4
668.366	1	-1
668.536	1	-2
668.705	1	0
668.874	1	12
669.044	1	4
669.213	1	11
669.382	1	-1
669.552	1	5
669.721	1	-1
669.891	1	-5
670.060	1	-1
670.229	1	11
670.399	1	2
670.568	1	13
670.738	1	-10
670.907	1	2
671.076	1	1
671.246	1	6
671.415	1	11
671.584	1	4
671.754	1	-7
671.923	1	0
672.093	1	12
672.262	1	3
672.431	1	6
672.601	1	8
672.770	1	4
672.939	1	12
673.109	1	3
673.278	1	3
673.448	1	15
673.617	1	9
673.786	1	-13
