325.333	1	14
325.504	1	10
325.675	1	19
325.846	1	14
326.017	1	26
326.188	1	18
326.359	1	17
326.531	1	7
326.702	1	13
326.873	1	34
327.044	1	29
327.215	1	23
327.386	1	21
327.557	1	18
327.728	1	16
327.899	1	24
328.070	1	25
328.241	1	23
328.412	1	22
328.583	1	25
328.754	1	26
328.926	1	29
329.097	1	22
329.268	1	24
329.439	1	30
329.610	1	23
329.781	1	14
329.952	1	30
330.123	1	14
330.294	1	17
330.465	1	13
330.636	1	24
330.807	1	27
330.978	1	32
331.149	1	29
331.320	1	28
331.492	1	18
331.663	1	24
331.834	1	24
332.005	1	36
332.176	1	22
332.347	1	22
332.518	1	25
332.689	1	28
332.860	1	22
333.031	1	28
333.202	1	35
333.373	1	32
333.544	1	25
333.715	1	29
333.886	1	28
334.057	1	21
334.228	1	30
334.399	1	37
334.570	1	31
334.741	1	35
334.912	1	29
335.084	1	37
335.255	1	34
335.426	1	23
335.597	1	29
335.768	1	37
335.939	1	35
336.110	1	26
336.281	1	36
336.452	1	39
336.623	1	32
336.794	1	38
336.965	1	30
337.136	1	40
337.307	1	27
337.478	1	33
337.649	1	29
337.820	1	37
337.991	1	31
338.162	1	26
338.333	1	35
338.504	1	31
338.675	1	35
338.846	1	16
339.017	1	35
339.188	1	34
339.359	1	38
339.530	1	33
339.701	1	34
339.872	1	43
340.043	1	38
340.214	1	42
340.385	1	29
340.556	1	39
340.727	1	50
340.898	1	28
341.069	1	31
341.240	1	33
341.411	1	49
341.582	1	28
341.753	1	33
341.924	1	57
342.095	1	34
342.266	1	37
342.437	1	37
342.608	1	41
342.779	1	40
342.950	1	33
343.121	1	42
343.292	1	41
343.463	1	63
343.634	1	46
343.805	1	47
343.976	1	41
344.147	1	44
344.318	1	32
344.489	1	43
344.660	1	49
344.831	1	48
345.002	1	44
345.173	1	37
345.344	1	38
345.515	1	42
345.686	1	42
345.857	1	42
346.028	1	46
346.199	1	50
346.370	1	40
346.541	1	45
346.712	1	50
346.883	1	48
347.054	1	49
347.225	1	35
347.396	1	43
347.567	1	49
347.738	1	51
347.909	1	53
348.080	1	48
348.251	1	47
348.422	1	51
348.593	1	46
348.764	1	58
348.935	1	55
349.106	1	41
349.277	1	44
349.448	1	52
349.619	1	51
349.790	1	62
349.961	1	42
350.132	1	57
350.303	1	54
350.474	1	50
350.645	1	50
350.816	1	54
350.987	1	65
351.157	1	56
351.328	1	54
351.499	1	58
351.670	1	55
351.841	1	58
352.012	1	62
352.183	1	66
352.354	1	34
352.525	1	59
352.696	1	51
352.867	1	63
353.038	1	49
353.209	1	62
353.380	1	55
353.551	1	58
353.722	1	49
353.893	1	63
354.064	1	55
354.235	1	53
354.406	1	53
354.576	1	53
354.747	1	58
354.918	1	45
355.089	1	58
355.260	1	59
355.431	1	48
355.602	1	63
355.773	1	52
355.944	1	58
356.115	1	54
356.286	1	60
356.457	1	66
356.628	1	53
356.799	1	69
356.970	1	78
357.141	1	62
357.311	1	75
357.482	1	55
357.653	1	63
357.824	1	67
357.995	1	69
358.166	1	62
358.337	1	64
358.508	1	74
358.679	1	56
358.850	1	78
359.021	1	70
359.192	1	63
359.363	1	79
359.533	1	67
359.704	1	72
359.875	1	56
360.046	1	62
360.217	1	71
360.388	1	87
360.559	1	72
360.730	1	61
360.901	1	70
361.072	1	70
361.243	1	59
361.414	1	74
361.584	1	54
361.755	1	67
361.926	1	70
362.097	1	66
362.268	1	74
362.439	1	55
362.610	1	75
362.781	1	59
362.952	1	79
363.123	1	53
363.293	1	76
363.464	1	68
363.635	1	66
363.806	1	66
363.977	1	64
364.148	1	64
364.319	1	64
364.490	1	72
364.661	1	76
364.832	1	71
365.002	1	81
365.173	1	75
365.344	1	72
365.515	1	79
365.686	1	68
365.857	1	76
366.028	1	68
366.199	1	74
366.370	1	69
366.540	1	69
366.711	1	69
366.882	1	73
367.053	1	69
367.224	1	67
367.395	1	85
367.566	1	74
367.737	1	53
367.908	1	76
368.078	1	70
368.249	1	80
368.420	1	76
368.591	1	80
368.762	1	81
368.933	1	72
369.104	1	70
369.274	1	81
369.445	1	81
369.616	1	71
369.787	1	77
369.958	1	78
370.129	1	74
370.300	1	54
370.471	1	71
370.641	1	72
370.812	1	66
370.983	1	60
371.154	1	78
371.325	1	70
371.496	1	71
371.667	1	81
371.837	1	78
372.008	1	72
372.179	1	74
372.350	1	72
372.521	1	87
372.692	1	66
372.863	1	71
373.033	1	74
373.204	1	76
373.375	1	73
373.546	1	81
373.717	1	68
373.888	1	69
374.059	1	84
374.229	1	70
374.400	1	78
374.571	1	81
374.742	1	81
374.913	1	67
375.084	1	72
375.254	1	73
375.425	1	74
375.596	1	80
375.767	1	84
375.938	1	72
376.109	1	77
376.279	1	69
376.450	1	80
376.621	1	93
376.792	1	82
376.963	1	77
377.134	1	86
377.304	1	77
377.475	1	69
377.646	1	76
377.817	1	85
377.988	1	90
378.159	1	83
378.329	1	78
378.500	1	83
378.671	1	71
378.842	1	79
379.013	1	80
379.184	1	74
379.354	1	85
379.525	1	93
379.696	1	94
379.867	1	83
380.038	1	90
380.209	1	93
380.379	1	82
380.550	1	69
380.721	1	78
380.892	1	85
381.063	1	78
381.233	1	82
381.404	1	94
381.575	1	90
381.746	1	87
381.917	1	79
382.087	1	87
382.258	1	81
382.429	1	87
382.600	1	83
382.771	1	73
382.941	1	95
383.112	1	87
383.283	1	92
383.454	1	83
383.625	1	93
383.795	1	90
383.966	1	106
384.137	1	98
384.308	1	93
384.479	1	87
384.649	1	92
384.820	1	103
384.991	1	91
385.162	1	98
385.333	1	89
385.503	1	97
385.674	1	89
385.845	1	96
386.016	1	100
386.187	1	92
386.357	1	105
386.528	1	107
386.699	1	104
386.870	1	84
387.041	1	105
387.211	1	98
387.382	1	98
387.553	1	108
387.724	1	93
387.894	1	90
388.065	1	102
388.236	1	99
388.407	1	91
388.578	1	100
388.748	1	93
388.919	1	90
389.090	1	112
389.261	1	105
389.431	1	103
389.602	1	88
389.773	1	95
389.944	1	106
390.114	1	89
390.285	1	105
390.456	1	106
390.627	1	100
390.798	1	92
390.968	1	111
391.139	1	103
391.310	1	95
391.481	1	93
391.651	1	104
391.822	1	118
391.993	1	103
392.164	1	102
392.334	1	97
392.505	1	97
392.676	1	83
392.847	1	92
393.017	1	92
393.188	1	107
393.359	1	113
393.530	1	106
393.700	1	98
393.871	1	111
394.042	1	104
394.213	1	100
394.383	1	100
394.554	1	95
394.725	1	93
394.896	1	108
395.066	1	111
395.237	1	101
395.408	1	107
395.579	1	109
395.749	1	129
395.920	1	100
396.091	1	105
396.262	1	102
396.432	1	105
396.603	1	106
396.774	1	109
396.945	1	112
397.115	1	106
397.286	1	111
397.457	1	119
397.627	1	100
397.798	1	119
397.969	1	107
398.140	1	104
398.310	1	109
398.481	1	94
398.652	1	117
398.823	1	112
398.993	1	105
399.164	1	104
399.335	1	100
399.505	1	97
399.676	1	106
399.847	1	111
400.018	1	105
400.188	1	113
400.359	1	108
400.530	1	112
400.700	1	109
400.871	1	122
401.042	1	106
401.213	1	107
401.383	1	111
401.554	1	107
401.725	1	102
401.895	1	98
402.066	1	115
402.237	1	99
402.408	1	125
402.578	1	94
402.749	1	106
402.920	1	120
403.090	1	108
403.261	1	111
403.432	1	111
403.603	1	113
403.773	1	116
403.944	1	109
404.115	1	116
404.285	1	100
404.456	1	120
404.627	1	117
404.797	1	110
404.968	1	116
405.139	1	122
405.310	1	102
405.480	1	101
405.651	1	106
405.822	1	107
405.992	1	118
406.163	1	110
406.334	1	107
406.504	1	120
406.675	1	105
406.846	1	111
407.016	1	117
407.187	1	121
407.358	1	106
407.528	1	122
407.699	1	125
407.870	1	119
408.041	1	115
408.211	1	125
408.382	1	115
408.553	1	118
408.723	1	118
408.894	1	120
409.065	1	113
409.235	1	134
409.406	1	123
409.577	1	117
409.747	1	115
409.918	1	125
410.089	1	121
410.259	1	115
410.430	1	127
410.601	1	116
410.771	1	120
410.942	1	114
411.113	1	119
411.283	1	125
411.454	1	132
411.625	1	117
411.795	1	114
411.966	1	115
412.137	1	116
412.307	1	117
412.478	1	108
412.649	1	108
412.819	1	114
412.990	1	123
413.161	1	105
413.331	1	106
413.502	1	108
413.672	1	115
413.843	1	117
414.014	1	119
414.184	1	117
414.355	1	113
414.526	1	118
414.696	1	111
414.867	1	105
415.038	1	113
415.208	1	109
415.379	1	103
415.550	1	111
415.720	1	102
415.891	1	113
416.062	1	126
416.232	1	113
416.403	1	122
416.573	1	97
416.744	1	128
416.915	1	113
417.085	1	118
417.256	1	114
417.427	1	107
417.597	1	117
417.768	1	104
417.939	1	116
418.109	1	120
418.280	1	106
418.450	1	112
418.621	1	109
418.792	1	102
418.962	1	112
419.133	1	118
419.304	1	109
419.474	1	116
419.645	1	114
419.815	1	120
419.986	1	121
420.157	1	110
420.327	1	103
420.498	1	105
420.669	1	123
420.839	1	134
421.010	1	117
421.180	1	109
421.351	1	117
421.522	1	110
421.692	1	122
421.863	1	112
422.033	1	118
422.204	1	119
422.375	1	116
422.545	1	112
422.716	1	105
422.886	1	110
423.057	1	110
423.228	1	111
423.398	1	107
423.569	1	111
423.740	1	100
423.910	1	116
424.081	1	105
424.251	1	108
424.422	1	108
424.593	1	103
424.763	1	114
424.934	1	116
425.104	1	114
425.275	1	93
425.445	1	106
425.616	1	103
425.787	1	96
425.957	1	106
426.128	1	101
426.298	1	111
426.469	1	95
426.640	1	99
426.810	1	97
426.981	1	114
427.151	1	89
427.322	1	114
427.493	1	97
427.663	1	100
427.834	1	101
428.004	1	111
428.175	1	100
428.345	1	90
428.516	1	90
428.687	1	107
428.857	1	106
429.028	1	97
429.198	1	98
429.369	1	105
429.540	1	105
429.710	1	101
429.881	1	102
430.051	1	95
430.222	1	97
430.392	1	100
430.563	1	103
430.734	1	93
430.904	1	109
431.075	1	110
431.245	1	106
431.416	1	103
431.586	1	97
431.757	1	113
431.927	1	99
432.098	1	104
432.269	1	92
432.439	1	103
432.610	1	109
432.780	1	112
432.951	1	100
433.121	1	99
433.292	1	117
433.462	1	107
433.633	1	95
433.804	1	104
433.974	1	103
434.145	1	99
434.315	1	93
434.486	1	91
434.656	1	115
434.827	1	113
434.997	1	103
435.168	1	103
435.339	1	111
435.509	1	92
435.680	1	101
435.850	1	89
436.021	1	93
436.191	1	93
436.362	1	99
436.532	1	104
436.703	1	92
436.873	1	96
437.044	1	92
437.214	1	101
437.385	1	105
437.556	1	111
437.726	1	106
437.897	1	84
438.067	1	96
438.238	1	99
438.408	1	88
438.579	1	99
438.749	1	93
438.920	1	98
439.090	1	86
439.261	1	106
439.431	1	88
439.602	1	105
439.772	1	96
439.943	1	81
440.113	1	91
440.284	1	89
440.455	1	85
440.625	1	97
440.796	1	90
440.966	1	104
441.137	1	89
441.307	1	88
441.478	1	84
441.648	1	85
441.819	1	86
441.989	1	104
442.160	1	90
442.330	1	92
442.501	1	97
442.671	1	87
442.842	1	91
443.012	1	92
443.183	1	92
443.353	1	97
443.524	1	99
443.694	1	95
443.865	1	84
444.035	1	94
444.206	1	86
444.376	1	86
444.547	1	81
444.717	1	87
444.888	1	76
445.058	1	87
445.229	1	95
445.399	1	91
445.570	1	77
445.740	1	92
445.911	1	96
446.081	1	86
446.252	1	78
446.422	1	101
446.593	1	92
446.763	1	92
446.934	1	79
447.104	1	93
447.275	1	89
447.445	1	90
447.616	1	86
447.786	1	90
447.957	1	88
448.127	1	88
448.298	1	89
448.468	1	94
448.639	1	80
448.809	1	87
448.979	1	93
449.150	1	79
449.320	1	91
449.491	1	73
449.661	1	73
449.832	1	73
450.002	1	78
450.173	1	88
450.343	1	87
450.514	1	89
450.684	1	85
450.855	1	90
451.025	1	78
451.196	1	77
451.366	1	84
451.537	1	83
451.707	1	95
451.878	1	85
452.048	1	74
452.218	1	92
452.389	1	83
452.559	1	88
452.730	1	83
452.900	1	75
453.071	1	80
453.241	1	80
453.412	1	82
453.582	1	84
453.753	1	86
453.923	1	77
454.093	1	81
454.264	1	87
454.434	1	82
454.605	1	72
454.775	1	82
454.946	1	68
455.116	1	82
455.287	1	68
455.457	1	79
455.628	1	64
455.798	1	78
455.968	1	71
456.139	1	89
456.309	1	82
456.480	1	65
456.650	1	73
456.821	1	78
456.991	1	73
457.161	1	84
457.332	1	66
457.502	1	75
457.673	1	73
457.843	1	68
458.014	1	78
458.184	1	80
458.355	1	75
458.525	1	62
458.695	1	60
458.866	1	76
459.036	1	64
459.207	1	69
459.377	1	71
459.548	1	78
459.718	1	63
459.888	1	68
460.059	1	68
460.229	1	61
460.400	1	67
460.570	1	62
460.740	1	66
460.911	1	67
461.081	1	77
461.252	1	71
461.422	1	72
461.593	1	66
461.763	1	75
461.933	1	71
462.104	1	53
462.274	1	68
462.445	1	71
462.615	1	78
462.785	1	79
462.956	1	74
463.126	1	80
463.297	1	70
463.467	1	74
463.638	1	71
463.808	1	61
463.978	1	54
464.149	1	67
464.319	1	77
464.490	1	71
464.660	1	65
464.830	1	63
465.001	1	61
465.171	1	63
465.342	1	55
465.512	1	66
465.682	1	59
465.853	1	60
466.023	1	67
466.194	1	67
466.364	1	59
466.534	1	58
466.705	1	80
466.875	1	55
467.045	1	59
467.216	1	67
467.386	1	66
467.557	1	73
467.727	1	60
467.897	1	57
468.068	1	57
468.238	1	53
468.409	1	55
468.579	1	59
468.749	1	52
468.920	1	50
469.090	1	64
469.260	1	64
469.431	1	52
469.601	1	61
469.772	1	57
469.942	1	63
470.112	1	56
470.283	1	48
470.453	1	69
470.623	1	52
470.794	1	53
470.964	1	42
471.135	1	55
471.305	1	51
471.475	1	54
471.646	1	51
471.816	1	59
471.986	1	53
472.157	1	59
472.327	1	70
472.497	1	52
472.668	1	57
472.838	1	57
473.009	1	56
473.179	1	52
473.349	1	55
473.520	1	64
473.690	1	50
473.860	1	48
474.031	1	40
474.201	1	54
474.371	1	64
474.542	1	59
474.712	1	48
474.882	1	57
475.053	1	69
475.223	1	54
475.394	1	54
475.564	1	54
475.734	1	47
475.905	1	57
476.075	1	61
476.245	1	42
476.416	1	46
476.586	1	58
476.756	1	62
476.927	1	49
477.097	1	54
477.267	1	68
477.438	1	67
477.608	1	70
477.778	1	55
477.949	1	43
478.119	1	58
478.289	1	43
478.460	1	45
478.630	1	36
478.800	1	45
478.971	1	52
479.141	1	54
479.311	1	52
479.482	1	48
479.652	1	60
479.822	1	46
479.993	1	43
480.163	1	59
480.333	1	59
480.504	1	55
480.674	1	53
480.844	1	58
481.015	1	53
481.185	1	63
481.355	1	62
481.525	1	49
481.696	1	53
481.866	1	53
482.036	1	50
482.207	1	50
482.377	1	40
482.547	1	55
482.718	1	52
482.888	1	54
483.058	1	41
483.229	1	47
483.399	1	54
483.569	1	41
483.740	1	42
483.910	1	41
484.080	1	49
484.250	1	35
484.421	1	41
484.591	1	54
484.761	1	49
484.932	1	38
485.102	1	49
485.272	1	52
485.443	1	53
485.613	1	40
485.783	1	43
485.953	1	50
486.124	1	36
486.294	1	49
486.464	1	50
486.635	1	37
486.805	1	40
486.975	1	37
487.146	1	60
487.316	1	45
487.486	1	51
487.656	1	40
487.827	1	40
487.997	1	37
488.167	1	45
488.338	1	50
488.508	1	52
488.678	1	43
488.848	1	34
489.019	1	42
489.189	1	52
489.359	1	40
489.529	1	41
489.700	1	41
489.870	1	43
490.040	1	35
490.211	1	34
490.381	1	41
490.551	1	45
490.721	1	43
490.892	1	31
491.062	1	43
491.232	1	44
491.402	1	35
491.573	1	51
491.743	1	33
491.913	1	50
492.084	1	39
492.254	1	43
492.424	1	37
492.594	1	34
492.765	1	44
492.935	1	46
493.105	1	42
493.275	1	33
493.446	1	34
493.616	1	31
493.786	1	45
493.956	1	39
494.127	1	22
494.297	1	35
494.467	1	36
494.637	1	41
494.808	1	45
494.978	1	44
495.148	1	40
495.318	1	31
495.489	1	29
495.659	1	50
495.829	1	28
495.999	1	42
496.170	1	36
496.340	1	41
496.510	1	48
496.680	1	34
496.851	1	45
497.021	1	46
497.191	1	34
497.361	1	24
497.532	1	41
497.702	1	38
497.872	1	39
498.042	1	33
498.213	1	32
498.383	1	31
498.553	1	45
498.723	1	34
498.894	1	42
499.064	1	42
499.234	1	37
499.404	1	38
499.574	1	34
499.745	1	44
499.915	1	42
500.085	1	33
500.255	1	24
500.426	1	46
500.596	1	22
500.766	1	32
500.936	1	27
501.106	1	26
501.277	1	32
501.447	1	43
501.617	1	33
501.787	1	25
501.958	1	39
502.128	1	43
502.298	1	36
502.468	1	27
502.638	1	38
502.809	1	21
502.979	1	34
503.149	1	25
503.319	1	37
503.489	1	24
503.660	1	33
503.830	1	39
504.000	1	29
504.170	1	35
504.340	1	22
504.511	1	34
504.681	1	26
504.851	1	35
505.021	1	33
505.192	1	33
505.362	1	27
505.532	1	31
505.702	1	38
505.872	1	30
506.043	1	38
506.213	1	43
506.383	1	28
506.553	1	33
506.723	1	19
506.893	1	32
507.064	1	29
507.234	1	28
507.404	1	19
507.574	1	18
507.744	1	34
507.915	1	26
508.085	1	28
508.255	1	29
508.425	1	32
508.595	1	31
508.766	1	26
508.936	1	32
509.106	1	28
509.276	1	27
509.446	1	33
509.616	1	30
509.787	1	32
509.957	1	29
510.127	1	17
510.297	1	24
510.467	1	31
510.638	1	32
510.808	1	39
510.978	1	19
511.148	1	26
511.318	1	35
511.488	1	32
511.659	1	23
511.829	1	20
511.999	1	26
512.169	1	26
512.339	1	30
512.509	1	26
512.680	1	13
512.850	1	29
513.020	1	37
513.190	1	17
513.360	1	34
513.530	1	17
513.700	1	25
513.871	1	20
514.041	1	24
514.211	1	29
514.381	1	37
514.551	1	13
514.721	1	21
514.892	1	31
515.062	1	26
515.232	1	12
515.402	1	30
515.572	1	21
515.742	1	33
515.912	1	25
516.083	1	27
516.253	1	29
516.423	1	23
516.593	1	29
516.763	1	30
516.933	1	19
517.104	1	27
517.274	1	21
517.444	1	19
517.614	1	16
517.784	1	25
517.954	1	19
518.124	1	30
518.294	1	26
518.465	1	17
518.635	1	36
518.805	1	19
518.975	1	20
519.145	1	29
519.315	1	18
519.485	1	16
519.656	1	13
519.826	1	13
519.996	1	20
520.166	1	18
520.336	1	21
520.506	1	13
520.676	1	28
520.846	1	21
521.017	1	19
521.187	1	25
521.357	1	13
521.527	1	20
521.697	1	18
521.867	1	25
522.037	1	12
522.207	1	20
522.377	1	26
522.548	1	8
522.718	1	9
522.888	1	21
523.058	1	23
523.228	1	11
523.398	1	17
523.568	1	14
523.738	1	16
523.909	1	19
524.079	1	17
524.249	1	12
524.419	1	14
524.589	1	14
524.759	1	24
524.929	1	15
525.099	1	19
525.269	1	15
525.439	1	15
525.610	1	24
525.780	1	20
525.950	1	22
526.120	1	13
526.290	1	4
526.460	1	8
526.630	1	20
526.800	1	21
526.970	1	21
527.140	1	14
527.311	1	19
527.481	1	23
527.651	1	17
527.821	1	13
527.991	1	12
528.161	1	16
528.331	1	13
528.501	1	12
528.671	1	23
528.841	1	24
529.011	1	21
529.181	1	18
529.352	1	15
529.522	1	21
529.692	1	16
529.862	1	14
530.032	1	10
530.202	1	16
530.372	1	14
530.542	1	16
530.712	1	9
530.882	1	18
531.052	1	10
531.222	1	25
531.392	1	21
531.563	1	20
531.733	1	15
531.903	1	16
532.073	1	16
532.243	1	30
532.413	1	32
532.583	1	17
532.753	1	16
532.923	1	12
533.093	1	6
533.263	1	21
533.433	1	11
533.603	1	21
533.773	1	17
533.943	1	26
534.113	1	19
534.284	1	12
534.454	1	22
534.624	1	11
534.794	1	10
534.964	1	21
535.134	1	13
535.304	1	16
535.474	1	15
535.644	1	14
535.814	1	19
535.984	1	13
536.154	1	14
536.324	1	11
536.494	1	20
536.664	1	3
536.834	1	19
537.004	1	19
537.174	1	23
537.344	1	10
537.514	1	6
537.685	1	17
537.855	1	17
538.025	1	21
538.195	1	12
538.365	1	11
538.535	1	6
538.705	1	13
538.875	1	23
539.045	1	27
539.215	1	-1
539.385	1	18
539.555	1	14
539.725	1	20
539.895	1	14
540.065	1	15
540.235	1	18
540.405	1	12
540.575	1	17
540.745	1	15
540.915	1	17
541.085	1	10
541.255	1	11
541.425	1	13
541.595	1	17
541.765	1	15
541.935	1	3
542.105	1	10
542.275	1	6
542.445	1	13
542.615	1	12
542.785	1	15
542.955	1	24
543.125	1	9
543.295	1	17
543.465	1	22
543.635	1	9
543.805	1	24
543.975	1	8
544.145	1	17
544.315	1	1
544.485	1	15
544.655	1	16
544.825	1	18
544.995	1	9
545.165	1	13
545.335	1	16
545.505	1	9
545.675	1	10
545.845	1	12
546.015	1	7
546.185	1	7
546.355	1	10
546.525	1	15
546.695	1	9
546.865	1	14
547.035	1	20
547.205	1	12
547.375	1	17
547.545	1	14
547.715	1	15
547.885	1	1
548.055	1	12
548.225	1	13
548.395	1	16
548.565	1	10
548.735	1	0
548.905	1	9
549.075	1	8
549.245	1	10
549.415	1	7
549.585	1	4
549.755	1	15
549.925	1	13
550.095	1	1
550.265	1	9
550.435	1	13
550.605	1	12
550.775	1	11
550.945	1	6
551.115	1	18
551.285	1	15
551.455	1	10
551.625	1	12
551.795	1	8
551.965	1	3
552.135	1	3
552.305	1	14
552.475	1	23
552.645	1	6
552.815	1	8
552.985	1	4
553.155	1	12
553.325	1	8
553.495	1	13
553.665	1	23
553.835	1	13
554.004	1	16
554.174	1	8
554.344	1	23
554.514	1	10
554.684	1	14
554.854	1	0
555.024	1	16
555.194	1	17
555.364	1	14
555.534	1	1
555.704	1	6
555.874	1	-1
556.044	1	9
556.214	1	9
556.384	1	15
556.554	1	15
556.724	1	15
556.894	1	6
557.064	1	13
557.234	1	11
557.404	1	9
557.573	1	7
557.743	1	10
557.913	1	4
558.083	1	5
558.253	1	11
558.423	1	7
558.593	1	15
558.763	1	16
558.933	1	4
559.103	1	13
559.273	1	14
559.443	1	9
559.613	1	12
559.783	1	12
559.953	1	-7
560.122	1	15
560.292	1	0
560.462	1	5
560.632	1	9
560.802	1	10
560.972	1	10
561.142	1	18
561.312	1	2
561.482	1	11
561.652	1	14
561.822	1	9
561.992	1	19
562.162	1	11
562.331	1	5
562.501	1	11
562.671	1	-4
562.841	1	3
563.011	1	8
563.181	1	7
563.351	1	1
563.521	1	9
563.691	1	14
563.861	1	11
564.031	1	9
564.201	1	8
564.370	1	10
564.540	1	0
564.710	1	2
564.880	1	6
565.050	1	15
565.220	1	18
565.390	1	11
565.560	1	21
565.730	1	18
565.900	1	12
566.069	1	22
566.239	1	8
566.409	1	20
566.579	1	8
566.749	1	14
566.919	1	1
567.089	1	-5
567.259	1	10
567.429	1	12
567.599	1	17
567.768	1	8
567.938	1	8
568.108	1	11
568.278	1	5
568.448	1	1
568.618	1	10
568.788	1	8
568.958	1	13
569.128	1	3
569.297	1	9
569.467	1	13
569.637	1	8
569.807	1	11
569.977	1	3
570.147	1	2
570.317	1	9
570.487	1	2
570.656	1	19
570.826	1	4
570.996	1	16
571.166	1	13
571.336	1	7
571.506	1	7
571.676	1	11
571.846	1	15
572.015	1	8
572.185	1	7
572.355	1	9
572.525	1	3
572.695	1	11
572.865	1	22
573.035	1	18
573.205	1	9
573.374	1	7
573.544	1	4
573.714	1	0
573.884	1	2
574.054	1	8
574.224	1	9
574.394	1	6
574.563	1	1
574.733	1	7
574.903	1	3
575.073	1	16
575.243	1	4
575.413	1	-4
575.583	1	10
575.752	1	0
575.922	1	11
576.092	1	-4
576.262	1	7
576.432	1	10
576.602	1	7
576.772	1	14
576.941	1	10
577.111	1	2
577.281	1	5
577.451	1	12
577.621	1	13
577.791	1	9
577.960	1	8
578.130	1	8
578.300	1	3
578.470	1	2
578.640	1	8
578.810	1	-1
578.979	1	14
579.149	1	4
579.319	1	9
579.489	1	13
579.659	1	-2
579.829	1	11
579.998	1	-3
580.168	1	8
580.338	1	14
580.508	1	2
580.678	1	8
580.848	1	8
581.017	1	11
581.187	1	14
581.357	1	5
581.527	1	2
581.697	1	11
581.867	1	11
582.036	1	0
582.206	1	9
582.376	1	7
582.546	1	12
582.716	1	5
582.885	1	12
583.055	1	-1
583.225	1	8
583.395	1	8
583.565	1	13
583.735	1	17
583.904	1	4
584.074	1	11
584.244	1	6
584.414	1	2
584.584	1	10
584.753	1	13
584.923	1	-6
585.093	1	13
585.263	1	20
585.433	1	18
585.602	1	7
585.772	1	25
585.942	1	3
586.112	1	11
586.282	1	4
586.451	1	15
586.621	1	2
586.791	1	3
586.961	1	-1
587.131	1	7
587.300	1	18
587.470	1	1
587.640	1	3
587.810	1	1
587.980	1	6
588.149	1	19
588.319	1	18
588.489	1	10
588.659	1	3
588.829	1	4
588.998	1	8
589.168	1	14
589.338	1	-2
589.508	1	9
589.677	1	14
589.847	1	16
590.017	1	15
590.187	1	5
590.357	1	7
590.526	1	-2
590.696	1	14
590.866	1	0
591.036	1	5
591.205	1	7
591.375	1	11
591.545	1	-1
591.715	1	-5
591.885	1	16
592.054	1	17
592.224	1	7
592.394	1	0
592.564	1	9
592.733	1	3
592.903	1	10
593.073	1	0
593.243	1	22
593.412	1	-4
593.582	1	14
593.752	1	-5
593.922	1	10
594.091	1	13
594.261	1	-7
594.431	1	18
594.601	1	4
594.771	1	6
594.940	1	-3
595.110	1	14
595.280	1	4
595.450	1	6
595.619	1	18
595.789	1	3
595.959	1	8
596.129	1	7
596.298	1	14
596.468	1	8
596.638	1	7
596.808	1	2
596.977	1	1
597.147	1	6
597.317	1	8
597.487	1	8
597.656	1	9
597.826	1	12
597.996	1	3
598.166	1	7
598.335	1	1
598.505	1	9
598.675	1	3
598.844	1	14
599.014	1	-8
599.184	1	13
599.354	1	9
599.523	1	7
599.693	1	15
599.863	1	12
600.033	1	13
600.202	1	-4
600.372	1	9
600.542	1	4
600.712	1	10
600.881	1	4
601.051	1	13
601.221	1	10
601.390	1	10
601.560	1	10
601.730	1	8
601.900	1	15
602.069	1	6
602.239	1	1
602.409	1	15
602.578	1	22
602.748	1	19
602.918	1	1
603.088	1	11
603.257	1	3
603.427	1	10
603.597	1	7
603.767	1	20
603.936	1	8
604.106	1	5
604.276	1	9
604.445	1	-4
604.615	1	16
604.785	1	13
604.954	1	10
605.124	1	5
605.294	1	8
605.464	1	6
605.633	1	8
605.803	1	11
605.973	1	9
606.142	1	15
606.312	1	19
606.482	1	14
606.652	1	10
606.821	1	4
606.991	1	6
607.161	1	11
607.330	1	5
607.500	1	9
607.670	1	3
607.839	1	5
608.009	1	1
608.179	1	10
608.348	1	14
608.518	1	12
608.688	1	7
608.858	1	6
609.027	1	9
609.197	1	9
609.367	1	6
609.536	1	2
609.706	1	17
609.876	1	17
610.045	1	12
610.215	1	9
610.385	1	8
610.554	1	5
610.724	1	5
610.894	1	9
611.063	1	6
611.233	1	12
611.403	1	17
611.572	1	12
611.742	1	8
611.912	1	15
612.081	1	13
612.251	1	6
612.421	1	7
612.590	1	8
612.760	1	12
612.930	1	22
613.099	1	1
613.269	1	8
613.439	1	3
613.608	1	13
613.778	1	10
613.948	1	19
614.117	1	5
614.287	1	10
614.457	1	8
614.626	1	8
614.796	1	11
614.966	1	13
615.135	1	18
615.305	1	6
615.475	1	15
615.644	1	21
615.814	1	23
615.984	1	-5
616.153	1	5
616.323	1	5
616.493	1	8
616.662	1	12
616.832	1	0
617.002	1	13
617.171	1	10
617.341	1	14
617.511	1	-3
617.680	1	-7
617.850	1	9
618.019	1	5
618.189	1	23
618.359	1	9
618.528	1	9
618.698	1	15
618.868	1	11
619.037	1	12
619.207	1	8
619.377	1	12
619.546	1	19
619.716	1	5
619.885	1	12
620.055	1	10
620.225	1	11
620.394	1	14
620.564	1	12
620.734	1	6
620.903	1	3
621.073	1	19
621.242	1	17
621.412	1	2
621.582	1	18
621.751	1	7
621.921	1	14
622.091	1	7
622.260	1	14
622.430	1	14
622.599	1	10
622.769	1	1
622.939	1	2
623.108	1	10
623.278	1	9
623.448	1	9
623.617	1	13
623.787	1	16
623.956	1	12
624.126	1	20
624.296	1	17
624.465	1	13
624.635	1	3
624.804	1	6
624.974	1	0
625.144	1	11
625.313	1	20
625.483	1	10
625.652	1	14
625.822	1	16
625.992	1	8
626.161	1	14
626.331	1	9
626.501	1	9
626.670	1	14
626.840	1	15
627.009	1	17
627.179	1	2
627.348	1	5
627.518	1	28
627.688	1	12
627.857	1	18
628.027	1	15
628.196	1	15
628.366	1	8
628.536	1	6
628.705	1	-2
628.875	1	6
629.044	1	12
629.214	1	11
629.384	1	17
629.553	1	16
629.723	1	16
629.892	1	17
630.062	1	5
630.232	1	15
630.401	1	5
630.571	1	8
630.740	1	18
630.910	1	14
631.079	1	12
631.249	1	12
631.419	1	20
631.588	1	15
631.758	1	15
631.927	1	18
632.097	1	14
632.266	1	18
632.436	1	13
632.606	1	5
632.775	1	14
632.945	1	10
633.114	1	8
633.284	1	16
633.453	1	14
633.623	1	19
633.793	1	10
633.962	1	14
634.132	1	18
634.301	1	14
634.471	1	20
634.640	1	6
634.810	1	11
634.979	1	11
635.149	1	13
635.319	1	11
635.488	1	17
635.658	1	8
635.827	1	13
635.997	1	15
636.166	1	18
636.336	1	10
636.505	1	16
636.675	1	14
636.845	1	14
637.014	1	4
637.184	1	19
637.353	1	16
637.523	1	4
637.692	1	15
637.862	1	6
638.031	1	4
638.201	1	19
638.370	1	14
638.540	1	6
638.710	1	10
638.879	1	9
639.049	1	12
639.218	1	10
639.388	1	15
639.557	1	24
639.727	1	15
639.896	1	7
640.066	1	17
640.235	1	14
640.405	1	15
640.574	1	23
640.744	1	8
640.914	1	9
641.083	1	18
641.253	1	10
641.422	1	8
641.592	1	25
641.761	1	9
641.931	1	20
642.100	1	5
642.270	1	19
642.439	1	16
642.609	1	21
642.778	1	18
642.948	1	25
643.117	1	12
643.287	1	15
643.456	1	4
643.626	1	12
643.795	1	9
643.965	1	18
644.134	1	17
644.304	1	13
644.473	1	16
644.643	1	11
644.812	1	15
644.982	1	10
645.151	1	11
645.321	1	22
645.490	1	27
645.660	1	7
645.829	1	13
645.999	1	13
646.168	1	29
646.338	1	7
646.507	1	12
646.677	1	20
646.846	1	6
647.016	1	24
647.185	1	14
647.355	1	26
647.524	1	10
647.694	1	17
647.863	1	11
648.033	1	14
648.202	1	30
648.372	1	7
648.541	1	19
648.711	1	20
648.880	1	19
649.050	1	14
649.219	1	17
649.389	1	9
649.558	1	31
649.728	1	12
649.897	1	13
650.067	1	28
650.236	1	7
650.406	1	13
650.575	1	16
650.745	1	23
650.914	1	26
651.084	1	21
651.253	1	18
651.423	1	8
651.592	1	23
651.762	1	6
651.931	1	23
652.101	1	16
652.270	1	12
652.440	1	26
652.609	1	18
652.778	1	26
652.948	1	14
653.117	1	19
653.287	1	6
653.456	1	12
653.626	1	10
653.795	1	15
653.965	1	15
654.134	1	9
654.304	1	20
654.473	1	17
654.643	1	24
654.812	1	22
654.982	1	21
655.151	1	31
655.320	1	16
655.490	1	7
655.659	1	30
655.829	1	14
655.998	1	20
656.168	1	24
656.337	1	27
656.507	1	12
656.676	1	15
656.846	1	28
657.015	1	23
657.184	1	17
657.354	1	20
657.523	1	13
657.693	1	18
657.862	1	12
658.032	1	15
658.201	1	17
658.371	1	28
658.540	1	7
658.709	1	37
658.879	1	23
659.048	1	17
659.218	1	20
659.387	1	16
659.557	1	13
659.726	1	10
659.895	1	11
660.065	1	15
660.234	1	10
660.404	1	21
660.573	1	12
660.743	1	11
660.912	1	17
661.081	1	24
661.251	1	12
661.420	1	16
661.590	1	23
661.759	1	19
661.929	1	8
662.098	1	22
662.267	1	6
662.437	1	22
662.606	1	12
662.776	1	23
662.945	1	24
663.115	1	22
663.284	1	16
663.453	1	8
663.623	1	16
663.792	1	22
663.962	1	25
664.131	1	21
664.300	1	17
664.470	1	15
664.639	1	32
664.809	1	17
664.978	1	28
665.148	1	23
665.317	1	23
665.486	1	20
665.656	1	22
665.825	1	18
665.995	1	13
666.164	1	13
666.333	1	22
666.503	1	21
666.672	1	19
666.842	1	32
667.011	1	22
667.180	1	12
667.350	1	32
667.519	1	14
667.689	1	19
667.858	1	23
668.027	1	14
668.197	1	9
668.366	1	23
668.536	1	13
668.705	1	15
668.874	1	29
669.044	1	30
669.213	1	17
669.382	1	17
669.552	1	25
669.721	1	14
669.891	1	6
670.060	1	24
670.229	1	22
670.399	1	25
670.568	1	26
670.738	1	14
670.907	1	31
671.076	1	13
671.246	1	19
671.415	1	31
671.584	1	19
671.754	1	11
671.923	1	10
672.093	1	25
672.262	1	9
672.431	1	13
672.601	1	26
672.770	1	32
672.939	1	19
673.109	1	13
673.278	1	30
673.448	1	13
673.617	1	18
673.786	1	16
