325.333	1	31
325.504	1	21
325.675	1	42
325.846	1	32
326.017	1	22
326.188	1	33
326.359	1	35
326.531	1	27
326.702	1	22
326.873	1	42
327.044	1	30
327.215	1	26
327.386	1	32
327.557	1	34
327.728	1	35
327.899	1	29
328.070	1	36
328.241	1	33
328.412	1	24
328.583	1	43
328.754	1	45
328.926	1	45
329.097	1	27
329.268	1	43
329.439	1	49
329.610	1	30
329.781	1	47
329.952	1	42
330.123	1	38
330.294	1	30
330.465	1	37
330.636	1	44
330.807	1	43
330.978	1	37
331.149	1	47
331.320	1	42
331.492	1	33
331.663	1	42
331.834	1	40
332.005	1	36
332.176	1	43
332.347	1	43
332.518	1	48
332.689	1	43
332.860	1	36
333.031	1	57
333.202	1	50
333.373	1	49
333.544	1	44
333.715	1	36
333.886	1	43
334.057	1	35
334.228	1	51
334.399	1	59
334.570	1	60
334.741	1	46
334.912	1	57
335.084	1	54
335.255	1	57
335.426	1	55
335.597	1	55
335.768	1	53
335.939	1	53
336.110	1	61
336.281	1	59
336.452	1	57
336.623	1	56
336.794	1	57
336.965	1	59
337.136	1	72
337.307	1	49
337.478	1	59
337.649	1	52
337.820	1	52
337.991	1	60
338.162	1	55
338.333	1	57
338.504	1	72
338.675	1	59
338.846	1	50
339.017	1	65
339.188	1	61
339.359	1	66
339.530	1	54
339.701	1	57
339.872	1	66
340.043	1	68
340.214	1	78
340.385	1	53
340.556	1	66
340.727	1	75
340.898	1	70
341.069	1	58
341.240	1	57
341.411	1	58
341.582	1	66
341.753	1	68
341.924	1	79
342.095	1	66
342.266	1	78
342.437	1	72
342.608	1	74
342.779	1	74
342.950	1	68
343.121	1	70
343.292	1	71
343.463	1	92
343.634	1	80
343.805	1	78
343.976	1	81
344.147	1	75
344.318	1	77
344.489	1	67
344.660	1	74
344.831	1	91
345.002	1	84
345.173	1	74
345.344	1	75
345.515	1	78
345.686	1	84
345.857	1	90
346.028	1	76
346.199	1	82
346.370	1	80
346.541	1	83
346.712	1	85
346.883	1	64
347.054	1	78
347.225	1	86
347.396	1	80
347.567	1	78
347.738	1	90
347.909	1	92
348.080	1	86
348.251	1	96
348.422	1	87
348.593	1	89
348.764	1	93
348.935	1	99
349.106	1	81
349.277	1	92
349.448	1	95
349.619	1	93
349.790	1	101
349.961	1	96
350.132	1	95
350.303	1	91
350.474	1	97
350.645	1	98
350.816	1	107
350.987	1	106
351.157	1	92
351.328	1	98
351.499	1	102
351.670	1	97
351.841	1	104
352.012	1	104
352.183	1	111
352.354	1	110
352.525	1	103
352.696	1	102
352.867	1	109
353.038	1	94
353.209	1	98
353.380	1	106
353.551	1	109
353.722	1	103
353.893	1	110
354.064	1	105
354.235	1	99
354.406	1	91
354.576	1	98
354.747	1	116
354.918	1	109
355.089	1	98
355.260	1	105
355.431	1	100
355.602	1	108
355.773	1	102
355.944	1	115
356.115	1	119
356.286	1	121
356.457	1	105
356.628	1	107
356.799	1	115
356.970	1	134
357.141	1	119
357.311	1	128
357.482	1	118
357.653	1	101
357.824	1	128
357.995	1	132
358.166	1	107
358.337	1	121
358.508	1	139
358.679	1	122
358.850	1	137
359.021	1	121
359.192	1	134
359.363	1	113
359.533	1	121
359.704	1	119
359.875	1	129
360.046	1	128
360.217	1	132
360.388	1	136
360.559	1	126
360.730	1	115
360.901	1	121
361.072	1	123
361.243	1	123
361.414	1	141
361.584	1	120
361.755	1	128
361.926	1	122
362.097	1	122
362.268	1	138
362.439	1	116
362.610	1	126
362.781	1	120
362.952	1	134
363.123	1	111
363.293	1	120
363.464	1	122
363.635	1	127
363.806	1	133
363.977	1	136
364.148	1	135
364.319	1	117
364.490	1	130
364.661	1	131
364.832	1	132
365.002	1	131
365.173	1	139
365.344	1	144
365.515	1	135
365.686	1	137
365.857	1	142
366.028	1	145
366.199	1	143
366.370	1	137
366.540	1	139
366.711	1	151
366.882	1	149
367.053	1	133
367.224	1	137
367.395	1	142
367.566	1	151
367.737	1	138
367.908	1	132
368.078	1	133
368.249	1	162
368.420	1	140
368.591	1	146
368.762	1	136
368.933	1	137
369.104	1	141
369.274	1	139
369.445	1	151
369.616	1	137
369.787	1	135
369.958	1	143
370.129	1	137
370.300	1	130
370.471	1	151
370.641	1	141
370.812	1	134
370.983	1	144
371.154	1	133
371.325	1	142
371.496	1	141
371.667	1	137
371.837	1	144
372.008	1	141
372.179	1	143
372.350	1	132
372.521	1	141
372.692	1	146
372.863	1	131
373.033	1	152
373.204	1	132
373.375	1	131
373.546	1	152
373.717	1	138
373.888	1	136
374.059	1	124
374.229	1	159
374.400	1	138
374.571	1	136
374.742	1	149
374.913	1	164
375.084	1	146
375.254	1	144
375.425	1	145
375.596	1	154
375.767	1	155
375.938	1	140
376.109	1	161
376.279	1	152
376.450	1	150
376.621	1	163
376.792	1	166
376.963	1	156
377.134	1	164
377.304	1	159
377.475	1	137
377.646	1	164
377.817	1	152
377.988	1	148
378.159	1	155
378.329	1	166
378.500	1	163
378.671	1	138
378.842	1	150
379.013	1	167
379.184	1	157
379.354	1	156
379.525	1	171
379.696	1	170
379.867	1	153
380.038	1	157
380.209	1	173
380.379	1	177
380.550	1	150
380.721	1	157
380.892	1	150
381.063	1	159
381.233	1	147
381.404	1	175
381.575	1	160
381.746	1	175
381.917	1	169
382.087	1	174
382.258	1	170
382.429	1	178
382.600	1	159
382.771	1	171
382.941	1	181
383.112	1	167
383.283	1	174
383.454	1	160
383.625	1	183
383.795	1	185
383.966	1	184
384.137	1	196
384.308	1	170
384.479	1	192
384.649	1	174
384.820	1	187
384.991	1	182
385.162	1	192
385.333	1	178
385.503	1	206
385.674	1	183
385.845	1	190
386.016	1	192
386.187	1	190
386.357	1	200
386.528	1	196
386.699	1	171
386.870	1	179
387.041	1	199
387.211	1	190
387.382	1	187
387.553	1	201
387.724	1	184
387.894	1	186
388.065	1	200
388.236	1	185
388.407	1	196
388.578	1	194
388.748	1	200
388.919	1	195
389.090	1	208
389.261	1	193
389.431	1	181
389.602	1	191
389.773	1	184
389.944	1	189
390.114	1	187
390.285	1	181
390.456	1	183
390.627	1	186
390.798	1	199
390.968	1	197
391.139	1	194
391.310	1	195
391.481	1	180
391.651	1	195
391.822	1	197
391.993	1	175
392.164	1	187
392.334	1	189
392.505	1	195
392.676	1	178
392.847	1	186
393.017	1	185
393.188	1	193
393.359	1	205
393.530	1	210
393.700	1	179
393.871	1	196
394.042	1	188
394.213	1	191
394.383	1	211
394.554	1	198
394.725	1	184
394.896	1	210
395.066	1	194
395.237	1	211
395.408	1	202
395.579	1	202
395.749	1	204
395.920	1	218
396.091	1	199
396.262	1	204
396.432	1	197
396.603	1	205
396.774	1	200
396.945	1	224
397.115	1	208
397.286	1	209
397.457	1	206
397.627	1	196
397.798	1	219
397.969	1	207
398.140	1	199
398.310	1	201
398.481	1	207
398.652	1	211
398.823	1	213
398.993	1	203
399.164	1	198
399.335	1	211
399.505	1	199
399.676	1	215
399.847	1	196
400.018	1	199
400.188	1	215
400.359	1	194
400.530	1	197
400.700	1	202
400.871	1	202
401.042	1	205
401.213	1	216
401.383	1	196
401.554	1	207
401.725	1	193
401.895	1	190
402.066	1	206
402.237	1	199
402.408	1	194
402.578	1	203
402.749	1	202
402.920	1	206
403.090	1	215
403.261	1	198
403.432	1	203
403.603	1	220
403.773	1	215
403.944	1	214
404.115	1	205
404.285	1	203
404.456	1	211
404.627	1	208
404.797	1	210
404.968	1	207
405.139	1	226
405.310	1	199
405.480	1	213
405.651	1	218
405.822	1	210
405.992	1	211
406.163	1	202
406.334	1	207
406.504	1	224
406.675	1	206
406.846	1	226
407.016	1	232
407.187	1	219
407.358	1	218
407.528	1	215
407.699	1	226
407.870	1	233
408.041	1	226
408.211	1	226
408.382	1	229
408.553	1	224
408.723	1	227
408.894	1	214
409.065	1	222
409.235	1	228
409.406	1	216
409.577	1	228
409.747	1	208
409.918	1	232
410.089	1	219
410.259	1	214
410.430	1	213
410.601	1	219
410.771	1	244
410.942	1	214
411.113	1	216
411.283	1	217
411.454	1	208
411.625	1	219
411.795	1	213
411.966	1	210
412.137	1	228
412.307	1	220
412.478	1	221
412.649	1	207
412.819	1	210
412.990	1	217
413.161	1	220
413.331	1	224
413.502	1	201
413.672	1	204
413.843	1	207
414.014	1	208
414.184	1	210
414.355	1	223
414.526	1	199
414.696	1	212
414.867	1	207
415.038	1	204
415.208	1	201
415.379	1	214
415.550	1	215
415.720	1	205
415.891	1	225
416.062	1	210
416.232	1	216
416.403	1	228
416.573	1	203
416.744	1	216
416.915	1	215
417.085	1	213
417.256	1	212
417.427	1	219
417.597	1	216
417.768	1	216
417.939	1	201
418.109	1	204
418.280	1	215
418.450	1	234
418.621	1	221
418.792	1	218
418.962	1	225
419.133	1	199
419.304	1	217
419.474	1	230
419.645	1	222
419.815	1	220
419.986	1	212
420.157	1	220
420.327	1	211
420.498	1	202
420.669	1	211
420.839	1	217
421.010	1	211
421.180	1	219
421.351	1	222
421.522	1	220
421.692	1	200
421.863	1	212
422.033	1	216
422.204	1	217
422.375	1	205
422.545	1	216
422.716	1	200
422.886	1	204
423.057	1	205
423.228	1	206
423.398	1	202
423.569	1	203
423.740	1	206
423.910	1	211
424.081	1	205
424.251	1	195
424.422	1	195
424.593	1	198
424.763	1	197
424.934	1	210
425.104	1	195
425.275	1	196
425.445	1	200
425.616	1	199
425.787	1	184
425.957	1	201
426.128	1	195
426.298	1	197
426.469	1	183
426.640	1	184
426.810	1	192
426.981	1	201
427.151	1	179
427.322	1	187
427.493	1	197
427.663	1	185
427.834	1	196
428.004	1	189
428.175	1	194
428.345	1	193
428.516	1	194
428.687	1	209
428.857	1	210
429.028	1	188
429.198	1	191
429.369	1	196
429.540	1	188
429.710	1	193
429.881	1	179
430.051	1	196
430.222	1	197
430.392	1	190
430.563	1	203
430.734	1	189
430.904	1	197
431.075	1	197
431.245	1	195
431.416	1	193
431.586	1	195
431.757	1	178
431.927	1	210
432.098	1	204
432.269	1	192
432.439	1	197
432.610	1	217
432.780	1	199
432.951	1	198
433.121	1	186
433.292	1	192
433.462	1	199
433.633	1	200
433.804	1	191
433.974	1	201
434.145	1	175
434.315	1	185
434.486	1	183
434.656	1	190
434.827	1	184
434.997	1	198
435.168	1	195
435.339	1	203
435.509	1	185
435.680	1	188
435.850	1	175
436.021	1	183
436.191	1	182
436.362	1	188
436.532	1	187
436.703	1	193
436.873	1	188
437.044	1	177
437.214	1	171
437.385	1	182
437.556	1	181
437.726	1	175
437.897	1	194
438.067	1	180
438.238	1	176
438.408	1	175
438.579	1	179
438.749	1	167
438.920	1	189
439.090	1	171
439.261	1	184
439.431	1	156
439.602	1	186
439.772	1	182
439.943	1	155
440.113	1	178
440.284	1	176
440.455	1	170
440.625	1	173
440.796	1	166
440.966	1	173
441.137	1	169
441.307	1	172
441.478	1	168
441.648	1	163
441.819	1	177
441.989	1	176
442.160	1	174
442.330	1	179
442.501	1	169
442.671	1	155
442.842	1	160
443.012	1	171
443.183	1	179
443.353	1	169
443.524	1	155
443.694	1	166
443.865	1	185
444.035	1	176
444.206	1	168
444.376	1	171
444.547	1	174
444.717	1	159
444.888	1	160
445.058	1	180
445.229	1	165
445.399	1	177
445.570	1	168
445.740	1	169
445.911	1	171
446.081	1	181
446.252	1	174
446.422	1	167
446.593	1	154
446.763	1	177
446.934	1	167
447.104	1	163
447.275	1	170
447.445	1	168
447.616	1	161
447.786	1	168
447.957	1	171
448.127	1	156
448.298	1	164
448.468	1	157
448.639	1	160
448.809	1	150
448.979	1	173
449.150	1	156
449.320	1	161
449.491	1	143
449.661	1	155
449.832	1	144
450.002	1	161
450.173	1	150
450.343	1	133
450.514	1	154
450.684	1	151
450.855	1	148
451.025	1	153
451.196	1	140
451.366	1	154
451.537	1	150
451.707	1	151
451.878	1	130
452.048	1	118
452.218	1	137
452.389	1	151
452.559	1	152
452.730	1	141
452.900	1	125
453.071	1	149
453.241	1	146
453.412	1	143
453.582	1	130
453.753	1	142
453.923	1	132
454.093	1	144
454.264	1	140
454.434	1	152
454.605	1	144
454.775	1	144
454.946	1	131
455.116	1	145
455.287	1	134
455.457	1	140
455.628	1	126
455.798	1	138
455.968	1	142
456.139	1	144
456.309	1	135
456.480	1	132
456.650	1	141
456.821	1	135
456.991	1	146
457.161	1	140
457.332	1	121
457.502	1	134
457.673	1	131
457.843	1	127
458.014	1	137
458.184	1	139
458.355	1	142
458.525	1	130
458.695	1	133
458.866	1	124
459.036	1	132
459.207	1	133
459.377	1	135
459.548	1	138
459.718	1	130
459.888	1	133
460.059	1	130
460.229	1	132
460.400	1	145
460.570	1	129
460.740	1	131
460.911	1	129
461.081	1	140
461.252	1	138
461.422	1	134
461.593	1	139
461.763	1	139
461.933	1	130
462.104	1	134
462.274	1	117
462.445	1	126
462.615	1	141
462.785	1	136
462.956	1	116
463.126	1	132
463.297	1	121
463.467	1	135
463.638	1	135
463.808	1	129
463.978	1	123
464.149	1	124
464.319	1	125
464.490	1	122
464.660	1	115
464.830	1	117
465.001	1	107
465.171	1	97
465.342	1	123
465.512	1	128
465.682	1	115
465.853	1	119
466.023	1	121
466.194	1	121
466.364	1	126
466.534	1	104
466.705	1	131
466.875	1	106
467.045	1	113
467.216	1	121
467.386	1	118
467.557	1	126
467.727	1	129
467.897	1	108
468.068	1	110
468.238	1	116
468.409	1	113
468.579	1	112
468.749	1	120
468.920	1	98
469.090	1	109
469.260	1	120
469.431	1	103
469.601	1	108
469.772	1	119
469.942	1	110
470.112	1	104
470.283	1	108
470.453	1	109
470.623	1	110
470.794	1	117
470.964	1	96
471.135	1	117
471.305	1	95
471.475	1	106
471.646	1	118
471.816	1	108
471.986	1	113
472.157	1	99
472.327	1	103
472.497	1	104
472.668	1	113
472.838	1	101
473.009	1	101
473.179	1	100
473.349	1	102
473.520	1	120
473.690	1	97
473.860	1	106
474.031	1	105
474.201	1	107
474.371	1	99
474.542	1	99
474.712	1	115
474.882	1	101
475.053	1	111
475.223	1	104
475.394	1	103
475.564	1	107
475.734	1	104
475.905	1	114
476.075	1	121
476.245	1	107
476.416	1	100
476.586	1	96
476.756	1	104
476.927	1	103
477.097	1	102
477.267	1	107
477.438	1	119
477.608	1	113
477.778	1	100
477.949	1	94
478.119	1	109
478.289	1	105
478.460	1	100
478.630	1	98
478.800	1	96
478.971	1	107
479.141	1	97
479.311	1	91
479.482	1	96
479.652	1	99
479.822	1	87
479.993	1	102
480.163	1	103
480.333	1	104
480.504	1	93
480.674	1	108
480.844	1	94
481.015	1	108
481.185	1	104
481.355	1	98
481.525	1	89
481.696	1	94
481.866	1	98
482.036	1	99
482.207	1	90
482.377	1	101
482.547	1	87
482.718	1	87
482.888	1	101
483.058	1	94
483.229	1	87
483.399	1	95
483.569	1	87
483.740	1	82
483.910	1	86
484.080	1	88
484.250	1	77
484.421	1	89
484.591	1	81
484.761	1	84
484.932	1	81
485.102	1	88
485.272	1	79
485.443	1	85
485.613	1	85
485.783	1	86
485.953	1	78
486.124	1	95
486.294	1	89
486.464	1	93
486.635	1	86
486.805	1	75
486.975	1	75
487.146	1	86
487.316	1	93
487.486	1	77
487.656	1	88
487.827	1	84
487.997	1	87
488.167	1	83
488.338	1	77
488.508	1	85
488.678	1	88
488.848	1	84
489.019	1	73
489.189	1	88
489.359	1	76
489.529	1	83
489.700	1	84
489.870	1	90
490.040	1	66
490.211	1	73
490.381	1	76
490.551	1	79
490.721	1	82
490.892	1	57
491.062	1	72
491.232	1	80
491.402	1	79
491.573	1	80
491.743	1	72
491.913	1	78
492.084	1	84
492.254	1	92
492.424	1	82
492.594	1	70
492.765	1	83
492.935	1	90
493.105	1	83
493.275	1	81
493.446	1	63
493.616	1	72
493.786	1	77
493.956	1	69
494.127	1	84
494.297	1	67
494.467	1	79
494.637	1	87
494.808	1	87
494.978	1	73
495.148	1	77
495.318	1	77
495.489	1	69
495.659	1	83
495.829	1	77
495.999	1	83
496.170	1	76
496.340	1	75
496.510	1	76
496.680	1	72
496.851	1	73
497.021	1	72
497.191	1	73
497.361	1	52
497.532	1	74
497.702	1	77
497.872	1	70
498.042	1	66
498.213	1	62
498.383	1	70
498.553	1	74
498.723	1	66
498.894	1	73
499.064	1	73
499.234	1	75
499.404	1	71
499.574	1	79
499.745	1	73
499.915	1	76
500.085	1	67
500.255	1	43
500.426	1	75
500.596	1	54
500.766	1	57
500.936	1	63
501.106	1	66
501.277	1	57
501.447	1	68
501.617	1	57
501.787	1	62
501.958	1	66
502.128	1	70
502.298	1	57
502.468	1	62
502.638	1	58
502.809	1	54
502.979	1	72
503.149	1	53
503.319	1	80
503.489	1	52
503.660	1	52
503.830	1	70
504.000	1	59
504.170	1	66
504.340	1	57
504.511	1	56
504.681	1	60
504.851	1	64
505.021	1	59
505.192	1	56
505.362	1	74
505.532	1	64
505.702	1	69
505.872	1	62
506.043	1	64
506.213	1	66
506.383	1	62
506.553	1	59
506.723	1	49
506.893	1	57
507.064	1	63
507.234	1	62
507.404	1	53
507.574	1	51
507.744	1	56
507.915	1	51
508.085	1	55
508.255	1	59
508.425	1	59
508.595	1	49
508.766	1	50
508.936	1	63
509.106	1	62
509.276	1	60
509.446	1	48
509.616	1	49
509.787	1	62
509.957	1	55
510.127	1	46
510.297	1	53
510.467	1	52
510.638	1	63
510.808	1	65
510.978	1	63
511.148	1	58
511.318	1	60
511.488	1	60
511.659	1	54
511.829	1	48
511.999	1	59
512.169	1	62
512.339	1	60
512.509	1	52
512.680	1	55
512.850	1	58
513.020	1	64
513.190	1	47
513.360	1	57
513.530	1	54
513.700	1	59
513.871	1	46
514.041	1	55
514.211	1	57
514.381	1	63
514.551	1	52
514.721	1	49
514.892	1	57
515.062	1	57
515.232	1	55
515.402	1	54
515.572	1	53
515.742	1	53
515.912	1	44
516.083	1	55
516.253	1	53
516.423	1	53
516.593	1	55
516.763	1	56
516.933	1	39
517.104	1	55
517.274	1	42
517.444	1	51
517.614	1	35
517.784	1	51
517.954	1	40
518.124	1	51
518.294	1	52
518.465	1	51
518.635	1	54
518.805	1	49
518.975	1	58
519.145	1	52
519.315	1	48
519.485	1	41
519.656	1	37
519.826	1	32
519.996	1	53
520.166	1	48
520.336	1	54
520.506	1	40
520.676	1	47
520.846	1	46
521.017	1	42
521.187	1	54
521.357	1	48
521.527	1	45
521.697	1	41
521.867	1	47
522.037	1	56
522.207	1	39
522.377	1	47
522.548	1	39
522.718	1	48
522.888	1	44
523.058	1	48
523.228	1	41
523.398	1	41
523.568	1	38
523.738	1	38
523.909	1	44
524.079	1	45
524.249	1	32
524.419	1	41
524.589	1	42
524.759	1	51
524.929	1	51
525.099	1	48
525.269	1	48
525.439	1	38
525.610	1	48
525.780	1	38
525.950	1	50
526.120	1	35
526.290	1	40
526.460	1	39
526.630	1	45
526.800	1	33
526.970	1	52
527.140	1	41
527.311	1	50
527.481	1	39
527.651	1	44
527.821	1	42
527.991	1	36
528.161	1	48
528.331	1	36
528.501	1	41
528.671	1	42
528.841	1	35
529.011	1	41
529.181	1	37
529.352	1	32
529.522	1	41
529.692	1	48
529.862	1	40
530.032	1	32
530.202	1	33
530.372	1	38
530.542	1	35
530.712	1	44
530.882	1	49
531.052	1	34
531.222	1	38
531.392	1	29
531.563	1	49
531.733	1	46
531.903	1	43
532.073	1	39
532.243	1	53
532.413	1	64
532.583	1	44
532.753	1	33
532.923	1	50
533.093	1	32
533.263	1	43
533.433	1	32
533.603	1	28
533.773	1	30
533.943	1	38
534.113	1	59
534.284	1	40
534.454	1	45
534.624	1	44
534.794	1	33
534.964	1	40
535.134	1	33
535.304	1	39
535.474	1	38
535.644	1	38
535.814	1	42
535.984	1	42
536.154	1	38
536.324	1	29
536.494	1	45
536.664	1	28
536.834	1	33
537.004	1	43
537.174	1	41
537.344	1	46
537.514	1	44
537.685	1	35
537.855	1	36
538.025	1	42
538.195	1	35
538.365	1	35
538.535	1	32
538.705	1	42
538.875	1	41
539.045	1	40
539.215	1	23
539.385	1	28
539.555	1	29
539.725	1	49
539.895	1	42
540.065	1	41
540.235	1	36
540.405	1	34
540.575	1	38
540.745	1	37
540.915	1	38
541.085	1	33
541.255	1	35
541.425	1	36
541.595	1	38
541.765	1	40
541.935	1	32
542.105	1	31
542.275	1	28
542.445	1	38
542.615	1	37
542.785	1	43
542.955	1	43
543.125	1	34
543.295	1	31
543.465	1	36
543.635	1	37
543.805	1	37
543.975	1	33
544.145	1	32
544.315	1	26
544.485	1	24
544.655	1	36
544.825	1	33
544.995	1	32
545.165	1	29
545.335	1	39
545.505	1	33
545.675	1	40
545.845	1	36
546.015	1	21
546.185	1	39
546.355	1	31
546.525	1	35
546.695	1	29
546.865	1	34
547.035	1	32
547.205	1	37
547.375	1	22
547.545	1	29
547.715	1	44
547.885	1	22
548.055	1	32
548.225	1	39
548.395	1	45
548.565	1	36
548.735	1	27
548.905	1	33
549.075	1	38
549.245	1	30
549.415	1	26
549.585	1	34
549.755	1	35
549.925	1	33
550.095	1	10
550.265	1	29
550.435	1	35
550.605	1	23
550.775	1	36
550.945	1	34
551.115	1	32
551.285	1	21
551.455	1	21
551.625	1	31
551.795	1	21
551.965	1	30
552.135	1	25
552.305	1	28
552.475	1	24
552.645	1	27
552.815	1	24
552.985	1	31
553.155	1	29
553.325	1	35
553.495	1	29
553.665	1	31
553.835	1	37
554.004	1	29
554.174	1	20
554.344	1	35
554.514	1	22
554.684	1	26
554.854	1	24
555.024	1	39
555.194	1	28
555.364	1	31
555.534	1	30
555.704	1	33
555.874	1	25
556.044	1	23
556.214	1	32
556.384	1	34
556.554	1	26
556.724	1	25
556.894	1	24
557.064	1	33
557.234	1	20
557.404	1	42
557.573	1	26
557.743	1	19
557.913	1	31
558.083	1	32
558.253	1	31
558.423	1	27
558.593	1	31
558.763	1	26
558.933	1	22
559.103	1	29
559.273	1	37
559.443	1	36
559.613	1	26
559.783	1	25
559.953	1	20
560.122	1	28
560.292	1	19
560.462	1	28
560.632	1	29
560.802	1	22
560.972	1	23
561.142	1	27
561.312	1	29
561.482	1	34
561.652	1	32
561.822	1	19
561.992	1	31
562.162	1	23
562.331	1	16
562.501	1	30
562.671	1	28
562.841	1	20
563.011	1	25
563.181	1	26
563.351	1	26
563.521	1	16
563.691	1	30
563.861	1	34
564.031	1	16
564.201	1	31
564.370	1	31
564.540	1	11
564.710	1	31
564.880	1	21
565.050	1	23
565.220	1	31
565.390	1	13
565.560	1	24
565.730	1	32
565.900	1	24
566.069	1	34
566.239	1	26
566.409	1	25
566.579	1	39
566.749	1	24
566.919	1	14
567.089	1	8
567.259	1	21
567.429	1	12
567.599	1	33
567.768	1	17
567.938	1	20
568.108	1	32
568.278	1	25
568.448	1	12
568.618	1	28
568.788	1	25
568.958	1	17
569.128	1	17
569.297	1	14
569.467	1	26
569.637	1	18
569.807	1	26
569.977	1	12
570.147	1	24
570.317	1	16
570.487	1	19
570.656	1	22
570.826	1	20
570.996	1	30
571.166	1	29
571.336	1	13
571.506	1	12
571.676	1	30
571.846	1	24
572.015	1	22
572.185	1	23
572.355	1	12
572.525	1	12
572.695	1	16
572.865	1	27
573.035	1	28
573.205	1	18
573.374	1	11
573.544	1	28
573.714	1	9
573.884	1	17
574.054	1	24
574.224	1	19
574.394	1	13
574.563	1	13
574.733	1	18
574.903	1	24
575.073	1	22
575.243	1	16
575.413	1	30
575.583	1	16
575.752	1	13
575.922	1	30
576.092	1	16
576.262	1	22
576.432	1	11
576.602	1	22
576.772	1	21
576.941	1	25
577.111	1	25
577.281	1	17
577.451	1	29
577.621	1	27
577.791	1	22
577.960	1	25
578.130	1	23
578.300	1	12
578.470	1	24
578.640	1	19
578.810	1	16
578.979	1	20
579.149	1	21
579.319	1	19
579.489	1	25
579.659	1	11
579.829	1	17
579.998	1	12
580.168	1	19
580.338	1	17
580.508	1	14
580.678	1	21
580.848	1	25
581.017	1	18
581.187	1	11
581.357	1	26
581.527	1	22
581.697	1	19
581.867	1	29
582.036	1	17
582.206	1	19
582.376	1	19
582.546	1	25
582.716	1	15
582.885	1	12
583.055	1	15
583.225	1	16
583.395	1	12
583.565	1	29
583.735	1	20
583.904	1	20
584.074	1	17
584.244	1	15
584.414	1	23
584.584	1	20
584.753	1	17
584.923	1	21
585.093	1	20
585.263	1	17
585.433	1	23
585.602	1	17
585.772	1	23
585.942	1	21
586.112	1	22
586.282	1	22
586.451	1	30
586.621	1	13
586.791	1	5
586.961	1	16
587.131	1	6
587.300	1	24
587.470	1	13
587.640	1	11
587.810	1	8
587.980	1	15
588.149	1	19
588.319	1	21
588.489	1	23
588.659	1	16
588.829	1	13
588.998	1	16
589.168	1	13
589.338	1	12
589.508	1	28
589.677	1	19
589.847	1	16
590.017	1	25
590.187	1	26
590.357	1	17
590.526	1	26
590.696	1	26
590.866	1	9
591.036	1	28
591.205	1	17
591.375	1	19
591.545	1	32
591.715	1	12
591.885	1	21
592.054	1	27
592.224	1	19
592.394	1	9
592.564	1	24
592.733	1	12
592.903	1	21
593.073	1	19
593.243	1	17
593.412	1	11
593.582	1	21
593.752	1	15
593.922	1	20
594.091	1	28
594.261	1	10
594.431	1	16
594.601	1	23
594.771	1	10
594.940	1	18
595.110	1	30
595.280	1	17
595.450	1	17
595.619	1	24
595.789	1	12
595.959	1	24
596.129	1	13
596.298	1	20
596.468	1	25
596.638	1	18
596.808	1	11
596.977	1	19
597.147	1	14
597.317	1	25
597.487	1	13
597.656	1	20
597.826	1	29
597.996	1	8
598.166	1	19
598.335	1	9
598.505	1	22
598.675	1	18
598.844	1	31
599.014	1	12
599.184	1	24
599.354	1	26
599.523	1	16
599.693	1	29
599.863	1	25
600.033	1	21
600.202	1	23
600.372	1	10
600.542	1	12
600.712	1	24
600.881	1	18
601.051	1	14
601.221	1	22
601.390	1	16
601.560	1	22
601.730	1	12
601.900	1	15
602.069	1	27
602.239	1	19
602.409	1	12
602.578	1	29
602.748	1	25
602.918	1	16
603.088	1	7
603.257	1	21
603.427	1	23
603.597	1	20
603.767	1	23
603.936	1	18
604.106	1	8
604.276	1	20
604.445	1	9
604.615	1	14
604.785	1	19
604.954	1	22
605.124	1	13
605.294	1	15
605.464	1	16
605.633	1	15
605.803	1	23
605.973	1	26
606.142	1	26
606.312	1	28
606.482	1	17
606.652	1	28
606.821	1	24
606.991	1	22
607.161	1	30
607.330	1	24
607.500	1	19
607.670	1	20
607.839	1	16
608.009	1	10
608.179	1	25
608.348	1	27
608.518	1	37
608.688	1	19
608.858	1	27
609.027	1	24
609.197	1	21
609.367	1	12
609.536	1	11
609.706	1	32
609.876	1	28
610.045	1	23
610.215	1	30
610.385	1	30
610.554	1	15
610.724	1	20
610.894	1	28
611.063	1	23
611.233	1	27
611.403	1	31
611.572	1	17
611.742	1	11
611.912	1	28
612.081	1	22
612.251	1	13
612.421	1	27
612.590	1	11
612.760	1	19
612.930	1	30
613.099	1	22
613.269	1	16
613.439	1	23
613.608	1	20
613.778	1	17
613.948	1	37
614.117	1	12
614.287	1	17
614.457	1	26
614.626	1	13
614.796	1	17
614.966	1	33
615.135	1	31
615.305	1	18
615.475	1	22
615.644	1	27
615.814	1	32
615.984	1	13
616.153	1	20
616.323	1	24
616.493	1	12
616.662	1	20
616.832	1	36
617.002	1	14
617.171	1	24
617.341	1	34
617.511	1	12
617.680	1	15
617.850	1	30
618.019	1	16
618.189	1	45
618.359	1	26
618.528	1	18
618.698	1	27
618.868	1	23
619.037	1	19
619.207	1	24
619.377	1	32
619.546	1	24
619.716	1	29
619.885	1	34
620.055	1	10
620.225	1	34
620.394	1	27
620.564	1	22
620.734	1	27
620.903	1	17
621.073	1	25
621.242	1	23
621.412	1	17
621.582	1	25
621.751	1	16
621.921	1	26
622.091	1	22
622.260	1	27
622.430	1	35
622.599	1	15
622.769	1	14
622.939	1	27
623.108	1	18
623.278	1	14
623.448	1	26
623.617	1	18
623.787	1	21
623.956	1	31
624.126	1	30
624.296	1	28
624.465	1	35
624.635	1	28
624.804	1	17
624.974	1	18
625.144	1	29
625.313	1	41
625.483	1	35
625.652	1	14
625.822	1	31
625.992	1	30
626.161	1	18
626.331	1	32
626.501	1	35
626.670	1	21
626.840	1	34
627.009	1	27
627.179	1	29
627.348	1	22
627.518	1	33
627.688	1	25
627.857	1	34
628.027	1	26
628.196	1	26
628.366	1	17
628.536	1	28
628.705	1	13
628.875	1	22
629.044	1	24
629.214	1	27
629.384	1	40
629.553	1	32
629.723	1	24
629.892	1	31
630.062	1	19
630.232	1	27
630.401	1	22
630.571	1	16
630.740	1	17
630.910	1	28
631.079	1	20
631.249	1	31
631.419	1	22
631.588	1	22
631.758	1	21
631.927	1	28
632.097	1	15
632.266	1	38
632.436	1	22
632.606	1	20
632.775	1	26
632.945	1	22
633.114	1	26
633.284	1	27
633.453	1	31
633.623	1	36
633.793	1	34
633.962	1	33
634.132	1	31
634.301	1	30
634.471	1	32
634.640	1	22
634.810	1	28
634.979	1	44
635.149	1	27
635.319	1	27
635.488	1	33
635.658	1	29
635.827	1	28
635.997	1	41
636.166	1	30
636.336	1	20
636.505	1	35
636.675	1	36
636.845	1	32
637.014	1	15
637.184	1	39
637.353	1	27
637.523	1	35
637.692	1	34
637.862	1	31
638.031	1	26
638.201	1	39
638.370	1	38
638.540	1	26
638.710	1	26
638.879	1	23
639.049	1	35
639.218	1	30
639.388	1	31
639.557	1	28
639.727	1	35
639.896	1	32
640.066	1	28
640.235	1	36
640.405	1	37
640.574	1	28
640.744	1	25
640.914	1	34
641.083	1	35
641.253	1	37
641.422	1	22
641.592	1	40
641.761	1	29
641.931	1	34
642.100	1	28
642.270	1	42
642.439	1	40
642.609	1	38
642.778	1	25
642.948	1	35
643.117	1	34
643.287	1	29
643.456	1	19
643.626	1	31
643.795	1	36
643.965	1	29
644.134	1	34
644.304	1	25
644.473	1	29
644.643	1	25
644.812	1	31
644.982	1	43
645.151	1	34
645.321	1	30
645.490	1	42
645.660	1	22
645.829	1	41
645.999	1	28
646.168	1	51
646.338	1	37
646.507	1	35
646.677	1	35
646.846	1	41
647.016	1	52
647.185	1	38
647.355	1	46
647.524	1	30
647.694	1	31
647.863	1	26
648.033	1	33
648.202	1	40
648.372	1	26
648.541	1	35
648.711	1	37
648.880	1	47
649.050	1	33
649.219	1	33
649.389	1	34
649.558	1	41
649.728	1	34
649.897	1	35
650.067	1	46
650.236	1	30
650.406	1	37
650.575	1	39
650.745	1	49
650.914	1	43
651.084	1	33
651.253	1	35
651.423	1	35
651.592	1	31
651.762	1	29
651.931	1	39
652.101	1	28
652.270	1	31
652.440	1	39
652.609	1	43
652.778	1	50
652.948	1	34
653.117	1	33
653.287	1	30
653.456	1	38
653.626	1	34
653.795	1	42
653.965	1	37
654.134	1	26
654.304	1	43
654.473	1	35
654.643	1	19
654.812	1	48
654.982	1	32
655.151	1	36
655.320	1	43
655.490	1	30
655.659	1	43
655.829	1	41
655.998	1	36
656.168	1	28
656.337	1	39
656.507	1	29
656.676	1	33
656.846	1	26
657.015	1	45
657.184	1	40
657.354	1	42
657.523	1	38
657.693	1	37
657.862	1	34
658.032	1	42
658.201	1	32
658.371	1	36
658.540	1	31
658.709	1	41
658.879	1	44
659.048	1	42
659.218	1	28
659.387	1	41
659.557	1	28
659.726	1	34
659.895	1	36
660.065	1	34
660.234	1	38
660.404	1	36
660.573	1	46
660.743	1	40
660.912	1	34
661.081	1	29
661.251	1	33
661.420	1	39
661.590	1	35
661.759	1	46
661.929	1	37
662.098	1	40
662.267	1	31
662.437	1	48
662.606	1	35
662.776	1	38
662.945	1	51
663.115	1	57
663.284	1	43
663.453	1	42
663.623	1	39
663.792	1	48
663.962	1	49
664.131	1	44
664.300	1	34
664.470	1	35
664.639	1	47
664.809	1	43
664.978	1	59
665.148	1	39
665.317	1	45
665.486	1	37
665.656	1	44
665.825	1	44
665.995	1	18
666.164	1	37
666.333	1	39
666.503	1	25
666.672	1	33
666.842	1	41
667.011	1	41
667.180	1	37
667.350	1	40
667.519	1	43
667.689	1	31
667.858	1	46
668.027	1	40
668.197	1	27
668.366	1	42
668.536	1	37
668.705	1	33
668.874	1	44
669.044	1	44
669.213	1	45
669.382	1	44
669.552	1	47
669.721	1	35
669.891	1	37
670.060	1	28
670.229	1	48
670.399	1	44
670.568	1	36
670.738	1	33
670.907	1	46
671.076	1	49
671.246	1	40
671.415	1	60
671.584	1	41
671.754	1	31
671.923	1	34
672.093	1	42
672.262	1	43
672.431	1	42
672.601	1	36
672.770	1	36
672.939	1	48
673.109	1	34
673.278	1	47
673.448	1	37
673.617	1	36
673.786	1	31
