325.333	1	10
325.504	1	-1
325.675	1	8
325.846	1	3
326.017	1	5
326.188	1	0
326.359	1	5
326.531	1	-9
326.702	1	-10
326.873	1	9
327.044	1	2
327.215	1	-7
327.386	1	-2
327.557	1	-10
327.728	1	3
327.899	1	7
328.070	1	7
328.241	1	-3
328.412	1	6
328.583	1	-6
328.754	1	6
328.926	1	9
329.097	1	-11
329.268	1	8
329.439	1	12
329.610	1	3
329.781	1	-1
329.952	1	10
330.123	1	-8
330.294	1	-2
330.465	1	-7
330.636	1	3
330.807	1	-1
330.978	1	-2
331.149	1	8
331.320	1	2
331.492	1	2
331.663	1	-1
331.834	1	5
332.005	1	5
332.176	1	4
332.347	1	0
332.518	1	4
332.689	1	1
332.860	1	5
333.031	1	-1
333.202	1	-2
333.373	1	4
333.544	1	4
333.715	1	-4
333.886	1	3
334.057	1	-2
334.228	1	9
334.399	1	11
334.570	1	7
334.741	1	-5
334.912	1	11
335.084	1	11
335.255	1	8
335.426	1	6
335.597	1	7
335.768	1	4
335.939	1	7
336.110	1	-4
336.281	1	3
336.452	1	10
336.623	1	4
336.794	1	7
336.965	1	-1
337.136	1	13
337.307	1	11
337.478	1	9
337.649	1	3
337.820	1	11
337.991	1	5
338.162	1	1
338.333	1	0
338.504	1	10
338.675	1	5
338.846	1	-7
339.017	1	7
339.188	1	7
339.359	1	7
339.530	1	-4
339.701	1	6
339.872	1	7
340.043	1	3
340.214	1	12
340.385	1	1
340.556	1	10
340.727	1	4
340.898	1	9
341.069	1	-7
341.240	1	-1
341.411	1	4
341.582	1	-13
341.753	1	0
341.924	1	9
342.095	1	0
342.266	1	13
342.437	1	0
342.608	1	6
342.779	1	7
342.950	1	-3
343.121	1	8
343.292	1	11
343.463	1	16
343.634	1	7
343.805	1	1
343.976	1	13
344.147	1	15
344.318	1	-2
344.489	1	-3
344.660	1	9
344.831	1	14
345.002	1	5
345.173	1	0
345.344	1	-4
345.515	1	4
345.686	1	8
345.857	1	8
346.028	1	4
346.199	1	8
346.370	1	8
346.541	1	-1
346.712	1	6
346.883	1	-1
347.054	1	7
347.225	1	-2
347.396	1	-2
347.567	1	0
347.738	1	11
347.909	1	14
348.080	1	6
348.251	1	3
348.422	1	15
348.593	1	0
348.764	1	1
348.935	1	10
349.106	1	4
349.277	1	4
349.448	1	9
349.619	1	6
349.790	1	-3
349.961	1	2
350.132	1	9
350.303	1	9
350.474	1	1
350.645	1	9
350.816	1	4
350.987	1	19
351.157	1	-1
351.328	1	-4
351.499	1	8
351.670	1	9
351.841	1	17
352.012	1	9
352.183	1	13
352.354	1	2
352.525	1	7
352.696	1	-6
352.867	1	9
353.038	1	14
353.209	1	9
353.380	1	11
353.551	1	14
353.722	1	3
353.893	1	9
354.064	1	1
354.235	1	-5
354.406	1	-3
354.576	1	3
354.747	1	13
354.918	1	7
355.089	1	13
355.260	1	6
355.431	1	2
355.602	1	12
355.773	1	11
355.944	1	2
356.115	1	8
356.286	1	12
356.457	1	8
356.628	1	1
356.799	1	10
356.970	1	16
357.141	1	10
357.311	1	20
357.482	1	10
357.653	1	5
357.824	1	-1
357.995	1	11
358.166	1	-1
358.337	1	0
358.508	1	16
358.679	1	4
358.850	1	18
359.021	1	0
359.192	1	13
359.363	1	4
359.533	1	5
359.704	1	7
359.875	1	0
360.046	1	13
360.217	1	9
360.388	1	18
360.559	1	10
360.730	1	3
360.901	1	7
361.072	1	10
361.243	1	11
361.414	1	15
361.584	1	11
361.755	1	16
361.926	1	15
362.097	1	-1
362.268	1	17
362.439	1	8
362.610	1	18
362.781	1	4
362.952	1	14
363.123	1	-6
363.293	1	4
363.464	1	10
363.635	1	12
363.806	1	10
363.977	1	12
364.148	1	12
364.319	1	4
364.490	1	14
364.661	1	7
364.832	1	4
365.002	1	14
365.173	1	9
365.344	1	11
365.515	1	11
365.686	1	6
365.857	1	9
366.028	1	13
366.199	1	9
366.370	1	10
366.540	1	0
366.711	1	13
366.882	1	10
367.053	1	17
367.224	1	15
367.395	1	7
367.566	1	12
367.737	1	8
367.908	1	11
368.078	1	7
368.249	1	12
368.420	1	13
368.591	1	13
368.762	1	10
368.933	1	13
369.104	1	8
369.274	1	10
369.445	1	12
369.616	1	5
369.787	1	1
369.958	1	8
370.129	1	-1
370.300	1	1
370.471	1	5
370.641	1	4
370.812	1	11
370.983	1	9
371.154	1	12
371.325	1	-3
371.496	1	4
371.667	1	26
371.837	1	3
372.008	1	5
372.179	1	13
372.350	1	17
372.521	1	10
372.692	1	19
372.863	1	7
373.033	1	8
373.204	1	14
373.375	1	10
373.546	1	14
373.717	1	6
373.888	1	21
374.059	1	12
374.229	1	19
374.400	1	14
374.571	1	5
374.742	1	7
374.913	1	0
375.084	1	5
375.254	1	-1
375.425	1	17
375.596	1	9
375.767	1	18
375.938	1	8
376.109	1	12
376.279	1	11
376.450	1	16
376.621	1	18
376.792	1	18
376.963	1	6
377.134	1	6
377.304	1	5
377.475	1	-2
377.646	1	4
377.817	1	19
377.988	1	9
378.159	1	12
378.329	1	6
378.500	1	25
378.671	1	5
378.842	1	10
379.013	1	17
379.184	1	10
379.354	1	12
379.525	1	12
379.696	1	19
379.867	1	13
380.038	1	9
380.209	1	26
380.379	1	12
380.550	1	-2
380.721	1	7
380.892	1	11
381.063	1	6
381.233	1	10
381.404	1	8
381.575	1	12
381.746	1	17
381.917	1	15
382.087	1	19
382.258	1	13
382.429	1	4
382.600	1	3
382.771	1	9
382.941	1	10
383.112	1	9
383.283	1	6
383.454	1	4
383.625	1	14
383.795	1	19
383.966	1	23
384.137	1	19
384.308	1	6
384.479	1	9
384.649	1	16
384.820	1	11
384.991	1	5
385.162	1	17
385.333	1	6
385.503	1	17
385.674	1	9
385.845	1	9
386.016	1	19
386.187	1	5
386.357	1	21
386.528	1	17
386.699	1	9
386.870	1	4
387.041	1	12
387.211	1	7
387.382	1	21
387.553	1	22
387.724	1	7
387.894	1	5
388.065	1	13
388.236	1	8
388.407	1	11
388.578	1	15
388.748	1	17
388.919	1	11
389.090	1	25
389.261	1	19
389.431	1	2
389.602	1	11
389.773	1	18
389.944	1	18
390.114	1	12
390.285	1	26
390.456	1	14
390.627	1	18
390.798	1	12
390.968	1	24
391.139	1	19
391.310	1	10
391.481	1	16
391.651	1	19
391.822	1	21
391.993	1	12
392.164	1	9
392.334	1	9
392.505	1	15
392.676	1	10
392.847	1	7
393.017	1	16
393.188	1	16
393.359	1	28
393.530	1	28
393.700	1	19
393.871	1	26
394.042	1	5
394.213	1	10
394.383	1	13
394.554	1	14
394.725	1	-2
394.896	1	28
395.066	1	10
395.237	1	17
395.408	1	4
395.579	1	14
395.749	1	22
395.920	1	10
396.091	1	12
396.262	1	9
396.432	1	6
396.603	1	14
396.774	1	18
396.945	1	19
397.115	1	20
397.286	1	26
397.457	1	16
397.627	1	3
397.798	1	12
397.969	1	20
398.140	1	14
398.310	1	20
398.481	1	12
398.652	1	17
398.823	1	4
398.993	1	20
399.164	1	13
399.335	1	13
399.505	1	16
399.676	1	11
399.847	1	14
400.018	1	18
400.188	1	24
400.359	1	20
400.530	1	18
400.700	1	22
400.871	1	8
401.042	1	17
401.213	1	16
401.383	1	14
401.554	1	14
401.725	1	10
401.895	1	5
402.066	1	10
402.237	1	13
402.408	1	17
402.578	1	23
402.749	1	12
402.920	1	18
403.090	1	12
403.261	1	20
403.432	1	16
403.603	1	19
403.773	1	34
403.944	1	23
404.115	1	19
404.285	1	22
404.456	1	19
404.627	1	20
404.797	1	10
404.968	1	12
405.139	1	22
405.310	1	14
405.480	1	22
405.651	1	14
405.822	1	20
405.992	1	24
406.163	1	8
406.334	1	15
406.504	1	15
406.675	1	15
406.846	1	18
407.016	1	21
407.187	1	24
407.358	1	16
407.528	1	21
407.699	1	19
407.870	1	25
408.041	1	1
408.211	1	18
408.382	1	19
408.553	1	17
408.723	1	25
408.894	1	27
409.065	1	15
409.235	1	8
409.406	1	15
409.577	1	7
409.747	1	14
409.918	1	20
410.089	1	27
410.259	1	9
410.430	1	17
410.601	1	17
410.771	1	26
410.942	1	18
411.113	1	20
411.283	1	23
411.454	1	23
411.625	1	25
411.795	1	14
411.966	1	17
412.137	1	24
412.307	1	18
412.478	1	20
412.649	1	13
412.819	1	21
412.990	1	11
413.161	1	9
413.331	1	18
413.502	1	13
413.672	1	17
413.843	1	21
414.014	1	10
414.184	1	28
414.355	1	25
414.526	1	16
414.696	1	9
414.867	1	1
415.038	1	16
415.208	1	14
415.379	1	19
415.550	1	15
415.720	1	9
415.891	1	24
416.062	1	16
416.232	1	26
416.403	1	17
416.573	1	10
416.744	1	17
416.915	1	20
417.085	1	22
417.256	1	18
417.427	1	9
417.597	1	19
417.768	1	18
417.939	1	9
418.109	1	8
418.280	1	12
418.450	1	30
418.621	1	16
418.792	1	11
418.962	1	23
419.133	1	12
419.304	1	6
419.474	1	15
419.645	1	14
419.815	1	18
419.986	1	30
420.157	1	10
420.327	1	6
420.498	1	8
420.669	1	24
420.839	1	22
421.010	1	19
421.180	1	8
421.351	1	15
421.522	1	22
421.692	1	23
421.863	1	17
422.033	1	13
422.204	1	20
422.375	1	20
422.545	1	27
422.716	1	10
422.886	1	22
423.057	1	14
423.228	1	8
423.398	1	13
423.569	1	11
423.740	1	18
423.910	1	19
424.081	1	19
424.251	1	15
424.422	1	21
424.593	1	21
424.763	1	25
424.934	1	17
425.104	1	22
425.275	1	18
425.445	1	13
425.616	1	11
425.787	1	10
425.957	1	11
426.128	1	16
426.298	1	21
426.469	1	6
426.640	1	19
426.810	1	4
426.981	1	21
427.151	1	8
427.322	1	17
427.493	1	14
427.663	1	18
427.834	1	16
428.004	1	25
428.175	1	23
428.345	1	10
428.516	1	15
428.687	1	20
428.857	1	19
429.028	1	15
429.198	1	11
429.369	1	11
429.540	1	11
429.710	1	23
429.881	1	8
430.051	1	8
430.222	1	9
430.392	1	20
430.563	1	15
430.734	1	15
430.904	1	15
431.075	1	17
431.245	1	19
431.416	1	13
431.586	1	12
431.757	1	19
431.927	1	18
432.098	1	23
432.269	1	6
432.439	1	12
432.610	1	28
432.780	1	13
432.951	1	8
433.121	1	15
433.292	1	21
433.462	1	19
433.633	1	19
433.804	1	20
433.974	1	12
434.145	1	7
434.315	1	14
434.486	1	3
434.656	1	18
434.827	1	20
434.997	1	23
435.168	1	8
435.339	1	19
435.509	1	22
435.680	1	23
435.850	1	6
436.021	1	19
436.191	1	4
436.362	1	13
436.532	1	26
436.703	1	22
436.873	1	14
437.044	1	9
437.214	1	10
437.385	1	12
437.556	1	23
437.726	1	14
437.897	1	8
438.067	1	21
438.238	1	18
438.408	1	16
438.579	1	9
438.749	1	13
438.920	1	20
439.090	1	2
439.261	1	19
439.431	1	1
439.602	1	16
439.772	1	16
439.943	1	11
440.113	1	9
440.284	1	17
440.455	1	13
440.625	1	25
440.796	1	11
440.966	1	19
441.137	1	16
441.307	1	22
441.478	1	-5
441.648	1	17
441.819	1	1
441.989	1	19
442.160	1	14
442.330	1	20
442.501	1	3
442.671	1	18
442.842	1	13
443.012	1	21
443.183	1	10
443.353	1	8
443.524	1	6
443.694	1	20
443.865	1	19
444.035	1	7
444.206	1	10
444.376	1	11
444.547	1	19
444.717	1	3
444.888	1	8
445.058	1	20
445.229	1	11
445.399	1	13
445.570	1	17
445.740	1	22
445.911	1	15
446.081	1	7
446.252	1	19
446.422	1	18
446.593	1	9
446.763	1	14
446.934	1	9
447.104	1	9
447.275	1	11
447.445	1	15
447.616	1	6
447.786	1	1
447.957	1	4
448.127	1	13
448.298	1	17
448.468	1	20
448.639	1	11
448.809	1	10
448.979	1	20
449.150	1	18
449.320	1	9
449.491	1	3
449.661	1	5
449.832	1	6
450.002	1	16
450.173	1	5
450.343	1	11
450.514	1	12
450.684	1	15
450.855	1	16
451.025	1	5
451.196	1	4
451.366	1	15
451.537	1	22
451.707	1	23
451.878	1	15
452.048	1	7
452.218	1	7
452.389	1	17
452.559	1	17
452.730	1	12
452.900	1	7
453.071	1	17
453.241	1	10
453.412	1	10
453.582	1	19
453.753	1	16
453.923	1	0
454.093	1	12
454.264	1	15
454.434	1	7
454.605	1	0
454.775	1	13
454.946	1	-2
455.116	1	15
455.287	1	4
455.457	1	25
455.628	1	-6
455.798	1	17
455.968	1	16
456.139	1	22
456.309	1	8
456.480	1	23
456.650	1	15
456.821	1	8
456.991	1	25
457.161	1	11
457.332	1	5
457.502	1	7
457.673	1	11
457.843	1	1
458.014	1	11
458.184	1	8
458.355	1	5
458.525	1	6
458.695	1	12
458.866	1	0
459.036	1	16
459.207	1	4
459.377	1	22
459.548	1	11
459.718	1	5
459.888	1	2
460.059	1	14
460.229	1	1
460.400	1	12
460.570	1	2
460.740	1	13
460.911	1	2
461.081	1	21
461.252	1	7
461.422	1	8
461.593	1	9
461.763	1	15
461.933	1	13
462.104	1	6
462.274	1	11
462.445	1	1
462.615	1	16
462.785	1	17
462.956	1	7
463.126	1	12
463.297	1	8
463.467	1	15
463.638	1	9
463.808	1	11
463.978	1	-2
464.149	1	4
464.319	1	9
464.490	1	5
464.660	1	7
464.830	1	2
465.001	1	10
465.171	1	7
465.342	1	5
465.512	1	8
465.682	1	2
465.853	1	1
466.023	1	9
466.194	1	18
466.364	1	21
466.534	1	0
466.705	1	21
466.875	1	3
467.045	1	6
467.216	1	5
467.386	1	8
467.557	1	27
467.727	1	7
467.897	1	14
468.068	1	5
468.238	1	6
468.409	1	12
468.579	1	11
468.749	1	1
468.920	1	5
469.090	1	17
469.260	1	18
469.431	1	1
469.601	1	6
469.772	1	23
469.942	1	15
470.112	1	7
470.283	1	12
470.453	1	9
470.623	1	14
470.794	1	8
470.964	1	0
471.135	1	7
471.305	1	10
471.475	1	14
471.646	1	8
471.816	1	8
471.986	1	3
472.157	1	11
472.327	1	7
472.497	1	5
472.668	1	8
472.838	1	10
473.009	1	4
473.179	1	9
473.349	1	7
473.520	1	17
473.690	1	8
473.860	1	2
474.031	1	-3
474.201	1	11
474.371	1	4
474.542	1	-2
474.712	1	1
474.882	1	13
475.053	1	4
475.223	1	5
475.394	1	11
475.564	1	15
475.734	1	-2
475.905	1	11
476.075	1	21
476.245	1	8
476.416	1	-1
476.586	1	2
476.756	1	14
476.927	1	4
477.097	1	0
477.267	1	7
477.438	1	21
477.608	1	15
477.778	1	-1
477.949	1	-4
478.119	1	14
478.289	1	5
478.460	1	6
478.630	1	6
478.800	1	-5
478.971	1	7
479.141	1	10
479.311	1	-2
479.482	1	1
479.652	1	1
479.822	1	5
479.993	1	6
480.163	1	14
480.333	1	17
480.504	1	21
480.674	1	6
480.844	1	2
481.015	1	11
481.185	1	14
481.355	1	6
481.525	1	3
481.696	1	14
481.866	1	6
482.036	1	7
482.207	1	14
482.377	1	0
482.547	1	-1
482.718	1	19
482.888	1	11
483.058	1	9
483.229	1	1
483.399	1	10
483.569	1	-2
483.740	1	9
483.910	1	6
484.080	1	4
484.250	1	5
484.421	1	0
484.591	1	7
484.761	1	9
484.932	1	-1
485.102	1	15
485.272	1	2
485.443	1	5
485.613	1	6
485.783	1	-2
485.953	1	4
486.124	1	3
486.294	1	9
486.464	1	17
486.635	1	4
486.805	1	4
486.975	1	9
487.146	1	6
487.316	1	4
487.486	1	11
487.656	1	10
487.827	1	10
487.997	1	-1
488.167	1	2
488.338	1	6
488.508	1	13
488.678	1	0
488.848	1	8
489.019	1	4
489.189	1	15
489.359	1	5
489.529	1	6
489.700	1	12
489.870	1	13
490.040	1	2
490.211	1	0
490.381	1	-1
490.551	1	8
490.721	1	9
490.892	1	-5
491.062	1	-2
491.232	1	6
491.402	1	8
491.573	1	12
491.743	1	1
491.913	1	4
492.084	1	4
492.254	1	-1
492.424	1	-6
492.594	1	-1
492.765	1	17
492.935	1	20
493.105	1	8
493.275	1	0
493.446	1	-5
493.616	1	-2
493.786	1	9
493.956	1	3
494.127	1	5
494.297	1	-8
494.467	1	4
494.637	1	10
494.808	1	10
494.978	1	-2
495.148	1	7
495.318	1	7
495.489	1	-9
495.659	1	2
495.829	1	-1
495.999	1	12
496.170	1	3
496.340	1	9
496.510	1	4
496.680	1	6
496.851	1	11
497.021	1	4
497.191	1	-1
497.361	1	-8
497.532	1	-1
497.702	1	6
497.872	1	2
498.042	1	-2
498.213	1	-8
498.383	1	2
498.553	1	6
498.723	1	2
498.894	1	8
499.064	1	6
499.234	1	1
499.404	1	14
499.574	1	2
499.745	1	0
499.915	1	13
500.085	1	7
500.255	1	1
500.426	1	0
500.596	1	2
500.766	1	8
500.936	1	-4
501.106	1	1
501.277	1	-4
501.447	1	9
501.617	1	3
501.787	1	-2
501.958	1	11
502.128	1	0
502.298	1	7
502.468	1	-1
502.638	1	2
502.809	1	-1
502.979	1	-3
503.149	1	-1
503.319	1	9
503.489	1	-12
503.660	1	-2
503.830	1	7
504.000	1	3
504.170	1	1
504.340	1	-5
504.511	1	-4
504.681	1	3
504.851	1	-2
505.021	1	2
505.192	1	-7
505.362	1	-1
505.532	1	2
505.702	1	19
505.872	1	2
506.043	1	5
506.213	1	15
506.383	1	2
506.553	1	8
506.723	1	-9
506.893	1	8
507.064	1	5
507.234	1	4
507.404	1	-10
507.574	1	2
507.744	1	1
507.915	1	4
508.085	1	-6
508.255	1	-2
508.425	1	5
508.595	1	4
508.766	1	-7
508.936	1	9
509.106	1	10
509.276	1	6
509.446	1	-5
509.616	1	5
509.787	1	2
509.957	1	1
510.127	1	1
510.297	1	6
510.467	1	-3
510.638	1	3
510.808	1	14
510.978	1	-6
511.148	1	2
511.318	1	6
511.488	1	8
511.659	1	0
511.829	1	-8
511.999	1	2
512.169	1	9
512.339	1	12
512.509	1	-11
512.680	1	7
512.850	1	9
513.020	1	7
513.190	1	-6
513.360	1	11
513.530	1	-7
513.700	1	6
513.871	1	0
514.041	1	10
514.211	1	8
514.381	1	0
514.551	1	-2
514.721	1	2
514.892	1	5
515.062	1	7
515.232	1	-4
515.402	1	-3
515.572	1	6
515.742	1	7
515.912	1	3
516.083	1	0
516.253	1	7
516.423	1	5
516.593	1	-7
516.763	1	11
516.933	1	-1
517.104	1	13
517.274	1	-3
517.444	1	-2
517.614	1	-11
517.784	1	-7
517.954	1	-3
518.124	1	2
518.294	1	4
518.465	1	6
518.635	1	8
518.805	1	9
518.975	1	6
519.145	1	0
519.315	1	4
519.485	1	-2
519.656	1	-5
519.826	1	-4
519.996	1	9
520.166	1	-5
520.336	1	2
520.506	1	-5
520.676	1	8
520.846	1	1
521.017	1	3
521.187	1	7
521.357	1	-4
521.527	1	-9
521.697	1	-8
521.867	1	-4
522.037	1	6
522.207	1	8
522.377	1	-1
522.548	1	-8
522.718	1	-5
522.888	1	1
523.058	1	3
523.228	1	-4
523.398	1	1
523.568	1	-16
523.738	1	2
523.909	1	-2
524.079	1	-3
524.249	1	-11
524.419	1	1
524.589	1	-3
524.759	1	12
524.929	1	-1
525.099	1	3
525.269	1	3
525.439	1	-6
525.610	1	10
525.780	1	-3
525.950	1	10
526.120	1	-4
526.290	1	7
526.460	1	-15
526.630	1	-1
526.800	1	-7
526.970	1	16
527.140	1	-6
527.311	1	3
527.481	1	-2
527.651	1	3
527.821	1	-4
527.991	1	-1
528.161	1	6
528.331	1	-1
528.501	1	9
528.671	1	-1
528.841	1	3
529.011	1	11
529.181	1	-5
529.352	1	0
529.522	1	3
529.692	1	6
529.862	1	-4
530.032	1	-13
530.202	1	3
530.372	1	3
530.542	1	-8
530.712	1	7
530.882	1	4
531.052	1	3
531.222	1	2
531.392	1	8
531.563	1	4
531.733	1	0
531.903	1	2
532.073	1	4
532.243	1	12
532.413	1	12
532.583	1	4
532.753	1	-9
532.923	1	2
533.093	1	-6
533.263	1	5
533.433	1	-1
533.603	1	-8
533.773	1	6
533.943	1	4
534.113	1	2
534.284	1	-9
534.454	1	3
534.624	1	3
534.794	1	-6
534.964	1	9
535.134	1	-5
535.304	1	9
535.474	1	11
535.644	1	9
535.814	1	1
535.984	1	4
536.154	1	-2
536.324	1	0
536.494	1	3
536.664	1	-2
536.834	1	2
537.004	1	11
537.174	1	6
537.344	1	11
537.514	1	-2
537.685	1	3
537.855	1	-3
538.025	1	10
538.195	1	-6
538.365	1	3
538.535	1	-3
538.705	1	6
538.875	1	0
539.045	1	1
539.215	1	-19
539.385	1	3
539.555	1	-9
539.725	1	-1
539.895	1	9
540.065	1	-3
540.235	1	-1
540.405	1	-1
540.575	1	5
540.745	1	4
540.915	1	-2
541.085	1	-7
541.255	1	1
541.425	1	-7
541.595	1	-1
541.765	1	2
541.935	1	-3
542.105	1	-3
542.275	1	3
542.445	1	8
542.615	1	0
542.785	1	0
542.955	1	2
543.125	1	1
543.295	1	5
543.465	1	4
543.635	1	-1
543.805	1	4
543.975	1	0
544.145	1	-3
544.315	1	-10
544.485	1	-4
544.655	1	15
544.825	1	-1
544.995	1	0
545.165	1	3
545.335	1	0
545.505	1	6
545.675	1	6
545.845	1	1
546.015	1	3
546.185	1	1
546.355	1	7
546.525	1	-1
546.695	1	-1
546.865	1	1
547.035	1	0
547.205	1	15
547.375	1	7
547.545	1	1
547.715	1	-5
547.885	1	-14
548.055	1	-1
548.225	1	11
548.395	1	8
548.565	1	-1
548.735	1	-15
548.905	1	-3
549.075	1	-2
549.245	1	3
549.415	1	4
549.585	1	1
549.755	1	12
549.925	1	7
550.095	1	-2
550.265	1	-4
550.435	1	5
550.605	1	-6
550.775	1	-6
550.945	1	-3
551.115	1	10
551.285	1	-3
551.455	1	14
551.625	1	-3
551.795	1	-4
551.965	1	-4
552.135	1	-6
552.305	1	10
552.475	1	7
552.645	1	-7
552.815	1	-9
552.985	1	-2
553.155	1	1
553.325	1	3
553.495	1	7
553.665	1	9
553.835	1	7
554.004	1	7
554.174	1	-4
554.344	1	0
554.514	1	0
554.684	1	7
554.854	1	-14
555.024	1	1
555.194	1	9
555.364	1	5
555.534	1	-10
555.704	1	-4
555.874	1	-6
556.044	1	0
556.214	1	-7
556.384	1	10
556.554	1	-1
556.724	1	1
556.894	1	-1
557.064	1	-4
557.234	1	-3
557.404	1	-5
557.573	1	-1
557.743	1	0
557.913	1	-3
558.083	1	-2
558.253	1	-2
558.423	1	3
558.593	1	1
558.763	1	-3
558.933	1	-3
559.103	1	-3
559.273	1	2
559.443	1	0
559.613	1	0
559.783	1	-6
559.953	1	-7
560.122	1	10
560.292	1	-15
560.462	1	-10
560.632	1	-4
560.802	1	2
560.972	1	7
561.142	1	4
561.312	1	-6
561.482	1	6
561.652	1	3
561.822	1	1
561.992	1	11
562.162	1	0
562.331	1	-12
562.501	1	3
562.671	1	-1
562.841	1	-12
563.011	1	0
563.181	1	-6
563.351	1	-10
563.521	1	-6
563.691	1	4
563.861	1	5
564.031	1	-6
564.201	1	1
564.370	1	2
564.540	1	1
564.710	1	0
564.880	1	-2
565.050	1	2
565.220	1	3
565.390	1	0
565.560	1	6
565.730	1	10
565.900	1	8
566.069	1	7
566.239	1	-1
566.409	1	-1
566.579	1	11
566.749	1	-3
566.919	1	-12
567.089	1	-5
567.259	1	1
567.429	1	0
567.599	1	5
567.768	1	4
567.938	1	2
568.108	1	1
568.278	1	0
568.448	1	1
568.618	1	2
568.788	1	6
568.958	1	-3
569.128	1	5
569.297	1	-6
569.467	1	5
569.637	1	9
569.807	1	0
569.977	1	-8
570.147	1	-2
570.317	1	-3
570.487	1	0
570.656	1	7
570.826	1	2
570.996	1	15
571.166	1	-2
571.336	1	-7
571.506	1	-13
571.676	1	3
571.846	1	5
572.015	1	5
572.185	1	5
572.355	1	-7
572.525	1	-6
572.695	1	1
572.865	1	10
573.035	1	1
573.205	1	2
573.374	1	-12
573.544	1	-6
573.714	1	-3
573.884	1	-3
574.054	1	1
574.224	1	-5
574.394	1	-6
574.563	1	-4
574.733	1	0
574.903	1	-4
575.073	1	2
575.243	1	-9
575.413	1	7
575.583	1	-1
575.752	1	0
575.922	1	14
576.092	1	-11
576.262	1	-8
576.432	1	-7
576.602	1	4
576.772	1	-12
576.941	1	0
577.111	1	-6
577.281	1	6
577.451	1	6
577.621	1	-5
577.791	1	4
577.960	1	-4
578.130	1	-3
578.300	1	2
578.470	1	2
578.640	1	-4
578.810	1	-3
578.979	1	6
579.149	1	-3
579.319	1	6
579.489	1	6
579.659	1	2
579.829	1	-1
579.998	1	-10
580.168	1	-7
580.338	1	-2
580.508	1	-8
580.678	1	1
580.848	1	-2
581.017	1	0
581.187	1	1
581.357	1	0
581.527	1	3
581.697	1	-2
581.867	1	1
582.036	1	-3
582.206	1	-3
582.376	1	-9
582.546	1	-4
582.716	1	-4
582.885	1	0
583.055	1	-4
583.225	1	1
583.395	1	3
583.565	1	11
583.735	1	0
583.904	1	-5
584.074	1	-2
584.244	1	-6
584.414	1	-2
584.584	1	1
584.753	1	4
584.923	1	-7
585.093	1	8
585.263	1	5
585.433	1	2
585.602	1	-3
585.772	1	14
585.942	1	-6
586.112	1	4
586.282	1	9
586.451	1	12
586.621	1	-2
586.791	1	-3
586.961	1	-2
587.131	1	-8
587.300	1	18
587.470	1	-5
587.640	1	-7
587.810	1	-12
587.980	1	5
588.149	1	5
588.319	1	6
588.489	1	11
588.659	1	-5
588.829	1	-3
588.998	1	-4
589.168	1	-1
589.338	1	-4
589.508	1	1
589.677	1	5
589.847	1	6
590.017	1	5
590.187	1	-3
590.357	1	-6
590.526	1	2
590.696	1	10
590.866	1	2
591.036	1	3
591.205	1	0
591.375	1	-5
591.545	1	-7
591.715	1	-6
591.885	1	8
592.054	1	7
592.224	1	-4
592.394	1	-9
592.564	1	10
592.733	1	-5
592.903	1	1
593.073	1	3
593.243	1	9
593.412	1	-1
593.582	1	-1
593.752	1	-4
593.922	1	3
594.091	1	1
594.261	1	-8
594.431	1	-2
594.601	1	1
594.771	1	-2
594.940	1	4
595.110	1	-3
595.280	1	0
595.450	1	-2
595.619	1	4
595.789	1	-1
595.959	1	2
596.129	1	-2
596.298	1	2
596.468	1	-8
596.638	1	9
596.808	1	-10
596.977	1	4
597.147	1	-3
597.317	1	-7
597.487	1	-4
597.656	1	-7
597.826	1	7
597.996	1	-10
598.166	1	10
598.335	1	-4
598.505	1	6
598.675	1	0
598.844	1	21
599.014	1	-12
599.184	1	2
599.354	1	10
599.523	1	-5
599.693	1	0
599.863	1	9
600.033	1	-3
600.202	1	-7
600.372	1	-9
600.542	1	3
600.712	1	3
600.881	1	1
601.051	1	3
601.221	1	-3
601.390	1	5
601.560	1	0
601.730	1	-4
601.900	1	5
602.069	1	-2
602.239	1	4
602.409	1	4
602.578	1	4
602.748	1	5
602.918	1	12
603.088	1	7
603.257	1	-2
603.427	1	7
603.597	1	-4
603.767	1	-5
603.936	1	-2
604.106	1	-5
604.276	1	-6
604.445	1	-7
604.615	1	1
604.785	1	5
604.954	1	2
605.124	1	12
605.294	1	-5
605.464	1	-6
605.633	1	-6
605.803	1	-5
605.973	1	2
606.142	1	10
606.312	1	12
606.482	1	-9
606.652	1	4
606.821	1	-7
606.991	1	-1
607.161	1	10
607.330	1	1
607.500	1	-3
607.670	1	-1
607.839	1	3
608.009	1	-4
608.179	1	4
608.348	1	1
608.518	1	18
608.688	1	0
608.858	1	-1
609.027	1	10
609.197	1	5
609.367	1	-17
609.536	1	-12
609.706	1	7
609.876	1	4
610.045	1	5
610.215	1	3
610.385	1	0
610.554	1	1
610.724	1	0
610.894	1	-1
611.063	1	-3
611.233	1	5
611.403	1	7
611.572	1	5
611.742	1	-6
611.912	1	3
612.081	1	2
612.251	1	4
612.421	1	-5
612.590	1	2
612.760	1	4
612.930	1	13
613.099	1	-1
613.269	1	2
613.439	1	-13
613.608	1	3
613.778	1	-2
613.948	1	7
614.117	1	-7
614.287	1	-11
614.457	1	3
614.626	1	-8
614.796	1	5
614.966	1	-2
615.135	1	14
615.305	1	0
615.475	1	-1
615.644	1	14
615.814	1	8
615.984	1	-9
616.153	1	-4
616.323	1	2
616.493	1	8
616.662	1	-9
616.832	1	4
617.002	1	5
617.171	1	7
617.341	1	1
617.511	1	-14
617.680	1	-2
617.850	1	5
618.019	1	-11
618.189	1	8
618.359	1	9
618.528	1	-4
618.698	1	-7
618.868	1	6
619.037	1	4
619.207	1	-7
619.377	1	-3
619.546	1	-1
619.716	1	-4
619.885	1	-2
620.055	1	-1
620.225	1	2
620.394	1	7
620.564	1	1
620.734	1	3
620.903	1	-15
621.073	1	-2
621.242	1	-7
621.412	1	1
621.582	1	10
621.751	1	1
621.921	1	1
622.091	1	1
622.260	1	5
622.430	1	7
622.599	1	0
622.769	1	-3
622.939	1	-11
623.108	1	-2
623.278	1	-1
623.448	1	2
623.617	1	1
623.787	1	5
623.956	1	6
624.126	1	0
624.296	1	-1
624.465	1	2
624.635	1	-5
624.804	1	-7
624.974	1	-7
625.144	1	3
625.313	1	20
625.483	1	1
625.652	1	6
625.822	1	5
625.992	1	-3
626.161	1	1
626.331	1	-2
626.501	1	1
626.670	1	-5
626.840	1	2
627.009	1	2
627.179	1	-2
627.348	1	-7
627.518	1	5
627.688	1	5
627.857	1	0
628.027	1	0
628.196	1	1
628.366	1	-1
628.536	1	-4
628.705	1	0
628.875	1	-5
629.044	1	-8
629.214	1	0
629.384	1	17
629.553	1	3
629.723	1	-2
629.892	1	5
630.062	1	4
630.232	1	7
630.401	1	-3
630.571	1	3
630.740	1	0
630.910	1	7
631.079	1	0
631.249	1	-5
631.419	1	6
631.588	1	3
631.758	1	-3
631.927	1	5
632.097	1	-3
632.266	1	2
632.436	1	1
632.606	1	7
632.775	1	-7
632.945	1	3
633.114	1	-9
633.284	1	5
633.453	1	8
633.623	1	18
633.793	1	5
633.962	1	-1
634.132	1	4
634.301	1	5
634.471	1	-5
634.640	1	-3
634.810	1	7
634.979	1	3
635.149	1	-4
635.319	1	-1
635.488	1	-4
635.658	1	2
635.827	1	-4
635.997	1	5
636.166	1	4
636.336	1	1
636.505	1	7
636.675	1	-6
636.845	1	-8
637.014	1	-6
637.184	1	4
637.353	1	0
637.523	1	-4
637.692	1	0
637.862	1	-1
638.031	1	-7
638.201	1	8
638.370	1	4
638.540	1	-8
638.710	1	-6
638.879	1	-1
639.049	1	-2
639.218	1	-1
639.388	1	3
639.557	1	4
639.727	1	11
639.896	1	-5
640.066	1	6
640.235	1	5
640.405	1	2
640.574	1	6
640.744	1	-10
640.914	1	0
641.083	1	4
641.253	1	-6
641.422	1	1
641.592	1	6
641.761	1	-6
641.931	1	12
642.100	1	7
642.270	1	6
642.439	1	-3
642.609	1	3
642.778	1	1
642.948	1	7
643.117	1	13
643.287	1	11
643.456	1	-6
643.626	1	-1
643.795	1	-5
643.965	1	2
644.134	1	-1
644.304	1	-9
644.473	1	3
644.643	1	-1
644.812	1	-3
644.982	1	0
645.151	1	5
645.321	1	10
645.490	1	2
645.660	1	-3
645.829	1	-3
645.999	1	-3
646.168	1	15
646.338	1	-8
646.507	1	3
646.677	1	4
646.846	1	-4
647.016	1	3
647.185	1	4
647.355	1	3
647.524	1	-9
647.694	1	-9
647.863	1	-2
648.033	1	9
648.202	1	7
648.372	1	-8
648.541	1	-2
648.711	1	-1
648.880	1	5
649.050	1	-4
649.219	1	10
649.389	1	-13
649.558	1	5
649.728	1	3
649.897	1	11
650.067	1	-1
650.236	1	-6
650.406	1	2
650.575	1	2
650.745	1	-3
650.914	1	0
651.084	1	4
651.253	1	-2
651.423	1	-1
651.592	1	1
651.762	1	3
651.931	1	9
652.101	1	-1
652.270	1	4
652.440	1	2
652.609	1	8
652.778	1	3
652.948	1	0
653.117	1	-2
653.287	1	-9
653.456	1	-5
653.626	1	0
653.795	1	-2
653.965	1	-2
654.134	1	1
654.304	1	1
654.473	1	5
654.643	1	-10
654.812	1	0
654.982	1	-5
655.151	1	6
655.320	1	-1
655.490	1	-8
655.659	1	9
655.829	1	1
655.998	1	4
656.168	1	-3
656.337	1	6
656.507	1	1
656.676	1	-2
656.846	1	-1
657.015	1	9
657.184	1	0
657.354	1	3
657.523	1	1
657.693	1	13
657.862	1	-6
658.032	1	-6
658.201	1	1
658.371	1	7
658.540	1	-14
658.709	1	6
658.879	1	7
659.048	1	9
659.218	1	0
659.387	1	4
659.557	1	-13
659.726	1	-3
659.895	1	-1
660.065	1	4
660.234	1	0
660.404	1	7
660.573	1	-2
660.743	1	0
660.912	1	8
661.081	1	-13
661.251	1	-5
661.420	1	3
661.590	1	-5
661.759	1	-2
661.929	1	-4
662.098	1	8
662.267	1	1
662.437	1	15
662.606	1	-2
662.776	1	2
662.945	1	14
663.115	1	8
663.284	1	7
663.453	1	-3
663.623	1	-12
663.792	1	6
663.962	1	1
664.131	1	-1
664.300	1	3
664.470	1	-11
664.639	1	5
664.809	1	-2
664.978	1	15
665.148	1	0
665.317	1	4
665.486	1	7
665.656	1	-3
665.825	1	5
665.995	1	-13
666.164	1	-4
666.333	1	-1
666.503	1	-5
666.672	1	-2
666.842	1	-3
667.011	1	1
667.180	1	-2
667.350	1	5
667.519	1	5
667.689	1	-3
667.858	1	3
668.027	1	-10
668.197	1	-10
668.366	1	1
668.536	1	-1
668.705	1	-6
668.874	1	8
669.044	1	6
669.213	1	9
669.382	1	7
669.552	1	0
669.721	1	1
669.891	1	-4
670.060	1	-6
670.229	1	0
670.399	1	9
670.568	1	5
670.738	1	-1
670.907	1	0
671.076	1	7
671.246	1	1
671.415	1	9
671.584	1	12
671.754	1	-14
671.923	1	1
672.093	1	4
672.262	1	-5
672.431	1	0
672.601	1	7
672.770	1	0
672.939	1	10
673.109	1	-8
673.278	1	4
673.448	1	3
673.617	1	5
673.786	1	-6
