325.333	1	11
325.504	1	-7
325.675	1	12
325.846	1	12
326.017	1	9
326.188	1	1
326.359	1	11
326.531	1	-6
326.702	1	3
326.873	1	12
327.044	1	14
327.215	1	-2
327.386	1	2
327.557	1	2
327.728	1	6
327.899	1	-3
328.070	1	9
328.241	1	12
328.412	1	9
328.583	1	3
328.754	1	14
328.926	1	18
329.097	1	6
329.268	1	13
329.439	1	8
329.610	1	9
329.781	1	12
329.952	1	7
330.123	1	15
330.294	1	7
330.465	1	-4
330.636	1	6
330.807	1	10
330.978	1	4
331.149	1	9
331.320	1	8
331.492	1	1
331.663	1	6
331.834	1	13
332.005	1	3
332.176	1	7
332.347	1	3
332.518	1	14
332.689	1	4
332.860	1	4
333.031	1	16
333.202	1	7
333.373	1	6
333.544	1	6
333.715	1	4
333.886	1	-1
334.057	1	-3
334.228	1	12
334.399	1	10
334.570	1	7
334.741	1	4
334.912	1	10
335.084	1	20
335.255	1	15
335.426	1	16
335.597	1	6
335.768	1	8
335.939	1	10
336.110	1	6
336.281	1	11
336.452	1	17
336.623	1	8
336.794	1	6
336.965	1	4
337.136	1	20
337.307	1	2
337.478	1	7
337.649	1	4
337.820	1	17
337.991	1	11
338.162	1	9
338.333	1	3
338.504	1	20
338.675	1	3
338.846	1	0
339.017	1	10
339.188	1	6
339.359	1	15
339.530	1	9
339.701	1	21
339.872	1	16
340.043	1	4
340.214	1	16
340.385	1	12
340.556	1	15
340.727	1	18
340.898	1	9
341.069	1	5
341.240	1	3
341.411	1	12
341.582	1	6
341.753	1	9
341.924	1	18
342.095	1	8
342.266	1	13
342.437	1	4
342.608	1	7
342.779	1	8
342.950	1	-2
343.121	1	23
343.292	1	17
343.463	1	25
343.634	1	12
343.805	1	19
343.976	1	22
344.147	1	14
344.318	1	6
344.489	1	9
344.660	1	19
344.831	1	21
345.002	1	13
345.173	1	21
345.344	1	6
345.515	1	10
345.686	1	7
345.857	1	12
346.028	1	11
346.199	1	14
346.370	1	22
346.541	1	4
346.712	1	19
346.883	1	5
347.054	1	22
347.225	1	10
347.396	1	12
347.567	1	8
347.738	1	11
347.909	1	13
348.080	1	17
348.251	1	10
348.422	1	12
348.593	1	14
348.764	1	10
348.935	1	12
349.106	1	8
349.277	1	9
349.448	1	12
349.619	1	20
349.790	1	21
349.961	1	0
350.132	1	17
350.303	1	23
350.474	1	10
350.645	1	12
350.816	1	24
350.987	1	25
351.157	1	14
351.328	1	20
351.499	1	19
351.670	1	15
351.841	1	20
352.012	1	15
352.183	1	21
352.354	1	13
352.525	1	20
352.696	1	13
352.867	1	18
353.038	1	15
353.209	1	18
353.380	1	21
353.551	1	19
353.722	1	15
353.893	1	17
354.064	1	19
354.235	1	10
354.406	1	2
354.576	1	13
354.747	1	17
354.918	1	11
355.089	1	25
355.260	1	12
355.431	1	12
355.602	1	15
355.773	1	17
355.944	1	17
356.115	1	14
356.286	1	20
356.457	1	12
356.628	1	13
356.799	1	15
356.970	1	22
357.141	1	17
357.311	1	23
357.482	1	5
357.653	1	7
357.824	1	16
357.995	1	20
358.166	1	12
358.337	1	14
358.508	1	25
358.679	1	16
358.850	1	24
359.021	1	22
359.192	1	19
359.363	1	19
359.533	1	8
359.704	1	17
359.875	1	16
360.046	1	18
360.217	1	24
360.388	1	18
360.559	1	27
360.730	1	13
360.901	1	13
361.072	1	14
361.243	1	13
361.414	1	34
361.584	1	7
361.755	1	12
361.926	1	23
362.097	1	23
362.268	1	25
362.439	1	19
362.610	1	23
362.781	1	6
362.952	1	37
363.123	1	6
363.293	1	16
363.464	1	15
363.635	1	33
363.806	1	15
363.977	1	15
364.148	1	25
364.319	1	7
364.490	1	21
364.661	1	22
364.832	1	19
365.002	1	14
365.173	1	25
365.344	1	8
365.515	1	24
365.686	1	17
365.857	1	27
366.028	1	21
366.199	1	26
366.370	1	25
366.540	1	18
366.711	1	23
366.882	1	36
367.053	1	23
367.224	1	16
367.395	1	27
367.566	1	22
367.737	1	11
367.908	1	22
368.078	1	14
368.249	1	26
368.420	1	15
368.591	1	22
368.762	1	20
368.933	1	16
369.104	1	29
369.274	1	23
369.445	1	20
369.616	1	17
369.787	1	24
369.958	1	27
370.129	1	12
370.300	1	14
370.471	1	20
370.641	1	26
370.812	1	22
370.983	1	15
371.154	1	17
371.325	1	17
371.496	1	26
371.667	1	27
371.837	1	26
372.008	1	24
372.179	1	19
372.350	1	25
372.521	1	37
372.692	1	32
372.863	1	14
373.033	1	28
373.204	1	23
373.375	1	25
373.546	1	22
373.717	1	26
373.888	1	24
374.059	1	21
374.229	1	30
374.400	1	20
374.571	1	14
374.742	1	26
374.913	1	10
375.084	1	29
375.254	1	24
375.425	1	15
375.596	1	30
375.767	1	39
375.938	1	18
376.109	1	17
376.279	1	28
376.450	1	21
376.621	1	22
376.792	1	32
376.963	1	17
377.134	1	27
377.304	1	24
377.475	1	13
377.646	1	21
377.817	1	11
377.988	1	21
378.159	1	34
378.329	1	30
378.500	1	28
378.671	1	33
378.842	1	28
379.013	1	23
379.184	1	31
379.354	1	34
379.525	1	23
379.696	1	31
379.867	1	36
380.038	1	17
380.209	1	39
380.379	1	34
380.550	1	16
380.721	1	17
380.892	1	23
381.063	1	45
381.233	1	24
381.404	1	22
381.575	1	34
381.746	1	38
381.917	1	29
382.087	1	26
382.258	1	37
382.429	1	20
382.600	1	14
382.771	1	26
382.941	1	23
383.112	1	23
383.283	1	31
383.454	1	24
383.625	1	30
383.795	1	32
383.966	1	31
384.137	1	37
384.308	1	19
384.479	1	25
384.649	1	12
384.820	1	26
384.991	1	28
385.162	1	30
385.333	1	26
385.503	1	32
385.674	1	29
385.845	1	32
386.016	1	34
386.187	1	16
386.357	1	31
386.528	1	20
386.699	1	32
386.870	1	38
387.041	1	43
387.211	1	26
387.382	1	45
387.553	1	28
387.724	1	28
387.894	1	18
388.065	1	41
388.236	1	30
388.407	1	36
388.578	1	30
388.748	1	37
388.919	1	30
389.090	1	41
389.261	1	33
389.431	1	21
389.602	1	27
389.773	1	28
389.944	1	28
390.114	1	39
390.285	1	28
390.456	1	31
390.627	1	34
390.798	1	33
390.968	1	38
391.139	1	47
391.310	1	32
391.481	1	25
391.651	1	36
391.822	1	33
391.993	1	24
392.164	1	34
392.334	1	22
392.505	1	41
392.676	1	23
392.847	1	37
393.017	1	32
393.188	1	38
393.359	1	53
393.530	1	51
393.700	1	23
393.871	1	46
394.042	1	18
394.213	1	31
394.383	1	43
394.554	1	32
394.725	1	22
394.896	1	41
395.066	1	31
395.237	1	37
395.408	1	27
395.579	1	36
395.749	1	39
395.920	1	41
396.091	1	29
396.262	1	16
396.432	1	24
396.603	1	34
396.774	1	29
396.945	1	33
397.115	1	36
397.286	1	40
397.457	1	44
397.627	1	36
397.798	1	27
397.969	1	28
398.140	1	32
398.310	1	40
398.481	1	41
398.652	1	37
398.823	1	40
398.993	1	32
399.164	1	40
399.335	1	33
399.505	1	35
399.676	1	31
399.847	1	25
400.018	1	32
400.188	1	34
400.359	1	47
400.530	1	30
400.700	1	48
400.871	1	45
401.042	1	23
401.213	1	38
401.383	1	36
401.554	1	40
401.725	1	29
401.895	1	23
402.066	1	40
402.237	1	39
402.408	1	46
402.578	1	31
402.749	1	26
402.920	1	39
403.090	1	24
403.261	1	32
403.432	1	36
403.603	1	43
403.773	1	54
403.944	1	36
404.115	1	37
404.285	1	42
404.456	1	46
404.627	1	36
404.797	1	26
404.968	1	35
405.139	1	34
405.310	1	34
405.480	1	33
405.651	1	42
405.822	1	34
405.992	1	36
406.163	1	36
406.334	1	34
406.504	1	30
406.675	1	29
406.846	1	36
407.016	1	45
407.187	1	35
407.358	1	35
407.528	1	48
407.699	1	25
407.870	1	48
408.041	1	32
408.211	1	41
408.382	1	39
408.553	1	36
408.723	1	36
408.894	1	34
409.065	1	50
409.235	1	44
409.406	1	31
409.577	1	41
409.747	1	33
409.918	1	42
410.089	1	50
410.259	1	39
410.430	1	40
410.601	1	40
410.771	1	41
410.942	1	36
411.113	1	42
411.283	1	37
411.454	1	47
411.625	1	45
411.795	1	32
411.966	1	42
412.137	1	50
412.307	1	49
412.478	1	36
412.649	1	39
412.819	1	43
412.990	1	46
413.161	1	38
413.331	1	45
413.502	1	36
413.672	1	35
413.843	1	29
414.014	1	38
414.184	1	48
414.355	1	45
414.526	1	39
414.696	1	31
414.867	1	24
415.038	1	25
415.208	1	38
415.379	1	32
415.550	1	40
415.720	1	33
415.891	1	45
416.062	1	40
416.232	1	45
416.403	1	46
416.573	1	34
416.744	1	41
416.915	1	38
417.085	1	42
417.256	1	32
417.427	1	37
417.597	1	23
417.768	1	36
417.939	1	31
418.109	1	39
418.280	1	31
418.450	1	41
418.621	1	42
418.792	1	36
418.962	1	43
419.133	1	29
419.304	1	30
419.474	1	45
419.645	1	42
419.815	1	42
419.986	1	55
420.157	1	42
420.327	1	30
420.498	1	27
420.669	1	39
420.839	1	35
421.010	1	32
421.180	1	27
421.351	1	34
421.522	1	37
421.692	1	44
421.863	1	26
422.033	1	32
422.204	1	38
422.375	1	37
422.545	1	48
422.716	1	28
422.886	1	38
423.057	1	35
423.228	1	31
423.398	1	42
423.569	1	38
423.740	1	40
423.910	1	46
424.081	1	37
424.251	1	42
424.422	1	33
424.593	1	41
424.763	1	32
424.934	1	42
425.104	1	53
425.275	1	29
425.445	1	36
425.616	1	37
425.787	1	26
425.957	1	35
426.128	1	32
426.298	1	50
426.469	1	30
426.640	1	31
426.810	1	20
426.981	1	51
427.151	1	37
427.322	1	32
427.493	1	34
427.663	1	39
427.834	1	31
428.004	1	32
428.175	1	31
428.345	1	26
428.516	1	38
428.687	1	41
428.857	1	53
429.028	1	30
429.198	1	25
429.369	1	30
429.540	1	40
429.710	1	38
429.881	1	34
430.051	1	32
430.222	1	36
430.392	1	37
430.563	1	27
430.734	1	37
430.904	1	44
431.075	1	35
431.245	1	32
431.416	1	46
431.586	1	26
431.757	1	35
431.927	1	35
432.098	1	42
432.269	1	35
432.439	1	32
432.610	1	47
432.780	1	33
432.951	1	22
433.121	1	32
433.292	1	33
433.462	1	35
433.633	1	35
433.804	1	38
433.974	1	25
434.145	1	28
434.315	1	28
434.486	1	26
434.656	1	46
434.827	1	42
434.997	1	33
435.168	1	34
435.339	1	46
435.509	1	32
435.680	1	39
435.850	1	28
436.021	1	23
436.191	1	23
436.362	1	32
436.532	1	38
436.703	1	38
436.873	1	29
437.044	1	36
437.214	1	29
437.385	1	28
437.556	1	30
437.726	1	36
437.897	1	32
438.067	1	37
438.238	1	33
438.408	1	35
438.579	1	24
438.749	1	32
438.920	1	40
439.090	1	20
439.261	1	29
439.431	1	18
439.602	1	39
439.772	1	35
439.943	1	26
440.113	1	30
440.284	1	30
440.455	1	31
440.625	1	34
440.796	1	21
440.966	1	32
441.137	1	37
441.307	1	30
441.478	1	21
441.648	1	26
441.819	1	34
441.989	1	38
442.160	1	30
442.330	1	34
442.501	1	35
442.671	1	35
442.842	1	28
443.012	1	32
443.183	1	32
443.353	1	37
443.524	1	42
443.694	1	28
443.865	1	38
444.035	1	29
444.206	1	28
444.376	1	28
444.547	1	27
444.717	1	36
444.888	1	24
445.058	1	27
445.229	1	20
445.399	1	34
445.570	1	24
445.740	1	21
445.911	1	29
446.081	1	38
446.252	1	17
446.422	1	33
446.593	1	23
446.763	1	28
446.934	1	24
447.104	1	25
447.275	1	32
447.445	1	35
447.616	1	33
447.786	1	28
447.957	1	16
448.127	1	26
448.298	1	34
448.468	1	18
448.639	1	28
448.809	1	30
448.979	1	27
449.150	1	18
449.320	1	30
449.491	1	15
449.661	1	20
449.832	1	21
450.002	1	20
450.173	1	38
450.343	1	30
450.514	1	23
450.684	1	28
450.855	1	41
451.025	1	19
451.196	1	19
451.366	1	39
451.537	1	39
451.707	1	35
451.878	1	25
452.048	1	25
452.218	1	26
452.389	1	34
452.559	1	51
452.730	1	34
452.900	1	28
453.071	1	31
453.241	1	27
453.412	1	26
453.582	1	36
453.753	1	30
453.923	1	16
454.093	1	30
454.264	1	35
454.434	1	23
454.605	1	18
454.775	1	38
454.946	1	16
455.116	1	20
455.287	1	20
455.457	1	26
455.628	1	13
455.798	1	33
455.968	1	33
456.139	1	21
456.309	1	29
456.480	1	27
456.650	1	21
456.821	1	20
456.991	1	28
457.161	1	25
457.332	1	32
457.502	1	20
457.673	1	22
457.843	1	25
458.014	1	16
458.184	1	30
458.355	1	32
458.525	1	15
458.695	1	25
458.866	1	14
459.036	1	15
459.207	1	26
459.377	1	21
459.548	1	16
459.718	1	34
459.888	1	6
460.059	1	18
460.229	1	17
460.400	1	28
460.570	1	15
460.740	1	22
460.911	1	23
461.081	1	12
461.252	1	23
461.422	1	25
461.593	1	28
461.763	1	20
461.933	1	26
462.104	1	31
462.274	1	18
462.445	1	24
462.615	1	27
462.785	1	27
462.956	1	21
463.126	1	19
463.297	1	36
463.467	1	36
463.638	1	30
463.808	1	25
463.978	1	13
464.149	1	30
464.319	1	31
464.490	1	12
464.660	1	21
464.830	1	22
465.001	1	19
465.171	1	26
465.342	1	19
465.512	1	25
465.682	1	19
465.853	1	11
466.023	1	24
466.194	1	20
466.364	1	25
466.534	1	15
466.705	1	30
466.875	1	8
467.045	1	10
467.216	1	16
467.386	1	10
467.557	1	26
467.727	1	13
467.897	1	15
468.068	1	22
468.238	1	21
468.409	1	21
468.579	1	24
468.749	1	14
468.920	1	13
469.090	1	19
469.260	1	17
469.431	1	13
469.601	1	19
469.772	1	25
469.942	1	21
470.112	1	9
470.283	1	20
470.453	1	29
470.623	1	24
470.794	1	17
470.964	1	14
471.135	1	19
471.305	1	17
471.475	1	21
471.646	1	19
471.816	1	17
471.986	1	14
472.157	1	14
472.327	1	15
472.497	1	13
472.668	1	26
472.838	1	13
473.009	1	22
473.179	1	9
473.349	1	13
473.520	1	25
473.690	1	12
473.860	1	10
474.031	1	4
474.201	1	25
474.371	1	22
474.542	1	6
474.712	1	20
474.882	1	18
475.053	1	16
475.223	1	23
475.394	1	10
475.564	1	23
475.734	1	23
475.905	1	14
476.075	1	29
476.245	1	10
476.416	1	3
476.586	1	8
476.756	1	20
476.927	1	22
477.097	1	8
477.267	1	13
477.438	1	31
477.608	1	26
477.778	1	9
477.949	1	6
478.119	1	27
478.289	1	3
478.460	1	13
478.630	1	11
478.800	1	12
478.971	1	13
479.141	1	20
479.311	1	18
479.482	1	15
479.652	1	17
479.822	1	15
479.993	1	14
480.163	1	25
480.333	1	14
480.504	1	20
480.674	1	19
480.844	1	24
481.015	1	22
481.185	1	22
481.355	1	20
481.525	1	5
481.696	1	11
481.866	1	23
482.036	1	20
482.207	1	15
482.377	1	13
482.547	1	14
482.718	1	10
482.888	1	25
483.058	1	22
483.229	1	12
483.399	1	13
483.569	1	14
483.740	1	16
483.910	1	15
484.080	1	16
484.250	1	14
484.421	1	7
484.591	1	4
484.761	1	9
484.932	1	9
485.102	1	24
485.272	1	8
485.443	1	20
485.613	1	11
485.783	1	11
485.953	1	13
486.124	1	13
486.294	1	11
486.464	1	15
486.635	1	8
486.805	1	4
486.975	1	4
487.146	1	20
487.316	1	21
487.486	1	17
487.656	1	12
487.827	1	3
487.997	1	6
488.167	1	10
488.338	1	5
488.508	1	27
488.678	1	4
488.848	1	14
489.019	1	3
489.189	1	26
489.359	1	13
489.529	1	15
489.700	1	17
489.870	1	28
490.040	1	6
490.211	1	13
490.381	1	7
490.551	1	12
490.721	1	16
490.892	1	6
491.062	1	13
491.232	1	15
491.402	1	12
491.573	1	22
491.743	1	9
491.913	1	10
492.084	1	16
492.254	1	10
492.424	1	10
492.594	1	4
492.765	1	14
492.935	1	17
493.105	1	5
493.275	1	12
493.446	1	6
493.616	1	3
493.786	1	13
493.956	1	12
494.127	1	-6
494.297	1	6
494.467	1	7
494.637	1	7
494.808	1	16
494.978	1	17
495.148	1	4
495.318	1	16
495.489	1	2
495.659	1	10
495.829	1	6
495.999	1	15
496.170	1	7
496.340	1	2
496.510	1	9
496.680	1	7
496.851	1	14
497.021	1	11
497.191	1	9
497.361	1	0
497.532	1	9
497.702	1	15
497.872	1	11
498.042	1	9
498.213	1	7
498.383	1	13
498.553	1	13
498.723	1	11
498.894	1	5
499.064	1	15
499.234	1	20
499.404	1	16
499.574	1	12
499.745	1	4
499.915	1	14
500.085	1	17
500.255	1	1
500.426	1	2
500.596	1	-2
500.766	1	2
500.936	1	11
501.106	1	2
501.277	1	2
501.447	1	10
501.617	1	-3
501.787	1	11
501.958	1	9
502.128	1	10
502.298	1	12
502.468	1	9
502.638	1	17
502.809	1	6
502.979	1	17
503.149	1	14
503.319	1	16
503.489	1	-13
503.660	1	5
503.830	1	8
504.000	1	9
504.170	1	5
504.340	1	-3
504.511	1	12
504.681	1	8
504.851	1	-1
505.021	1	16
505.192	1	5
505.362	1	18
505.532	1	2
505.702	1	24
505.872	1	6
506.043	1	7
506.213	1	11
506.383	1	13
506.553	1	7
506.723	1	0
506.893	1	16
507.064	1	28
507.234	1	14
507.404	1	5
507.574	1	6
507.744	1	10
507.915	1	6
508.085	1	6
508.255	1	3
508.425	1	10
508.595	1	7
508.766	1	3
508.936	1	20
509.106	1	8
509.276	1	10
509.446	1	3
509.616	1	2
509.787	1	2
509.957	1	6
510.127	1	-2
510.297	1	4
510.467	1	14
510.638	1	5
510.808	1	24
510.978	1	-1
511.148	1	1
511.318	1	10
511.488	1	13
511.659	1	5
511.829	1	7
511.999	1	11
512.169	1	3
512.339	1	4
512.509	1	8
512.680	1	7
512.850	1	14
513.020	1	5
513.190	1	3
513.360	1	15
513.530	1	9
513.700	1	10
513.871	1	8
514.041	1	3
514.211	1	7
514.381	1	11
514.551	1	3
514.721	1	9
514.892	1	6
515.062	1	7
515.232	1	5
515.402	1	2
515.572	1	10
515.742	1	12
515.912	1	8
516.083	1	13
516.253	1	10
516.423	1	8
516.593	1	12
516.763	1	10
516.933	1	7
517.104	1	8
517.274	1	-4
517.444	1	11
517.614	1	0
517.784	1	7
517.954	1	-4
518.124	1	11
518.294	1	7
518.465	1	17
518.635	1	16
518.805	1	0
518.975	1	12
519.145	1	7
519.315	1	5
519.485	1	1
519.656	1	5
519.826	1	-9
519.996	1	6
520.166	1	3
520.336	1	14
520.506	1	12
520.676	1	15
520.846	1	1
521.017	1	-1
521.187	1	9
521.357	1	3
521.527	1	6
521.697	1	-2
521.867	1	6
522.037	1	8
522.207	1	16
522.377	1	12
522.548	1	-1
522.718	1	4
522.888	1	5
523.058	1	14
523.228	1	-3
523.398	1	3
523.568	1	-1
523.738	1	10
523.909	1	3
524.079	1	1
524.249	1	3
524.419	1	11
524.589	1	6
524.759	1	17
524.929	1	7
525.099	1	-4
525.269	1	9
525.439	1	1
525.610	1	17
525.780	1	8
525.950	1	7
526.120	1	6
526.290	1	1
526.460	1	-4
526.630	1	5
526.800	1	-2
526.970	1	15
527.140	1	12
527.311	1	4
527.481	1	6
527.651	1	11
527.821	1	-4
527.991	1	-2
528.161	1	3
528.331	1	-9
528.501	1	11
528.671	1	10
528.841	1	11
529.011	1	5
529.181	1	15
529.352	1	2
529.522	1	1
529.692	1	7
529.862	1	0
530.032	1	-4
530.202	1	-6
530.372	1	8
530.542	1	-2
530.712	1	7
530.882	1	1
531.052	1	16
531.222	1	5
531.392	1	7
531.563	1	9
531.733	1	-2
531.903	1	3
532.073	1	9
532.243	1	21
532.413	1	19
532.583	1	3
532.753	1	-1
532.923	1	15
533.093	1	-4
533.263	1	9
533.433	1	-5
533.603	1	1
533.773	1	8
533.943	1	3
534.113	1	2
534.284	1	9
534.454	1	5
534.624	1	5
534.794	1	12
534.964	1	1
535.134	1	-1
535.304	1	6
535.474	1	6
535.644	1	12
535.814	1	2
535.984	1	1
536.154	1	2
536.324	1	-4
536.494	1	17
536.664	1	2
536.834	1	-3
537.004	1	7
537.174	1	5
537.344	1	8
537.514	1	-11
537.685	1	21
537.855	1	1
538.025	1	20
538.195	1	-1
538.365	1	2
538.535	1	2
538.705	1	3
538.875	1	12
539.045	1	12
539.215	1	-12
539.385	1	7
539.555	1	-3
539.725	1	0
539.895	1	3
540.065	1	8
540.235	1	-2
540.405	1	6
540.575	1	0
540.745	1	14
540.915	1	8
541.085	1	-3
541.255	1	4
541.425	1	4
541.595	1	2
541.765	1	11
541.935	1	-2
542.105	1	-2
542.275	1	-1
542.445	1	5
542.615	1	6
542.785	1	6
542.955	1	7
543.125	1	5
543.295	1	7
543.465	1	12
543.635	1	-6
543.805	1	15
543.975	1	0
544.145	1	8
544.315	1	-5
544.485	1	0
544.655	1	5
544.825	1	7
544.995	1	-3
545.165	1	0
545.335	1	3
545.505	1	2
545.675	1	9
545.845	1	3
546.015	1	-1
546.185	1	-2
546.355	1	3
546.525	1	11
546.695	1	5
546.865	1	5
547.035	1	3
547.205	1	10
547.375	1	15
547.545	1	7
547.715	1	3
547.885	1	1
548.055	1	1
548.225	1	4
548.395	1	5
548.565	1	13
548.735	1	-6
548.905	1	6
549.075	1	3
549.245	1	7
549.415	1	2
549.585	1	-4
549.755	1	7
549.925	1	3
550.095	1	-4
550.265	1	5
550.435	1	8
550.605	1	12
550.775	1	-5
550.945	1	-2
551.115	1	8
551.285	1	3
551.455	1	7
551.625	1	-2
551.795	1	1
551.965	1	2
552.135	1	5
552.305	1	4
552.475	1	3
552.645	1	-8
552.815	1	-2
552.985	1	-3
553.155	1	-4
553.325	1	3
553.495	1	3
553.665	1	8
553.835	1	9
554.004	1	11
554.174	1	2
554.344	1	3
554.514	1	-6
554.684	1	2
554.854	1	-5
555.024	1	5
555.194	1	5
555.364	1	4
555.534	1	-9
555.704	1	7
555.874	1	4
556.044	1	1
556.214	1	-4
556.384	1	8
556.554	1	8
556.724	1	-1
556.894	1	3
557.064	1	2
557.234	1	0
557.404	1	6
557.573	1	2
557.743	1	-2
557.913	1	-3
558.083	1	4
558.253	1	0
558.423	1	7
558.593	1	3
558.763	1	2
558.933	1	1
559.103	1	3
559.273	1	13
559.443	1	4
559.613	1	1
559.783	1	-5
559.953	1	-7
560.122	1	9
560.292	1	-6
560.462	1	2
560.632	1	-1
560.802	1	5
560.972	1	-10
561.142	1	6
561.312	1	3
561.482	1	12
561.652	1	-3
561.822	1	-1
561.992	1	-2
562.162	1	-2
562.331	1	-1
562.501	1	7
562.671	1	6
562.841	1	-14
563.011	1	-2
563.181	1	-5
563.351	1	-5
563.521	1	-10
563.691	1	-1
563.861	1	6
564.031	1	-5
564.201	1	5
564.370	1	13
564.540	1	4
564.710	1	1
564.880	1	8
565.050	1	6
565.220	1	14
565.390	1	11
565.560	1	8
565.730	1	7
565.900	1	4
566.069	1	7
566.239	1	8
566.409	1	4
566.579	1	2
566.749	1	4
566.919	1	-7
567.089	1	-8
567.259	1	7
567.429	1	0
567.599	1	13
567.768	1	-6
567.938	1	0
568.108	1	3
568.278	1	1
568.448	1	8
568.618	1	2
568.788	1	11
568.958	1	6
569.128	1	-1
569.297	1	0
569.467	1	14
569.637	1	1
569.807	1	1
569.977	1	-6
570.147	1	2
570.317	1	1
570.487	1	3
570.656	1	12
570.826	1	-7
570.996	1	4
571.166	1	7
571.336	1	7
571.506	1	0
571.676	1	1
571.846	1	7
572.015	1	-3
572.185	1	2
572.355	1	-7
572.525	1	-4
572.695	1	4
572.865	1	3
573.035	1	15
573.205	1	1
573.374	1	1
573.544	1	3
573.714	1	2
573.884	1	-10
574.054	1	2
574.224	1	4
574.394	1	4
574.563	1	-7
574.733	1	4
574.903	1	2
575.073	1	7
575.243	1	1
575.413	1	0
575.583	1	3
575.752	1	-6
575.922	1	10
576.092	1	-10
576.262	1	4
576.432	1	-6
576.602	1	-1
576.772	1	-8
576.941	1	0
577.111	1	0
577.281	1	-2
577.451	1	6
577.621	1	14
577.791	1	8
577.960	1	0
578.130	1	5
578.300	1	-7
578.470	1	-5
578.640	1	-4
578.810	1	5
578.979	1	10
579.149	1	1
579.319	1	6
579.489	1	11
579.659	1	-2
579.829	1	-9
579.998	1	-7
580.168	1	2
580.338	1	7
580.508	1	4
580.678	1	2
580.848	1	-6
581.017	1	-1
581.187	1	11
581.357	1	14
581.527	1	1
581.697	1	7
581.867	1	-1
582.036	1	-8
582.206	1	3
582.376	1	4
582.546	1	-4
582.716	1	2
582.885	1	-3
583.055	1	-9
583.225	1	4
583.395	1	-3
583.565	1	15
583.735	1	5
583.904	1	2
584.074	1	3
584.244	1	1
584.414	1	3
584.584	1	5
584.753	1	-2
584.923	1	-1
585.093	1	2
585.263	1	5
585.433	1	-8
585.602	1	0
585.772	1	12
585.942	1	-8
586.112	1	0
586.282	1	10
586.451	1	13
586.621	1	-3
586.791	1	2
586.961	1	-4
587.131	1	-3
587.300	1	16
587.470	1	2
587.640	1	3
587.810	1	-8
587.980	1	7
588.149	1	11
588.319	1	6
588.489	1	0
588.659	1	-1
588.829	1	-5
588.998	1	-3
589.168	1	-6
589.338	1	-1
589.508	1	5
589.677	1	5
589.847	1	5
590.017	1	-4
590.187	1	-1
590.357	1	-6
590.526	1	-3
590.696	1	8
590.866	1	-2
591.036	1	9
591.205	1	7
591.375	1	4
591.545	1	-5
591.715	1	0
591.885	1	7
592.054	1	0
592.224	1	-5
592.394	1	4
592.564	1	6
592.733	1	-3
592.903	1	6
593.073	1	-3
593.243	1	11
593.412	1	-14
593.582	1	3
593.752	1	-10
593.922	1	7
594.091	1	2
594.261	1	-3
594.431	1	1
594.601	1	-1
594.771	1	8
594.940	1	-1
595.110	1	9
595.280	1	1
595.450	1	6
595.619	1	0
595.789	1	3
595.959	1	-5
596.129	1	2
596.298	1	11
596.468	1	-6
596.638	1	2
596.808	1	-12
596.977	1	-5
597.147	1	0
597.317	1	11
597.487	1	7
597.656	1	4
597.826	1	6
597.996	1	2
598.166	1	10
598.335	1	-6
598.505	1	5
598.675	1	5
598.844	1	17
599.014	1	-15
599.184	1	6
599.354	1	4
599.523	1	-4
599.693	1	1
599.863	1	17
600.033	1	5
600.202	1	6
600.372	1	-6
600.542	1	5
600.712	1	1
600.881	1	4
601.051	1	2
601.221	1	1
601.390	1	7
601.560	1	13
601.730	1	2
601.900	1	5
602.069	1	-4
602.239	1	6
602.409	1	2
602.578	1	4
602.748	1	8
602.918	1	-6
603.088	1	10
603.257	1	1
603.427	1	8
603.597	1	1
603.767	1	7
603.936	1	10
604.106	1	-6
604.276	1	9
604.445	1	-1
604.615	1	12
604.785	1	6
604.954	1	3
605.124	1	3
605.294	1	0
605.464	1	-7
605.633	1	14
605.803	1	4
605.973	1	-1
606.142	1	3
606.312	1	17
606.482	1	-8
606.652	1	-2
606.821	1	7
606.991	1	4
607.161	1	5
607.330	1	-8
607.500	1	5
607.670	1	1
607.839	1	-9
608.009	1	-5
608.179	1	13
608.348	1	9
608.518	1	10
608.688	1	6
608.858	1	-3
609.027	1	13
609.197	1	9
609.367	1	-5
609.536	1	1
609.706	1	5
609.876	1	7
610.045	1	1
610.215	1	4
610.385	1	-2
610.554	1	-8
610.724	1	-1
610.894	1	6
611.063	1	4
611.233	1	17
611.403	1	10
611.572	1	9
611.742	1	-1
611.912	1	1
612.081	1	15
612.251	1	6
612.421	1	0
612.590	1	6
612.760	1	3
612.930	1	7
613.099	1	7
613.269	1	-5
613.439	1	-12
613.608	1	-6
613.778	1	0
613.948	1	16
614.117	1	4
614.287	1	2
614.457	1	0
614.626	1	-9
614.796	1	14
614.966	1	7
615.135	1	6
615.305	1	8
615.475	1	16
615.644	1	13
615.814	1	20
615.984	1	-3
616.153	1	-2
616.323	1	4
616.493	1	-3
616.662	1	0
616.832	1	1
617.002	1	3
617.171	1	1
617.341	1	11
617.511	1	-4
617.680	1	2
617.850	1	12
618.019	1	-1
618.189	1	8
618.359	1	2
618.528	1	1
618.698	1	1
618.868	1	-1
619.037	1	6
619.207	1	-2
619.377	1	4
619.546	1	8
619.716	1	4
619.885	1	4
620.055	1	-6
620.225	1	9
620.394	1	11
620.564	1	6
620.734	1	-4
620.903	1	-8
621.073	1	8
621.242	1	4
621.412	1	-4
621.582	1	7
621.751	1	1
621.921	1	4
622.091	1	9
622.260	1	0
622.430	1	5
622.599	1	3
622.769	1	2
622.939	1	2
623.108	1	3
623.278	1	5
623.448	1	4
623.617	1	1
623.787	1	5
623.956	1	10
624.126	1	11
624.296	1	7
624.465	1	10
624.635	1	-3
624.804	1	-5
624.974	1	-6
625.144	1	5
625.313	1	10
625.483	1	7
625.652	1	-5
625.822	1	15
625.992	1	3
626.161	1	1
626.331	1	-11
626.501	1	-7
626.670	1	-1
626.840	1	16
627.009	1	4
627.179	1	-5
627.348	1	3
627.518	1	12
627.688	1	-3
627.857	1	1
628.027	1	10
628.196	1	8
628.366	1	-9
628.536	1	0
628.705	1	0
628.875	1	-4
629.044	1	-1
629.214	1	9
629.384	1	10
629.553	1	-2
629.723	1	8
629.892	1	7
630.062	1	7
630.232	1	4
630.401	1	2
630.571	1	0
630.740	1	-4
630.910	1	16
631.079	1	-5
631.249	1	-5
631.419	1	5
631.588	1	8
631.758	1	2
631.927	1	16
632.097	1	-6
632.266	1	13
632.436	1	0
632.606	1	0
632.775	1	5
632.945	1	6
633.114	1	2
633.284	1	6
633.453	1	12
633.623	1	9
633.793	1	7
633.962	1	1
634.132	1	14
634.301	1	10
634.471	1	-1
634.640	1	0
634.810	1	3
634.979	1	-1
635.149	1	0
635.319	1	5
635.488	1	1
635.658	1	1
635.827	1	0
635.997	1	6
636.166	1	4
636.336	1	-4
636.505	1	5
636.675	1	4
636.845	1	1
637.014	1	-11
637.184	1	7
637.353	1	4
637.523	1	-1
637.692	1	4
637.862	1	5
638.031	1	0
638.201	1	1
638.370	1	5
638.540	1	-5
638.710	1	-3
638.879	1	-6
639.049	1	13
639.218	1	12
639.388	1	5
639.557	1	3
639.727	1	12
639.896	1	1
640.066	1	1
640.235	1	5
640.405	1	10
640.574	1	14
640.744	1	-4
640.914	1	5
641.083	1	4
641.253	1	2
641.422	1	-3
641.592	1	11
641.761	1	3
641.931	1	10
642.100	1	-4
642.270	1	6
642.439	1	12
642.609	1	12
642.778	1	4
642.948	1	12
643.117	1	6
643.287	1	-2
643.456	1	9
643.626	1	1
643.795	1	6
643.965	1	-1
644.134	1	0
644.304	1	9
644.473	1	0
644.643	1	0
644.812	1	5
644.982	1	3
645.151	1	3
645.321	1	7
645.490	1	12
645.660	1	-3
645.829	1	-3
645.999	1	2
646.168	1	18
646.338	1	-1
646.507	1	-2
646.677	1	1
646.846	1	1
647.016	1	15
647.185	1	12
647.355	1	17
647.524	1	0
647.694	1	1
647.863	1	1
648.033	1	7
648.202	1	10
648.372	1	-6
648.541	1	5
648.711	1	-2
648.880	1	3
649.050	1	-4
649.219	1	8
649.389	1	4
649.558	1	15
649.728	1	5
649.897	1	12
650.067	1	13
650.236	1	-5
650.406	1	7
650.575	1	8
650.745	1	7
650.914	1	9
651.084	1	2
651.253	1	3
651.423	1	-2
651.592	1	-2
651.762	1	5
651.931	1	15
652.101	1	-10
652.270	1	3
652.440	1	8
652.609	1	9
652.778	1	-5
652.948	1	1
653.117	1	2
653.287	1	-11
653.456	1	5
653.626	1	8
653.795	1	1
653.965	1	4
654.134	1	5
654.304	1	0
654.473	1	4
654.643	1	-1
654.812	1	13
654.982	1	5
655.151	1	11
655.320	1	0
655.490	1	-1
655.659	1	5
655.829	1	10
655.998	1	6
656.168	1	5
656.337	1	1
656.507	1	-1
656.676	1	8
656.846	1	7
657.015	1	14
657.184	1	-4
657.354	1	4
657.523	1	10
657.693	1	1
657.862	1	0
658.032	1	9
658.201	1	-8
658.371	1	-4
658.540	1	2
658.709	1	12
658.879	1	6
659.048	1	12
659.218	1	-2
659.387	1	4
659.557	1	4
659.726	1	10
659.895	1	-3
660.065	1	-8
660.234	1	0
660.404	1	4
660.573	1	5
660.743	1	3
660.912	1	0
661.081	1	1
661.251	1	3
661.420	1	9
661.590	1	-6
661.759	1	-3
661.929	1	8
662.098	1	8
662.267	1	-11
662.437	1	2
662.606	1	1
662.776	1	10
662.945	1	20
663.115	1	8
663.284	1	16
663.453	1	2
663.623	1	0
663.792	1	7
663.962	1	11
664.131	1	1
664.300	1	4
664.470	1	-12
664.639	1	9
664.809	1	9
664.978	1	8
665.148	1	0
665.317	1	9
665.486	1	2
665.656	1	10
665.825	1	6
665.995	1	5
666.164	1	9
666.333	1	4
666.503	1	-6
666.672	1	3
666.842	1	6
667.011	1	8
667.180	1	0
667.350	1	18
667.519	1	3
667.689	1	6
667.858	1	13
668.027	1	4
668.197	1	-7
668.366	1	2
668.536	1	-1
668.705	1	3
668.874	1	5
669.044	1	7
669.213	1	16
669.382	1	12
669.552	1	8
669.721	1	5
669.891	1	9
670.060	1	2
670.229	1	1
670.399	1	-2
670.568	1	17
670.738	1	5
670.907	1	8
671.076	1	-3
671.246	1	6
671.415	1	13
671.584	1	3
671.754	1	1
671.923	1	1
672.093	1	14
672.262	1	-1
672.431	1	2
672.601	1	13
672.770	1	3
672.939	1	14
673.109	1	-4
673.278	1	3
673.448	1	0
673.617	1	6
673.786	1	-6
