325.333	1	7
325.504	1	-12
325.675	1	16
325.846	1	3
326.017	1	-4
326.188	1	7
326.359	1	5
326.531	1	-8
326.702	1	-3
326.873	1	0
327.044	1	10
327.215	1	-1
327.386	1	-3
327.557	1	-1
327.728	1	1
327.899	1	-7
328.070	1	8
328.241	1	-3
328.412	1	3
328.583	1	-2
328.754	1	2
328.926	1	4
329.097	1	-5
329.268	1	-2
329.439	1	11
329.610	1	2
329.781	1	2
329.952	1	7
330.123	1	5
330.294	1	-5
330.465	1	-12
330.636	1	4
330.807	1	6
330.978	1	-1
331.149	1	-3
331.320	1	8
331.492	1	-2
331.663	1	-4
331.834	1	13
332.005	1	7
332.176	1	4
332.347	1	-2
332.518	1	8
332.689	1	3
332.860	1	1
333.031	1	-1
333.202	1	4
333.373	1	7
333.544	1	-6
333.715	1	-3
333.886	1	-6
334.057	1	-4
334.228	1	5
334.399	1	12
334.570	1	-2
334.741	1	-4
334.912	1	12
335.084	1	8
335.255	1	5
335.426	1	8
335.597	1	-5
335.768	1	3
335.939	1	13
336.110	1	2
336.281	1	3
336.452	1	13
336.623	1	-7
336.794	1	0
336.965	1	2
337.136	1	1
337.307	1	-3
337.478	1	3
337.649	1	-1
337.820	1	-3
337.991	1	-1
338.162	1	7
338.333	1	-1
338.504	1	5
338.675	1	3
338.846	1	-12
339.017	1	8
339.188	1	3
339.359	1	8
339.530	1	6
339.701	1	3
339.872	1	9
340.043	1	1
340.214	1	9
340.385	1	-7
340.556	1	9
340.727	1	1
340.898	1	3
341.069	1	-6
341.240	1	-3
341.411	1	5
341.582	1	-8
341.753	1	1
341.924	1	13
342.095	1	5
342.266	1	11
342.437	1	0
342.608	1	3
342.779	1	-6
342.950	1	-5
343.121	1	1
343.292	1	0
343.463	1	14
343.634	1	0
343.805	1	3
343.976	1	11
344.147	1	6
344.318	1	-2
344.489	1	-2
344.660	1	3
344.831	1	15
345.002	1	9
345.173	1	8
345.344	1	-1
345.515	1	2
345.686	1	7
345.857	1	13
346.028	1	-5
346.199	1	3
346.370	1	4
346.541	1	-7
346.712	1	5
346.883	1	2
347.054	1	4
347.225	1	10
347.396	1	-1
347.567	1	-6
347.738	1	5
347.909	1	7
348.080	1	2
348.251	1	-2
348.422	1	11
348.593	1	-1
348.764	1	-2
348.935	1	10
349.106	1	-4
349.277	1	10
349.448	1	8
349.619	1	0
349.790	1	0
349.961	1	5
350.132	1	7
350.303	1	4
350.474	1	11
350.645	1	-5
350.816	1	4
350.987	1	13
351.157	1	4
351.328	1	1
351.499	1	4
351.670	1	12
351.841	1	5
352.012	1	11
352.183	1	7
352.354	1	5
352.525	1	7
352.696	1	3
352.867	1	16
353.038	1	13
353.209	1	1
353.380	1	6
353.551	1	7
353.722	1	8
353.893	1	1
354.064	1	7
354.235	1	8
354.406	1	2
354.576	1	9
354.747	1	8
354.918	1	1
355.089	1	13
355.260	1	-6
355.431	1	-5
355.602	1	6
355.773	1	4
355.944	1	8
356.115	1	4
356.286	1	9
356.457	1	3
356.628	1	7
356.799	1	-2
356.970	1	13
357.141	1	12
357.311	1	29
357.482	1	6
357.653	1	8
357.824	1	6
357.995	1	17
358.166	1	6
358.337	1	2
358.508	1	19
358.679	1	0
358.850	1	13
359.021	1	9
359.192	1	19
359.363	1	4
359.533	1	6
359.704	1	3
359.875	1	2
360.046	1	1
360.217	1	18
360.388	1	8
360.559	1	10
360.730	1	6
360.901	1	7
361.072	1	14
361.243	1	16
361.414	1	12
361.584	1	0
361.755	1	6
361.926	1	8
362.097	1	4
362.268	1	11
362.439	1	-1
362.610	1	14
362.781	1	1
362.952	1	10
363.123	1	6
363.293	1	4
363.464	1	1
363.635	1	2
363.806	1	1
363.977	1	9
364.148	1	3
364.319	1	5
364.490	1	19
364.661	1	2
364.832	1	7
365.002	1	14
365.173	1	3
365.344	1	-1
365.515	1	8
365.686	1	9
365.857	1	13
366.028	1	3
366.199	1	6
366.370	1	13
366.540	1	3
366.711	1	12
366.882	1	11
367.053	1	6
367.224	1	8
367.395	1	8
367.566	1	7
367.737	1	3
367.908	1	8
368.078	1	1
368.249	1	11
368.420	1	7
368.591	1	9
368.762	1	13
368.933	1	8
369.104	1	7
369.274	1	13
369.445	1	9
369.616	1	6
369.787	1	7
369.958	1	19
370.129	1	4
370.300	1	-1
370.471	1	8
370.641	1	2
370.812	1	11
370.983	1	3
371.154	1	-5
371.325	1	-1
371.496	1	8
371.667	1	23
371.837	1	12
372.008	1	7
372.179	1	0
372.350	1	8
372.521	1	17
372.692	1	18
372.863	1	10
373.033	1	7
373.204	1	8
373.375	1	-1
373.546	1	10
373.717	1	7
373.888	1	10
374.059	1	-1
374.229	1	12
374.400	1	2
374.571	1	0
374.742	1	3
374.913	1	-2
375.084	1	10
375.254	1	-3
375.425	1	9
375.596	1	9
375.767	1	16
375.938	1	-5
376.109	1	12
376.279	1	8
376.450	1	16
376.621	1	10
376.792	1	12
376.963	1	7
377.134	1	6
377.304	1	10
377.475	1	3
377.646	1	4
377.817	1	11
377.988	1	14
378.159	1	5
378.329	1	12
378.500	1	11
378.671	1	9
378.842	1	9
379.013	1	20
379.184	1	13
379.354	1	17
379.525	1	17
379.696	1	11
379.867	1	10
380.038	1	6
380.209	1	13
380.379	1	13
380.550	1	5
380.721	1	8
380.892	1	3
381.063	1	14
381.233	1	8
381.404	1	8
381.575	1	4
381.746	1	17
381.917	1	10
382.087	1	8
382.258	1	9
382.429	1	6
382.600	1	5
382.771	1	-1
382.941	1	17
383.112	1	6
383.283	1	12
383.454	1	0
383.625	1	17
383.795	1	7
383.966	1	18
384.137	1	16
384.308	1	3
384.479	1	8
384.649	1	7
384.820	1	18
384.991	1	5
385.162	1	16
385.333	1	7
385.503	1	11
385.674	1	5
385.845	1	10
386.016	1	21
386.187	1	1
386.357	1	14
386.528	1	14
386.699	1	5
386.870	1	12
387.041	1	15
387.211	1	1
387.382	1	18
387.553	1	16
387.724	1	14
387.894	1	1
388.065	1	16
388.236	1	4
388.407	1	12
388.578	1	11
388.748	1	18
388.919	1	14
389.090	1	21
389.261	1	11
389.431	1	2
389.602	1	14
389.773	1	7
389.944	1	13
390.114	1	11
390.285	1	15
390.456	1	12
390.627	1	4
390.798	1	2
390.968	1	19
391.139	1	19
391.310	1	14
391.481	1	11
391.651	1	19
391.822	1	18
391.993	1	3
392.164	1	9
392.334	1	4
392.505	1	4
392.676	1	3
392.847	1	3
393.017	1	15
393.188	1	20
393.359	1	22
393.530	1	17
393.700	1	0
393.871	1	17
394.042	1	8
394.213	1	5
394.383	1	18
394.554	1	5
394.725	1	-1
394.896	1	25
395.066	1	12
395.237	1	21
395.408	1	9
395.579	1	16
395.749	1	21
395.920	1	13
396.091	1	10
396.262	1	10
396.432	1	11
396.603	1	16
396.774	1	2
396.945	1	14
397.115	1	17
397.286	1	16
397.457	1	5
397.627	1	2
397.798	1	20
397.969	1	14
398.140	1	4
398.310	1	16
398.481	1	12
398.652	1	14
398.823	1	5
398.993	1	9
399.164	1	14
399.335	1	14
399.505	1	2
399.676	1	15
399.847	1	10
400.018	1	4
400.188	1	14
400.359	1	17
400.530	1	14
400.700	1	23
400.871	1	15
401.042	1	13
401.213	1	16
401.383	1	16
401.554	1	7
401.725	1	9
401.895	1	10
402.066	1	16
402.237	1	14
402.408	1	4
402.578	1	22
402.749	1	2
402.920	1	15
403.090	1	10
403.261	1	9
403.432	1	16
403.603	1	11
403.773	1	20
403.944	1	16
404.115	1	20
404.285	1	13
404.456	1	14
404.627	1	13
404.797	1	18
404.968	1	15
405.139	1	14
405.310	1	8
405.480	1	7
405.651	1	8
405.822	1	11
405.992	1	21
406.163	1	12
406.334	1	16
406.504	1	11
406.675	1	10
406.846	1	10
407.016	1	16
407.187	1	18
407.358	1	13
407.528	1	19
407.699	1	10
407.870	1	19
408.041	1	16
408.211	1	16
408.382	1	12
408.553	1	24
408.723	1	17
408.894	1	4
409.065	1	16
409.235	1	16
409.406	1	13
409.577	1	16
409.747	1	16
409.918	1	21
410.089	1	19
410.259	1	16
410.430	1	9
410.601	1	14
410.771	1	15
410.942	1	20
411.113	1	15
411.283	1	19
411.454	1	29
411.625	1	15
411.795	1	15
411.966	1	9
412.137	1	20
412.307	1	8
412.478	1	19
412.649	1	17
412.819	1	15
412.990	1	20
413.161	1	14
413.331	1	12
413.502	1	15
413.672	1	5
413.843	1	9
414.014	1	7
414.184	1	26
414.355	1	16
414.526	1	17
414.696	1	7
414.867	1	5
415.038	1	7
415.208	1	3
415.379	1	8
415.550	1	17
415.720	1	16
415.891	1	18
416.062	1	15
416.232	1	18
416.403	1	16
416.573	1	18
416.744	1	19
416.915	1	10
417.085	1	14
417.256	1	10
417.427	1	7
417.597	1	12
417.768	1	11
417.939	1	11
418.109	1	7
418.280	1	7
418.450	1	23
418.621	1	17
418.792	1	15
418.962	1	12
419.133	1	12
419.304	1	12
419.474	1	18
419.645	1	6
419.815	1	13
419.986	1	15
420.157	1	7
420.327	1	6
420.498	1	10
420.669	1	21
420.839	1	24
421.010	1	14
421.180	1	8
421.351	1	9
421.522	1	10
421.692	1	20
421.863	1	19
422.033	1	26
422.204	1	16
422.375	1	19
422.545	1	19
422.716	1	3
422.886	1	12
423.057	1	10
423.228	1	10
423.398	1	20
423.569	1	5
423.740	1	11
423.910	1	22
424.081	1	17
424.251	1	21
424.422	1	14
424.593	1	14
424.763	1	13
424.934	1	15
425.104	1	24
425.275	1	11
425.445	1	10
425.616	1	5
425.787	1	15
425.957	1	14
426.128	1	17
426.298	1	13
426.469	1	4
426.640	1	11
426.810	1	11
426.981	1	16
427.151	1	9
427.322	1	14
427.493	1	15
427.663	1	11
427.834	1	3
428.004	1	24
428.175	1	14
428.345	1	0
428.516	1	20
428.687	1	17
428.857	1	19
429.028	1	10
429.198	1	13
429.369	1	12
429.540	1	15
429.710	1	9
429.881	1	5
430.051	1	8
430.222	1	11
430.392	1	22
430.563	1	8
430.734	1	6
430.904	1	15
431.075	1	20
431.245	1	7
431.416	1	22
431.586	1	8
431.757	1	22
431.927	1	11
432.098	1	13
432.269	1	9
432.439	1	12
432.610	1	25
432.780	1	7
432.951	1	7
433.121	1	12
433.292	1	16
433.462	1	16
433.633	1	8
433.804	1	17
433.974	1	18
434.145	1	18
434.315	1	-1
434.486	1	-6
434.656	1	12
434.827	1	9
434.997	1	14
435.168	1	9
435.339	1	22
435.509	1	10
435.680	1	10
435.850	1	3
436.021	1	8
436.191	1	14
436.362	1	16
436.532	1	13
436.703	1	16
436.873	1	12
437.044	1	12
437.214	1	2
437.385	1	12
437.556	1	9
437.726	1	13
437.897	1	17
438.067	1	23
438.238	1	7
438.408	1	7
438.579	1	14
438.749	1	4
438.920	1	24
439.090	1	5
439.261	1	17
439.431	1	-2
439.602	1	13
439.772	1	13
439.943	1	11
440.113	1	3
440.284	1	17
440.455	1	15
440.625	1	14
440.796	1	10
440.966	1	12
441.137	1	11
441.307	1	22
441.478	1	5
441.648	1	13
441.819	1	7
441.989	1	18
442.160	1	17
442.330	1	17
442.501	1	17
442.671	1	6
442.842	1	14
443.012	1	15
443.183	1	4
443.353	1	13
443.524	1	12
443.694	1	8
443.865	1	14
444.035	1	12
444.206	1	18
444.376	1	12
444.547	1	13
444.717	1	7
444.888	1	6
445.058	1	9
445.229	1	16
445.399	1	18
445.570	1	3
445.740	1	12
445.911	1	13
446.081	1	5
446.252	1	15
446.422	1	12
446.593	1	12
446.763	1	9
446.934	1	9
447.104	1	7
447.275	1	14
447.445	1	7
447.616	1	8
447.786	1	10
447.957	1	10
448.127	1	5
448.298	1	17
448.468	1	16
448.639	1	5
448.809	1	10
448.979	1	18
449.150	1	14
449.320	1	7
449.491	1	8
449.661	1	6
449.832	1	1
450.002	1	11
450.173	1	3
450.343	1	8
450.514	1	15
450.684	1	21
450.855	1	9
451.025	1	4
451.196	1	9
451.366	1	11
451.537	1	17
451.707	1	19
451.878	1	7
452.048	1	8
452.218	1	0
452.389	1	19
452.559	1	17
452.730	1	19
452.900	1	0
453.071	1	19
453.241	1	14
453.412	1	11
453.582	1	13
453.753	1	13
453.923	1	8
454.093	1	14
454.264	1	21
454.434	1	5
454.605	1	10
454.775	1	17
454.946	1	-2
455.116	1	19
455.287	1	3
455.457	1	12
455.628	1	1
455.798	1	10
455.968	1	7
456.139	1	23
456.309	1	4
456.480	1	7
456.650	1	6
456.821	1	6
456.991	1	17
457.161	1	9
457.332	1	6
457.502	1	2
457.673	1	1
457.843	1	8
458.014	1	10
458.184	1	15
458.355	1	18
458.525	1	14
458.695	1	6
458.866	1	-3
459.036	1	2
459.207	1	15
459.377	1	9
459.548	1	12
459.718	1	8
459.888	1	7
460.059	1	14
460.229	1	0
460.400	1	4
460.570	1	-3
460.740	1	13
460.911	1	6
461.081	1	8
461.252	1	6
461.422	1	6
461.593	1	6
461.763	1	8
461.933	1	6
462.104	1	-6
462.274	1	-2
462.445	1	-1
462.615	1	7
462.785	1	18
462.956	1	-1
463.126	1	2
463.297	1	9
463.467	1	9
463.638	1	10
463.808	1	7
463.978	1	-4
464.149	1	3
464.319	1	7
464.490	1	4
464.660	1	1
464.830	1	-1
465.001	1	13
465.171	1	4
465.342	1	1
465.512	1	9
465.682	1	-3
465.853	1	5
466.023	1	14
466.194	1	7
466.364	1	14
466.534	1	0
466.705	1	20
466.875	1	1
467.045	1	0
467.216	1	6
467.386	1	12
467.557	1	12
467.727	1	3
467.897	1	17
468.068	1	7
468.238	1	5
468.409	1	6
468.579	1	13
468.749	1	5
468.920	1	-4
469.090	1	8
469.260	1	2
469.431	1	0
469.601	1	8
469.772	1	17
469.942	1	11
470.112	1	2
470.283	1	13
470.453	1	13
470.623	1	12
470.794	1	4
470.964	1	-4
471.135	1	17
471.305	1	5
471.475	1	13
471.646	1	9
471.816	1	5
471.986	1	1
472.157	1	10
472.327	1	4
472.497	1	9
472.668	1	11
472.838	1	3
473.009	1	9
473.179	1	3
473.349	1	7
473.520	1	19
473.690	1	-11
473.860	1	4
474.031	1	5
474.201	1	5
474.371	1	10
474.542	1	6
474.712	1	3
474.882	1	3
475.053	1	10
475.223	1	4
475.394	1	-2
475.564	1	7
475.734	1	-8
475.905	1	10
476.075	1	18
476.245	1	0
476.416	1	5
476.586	1	1
476.756	1	11
476.927	1	4
477.097	1	3
477.267	1	6
477.438	1	21
477.608	1	15
477.778	1	-2
477.949	1	2
478.119	1	13
478.289	1	8
478.460	1	6
478.630	1	3
478.800	1	4
478.971	1	9
479.141	1	4
479.311	1	13
479.482	1	1
479.652	1	10
479.822	1	1
479.993	1	7
480.163	1	10
480.333	1	3
480.504	1	22
480.674	1	9
480.844	1	-1
481.015	1	12
481.185	1	7
481.355	1	9
481.525	1	-3
481.696	1	13
481.866	1	5
482.036	1	11
482.207	1	2
482.377	1	-2
482.547	1	12
482.718	1	8
482.888	1	7
483.058	1	7
483.229	1	4
483.399	1	11
483.569	1	-4
483.740	1	7
483.910	1	-15
484.080	1	7
484.250	1	-3
484.421	1	-8
484.591	1	1
484.761	1	10
484.932	1	6
485.102	1	13
485.272	1	0
485.443	1	7
485.613	1	5
485.783	1	4
485.953	1	1
486.124	1	8
486.294	1	11
486.464	1	6
486.635	1	6
486.805	1	7
486.975	1	-4
487.146	1	5
487.316	1	6
487.486	1	11
487.656	1	8
487.827	1	-2
487.997	1	-5
488.167	1	3
488.338	1	3
488.508	1	13
488.678	1	3
488.848	1	6
489.019	1	-4
489.189	1	15
489.359	1	-1
489.529	1	2
489.700	1	11
489.870	1	7
490.040	1	16
490.211	1	1
490.381	1	-4
490.551	1	5
490.721	1	0
490.892	1	-13
491.062	1	5
491.232	1	7
491.402	1	7
491.573	1	21
491.743	1	3
491.913	1	11
492.084	1	5
492.254	1	-1
492.424	1	11
492.594	1	6
492.765	1	7
492.935	1	11
493.105	1	1
493.275	1	5
493.446	1	-6
493.616	1	-7
493.786	1	1
493.956	1	0
494.127	1	-8
494.297	1	-2
494.467	1	8
494.637	1	11
494.808	1	8
494.978	1	9
495.148	1	7
495.318	1	8
495.489	1	-3
495.659	1	5
495.829	1	-1
495.999	1	10
496.170	1	-3
496.340	1	-2
496.510	1	2
496.680	1	9
496.851	1	8
497.021	1	5
497.191	1	13
497.361	1	-5
497.532	1	5
497.702	1	5
497.872	1	6
498.042	1	-1
498.213	1	4
498.383	1	7
498.553	1	5
498.723	1	0
498.894	1	0
499.064	1	4
499.234	1	11
499.404	1	9
499.574	1	5
499.745	1	7
499.915	1	0
500.085	1	1
500.255	1	-8
500.426	1	6
500.596	1	-7
500.766	1	-11
500.936	1	4
501.106	1	-2
501.277	1	-4
501.447	1	4
501.617	1	-8
501.787	1	-3
501.958	1	8
502.128	1	9
502.298	1	6
502.468	1	0
502.638	1	4
502.809	1	-1
502.979	1	0
503.149	1	1
503.319	1	7
503.489	1	-13
503.660	1	3
503.830	1	5
504.000	1	-9
504.170	1	-4
504.340	1	-3
504.511	1	-2
504.681	1	4
504.851	1	4
505.021	1	7
505.192	1	-8
505.362	1	8
505.532	1	-3
505.702	1	5
505.872	1	-5
506.043	1	8
506.213	1	17
506.383	1	13
506.553	1	-2
506.723	1	-7
506.893	1	6
507.064	1	12
507.234	1	-3
507.404	1	-1
507.574	1	-5
507.744	1	8
507.915	1	-7
508.085	1	3
508.255	1	-1
508.425	1	-2
508.595	1	0
508.766	1	-2
508.936	1	7
509.106	1	8
509.276	1	3
509.446	1	-4
509.616	1	0
509.787	1	2
509.957	1	3
510.127	1	-4
510.297	1	-6
510.467	1	4
510.638	1	-3
510.808	1	14
510.978	1	-5
511.148	1	6
511.318	1	9
511.488	1	17
511.659	1	8
511.829	1	-6
511.999	1	5
512.169	1	7
512.339	1	4
512.509	1	3
512.680	1	4
512.850	1	6
513.020	1	11
513.190	1	-9
513.360	1	2
513.530	1	6
513.700	1	4
513.871	1	-9
514.041	1	-2
514.211	1	3
514.381	1	12
514.551	1	2
514.721	1	-1
514.892	1	14
515.062	1	3
515.232	1	-1
515.402	1	5
515.572	1	8
515.742	1	0
515.912	1	1
516.083	1	8
516.253	1	9
516.423	1	0
516.593	1	-2
516.763	1	12
516.933	1	-7
517.104	1	9
517.274	1	1
517.444	1	5
517.614	1	-5
517.784	1	-1
517.954	1	-6
518.124	1	4
518.294	1	10
518.465	1	1
518.635	1	8
518.805	1	0
518.975	1	2
519.145	1	5
519.315	1	-8
519.485	1	-6
519.656	1	0
519.826	1	-2
519.996	1	9
520.166	1	0
520.336	1	10
520.506	1	-1
520.676	1	-1
520.846	1	-4
521.017	1	-2
521.187	1	8
521.357	1	-10
521.527	1	-3
521.697	1	-5
521.867	1	9
522.037	1	2
522.207	1	2
522.377	1	4
522.548	1	-15
522.718	1	-4
522.888	1	-2
523.058	1	2
523.228	1	-4
523.398	1	-4
523.568	1	-7
523.738	1	5
523.909	1	12
524.079	1	1
524.249	1	4
524.419	1	-1
524.589	1	-7
524.759	1	7
524.929	1	1
525.099	1	5
525.269	1	4
525.439	1	4
525.610	1	7
525.780	1	2
525.950	1	5
526.120	1	0
526.290	1	-9
526.460	1	-1
526.630	1	2
526.800	1	2
526.970	1	5
527.140	1	-2
527.311	1	13
527.481	1	16
527.651	1	-3
527.821	1	-2
527.991	1	-11
528.161	1	9
528.331	1	0
528.501	1	7
528.671	1	-1
528.841	1	-2
529.011	1	8
529.181	1	-5
529.352	1	-4
529.522	1	-2
529.692	1	6
529.862	1	-1
530.032	1	-9
530.202	1	-3
530.372	1	0
530.542	1	-11
530.712	1	-1
530.882	1	3
531.052	1	-1
531.222	1	4
531.392	1	4
531.563	1	4
531.733	1	4
531.903	1	-3
532.073	1	-5
532.243	1	4
532.413	1	15
532.583	1	7
532.753	1	-4
532.923	1	5
533.093	1	-5
533.263	1	2
533.433	1	-5
533.603	1	1
533.773	1	3
533.943	1	3
534.113	1	1
534.284	1	-2
534.454	1	2
534.624	1	3
534.794	1	-6
534.964	1	-1
535.134	1	-10
535.304	1	6
535.474	1	1
535.644	1	2
535.814	1	-11
535.984	1	6
536.154	1	2
536.324	1	-5
536.494	1	6
536.664	1	-7
536.834	1	2
537.004	1	2
537.174	1	2
537.344	1	-6
537.514	1	-7
537.685	1	7
537.855	1	7
538.025	1	11
538.195	1	-3
538.365	1	-1
538.535	1	6
538.705	1	-2
538.875	1	-2
539.045	1	-3
539.215	1	-8
539.385	1	-3
539.555	1	-3
539.725	1	-2
539.895	1	4
540.065	1	3
540.235	1	6
540.405	1	-4
540.575	1	0
540.745	1	2
540.915	1	9
541.085	1	-2
541.255	1	14
541.425	1	0
541.595	1	0
541.765	1	1
541.935	1	5
542.105	1	-8
542.275	1	-9
542.445	1	2
542.615	1	3
542.785	1	-6
542.955	1	9
543.125	1	2
543.295	1	7
543.465	1	9
543.635	1	-3
543.805	1	5
543.975	1	-2
544.145	1	8
544.315	1	-5
544.485	1	3
544.655	1	4
544.825	1	7
544.995	1	-2
545.165	1	3
545.335	1	0
545.505	1	7
545.675	1	4
545.845	1	6
546.015	1	-8
546.185	1	0
546.355	1	-5
546.525	1	12
546.695	1	-12
546.865	1	16
547.035	1	3
547.205	1	5
547.375	1	1
547.545	1	0
547.715	1	2
547.885	1	-10
548.055	1	1
548.225	1	13
548.395	1	3
548.565	1	1
548.735	1	-13
548.905	1	2
549.075	1	4
549.245	1	7
549.415	1	-4
549.585	1	0
549.755	1	2
549.925	1	6
550.095	1	-9
550.265	1	-2
550.435	1	6
550.605	1	5
550.775	1	-5
550.945	1	-1
551.115	1	7
551.285	1	-5
551.455	1	8
551.625	1	-6
551.795	1	0
551.965	1	-3
552.135	1	-8
552.305	1	1
552.475	1	10
552.645	1	-5
552.815	1	-6
552.985	1	3
553.155	1	-1
553.325	1	-4
553.495	1	5
553.665	1	4
553.835	1	-1
554.004	1	-2
554.174	1	-8
554.344	1	5
554.514	1	4
554.684	1	9
554.854	1	-9
555.024	1	4
555.194	1	-6
555.364	1	-8
555.534	1	-3
555.704	1	4
555.874	1	-5
556.044	1	2
556.214	1	1
556.384	1	5
556.554	1	6
556.724	1	3
556.894	1	-6
557.064	1	2
557.234	1	-8
557.404	1	1
557.573	1	-3
557.743	1	-7
557.913	1	-3
558.083	1	-6
558.253	1	0
558.423	1	3
558.593	1	3
558.763	1	3
558.933	1	1
559.103	1	8
559.273	1	3
559.443	1	7
559.613	1	-12
559.783	1	-9
559.953	1	-9
560.122	1	-3
560.292	1	-11
560.462	1	-10
560.632	1	-5
560.802	1	0
560.972	1	-5
561.142	1	6
561.312	1	-2
561.482	1	4
561.652	1	3
561.822	1	-2
561.992	1	2
562.162	1	-7
562.331	1	-7
562.501	1	-5
562.671	1	2
562.841	1	-12
563.011	1	8
563.181	1	-4
563.351	1	-11
563.521	1	-1
563.691	1	5
563.861	1	1
564.031	1	-6
564.201	1	-3
564.370	1	5
564.540	1	-3
564.710	1	-4
564.880	1	6
565.050	1	1
565.220	1	0
565.390	1	-6
565.560	1	9
565.730	1	1
565.900	1	0
566.069	1	10
566.239	1	16
566.409	1	0
566.579	1	6
566.749	1	-4
566.919	1	-5
567.089	1	-13
567.259	1	0
567.429	1	-4
567.599	1	11
567.768	1	-3
567.938	1	1
568.108	1	4
568.278	1	2
568.448	1	-2
568.618	1	4
568.788	1	4
568.958	1	-4
569.128	1	2
569.297	1	-11
569.467	1	13
569.637	1	-1
569.807	1	4
569.977	1	-6
570.147	1	14
570.317	1	-5
570.487	1	-7
570.656	1	0
570.826	1	-2
570.996	1	0
571.166	1	-4
571.336	1	-8
571.506	1	-1
571.676	1	6
571.846	1	2
572.015	1	2
572.185	1	-1
572.355	1	-1
572.525	1	-7
572.695	1	-4
572.865	1	6
573.035	1	6
573.205	1	2
573.374	1	-5
573.544	1	7
573.714	1	-2
573.884	1	-7
574.054	1	-2
574.224	1	1
574.394	1	-9
574.563	1	-11
574.733	1	7
574.903	1	-1
575.073	1	5
575.243	1	-3
575.413	1	-8
575.583	1	2
575.752	1	-8
575.922	1	6
576.092	1	-4
576.262	1	3
576.432	1	0
576.602	1	-2
576.772	1	1
576.941	1	-5
577.111	1	-2
577.281	1	0
577.451	1	-1
577.621	1	-1
577.791	1	5
577.960	1	-8
578.130	1	-4
578.300	1	-11
578.470	1	4
578.640	1	3
578.810	1	-10
578.979	1	-2
579.149	1	-2
579.319	1	0
579.489	1	9
579.659	1	7
579.829	1	-6
579.998	1	-6
580.168	1	-1
580.338	1	2
580.508	1	-3
580.678	1	7
580.848	1	-2
581.017	1	3
581.187	1	0
581.357	1	3
581.527	1	-2
581.697	1	-4
581.867	1	1
582.036	1	-8
582.206	1	3
582.376	1	-2
582.546	1	-6
582.716	1	3
582.885	1	-6
583.055	1	1
583.225	1	1
583.395	1	2
583.565	1	11
583.735	1	5
583.904	1	0
584.074	1	2
584.244	1	2
584.414	1	-6
584.584	1	-1
584.753	1	-4
584.923	1	0
585.093	1	5
585.263	1	-3
585.433	1	-1
585.602	1	-5
585.772	1	11
585.942	1	1
586.112	1	4
586.282	1	0
586.451	1	4
586.621	1	-7
586.791	1	-8
586.961	1	5
587.131	1	-5
587.300	1	-1
587.470	1	2
587.640	1	-1
587.810	1	-15
587.980	1	4
588.149	1	12
588.319	1	6
588.489	1	2
588.659	1	-6
588.829	1	-1
588.998	1	-2
589.168	1	-5
589.338	1	-14
589.508	1	5
589.677	1	2
589.847	1	-1
590.017	1	-3
590.187	1	7
590.357	1	-9
590.526	1	-4
590.696	1	1
590.866	1	-2
591.036	1	4
591.205	1	1
591.375	1	-2
591.545	1	-8
591.715	1	-2
591.885	1	-1
592.054	1	10
592.224	1	2
592.394	1	-10
592.564	1	0
592.733	1	1
592.903	1	6
593.073	1	-9
593.243	1	2
593.412	1	-8
593.582	1	-7
593.752	1	-2
593.922	1	0
594.091	1	3
594.261	1	-11
594.431	1	-3
594.601	1	-5
594.771	1	2
594.940	1	-4
595.110	1	-8
595.280	1	-3
595.450	1	6
595.619	1	2
595.789	1	1
595.959	1	3
596.129	1	1
596.298	1	13
596.468	1	3
596.638	1	-1
596.808	1	-7
596.977	1	-6
597.147	1	-2
597.317	1	-3
597.487	1	1
597.656	1	3
597.826	1	1
597.996	1	-9
598.166	1	-4
598.335	1	-7
598.505	1	7
598.675	1	2
598.844	1	13
599.014	1	-12
599.184	1	0
599.354	1	7
599.523	1	-6
599.693	1	2
599.863	1	-2
600.033	1	6
600.202	1	-5
600.372	1	-7
600.542	1	5
600.712	1	-1
600.881	1	-7
601.051	1	9
601.221	1	0
601.390	1	-10
601.560	1	8
601.730	1	-1
601.900	1	7
602.069	1	7
602.239	1	-4
602.409	1	1
602.578	1	0
602.748	1	3
602.918	1	-2
603.088	1	10
603.257	1	-4
603.427	1	9
603.597	1	6
603.767	1	1
603.936	1	-1
604.106	1	-3
604.276	1	-8
604.445	1	-11
604.615	1	0
604.785	1	-1
604.954	1	1
605.124	1	-2
605.294	1	-3
605.464	1	-3
605.633	1	9
605.803	1	4
605.973	1	-1
606.142	1	8
606.312	1	7
606.482	1	-9
606.652	1	4
606.821	1	7
606.991	1	3
607.161	1	4
607.330	1	-2
607.500	1	-3
607.670	1	1
607.839	1	-4
608.009	1	2
608.179	1	-1
608.348	1	2
608.518	1	9
608.688	1	-4
608.858	1	-4
609.027	1	12
609.197	1	11
609.367	1	-2
609.536	1	-10
609.706	1	11
609.876	1	-4
610.045	1	-2
610.215	1	5
610.385	1	5
610.554	1	-4
610.724	1	-3
610.894	1	2
611.063	1	-2
611.233	1	9
611.403	1	5
611.572	1	8
611.742	1	0
611.912	1	1
612.081	1	3
612.251	1	9
612.421	1	-5
612.590	1	7
612.760	1	-7
612.930	1	4
613.099	1	6
613.269	1	0
613.439	1	-4
613.608	1	-2
613.778	1	-2
613.948	1	4
614.117	1	3
614.287	1	-9
614.457	1	5
614.626	1	0
614.796	1	0
614.966	1	-9
615.135	1	8
615.305	1	2
615.475	1	3
615.644	1	11
615.814	1	10
615.984	1	-12
616.153	1	-1
616.323	1	-1
616.493	1	7
616.662	1	3
616.832	1	2
617.002	1	0
617.171	1	4
617.341	1	9
617.511	1	-7
617.680	1	-1
617.850	1	-1
618.019	1	-3
618.189	1	12
618.359	1	-1
618.528	1	-7
618.698	1	6
618.868	1	-3
619.037	1	-3
619.207	1	-3
619.377	1	1
619.546	1	10
619.716	1	-7
619.885	1	8
620.055	1	-8
620.225	1	0
620.394	1	3
620.564	1	1
620.734	1	-3
620.903	1	-13
621.073	1	6
621.242	1	-4
621.412	1	3
621.582	1	9
621.751	1	-3
621.921	1	1
622.091	1	-3
622.260	1	13
622.430	1	-1
622.599	1	-2
622.769	1	3
622.939	1	-4
623.108	1	5
623.278	1	-9
623.448	1	-3
623.617	1	-2
623.787	1	-4
623.956	1	4
624.126	1	3
624.296	1	3
624.465	1	10
624.635	1	-4
624.804	1	-4
624.974	1	2
625.144	1	-2
625.313	1	12
625.483	1	13
625.652	1	-3
625.822	1	8
625.992	1	-5
626.161	1	-6
626.331	1	2
626.501	1	0
626.670	1	-2
626.840	1	8
627.009	1	-2
627.179	1	0
627.348	1	-5
627.518	1	7
627.688	1	1
627.857	1	9
628.027	1	-5
628.196	1	1
628.366	1	-5
628.536	1	-6
628.705	1	-5
628.875	1	-2
629.044	1	-6
629.214	1	6
629.384	1	15
629.553	1	0
629.723	1	2
629.892	1	1
630.062	1	8
630.232	1	1
630.401	1	0
630.571	1	-9
630.740	1	4
630.910	1	8
631.079	1	-2
631.249	1	2
631.419	1	6
631.588	1	1
631.758	1	-3
631.927	1	13
632.097	1	-9
632.266	1	5
632.436	1	-1
632.606	1	1
632.775	1	2
632.945	1	2
633.114	1	-9
633.284	1	-8
633.453	1	5
633.623	1	4
633.793	1	-1
633.962	1	4
634.132	1	1
634.301	1	13
634.471	1	7
634.640	1	-10
634.810	1	3
634.979	1	-1
635.149	1	-5
635.319	1	0
635.488	1	4
635.658	1	-5
635.827	1	-3
635.997	1	0
636.166	1	2
636.336	1	-5
636.505	1	1
636.675	1	-3
636.845	1	-7
637.014	1	-10
637.184	1	8
637.353	1	4
637.523	1	-9
637.692	1	1
637.862	1	-3
638.031	1	1
638.201	1	7
638.370	1	2
638.540	1	-7
638.710	1	-7
638.879	1	-5
639.049	1	2
639.218	1	4
639.388	1	8
639.557	1	4
639.727	1	4
639.896	1	4
640.066	1	-11
640.235	1	-2
640.405	1	-5
640.574	1	4
640.744	1	0
640.914	1	-5
641.083	1	6
641.253	1	-1
641.422	1	-4
641.592	1	5
641.761	1	-5
641.931	1	11
642.100	1	-2
642.270	1	3
642.439	1	5
642.609	1	7
642.778	1	-1
642.948	1	8
643.117	1	5
643.287	1	-2
643.456	1	1
643.626	1	-3
643.795	1	-3
643.965	1	2
644.134	1	8
644.304	1	0
644.473	1	2
644.643	1	2
644.812	1	-5
644.982	1	-5
645.151	1	-9
645.321	1	3
645.490	1	15
645.660	1	-6
645.829	1	0
645.999	1	-10
646.168	1	20
646.338	1	-13
646.507	1	-3
646.677	1	2
646.846	1	-1
647.016	1	13
647.185	1	1
647.355	1	7
647.524	1	-1
647.694	1	-5
647.863	1	-8
648.033	1	3
648.202	1	0
648.372	1	-11
648.541	1	6
648.711	1	13
648.880	1	3
649.050	1	6
649.219	1	6
649.389	1	-2
649.558	1	7
649.728	1	6
649.897	1	5
650.067	1	5
650.236	1	-13
650.406	1	-1
650.575	1	5
650.745	1	-1
650.914	1	5
651.084	1	1
651.253	1	2
651.423	1	-3
651.592	1	4
651.762	1	1
651.931	1	0
652.101	1	-16
652.270	1	-5
652.440	1	6
652.609	1	2
652.778	1	7
652.948	1	0
653.117	1	6
653.287	1	-12
653.456	1	-4
653.626	1	-9
653.795	1	-6
653.965	1	2
654.134	1	-10
654.304	1	5
654.473	1	-2
654.643	1	1
654.812	1	14
654.982	1	3
655.151	1	9
655.320	1	-3
655.490	1	-9
655.659	1	-4
655.829	1	10
655.998	1	16
656.168	1	-5
656.337	1	-8
656.507	1	-3
656.676	1	-8
656.846	1	4
657.015	1	7
657.184	1	-6
657.354	1	6
657.523	1	-7
657.693	1	13
657.862	1	-10
658.032	1	-5
658.201	1	-4
658.371	1	-2
658.540	1	-3
658.709	1	0
658.879	1	8
659.048	1	5
659.218	1	2
659.387	1	2
659.557	1	1
659.726	1	4
659.895	1	0
660.065	1	0
660.234	1	-5
660.404	1	7
660.573	1	4
660.743	1	0
660.912	1	4
661.081	1	-4
661.251	1	-3
661.420	1	5
661.590	1	1
661.759	1	3
661.929	1	-3
662.098	1	-7
662.267	1	-10
662.437	1	2
662.606	1	-5
662.776	1	1
662.945	1	9
663.115	1	11
663.284	1	3
663.453	1	-7
663.623	1	-6
663.792	1	6
663.962	1	12
664.131	1	1
664.300	1	-3
664.470	1	-6
664.639	1	-5
664.809	1	-2
664.978	1	13
665.148	1	5
665.317	1	1
665.486	1	1
665.656	1	2
665.825	1	-3
665.995	1	-9
666.164	1	2
666.333	1	1
666.503	1	-1
666.672	1	-6
666.842	1	1
667.011	1	-3
667.180	1	2
667.350	1	5
667.519	1	8
667.689	1	5
667.858	1	7
668.027	1	-6
668.197	1	-12
668.366	1	-3
668.536	1	-8
668.705	1	-7
668.874	1	13
669.044	1	-3
669.213	1	2
669.382	1	2
669.552	1	1
669.721	1	-8
669.891	1	7
670.060	1	4
670.229	1	4
670.399	1	8
670.568	1	7
670.738	1	-4
670.907	1	4
671.076	1	-5
671.246	1	-3
671.415	1	6
671.584	1	4
671.754	1	-7
671.923	1	4
672.093	1	7
672.262	1	-2
672.431	1	-4
672.601	1	0
672.770	1	3
672.939	1	7
673.109	1	1
673.278	1	-1
673.448	1	7
673.617	1	0
673.786	1	-7
