325.333	1	22
325.504	1	11
325.675	1	29
325.846	1	20
326.017	1	30
326.188	1	25
326.359	1	35
326.531	1	18
326.702	1	28
326.873	1	32
327.044	1	33
327.215	1	28
327.386	1	24
327.557	1	26
327.728	1	11
327.899	1	26
328.070	1	27
328.241	1	22
328.412	1	29
328.583	1	29
328.754	1	37
328.926	1	36
329.097	1	19
329.268	1	33
329.439	1	35
329.610	1	28
329.781	1	31
329.952	1	38
330.123	1	28
330.294	1	31
330.465	1	16
330.636	1	37
330.807	1	36
330.978	1	28
331.149	1	25
331.320	1	37
331.492	1	28
331.663	1	35
331.834	1	36
332.005	1	39
332.176	1	30
332.347	1	35
332.518	1	39
332.689	1	38
332.860	1	33
333.031	1	34
333.202	1	39
333.373	1	26
333.544	1	44
333.715	1	33
333.886	1	37
334.057	1	33
334.228	1	45
334.399	1	50
334.570	1	42
334.741	1	33
334.912	1	37
335.084	1	41
335.255	1	43
335.426	1	40
335.597	1	38
335.768	1	49
335.939	1	46
336.110	1	44
336.281	1	43
336.452	1	52
336.623	1	33
336.794	1	42
336.965	1	40
337.136	1	58
337.307	1	42
337.478	1	43
337.649	1	39
337.820	1	38
337.991	1	42
338.162	1	46
338.333	1	39
338.504	1	50
338.675	1	31
338.846	1	37
339.017	1	49
339.188	1	51
339.359	1	47
339.530	1	40
339.701	1	50
339.872	1	42
340.043	1	52
340.214	1	50
340.385	1	36
340.556	1	53
340.727	1	53
340.898	1	47
341.069	1	51
341.240	1	47
341.411	1	63
341.582	1	39
341.753	1	44
341.924	1	65
342.095	1	48
342.266	1	60
342.437	1	53
342.608	1	53
342.779	1	41
342.950	1	54
343.121	1	54
343.292	1	56
343.463	1	72
343.634	1	62
343.805	1	47
343.976	1	66
344.147	1	57
344.318	1	50
344.489	1	49
344.660	1	58
344.831	1	67
345.002	1	62
345.173	1	66
345.344	1	52
345.515	1	54
345.686	1	56
345.857	1	68
346.028	1	62
346.199	1	50
346.370	1	65
346.541	1	60
346.712	1	57
346.883	1	60
347.054	1	73
347.225	1	65
347.396	1	57
347.567	1	57
347.738	1	62
347.909	1	69
348.080	1	58
348.251	1	68
348.422	1	70
348.593	1	67
348.764	1	69
348.935	1	78
349.106	1	63
349.277	1	58
349.448	1	74
349.619	1	73
349.790	1	68
349.961	1	59
350.132	1	76
350.303	1	74
350.474	1	67
350.645	1	84
350.816	1	65
350.987	1	84
351.157	1	73
351.328	1	66
351.499	1	87
351.670	1	71
351.841	1	85
352.012	1	77
352.183	1	86
352.354	1	77
352.525	1	78
352.696	1	73
352.867	1	80
353.038	1	73
353.209	1	70
353.380	1	78
353.551	1	87
353.722	1	81
353.893	1	84
354.064	1	78
354.235	1	77
354.406	1	73
354.576	1	75
354.747	1	83
354.918	1	81
355.089	1	87
355.260	1	76
355.431	1	73
355.602	1	92
355.773	1	83
355.944	1	88
356.115	1	90
356.286	1	83
356.457	1	88
356.628	1	78
356.799	1	83
356.970	1	97
357.141	1	94
357.311	1	98
357.482	1	79
357.653	1	89
357.824	1	88
357.995	1	104
358.166	1	88
358.337	1	81
358.508	1	100
358.679	1	96
358.850	1	103
359.021	1	91
359.192	1	95
359.363	1	91
359.533	1	90
359.704	1	88
359.875	1	92
360.046	1	87
360.217	1	99
360.388	1	99
360.559	1	97
360.730	1	92
360.901	1	101
361.072	1	95
361.243	1	83
361.414	1	103
361.584	1	84
361.755	1	86
361.926	1	97
362.097	1	103
362.268	1	101
362.439	1	92
362.610	1	107
362.781	1	89
362.952	1	90
363.123	1	87
363.293	1	98
363.464	1	88
363.635	1	92
363.806	1	95
363.977	1	99
364.148	1	87
364.319	1	85
364.490	1	93
364.661	1	97
364.832	1	90
365.002	1	108
365.173	1	97
365.344	1	100
365.515	1	97
365.686	1	104
365.857	1	102
366.028	1	101
366.199	1	99
366.370	1	103
366.540	1	99
366.711	1	103
366.882	1	100
367.053	1	93
367.224	1	103
367.395	1	110
367.566	1	103
367.737	1	106
367.908	1	98
368.078	1	98
368.249	1	115
368.420	1	102
368.591	1	94
368.762	1	102
368.933	1	101
369.104	1	96
369.274	1	101
369.445	1	111
369.616	1	102
369.787	1	98
369.958	1	116
370.129	1	101
370.300	1	102
370.471	1	108
370.641	1	95
370.812	1	107
370.983	1	98
371.154	1	98
371.325	1	87
371.496	1	96
371.667	1	116
371.837	1	102
372.008	1	93
372.179	1	103
372.350	1	103
372.521	1	103
372.692	1	106
372.863	1	99
373.033	1	100
373.204	1	100
373.375	1	99
373.546	1	106
373.717	1	108
373.888	1	108
374.059	1	103
374.229	1	107
374.400	1	114
374.571	1	103
374.742	1	109
374.913	1	94
375.084	1	109
375.254	1	110
375.425	1	112
375.596	1	106
375.767	1	102
375.938	1	103
376.109	1	111
376.279	1	123
376.450	1	118
376.621	1	116
376.792	1	118
376.963	1	118
377.134	1	110
377.304	1	127
377.475	1	89
377.646	1	113
377.817	1	121
377.988	1	116
378.159	1	127
378.329	1	113
378.500	1	126
378.671	1	104
378.842	1	99
379.013	1	119
379.184	1	116
379.354	1	120
379.525	1	115
379.696	1	112
379.867	1	114
380.038	1	108
380.209	1	127
380.379	1	123
380.550	1	112
380.721	1	108
380.892	1	119
381.063	1	120
381.233	1	103
381.404	1	115
381.575	1	128
381.746	1	130
381.917	1	97
382.087	1	121
382.258	1	124
382.429	1	111
382.600	1	118
382.771	1	124
382.941	1	126
383.112	1	123
383.283	1	109
383.454	1	121
383.625	1	120
383.795	1	131
383.966	1	121
384.137	1	131
384.308	1	125
384.479	1	132
384.649	1	141
384.820	1	127
384.991	1	115
385.162	1	143
385.333	1	124
385.503	1	122
385.674	1	129
385.845	1	131
386.016	1	134
386.187	1	132
386.357	1	145
386.528	1	139
386.699	1	128
386.870	1	128
387.041	1	142
387.211	1	140
387.382	1	153
387.553	1	147
387.724	1	133
387.894	1	133
388.065	1	140
388.236	1	140
388.407	1	137
388.578	1	139
388.748	1	144
388.919	1	137
389.090	1	146
389.261	1	140
389.431	1	132
389.602	1	144
389.773	1	141
389.944	1	141
390.114	1	143
390.285	1	143
390.456	1	136
390.627	1	126
390.798	1	132
390.968	1	138
391.139	1	134
391.310	1	137
391.481	1	148
391.651	1	151
391.822	1	154
391.993	1	128
392.164	1	133
392.334	1	134
392.505	1	135
392.676	1	135
392.847	1	132
393.017	1	129
393.188	1	147
393.359	1	147
393.530	1	154
393.700	1	140
393.871	1	150
394.042	1	127
394.213	1	149
394.383	1	139
394.554	1	127
394.725	1	135
394.896	1	160
395.066	1	137
395.237	1	159
395.408	1	148
395.579	1	149
395.749	1	167
395.920	1	163
396.091	1	149
396.262	1	148
396.432	1	152
396.603	1	164
396.774	1	164
396.945	1	142
397.115	1	171
397.286	1	174
397.457	1	138
397.627	1	152
397.798	1	139
397.969	1	148
398.140	1	145
398.310	1	146
398.481	1	143
398.652	1	149
398.823	1	149
398.993	1	151
399.164	1	158
399.335	1	153
399.505	1	149
399.676	1	152
399.847	1	142
400.018	1	160
400.188	1	165
400.359	1	158
400.530	1	151
400.700	1	155
400.871	1	159
401.042	1	146
401.213	1	168
401.383	1	154
401.554	1	146
401.725	1	154
401.895	1	140
402.066	1	150
402.237	1	145
402.408	1	140
402.578	1	150
402.749	1	135
402.920	1	164
403.090	1	148
403.261	1	125
403.432	1	162
403.603	1	148
403.773	1	163
403.944	1	165
404.115	1	153
404.285	1	148
404.456	1	156
404.627	1	160
404.797	1	154
404.968	1	150
405.139	1	163
405.310	1	166
405.480	1	172
405.651	1	153
405.822	1	154
405.992	1	159
406.163	1	154
406.334	1	166
406.504	1	170
406.675	1	166
406.846	1	164
407.016	1	180
407.187	1	158
407.358	1	157
407.528	1	178
407.699	1	169
407.870	1	160
408.041	1	162
408.211	1	178
408.382	1	182
408.553	1	175
408.723	1	175
408.894	1	163
409.065	1	160
409.235	1	171
409.406	1	150
409.577	1	173
409.747	1	177
409.918	1	186
410.089	1	169
410.259	1	162
410.430	1	166
410.601	1	181
410.771	1	179
410.942	1	166
411.113	1	163
411.283	1	169
411.454	1	181
411.625	1	160
411.795	1	169
411.966	1	164
412.137	1	160
412.307	1	164
412.478	1	150
412.649	1	171
412.819	1	161
412.990	1	164
413.161	1	160
413.331	1	149
413.502	1	167
413.672	1	160
413.843	1	158
414.014	1	141
414.184	1	164
414.355	1	162
414.526	1	152
414.696	1	143
414.867	1	150
415.038	1	153
415.208	1	130
415.379	1	156
415.550	1	155
415.720	1	162
415.891	1	165
416.062	1	173
416.232	1	166
416.403	1	148
416.573	1	160
416.744	1	154
416.915	1	161
417.085	1	174
417.256	1	160
417.427	1	166
417.597	1	167
417.768	1	165
417.939	1	163
418.109	1	165
418.280	1	169
418.450	1	169
418.621	1	171
418.792	1	161
418.962	1	177
419.133	1	155
419.304	1	145
419.474	1	173
419.645	1	165
419.815	1	156
419.986	1	178
420.157	1	168
420.327	1	155
420.498	1	147
420.669	1	169
420.839	1	168
421.010	1	151
421.180	1	158
421.351	1	153
421.522	1	167
421.692	1	151
421.863	1	154
422.033	1	150
422.204	1	152
422.375	1	157
422.545	1	160
422.716	1	145
422.886	1	160
423.057	1	166
423.228	1	153
423.398	1	153
423.569	1	140
423.740	1	163
423.910	1	139
424.081	1	146
424.251	1	150
424.422	1	163
424.593	1	138
424.763	1	148
424.934	1	150
425.104	1	157
425.275	1	124
425.445	1	141
425.616	1	140
425.787	1	151
425.957	1	137
426.128	1	142
426.298	1	155
426.469	1	125
426.640	1	142
426.810	1	127
426.981	1	151
427.151	1	146
427.322	1	125
427.493	1	142
427.663	1	138
427.834	1	136
428.004	1	149
428.175	1	149
428.345	1	139
428.516	1	133
428.687	1	161
428.857	1	144
429.028	1	140
429.198	1	131
429.369	1	144
429.540	1	148
429.710	1	151
429.881	1	132
430.051	1	141
430.222	1	148
430.392	1	141
430.563	1	136
430.734	1	143
430.904	1	150
431.075	1	133
431.245	1	140
431.416	1	150
431.586	1	137
431.757	1	145
431.927	1	146
432.098	1	149
432.269	1	140
432.439	1	142
432.610	1	142
432.780	1	143
432.951	1	136
433.121	1	140
433.292	1	140
433.462	1	138
433.633	1	141
433.804	1	149
433.974	1	149
434.145	1	136
434.315	1	134
434.486	1	124
434.656	1	145
434.827	1	137
434.997	1	144
435.168	1	136
435.339	1	152
435.509	1	133
435.680	1	137
435.850	1	144
436.021	1	134
436.191	1	128
436.362	1	137
436.532	1	148
436.703	1	131
436.873	1	136
437.044	1	133
437.214	1	129
437.385	1	129
437.556	1	123
437.726	1	123
437.897	1	118
438.067	1	145
438.238	1	138
438.408	1	135
438.579	1	140
438.749	1	127
438.920	1	129
439.090	1	123
439.261	1	130
439.431	1	114
439.602	1	138
439.772	1	131
439.943	1	116
440.113	1	123
440.284	1	139
440.455	1	117
440.625	1	128
440.796	1	124
440.966	1	135
441.137	1	129
441.307	1	118
441.478	1	112
441.648	1	120
441.819	1	126
441.989	1	127
442.160	1	129
442.330	1	122
442.501	1	121
442.671	1	115
442.842	1	126
443.012	1	118
443.183	1	132
443.353	1	123
443.524	1	126
443.694	1	114
443.865	1	129
444.035	1	130
444.206	1	125
444.376	1	124
444.547	1	120
444.717	1	125
444.888	1	99
445.058	1	127
445.229	1	120
445.399	1	131
445.570	1	106
445.740	1	124
445.911	1	126
446.081	1	122
446.252	1	123
446.422	1	121
446.593	1	131
446.763	1	117
446.934	1	120
447.104	1	123
447.275	1	120
447.445	1	120
447.616	1	122
447.786	1	111
447.957	1	119
448.127	1	119
448.298	1	109
448.468	1	124
448.639	1	125
448.809	1	126
448.979	1	136
449.150	1	106
449.320	1	124
449.491	1	113
449.661	1	112
449.832	1	118
450.002	1	106
450.173	1	121
450.343	1	107
450.514	1	121
450.684	1	126
450.855	1	108
451.025	1	96
451.196	1	105
451.366	1	122
451.537	1	105
451.707	1	127
451.878	1	112
452.048	1	106
452.218	1	111
452.389	1	112
452.559	1	117
452.730	1	113
452.900	1	99
453.071	1	110
453.241	1	102
453.412	1	112
453.582	1	104
453.753	1	110
453.923	1	102
454.093	1	95
454.264	1	112
454.434	1	116
454.605	1	109
454.775	1	99
454.946	1	104
455.116	1	118
455.287	1	94
455.457	1	97
455.628	1	89
455.798	1	104
455.968	1	100
456.139	1	108
456.309	1	102
456.480	1	102
456.650	1	106
456.821	1	96
456.991	1	103
457.161	1	106
457.332	1	103
457.502	1	89
457.673	1	98
457.843	1	99
458.014	1	100
458.184	1	91
458.355	1	103
458.525	1	94
458.695	1	95
458.866	1	95
459.036	1	99
459.207	1	102
459.377	1	102
459.548	1	98
459.718	1	103
459.888	1	83
460.059	1	87
460.229	1	100
460.400	1	97
460.570	1	92
460.740	1	94
460.911	1	85
461.081	1	88
461.252	1	100
461.422	1	90
461.593	1	97
461.763	1	97
461.933	1	95
462.104	1	89
462.274	1	90
462.445	1	95
462.615	1	102
462.785	1	99
462.956	1	93
463.126	1	86
463.297	1	100
463.467	1	100
463.638	1	95
463.808	1	88
463.978	1	79
464.149	1	88
464.319	1	91
464.490	1	95
464.660	1	88
464.830	1	88
465.001	1	91
465.171	1	91
465.342	1	85
465.512	1	84
465.682	1	90
465.853	1	83
466.023	1	82
466.194	1	95
466.364	1	89
466.534	1	83
466.705	1	94
466.875	1	74
467.045	1	75
467.216	1	85
467.386	1	86
467.557	1	88
467.727	1	77
467.897	1	69
468.068	1	78
468.238	1	87
468.409	1	81
468.579	1	76
468.749	1	79
468.920	1	65
469.090	1	79
469.260	1	85
469.431	1	73
469.601	1	82
469.772	1	93
469.942	1	79
470.112	1	75
470.283	1	80
470.453	1	88
470.623	1	85
470.794	1	76
470.964	1	60
471.135	1	83
471.305	1	82
471.475	1	81
471.646	1	74
471.816	1	77
471.986	1	81
472.157	1	79
472.327	1	90
472.497	1	79
472.668	1	83
472.838	1	66
473.009	1	77
473.179	1	75
473.349	1	71
473.520	1	98
473.690	1	72
473.860	1	67
474.031	1	58
474.201	1	70
474.371	1	83
474.542	1	73
474.712	1	69
474.882	1	74
475.053	1	78
475.223	1	73
475.394	1	72
475.564	1	61
475.734	1	67
475.905	1	79
476.075	1	86
476.245	1	76
476.416	1	65
476.586	1	68
476.756	1	73
476.927	1	69
477.097	1	79
477.267	1	68
477.438	1	83
477.608	1	91
477.778	1	68
477.949	1	68
478.119	1	81
478.289	1	68
478.460	1	70
478.630	1	76
478.800	1	74
478.971	1	65
479.141	1	82
479.311	1	74
479.482	1	69
479.652	1	62
479.822	1	64
479.993	1	71
480.163	1	74
480.333	1	81
480.504	1	68
480.674	1	74
480.844	1	65
481.015	1	72
481.185	1	74
481.355	1	74
481.525	1	59
481.696	1	69
481.866	1	67
482.036	1	69
482.207	1	78
482.377	1	64
482.547	1	66
482.718	1	67
482.888	1	75
483.058	1	66
483.229	1	64
483.399	1	64
483.569	1	57
483.740	1	55
483.910	1	54
484.080	1	66
484.250	1	65
484.421	1	61
484.591	1	57
484.761	1	67
484.932	1	60
485.102	1	67
485.272	1	51
485.443	1	57
485.613	1	66
485.783	1	67
485.953	1	58
486.124	1	61
486.294	1	54
486.464	1	63
486.635	1	56
486.805	1	59
486.975	1	63
487.146	1	59
487.316	1	67
487.486	1	62
487.656	1	61
487.827	1	46
487.997	1	53
488.167	1	64
488.338	1	62
488.508	1	64
488.678	1	59
488.848	1	57
489.019	1	60
489.189	1	71
489.359	1	57
489.529	1	70
489.700	1	55
489.870	1	63
490.040	1	49
490.211	1	57
490.381	1	47
490.551	1	56
490.721	1	50
490.892	1	50
491.062	1	56
491.232	1	49
491.402	1	52
491.573	1	59
491.743	1	66
491.913	1	53
492.084	1	55
492.254	1	59
492.424	1	53
492.594	1	52
492.765	1	57
492.935	1	62
493.105	1	52
493.275	1	54
493.446	1	44
493.616	1	46
493.786	1	56
493.956	1	59
494.127	1	38
494.297	1	46
494.467	1	46
494.637	1	51
494.808	1	63
494.978	1	54
495.148	1	52
495.318	1	52
495.489	1	44
495.659	1	52
495.829	1	48
495.999	1	55
496.170	1	47
496.340	1	45
496.510	1	62
496.680	1	57
496.851	1	59
497.021	1	51
497.191	1	53
497.361	1	38
497.532	1	57
497.702	1	46
497.872	1	51
498.042	1	53
498.213	1	53
498.383	1	45
498.553	1	54
498.723	1	47
498.894	1	41
499.064	1	42
499.234	1	46
499.404	1	57
499.574	1	46
499.745	1	59
499.915	1	52
500.085	1	47
500.255	1	38
500.426	1	43
500.596	1	35
500.766	1	37
500.936	1	43
501.106	1	47
501.277	1	37
501.447	1	47
501.617	1	48
501.787	1	47
501.958	1	36
502.128	1	51
502.298	1	43
502.468	1	42
502.638	1	46
502.809	1	40
502.979	1	52
503.149	1	47
503.319	1	51
503.489	1	30
503.660	1	44
503.830	1	49
504.000	1	33
504.170	1	48
504.340	1	35
504.511	1	39
504.681	1	33
504.851	1	40
505.021	1	40
505.192	1	36
505.362	1	38
505.532	1	42
505.702	1	53
505.872	1	38
506.043	1	45
506.213	1	48
506.383	1	43
506.553	1	35
506.723	1	38
506.893	1	35
507.064	1	47
507.234	1	38
507.404	1	37
507.574	1	39
507.744	1	41
507.915	1	43
508.085	1	35
508.255	1	46
508.425	1	45
508.595	1	31
508.766	1	25
508.936	1	44
509.106	1	40
509.276	1	36
509.446	1	36
509.616	1	41
509.787	1	37
509.957	1	43
510.127	1	38
510.297	1	35
510.467	1	52
510.638	1	45
510.808	1	59
510.978	1	29
511.148	1	37
511.318	1	34
511.488	1	40
511.659	1	39
511.829	1	29
511.999	1	46
512.169	1	40
512.339	1	38
512.509	1	38
512.680	1	44
512.850	1	33
513.020	1	36
513.190	1	26
513.360	1	46
513.530	1	37
513.700	1	35
513.871	1	30
514.041	1	34
514.211	1	37
514.381	1	36
514.551	1	36
514.721	1	31
514.892	1	33
515.062	1	26
515.232	1	32
515.402	1	37
515.572	1	41
515.742	1	35
515.912	1	29
516.083	1	33
516.253	1	39
516.423	1	29
516.593	1	30
516.763	1	36
516.933	1	30
517.104	1	38
517.274	1	21
517.444	1	27
517.614	1	26
517.784	1	32
517.954	1	35
518.124	1	38
518.294	1	33
518.465	1	29
518.635	1	41
518.805	1	31
518.975	1	35
519.145	1	31
519.315	1	30
519.485	1	28
519.656	1	36
519.826	1	23
519.996	1	33
520.166	1	26
520.336	1	32
520.506	1	31
520.676	1	36
520.846	1	32
521.017	1	34
521.187	1	29
521.357	1	29
521.527	1	31
521.697	1	26
521.867	1	36
522.037	1	28
522.207	1	33
522.377	1	37
522.548	1	29
522.718	1	31
522.888	1	31
523.058	1	39
523.228	1	29
523.398	1	18
523.568	1	30
523.738	1	32
523.909	1	16
524.079	1	31
524.249	1	16
524.419	1	32
524.589	1	24
524.759	1	22
524.929	1	28
525.099	1	20
525.269	1	23
525.439	1	33
525.610	1	29
525.780	1	26
525.950	1	34
526.120	1	17
526.290	1	23
526.460	1	26
526.630	1	19
526.800	1	22
526.970	1	28
527.140	1	28
527.311	1	26
527.481	1	20
527.651	1	22
527.821	1	25
527.991	1	28
528.161	1	35
528.331	1	28
528.501	1	22
528.671	1	33
528.841	1	34
529.011	1	19
529.181	1	34
529.352	1	35
529.522	1	25
529.692	1	23
529.862	1	23
530.032	1	18
530.202	1	15
530.372	1	25
530.542	1	28
530.712	1	9
530.882	1	34
531.052	1	23
531.222	1	30
531.392	1	31
531.563	1	21
531.733	1	25
531.903	1	22
532.073	1	20
532.243	1	40
532.413	1	27
532.583	1	26
532.753	1	17
532.923	1	27
533.093	1	21
533.263	1	18
533.433	1	24
533.603	1	31
533.773	1	26
533.943	1	33
534.113	1	17
534.284	1	27
534.454	1	23
534.624	1	22
534.794	1	24
534.964	1	32
535.134	1	13
535.304	1	25
535.474	1	32
535.644	1	26
535.814	1	27
535.984	1	24
536.154	1	14
536.324	1	28
536.494	1	13
536.664	1	21
536.834	1	23
537.004	1	17
537.174	1	20
537.344	1	25
537.514	1	15
537.685	1	28
537.855	1	25
538.025	1	32
538.195	1	15
538.365	1	24
538.535	1	16
538.705	1	13
538.875	1	29
539.045	1	21
539.215	1	11
539.385	1	25
539.555	1	16
539.725	1	23
539.895	1	27
540.065	1	27
540.235	1	16
540.405	1	30
540.575	1	22
540.745	1	20
540.915	1	27
541.085	1	8
541.255	1	15
541.425	1	24
541.595	1	18
541.765	1	22
541.935	1	28
542.105	1	16
542.275	1	8
542.445	1	31
542.615	1	23
542.785	1	14
542.955	1	32
543.125	1	20
543.295	1	18
543.465	1	18
543.635	1	10
543.805	1	31
543.975	1	16
544.145	1	10
544.315	1	12
544.485	1	19
544.655	1	24
544.825	1	18
544.995	1	9
545.165	1	18
545.335	1	27
545.505	1	15
545.675	1	23
545.845	1	27
546.015	1	7
546.185	1	19
546.355	1	15
546.525	1	27
546.695	1	17
546.865	1	17
547.035	1	12
547.205	1	26
547.375	1	28
547.545	1	18
547.715	1	13
547.885	1	19
548.055	1	19
548.225	1	32
548.395	1	13
548.565	1	23
548.735	1	14
548.905	1	21
549.075	1	18
549.245	1	15
549.415	1	13
549.585	1	16
549.755	1	24
549.925	1	20
550.095	1	8
550.265	1	15
550.435	1	20
550.605	1	13
550.775	1	15
550.945	1	12
551.115	1	21
551.285	1	12
551.455	1	13
551.625	1	11
551.795	1	12
551.965	1	17
552.135	1	14
552.305	1	19
552.475	1	23
552.645	1	15
552.815	1	13
552.985	1	12
553.155	1	11
553.325	1	14
553.495	1	18
553.665	1	19
553.835	1	19
554.004	1	19
554.174	1	6
554.344	1	23
554.514	1	8
554.684	1	12
554.854	1	13
555.024	1	21
555.194	1	23
555.364	1	16
555.534	1	11
555.704	1	13
555.874	1	24
556.044	1	11
556.214	1	10
556.384	1	28
556.554	1	12
556.724	1	10
556.894	1	13
557.064	1	9
557.234	1	11
557.404	1	26
557.573	1	19
557.743	1	16
557.913	1	17
558.083	1	21
558.253	1	6
558.423	1	13
558.593	1	17
558.763	1	12
558.933	1	12
559.103	1	11
559.273	1	18
559.443	1	20
559.613	1	14
559.783	1	14
559.953	1	8
560.122	1	15
560.292	1	10
560.462	1	10
560.632	1	7
560.802	1	15
560.972	1	8
561.142	1	19
561.312	1	13
561.482	1	18
561.652	1	10
561.822	1	15
561.992	1	25
562.162	1	11
562.331	1	11
562.501	1	11
562.671	1	4
562.841	1	-4
563.011	1	15
563.181	1	10
563.351	1	9
563.521	1	4
563.691	1	2
563.861	1	12
564.031	1	15
564.201	1	16
564.370	1	18
564.540	1	5
564.710	1	14
564.880	1	9
565.050	1	14
565.220	1	21
565.390	1	11
565.560	1	4
565.730	1	10
565.900	1	12
566.069	1	27
566.239	1	19
566.409	1	23
566.579	1	16
566.749	1	8
566.919	1	7
567.089	1	2
567.259	1	13
567.429	1	8
567.599	1	22
567.768	1	11
567.938	1	13
568.108	1	5
568.278	1	18
568.448	1	7
568.618	1	11
568.788	1	10
568.958	1	10
569.128	1	2
569.297	1	5
569.467	1	24
569.637	1	14
569.807	1	10
569.977	1	3
570.147	1	5
570.317	1	5
570.487	1	2
570.656	1	20
570.826	1	13
570.996	1	16
571.166	1	10
571.336	1	7
571.506	1	4
571.676	1	13
571.846	1	20
572.015	1	14
572.185	1	11
572.355	1	8
572.525	1	6
572.695	1	14
572.865	1	18
573.035	1	18
573.205	1	9
573.374	1	6
573.544	1	2
573.714	1	15
573.884	1	6
574.054	1	8
574.224	1	12
574.394	1	11
574.563	1	8
574.733	1	11
574.903	1	9
575.073	1	16
575.243	1	4
575.413	1	11
575.583	1	4
575.752	1	11
575.922	1	23
576.092	1	15
576.262	1	13
576.432	1	6
576.602	1	7
576.772	1	15
576.941	1	10
577.111	1	9
577.281	1	5
577.451	1	16
577.621	1	9
577.791	1	12
577.960	1	8
578.130	1	15
578.300	1	15
578.470	1	16
578.640	1	10
578.810	1	9
578.979	1	7
579.149	1	7
579.319	1	11
579.489	1	19
579.659	1	19
579.829	1	5
579.998	1	0
580.168	1	8
580.338	1	16
580.508	1	8
580.678	1	15
580.848	1	14
581.017	1	-3
581.187	1	12
581.357	1	13
581.527	1	8
581.697	1	13
581.867	1	9
582.036	1	3
582.206	1	12
582.376	1	17
582.546	1	9
582.716	1	7
582.885	1	8
583.055	1	7
583.225	1	-2
583.395	1	15
583.565	1	19
583.735	1	13
583.904	1	9
584.074	1	11
584.244	1	3
584.414	1	6
584.584	1	7
584.753	1	12
584.923	1	7
585.093	1	20
585.263	1	6
585.433	1	7
585.602	1	22
585.772	1	16
585.942	1	13
586.112	1	8
586.282	1	17
586.451	1	23
586.621	1	17
586.791	1	2
586.961	1	3
587.131	1	2
587.300	1	26
587.470	1	13
587.640	1	5
587.810	1	5
587.980	1	20
588.149	1	12
588.319	1	15
588.489	1	19
588.659	1	10
588.829	1	7
588.998	1	5
589.168	1	18
589.338	1	5
589.508	1	10
589.677	1	7
589.847	1	17
590.017	1	13
590.187	1	16
590.357	1	5
590.526	1	5
590.696	1	16
590.866	1	2
591.036	1	14
591.205	1	16
591.375	1	-1
591.545	1	8
591.715	1	14
591.885	1	15
592.054	1	15
592.224	1	12
592.394	1	1
592.564	1	16
592.733	1	6
592.903	1	10
593.073	1	6
593.243	1	15
593.412	1	8
593.582	1	8
593.752	1	12
593.922	1	12
594.091	1	21
594.261	1	2
594.431	1	12
594.601	1	6
594.771	1	14
594.940	1	5
595.110	1	11
595.280	1	15
595.450	1	8
595.619	1	20
595.789	1	7
595.959	1	3
596.129	1	5
596.298	1	19
596.468	1	3
596.638	1	5
596.808	1	2
596.977	1	11
597.147	1	4
597.317	1	16
597.487	1	16
597.656	1	11
597.826	1	13
597.996	1	5
598.166	1	12
598.335	1	0
598.505	1	18
598.675	1	12
598.844	1	23
599.014	1	2
599.184	1	6
599.354	1	25
599.523	1	8
599.693	1	7
599.863	1	17
600.033	1	17
600.202	1	3
600.372	1	7
600.542	1	6
600.712	1	5
600.881	1	14
601.051	1	15
601.221	1	10
601.390	1	13
601.560	1	15
601.730	1	17
601.900	1	14
602.069	1	14
602.239	1	14
602.409	1	7
602.578	1	18
602.748	1	17
602.918	1	-3
603.088	1	17
603.257	1	0
603.427	1	16
603.597	1	10
603.767	1	15
603.936	1	10
604.106	1	20
604.276	1	16
604.445	1	14
604.615	1	4
604.785	1	10
604.954	1	13
605.124	1	13
605.294	1	9
605.464	1	1
605.633	1	16
605.803	1	20
605.973	1	10
606.142	1	9
606.312	1	19
606.482	1	6
606.652	1	16
606.821	1	10
606.991	1	21
607.161	1	14
607.330	1	13
607.500	1	13
607.670	1	8
607.839	1	8
608.009	1	10
608.179	1	20
608.348	1	8
608.518	1	22
608.688	1	10
608.858	1	7
609.027	1	14
609.197	1	18
609.367	1	9
609.536	1	10
609.706	1	21
609.876	1	14
610.045	1	22
610.215	1	10
610.385	1	14
610.554	1	13
610.724	1	17
610.894	1	19
611.063	1	19
611.233	1	15
611.403	1	22
611.572	1	15
611.742	1	13
611.912	1	16
612.081	1	17
612.251	1	17
612.421	1	11
612.590	1	11
612.760	1	10
612.930	1	17
613.099	1	15
613.269	1	10
613.439	1	10
613.608	1	16
613.778	1	9
613.948	1	21
614.117	1	3
614.287	1	15
614.457	1	12
614.626	1	12
614.796	1	13
614.966	1	18
615.135	1	21
615.305	1	18
615.475	1	9
615.644	1	25
615.814	1	20
615.984	1	3
616.153	1	17
616.323	1	13
616.493	1	12
616.662	1	8
616.832	1	12
617.002	1	12
617.171	1	33
617.341	1	23
617.511	1	8
617.680	1	15
617.850	1	15
618.019	1	14
618.189	1	19
618.359	1	11
618.528	1	11
618.698	1	18
618.868	1	13
619.037	1	13
619.207	1	4
619.377	1	11
619.546	1	24
619.716	1	12
619.885	1	12
620.055	1	13
620.225	1	13
620.394	1	18
620.564	1	21
620.734	1	19
620.903	1	6
621.073	1	18
621.242	1	15
621.412	1	8
621.582	1	23
621.751	1	9
621.921	1	19
622.091	1	22
622.260	1	23
622.430	1	13
622.599	1	8
622.769	1	14
622.939	1	13
623.108	1	15
623.278	1	14
623.448	1	9
623.617	1	18
623.787	1	20
623.956	1	15
624.126	1	17
624.296	1	15
624.465	1	31
624.635	1	8
624.804	1	9
624.974	1	16
625.144	1	15
625.313	1	34
625.483	1	16
625.652	1	17
625.822	1	17
625.992	1	17
626.161	1	10
626.331	1	11
626.501	1	7
626.670	1	16
626.840	1	5
627.009	1	13
627.179	1	20
627.348	1	14
627.518	1	34
627.688	1	10
627.857	1	23
628.027	1	22
628.196	1	18
628.366	1	19
628.536	1	14
628.705	1	9
628.875	1	14
629.044	1	5
629.214	1	18
629.384	1	24
629.553	1	19
629.723	1	17
629.892	1	24
630.062	1	14
630.232	1	12
630.401	1	16
630.571	1	16
630.740	1	14
630.910	1	18
631.079	1	9
631.249	1	18
631.419	1	16
631.588	1	13
631.758	1	10
631.927	1	19
632.097	1	18
632.266	1	29
632.436	1	18
632.606	1	22
632.775	1	14
632.945	1	20
633.114	1	11
633.284	1	15
633.453	1	16
633.623	1	25
633.793	1	21
633.962	1	30
634.132	1	17
634.301	1	20
634.471	1	32
634.640	1	14
634.810	1	22
634.979	1	29
635.149	1	12
635.319	1	16
635.488	1	22
635.658	1	15
635.827	1	14
635.997	1	17
636.166	1	21
636.336	1	18
636.505	1	23
636.675	1	15
636.845	1	13
637.014	1	7
637.184	1	26
637.353	1	16
637.523	1	26
637.692	1	18
637.862	1	7
638.031	1	20
638.201	1	20
638.370	1	23
638.540	1	21
638.710	1	22
638.879	1	11
639.049	1	30
639.218	1	26
639.388	1	18
639.557	1	30
639.727	1	9
639.896	1	22
640.066	1	22
640.235	1	13
640.405	1	24
640.574	1	31
640.744	1	17
640.914	1	19
641.083	1	29
641.253	1	14
641.422	1	16
641.592	1	30
641.761	1	22
641.931	1	27
642.100	1	21
642.270	1	28
642.439	1	19
642.609	1	26
642.778	1	32
642.948	1	30
643.117	1	24
643.287	1	26
643.456	1	10
643.626	1	11
643.795	1	19
643.965	1	22
644.134	1	23
644.304	1	11
644.473	1	23
644.643	1	26
644.812	1	15
644.982	1	30
645.151	1	11
645.321	1	26
645.490	1	35
645.660	1	11
645.829	1	23
645.999	1	20
646.168	1	38
646.338	1	19
646.507	1	25
646.677	1	26
646.846	1	27
647.016	1	34
647.185	1	32
647.355	1	39
647.524	1	19
647.694	1	14
647.863	1	18
648.033	1	32
648.202	1	25
648.372	1	15
648.541	1	25
648.711	1	26
648.880	1	27
649.050	1	32
649.219	1	14
649.389	1	28
649.558	1	23
649.728	1	23
649.897	1	33
650.067	1	32
650.236	1	28
650.406	1	24
650.575	1	22
650.745	1	27
650.914	1	29
651.084	1	18
651.253	1	20
651.423	1	27
651.592	1	29
651.762	1	25
651.931	1	39
652.101	1	28
652.270	1	33
652.440	1	33
652.609	1	28
652.778	1	23
652.948	1	29
653.117	1	24
653.287	1	9
653.456	1	20
653.626	1	26
653.795	1	12
653.965	1	24
654.134	1	16
654.304	1	26
654.473	1	29
654.643	1	19
654.812	1	28
654.982	1	30
655.151	1	26
655.320	1	19
655.490	1	20
655.659	1	18
655.829	1	23
655.998	1	36
656.168	1	15
656.337	1	27
656.507	1	22
656.676	1	18
656.846	1	33
657.015	1	35
657.184	1	16
657.354	1	35
657.523	1	26
657.693	1	28
657.862	1	19
658.032	1	30
658.201	1	19
658.371	1	18
658.540	1	18
658.709	1	43
658.879	1	26
659.048	1	42
659.218	1	19
659.387	1	24
659.557	1	25
659.726	1	15
659.895	1	27
660.065	1	22
660.234	1	14
660.404	1	40
660.573	1	41
660.743	1	17
660.912	1	26
661.081	1	32
661.251	1	11
661.420	1	35
661.590	1	19
661.759	1	22
661.929	1	30
662.098	1	31
662.267	1	20
662.437	1	29
662.606	1	25
662.776	1	32
662.945	1	34
663.115	1	44
663.284	1	36
663.453	1	27
663.623	1	26
663.792	1	31
663.962	1	32
664.131	1	38
664.300	1	32
664.470	1	22
664.639	1	33
664.809	1	26
664.978	1	34
665.148	1	37
665.317	1	30
665.486	1	40
665.656	1	31
665.825	1	26
665.995	1	24
666.164	1	24
666.333	1	19
666.503	1	23
666.672	1	29
666.842	1	30
667.011	1	29
667.180	1	18
667.350	1	31
667.519	1	31
667.689	1	23
667.858	1	29
668.027	1	28
668.197	1	11
668.366	1	37
668.536	1	20
668.705	1	24
668.874	1	37
669.044	1	33
669.213	1	33
669.382	1	37
669.552	1	29
669.721	1	18
669.891	1	25
670.060	1	34
670.229	1	36
670.399	1	31
670.568	1	41
670.738	1	32
670.907	1	28
671.076	1	24
671.246	1	33
671.415	1	33
671.584	1	26
671.754	1	18
671.923	1	28
672.093	1	29
672.262	1	20
672.431	1	35
672.601	1	30
672.770	1	28
672.939	1	28
673.109	1	29
673.278	1	39
673.448	1	40
673.617	1	41
673.786	1	11
