325.333	1	-5
325.504	1	-6
325.675	1	12
325.846	1	-2
326.017	1	6
326.188	1	1
326.359	1	8
326.531	1	-8
326.702	1	-3
326.873	1	4
327.044	1	8
327.215	1	3
327.386	1	-12
327.557	1	-9
327.728	1	5
327.899	1	4
328.070	1	-1
328.241	1	-4
328.412	1	-1
328.583	1	-3
328.754	1	4
328.926	1	3
329.097	1	-6
329.268	1	18
329.439	1	2
329.610	1	2
329.781	1	-2
329.952	1	11
330.123	1	-10
330.294	1	-3
330.465	1	-3
330.636	1	1
330.807	1	4
330.978	1	-2
331.149	1	6
331.320	1	0
331.492	1	-1
331.663	1	0
331.834	1	3
332.005	1	6
332.176	1	2
332.347	1	-6
332.518	1	0
332.689	1	-4
332.860	1	-8
333.031	1	5
333.202	1	0
333.373	1	3
333.544	1	-4
333.715	1	-4
333.886	1	-5
334.057	1	6
334.228	1	-1
334.399	1	5
334.570	1	-6
334.741	1	-1
334.912	1	-4
335.084	1	8
335.255	1	4
335.426	1	-5
335.597	1	1
335.768	1	-4
335.939	1	7
336.110	1	4
336.281	1	0
336.452	1	6
336.623	1	-1
336.794	1	0
336.965	1	-1
337.136	1	5
337.307	1	-7
337.478	1	0
337.649	1	-5
337.820	1	0
337.991	1	-1
338.162	1	2
338.333	1	0
338.504	1	11
338.675	1	-2
338.846	1	-11
339.017	1	-1
339.188	1	-1
339.359	1	3
339.530	1	-12
339.701	1	3
339.872	1	-1
340.043	1	2
340.214	1	7
340.385	1	-5
340.556	1	11
340.727	1	1
340.898	1	2
341.069	1	3
341.240	1	-2
341.411	1	3
341.582	1	-9
341.753	1	4
341.924	1	6
342.095	1	-12
342.266	1	7
342.437	1	-7
342.608	1	-2
342.779	1	-9
342.950	1	6
343.121	1	0
343.292	1	3
343.463	1	12
343.634	1	3
343.805	1	-2
343.976	1	4
344.147	1	0
344.318	1	-3
344.489	1	-5
344.660	1	11
344.831	1	6
345.002	1	7
345.173	1	2
345.344	1	-9
345.515	1	-1
345.686	1	9
345.857	1	12
346.028	1	0
346.199	1	12
346.370	1	1
346.541	1	3
346.712	1	-4
346.883	1	6
347.054	1	-1
347.225	1	-3
347.396	1	-5
347.567	1	4
347.738	1	0
347.909	1	2
348.080	1	-4
348.251	1	1
348.422	1	6
348.593	1	-3
348.764	1	2
348.935	1	0
349.106	1	-2
349.277	1	2
349.448	1	-4
349.619	1	-11
349.790	1	1
349.961	1	-1
350.132	1	7
350.303	1	9
350.474	1	-2
350.645	1	9
350.816	1	-1
350.987	1	6
351.157	1	2
351.328	1	0
351.499	1	1
351.670	1	-3
351.841	1	5
352.012	1	-3
352.183	1	5
352.354	1	0
352.525	1	0
352.696	1	-8
352.867	1	10
353.038	1	6
353.209	1	-2
353.380	1	1
353.551	1	5
353.722	1	7
353.893	1	3
354.064	1	2
354.235	1	-2
354.406	1	-11
354.576	1	-10
354.747	1	4
354.918	1	0
355.089	1	8
355.260	1	7
355.431	1	-4
355.602	1	7
355.773	1	2
355.944	1	7
356.115	1	5
356.286	1	3
356.457	1	-2
356.628	1	-1
356.799	1	9
356.970	1	7
357.141	1	6
357.311	1	21
357.482	1	-6
357.653	1	-4
357.824	1	6
357.995	1	12
358.166	1	-13
358.337	1	3
358.508	1	3
358.679	1	-1
358.850	1	10
359.021	1	15
359.192	1	13
359.363	1	6
359.533	1	3
359.704	1	0
359.875	1	-8
360.046	1	-1
360.217	1	5
360.388	1	1
360.559	1	8
360.730	1	-4
360.901	1	6
361.072	1	1
361.243	1	0
361.414	1	8
361.584	1	5
361.755	1	-4
361.926	1	3
362.097	1	1
362.268	1	19
362.439	1	-7
362.610	1	11
362.781	1	-6
362.952	1	9
363.123	1	-10
363.293	1	1
363.464	1	3
363.635	1	9
363.806	1	6
363.977	1	9
364.148	1	9
364.319	1	1
364.490	1	15
364.661	1	4
364.832	1	3
365.002	1	8
365.173	1	1
365.344	1	2
365.515	1	7
365.686	1	8
365.857	1	0
366.028	1	6
366.199	1	0
366.370	1	8
366.540	1	-2
366.711	1	-1
366.882	1	7
367.053	1	4
367.224	1	4
367.395	1	1
367.566	1	10
367.737	1	4
367.908	1	12
368.078	1	-7
368.249	1	1
368.420	1	5
368.591	1	6
368.762	1	9
368.933	1	-7
369.104	1	7
369.274	1	12
369.445	1	5
369.616	1	7
369.787	1	2
369.958	1	5
370.129	1	-5
370.300	1	3
370.471	1	3
370.641	1	-4
370.812	1	13
370.983	1	7
371.154	1	5
371.325	1	3
371.496	1	11
371.667	1	14
371.837	1	5
372.008	1	-4
372.179	1	-6
372.350	1	16
372.521	1	4
372.692	1	7
372.863	1	7
373.033	1	-2
373.204	1	0
373.375	1	-3
373.546	1	10
373.717	1	2
373.888	1	10
374.059	1	-2
374.229	1	-2
374.400	1	-1
374.571	1	-5
374.742	1	8
374.913	1	-9
375.084	1	3
375.254	1	5
375.425	1	14
375.596	1	9
375.767	1	13
375.938	1	-3
376.109	1	4
376.279	1	7
376.450	1	0
376.621	1	8
376.792	1	16
376.963	1	3
377.134	1	-1
377.304	1	14
377.475	1	3
377.646	1	0
377.817	1	5
377.988	1	9
378.159	1	8
378.329	1	4
378.500	1	14
378.671	1	1
378.842	1	0
379.013	1	10
379.184	1	-1
379.354	1	18
379.525	1	8
379.696	1	7
379.867	1	6
380.038	1	3
380.209	1	2
380.379	1	8
380.550	1	-6
380.721	1	2
380.892	1	7
381.063	1	7
381.233	1	0
381.404	1	-4
381.575	1	-3
381.746	1	7
381.917	1	0
382.087	1	12
382.258	1	8
382.429	1	9
382.600	1	5
382.771	1	-10
382.941	1	10
383.112	1	3
383.283	1	8
383.454	1	-8
383.625	1	-3
383.795	1	2
383.966	1	8
384.137	1	14
384.308	1	7
384.479	1	6
384.649	1	1
384.820	1	6
384.991	1	-3
385.162	1	5
385.333	1	3
385.503	1	-1
385.674	1	3
385.845	1	10
386.016	1	14
386.187	1	-8
386.357	1	9
386.528	1	6
386.699	1	-6
386.870	1	1
387.041	1	8
387.211	1	5
387.382	1	11
387.553	1	10
387.724	1	8
387.894	1	-9
388.065	1	3
388.236	1	6
388.407	1	8
388.578	1	9
388.748	1	2
388.919	1	8
389.090	1	16
389.261	1	21
389.431	1	10
389.602	1	1
389.773	1	1
389.944	1	5
390.114	1	8
390.285	1	7
390.456	1	2
390.627	1	9
390.798	1	-1
390.968	1	14
391.139	1	6
391.310	1	5
391.481	1	6
391.651	1	9
391.822	1	21
391.993	1	8
392.164	1	4
392.334	1	-3
392.505	1	11
392.676	1	-4
392.847	1	-2
393.017	1	9
393.188	1	17
393.359	1	14
393.530	1	16
393.700	1	5
393.871	1	9
394.042	1	-4
394.213	1	5
394.383	1	5
394.554	1	-3
394.725	1	-6
394.896	1	10
395.066	1	8
395.237	1	16
395.408	1	9
395.579	1	13
395.749	1	15
395.920	1	10
396.091	1	-7
396.262	1	-8
396.432	1	-8
396.603	1	10
396.774	1	8
396.945	1	20
397.115	1	10
397.286	1	1
397.457	1	16
397.627	1	2
397.798	1	0
397.969	1	-1
398.140	1	4
398.310	1	9
398.481	1	7
398.652	1	8
398.823	1	7
398.993	1	6
399.164	1	4
399.335	1	3
399.505	1	2
399.676	1	5
399.847	1	-1
400.018	1	8
400.188	1	7
400.359	1	16
400.530	1	5
400.700	1	9
400.871	1	10
401.042	1	6
401.213	1	9
401.383	1	12
401.554	1	-2
401.725	1	5
401.895	1	2
402.066	1	8
402.237	1	3
402.408	1	5
402.578	1	14
402.749	1	10
402.920	1	11
403.090	1	5
403.261	1	1
403.432	1	7
403.603	1	8
403.773	1	18
403.944	1	6
404.115	1	3
404.285	1	5
404.456	1	20
404.627	1	21
404.797	1	10
404.968	1	13
405.139	1	16
405.310	1	0
405.480	1	3
405.651	1	4
405.822	1	4
405.992	1	10
406.163	1	0
406.334	1	3
406.504	1	7
406.675	1	12
406.846	1	10
407.016	1	13
407.187	1	4
407.358	1	6
407.528	1	4
407.699	1	4
407.870	1	10
408.041	1	8
408.211	1	0
408.382	1	16
408.553	1	14
408.723	1	14
408.894	1	4
409.065	1	16
409.235	1	6
409.406	1	2
409.577	1	15
409.747	1	9
409.918	1	8
410.089	1	10
410.259	1	5
410.430	1	9
410.601	1	1
410.771	1	16
410.942	1	-1
411.113	1	13
411.283	1	7
411.454	1	21
411.625	1	6
411.795	1	10
411.966	1	11
412.137	1	10
412.307	1	3
412.478	1	18
412.649	1	6
412.819	1	14
412.990	1	7
413.161	1	12
413.331	1	13
413.502	1	-8
413.672	1	1
413.843	1	4
414.014	1	5
414.184	1	11
414.355	1	16
414.526	1	8
414.696	1	3
414.867	1	-3
415.038	1	13
415.208	1	-9
415.379	1	4
415.550	1	12
415.720	1	-1
415.891	1	-1
416.062	1	7
416.232	1	14
416.403	1	13
416.573	1	12
416.744	1	12
416.915	1	2
417.085	1	14
417.256	1	8
417.427	1	11
417.597	1	7
417.768	1	7
417.939	1	-3
418.109	1	-4
418.280	1	7
418.450	1	16
418.621	1	5
418.792	1	4
418.962	1	5
419.133	1	7
419.304	1	7
419.474	1	9
419.645	1	22
419.815	1	3
419.986	1	10
420.157	1	2
420.327	1	1
420.498	1	4
420.669	1	17
420.839	1	10
421.010	1	11
421.180	1	7
421.351	1	7
421.522	1	5
421.692	1	13
421.863	1	3
422.033	1	8
422.204	1	17
422.375	1	10
422.545	1	12
422.716	1	3
422.886	1	16
423.057	1	5
423.228	1	-6
423.398	1	19
423.569	1	-3
423.740	1	8
423.910	1	9
424.081	1	7
424.251	1	10
424.422	1	8
424.593	1	20
424.763	1	23
424.934	1	3
425.104	1	18
425.275	1	6
425.445	1	3
425.616	1	10
425.787	1	4
425.957	1	4
426.128	1	4
426.298	1	12
426.469	1	-2
426.640	1	7
426.810	1	-5
426.981	1	15
427.151	1	2
427.322	1	-1
427.493	1	3
427.663	1	2
427.834	1	3
428.004	1	10
428.175	1	3
428.345	1	5
428.516	1	14
428.687	1	22
428.857	1	16
429.028	1	-5
429.198	1	-8
429.369	1	9
429.540	1	3
429.710	1	8
429.881	1	9
430.051	1	3
430.222	1	12
430.392	1	13
430.563	1	3
430.734	1	5
430.904	1	4
431.075	1	2
431.245	1	7
431.416	1	4
431.586	1	-2
431.757	1	9
431.927	1	9
432.098	1	9
432.269	1	-5
432.439	1	6
432.610	1	12
432.780	1	18
432.951	1	4
433.121	1	4
433.292	1	7
433.462	1	6
433.633	1	-2
433.804	1	6
433.974	1	15
434.145	1	8
434.315	1	13
434.486	1	-4
434.656	1	11
434.827	1	5
434.997	1	10
435.168	1	4
435.339	1	23
435.509	1	9
435.680	1	13
435.850	1	5
436.021	1	11
436.191	1	1
436.362	1	3
436.532	1	4
436.703	1	7
436.873	1	2
437.044	1	6
437.214	1	2
437.385	1	7
437.556	1	14
437.726	1	11
437.897	1	7
438.067	1	8
438.238	1	6
438.408	1	8
438.579	1	-1
438.749	1	6
438.920	1	20
439.090	1	2
439.261	1	15
439.431	1	-2
439.602	1	6
439.772	1	2
439.943	1	1
440.113	1	-2
440.284	1	11
440.455	1	6
440.625	1	19
440.796	1	1
440.966	1	11
441.137	1	9
441.307	1	11
441.478	1	-9
441.648	1	-4
441.819	1	5
441.989	1	10
442.160	1	7
442.330	1	7
442.501	1	13
442.671	1	9
442.842	1	3
443.012	1	4
443.183	1	7
443.353	1	2
443.524	1	-3
443.694	1	11
443.865	1	10
444.035	1	11
444.206	1	7
444.376	1	7
444.547	1	7
444.717	1	6
444.888	1	-5
445.058	1	11
445.229	1	7
445.399	1	5
445.570	1	8
445.740	1	14
445.911	1	7
446.081	1	6
446.252	1	3
446.422	1	-2
446.593	1	8
446.763	1	-2
446.934	1	-2
447.104	1	3
447.275	1	11
447.445	1	6
447.616	1	1
447.786	1	3
447.957	1	3
448.127	1	4
448.298	1	2
448.468	1	-1
448.639	1	2
448.809	1	3
448.979	1	12
449.150	1	-6
449.320	1	8
449.491	1	-9
449.661	1	3
449.832	1	5
450.002	1	1
450.173	1	14
450.343	1	0
450.514	1	17
450.684	1	4
450.855	1	13
451.025	1	-1
451.196	1	1
451.366	1	17
451.537	1	13
451.707	1	13
451.878	1	5
452.048	1	2
452.218	1	8
452.389	1	14
452.559	1	11
452.730	1	14
452.900	1	-1
453.071	1	15
453.241	1	3
453.412	1	-1
453.582	1	5
453.753	1	9
453.923	1	-5
454.093	1	3
454.264	1	16
454.434	1	13
454.605	1	-4
454.775	1	4
454.946	1	-2
455.116	1	11
455.287	1	-1
455.457	1	5
455.628	1	-6
455.798	1	15
455.968	1	7
456.139	1	7
456.309	1	5
456.480	1	-2
456.650	1	13
456.821	1	0
456.991	1	-1
457.161	1	9
457.332	1	1
457.502	1	-5
457.673	1	-3
457.843	1	-4
458.014	1	-3
458.184	1	9
458.355	1	4
458.525	1	-5
458.695	1	2
458.866	1	1
459.036	1	2
459.207	1	6
459.377	1	7
459.548	1	-4
459.718	1	1
459.888	1	-5
460.059	1	6
460.229	1	-1
460.400	1	5
460.570	1	-6
460.740	1	7
460.911	1	-5
461.081	1	1
461.252	1	0
461.422	1	2
461.593	1	3
461.763	1	13
461.933	1	8
462.104	1	-3
462.274	1	-10
462.445	1	5
462.615	1	7
462.785	1	14
462.956	1	-4
463.126	1	1
463.297	1	6
463.467	1	14
463.638	1	19
463.808	1	14
463.978	1	-11
464.149	1	1
464.319	1	4
464.490	1	5
464.660	1	1
464.830	1	2
465.001	1	-2
465.171	1	-3
465.342	1	1
465.512	1	9
465.682	1	-5
465.853	1	-4
466.023	1	13
466.194	1	6
466.364	1	9
466.534	1	-3
466.705	1	11
466.875	1	-3
467.045	1	-1
467.216	1	5
467.386	1	-5
467.557	1	14
467.727	1	2
467.897	1	2
468.068	1	-6
468.238	1	0
468.409	1	10
468.579	1	-1
468.749	1	4
468.920	1	3
469.090	1	6
469.260	1	4
469.431	1	4
469.601	1	12
469.772	1	16
469.942	1	3
470.112	1	-3
470.283	1	3
470.453	1	11
470.623	1	4
470.794	1	12
470.964	1	-2
471.135	1	3
471.305	1	2
471.475	1	11
471.646	1	2
471.816	1	-7
471.986	1	7
472.157	1	0
472.327	1	0
472.497	1	2
472.668	1	11
472.838	1	-1
473.009	1	11
473.179	1	-2
473.349	1	-5
473.520	1	13
473.690	1	0
473.860	1	1
474.031	1	-4
474.201	1	4
474.371	1	6
474.542	1	-10
474.712	1	3
474.882	1	12
475.053	1	12
475.223	1	0
475.394	1	-1
475.564	1	7
475.734	1	-3
475.905	1	-4
476.075	1	11
476.245	1	-1
476.416	1	-2
476.586	1	-4
476.756	1	3
476.927	1	0
477.097	1	2
477.267	1	5
477.438	1	11
477.608	1	8
477.778	1	-10
477.949	1	4
478.119	1	5
478.289	1	1
478.460	1	-1
478.630	1	0
478.800	1	-4
478.971	1	8
479.141	1	12
479.311	1	3
479.482	1	-8
479.652	1	6
479.822	1	2
479.993	1	13
480.163	1	-6
480.333	1	12
480.504	1	1
480.674	1	7
480.844	1	2
481.015	1	15
481.185	1	9
481.355	1	8
481.525	1	2
481.696	1	-1
481.866	1	6
482.036	1	1
482.207	1	2
482.377	1	-4
482.547	1	0
482.718	1	9
482.888	1	17
483.058	1	0
483.229	1	-5
483.399	1	6
483.569	1	-2
483.740	1	1
483.910	1	-4
484.080	1	-3
484.250	1	-11
484.421	1	0
484.591	1	6
484.761	1	6
484.932	1	-8
485.102	1	8
485.272	1	11
485.443	1	3
485.613	1	-7
485.783	1	1
485.953	1	-6
486.124	1	7
486.294	1	10
486.464	1	15
486.635	1	1
486.805	1	0
486.975	1	-2
487.146	1	10
487.316	1	3
487.486	1	7
487.656	1	9
487.827	1	1
487.997	1	-7
488.167	1	2
488.338	1	0
488.508	1	12
488.678	1	-1
488.848	1	7
489.019	1	-7
489.189	1	13
489.359	1	-5
489.529	1	10
489.700	1	-3
489.870	1	1
490.040	1	-7
490.211	1	-10
490.381	1	-4
490.551	1	7
490.721	1	9
490.892	1	-17
491.062	1	-2
491.232	1	6
491.402	1	-1
491.573	1	4
491.743	1	-1
491.913	1	0
492.084	1	-1
492.254	1	0
492.424	1	-5
492.594	1	2
492.765	1	10
492.935	1	2
493.105	1	-5
493.275	1	5
493.446	1	-13
493.616	1	-13
493.786	1	-1
493.956	1	7
494.127	1	-6
494.297	1	-13
494.467	1	-11
494.637	1	1
494.808	1	9
494.978	1	-7
495.148	1	4
495.318	1	4
495.489	1	-9
495.659	1	1
495.829	1	6
495.999	1	9
496.170	1	-3
496.340	1	4
496.510	1	7
496.680	1	2
496.851	1	7
497.021	1	-8
497.191	1	-1
497.361	1	-5
497.532	1	6
497.702	1	4
497.872	1	-5
498.042	1	3
498.213	1	-3
498.383	1	6
498.553	1	9
498.723	1	-1
498.894	1	1
499.064	1	-4
499.234	1	5
499.404	1	3
499.574	1	-5
499.745	1	2
499.915	1	3
500.085	1	-13
500.255	1	-6
500.426	1	2
500.596	1	-12
500.766	1	-10
500.936	1	-3
501.106	1	1
501.277	1	-5
501.447	1	5
501.617	1	-3
501.787	1	-6
501.958	1	0
502.128	1	-3
502.298	1	5
502.468	1	2
502.638	1	5
502.809	1	-4
502.979	1	1
503.149	1	3
503.319	1	7
503.489	1	-17
503.660	1	-3
503.830	1	2
504.000	1	-6
504.170	1	-1
504.340	1	-3
504.511	1	1
504.681	1	-9
504.851	1	-1
505.021	1	5
505.192	1	-3
505.362	1	1
505.532	1	-2
505.702	1	13
505.872	1	-1
506.043	1	13
506.213	1	14
506.383	1	4
506.553	1	-9
506.723	1	-3
506.893	1	0
507.064	1	9
507.234	1	-4
507.404	1	1
507.574	1	-3
507.744	1	-2
507.915	1	0
508.085	1	-10
508.255	1	1
508.425	1	-2
508.595	1	-1
508.766	1	-5
508.936	1	9
509.106	1	-5
509.276	1	-4
509.446	1	-10
509.616	1	3
509.787	1	-2
509.957	1	-1
510.127	1	-11
510.297	1	-4
510.467	1	2
510.638	1	10
510.808	1	11
510.978	1	-3
511.148	1	-2
511.318	1	6
511.488	1	3
511.659	1	4
511.829	1	-11
511.999	1	3
512.169	1	3
512.339	1	10
512.509	1	-7
512.680	1	-5
512.850	1	0
513.020	1	1
513.190	1	-5
513.360	1	3
513.530	1	2
513.700	1	6
513.871	1	-5
514.041	1	5
514.211	1	0
514.381	1	-6
514.551	1	-6
514.721	1	3
514.892	1	-11
515.062	1	-6
515.232	1	-10
515.402	1	-3
515.572	1	8
515.742	1	4
515.912	1	-2
516.083	1	-2
516.253	1	7
516.423	1	6
516.593	1	-7
516.763	1	5
516.933	1	-5
517.104	1	3
517.274	1	-1
517.444	1	-2
517.614	1	-13
517.784	1	-1
517.954	1	-5
518.124	1	-7
518.294	1	8
518.465	1	-4
518.635	1	7
518.805	1	6
518.975	1	5
519.145	1	-2
519.315	1	-5
519.485	1	-1
519.656	1	4
519.826	1	-5
519.996	1	0
520.166	1	-8
520.336	1	1
520.506	1	-2
520.676	1	4
520.846	1	0
521.017	1	-1
521.187	1	2
521.357	1	-4
521.527	1	-5
521.697	1	-5
521.867	1	5
522.037	1	-1
522.207	1	1
522.377	1	17
522.548	1	-16
522.718	1	1
522.888	1	3
523.058	1	2
523.228	1	1
523.398	1	5
523.568	1	-4
523.738	1	-3
523.909	1	-7
524.079	1	5
524.249	1	-9
524.419	1	7
524.589	1	5
524.759	1	10
524.929	1	-2
525.099	1	-8
525.269	1	-1
525.439	1	1
525.610	1	11
525.780	1	1
525.950	1	5
526.120	1	-10
526.290	1	-7
526.460	1	-7
526.630	1	-3
526.800	1	-8
526.970	1	12
527.140	1	-1
527.311	1	8
527.481	1	2
527.651	1	0
527.821	1	5
527.991	1	-3
528.161	1	0
528.331	1	-6
528.501	1	-7
528.671	1	2
528.841	1	0
529.011	1	3
529.181	1	-3
529.352	1	-10
529.522	1	-3
529.692	1	4
529.862	1	-6
530.032	1	-5
530.202	1	2
530.372	1	-4
530.542	1	-6
530.712	1	4
530.882	1	-4
531.052	1	4
531.222	1	1
531.392	1	2
531.563	1	6
531.733	1	-4
531.903	1	-8
532.073	1	4
532.243	1	6
532.413	1	17
532.583	1	-4
532.753	1	-8
532.923	1	-5
533.093	1	-6
533.263	1	-1
533.433	1	6
533.603	1	-2
533.773	1	-3
533.943	1	-1
534.113	1	-9
534.284	1	5
534.454	1	-1
534.624	1	-3
534.794	1	-8
534.964	1	7
535.134	1	3
535.304	1	-4
535.474	1	6
535.644	1	17
535.814	1	-1
535.984	1	-6
536.154	1	-3
536.324	1	-1
536.494	1	8
536.664	1	-1
536.834	1	0
537.004	1	0
537.174	1	-3
537.344	1	1
537.514	1	-3
537.685	1	15
537.855	1	-2
538.025	1	1
538.195	1	-3
538.365	1	-3
538.535	1	-2
538.705	1	1
538.875	1	-5
539.045	1	0
539.215	1	-10
539.385	1	5
539.555	1	-2
539.725	1	-1
539.895	1	3
540.065	1	0
540.235	1	5
540.405	1	-2
540.575	1	-1
540.745	1	-1
540.915	1	4
541.085	1	-8
541.255	1	2
541.425	1	-5
541.595	1	-6
541.765	1	5
541.935	1	-4
542.105	1	2
542.275	1	2
542.445	1	-2
542.615	1	-1
542.785	1	-4
542.955	1	6
543.125	1	-4
543.295	1	4
543.465	1	3
543.635	1	-7
543.805	1	5
543.975	1	-6
544.145	1	-4
544.315	1	-7
544.485	1	1
544.655	1	-2
544.825	1	8
544.995	1	-5
545.165	1	-1
545.335	1	-1
545.505	1	2
545.675	1	-7
545.845	1	1
546.015	1	-11
546.185	1	-1
546.355	1	3
546.525	1	1
546.695	1	-6
546.865	1	-3
547.035	1	-5
547.205	1	19
547.375	1	12
547.545	1	-1
547.715	1	-1
547.885	1	-11
548.055	1	-2
548.225	1	14
548.395	1	-1
548.565	1	-6
548.735	1	-2
548.905	1	2
549.075	1	-5
549.245	1	4
549.415	1	1
549.585	1	-5
549.755	1	-3
549.925	1	1
550.095	1	-3
550.265	1	-4
550.435	1	5
550.605	1	-2
550.775	1	-3
550.945	1	-3
551.115	1	10
551.285	1	2
551.455	1	10
551.625	1	-12
551.795	1	0
551.965	1	-6
552.135	1	3
552.305	1	3
552.475	1	5
552.645	1	-4
552.815	1	-12
552.985	1	-1
553.155	1	-2
553.325	1	3
553.495	1	6
553.665	1	1
553.835	1	1
554.004	1	-3
554.174	1	-2
554.344	1	0
554.514	1	-2
554.684	1	4
554.854	1	-6
555.024	1	1
555.194	1	6
555.364	1	1
555.534	1	-9
555.704	1	3
555.874	1	-7
556.044	1	-6
556.214	1	0
556.384	1	6
556.554	1	3
556.724	1	-7
556.894	1	-4
557.064	1	1
557.234	1	-2
557.404	1	1
557.573	1	-4
557.743	1	-5
557.913	1	-1
558.083	1	6
558.253	1	-7
558.423	1	-7
558.593	1	-1
558.763	1	-1
558.933	1	-5
559.103	1	-2
559.273	1	13
559.443	1	0
559.613	1	-4
559.783	1	-5
559.953	1	-9
560.122	1	4
560.292	1	-13
560.462	1	-2
560.632	1	-5
560.802	1	8
560.972	1	-10
561.142	1	-1
561.312	1	5
561.482	1	3
561.652	1	-4
561.822	1	2
561.992	1	3
562.162	1	-2
562.331	1	-6
562.501	1	2
562.671	1	-3
562.841	1	-14
563.011	1	4
563.181	1	-6
563.351	1	-10
563.521	1	-6
563.691	1	2
563.861	1	-3
564.031	1	0
564.201	1	-4
564.370	1	5
564.540	1	-5
564.710	1	-7
564.880	1	6
565.050	1	7
565.220	1	5
565.390	1	-3
565.560	1	7
565.730	1	6
565.900	1	5
566.069	1	6
566.239	1	-2
566.409	1	-1
566.579	1	0
566.749	1	6
566.919	1	-7
567.089	1	-7
567.259	1	6
567.429	1	-11
567.599	1	11
567.768	1	-9
567.938	1	-8
568.108	1	4
568.278	1	5
568.448	1	-7
568.618	1	4
568.788	1	0
568.958	1	-1
569.128	1	-10
569.297	1	-2
569.467	1	9
569.637	1	7
569.807	1	-2
569.977	1	-9
570.147	1	-7
570.317	1	4
570.487	1	-11
570.656	1	6
570.826	1	-3
570.996	1	6
571.166	1	3
571.336	1	-7
571.506	1	-7
571.676	1	6
571.846	1	1
572.015	1	3
572.185	1	4
572.355	1	-3
572.525	1	-3
572.695	1	-3
572.865	1	8
573.035	1	3
573.205	1	1
573.374	1	-13
573.544	1	4
573.714	1	-6
573.884	1	-11
574.054	1	-2
574.224	1	6
574.394	1	4
574.563	1	-7
574.733	1	0
574.903	1	5
575.073	1	0
575.243	1	-7
575.413	1	-15
575.583	1	-7
575.752	1	-2
575.922	1	2
576.092	1	-4
576.262	1	1
576.432	1	0
576.602	1	0
576.772	1	0
576.941	1	0
577.111	1	-1
577.281	1	2
577.451	1	3
577.621	1	-5
577.791	1	-4
577.960	1	-5
578.130	1	1
578.300	1	-13
578.470	1	6
578.640	1	-4
578.810	1	-3
578.979	1	7
579.149	1	3
579.319	1	3
579.489	1	4
579.659	1	-1
579.829	1	-9
579.998	1	-14
580.168	1	-11
580.338	1	3
580.508	1	-2
580.678	1	5
580.848	1	-9
581.017	1	5
581.187	1	1
581.357	1	3
581.527	1	-8
581.697	1	-1
581.867	1	-4
582.036	1	-13
582.206	1	-2
582.376	1	-4
582.546	1	-5
582.716	1	6
582.885	1	-5
583.055	1	-9
583.225	1	2
583.395	1	-2
583.565	1	3
583.735	1	4
583.904	1	2
584.074	1	1
584.244	1	-8
584.414	1	-2
584.584	1	-10
584.753	1	3
584.923	1	-8
585.093	1	-3
585.263	1	-5
585.433	1	0
585.602	1	-1
585.772	1	4
585.942	1	-12
586.112	1	8
586.282	1	-2
586.451	1	9
586.621	1	0
586.791	1	-16
586.961	1	-4
587.131	1	-8
587.300	1	7
587.470	1	-4
587.640	1	-6
587.810	1	-13
587.980	1	2
588.149	1	2
588.319	1	6
588.489	1	4
588.659	1	-5
588.829	1	1
588.998	1	-6
589.168	1	4
589.338	1	2
589.508	1	-2
589.677	1	-1
589.847	1	8
590.017	1	3
590.187	1	-2
590.357	1	-7
590.526	1	-6
590.696	1	-3
590.866	1	-5
591.036	1	6
591.205	1	10
591.375	1	7
591.545	1	-5
591.715	1	-5
591.885	1	6
592.054	1	3
592.224	1	-1
592.394	1	-7
592.564	1	3
592.733	1	0
592.903	1	0
593.073	1	-7
593.243	1	3
593.412	1	-7
593.582	1	-8
593.752	1	-1
593.922	1	-3
594.091	1	0
594.261	1	-3
594.431	1	5
594.601	1	-10
594.771	1	4
594.940	1	-6
595.110	1	-2
595.280	1	-8
595.450	1	3
595.619	1	2
595.789	1	-8
595.959	1	-5
596.129	1	1
596.298	1	5
596.468	1	-8
596.638	1	-1
596.808	1	-7
596.977	1	-3
597.147	1	-4
597.317	1	-2
597.487	1	4
597.656	1	0
597.826	1	3
597.996	1	-4
598.166	1	-4
598.335	1	-9
598.505	1	9
598.675	1	6
598.844	1	6
599.014	1	-15
599.184	1	2
599.354	1	9
599.523	1	0
599.693	1	8
599.863	1	8
600.033	1	-11
600.202	1	-2
600.372	1	-9
600.542	1	-5
600.712	1	-2
600.881	1	1
601.051	1	6
601.221	1	-5
601.390	1	0
601.560	1	0
601.730	1	-1
601.900	1	-7
602.069	1	4
602.239	1	-4
602.409	1	4
602.578	1	7
602.748	1	10
602.918	1	-3
603.088	1	11
603.257	1	-9
603.427	1	3
603.597	1	-1
603.767	1	-9
603.936	1	5
604.106	1	-2
604.276	1	3
604.445	1	-12
604.615	1	2
604.785	1	-1
604.954	1	2
605.124	1	-5
605.294	1	-5
605.464	1	-12
605.633	1	1
605.803	1	-2
605.973	1	1
606.142	1	0
606.312	1	4
606.482	1	-3
606.652	1	1
606.821	1	-3
606.991	1	4
607.161	1	-1
607.330	1	-1
607.500	1	-2
607.670	1	-2
607.839	1	-4
608.009	1	-2
608.179	1	1
608.348	1	-2
608.518	1	3
608.688	1	2
608.858	1	-8
609.027	1	0
609.197	1	3
609.367	1	-8
609.536	1	0
609.706	1	0
609.876	1	6
610.045	1	-4
610.215	1	5
610.385	1	0
610.554	1	1
610.724	1	-2
610.894	1	-3
611.063	1	-6
611.233	1	4
611.403	1	6
611.572	1	-1
611.742	1	-6
611.912	1	4
612.081	1	6
612.251	1	5
612.421	1	5
612.590	1	9
612.760	1	-6
612.930	1	1
613.099	1	7
613.269	1	-3
613.439	1	-6
613.608	1	3
613.778	1	-1
613.948	1	11
614.117	1	6
614.287	1	-1
614.457	1	-3
614.626	1	-3
614.796	1	-2
614.966	1	6
615.135	1	12
615.305	1	0
615.475	1	1
615.644	1	10
615.814	1	11
615.984	1	-6
616.153	1	2
616.323	1	-12
616.493	1	-6
616.662	1	-7
616.832	1	4
617.002	1	2
617.171	1	5
617.341	1	2
617.511	1	-5
617.680	1	-13
617.850	1	7
618.019	1	-8
618.189	1	14
618.359	1	-6
618.528	1	4
618.698	1	-2
618.868	1	0
619.037	1	-1
619.207	1	-2
619.377	1	-1
619.546	1	-1
619.716	1	-6
619.885	1	-10
620.055	1	-10
620.225	1	3
620.394	1	0
620.564	1	9
620.734	1	-4
620.903	1	-16
621.073	1	5
621.242	1	-1
621.412	1	-8
621.582	1	12
621.751	1	-7
621.921	1	2
622.091	1	-2
622.260	1	13
622.430	1	3
622.599	1	-1
622.769	1	-5
622.939	1	-2
623.108	1	-7
623.278	1	2
623.448	1	-2
623.617	1	8
623.787	1	7
623.956	1	0
624.126	1	1
624.296	1	3
624.465	1	8
624.635	1	-4
624.804	1	-5
624.974	1	-4
625.144	1	3
625.313	1	17
625.483	1	4
625.652	1	-6
625.822	1	8
625.992	1	-3
626.161	1	4
626.331	1	-6
626.501	1	-8
626.670	1	1
626.840	1	0
627.009	1	6
627.179	1	-2
627.348	1	-7
627.518	1	3
627.688	1	-8
627.857	1	3
628.027	1	-1
628.196	1	3
628.366	1	-12
628.536	1	-6
628.705	1	-16
628.875	1	-6
629.044	1	-6
629.214	1	2
629.384	1	2
629.553	1	-2
629.723	1	-1
629.892	1	9
630.062	1	6
630.232	1	4
630.401	1	-2
630.571	1	-5
630.740	1	-1
630.910	1	6
631.079	1	-9
631.249	1	-11
631.419	1	7
631.588	1	7
631.758	1	-5
631.927	1	10
632.097	1	-8
632.266	1	2
632.436	1	0
632.606	1	5
632.775	1	-1
632.945	1	-4
633.114	1	-6
633.284	1	1
633.453	1	-1
633.623	1	11
633.793	1	-3
633.962	1	3
634.132	1	9
634.301	1	5
634.471	1	0
634.640	1	-16
634.810	1	5
634.979	1	-6
635.149	1	-8
635.319	1	0
635.488	1	6
635.658	1	-3
635.827	1	-4
635.997	1	-6
636.166	1	0
636.336	1	-9
636.505	1	8
636.675	1	-3
636.845	1	-1
637.014	1	-15
637.184	1	5
637.353	1	3
637.523	1	1
637.692	1	-5
637.862	1	-6
638.031	1	-11
638.201	1	3
638.370	1	-1
638.540	1	-8
638.710	1	-7
638.879	1	-4
639.049	1	2
639.218	1	5
639.388	1	2
639.557	1	0
639.727	1	4
639.896	1	-2
640.066	1	-2
640.235	1	2
640.405	1	-2
640.574	1	3
640.744	1	-2
640.914	1	-1
641.083	1	0
641.253	1	-4
641.422	1	-6
641.592	1	3
641.761	1	-5
641.931	1	10
642.100	1	-3
642.270	1	1
642.439	1	-1
642.609	1	-2
642.778	1	1
642.948	1	8
643.117	1	5
643.287	1	-5
643.456	1	-6
643.626	1	-8
643.795	1	5
643.965	1	-2
644.134	1	-4
644.304	1	-6
644.473	1	-1
644.643	1	-3
644.812	1	-3
644.982	1	3
645.151	1	2
645.321	1	0
645.490	1	13
645.660	1	-1
645.829	1	-9
645.999	1	-12
646.168	1	13
646.338	1	0
646.507	1	-11
646.677	1	-7
646.846	1	-2
647.016	1	8
647.185	1	7
647.355	1	4
647.524	1	-3
647.694	1	-14
647.863	1	4
648.033	1	2
648.202	1	4
648.372	1	-20
648.541	1	1
648.711	1	2
648.880	1	9
649.050	1	4
649.219	1	4
649.389	1	-13
649.558	1	5
649.728	1	-7
649.897	1	5
650.067	1	-1
650.236	1	-12
650.406	1	-7
650.575	1	-5
650.745	1	-3
650.914	1	-2
651.084	1	5
651.253	1	7
651.423	1	-3
651.592	1	-7
651.762	1	-13
651.931	1	-5
652.101	1	0
652.270	1	-2
652.440	1	12
652.609	1	-1
652.778	1	11
652.948	1	-1
653.117	1	0
653.287	1	-20
653.456	1	-9
653.626	1	1
653.795	1	-6
653.965	1	0
654.134	1	-8
654.304	1	-4
654.473	1	5
654.643	1	1
654.812	1	3
654.982	1	-3
655.151	1	3
655.320	1	-4
655.490	1	-12
655.659	1	3
655.829	1	8
655.998	1	10
656.168	1	-8
656.337	1	-2
656.507	1	-10
656.676	1	-4
656.846	1	-1
657.015	1	2
657.184	1	-7
657.354	1	4
657.523	1	5
657.693	1	1
657.862	1	-10
658.032	1	-2
658.201	1	-3
658.371	1	-2
658.540	1	-8
658.709	1	2
658.879	1	7
659.048	1	4
659.218	1	3
659.387	1	4
659.557	1	4
659.726	1	-1
659.895	1	-8
660.065	1	-10
660.234	1	-10
660.404	1	9
660.573	1	1
660.743	1	-1
660.912	1	2
661.081	1	-10
661.251	1	-8
661.420	1	3
661.590	1	0
661.759	1	5
661.929	1	-11
662.098	1	-4
662.267	1	-6
662.437	1	3
662.606	1	-3
662.776	1	1
662.945	1	2
663.115	1	0
663.284	1	7
663.453	1	-12
663.623	1	3
663.792	1	7
663.962	1	1
664.131	1	-15
664.300	1	0
664.470	1	-6
664.639	1	-3
664.809	1	2
664.978	1	8
665.148	1	-6
665.317	1	-3
665.486	1	-1
665.656	1	-1
665.825	1	5
665.995	1	-8
666.164	1	-2
666.333	1	-6
666.503	1	-7
666.672	1	7
666.842	1	0
667.011	1	-12
667.180	1	-7
667.350	1	2
667.519	1	3
667.689	1	5
667.858	1	6
668.027	1	-1
668.197	1	-16
668.366	1	2
668.536	1	-3
668.705	1	-5
668.874	1	7
669.044	1	2
669.213	1	3
669.382	1	6
669.552	1	1
669.721	1	-16
669.891	1	-3
670.060	1	2
670.229	1	4
670.399	1	3
670.568	1	4
670.738	1	-8
670.907	1	4
671.076	1	5
671.246	1	8
671.415	1	5
671.584	1	10
671.754	1	-8
671.923	1	-8
672.093	1	0
672.262	1	5
672.431	1	6
672.601	1	-6
672.770	1	-5
672.939	1	9
673.109	1	-9
673.278	1	-1
673.448	1	1
673.617	1	9
673.786	1	-10
