325.333	1	20
325.504	1	5
325.675	1	32
325.846	1	15
326.017	1	26
326.188	1	19
326.359	1	28
326.531	1	7
326.702	1	15
326.873	1	31
327.044	1	17
327.215	1	23
327.386	1	10
327.557	1	9
327.728	1	29
327.899	1	17
328.070	1	24
328.241	1	17
328.412	1	24
328.583	1	27
328.754	1	35
328.926	1	34
329.097	1	18
329.268	1	36
329.439	1	40
329.610	1	31
329.781	1	18
329.952	1	25
330.123	1	24
330.294	1	16
330.465	1	19
330.636	1	38
330.807	1	22
330.978	1	25
331.149	1	16
331.320	1	36
331.492	1	29
331.663	1	16
331.834	1	42
332.005	1	21
332.176	1	34
332.347	1	18
332.518	1	26
332.689	1	28
332.860	1	20
333.031	1	34
333.202	1	25
333.373	1	40
333.544	1	34
333.715	1	26
333.886	1	33
334.057	1	24
334.228	1	37
334.399	1	38
334.570	1	31
334.741	1	15
334.912	1	26
335.084	1	28
335.255	1	32
335.426	1	31
335.597	1	40
335.768	1	35
335.939	1	35
336.110	1	37
336.281	1	33
336.452	1	44
336.623	1	22
336.794	1	35
336.965	1	19
337.136	1	43
337.307	1	23
337.478	1	35
337.649	1	24
337.820	1	27
337.991	1	42
338.162	1	32
338.333	1	32
338.504	1	43
338.675	1	30
338.846	1	26
339.017	1	45
339.188	1	36
339.359	1	43
339.530	1	38
339.701	1	34
339.872	1	46
340.043	1	41
340.214	1	50
340.385	1	34
340.556	1	45
340.727	1	38
340.898	1	38
341.069	1	34
341.240	1	44
341.411	1	38
341.582	1	28
341.753	1	42
341.924	1	53
342.095	1	34
342.266	1	48
342.437	1	35
342.608	1	40
342.779	1	36
342.950	1	36
343.121	1	46
343.292	1	43
343.463	1	50
343.634	1	49
343.805	1	47
343.976	1	53
344.147	1	54
344.318	1	31
344.489	1	47
344.660	1	52
344.831	1	58
345.002	1	54
345.173	1	42
345.344	1	47
345.515	1	37
345.686	1	48
345.857	1	48
346.028	1	51
346.199	1	48
346.370	1	51
346.541	1	44
346.712	1	52
346.883	1	43
347.054	1	53
347.225	1	45
347.396	1	51
347.567	1	33
347.738	1	53
347.909	1	59
348.080	1	47
348.251	1	51
348.422	1	65
348.593	1	52
348.764	1	50
348.935	1	55
349.106	1	45
349.277	1	47
349.448	1	49
349.619	1	52
349.790	1	57
349.961	1	48
350.132	1	65
350.303	1	60
350.474	1	57
350.645	1	55
350.816	1	52
350.987	1	76
351.157	1	62
351.328	1	56
351.499	1	55
351.670	1	45
351.841	1	62
352.012	1	67
352.183	1	61
352.354	1	59
352.525	1	58
352.696	1	44
352.867	1	61
353.038	1	63
353.209	1	58
353.380	1	64
353.551	1	69
353.722	1	64
353.893	1	61
354.064	1	59
354.235	1	61
354.406	1	57
354.576	1	66
354.747	1	62
354.918	1	57
355.089	1	70
355.260	1	53
355.431	1	62
355.602	1	61
355.773	1	63
355.944	1	70
356.115	1	66
356.286	1	70
356.457	1	65
356.628	1	63
356.799	1	63
356.970	1	77
357.141	1	72
357.311	1	74
357.482	1	60
357.653	1	58
357.824	1	73
357.995	1	78
358.166	1	71
358.337	1	67
358.508	1	87
358.679	1	61
358.850	1	78
359.021	1	78
359.192	1	72
359.363	1	79
359.533	1	64
359.704	1	73
359.875	1	68
360.046	1	75
360.217	1	74
360.388	1	82
360.559	1	81
360.730	1	74
360.901	1	80
361.072	1	71
361.243	1	68
361.414	1	67
361.584	1	63
361.755	1	72
361.926	1	82
362.097	1	69
362.268	1	86
362.439	1	64
362.610	1	81
362.781	1	68
362.952	1	69
363.123	1	73
363.293	1	74
363.464	1	74
363.635	1	72
363.806	1	77
363.977	1	78
364.148	1	69
364.319	1	71
364.490	1	79
364.661	1	66
364.832	1	79
365.002	1	74
365.173	1	83
365.344	1	80
365.515	1	81
365.686	1	85
365.857	1	82
366.028	1	75
366.199	1	75
366.370	1	71
366.540	1	80
366.711	1	90
366.882	1	76
367.053	1	84
367.224	1	79
367.395	1	82
367.566	1	85
367.737	1	79
367.908	1	77
368.078	1	76
368.249	1	84
368.420	1	85
368.591	1	86
368.762	1	84
368.933	1	81
369.104	1	85
369.274	1	93
369.445	1	90
369.616	1	80
369.787	1	79
369.958	1	83
370.129	1	76
370.300	1	84
370.471	1	74
370.641	1	77
370.812	1	83
370.983	1	76
371.154	1	75
371.325	1	67
371.496	1	75
371.667	1	75
371.837	1	84
372.008	1	74
372.179	1	80
372.350	1	79
372.521	1	85
372.692	1	84
372.863	1	77
373.033	1	80
373.204	1	74
373.375	1	79
373.546	1	77
373.717	1	76
373.888	1	96
374.059	1	86
374.229	1	81
374.400	1	86
374.571	1	81
374.742	1	83
374.913	1	76
375.084	1	73
375.254	1	74
375.425	1	86
375.596	1	87
375.767	1	91
375.938	1	72
376.109	1	80
376.279	1	101
376.450	1	79
376.621	1	95
376.792	1	94
376.963	1	87
377.134	1	96
377.304	1	92
377.475	1	90
377.646	1	83
377.817	1	100
377.988	1	88
378.159	1	94
378.329	1	101
378.500	1	86
378.671	1	97
378.842	1	85
379.013	1	90
379.184	1	94
379.354	1	90
379.525	1	93
379.696	1	94
379.867	1	87
380.038	1	92
380.209	1	98
380.379	1	88
380.550	1	81
380.721	1	88
380.892	1	88
381.063	1	91
381.233	1	91
381.404	1	86
381.575	1	95
381.746	1	95
381.917	1	88
382.087	1	95
382.258	1	96
382.429	1	93
382.600	1	93
382.771	1	84
382.941	1	96
383.112	1	93
383.283	1	91
383.454	1	99
383.625	1	88
383.795	1	109
383.966	1	112
384.137	1	98
384.308	1	94
384.479	1	102
384.649	1	101
384.820	1	105
384.991	1	105
385.162	1	107
385.333	1	102
385.503	1	106
385.674	1	103
385.845	1	100
386.016	1	117
386.187	1	98
386.357	1	114
386.528	1	107
386.699	1	98
386.870	1	110
387.041	1	111
387.211	1	102
387.382	1	112
387.553	1	106
387.724	1	113
387.894	1	112
388.065	1	108
388.236	1	102
388.407	1	113
388.578	1	107
388.748	1	108
388.919	1	112
389.090	1	125
389.261	1	104
389.431	1	92
389.602	1	103
389.773	1	114
389.944	1	114
390.114	1	106
390.285	1	110
390.456	1	101
390.627	1	116
390.798	1	103
390.968	1	108
391.139	1	112
391.310	1	112
391.481	1	101
391.651	1	116
391.822	1	116
391.993	1	105
392.164	1	102
392.334	1	103
392.505	1	110
392.676	1	86
392.847	1	106
393.017	1	114
393.188	1	108
393.359	1	123
393.530	1	127
393.700	1	112
393.871	1	115
394.042	1	97
394.213	1	103
394.383	1	112
394.554	1	102
394.725	1	106
394.896	1	118
395.066	1	107
395.237	1	120
395.408	1	115
395.579	1	116
395.749	1	126
395.920	1	123
396.091	1	121
396.262	1	116
396.432	1	115
396.603	1	119
396.774	1	112
396.945	1	117
397.115	1	130
397.286	1	117
397.457	1	113
397.627	1	121
397.798	1	122
397.969	1	119
398.140	1	125
398.310	1	117
398.481	1	125
398.652	1	125
398.823	1	121
398.993	1	106
399.164	1	130
399.335	1	124
399.505	1	117
399.676	1	121
399.847	1	111
400.018	1	111
400.188	1	128
400.359	1	127
400.530	1	119
400.700	1	112
400.871	1	126
401.042	1	118
401.213	1	128
401.383	1	124
401.554	1	119
401.725	1	113
401.895	1	112
402.066	1	116
402.237	1	123
402.408	1	115
402.578	1	123
402.749	1	109
402.920	1	136
403.090	1	123
403.261	1	116
403.432	1	121
403.603	1	119
403.773	1	128
403.944	1	130
404.115	1	119
404.285	1	127
404.456	1	124
404.627	1	139
404.797	1	130
404.968	1	120
405.139	1	132
405.310	1	110
405.480	1	120
405.651	1	123
405.822	1	121
405.992	1	136
406.163	1	110
406.334	1	127
406.504	1	129
406.675	1	114
406.846	1	126
407.016	1	133
407.187	1	134
407.358	1	115
407.528	1	126
407.699	1	130
407.870	1	127
408.041	1	120
408.211	1	130
408.382	1	132
408.553	1	129
408.723	1	138
408.894	1	124
409.065	1	130
409.235	1	125
409.406	1	132
409.577	1	136
409.747	1	131
409.918	1	133
410.089	1	131
410.259	1	120
410.430	1	126
410.601	1	138
410.771	1	137
410.942	1	122
411.113	1	132
411.283	1	124
411.454	1	132
411.625	1	128
411.795	1	123
411.966	1	133
412.137	1	135
412.307	1	134
412.478	1	125
412.649	1	118
412.819	1	129
412.990	1	135
413.161	1	118
413.331	1	125
413.502	1	111
413.672	1	116
413.843	1	112
414.014	1	119
414.184	1	123
414.355	1	126
414.526	1	131
414.696	1	130
414.867	1	112
415.038	1	119
415.208	1	128
415.379	1	128
415.550	1	124
415.720	1	110
415.891	1	122
416.062	1	129
416.232	1	134
416.403	1	125
416.573	1	108
416.744	1	126
416.915	1	124
417.085	1	128
417.256	1	126
417.427	1	124
417.597	1	115
417.768	1	125
417.939	1	112
418.109	1	131
418.280	1	129
418.450	1	127
418.621	1	133
418.792	1	120
418.962	1	116
419.133	1	115
419.304	1	125
419.474	1	127
419.645	1	129
419.815	1	123
419.986	1	141
420.157	1	121
420.327	1	119
420.498	1	120
420.669	1	136
420.839	1	135
421.010	1	125
421.180	1	126
421.351	1	126
421.522	1	128
421.692	1	126
421.863	1	123
422.033	1	116
422.204	1	129
422.375	1	127
422.545	1	129
422.716	1	111
422.886	1	120
423.057	1	129
423.228	1	100
423.398	1	115
423.569	1	109
423.740	1	119
423.910	1	120
424.081	1	125
424.251	1	116
424.422	1	119
424.593	1	126
424.763	1	117
424.934	1	119
425.104	1	125
425.275	1	107
425.445	1	107
425.616	1	118
425.787	1	117
425.957	1	101
426.128	1	113
426.298	1	116
426.469	1	108
426.640	1	107
426.810	1	86
426.981	1	129
427.151	1	109
427.322	1	117
427.493	1	108
427.663	1	118
427.834	1	111
428.004	1	115
428.175	1	104
428.345	1	107
428.516	1	113
428.687	1	129
428.857	1	127
429.028	1	99
429.198	1	103
429.369	1	114
429.540	1	112
429.710	1	117
429.881	1	105
430.051	1	102
430.222	1	120
430.392	1	113
430.563	1	118
430.734	1	124
430.904	1	111
431.075	1	118
431.245	1	105
431.416	1	117
431.586	1	103
431.757	1	120
431.927	1	121
432.098	1	111
432.269	1	106
432.439	1	105
432.610	1	121
432.780	1	125
432.951	1	105
433.121	1	106
433.292	1	126
433.462	1	99
433.633	1	104
433.804	1	126
433.974	1	110
434.145	1	100
434.315	1	116
434.486	1	105
434.656	1	111
434.827	1	111
434.997	1	112
435.168	1	117
435.339	1	123
435.509	1	115
435.680	1	111
435.850	1	91
436.021	1	115
436.191	1	106
436.362	1	119
436.532	1	106
436.703	1	110
436.873	1	102
437.044	1	102
437.214	1	104
437.385	1	105
437.556	1	112
437.726	1	102
437.897	1	99
438.067	1	108
438.238	1	109
438.408	1	101
438.579	1	101
438.749	1	103
438.920	1	100
439.090	1	93
439.261	1	107
439.431	1	83
439.602	1	90
439.772	1	109
439.943	1	95
440.113	1	99
440.284	1	110
440.455	1	101
440.625	1	107
440.796	1	108
440.966	1	108
441.137	1	102
441.307	1	97
441.478	1	88
441.648	1	95
441.819	1	103
441.989	1	106
442.160	1	91
442.330	1	105
442.501	1	96
442.671	1	96
442.842	1	95
443.012	1	107
443.183	1	98
443.353	1	97
443.524	1	109
443.694	1	104
443.865	1	103
444.035	1	105
444.206	1	98
444.376	1	97
444.547	1	94
444.717	1	97
444.888	1	94
445.058	1	95
445.229	1	104
445.399	1	104
445.570	1	98
445.740	1	96
445.911	1	100
446.081	1	98
446.252	1	98
446.422	1	100
446.593	1	101
446.763	1	102
446.934	1	84
447.104	1	83
447.275	1	89
447.445	1	104
447.616	1	97
447.786	1	95
447.957	1	97
448.127	1	92
448.298	1	91
448.468	1	93
448.639	1	92
448.809	1	92
448.979	1	100
449.150	1	89
449.320	1	103
449.491	1	96
449.661	1	88
449.832	1	83
450.002	1	87
450.173	1	90
450.343	1	87
450.514	1	96
450.684	1	106
450.855	1	88
451.025	1	80
451.196	1	83
451.366	1	101
451.537	1	92
451.707	1	91
451.878	1	92
452.048	1	79
452.218	1	88
452.389	1	88
452.559	1	100
452.730	1	96
452.900	1	82
453.071	1	97
453.241	1	92
453.412	1	82
453.582	1	94
453.753	1	88
453.923	1	80
454.093	1	77
454.264	1	87
454.434	1	91
454.605	1	72
454.775	1	89
454.946	1	89
455.116	1	91
455.287	1	75
455.457	1	74
455.628	1	71
455.798	1	92
455.968	1	82
456.139	1	85
456.309	1	81
456.480	1	88
456.650	1	72
456.821	1	79
456.991	1	89
457.161	1	70
457.332	1	71
457.502	1	83
457.673	1	66
457.843	1	82
458.014	1	73
458.184	1	82
458.355	1	78
458.525	1	76
458.695	1	68
458.866	1	78
459.036	1	79
459.207	1	90
459.377	1	75
459.548	1	87
459.718	1	81
459.888	1	69
460.059	1	72
460.229	1	64
460.400	1	74
460.570	1	85
460.740	1	80
460.911	1	69
461.081	1	80
461.252	1	87
461.422	1	76
461.593	1	84
461.763	1	88
461.933	1	75
462.104	1	73
462.274	1	76
462.445	1	70
462.615	1	83
462.785	1	79
462.956	1	66
463.126	1	88
463.297	1	79
463.467	1	73
463.638	1	82
463.808	1	78
463.978	1	65
464.149	1	63
464.319	1	74
464.490	1	65
464.660	1	73
464.830	1	80
465.001	1	62
465.171	1	62
465.342	1	78
465.512	1	79
465.682	1	65
465.853	1	75
466.023	1	71
466.194	1	74
466.364	1	78
466.534	1	63
466.705	1	84
466.875	1	57
467.045	1	67
467.216	1	67
467.386	1	69
467.557	1	77
467.727	1	61
467.897	1	62
468.068	1	57
468.238	1	66
468.409	1	67
468.579	1	59
468.749	1	60
468.920	1	45
469.090	1	67
469.260	1	61
469.431	1	63
469.601	1	65
469.772	1	65
469.942	1	69
470.112	1	54
470.283	1	68
470.453	1	71
470.623	1	61
470.794	1	63
470.964	1	49
471.135	1	70
471.305	1	65
471.475	1	64
471.646	1	57
471.816	1	58
471.986	1	55
472.157	1	60
472.327	1	77
472.497	1	63
472.668	1	62
472.838	1	62
473.009	1	70
473.179	1	57
473.349	1	65
473.520	1	61
473.690	1	69
473.860	1	61
474.031	1	60
474.201	1	65
474.371	1	63
474.542	1	52
474.712	1	61
474.882	1	61
475.053	1	60
475.223	1	54
475.394	1	48
475.564	1	62
475.734	1	56
475.905	1	59
476.075	1	68
476.245	1	63
476.416	1	40
476.586	1	59
476.756	1	54
476.927	1	58
477.097	1	56
477.267	1	59
477.438	1	66
477.608	1	77
477.778	1	55
477.949	1	43
478.119	1	64
478.289	1	58
478.460	1	46
478.630	1	61
478.800	1	56
478.971	1	50
479.141	1	65
479.311	1	61
479.482	1	49
479.652	1	55
479.822	1	56
479.993	1	55
480.163	1	50
480.333	1	60
480.504	1	63
480.674	1	60
480.844	1	49
481.015	1	62
481.185	1	55
481.355	1	57
481.525	1	51
481.696	1	53
481.866	1	57
482.036	1	50
482.207	1	56
482.377	1	44
482.547	1	56
482.718	1	58
482.888	1	56
483.058	1	51
483.229	1	51
483.399	1	49
483.569	1	43
483.740	1	50
483.910	1	46
484.080	1	49
484.250	1	35
484.421	1	45
484.591	1	50
484.761	1	55
484.932	1	47
485.102	1	57
485.272	1	43
485.443	1	52
485.613	1	42
485.783	1	51
485.953	1	52
486.124	1	51
486.294	1	46
486.464	1	52
486.635	1	52
486.805	1	56
486.975	1	33
487.146	1	55
487.316	1	51
487.486	1	55
487.656	1	53
487.827	1	46
487.997	1	40
488.167	1	51
488.338	1	49
488.508	1	63
488.678	1	48
488.848	1	44
489.019	1	41
489.189	1	49
489.359	1	44
489.529	1	51
489.700	1	51
489.870	1	48
490.040	1	42
490.211	1	44
490.381	1	36
490.551	1	49
490.721	1	43
490.892	1	27
491.062	1	45
491.232	1	47
491.402	1	44
491.573	1	53
491.743	1	42
491.913	1	41
492.084	1	45
492.254	1	42
492.424	1	41
492.594	1	35
492.765	1	47
492.935	1	38
493.105	1	38
493.275	1	48
493.446	1	29
493.616	1	35
493.786	1	41
493.956	1	37
494.127	1	34
494.297	1	34
494.467	1	40
494.637	1	48
494.808	1	50
494.978	1	42
495.148	1	41
495.318	1	43
495.489	1	36
495.659	1	46
495.829	1	39
495.999	1	44
496.170	1	47
496.340	1	45
496.510	1	47
496.680	1	40
496.851	1	52
497.021	1	30
497.191	1	36
497.361	1	29
497.532	1	41
497.702	1	46
497.872	1	46
498.042	1	27
498.213	1	41
498.383	1	38
498.553	1	47
498.723	1	32
498.894	1	49
499.064	1	43
499.234	1	43
499.404	1	39
499.574	1	47
499.745	1	35
499.915	1	41
500.085	1	38
500.255	1	33
500.426	1	35
500.596	1	26
500.766	1	38
500.936	1	38
501.106	1	26
501.277	1	22
501.447	1	40
501.617	1	46
501.787	1	33
501.958	1	34
502.128	1	31
502.298	1	39
502.468	1	25
502.638	1	36
502.809	1	37
502.979	1	42
503.149	1	30
503.319	1	43
503.489	1	19
503.660	1	34
503.830	1	40
504.000	1	31
504.170	1	24
504.340	1	25
504.511	1	27
504.681	1	33
504.851	1	34
505.021	1	32
505.192	1	18
505.362	1	38
505.532	1	34
505.702	1	42
505.872	1	29
506.043	1	34
506.213	1	35
506.383	1	30
506.553	1	24
506.723	1	27
506.893	1	42
507.064	1	40
507.234	1	35
507.404	1	35
507.574	1	27
507.744	1	30
507.915	1	29
508.085	1	33
508.255	1	35
508.425	1	29
508.595	1	32
508.766	1	36
508.936	1	36
509.106	1	31
509.276	1	37
509.446	1	26
509.616	1	28
509.787	1	30
509.957	1	43
510.127	1	20
510.297	1	29
510.467	1	46
510.638	1	31
510.808	1	38
510.978	1	27
511.148	1	29
511.318	1	32
511.488	1	38
511.659	1	27
511.829	1	30
511.999	1	33
512.169	1	34
512.339	1	38
512.509	1	24
512.680	1	23
512.850	1	31
513.020	1	31
513.190	1	29
513.360	1	30
513.530	1	28
513.700	1	32
513.871	1	30
514.041	1	30
514.211	1	38
514.381	1	36
514.551	1	29
514.721	1	36
514.892	1	27
515.062	1	31
515.232	1	23
515.402	1	31
515.572	1	33
515.742	1	24
515.912	1	35
516.083	1	36
516.253	1	27
516.423	1	29
516.593	1	31
516.763	1	26
516.933	1	27
517.104	1	30
517.274	1	20
517.444	1	39
517.614	1	26
517.784	1	24
517.954	1	19
518.124	1	26
518.294	1	16
518.465	1	24
518.635	1	35
518.805	1	22
518.975	1	37
519.145	1	27
519.315	1	26
519.485	1	24
519.656	1	21
519.826	1	15
519.996	1	30
520.166	1	29
520.336	1	16
520.506	1	24
520.676	1	24
520.846	1	26
521.017	1	26
521.187	1	13
521.357	1	22
521.527	1	19
521.697	1	15
521.867	1	29
522.037	1	22
522.207	1	23
522.377	1	32
522.548	1	11
522.718	1	21
522.888	1	17
523.058	1	22
523.228	1	8
523.398	1	19
523.568	1	8
523.738	1	17
523.909	1	21
524.079	1	25
524.249	1	12
524.419	1	18
524.589	1	28
524.759	1	25
524.929	1	26
525.099	1	24
525.269	1	25
525.439	1	17
525.610	1	40
525.780	1	29
525.950	1	20
526.120	1	35
526.290	1	16
526.460	1	11
526.630	1	25
526.800	1	20
526.970	1	21
527.140	1	26
527.311	1	22
527.481	1	35
527.651	1	17
527.821	1	17
527.991	1	16
528.161	1	17
528.331	1	3
528.501	1	15
528.671	1	15
528.841	1	21
529.011	1	27
529.181	1	12
529.352	1	13
529.522	1	29
529.692	1	16
529.862	1	12
530.032	1	21
530.202	1	4
530.372	1	21
530.542	1	15
530.712	1	21
530.882	1	14
531.052	1	24
531.222	1	21
531.392	1	20
531.563	1	24
531.733	1	16
531.903	1	17
532.073	1	15
532.243	1	26
532.413	1	28
532.583	1	30
532.753	1	13
532.923	1	22
533.093	1	13
533.263	1	16
533.433	1	9
533.603	1	17
533.773	1	11
533.943	1	12
534.113	1	13
534.284	1	16
534.454	1	20
534.624	1	21
534.794	1	17
534.964	1	19
535.134	1	13
535.304	1	27
535.474	1	24
535.644	1	17
535.814	1	19
535.984	1	14
536.154	1	22
536.324	1	21
536.494	1	25
536.664	1	12
536.834	1	11
537.004	1	19
537.174	1	18
537.344	1	15
537.514	1	16
537.685	1	25
537.855	1	14
538.025	1	19
538.195	1	15
538.365	1	18
538.535	1	12
538.705	1	16
538.875	1	15
539.045	1	12
539.215	1	8
539.385	1	13
539.555	1	14
539.725	1	15
539.895	1	23
540.065	1	14
540.235	1	16
540.405	1	18
540.575	1	15
540.745	1	25
540.915	1	9
541.085	1	2
541.255	1	8
541.425	1	13
541.595	1	18
541.765	1	21
541.935	1	17
542.105	1	14
542.275	1	8
542.445	1	17
542.615	1	19
542.785	1	13
542.955	1	23
543.125	1	17
543.295	1	23
543.465	1	26
543.635	1	8
543.805	1	18
543.975	1	10
544.145	1	9
544.315	1	4
544.485	1	12
544.655	1	25
544.825	1	11
544.995	1	14
545.165	1	17
545.335	1	20
545.505	1	10
545.675	1	18
545.845	1	13
546.015	1	13
546.185	1	14
546.355	1	18
546.525	1	11
546.695	1	9
546.865	1	15
547.035	1	10
547.205	1	24
547.375	1	13
547.545	1	14
547.715	1	8
547.885	1	5
548.055	1	17
548.225	1	15
548.395	1	18
548.565	1	13
548.735	1	8
548.905	1	16
549.075	1	24
549.245	1	12
549.415	1	21
549.585	1	10
549.755	1	17
549.925	1	15
550.095	1	6
550.265	1	5
550.435	1	10
550.605	1	4
550.775	1	2
550.945	1	21
551.115	1	23
551.285	1	10
551.455	1	20
551.625	1	3
551.795	1	5
551.965	1	6
552.135	1	10
552.305	1	26
552.475	1	17
552.645	1	10
552.815	1	6
552.985	1	18
553.155	1	17
553.325	1	1
553.495	1	12
553.665	1	11
553.835	1	17
554.004	1	13
554.174	1	4
554.344	1	22
554.514	1	8
554.684	1	26
554.854	1	4
555.024	1	17
555.194	1	13
555.364	1	15
555.534	1	2
555.704	1	13
555.874	1	10
556.044	1	13
556.214	1	7
556.384	1	16
556.554	1	15
556.724	1	4
556.894	1	10
557.064	1	6
557.234	1	12
557.404	1	10
557.573	1	18
557.743	1	5
557.913	1	10
558.083	1	17
558.253	1	12
558.423	1	15
558.593	1	17
558.763	1	10
558.933	1	1
559.103	1	8
559.273	1	14
559.443	1	11
559.613	1	5
559.783	1	16
559.953	1	7
560.122	1	9
560.292	1	0
560.462	1	6
560.632	1	4
560.802	1	23
560.972	1	17
561.142	1	12
561.312	1	6
561.482	1	32
561.652	1	7
561.822	1	12
561.992	1	14
562.162	1	2
562.331	1	10
562.501	1	13
562.671	1	2
562.841	1	2
563.011	1	12
563.181	1	9
563.351	1	-3
563.521	1	8
563.691	1	14
563.861	1	12
564.031	1	6
564.201	1	18
564.370	1	18
564.540	1	18
564.710	1	5
564.880	1	14
565.050	1	8
565.220	1	16
565.390	1	2
565.560	1	9
565.730	1	15
565.900	1	10
566.069	1	19
566.239	1	13
566.409	1	22
566.579	1	14
566.749	1	3
566.919	1	-7
567.089	1	0
567.259	1	10
567.429	1	7
567.599	1	21
567.768	1	0
567.938	1	13
568.108	1	7
568.278	1	8
568.448	1	1
568.618	1	6
568.788	1	7
568.958	1	8
569.128	1	7
569.297	1	6
569.467	1	15
569.637	1	10
569.807	1	17
569.977	1	10
570.147	1	11
570.317	1	16
570.487	1	8
570.656	1	16
570.826	1	12
570.996	1	15
571.166	1	20
571.336	1	7
571.506	1	5
571.676	1	14
571.846	1	18
572.015	1	14
572.185	1	12
572.355	1	11
572.525	1	2
572.695	1	10
572.865	1	18
573.035	1	7
573.205	1	8
573.374	1	1
573.544	1	13
573.714	1	16
573.884	1	-4
574.054	1	10
574.224	1	14
574.394	1	7
574.563	1	7
574.733	1	3
574.903	1	17
575.073	1	8
575.243	1	10
575.413	1	4
575.583	1	3
575.752	1	8
575.922	1	21
576.092	1	6
576.262	1	7
576.432	1	4
576.602	1	13
576.772	1	13
576.941	1	10
577.111	1	2
577.281	1	9
577.451	1	19
577.621	1	7
577.791	1	16
577.960	1	5
578.130	1	16
578.300	1	6
578.470	1	9
578.640	1	10
578.810	1	2
578.979	1	8
579.149	1	4
579.319	1	4
579.489	1	23
579.659	1	7
579.829	1	7
579.998	1	-2
580.168	1	7
580.338	1	16
580.508	1	1
580.678	1	19
580.848	1	6
581.017	1	14
581.187	1	5
581.357	1	8
581.527	1	11
581.697	1	8
581.867	1	4
582.036	1	4
582.206	1	17
582.376	1	10
582.546	1	16
582.716	1	5
582.885	1	5
583.055	1	-3
583.225	1	11
583.395	1	2
583.565	1	11
583.735	1	4
583.904	1	4
584.074	1	6
584.244	1	11
584.414	1	5
584.584	1	2
584.753	1	5
584.923	1	2
585.093	1	10
585.263	1	13
585.433	1	7
585.602	1	15
585.772	1	24
585.942	1	9
586.112	1	6
586.282	1	12
586.451	1	12
586.621	1	6
586.791	1	-1
586.961	1	1
587.131	1	7
587.300	1	23
587.470	1	5
587.640	1	4
587.810	1	-2
587.980	1	8
588.149	1	9
588.319	1	21
588.489	1	12
588.659	1	1
588.829	1	7
588.998	1	10
589.168	1	2
589.338	1	12
589.508	1	6
589.677	1	7
589.847	1	9
590.017	1	6
590.187	1	4
590.357	1	7
590.526	1	5
590.696	1	11
590.866	1	3
591.036	1	7
591.205	1	8
591.375	1	7
591.545	1	1
591.715	1	-2
591.885	1	12
592.054	1	12
592.224	1	14
592.394	1	0
592.564	1	8
592.733	1	13
592.903	1	12
593.073	1	10
593.243	1	16
593.412	1	7
593.582	1	9
593.752	1	5
593.922	1	15
594.091	1	13
594.261	1	-2
594.431	1	6
594.601	1	3
594.771	1	9
594.940	1	14
595.110	1	7
595.280	1	11
595.450	1	17
595.619	1	11
595.789	1	-1
595.959	1	11
596.129	1	10
596.298	1	10
596.468	1	6
596.638	1	8
596.808	1	-4
596.977	1	10
597.147	1	8
597.317	1	10
597.487	1	7
597.656	1	8
597.826	1	8
597.996	1	6
598.166	1	20
598.335	1	4
598.505	1	13
598.675	1	-4
598.844	1	24
599.014	1	-3
599.184	1	14
599.354	1	12
599.523	1	6
599.693	1	12
599.863	1	12
600.033	1	9
600.202	1	6
600.372	1	11
600.542	1	10
600.712	1	15
600.881	1	9
601.051	1	18
601.221	1	16
601.390	1	18
601.560	1	15
601.730	1	8
601.900	1	1
602.069	1	3
602.239	1	16
602.409	1	14
602.578	1	15
602.748	1	21
602.918	1	5
603.088	1	12
603.257	1	0
603.427	1	9
603.597	1	10
603.767	1	-4
603.936	1	6
604.106	1	14
604.276	1	12
604.445	1	1
604.615	1	13
604.785	1	5
604.954	1	0
605.124	1	7
605.294	1	2
605.464	1	13
605.633	1	11
605.803	1	12
605.973	1	5
606.142	1	16
606.312	1	29
606.482	1	5
606.652	1	12
606.821	1	1
606.991	1	10
607.161	1	9
607.330	1	6
607.500	1	21
607.670	1	18
607.839	1	-1
608.009	1	7
608.179	1	17
608.348	1	16
608.518	1	17
608.688	1	5
608.858	1	6
609.027	1	16
609.197	1	9
609.367	1	12
609.536	1	4
609.706	1	10
609.876	1	15
610.045	1	18
610.215	1	9
610.385	1	14
610.554	1	4
610.724	1	7
610.894	1	21
611.063	1	14
611.233	1	16
611.403	1	14
611.572	1	14
611.742	1	4
611.912	1	11
612.081	1	15
612.251	1	12
612.421	1	9
612.590	1	15
612.760	1	12
612.930	1	18
613.099	1	15
613.269	1	2
613.439	1	0
613.608	1	14
613.778	1	13
613.948	1	18
614.117	1	5
614.287	1	11
614.457	1	18
614.626	1	10
614.796	1	13
614.966	1	11
615.135	1	14
615.305	1	14
615.475	1	11
615.644	1	21
615.814	1	23
615.984	1	7
616.153	1	13
616.323	1	-2
616.493	1	12
616.662	1	1
616.832	1	12
617.002	1	9
617.171	1	9
617.341	1	17
617.511	1	4
617.680	1	6
617.850	1	9
618.019	1	6
618.189	1	19
618.359	1	13
618.528	1	16
618.698	1	12
618.868	1	9
619.037	1	12
619.207	1	11
619.377	1	10
619.546	1	15
619.716	1	11
619.885	1	10
620.055	1	11
620.225	1	13
620.394	1	11
620.564	1	16
620.734	1	14
620.903	1	4
621.073	1	25
621.242	1	19
621.412	1	-2
621.582	1	27
621.751	1	6
621.921	1	18
622.091	1	19
622.260	1	15
622.430	1	30
622.599	1	10
622.769	1	-3
622.939	1	13
623.108	1	8
623.278	1	12
623.448	1	10
623.617	1	9
623.787	1	12
623.956	1	19
624.126	1	10
624.296	1	26
624.465	1	17
624.635	1	6
624.804	1	0
624.974	1	8
625.144	1	13
625.313	1	15
625.483	1	8
625.652	1	12
625.822	1	15
625.992	1	14
626.161	1	11
626.331	1	14
626.501	1	7
626.670	1	10
626.840	1	14
627.009	1	6
627.179	1	11
627.348	1	12
627.518	1	16
627.688	1	14
627.857	1	13
628.027	1	15
628.196	1	17
628.366	1	-1
628.536	1	6
628.705	1	6
628.875	1	4
629.044	1	12
629.214	1	14
629.384	1	27
629.553	1	14
629.723	1	18
629.892	1	14
630.062	1	18
630.232	1	19
630.401	1	19
630.571	1	7
630.740	1	6
630.910	1	22
631.079	1	14
631.249	1	13
631.419	1	12
631.588	1	18
631.758	1	5
631.927	1	28
632.097	1	14
632.266	1	21
632.436	1	9
632.606	1	17
632.775	1	14
632.945	1	19
633.114	1	5
633.284	1	11
633.453	1	14
633.623	1	26
633.793	1	11
633.962	1	16
634.132	1	20
634.301	1	20
634.471	1	12
634.640	1	8
634.810	1	25
634.979	1	15
635.149	1	1
635.319	1	13
635.488	1	9
635.658	1	9
635.827	1	13
635.997	1	26
636.166	1	10
636.336	1	12
636.505	1	26
636.675	1	7
636.845	1	11
637.014	1	7
637.184	1	26
637.353	1	16
637.523	1	11
637.692	1	16
637.862	1	5
638.031	1	15
638.201	1	21
638.370	1	18
638.540	1	3
638.710	1	7
638.879	1	7
639.049	1	15
639.218	1	14
639.388	1	16
639.557	1	14
639.727	1	19
639.896	1	14
640.066	1	20
640.235	1	20
640.405	1	12
640.574	1	24
640.744	1	16
640.914	1	17
641.083	1	21
641.253	1	12
641.422	1	9
641.592	1	21
641.761	1	17
641.931	1	19
642.100	1	14
642.270	1	19
642.439	1	22
642.609	1	21
642.778	1	12
642.948	1	21
643.117	1	16
643.287	1	19
643.456	1	6
643.626	1	17
643.795	1	7
643.965	1	12
644.134	1	11
644.304	1	12
644.473	1	18
644.643	1	18
644.812	1	9
644.982	1	14
645.151	1	9
645.321	1	17
645.490	1	21
645.660	1	13
645.829	1	15
645.999	1	15
646.168	1	32
646.338	1	11
646.507	1	9
646.677	1	29
646.846	1	16
647.016	1	25
647.185	1	30
647.355	1	24
647.524	1	10
647.694	1	17
647.863	1	6
648.033	1	7
648.202	1	29
648.372	1	-1
648.541	1	22
648.711	1	25
648.880	1	18
649.050	1	19
649.219	1	21
649.389	1	7
649.558	1	19
649.728	1	17
649.897	1	26
650.067	1	13
650.236	1	14
650.406	1	14
650.575	1	23
650.745	1	25
650.914	1	19
651.084	1	17
651.253	1	14
651.423	1	18
651.592	1	14
651.762	1	12
651.931	1	23
652.101	1	13
652.270	1	23
652.440	1	16
652.609	1	16
652.778	1	35
652.948	1	14
653.117	1	18
653.287	1	10
653.456	1	20
653.626	1	7
653.795	1	18
653.965	1	32
654.134	1	12
654.304	1	18
654.473	1	24
654.643	1	15
654.812	1	23
654.982	1	21
655.151	1	23
655.320	1	13
655.490	1	10
655.659	1	23
655.829	1	27
655.998	1	18
656.168	1	8
656.337	1	19
656.507	1	18
656.676	1	13
656.846	1	11
657.015	1	20
657.184	1	21
657.354	1	21
657.523	1	17
657.693	1	16
657.862	1	13
658.032	1	20
658.201	1	10
658.371	1	20
658.540	1	17
658.709	1	23
658.879	1	22
659.048	1	36
659.218	1	18
659.387	1	20
659.557	1	17
659.726	1	13
659.895	1	16
660.065	1	17
660.234	1	14
660.404	1	28
660.573	1	15
660.743	1	21
660.912	1	31
661.081	1	14
661.251	1	10
661.420	1	25
661.590	1	20
661.759	1	34
661.929	1	17
662.098	1	33
662.267	1	11
662.437	1	19
662.606	1	15
662.776	1	17
662.945	1	24
663.115	1	31
663.284	1	29
663.453	1	15
663.623	1	18
663.792	1	28
663.962	1	20
664.131	1	11
664.300	1	20
664.470	1	21
664.639	1	13
664.809	1	21
664.978	1	29
665.148	1	25
665.317	1	18
665.486	1	22
665.656	1	14
665.825	1	29
665.995	1	3
666.164	1	17
666.333	1	23
666.503	1	21
666.672	1	21
666.842	1	29
667.011	1	25
667.180	1	12
667.350	1	24
667.519	1	33
667.689	1	22
667.858	1	20
668.027	1	25
668.197	1	13
668.366	1	16
668.536	1	20
668.705	1	18
668.874	1	25
669.044	1	30
669.213	1	31
669.382	1	25
669.552	1	19
669.721	1	13
669.891	1	13
670.060	1	20
670.229	1	22
670.399	1	23
670.568	1	28
670.738	1	19
670.907	1	23
671.076	1	32
671.246	1	29
671.415	1	30
671.584	1	30
671.754	1	7
671.923	1	13
672.093	1	31
672.262	1	13
672.431	1	20
672.601	1	26
672.770	1	17
672.939	1	25
673.109	1	23
673.278	1	15
673.448	1	26
673.617	1	30
673.786	1	13
