325.333	1	29
325.504	1	20
325.675	1	23
325.846	1	20
326.017	1	30
326.188	1	29
326.359	1	29
326.531	1	25
326.702	1	28
326.873	1	36
327.044	1	33
327.215	1	29
327.386	1	30
327.557	1	23
327.728	1	33
327.899	1	23
328.070	1	34
328.241	1	27
328.412	1	27
328.583	1	21
328.754	1	31
328.926	1	40
329.097	1	30
329.268	1	45
329.439	1	37
329.610	1	39
329.781	1	33
329.952	1	41
330.123	1	37
330.294	1	30
330.465	1	22
330.636	1	33
330.807	1	35
330.978	1	27
331.149	1	39
331.320	1	34
331.492	1	31
331.663	1	42
331.834	1	39
332.005	1	35
332.176	1	46
332.347	1	34
332.518	1	42
332.689	1	37
332.860	1	36
333.031	1	38
333.202	1	40
333.373	1	44
333.544	1	42
333.715	1	46
333.886	1	41
334.057	1	39
334.228	1	49
334.399	1	45
334.570	1	47
334.741	1	43
334.912	1	39
335.084	1	44
335.255	1	45
335.426	1	43
335.597	1	42
335.768	1	59
335.939	1	46
336.110	1	42
336.281	1	36
336.452	1	49
336.623	1	45
336.794	1	49
336.965	1	38
337.136	1	49
337.307	1	46
337.478	1	52
337.649	1	42
337.820	1	40
337.991	1	37
338.162	1	42
338.333	1	40
338.504	1	54
338.675	1	49
338.846	1	36
339.017	1	47
339.188	1	47
339.359	1	53
339.530	1	36
339.701	1	56
339.872	1	57
340.043	1	52
340.214	1	59
340.385	1	49
340.556	1	61
340.727	1	55
340.898	1	59
341.069	1	55
341.240	1	58
341.411	1	57
341.582	1	40
341.753	1	56
341.924	1	79
342.095	1	59
342.266	1	76
342.437	1	71
342.608	1	50
342.779	1	55
342.950	1	57
343.121	1	56
343.292	1	71
343.463	1	71
343.634	1	64
343.805	1	59
343.976	1	77
344.147	1	76
344.318	1	61
344.489	1	58
344.660	1	79
344.831	1	81
345.002	1	67
345.173	1	63
345.344	1	64
345.515	1	65
345.686	1	71
345.857	1	61
346.028	1	64
346.199	1	61
346.370	1	65
346.541	1	66
346.712	1	60
346.883	1	67
347.054	1	76
347.225	1	65
347.396	1	68
347.567	1	65
347.738	1	76
347.909	1	75
348.080	1	69
348.251	1	65
348.422	1	70
348.593	1	70
348.764	1	71
348.935	1	76
349.106	1	80
349.277	1	80
349.448	1	82
349.619	1	75
349.790	1	85
349.961	1	68
350.132	1	92
350.303	1	84
350.474	1	70
350.645	1	85
350.816	1	75
350.987	1	80
351.157	1	75
351.328	1	71
351.499	1	80
351.670	1	81
351.841	1	89
352.012	1	89
352.183	1	95
352.354	1	74
352.525	1	97
352.696	1	78
352.867	1	96
353.038	1	93
353.209	1	88
353.380	1	91
353.551	1	93
353.722	1	97
353.893	1	89
354.064	1	81
354.235	1	82
354.406	1	80
354.576	1	86
354.747	1	77
354.918	1	99
355.089	1	99
355.260	1	82
355.431	1	79
355.602	1	76
355.773	1	92
355.944	1	93
356.115	1	104
356.286	1	98
356.457	1	99
356.628	1	100
356.799	1	88
356.970	1	108
357.141	1	94
357.311	1	100
357.482	1	88
357.653	1	96
357.824	1	108
357.995	1	109
358.166	1	91
358.337	1	96
358.508	1	109
358.679	1	80
358.850	1	113
359.021	1	105
359.192	1	102
359.363	1	101
359.533	1	102
359.704	1	89
359.875	1	99
360.046	1	114
360.217	1	110
360.388	1	116
360.559	1	113
360.730	1	107
360.901	1	93
361.072	1	107
361.243	1	105
361.414	1	105
361.584	1	95
361.755	1	106
361.926	1	108
362.097	1	105
362.268	1	108
362.439	1	102
362.610	1	108
362.781	1	96
362.952	1	96
363.123	1	96
363.293	1	99
363.464	1	99
363.635	1	121
363.806	1	100
363.977	1	105
364.148	1	98
364.319	1	95
364.490	1	103
364.661	1	100
364.832	1	107
365.002	1	106
365.173	1	107
365.344	1	100
365.515	1	117
365.686	1	118
365.857	1	120
366.028	1	113
366.199	1	120
366.370	1	105
366.540	1	111
366.711	1	104
366.882	1	119
367.053	1	117
367.224	1	118
367.395	1	134
367.566	1	121
367.737	1	109
367.908	1	103
368.078	1	103
368.249	1	116
368.420	1	119
368.591	1	113
368.762	1	117
368.933	1	104
369.104	1	115
369.274	1	128
369.445	1	111
369.616	1	102
369.787	1	111
369.958	1	117
370.129	1	121
370.300	1	114
370.471	1	110
370.641	1	114
370.812	1	112
370.983	1	94
371.154	1	99
371.325	1	114
371.496	1	107
371.667	1	128
371.837	1	118
372.008	1	107
372.179	1	113
372.350	1	121
372.521	1	115
372.692	1	121
372.863	1	108
373.033	1	125
373.204	1	123
373.375	1	115
373.546	1	117
373.717	1	118
373.888	1	123
374.059	1	113
374.229	1	133
374.400	1	124
374.571	1	111
374.742	1	128
374.913	1	102
375.084	1	120
375.254	1	114
375.425	1	124
375.596	1	119
375.767	1	123
375.938	1	118
376.109	1	114
376.279	1	127
376.450	1	129
376.621	1	132
376.792	1	130
376.963	1	124
377.134	1	132
377.304	1	126
377.475	1	121
377.646	1	114
377.817	1	129
377.988	1	128
378.159	1	135
378.329	1	135
378.500	1	134
378.671	1	121
378.842	1	129
379.013	1	113
379.184	1	130
379.354	1	133
379.525	1	128
379.696	1	128
379.867	1	123
380.038	1	132
380.209	1	131
380.379	1	134
380.550	1	125
380.721	1	129
380.892	1	134
381.063	1	125
381.233	1	123
381.404	1	125
381.575	1	130
381.746	1	145
381.917	1	123
382.087	1	126
382.258	1	127
382.429	1	132
382.600	1	133
382.771	1	136
382.941	1	146
383.112	1	140
383.283	1	141
383.454	1	132
383.625	1	140
383.795	1	136
383.966	1	156
384.137	1	155
384.308	1	145
384.479	1	140
384.649	1	142
384.820	1	137
384.991	1	134
385.162	1	156
385.333	1	148
385.503	1	139
385.674	1	147
385.845	1	150
386.016	1	159
386.187	1	137
386.357	1	151
386.528	1	147
386.699	1	141
386.870	1	151
387.041	1	153
387.211	1	154
387.382	1	162
387.553	1	149
387.724	1	166
387.894	1	162
388.065	1	156
388.236	1	143
388.407	1	146
388.578	1	156
388.748	1	155
388.919	1	164
389.090	1	178
389.261	1	161
389.431	1	140
389.602	1	158
389.773	1	154
389.944	1	152
390.114	1	157
390.285	1	169
390.456	1	168
390.627	1	146
390.798	1	162
390.968	1	154
391.139	1	156
391.310	1	167
391.481	1	148
391.651	1	153
391.822	1	157
391.993	1	141
392.164	1	145
392.334	1	157
392.505	1	154
392.676	1	145
392.847	1	149
393.017	1	168
393.188	1	162
393.359	1	148
393.530	1	164
393.700	1	174
393.871	1	167
394.042	1	139
394.213	1	168
394.383	1	159
394.554	1	156
394.725	1	158
394.896	1	172
395.066	1	172
395.237	1	158
395.408	1	170
395.579	1	175
395.749	1	184
395.920	1	169
396.091	1	168
396.262	1	175
396.432	1	171
396.603	1	173
396.774	1	166
396.945	1	179
397.115	1	181
397.286	1	181
397.457	1	168
397.627	1	156
397.798	1	171
397.969	1	180
398.140	1	167
398.310	1	174
398.481	1	175
398.652	1	179
398.823	1	167
398.993	1	172
399.164	1	168
399.335	1	178
399.505	1	164
399.676	1	172
399.847	1	180
400.018	1	167
400.188	1	169
400.359	1	171
400.530	1	171
400.700	1	158
400.871	1	176
401.042	1	152
401.213	1	163
401.383	1	171
401.554	1	170
401.725	1	175
401.895	1	171
402.066	1	171
402.237	1	178
402.408	1	166
402.578	1	177
402.749	1	164
402.920	1	165
403.090	1	161
403.261	1	160
403.432	1	184
403.603	1	186
403.773	1	185
403.944	1	162
404.115	1	173
404.285	1	175
404.456	1	182
404.627	1	173
404.797	1	179
404.968	1	174
405.139	1	182
405.310	1	187
405.480	1	164
405.651	1	173
405.822	1	168
405.992	1	181
406.163	1	167
406.334	1	176
406.504	1	187
406.675	1	183
406.846	1	190
407.016	1	176
407.187	1	184
407.358	1	170
407.528	1	182
407.699	1	171
407.870	1	201
408.041	1	176
408.211	1	197
408.382	1	199
408.553	1	181
408.723	1	207
408.894	1	188
409.065	1	193
409.235	1	186
409.406	1	188
409.577	1	179
409.747	1	194
409.918	1	191
410.089	1	190
410.259	1	178
410.430	1	178
410.601	1	185
410.771	1	186
410.942	1	182
411.113	1	183
411.283	1	187
411.454	1	186
411.625	1	173
411.795	1	193
411.966	1	179
412.137	1	197
412.307	1	179
412.478	1	187
412.649	1	191
412.819	1	184
412.990	1	173
413.161	1	178
413.331	1	173
413.502	1	182
413.672	1	179
413.843	1	162
414.014	1	173
414.184	1	185
414.355	1	180
414.526	1	174
414.696	1	168
414.867	1	164
415.038	1	172
415.208	1	170
415.379	1	167
415.550	1	179
415.720	1	177
415.891	1	181
416.062	1	173
416.232	1	181
416.403	1	185
416.573	1	187
416.744	1	176
416.915	1	180
417.085	1	188
417.256	1	189
417.427	1	177
417.597	1	180
417.768	1	174
417.939	1	176
418.109	1	192
418.280	1	178
418.450	1	182
418.621	1	183
418.792	1	181
418.962	1	176
419.133	1	184
419.304	1	168
419.474	1	178
419.645	1	188
419.815	1	178
419.986	1	182
420.157	1	175
420.327	1	174
420.498	1	161
420.669	1	188
420.839	1	178
421.010	1	172
421.180	1	184
421.351	1	172
421.522	1	173
421.692	1	176
421.863	1	181
422.033	1	179
422.204	1	179
422.375	1	164
422.545	1	174
422.716	1	161
422.886	1	189
423.057	1	174
423.228	1	165
423.398	1	167
423.569	1	170
423.740	1	173
423.910	1	171
424.081	1	173
424.251	1	172
424.422	1	171
424.593	1	176
424.763	1	169
424.934	1	167
425.104	1	168
425.275	1	153
425.445	1	165
425.616	1	169
425.787	1	167
425.957	1	164
426.128	1	158
426.298	1	171
426.469	1	142
426.640	1	164
426.810	1	146
426.981	1	157
427.151	1	159
427.322	1	152
427.493	1	153
427.663	1	171
427.834	1	154
428.004	1	166
428.175	1	165
428.345	1	158
428.516	1	162
428.687	1	165
428.857	1	168
429.028	1	145
429.198	1	150
429.369	1	159
429.540	1	151
429.710	1	155
429.881	1	162
430.051	1	167
430.222	1	173
430.392	1	170
430.563	1	143
430.734	1	167
430.904	1	172
431.075	1	156
431.245	1	167
431.416	1	169
431.586	1	161
431.757	1	162
431.927	1	169
432.098	1	162
432.269	1	157
432.439	1	157
432.610	1	176
432.780	1	171
432.951	1	151
433.121	1	145
433.292	1	174
433.462	1	150
433.633	1	148
433.804	1	165
433.974	1	167
434.145	1	162
434.315	1	165
434.486	1	149
434.656	1	159
434.827	1	148
434.997	1	171
435.168	1	161
435.339	1	162
435.509	1	156
435.680	1	167
435.850	1	147
436.021	1	145
436.191	1	137
436.362	1	164
436.532	1	149
436.703	1	153
436.873	1	146
437.044	1	148
437.214	1	146
437.385	1	142
437.556	1	159
437.726	1	154
437.897	1	149
438.067	1	154
438.238	1	150
438.408	1	149
438.579	1	146
438.749	1	136
438.920	1	144
439.090	1	140
439.261	1	135
439.431	1	137
439.602	1	146
439.772	1	130
439.943	1	130
440.113	1	139
440.284	1	135
440.455	1	143
440.625	1	140
440.796	1	126
440.966	1	144
441.137	1	134
441.307	1	136
441.478	1	119
441.648	1	136
441.819	1	132
441.989	1	154
442.160	1	139
442.330	1	140
442.501	1	139
442.671	1	126
442.842	1	144
443.012	1	131
443.183	1	136
443.353	1	129
443.524	1	131
443.694	1	133
443.865	1	146
444.035	1	139
444.206	1	115
444.376	1	134
444.547	1	140
444.717	1	139
444.888	1	127
445.058	1	143
445.229	1	125
445.399	1	140
445.570	1	121
445.740	1	136
445.911	1	139
446.081	1	142
446.252	1	134
446.422	1	124
446.593	1	142
446.763	1	139
446.934	1	123
447.104	1	122
447.275	1	133
447.445	1	132
447.616	1	139
447.786	1	117
447.957	1	138
448.127	1	135
448.298	1	136
448.468	1	141
448.639	1	127
448.809	1	114
448.979	1	133
449.150	1	122
449.320	1	128
449.491	1	114
449.661	1	117
449.832	1	131
450.002	1	128
450.173	1	116
450.343	1	125
450.514	1	119
450.684	1	125
450.855	1	131
451.025	1	119
451.196	1	127
451.366	1	127
451.537	1	135
451.707	1	126
451.878	1	131
452.048	1	104
452.218	1	122
452.389	1	117
452.559	1	125
452.730	1	125
452.900	1	104
453.071	1	129
453.241	1	123
453.412	1	104
453.582	1	118
453.753	1	116
453.923	1	114
454.093	1	118
454.264	1	128
454.434	1	117
454.605	1	119
454.775	1	126
454.946	1	100
455.116	1	114
455.287	1	103
455.457	1	105
455.628	1	103
455.798	1	115
455.968	1	113
456.139	1	117
456.309	1	115
456.480	1	113
456.650	1	118
456.821	1	111
456.991	1	113
457.161	1	109
457.332	1	105
457.502	1	95
457.673	1	116
457.843	1	118
458.014	1	109
458.184	1	117
458.355	1	115
458.525	1	108
458.695	1	106
458.866	1	101
459.036	1	110
459.207	1	117
459.377	1	112
459.548	1	103
459.718	1	101
459.888	1	97
460.059	1	111
460.229	1	104
460.400	1	110
460.570	1	106
460.740	1	104
460.911	1	113
461.081	1	100
461.252	1	112
461.422	1	93
461.593	1	114
461.763	1	107
461.933	1	93
462.104	1	103
462.274	1	99
462.445	1	103
462.615	1	104
462.785	1	111
462.956	1	94
463.126	1	103
463.297	1	106
463.467	1	119
463.638	1	103
463.808	1	115
463.978	1	95
464.149	1	99
464.319	1	107
464.490	1	98
464.660	1	85
464.830	1	93
465.001	1	95
465.171	1	102
465.342	1	101
465.512	1	96
465.682	1	92
465.853	1	91
466.023	1	93
466.194	1	104
466.364	1	104
466.534	1	94
466.705	1	98
466.875	1	79
467.045	1	80
467.216	1	94
467.386	1	91
467.557	1	95
467.727	1	81
467.897	1	82
468.068	1	89
468.238	1	86
468.409	1	88
468.579	1	95
468.749	1	85
468.920	1	79
469.090	1	91
469.260	1	90
469.431	1	74
469.601	1	95
469.772	1	100
469.942	1	93
470.112	1	74
470.283	1	89
470.453	1	95
470.623	1	97
470.794	1	77
470.964	1	82
471.135	1	91
471.305	1	82
471.475	1	94
471.646	1	79
471.816	1	89
471.986	1	89
472.157	1	90
472.327	1	89
472.497	1	86
472.668	1	86
472.838	1	75
473.009	1	79
473.179	1	73
473.349	1	79
473.520	1	91
473.690	1	86
473.860	1	82
474.031	1	85
474.201	1	82
474.371	1	91
474.542	1	75
474.712	1	71
474.882	1	81
475.053	1	85
475.223	1	75
475.394	1	81
475.564	1	87
475.734	1	75
475.905	1	90
476.075	1	97
476.245	1	83
476.416	1	81
476.586	1	82
476.756	1	81
476.927	1	75
477.097	1	75
477.267	1	82
477.438	1	86
477.608	1	89
477.778	1	70
477.949	1	75
478.119	1	83
478.289	1	80
478.460	1	69
478.630	1	71
478.800	1	71
478.971	1	78
479.141	1	86
479.311	1	87
479.482	1	76
479.652	1	82
479.822	1	83
479.993	1	74
480.163	1	73
480.333	1	81
480.504	1	76
480.674	1	82
480.844	1	69
481.015	1	90
481.185	1	86
481.355	1	79
481.525	1	62
481.696	1	76
481.866	1	79
482.036	1	82
482.207	1	84
482.377	1	67
482.547	1	77
482.718	1	75
482.888	1	83
483.058	1	77
483.229	1	82
483.399	1	64
483.569	1	68
483.740	1	73
483.910	1	65
484.080	1	79
484.250	1	60
484.421	1	70
484.591	1	69
484.761	1	74
484.932	1	53
485.102	1	83
485.272	1	71
485.443	1	78
485.613	1	67
485.783	1	67
485.953	1	64
486.124	1	67
486.294	1	73
486.464	1	74
486.635	1	64
486.805	1	68
486.975	1	60
487.146	1	71
487.316	1	62
487.486	1	65
487.656	1	61
487.827	1	63
487.997	1	62
488.167	1	66
488.338	1	68
488.508	1	61
488.678	1	63
488.848	1	67
489.019	1	45
489.189	1	74
489.359	1	56
489.529	1	63
489.700	1	59
489.870	1	70
490.040	1	57
490.211	1	64
490.381	1	64
490.551	1	64
490.721	1	63
490.892	1	43
491.062	1	46
491.232	1	58
491.402	1	51
491.573	1	70
491.743	1	59
491.913	1	59
492.084	1	54
492.254	1	77
492.424	1	58
492.594	1	50
492.765	1	60
492.935	1	69
493.105	1	67
493.275	1	58
493.446	1	49
493.616	1	51
493.786	1	65
493.956	1	59
494.127	1	49
494.297	1	62
494.467	1	63
494.637	1	50
494.808	1	62
494.978	1	60
495.148	1	62
495.318	1	53
495.489	1	54
495.659	1	48
495.829	1	46
495.999	1	65
496.170	1	55
496.340	1	55
496.510	1	68
496.680	1	49
496.851	1	65
497.021	1	54
497.191	1	60
497.361	1	42
497.532	1	56
497.702	1	61
497.872	1	55
498.042	1	50
498.213	1	49
498.383	1	49
498.553	1	52
498.723	1	49
498.894	1	60
499.064	1	50
499.234	1	48
499.404	1	61
499.574	1	51
499.745	1	50
499.915	1	49
500.085	1	51
500.255	1	51
500.426	1	41
500.596	1	33
500.766	1	50
500.936	1	47
501.106	1	59
501.277	1	42
501.447	1	47
501.617	1	55
501.787	1	39
501.958	1	40
502.128	1	54
502.298	1	56
502.468	1	42
502.638	1	46
502.809	1	42
502.979	1	60
503.149	1	42
503.319	1	60
503.489	1	40
503.660	1	44
503.830	1	47
504.000	1	49
504.170	1	50
504.340	1	47
504.511	1	49
504.681	1	52
504.851	1	32
505.021	1	49
505.192	1	35
505.362	1	54
505.532	1	35
505.702	1	64
505.872	1	40
506.043	1	56
506.213	1	60
506.383	1	49
506.553	1	43
506.723	1	39
506.893	1	45
507.064	1	55
507.234	1	42
507.404	1	32
507.574	1	54
507.744	1	55
507.915	1	41
508.085	1	48
508.255	1	38
508.425	1	47
508.595	1	49
508.766	1	40
508.936	1	52
509.106	1	45
509.276	1	53
509.446	1	42
509.616	1	32
509.787	1	38
509.957	1	40
510.127	1	38
510.297	1	33
510.467	1	39
510.638	1	39
510.808	1	50
510.978	1	36
511.148	1	42
511.318	1	37
511.488	1	42
511.659	1	46
511.829	1	38
511.999	1	49
512.169	1	39
512.339	1	46
512.509	1	34
512.680	1	42
512.850	1	50
513.020	1	49
513.190	1	30
513.360	1	50
513.530	1	39
513.700	1	35
513.871	1	34
514.041	1	34
514.211	1	41
514.381	1	41
514.551	1	32
514.721	1	42
514.892	1	39
515.062	1	41
515.232	1	40
515.402	1	39
515.572	1	51
515.742	1	43
515.912	1	49
516.083	1	47
516.253	1	48
516.423	1	30
516.593	1	37
516.763	1	43
516.933	1	37
517.104	1	33
517.274	1	30
517.444	1	28
517.614	1	28
517.784	1	41
517.954	1	35
518.124	1	34
518.294	1	45
518.465	1	40
518.635	1	40
518.805	1	34
518.975	1	46
519.145	1	40
519.315	1	40
519.485	1	31
519.656	1	32
519.826	1	24
519.996	1	38
520.166	1	18
520.336	1	43
520.506	1	36
520.676	1	43
520.846	1	41
521.017	1	30
521.187	1	38
521.357	1	33
521.527	1	37
521.697	1	29
521.867	1	34
522.037	1	38
522.207	1	41
522.377	1	37
522.548	1	25
522.718	1	36
522.888	1	35
523.058	1	36
523.228	1	24
523.398	1	22
523.568	1	22
523.738	1	34
523.909	1	42
524.079	1	34
524.249	1	27
524.419	1	35
524.589	1	26
524.759	1	37
524.929	1	25
525.099	1	33
525.269	1	25
525.439	1	27
525.610	1	42
525.780	1	33
525.950	1	34
526.120	1	28
526.290	1	34
526.460	1	23
526.630	1	28
526.800	1	25
526.970	1	34
527.140	1	33
527.311	1	28
527.481	1	35
527.651	1	33
527.821	1	37
527.991	1	15
528.161	1	30
528.331	1	24
528.501	1	19
528.671	1	26
528.841	1	28
529.011	1	28
529.181	1	22
529.352	1	33
529.522	1	32
529.692	1	24
529.862	1	23
530.032	1	24
530.202	1	19
530.372	1	33
530.542	1	37
530.712	1	33
530.882	1	35
531.052	1	25
531.222	1	33
531.392	1	24
531.563	1	31
531.733	1	19
531.903	1	33
532.073	1	31
532.243	1	31
532.413	1	51
532.583	1	30
532.753	1	23
532.923	1	29
533.093	1	37
533.263	1	38
533.433	1	24
533.603	1	22
533.773	1	35
533.943	1	32
534.113	1	27
534.284	1	17
534.454	1	28
534.624	1	34
534.794	1	20
534.964	1	29
535.134	1	20
535.304	1	23
535.474	1	40
535.644	1	29
535.814	1	19
535.984	1	28
536.154	1	26
536.324	1	18
536.494	1	37
536.664	1	27
536.834	1	17
537.004	1	30
537.174	1	42
537.344	1	23
537.514	1	18
537.685	1	28
537.855	1	18
538.025	1	27
538.195	1	17
538.365	1	23
538.535	1	16
538.705	1	23
538.875	1	30
539.045	1	19
539.215	1	6
539.385	1	27
539.555	1	20
539.725	1	25
539.895	1	31
540.065	1	17
540.235	1	31
540.405	1	24
540.575	1	18
540.745	1	27
540.915	1	30
541.085	1	13
541.255	1	23
541.425	1	18
541.595	1	24
541.765	1	42
541.935	1	21
542.105	1	29
542.275	1	15
542.445	1	25
542.615	1	33
542.785	1	16
542.955	1	42
543.125	1	26
543.295	1	17
543.465	1	30
543.635	1	15
543.805	1	22
543.975	1	22
544.145	1	23
544.315	1	11
544.485	1	21
544.655	1	13
544.825	1	19
544.995	1	28
545.165	1	20
545.335	1	22
545.505	1	22
545.675	1	17
545.845	1	14
546.015	1	16
546.185	1	14
546.355	1	25
546.525	1	18
546.695	1	6
546.865	1	19
547.035	1	18
547.205	1	34
547.375	1	31
547.545	1	28
547.715	1	23
547.885	1	19
548.055	1	14
548.225	1	18
548.395	1	10
548.565	1	27
548.735	1	17
548.905	1	23
549.075	1	19
549.245	1	20
549.415	1	19
549.585	1	13
549.755	1	25
549.925	1	20
550.095	1	10
550.265	1	14
550.435	1	23
550.605	1	16
550.775	1	17
550.945	1	9
551.115	1	26
551.285	1	9
551.455	1	23
551.625	1	6
551.795	1	18
551.965	1	14
552.135	1	12
552.305	1	13
552.475	1	16
552.645	1	15
552.815	1	15
552.985	1	8
553.155	1	19
553.325	1	23
553.495	1	25
553.665	1	15
553.835	1	26
554.004	1	8
554.174	1	8
554.344	1	26
554.514	1	3
554.684	1	18
554.854	1	3
555.024	1	20
555.194	1	15
555.364	1	17
555.534	1	13
555.704	1	18
555.874	1	26
556.044	1	11
556.214	1	12
556.384	1	28
556.554	1	15
556.724	1	11
556.894	1	18
557.064	1	13
557.234	1	18
557.404	1	20
557.573	1	18
557.743	1	4
557.913	1	13
558.083	1	20
558.253	1	16
558.423	1	17
558.593	1	16
558.763	1	8
558.933	1	6
559.103	1	24
559.273	1	27
559.443	1	27
559.613	1	19
559.783	1	14
559.953	1	4
560.122	1	14
560.292	1	-1
560.462	1	10
560.632	1	11
560.802	1	25
560.972	1	7
561.142	1	13
561.312	1	15
561.482	1	10
561.652	1	17
561.822	1	14
561.992	1	12
562.162	1	12
562.331	1	7
562.501	1	16
562.671	1	7
562.841	1	-4
563.011	1	12
563.181	1	11
563.351	1	2
563.521	1	11
563.691	1	21
563.861	1	16
564.031	1	13
564.201	1	13
564.370	1	23
564.540	1	11
564.710	1	11
564.880	1	15
565.050	1	14
565.220	1	18
565.390	1	13
565.560	1	16
565.730	1	15
565.900	1	10
566.069	1	17
566.239	1	18
566.409	1	23
566.579	1	14
566.749	1	12
566.919	1	3
567.089	1	-7
567.259	1	15
567.429	1	6
567.599	1	20
567.768	1	15
567.938	1	19
568.108	1	9
568.278	1	18
568.448	1	7
568.618	1	26
568.788	1	10
568.958	1	15
569.128	1	24
569.297	1	0
569.467	1	16
569.637	1	20
569.807	1	19
569.977	1	10
570.147	1	18
570.317	1	12
570.487	1	10
570.656	1	18
570.826	1	18
570.996	1	23
571.166	1	11
571.336	1	3
571.506	1	1
571.676	1	12
571.846	1	25
572.015	1	19
572.185	1	6
572.355	1	18
572.525	1	8
572.695	1	11
572.865	1	22
573.035	1	9
573.205	1	15
573.374	1	1
573.544	1	9
573.714	1	12
573.884	1	9
574.054	1	10
574.224	1	15
574.394	1	7
574.563	1	6
574.733	1	14
574.903	1	15
575.073	1	16
575.243	1	14
575.413	1	8
575.583	1	13
575.752	1	9
575.922	1	24
576.092	1	7
576.262	1	13
576.432	1	11
576.602	1	14
576.772	1	16
576.941	1	16
577.111	1	14
577.281	1	15
577.451	1	16
577.621	1	11
577.791	1	8
577.960	1	8
578.130	1	17
578.300	1	11
578.470	1	17
578.640	1	1
578.810	1	8
578.979	1	3
579.149	1	12
579.319	1	11
579.489	1	21
579.659	1	12
579.829	1	4
579.998	1	-6
580.168	1	10
580.338	1	16
580.508	1	6
580.678	1	7
580.848	1	17
581.017	1	20
581.187	1	13
581.357	1	13
581.527	1	19
581.697	1	10
581.867	1	20
582.036	1	3
582.206	1	11
582.376	1	19
582.546	1	5
582.716	1	15
582.885	1	10
583.055	1	-6
583.225	1	16
583.395	1	11
583.565	1	25
583.735	1	14
583.904	1	11
584.074	1	9
584.244	1	7
584.414	1	15
584.584	1	6
584.753	1	4
584.923	1	15
585.093	1	14
585.263	1	15
585.433	1	12
585.602	1	18
585.772	1	30
585.942	1	0
586.112	1	11
586.282	1	12
586.451	1	19
586.621	1	5
586.791	1	8
586.961	1	15
587.131	1	7
587.300	1	19
587.470	1	4
587.640	1	11
587.810	1	1
587.980	1	15
588.149	1	9
588.319	1	21
588.489	1	17
588.659	1	9
588.829	1	8
588.998	1	9
589.168	1	15
589.338	1	10
589.508	1	11
589.677	1	20
589.847	1	10
590.017	1	11
590.187	1	7
590.357	1	4
590.526	1	6
590.696	1	13
590.866	1	11
591.036	1	11
591.205	1	18
591.375	1	8
591.545	1	3
591.715	1	11
591.885	1	17
592.054	1	10
592.224	1	12
592.394	1	7
592.564	1	18
592.733	1	6
592.903	1	10
593.073	1	7
593.243	1	23
593.412	1	2
593.582	1	14
593.752	1	11
593.922	1	20
594.091	1	6
594.261	1	-1
594.431	1	16
594.601	1	11
594.771	1	9
594.940	1	11
595.110	1	7
595.280	1	16
595.450	1	10
595.619	1	15
595.789	1	4
595.959	1	13
596.129	1	11
596.298	1	11
596.468	1	10
596.638	1	12
596.808	1	3
596.977	1	9
597.147	1	15
597.317	1	16
597.487	1	11
597.656	1	27
597.826	1	11
597.996	1	9
598.166	1	12
598.335	1	9
598.505	1	15
598.675	1	16
598.844	1	20
599.014	1	4
599.184	1	17
599.354	1	25
599.523	1	7
599.693	1	15
599.863	1	16
600.033	1	14
600.202	1	9
600.372	1	13
600.542	1	12
600.712	1	6
600.881	1	17
601.051	1	20
601.221	1	8
601.390	1	13
601.560	1	12
601.730	1	6
601.900	1	12
602.069	1	16
602.239	1	19
602.409	1	12
602.578	1	22
602.748	1	19
602.918	1	4
603.088	1	9
603.257	1	13
603.427	1	17
603.597	1	9
603.767	1	10
603.936	1	23
604.106	1	13
604.276	1	13
604.445	1	13
604.615	1	14
604.785	1	17
604.954	1	12
605.124	1	9
605.294	1	7
605.464	1	9
605.633	1	21
605.803	1	15
605.973	1	5
606.142	1	19
606.312	1	12
606.482	1	3
606.652	1	9
606.821	1	7
606.991	1	17
607.161	1	8
607.330	1	6
607.500	1	17
607.670	1	15
607.839	1	8
608.009	1	16
608.179	1	10
608.348	1	9
608.518	1	25
608.688	1	21
608.858	1	6
609.027	1	15
609.197	1	18
609.367	1	6
609.536	1	4
609.706	1	15
609.876	1	21
610.045	1	18
610.215	1	18
610.385	1	15
610.554	1	21
610.724	1	15
610.894	1	18
611.063	1	5
611.233	1	14
611.403	1	17
611.572	1	18
611.742	1	6
611.912	1	15
612.081	1	25
612.251	1	22
612.421	1	13
612.590	1	17
612.760	1	16
612.930	1	24
613.099	1	18
613.269	1	14
613.439	1	4
613.608	1	10
613.778	1	18
613.948	1	23
614.117	1	14
614.287	1	14
614.457	1	18
614.626	1	13
614.796	1	24
614.966	1	20
615.135	1	23
615.305	1	26
615.475	1	10
615.644	1	27
615.814	1	38
615.984	1	10
616.153	1	14
616.323	1	14
616.493	1	13
616.662	1	10
616.832	1	10
617.002	1	7
617.171	1	18
617.341	1	29
617.511	1	10
617.680	1	8
617.850	1	13
618.019	1	12
618.189	1	22
618.359	1	16
618.528	1	14
618.698	1	13
618.868	1	6
619.037	1	22
619.207	1	9
619.377	1	20
619.546	1	26
619.716	1	13
619.885	1	16
620.055	1	10
620.225	1	15
620.394	1	20
620.564	1	23
620.734	1	11
620.903	1	12
621.073	1	24
621.242	1	25
621.412	1	4
621.582	1	25
621.751	1	21
621.921	1	16
622.091	1	15
622.260	1	21
622.430	1	18
622.599	1	15
622.769	1	11
622.939	1	18
623.108	1	17
623.278	1	12
623.448	1	15
623.617	1	24
623.787	1	17
623.956	1	24
624.126	1	22
624.296	1	33
624.465	1	12
624.635	1	26
624.804	1	21
624.974	1	13
625.144	1	24
625.313	1	34
625.483	1	19
625.652	1	17
625.822	1	14
625.992	1	6
626.161	1	20
626.331	1	16
626.501	1	23
626.670	1	12
626.840	1	24
627.009	1	17
627.179	1	23
627.348	1	13
627.518	1	31
627.688	1	5
627.857	1	15
628.027	1	25
628.196	1	32
628.366	1	6
628.536	1	16
628.705	1	15
628.875	1	5
629.044	1	15
629.214	1	25
629.384	1	25
629.553	1	17
629.723	1	21
629.892	1	14
630.062	1	17
630.232	1	29
630.401	1	25
630.571	1	13
630.740	1	34
630.910	1	23
631.079	1	14
631.249	1	27
631.419	1	27
631.588	1	23
631.758	1	21
631.927	1	27
632.097	1	11
632.266	1	27
632.436	1	14
632.606	1	22
632.775	1	29
632.945	1	13
633.114	1	13
633.284	1	24
633.453	1	16
633.623	1	29
633.793	1	26
633.962	1	20
634.132	1	26
634.301	1	27
634.471	1	19
634.640	1	33
634.810	1	24
634.979	1	32
635.149	1	23
635.319	1	12
635.488	1	32
635.658	1	26
635.827	1	20
635.997	1	29
636.166	1	28
636.336	1	18
636.505	1	32
636.675	1	26
636.845	1	12
637.014	1	8
637.184	1	32
637.353	1	27
637.523	1	19
637.692	1	26
637.862	1	16
638.031	1	14
638.201	1	32
638.370	1	22
638.540	1	6
638.710	1	20
638.879	1	17
639.049	1	25
639.218	1	22
639.388	1	12
639.557	1	27
639.727	1	19
639.896	1	15
640.066	1	20
640.235	1	19
640.405	1	27
640.574	1	16
640.744	1	16
640.914	1	27
641.083	1	26
641.253	1	19
641.422	1	16
641.592	1	31
641.761	1	19
641.931	1	19
642.100	1	30
642.270	1	17
642.439	1	21
642.609	1	30
642.778	1	19
642.948	1	36
643.117	1	27
643.287	1	14
643.456	1	24
643.626	1	27
643.795	1	19
643.965	1	34
644.134	1	29
644.304	1	20
644.473	1	32
644.643	1	19
644.812	1	14
644.982	1	32
645.151	1	18
645.321	1	23
645.490	1	40
645.660	1	12
645.829	1	22
645.999	1	28
646.168	1	43
646.338	1	17
646.507	1	18
646.677	1	20
646.846	1	37
647.016	1	19
647.185	1	28
647.355	1	35
647.524	1	18
647.694	1	24
647.863	1	25
648.033	1	23
648.202	1	36
648.372	1	19
648.541	1	27
648.711	1	28
648.880	1	30
649.050	1	35
649.219	1	37
649.389	1	23
649.558	1	34
649.728	1	20
649.897	1	34
650.067	1	47
650.236	1	12
650.406	1	30
650.575	1	30
650.745	1	20
650.914	1	39
651.084	1	33
651.253	1	34
651.423	1	35
651.592	1	29
651.762	1	31
651.931	1	30
652.101	1	14
652.270	1	27
652.440	1	31
652.609	1	25
652.778	1	31
652.948	1	25
653.117	1	25
653.287	1	19
653.456	1	24
653.626	1	25
653.795	1	29
653.965	1	34
654.134	1	25
654.304	1	28
654.473	1	31
654.643	1	28
654.812	1	31
654.982	1	33
655.151	1	38
655.320	1	17
655.490	1	17
655.659	1	30
655.829	1	18
655.998	1	23
656.168	1	30
656.337	1	27
656.507	1	28
656.676	1	27
656.846	1	30
657.015	1	43
657.184	1	29
657.354	1	25
657.523	1	22
657.693	1	32
657.862	1	29
658.032	1	34
658.201	1	22
658.371	1	21
658.540	1	27
658.709	1	34
658.879	1	31
659.048	1	33
659.218	1	27
659.387	1	35
659.557	1	22
659.726	1	33
659.895	1	36
660.065	1	14
660.234	1	29
660.404	1	36
660.573	1	32
660.743	1	39
660.912	1	34
661.081	1	29
661.251	1	25
661.420	1	34
661.590	1	31
661.759	1	41
661.929	1	28
662.098	1	40
662.267	1	27
662.437	1	31
662.606	1	26
662.776	1	30
662.945	1	45
663.115	1	40
663.284	1	38
663.453	1	36
663.623	1	39
663.792	1	30
663.962	1	44
664.131	1	28
664.300	1	26
664.470	1	18
664.639	1	30
664.809	1	37
664.978	1	27
665.148	1	39
665.317	1	34
665.486	1	36
665.656	1	33
665.825	1	45
665.995	1	19
666.164	1	31
666.333	1	27
666.503	1	32
666.672	1	33
666.842	1	33
667.011	1	36
667.180	1	39
667.350	1	39
667.519	1	36
667.689	1	31
667.858	1	35
668.027	1	26
668.197	1	29
668.366	1	28
668.536	1	28
668.705	1	29
668.874	1	44
669.044	1	36
669.213	1	30
669.382	1	39
669.552	1	31
669.721	1	32
669.891	1	24
670.060	1	34
670.229	1	38
670.399	1	43
670.568	1	30
670.738	1	29
670.907	1	28
671.076	1	33
671.246	1	35
671.415	1	38
671.584	1	36
671.754	1	27
671.923	1	30
672.093	1	40
672.262	1	24
672.431	1	39
672.601	1	32
672.770	1	35
672.939	1	41
673.109	1	34
673.278	1	31
673.448	1	45
673.617	1	34
673.786	1	25
