325.333	1	11
325.504	1	-14
325.675	1	3
325.846	1	2
326.017	1	3
326.188	1	-2
326.359	1	-1
326.531	1	-4
326.702	1	-8
326.873	1	1
327.044	1	16
327.215	1	-12
327.386	1	-4
327.557	1	2
327.728	1	0
327.899	1	-8
328.070	1	8
328.241	1	-1
328.412	1	-8
328.583	1	-2
328.754	1	3
328.926	1	3
329.097	1	-11
329.268	1	4
329.439	1	7
329.610	1	-1
329.781	1	-4
329.952	1	5
330.123	1	-3
330.294	1	-3
330.465	1	-13
330.636	1	-1
330.807	1	1
330.978	1	-8
331.149	1	8
331.320	1	-6
331.492	1	2
331.663	1	3
331.834	1	-4
332.005	1	7
332.176	1	7
332.347	1	-18
332.518	1	-5
332.689	1	4
332.860	1	0
333.031	1	11
333.202	1	3
333.373	1	4
333.544	1	4
333.715	1	5
333.886	1	-4
334.057	1	-11
334.228	1	5
334.399	1	3
334.570	1	-2
334.741	1	-3
334.912	1	2
335.084	1	4
335.255	1	2
335.426	1	1
335.597	1	-5
335.768	1	3
335.939	1	7
336.110	1	-5
336.281	1	-3
336.452	1	13
336.623	1	-4
336.794	1	-3
336.965	1	-7
337.136	1	13
337.307	1	-5
337.478	1	6
337.649	1	-9
337.820	1	-8
337.991	1	-6
338.162	1	-1
338.333	1	-6
338.504	1	13
338.675	1	-4
338.846	1	-6
339.017	1	-5
339.188	1	-3
339.359	1	2
339.530	1	4
339.701	1	6
339.872	1	10
340.043	1	4
340.214	1	3
340.385	1	-3
340.556	1	1
340.727	1	1
340.898	1	1
341.069	1	3
341.240	1	-5
341.411	1	7
341.582	1	-17
341.753	1	0
341.924	1	9
342.095	1	-8
342.266	1	13
342.437	1	-4
342.608	1	8
342.779	1	-5
342.950	1	-8
343.121	1	10
343.292	1	8
343.463	1	6
343.634	1	-3
343.805	1	-5
343.976	1	15
344.147	1	5
344.318	1	-6
344.489	1	2
344.660	1	16
344.831	1	9
345.002	1	-4
345.173	1	-1
345.344	1	-4
345.515	1	-1
345.686	1	-1
345.857	1	1
346.028	1	3
346.199	1	4
346.370	1	-8
346.541	1	2
346.712	1	-7
346.883	1	-10
347.054	1	7
347.225	1	0
347.396	1	3
347.567	1	-15
347.738	1	4
347.909	1	6
348.080	1	-3
348.251	1	-6
348.422	1	11
348.593	1	2
348.764	1	0
348.935	1	6
349.106	1	-3
349.277	1	0
349.448	1	-3
349.619	1	2
349.790	1	8
349.961	1	-8
350.132	1	6
350.303	1	-5
350.474	1	0
350.645	1	5
350.816	1	2
350.987	1	8
351.157	1	-1
351.328	1	1
351.499	1	-2
351.670	1	-3
351.841	1	-3
352.012	1	6
352.183	1	6
352.354	1	-5
352.525	1	4
352.696	1	7
352.867	1	6
353.038	1	10
353.209	1	5
353.380	1	2
353.551	1	12
353.722	1	-2
353.893	1	8
354.064	1	-1
354.235	1	-4
354.406	1	-9
354.576	1	0
354.747	1	3
354.918	1	-1
355.089	1	2
355.260	1	-5
355.431	1	-8
355.602	1	2
355.773	1	-1
355.944	1	-6
356.115	1	-2
356.286	1	11
356.457	1	2
356.628	1	1
356.799	1	-2
356.970	1	15
357.141	1	7
357.311	1	10
357.482	1	-8
357.653	1	-5
357.824	1	0
357.995	1	14
358.166	1	0
358.337	1	-4
358.508	1	12
358.679	1	3
358.850	1	9
359.021	1	5
359.192	1	12
359.363	1	-4
359.533	1	0
359.704	1	-1
359.875	1	-1
360.046	1	2
360.217	1	0
360.388	1	5
360.559	1	12
360.730	1	-6
360.901	1	5
361.072	1	9
361.243	1	9
361.414	1	16
361.584	1	-8
361.755	1	0
361.926	1	13
362.097	1	-8
362.268	1	15
362.439	1	-7
362.610	1	5
362.781	1	-8
362.952	1	2
363.123	1	-6
363.293	1	0
363.464	1	1
363.635	1	17
363.806	1	0
363.977	1	1
364.148	1	-2
364.319	1	-2
364.490	1	14
364.661	1	2
364.832	1	-1
365.002	1	5
365.173	1	9
365.344	1	-3
365.515	1	4
365.686	1	3
365.857	1	10
366.028	1	5
366.199	1	5
366.370	1	0
366.540	1	-3
366.711	1	6
366.882	1	6
367.053	1	1
367.224	1	11
367.395	1	9
367.566	1	6
367.737	1	6
367.908	1	12
368.078	1	1
368.249	1	7
368.420	1	4
368.591	1	4
368.762	1	11
368.933	1	2
369.104	1	9
369.274	1	4
369.445	1	7
369.616	1	-5
369.787	1	3
369.958	1	5
370.129	1	3
370.300	1	0
370.471	1	-4
370.641	1	-3
370.812	1	9
370.983	1	-1
371.154	1	1
371.325	1	6
371.496	1	-2
371.667	1	14
371.837	1	15
372.008	1	-5
372.179	1	2
372.350	1	-1
372.521	1	6
372.692	1	12
372.863	1	2
373.033	1	12
373.204	1	-4
373.375	1	2
373.546	1	9
373.717	1	-5
373.888	1	6
374.059	1	4
374.229	1	6
374.400	1	0
374.571	1	-5
374.742	1	3
374.913	1	0
375.084	1	2
375.254	1	0
375.425	1	-1
375.596	1	1
375.767	1	2
375.938	1	-2
376.109	1	-5
376.279	1	5
376.450	1	3
376.621	1	11
376.792	1	2
376.963	1	-1
377.134	1	-2
377.304	1	5
377.475	1	-9
377.646	1	-8
377.817	1	12
377.988	1	6
378.159	1	6
378.329	1	8
378.500	1	8
378.671	1	-2
378.842	1	1
379.013	1	4
379.184	1	6
379.354	1	3
379.525	1	10
379.696	1	13
379.867	1	6
380.038	1	6
380.209	1	13
380.379	1	17
380.550	1	-7
380.721	1	0
380.892	1	-5
381.063	1	-5
381.233	1	3
381.404	1	-3
381.575	1	-1
381.746	1	5
381.917	1	4
382.087	1	8
382.258	1	1
382.429	1	6
382.600	1	6
382.771	1	-14
382.941	1	7
383.112	1	2
383.283	1	3
383.454	1	2
383.625	1	-2
383.795	1	13
383.966	1	8
384.137	1	4
384.308	1	10
384.479	1	1
384.649	1	-5
384.820	1	2
384.991	1	5
385.162	1	9
385.333	1	8
385.503	1	5
385.674	1	4
385.845	1	4
386.016	1	14
386.187	1	2
386.357	1	9
386.528	1	4
386.699	1	-4
386.870	1	-2
387.041	1	7
387.211	1	0
387.382	1	7
387.553	1	10
387.724	1	1
387.894	1	0
388.065	1	5
388.236	1	-1
388.407	1	7
388.578	1	11
388.748	1	-1
388.919	1	-2
389.090	1	9
389.261	1	14
389.431	1	-4
389.602	1	-7
389.773	1	6
389.944	1	4
390.114	1	8
390.285	1	12
390.456	1	0
390.627	1	0
390.798	1	-2
390.968	1	9
391.139	1	5
391.310	1	2
391.481	1	7
391.651	1	17
391.822	1	14
391.993	1	6
392.164	1	5
392.334	1	-5
392.505	1	4
392.676	1	-4
392.847	1	6
393.017	1	5
393.188	1	7
393.359	1	23
393.530	1	10
393.700	1	7
393.871	1	11
394.042	1	2
394.213	1	3
394.383	1	9
394.554	1	3
394.725	1	-4
394.896	1	18
395.066	1	3
395.237	1	7
395.408	1	7
395.579	1	16
395.749	1	15
395.920	1	13
396.091	1	9
396.262	1	-3
396.432	1	-1
396.603	1	7
396.774	1	-1
396.945	1	8
397.115	1	17
397.286	1	11
397.457	1	6
397.627	1	-8
397.798	1	2
397.969	1	7
398.140	1	-7
398.310	1	6
398.481	1	12
398.652	1	9
398.823	1	4
398.993	1	3
399.164	1	15
399.335	1	3
399.505	1	-2
399.676	1	1
399.847	1	9
400.018	1	-1
400.188	1	15
400.359	1	13
400.530	1	-3
400.700	1	3
400.871	1	8
401.042	1	5
401.213	1	1
401.383	1	6
401.554	1	4
401.725	1	11
401.895	1	-8
402.066	1	13
402.237	1	7
402.408	1	-8
402.578	1	20
402.749	1	-3
402.920	1	3
403.090	1	9
403.261	1	0
403.432	1	7
403.603	1	9
403.773	1	15
403.944	1	8
404.115	1	9
404.285	1	7
404.456	1	12
404.627	1	20
404.797	1	6
404.968	1	8
405.139	1	6
405.310	1	1
405.480	1	9
405.651	1	1
405.822	1	11
405.992	1	6
406.163	1	-3
406.334	1	12
406.504	1	-3
406.675	1	-4
406.846	1	12
407.016	1	18
407.187	1	5
407.358	1	4
407.528	1	11
407.699	1	16
407.870	1	7
408.041	1	1
408.211	1	1
408.382	1	9
408.553	1	8
408.723	1	8
408.894	1	-1
409.065	1	-1
409.235	1	12
409.406	1	-6
409.577	1	16
409.747	1	9
409.918	1	6
410.089	1	7
410.259	1	-8
410.430	1	11
410.601	1	12
410.771	1	12
410.942	1	11
411.113	1	6
411.283	1	15
411.454	1	23
411.625	1	11
411.795	1	15
411.966	1	6
412.137	1	10
412.307	1	11
412.478	1	16
412.649	1	1
412.819	1	17
412.990	1	12
413.161	1	16
413.331	1	5
413.502	1	7
413.672	1	-7
413.843	1	-6
414.014	1	2
414.184	1	14
414.355	1	7
414.526	1	6
414.696	1	4
414.867	1	-3
415.038	1	6
415.208	1	0
415.379	1	-4
415.550	1	13
415.720	1	0
415.891	1	9
416.062	1	21
416.232	1	11
416.403	1	13
416.573	1	5
416.744	1	7
416.915	1	2
417.085	1	13
417.256	1	5
417.427	1	6
417.597	1	5
417.768	1	-2
417.939	1	2
418.109	1	9
418.280	1	1
418.450	1	20
418.621	1	5
418.792	1	8
418.962	1	14
419.133	1	5
419.304	1	5
419.474	1	14
419.645	1	8
419.815	1	7
419.986	1	11
420.157	1	-6
420.327	1	3
420.498	1	4
420.669	1	17
420.839	1	16
421.010	1	10
421.180	1	-2
421.351	1	4
421.522	1	7
421.692	1	10
421.863	1	8
422.033	1	2
422.204	1	8
422.375	1	1
422.545	1	6
422.716	1	-5
422.886	1	6
423.057	1	12
423.228	1	0
423.398	1	7
423.569	1	5
423.740	1	7
423.910	1	6
424.081	1	6
424.251	1	6
424.422	1	9
424.593	1	7
424.763	1	7
424.934	1	15
425.104	1	8
425.275	1	1
425.445	1	11
425.616	1	10
425.787	1	4
425.957	1	10
426.128	1	3
426.298	1	13
426.469	1	0
426.640	1	3
426.810	1	-3
426.981	1	9
427.151	1	6
427.322	1	3
427.493	1	10
427.663	1	15
427.834	1	5
428.004	1	12
428.175	1	13
428.345	1	-11
428.516	1	2
428.687	1	15
428.857	1	6
429.028	1	3
429.198	1	3
429.369	1	11
429.540	1	5
429.710	1	10
429.881	1	2
430.051	1	2
430.222	1	-3
430.392	1	11
430.563	1	-5
430.734	1	8
430.904	1	7
431.075	1	6
431.245	1	11
431.416	1	7
431.586	1	6
431.757	1	16
431.927	1	13
432.098	1	3
432.269	1	1
432.439	1	-9
432.610	1	10
432.780	1	9
432.951	1	1
433.121	1	-6
433.292	1	10
433.462	1	3
433.633	1	5
433.804	1	6
433.974	1	5
434.145	1	8
434.315	1	-3
434.486	1	-6
434.656	1	13
434.827	1	10
434.997	1	9
435.168	1	1
435.339	1	13
435.509	1	8
435.680	1	11
435.850	1	-9
436.021	1	0
436.191	1	8
436.362	1	2
436.532	1	3
436.703	1	14
436.873	1	3
437.044	1	8
437.214	1	-7
437.385	1	3
437.556	1	-7
437.726	1	-4
437.897	1	0
438.067	1	17
438.238	1	12
438.408	1	7
438.579	1	4
438.749	1	2
438.920	1	17
439.090	1	-4
439.261	1	9
439.431	1	-2
439.602	1	4
439.772	1	-2
439.943	1	-10
440.113	1	-1
440.284	1	20
440.455	1	12
440.625	1	15
440.796	1	10
440.966	1	6
441.137	1	8
441.307	1	11
441.478	1	-4
441.648	1	4
441.819	1	6
441.989	1	11
442.160	1	14
442.330	1	8
442.501	1	-1
442.671	1	6
442.842	1	-1
443.012	1	2
443.183	1	8
443.353	1	8
443.524	1	6
443.694	1	-2
443.865	1	15
444.035	1	1
444.206	1	3
444.376	1	4
444.547	1	13
444.717	1	-4
444.888	1	-16
445.058	1	5
445.229	1	10
445.399	1	5
445.570	1	-3
445.740	1	-7
445.911	1	9
446.081	1	2
446.252	1	2
446.422	1	-5
446.593	1	-6
446.763	1	3
446.934	1	-3
447.104	1	0
447.275	1	7
447.445	1	-1
447.616	1	4
447.786	1	0
447.957	1	1
448.127	1	-3
448.298	1	10
448.468	1	11
448.639	1	-3
448.809	1	-2
448.979	1	22
449.150	1	4
449.320	1	10
449.491	1	-7
449.661	1	-1
449.832	1	-2
450.002	1	5
450.173	1	11
450.343	1	5
450.514	1	11
450.684	1	3
450.855	1	12
451.025	1	-1
451.196	1	4
451.366	1	15
451.537	1	7
451.707	1	13
451.878	1	-4
452.048	1	-4
452.218	1	-1
452.389	1	11
452.559	1	13
452.730	1	20
452.900	1	-1
453.071	1	11
453.241	1	5
453.412	1	7
453.582	1	6
453.753	1	10
453.923	1	-3
454.093	1	1
454.264	1	14
454.434	1	7
454.605	1	1
454.775	1	3
454.946	1	-6
455.116	1	4
455.287	1	-1
455.457	1	17
455.628	1	-1
455.798	1	5
455.968	1	2
456.139	1	1
456.309	1	4
456.480	1	-1
456.650	1	-1
456.821	1	3
456.991	1	9
457.161	1	6
457.332	1	-7
457.502	1	1
457.673	1	-1
457.843	1	-3
458.014	1	6
458.184	1	6
458.355	1	8
458.525	1	-5
458.695	1	-6
458.866	1	-13
459.036	1	4
459.207	1	12
459.377	1	1
459.548	1	-3
459.718	1	0
459.888	1	-4
460.059	1	5
460.229	1	2
460.400	1	2
460.570	1	-4
460.740	1	4
460.911	1	-1
461.081	1	7
461.252	1	4
461.422	1	-6
461.593	1	2
461.763	1	7
461.933	1	8
462.104	1	-2
462.274	1	-2
462.445	1	10
462.615	1	8
462.785	1	6
462.956	1	-5
463.126	1	4
463.297	1	-1
463.467	1	12
463.638	1	-1
463.808	1	5
463.978	1	-12
464.149	1	1
464.319	1	5
464.490	1	-2
464.660	1	-2
464.830	1	-4
465.001	1	-8
465.171	1	6
465.342	1	0
465.512	1	5
465.682	1	-3
465.853	1	-2
466.023	1	4
466.194	1	3
466.364	1	12
466.534	1	-5
466.705	1	19
466.875	1	-7
467.045	1	-9
467.216	1	2
467.386	1	3
467.557	1	10
467.727	1	-6
467.897	1	0
468.068	1	0
468.238	1	1
468.409	1	4
468.579	1	4
468.749	1	4
468.920	1	-4
469.090	1	9
469.260	1	2
469.431	1	-7
469.601	1	12
469.772	1	9
469.942	1	3
470.112	1	-6
470.283	1	7
470.453	1	15
470.623	1	3
470.794	1	8
470.964	1	-12
471.135	1	12
471.305	1	1
471.475	1	4
471.646	1	9
471.816	1	8
471.986	1	6
472.157	1	-1
472.327	1	11
472.497	1	-5
472.668	1	6
472.838	1	-3
473.009	1	8
473.179	1	-6
473.349	1	-1
473.520	1	9
473.690	1	6
473.860	1	-5
474.031	1	-11
474.201	1	0
474.371	1	8
474.542	1	-1
474.712	1	3
474.882	1	6
475.053	1	1
475.223	1	-5
475.394	1	-9
475.564	1	-4
475.734	1	-6
475.905	1	2
476.075	1	13
476.245	1	0
476.416	1	-1
476.586	1	-2
476.756	1	14
476.927	1	8
477.097	1	3
477.267	1	5
477.438	1	8
477.608	1	11
477.778	1	-11
477.949	1	-6
478.119	1	12
478.289	1	-4
478.460	1	-4
478.630	1	6
478.800	1	-2
478.971	1	7
479.141	1	6
479.311	1	-1
479.482	1	4
479.652	1	2
479.822	1	3
479.993	1	6
480.163	1	6
480.333	1	8
480.504	1	9
480.674	1	-2
480.844	1	11
481.015	1	-1
481.185	1	19
481.355	1	6
481.525	1	-1
481.696	1	-3
481.866	1	7
482.036	1	10
482.207	1	10
482.377	1	2
482.547	1	3
482.718	1	8
482.888	1	8
483.058	1	5
483.229	1	-1
483.399	1	-2
483.569	1	-5
483.740	1	-2
483.910	1	0
484.080	1	-2
484.250	1	-7
484.421	1	-1
484.591	1	-4
484.761	1	2
484.932	1	-10
485.102	1	10
485.272	1	5
485.443	1	3
485.613	1	-6
485.783	1	11
485.953	1	-4
486.124	1	3
486.294	1	5
486.464	1	10
486.635	1	-9
486.805	1	6
486.975	1	-1
487.146	1	5
487.316	1	-2
487.486	1	10
487.656	1	3
487.827	1	3
487.997	1	-7
488.167	1	6
488.338	1	-6
488.508	1	4
488.678	1	-5
488.848	1	6
489.019	1	0
489.189	1	8
489.359	1	-4
489.529	1	-1
489.700	1	-1
489.870	1	5
490.040	1	1
490.211	1	0
490.381	1	-6
490.551	1	-3
490.721	1	1
490.892	1	-12
491.062	1	-4
491.232	1	5
491.402	1	-5
491.573	1	11
491.743	1	-3
491.913	1	-1
492.084	1	-2
492.254	1	-3
492.424	1	-3
492.594	1	4
492.765	1	5
492.935	1	8
493.105	1	1
493.275	1	4
493.446	1	-4
493.616	1	-11
493.786	1	6
493.956	1	4
494.127	1	-11
494.297	1	-18
494.467	1	1
494.637	1	3
494.808	1	9
494.978	1	-11
495.148	1	-2
495.318	1	11
495.489	1	1
495.659	1	-3
495.829	1	12
495.999	1	11
496.170	1	7
496.340	1	-2
496.510	1	1
496.680	1	-5
496.851	1	12
497.021	1	5
497.191	1	0
497.361	1	-3
497.532	1	5
497.702	1	3
497.872	1	6
498.042	1	-5
498.213	1	-1
498.383	1	-3
498.553	1	3
498.723	1	-5
498.894	1	1
499.064	1	1
499.234	1	4
499.404	1	6
499.574	1	8
499.745	1	-2
499.915	1	-5
500.085	1	0
500.255	1	-16
500.426	1	1
500.596	1	-11
500.766	1	-5
500.936	1	-4
501.106	1	-4
501.277	1	-9
501.447	1	6
501.617	1	4
501.787	1	-7
501.958	1	12
502.128	1	-4
502.298	1	-2
502.468	1	1
502.638	1	0
502.809	1	-7
502.979	1	3
503.149	1	-8
503.319	1	11
503.489	1	-14
503.660	1	3
503.830	1	5
504.000	1	7
504.170	1	-5
504.340	1	-2
504.511	1	-8
504.681	1	-7
504.851	1	-12
505.021	1	-3
505.192	1	-7
505.362	1	-9
505.532	1	0
505.702	1	10
505.872	1	-7
506.043	1	6
506.213	1	4
506.383	1	2
506.553	1	-11
506.723	1	-10
506.893	1	0
507.064	1	4
507.234	1	-7
507.404	1	-2
507.574	1	2
507.744	1	-4
507.915	1	0
508.085	1	0
508.255	1	1
508.425	1	-8
508.595	1	8
508.766	1	-3
508.936	1	7
509.106	1	4
509.276	1	0
509.446	1	-4
509.616	1	4
509.787	1	0
509.957	1	1
510.127	1	-11
510.297	1	-6
510.467	1	8
510.638	1	-4
510.808	1	10
510.978	1	-14
511.148	1	4
511.318	1	4
511.488	1	4
511.659	1	8
511.829	1	-5
511.999	1	6
512.169	1	0
512.339	1	3
512.509	1	-6
512.680	1	-4
512.850	1	3
513.020	1	-4
513.190	1	-16
513.360	1	5
513.530	1	-4
513.700	1	7
513.871	1	6
514.041	1	6
514.211	1	-8
514.381	1	5
514.551	1	-10
514.721	1	0
514.892	1	-8
515.062	1	5
515.232	1	6
515.402	1	3
515.572	1	6
515.742	1	3
515.912	1	2
516.083	1	1
516.253	1	2
516.423	1	-3
516.593	1	0
516.763	1	2
516.933	1	2
517.104	1	6
517.274	1	-7
517.444	1	8
517.614	1	-11
517.784	1	0
517.954	1	-4
518.124	1	6
518.294	1	-6
518.465	1	3
518.635	1	4
518.805	1	8
518.975	1	3
519.145	1	2
519.315	1	10
519.485	1	-7
519.656	1	2
519.826	1	-3
519.996	1	-2
520.166	1	-9
520.336	1	6
520.506	1	1
520.676	1	2
520.846	1	8
521.017	1	-11
521.187	1	1
521.357	1	-10
521.527	1	-3
521.697	1	-9
521.867	1	2
522.037	1	8
522.207	1	3
522.377	1	5
522.548	1	-2
522.718	1	1
522.888	1	-5
523.058	1	-1
523.228	1	-7
523.398	1	-7
523.568	1	-7
523.738	1	3
523.909	1	0
524.079	1	1
524.249	1	-5
524.419	1	-1
524.589	1	1
524.759	1	6
524.929	1	-4
525.099	1	-3
525.269	1	5
525.439	1	-1
525.610	1	3
525.780	1	1
525.950	1	4
526.120	1	-5
526.290	1	-1
526.460	1	-2
526.630	1	-2
526.800	1	-13
526.970	1	8
527.140	1	5
527.311	1	2
527.481	1	8
527.651	1	-2
527.821	1	1
527.991	1	-5
528.161	1	1
528.331	1	-14
528.501	1	1
528.671	1	1
528.841	1	2
529.011	1	-6
529.181	1	-5
529.352	1	-2
529.522	1	-1
529.692	1	5
529.862	1	-4
530.032	1	-5
530.202	1	-4
530.372	1	4
530.542	1	-3
530.712	1	0
530.882	1	4
531.052	1	2
531.222	1	-3
531.392	1	-5
531.563	1	5
531.733	1	-4
531.903	1	-6
532.073	1	-3
532.243	1	3
532.413	1	11
532.583	1	-2
532.753	1	-7
532.923	1	2
533.093	1	-5
533.263	1	-4
533.433	1	-13
533.603	1	-6
533.773	1	0
533.943	1	2
534.113	1	-2
534.284	1	-3
534.454	1	-5
534.624	1	0
534.794	1	-1
534.964	1	1
535.134	1	-4
535.304	1	-5
535.474	1	4
535.644	1	3
535.814	1	-5
535.984	1	0
536.154	1	1
536.324	1	1
536.494	1	0
536.664	1	2
536.834	1	-8
537.004	1	0
537.174	1	0
537.344	1	2
537.514	1	-5
537.685	1	10
537.855	1	2
538.025	1	7
538.195	1	-1
538.365	1	3
538.535	1	-3
538.705	1	0
538.875	1	-1
539.045	1	2
539.215	1	-8
539.385	1	-1
539.555	1	-5
539.725	1	-5
539.895	1	-9
540.065	1	-2
540.235	1	2
540.405	1	1
540.575	1	4
540.745	1	5
540.915	1	-7
541.085	1	-9
541.255	1	-9
541.425	1	-1
541.595	1	-8
541.765	1	-2
541.935	1	2
542.105	1	0
542.275	1	-1
542.445	1	0
542.615	1	2
542.785	1	-4
542.955	1	6
543.125	1	-9
543.295	1	0
543.465	1	0
543.635	1	-13
543.805	1	11
543.975	1	-1
544.145	1	2
544.315	1	-8
544.485	1	-1
544.655	1	-4
544.825	1	-3
544.995	1	-8
545.165	1	-6
545.335	1	4
545.505	1	-1
545.675	1	-2
545.845	1	3
546.015	1	-6
546.185	1	-4
546.355	1	0
546.525	1	1
546.695	1	-2
546.865	1	1
547.035	1	9
547.205	1	8
547.375	1	7
547.545	1	4
547.715	1	-10
547.885	1	-10
548.055	1	-2
548.225	1	7
548.395	1	-1
548.565	1	3
548.735	1	-5
548.905	1	4
549.075	1	-5
549.245	1	-1
549.415	1	1
549.585	1	-6
549.755	1	2
549.925	1	3
550.095	1	-8
550.265	1	-3
550.435	1	7
550.605	1	-5
550.775	1	-6
550.945	1	-3
551.115	1	3
551.285	1	-6
551.455	1	5
551.625	1	0
551.795	1	-6
551.965	1	-8
552.135	1	-2
552.305	1	4
552.475	1	7
552.645	1	-4
552.815	1	-2
552.985	1	2
553.155	1	-6
553.325	1	-1
553.495	1	2
553.665	1	-2
553.835	1	2
554.004	1	9
554.174	1	-11
554.344	1	2
554.514	1	-7
554.684	1	-4
554.854	1	-14
555.024	1	14
555.194	1	7
555.364	1	-2
555.534	1	-10
555.704	1	-1
555.874	1	1
556.044	1	2
556.214	1	3
556.384	1	9
556.554	1	4
556.724	1	0
556.894	1	-5
557.064	1	-3
557.234	1	1
557.404	1	0
557.573	1	-2
557.743	1	2
557.913	1	-6
558.083	1	-6
558.253	1	-7
558.423	1	-5
558.593	1	2
558.763	1	0
558.933	1	-7
559.103	1	-10
559.273	1	4
559.443	1	2
559.613	1	0
559.783	1	-7
559.953	1	-6
560.122	1	-3
560.292	1	-8
560.462	1	-6
560.632	1	-7
560.802	1	5
560.972	1	-10
561.142	1	3
561.312	1	-4
561.482	1	7
561.652	1	5
561.822	1	4
561.992	1	0
562.162	1	-7
562.331	1	-12
562.501	1	-4
562.671	1	-3
562.841	1	-4
563.011	1	-3
563.181	1	-1
563.351	1	-5
563.521	1	-2
563.691	1	-6
563.861	1	0
564.031	1	-7
564.201	1	-1
564.370	1	2
564.540	1	-5
564.710	1	-1
564.880	1	0
565.050	1	2
565.220	1	8
565.390	1	-6
565.560	1	-8
565.730	1	2
565.900	1	-3
566.069	1	3
566.239	1	12
566.409	1	9
566.579	1	4
566.749	1	-6
566.919	1	-12
567.089	1	-13
567.259	1	3
567.429	1	2
567.599	1	8
567.768	1	-1
567.938	1	2
568.108	1	2
568.278	1	6
568.448	1	0
568.618	1	2
568.788	1	-5
568.958	1	0
569.128	1	-8
569.297	1	-2
569.467	1	9
569.637	1	1
569.807	1	-1
569.977	1	0
570.147	1	-8
570.317	1	-4
570.487	1	-4
570.656	1	-1
570.826	1	-9
570.996	1	5
571.166	1	-7
571.336	1	3
571.506	1	-8
571.676	1	2
571.846	1	-2
572.015	1	0
572.185	1	-9
572.355	1	-7
572.525	1	-10
572.695	1	-8
572.865	1	4
573.035	1	0
573.205	1	6
573.374	1	-4
573.544	1	-1
573.714	1	0
573.884	1	-6
574.054	1	-1
574.224	1	-2
574.394	1	-9
574.563	1	-5
574.733	1	-5
574.903	1	9
575.073	1	6
575.243	1	-7
575.413	1	5
575.583	1	-11
575.752	1	-10
575.922	1	12
576.092	1	-6
576.262	1	0
576.432	1	-8
576.602	1	-2
576.772	1	-7
576.941	1	-9
577.111	1	0
577.281	1	7
577.451	1	-3
577.621	1	0
577.791	1	-6
577.960	1	7
578.130	1	-5
578.300	1	-5
578.470	1	0
578.640	1	3
578.810	1	-9
578.979	1	11
579.149	1	-8
579.319	1	7
579.489	1	2
579.659	1	-3
579.829	1	-10
579.998	1	-11
580.168	1	-7
580.338	1	2
580.508	1	1
580.678	1	9
580.848	1	4
581.017	1	0
581.187	1	-1
581.357	1	-8
581.527	1	-1
581.697	1	-1
581.867	1	-9
582.036	1	-9
582.206	1	-2
582.376	1	-12
582.546	1	-4
582.716	1	8
582.885	1	-7
583.055	1	-5
583.225	1	0
583.395	1	0
583.565	1	-6
583.735	1	-2
583.904	1	-3
584.074	1	-12
584.244	1	-5
584.414	1	-7
584.584	1	2
584.753	1	3
584.923	1	-14
585.093	1	-2
585.263	1	-6
585.433	1	-8
585.602	1	3
585.772	1	16
585.942	1	-5
586.112	1	8
586.282	1	-3
586.451	1	10
586.621	1	-6
586.791	1	-11
586.961	1	0
587.131	1	-3
587.300	1	6
587.470	1	0
587.640	1	1
587.810	1	-11
587.980	1	1
588.149	1	2
588.319	1	4
588.489	1	-3
588.659	1	1
588.829	1	-1
588.998	1	1
589.168	1	-3
589.338	1	-11
589.508	1	6
589.677	1	-5
589.847	1	1
590.017	1	-4
590.187	1	-4
590.357	1	-10
590.526	1	-8
590.696	1	-2
590.866	1	-7
591.036	1	0
591.205	1	2
591.375	1	5
591.545	1	-4
591.715	1	-5
591.885	1	1
592.054	1	3
592.224	1	-4
592.394	1	-13
592.564	1	8
592.733	1	-2
592.903	1	-6
593.073	1	0
593.243	1	7
593.412	1	-9
593.582	1	-4
593.752	1	-4
593.922	1	-1
594.091	1	-6
594.261	1	-8
594.431	1	-2
594.601	1	-2
594.771	1	-3
594.940	1	-9
595.110	1	2
595.280	1	3
595.450	1	4
595.619	1	4
595.789	1	-3
595.959	1	-12
596.129	1	-3
596.298	1	12
596.468	1	-8
596.638	1	-2
596.808	1	-19
596.977	1	-2
597.147	1	-6
597.317	1	1
597.487	1	-3
597.656	1	1
597.826	1	3
597.996	1	-8
598.166	1	-1
598.335	1	-14
598.505	1	5
598.675	1	-3
598.844	1	13
599.014	1	-10
599.184	1	5
599.354	1	10
599.523	1	-3
599.693	1	-5
599.863	1	1
600.033	1	4
600.202	1	4
600.372	1	-8
600.542	1	2
600.712	1	-9
600.881	1	0
601.051	1	1
601.221	1	8
601.390	1	-2
601.560	1	12
601.730	1	-9
601.900	1	1
602.069	1	-7
602.239	1	-2
602.409	1	-5
602.578	1	6
602.748	1	13
602.918	1	-4
603.088	1	0
603.257	1	-12
603.427	1	-2
603.597	1	2
603.767	1	-3
603.936	1	1
604.106	1	-3
604.276	1	-6
604.445	1	-3
604.615	1	6
604.785	1	10
604.954	1	-1
605.124	1	-6
605.294	1	-8
605.464	1	-10
605.633	1	-2
605.803	1	1
605.973	1	-1
606.142	1	-1
606.312	1	0
606.482	1	3
606.652	1	1
606.821	1	3
606.991	1	-1
607.161	1	-8
607.330	1	-5
607.500	1	-3
607.670	1	3
607.839	1	-3
608.009	1	-7
608.179	1	2
608.348	1	8
608.518	1	15
608.688	1	0
608.858	1	-9
609.027	1	8
609.197	1	3
609.367	1	-8
609.536	1	-3
609.706	1	3
609.876	1	5
610.045	1	-9
610.215	1	6
610.385	1	-1
610.554	1	-8
610.724	1	-8
610.894	1	-1
611.063	1	-3
611.233	1	7
611.403	1	3
611.572	1	2
611.742	1	-1
611.912	1	-1
612.081	1	5
612.251	1	2
612.421	1	3
612.590	1	3
612.760	1	-2
612.930	1	2
613.099	1	3
613.269	1	-8
613.439	1	-4
613.608	1	-1
613.778	1	-6
613.948	1	11
614.117	1	-14
614.287	1	-6
614.457	1	7
614.626	1	-2
614.796	1	-6
614.966	1	-6
615.135	1	8
615.305	1	1
615.475	1	0
615.644	1	5
615.814	1	11
615.984	1	-5
616.153	1	-4
616.323	1	-1
616.493	1	1
616.662	1	-3
616.832	1	8
617.002	1	-3
617.171	1	5
617.341	1	7
617.511	1	-11
617.680	1	-1
617.850	1	2
618.019	1	-7
618.189	1	14
618.359	1	-1
618.528	1	1
618.698	1	-3
618.868	1	-8
619.037	1	-11
619.207	1	-7
619.377	1	2
619.546	1	3
619.716	1	-2
619.885	1	1
620.055	1	-12
620.225	1	2
620.394	1	-1
620.564	1	-2
620.734	1	2
620.903	1	-15
621.073	1	6
621.242	1	0
621.412	1	1
621.582	1	7
621.751	1	0
621.921	1	0
622.091	1	-2
622.260	1	3
622.430	1	-4
622.599	1	-6
622.769	1	-6
622.939	1	-9
623.108	1	6
623.278	1	0
623.448	1	4
623.617	1	6
623.787	1	-5
623.956	1	-3
624.126	1	-5
624.296	1	1
624.465	1	0
624.635	1	-2
624.804	1	-8
624.974	1	-4
625.144	1	-1
625.313	1	8
625.483	1	5
625.652	1	-3
625.822	1	3
625.992	1	-10
626.161	1	-7
626.331	1	-4
626.501	1	-2
626.670	1	2
626.840	1	6
627.009	1	3
627.179	1	-8
627.348	1	7
627.518	1	10
627.688	1	-10
627.857	1	5
628.027	1	1
628.196	1	0
628.366	1	-11
628.536	1	4
628.705	1	-5
628.875	1	-4
629.044	1	-11
629.214	1	-7
629.384	1	7
629.553	1	0
629.723	1	2
629.892	1	2
630.062	1	6
630.232	1	4
630.401	1	-4
630.571	1	-2
630.740	1	-4
630.910	1	6
631.079	1	-1
631.249	1	-7
631.419	1	3
631.588	1	8
631.758	1	-7
631.927	1	8
632.097	1	-5
632.266	1	5
632.436	1	-4
632.606	1	-6
632.775	1	-4
632.945	1	0
633.114	1	-1
633.284	1	-6
633.453	1	2
633.623	1	12
633.793	1	4
633.962	1	6
634.132	1	1
634.301	1	5
634.471	1	-5
634.640	1	-6
634.810	1	-5
634.979	1	-1
635.149	1	-7
635.319	1	0
635.488	1	-3
635.658	1	1
635.827	1	3
635.997	1	2
636.166	1	-6
636.336	1	-10
636.505	1	1
636.675	1	-6
636.845	1	-2
637.014	1	-16
637.184	1	4
637.353	1	-3
637.523	1	-1
637.692	1	0
637.862	1	-4
638.031	1	-9
638.201	1	2
638.370	1	2
638.540	1	-8
638.710	1	-6
638.879	1	0
639.049	1	1
639.218	1	-1
639.388	1	-7
639.557	1	-9
639.727	1	-5
639.896	1	-6
640.066	1	-1
640.235	1	5
640.405	1	-2
640.574	1	11
640.744	1	-8
640.914	1	0
641.083	1	3
641.253	1	-1
641.422	1	-6
641.592	1	4
641.761	1	-9
641.931	1	8
642.100	1	-3
642.270	1	3
642.439	1	4
642.609	1	10
642.778	1	-2
642.948	1	7
643.117	1	2
643.287	1	4
643.456	1	-6
643.626	1	-7
643.795	1	-5
643.965	1	2
644.134	1	9
644.304	1	-3
644.473	1	-6
644.643	1	-1
644.812	1	2
644.982	1	-6
645.151	1	-3
645.321	1	8
645.490	1	9
645.660	1	-10
645.829	1	-4
645.999	1	-5
646.168	1	19
646.338	1	-1
646.507	1	-3
646.677	1	0
646.846	1	-2
647.016	1	9
647.185	1	3
647.355	1	5
647.524	1	-8
647.694	1	-3
647.863	1	-1
648.033	1	4
648.202	1	2
648.372	1	-11
648.541	1	-3
648.711	1	5
648.880	1	-7
649.050	1	0
649.219	1	1
649.389	1	0
649.558	1	-4
649.728	1	-2
649.897	1	0
650.067	1	3
650.236	1	-8
650.406	1	0
650.575	1	5
650.745	1	2
650.914	1	0
651.084	1	16
651.253	1	-1
651.423	1	-9
651.592	1	-3
651.762	1	-9
651.931	1	-2
652.101	1	-8
652.270	1	0
652.440	1	5
652.609	1	6
652.778	1	3
652.948	1	-1
653.117	1	-5
653.287	1	-16
653.456	1	-5
653.626	1	-2
653.795	1	-5
653.965	1	-7
654.134	1	-7
654.304	1	-1
654.473	1	2
654.643	1	5
654.812	1	17
654.982	1	-4
655.151	1	0
655.320	1	-5
655.490	1	0
655.659	1	5
655.829	1	2
655.998	1	1
656.168	1	-6
656.337	1	-4
656.507	1	-4
656.676	1	-13
656.846	1	9
657.015	1	4
657.184	1	0
657.354	1	0
657.523	1	-11
657.693	1	8
657.862	1	-14
658.032	1	-4
658.201	1	-5
658.371	1	-1
658.540	1	-8
658.709	1	2
658.879	1	0
659.048	1	1
659.218	1	2
659.387	1	3
659.557	1	-13
659.726	1	-7
659.895	1	-1
660.065	1	-12
660.234	1	-11
660.404	1	7
660.573	1	5
660.743	1	5
660.912	1	-1
661.081	1	-12
661.251	1	-17
661.420	1	3
661.590	1	0
661.759	1	-5
661.929	1	1
662.098	1	5
662.267	1	-17
662.437	1	2
662.606	1	-5
662.776	1	-3
662.945	1	8
663.115	1	10
663.284	1	14
663.453	1	-12
663.623	1	-4
663.792	1	5
663.962	1	11
664.131	1	-6
664.300	1	-1
664.470	1	-14
664.639	1	5
664.809	1	-7
664.978	1	5
665.148	1	-3
665.317	1	1
665.486	1	0
665.656	1	5
665.825	1	1
665.995	1	-5
666.164	1	-10
666.333	1	-7
666.503	1	-10
666.672	1	-2
666.842	1	-5
667.011	1	1
667.180	1	3
667.350	1	2
667.519	1	0
667.689	1	-9
667.858	1	5
668.027	1	-9
668.197	1	-4
668.366	1	-6
668.536	1	3
668.705	1	-3
668.874	1	9
669.044	1	-1
669.213	1	9
669.382	1	-4
669.552	1	7
669.721	1	-7
669.891	1	-8
670.060	1	-2
670.229	1	-8
670.399	1	1
670.568	1	0
670.738	1	-3
670.907	1	-7
671.076	1	9
671.246	1	-1
671.415	1	8
671.584	1	0
671.754	1	-8
671.923	1	-6
672.093	1	-3
672.262	1	3
672.431	1	-5
672.601	1	-2
672.770	1	-4
672.939	1	6
673.109	1	-2
673.278	1	-6
673.448	1	-1
673.617	1	0
673.786	1	-12
