325.333	1	4
325.504	1	2
325.675	1	15
325.846	1	10
326.017	1	1
326.188	1	14
326.359	1	14
326.531	1	-5
326.702	1	4
326.873	1	10
327.044	1	14
327.215	1	-6
327.386	1	5
327.557	1	2
327.728	1	-1
327.899	1	5
328.070	1	11
328.241	1	3
328.412	1	14
328.583	1	4
328.754	1	13
328.926	1	17
329.097	1	2
329.268	1	14
329.439	1	21
329.610	1	-1
329.781	1	11
329.952	1	7
330.123	1	3
330.294	1	5
330.465	1	0
330.636	1	12
330.807	1	14
330.978	1	8
331.149	1	12
331.320	1	10
331.492	1	-2
331.663	1	12
331.834	1	18
332.005	1	17
332.176	1	8
332.347	1	10
332.518	1	12
332.689	1	9
332.860	1	1
333.031	1	20
333.202	1	-1
333.373	1	1
333.544	1	13
333.715	1	11
333.886	1	8
334.057	1	-1
334.228	1	9
334.399	1	8
334.570	1	4
334.741	1	-3
334.912	1	2
335.084	1	8
335.255	1	17
335.426	1	14
335.597	1	7
335.768	1	22
335.939	1	9
336.110	1	10
336.281	1	2
336.452	1	22
336.623	1	13
336.794	1	9
336.965	1	8
337.136	1	17
337.307	1	16
337.478	1	8
337.649	1	5
337.820	1	8
337.991	1	7
338.162	1	15
338.333	1	6
338.504	1	14
338.675	1	5
338.846	1	6
339.017	1	18
339.188	1	4
339.359	1	12
339.530	1	9
339.701	1	14
339.872	1	20
340.043	1	16
340.214	1	8
340.385	1	-2
340.556	1	20
340.727	1	17
340.898	1	23
341.069	1	16
341.240	1	20
341.411	1	11
341.582	1	7
341.753	1	24
341.924	1	22
342.095	1	10
342.266	1	25
342.437	1	17
342.608	1	11
342.779	1	8
342.950	1	14
343.121	1	17
343.292	1	20
343.463	1	24
343.634	1	9
343.805	1	14
343.976	1	28
344.147	1	24
344.318	1	4
344.489	1	6
344.660	1	22
344.831	1	22
345.002	1	14
345.173	1	12
345.344	1	12
345.515	1	12
345.686	1	16
345.857	1	14
346.028	1	25
346.199	1	25
346.370	1	17
346.541	1	12
346.712	1	12
346.883	1	8
347.054	1	30
347.225	1	5
347.396	1	11
347.567	1	5
347.738	1	24
347.909	1	13
348.080	1	16
348.251	1	9
348.422	1	26
348.593	1	23
348.764	1	21
348.935	1	13
349.106	1	15
349.277	1	17
349.448	1	17
349.619	1	14
349.790	1	20
349.961	1	8
350.132	1	19
350.303	1	11
350.474	1	23
350.645	1	15
350.816	1	25
350.987	1	20
351.157	1	15
351.328	1	17
351.499	1	24
351.670	1	12
351.841	1	17
352.012	1	34
352.183	1	21
352.354	1	17
352.525	1	20
352.696	1	10
352.867	1	25
353.038	1	25
353.209	1	23
353.380	1	22
353.551	1	36
353.722	1	28
353.893	1	23
354.064	1	24
354.235	1	18
354.406	1	7
354.576	1	22
354.747	1	18
354.918	1	17
355.089	1	24
355.260	1	18
355.431	1	15
355.602	1	24
355.773	1	22
355.944	1	26
356.115	1	27
356.286	1	27
356.457	1	26
356.628	1	21
356.799	1	22
356.970	1	41
357.141	1	21
357.311	1	33
357.482	1	28
357.653	1	8
357.824	1	31
357.995	1	33
358.166	1	18
358.337	1	24
358.508	1	38
358.679	1	19
358.850	1	34
359.021	1	30
359.192	1	35
359.363	1	27
359.533	1	22
359.704	1	21
359.875	1	21
360.046	1	35
360.217	1	28
360.388	1	30
360.559	1	34
360.730	1	27
360.901	1	27
361.072	1	30
361.243	1	29
361.414	1	36
361.584	1	30
361.755	1	22
361.926	1	36
362.097	1	25
362.268	1	34
362.439	1	23
362.610	1	32
362.781	1	20
362.952	1	35
363.123	1	14
363.293	1	25
363.464	1	37
363.635	1	20
363.806	1	36
363.977	1	41
364.148	1	21
364.319	1	29
364.490	1	39
364.661	1	15
364.832	1	37
365.002	1	30
365.173	1	31
365.344	1	28
365.515	1	30
365.686	1	38
365.857	1	32
366.028	1	33
366.199	1	38
366.370	1	36
366.540	1	30
366.711	1	30
366.882	1	29
367.053	1	38
367.224	1	28
367.395	1	36
367.566	1	39
367.737	1	26
367.908	1	24
368.078	1	18
368.249	1	33
368.420	1	19
368.591	1	29
368.762	1	36
368.933	1	20
369.104	1	33
369.274	1	40
369.445	1	28
369.616	1	31
369.787	1	34
369.958	1	23
370.129	1	29
370.300	1	23
370.471	1	27
370.641	1	25
370.812	1	39
370.983	1	27
371.154	1	37
371.325	1	26
371.496	1	36
371.667	1	36
371.837	1	34
372.008	1	25
372.179	1	30
372.350	1	26
372.521	1	35
372.692	1	35
372.863	1	34
373.033	1	32
373.204	1	24
373.375	1	33
373.546	1	33
373.717	1	31
373.888	1	25
374.059	1	32
374.229	1	36
374.400	1	25
374.571	1	32
374.742	1	22
374.913	1	18
375.084	1	30
375.254	1	23
375.425	1	31
375.596	1	34
375.767	1	43
375.938	1	28
376.109	1	28
376.279	1	26
376.450	1	36
376.621	1	30
376.792	1	39
376.963	1	27
377.134	1	37
377.304	1	45
377.475	1	34
377.646	1	23
377.817	1	45
377.988	1	33
378.159	1	39
378.329	1	31
378.500	1	48
378.671	1	23
378.842	1	34
379.013	1	39
379.184	1	30
379.354	1	47
379.525	1	41
379.696	1	40
379.867	1	37
380.038	1	35
380.209	1	45
380.379	1	36
380.550	1	25
380.721	1	32
380.892	1	29
381.063	1	30
381.233	1	28
381.404	1	42
381.575	1	35
381.746	1	43
381.917	1	33
382.087	1	40
382.258	1	38
382.429	1	33
382.600	1	32
382.771	1	38
382.941	1	43
383.112	1	36
383.283	1	40
383.454	1	49
383.625	1	44
383.795	1	38
383.966	1	32
384.137	1	47
384.308	1	40
384.479	1	35
384.649	1	36
384.820	1	47
384.991	1	31
385.162	1	55
385.333	1	36
385.503	1	38
385.674	1	37
385.845	1	44
386.016	1	46
386.187	1	30
386.357	1	49
386.528	1	39
386.699	1	33
386.870	1	39
387.041	1	39
387.211	1	41
387.382	1	57
387.553	1	42
387.724	1	40
387.894	1	34
388.065	1	30
388.236	1	34
388.407	1	41
388.578	1	46
388.748	1	43
388.919	1	34
389.090	1	56
389.261	1	49
389.431	1	31
389.602	1	48
389.773	1	48
389.944	1	47
390.114	1	38
390.285	1	38
390.456	1	37
390.627	1	38
390.798	1	41
390.968	1	43
391.139	1	59
391.310	1	37
391.481	1	38
391.651	1	50
391.822	1	60
391.993	1	38
392.164	1	42
392.334	1	38
392.505	1	46
392.676	1	35
392.847	1	42
393.017	1	40
393.188	1	38
393.359	1	49
393.530	1	61
393.700	1	40
393.871	1	40
394.042	1	31
394.213	1	47
394.383	1	47
394.554	1	51
394.725	1	38
394.896	1	54
395.066	1	45
395.237	1	42
395.408	1	47
395.579	1	42
395.749	1	58
395.920	1	39
396.091	1	46
396.262	1	49
396.432	1	43
396.603	1	40
396.774	1	37
396.945	1	47
397.115	1	44
397.286	1	51
397.457	1	50
397.627	1	42
397.798	1	44
397.969	1	53
398.140	1	46
398.310	1	55
398.481	1	43
398.652	1	40
398.823	1	40
398.993	1	42
399.164	1	41
399.335	1	41
399.505	1	32
399.676	1	42
399.847	1	45
400.018	1	41
400.188	1	45
400.359	1	48
400.530	1	44
400.700	1	50
400.871	1	53
401.042	1	37
401.213	1	51
401.383	1	49
401.554	1	47
401.725	1	48
401.895	1	37
402.066	1	57
402.237	1	45
402.408	1	43
402.578	1	54
402.749	1	47
402.920	1	58
403.090	1	47
403.261	1	36
403.432	1	51
403.603	1	51
403.773	1	58
403.944	1	49
404.115	1	45
404.285	1	50
404.456	1	52
404.627	1	47
404.797	1	39
404.968	1	44
405.139	1	53
405.310	1	40
405.480	1	41
405.651	1	42
405.822	1	52
405.992	1	49
406.163	1	25
406.334	1	36
406.504	1	45
406.675	1	45
406.846	1	49
407.016	1	55
407.187	1	49
407.358	1	43
407.528	1	48
407.699	1	52
407.870	1	48
408.041	1	47
408.211	1	56
408.382	1	42
408.553	1	41
408.723	1	48
408.894	1	49
409.065	1	43
409.235	1	47
409.406	1	54
409.577	1	47
409.747	1	49
409.918	1	48
410.089	1	57
410.259	1	47
410.430	1	54
410.601	1	51
410.771	1	49
410.942	1	49
411.113	1	47
411.283	1	56
411.454	1	57
411.625	1	47
411.795	1	59
411.966	1	50
412.137	1	52
412.307	1	50
412.478	1	51
412.649	1	53
412.819	1	48
412.990	1	53
413.161	1	52
413.331	1	51
413.502	1	39
413.672	1	44
413.843	1	38
414.014	1	48
414.184	1	51
414.355	1	56
414.526	1	42
414.696	1	41
414.867	1	34
415.038	1	42
415.208	1	25
415.379	1	40
415.550	1	50
415.720	1	39
415.891	1	49
416.062	1	57
416.232	1	57
416.403	1	54
416.573	1	43
416.744	1	49
416.915	1	37
417.085	1	52
417.256	1	46
417.427	1	44
417.597	1	42
417.768	1	54
417.939	1	43
418.109	1	44
418.280	1	43
418.450	1	66
418.621	1	36
418.792	1	42
418.962	1	60
419.133	1	45
419.304	1	43
419.474	1	47
419.645	1	52
419.815	1	44
419.986	1	61
420.157	1	43
420.327	1	41
420.498	1	44
420.669	1	51
420.839	1	53
421.010	1	43
421.180	1	45
421.351	1	52
421.522	1	49
421.692	1	57
421.863	1	43
422.033	1	48
422.204	1	55
422.375	1	55
422.545	1	48
422.716	1	40
422.886	1	43
423.057	1	52
423.228	1	31
423.398	1	49
423.569	1	46
423.740	1	45
423.910	1	43
424.081	1	62
424.251	1	47
424.422	1	54
424.593	1	48
424.763	1	52
424.934	1	58
425.104	1	47
425.275	1	46
425.445	1	41
425.616	1	51
425.787	1	45
425.957	1	40
426.128	1	44
426.298	1	43
426.469	1	34
426.640	1	36
426.810	1	30
426.981	1	51
427.151	1	29
427.322	1	39
427.493	1	43
427.663	1	53
427.834	1	49
428.004	1	50
428.175	1	49
428.345	1	28
428.516	1	37
428.687	1	53
428.857	1	49
429.028	1	37
429.198	1	41
429.369	1	49
429.540	1	45
429.710	1	39
429.881	1	36
430.051	1	34
430.222	1	40
430.392	1	55
430.563	1	42
430.734	1	39
430.904	1	41
431.075	1	41
431.245	1	48
431.416	1	44
431.586	1	41
431.757	1	52
431.927	1	46
432.098	1	46
432.269	1	46
432.439	1	45
432.610	1	50
432.780	1	47
432.951	1	39
433.121	1	42
433.292	1	47
433.462	1	37
433.633	1	45
433.804	1	54
433.974	1	39
434.145	1	49
434.315	1	37
434.486	1	33
434.656	1	49
434.827	1	43
434.997	1	50
435.168	1	45
435.339	1	59
435.509	1	38
435.680	1	53
435.850	1	31
436.021	1	53
436.191	1	39
436.362	1	45
436.532	1	43
436.703	1	44
436.873	1	40
437.044	1	48
437.214	1	40
437.385	1	43
437.556	1	58
437.726	1	49
437.897	1	41
438.067	1	42
438.238	1	40
438.408	1	41
438.579	1	36
438.749	1	31
438.920	1	55
439.090	1	39
439.261	1	55
439.431	1	27
439.602	1	41
439.772	1	46
439.943	1	32
440.113	1	39
440.284	1	39
440.455	1	38
440.625	1	46
440.796	1	36
440.966	1	50
441.137	1	47
441.307	1	35
441.478	1	26
441.648	1	36
441.819	1	34
441.989	1	44
442.160	1	42
442.330	1	45
442.501	1	40
442.671	1	45
442.842	1	40
443.012	1	38
443.183	1	28
443.353	1	36
443.524	1	44
443.694	1	34
443.865	1	47
444.035	1	34
444.206	1	35
444.376	1	46
444.547	1	41
444.717	1	42
444.888	1	27
445.058	1	43
445.229	1	40
445.399	1	41
445.570	1	31
445.740	1	35
445.911	1	50
446.081	1	34
446.252	1	38
446.422	1	47
446.593	1	33
446.763	1	39
446.934	1	37
447.104	1	25
447.275	1	42
447.445	1	46
447.616	1	34
447.786	1	42
447.957	1	32
448.127	1	43
448.298	1	41
448.468	1	43
448.639	1	37
448.809	1	41
448.979	1	47
449.150	1	33
449.320	1	36
449.491	1	44
449.661	1	28
449.832	1	33
450.002	1	32
450.173	1	47
450.343	1	34
450.514	1	45
450.684	1	46
450.855	1	41
451.025	1	33
451.196	1	30
451.366	1	42
451.537	1	39
451.707	1	47
451.878	1	33
452.048	1	29
452.218	1	42
452.389	1	41
452.559	1	49
452.730	1	36
452.900	1	20
453.071	1	48
453.241	1	33
453.412	1	26
453.582	1	40
453.753	1	51
453.923	1	32
454.093	1	26
454.264	1	44
454.434	1	34
454.605	1	26
454.775	1	31
454.946	1	28
455.116	1	39
455.287	1	31
455.457	1	36
455.628	1	26
455.798	1	33
455.968	1	32
456.139	1	37
456.309	1	35
456.480	1	40
456.650	1	28
456.821	1	38
456.991	1	40
457.161	1	44
457.332	1	33
457.502	1	34
457.673	1	28
457.843	1	30
458.014	1	41
458.184	1	34
458.355	1	30
458.525	1	29
458.695	1	22
458.866	1	22
459.036	1	30
459.207	1	30
459.377	1	36
459.548	1	32
459.718	1	34
459.888	1	25
460.059	1	37
460.229	1	29
460.400	1	27
460.570	1	23
460.740	1	34
460.911	1	25
461.081	1	38
461.252	1	39
461.422	1	32
461.593	1	35
461.763	1	38
461.933	1	37
462.104	1	21
462.274	1	26
462.445	1	16
462.615	1	36
462.785	1	28
462.956	1	20
463.126	1	25
463.297	1	38
463.467	1	44
463.638	1	34
463.808	1	26
463.978	1	24
464.149	1	31
464.319	1	30
464.490	1	31
464.660	1	26
464.830	1	29
465.001	1	20
465.171	1	32
465.342	1	25
465.512	1	23
465.682	1	27
465.853	1	30
466.023	1	36
466.194	1	35
466.364	1	24
466.534	1	23
466.705	1	41
466.875	1	17
467.045	1	19
467.216	1	33
467.386	1	27
467.557	1	35
467.727	1	25
467.897	1	36
468.068	1	17
468.238	1	16
468.409	1	25
468.579	1	22
468.749	1	16
468.920	1	8
469.090	1	33
469.260	1	29
469.431	1	13
469.601	1	29
469.772	1	42
469.942	1	26
470.112	1	25
470.283	1	31
470.453	1	22
470.623	1	36
470.794	1	35
470.964	1	11
471.135	1	35
471.305	1	23
471.475	1	21
471.646	1	27
471.816	1	36
471.986	1	22
472.157	1	21
472.327	1	34
472.497	1	13
472.668	1	26
472.838	1	16
473.009	1	22
473.179	1	18
473.349	1	22
473.520	1	31
473.690	1	19
473.860	1	26
474.031	1	10
474.201	1	19
474.371	1	30
474.542	1	22
474.712	1	11
474.882	1	36
475.053	1	33
475.223	1	14
475.394	1	20
475.564	1	26
475.734	1	9
475.905	1	34
476.075	1	28
476.245	1	26
476.416	1	25
476.586	1	12
476.756	1	28
476.927	1	27
477.097	1	11
477.267	1	21
477.438	1	35
477.608	1	22
477.778	1	17
477.949	1	14
478.119	1	27
478.289	1	15
478.460	1	24
478.630	1	19
478.800	1	12
478.971	1	26
479.141	1	19
479.311	1	17
479.482	1	24
479.652	1	23
479.822	1	17
479.993	1	24
480.163	1	8
480.333	1	18
480.504	1	25
480.674	1	8
480.844	1	19
481.015	1	24
481.185	1	27
481.355	1	27
481.525	1	20
481.696	1	21
481.866	1	36
482.036	1	28
482.207	1	26
482.377	1	18
482.547	1	21
482.718	1	10
482.888	1	21
483.058	1	26
483.229	1	23
483.399	1	20
483.569	1	12
483.740	1	16
483.910	1	15
484.080	1	8
484.250	1	8
484.421	1	16
484.591	1	9
484.761	1	15
484.932	1	22
485.102	1	27
485.272	1	16
485.443	1	22
485.613	1	5
485.783	1	10
485.953	1	13
486.124	1	20
486.294	1	25
486.464	1	29
486.635	1	14
486.805	1	29
486.975	1	6
487.146	1	24
487.316	1	30
487.486	1	18
487.656	1	18
487.827	1	17
487.997	1	5
488.167	1	15
488.338	1	13
488.508	1	21
488.678	1	18
488.848	1	21
489.019	1	17
489.189	1	19
489.359	1	7
489.529	1	14
489.700	1	14
489.870	1	23
490.040	1	18
490.211	1	6
490.381	1	16
490.551	1	27
490.721	1	14
490.892	1	5
491.062	1	19
491.232	1	15
491.402	1	17
491.573	1	12
491.743	1	14
491.913	1	14
492.084	1	17
492.254	1	14
492.424	1	15
492.594	1	15
492.765	1	19
492.935	1	20
493.105	1	17
493.275	1	8
493.446	1	10
493.616	1	0
493.786	1	19
493.956	1	25
494.127	1	10
494.297	1	-1
494.467	1	18
494.637	1	19
494.808	1	18
494.978	1	14
495.148	1	13
495.318	1	13
495.489	1	9
495.659	1	23
495.829	1	19
495.999	1	12
496.170	1	8
496.340	1	4
496.510	1	12
496.680	1	5
496.851	1	28
497.021	1	9
497.191	1	22
497.361	1	2
497.532	1	20
497.702	1	25
497.872	1	7
498.042	1	4
498.213	1	6
498.383	1	11
498.553	1	3
498.723	1	15
498.894	1	12
499.064	1	16
499.234	1	19
499.404	1	23
499.574	1	11
499.745	1	14
499.915	1	20
500.085	1	0
500.255	1	1
500.426	1	9
500.596	1	10
500.766	1	8
500.936	1	5
501.106	1	9
501.277	1	7
501.447	1	18
501.617	1	3
501.787	1	10
501.958	1	11
502.128	1	9
502.298	1	12
502.468	1	4
502.638	1	24
502.809	1	10
502.979	1	10
503.149	1	12
503.319	1	23
503.489	1	2
503.660	1	8
503.830	1	13
504.000	1	9
504.170	1	10
504.340	1	6
504.511	1	15
504.681	1	5
504.851	1	7
505.021	1	8
505.192	1	13
505.362	1	13
505.532	1	4
505.702	1	22
505.872	1	12
506.043	1	14
506.213	1	20
506.383	1	14
506.553	1	14
506.723	1	3
506.893	1	9
507.064	1	9
507.234	1	10
507.404	1	9
507.574	1	2
507.744	1	13
507.915	1	3
508.085	1	9
508.255	1	11
508.425	1	14
508.595	1	14
508.766	1	5
508.936	1	10
509.106	1	8
509.276	1	20
509.446	1	-3
509.616	1	7
509.787	1	4
509.957	1	17
510.127	1	9
510.297	1	0
510.467	1	5
510.638	1	12
510.808	1	15
510.978	1	4
511.148	1	14
511.318	1	15
511.488	1	14
511.659	1	16
511.829	1	5
511.999	1	10
512.169	1	19
512.339	1	8
512.509	1	5
512.680	1	2
512.850	1	9
513.020	1	15
513.190	1	-5
513.360	1	23
513.530	1	10
513.700	1	10
513.871	1	5
514.041	1	14
514.211	1	7
514.381	1	14
514.551	1	10
514.721	1	9
514.892	1	8
515.062	1	12
515.232	1	3
515.402	1	8
515.572	1	11
515.742	1	9
515.912	1	0
516.083	1	8
516.253	1	10
516.423	1	18
516.593	1	5
516.763	1	10
516.933	1	8
517.104	1	14
517.274	1	4
517.444	1	8
517.614	1	7
517.784	1	14
517.954	1	11
518.124	1	19
518.294	1	13
518.465	1	4
518.635	1	10
518.805	1	7
518.975	1	13
519.145	1	9
519.315	1	10
519.485	1	6
519.656	1	8
519.826	1	-4
519.996	1	16
520.166	1	1
520.336	1	13
520.506	1	0
520.676	1	11
520.846	1	14
521.017	1	6
521.187	1	14
521.357	1	5
521.527	1	-1
521.697	1	5
521.867	1	18
522.037	1	15
522.207	1	20
522.377	1	8
522.548	1	-2
522.718	1	3
522.888	1	8
523.058	1	11
523.228	1	-2
523.398	1	14
523.568	1	5
523.738	1	0
523.909	1	3
524.079	1	10
524.249	1	1
524.419	1	-3
524.589	1	17
524.759	1	6
524.929	1	8
525.099	1	7
525.269	1	10
525.439	1	9
525.610	1	12
525.780	1	8
525.950	1	7
526.120	1	-5
526.290	1	-4
526.460	1	8
526.630	1	3
526.800	1	-2
526.970	1	8
527.140	1	9
527.311	1	7
527.481	1	13
527.651	1	19
527.821	1	7
527.991	1	3
528.161	1	15
528.331	1	8
528.501	1	-4
528.671	1	14
528.841	1	8
529.011	1	5
529.181	1	6
529.352	1	4
529.522	1	9
529.692	1	10
529.862	1	3
530.032	1	-8
530.202	1	2
530.372	1	7
530.542	1	8
530.712	1	1
530.882	1	6
531.052	1	6
531.222	1	11
531.392	1	9
531.563	1	5
531.733	1	4
531.903	1	2
532.073	1	1
532.243	1	15
532.413	1	23
532.583	1	10
532.753	1	0
532.923	1	14
533.093	1	3
533.263	1	6
533.433	1	2
533.603	1	6
533.773	1	5
533.943	1	16
534.113	1	9
534.284	1	2
534.454	1	6
534.624	1	5
534.794	1	3
534.964	1	6
535.134	1	-1
535.304	1	13
535.474	1	2
535.644	1	7
535.814	1	13
535.984	1	1
536.154	1	7
536.324	1	8
536.494	1	17
536.664	1	11
536.834	1	6
537.004	1	-2
537.174	1	9
537.344	1	13
537.514	1	-4
537.685	1	18
537.855	1	-1
538.025	1	14
538.195	1	0
538.365	1	5
538.535	1	-2
538.705	1	8
538.875	1	13
539.045	1	11
539.215	1	-4
539.385	1	4
539.555	1	-6
539.725	1	0
539.895	1	12
540.065	1	9
540.235	1	7
540.405	1	14
540.575	1	-5
540.745	1	9
540.915	1	1
541.085	1	6
541.255	1	0
541.425	1	7
541.595	1	0
541.765	1	3
541.935	1	3
542.105	1	5
542.275	1	1
542.445	1	10
542.615	1	3
542.785	1	1
542.955	1	15
543.125	1	4
543.295	1	8
543.465	1	7
543.635	1	-4
543.805	1	15
543.975	1	-7
544.145	1	6
544.315	1	-2
544.485	1	3
544.655	1	13
544.825	1	9
544.995	1	6
545.165	1	1
545.335	1	6
545.505	1	6
545.675	1	15
545.845	1	0
546.015	1	-2
546.185	1	6
546.355	1	8
546.525	1	15
546.695	1	1
546.865	1	3
547.035	1	-1
547.205	1	16
547.375	1	5
547.545	1	8
547.715	1	-1
547.885	1	-7
548.055	1	0
548.225	1	13
548.395	1	4
548.565	1	7
548.735	1	-7
548.905	1	11
549.075	1	6
549.245	1	15
549.415	1	3
549.585	1	1
549.755	1	13
549.925	1	12
550.095	1	1
550.265	1	2
550.435	1	6
550.605	1	4
550.775	1	0
550.945	1	3
551.115	1	16
551.285	1	-1
551.455	1	6
551.625	1	-1
551.795	1	4
551.965	1	-6
552.135	1	0
552.305	1	11
552.475	1	4
552.645	1	2
552.815	1	0
552.985	1	0
553.155	1	1
553.325	1	1
553.495	1	2
553.665	1	-4
553.835	1	7
554.004	1	10
554.174	1	-1
554.344	1	13
554.514	1	4
554.684	1	16
554.854	1	-4
555.024	1	8
555.194	1	-1
555.364	1	3
555.534	1	-9
555.704	1	8
555.874	1	0
556.044	1	3
556.214	1	5
556.384	1	13
556.554	1	2
556.724	1	5
556.894	1	3
557.064	1	7
557.234	1	10
557.404	1	4
557.573	1	5
557.743	1	-9
557.913	1	-1
558.083	1	7
558.253	1	3
558.423	1	-7
558.593	1	5
558.763	1	3
558.933	1	12
559.103	1	-6
559.273	1	4
559.443	1	10
559.613	1	2
559.783	1	8
559.953	1	-1
560.122	1	13
560.292	1	-14
560.462	1	1
560.632	1	3
560.802	1	7
560.972	1	-12
561.142	1	9
561.312	1	5
561.482	1	17
561.652	1	-2
561.822	1	-3
561.992	1	2
562.162	1	-3
562.331	1	-11
562.501	1	1
562.671	1	-3
562.841	1	-6
563.011	1	3
563.181	1	5
563.351	1	3
563.521	1	5
563.691	1	3
563.861	1	6
564.031	1	8
564.201	1	2
564.370	1	8
564.540	1	-1
564.710	1	5
564.880	1	-3
565.050	1	9
565.220	1	12
565.390	1	-3
565.560	1	6
565.730	1	3
565.900	1	16
566.069	1	18
566.239	1	13
566.409	1	8
566.579	1	8
566.749	1	4
566.919	1	-9
567.089	1	-18
567.259	1	6
567.429	1	0
567.599	1	8
567.768	1	-8
567.938	1	11
568.108	1	13
568.278	1	1
568.448	1	-7
568.618	1	0
568.788	1	5
568.958	1	0
569.128	1	-4
569.297	1	-3
569.467	1	14
569.637	1	7
569.807	1	5
569.977	1	1
570.147	1	15
570.317	1	4
570.487	1	-8
570.656	1	5
570.826	1	3
570.996	1	10
571.166	1	4
571.336	1	5
571.506	1	9
571.676	1	0
571.846	1	7
572.015	1	3
572.185	1	6
572.355	1	-7
572.525	1	-3
572.695	1	1
572.865	1	11
573.035	1	15
573.205	1	1
573.374	1	1
573.544	1	3
573.714	1	-2
573.884	1	1
574.054	1	-1
574.224	1	-2
574.394	1	0
574.563	1	0
574.733	1	7
574.903	1	5
575.073	1	8
575.243	1	1
575.413	1	-7
575.583	1	-4
575.752	1	-1
575.922	1	14
576.092	1	-5
576.262	1	9
576.432	1	0
576.602	1	6
576.772	1	7
576.941	1	5
577.111	1	5
577.281	1	-1
577.451	1	8
577.621	1	-4
577.791	1	0
577.960	1	3
578.130	1	7
578.300	1	1
578.470	1	3
578.640	1	-1
578.810	1	-1
578.979	1	2
579.149	1	2
579.319	1	4
579.489	1	6
579.659	1	10
579.829	1	4
579.998	1	-5
580.168	1	-3
580.338	1	-5
580.508	1	3
580.678	1	9
580.848	1	2
581.017	1	0
581.187	1	4
581.357	1	9
581.527	1	2
581.697	1	2
581.867	1	-5
582.036	1	-7
582.206	1	0
582.376	1	5
582.546	1	-1
582.716	1	-2
582.885	1	-7
583.055	1	-2
583.225	1	9
583.395	1	-4
583.565	1	11
583.735	1	8
583.904	1	2
584.074	1	5
584.244	1	-7
584.414	1	-6
584.584	1	-3
584.753	1	9
584.923	1	0
585.093	1	5
585.263	1	0
585.433	1	-1
585.602	1	0
585.772	1	20
585.942	1	-2
586.112	1	5
586.282	1	1
586.451	1	8
586.621	1	12
586.791	1	-2
586.961	1	-3
587.131	1	0
587.300	1	8
587.470	1	2
587.640	1	-7
587.810	1	-5
587.980	1	4
588.149	1	2
588.319	1	8
588.489	1	7
588.659	1	-2
588.829	1	4
588.998	1	4
589.168	1	-2
589.338	1	3
589.508	1	4
589.677	1	2
589.847	1	8
590.017	1	-2
590.187	1	10
590.357	1	-5
590.526	1	2
590.696	1	5
590.866	1	2
591.036	1	7
591.205	1	6
591.375	1	-2
591.545	1	-3
591.715	1	1
591.885	1	5
592.054	1	6
592.224	1	-2
592.394	1	-14
592.564	1	2
592.733	1	3
592.903	1	2
593.073	1	0
593.243	1	0
593.412	1	-15
593.582	1	7
593.752	1	6
593.922	1	5
594.091	1	5
594.261	1	-6
594.431	1	12
594.601	1	-5
594.771	1	1
594.940	1	7
595.110	1	-6
595.280	1	4
595.450	1	3
595.619	1	11
595.789	1	3
595.959	1	0
596.129	1	4
596.298	1	8
596.468	1	7
596.638	1	4
596.808	1	-11
596.977	1	-1
597.147	1	-2
597.317	1	8
597.487	1	4
597.656	1	8
597.826	1	14
597.996	1	-1
598.166	1	-3
598.335	1	-5
598.505	1	4
598.675	1	6
598.844	1	15
599.014	1	-6
599.184	1	5
599.354	1	17
599.523	1	5
599.693	1	1
599.863	1	4
600.033	1	9
600.202	1	4
600.372	1	-1
600.542	1	-1
600.712	1	6
600.881	1	1
601.051	1	10
601.221	1	0
601.390	1	5
601.560	1	11
601.730	1	3
601.900	1	5
602.069	1	7
602.239	1	10
602.409	1	3
602.578	1	12
602.748	1	16
602.918	1	-8
603.088	1	2
603.257	1	1
603.427	1	5
603.597	1	-1
603.767	1	3
603.936	1	6
604.106	1	-3
604.276	1	0
604.445	1	-2
604.615	1	13
604.785	1	8
604.954	1	1
605.124	1	11
605.294	1	1
605.464	1	-10
605.633	1	5
605.803	1	1
605.973	1	-1
606.142	1	11
606.312	1	5
606.482	1	-6
606.652	1	0
606.821	1	4
606.991	1	8
607.161	1	1
607.330	1	0
607.500	1	0
607.670	1	15
607.839	1	-2
608.009	1	4
608.179	1	3
608.348	1	10
608.518	1	4
608.688	1	8
608.858	1	-2
609.027	1	10
609.197	1	3
609.367	1	-3
609.536	1	-5
609.706	1	14
609.876	1	1
610.045	1	4
610.215	1	11
610.385	1	6
610.554	1	6
610.724	1	2
610.894	1	5
611.063	1	12
611.233	1	8
611.403	1	6
611.572	1	7
611.742	1	5
611.912	1	5
612.081	1	5
612.251	1	9
612.421	1	7
612.590	1	2
612.760	1	-1
612.930	1	13
613.099	1	4
613.269	1	6
613.439	1	-4
613.608	1	6
613.778	1	-1
613.948	1	10
614.117	1	-3
614.287	1	3
614.457	1	2
614.626	1	3
614.796	1	3
614.966	1	8
615.135	1	10
615.305	1	4
615.475	1	3
615.644	1	14
615.814	1	14
615.984	1	-2
616.153	1	2
616.323	1	3
616.493	1	-1
616.662	1	4
616.832	1	5
617.002	1	1
617.171	1	4
617.341	1	7
617.511	1	-9
617.680	1	-4
617.850	1	6
618.019	1	-2
618.189	1	17
618.359	1	2
618.528	1	-1
618.698	1	17
618.868	1	1
619.037	1	0
619.207	1	-1
619.377	1	-2
619.546	1	14
619.716	1	2
619.885	1	-1
620.055	1	10
620.225	1	13
620.394	1	6
620.564	1	16
620.734	1	4
620.903	1	-9
621.073	1	5
621.242	1	2
621.412	1	4
621.582	1	13
621.751	1	1
621.921	1	1
622.091	1	2
622.260	1	13
622.430	1	5
622.599	1	8
622.769	1	2
622.939	1	-2
623.108	1	4
623.278	1	3
623.448	1	-6
623.617	1	2
623.787	1	2
623.956	1	-9
624.126	1	5
624.296	1	1
624.465	1	3
624.635	1	2
624.804	1	0
624.974	1	-5
625.144	1	12
625.313	1	17
625.483	1	6
625.652	1	0
625.822	1	6
625.992	1	3
626.161	1	1
626.331	1	5
626.501	1	1
626.670	1	3
626.840	1	9
627.009	1	2
627.179	1	9
627.348	1	-7
627.518	1	10
627.688	1	5
627.857	1	15
628.027	1	14
628.196	1	13
628.366	1	1
628.536	1	0
628.705	1	2
628.875	1	-8
629.044	1	1
629.214	1	3
629.384	1	14
629.553	1	10
629.723	1	15
629.892	1	6
630.062	1	2
630.232	1	9
630.401	1	8
630.571	1	-6
630.740	1	5
630.910	1	8
631.079	1	3
631.249	1	2
631.419	1	2
631.588	1	12
631.758	1	-5
631.927	1	15
632.097	1	-2
632.266	1	12
632.436	1	2
632.606	1	-1
632.775	1	-1
632.945	1	6
633.114	1	2
633.284	1	-3
633.453	1	15
633.623	1	9
633.793	1	2
633.962	1	3
634.132	1	7
634.301	1	4
634.471	1	11
634.640	1	-1
634.810	1	7
634.979	1	7
635.149	1	-3
635.319	1	-1
635.488	1	-4
635.658	1	2
635.827	1	2
635.997	1	13
636.166	1	5
636.336	1	11
636.505	1	5
636.675	1	12
636.845	1	0
637.014	1	1
637.184	1	11
637.353	1	3
637.523	1	4
637.692	1	2
637.862	1	-2
638.031	1	-3
638.201	1	4
638.370	1	12
638.540	1	-3
638.710	1	9
638.879	1	-5
639.049	1	3
639.218	1	6
639.388	1	5
639.557	1	10
639.727	1	8
639.896	1	4
640.066	1	5
640.235	1	7
640.405	1	3
640.574	1	11
640.744	1	10
640.914	1	4
641.083	1	-1
641.253	1	1
641.422	1	-7
641.592	1	22
641.761	1	0
641.931	1	11
642.100	1	4
642.270	1	3
642.439	1	7
642.609	1	8
642.778	1	-1
642.948	1	11
643.117	1	3
643.287	1	5
643.456	1	-6
643.626	1	4
643.795	1	8
643.965	1	9
644.134	1	-5
644.304	1	1
644.473	1	7
644.643	1	10
644.812	1	4
644.982	1	9
645.151	1	-3
645.321	1	12
645.490	1	13
645.660	1	5
645.829	1	4
645.999	1	-7
646.168	1	14
646.338	1	-4
646.507	1	2
646.677	1	5
646.846	1	6
647.016	1	13
647.185	1	0
647.355	1	15
647.524	1	1
647.694	1	0
647.863	1	2
648.033	1	2
648.202	1	6
648.372	1	-6
648.541	1	9
648.711	1	8
648.880	1	2
649.050	1	9
649.219	1	4
649.389	1	-3
649.558	1	12
649.728	1	3
649.897	1	9
650.067	1	16
650.236	1	10
650.406	1	10
650.575	1	2
650.745	1	5
650.914	1	12
651.084	1	13
651.253	1	1
651.423	1	0
651.592	1	8
651.762	1	3
651.931	1	8
652.101	1	-3
652.270	1	5
652.440	1	11
652.609	1	7
652.778	1	7
652.948	1	7
653.117	1	1
653.287	1	-5
653.456	1	-2
653.626	1	8
653.795	1	2
653.965	1	2
654.134	1	10
654.304	1	9
654.473	1	6
654.643	1	10
654.812	1	16
654.982	1	3
655.151	1	11
655.320	1	2
655.490	1	-6
655.659	1	5
655.829	1	7
655.998	1	10
656.168	1	7
656.337	1	8
656.507	1	-6
656.676	1	-5
656.846	1	5
657.015	1	10
657.184	1	8
657.354	1	1
657.523	1	3
657.693	1	14
657.862	1	2
658.032	1	-1
658.201	1	-8
658.371	1	11
658.540	1	0
658.709	1	4
658.879	1	16
659.048	1	2
659.218	1	10
659.387	1	6
659.557	1	9
659.726	1	3
659.895	1	6
660.065	1	4
660.234	1	5
660.404	1	7
660.573	1	3
660.743	1	6
660.912	1	8
661.081	1	3
661.251	1	-2
661.420	1	11
661.590	1	5
661.759	1	13
661.929	1	7
662.098	1	13
662.267	1	2
662.437	1	15
662.606	1	9
662.776	1	10
662.945	1	12
663.115	1	7
663.284	1	9
663.453	1	11
663.623	1	5
663.792	1	13
663.962	1	16
664.131	1	4
664.300	1	4
664.470	1	-2
664.639	1	7
664.809	1	6
664.978	1	21
665.148	1	14
665.317	1	3
665.486	1	9
665.656	1	7
665.825	1	18
665.995	1	-9
666.164	1	3
666.333	1	4
666.503	1	7
666.672	1	1
666.842	1	8
667.011	1	2
667.180	1	2
667.350	1	4
667.519	1	7
667.689	1	5
667.858	1	6
668.027	1	-6
668.197	1	-4
668.366	1	11
668.536	1	6
668.705	1	-3
668.874	1	13
669.044	1	14
669.213	1	9
669.382	1	5
669.552	1	-2
669.721	1	0
669.891	1	9
670.060	1	1
670.229	1	14
670.399	1	19
670.568	1	12
670.738	1	-3
670.907	1	4
671.076	1	5
671.246	1	7
671.415	1	16
671.584	1	16
671.754	1	-1
671.923	1	6
672.093	1	26
672.262	1	10
672.431	1	8
672.601	1	2
672.770	1	7
672.939	1	6
673.109	1	3
673.278	1	5
673.448	1	11
673.617	1	10
673.786	1	-1
