325.333	1	5
325.504	1	-12
325.675	1	1
325.846	1	5
326.017	1	1
326.188	1	1
326.359	1	6
326.531	1	-5
326.702	1	-3
326.873	1	6
327.044	1	6
327.215	1	1
327.386	1	-11
327.557	1	-4
327.728	1	1
327.899	1	-8
328.070	1	20
328.241	1	0
328.412	1	3
328.583	1	0
328.754	1	10
328.926	1	4
329.097	1	3
329.268	1	3
329.439	1	10
329.610	1	-1
329.781	1	5
329.952	1	-5
330.123	1	-8
330.294	1	-4
330.465	1	-12
330.636	1	9
330.807	1	-3
330.978	1	5
331.149	1	1
331.320	1	8
331.492	1	-1
331.663	1	-8
331.834	1	11
332.005	1	-2
332.176	1	6
332.347	1	-3
332.518	1	14
332.689	1	5
332.860	1	-3
333.031	1	9
333.202	1	-6
333.373	1	4
333.544	1	-2
333.715	1	-4
333.886	1	-4
334.057	1	2
334.228	1	11
334.399	1	13
334.570	1	-7
334.741	1	5
334.912	1	5
335.084	1	4
335.255	1	-4
335.426	1	9
335.597	1	-2
335.768	1	4
335.939	1	13
336.110	1	0
336.281	1	-1
336.452	1	14
336.623	1	-2
336.794	1	-6
336.965	1	0
337.136	1	11
337.307	1	-3
337.478	1	4
337.649	1	-10
337.820	1	-1
337.991	1	3
338.162	1	-6
338.333	1	5
338.504	1	9
338.675	1	-3
338.846	1	-10
339.017	1	4
339.188	1	2
339.359	1	-1
339.530	1	3
339.701	1	3
339.872	1	11
340.043	1	1
340.214	1	6
340.385	1	-5
340.556	1	6
340.727	1	6
340.898	1	7
341.069	1	-10
341.240	1	7
341.411	1	-1
341.582	1	-5
341.753	1	6
341.924	1	11
342.095	1	-1
342.266	1	5
342.437	1	-7
342.608	1	-4
342.779	1	6
342.950	1	-4
343.121	1	3
343.292	1	4
343.463	1	6
343.634	1	-4
343.805	1	0
343.976	1	16
344.147	1	11
344.318	1	-9
344.489	1	-3
344.660	1	15
344.831	1	12
345.002	1	-1
345.173	1	7
345.344	1	1
345.515	1	3
345.686	1	1
345.857	1	6
346.028	1	7
346.199	1	4
346.370	1	0
346.541	1	3
346.712	1	-7
346.883	1	-1
347.054	1	5
347.225	1	3
347.396	1	0
347.567	1	-5
347.738	1	1
347.909	1	8
348.080	1	0
348.251	1	3
348.422	1	3
348.593	1	-6
348.764	1	5
348.935	1	9
349.106	1	-3
349.277	1	-4
349.448	1	1
349.619	1	-2
349.790	1	7
349.961	1	-1
350.132	1	13
350.303	1	2
350.474	1	0
350.645	1	0
350.816	1	-1
350.987	1	25
351.157	1	3
351.328	1	4
351.499	1	3
351.670	1	10
351.841	1	-2
352.012	1	7
352.183	1	10
352.354	1	4
352.525	1	4
352.696	1	-3
352.867	1	11
353.038	1	-6
353.209	1	5
353.380	1	2
353.551	1	7
353.722	1	5
353.893	1	13
354.064	1	1
354.235	1	4
354.406	1	-9
354.576	1	-2
354.747	1	5
354.918	1	6
355.089	1	6
355.260	1	6
355.431	1	-2
355.602	1	8
355.773	1	2
355.944	1	8
356.115	1	10
356.286	1	10
356.457	1	8
356.628	1	1
356.799	1	3
356.970	1	16
357.141	1	6
357.311	1	18
357.482	1	0
357.653	1	-8
357.824	1	11
357.995	1	18
358.166	1	-1
358.337	1	1
358.508	1	11
358.679	1	0
358.850	1	8
359.021	1	11
359.192	1	12
359.363	1	6
359.533	1	6
359.704	1	-2
359.875	1	3
360.046	1	11
360.217	1	12
360.388	1	17
360.559	1	9
360.730	1	8
360.901	1	1
361.072	1	7
361.243	1	14
361.414	1	13
361.584	1	-9
361.755	1	-2
361.926	1	11
362.097	1	11
362.268	1	6
362.439	1	3
362.610	1	10
362.781	1	1
362.952	1	14
363.123	1	-2
363.293	1	9
363.464	1	9
363.635	1	16
363.806	1	6
363.977	1	5
364.148	1	5
364.319	1	-7
364.490	1	12
364.661	1	9
364.832	1	10
365.002	1	9
365.173	1	19
365.344	1	5
365.515	1	-1
365.686	1	12
365.857	1	18
366.028	1	14
366.199	1	7
366.370	1	13
366.540	1	0
366.711	1	15
366.882	1	7
367.053	1	11
367.224	1	5
367.395	1	10
367.566	1	0
367.737	1	5
367.908	1	14
368.078	1	-6
368.249	1	16
368.420	1	11
368.591	1	10
368.762	1	10
368.933	1	-2
369.104	1	10
369.274	1	0
369.445	1	5
369.616	1	15
369.787	1	13
369.958	1	8
370.129	1	4
370.300	1	0
370.471	1	1
370.641	1	2
370.812	1	14
370.983	1	-2
371.154	1	8
371.325	1	4
371.496	1	2
371.667	1	6
371.837	1	9
372.008	1	5
372.179	1	10
372.350	1	15
372.521	1	11
372.692	1	12
372.863	1	15
373.033	1	14
373.204	1	6
373.375	1	14
373.546	1	11
373.717	1	-3
373.888	1	12
374.059	1	7
374.229	1	22
374.400	1	2
374.571	1	8
374.742	1	-2
374.913	1	-1
375.084	1	10
375.254	1	-7
375.425	1	11
375.596	1	8
375.767	1	16
375.938	1	-7
376.109	1	4
376.279	1	3
376.450	1	14
376.621	1	19
376.792	1	11
376.963	1	3
377.134	1	13
377.304	1	13
377.475	1	-5
377.646	1	7
377.817	1	9
377.988	1	8
378.159	1	13
378.329	1	11
378.500	1	14
378.671	1	7
378.842	1	15
379.013	1	24
379.184	1	6
379.354	1	6
379.525	1	13
379.696	1	11
379.867	1	9
380.038	1	13
380.209	1	23
380.379	1	12
380.550	1	-2
380.721	1	10
380.892	1	2
381.063	1	5
381.233	1	3
381.404	1	2
381.575	1	3
381.746	1	4
381.917	1	9
382.087	1	14
382.258	1	18
382.429	1	9
382.600	1	12
382.771	1	7
382.941	1	16
383.112	1	6
383.283	1	10
383.454	1	0
383.625	1	11
383.795	1	9
383.966	1	5
384.137	1	21
384.308	1	7
384.479	1	10
384.649	1	1
384.820	1	8
384.991	1	4
385.162	1	16
385.333	1	19
385.503	1	7
385.674	1	7
385.845	1	12
386.016	1	14
386.187	1	-2
386.357	1	14
386.528	1	0
386.699	1	10
386.870	1	16
387.041	1	20
387.211	1	9
387.382	1	18
387.553	1	18
387.724	1	10
387.894	1	5
388.065	1	14
388.236	1	9
388.407	1	11
388.578	1	13
388.748	1	16
388.919	1	10
389.090	1	20
389.261	1	15
389.431	1	6
389.602	1	13
389.773	1	7
389.944	1	8
390.114	1	12
390.285	1	15
390.456	1	13
390.627	1	5
390.798	1	7
390.968	1	-1
391.139	1	13
391.310	1	6
391.481	1	0
391.651	1	9
391.822	1	20
391.993	1	8
392.164	1	11
392.334	1	7
392.505	1	10
392.676	1	-2
392.847	1	9
393.017	1	10
393.188	1	14
393.359	1	28
393.530	1	19
393.700	1	10
393.871	1	15
394.042	1	7
394.213	1	4
394.383	1	18
394.554	1	8
394.725	1	5
394.896	1	17
395.066	1	6
395.237	1	12
395.408	1	8
395.579	1	5
395.749	1	22
395.920	1	19
396.091	1	6
396.262	1	3
396.432	1	2
396.603	1	16
396.774	1	6
396.945	1	19
397.115	1	12
397.286	1	18
397.457	1	12
397.627	1	13
397.798	1	14
397.969	1	4
398.140	1	6
398.310	1	19
398.481	1	12
398.652	1	11
398.823	1	13
398.993	1	4
399.164	1	12
399.335	1	6
399.505	1	0
399.676	1	14
399.847	1	10
400.018	1	7
400.188	1	20
400.359	1	20
400.530	1	9
400.700	1	13
400.871	1	14
401.042	1	12
401.213	1	12
401.383	1	7
401.554	1	14
401.725	1	5
401.895	1	3
402.066	1	11
402.237	1	8
402.408	1	8
402.578	1	14
402.749	1	13
402.920	1	9
403.090	1	9
403.261	1	8
403.432	1	13
403.603	1	16
403.773	1	28
403.944	1	15
404.115	1	16
404.285	1	16
404.456	1	26
404.627	1	13
404.797	1	11
404.968	1	10
405.139	1	14
405.310	1	15
405.480	1	20
405.651	1	20
405.822	1	13
405.992	1	16
406.163	1	3
406.334	1	12
406.504	1	18
406.675	1	5
406.846	1	10
407.016	1	14
407.187	1	11
407.358	1	7
407.528	1	22
407.699	1	13
407.870	1	19
408.041	1	5
408.211	1	11
408.382	1	12
408.553	1	14
408.723	1	9
408.894	1	16
409.065	1	13
409.235	1	18
409.406	1	16
409.577	1	14
409.747	1	16
409.918	1	14
410.089	1	21
410.259	1	16
410.430	1	16
410.601	1	14
410.771	1	8
410.942	1	7
411.113	1	19
411.283	1	16
411.454	1	28
411.625	1	14
411.795	1	24
411.966	1	19
412.137	1	24
412.307	1	19
412.478	1	13
412.649	1	12
412.819	1	19
412.990	1	16
413.161	1	12
413.331	1	11
413.502	1	15
413.672	1	7
413.843	1	14
414.014	1	8
414.184	1	22
414.355	1	18
414.526	1	15
414.696	1	4
414.867	1	6
415.038	1	6
415.208	1	6
415.379	1	5
415.550	1	17
415.720	1	0
415.891	1	19
416.062	1	17
416.232	1	19
416.403	1	14
416.573	1	6
416.744	1	9
416.915	1	10
417.085	1	12
417.256	1	11
417.427	1	4
417.597	1	17
417.768	1	16
417.939	1	8
418.109	1	5
418.280	1	11
418.450	1	18
418.621	1	16
418.792	1	11
418.962	1	19
419.133	1	12
419.304	1	6
419.474	1	12
419.645	1	11
419.815	1	9
419.986	1	18
420.157	1	4
420.327	1	6
420.498	1	4
420.669	1	20
420.839	1	17
421.010	1	12
421.180	1	6
421.351	1	10
421.522	1	10
421.692	1	22
421.863	1	20
422.033	1	22
422.204	1	12
422.375	1	18
422.545	1	25
422.716	1	8
422.886	1	18
423.057	1	14
423.228	1	6
423.398	1	17
423.569	1	6
423.740	1	18
423.910	1	10
424.081	1	15
424.251	1	6
424.422	1	11
424.593	1	8
424.763	1	9
424.934	1	19
425.104	1	15
425.275	1	8
425.445	1	10
425.616	1	13
425.787	1	15
425.957	1	14
426.128	1	17
426.298	1	16
426.469	1	7
426.640	1	3
426.810	1	3
426.981	1	19
427.151	1	3
427.322	1	13
427.493	1	11
427.663	1	23
427.834	1	11
428.004	1	20
428.175	1	10
428.345	1	7
428.516	1	1
428.687	1	31
428.857	1	16
429.028	1	10
429.198	1	14
429.369	1	8
429.540	1	12
429.710	1	6
429.881	1	17
430.051	1	5
430.222	1	16
430.392	1	10
430.563	1	16
430.734	1	8
430.904	1	20
431.075	1	9
431.245	1	10
431.416	1	17
431.586	1	-4
431.757	1	20
431.927	1	14
432.098	1	14
432.269	1	-2
432.439	1	9
432.610	1	21
432.780	1	16
432.951	1	7
433.121	1	6
433.292	1	19
433.462	1	8
433.633	1	12
433.804	1	16
433.974	1	11
434.145	1	4
434.315	1	11
434.486	1	5
434.656	1	24
434.827	1	21
434.997	1	16
435.168	1	7
435.339	1	19
435.509	1	13
435.680	1	16
435.850	1	4
436.021	1	5
436.191	1	-1
436.362	1	14
436.532	1	15
436.703	1	11
436.873	1	6
437.044	1	12
437.214	1	2
437.385	1	5
437.556	1	7
437.726	1	18
437.897	1	9
438.067	1	16
438.238	1	12
438.408	1	14
438.579	1	1
438.749	1	6
438.920	1	19
439.090	1	2
439.261	1	18
439.431	1	0
439.602	1	15
439.772	1	15
439.943	1	5
440.113	1	-1
440.284	1	7
440.455	1	9
440.625	1	22
440.796	1	-1
440.966	1	10
441.137	1	14
441.307	1	13
441.478	1	10
441.648	1	4
441.819	1	9
441.989	1	17
442.160	1	10
442.330	1	12
442.501	1	9
442.671	1	13
442.842	1	16
443.012	1	8
443.183	1	7
443.353	1	7
443.524	1	15
443.694	1	0
443.865	1	16
444.035	1	7
444.206	1	17
444.376	1	13
444.547	1	17
444.717	1	4
444.888	1	-2
445.058	1	7
445.229	1	5
445.399	1	12
445.570	1	3
445.740	1	5
445.911	1	10
446.081	1	14
446.252	1	11
446.422	1	15
446.593	1	6
446.763	1	3
446.934	1	7
447.104	1	2
447.275	1	-2
447.445	1	13
447.616	1	7
447.786	1	3
447.957	1	-1
448.127	1	12
448.298	1	13
448.468	1	14
448.639	1	-7
448.809	1	1
448.979	1	16
449.150	1	4
449.320	1	10
449.491	1	2
449.661	1	7
449.832	1	-6
450.002	1	10
450.173	1	15
450.343	1	0
450.514	1	14
450.684	1	12
450.855	1	11
451.025	1	1
451.196	1	3
451.366	1	13
451.537	1	15
451.707	1	5
451.878	1	5
452.048	1	2
452.218	1	8
452.389	1	16
452.559	1	16
452.730	1	18
452.900	1	11
453.071	1	16
453.241	1	12
453.412	1	14
453.582	1	8
453.753	1	15
453.923	1	-2
454.093	1	7
454.264	1	17
454.434	1	4
454.605	1	8
454.775	1	16
454.946	1	0
455.116	1	14
455.287	1	4
455.457	1	9
455.628	1	-1
455.798	1	17
455.968	1	1
456.139	1	17
456.309	1	12
456.480	1	6
456.650	1	9
456.821	1	-1
456.991	1	12
457.161	1	10
457.332	1	5
457.502	1	10
457.673	1	0
457.843	1	5
458.014	1	6
458.184	1	12
458.355	1	15
458.525	1	8
458.695	1	7
458.866	1	3
459.036	1	7
459.207	1	4
459.377	1	9
459.548	1	11
459.718	1	8
459.888	1	8
460.059	1	12
460.229	1	4
460.400	1	2
460.570	1	1
460.740	1	6
460.911	1	3
461.081	1	14
461.252	1	4
461.422	1	2
461.593	1	11
461.763	1	15
461.933	1	10
462.104	1	3
462.274	1	1
462.445	1	7
462.615	1	9
462.785	1	15
462.956	1	10
463.126	1	9
463.297	1	7
463.467	1	15
463.638	1	20
463.808	1	12
463.978	1	-6
464.149	1	7
464.319	1	12
464.490	1	2
464.660	1	3
464.830	1	4
465.001	1	0
465.171	1	7
465.342	1	14
465.512	1	3
465.682	1	-2
465.853	1	7
466.023	1	5
466.194	1	7
466.364	1	3
466.534	1	9
466.705	1	21
466.875	1	-5
467.045	1	8
467.216	1	15
467.386	1	9
467.557	1	11
467.727	1	3
467.897	1	8
468.068	1	1
468.238	1	4
468.409	1	8
468.579	1	13
468.749	1	-1
468.920	1	-1
469.090	1	14
469.260	1	5
469.431	1	-8
469.601	1	7
469.772	1	15
469.942	1	11
470.112	1	-3
470.283	1	10
470.453	1	9
470.623	1	8
470.794	1	6
470.964	1	-10
471.135	1	3
471.305	1	2
471.475	1	10
471.646	1	8
471.816	1	6
471.986	1	11
472.157	1	13
472.327	1	11
472.497	1	2
472.668	1	17
472.838	1	-2
473.009	1	5
473.179	1	-1
473.349	1	-4
473.520	1	15
473.690	1	8
473.860	1	-3
474.031	1	-9
474.201	1	12
474.371	1	7
474.542	1	4
474.712	1	3
474.882	1	-2
475.053	1	-1
475.223	1	1
475.394	1	-4
475.564	1	7
475.734	1	1
475.905	1	10
476.075	1	24
476.245	1	-2
476.416	1	1
476.586	1	6
476.756	1	5
476.927	1	2
477.097	1	7
477.267	1	-1
477.438	1	17
477.608	1	8
477.778	1	3
477.949	1	-8
478.119	1	19
478.289	1	1
478.460	1	-6
478.630	1	-1
478.800	1	7
478.971	1	7
479.141	1	15
479.311	1	3
479.482	1	-3
479.652	1	3
479.822	1	-4
479.993	1	-3
480.163	1	8
480.333	1	12
480.504	1	13
480.674	1	10
480.844	1	5
481.015	1	7
481.185	1	20
481.355	1	0
481.525	1	-6
481.696	1	3
481.866	1	16
482.036	1	11
482.207	1	8
482.377	1	1
482.547	1	8
482.718	1	6
482.888	1	7
483.058	1	6
483.229	1	5
483.399	1	5
483.569	1	-2
483.740	1	5
483.910	1	1
484.080	1	10
484.250	1	-2
484.421	1	-1
484.591	1	1
484.761	1	0
484.932	1	-1
485.102	1	3
485.272	1	-5
485.443	1	8
485.613	1	4
485.783	1	1
485.953	1	4
486.124	1	3
486.294	1	10
486.464	1	-4
486.635	1	-2
486.805	1	-1
486.975	1	-6
487.146	1	12
487.316	1	11
487.486	1	15
487.656	1	5
487.827	1	-1
487.997	1	1
488.167	1	7
488.338	1	-7
488.508	1	11
488.678	1	9
488.848	1	10
489.019	1	-5
489.189	1	11
489.359	1	6
489.529	1	7
489.700	1	-2
489.870	1	4
490.040	1	-2
490.211	1	-6
490.381	1	-3
490.551	1	-1
490.721	1	3
490.892	1	0
491.062	1	1
491.232	1	1
491.402	1	-4
491.573	1	4
491.743	1	9
491.913	1	-4
492.084	1	2
492.254	1	-7
492.424	1	-1
492.594	1	-1
492.765	1	10
492.935	1	11
493.105	1	2
493.275	1	-1
493.446	1	2
493.616	1	-10
493.786	1	4
493.956	1	2
494.127	1	-4
494.297	1	0
494.467	1	1
494.637	1	-1
494.808	1	11
494.978	1	3
495.148	1	4
495.318	1	-1
495.489	1	-3
495.659	1	2
495.829	1	-4
495.999	1	7
496.170	1	0
496.340	1	-1
496.510	1	8
496.680	1	0
496.851	1	6
497.021	1	-10
497.191	1	-1
497.361	1	-12
497.532	1	1
497.702	1	11
497.872	1	-3
498.042	1	-1
498.213	1	0
498.383	1	6
498.553	1	10
498.723	1	2
498.894	1	9
499.064	1	-2
499.234	1	3
499.404	1	13
499.574	1	5
499.745	1	6
499.915	1	5
500.085	1	5
500.255	1	-10
500.426	1	4
500.596	1	-8
500.766	1	-4
500.936	1	-6
501.106	1	-3
501.277	1	-4
501.447	1	0
501.617	1	1
501.787	1	0
501.958	1	7
502.128	1	-5
502.298	1	5
502.468	1	-1
502.638	1	10
502.809	1	-8
502.979	1	11
503.149	1	-2
503.319	1	14
503.489	1	-11
503.660	1	0
503.830	1	6
504.000	1	-2
504.170	1	6
504.340	1	-5
504.511	1	11
504.681	1	-1
504.851	1	-8
505.021	1	2
505.192	1	-11
505.362	1	7
505.532	1	-10
505.702	1	12
505.872	1	-2
506.043	1	8
506.213	1	5
506.383	1	2
506.553	1	4
506.723	1	-12
506.893	1	-4
507.064	1	11
507.234	1	2
507.404	1	-5
507.574	1	-2
507.744	1	-2
507.915	1	1
508.085	1	2
508.255	1	5
508.425	1	2
508.595	1	-12
508.766	1	-8
508.936	1	9
509.106	1	6
509.276	1	-1
509.446	1	-2
509.616	1	3
509.787	1	-5
509.957	1	-1
510.127	1	-6
510.297	1	0
510.467	1	-4
510.638	1	3
510.808	1	11
510.978	1	-4
511.148	1	0
511.318	1	0
511.488	1	5
511.659	1	1
511.829	1	-7
511.999	1	6
512.169	1	0
512.339	1	3
512.509	1	-8
512.680	1	-1
512.850	1	4
513.020	1	7
513.190	1	-11
513.360	1	5
513.530	1	-10
513.700	1	-3
513.871	1	-5
514.041	1	5
514.211	1	6
514.381	1	-1
514.551	1	1
514.721	1	9
514.892	1	3
515.062	1	7
515.232	1	6
515.402	1	1
515.572	1	0
515.742	1	6
515.912	1	8
516.083	1	6
516.253	1	3
516.423	1	13
516.593	1	-3
516.763	1	2
516.933	1	-4
517.104	1	4
517.274	1	-9
517.444	1	-6
517.614	1	3
517.784	1	-3
517.954	1	-4
518.124	1	3
518.294	1	5
518.465	1	5
518.635	1	4
518.805	1	-1
518.975	1	2
519.145	1	1
519.315	1	3
519.485	1	-4
519.656	1	-4
519.826	1	-7
519.996	1	8
520.166	1	8
520.336	1	-2
520.506	1	-5
520.676	1	1
520.846	1	8
521.017	1	0
521.187	1	6
521.357	1	-12
521.527	1	2
521.697	1	-4
521.867	1	7
522.037	1	-6
522.207	1	5
522.377	1	5
522.548	1	-8
522.718	1	-2
522.888	1	6
523.058	1	10
523.228	1	1
523.398	1	-9
523.568	1	-12
523.738	1	3
523.909	1	-7
524.079	1	-1
524.249	1	-6
524.419	1	-1
524.589	1	5
524.759	1	2
524.929	1	0
525.099	1	-4
525.269	1	0
525.439	1	-1
525.610	1	2
525.780	1	-10
525.950	1	2
526.120	1	-9
526.290	1	-5
526.460	1	-11
526.630	1	-3
526.800	1	5
526.970	1	4
527.140	1	-4
527.311	1	4
527.481	1	-4
527.651	1	-2
527.821	1	1
527.991	1	-1
528.161	1	6
528.331	1	-6
528.501	1	-6
528.671	1	3
528.841	1	3
529.011	1	-1
529.181	1	-4
529.352	1	-4
529.522	1	4
529.692	1	7
529.862	1	-1
530.032	1	-7
530.202	1	-3
530.372	1	6
530.542	1	-5
530.712	1	-5
530.882	1	5
531.052	1	1
531.222	1	3
531.392	1	-7
531.563	1	6
531.733	1	1
531.903	1	-6
532.073	1	-2
532.243	1	3
532.413	1	20
532.583	1	-3
532.753	1	-3
532.923	1	-1
533.093	1	-10
533.263	1	3
533.433	1	-3
533.603	1	4
533.773	1	-2
533.943	1	-4
534.113	1	6
534.284	1	0
534.454	1	2
534.624	1	-7
534.794	1	-1
534.964	1	1
535.134	1	3
535.304	1	0
535.474	1	6
535.644	1	1
535.814	1	-5
535.984	1	-1
536.154	1	-4
536.324	1	4
536.494	1	-1
536.664	1	1
536.834	1	-5
537.004	1	6
537.174	1	6
537.344	1	10
537.514	1	-11
537.685	1	3
537.855	1	9
538.025	1	3
538.195	1	2
538.365	1	2
538.535	1	3
538.705	1	1
538.875	1	2
539.045	1	9
539.215	1	-18
539.385	1	3
539.555	1	-10
539.725	1	-2
539.895	1	2
540.065	1	2
540.235	1	6
540.405	1	5
540.575	1	0
540.745	1	9
540.915	1	2
541.085	1	-8
541.255	1	-5
541.425	1	0
541.595	1	3
541.765	1	-2
541.935	1	-1
542.105	1	-2
542.275	1	-2
542.445	1	-1
542.615	1	8
542.785	1	0
542.955	1	13
543.125	1	-3
543.295	1	-4
543.465	1	2
543.635	1	-12
543.805	1	5
543.975	1	3
544.145	1	1
544.315	1	-7
544.485	1	-4
544.655	1	1
544.825	1	10
544.995	1	-9
545.165	1	-2
545.335	1	2
545.505	1	3
545.675	1	2
545.845	1	6
546.015	1	-6
546.185	1	-2
546.355	1	-1
546.525	1	5
546.695	1	-7
546.865	1	7
547.035	1	-2
547.205	1	11
547.375	1	7
547.545	1	2
547.715	1	3
547.885	1	1
548.055	1	-4
548.225	1	10
548.395	1	-3
548.565	1	-4
548.735	1	-3
548.905	1	7
549.075	1	0
549.245	1	4
549.415	1	3
549.585	1	-7
549.755	1	-3
549.925	1	0
550.095	1	-7
550.265	1	0
550.435	1	-4
550.605	1	9
550.775	1	-6
550.945	1	-1
551.115	1	8
551.285	1	-6
551.455	1	5
551.625	1	-2
551.795	1	4
551.965	1	-5
552.135	1	-9
552.305	1	2
552.475	1	9
552.645	1	-4
552.815	1	-3
552.985	1	2
553.155	1	-5
553.325	1	-6
553.495	1	3
553.665	1	-4
553.835	1	5
554.004	1	3
554.174	1	-6
554.344	1	1
554.514	1	5
554.684	1	-5
554.854	1	-15
555.024	1	14
555.194	1	-7
555.364	1	-2
555.534	1	-10
555.704	1	5
555.874	1	1
556.044	1	1
556.214	1	2
556.384	1	3
556.554	1	-2
556.724	1	0
556.894	1	-2
557.064	1	1
557.234	1	-5
557.404	1	-1
557.573	1	-2
557.743	1	2
557.913	1	-2
558.083	1	10
558.253	1	-1
558.423	1	-3
558.593	1	8
558.763	1	-3
558.933	1	-4
559.103	1	-6
559.273	1	6
559.443	1	1
559.613	1	0
559.783	1	0
559.953	1	-11
560.122	1	4
560.292	1	-8
560.462	1	-12
560.632	1	-6
560.802	1	5
560.972	1	-3
561.142	1	4
561.312	1	-1
561.482	1	6
561.652	1	-5
561.822	1	2
561.992	1	6
562.162	1	0
562.331	1	-7
562.501	1	-2
562.671	1	-7
562.841	1	-8
563.011	1	-3
563.181	1	-7
563.351	1	-11
563.521	1	-4
563.691	1	3
563.861	1	1
564.031	1	-2
564.201	1	9
564.370	1	0
564.540	1	2
564.710	1	-16
564.880	1	6
565.050	1	0
565.220	1	5
565.390	1	-9
565.560	1	6
565.730	1	2
565.900	1	-3
566.069	1	14
566.239	1	8
566.409	1	2
566.579	1	-2
566.749	1	-3
566.919	1	-8
567.089	1	-11
567.259	1	5
567.429	1	-3
567.599	1	3
567.768	1	-4
567.938	1	-2
568.108	1	1
568.278	1	0
568.448	1	-5
568.618	1	2
568.788	1	8
568.958	1	2
569.128	1	-4
569.297	1	-11
569.467	1	4
569.637	1	3
569.807	1	5
569.977	1	-8
570.147	1	0
570.317	1	3
570.487	1	1
570.656	1	0
570.826	1	3
570.996	1	16
571.166	1	0
571.336	1	1
571.506	1	1
571.676	1	11
571.846	1	5
572.015	1	5
572.185	1	-3
572.355	1	7
572.525	1	-7
572.695	1	2
572.865	1	-2
573.035	1	0
573.205	1	-1
573.374	1	-2
573.544	1	7
573.714	1	-2
573.884	1	-3
574.054	1	-6
574.224	1	0
574.394	1	-12
574.563	1	-4
574.733	1	-10
574.903	1	-4
575.073	1	10
575.243	1	-6
575.413	1	-5
575.583	1	-11
575.752	1	-7
575.922	1	10
576.092	1	-1
576.262	1	-11
576.432	1	-1
576.602	1	3
576.772	1	-3
576.941	1	0
577.111	1	2
577.281	1	2
577.451	1	3
577.621	1	-10
577.791	1	8
577.960	1	-1
578.130	1	-8
578.300	1	-6
578.470	1	6
578.640	1	-1
578.810	1	-2
578.979	1	-4
579.149	1	6
579.319	1	-3
579.489	1	10
579.659	1	-1
579.829	1	-1
579.998	1	-12
580.168	1	10
580.338	1	1
580.508	1	1
580.678	1	-3
580.848	1	4
581.017	1	2
581.187	1	-6
581.357	1	0
581.527	1	-5
581.697	1	6
581.867	1	-4
582.036	1	-2
582.206	1	-5
582.376	1	-5
582.546	1	-3
582.716	1	-7
582.885	1	0
583.055	1	-4
583.225	1	0
583.395	1	1
583.565	1	4
583.735	1	0
583.904	1	-10
584.074	1	-4
584.244	1	-8
584.414	1	1
584.584	1	-2
584.753	1	6
584.923	1	0
585.093	1	8
585.263	1	-8
585.433	1	-1
585.602	1	-4
585.772	1	17
585.942	1	-13
586.112	1	-6
586.282	1	3
586.451	1	6
586.621	1	-1
586.791	1	-5
586.961	1	-5
587.131	1	-3
587.300	1	8
587.470	1	-10
587.640	1	-12
587.810	1	-9
587.980	1	0
588.149	1	-1
588.319	1	2
588.489	1	-3
588.659	1	-8
588.829	1	-6
588.998	1	0
589.168	1	8
589.338	1	-3
589.508	1	-2
589.677	1	-2
589.847	1	10
590.017	1	-8
590.187	1	0
590.357	1	-12
590.526	1	-3
590.696	1	-5
590.866	1	-6
591.036	1	0
591.205	1	8
591.375	1	3
591.545	1	-3
591.715	1	-3
591.885	1	6
592.054	1	-1
592.224	1	-10
592.394	1	-7
592.564	1	-3
592.733	1	6
592.903	1	3
593.073	1	-6
593.243	1	5
593.412	1	-1
593.582	1	-2
593.752	1	-10
593.922	1	-1
594.091	1	11
594.261	1	-9
594.431	1	-4
594.601	1	-8
594.771	1	-3
594.940	1	6
595.110	1	2
595.280	1	4
595.450	1	1
595.619	1	0
595.789	1	-2
595.959	1	0
596.129	1	-5
596.298	1	10
596.468	1	1
596.638	1	-11
596.808	1	-7
596.977	1	-2
597.147	1	-7
597.317	1	0
597.487	1	-5
597.656	1	-2
597.826	1	6
597.996	1	-6
598.166	1	4
598.335	1	-16
598.505	1	4
598.675	1	-7
598.844	1	7
599.014	1	-18
599.184	1	-10
599.354	1	8
599.523	1	-4
599.693	1	2
599.863	1	8
600.033	1	0
600.202	1	-6
600.372	1	-12
600.542	1	1
600.712	1	2
600.881	1	-2
601.051	1	2
601.221	1	0
601.390	1	-5
601.560	1	2
601.730	1	2
601.900	1	8
602.069	1	2
602.239	1	-2
602.409	1	-11
602.578	1	6
602.748	1	10
602.918	1	-10
603.088	1	1
603.257	1	-2
603.427	1	4
603.597	1	1
603.767	1	-9
603.936	1	2
604.106	1	-10
604.276	1	-4
604.445	1	-10
604.615	1	1
604.785	1	10
604.954	1	2
605.124	1	2
605.294	1	-9
605.464	1	-6
605.633	1	9
605.803	1	5
605.973	1	0
606.142	1	2
606.312	1	0
606.482	1	-4
606.652	1	-1
606.821	1	3
606.991	1	3
607.161	1	-1
607.330	1	-6
607.500	1	0
607.670	1	0
607.839	1	-2
608.009	1	0
608.179	1	1
608.348	1	1
608.518	1	6
608.688	1	-1
608.858	1	-1
609.027	1	6
609.197	1	0
609.367	1	-14
609.536	1	-6
609.706	1	6
609.876	1	4
610.045	1	5
610.215	1	4
610.385	1	4
610.554	1	-5
610.724	1	-1
610.894	1	-4
611.063	1	2
611.233	1	1
611.403	1	5
611.572	1	3
611.742	1	0
611.912	1	-2
612.081	1	7
612.251	1	1
612.421	1	-8
612.590	1	3
612.760	1	-9
612.930	1	2
613.099	1	-3
613.269	1	1
613.439	1	-10
613.608	1	5
613.778	1	-5
613.948	1	-1
614.117	1	-7
614.287	1	-5
614.457	1	4
614.626	1	-7
614.796	1	-3
614.966	1	1
615.135	1	6
615.305	1	6
615.475	1	1
615.644	1	15
615.814	1	11
615.984	1	-7
616.153	1	-1
616.323	1	1
616.493	1	2
616.662	1	-7
616.832	1	4
617.002	1	2
617.171	1	6
617.341	1	12
617.511	1	-6
617.680	1	-6
617.850	1	4
618.019	1	2
618.189	1	8
618.359	1	1
618.528	1	-12
618.698	1	3
618.868	1	0
619.037	1	-3
619.207	1	-6
619.377	1	1
619.546	1	1
619.716	1	3
619.885	1	1
620.055	1	-4
620.225	1	-4
620.394	1	4
620.564	1	-2
620.734	1	1
620.903	1	-6
621.073	1	6
621.242	1	-4
621.412	1	-9
621.582	1	16
621.751	1	-7
621.921	1	2
622.091	1	-7
622.260	1	6
622.430	1	-2
622.599	1	-1
622.769	1	-6
622.939	1	1
623.108	1	-4
623.278	1	-6
623.448	1	-3
623.617	1	6
623.787	1	3
623.956	1	4
624.126	1	-4
624.296	1	1
624.465	1	1
624.635	1	3
624.804	1	1
624.974	1	-13
625.144	1	-8
625.313	1	13
625.483	1	5
625.652	1	-3
625.822	1	3
625.992	1	0
626.161	1	2
626.331	1	-8
626.501	1	-1
626.670	1	-15
626.840	1	11
627.009	1	-2
627.179	1	0
627.348	1	1
627.518	1	10
627.688	1	-10
627.857	1	4
628.027	1	2
628.196	1	2
628.366	1	-8
628.536	1	-2
628.705	1	-2
628.875	1	-7
629.044	1	2
629.214	1	3
629.384	1	15
629.553	1	-4
629.723	1	8
629.892	1	7
630.062	1	3
630.232	1	-2
630.401	1	2
630.571	1	-3
630.740	1	-4
630.910	1	8
631.079	1	4
631.249	1	-8
631.419	1	0
631.588	1	-3
631.758	1	-5
631.927	1	6
632.097	1	-5
632.266	1	1
632.436	1	0
632.606	1	7
632.775	1	12
632.945	1	-5
633.114	1	-7
633.284	1	-10
633.453	1	4
633.623	1	10
633.793	1	6
633.962	1	0
634.132	1	-2
634.301	1	-1
634.471	1	2
634.640	1	-2
634.810	1	2
634.979	1	3
635.149	1	-4
635.319	1	-5
635.488	1	-1
635.658	1	9
635.827	1	2
635.997	1	-5
636.166	1	2
636.336	1	-8
636.505	1	2
636.675	1	1
636.845	1	-7
637.014	1	-6
637.184	1	8
637.353	1	6
637.523	1	0
637.692	1	3
637.862	1	-8
638.031	1	-14
638.201	1	7
638.370	1	-5
638.540	1	-4
638.710	1	-7
638.879	1	-6
639.049	1	-9
639.218	1	8
639.388	1	-1
639.557	1	8
639.727	1	3
639.896	1	-7
640.066	1	-10
640.235	1	3
640.405	1	-4
640.574	1	6
640.744	1	2
640.914	1	7
641.083	1	6
641.253	1	-4
641.422	1	-10
641.592	1	4
641.761	1	-8
641.931	1	14
642.100	1	-3
642.270	1	-6
642.439	1	-2
642.609	1	8
642.778	1	9
642.948	1	2
643.117	1	2
643.287	1	-4
643.456	1	2
643.626	1	-5
643.795	1	-4
643.965	1	4
644.134	1	-1
644.304	1	4
644.473	1	4
644.643	1	3
644.812	1	-15
644.982	1	-3
645.151	1	2
645.321	1	-4
645.490	1	8
645.660	1	-7
645.829	1	2
645.999	1	-11
646.168	1	15
646.338	1	-13
646.507	1	7
646.677	1	0
646.846	1	11
647.016	1	1
647.185	1	5
647.355	1	5
647.524	1	-5
647.694	1	-3
647.863	1	-8
648.033	1	-3
648.202	1	-2
648.372	1	-8
648.541	1	5
648.711	1	3
648.880	1	4
649.050	1	3
649.219	1	-1
649.389	1	-5
649.558	1	3
649.728	1	-4
649.897	1	3
650.067	1	9
650.236	1	4
650.406	1	1
650.575	1	5
650.745	1	1
650.914	1	6
651.084	1	10
651.253	1	-3
651.423	1	-9
651.592	1	-2
651.762	1	-3
651.931	1	1
652.101	1	-11
652.270	1	4
652.440	1	8
652.609	1	12
652.778	1	10
652.948	1	1
653.117	1	-2
653.287	1	-12
653.456	1	-12
653.626	1	2
653.795	1	-2
653.965	1	-4
654.134	1	-7
654.304	1	-6
654.473	1	2
654.643	1	-6
654.812	1	3
654.982	1	3
655.151	1	6
655.320	1	-2
655.490	1	-4
655.659	1	1
655.829	1	10
655.998	1	2
656.168	1	-14
656.337	1	-3
656.507	1	-7
656.676	1	-6
656.846	1	-4
657.015	1	6
657.184	1	-5
657.354	1	10
657.523	1	-5
657.693	1	6
657.862	1	-6
658.032	1	-8
658.201	1	-7
658.371	1	8
658.540	1	-8
658.709	1	7
658.879	1	8
659.048	1	6
659.218	1	-8
659.387	1	-3
659.557	1	2
659.726	1	-6
659.895	1	7
660.065	1	-11
660.234	1	-2
660.404	1	1
660.573	1	3
660.743	1	-4
660.912	1	-1
661.081	1	-5
661.251	1	1
661.420	1	14
661.590	1	-7
661.759	1	4
661.929	1	5
662.098	1	1
662.267	1	-1
662.437	1	4
662.606	1	-6
662.776	1	0
662.945	1	0
663.115	1	12
663.284	1	1
663.453	1	-7
663.623	1	-4
663.792	1	8
663.962	1	6
664.131	1	1
664.300	1	-10
664.470	1	-5
664.639	1	-4
664.809	1	-2
664.978	1	11
665.148	1	1
665.317	1	8
665.486	1	3
665.656	1	6
665.825	1	-2
665.995	1	-12
666.164	1	-3
666.333	1	-4
666.503	1	-11
666.672	1	2
666.842	1	2
667.011	1	0
667.180	1	0
667.350	1	8
667.519	1	-5
667.689	1	3
667.858	1	2
668.027	1	0
668.197	1	-10
668.366	1	0
668.536	1	-5
668.705	1	3
668.874	1	9
669.044	1	1
669.213	1	2
669.382	1	3
669.552	1	1
669.721	1	-12
669.891	1	-5
670.060	1	10
670.229	1	-1
670.399	1	-3
670.568	1	4
670.738	1	-3
670.907	1	1
671.076	1	2
671.246	1	-1
671.415	1	3
671.584	1	6
671.754	1	-5
671.923	1	-3
672.093	1	1
672.262	1	-7
672.431	1	0
672.601	1	-4
672.770	1	0
672.939	1	0
673.109	1	-10
673.278	1	-3
673.448	1	-3
673.617	1	5
673.786	1	0
