325.333	1	24
325.504	1	13
325.675	1	29
325.846	1	20
326.017	1	20
326.188	1	30
326.359	1	30
326.531	1	25
326.702	1	21
326.873	1	32
327.044	1	32
327.215	1	32
327.386	1	22
327.557	1	27
327.728	1	27
327.899	1	20
328.070	1	39
328.241	1	21
328.412	1	28
328.583	1	20
328.754	1	38
328.926	1	41
329.097	1	26
329.268	1	37
329.439	1	44
329.610	1	35
329.781	1	37
329.952	1	39
330.123	1	31
330.294	1	26
330.465	1	23
330.636	1	35
330.807	1	32
330.978	1	26
331.149	1	40
331.320	1	32
331.492	1	33
331.663	1	27
331.834	1	26
332.005	1	29
332.176	1	39
332.347	1	25
332.518	1	40
332.689	1	37
332.860	1	34
333.031	1	39
333.202	1	27
333.373	1	32
333.544	1	39
333.715	1	32
333.886	1	33
334.057	1	31
334.228	1	39
334.399	1	30
334.570	1	45
334.741	1	46
334.912	1	45
335.084	1	43
335.255	1	40
335.426	1	45
335.597	1	31
335.768	1	38
335.939	1	46
336.110	1	46
336.281	1	45
336.452	1	50
336.623	1	44
336.794	1	42
336.965	1	48
337.136	1	48
337.307	1	34
337.478	1	46
337.649	1	43
337.820	1	37
337.991	1	40
338.162	1	46
338.333	1	44
338.504	1	52
338.675	1	49
338.846	1	35
339.017	1	45
339.188	1	38
339.359	1	53
339.530	1	49
339.701	1	51
339.872	1	59
340.043	1	54
340.214	1	67
340.385	1	42
340.556	1	58
340.727	1	51
340.898	1	49
341.069	1	47
341.240	1	47
341.411	1	50
341.582	1	38
341.753	1	56
341.924	1	68
342.095	1	51
342.266	1	67
342.437	1	63
342.608	1	53
342.779	1	46
342.950	1	44
343.121	1	60
343.292	1	56
343.463	1	69
343.634	1	71
343.805	1	57
343.976	1	69
344.147	1	72
344.318	1	56
344.489	1	54
344.660	1	60
344.831	1	66
345.002	1	59
345.173	1	69
345.344	1	62
345.515	1	70
345.686	1	55
345.857	1	64
346.028	1	67
346.199	1	70
346.370	1	59
346.541	1	59
346.712	1	70
346.883	1	64
347.054	1	68
347.225	1	65
347.396	1	63
347.567	1	61
347.738	1	67
347.909	1	61
348.080	1	64
348.251	1	68
348.422	1	81
348.593	1	71
348.764	1	70
348.935	1	69
349.106	1	61
349.277	1	74
349.448	1	67
349.619	1	68
349.790	1	74
349.961	1	70
350.132	1	80
350.303	1	81
350.474	1	79
350.645	1	80
350.816	1	74
350.987	1	91
351.157	1	70
351.328	1	75
351.499	1	77
351.670	1	79
351.841	1	81
352.012	1	92
352.183	1	89
352.354	1	76
352.525	1	88
352.696	1	66
352.867	1	81
353.038	1	77
353.209	1	80
353.380	1	88
353.551	1	79
353.722	1	80
353.893	1	84
354.064	1	80
354.235	1	76
354.406	1	76
354.576	1	79
354.747	1	77
354.918	1	80
355.089	1	83
355.260	1	82
355.431	1	88
355.602	1	81
355.773	1	80
355.944	1	93
356.115	1	98
356.286	1	85
356.457	1	83
356.628	1	83
356.799	1	84
356.970	1	98
357.141	1	88
357.311	1	106
357.482	1	85
357.653	1	89
357.824	1	96
357.995	1	96
358.166	1	75
358.337	1	102
358.508	1	107
358.679	1	90
358.850	1	117
359.021	1	96
359.192	1	98
359.363	1	90
359.533	1	95
359.704	1	91
359.875	1	91
360.046	1	109
360.217	1	101
360.388	1	103
360.559	1	100
360.730	1	95
360.901	1	104
361.072	1	106
361.243	1	108
361.414	1	102
361.584	1	84
361.755	1	95
361.926	1	106
362.097	1	92
362.268	1	100
362.439	1	88
362.610	1	105
362.781	1	93
362.952	1	94
363.123	1	92
363.293	1	100
363.464	1	103
363.635	1	97
363.806	1	92
363.977	1	97
364.148	1	100
364.319	1	91
364.490	1	107
364.661	1	104
364.832	1	93
365.002	1	110
365.173	1	97
365.344	1	102
365.515	1	96
365.686	1	105
365.857	1	101
366.028	1	111
366.199	1	108
366.370	1	113
366.540	1	102
366.711	1	107
366.882	1	107
367.053	1	110
367.224	1	106
367.395	1	113
367.566	1	109
367.737	1	101
367.908	1	103
368.078	1	108
368.249	1	116
368.420	1	110
368.591	1	104
368.762	1	111
368.933	1	102
369.104	1	104
369.274	1	114
369.445	1	107
369.616	1	107
369.787	1	105
369.958	1	99
370.129	1	107
370.300	1	100
370.471	1	106
370.641	1	98
370.812	1	109
370.983	1	98
371.154	1	109
371.325	1	107
371.496	1	100
371.667	1	121
371.837	1	105
372.008	1	105
372.179	1	108
372.350	1	110
372.521	1	110
372.692	1	109
372.863	1	112
373.033	1	99
373.204	1	98
373.375	1	113
373.546	1	113
373.717	1	111
373.888	1	106
374.059	1	112
374.229	1	116
374.400	1	107
374.571	1	96
374.742	1	107
374.913	1	100
375.084	1	117
375.254	1	100
375.425	1	100
375.596	1	118
375.767	1	123
375.938	1	107
376.109	1	107
376.279	1	109
376.450	1	107
376.621	1	117
376.792	1	118
376.963	1	131
377.134	1	127
377.304	1	125
377.475	1	103
377.646	1	120
377.817	1	116
377.988	1	110
378.159	1	125
378.329	1	118
378.500	1	125
378.671	1	115
378.842	1	112
379.013	1	119
379.184	1	128
379.354	1	118
379.525	1	120
379.696	1	125
379.867	1	115
380.038	1	117
380.209	1	117
380.379	1	126
380.550	1	114
380.721	1	122
380.892	1	113
381.063	1	119
381.233	1	121
381.404	1	110
381.575	1	111
381.746	1	130
381.917	1	121
382.087	1	137
382.258	1	123
382.429	1	125
382.600	1	115
382.771	1	120
382.941	1	137
383.112	1	125
383.283	1	122
383.454	1	125
383.625	1	127
383.795	1	137
383.966	1	128
384.137	1	145
384.308	1	129
384.479	1	115
384.649	1	143
384.820	1	138
384.991	1	134
385.162	1	146
385.333	1	132
385.503	1	137
385.674	1	137
385.845	1	138
386.016	1	142
386.187	1	122
386.357	1	132
386.528	1	131
386.699	1	136
386.870	1	137
387.041	1	150
387.211	1	155
387.382	1	164
387.553	1	142
387.724	1	135
387.894	1	141
388.065	1	129
388.236	1	121
388.407	1	137
388.578	1	146
388.748	1	140
388.919	1	141
389.090	1	164
389.261	1	154
389.431	1	133
389.602	1	132
389.773	1	141
389.944	1	134
390.114	1	146
390.285	1	147
390.456	1	142
390.627	1	136
390.798	1	135
390.968	1	157
391.139	1	145
391.310	1	141
391.481	1	141
391.651	1	145
391.822	1	157
391.993	1	138
392.164	1	166
392.334	1	134
392.505	1	146
392.676	1	128
392.847	1	142
393.017	1	141
393.188	1	135
393.359	1	144
393.530	1	156
393.700	1	141
393.871	1	160
394.042	1	137
394.213	1	143
394.383	1	152
394.554	1	158
394.725	1	146
394.896	1	159
395.066	1	152
395.237	1	167
395.408	1	165
395.579	1	157
395.749	1	176
395.920	1	162
396.091	1	141
396.262	1	162
396.432	1	143
396.603	1	152
396.774	1	150
396.945	1	169
397.115	1	168
397.286	1	176
397.457	1	152
397.627	1	154
397.798	1	151
397.969	1	162
398.140	1	170
398.310	1	156
398.481	1	160
398.652	1	144
398.823	1	162
398.993	1	168
399.164	1	154
399.335	1	153
399.505	1	151
399.676	1	157
399.847	1	142
400.018	1	152
400.188	1	152
400.359	1	157
400.530	1	161
400.700	1	163
400.871	1	153
401.042	1	147
401.213	1	162
401.383	1	147
401.554	1	156
401.725	1	159
401.895	1	143
402.066	1	158
402.237	1	160
402.408	1	171
402.578	1	152
402.749	1	155
402.920	1	164
403.090	1	156
403.261	1	149
403.432	1	162
403.603	1	156
403.773	1	153
403.944	1	165
404.115	1	170
404.285	1	160
404.456	1	168
404.627	1	158
404.797	1	145
404.968	1	146
405.139	1	182
405.310	1	165
405.480	1	156
405.651	1	152
405.822	1	166
405.992	1	170
406.163	1	161
406.334	1	169
406.504	1	154
406.675	1	173
406.846	1	170
407.016	1	165
407.187	1	172
407.358	1	167
407.528	1	173
407.699	1	172
407.870	1	179
408.041	1	160
408.211	1	176
408.382	1	170
408.553	1	174
408.723	1	177
408.894	1	178
409.065	1	182
409.235	1	175
409.406	1	165
409.577	1	178
409.747	1	169
409.918	1	182
410.089	1	183
410.259	1	172
410.430	1	176
410.601	1	172
410.771	1	168
410.942	1	177
411.113	1	173
411.283	1	172
411.454	1	171
411.625	1	175
411.795	1	183
411.966	1	180
412.137	1	166
412.307	1	174
412.478	1	168
412.649	1	158
412.819	1	164
412.990	1	171
413.161	1	160
413.331	1	173
413.502	1	155
413.672	1	161
413.843	1	166
414.014	1	153
414.184	1	172
414.355	1	170
414.526	1	167
414.696	1	162
414.867	1	159
415.038	1	156
415.208	1	150
415.379	1	168
415.550	1	173
415.720	1	157
415.891	1	175
416.062	1	172
416.232	1	154
416.403	1	184
416.573	1	160
416.744	1	149
416.915	1	154
417.085	1	167
417.256	1	174
417.427	1	168
417.597	1	164
417.768	1	155
417.939	1	157
418.109	1	176
418.280	1	178
418.450	1	161
418.621	1	170
418.792	1	163
418.962	1	160
419.133	1	165
419.304	1	164
419.474	1	169
419.645	1	169
419.815	1	172
419.986	1	164
420.157	1	164
420.327	1	156
420.498	1	152
420.669	1	156
420.839	1	170
421.010	1	156
421.180	1	164
421.351	1	157
421.522	1	170
421.692	1	179
421.863	1	167
422.033	1	165
422.204	1	160
422.375	1	164
422.545	1	161
422.716	1	142
422.886	1	168
423.057	1	175
423.228	1	145
423.398	1	163
423.569	1	153
423.740	1	154
423.910	1	154
424.081	1	147
424.251	1	148
424.422	1	154
424.593	1	146
424.763	1	159
424.934	1	161
425.104	1	165
425.275	1	156
425.445	1	166
425.616	1	146
425.787	1	137
425.957	1	133
426.128	1	148
426.298	1	146
426.469	1	146
426.640	1	138
426.810	1	123
426.981	1	170
427.151	1	145
427.322	1	140
427.493	1	147
427.663	1	150
427.834	1	142
428.004	1	149
428.175	1	146
428.345	1	134
428.516	1	145
428.687	1	147
428.857	1	157
429.028	1	145
429.198	1	141
429.369	1	149
429.540	1	143
429.710	1	143
429.881	1	134
430.051	1	143
430.222	1	145
430.392	1	146
430.563	1	140
430.734	1	153
430.904	1	148
431.075	1	150
431.245	1	144
431.416	1	137
431.586	1	127
431.757	1	153
431.927	1	149
432.098	1	153
432.269	1	141
432.439	1	134
432.610	1	152
432.780	1	152
432.951	1	134
433.121	1	132
433.292	1	150
433.462	1	142
433.633	1	142
433.804	1	144
433.974	1	141
434.145	1	134
434.315	1	142
434.486	1	138
434.656	1	152
434.827	1	149
434.997	1	157
435.168	1	146
435.339	1	157
435.509	1	151
435.680	1	154
435.850	1	125
436.021	1	139
436.191	1	146
436.362	1	145
436.532	1	146
436.703	1	137
436.873	1	140
437.044	1	125
437.214	1	142
437.385	1	140
437.556	1	126
437.726	1	135
437.897	1	140
438.067	1	131
438.238	1	125
438.408	1	132
438.579	1	122
438.749	1	137
438.920	1	139
439.090	1	121
439.261	1	138
439.431	1	121
439.602	1	144
439.772	1	133
439.943	1	123
440.113	1	130
440.284	1	122
440.455	1	134
440.625	1	145
440.796	1	122
440.966	1	142
441.137	1	125
441.307	1	149
441.478	1	124
441.648	1	135
441.819	1	120
441.989	1	142
442.160	1	127
442.330	1	133
442.501	1	115
442.671	1	120
442.842	1	135
443.012	1	123
443.183	1	129
443.353	1	120
443.524	1	125
443.694	1	128
443.865	1	131
444.035	1	131
444.206	1	132
444.376	1	140
444.547	1	126
444.717	1	131
444.888	1	108
445.058	1	118
445.229	1	126
445.399	1	117
445.570	1	114
445.740	1	122
445.911	1	117
446.081	1	126
446.252	1	126
446.422	1	124
446.593	1	129
446.763	1	131
446.934	1	123
447.104	1	112
447.275	1	116
447.445	1	126
447.616	1	124
447.786	1	117
447.957	1	121
448.127	1	133
448.298	1	123
448.468	1	128
448.639	1	116
448.809	1	118
448.979	1	122
449.150	1	117
449.320	1	117
449.491	1	115
449.661	1	122
449.832	1	110
450.002	1	116
450.173	1	125
450.343	1	114
450.514	1	125
450.684	1	116
450.855	1	117
451.025	1	124
451.196	1	109
451.366	1	118
451.537	1	114
451.707	1	118
451.878	1	100
452.048	1	103
452.218	1	102
452.389	1	107
452.559	1	113
452.730	1	120
452.900	1	106
453.071	1	121
453.241	1	115
453.412	1	111
453.582	1	107
453.753	1	110
453.923	1	108
454.093	1	109
454.264	1	117
454.434	1	111
454.605	1	103
454.775	1	103
454.946	1	113
455.116	1	112
455.287	1	93
455.457	1	111
455.628	1	99
455.798	1	109
455.968	1	104
456.139	1	113
456.309	1	105
456.480	1	104
456.650	1	108
456.821	1	93
456.991	1	109
457.161	1	107
457.332	1	106
457.502	1	90
457.673	1	116
457.843	1	108
458.014	1	107
458.184	1	107
458.355	1	97
458.525	1	94
458.695	1	95
458.866	1	94
459.036	1	104
459.207	1	102
459.377	1	106
459.548	1	98
459.718	1	108
459.888	1	96
460.059	1	95
460.229	1	85
460.400	1	104
460.570	1	106
460.740	1	105
460.911	1	93
461.081	1	101
461.252	1	101
461.422	1	100
461.593	1	95
461.763	1	110
461.933	1	95
462.104	1	91
462.274	1	99
462.445	1	87
462.615	1	103
462.785	1	95
462.956	1	99
463.126	1	98
463.297	1	99
463.467	1	109
463.638	1	96
463.808	1	99
463.978	1	79
464.149	1	91
464.319	1	96
464.490	1	81
464.660	1	95
464.830	1	79
465.001	1	91
465.171	1	88
465.342	1	87
465.512	1	98
465.682	1	83
465.853	1	84
466.023	1	89
466.194	1	95
466.364	1	99
466.534	1	80
466.705	1	97
466.875	1	83
467.045	1	80
467.216	1	83
467.386	1	80
467.557	1	82
467.727	1	77
467.897	1	93
468.068	1	84
468.238	1	85
468.409	1	91
468.579	1	91
468.749	1	72
468.920	1	76
469.090	1	85
469.260	1	84
469.431	1	71
469.601	1	93
469.772	1	87
469.942	1	85
470.112	1	72
470.283	1	88
470.453	1	92
470.623	1	83
470.794	1	75
470.964	1	79
471.135	1	89
471.305	1	79
471.475	1	73
471.646	1	91
471.816	1	80
471.986	1	72
472.157	1	80
472.327	1	74
472.497	1	82
472.668	1	71
472.838	1	75
473.009	1	79
473.179	1	79
473.349	1	69
473.520	1	84
473.690	1	81
473.860	1	71
474.031	1	62
474.201	1	64
474.371	1	84
474.542	1	81
474.712	1	78
474.882	1	82
475.053	1	88
475.223	1	75
475.394	1	78
475.564	1	75
475.734	1	73
475.905	1	77
476.075	1	85
476.245	1	70
476.416	1	69
476.586	1	71
476.756	1	75
476.927	1	69
477.097	1	77
477.267	1	69
477.438	1	79
477.608	1	86
477.778	1	72
477.949	1	70
478.119	1	83
478.289	1	72
478.460	1	74
478.630	1	61
478.800	1	68
478.971	1	72
479.141	1	83
479.311	1	71
479.482	1	61
479.652	1	88
479.822	1	70
479.993	1	68
480.163	1	80
480.333	1	83
480.504	1	72
480.674	1	68
480.844	1	66
481.015	1	84
481.185	1	81
481.355	1	60
481.525	1	74
481.696	1	70
481.866	1	71
482.036	1	63
482.207	1	75
482.377	1	66
482.547	1	71
482.718	1	68
482.888	1	78
483.058	1	79
483.229	1	65
483.399	1	80
483.569	1	54
483.740	1	60
483.910	1	52
484.080	1	72
484.250	1	60
484.421	1	59
484.591	1	54
484.761	1	71
484.932	1	58
485.102	1	69
485.272	1	62
485.443	1	68
485.613	1	53
485.783	1	75
485.953	1	55
486.124	1	69
486.294	1	60
486.464	1	68
486.635	1	64
486.805	1	65
486.975	1	57
487.146	1	69
487.316	1	76
487.486	1	68
487.656	1	57
487.827	1	64
487.997	1	58
488.167	1	61
488.338	1	55
488.508	1	67
488.678	1	66
488.848	1	60
489.019	1	61
489.189	1	59
489.359	1	63
489.529	1	55
489.700	1	63
489.870	1	68
490.040	1	55
490.211	1	55
490.381	1	62
490.551	1	50
490.721	1	52
490.892	1	41
491.062	1	53
491.232	1	66
491.402	1	54
491.573	1	63
491.743	1	60
491.913	1	54
492.084	1	60
492.254	1	57
492.424	1	55
492.594	1	56
492.765	1	63
492.935	1	61
493.105	1	53
493.275	1	63
493.446	1	41
493.616	1	51
493.786	1	60
493.956	1	49
494.127	1	51
494.297	1	50
494.467	1	58
494.637	1	52
494.808	1	50
494.978	1	61
495.148	1	49
495.318	1	56
495.489	1	56
495.659	1	62
495.829	1	53
495.999	1	61
496.170	1	52
496.340	1	53
496.510	1	59
496.680	1	46
496.851	1	61
497.021	1	44
497.191	1	55
497.361	1	34
497.532	1	53
497.702	1	58
497.872	1	53
498.042	1	43
498.213	1	41
498.383	1	43
498.553	1	59
498.723	1	45
498.894	1	44
499.064	1	52
499.234	1	40
499.404	1	51
499.574	1	49
499.745	1	49
499.915	1	50
500.085	1	45
500.255	1	38
500.426	1	48
500.596	1	33
500.766	1	42
500.936	1	46
501.106	1	41
501.277	1	44
501.447	1	46
501.617	1	47
501.787	1	43
501.958	1	45
502.128	1	44
502.298	1	45
502.468	1	42
502.638	1	46
502.809	1	42
502.979	1	45
503.149	1	49
503.319	1	57
503.489	1	22
503.660	1	40
503.830	1	42
504.000	1	44
504.170	1	47
504.340	1	31
504.511	1	54
504.681	1	35
504.851	1	42
505.021	1	55
505.192	1	35
505.362	1	47
505.532	1	31
505.702	1	51
505.872	1	45
506.043	1	48
506.213	1	60
506.383	1	41
506.553	1	42
506.723	1	32
506.893	1	33
507.064	1	40
507.234	1	46
507.404	1	35
507.574	1	49
507.744	1	44
507.915	1	40
508.085	1	41
508.255	1	42
508.425	1	45
508.595	1	33
508.766	1	30
508.936	1	39
509.106	1	40
509.276	1	36
509.446	1	30
509.616	1	44
509.787	1	36
509.957	1	42
510.127	1	40
510.297	1	33
510.467	1	35
510.638	1	41
510.808	1	48
510.978	1	30
511.148	1	42
511.318	1	38
511.488	1	42
511.659	1	29
511.829	1	39
511.999	1	31
512.169	1	38
512.339	1	46
512.509	1	41
512.680	1	33
512.850	1	45
513.020	1	39
513.190	1	31
513.360	1	47
513.530	1	40
513.700	1	35
513.871	1	34
514.041	1	47
514.211	1	39
514.381	1	32
514.551	1	38
514.721	1	39
514.892	1	33
515.062	1	42
515.232	1	25
515.402	1	34
515.572	1	41
515.742	1	42
515.912	1	41
516.083	1	36
516.253	1	36
516.423	1	32
516.593	1	43
516.763	1	42
516.933	1	39
517.104	1	43
517.274	1	21
517.444	1	33
517.614	1	24
517.784	1	30
517.954	1	27
518.124	1	35
518.294	1	44
518.465	1	33
518.635	1	48
518.805	1	36
518.975	1	33
519.145	1	37
519.315	1	33
519.485	1	31
519.656	1	22
519.826	1	34
519.996	1	25
520.166	1	41
520.336	1	30
520.506	1	30
520.676	1	35
520.846	1	42
521.017	1	23
521.187	1	49
521.357	1	31
521.527	1	24
521.697	1	26
521.867	1	30
522.037	1	24
522.207	1	38
522.377	1	39
522.548	1	19
522.718	1	30
522.888	1	30
523.058	1	35
523.228	1	18
523.398	1	32
523.568	1	20
523.738	1	27
523.909	1	18
524.079	1	37
524.249	1	26
524.419	1	27
524.589	1	31
524.759	1	30
524.929	1	30
525.099	1	22
525.269	1	35
525.439	1	26
525.610	1	37
525.780	1	28
525.950	1	32
526.120	1	24
526.290	1	25
526.460	1	32
526.630	1	33
526.800	1	26
526.970	1	28
527.140	1	25
527.311	1	26
527.481	1	20
527.651	1	42
527.821	1	14
527.991	1	19
528.161	1	42
528.331	1	23
528.501	1	29
528.671	1	32
528.841	1	39
529.011	1	23
529.181	1	27
529.352	1	31
529.522	1	25
529.692	1	28
529.862	1	21
530.032	1	24
530.202	1	20
530.372	1	28
530.542	1	17
530.712	1	29
530.882	1	33
531.052	1	31
531.222	1	30
531.392	1	19
531.563	1	31
531.733	1	25
531.903	1	19
532.073	1	18
532.243	1	31
532.413	1	38
532.583	1	27
532.753	1	22
532.923	1	33
533.093	1	20
533.263	1	26
533.433	1	18
533.603	1	19
533.773	1	29
533.943	1	18
534.113	1	13
534.284	1	24
534.454	1	23
534.624	1	28
534.794	1	17
534.964	1	25
535.134	1	20
535.304	1	24
535.474	1	31
535.644	1	29
535.814	1	25
535.984	1	29
536.154	1	27
536.324	1	21
536.494	1	29
536.664	1	26
536.834	1	10
537.004	1	15
537.174	1	26
537.344	1	27
537.514	1	14
537.685	1	18
537.855	1	26
538.025	1	25
538.195	1	15
538.365	1	28
538.535	1	15
538.705	1	22
538.875	1	26
539.045	1	25
539.215	1	8
539.385	1	16
539.555	1	7
539.725	1	23
539.895	1	19
540.065	1	22
540.235	1	15
540.405	1	23
540.575	1	20
540.745	1	17
540.915	1	15
541.085	1	16
541.255	1	23
541.425	1	18
541.595	1	14
541.765	1	25
541.935	1	16
542.105	1	16
542.275	1	1
542.445	1	16
542.615	1	19
542.785	1	17
542.955	1	22
543.125	1	19
543.295	1	20
543.465	1	27
543.635	1	9
543.805	1	21
543.975	1	12
544.145	1	20
544.315	1	17
544.485	1	13
544.655	1	20
544.825	1	17
544.995	1	25
545.165	1	12
545.335	1	20
545.505	1	20
545.675	1	21
545.845	1	29
546.015	1	11
546.185	1	16
546.355	1	25
546.525	1	28
546.695	1	6
546.865	1	23
547.035	1	18
547.205	1	28
547.375	1	22
547.545	1	21
547.715	1	14
547.885	1	15
548.055	1	19
548.225	1	23
548.395	1	19
548.565	1	21
548.735	1	12
548.905	1	21
549.075	1	12
549.245	1	20
549.415	1	25
549.585	1	10
549.755	1	19
549.925	1	14
550.095	1	8
550.265	1	26
550.435	1	14
550.605	1	16
550.775	1	18
550.945	1	9
551.115	1	26
551.285	1	19
551.455	1	24
551.625	1	3
551.795	1	8
551.965	1	11
552.135	1	17
552.305	1	23
552.475	1	20
552.645	1	12
552.815	1	15
552.985	1	12
553.155	1	18
553.325	1	11
553.495	1	18
553.665	1	15
553.835	1	17
554.004	1	23
554.174	1	15
554.344	1	18
554.514	1	8
554.684	1	18
554.854	1	3
555.024	1	22
555.194	1	22
555.364	1	11
555.534	1	5
555.704	1	16
555.874	1	15
556.044	1	14
556.214	1	21
556.384	1	16
556.554	1	11
556.724	1	11
556.894	1	18
557.064	1	12
557.234	1	9
557.404	1	13
557.573	1	14
557.743	1	13
557.913	1	6
558.083	1	16
558.253	1	16
558.423	1	22
558.593	1	18
558.763	1	7
558.933	1	12
559.103	1	11
559.273	1	21
559.443	1	20
559.613	1	16
559.783	1	11
559.953	1	13
560.122	1	17
560.292	1	6
560.462	1	5
560.632	1	2
560.802	1	12
560.972	1	3
561.142	1	9
561.312	1	13
561.482	1	18
561.652	1	15
561.822	1	13
561.992	1	15
562.162	1	10
562.331	1	3
562.501	1	20
562.671	1	11
562.841	1	9
563.011	1	19
563.181	1	9
563.351	1	8
563.521	1	15
563.691	1	23
563.861	1	10
564.031	1	11
564.201	1	21
564.370	1	15
564.540	1	7
564.710	1	11
564.880	1	2
565.050	1	15
565.220	1	8
565.390	1	9
565.560	1	27
565.730	1	23
565.900	1	15
566.069	1	23
566.239	1	22
566.409	1	16
566.579	1	15
566.749	1	4
566.919	1	-4
567.089	1	1
567.259	1	13
567.429	1	8
567.599	1	19
567.768	1	9
567.938	1	17
568.108	1	7
568.278	1	12
568.448	1	1
568.618	1	12
568.788	1	11
568.958	1	16
569.128	1	10
569.297	1	9
569.467	1	17
569.637	1	13
569.807	1	15
569.977	1	6
570.147	1	14
570.317	1	14
570.487	1	8
570.656	1	16
570.826	1	8
570.996	1	26
571.166	1	14
571.336	1	12
571.506	1	5
571.676	1	7
571.846	1	15
572.015	1	8
572.185	1	12
572.355	1	9
572.525	1	10
572.695	1	19
572.865	1	13
573.035	1	19
573.205	1	11
573.374	1	21
573.544	1	11
573.714	1	9
573.884	1	15
574.054	1	11
574.224	1	7
574.394	1	13
574.563	1	9
574.733	1	9
574.903	1	16
575.073	1	15
575.243	1	-2
575.413	1	12
575.583	1	10
575.752	1	1
575.922	1	17
576.092	1	7
576.262	1	5
576.432	1	9
576.602	1	17
576.772	1	14
576.941	1	8
577.111	1	8
577.281	1	8
577.451	1	17
577.621	1	9
577.791	1	16
577.960	1	6
578.130	1	17
578.300	1	10
578.470	1	10
578.640	1	12
578.810	1	7
578.979	1	9
579.149	1	14
579.319	1	1
579.489	1	20
579.659	1	8
579.829	1	12
579.998	1	0
580.168	1	4
580.338	1	9
580.508	1	7
580.678	1	13
580.848	1	2
581.017	1	8
581.187	1	14
581.357	1	17
581.527	1	11
581.697	1	5
581.867	1	9
582.036	1	2
582.206	1	9
582.376	1	13
582.546	1	3
582.716	1	17
582.885	1	12
583.055	1	2
583.225	1	10
583.395	1	8
583.565	1	13
583.735	1	11
583.904	1	11
584.074	1	16
584.244	1	1
584.414	1	11
584.584	1	20
584.753	1	8
584.923	1	11
585.093	1	19
585.263	1	8
585.433	1	8
585.602	1	8
585.772	1	23
585.942	1	9
586.112	1	11
586.282	1	21
586.451	1	8
586.621	1	11
586.791	1	16
586.961	1	9
587.131	1	-2
587.300	1	17
587.470	1	4
587.640	1	10
587.810	1	5
587.980	1	6
588.149	1	12
588.319	1	20
588.489	1	15
588.659	1	11
588.829	1	9
588.998	1	8
589.168	1	18
589.338	1	11
589.508	1	15
589.677	1	7
589.847	1	15
590.017	1	7
590.187	1	14
590.357	1	6
590.526	1	15
590.696	1	11
590.866	1	7
591.036	1	10
591.205	1	26
591.375	1	13
591.545	1	8
591.715	1	5
591.885	1	19
592.054	1	15
592.224	1	3
592.394	1	3
592.564	1	9
592.733	1	9
592.903	1	10
593.073	1	12
593.243	1	15
593.412	1	3
593.582	1	14
593.752	1	7
593.922	1	10
594.091	1	14
594.261	1	3
594.431	1	9
594.601	1	1
594.771	1	16
594.940	1	6
595.110	1	13
595.280	1	15
595.450	1	15
595.619	1	11
595.789	1	10
595.959	1	13
596.129	1	13
596.298	1	14
596.468	1	11
596.638	1	11
596.808	1	-1
596.977	1	-8
597.147	1	10
597.317	1	14
597.487	1	7
597.656	1	8
597.826	1	20
597.996	1	4
598.166	1	5
598.335	1	5
598.505	1	14
598.675	1	26
598.844	1	19
599.014	1	0
599.184	1	21
599.354	1	23
599.523	1	6
599.693	1	11
599.863	1	20
600.033	1	12
600.202	1	7
600.372	1	-1
600.542	1	14
600.712	1	19
600.881	1	7
601.051	1	16
601.221	1	21
601.390	1	10
601.560	1	20
601.730	1	16
601.900	1	14
602.069	1	7
602.239	1	14
602.409	1	9
602.578	1	12
602.748	1	24
602.918	1	8
603.088	1	17
603.257	1	8
603.427	1	18
603.597	1	15
603.767	1	12
603.936	1	10
604.106	1	15
604.276	1	9
604.445	1	-3
604.615	1	12
604.785	1	15
604.954	1	11
605.124	1	8
605.294	1	15
605.464	1	8
605.633	1	14
605.803	1	18
605.973	1	10
606.142	1	19
606.312	1	18
606.482	1	3
606.652	1	17
606.821	1	10
606.991	1	8
607.161	1	0
607.330	1	12
607.500	1	10
607.670	1	17
607.839	1	3
608.009	1	14
608.179	1	16
608.348	1	24
608.518	1	19
608.688	1	10
608.858	1	8
609.027	1	17
609.197	1	17
609.367	1	4
609.536	1	13
609.706	1	22
609.876	1	23
610.045	1	11
610.215	1	16
610.385	1	6
610.554	1	8
610.724	1	8
610.894	1	16
611.063	1	19
611.233	1	19
611.403	1	15
611.572	1	11
611.742	1	18
611.912	1	11
612.081	1	25
612.251	1	20
612.421	1	12
612.590	1	15
612.760	1	16
612.930	1	20
613.099	1	17
613.269	1	19
613.439	1	13
613.608	1	20
613.778	1	14
613.948	1	23
614.117	1	10
614.287	1	9
614.457	1	16
614.626	1	11
614.796	1	10
614.966	1	24
615.135	1	18
615.305	1	17
615.475	1	15
615.644	1	28
615.814	1	17
615.984	1	7
616.153	1	14
616.323	1	15
616.493	1	12
616.662	1	9
616.832	1	15
617.002	1	10
617.171	1	13
617.341	1	8
617.511	1	1
617.680	1	15
617.850	1	17
618.019	1	16
618.189	1	30
618.359	1	20
618.528	1	12
618.698	1	14
618.868	1	11
619.037	1	16
619.207	1	10
619.377	1	14
619.546	1	16
619.716	1	18
619.885	1	16
620.055	1	-4
620.225	1	27
620.394	1	15
620.564	1	21
620.734	1	10
620.903	1	5
621.073	1	24
621.242	1	15
621.412	1	9
621.582	1	16
621.751	1	5
621.921	1	19
622.091	1	20
622.260	1	25
622.430	1	22
622.599	1	12
622.769	1	15
622.939	1	14
623.108	1	14
623.278	1	0
623.448	1	18
623.617	1	15
623.787	1	21
623.956	1	16
624.126	1	15
624.296	1	22
624.465	1	20
624.635	1	26
624.804	1	10
624.974	1	16
625.144	1	19
625.313	1	36
625.483	1	20
625.652	1	13
625.822	1	32
625.992	1	11
626.161	1	14
626.331	1	26
626.501	1	20
626.670	1	10
626.840	1	23
627.009	1	19
627.179	1	14
627.348	1	16
627.518	1	23
627.688	1	4
627.857	1	18
628.027	1	23
628.196	1	22
628.366	1	18
628.536	1	8
628.705	1	10
628.875	1	23
629.044	1	14
629.214	1	25
629.384	1	36
629.553	1	6
629.723	1	17
629.892	1	23
630.062	1	22
630.232	1	27
630.401	1	10
630.571	1	17
630.740	1	14
630.910	1	38
631.079	1	15
631.249	1	17
631.419	1	26
631.588	1	19
631.758	1	8
631.927	1	32
632.097	1	10
632.266	1	31
632.436	1	27
632.606	1	17
632.775	1	35
632.945	1	25
633.114	1	13
633.284	1	20
633.453	1	26
633.623	1	25
633.793	1	14
633.962	1	20
634.132	1	21
634.301	1	19
634.471	1	24
634.640	1	10
634.810	1	29
634.979	1	21
635.149	1	16
635.319	1	24
635.488	1	19
635.658	1	12
635.827	1	24
635.997	1	24
636.166	1	25
636.336	1	29
636.505	1	16
636.675	1	29
636.845	1	23
637.014	1	7
637.184	1	32
637.353	1	25
637.523	1	24
637.692	1	24
637.862	1	20
638.031	1	16
638.201	1	15
638.370	1	26
638.540	1	18
638.710	1	11
638.879	1	21
639.049	1	31
639.218	1	19
639.388	1	27
639.557	1	24
639.727	1	25
639.896	1	24
640.066	1	17
640.235	1	19
640.405	1	30
640.574	1	24
640.744	1	8
640.914	1	24
641.083	1	27
641.253	1	10
641.422	1	23
641.592	1	22
641.761	1	16
641.931	1	35
642.100	1	16
642.270	1	15
642.439	1	21
642.609	1	28
642.778	1	21
642.948	1	27
643.117	1	26
643.287	1	25
643.456	1	14
643.626	1	27
643.795	1	22
643.965	1	12
644.134	1	26
644.304	1	23
644.473	1	20
644.643	1	26
644.812	1	19
644.982	1	26
645.151	1	20
645.321	1	36
645.490	1	37
645.660	1	16
645.829	1	22
645.999	1	22
646.168	1	38
646.338	1	12
646.507	1	25
646.677	1	22
646.846	1	20
647.016	1	41
647.185	1	31
647.355	1	39
647.524	1	29
647.694	1	16
647.863	1	25
648.033	1	31
648.202	1	25
648.372	1	25
648.541	1	31
648.711	1	25
648.880	1	27
649.050	1	31
649.219	1	28
649.389	1	27
649.558	1	27
649.728	1	26
649.897	1	39
650.067	1	26
650.236	1	19
650.406	1	22
650.575	1	21
650.745	1	38
650.914	1	35
651.084	1	21
651.253	1	23
651.423	1	18
651.592	1	18
651.762	1	14
651.931	1	34
652.101	1	6
652.270	1	21
652.440	1	27
652.609	1	32
652.778	1	23
652.948	1	36
653.117	1	30
653.287	1	16
653.456	1	28
653.626	1	25
653.795	1	29
653.965	1	25
654.134	1	21
654.304	1	33
654.473	1	26
654.643	1	21
654.812	1	33
654.982	1	37
655.151	1	21
655.320	1	33
655.490	1	25
655.659	1	26
655.829	1	27
655.998	1	28
656.168	1	18
656.337	1	30
656.507	1	27
656.676	1	14
656.846	1	27
657.015	1	29
657.184	1	24
657.354	1	33
657.523	1	24
657.693	1	32
657.862	1	26
658.032	1	25
658.201	1	18
658.371	1	24
658.540	1	29
658.709	1	41
658.879	1	37
659.048	1	36
659.218	1	30
659.387	1	28
659.557	1	22
659.726	1	27
659.895	1	25
660.065	1	15
660.234	1	30
660.404	1	25
660.573	1	29
660.743	1	24
660.912	1	44
661.081	1	27
661.251	1	25
661.420	1	32
661.590	1	25
661.759	1	35
661.929	1	37
662.098	1	34
662.267	1	13
662.437	1	36
662.606	1	34
662.776	1	22
662.945	1	31
663.115	1	34
663.284	1	25
663.453	1	25
663.623	1	26
663.792	1	23
663.962	1	37
664.131	1	35
664.300	1	24
664.470	1	37
664.639	1	13
664.809	1	25
664.978	1	35
665.148	1	34
665.317	1	32
665.486	1	34
665.656	1	34
665.825	1	39
665.995	1	27
666.164	1	22
666.333	1	30
666.503	1	28
666.672	1	38
666.842	1	26
667.011	1	23
667.180	1	26
667.350	1	39
667.519	1	25
667.689	1	25
667.858	1	40
668.027	1	25
668.197	1	24
668.366	1	25
668.536	1	25
668.705	1	30
668.874	1	49
669.044	1	37
669.213	1	34
669.382	1	37
669.552	1	34
669.721	1	23
669.891	1	34
670.060	1	29
670.229	1	34
670.399	1	38
670.568	1	34
670.738	1	23
670.907	1	39
671.076	1	34
671.246	1	35
671.415	1	34
671.584	1	37
671.754	1	27
671.923	1	27
672.093	1	35
672.262	1	31
672.431	1	32
672.601	1	29
672.770	1	30
672.939	1	41
673.109	1	33
673.278	1	28
673.448	1	39
673.617	1	33
673.786	1	26
