325.333	1	7
325.504	1	-6
325.675	1	9
325.846	1	-7
326.017	1	1
326.188	1	0
326.359	1	6
326.531	1	-5
326.702	1	2
326.873	1	6
327.044	1	5
327.215	1	1
327.386	1	-1
327.557	1	-15
327.728	1	-1
327.899	1	-3
328.070	1	10
328.241	1	1
328.412	1	1
328.583	1	-1
328.754	1	15
328.926	1	4
329.097	1	-4
329.268	1	11
329.439	1	2
329.610	1	1
329.781	1	3
329.952	1	13
330.123	1	1
330.294	1	-8
330.465	1	-7
330.636	1	13
330.807	1	2
330.978	1	-7
331.149	1	10
331.320	1	5
331.492	1	-1
331.663	1	8
331.834	1	9
332.005	1	12
332.176	1	5
332.347	1	11
332.518	1	11
332.689	1	-8
332.860	1	0
333.031	1	6
333.202	1	3
333.373	1	5
333.544	1	-1
333.715	1	4
333.886	1	-8
334.057	1	2
334.228	1	16
334.399	1	7
334.570	1	9
334.741	1	4
334.912	1	2
335.084	1	11
335.255	1	8
335.426	1	-4
335.597	1	6
335.768	1	-1
335.939	1	4
336.110	1	9
336.281	1	-7
336.452	1	15
336.623	1	-2
336.794	1	-3
336.965	1	2
337.136	1	16
337.307	1	-3
337.478	1	3
337.649	1	5
337.820	1	-2
337.991	1	7
338.162	1	4
338.333	1	6
338.504	1	10
338.675	1	5
338.846	1	0
339.017	1	1
339.188	1	3
339.359	1	2
339.530	1	1
339.701	1	13
339.872	1	17
340.043	1	6
340.214	1	8
340.385	1	-7
340.556	1	11
340.727	1	17
340.898	1	12
341.069	1	4
341.240	1	-1
341.411	1	6
341.582	1	-4
341.753	1	0
341.924	1	7
342.095	1	10
342.266	1	14
342.437	1	1
342.608	1	4
342.779	1	2
342.950	1	0
343.121	1	7
343.292	1	5
343.463	1	16
343.634	1	2
343.805	1	2
343.976	1	5
344.147	1	11
344.318	1	2
344.489	1	4
344.660	1	9
344.831	1	8
345.002	1	17
345.173	1	8
345.344	1	-8
345.515	1	0
345.686	1	10
345.857	1	15
346.028	1	3
346.199	1	8
346.370	1	8
346.541	1	-1
346.712	1	2
346.883	1	3
347.054	1	0
347.225	1	2
347.396	1	7
347.567	1	7
347.738	1	3
347.909	1	11
348.080	1	0
348.251	1	6
348.422	1	16
348.593	1	6
348.764	1	1
348.935	1	9
349.106	1	5
349.277	1	3
349.448	1	8
349.619	1	5
349.790	1	8
349.961	1	7
350.132	1	4
350.303	1	6
350.474	1	4
350.645	1	4
350.816	1	11
350.987	1	23
351.157	1	5
351.328	1	0
351.499	1	2
351.670	1	3
351.841	1	8
352.012	1	7
352.183	1	16
352.354	1	3
352.525	1	12
352.696	1	3
352.867	1	10
353.038	1	8
353.209	1	3
353.380	1	8
353.551	1	4
353.722	1	0
353.893	1	18
354.064	1	11
354.235	1	3
354.406	1	-7
354.576	1	8
354.747	1	17
354.918	1	6
355.089	1	11
355.260	1	12
355.431	1	0
355.602	1	0
355.773	1	2
355.944	1	11
356.115	1	16
356.286	1	8
356.457	1	9
356.628	1	3
356.799	1	1
356.970	1	16
357.141	1	10
357.311	1	18
357.482	1	0
357.653	1	3
357.824	1	15
357.995	1	18
358.166	1	10
358.337	1	0
358.508	1	18
358.679	1	2
358.850	1	18
359.021	1	6
359.192	1	14
359.363	1	1
359.533	1	4
359.704	1	-2
359.875	1	1
360.046	1	18
360.217	1	25
360.388	1	11
360.559	1	17
360.730	1	0
360.901	1	15
361.072	1	14
361.243	1	7
361.414	1	17
361.584	1	2
361.755	1	13
361.926	1	14
362.097	1	5
362.268	1	21
362.439	1	0
362.610	1	11
362.781	1	4
362.952	1	13
363.123	1	1
363.293	1	10
363.464	1	5
363.635	1	16
363.806	1	14
363.977	1	7
364.148	1	5
364.319	1	1
364.490	1	8
364.661	1	12
364.832	1	13
365.002	1	11
365.173	1	10
365.344	1	7
365.515	1	6
365.686	1	15
365.857	1	9
366.028	1	12
366.199	1	11
366.370	1	14
366.540	1	14
366.711	1	13
366.882	1	7
367.053	1	19
367.224	1	13
367.395	1	8
367.566	1	13
367.737	1	16
367.908	1	11
368.078	1	14
368.249	1	13
368.420	1	2
368.591	1	4
368.762	1	16
368.933	1	13
369.104	1	8
369.274	1	14
369.445	1	15
369.616	1	10
369.787	1	10
369.958	1	18
370.129	1	11
370.300	1	-1
370.471	1	8
370.641	1	6
370.812	1	19
370.983	1	15
371.154	1	1
371.325	1	7
371.496	1	10
371.667	1	26
371.837	1	14
372.008	1	17
372.179	1	5
372.350	1	5
372.521	1	13
372.692	1	11
372.863	1	6
373.033	1	16
373.204	1	11
373.375	1	6
373.546	1	15
373.717	1	12
373.888	1	10
374.059	1	4
374.229	1	12
374.400	1	5
374.571	1	10
374.742	1	5
374.913	1	-1
375.084	1	6
375.254	1	2
375.425	1	12
375.596	1	5
375.767	1	16
375.938	1	1
376.109	1	12
376.279	1	9
376.450	1	15
376.621	1	26
376.792	1	13
376.963	1	16
377.134	1	9
377.304	1	21
377.475	1	-4
377.646	1	-1
377.817	1	17
377.988	1	12
378.159	1	19
378.329	1	11
378.500	1	20
378.671	1	8
378.842	1	12
379.013	1	8
379.184	1	12
379.354	1	5
379.525	1	17
379.696	1	14
379.867	1	16
380.038	1	12
380.209	1	19
380.379	1	13
380.550	1	1
380.721	1	9
380.892	1	9
381.063	1	12
381.233	1	10
381.404	1	8
381.575	1	18
381.746	1	21
381.917	1	12
382.087	1	9
382.258	1	17
382.429	1	11
382.600	1	5
382.771	1	5
382.941	1	25
383.112	1	13
383.283	1	9
383.454	1	10
383.625	1	7
383.795	1	19
383.966	1	14
384.137	1	24
384.308	1	11
384.479	1	11
384.649	1	13
384.820	1	11
384.991	1	14
385.162	1	10
385.333	1	3
385.503	1	0
385.674	1	12
385.845	1	17
386.016	1	18
386.187	1	6
386.357	1	21
386.528	1	8
386.699	1	2
386.870	1	13
387.041	1	23
387.211	1	12
387.382	1	21
387.553	1	21
387.724	1	16
387.894	1	11
388.065	1	15
388.236	1	13
388.407	1	13
388.578	1	15
388.748	1	14
388.919	1	19
389.090	1	22
389.261	1	18
389.431	1	4
389.602	1	11
389.773	1	9
389.944	1	8
390.114	1	15
390.285	1	21
390.456	1	12
390.627	1	7
390.798	1	15
390.968	1	23
391.139	1	18
391.310	1	8
391.481	1	11
391.651	1	15
391.822	1	20
391.993	1	12
392.164	1	16
392.334	1	16
392.505	1	14
392.676	1	7
392.847	1	12
393.017	1	14
393.188	1	10
393.359	1	21
393.530	1	29
393.700	1	15
393.871	1	13
394.042	1	6
394.213	1	28
394.383	1	24
394.554	1	11
394.725	1	8
394.896	1	18
395.066	1	23
395.237	1	19
395.408	1	6
395.579	1	17
395.749	1	21
395.920	1	30
396.091	1	15
396.262	1	9
396.432	1	22
396.603	1	16
396.774	1	7
396.945	1	21
397.115	1	24
397.286	1	23
397.457	1	11
397.627	1	5
397.798	1	15
397.969	1	23
398.140	1	13
398.310	1	15
398.481	1	28
398.652	1	23
398.823	1	11
398.993	1	14
399.164	1	12
399.335	1	5
399.505	1	10
399.676	1	14
399.847	1	18
400.018	1	9
400.188	1	25
400.359	1	15
400.530	1	26
400.700	1	14
400.871	1	19
401.042	1	20
401.213	1	17
401.383	1	19
401.554	1	10
401.725	1	19
401.895	1	7
402.066	1	21
402.237	1	14
402.408	1	14
402.578	1	22
402.749	1	11
402.920	1	21
403.090	1	14
403.261	1	16
403.432	1	14
403.603	1	18
403.773	1	21
403.944	1	15
404.115	1	14
404.285	1	21
404.456	1	24
404.627	1	18
404.797	1	19
404.968	1	17
405.139	1	25
405.310	1	16
405.480	1	19
405.651	1	13
405.822	1	18
405.992	1	25
406.163	1	8
406.334	1	14
406.504	1	19
406.675	1	23
406.846	1	15
407.016	1	24
407.187	1	20
407.358	1	7
407.528	1	17
407.699	1	15
407.870	1	21
408.041	1	12
408.211	1	19
408.382	1	22
408.553	1	18
408.723	1	18
408.894	1	14
409.065	1	22
409.235	1	20
409.406	1	13
409.577	1	16
409.747	1	13
409.918	1	21
410.089	1	23
410.259	1	20
410.430	1	15
410.601	1	15
410.771	1	17
410.942	1	24
411.113	1	16
411.283	1	18
411.454	1	33
411.625	1	24
411.795	1	22
411.966	1	23
412.137	1	26
412.307	1	22
412.478	1	29
412.649	1	14
412.819	1	17
412.990	1	31
413.161	1	23
413.331	1	12
413.502	1	23
413.672	1	25
413.843	1	13
414.014	1	15
414.184	1	32
414.355	1	15
414.526	1	19
414.696	1	27
414.867	1	14
415.038	1	13
415.208	1	11
415.379	1	15
415.550	1	22
415.720	1	3
415.891	1	21
416.062	1	20
416.232	1	27
416.403	1	17
416.573	1	17
416.744	1	17
416.915	1	11
417.085	1	15
417.256	1	18
417.427	1	15
417.597	1	14
417.768	1	15
417.939	1	17
418.109	1	13
418.280	1	5
418.450	1	35
418.621	1	23
418.792	1	7
418.962	1	23
419.133	1	25
419.304	1	17
419.474	1	9
419.645	1	18
419.815	1	15
419.986	1	29
420.157	1	13
420.327	1	8
420.498	1	15
420.669	1	18
420.839	1	21
421.010	1	9
421.180	1	9
421.351	1	15
421.522	1	17
421.692	1	19
421.863	1	17
422.033	1	17
422.204	1	22
422.375	1	24
422.545	1	21
422.716	1	9
422.886	1	18
423.057	1	17
423.228	1	19
423.398	1	13
423.569	1	16
423.740	1	18
423.910	1	16
424.081	1	17
424.251	1	11
424.422	1	14
424.593	1	20
424.763	1	23
424.934	1	27
425.104	1	22
425.275	1	11
425.445	1	5
425.616	1	18
425.787	1	14
425.957	1	5
426.128	1	11
426.298	1	20
426.469	1	6
426.640	1	15
426.810	1	-4
426.981	1	23
427.151	1	17
427.322	1	15
427.493	1	17
427.663	1	14
427.834	1	17
428.004	1	18
428.175	1	20
428.345	1	3
428.516	1	21
428.687	1	23
428.857	1	14
429.028	1	12
429.198	1	7
429.369	1	25
429.540	1	22
429.710	1	20
429.881	1	25
430.051	1	9
430.222	1	17
430.392	1	26
430.563	1	4
430.734	1	17
430.904	1	34
431.075	1	18
431.245	1	16
431.416	1	26
431.586	1	5
431.757	1	22
431.927	1	29
432.098	1	21
432.269	1	5
432.439	1	15
432.610	1	14
432.780	1	12
432.951	1	9
433.121	1	26
433.292	1	14
433.462	1	13
433.633	1	12
433.804	1	23
433.974	1	16
434.145	1	11
434.315	1	13
434.486	1	11
434.656	1	17
434.827	1	30
434.997	1	24
435.168	1	13
435.339	1	23
435.509	1	17
435.680	1	15
435.850	1	12
436.021	1	8
436.191	1	11
436.362	1	18
436.532	1	25
436.703	1	20
436.873	1	18
437.044	1	24
437.214	1	9
437.385	1	3
437.556	1	10
437.726	1	15
437.897	1	16
438.067	1	15
438.238	1	19
438.408	1	14
438.579	1	7
438.749	1	17
438.920	1	20
439.090	1	9
439.261	1	20
439.431	1	9
439.602	1	14
439.772	1	18
439.943	1	9
440.113	1	9
440.284	1	25
440.455	1	10
440.625	1	22
440.796	1	4
440.966	1	21
441.137	1	12
441.307	1	14
441.478	1	8
441.648	1	14
441.819	1	6
441.989	1	23
442.160	1	17
442.330	1	21
442.501	1	7
442.671	1	10
442.842	1	22
443.012	1	12
443.183	1	21
443.353	1	17
443.524	1	13
443.694	1	7
443.865	1	12
444.035	1	10
444.206	1	13
444.376	1	12
444.547	1	18
444.717	1	17
444.888	1	13
445.058	1	14
445.229	1	12
445.399	1	19
445.570	1	7
445.740	1	17
445.911	1	14
446.081	1	12
446.252	1	1
446.422	1	20
446.593	1	6
446.763	1	13
446.934	1	10
447.104	1	14
447.275	1	22
447.445	1	14
447.616	1	17
447.786	1	8
447.957	1	13
448.127	1	17
448.298	1	19
448.468	1	11
448.639	1	0
448.809	1	5
448.979	1	25
449.150	1	13
449.320	1	20
449.491	1	7
449.661	1	4
449.832	1	11
450.002	1	21
450.173	1	6
450.343	1	15
450.514	1	23
450.684	1	12
450.855	1	9
451.025	1	11
451.196	1	7
451.366	1	16
451.537	1	26
451.707	1	16
451.878	1	6
452.048	1	4
452.218	1	8
452.389	1	13
452.559	1	19
452.730	1	20
452.900	1	5
453.071	1	20
453.241	1	14
453.412	1	13
453.582	1	16
453.753	1	15
453.923	1	3
454.093	1	13
454.264	1	18
454.434	1	23
454.605	1	5
454.775	1	21
454.946	1	5
455.116	1	13
455.287	1	6
455.457	1	11
455.628	1	4
455.798	1	17
455.968	1	15
456.139	1	17
456.309	1	15
456.480	1	6
456.650	1	14
456.821	1	4
456.991	1	17
457.161	1	15
457.332	1	4
457.502	1	1
457.673	1	9
457.843	1	12
458.014	1	15
458.184	1	15
458.355	1	16
458.525	1	10
458.695	1	3
458.866	1	10
459.036	1	6
459.207	1	12
459.377	1	17
459.548	1	-4
459.718	1	10
459.888	1	9
460.059	1	8
460.229	1	7
460.400	1	11
460.570	1	9
460.740	1	4
460.911	1	7
461.081	1	22
461.252	1	9
461.422	1	14
461.593	1	7
461.763	1	24
461.933	1	14
462.104	1	2
462.274	1	9
462.445	1	14
462.615	1	14
462.785	1	25
462.956	1	3
463.126	1	14
463.297	1	4
463.467	1	19
463.638	1	15
463.808	1	-1
463.978	1	14
464.149	1	7
464.319	1	12
464.490	1	14
464.660	1	5
464.830	1	6
465.001	1	7
465.171	1	6
465.342	1	6
465.512	1	18
465.682	1	8
465.853	1	6
466.023	1	13
466.194	1	17
466.364	1	17
466.534	1	9
466.705	1	23
466.875	1	4
467.045	1	-2
467.216	1	12
467.386	1	1
467.557	1	19
467.727	1	2
467.897	1	11
468.068	1	4
468.238	1	8
468.409	1	5
468.579	1	13
468.749	1	12
468.920	1	-2
469.090	1	29
469.260	1	9
469.431	1	6
469.601	1	19
469.772	1	23
469.942	1	8
470.112	1	-7
470.283	1	12
470.453	1	16
470.623	1	8
470.794	1	7
470.964	1	1
471.135	1	8
471.305	1	9
471.475	1	20
471.646	1	12
471.816	1	8
471.986	1	8
472.157	1	1
472.327	1	13
472.497	1	1
472.668	1	11
472.838	1	8
473.009	1	12
473.179	1	18
473.349	1	1
473.520	1	22
473.690	1	5
473.860	1	0
474.031	1	-1
474.201	1	8
474.371	1	12
474.542	1	0
474.712	1	6
474.882	1	12
475.053	1	4
475.223	1	7
475.394	1	6
475.564	1	15
475.734	1	3
475.905	1	15
476.075	1	24
476.245	1	9
476.416	1	6
476.586	1	6
476.756	1	11
476.927	1	7
477.097	1	9
477.267	1	4
477.438	1	18
477.608	1	18
477.778	1	-3
477.949	1	9
478.119	1	17
478.289	1	2
478.460	1	4
478.630	1	8
478.800	1	-1
478.971	1	10
479.141	1	8
479.311	1	-4
479.482	1	7
479.652	1	8
479.822	1	2
479.993	1	5
480.163	1	7
480.333	1	19
480.504	1	9
480.674	1	11
480.844	1	3
481.015	1	19
481.185	1	14
481.355	1	7
481.525	1	1
481.696	1	19
481.866	1	3
482.036	1	13
482.207	1	15
482.377	1	3
482.547	1	8
482.718	1	8
482.888	1	14
483.058	1	17
483.229	1	10
483.399	1	13
483.569	1	-1
483.740	1	7
483.910	1	4
484.080	1	9
484.250	1	9
484.421	1	-6
484.591	1	12
484.761	1	15
484.932	1	3
485.102	1	7
485.272	1	0
485.443	1	5
485.613	1	2
485.783	1	3
485.953	1	1
486.124	1	6
486.294	1	4
486.464	1	18
486.635	1	6
486.805	1	9
486.975	1	-2
487.146	1	16
487.316	1	13
487.486	1	6
487.656	1	13
487.827	1	13
487.997	1	-3
488.167	1	10
488.338	1	1
488.508	1	11
488.678	1	-8
488.848	1	6
489.019	1	-6
489.189	1	8
489.359	1	2
489.529	1	7
489.700	1	4
489.870	1	11
490.040	1	-2
490.211	1	-4
490.381	1	8
490.551	1	11
490.721	1	15
490.892	1	-9
491.062	1	7
491.232	1	6
491.402	1	5
491.573	1	12
491.743	1	-1
491.913	1	13
492.084	1	5
492.254	1	0
492.424	1	0
492.594	1	5
492.765	1	13
492.935	1	17
493.105	1	5
493.275	1	2
493.446	1	1
493.616	1	-7
493.786	1	9
493.956	1	13
494.127	1	-2
494.297	1	-8
494.467	1	5
494.637	1	1
494.808	1	11
494.978	1	-3
495.148	1	4
495.318	1	7
495.489	1	-6
495.659	1	2
495.829	1	-3
495.999	1	10
496.170	1	6
496.340	1	0
496.510	1	10
496.680	1	12
496.851	1	10
497.021	1	6
497.191	1	6
497.361	1	-2
497.532	1	4
497.702	1	5
497.872	1	5
498.042	1	8
498.213	1	-6
498.383	1	2
498.553	1	10
498.723	1	1
498.894	1	2
499.064	1	3
499.234	1	-2
499.404	1	0
499.574	1	17
499.745	1	6
499.915	1	16
500.085	1	5
500.255	1	-8
500.426	1	4
500.596	1	-10
500.766	1	-3
500.936	1	2
501.106	1	-4
501.277	1	-4
501.447	1	13
501.617	1	3
501.787	1	4
501.958	1	7
502.128	1	5
502.298	1	5
502.468	1	1
502.638	1	10
502.809	1	-15
502.979	1	9
503.149	1	0
503.319	1	9
503.489	1	-17
503.660	1	-6
503.830	1	12
504.000	1	6
504.170	1	9
504.340	1	-6
504.511	1	0
504.681	1	-1
504.851	1	3
505.021	1	-2
505.192	1	-4
505.362	1	-5
505.532	1	4
505.702	1	17
505.872	1	4
506.043	1	9
506.213	1	9
506.383	1	2
506.553	1	-1
506.723	1	-7
506.893	1	5
507.064	1	9
507.234	1	4
507.404	1	-5
507.574	1	2
507.744	1	8
507.915	1	2
508.085	1	6
508.255	1	10
508.425	1	3
508.595	1	1
508.766	1	-11
508.936	1	8
509.106	1	3
509.276	1	6
509.446	1	3
509.616	1	4
509.787	1	5
509.957	1	2
510.127	1	-2
510.297	1	-8
510.467	1	2
510.638	1	4
510.808	1	20
510.978	1	-2
511.148	1	7
511.318	1	11
511.488	1	8
511.659	1	5
511.829	1	-4
511.999	1	8
512.169	1	6
512.339	1	9
512.509	1	-2
512.680	1	-5
512.850	1	-1
513.020	1	0
513.190	1	-6
513.360	1	6
513.530	1	5
513.700	1	0
513.871	1	8
514.041	1	4
514.211	1	3
514.381	1	6
514.551	1	-3
514.721	1	7
514.892	1	-8
515.062	1	4
515.232	1	-8
515.402	1	-6
515.572	1	4
515.742	1	2
515.912	1	2
516.083	1	0
516.253	1	1
516.423	1	4
516.593	1	13
516.763	1	10
516.933	1	0
517.104	1	6
517.274	1	-4
517.444	1	5
517.614	1	-5
517.784	1	4
517.954	1	1
518.124	1	7
518.294	1	3
518.465	1	1
518.635	1	7
518.805	1	7
518.975	1	3
519.145	1	5
519.315	1	-9
519.485	1	-2
519.656	1	-5
519.826	1	-8
519.996	1	1
520.166	1	-2
520.336	1	7
520.506	1	0
520.676	1	-1
520.846	1	3
521.017	1	1
521.187	1	4
521.357	1	-2
521.527	1	-8
521.697	1	-1
521.867	1	9
522.037	1	2
522.207	1	9
522.377	1	0
522.548	1	-7
522.718	1	1
522.888	1	-4
523.058	1	8
523.228	1	-5
523.398	1	2
523.568	1	-13
523.738	1	-4
523.909	1	-7
524.079	1	0
524.249	1	-10
524.419	1	-4
524.589	1	9
524.759	1	5
524.929	1	5
525.099	1	1
525.269	1	5
525.439	1	2
525.610	1	8
525.780	1	1
525.950	1	4
526.120	1	-8
526.290	1	-1
526.460	1	-2
526.630	1	0
526.800	1	-7
526.970	1	9
527.140	1	-4
527.311	1	0
527.481	1	4
527.651	1	2
527.821	1	-3
527.991	1	-4
528.161	1	7
528.331	1	-11
528.501	1	-5
528.671	1	11
528.841	1	0
529.011	1	10
529.181	1	0
529.352	1	-1
529.522	1	0
529.692	1	9
529.862	1	-1
530.032	1	-1
530.202	1	-1
530.372	1	7
530.542	1	-3
530.712	1	0
530.882	1	3
531.052	1	1
531.222	1	-2
531.392	1	3
531.563	1	12
531.733	1	4
531.903	1	3
532.073	1	9
532.243	1	1
532.413	1	19
532.583	1	-3
532.753	1	-4
532.923	1	-5
533.093	1	-4
533.263	1	-2
533.433	1	0
533.603	1	1
533.773	1	5
533.943	1	0
534.113	1	-1
534.284	1	1
534.454	1	1
534.624	1	-4
534.794	1	-2
534.964	1	-3
535.134	1	0
535.304	1	-5
535.474	1	10
535.644	1	12
535.814	1	3
535.984	1	-4
536.154	1	-3
536.324	1	-4
536.494	1	6
536.664	1	3
536.834	1	-2
537.004	1	7
537.174	1	2
537.344	1	1
537.514	1	-2
537.685	1	15
537.855	1	4
538.025	1	10
538.195	1	-6
538.365	1	3
538.535	1	0
538.705	1	4
538.875	1	-2
539.045	1	2
539.215	1	-4
539.385	1	1
539.555	1	6
539.725	1	7
539.895	1	1
540.065	1	4
540.235	1	-2
540.405	1	-2
540.575	1	2
540.745	1	3
540.915	1	-1
541.085	1	-1
541.255	1	-4
541.425	1	-2
541.595	1	1
541.765	1	3
541.935	1	4
542.105	1	0
542.275	1	10
542.445	1	-1
542.615	1	8
542.785	1	2
542.955	1	7
543.125	1	-3
543.295	1	2
543.465	1	5
543.635	1	-4
543.805	1	7
543.975	1	-1
544.145	1	-3
544.315	1	-5
544.485	1	1
544.655	1	7
544.825	1	-1
544.995	1	-4
545.165	1	3
545.335	1	3
545.505	1	5
545.675	1	4
545.845	1	7
546.015	1	-3
546.185	1	-3
546.355	1	1
546.525	1	2
546.695	1	4
546.865	1	-1
547.035	1	-2
547.205	1	5
547.375	1	14
547.545	1	6
547.715	1	-4
547.885	1	-4
548.055	1	2
548.225	1	7
548.395	1	-1
548.565	1	-2
548.735	1	-8
548.905	1	8
549.075	1	7
549.245	1	0
549.415	1	9
549.585	1	0
549.755	1	4
549.925	1	-2
550.095	1	-6
550.265	1	-5
550.435	1	2
550.605	1	-5
550.775	1	-6
550.945	1	6
551.115	1	12
551.285	1	-5
551.455	1	5
551.625	1	-8
551.795	1	-3
551.965	1	-3
552.135	1	1
552.305	1	4
552.475	1	6
552.645	1	-6
552.815	1	5
552.985	1	-2
553.155	1	1
553.325	1	-6
553.495	1	3
553.665	1	-5
553.835	1	4
554.004	1	2
554.174	1	-1
554.344	1	7
554.514	1	5
554.684	1	6
554.854	1	0
555.024	1	11
555.194	1	6
555.364	1	2
555.534	1	-17
555.704	1	6
555.874	1	-6
556.044	1	2
556.214	1	-7
556.384	1	9
556.554	1	4
556.724	1	2
556.894	1	1
557.064	1	-3
557.234	1	5
557.404	1	-4
557.573	1	8
557.743	1	-9
557.913	1	-9
558.083	1	-4
558.253	1	-1
558.423	1	-6
558.593	1	7
558.763	1	-2
558.933	1	-2
559.103	1	2
559.273	1	7
559.443	1	7
559.613	1	-2
559.783	1	1
559.953	1	-15
560.122	1	3
560.292	1	-14
560.462	1	1
560.632	1	-13
560.802	1	3
560.972	1	-5
561.142	1	-5
561.312	1	2
561.482	1	6
561.652	1	12
561.822	1	-3
561.992	1	5
562.162	1	-2
562.331	1	-15
562.501	1	4
562.671	1	-10
562.841	1	-8
563.011	1	-3
563.181	1	0
563.351	1	-2
563.521	1	2
563.691	1	4
563.861	1	-7
564.031	1	0
564.201	1	9
564.370	1	14
564.540	1	-2
564.710	1	0
564.880	1	5
565.050	1	4
565.220	1	0
565.390	1	-3
565.560	1	2
565.730	1	6
565.900	1	0
566.069	1	12
566.239	1	14
566.409	1	8
566.579	1	6
566.749	1	-6
566.919	1	-11
567.089	1	-10
567.259	1	8
567.429	1	-2
567.599	1	1
567.768	1	-1
567.938	1	7
568.108	1	11
568.278	1	4
568.448	1	-4
568.618	1	0
568.788	1	1
568.958	1	2
569.128	1	3
569.297	1	-8
569.467	1	0
569.637	1	3
569.807	1	4
569.977	1	-5
570.147	1	-1
570.317	1	-5
570.487	1	-5
570.656	1	6
570.826	1	-5
570.996	1	11
571.166	1	10
571.336	1	-7
571.506	1	-7
571.676	1	4
571.846	1	4
572.015	1	-5
572.185	1	-1
572.355	1	3
572.525	1	1
572.695	1	-6
572.865	1	6
573.035	1	6
573.205	1	0
573.374	1	-3
573.544	1	0
573.714	1	-8
573.884	1	-9
574.054	1	-1
574.224	1	12
574.394	1	-2
574.563	1	-4
574.733	1	-1
574.903	1	-2
575.073	1	-3
575.243	1	-7
575.413	1	2
575.583	1	-4
575.752	1	-7
575.922	1	8
576.092	1	-8
576.262	1	3
576.432	1	4
576.602	1	0
576.772	1	3
576.941	1	1
577.111	1	0
577.281	1	-2
577.451	1	5
577.621	1	7
577.791	1	1
577.960	1	-7
578.130	1	-4
578.300	1	-3
578.470	1	4
578.640	1	2
578.810	1	-4
578.979	1	3
579.149	1	3
579.319	1	3
579.489	1	6
579.659	1	-7
579.829	1	-5
579.998	1	-11
580.168	1	-1
580.338	1	8
580.508	1	-4
580.678	1	-3
580.848	1	-5
581.017	1	-4
581.187	1	2
581.357	1	2
581.527	1	-1
581.697	1	5
581.867	1	3
582.036	1	-5
582.206	1	6
582.376	1	3
582.546	1	-4
582.716	1	-4
582.885	1	-2
583.055	1	-6
583.225	1	2
583.395	1	0
583.565	1	6
583.735	1	0
583.904	1	-1
584.074	1	0
584.244	1	-7
584.414	1	-4
584.584	1	-6
584.753	1	2
584.923	1	-8
585.093	1	6
585.263	1	4
585.433	1	-3
585.602	1	-1
585.772	1	13
585.942	1	-4
586.112	1	10
586.282	1	-2
586.451	1	8
586.621	1	-9
586.791	1	-9
586.961	1	-6
587.131	1	-14
587.300	1	4
587.470	1	-4
587.640	1	-12
587.810	1	-12
587.980	1	-1
588.149	1	-4
588.319	1	1
588.489	1	9
588.659	1	-3
588.829	1	-2
588.998	1	-1
589.168	1	2
589.338	1	4
589.508	1	-2
589.677	1	-4
589.847	1	-1
590.017	1	-3
590.187	1	3
590.357	1	0
590.526	1	2
590.696	1	-5
590.866	1	1
591.036	1	6
591.205	1	7
591.375	1	-1
591.545	1	-8
591.715	1	4
591.885	1	6
592.054	1	7
592.224	1	1
592.394	1	-1
592.564	1	-8
592.733	1	7
592.903	1	-7
593.073	1	-7
593.243	1	9
593.412	1	0
593.582	1	4
593.752	1	2
593.922	1	1
594.091	1	6
594.261	1	-15
594.431	1	6
594.601	1	-7
594.771	1	4
594.940	1	-7
595.110	1	4
595.280	1	-3
595.450	1	2
595.619	1	-2
595.789	1	6
595.959	1	1
596.129	1	-3
596.298	1	6
596.468	1	-2
596.638	1	-7
596.808	1	-12
596.977	1	-4
597.147	1	-4
597.317	1	3
597.487	1	5
597.656	1	3
597.826	1	1
597.996	1	-2
598.166	1	0
598.335	1	0
598.505	1	-2
598.675	1	-1
598.844	1	12
599.014	1	-4
599.184	1	-5
599.354	1	11
599.523	1	-1
599.693	1	7
599.863	1	3
600.033	1	9
600.202	1	-1
600.372	1	-7
600.542	1	9
600.712	1	4
600.881	1	-3
601.051	1	8
601.221	1	4
601.390	1	6
601.560	1	13
601.730	1	8
601.900	1	-8
602.069	1	-1
602.239	1	7
602.409	1	2
602.578	1	6
602.748	1	3
602.918	1	-2
603.088	1	5
603.257	1	-9
603.427	1	9
603.597	1	-4
603.767	1	-1
603.936	1	3
604.106	1	1
604.276	1	-3
604.445	1	-3
604.615	1	0
604.785	1	4
604.954	1	-3
605.124	1	-7
605.294	1	3
605.464	1	-6
605.633	1	6
605.803	1	-1
605.973	1	-5
606.142	1	7
606.312	1	16
606.482	1	-5
606.652	1	3
606.821	1	3
606.991	1	8
607.161	1	-2
607.330	1	-8
607.500	1	0
607.670	1	4
607.839	1	7
608.009	1	-2
608.179	1	-4
608.348	1	4
608.518	1	0
608.688	1	4
608.858	1	-6
609.027	1	14
609.197	1	3
609.367	1	-12
609.536	1	-4
609.706	1	6
609.876	1	-3
610.045	1	0
610.215	1	-1
610.385	1	7
610.554	1	-2
610.724	1	1
610.894	1	4
611.063	1	-2
611.233	1	6
611.403	1	0
611.572	1	6
611.742	1	-6
611.912	1	-7
612.081	1	1
612.251	1	2
612.421	1	1
612.590	1	-1
612.760	1	0
612.930	1	8
613.099	1	2
613.269	1	-3
613.439	1	-5
613.608	1	9
613.778	1	-5
613.948	1	8
614.117	1	-1
614.287	1	-4
614.457	1	-4
614.626	1	4
614.796	1	-3
614.966	1	-2
615.135	1	5
615.305	1	5
615.475	1	-8
615.644	1	14
615.814	1	0
615.984	1	-5
616.153	1	-3
616.323	1	2
616.493	1	6
616.662	1	-5
616.832	1	-4
617.002	1	3
617.171	1	13
617.341	1	12
617.511	1	-10
617.680	1	11
617.850	1	3
618.019	1	-7
618.189	1	11
618.359	1	7
618.528	1	2
618.698	1	0
618.868	1	1
619.037	1	0
619.207	1	-2
619.377	1	1
619.546	1	12
619.716	1	0
619.885	1	4
620.055	1	-10
620.225	1	4
620.394	1	9
620.564	1	6
620.734	1	9
620.903	1	-12
621.073	1	5
621.242	1	2
621.412	1	-5
621.582	1	13
621.751	1	1
621.921	1	4
622.091	1	3
622.260	1	3
622.430	1	7
622.599	1	0
622.769	1	2
622.939	1	0
623.108	1	2
623.278	1	-6
623.448	1	-5
623.617	1	7
623.787	1	0
623.956	1	9
624.126	1	1
624.296	1	7
624.465	1	3
624.635	1	1
624.804	1	-7
624.974	1	-5
625.144	1	-5
625.313	1	21
625.483	1	6
625.652	1	-3
625.822	1	-1
625.992	1	1
626.161	1	-1
626.331	1	-7
626.501	1	-1
626.670	1	1
626.840	1	0
627.009	1	1
627.179	1	-3
627.348	1	4
627.518	1	12
627.688	1	-2
627.857	1	3
628.027	1	5
628.196	1	7
628.366	1	-6
628.536	1	-2
628.705	1	-2
628.875	1	2
629.044	1	4
629.214	1	8
629.384	1	11
629.553	1	-5
629.723	1	9
629.892	1	-1
630.062	1	1
630.232	1	6
630.401	1	7
630.571	1	-3
630.740	1	-2
630.910	1	1
631.079	1	4
631.249	1	1
631.419	1	4
631.588	1	0
631.758	1	0
631.927	1	14
632.097	1	-5
632.266	1	4
632.436	1	-12
632.606	1	2
632.775	1	-3
632.945	1	-9
633.114	1	-1
633.284	1	-9
633.453	1	1
633.623	1	10
633.793	1	-2
633.962	1	-1
634.132	1	8
634.301	1	0
634.471	1	3
634.640	1	-4
634.810	1	6
634.979	1	1
635.149	1	-5
635.319	1	-3
635.488	1	3
635.658	1	-7
635.827	1	0
635.997	1	3
636.166	1	9
636.336	1	-7
636.505	1	8
636.675	1	0
636.845	1	1
637.014	1	-4
637.184	1	12
637.353	1	-1
637.523	1	-7
637.692	1	3
637.862	1	-3
638.031	1	-10
638.201	1	9
638.370	1	9
638.540	1	-13
638.710	1	-7
638.879	1	2
639.049	1	7
639.218	1	-2
639.388	1	2
639.557	1	5
639.727	1	6
639.896	1	-6
640.066	1	1
640.235	1	10
640.405	1	7
640.574	1	8
640.744	1	-4
640.914	1	-7
641.083	1	8
641.253	1	4
641.422	1	-4
641.592	1	10
641.761	1	0
641.931	1	7
642.100	1	-9
642.270	1	4
642.439	1	1
642.609	1	-1
642.778	1	6
642.948	1	20
643.117	1	7
643.287	1	1
643.456	1	-3
643.626	1	-5
643.795	1	7
643.965	1	2
644.134	1	-5
644.304	1	-5
644.473	1	-1
644.643	1	5
644.812	1	2
644.982	1	4
645.151	1	-9
645.321	1	2
645.490	1	17
645.660	1	-1
645.829	1	4
645.999	1	-4
646.168	1	17
646.338	1	-5
646.507	1	-4
646.677	1	2
646.846	1	-3
647.016	1	9
647.185	1	2
647.355	1	15
647.524	1	-9
647.694	1	-9
647.863	1	-6
648.033	1	16
648.202	1	2
648.372	1	-9
648.541	1	0
648.711	1	-1
648.880	1	-4
649.050	1	-5
649.219	1	2
649.389	1	-8
649.558	1	5
649.728	1	-1
649.897	1	-3
650.067	1	-4
650.236	1	2
650.406	1	0
650.575	1	-5
650.745	1	-5
650.914	1	6
651.084	1	13
651.253	1	2
651.423	1	-1
651.592	1	8
651.762	1	-3
651.931	1	1
652.101	1	0
652.270	1	3
652.440	1	6
652.609	1	-3
652.778	1	6
652.948	1	3
653.117	1	5
653.287	1	-9
653.456	1	-8
653.626	1	2
653.795	1	-6
653.965	1	3
654.134	1	0
654.304	1	3
654.473	1	-3
654.643	1	1
654.812	1	10
654.982	1	1
655.151	1	11
655.320	1	-3
655.490	1	-9
655.659	1	2
655.829	1	10
655.998	1	3
656.168	1	-7
656.337	1	-1
656.507	1	1
656.676	1	-3
656.846	1	-4
657.015	1	4
657.184	1	1
657.354	1	3
657.523	1	-4
657.693	1	2
657.862	1	-10
658.032	1	-8
658.201	1	-5
658.371	1	2
658.540	1	1
658.709	1	14
658.879	1	-5
659.048	1	13
659.218	1	-4
659.387	1	3
659.557	1	-4
659.726	1	-8
659.895	1	-3
660.065	1	-5
660.234	1	11
660.404	1	4
660.573	1	6
660.743	1	1
660.912	1	3
661.081	1	2
661.251	1	-6
661.420	1	8
661.590	1	-4
661.759	1	7
661.929	1	-2
662.098	1	9
662.267	1	-12
662.437	1	8
662.606	1	-14
662.776	1	13
662.945	1	9
663.115	1	10
663.284	1	1
663.453	1	1
663.623	1	-3
663.792	1	0
663.962	1	4
664.131	1	-3
664.300	1	-7
664.470	1	-6
664.639	1	4
664.809	1	1
664.978	1	11
665.148	1	5
665.317	1	1
665.486	1	1
665.656	1	8
665.825	1	7
665.995	1	-19
666.164	1	-6
666.333	1	3
666.503	1	-2
666.672	1	2
666.842	1	3
667.011	1	6
667.180	1	-2
667.350	1	-2
667.519	1	4
667.689	1	2
667.858	1	4
668.027	1	-1
668.197	1	-6
668.366	1	-2
668.536	1	-2
668.705	1	3
668.874	1	7
669.044	1	8
669.213	1	4
669.382	1	6
669.552	1	4
669.721	1	-5
669.891	1	-3
670.060	1	-1
670.229	1	11
670.399	1	3
670.568	1	7
670.738	1	-1
670.907	1	9
671.076	1	2
671.246	1	-1
671.415	1	3
671.584	1	-1
671.754	1	-8
671.923	1	4
672.093	1	6
672.262	1	4
672.431	1	-1
672.601	1	5
672.770	1	4
672.939	1	9
673.109	1	-10
673.278	1	-8
673.448	1	-6
673.617	1	7
673.786	1	-8
