325.333	1	15
325.504	1	-2
325.675	1	26
325.846	1	4
326.017	1	12
326.188	1	16
326.359	1	12
326.531	1	10
326.702	1	10
326.873	1	14
327.044	1	18
327.215	1	2
327.386	1	5
327.557	1	6
327.728	1	9
327.899	1	1
328.070	1	16
328.241	1	20
328.412	1	14
328.583	1	11
328.754	1	17
328.926	1	15
329.097	1	4
329.268	1	20
329.439	1	25
329.610	1	9
329.781	1	9
329.952	1	9
330.123	1	8
330.294	1	13
330.465	1	3
330.636	1	19
330.807	1	20
330.978	1	0
331.149	1	25
331.320	1	12
331.492	1	13
331.663	1	20
331.834	1	22
332.005	1	6
332.176	1	20
332.347	1	2
332.518	1	21
332.689	1	11
332.860	1	12
333.031	1	19
333.202	1	20
333.373	1	17
333.544	1	13
333.715	1	26
333.886	1	12
334.057	1	3
334.228	1	31
334.399	1	20
334.570	1	18
334.741	1	10
334.912	1	10
335.084	1	29
335.255	1	18
335.426	1	19
335.597	1	23
335.768	1	21
335.939	1	12
336.110	1	23
336.281	1	11
336.452	1	26
336.623	1	22
336.794	1	21
336.965	1	21
337.136	1	32
337.307	1	20
337.478	1	19
337.649	1	18
337.820	1	12
337.991	1	16
338.162	1	19
338.333	1	18
338.504	1	23
338.675	1	14
338.846	1	0
339.017	1	17
339.188	1	18
339.359	1	20
339.530	1	26
339.701	1	23
339.872	1	30
340.043	1	18
340.214	1	25
340.385	1	14
340.556	1	26
340.727	1	25
340.898	1	28
341.069	1	19
341.240	1	9
341.411	1	32
341.582	1	11
341.753	1	19
341.924	1	46
342.095	1	22
342.266	1	29
342.437	1	18
342.608	1	29
342.779	1	27
342.950	1	12
343.121	1	36
343.292	1	39
343.463	1	28
343.634	1	26
343.805	1	27
343.976	1	29
344.147	1	38
344.318	1	23
344.489	1	16
344.660	1	35
344.831	1	47
345.002	1	29
345.173	1	25
345.344	1	20
345.515	1	30
345.686	1	32
345.857	1	37
346.028	1	37
346.199	1	34
346.370	1	31
346.541	1	29
346.712	1	31
346.883	1	21
347.054	1	34
347.225	1	22
347.396	1	33
347.567	1	16
347.738	1	34
347.909	1	23
348.080	1	32
348.251	1	36
348.422	1	31
348.593	1	33
348.764	1	27
348.935	1	41
349.106	1	28
349.277	1	27
349.448	1	34
349.619	1	35
349.790	1	36
349.961	1	28
350.132	1	43
350.303	1	50
350.474	1	35
350.645	1	33
350.816	1	33
350.987	1	42
351.157	1	33
351.328	1	37
351.499	1	34
351.670	1	38
351.841	1	43
352.012	1	38
352.183	1	49
352.354	1	37
352.525	1	34
352.696	1	32
352.867	1	54
353.038	1	31
353.209	1	35
353.380	1	41
353.551	1	37
353.722	1	30
353.893	1	46
354.064	1	39
354.235	1	41
354.406	1	23
354.576	1	31
354.747	1	42
354.918	1	33
355.089	1	48
355.260	1	41
355.431	1	32
355.602	1	43
355.773	1	34
355.944	1	44
356.115	1	45
356.286	1	37
356.457	1	42
356.628	1	44
356.799	1	39
356.970	1	52
357.141	1	42
357.311	1	53
357.482	1	38
357.653	1	46
357.824	1	36
357.995	1	44
358.166	1	45
358.337	1	37
358.508	1	44
358.679	1	35
358.850	1	45
359.021	1	49
359.192	1	58
359.363	1	41
359.533	1	49
359.704	1	31
359.875	1	43
360.046	1	50
360.217	1	45
360.388	1	49
360.559	1	61
360.730	1	40
360.901	1	50
361.072	1	47
361.243	1	37
361.414	1	50
361.584	1	29
361.755	1	37
361.926	1	50
362.097	1	38
362.268	1	42
362.439	1	45
362.610	1	46
362.781	1	33
362.952	1	39
363.123	1	33
363.293	1	47
363.464	1	37
363.635	1	50
363.806	1	40
363.977	1	49
364.148	1	33
364.319	1	40
364.490	1	54
364.661	1	47
364.832	1	49
365.002	1	43
365.173	1	49
365.344	1	30
365.515	1	48
365.686	1	43
365.857	1	53
366.028	1	43
366.199	1	58
366.370	1	48
366.540	1	40
366.711	1	44
366.882	1	57
367.053	1	48
367.224	1	52
367.395	1	45
367.566	1	46
367.737	1	45
367.908	1	44
368.078	1	35
368.249	1	47
368.420	1	44
368.591	1	49
368.762	1	50
368.933	1	50
369.104	1	43
369.274	1	59
369.445	1	49
369.616	1	52
369.787	1	41
369.958	1	53
370.129	1	45
370.300	1	44
370.471	1	48
370.641	1	40
370.812	1	52
370.983	1	40
371.154	1	41
371.325	1	48
371.496	1	48
371.667	1	56
371.837	1	45
372.008	1	46
372.179	1	52
372.350	1	47
372.521	1	46
372.692	1	44
372.863	1	40
373.033	1	52
373.204	1	35
373.375	1	51
373.546	1	45
373.717	1	47
373.888	1	56
374.059	1	48
374.229	1	55
374.400	1	50
374.571	1	42
374.742	1	45
374.913	1	42
375.084	1	42
375.254	1	45
375.425	1	45
375.596	1	60
375.767	1	48
375.938	1	37
376.109	1	49
376.279	1	52
376.450	1	53
376.621	1	46
376.792	1	52
376.963	1	43
377.134	1	49
377.304	1	55
377.475	1	43
377.646	1	49
377.817	1	58
377.988	1	59
378.159	1	54
378.329	1	45
378.500	1	59
378.671	1	49
378.842	1	60
379.013	1	60
379.184	1	52
379.354	1	62
379.525	1	67
379.696	1	50
379.867	1	59
380.038	1	50
380.209	1	54
380.379	1	57
380.550	1	44
380.721	1	51
380.892	1	46
381.063	1	56
381.233	1	46
381.404	1	47
381.575	1	49
381.746	1	56
381.917	1	52
382.087	1	44
382.258	1	66
382.429	1	60
382.600	1	58
382.771	1	50
382.941	1	64
383.112	1	57
383.283	1	49
383.454	1	53
383.625	1	55
383.795	1	66
383.966	1	64
384.137	1	57
384.308	1	58
384.479	1	56
384.649	1	55
384.820	1	60
384.991	1	52
385.162	1	60
385.333	1	63
385.503	1	41
385.674	1	55
385.845	1	60
386.016	1	69
386.187	1	51
386.357	1	70
386.528	1	59
386.699	1	61
386.870	1	69
387.041	1	67
387.211	1	55
387.382	1	78
387.553	1	67
387.724	1	61
387.894	1	60
388.065	1	64
388.236	1	51
388.407	1	63
388.578	1	65
388.748	1	63
388.919	1	62
389.090	1	78
389.261	1	66
389.431	1	45
389.602	1	68
389.773	1	70
389.944	1	62
390.114	1	59
390.285	1	70
390.456	1	61
390.627	1	53
390.798	1	70
390.968	1	58
391.139	1	69
391.310	1	55
391.481	1	77
391.651	1	74
391.822	1	71
391.993	1	53
392.164	1	63
392.334	1	53
392.505	1	70
392.676	1	52
392.847	1	70
393.017	1	56
393.188	1	65
393.359	1	77
393.530	1	77
393.700	1	50
393.871	1	72
394.042	1	57
394.213	1	64
394.383	1	70
394.554	1	57
394.725	1	58
394.896	1	68
395.066	1	61
395.237	1	69
395.408	1	69
395.579	1	69
395.749	1	83
395.920	1	60
396.091	1	79
396.262	1	54
396.432	1	63
396.603	1	73
396.774	1	60
396.945	1	78
397.115	1	68
397.286	1	68
397.457	1	71
397.627	1	76
397.798	1	67
397.969	1	64
398.140	1	66
398.310	1	66
398.481	1	76
398.652	1	66
398.823	1	63
398.993	1	58
399.164	1	74
399.335	1	68
399.505	1	64
399.676	1	68
399.847	1	75
400.018	1	67
400.188	1	73
400.359	1	70
400.530	1	69
400.700	1	71
400.871	1	66
401.042	1	72
401.213	1	70
401.383	1	77
401.554	1	67
401.725	1	59
401.895	1	62
402.066	1	88
402.237	1	58
402.408	1	67
402.578	1	62
402.749	1	69
402.920	1	73
403.090	1	74
403.261	1	71
403.432	1	74
403.603	1	77
403.773	1	72
403.944	1	66
404.115	1	72
404.285	1	71
404.456	1	71
404.627	1	74
404.797	1	73
404.968	1	74
405.139	1	73
405.310	1	70
405.480	1	75
405.651	1	64
405.822	1	71
405.992	1	70
406.163	1	64
406.334	1	77
406.504	1	70
406.675	1	76
406.846	1	70
407.016	1	79
407.187	1	76
407.358	1	67
407.528	1	68
407.699	1	68
407.870	1	78
408.041	1	64
408.211	1	82
408.382	1	79
408.553	1	68
408.723	1	81
408.894	1	74
409.065	1	74
409.235	1	85
409.406	1	71
409.577	1	77
409.747	1	80
409.918	1	68
410.089	1	74
410.259	1	76
410.430	1	77
410.601	1	81
410.771	1	71
410.942	1	81
411.113	1	81
411.283	1	69
411.454	1	85
411.625	1	73
411.795	1	84
411.966	1	70
412.137	1	80
412.307	1	79
412.478	1	80
412.649	1	78
412.819	1	76
412.990	1	75
413.161	1	69
413.331	1	76
413.502	1	66
413.672	1	74
413.843	1	78
414.014	1	67
414.184	1	81
414.355	1	75
414.526	1	83
414.696	1	70
414.867	1	66
415.038	1	66
415.208	1	60
415.379	1	75
415.550	1	66
415.720	1	59
415.891	1	84
416.062	1	71
416.232	1	83
416.403	1	76
416.573	1	72
416.744	1	72
416.915	1	85
417.085	1	72
417.256	1	69
417.427	1	68
417.597	1	64
417.768	1	74
417.939	1	66
418.109	1	74
418.280	1	69
418.450	1	83
418.621	1	71
418.792	1	67
418.962	1	69
419.133	1	69
419.304	1	67
419.474	1	62
419.645	1	72
419.815	1	77
419.986	1	78
420.157	1	70
420.327	1	66
420.498	1	69
420.669	1	79
420.839	1	69
421.010	1	68
421.180	1	71
421.351	1	74
421.522	1	71
421.692	1	84
421.863	1	73
422.033	1	74
422.204	1	71
422.375	1	81
422.545	1	65
422.716	1	66
422.886	1	82
423.057	1	72
423.228	1	80
423.398	1	84
423.569	1	63
423.740	1	73
423.910	1	75
424.081	1	69
424.251	1	70
424.422	1	72
424.593	1	73
424.763	1	73
424.934	1	72
425.104	1	81
425.275	1	66
425.445	1	73
425.616	1	71
425.787	1	68
425.957	1	66
426.128	1	57
426.298	1	70
426.469	1	59
426.640	1	75
426.810	1	59
426.981	1	69
427.151	1	65
427.322	1	74
427.493	1	56
427.663	1	79
427.834	1	66
428.004	1	71
428.175	1	70
428.345	1	60
428.516	1	70
428.687	1	78
428.857	1	70
429.028	1	54
429.198	1	60
429.369	1	62
429.540	1	61
429.710	1	66
429.881	1	56
430.051	1	66
430.222	1	74
430.392	1	73
430.563	1	59
430.734	1	58
430.904	1	71
431.075	1	74
431.245	1	57
431.416	1	74
431.586	1	63
431.757	1	74
431.927	1	69
432.098	1	76
432.269	1	63
432.439	1	62
432.610	1	63
432.780	1	72
432.951	1	64
433.121	1	65
433.292	1	68
433.462	1	56
433.633	1	64
433.804	1	74
433.974	1	66
434.145	1	65
434.315	1	70
434.486	1	66
434.656	1	71
434.827	1	62
434.997	1	78
435.168	1	65
435.339	1	72
435.509	1	67
435.680	1	70
435.850	1	46
436.021	1	58
436.191	1	71
436.362	1	62
436.532	1	72
436.703	1	66
436.873	1	59
437.044	1	74
437.214	1	59
437.385	1	56
437.556	1	69
437.726	1	61
437.897	1	59
438.067	1	61
438.238	1	62
438.408	1	68
438.579	1	57
438.749	1	59
438.920	1	62
439.090	1	50
439.261	1	60
439.431	1	46
439.602	1	68
439.772	1	65
439.943	1	63
440.113	1	69
440.284	1	63
440.455	1	55
440.625	1	65
440.796	1	60
440.966	1	71
441.137	1	56
441.307	1	55
441.478	1	54
441.648	1	55
441.819	1	57
441.989	1	77
442.160	1	63
442.330	1	62
442.501	1	47
442.671	1	49
442.842	1	64
443.012	1	54
443.183	1	56
443.353	1	57
443.524	1	70
443.694	1	56
443.865	1	60
444.035	1	49
444.206	1	61
444.376	1	52
444.547	1	62
444.717	1	63
444.888	1	37
445.058	1	49
445.229	1	51
445.399	1	58
445.570	1	53
445.740	1	65
445.911	1	56
446.081	1	58
446.252	1	45
446.422	1	62
446.593	1	66
446.763	1	64
446.934	1	60
447.104	1	60
447.275	1	64
447.445	1	61
447.616	1	59
447.786	1	56
447.957	1	45
448.127	1	48
448.298	1	63
448.468	1	60
448.639	1	48
448.809	1	49
448.979	1	62
449.150	1	43
449.320	1	60
449.491	1	45
449.661	1	49
449.832	1	48
450.002	1	40
450.173	1	51
450.343	1	57
450.514	1	61
450.684	1	56
450.855	1	53
451.025	1	47
451.196	1	53
451.366	1	63
451.537	1	59
451.707	1	63
451.878	1	46
452.048	1	42
452.218	1	53
452.389	1	60
452.559	1	65
452.730	1	50
452.900	1	47
453.071	1	70
453.241	1	49
453.412	1	60
453.582	1	68
453.753	1	52
453.923	1	43
454.093	1	47
454.264	1	60
454.434	1	52
454.605	1	39
454.775	1	50
454.946	1	53
455.116	1	56
455.287	1	36
455.457	1	46
455.628	1	43
455.798	1	61
455.968	1	60
456.139	1	55
456.309	1	52
456.480	1	49
456.650	1	41
456.821	1	55
456.991	1	52
457.161	1	52
457.332	1	43
457.502	1	50
457.673	1	58
457.843	1	47
458.014	1	43
458.184	1	49
458.355	1	49
458.525	1	45
458.695	1	43
458.866	1	34
459.036	1	39
459.207	1	47
459.377	1	52
459.548	1	47
459.718	1	35
459.888	1	47
460.059	1	45
460.229	1	46
460.400	1	44
460.570	1	35
460.740	1	47
460.911	1	33
461.081	1	60
461.252	1	52
461.422	1	44
461.593	1	58
461.763	1	54
461.933	1	50
462.104	1	40
462.274	1	45
462.445	1	43
462.615	1	55
462.785	1	53
462.956	1	39
463.126	1	48
463.297	1	40
463.467	1	49
463.638	1	50
463.808	1	46
463.978	1	29
464.149	1	47
464.319	1	47
464.490	1	38
464.660	1	35
464.830	1	46
465.001	1	52
465.171	1	38
465.342	1	47
465.512	1	49
465.682	1	41
465.853	1	33
466.023	1	52
466.194	1	53
466.364	1	62
466.534	1	32
466.705	1	50
466.875	1	28
467.045	1	41
467.216	1	45
467.386	1	42
467.557	1	52
467.727	1	42
467.897	1	37
468.068	1	41
468.238	1	43
468.409	1	35
468.579	1	40
468.749	1	36
468.920	1	38
469.090	1	47
469.260	1	46
469.431	1	34
469.601	1	41
469.772	1	45
469.942	1	43
470.112	1	24
470.283	1	49
470.453	1	44
470.623	1	37
470.794	1	38
470.964	1	37
471.135	1	42
471.305	1	35
471.475	1	39
471.646	1	42
471.816	1	43
471.986	1	30
472.157	1	38
472.327	1	40
472.497	1	31
472.668	1	41
472.838	1	35
473.009	1	38
473.179	1	35
473.349	1	35
473.520	1	40
473.690	1	32
473.860	1	32
474.031	1	27
474.201	1	38
474.371	1	40
474.542	1	40
474.712	1	33
474.882	1	37
475.053	1	38
475.223	1	31
475.394	1	36
475.564	1	41
475.734	1	29
475.905	1	39
476.075	1	46
476.245	1	45
476.416	1	30
476.586	1	39
476.756	1	46
476.927	1	40
477.097	1	31
477.267	1	26
477.438	1	53
477.608	1	49
477.778	1	32
477.949	1	28
478.119	1	36
478.289	1	39
478.460	1	33
478.630	1	31
478.800	1	36
478.971	1	35
479.141	1	39
479.311	1	37
479.482	1	35
479.652	1	33
479.822	1	28
479.993	1	31
480.163	1	37
480.333	1	24
480.504	1	31
480.674	1	41
480.844	1	32
481.015	1	41
481.185	1	39
481.355	1	44
481.525	1	25
481.696	1	36
481.866	1	43
482.036	1	33
482.207	1	37
482.377	1	33
482.547	1	33
482.718	1	45
482.888	1	31
483.058	1	36
483.229	1	26
483.399	1	38
483.569	1	25
483.740	1	29
483.910	1	20
484.080	1	37
484.250	1	32
484.421	1	29
484.591	1	39
484.761	1	31
484.932	1	35
485.102	1	38
485.272	1	24
485.443	1	41
485.613	1	34
485.783	1	33
485.953	1	24
486.124	1	29
486.294	1	32
486.464	1	36
486.635	1	26
486.805	1	40
486.975	1	27
487.146	1	33
487.316	1	33
487.486	1	37
487.656	1	34
487.827	1	29
487.997	1	28
488.167	1	32
488.338	1	19
488.508	1	36
488.678	1	27
488.848	1	19
489.019	1	32
489.189	1	33
489.359	1	12
489.529	1	33
489.700	1	35
489.870	1	17
490.040	1	22
490.211	1	20
490.381	1	16
490.551	1	36
490.721	1	31
490.892	1	9
491.062	1	26
491.232	1	34
491.402	1	22
491.573	1	24
491.743	1	25
491.913	1	29
492.084	1	21
492.254	1	30
492.424	1	28
492.594	1	23
492.765	1	39
492.935	1	38
493.105	1	20
493.275	1	26
493.446	1	31
493.616	1	10
493.786	1	33
493.956	1	25
494.127	1	24
494.297	1	28
494.467	1	24
494.637	1	26
494.808	1	30
494.978	1	25
495.148	1	31
495.318	1	31
495.489	1	17
495.659	1	34
495.829	1	19
495.999	1	24
496.170	1	33
496.340	1	21
496.510	1	27
496.680	1	28
496.851	1	35
497.021	1	21
497.191	1	31
497.361	1	13
497.532	1	17
497.702	1	28
497.872	1	23
498.042	1	18
498.213	1	14
498.383	1	17
498.553	1	22
498.723	1	10
498.894	1	22
499.064	1	19
499.234	1	23
499.404	1	28
499.574	1	14
499.745	1	16
499.915	1	29
500.085	1	30
500.255	1	13
500.426	1	23
500.596	1	26
500.766	1	21
500.936	1	21
501.106	1	15
501.277	1	17
501.447	1	33
501.617	1	19
501.787	1	15
501.958	1	28
502.128	1	9
502.298	1	19
502.468	1	20
502.638	1	20
502.809	1	10
502.979	1	14
503.149	1	24
503.319	1	28
503.489	1	7
503.660	1	23
503.830	1	13
504.000	1	15
504.170	1	24
504.340	1	5
504.511	1	12
504.681	1	23
504.851	1	25
505.021	1	18
505.192	1	13
505.362	1	26
505.532	1	18
505.702	1	20
505.872	1	21
506.043	1	18
506.213	1	29
506.383	1	19
506.553	1	17
506.723	1	13
506.893	1	19
507.064	1	19
507.234	1	10
507.404	1	12
507.574	1	12
507.744	1	10
507.915	1	13
508.085	1	21
508.255	1	14
508.425	1	16
508.595	1	14
508.766	1	6
508.936	1	28
509.106	1	26
509.276	1	20
509.446	1	-1
509.616	1	20
509.787	1	13
509.957	1	13
510.127	1	7
510.297	1	9
510.467	1	19
510.638	1	16
510.808	1	25
510.978	1	13
511.148	1	18
511.318	1	16
511.488	1	22
511.659	1	8
511.829	1	13
511.999	1	17
512.169	1	13
512.339	1	21
512.509	1	8
512.680	1	9
512.850	1	7
513.020	1	22
513.190	1	1
513.360	1	21
513.530	1	9
513.700	1	10
513.871	1	-1
514.041	1	19
514.211	1	20
514.381	1	15
514.551	1	5
514.721	1	15
514.892	1	11
515.062	1	22
515.232	1	8
515.402	1	15
515.572	1	17
515.742	1	21
515.912	1	17
516.083	1	23
516.253	1	25
516.423	1	14
516.593	1	16
516.763	1	19
516.933	1	16
517.104	1	20
517.274	1	2
517.444	1	17
517.614	1	11
517.784	1	11
517.954	1	10
518.124	1	25
518.294	1	21
518.465	1	17
518.635	1	23
518.805	1	16
518.975	1	10
519.145	1	9
519.315	1	18
519.485	1	9
519.656	1	18
519.826	1	-2
519.996	1	11
520.166	1	9
520.336	1	5
520.506	1	15
520.676	1	12
520.846	1	14
521.017	1	10
521.187	1	19
521.357	1	6
521.527	1	20
521.697	1	12
521.867	1	20
522.037	1	10
522.207	1	15
522.377	1	9
522.548	1	7
522.718	1	12
522.888	1	11
523.058	1	13
523.228	1	8
523.398	1	8
523.568	1	12
523.738	1	8
523.909	1	9
524.079	1	9
524.249	1	12
524.419	1	11
524.589	1	10
524.759	1	28
524.929	1	12
525.099	1	12
525.269	1	6
525.439	1	9
525.610	1	19
525.780	1	9
525.950	1	20
526.120	1	7
526.290	1	-1
526.460	1	1
526.630	1	14
526.800	1	2
526.970	1	12
527.140	1	3
527.311	1	6
527.481	1	9
527.651	1	19
527.821	1	5
527.991	1	8
528.161	1	14
528.331	1	4
528.501	1	3
528.671	1	6
528.841	1	1
529.011	1	10
529.181	1	14
529.352	1	12
529.522	1	10
529.692	1	18
529.862	1	9
530.032	1	4
530.202	1	3
530.372	1	11
530.542	1	4
530.712	1	8
530.882	1	6
531.052	1	10
531.222	1	13
531.392	1	11
531.563	1	15
531.733	1	11
531.903	1	10
532.073	1	7
532.243	1	13
532.413	1	24
532.583	1	6
532.753	1	2
532.923	1	21
533.093	1	0
533.263	1	1
533.433	1	4
533.603	1	7
533.773	1	19
533.943	1	10
534.113	1	3
534.284	1	8
534.454	1	4
534.624	1	13
534.794	1	8
534.964	1	19
535.134	1	4
535.304	1	11
535.474	1	16
535.644	1	21
535.814	1	10
535.984	1	11
536.154	1	4
536.324	1	4
536.494	1	23
536.664	1	6
536.834	1	10
537.004	1	3
537.174	1	11
537.344	1	17
537.514	1	3
537.685	1	14
537.855	1	18
538.025	1	14
538.195	1	4
538.365	1	4
538.535	1	5
538.705	1	17
538.875	1	7
539.045	1	15
539.215	1	-5
539.385	1	11
539.555	1	5
539.725	1	6
539.895	1	6
540.065	1	19
540.235	1	11
540.405	1	6
540.575	1	14
540.745	1	15
540.915	1	8
541.085	1	3
541.255	1	4
541.425	1	2
541.595	1	6
541.765	1	3
541.935	1	14
542.105	1	9
542.275	1	10
542.445	1	8
542.615	1	22
542.785	1	8
542.955	1	13
543.125	1	0
543.295	1	12
543.465	1	13
543.635	1	-4
543.805	1	12
543.975	1	5
544.145	1	13
544.315	1	-4
544.485	1	-1
544.655	1	17
544.825	1	7
544.995	1	1
545.165	1	7
545.335	1	14
545.505	1	4
545.675	1	14
545.845	1	16
546.015	1	-1
546.185	1	6
546.355	1	-2
546.525	1	13
546.695	1	13
546.865	1	12
547.035	1	6
547.205	1	19
547.375	1	8
547.545	1	13
547.715	1	11
547.885	1	1
548.055	1	9
548.225	1	24
548.395	1	9
548.565	1	10
548.735	1	4
548.905	1	14
549.075	1	4
549.245	1	8
549.415	1	6
549.585	1	5
549.755	1	12
549.925	1	15
550.095	1	3
550.265	1	4
550.435	1	12
550.605	1	18
550.775	1	10
550.945	1	6
551.115	1	10
551.285	1	-1
551.455	1	11
551.625	1	-1
551.795	1	7
551.965	1	-5
552.135	1	6
552.305	1	17
552.475	1	3
552.645	1	9
552.815	1	-2
552.985	1	4
553.155	1	12
553.325	1	6
553.495	1	8
553.665	1	12
553.835	1	13
554.004	1	12
554.174	1	0
554.344	1	10
554.514	1	3
554.684	1	7
554.854	1	1
555.024	1	16
555.194	1	6
555.364	1	11
555.534	1	3
555.704	1	6
555.874	1	14
556.044	1	9
556.214	1	9
556.384	1	17
556.554	1	6
556.724	1	4
556.894	1	-1
557.064	1	3
557.234	1	3
557.404	1	7
557.573	1	6
557.743	1	-1
557.913	1	9
558.083	1	6
558.253	1	13
558.423	1	10
558.593	1	16
558.763	1	4
558.933	1	7
559.103	1	2
559.273	1	14
559.443	1	9
559.613	1	8
559.783	1	11
559.953	1	-1
560.122	1	14
560.292	1	-3
560.462	1	5
560.632	1	1
560.802	1	10
560.972	1	6
561.142	1	6
561.312	1	0
561.482	1	11
561.652	1	3
561.822	1	3
561.992	1	12
562.162	1	4
562.331	1	-6
562.501	1	11
562.671	1	-2
562.841	1	-5
563.011	1	6
563.181	1	14
563.351	1	-9
563.521	1	-3
563.691	1	6
563.861	1	4
564.031	1	-1
564.201	1	12
564.370	1	10
564.540	1	2
564.710	1	8
564.880	1	3
565.050	1	9
565.220	1	9
565.390	1	-1
565.560	1	9
565.730	1	16
565.900	1	10
566.069	1	21
566.239	1	12
566.409	1	11
566.579	1	13
566.749	1	1
566.919	1	-2
567.089	1	-2
567.259	1	5
567.429	1	-6
567.599	1	19
567.768	1	3
567.938	1	14
568.108	1	10
568.278	1	8
568.448	1	9
568.618	1	5
568.788	1	8
568.958	1	10
569.128	1	-1
569.297	1	3
569.467	1	14
569.637	1	15
569.807	1	20
569.977	1	-4
570.147	1	7
570.317	1	0
570.487	1	6
570.656	1	9
570.826	1	3
570.996	1	13
571.166	1	2
571.336	1	-2
571.506	1	-4
571.676	1	13
571.846	1	10
572.015	1	1
572.185	1	5
572.355	1	-6
572.525	1	-1
572.695	1	6
572.865	1	7
573.035	1	5
573.205	1	2
573.374	1	-1
573.544	1	6
573.714	1	-2
573.884	1	-7
574.054	1	5
574.224	1	11
574.394	1	6
574.563	1	-5
574.733	1	9
574.903	1	-2
575.073	1	15
575.243	1	-6
575.413	1	-5
575.583	1	8
575.752	1	-2
575.922	1	8
576.092	1	1
576.262	1	5
576.432	1	7
576.602	1	9
576.772	1	7
576.941	1	-1
577.111	1	3
577.281	1	3
577.451	1	5
577.621	1	9
577.791	1	6
577.960	1	11
578.130	1	3
578.300	1	4
578.470	1	3
578.640	1	9
578.810	1	-1
578.979	1	4
579.149	1	9
579.319	1	1
579.489	1	16
579.659	1	0
579.829	1	0
579.998	1	-9
580.168	1	3
580.338	1	8
580.508	1	5
580.678	1	5
580.848	1	13
581.017	1	5
581.187	1	9
581.357	1	7
581.527	1	0
581.697	1	5
581.867	1	0
582.036	1	6
582.206	1	5
582.376	1	7
582.546	1	1
582.716	1	7
582.885	1	-3
583.055	1	-5
583.225	1	8
583.395	1	6
583.565	1	10
583.735	1	10
583.904	1	8
584.074	1	4
584.244	1	0
584.414	1	12
584.584	1	5
584.753	1	-1
584.923	1	0
585.093	1	8
585.263	1	8
585.433	1	1
585.602	1	10
585.772	1	20
585.942	1	-3
586.112	1	3
586.282	1	8
586.451	1	7
586.621	1	-1
586.791	1	-9
586.961	1	0
587.131	1	0
587.300	1	20
587.470	1	0
587.640	1	4
587.810	1	-6
587.980	1	10
588.149	1	1
588.319	1	10
588.489	1	10
588.659	1	-2
588.829	1	7
588.998	1	-1
589.168	1	1
589.338	1	0
589.508	1	8
589.677	1	7
589.847	1	11
590.017	1	7
590.187	1	3
590.357	1	-3
590.526	1	-1
590.696	1	6
590.866	1	7
591.036	1	4
591.205	1	3
591.375	1	3
591.545	1	-1
591.715	1	7
591.885	1	11
592.054	1	10
592.224	1	-2
592.394	1	-1
592.564	1	-3
592.733	1	-1
592.903	1	5
593.073	1	1
593.243	1	11
593.412	1	-3
593.582	1	11
593.752	1	4
593.922	1	9
594.091	1	11
594.261	1	0
594.431	1	7
594.601	1	-8
594.771	1	-5
594.940	1	1
595.110	1	-3
595.280	1	2
595.450	1	5
595.619	1	4
595.789	1	-3
595.959	1	11
596.129	1	6
596.298	1	12
596.468	1	1
596.638	1	-3
596.808	1	2
596.977	1	-1
597.147	1	0
597.317	1	8
597.487	1	7
597.656	1	5
597.826	1	5
597.996	1	-5
598.166	1	3
598.335	1	3
598.505	1	13
598.675	1	11
598.844	1	21
599.014	1	1
599.184	1	6
599.354	1	18
599.523	1	12
599.693	1	3
599.863	1	7
600.033	1	0
600.202	1	8
600.372	1	-7
600.542	1	4
600.712	1	4
600.881	1	1
601.051	1	12
601.221	1	5
601.390	1	3
601.560	1	17
601.730	1	8
601.900	1	5
602.069	1	0
602.239	1	4
602.409	1	5
602.578	1	19
602.748	1	6
602.918	1	-6
603.088	1	11
603.257	1	1
603.427	1	11
603.597	1	-1
603.767	1	15
603.936	1	7
604.106	1	5
604.276	1	7
604.445	1	-4
604.615	1	13
604.785	1	7
604.954	1	3
605.124	1	7
605.294	1	5
605.464	1	4
605.633	1	2
605.803	1	5
605.973	1	11
606.142	1	14
606.312	1	14
606.482	1	5
606.652	1	2
606.821	1	6
606.991	1	5
607.161	1	3
607.330	1	0
607.500	1	3
607.670	1	14
607.839	1	7
608.009	1	-2
608.179	1	3
608.348	1	18
608.518	1	12
608.688	1	4
608.858	1	-7
609.027	1	12
609.197	1	13
609.367	1	-2
609.536	1	-5
609.706	1	15
609.876	1	13
610.045	1	4
610.215	1	5
610.385	1	2
610.554	1	3
610.724	1	2
610.894	1	10
611.063	1	6
611.233	1	19
611.403	1	10
611.572	1	10
611.742	1	0
611.912	1	5
612.081	1	10
612.251	1	11
612.421	1	3
612.590	1	5
612.760	1	9
612.930	1	14
613.099	1	1
613.269	1	7
613.439	1	1
613.608	1	6
613.778	1	8
613.948	1	10
614.117	1	-5
614.287	1	3
614.457	1	4
614.626	1	18
614.796	1	-1
614.966	1	0
615.135	1	16
615.305	1	7
615.475	1	4
615.644	1	13
615.814	1	13
615.984	1	-3
616.153	1	5
616.323	1	1
616.493	1	5
616.662	1	2
616.832	1	4
617.002	1	4
617.171	1	2
617.341	1	19
617.511	1	-3
617.680	1	2
617.850	1	2
618.019	1	6
618.189	1	16
618.359	1	9
618.528	1	6
618.698	1	0
618.868	1	14
619.037	1	11
619.207	1	3
619.377	1	6
619.546	1	18
619.716	1	0
619.885	1	18
620.055	1	9
620.225	1	7
620.394	1	0
620.564	1	3
620.734	1	0
620.903	1	-4
621.073	1	8
621.242	1	13
621.412	1	4
621.582	1	17
621.751	1	7
621.921	1	4
622.091	1	2
622.260	1	18
622.430	1	4
622.599	1	5
622.769	1	2
622.939	1	3
623.108	1	17
623.278	1	5
623.448	1	15
623.617	1	15
623.787	1	7
623.956	1	9
624.126	1	6
624.296	1	13
624.465	1	14
624.635	1	6
624.804	1	0
624.974	1	6
625.144	1	7
625.313	1	20
625.483	1	11
625.652	1	5
625.822	1	3
625.992	1	4
626.161	1	12
626.331	1	2
626.501	1	14
626.670	1	-1
626.840	1	15
627.009	1	9
627.179	1	3
627.348	1	12
627.518	1	22
627.688	1	3
627.857	1	12
628.027	1	18
628.196	1	3
628.366	1	-5
628.536	1	6
628.705	1	2
628.875	1	4
629.044	1	0
629.214	1	13
629.384	1	17
629.553	1	15
629.723	1	15
629.892	1	8
630.062	1	-1
630.232	1	12
630.401	1	11
630.571	1	2
630.740	1	5
630.910	1	12
631.079	1	6
631.249	1	10
631.419	1	2
631.588	1	12
631.758	1	0
631.927	1	13
632.097	1	8
632.266	1	15
632.436	1	1
632.606	1	7
632.775	1	10
632.945	1	9
633.114	1	-3
633.284	1	18
633.453	1	15
633.623	1	18
633.793	1	5
633.962	1	14
634.132	1	5
634.301	1	14
634.471	1	14
634.640	1	2
634.810	1	9
634.979	1	8
635.149	1	0
635.319	1	5
635.488	1	18
635.658	1	13
635.827	1	12
635.997	1	10
636.166	1	11
636.336	1	4
636.505	1	6
636.675	1	8
636.845	1	17
637.014	1	0
637.184	1	17
637.353	1	11
637.523	1	9
637.692	1	8
637.862	1	3
638.031	1	11
638.201	1	9
638.370	1	16
638.540	1	4
638.710	1	5
638.879	1	1
639.049	1	13
639.218	1	10
639.388	1	7
639.557	1	19
639.727	1	6
639.896	1	10
640.066	1	13
640.235	1	11
640.405	1	10
640.574	1	18
640.744	1	7
640.914	1	2
641.083	1	17
641.253	1	-4
641.422	1	3
641.592	1	22
641.761	1	11
641.931	1	26
642.100	1	9
642.270	1	5
642.439	1	8
642.609	1	16
642.778	1	18
642.948	1	17
643.117	1	13
643.287	1	10
643.456	1	9
643.626	1	12
643.795	1	14
643.965	1	15
644.134	1	8
644.304	1	11
644.473	1	12
644.643	1	17
644.812	1	2
644.982	1	8
645.151	1	4
645.321	1	18
645.490	1	15
645.660	1	-5
645.829	1	13
645.999	1	3
646.168	1	22
646.338	1	-5
646.507	1	6
646.677	1	3
646.846	1	18
647.016	1	23
647.185	1	11
647.355	1	23
647.524	1	-2
647.694	1	-1
647.863	1	2
648.033	1	10
648.202	1	18
648.372	1	-11
648.541	1	13
648.711	1	16
648.880	1	8
649.050	1	13
649.219	1	23
649.389	1	3
649.558	1	20
649.728	1	5
649.897	1	18
650.067	1	3
650.236	1	0
650.406	1	15
650.575	1	7
650.745	1	15
650.914	1	17
651.084	1	14
651.253	1	6
651.423	1	5
651.592	1	6
651.762	1	5
651.931	1	16
652.101	1	1
652.270	1	14
652.440	1	10
652.609	1	13
652.778	1	16
652.948	1	3
653.117	1	12
653.287	1	6
653.456	1	-4
653.626	1	14
653.795	1	13
653.965	1	11
654.134	1	10
654.304	1	16
654.473	1	17
654.643	1	10
654.812	1	24
654.982	1	17
655.151	1	13
655.320	1	0
655.490	1	9
655.659	1	3
655.829	1	13
655.998	1	13
656.168	1	8
656.337	1	10
656.507	1	2
656.676	1	8
656.846	1	14
657.015	1	7
657.184	1	5
657.354	1	12
657.523	1	12
657.693	1	18
657.862	1	5
658.032	1	14
658.201	1	0
658.371	1	13
658.540	1	7
658.709	1	17
658.879	1	19
659.048	1	12
659.218	1	9
659.387	1	8
659.557	1	7
659.726	1	8
659.895	1	11
660.065	1	12
660.234	1	10
660.404	1	15
660.573	1	4
660.743	1	9
660.912	1	6
661.081	1	8
661.251	1	8
661.420	1	18
661.590	1	5
661.759	1	18
661.929	1	11
662.098	1	14
662.267	1	1
662.437	1	13
662.606	1	10
662.776	1	14
662.945	1	21
663.115	1	25
663.284	1	6
663.453	1	11
663.623	1	12
663.792	1	14
663.962	1	17
664.131	1	8
664.300	1	3
664.470	1	9
664.639	1	18
664.809	1	8
664.978	1	24
665.148	1	15
665.317	1	19
665.486	1	7
665.656	1	12
665.825	1	12
665.995	1	-3
666.164	1	11
666.333	1	16
666.503	1	3
666.672	1	13
666.842	1	8
667.011	1	7
667.180	1	7
667.350	1	9
667.519	1	10
667.689	1	16
667.858	1	11
668.027	1	9
668.197	1	0
668.366	1	17
668.536	1	10
668.705	1	7
668.874	1	16
669.044	1	12
669.213	1	9
669.382	1	5
669.552	1	20
669.721	1	7
669.891	1	12
670.060	1	11
670.229	1	14
670.399	1	17
670.568	1	9
670.738	1	7
670.907	1	11
671.076	1	3
671.246	1	24
671.415	1	16
671.584	1	17
671.754	1	14
671.923	1	13
672.093	1	8
672.262	1	3
672.431	1	9
672.601	1	12
672.770	1	8
672.939	1	12
673.109	1	16
673.278	1	20
673.448	1	14
673.617	1	7
673.786	1	3
