325.333	1	23
325.504	1	19
325.675	1	32
325.846	1	25
326.017	1	18
326.188	1	20
326.359	1	28
326.531	1	12
326.702	1	19
326.873	1	30
327.044	1	27
327.215	1	20
327.386	1	15
327.557	1	24
327.728	1	22
327.899	1	28
328.070	1	34
328.241	1	17
328.412	1	23
328.583	1	26
328.754	1	31
328.926	1	28
329.097	1	17
329.268	1	37
329.439	1	34
329.610	1	28
329.781	1	23
329.952	1	37
330.123	1	31
330.294	1	21
330.465	1	19
330.636	1	27
330.807	1	25
330.978	1	23
331.149	1	34
331.320	1	26
331.492	1	36
331.663	1	24
331.834	1	30
332.005	1	26
332.176	1	29
332.347	1	23
332.518	1	42
332.689	1	23
332.860	1	30
333.031	1	38
333.202	1	24
333.373	1	33
333.544	1	27
333.715	1	32
333.886	1	25
334.057	1	23
334.228	1	49
334.399	1	41
334.570	1	35
334.741	1	24
334.912	1	27
335.084	1	40
335.255	1	39
335.426	1	36
335.597	1	28
335.768	1	36
335.939	1	32
336.110	1	35
336.281	1	27
336.452	1	47
336.623	1	41
336.794	1	30
336.965	1	37
337.136	1	38
337.307	1	42
337.478	1	40
337.649	1	33
337.820	1	36
337.991	1	43
338.162	1	31
338.333	1	30
338.504	1	42
338.675	1	31
338.846	1	32
339.017	1	44
339.188	1	37
339.359	1	41
339.530	1	38
339.701	1	44
339.872	1	51
340.043	1	45
340.214	1	41
340.385	1	36
340.556	1	39
340.727	1	43
340.898	1	50
341.069	1	42
341.240	1	38
341.411	1	39
341.582	1	44
341.753	1	46
341.924	1	50
342.095	1	39
342.266	1	51
342.437	1	38
342.608	1	50
342.779	1	51
342.950	1	54
343.121	1	43
343.292	1	54
343.463	1	59
343.634	1	48
343.805	1	52
343.976	1	54
344.147	1	51
344.318	1	33
344.489	1	30
344.660	1	50
344.831	1	63
345.002	1	48
345.173	1	58
345.344	1	58
345.515	1	45
345.686	1	52
345.857	1	53
346.028	1	54
346.199	1	49
346.370	1	54
346.541	1	46
346.712	1	52
346.883	1	43
347.054	1	57
347.225	1	43
347.396	1	49
347.567	1	36
347.738	1	49
347.909	1	63
348.080	1	51
348.251	1	57
348.422	1	61
348.593	1	56
348.764	1	56
348.935	1	54
349.106	1	49
349.277	1	49
349.448	1	56
349.619	1	51
349.790	1	66
349.961	1	66
350.132	1	66
350.303	1	49
350.474	1	62
350.645	1	67
350.816	1	59
350.987	1	72
351.157	1	66
351.328	1	59
351.499	1	78
351.670	1	62
351.841	1	63
352.012	1	69
352.183	1	71
352.354	1	65
352.525	1	66
352.696	1	57
352.867	1	66
353.038	1	63
353.209	1	66
353.380	1	66
353.551	1	68
353.722	1	68
353.893	1	69
354.064	1	70
354.235	1	52
354.406	1	54
354.576	1	57
354.747	1	73
354.918	1	70
355.089	1	74
355.260	1	67
355.431	1	59
355.602	1	71
355.773	1	57
355.944	1	75
356.115	1	73
356.286	1	73
356.457	1	68
356.628	1	65
356.799	1	66
356.970	1	77
357.141	1	90
357.311	1	84
357.482	1	66
357.653	1	69
357.824	1	76
357.995	1	79
358.166	1	65
358.337	1	73
358.508	1	88
358.679	1	69
358.850	1	81
359.021	1	82
359.192	1	88
359.363	1	72
359.533	1	71
359.704	1	75
359.875	1	68
360.046	1	81
360.217	1	73
360.388	1	90
360.559	1	79
360.730	1	78
360.901	1	70
361.072	1	72
361.243	1	78
361.414	1	92
361.584	1	75
361.755	1	82
361.926	1	79
362.097	1	77
362.268	1	88
362.439	1	70
362.610	1	81
362.781	1	72
362.952	1	86
363.123	1	71
363.293	1	75
363.464	1	76
363.635	1	80
363.806	1	86
363.977	1	70
364.148	1	77
364.319	1	77
364.490	1	80
364.661	1	77
364.832	1	77
365.002	1	85
365.173	1	79
365.344	1	76
365.515	1	82
365.686	1	81
365.857	1	77
366.028	1	80
366.199	1	83
366.370	1	89
366.540	1	78
366.711	1	89
366.882	1	88
367.053	1	82
367.224	1	82
367.395	1	100
367.566	1	78
367.737	1	87
367.908	1	81
368.078	1	81
368.249	1	99
368.420	1	83
368.591	1	83
368.762	1	101
368.933	1	81
369.104	1	88
369.274	1	95
369.445	1	83
369.616	1	80
369.787	1	82
369.958	1	82
370.129	1	70
370.300	1	78
370.471	1	85
370.641	1	89
370.812	1	84
370.983	1	80
371.154	1	92
371.325	1	75
371.496	1	83
371.667	1	85
371.837	1	89
372.008	1	80
372.179	1	82
372.350	1	81
372.521	1	89
372.692	1	84
372.863	1	75
373.033	1	88
373.204	1	79
373.375	1	87
373.546	1	75
373.717	1	85
373.888	1	89
374.059	1	77
374.229	1	101
374.400	1	94
374.571	1	78
374.742	1	93
374.913	1	84
375.084	1	84
375.254	1	76
375.425	1	88
375.596	1	90
375.767	1	97
375.938	1	90
376.109	1	90
376.279	1	86
376.450	1	95
376.621	1	98
376.792	1	92
376.963	1	88
377.134	1	93
377.304	1	95
377.475	1	91
377.646	1	91
377.817	1	105
377.988	1	91
378.159	1	102
378.329	1	97
378.500	1	105
378.671	1	97
378.842	1	96
379.013	1	95
379.184	1	98
379.354	1	97
379.525	1	107
379.696	1	108
379.867	1	97
380.038	1	90
380.209	1	102
380.379	1	97
380.550	1	92
380.721	1	90
380.892	1	99
381.063	1	110
381.233	1	106
381.404	1	95
381.575	1	102
381.746	1	104
381.917	1	94
382.087	1	102
382.258	1	100
382.429	1	109
382.600	1	97
382.771	1	95
382.941	1	106
383.112	1	103
383.283	1	103
383.454	1	96
383.625	1	103
383.795	1	111
383.966	1	99
384.137	1	113
384.308	1	101
384.479	1	106
384.649	1	100
384.820	1	99
384.991	1	103
385.162	1	110
385.333	1	106
385.503	1	110
385.674	1	109
385.845	1	117
386.016	1	133
386.187	1	103
386.357	1	114
386.528	1	113
386.699	1	101
386.870	1	107
387.041	1	115
387.211	1	117
387.382	1	133
387.553	1	114
387.724	1	100
387.894	1	109
388.065	1	108
388.236	1	111
388.407	1	104
388.578	1	121
388.748	1	118
388.919	1	126
389.090	1	130
389.261	1	122
389.431	1	100
389.602	1	113
389.773	1	115
389.944	1	111
390.114	1	113
390.285	1	120
390.456	1	105
390.627	1	111
390.798	1	103
390.968	1	110
391.139	1	114
391.310	1	114
391.481	1	119
391.651	1	114
391.822	1	128
391.993	1	114
392.164	1	111
392.334	1	120
392.505	1	115
392.676	1	106
392.847	1	116
393.017	1	106
393.188	1	110
393.359	1	117
393.530	1	123
393.700	1	115
393.871	1	123
394.042	1	119
394.213	1	117
394.383	1	117
394.554	1	118
394.725	1	102
394.896	1	126
395.066	1	99
395.237	1	136
395.408	1	120
395.579	1	129
395.749	1	120
395.920	1	127
396.091	1	124
396.262	1	127
396.432	1	116
396.603	1	121
396.774	1	117
396.945	1	120
397.115	1	134
397.286	1	134
397.457	1	126
397.627	1	124
397.798	1	129
397.969	1	126
398.140	1	116
398.310	1	130
398.481	1	127
398.652	1	127
398.823	1	130
398.993	1	137
399.164	1	126
399.335	1	118
399.505	1	115
399.676	1	135
399.847	1	134
400.018	1	118
400.188	1	133
400.359	1	129
400.530	1	118
400.700	1	123
400.871	1	126
401.042	1	127
401.213	1	128
401.383	1	133
401.554	1	138
401.725	1	118
401.895	1	120
402.066	1	114
402.237	1	127
402.408	1	110
402.578	1	132
402.749	1	112
402.920	1	126
403.090	1	124
403.261	1	125
403.432	1	126
403.603	1	122
403.773	1	139
403.944	1	146
404.115	1	121
404.285	1	114
404.456	1	136
404.627	1	131
404.797	1	126
404.968	1	132
405.139	1	124
405.310	1	125
405.480	1	132
405.651	1	133
405.822	1	123
405.992	1	134
406.163	1	118
406.334	1	136
406.504	1	127
406.675	1	135
406.846	1	130
407.016	1	144
407.187	1	128
407.358	1	124
407.528	1	135
407.699	1	135
407.870	1	138
408.041	1	126
408.211	1	134
408.382	1	136
408.553	1	146
408.723	1	141
408.894	1	136
409.065	1	134
409.235	1	133
409.406	1	130
409.577	1	139
409.747	1	133
409.918	1	140
410.089	1	142
410.259	1	132
410.430	1	136
410.601	1	137
410.771	1	149
410.942	1	140
411.113	1	136
411.283	1	131
411.454	1	137
411.625	1	132
411.795	1	126
411.966	1	145
412.137	1	136
412.307	1	130
412.478	1	130
412.649	1	139
412.819	1	139
412.990	1	134
413.161	1	124
413.331	1	124
413.502	1	128
413.672	1	129
413.843	1	142
414.014	1	114
414.184	1	125
414.355	1	125
414.526	1	128
414.696	1	132
414.867	1	122
415.038	1	129
415.208	1	129
415.379	1	116
415.550	1	131
415.720	1	123
415.891	1	128
416.062	1	142
416.232	1	126
416.403	1	131
416.573	1	129
416.744	1	132
416.915	1	128
417.085	1	133
417.256	1	129
417.427	1	129
417.597	1	128
417.768	1	147
417.939	1	122
418.109	1	134
418.280	1	125
418.450	1	152
418.621	1	127
418.792	1	120
418.962	1	132
419.133	1	134
419.304	1	131
419.474	1	140
419.645	1	132
419.815	1	118
419.986	1	134
420.157	1	125
420.327	1	116
420.498	1	133
420.669	1	140
420.839	1	131
421.010	1	127
421.180	1	125
421.351	1	132
421.522	1	133
421.692	1	124
421.863	1	132
422.033	1	137
422.204	1	137
422.375	1	123
422.545	1	124
422.716	1	116
422.886	1	140
423.057	1	129
423.228	1	122
423.398	1	129
423.569	1	127
423.740	1	115
423.910	1	127
424.081	1	117
424.251	1	111
424.422	1	119
424.593	1	115
424.763	1	122
424.934	1	126
425.104	1	128
425.275	1	112
425.445	1	124
425.616	1	119
425.787	1	122
425.957	1	118
426.128	1	121
426.298	1	119
426.469	1	110
426.640	1	124
426.810	1	108
426.981	1	128
427.151	1	107
427.322	1	126
427.493	1	112
427.663	1	123
427.834	1	127
428.004	1	117
428.175	1	108
428.345	1	106
428.516	1	116
428.687	1	129
428.857	1	125
429.028	1	105
429.198	1	109
429.369	1	115
429.540	1	113
429.710	1	120
429.881	1	109
430.051	1	118
430.222	1	133
430.392	1	118
430.563	1	120
430.734	1	118
430.904	1	115
431.075	1	116
431.245	1	116
431.416	1	108
431.586	1	122
431.757	1	131
431.927	1	120
432.098	1	131
432.269	1	117
432.439	1	122
432.610	1	129
432.780	1	126
432.951	1	110
433.121	1	111
433.292	1	113
433.462	1	118
433.633	1	121
433.804	1	126
433.974	1	117
434.145	1	119
434.315	1	111
434.486	1	110
434.656	1	118
434.827	1	112
434.997	1	125
435.168	1	116
435.339	1	127
435.509	1	119
435.680	1	118
435.850	1	104
436.021	1	114
436.191	1	105
436.362	1	118
436.532	1	124
436.703	1	123
436.873	1	112
437.044	1	107
437.214	1	103
437.385	1	106
437.556	1	112
437.726	1	101
437.897	1	100
438.067	1	116
438.238	1	110
438.408	1	115
438.579	1	99
438.749	1	109
438.920	1	116
439.090	1	105
439.261	1	96
439.431	1	96
439.602	1	103
439.772	1	105
439.943	1	101
440.113	1	96
440.284	1	109
440.455	1	108
440.625	1	107
440.796	1	99
440.966	1	110
441.137	1	106
441.307	1	108
441.478	1	99
441.648	1	105
441.819	1	103
441.989	1	115
442.160	1	114
442.330	1	105
442.501	1	97
442.671	1	95
442.842	1	97
443.012	1	95
443.183	1	112
443.353	1	108
443.524	1	100
443.694	1	102
443.865	1	114
444.035	1	111
444.206	1	106
444.376	1	99
444.547	1	114
444.717	1	109
444.888	1	96
445.058	1	92
445.229	1	97
445.399	1	111
445.570	1	100
445.740	1	104
445.911	1	101
446.081	1	99
446.252	1	99
446.422	1	97
446.593	1	108
446.763	1	104
446.934	1	94
447.104	1	98
447.275	1	99
447.445	1	104
447.616	1	95
447.786	1	104
447.957	1	98
448.127	1	99
448.298	1	105
448.468	1	101
448.639	1	90
448.809	1	95
448.979	1	109
449.150	1	87
449.320	1	96
449.491	1	89
449.661	1	92
449.832	1	81
450.002	1	91
450.173	1	90
450.343	1	106
450.514	1	104
450.684	1	95
450.855	1	92
451.025	1	97
451.196	1	86
451.366	1	103
451.537	1	93
451.707	1	98
451.878	1	90
452.048	1	81
452.218	1	90
452.389	1	79
452.559	1	108
452.730	1	97
452.900	1	78
453.071	1	89
453.241	1	72
453.412	1	79
453.582	1	87
453.753	1	84
453.923	1	83
454.093	1	79
454.264	1	101
454.434	1	94
454.605	1	86
454.775	1	87
454.946	1	84
455.116	1	94
455.287	1	74
455.457	1	75
455.628	1	79
455.798	1	85
455.968	1	84
456.139	1	88
456.309	1	86
456.480	1	94
456.650	1	86
456.821	1	85
456.991	1	90
457.161	1	86
457.332	1	90
457.502	1	71
457.673	1	79
457.843	1	81
458.014	1	85
458.184	1	92
458.355	1	89
458.525	1	89
458.695	1	94
458.866	1	71
459.036	1	87
459.207	1	85
459.377	1	79
459.548	1	85
459.718	1	78
459.888	1	67
460.059	1	88
460.229	1	85
460.400	1	76
460.570	1	81
460.740	1	83
460.911	1	68
461.081	1	88
461.252	1	83
461.422	1	82
461.593	1	83
461.763	1	83
461.933	1	75
462.104	1	66
462.274	1	71
462.445	1	88
462.615	1	83
462.785	1	80
462.956	1	81
463.126	1	87
463.297	1	68
463.467	1	93
463.638	1	73
463.808	1	80
463.978	1	65
464.149	1	72
464.319	1	75
464.490	1	65
464.660	1	77
464.830	1	77
465.001	1	75
465.171	1	65
465.342	1	63
465.512	1	77
465.682	1	67
465.853	1	68
466.023	1	74
466.194	1	73
466.364	1	75
466.534	1	62
466.705	1	75
466.875	1	60
467.045	1	67
467.216	1	68
467.386	1	62
467.557	1	74
467.727	1	62
467.897	1	65
468.068	1	69
468.238	1	72
468.409	1	64
468.579	1	74
468.749	1	73
468.920	1	59
469.090	1	69
469.260	1	72
469.431	1	63
469.601	1	73
469.772	1	73
469.942	1	78
470.112	1	64
470.283	1	73
470.453	1	67
470.623	1	61
470.794	1	67
470.964	1	58
471.135	1	78
471.305	1	63
471.475	1	68
471.646	1	68
471.816	1	67
471.986	1	60
472.157	1	61
472.327	1	71
472.497	1	59
472.668	1	71
472.838	1	62
473.009	1	60
473.179	1	65
473.349	1	58
473.520	1	76
473.690	1	65
473.860	1	54
474.031	1	52
474.201	1	64
474.371	1	65
474.542	1	64
474.712	1	61
474.882	1	62
475.053	1	67
475.223	1	65
475.394	1	55
475.564	1	52
475.734	1	52
475.905	1	72
476.075	1	77
476.245	1	69
476.416	1	60
476.586	1	61
476.756	1	69
476.927	1	63
477.097	1	58
477.267	1	59
477.438	1	71
477.608	1	72
477.778	1	53
477.949	1	51
478.119	1	70
478.289	1	59
478.460	1	54
478.630	1	67
478.800	1	56
478.971	1	57
479.141	1	62
479.311	1	62
479.482	1	65
479.652	1	57
479.822	1	53
479.993	1	56
480.163	1	60
480.333	1	51
480.504	1	62
480.674	1	68
480.844	1	58
481.015	1	65
481.185	1	63
481.355	1	62
481.525	1	45
481.696	1	60
481.866	1	73
482.036	1	54
482.207	1	63
482.377	1	51
482.547	1	54
482.718	1	56
482.888	1	64
483.058	1	58
483.229	1	52
483.399	1	65
483.569	1	46
483.740	1	59
483.910	1	45
484.080	1	44
484.250	1	50
484.421	1	45
484.591	1	46
484.761	1	54
484.932	1	51
485.102	1	60
485.272	1	49
485.443	1	57
485.613	1	41
485.783	1	51
485.953	1	44
486.124	1	53
486.294	1	48
486.464	1	52
486.635	1	48
486.805	1	57
486.975	1	51
487.146	1	49
487.316	1	50
487.486	1	54
487.656	1	54
487.827	1	43
487.997	1	42
488.167	1	48
488.338	1	44
488.508	1	52
488.678	1	43
488.848	1	57
489.019	1	46
489.189	1	59
489.359	1	39
489.529	1	45
489.700	1	47
489.870	1	52
490.040	1	45
490.211	1	43
490.381	1	45
490.551	1	52
490.721	1	62
490.892	1	49
491.062	1	40
491.232	1	53
491.402	1	43
491.573	1	50
491.743	1	50
491.913	1	45
492.084	1	44
492.254	1	49
492.424	1	44
492.594	1	45
492.765	1	56
492.935	1	52
493.105	1	46
493.275	1	50
493.446	1	35
493.616	1	34
493.786	1	46
493.956	1	39
494.127	1	46
494.297	1	31
494.467	1	44
494.637	1	35
494.808	1	54
494.978	1	42
495.148	1	44
495.318	1	41
495.489	1	36
495.659	1	40
495.829	1	47
495.999	1	50
496.170	1	40
496.340	1	43
496.510	1	50
496.680	1	38
496.851	1	52
497.021	1	34
497.191	1	40
497.361	1	26
497.532	1	43
497.702	1	41
497.872	1	43
498.042	1	39
498.213	1	35
498.383	1	42
498.553	1	40
498.723	1	43
498.894	1	42
499.064	1	37
499.234	1	42
499.404	1	52
499.574	1	37
499.745	1	41
499.915	1	58
500.085	1	34
500.255	1	35
500.426	1	36
500.596	1	28
500.766	1	37
500.936	1	33
501.106	1	29
501.277	1	31
501.447	1	41
501.617	1	38
501.787	1	25
501.958	1	40
502.128	1	42
502.298	1	44
502.468	1	27
502.638	1	34
502.809	1	34
502.979	1	31
503.149	1	38
503.319	1	43
503.489	1	21
503.660	1	30
503.830	1	45
504.000	1	32
504.170	1	29
504.340	1	32
504.511	1	35
504.681	1	29
504.851	1	33
505.021	1	40
505.192	1	31
505.362	1	34
505.532	1	36
505.702	1	49
505.872	1	31
506.043	1	43
506.213	1	35
506.383	1	32
506.553	1	30
506.723	1	30
506.893	1	38
507.064	1	48
507.234	1	37
507.404	1	31
507.574	1	38
507.744	1	34
507.915	1	41
508.085	1	40
508.255	1	34
508.425	1	29
508.595	1	28
508.766	1	30
508.936	1	41
509.106	1	37
509.276	1	43
509.446	1	30
509.616	1	38
509.787	1	30
509.957	1	36
510.127	1	11
510.297	1	27
510.467	1	34
510.638	1	32
510.808	1	38
510.978	1	32
511.148	1	29
511.318	1	28
511.488	1	37
511.659	1	38
511.829	1	29
511.999	1	24
512.169	1	28
512.339	1	43
512.509	1	13
512.680	1	38
512.850	1	33
513.020	1	23
513.190	1	23
513.360	1	35
513.530	1	24
513.700	1	26
513.871	1	22
514.041	1	40
514.211	1	32
514.381	1	33
514.551	1	23
514.721	1	35
514.892	1	31
515.062	1	30
515.232	1	26
515.402	1	33
515.572	1	37
515.742	1	37
515.912	1	33
516.083	1	36
516.253	1	36
516.423	1	31
516.593	1	24
516.763	1	31
516.933	1	28
517.104	1	37
517.274	1	25
517.444	1	24
517.614	1	25
517.784	1	32
517.954	1	32
518.124	1	32
518.294	1	30
518.465	1	30
518.635	1	36
518.805	1	28
518.975	1	34
519.145	1	27
519.315	1	24
519.485	1	21
519.656	1	26
519.826	1	23
519.996	1	33
520.166	1	25
520.336	1	31
520.506	1	19
520.676	1	31
520.846	1	23
521.017	1	22
521.187	1	25
521.357	1	15
521.527	1	27
521.697	1	10
521.867	1	24
522.037	1	30
522.207	1	27
522.377	1	25
522.548	1	20
522.718	1	24
522.888	1	23
523.058	1	21
523.228	1	26
523.398	1	4
523.568	1	11
523.738	1	24
523.909	1	24
524.079	1	13
524.249	1	17
524.419	1	28
524.589	1	16
524.759	1	23
524.929	1	24
525.099	1	17
525.269	1	23
525.439	1	30
525.610	1	35
525.780	1	22
525.950	1	24
526.120	1	19
526.290	1	18
526.460	1	13
526.630	1	30
526.800	1	16
526.970	1	33
527.140	1	22
527.311	1	24
527.481	1	26
527.651	1	19
527.821	1	24
527.991	1	19
528.161	1	25
528.331	1	17
528.501	1	14
528.671	1	19
528.841	1	14
529.011	1	24
529.181	1	24
529.352	1	16
529.522	1	13
529.692	1	33
529.862	1	10
530.032	1	8
530.202	1	8
530.372	1	23
530.542	1	13
530.712	1	17
530.882	1	26
531.052	1	16
531.222	1	35
531.392	1	18
531.563	1	18
531.733	1	27
531.903	1	16
532.073	1	21
532.243	1	38
532.413	1	38
532.583	1	16
532.753	1	22
532.923	1	29
533.093	1	7
533.263	1	19
533.433	1	16
533.603	1	20
533.773	1	18
533.943	1	16
534.113	1	24
534.284	1	23
534.454	1	14
534.624	1	13
534.794	1	17
534.964	1	28
535.134	1	15
535.304	1	14
535.474	1	26
535.644	1	21
535.814	1	15
535.984	1	8
536.154	1	24
536.324	1	19
536.494	1	18
536.664	1	22
536.834	1	12
537.004	1	16
537.174	1	20
537.344	1	14
537.514	1	15
537.685	1	29
537.855	1	17
538.025	1	25
538.195	1	10
538.365	1	19
538.535	1	13
538.705	1	9
538.875	1	24
539.045	1	23
539.215	1	6
539.385	1	18
539.555	1	12
539.725	1	15
539.895	1	19
540.065	1	13
540.235	1	16
540.405	1	21
540.575	1	12
540.745	1	21
540.915	1	21
541.085	1	11
541.255	1	14
541.425	1	16
541.595	1	12
541.765	1	20
541.935	1	25
542.105	1	10
542.275	1	7
542.445	1	13
542.615	1	19
542.785	1	14
542.955	1	32
543.125	1	21
543.295	1	20
543.465	1	11
543.635	1	5
543.805	1	23
543.975	1	12
544.145	1	11
544.315	1	3
544.485	1	14
544.655	1	22
544.825	1	15
544.995	1	7
545.165	1	5
545.335	1	18
545.505	1	10
545.675	1	20
545.845	1	14
546.015	1	8
546.185	1	6
546.355	1	10
546.525	1	28
546.695	1	9
546.865	1	16
547.035	1	17
547.205	1	20
547.375	1	19
547.545	1	18
547.715	1	20
547.885	1	13
548.055	1	10
548.225	1	21
548.395	1	20
548.565	1	27
548.735	1	5
548.905	1	20
549.075	1	12
549.245	1	22
549.415	1	19
549.585	1	6
549.755	1	13
549.925	1	17
550.095	1	1
550.265	1	14
550.435	1	9
550.605	1	11
550.775	1	7
550.945	1	17
551.115	1	25
551.285	1	13
551.455	1	25
551.625	1	10
551.795	1	6
551.965	1	5
552.135	1	16
552.305	1	19
552.475	1	14
552.645	1	11
552.815	1	7
552.985	1	1
553.155	1	0
553.325	1	25
553.495	1	8
553.665	1	16
553.835	1	19
554.004	1	15
554.174	1	3
554.344	1	17
554.514	1	9
554.684	1	13
554.854	1	6
555.024	1	29
555.194	1	15
555.364	1	13
555.534	1	-3
555.704	1	18
555.874	1	5
556.044	1	9
556.214	1	9
556.384	1	16
556.554	1	12
556.724	1	14
556.894	1	6
557.064	1	13
557.234	1	11
557.404	1	17
557.573	1	19
557.743	1	4
557.913	1	8
558.083	1	7
558.253	1	16
558.423	1	4
558.593	1	18
558.763	1	-1
558.933	1	14
559.103	1	7
559.273	1	14
559.443	1	19
559.613	1	15
559.783	1	8
559.953	1	-7
560.122	1	11
560.292	1	7
560.462	1	1
560.632	1	-2
560.802	1	10
560.972	1	-7
561.142	1	12
561.312	1	7
561.482	1	23
561.652	1	10
561.822	1	2
561.992	1	10
562.162	1	11
562.331	1	3
562.501	1	7
562.671	1	7
562.841	1	-2
563.011	1	7
563.181	1	8
563.351	1	5
563.521	1	10
563.691	1	16
563.861	1	13
564.031	1	10
564.201	1	11
564.370	1	24
564.540	1	6
564.710	1	8
564.880	1	7
565.050	1	16
565.220	1	15
565.390	1	12
565.560	1	13
565.730	1	8
565.900	1	11
566.069	1	30
566.239	1	19
566.409	1	11
566.579	1	12
566.749	1	10
566.919	1	1
567.089	1	1
567.259	1	8
567.429	1	10
567.599	1	17
567.768	1	2
567.938	1	19
568.108	1	14
568.278	1	10
568.448	1	5
568.618	1	19
568.788	1	8
568.958	1	9
569.128	1	10
569.297	1	0
569.467	1	6
569.637	1	8
569.807	1	15
569.977	1	4
570.147	1	7
570.317	1	6
570.487	1	7
570.656	1	20
570.826	1	9
570.996	1	22
571.166	1	5
571.336	1	8
571.506	1	1
571.676	1	17
571.846	1	21
572.015	1	10
572.185	1	8
572.355	1	3
572.525	1	18
572.695	1	14
572.865	1	16
573.035	1	22
573.205	1	9
573.374	1	-2
573.544	1	17
573.714	1	2
573.884	1	2
574.054	1	9
574.224	1	11
574.394	1	5
574.563	1	-4
574.733	1	12
574.903	1	7
575.073	1	3
575.243	1	10
575.413	1	3
575.583	1	8
575.752	1	9
575.922	1	23
576.092	1	9
576.262	1	13
576.432	1	3
576.602	1	15
576.772	1	15
576.941	1	13
577.111	1	11
577.281	1	2
577.451	1	9
577.621	1	11
577.791	1	18
577.960	1	4
578.130	1	6
578.300	1	14
578.470	1	12
578.640	1	8
578.810	1	5
578.979	1	10
579.149	1	15
579.319	1	11
579.489	1	17
579.659	1	5
579.829	1	8
579.998	1	-2
580.168	1	10
580.338	1	13
580.508	1	3
580.678	1	14
580.848	1	8
581.017	1	-2
581.187	1	10
581.357	1	10
581.527	1	8
581.697	1	8
581.867	1	10
582.036	1	3
582.206	1	18
582.376	1	8
582.546	1	0
582.716	1	18
582.885	1	-1
583.055	1	4
583.225	1	11
583.395	1	17
583.565	1	9
583.735	1	12
583.904	1	10
584.074	1	7
584.244	1	2
584.414	1	5
584.584	1	6
584.753	1	7
584.923	1	-2
585.093	1	12
585.263	1	9
585.433	1	7
585.602	1	6
585.772	1	24
585.942	1	4
586.112	1	7
586.282	1	24
586.451	1	18
586.621	1	10
586.791	1	-3
586.961	1	4
587.131	1	8
587.300	1	18
587.470	1	6
587.640	1	0
587.810	1	-10
587.980	1	16
588.149	1	2
588.319	1	20
588.489	1	14
588.659	1	9
588.829	1	9
588.998	1	10
589.168	1	8
589.338	1	3
589.508	1	12
589.677	1	10
589.847	1	16
590.017	1	4
590.187	1	6
590.357	1	0
590.526	1	-2
590.696	1	3
590.866	1	4
591.036	1	16
591.205	1	17
591.375	1	5
591.545	1	6
591.715	1	4
591.885	1	15
592.054	1	13
592.224	1	6
592.394	1	3
592.564	1	9
592.733	1	11
592.903	1	10
593.073	1	6
593.243	1	19
593.412	1	4
593.582	1	4
593.752	1	1
593.922	1	10
594.091	1	1
594.261	1	0
594.431	1	8
594.601	1	12
594.771	1	11
594.940	1	6
595.110	1	17
595.280	1	16
595.450	1	10
595.619	1	6
595.789	1	-3
595.959	1	11
596.129	1	8
596.298	1	16
596.468	1	4
596.638	1	8
596.808	1	-1
596.977	1	3
597.147	1	12
597.317	1	14
597.487	1	11
597.656	1	9
597.826	1	10
597.996	1	12
598.166	1	12
598.335	1	-1
598.505	1	10
598.675	1	12
598.844	1	13
599.014	1	-9
599.184	1	17
599.354	1	17
599.523	1	5
599.693	1	11
599.863	1	12
600.033	1	19
600.202	1	8
600.372	1	4
600.542	1	8
600.712	1	16
600.881	1	4
601.051	1	8
601.221	1	16
601.390	1	17
601.560	1	8
601.730	1	12
601.900	1	18
602.069	1	15
602.239	1	10
602.409	1	5
602.578	1	16
602.748	1	15
602.918	1	8
603.088	1	6
603.257	1	0
603.427	1	15
603.597	1	17
603.767	1	9
603.936	1	13
604.106	1	9
604.276	1	9
604.445	1	9
604.615	1	13
604.785	1	22
604.954	1	8
605.124	1	16
605.294	1	6
605.464	1	6
605.633	1	11
605.803	1	15
605.973	1	7
606.142	1	15
606.312	1	11
606.482	1	-3
606.652	1	6
606.821	1	11
606.991	1	10
607.161	1	14
607.330	1	-1
607.500	1	15
607.670	1	7
607.839	1	10
608.009	1	1
608.179	1	10
608.348	1	9
608.518	1	20
608.688	1	12
608.858	1	12
609.027	1	20
609.197	1	9
609.367	1	-1
609.536	1	11
609.706	1	17
609.876	1	12
610.045	1	18
610.215	1	4
610.385	1	12
610.554	1	16
610.724	1	9
610.894	1	17
611.063	1	10
611.233	1	7
611.403	1	21
611.572	1	14
611.742	1	3
611.912	1	18
612.081	1	18
612.251	1	9
612.421	1	17
612.590	1	8
612.760	1	10
612.930	1	18
613.099	1	8
613.269	1	5
613.439	1	-1
613.608	1	14
613.778	1	10
613.948	1	30
614.117	1	14
614.287	1	0
614.457	1	5
614.626	1	15
614.796	1	9
614.966	1	12
615.135	1	23
615.305	1	11
615.475	1	14
615.644	1	19
615.814	1	19
615.984	1	-1
616.153	1	11
616.323	1	7
616.493	1	13
616.662	1	-2
616.832	1	11
617.002	1	13
617.171	1	12
617.341	1	22
617.511	1	12
617.680	1	13
617.850	1	12
618.019	1	11
618.189	1	23
618.359	1	11
618.528	1	14
618.698	1	14
618.868	1	17
619.037	1	16
619.207	1	-4
619.377	1	12
619.546	1	13
619.716	1	14
619.885	1	10
620.055	1	-7
620.225	1	22
620.394	1	15
620.564	1	13
620.734	1	8
620.903	1	6
621.073	1	20
621.242	1	18
621.412	1	3
621.582	1	19
621.751	1	5
621.921	1	9
622.091	1	13
622.260	1	16
622.430	1	7
622.599	1	7
622.769	1	13
622.939	1	15
623.108	1	16
623.278	1	6
623.448	1	9
623.617	1	17
623.787	1	17
623.956	1	22
624.126	1	12
624.296	1	12
624.465	1	18
624.635	1	10
624.804	1	9
624.974	1	0
625.144	1	11
625.313	1	24
625.483	1	17
625.652	1	8
625.822	1	19
625.992	1	10
626.161	1	11
626.331	1	14
626.501	1	15
626.670	1	12
626.840	1	8
627.009	1	8
627.179	1	16
627.348	1	9
627.518	1	22
627.688	1	5
627.857	1	20
628.027	1	17
628.196	1	16
628.366	1	4
628.536	1	5
628.705	1	17
628.875	1	16
629.044	1	-2
629.214	1	10
629.384	1	20
629.553	1	6
629.723	1	13
629.892	1	12
630.062	1	20
630.232	1	21
630.401	1	15
630.571	1	10
630.740	1	15
630.910	1	18
631.079	1	8
631.249	1	12
631.419	1	20
631.588	1	17
631.758	1	7
631.927	1	24
632.097	1	15
632.266	1	17
632.436	1	11
632.606	1	18
632.775	1	24
632.945	1	14
633.114	1	7
633.284	1	9
633.453	1	19
633.623	1	33
633.793	1	10
633.962	1	12
634.132	1	30
634.301	1	22
634.471	1	24
634.640	1	19
634.810	1	19
634.979	1	11
635.149	1	20
635.319	1	17
635.488	1	14
635.658	1	22
635.827	1	10
635.997	1	19
636.166	1	21
636.336	1	13
636.505	1	20
636.675	1	9
636.845	1	12
637.014	1	7
637.184	1	19
637.353	1	18
637.523	1	7
637.692	1	22
637.862	1	15
638.031	1	16
638.201	1	18
638.370	1	21
638.540	1	9
638.710	1	13
638.879	1	19
639.049	1	24
639.218	1	17
639.388	1	30
639.557	1	25
639.727	1	19
639.896	1	26
640.066	1	21
640.235	1	19
640.405	1	24
640.574	1	21
640.744	1	7
640.914	1	13
641.083	1	21
641.253	1	9
641.422	1	11
641.592	1	13
641.761	1	10
641.931	1	16
642.100	1	16
642.270	1	16
642.439	1	21
642.609	1	26
642.778	1	14
642.948	1	19
643.117	1	16
643.287	1	19
643.456	1	13
643.626	1	11
643.795	1	15
643.965	1	17
644.134	1	15
644.304	1	19
644.473	1	17
644.643	1	15
644.812	1	1
644.982	1	17
645.151	1	9
645.321	1	25
645.490	1	33
645.660	1	19
645.829	1	21
645.999	1	13
646.168	1	29
646.338	1	15
646.507	1	15
646.677	1	20
646.846	1	20
647.016	1	25
647.185	1	17
647.355	1	21
647.524	1	14
647.694	1	16
647.863	1	9
648.033	1	14
648.202	1	16
648.372	1	1
648.541	1	19
648.711	1	25
648.880	1	19
649.050	1	15
649.219	1	11
649.389	1	11
649.558	1	26
649.728	1	24
649.897	1	19
650.067	1	20
650.236	1	10
650.406	1	8
650.575	1	25
650.745	1	28
650.914	1	26
651.084	1	26
651.253	1	27
651.423	1	9
651.592	1	16
651.762	1	20
651.931	1	24
652.101	1	21
652.270	1	27
652.440	1	17
652.609	1	25
652.778	1	25
652.948	1	15
653.117	1	12
653.287	1	10
653.456	1	12
653.626	1	17
653.795	1	12
653.965	1	21
654.134	1	11
654.304	1	14
654.473	1	5
654.643	1	20
654.812	1	25
654.982	1	18
655.151	1	21
655.320	1	18
655.490	1	19
655.659	1	28
655.829	1	13
655.998	1	29
656.168	1	17
656.337	1	17
656.507	1	11
656.676	1	12
656.846	1	22
657.015	1	26
657.184	1	25
657.354	1	19
657.523	1	11
657.693	1	29
657.862	1	5
658.032	1	12
658.201	1	20
658.371	1	18
658.540	1	13
658.709	1	36
658.879	1	19
659.048	1	28
659.218	1	19
659.387	1	22
659.557	1	13
659.726	1	22
659.895	1	20
660.065	1	13
660.234	1	22
660.404	1	29
660.573	1	23
660.743	1	24
660.912	1	36
661.081	1	8
661.251	1	25
661.420	1	33
661.590	1	19
661.759	1	36
661.929	1	23
662.098	1	19
662.267	1	18
662.437	1	28
662.606	1	13
662.776	1	31
662.945	1	37
663.115	1	29
663.284	1	26
663.453	1	26
663.623	1	22
663.792	1	26
663.962	1	31
664.131	1	24
664.300	1	14
664.470	1	18
664.639	1	25
664.809	1	20
664.978	1	31
665.148	1	34
665.317	1	21
665.486	1	22
665.656	1	24
665.825	1	24
665.995	1	12
666.164	1	30
666.333	1	14
666.503	1	13
666.672	1	28
666.842	1	25
667.011	1	28
667.180	1	28
667.350	1	23
667.519	1	36
667.689	1	30
667.858	1	27
668.027	1	22
668.197	1	19
668.366	1	23
668.536	1	14
668.705	1	26
668.874	1	30
669.044	1	21
669.213	1	33
669.382	1	20
669.552	1	24
669.721	1	18
669.891	1	24
670.060	1	19
670.229	1	35
670.399	1	24
670.568	1	26
670.738	1	17
670.907	1	19
671.076	1	17
671.246	1	21
671.415	1	31
671.584	1	32
671.754	1	17
671.923	1	20
672.093	1	29
672.262	1	21
672.431	1	15
672.601	1	29
672.770	1	21
672.939	1	23
673.109	1	25
673.278	1	22
673.448	1	27
673.617	1	30
673.786	1	7
