325.333	1	10
325.504	1	-3
325.675	1	9
325.846	1	2
326.017	1	5
326.188	1	-5
326.359	1	12
326.531	1	-8
326.702	1	1
326.873	1	1
327.044	1	11
327.215	1	1
327.386	1	10
327.557	1	5
327.728	1	13
327.899	1	-7
328.070	1	13
328.241	1	-2
328.412	1	5
328.583	1	-2
328.754	1	10
328.926	1	10
329.097	1	-5
329.268	1	7
329.439	1	12
329.610	1	0
329.781	1	1
329.952	1	6
330.123	1	-5
330.294	1	-1
330.465	1	-7
330.636	1	3
330.807	1	2
330.978	1	-4
331.149	1	2
331.320	1	-3
331.492	1	-10
331.663	1	2
331.834	1	10
332.005	1	1
332.176	1	6
332.347	1	-3
332.518	1	3
332.689	1	8
332.860	1	0
333.031	1	4
333.202	1	-2
333.373	1	0
333.544	1	3
333.715	1	0
333.886	1	-2
334.057	1	-10
334.228	1	3
334.399	1	10
334.570	1	1
334.741	1	-8
334.912	1	-10
335.084	1	10
335.255	1	9
335.426	1	0
335.597	1	-3
335.768	1	3
335.939	1	5
336.110	1	-2
336.281	1	-6
336.452	1	1
336.623	1	1
336.794	1	-5
336.965	1	-8
337.136	1	11
337.307	1	-11
337.478	1	4
337.649	1	-1
337.820	1	6
337.991	1	-3
338.162	1	0
338.333	1	3
338.504	1	-2
338.675	1	2
338.846	1	-7
339.017	1	7
339.188	1	1
339.359	1	7
339.530	1	0
339.701	1	10
339.872	1	14
340.043	1	5
340.214	1	8
340.385	1	-12
340.556	1	9
340.727	1	9
340.898	1	11
341.069	1	-1
341.240	1	-2
341.411	1	9
341.582	1	1
341.753	1	-9
341.924	1	16
342.095	1	-5
342.266	1	4
342.437	1	-1
342.608	1	2
342.779	1	-14
342.950	1	3
343.121	1	1
343.292	1	0
343.463	1	17
343.634	1	2
343.805	1	2
343.976	1	13
344.147	1	-4
344.318	1	-3
344.489	1	-10
344.660	1	4
344.831	1	9
345.002	1	-1
345.173	1	3
345.344	1	0
345.515	1	2
345.686	1	1
345.857	1	1
346.028	1	6
346.199	1	5
346.370	1	-6
346.541	1	-2
346.712	1	3
346.883	1	-1
347.054	1	7
347.225	1	-4
347.396	1	-1
347.567	1	-11
347.738	1	7
347.909	1	7
348.080	1	2
348.251	1	-1
348.422	1	1
348.593	1	-1
348.764	1	2
348.935	1	1
349.106	1	-2
349.277	1	-6
349.448	1	2
349.619	1	-3
349.790	1	1
349.961	1	-8
350.132	1	3
350.303	1	-4
350.474	1	-2
350.645	1	-4
350.816	1	10
350.987	1	12
351.157	1	0
351.328	1	-5
351.499	1	7
351.670	1	0
351.841	1	4
352.012	1	3
352.183	1	6
352.354	1	0
352.525	1	0
352.696	1	-2
352.867	1	2
353.038	1	2
353.209	1	3
353.380	1	10
353.551	1	8
353.722	1	-2
353.893	1	10
354.064	1	6
354.235	1	-7
354.406	1	-5
354.576	1	2
354.747	1	8
354.918	1	-3
355.089	1	6
355.260	1	2
355.431	1	-6
355.602	1	5
355.773	1	-5
355.944	1	1
356.115	1	4
356.286	1	9
356.457	1	2
356.628	1	2
356.799	1	-4
356.970	1	8
357.141	1	-4
357.311	1	17
357.482	1	-5
357.653	1	-1
357.824	1	1
357.995	1	4
358.166	1	-5
358.337	1	0
358.508	1	8
358.679	1	0
358.850	1	13
359.021	1	9
359.192	1	9
359.363	1	-2
359.533	1	5
359.704	1	-10
359.875	1	-6
360.046	1	4
360.217	1	8
360.388	1	3
360.559	1	11
360.730	1	1
360.901	1	6
361.072	1	2
361.243	1	-3
361.414	1	6
361.584	1	-7
361.755	1	3
361.926	1	7
362.097	1	-2
362.268	1	10
362.439	1	-4
362.610	1	-1
362.781	1	-5
362.952	1	0
363.123	1	-5
363.293	1	9
363.464	1	-1
363.635	1	15
363.806	1	6
363.977	1	-2
364.148	1	4
364.319	1	0
364.490	1	5
364.661	1	-6
364.832	1	3
365.002	1	5
365.173	1	5
365.344	1	1
365.515	1	-1
365.686	1	8
365.857	1	11
366.028	1	3
366.199	1	-1
366.370	1	3
366.540	1	1
366.711	1	13
366.882	1	-6
367.053	1	-1
367.224	1	0
367.395	1	3
367.566	1	6
367.737	1	-1
367.908	1	5
368.078	1	-4
368.249	1	3
368.420	1	-1
368.591	1	3
368.762	1	12
368.933	1	-5
369.104	1	12
369.274	1	11
369.445	1	9
369.616	1	8
369.787	1	-12
369.958	1	11
370.129	1	4
370.300	1	-5
370.471	1	9
370.641	1	-1
370.812	1	10
370.983	1	-1
371.154	1	-2
371.325	1	4
371.496	1	-1
371.667	1	7
371.837	1	2
372.008	1	-4
372.179	1	0
372.350	1	-1
372.521	1	11
372.692	1	-1
372.863	1	-3
373.033	1	-2
373.204	1	5
373.375	1	-7
373.546	1	10
373.717	1	-6
373.888	1	4
374.059	1	1
374.229	1	5
374.400	1	4
374.571	1	-4
374.742	1	5
374.913	1	-8
375.084	1	0
375.254	1	-5
375.425	1	4
375.596	1	-2
375.767	1	0
375.938	1	2
376.109	1	0
376.279	1	1
376.450	1	4
376.621	1	12
376.792	1	5
376.963	1	-4
377.134	1	-6
377.304	1	6
377.475	1	-6
377.646	1	-8
377.817	1	3
377.988	1	5
378.159	1	4
378.329	1	2
378.500	1	10
378.671	1	0
378.842	1	1
379.013	1	0
379.184	1	0
379.354	1	3
379.525	1	3
379.696	1	7
379.867	1	4
380.038	1	5
380.209	1	13
380.379	1	18
380.550	1	-4
380.721	1	2
380.892	1	-7
381.063	1	-1
381.233	1	5
381.404	1	-4
381.575	1	-1
381.746	1	0
381.917	1	1
382.087	1	11
382.258	1	11
382.429	1	-3
382.600	1	-2
382.771	1	5
382.941	1	4
383.112	1	3
383.283	1	12
383.454	1	-1
383.625	1	-2
383.795	1	3
383.966	1	16
384.137	1	6
384.308	1	1
384.479	1	1
384.649	1	6
384.820	1	-4
384.991	1	-4
385.162	1	7
385.333	1	-1
385.503	1	-3
385.674	1	2
385.845	1	2
386.016	1	11
386.187	1	2
386.357	1	14
386.528	1	-6
386.699	1	-8
386.870	1	-2
387.041	1	1
387.211	1	-5
387.382	1	5
387.553	1	7
387.724	1	-7
387.894	1	-19
388.065	1	-1
388.236	1	0
388.407	1	0
388.578	1	3
388.748	1	1
388.919	1	2
389.090	1	20
389.261	1	8
389.431	1	-11
389.602	1	2
389.773	1	0
389.944	1	6
390.114	1	0
390.285	1	12
390.456	1	8
390.627	1	7
390.798	1	-4
390.968	1	-1
391.139	1	5
391.310	1	-3
391.481	1	-3
391.651	1	4
391.822	1	20
391.993	1	-1
392.164	1	-7
392.334	1	4
392.505	1	5
392.676	1	-1
392.847	1	-6
393.017	1	3
393.188	1	0
393.359	1	15
393.530	1	12
393.700	1	-3
393.871	1	6
394.042	1	-2
394.213	1	-4
394.383	1	-2
394.554	1	-5
394.725	1	-8
394.896	1	3
395.066	1	-1
395.237	1	4
395.408	1	7
395.579	1	1
395.749	1	10
395.920	1	-2
396.091	1	-10
396.262	1	0
396.432	1	-3
396.603	1	3
396.774	1	-2
396.945	1	0
397.115	1	10
397.286	1	6
397.457	1	2
397.627	1	-5
397.798	1	-5
397.969	1	-5
398.140	1	-5
398.310	1	2
398.481	1	-3
398.652	1	5
398.823	1	-5
398.993	1	2
399.164	1	4
399.335	1	-2
399.505	1	-8
399.676	1	9
399.847	1	-2
400.018	1	-2
400.188	1	6
400.359	1	8
400.530	1	7
400.700	1	2
400.871	1	-6
401.042	1	2
401.213	1	3
401.383	1	6
401.554	1	5
401.725	1	4
401.895	1	-9
402.066	1	-2
402.237	1	-3
402.408	1	8
402.578	1	1
402.749	1	-13
402.920	1	5
403.090	1	-3
403.261	1	-5
403.432	1	-1
403.603	1	5
403.773	1	15
403.944	1	10
404.115	1	4
404.285	1	3
404.456	1	-2
404.627	1	5
404.797	1	3
404.968	1	4
405.139	1	4
405.310	1	2
405.480	1	1
405.651	1	-3
405.822	1	0
405.992	1	2
406.163	1	-3
406.334	1	6
406.504	1	3
406.675	1	-10
406.846	1	-4
407.016	1	4
407.187	1	6
407.358	1	-5
407.528	1	1
407.699	1	1
407.870	1	-3
408.041	1	9
408.211	1	6
408.382	1	3
408.553	1	2
408.723	1	2
408.894	1	-2
409.065	1	6
409.235	1	-2
409.406	1	-6
409.577	1	-1
409.747	1	3
409.918	1	4
410.089	1	6
410.259	1	1
410.430	1	-2
410.601	1	3
410.771	1	11
410.942	1	2
411.113	1	1
411.283	1	-2
411.454	1	9
411.625	1	3
411.795	1	1
411.966	1	6
412.137	1	5
412.307	1	-1
412.478	1	9
412.649	1	-5
412.819	1	7
412.990	1	10
413.161	1	-4
413.331	1	0
413.502	1	-13
413.672	1	-6
413.843	1	5
414.014	1	-5
414.184	1	12
414.355	1	0
414.526	1	7
414.696	1	-7
414.867	1	-3
415.038	1	-3
415.208	1	-5
415.379	1	-6
415.550	1	-3
415.720	1	-7
415.891	1	6
416.062	1	14
416.232	1	2
416.403	1	4
416.573	1	-6
416.744	1	1
416.915	1	7
417.085	1	7
417.256	1	-6
417.427	1	1
417.597	1	2
417.768	1	5
417.939	1	-12
418.109	1	2
418.280	1	2
418.450	1	9
418.621	1	5
418.792	1	1
418.962	1	5
419.133	1	2
419.304	1	-2
419.474	1	9
419.645	1	-2
419.815	1	5
419.986	1	4
420.157	1	-7
420.327	1	-11
420.498	1	-4
420.669	1	15
420.839	1	4
421.010	1	8
421.180	1	-4
421.351	1	7
421.522	1	4
421.692	1	4
421.863	1	9
422.033	1	1
422.204	1	-4
422.375	1	13
422.545	1	1
422.716	1	-4
422.886	1	8
423.057	1	0
423.228	1	-2
423.398	1	1
423.569	1	4
423.740	1	-4
423.910	1	1
424.081	1	-3
424.251	1	0
424.422	1	6
424.593	1	8
424.763	1	13
424.934	1	5
425.104	1	24
425.275	1	-12
425.445	1	7
425.616	1	0
425.787	1	1
425.957	1	-12
426.128	1	-6
426.298	1	2
426.469	1	-11
426.640	1	13
426.810	1	-7
426.981	1	14
427.151	1	-3
427.322	1	-3
427.493	1	1
427.663	1	5
427.834	1	2
428.004	1	3
428.175	1	5
428.345	1	-2
428.516	1	10
428.687	1	18
428.857	1	15
429.028	1	-4
429.198	1	-2
429.369	1	2
429.540	1	7
429.710	1	3
429.881	1	-6
430.051	1	-3
430.222	1	11
430.392	1	9
430.563	1	-2
430.734	1	11
430.904	1	5
431.075	1	3
431.245	1	1
431.416	1	-1
431.586	1	-5
431.757	1	5
431.927	1	3
432.098	1	1
432.269	1	4
432.439	1	-1
432.610	1	14
432.780	1	7
432.951	1	1
433.121	1	3
433.292	1	4
433.462	1	-4
433.633	1	-3
433.804	1	6
433.974	1	3
434.145	1	-1
434.315	1	-2
434.486	1	-11
434.656	1	0
434.827	1	5
434.997	1	6
435.168	1	-4
435.339	1	11
435.509	1	1
435.680	1	5
435.850	1	-10
436.021	1	-3
436.191	1	-2
436.362	1	1
436.532	1	1
436.703	1	3
436.873	1	-1
437.044	1	2
437.214	1	-1
437.385	1	-10
437.556	1	8
437.726	1	1
437.897	1	9
438.067	1	-7
438.238	1	-6
438.408	1	-1
438.579	1	-5
438.749	1	2
438.920	1	1
439.090	1	-13
439.261	1	5
439.431	1	-4
439.602	1	-4
439.772	1	5
439.943	1	0
440.113	1	-4
440.284	1	14
440.455	1	-5
440.625	1	-1
440.796	1	2
440.966	1	7
441.137	1	5
441.307	1	7
441.478	1	-3
441.648	1	2
441.819	1	3
441.989	1	4
442.160	1	-1
442.330	1	6
442.501	1	6
442.671	1	8
442.842	1	4
443.012	1	-8
443.183	1	-8
443.353	1	-9
443.524	1	1
443.694	1	-12
443.865	1	10
444.035	1	-2
444.206	1	4
444.376	1	5
444.547	1	2
444.717	1	1
444.888	1	-5
445.058	1	-3
445.229	1	0
445.399	1	4
445.570	1	-3
445.740	1	-1
445.911	1	3
446.081	1	6
446.252	1	-1
446.422	1	4
446.593	1	0
446.763	1	-7
446.934	1	-1
447.104	1	3
447.275	1	2
447.445	1	0
447.616	1	-9
447.786	1	3
447.957	1	2
448.127	1	0
448.298	1	5
448.468	1	1
448.639	1	-2
448.809	1	-15
448.979	1	16
449.150	1	-9
449.320	1	0
449.491	1	-2
449.661	1	-7
449.832	1	2
450.002	1	-6
450.173	1	1
450.343	1	-5
450.514	1	4
450.684	1	2
450.855	1	4
451.025	1	0
451.196	1	-7
451.366	1	11
451.537	1	17
451.707	1	7
451.878	1	-8
452.048	1	-4
452.218	1	4
452.389	1	5
452.559	1	3
452.730	1	7
452.900	1	7
453.071	1	9
453.241	1	-1
453.412	1	3
453.582	1	9
453.753	1	9
453.923	1	-3
454.093	1	-11
454.264	1	7
454.434	1	5
454.605	1	3
454.775	1	-3
454.946	1	-4
455.116	1	5
455.287	1	-2
455.457	1	6
455.628	1	4
455.798	1	8
455.968	1	1
456.139	1	9
456.309	1	0
456.480	1	5
456.650	1	-3
456.821	1	1
456.991	1	5
457.161	1	5
457.332	1	-8
457.502	1	3
457.673	1	-6
457.843	1	2
458.014	1	-6
458.184	1	2
458.355	1	4
458.525	1	-5
458.695	1	-1
458.866	1	-10
459.036	1	7
459.207	1	3
459.377	1	6
459.548	1	7
459.718	1	-5
459.888	1	-2
460.059	1	-2
460.229	1	-1
460.400	1	-1
460.570	1	-7
460.740	1	-9
460.911	1	-2
461.081	1	6
461.252	1	-10
461.422	1	0
461.593	1	7
461.763	1	5
461.933	1	-2
462.104	1	-6
462.274	1	-4
462.445	1	8
462.615	1	2
462.785	1	-1
462.956	1	-6
463.126	1	1
463.297	1	0
463.467	1	11
463.638	1	11
463.808	1	3
463.978	1	-8
464.149	1	0
464.319	1	8
464.490	1	-2
464.660	1	-4
464.830	1	-8
465.001	1	-1
465.171	1	1
465.342	1	-5
465.512	1	3
465.682	1	-8
465.853	1	-4
466.023	1	7
466.194	1	1
466.364	1	7
466.534	1	-14
466.705	1	4
466.875	1	-3
467.045	1	-5
467.216	1	1
467.386	1	0
467.557	1	9
467.727	1	3
467.897	1	5
468.068	1	-9
468.238	1	3
468.409	1	-2
468.579	1	4
468.749	1	-6
468.920	1	-1
469.090	1	4
469.260	1	13
469.431	1	-5
469.601	1	12
469.772	1	8
469.942	1	7
470.112	1	1
470.283	1	0
470.453	1	7
470.623	1	1
470.794	1	1
470.964	1	-8
471.135	1	11
471.305	1	0
471.475	1	9
471.646	1	6
471.816	1	3
471.986	1	-4
472.157	1	1
472.327	1	13
472.497	1	5
472.668	1	1
472.838	1	6
473.009	1	10
473.179	1	4
473.349	1	3
473.520	1	14
473.690	1	-8
473.860	1	-5
474.031	1	-6
474.201	1	8
474.371	1	1
474.542	1	-4
474.712	1	4
474.882	1	5
475.053	1	4
475.223	1	5
475.394	1	-3
475.564	1	4
475.734	1	-7
475.905	1	9
476.075	1	11
476.245	1	1
476.416	1	1
476.586	1	-4
476.756	1	-5
476.927	1	2
477.097	1	-7
477.267	1	4
477.438	1	0
477.608	1	9
477.778	1	-5
477.949	1	2
478.119	1	7
478.289	1	-6
478.460	1	-4
478.630	1	-2
478.800	1	1
478.971	1	-4
479.141	1	5
479.311	1	-3
479.482	1	5
479.652	1	4
479.822	1	-14
479.993	1	-5
480.163	1	1
480.333	1	8
480.504	1	2
480.674	1	9
480.844	1	0
481.015	1	10
481.185	1	1
481.355	1	4
481.525	1	-9
481.696	1	4
481.866	1	5
482.036	1	-2
482.207	1	6
482.377	1	-4
482.547	1	11
482.718	1	3
482.888	1	5
483.058	1	4
483.229	1	0
483.399	1	5
483.569	1	-2
483.740	1	8
483.910	1	-9
484.080	1	4
484.250	1	-5
484.421	1	-2
484.591	1	-9
484.761	1	4
484.932	1	4
485.102	1	14
485.272	1	4
485.443	1	10
485.613	1	-2
485.783	1	-10
485.953	1	1
486.124	1	-6
486.294	1	0
486.464	1	7
486.635	1	7
486.805	1	4
486.975	1	0
487.146	1	8
487.316	1	-1
487.486	1	7
487.656	1	4
487.827	1	2
487.997	1	-2
488.167	1	7
488.338	1	3
488.508	1	10
488.678	1	-4
488.848	1	3
489.019	1	8
489.189	1	4
489.359	1	-1
489.529	1	1
489.700	1	-2
489.870	1	8
490.040	1	0
490.211	1	-4
490.381	1	8
490.551	1	8
490.721	1	3
490.892	1	-3
491.062	1	2
491.232	1	5
491.402	1	-14
491.573	1	8
491.743	1	4
491.913	1	3
492.084	1	5
492.254	1	4
492.424	1	5
492.594	1	7
492.765	1	3
492.935	1	12
493.105	1	5
493.275	1	-5
493.446	1	-14
493.616	1	-13
493.786	1	7
493.956	1	5
494.127	1	-5
494.297	1	-2
494.467	1	-3
494.637	1	7
494.808	1	10
494.978	1	5
495.148	1	8
495.318	1	5
495.489	1	2
495.659	1	5
495.829	1	0
495.999	1	5
496.170	1	7
496.340	1	-3
496.510	1	11
496.680	1	6
496.851	1	11
497.021	1	-9
497.191	1	7
497.361	1	-1
497.532	1	1
497.702	1	6
497.872	1	8
498.042	1	4
498.213	1	-11
498.383	1	7
498.553	1	3
498.723	1	-3
498.894	1	-5
499.064	1	0
499.234	1	10
499.404	1	0
499.574	1	3
499.745	1	2
499.915	1	7
500.085	1	-4
500.255	1	-6
500.426	1	-1
500.596	1	-10
500.766	1	-4
500.936	1	-6
501.106	1	-2
501.277	1	-1
501.447	1	6
501.617	1	2
501.787	1	-1
501.958	1	7
502.128	1	0
502.298	1	9
502.468	1	3
502.638	1	0
502.809	1	-5
502.979	1	4
503.149	1	2
503.319	1	13
503.489	1	-13
503.660	1	-4
503.830	1	8
504.000	1	0
504.170	1	-3
504.340	1	-14
504.511	1	3
504.681	1	-3
504.851	1	-1
505.021	1	2
505.192	1	-7
505.362	1	-4
505.532	1	4
505.702	1	20
505.872	1	1
506.043	1	4
506.213	1	10
506.383	1	11
506.553	1	7
506.723	1	-12
506.893	1	14
507.064	1	9
507.234	1	1
507.404	1	-7
507.574	1	-5
507.744	1	-3
507.915	1	5
508.085	1	3
508.255	1	3
508.425	1	-1
508.595	1	-1
508.766	1	-4
508.936	1	9
509.106	1	-3
509.276	1	9
509.446	1	-9
509.616	1	0
509.787	1	-2
509.957	1	6
510.127	1	-2
510.297	1	-2
510.467	1	2
510.638	1	0
510.808	1	9
510.978	1	-2
511.148	1	1
511.318	1	5
511.488	1	5
511.659	1	8
511.829	1	3
511.999	1	5
512.169	1	8
512.339	1	7
512.509	1	-10
512.680	1	-10
512.850	1	8
513.020	1	9
513.190	1	0
513.360	1	7
513.530	1	5
513.700	1	10
513.871	1	-3
514.041	1	-4
514.211	1	10
514.381	1	6
514.551	1	-2
514.721	1	13
514.892	1	1
515.062	1	2
515.232	1	3
515.402	1	-1
515.572	1	2
515.742	1	5
515.912	1	12
516.083	1	7
516.253	1	11
516.423	1	5
516.593	1	-1
516.763	1	0
516.933	1	-10
517.104	1	2
517.274	1	-5
517.444	1	0
517.614	1	-3
517.784	1	-1
517.954	1	-1
518.124	1	4
518.294	1	0
518.465	1	-6
518.635	1	4
518.805	1	0
518.975	1	6
519.145	1	6
519.315	1	1
519.485	1	-2
519.656	1	-7
519.826	1	-6
519.996	1	4
520.166	1	-4
520.336	1	5
520.506	1	4
520.676	1	3
520.846	1	-6
521.017	1	-3
521.187	1	7
521.357	1	-4
521.527	1	-3
521.697	1	-10
521.867	1	11
522.037	1	0
522.207	1	10
522.377	1	13
522.548	1	4
522.718	1	2
522.888	1	-5
523.058	1	-4
523.228	1	-16
523.398	1	-4
523.568	1	-9
523.738	1	2
523.909	1	8
524.079	1	4
524.249	1	-3
524.419	1	3
524.589	1	3
524.759	1	-1
524.929	1	0
525.099	1	-5
525.269	1	4
525.439	1	0
525.610	1	6
525.780	1	-3
525.950	1	6
526.120	1	6
526.290	1	-3
526.460	1	-11
526.630	1	-1
526.800	1	-7
526.970	1	8
527.140	1	1
527.311	1	3
527.481	1	6
527.651	1	-4
527.821	1	9
527.991	1	-2
528.161	1	8
528.331	1	-10
528.501	1	0
528.671	1	1
528.841	1	-2
529.011	1	6
529.181	1	2
529.352	1	8
529.522	1	4
529.692	1	4
529.862	1	3
530.032	1	-9
530.202	1	-3
530.372	1	6
530.542	1	-4
530.712	1	2
530.882	1	2
531.052	1	10
531.222	1	3
531.392	1	2
531.563	1	0
531.733	1	2
531.903	1	-4
532.073	1	-3
532.243	1	8
532.413	1	8
532.583	1	8
532.753	1	2
532.923	1	10
533.093	1	-3
533.263	1	1
533.433	1	-7
533.603	1	-5
533.773	1	7
533.943	1	-1
534.113	1	2
534.284	1	2
534.454	1	-5
534.624	1	1
534.794	1	3
534.964	1	7
535.134	1	-1
535.304	1	-6
535.474	1	12
535.644	1	10
535.814	1	2
535.984	1	1
536.154	1	6
536.324	1	4
536.494	1	8
536.664	1	-2
536.834	1	-1
537.004	1	4
537.174	1	0
537.344	1	-2
537.514	1	-6
537.685	1	18
537.855	1	8
538.025	1	6
538.195	1	-7
538.365	1	-4
538.535	1	-8
538.705	1	5
538.875	1	0
539.045	1	5
539.215	1	-6
539.385	1	3
539.555	1	-6
539.725	1	-2
539.895	1	0
540.065	1	4
540.235	1	4
540.405	1	-3
540.575	1	2
540.745	1	4
540.915	1	3
541.085	1	-3
541.255	1	-3
541.425	1	-3
541.595	1	-4
541.765	1	7
541.935	1	7
542.105	1	-3
542.275	1	4
542.445	1	7
542.615	1	5
542.785	1	-10
542.955	1	5
543.125	1	2
543.295	1	5
543.465	1	7
543.635	1	0
543.805	1	5
543.975	1	3
544.145	1	0
544.315	1	1
544.485	1	-6
544.655	1	6
544.825	1	8
544.995	1	4
545.165	1	-1
545.335	1	4
545.505	1	-8
545.675	1	7
545.845	1	12
546.015	1	-9
546.185	1	-4
546.355	1	-2
546.525	1	-6
546.695	1	-4
546.865	1	1
547.035	1	12
547.205	1	10
547.375	1	9
547.545	1	1
547.715	1	5
547.885	1	-4
548.055	1	-7
548.225	1	15
548.395	1	4
548.565	1	10
548.735	1	2
548.905	1	1
549.075	1	8
549.245	1	3
549.415	1	-2
549.585	1	-3
549.755	1	3
549.925	1	6
550.095	1	-10
550.265	1	4
550.435	1	10
550.605	1	6
550.775	1	-4
550.945	1	11
551.115	1	6
551.285	1	0
551.455	1	4
551.625	1	-12
551.795	1	0
551.965	1	-9
552.135	1	2
552.305	1	9
552.475	1	7
552.645	1	-3
552.815	1	2
552.985	1	-2
553.155	1	2
553.325	1	1
553.495	1	6
553.665	1	-1
553.835	1	2
554.004	1	3
554.174	1	-7
554.344	1	7
554.514	1	-2
554.684	1	6
554.854	1	-4
555.024	1	10
555.194	1	0
555.364	1	0
555.534	1	-7
555.704	1	-8
555.874	1	5
556.044	1	6
556.214	1	7
556.384	1	5
556.554	1	4
556.724	1	-4
556.894	1	4
557.064	1	3
557.234	1	2
557.404	1	5
557.573	1	-2
557.743	1	-6
557.913	1	-7
558.083	1	1
558.253	1	-1
558.423	1	5
558.593	1	13
558.763	1	3
558.933	1	-4
559.103	1	5
559.273	1	8
559.443	1	2
559.613	1	9
559.783	1	1
559.953	1	-3
560.122	1	4
560.292	1	-9
560.462	1	-5
560.632	1	-5
560.802	1	3
560.972	1	-4
561.142	1	4
561.312	1	5
561.482	1	14
561.652	1	0
561.822	1	-1
561.992	1	4
562.162	1	-2
562.331	1	-3
562.501	1	8
562.671	1	1
562.841	1	-3
563.011	1	-2
563.181	1	-2
563.351	1	-2
563.521	1	6
563.691	1	6
563.861	1	-3
564.031	1	-6
564.201	1	3
564.370	1	8
564.540	1	-4
564.710	1	-1
564.880	1	0
565.050	1	8
565.220	1	8
565.390	1	1
565.560	1	0
565.730	1	1
565.900	1	6
566.069	1	9
566.239	1	7
566.409	1	6
566.579	1	5
566.749	1	0
566.919	1	0
567.089	1	-2
567.259	1	-2
567.429	1	-1
567.599	1	7
567.768	1	-3
567.938	1	5
568.108	1	-4
568.278	1	8
568.448	1	-4
568.618	1	9
568.788	1	6
568.958	1	3
569.128	1	-10
569.297	1	-5
569.467	1	5
569.637	1	9
569.807	1	4
569.977	1	2
570.147	1	3
570.317	1	12
570.487	1	-3
570.656	1	7
570.826	1	-2
570.996	1	8
571.166	1	-4
571.336	1	-4
571.506	1	0
571.676	1	11
571.846	1	-1
572.015	1	6
572.185	1	2
572.355	1	-4
572.525	1	-3
572.695	1	-2
572.865	1	7
573.035	1	5
573.205	1	-9
573.374	1	-6
573.544	1	10
573.714	1	5
573.884	1	-9
574.054	1	3
574.224	1	6
574.394	1	1
574.563	1	0
574.733	1	5
574.903	1	2
575.073	1	10
575.243	1	-2
575.413	1	0
575.583	1	-6
575.752	1	1
575.922	1	5
576.092	1	-5
576.262	1	4
576.432	1	-6
576.602	1	9
576.772	1	-2
576.941	1	4
577.111	1	0
577.281	1	11
577.451	1	11
577.621	1	10
577.791	1	1
577.960	1	-9
578.130	1	0
578.300	1	-5
578.470	1	11
578.640	1	-1
578.810	1	-3
578.979	1	13
579.149	1	1
579.319	1	5
579.489	1	6
579.659	1	3
579.829	1	-9
579.998	1	-6
580.168	1	3
580.338	1	6
580.508	1	3
580.678	1	8
580.848	1	-1
581.017	1	8
581.187	1	10
581.357	1	-6
581.527	1	2
581.697	1	5
581.867	1	11
582.036	1	-13
582.206	1	2
582.376	1	2
582.546	1	4
582.716	1	8
582.885	1	0
583.055	1	-9
583.225	1	2
583.395	1	0
583.565	1	5
583.735	1	7
583.904	1	-2
584.074	1	1
584.244	1	0
584.414	1	2
584.584	1	-7
584.753	1	12
584.923	1	-8
585.093	1	7
585.263	1	2
585.433	1	2
585.602	1	3
585.772	1	6
585.942	1	-7
586.112	1	4
586.282	1	9
586.451	1	13
586.621	1	-4
586.791	1	-4
586.961	1	-14
587.131	1	-1
587.300	1	4
587.470	1	-3
587.640	1	-2
587.810	1	-15
587.980	1	2
588.149	1	15
588.319	1	12
588.489	1	4
588.659	1	-6
588.829	1	-1
588.998	1	8
589.168	1	5
589.338	1	-6
589.508	1	11
589.677	1	2
589.847	1	3
590.017	1	4
590.187	1	11
590.357	1	-3
590.526	1	-6
590.696	1	11
590.866	1	-10
591.036	1	0
591.205	1	15
591.375	1	-3
591.545	1	3
591.715	1	0
591.885	1	14
592.054	1	7
592.224	1	-2
592.394	1	-6
592.564	1	4
592.733	1	3
592.903	1	1
593.073	1	0
593.243	1	13
593.412	1	1
593.582	1	1
593.752	1	-2
593.922	1	6
594.091	1	8
594.261	1	-15
594.431	1	3
594.601	1	-2
594.771	1	1
594.940	1	7
595.110	1	4
595.280	1	7
595.450	1	1
595.619	1	-5
595.789	1	1
595.959	1	-5
596.129	1	-2
596.298	1	10
596.468	1	-5
596.638	1	2
596.808	1	-9
596.977	1	-5
597.147	1	5
597.317	1	8
597.487	1	2
597.656	1	6
597.826	1	5
597.996	1	6
598.166	1	-4
598.335	1	-4
598.505	1	4
598.675	1	1
598.844	1	15
599.014	1	-11
599.184	1	5
599.354	1	14
599.523	1	-2
599.693	1	2
599.863	1	12
600.033	1	2
600.202	1	0
600.372	1	-4
600.542	1	9
600.712	1	-3
600.881	1	4
601.051	1	15
601.221	1	-1
601.390	1	0
601.560	1	5
601.730	1	10
601.900	1	-1
602.069	1	-1
602.239	1	1
602.409	1	-4
602.578	1	-3
602.748	1	10
602.918	1	-10
603.088	1	-2
603.257	1	-7
603.427	1	3
603.597	1	3
603.767	1	4
603.936	1	5
604.106	1	0
604.276	1	3
604.445	1	2
604.615	1	-2
604.785	1	5
604.954	1	-4
605.124	1	-1
605.294	1	2
605.464	1	-2
605.633	1	4
605.803	1	8
605.973	1	0
606.142	1	8
606.312	1	10
606.482	1	-5
606.652	1	3
606.821	1	-3
606.991	1	3
607.161	1	-1
607.330	1	2
607.500	1	2
607.670	1	10
607.839	1	-1
608.009	1	2
608.179	1	5
608.348	1	1
608.518	1	12
608.688	1	-3
608.858	1	-5
609.027	1	2
609.197	1	7
609.367	1	-5
609.536	1	1
609.706	1	10
609.876	1	7
610.045	1	1
610.215	1	3
610.385	1	7
610.554	1	1
610.724	1	6
610.894	1	1
611.063	1	-1
611.233	1	4
611.403	1	7
611.572	1	2
611.742	1	-3
611.912	1	-1
612.081	1	7
612.251	1	4
612.421	1	-1
612.590	1	12
612.760	1	-4
612.930	1	4
613.099	1	-7
613.269	1	5
613.439	1	-5
613.608	1	6
613.778	1	-2
613.948	1	15
614.117	1	-1
614.287	1	-1
614.457	1	0
614.626	1	-1
614.796	1	0
614.966	1	8
615.135	1	9
615.305	1	3
615.475	1	5
615.644	1	11
615.814	1	16
615.984	1	-4
616.153	1	1
616.323	1	4
616.493	1	-2
616.662	1	3
616.832	1	3
617.002	1	0
617.171	1	8
617.341	1	7
617.511	1	-7
617.680	1	-11
617.850	1	2
618.019	1	-4
618.189	1	8
618.359	1	-1
618.528	1	2
618.698	1	-3
618.868	1	-5
619.037	1	6
619.207	1	-8
619.377	1	4
619.546	1	0
619.716	1	2
619.885	1	6
620.055	1	-4
620.225	1	-1
620.394	1	6
620.564	1	8
620.734	1	-6
620.903	1	-17
621.073	1	9
621.242	1	5
621.412	1	-2
621.582	1	7
621.751	1	3
621.921	1	1
622.091	1	5
622.260	1	6
622.430	1	5
622.599	1	-1
622.769	1	-4
622.939	1	-6
623.108	1	-4
623.278	1	4
623.448	1	4
623.617	1	-1
623.787	1	5
623.956	1	3
624.126	1	1
624.296	1	4
624.465	1	16
624.635	1	4
624.804	1	-6
624.974	1	2
625.144	1	-9
625.313	1	18
625.483	1	0
625.652	1	7
625.822	1	2
625.992	1	-1
626.161	1	1
626.331	1	-2
626.501	1	-6
626.670	1	-7
626.840	1	2
627.009	1	0
627.179	1	1
627.348	1	-2
627.518	1	8
627.688	1	6
627.857	1	9
628.027	1	11
628.196	1	7
628.366	1	-2
628.536	1	-3
628.705	1	-9
628.875	1	-3
629.044	1	-6
629.214	1	1
629.384	1	5
629.553	1	-5
629.723	1	9
629.892	1	4
630.062	1	0
630.232	1	6
630.401	1	2
630.571	1	3
630.740	1	-2
630.910	1	14
631.079	1	-1
631.249	1	0
631.419	1	2
631.588	1	4
631.758	1	-2
631.927	1	7
632.097	1	-3
632.266	1	7
632.436	1	-2
632.606	1	2
632.775	1	3
632.945	1	5
633.114	1	-2
633.284	1	0
633.453	1	0
633.623	1	9
633.793	1	11
633.962	1	3
634.132	1	14
634.301	1	3
634.471	1	14
634.640	1	1
634.810	1	2
634.979	1	3
635.149	1	-5
635.319	1	-9
635.488	1	3
635.658	1	-2
635.827	1	-6
635.997	1	5
636.166	1	2
636.336	1	-4
636.505	1	2
636.675	1	-4
636.845	1	5
637.014	1	-4
637.184	1	3
637.353	1	2
637.523	1	0
637.692	1	5
637.862	1	-4
638.031	1	-7
638.201	1	1
638.370	1	5
638.540	1	-3
638.710	1	-3
638.879	1	1
639.049	1	-1
639.218	1	3
639.388	1	3
639.557	1	11
639.727	1	4
639.896	1	-7
640.066	1	7
640.235	1	-4
640.405	1	3
640.574	1	8
640.744	1	-2
640.914	1	0
641.083	1	10
641.253	1	-1
641.422	1	-2
641.592	1	5
641.761	1	2
641.931	1	8
642.100	1	-4
642.270	1	4
642.439	1	-2
642.609	1	3
642.778	1	6
642.948	1	10
643.117	1	6
643.287	1	-2
643.456	1	-2
643.626	1	-1
643.795	1	2
643.965	1	3
644.134	1	0
644.304	1	0
644.473	1	-5
644.643	1	-3
644.812	1	-6
644.982	1	4
645.151	1	0
645.321	1	5
645.490	1	9
645.660	1	-3
645.829	1	4
645.999	1	-3
646.168	1	13
646.338	1	-3
646.507	1	-1
646.677	1	8
646.846	1	0
647.016	1	-1
647.185	1	7
647.355	1	8
647.524	1	-3
647.694	1	-13
647.863	1	1
648.033	1	6
648.202	1	6
648.372	1	-17
648.541	1	-3
648.711	1	12
648.880	1	4
649.050	1	4
649.219	1	1
649.389	1	-3
649.558	1	5
649.728	1	-2
649.897	1	4
650.067	1	-2
650.236	1	-1
650.406	1	-1
650.575	1	-5
650.745	1	7
650.914	1	6
651.084	1	4
651.253	1	6
651.423	1	-10
651.592	1	6
651.762	1	3
651.931	1	6
652.101	1	-5
652.270	1	-1
652.440	1	-4
652.609	1	3
652.778	1	6
652.948	1	6
653.117	1	-6
653.287	1	-11
653.456	1	-4
653.626	1	3
653.795	1	-1
653.965	1	5
654.134	1	-5
654.304	1	8
654.473	1	-3
654.643	1	6
654.812	1	14
654.982	1	5
655.151	1	6
655.320	1	-7
655.490	1	-10
655.659	1	2
655.829	1	1
655.998	1	3
656.168	1	-4
656.337	1	9
656.507	1	-4
656.676	1	1
656.846	1	4
657.015	1	7
657.184	1	-5
657.354	1	-1
657.523	1	-2
657.693	1	7
657.862	1	-10
658.032	1	-2
658.201	1	-5
658.371	1	-5
658.540	1	-12
658.709	1	14
658.879	1	11
659.048	1	12
659.218	1	-1
659.387	1	4
659.557	1	-4
659.726	1	-2
659.895	1	5
660.065	1	-1
660.234	1	-2
660.404	1	3
660.573	1	-6
660.743	1	2
660.912	1	-1
661.081	1	-1
661.251	1	-10
661.420	1	3
661.590	1	-4
661.759	1	8
661.929	1	-3
662.098	1	4
662.267	1	-6
662.437	1	4
662.606	1	-10
662.776	1	4
662.945	1	8
663.115	1	15
663.284	1	6
663.453	1	-8
663.623	1	-2
663.792	1	6
663.962	1	14
664.131	1	-3
664.300	1	-5
664.470	1	-3
664.639	1	3
664.809	1	3
664.978	1	15
665.148	1	0
665.317	1	7
665.486	1	0
665.656	1	3
665.825	1	-5
665.995	1	-14
666.164	1	-3
666.333	1	0
666.503	1	3
666.672	1	6
666.842	1	5
667.011	1	2
667.180	1	2
667.350	1	6
667.519	1	3
667.689	1	7
667.858	1	7
668.027	1	-1
668.197	1	-7
668.366	1	9
668.536	1	-1
668.705	1	-7
668.874	1	11
669.044	1	7
669.213	1	9
669.382	1	1
669.552	1	-4
669.721	1	-4
669.891	1	-5
670.060	1	0
670.229	1	8
670.399	1	1
670.568	1	0
670.738	1	-4
670.907	1	5
671.076	1	4
671.246	1	15
671.415	1	8
671.584	1	5
671.754	1	-8
671.923	1	7
672.093	1	4
672.262	1	5
672.431	1	6
672.601	1	3
672.770	1	4
672.939	1	4
673.109	1	-7
673.278	1	6
673.448	1	11
673.617	1	5
673.786	1	-12
