325.333	1	4
325.504	1	-8
325.675	1	7
325.846	1	7
326.017	1	-2
326.188	1	-2
326.359	1	0
326.531	1	-8
326.702	1	-4
326.873	1	4
327.044	1	11
327.215	1	-3
327.386	1	-3
327.557	1	-6
327.728	1	1
327.899	1	-4
328.070	1	0
328.241	1	4
328.412	1	0
328.583	1	-2
328.754	1	5
328.926	1	3
329.097	1	1
329.268	1	13
329.439	1	7
329.610	1	4
329.781	1	12
329.952	1	-5
330.123	1	-3
330.294	1	-4
330.465	1	-9
330.636	1	3
330.807	1	-1
330.978	1	-3
331.149	1	7
331.320	1	4
331.492	1	5
331.663	1	2
331.834	1	6
332.005	1	3
332.176	1	4
332.347	1	-16
332.518	1	5
332.689	1	2
332.860	1	-1
333.031	1	-6
333.202	1	4
333.373	1	2
333.544	1	1
333.715	1	2
333.886	1	2
334.057	1	-3
334.228	1	3
334.399	1	17
334.570	1	4
334.741	1	4
334.912	1	-6
335.084	1	8
335.255	1	11
335.426	1	6
335.597	1	-4
335.768	1	6
335.939	1	-1
336.110	1	2
336.281	1	2
336.452	1	15
336.623	1	-3
336.794	1	-8
336.965	1	7
337.136	1	2
337.307	1	-1
337.478	1	8
337.649	1	4
337.820	1	5
337.991	1	5
338.162	1	4
338.333	1	4
338.504	1	1
338.675	1	-2
338.846	1	-14
339.017	1	4
339.188	1	-8
339.359	1	8
339.530	1	-1
339.701	1	2
339.872	1	11
340.043	1	-3
340.214	1	9
340.385	1	-11
340.556	1	14
340.727	1	1
340.898	1	7
341.069	1	8
341.240	1	1
341.411	1	0
341.582	1	-7
341.753	1	-2
341.924	1	5
342.095	1	3
342.266	1	6
342.437	1	-3
342.608	1	4
342.779	1	4
342.950	1	3
343.121	1	12
343.292	1	11
343.463	1	13
343.634	1	4
343.805	1	10
343.976	1	11
344.147	1	9
344.318	1	1
344.489	1	0
344.660	1	15
344.831	1	10
345.002	1	7
345.173	1	2
345.344	1	-3
345.515	1	5
345.686	1	11
345.857	1	10
346.028	1	2
346.199	1	7
346.370	1	7
346.541	1	-3
346.712	1	0
346.883	1	2
347.054	1	6
347.225	1	4
347.396	1	-1
347.567	1	1
347.738	1	10
347.909	1	7
348.080	1	7
348.251	1	5
348.422	1	2
348.593	1	7
348.764	1	1
348.935	1	6
349.106	1	-5
349.277	1	-2
349.448	1	3
349.619	1	2
349.790	1	8
349.961	1	-1
350.132	1	8
350.303	1	11
350.474	1	1
350.645	1	3
350.816	1	6
350.987	1	16
351.157	1	-2
351.328	1	6
351.499	1	7
351.670	1	7
351.841	1	14
352.012	1	2
352.183	1	17
352.354	1	-1
352.525	1	7
352.696	1	1
352.867	1	11
353.038	1	2
353.209	1	6
353.380	1	-1
353.551	1	-2
353.722	1	0
353.893	1	7
354.064	1	9
354.235	1	-5
354.406	1	1
354.576	1	8
354.747	1	5
354.918	1	0
355.089	1	12
355.260	1	1
355.431	1	4
355.602	1	3
355.773	1	-6
355.944	1	8
356.115	1	0
356.286	1	8
356.457	1	8
356.628	1	1
356.799	1	5
356.970	1	17
357.141	1	4
357.311	1	16
357.482	1	6
357.653	1	5
357.824	1	5
357.995	1	12
358.166	1	-1
358.337	1	-2
358.508	1	-4
358.679	1	3
358.850	1	13
359.021	1	7
359.192	1	13
359.363	1	2
359.533	1	7
359.704	1	0
359.875	1	0
360.046	1	12
360.217	1	15
360.388	1	18
360.559	1	12
360.730	1	-1
360.901	1	8
361.072	1	11
361.243	1	8
361.414	1	12
361.584	1	4
361.755	1	6
361.926	1	14
362.097	1	4
362.268	1	11
362.439	1	3
362.610	1	13
362.781	1	-2
362.952	1	14
363.123	1	0
363.293	1	6
363.464	1	3
363.635	1	14
363.806	1	10
363.977	1	7
364.148	1	0
364.319	1	1
364.490	1	14
364.661	1	4
364.832	1	6
365.002	1	8
365.173	1	8
365.344	1	1
365.515	1	5
365.686	1	6
365.857	1	8
366.028	1	14
366.199	1	12
366.370	1	8
366.540	1	12
366.711	1	12
366.882	1	2
367.053	1	10
367.224	1	8
367.395	1	8
367.566	1	9
367.737	1	5
367.908	1	7
368.078	1	7
368.249	1	18
368.420	1	9
368.591	1	12
368.762	1	7
368.933	1	1
369.104	1	-2
369.274	1	14
369.445	1	13
369.616	1	11
369.787	1	4
369.958	1	9
370.129	1	8
370.300	1	1
370.471	1	7
370.641	1	11
370.812	1	11
370.983	1	-5
371.154	1	9
371.325	1	0
371.496	1	12
371.667	1	17
371.837	1	16
372.008	1	4
372.179	1	6
372.350	1	9
372.521	1	13
372.692	1	13
372.863	1	5
373.033	1	5
373.204	1	16
373.375	1	0
373.546	1	24
373.717	1	6
373.888	1	12
374.059	1	-9
374.229	1	12
374.400	1	9
374.571	1	7
374.742	1	1
374.913	1	1
375.084	1	5
375.254	1	-5
375.425	1	11
375.596	1	10
375.767	1	10
375.938	1	-8
376.109	1	1
376.279	1	8
376.450	1	10
376.621	1	9
376.792	1	16
376.963	1	5
377.134	1	4
377.304	1	14
377.475	1	0
377.646	1	6
377.817	1	19
377.988	1	2
378.159	1	12
378.329	1	11
378.500	1	14
378.671	1	18
378.842	1	4
379.013	1	14
379.184	1	7
379.354	1	11
379.525	1	18
379.696	1	11
379.867	1	18
380.038	1	8
380.209	1	18
380.379	1	13
380.550	1	0
380.721	1	13
380.892	1	-1
381.063	1	5
381.233	1	10
381.404	1	3
381.575	1	2
381.746	1	11
381.917	1	11
382.087	1	16
382.258	1	15
382.429	1	1
382.600	1	7
382.771	1	6
382.941	1	20
383.112	1	17
383.283	1	9
383.454	1	0
383.625	1	6
383.795	1	11
383.966	1	10
384.137	1	15
384.308	1	1
384.479	1	5
384.649	1	12
384.820	1	13
384.991	1	0
385.162	1	18
385.333	1	7
385.503	1	16
385.674	1	9
385.845	1	9
386.016	1	16
386.187	1	-10
386.357	1	16
386.528	1	6
386.699	1	8
386.870	1	7
387.041	1	18
387.211	1	12
387.382	1	22
387.553	1	14
387.724	1	-1
387.894	1	3
388.065	1	6
388.236	1	6
388.407	1	11
388.578	1	17
388.748	1	18
388.919	1	17
389.090	1	19
389.261	1	13
389.431	1	-7
389.602	1	7
389.773	1	14
389.944	1	11
390.114	1	13
390.285	1	20
390.456	1	3
390.627	1	6
390.798	1	17
390.968	1	11
391.139	1	16
391.310	1	6
391.481	1	10
391.651	1	15
391.822	1	25
391.993	1	14
392.164	1	14
392.334	1	6
392.505	1	18
392.676	1	4
392.847	1	-3
393.017	1	12
393.188	1	13
393.359	1	20
393.530	1	20
393.700	1	8
393.871	1	17
394.042	1	3
394.213	1	6
394.383	1	15
394.554	1	8
394.725	1	1
394.896	1	23
395.066	1	12
395.237	1	13
395.408	1	13
395.579	1	19
395.749	1	23
395.920	1	15
396.091	1	4
396.262	1	3
396.432	1	9
396.603	1	10
396.774	1	3
396.945	1	19
397.115	1	21
397.286	1	17
397.457	1	15
397.627	1	1
397.798	1	15
397.969	1	9
398.140	1	7
398.310	1	14
398.481	1	18
398.652	1	26
398.823	1	16
398.993	1	10
399.164	1	22
399.335	1	4
399.505	1	6
399.676	1	5
399.847	1	14
400.018	1	8
400.188	1	13
400.359	1	20
400.530	1	8
400.700	1	14
400.871	1	13
401.042	1	24
401.213	1	16
401.383	1	21
401.554	1	14
401.725	1	-2
401.895	1	3
402.066	1	11
402.237	1	15
402.408	1	11
402.578	1	25
402.749	1	7
402.920	1	17
403.090	1	1
403.261	1	11
403.432	1	17
403.603	1	19
403.773	1	23
403.944	1	19
404.115	1	14
404.285	1	13
404.456	1	21
404.627	1	17
404.797	1	20
404.968	1	13
405.139	1	13
405.310	1	6
405.480	1	14
405.651	1	5
405.822	1	16
405.992	1	18
406.163	1	9
406.334	1	13
406.504	1	9
406.675	1	12
406.846	1	19
407.016	1	17
407.187	1	21
407.358	1	2
407.528	1	21
407.699	1	18
407.870	1	21
408.041	1	2
408.211	1	20
408.382	1	14
408.553	1	13
408.723	1	22
408.894	1	7
409.065	1	16
409.235	1	20
409.406	1	12
409.577	1	21
409.747	1	13
409.918	1	24
410.089	1	15
410.259	1	17
410.430	1	8
410.601	1	19
410.771	1	20
410.942	1	15
411.113	1	15
411.283	1	5
411.454	1	26
411.625	1	23
411.795	1	19
411.966	1	13
412.137	1	14
412.307	1	15
412.478	1	19
412.649	1	14
412.819	1	17
412.990	1	22
413.161	1	16
413.331	1	10
413.502	1	10
413.672	1	12
413.843	1	14
414.014	1	12
414.184	1	16
414.355	1	10
414.526	1	15
414.696	1	13
414.867	1	5
415.038	1	5
415.208	1	1
415.379	1	11
415.550	1	9
415.720	1	9
415.891	1	13
416.062	1	19
416.232	1	19
416.403	1	20
416.573	1	13
416.744	1	23
416.915	1	12
417.085	1	14
417.256	1	18
417.427	1	16
417.597	1	11
417.768	1	9
417.939	1	3
418.109	1	14
418.280	1	8
418.450	1	27
418.621	1	23
418.792	1	10
418.962	1	17
419.133	1	17
419.304	1	7
419.474	1	19
419.645	1	15
419.815	1	8
419.986	1	11
420.157	1	7
420.327	1	6
420.498	1	12
420.669	1	18
420.839	1	14
421.010	1	18
421.180	1	13
421.351	1	11
421.522	1	10
421.692	1	14
421.863	1	23
422.033	1	10
422.204	1	21
422.375	1	15
422.545	1	19
422.716	1	4
422.886	1	16
423.057	1	12
423.228	1	15
423.398	1	16
423.569	1	16
423.740	1	14
423.910	1	10
424.081	1	12
424.251	1	9
424.422	1	12
424.593	1	21
424.763	1	23
424.934	1	23
425.104	1	28
425.275	1	8
425.445	1	20
425.616	1	7
425.787	1	15
425.957	1	16
426.128	1	3
426.298	1	23
426.469	1	3
426.640	1	11
426.810	1	3
426.981	1	27
427.151	1	3
427.322	1	11
427.493	1	-5
427.663	1	15
427.834	1	8
428.004	1	16
428.175	1	15
428.345	1	6
428.516	1	11
428.687	1	17
428.857	1	18
429.028	1	12
429.198	1	7
429.369	1	17
429.540	1	20
429.710	1	20
429.881	1	11
430.051	1	4
430.222	1	13
430.392	1	20
430.563	1	1
430.734	1	14
430.904	1	14
431.075	1	10
431.245	1	16
431.416	1	15
431.586	1	9
431.757	1	16
431.927	1	20
432.098	1	9
432.269	1	1
432.439	1	4
432.610	1	21
432.780	1	13
432.951	1	7
433.121	1	3
433.292	1	23
433.462	1	15
433.633	1	6
433.804	1	14
433.974	1	13
434.145	1	25
434.315	1	8
434.486	1	-1
434.656	1	23
434.827	1	15
434.997	1	15
435.168	1	15
435.339	1	27
435.509	1	17
435.680	1	15
435.850	1	8
436.021	1	7
436.191	1	3
436.362	1	8
436.532	1	20
436.703	1	13
436.873	1	4
437.044	1	13
437.214	1	4
437.385	1	13
437.556	1	18
437.726	1	9
437.897	1	1
438.067	1	14
438.238	1	18
438.408	1	12
438.579	1	7
438.749	1	2
438.920	1	19
439.090	1	5
439.261	1	18
439.431	1	3
439.602	1	10
439.772	1	5
439.943	1	9
440.113	1	11
440.284	1	5
440.455	1	-1
440.625	1	15
440.796	1	16
440.966	1	18
441.137	1	18
441.307	1	15
441.478	1	5
441.648	1	9
441.819	1	12
441.989	1	10
442.160	1	13
442.330	1	13
442.501	1	9
442.671	1	12
442.842	1	8
443.012	1	11
443.183	1	3
443.353	1	6
443.524	1	10
443.694	1	6
443.865	1	12
444.035	1	7
444.206	1	10
444.376	1	13
444.547	1	23
444.717	1	8
444.888	1	-9
445.058	1	18
445.229	1	5
445.399	1	16
445.570	1	12
445.740	1	4
445.911	1	10
446.081	1	10
446.252	1	6
446.422	1	19
446.593	1	2
446.763	1	18
446.934	1	5
447.104	1	12
447.275	1	15
447.445	1	17
447.616	1	7
447.786	1	9
447.957	1	13
448.127	1	8
448.298	1	11
448.468	1	12
448.639	1	9
448.809	1	2
448.979	1	20
449.150	1	8
449.320	1	3
449.491	1	-4
449.661	1	7
449.832	1	4
450.002	1	13
450.173	1	7
450.343	1	10
450.514	1	14
450.684	1	4
450.855	1	12
451.025	1	10
451.196	1	11
451.366	1	21
451.537	1	17
451.707	1	13
451.878	1	6
452.048	1	9
452.218	1	11
452.389	1	4
452.559	1	16
452.730	1	17
452.900	1	14
453.071	1	14
453.241	1	11
453.412	1	3
453.582	1	9
453.753	1	16
453.923	1	1
454.093	1	15
454.264	1	16
454.434	1	7
454.605	1	4
454.775	1	9
454.946	1	-4
455.116	1	13
455.287	1	4
455.457	1	18
455.628	1	2
455.798	1	13
455.968	1	12
456.139	1	18
456.309	1	10
456.480	1	15
456.650	1	10
456.821	1	8
456.991	1	9
457.161	1	19
457.332	1	12
457.502	1	6
457.673	1	3
457.843	1	11
458.014	1	10
458.184	1	20
458.355	1	10
458.525	1	13
458.695	1	3
458.866	1	1
459.036	1	7
459.207	1	8
459.377	1	10
459.548	1	12
459.718	1	4
459.888	1	4
460.059	1	7
460.229	1	-3
460.400	1	4
460.570	1	11
460.740	1	8
460.911	1	5
461.081	1	14
461.252	1	26
461.422	1	5
461.593	1	13
461.763	1	22
461.933	1	2
462.104	1	-2
462.274	1	-1
462.445	1	-2
462.615	1	10
462.785	1	9
462.956	1	7
463.126	1	10
463.297	1	21
463.467	1	10
463.638	1	5
463.808	1	9
463.978	1	-1
464.149	1	11
464.319	1	16
464.490	1	-5
464.660	1	2
464.830	1	6
465.001	1	-7
465.171	1	1
465.342	1	12
465.512	1	7
465.682	1	1
465.853	1	6
466.023	1	5
466.194	1	12
466.364	1	18
466.534	1	-1
466.705	1	12
466.875	1	-5
467.045	1	1
467.216	1	10
467.386	1	3
467.557	1	27
467.727	1	9
467.897	1	8
468.068	1	-1
468.238	1	3
468.409	1	10
468.579	1	6
468.749	1	4
468.920	1	-1
469.090	1	11
469.260	1	11
469.431	1	1
469.601	1	13
469.772	1	12
469.942	1	12
470.112	1	-4
470.283	1	3
470.453	1	4
470.623	1	8
470.794	1	12
470.964	1	-1
471.135	1	6
471.305	1	9
471.475	1	11
471.646	1	3
471.816	1	10
471.986	1	2
472.157	1	4
472.327	1	16
472.497	1	3
472.668	1	11
472.838	1	1
473.009	1	11
473.179	1	8
473.349	1	-2
473.520	1	20
473.690	1	9
473.860	1	-1
474.031	1	9
474.201	1	13
474.371	1	7
474.542	1	9
474.712	1	8
474.882	1	10
475.053	1	15
475.223	1	6
475.394	1	9
475.564	1	3
475.734	1	-8
475.905	1	9
476.075	1	15
476.245	1	12
476.416	1	1
476.586	1	4
476.756	1	12
476.927	1	-3
477.097	1	2
477.267	1	8
477.438	1	14
477.608	1	12
477.778	1	3
477.949	1	4
478.119	1	8
478.289	1	3
478.460	1	1
478.630	1	-3
478.800	1	2
478.971	1	6
479.141	1	11
479.311	1	0
479.482	1	-7
479.652	1	7
479.822	1	-3
479.993	1	8
480.163	1	4
480.333	1	12
480.504	1	6
480.674	1	10
480.844	1	8
481.015	1	10
481.185	1	10
481.355	1	3
481.525	1	-3
481.696	1	8
481.866	1	12
482.036	1	18
482.207	1	9
482.377	1	4
482.547	1	9
482.718	1	2
482.888	1	9
483.058	1	6
483.229	1	5
483.399	1	9
483.569	1	-9
483.740	1	5
483.910	1	-2
484.080	1	3
484.250	1	-7
484.421	1	-5
484.591	1	-3
484.761	1	1
484.932	1	5
485.102	1	13
485.272	1	6
485.443	1	4
485.613	1	5
485.783	1	6
485.953	1	4
486.124	1	9
486.294	1	9
486.464	1	2
486.635	1	3
486.805	1	10
486.975	1	-1
487.146	1	13
487.316	1	11
487.486	1	11
487.656	1	4
487.827	1	-2
487.997	1	6
488.167	1	8
488.338	1	6
488.508	1	17
488.678	1	8
488.848	1	10
489.019	1	-4
489.189	1	7
489.359	1	0
489.529	1	1
489.700	1	-5
489.870	1	10
490.040	1	-8
490.211	1	0
490.381	1	8
490.551	1	1
490.721	1	13
490.892	1	-8
491.062	1	0
491.232	1	-1
491.402	1	2
491.573	1	7
491.743	1	-6
491.913	1	-2
492.084	1	10
492.254	1	3
492.424	1	7
492.594	1	0
492.765	1	7
492.935	1	16
493.105	1	-6
493.275	1	0
493.446	1	0
493.616	1	0
493.786	1	8
493.956	1	8
494.127	1	0
494.297	1	-2
494.467	1	-2
494.637	1	0
494.808	1	6
494.978	1	1
495.148	1	4
495.318	1	0
495.489	1	-6
495.659	1	-1
495.829	1	6
495.999	1	12
496.170	1	6
496.340	1	-3
496.510	1	12
496.680	1	-1
496.851	1	10
497.021	1	-2
497.191	1	1
497.361	1	-12
497.532	1	9
497.702	1	11
497.872	1	4
498.042	1	0
498.213	1	4
498.383	1	9
498.553	1	3
498.723	1	-5
498.894	1	2
499.064	1	-1
499.234	1	6
499.404	1	13
499.574	1	1
499.745	1	9
499.915	1	7
500.085	1	3
500.255	1	-4
500.426	1	7
500.596	1	-2
500.766	1	-12
500.936	1	-3
501.106	1	-7
501.277	1	-4
501.447	1	8
501.617	1	0
501.787	1	4
501.958	1	4
502.128	1	4
502.298	1	16
502.468	1	-10
502.638	1	-8
502.809	1	-9
502.979	1	17
503.149	1	-1
503.319	1	13
503.489	1	-14
503.660	1	6
503.830	1	4
504.000	1	6
504.170	1	0
504.340	1	-6
504.511	1	5
504.681	1	9
504.851	1	-7
505.021	1	8
505.192	1	-14
505.362	1	-2
505.532	1	3
505.702	1	11
505.872	1	0
506.043	1	16
506.213	1	10
506.383	1	4
506.553	1	3
506.723	1	-5
506.893	1	6
507.064	1	8
507.234	1	1
507.404	1	-2
507.574	1	0
507.744	1	-4
507.915	1	-5
508.085	1	2
508.255	1	1
508.425	1	0
508.595	1	-4
508.766	1	-2
508.936	1	9
509.106	1	4
509.276	1	3
509.446	1	-6
509.616	1	-1
509.787	1	9
509.957	1	13
510.127	1	-2
510.297	1	-13
510.467	1	8
510.638	1	5
510.808	1	14
510.978	1	-7
511.148	1	2
511.318	1	8
511.488	1	9
511.659	1	2
511.829	1	-2
511.999	1	4
512.169	1	4
512.339	1	8
512.509	1	-11
512.680	1	4
512.850	1	3
513.020	1	4
513.190	1	-10
513.360	1	1
513.530	1	1
513.700	1	5
513.871	1	-11
514.041	1	7
514.211	1	2
514.381	1	5
514.551	1	-7
514.721	1	-2
514.892	1	0
515.062	1	-1
515.232	1	-2
515.402	1	4
515.572	1	1
515.742	1	7
515.912	1	4
516.083	1	3
516.253	1	8
516.423	1	4
516.593	1	-2
516.763	1	7
516.933	1	-2
517.104	1	4
517.274	1	-4
517.444	1	3
517.614	1	-2
517.784	1	1
517.954	1	0
518.124	1	5
518.294	1	2
518.465	1	0
518.635	1	15
518.805	1	3
518.975	1	-2
519.145	1	4
519.315	1	3
519.485	1	-5
519.656	1	-6
519.826	1	-11
519.996	1	12
520.166	1	5
520.336	1	5
520.506	1	5
520.676	1	-2
520.846	1	2
521.017	1	0
521.187	1	3
521.357	1	0
521.527	1	5
521.697	1	-3
521.867	1	9
522.037	1	-1
522.207	1	14
522.377	1	6
522.548	1	-4
522.718	1	4
522.888	1	1
523.058	1	-7
523.228	1	-5
523.398	1	-11
523.568	1	-10
523.738	1	6
523.909	1	-2
524.079	1	6
524.249	1	-6
524.419	1	1
524.589	1	-3
524.759	1	3
524.929	1	2
525.099	1	0
525.269	1	-4
525.439	1	-6
525.610	1	12
525.780	1	6
525.950	1	7
526.120	1	-7
526.290	1	-11
526.460	1	-10
526.630	1	-7
526.800	1	-4
526.970	1	7
527.140	1	-5
527.311	1	7
527.481	1	14
527.651	1	10
527.821	1	-5
527.991	1	0
528.161	1	2
528.331	1	-8
528.501	1	-3
528.671	1	4
528.841	1	2
529.011	1	6
529.181	1	2
529.352	1	1
529.522	1	0
529.692	1	7
529.862	1	-3
530.032	1	0
530.202	1	-10
530.372	1	2
530.542	1	1
530.712	1	3
530.882	1	0
531.052	1	-3
531.222	1	1
531.392	1	4
531.563	1	11
531.733	1	-12
531.903	1	-6
532.073	1	-6
532.243	1	8
532.413	1	8
532.583	1	12
532.753	1	-10
532.923	1	9
533.093	1	-4
533.263	1	2
533.433	1	-5
533.603	1	-6
533.773	1	-3
533.943	1	-6
534.113	1	3
534.284	1	0
534.454	1	2
534.624	1	-3
534.794	1	-2
534.964	1	2
535.134	1	-4
535.304	1	11
535.474	1	7
535.644	1	5
535.814	1	3
535.984	1	0
536.154	1	7
536.324	1	3
536.494	1	9
536.664	1	0
536.834	1	2
537.004	1	1
537.174	1	19
537.344	1	7
537.514	1	-6
537.685	1	6
537.855	1	-2
538.025	1	9
538.195	1	-1
538.365	1	-3
538.535	1	5
538.705	1	10
538.875	1	5
539.045	1	6
539.215	1	-8
539.385	1	1
539.555	1	6
539.725	1	-10
539.895	1	0
540.065	1	-3
540.235	1	-1
540.405	1	-2
540.575	1	0
540.745	1	-3
540.915	1	2
541.085	1	-6
541.255	1	-2
541.425	1	-5
541.595	1	-3
541.765	1	10
541.935	1	2
542.105	1	3
542.275	1	4
542.445	1	4
542.615	1	-1
542.785	1	-4
542.955	1	5
543.125	1	-3
543.295	1	-4
543.465	1	7
543.635	1	-12
543.805	1	13
543.975	1	5
544.145	1	-6
544.315	1	-8
544.485	1	-8
544.655	1	2
544.825	1	1
544.995	1	-6
545.165	1	-4
545.335	1	3
545.505	1	-4
545.675	1	7
545.845	1	11
546.015	1	-8
546.185	1	-4
546.355	1	-7
546.525	1	6
546.695	1	-10
546.865	1	-4
547.035	1	2
547.205	1	11
547.375	1	10
547.545	1	4
547.715	1	3
547.885	1	-6
548.055	1	-13
548.225	1	7
548.395	1	1
548.565	1	1
548.735	1	0
548.905	1	4
549.075	1	-3
549.245	1	5
549.415	1	5
549.585	1	4
549.755	1	-6
549.925	1	-4
550.095	1	-6
550.265	1	-7
550.435	1	1
550.605	1	0
550.775	1	4
550.945	1	-2
551.115	1	5
551.285	1	-2
551.455	1	3
551.625	1	-10
551.795	1	-5
551.965	1	-10
552.135	1	-2
552.305	1	3
552.475	1	7
552.645	1	4
552.815	1	-6
552.985	1	2
553.155	1	-7
553.325	1	-3
553.495	1	2
553.665	1	-1
553.835	1	6
554.004	1	3
554.174	1	-6
554.344	1	1
554.514	1	-10
554.684	1	-1
554.854	1	-11
555.024	1	3
555.194	1	4
555.364	1	0
555.534	1	-8
555.704	1	-3
555.874	1	9
556.044	1	1
556.214	1	0
556.384	1	2
556.554	1	7
556.724	1	-3
556.894	1	-7
557.064	1	-3
557.234	1	8
557.404	1	0
557.573	1	2
557.743	1	2
557.913	1	-3
558.083	1	-4
558.253	1	-1
558.423	1	-3
558.593	1	6
558.763	1	-2
558.933	1	-5
559.103	1	-6
559.273	1	8
559.443	1	5
559.613	1	4
559.783	1	-1
559.953	1	-9
560.122	1	-4
560.292	1	-18
560.462	1	-2
560.632	1	-11
560.802	1	-3
560.972	1	-5
561.142	1	2
561.312	1	-4
561.482	1	11
561.652	1	-7
561.822	1	-5
561.992	1	3
562.162	1	3
562.331	1	-7
562.501	1	4
562.671	1	-6
562.841	1	-11
563.011	1	-5
563.181	1	-7
563.351	1	-5
563.521	1	0
563.691	1	-1
563.861	1	3
564.031	1	-5
564.201	1	0
564.370	1	2
564.540	1	-10
564.710	1	-4
564.880	1	-4
565.050	1	5
565.220	1	10
565.390	1	3
565.560	1	2
565.730	1	7
565.900	1	7
566.069	1	14
566.239	1	4
566.409	1	9
566.579	1	6
566.749	1	-2
566.919	1	-10
567.089	1	-17
567.259	1	7
567.429	1	-8
567.599	1	14
567.768	1	-1
567.938	1	0
568.108	1	-8
568.278	1	3
568.448	1	1
568.618	1	3
568.788	1	3
568.958	1	-2
569.128	1	1
569.297	1	1
569.467	1	8
569.637	1	6
569.807	1	7
569.977	1	-2
570.147	1	-11
570.317	1	-5
570.487	1	-6
570.656	1	2
570.826	1	-4
570.996	1	8
571.166	1	-4
571.336	1	-7
571.506	1	-6
571.676	1	2
571.846	1	0
572.015	1	0
572.185	1	6
572.355	1	2
572.525	1	-9
572.695	1	3
572.865	1	-4
573.035	1	0
573.205	1	2
573.374	1	-7
573.544	1	-4
573.714	1	-15
573.884	1	-7
574.054	1	3
574.224	1	2
574.394	1	1
574.563	1	-4
574.733	1	-9
574.903	1	-2
575.073	1	12
575.243	1	-7
575.413	1	-5
575.583	1	-3
575.752	1	0
575.922	1	2
576.092	1	-8
576.262	1	6
576.432	1	1
576.602	1	-1
576.772	1	-6
576.941	1	1
577.111	1	-2
577.281	1	2
577.451	1	-3
577.621	1	5
577.791	1	-1
577.960	1	-5
578.130	1	2
578.300	1	11
578.470	1	3
578.640	1	2
578.810	1	-5
578.979	1	-6
579.149	1	-6
579.319	1	-5
579.489	1	3
579.659	1	-6
579.829	1	-12
579.998	1	-13
580.168	1	-4
580.338	1	-2
580.508	1	0
580.678	1	3
580.848	1	5
581.017	1	-7
581.187	1	1
581.357	1	1
581.527	1	2
581.697	1	0
581.867	1	0
582.036	1	-7
582.206	1	-1
582.376	1	4
582.546	1	-2
582.716	1	8
582.885	1	-9
583.055	1	-10
583.225	1	-9
583.395	1	4
583.565	1	3
583.735	1	3
583.904	1	2
584.074	1	-2
584.244	1	-2
584.414	1	-2
584.584	1	-8
584.753	1	0
584.923	1	-10
585.093	1	-1
585.263	1	3
585.433	1	2
585.602	1	-3
585.772	1	5
585.942	1	-1
586.112	1	1
586.282	1	-2
586.451	1	5
586.621	1	1
586.791	1	-7
586.961	1	-5
587.131	1	-8
587.300	1	10
587.470	1	-15
587.640	1	-11
587.810	1	-16
587.980	1	-7
588.149	1	6
588.319	1	3
588.489	1	8
588.659	1	-9
588.829	1	3
588.998	1	-4
589.168	1	-1
589.338	1	-11
589.508	1	-4
589.677	1	-2
589.847	1	10
590.017	1	-11
590.187	1	1
590.357	1	-7
590.526	1	-5
590.696	1	-1
590.866	1	-10
591.036	1	-3
591.205	1	8
591.375	1	5
591.545	1	-1
591.715	1	-3
591.885	1	9
592.054	1	-1
592.224	1	-5
592.394	1	-2
592.564	1	-2
592.733	1	2
592.903	1	-15
593.073	1	-2
593.243	1	9
593.412	1	-9
593.582	1	0
593.752	1	-9
593.922	1	3
594.091	1	4
594.261	1	-12
594.431	1	1
594.601	1	-10
594.771	1	2
594.940	1	2
595.110	1	3
595.280	1	2
595.450	1	3
595.619	1	1
595.789	1	-9
595.959	1	-6
596.129	1	8
596.298	1	9
596.468	1	9
596.638	1	3
596.808	1	-11
596.977	1	-4
597.147	1	0
597.317	1	-3
597.487	1	5
597.656	1	8
597.826	1	7
597.996	1	0
598.166	1	-2
598.335	1	-8
598.505	1	1
598.675	1	13
598.844	1	14
599.014	1	-2
599.184	1	2
599.354	1	10
599.523	1	0
599.693	1	-5
599.863	1	8
600.033	1	-2
600.202	1	-3
600.372	1	-7
600.542	1	-4
600.712	1	-7
600.881	1	-4
601.051	1	12
601.221	1	7
601.390	1	-2
601.560	1	-3
601.730	1	5
601.900	1	5
602.069	1	2
602.239	1	-6
602.409	1	-2
602.578	1	0
602.748	1	3
602.918	1	-1
603.088	1	5
603.257	1	-7
603.427	1	5
603.597	1	-6
603.767	1	7
603.936	1	-2
604.106	1	-2
604.276	1	-1
604.445	1	0
604.615	1	-3
604.785	1	8
604.954	1	-4
605.124	1	0
605.294	1	0
605.464	1	-3
605.633	1	-3
605.803	1	-3
605.973	1	6
606.142	1	7
606.312	1	5
606.482	1	-1
606.652	1	3
606.821	1	-9
606.991	1	1
607.161	1	2
607.330	1	-6
607.500	1	-8
607.670	1	6
607.839	1	2
608.009	1	-4
608.179	1	-1
608.348	1	-4
608.518	1	7
608.688	1	-6
608.858	1	-7
609.027	1	7
609.197	1	7
609.367	1	-4
609.536	1	-3
609.706	1	13
609.876	1	0
610.045	1	-2
610.215	1	-1
610.385	1	1
610.554	1	-6
610.724	1	1
610.894	1	0
611.063	1	-2
611.233	1	1
611.403	1	1
611.572	1	4
611.742	1	-14
611.912	1	3
612.081	1	0
612.251	1	-4
612.421	1	1
612.590	1	-1
612.760	1	4
612.930	1	10
613.099	1	8
613.269	1	-4
613.439	1	-15
613.608	1	7
613.778	1	2
613.948	1	9
614.117	1	-7
614.287	1	-1
614.457	1	-1
614.626	1	-3
614.796	1	0
614.966	1	2
615.135	1	7
615.305	1	0
615.475	1	-1
615.644	1	7
615.814	1	5
615.984	1	-5
616.153	1	-3
616.323	1	-6
616.493	1	1
616.662	1	2
616.832	1	10
617.002	1	5
617.171	1	2
617.341	1	11
617.511	1	-9
617.680	1	-9
617.850	1	1
618.019	1	-5
618.189	1	10
618.359	1	-1
618.528	1	-4
618.698	1	4
618.868	1	-4
619.037	1	5
619.207	1	3
619.377	1	2
619.546	1	4
619.716	1	5
619.885	1	9
620.055	1	1
620.225	1	-1
620.394	1	10
620.564	1	-6
620.734	1	5
620.903	1	-3
621.073	1	3
621.242	1	-1
621.412	1	2
621.582	1	2
621.751	1	1
621.921	1	-5
622.091	1	6
622.260	1	2
622.430	1	-2
622.599	1	-4
622.769	1	-4
622.939	1	-8
623.108	1	-1
623.278	1	-3
623.448	1	4
623.617	1	-7
623.787	1	-1
623.956	1	2
624.126	1	1
624.296	1	3
624.465	1	2
624.635	1	-1
624.804	1	-8
624.974	1	-9
625.144	1	0
625.313	1	10
625.483	1	8
625.652	1	0
625.822	1	5
625.992	1	0
626.161	1	0
626.331	1	6
626.501	1	-2
626.670	1	-3
626.840	1	-2
627.009	1	6
627.179	1	5
627.348	1	-5
627.518	1	1
627.688	1	-6
627.857	1	10
628.027	1	-4
628.196	1	-1
628.366	1	-9
628.536	1	1
628.705	1	0
628.875	1	-4
629.044	1	-6
629.214	1	6
629.384	1	15
629.553	1	-2
629.723	1	0
629.892	1	9
630.062	1	3
630.232	1	12
630.401	1	-6
630.571	1	-3
630.740	1	2
630.910	1	7
631.079	1	2
631.249	1	-4
631.419	1	-4
631.588	1	2
631.758	1	-8
631.927	1	11
632.097	1	-6
632.266	1	13
632.436	1	-2
632.606	1	7
632.775	1	2
632.945	1	-1
633.114	1	-10
633.284	1	0
633.453	1	3
633.623	1	1
633.793	1	-4
633.962	1	7
634.132	1	8
634.301	1	3
634.471	1	-6
634.640	1	-12
634.810	1	3
634.979	1	1
635.149	1	-6
635.319	1	-1
635.488	1	-1
635.658	1	11
635.827	1	-6
635.997	1	5
636.166	1	-6
636.336	1	-6
636.505	1	-1
636.675	1	-5
636.845	1	-1
637.014	1	-11
637.184	1	9
637.353	1	5
637.523	1	-4
637.692	1	2
637.862	1	-7
638.031	1	-11
638.201	1	3
638.370	1	-2
638.540	1	-6
638.710	1	-6
638.879	1	-4
639.049	1	-1
639.218	1	2
639.388	1	4
639.557	1	-1
639.727	1	0
639.896	1	1
640.066	1	-9
640.235	1	-3
640.405	1	1
640.574	1	8
640.744	1	-13
640.914	1	3
641.083	1	11
641.253	1	-9
641.422	1	-3
641.592	1	-2
641.761	1	2
641.931	1	10
642.100	1	-2
642.270	1	1
642.439	1	1
642.609	1	2
642.778	1	-8
642.948	1	21
643.117	1	10
643.287	1	2
643.456	1	-8
643.626	1	-2
643.795	1	-2
643.965	1	8
644.134	1	-2
644.304	1	3
644.473	1	10
644.643	1	7
644.812	1	-7
644.982	1	3
645.151	1	1
645.321	1	-2
645.490	1	4
645.660	1	-6
645.829	1	1
645.999	1	-9
646.168	1	17
646.338	1	-7
646.507	1	-4
646.677	1	-2
646.846	1	2
647.016	1	5
647.185	1	-1
647.355	1	12
647.524	1	-10
647.694	1	-1
647.863	1	0
648.033	1	12
648.202	1	7
648.372	1	-5
648.541	1	3
648.711	1	-1
648.880	1	-1
649.050	1	-3
649.219	1	1
649.389	1	-8
649.558	1	3
649.728	1	-4
649.897	1	5
650.067	1	7
650.236	1	0
650.406	1	-5
650.575	1	1
650.745	1	-6
650.914	1	8
651.084	1	0
651.253	1	8
651.423	1	-12
651.592	1	7
651.762	1	-4
651.931	1	10
652.101	1	-1
652.270	1	1
652.440	1	1
652.609	1	2
652.778	1	2
652.948	1	12
653.117	1	0
653.287	1	-12
653.456	1	1
653.626	1	-1
653.795	1	2
653.965	1	2
654.134	1	-9
654.304	1	3
654.473	1	0
654.643	1	-4
654.812	1	11
654.982	1	1
655.151	1	3
655.320	1	4
655.490	1	-6
655.659	1	9
655.829	1	6
655.998	1	1
656.168	1	-8
656.337	1	7
656.507	1	-2
656.676	1	-4
656.846	1	-2
657.015	1	7
657.184	1	-4
657.354	1	1
657.523	1	-4
657.693	1	7
657.862	1	-6
658.032	1	-2
658.201	1	-12
658.371	1	1
658.540	1	-8
658.709	1	7
658.879	1	2
659.048	1	7
659.218	1	-3
659.387	1	7
659.557	1	2
659.726	1	1
659.895	1	0
660.065	1	-4
660.234	1	-10
660.404	1	4
660.573	1	-4
660.743	1	-3
660.912	1	1
661.081	1	2
661.251	1	-5
661.420	1	4
661.590	1	5
661.759	1	2
661.929	1	-7
662.098	1	3
662.267	1	-5
662.437	1	1
662.606	1	-10
662.776	1	2
662.945	1	9
663.115	1	13
663.284	1	-2
663.453	1	-4
663.623	1	-1
663.792	1	2
663.962	1	7
664.131	1	-4
664.300	1	4
664.470	1	-1
664.639	1	7
664.809	1	3
664.978	1	7
665.148	1	-1
665.317	1	4
665.486	1	0
665.656	1	-1
665.825	1	9
665.995	1	-15
666.164	1	8
666.333	1	-1
666.503	1	0
666.672	1	1
666.842	1	-1
667.011	1	1
667.180	1	-3
667.350	1	-2
667.519	1	4
667.689	1	3
667.858	1	-1
668.027	1	-5
668.197	1	-14
668.366	1	5
668.536	1	0
668.705	1	-12
668.874	1	8
669.044	1	4
669.213	1	7
669.382	1	6
669.552	1	10
669.721	1	1
669.891	1	0
670.060	1	6
670.229	1	2
670.399	1	2
670.568	1	1
670.738	1	-5
670.907	1	3
671.076	1	4
671.246	1	9
671.415	1	9
671.584	1	6
671.754	1	-11
671.923	1	-2
672.093	1	-1
672.262	1	-10
672.431	1	3
672.601	1	-6
672.770	1	-1
672.939	1	2
673.109	1	0
673.278	1	1
673.448	1	-3
673.617	1	0
673.786	1	-9
