325.333	1	8
325.504	1	-5
325.675	1	13
325.846	1	0
326.017	1	7
326.188	1	-3
326.359	1	8
326.531	1	-9
326.702	1	-1
326.873	1	12
327.044	1	10
327.215	1	-5
327.386	1	0
327.557	1	-6
327.728	1	-11
327.899	1	4
328.070	1	5
328.241	1	-3
328.412	1	3
328.583	1	-1
328.754	1	11
328.926	1	6
329.097	1	-9
329.268	1	11
329.439	1	0
329.610	1	3
329.781	1	2
329.952	1	3
330.123	1	-1
330.294	1	9
330.465	1	-6
330.636	1	-1
330.807	1	8
330.978	1	-1
331.149	1	0
331.320	1	1
331.492	1	3
331.663	1	3
331.834	1	5
332.005	1	7
332.176	1	10
332.347	1	-1
332.518	1	4
332.689	1	3
332.860	1	2
333.031	1	9
333.202	1	-7
333.373	1	0
333.544	1	8
333.715	1	0
333.886	1	3
334.057	1	-3
334.228	1	12
334.399	1	10
334.570	1	-3
334.741	1	2
334.912	1	4
335.084	1	12
335.255	1	1
335.426	1	7
335.597	1	1
335.768	1	3
335.939	1	11
336.110	1	-1
336.281	1	2
336.452	1	10
336.623	1	5
336.794	1	-6
336.965	1	2
337.136	1	3
337.307	1	-2
337.478	1	2
337.649	1	0
337.820	1	2
337.991	1	-5
338.162	1	-1
338.333	1	-7
338.504	1	10
338.675	1	-4
338.846	1	-7
339.017	1	7
339.188	1	1
339.359	1	2
339.530	1	-4
339.701	1	0
339.872	1	14
340.043	1	4
340.214	1	8
340.385	1	0
340.556	1	6
340.727	1	6
340.898	1	14
341.069	1	-9
341.240	1	-1
341.411	1	2
341.582	1	0
341.753	1	-1
341.924	1	13
342.095	1	3
342.266	1	2
342.437	1	-1
342.608	1	-6
342.779	1	-6
342.950	1	-4
343.121	1	5
343.292	1	2
343.463	1	18
343.634	1	-2
343.805	1	11
343.976	1	15
344.147	1	6
344.318	1	-13
344.489	1	-2
344.660	1	7
344.831	1	7
345.002	1	3
345.173	1	-9
345.344	1	6
345.515	1	5
345.686	1	-3
345.857	1	6
346.028	1	4
346.199	1	0
346.370	1	4
346.541	1	-1
346.712	1	3
346.883	1	-7
347.054	1	6
347.225	1	3
347.396	1	6
347.567	1	-8
347.738	1	11
347.909	1	12
348.080	1	-7
348.251	1	5
348.422	1	14
348.593	1	5
348.764	1	9
348.935	1	5
349.106	1	1
349.277	1	-1
349.448	1	1
349.619	1	-1
349.790	1	9
349.961	1	-10
350.132	1	6
350.303	1	3
350.474	1	9
350.645	1	10
350.816	1	7
350.987	1	7
351.157	1	2
351.328	1	-3
351.499	1	-1
351.670	1	3
351.841	1	6
352.012	1	3
352.183	1	21
352.354	1	7
352.525	1	12
352.696	1	2
352.867	1	2
353.038	1	0
353.209	1	-2
353.380	1	6
353.551	1	4
353.722	1	8
353.893	1	12
354.064	1	10
354.235	1	0
354.406	1	-5
354.576	1	3
354.747	1	10
354.918	1	-1
355.089	1	1
355.260	1	6
355.431	1	-3
355.602	1	4
355.773	1	8
355.944	1	10
356.115	1	12
356.286	1	14
356.457	1	-1
356.628	1	4
356.799	1	3
356.970	1	13
357.141	1	7
357.311	1	18
357.482	1	0
357.653	1	1
357.824	1	12
357.995	1	8
358.166	1	-2
358.337	1	5
358.508	1	6
358.679	1	0
358.850	1	8
359.021	1	10
359.192	1	16
359.363	1	5
359.533	1	7
359.704	1	1
359.875	1	0
360.046	1	6
360.217	1	6
360.388	1	15
360.559	1	10
360.730	1	-3
360.901	1	10
361.072	1	7
361.243	1	3
361.414	1	19
361.584	1	-6
361.755	1	4
361.926	1	10
362.097	1	6
362.268	1	8
362.439	1	-7
362.610	1	11
362.781	1	5
362.952	1	10
363.123	1	-8
363.293	1	1
363.464	1	-4
363.635	1	5
363.806	1	7
363.977	1	9
364.148	1	12
364.319	1	-3
364.490	1	9
364.661	1	3
364.832	1	4
365.002	1	4
365.173	1	9
365.344	1	6
365.515	1	5
365.686	1	7
365.857	1	12
366.028	1	12
366.199	1	9
366.370	1	14
366.540	1	3
366.711	1	5
366.882	1	4
367.053	1	0
367.224	1	5
367.395	1	14
367.566	1	15
367.737	1	7
367.908	1	3
368.078	1	8
368.249	1	15
368.420	1	2
368.591	1	7
368.762	1	16
368.933	1	2
369.104	1	10
369.274	1	12
369.445	1	9
369.616	1	-1
369.787	1	2
369.958	1	5
370.129	1	9
370.300	1	9
370.471	1	7
370.641	1	10
370.812	1	8
370.983	1	3
371.154	1	8
371.325	1	5
371.496	1	6
371.667	1	18
371.837	1	16
372.008	1	-3
372.179	1	6
372.350	1	4
372.521	1	7
372.692	1	2
372.863	1	6
373.033	1	11
373.204	1	2
373.375	1	8
373.546	1	7
373.717	1	8
373.888	1	10
374.059	1	7
374.229	1	7
374.400	1	2
374.571	1	7
374.742	1	9
374.913	1	-4
375.084	1	3
375.254	1	4
375.425	1	7
375.596	1	7
375.767	1	14
375.938	1	7
376.109	1	0
376.279	1	2
376.450	1	3
376.621	1	17
376.792	1	6
376.963	1	8
377.134	1	8
377.304	1	16
377.475	1	4
377.646	1	-2
377.817	1	5
377.988	1	-1
378.159	1	9
378.329	1	12
378.500	1	17
378.671	1	5
378.842	1	14
379.013	1	12
379.184	1	5
379.354	1	7
379.525	1	14
379.696	1	9
379.867	1	-1
380.038	1	3
380.209	1	13
380.379	1	9
380.550	1	0
380.721	1	8
380.892	1	2
381.063	1	12
381.233	1	3
381.404	1	6
381.575	1	6
381.746	1	17
381.917	1	4
382.087	1	15
382.258	1	9
382.429	1	6
382.600	1	5
382.771	1	6
382.941	1	6
383.112	1	13
383.283	1	4
383.454	1	10
383.625	1	6
383.795	1	3
383.966	1	11
384.137	1	14
384.308	1	9
384.479	1	5
384.649	1	6
384.820	1	15
384.991	1	8
385.162	1	14
385.333	1	7
385.503	1	3
385.674	1	16
385.845	1	11
386.016	1	13
386.187	1	-6
386.357	1	16
386.528	1	12
386.699	1	7
386.870	1	10
387.041	1	22
387.211	1	10
387.382	1	11
387.553	1	17
387.724	1	5
387.894	1	-3
388.065	1	16
388.236	1	9
388.407	1	3
388.578	1	8
388.748	1	17
388.919	1	12
389.090	1	15
389.261	1	10
389.431	1	5
389.602	1	10
389.773	1	10
389.944	1	6
390.114	1	15
390.285	1	17
390.456	1	3
390.627	1	12
390.798	1	2
390.968	1	11
391.139	1	10
391.310	1	4
391.481	1	16
391.651	1	20
391.822	1	30
391.993	1	7
392.164	1	16
392.334	1	3
392.505	1	15
392.676	1	6
392.847	1	0
393.017	1	6
393.188	1	11
393.359	1	20
393.530	1	26
393.700	1	6
393.871	1	19
394.042	1	6
394.213	1	12
394.383	1	5
394.554	1	5
394.725	1	1
394.896	1	16
395.066	1	16
395.237	1	16
395.408	1	15
395.579	1	11
395.749	1	14
395.920	1	21
396.091	1	12
396.262	1	1
396.432	1	9
396.603	1	6
396.774	1	5
396.945	1	15
397.115	1	10
397.286	1	18
397.457	1	8
397.627	1	2
397.798	1	10
397.969	1	19
398.140	1	8
398.310	1	11
398.481	1	15
398.652	1	12
398.823	1	10
398.993	1	11
399.164	1	10
399.335	1	4
399.505	1	-5
399.676	1	9
399.847	1	9
400.018	1	-1
400.188	1	11
400.359	1	14
400.530	1	13
400.700	1	17
400.871	1	16
401.042	1	9
401.213	1	13
401.383	1	6
401.554	1	14
401.725	1	9
401.895	1	3
402.066	1	9
402.237	1	12
402.408	1	15
402.578	1	13
402.749	1	6
402.920	1	19
403.090	1	27
403.261	1	6
403.432	1	7
403.603	1	11
403.773	1	15
403.944	1	15
404.115	1	18
404.285	1	14
404.456	1	13
404.627	1	13
404.797	1	10
404.968	1	5
405.139	1	17
405.310	1	2
405.480	1	4
405.651	1	1
405.822	1	4
405.992	1	12
406.163	1	4
406.334	1	4
406.504	1	9
406.675	1	14
406.846	1	14
407.016	1	16
407.187	1	20
407.358	1	6
407.528	1	19
407.699	1	18
407.870	1	15
408.041	1	13
408.211	1	19
408.382	1	10
408.553	1	23
408.723	1	26
408.894	1	12
409.065	1	3
409.235	1	23
409.406	1	-1
409.577	1	9
409.747	1	11
409.918	1	20
410.089	1	18
410.259	1	9
410.430	1	17
410.601	1	17
410.771	1	18
410.942	1	17
411.113	1	14
411.283	1	8
411.454	1	16
411.625	1	20
411.795	1	19
411.966	1	9
412.137	1	19
412.307	1	11
412.478	1	20
412.649	1	12
412.819	1	23
412.990	1	11
413.161	1	15
413.331	1	13
413.502	1	5
413.672	1	11
413.843	1	10
414.014	1	13
414.184	1	14
414.355	1	13
414.526	1	16
414.696	1	7
414.867	1	0
415.038	1	6
415.208	1	9
415.379	1	7
415.550	1	12
415.720	1	3
415.891	1	22
416.062	1	17
416.232	1	17
416.403	1	11
416.573	1	8
416.744	1	23
416.915	1	1
417.085	1	19
417.256	1	13
417.427	1	7
417.597	1	11
417.768	1	2
417.939	1	-2
418.109	1	17
418.280	1	10
418.450	1	16
418.621	1	14
418.792	1	13
418.962	1	11
419.133	1	15
419.304	1	0
419.474	1	24
419.645	1	10
419.815	1	12
419.986	1	20
420.157	1	11
420.327	1	9
420.498	1	5
420.669	1	22
420.839	1	13
421.010	1	6
421.180	1	9
421.351	1	12
421.522	1	3
421.692	1	13
421.863	1	14
422.033	1	15
422.204	1	20
422.375	1	13
422.545	1	25
422.716	1	3
422.886	1	16
423.057	1	21
423.228	1	20
423.398	1	12
423.569	1	6
423.740	1	17
423.910	1	9
424.081	1	20
424.251	1	12
424.422	1	11
424.593	1	15
424.763	1	22
424.934	1	22
425.104	1	22
425.275	1	12
425.445	1	14
425.616	1	10
425.787	1	6
425.957	1	3
426.128	1	10
426.298	1	22
426.469	1	8
426.640	1	12
426.810	1	1
426.981	1	16
427.151	1	9
427.322	1	9
427.493	1	11
427.663	1	15
427.834	1	14
428.004	1	25
428.175	1	18
428.345	1	-3
428.516	1	6
428.687	1	25
428.857	1	13
429.028	1	7
429.198	1	4
429.369	1	10
429.540	1	13
429.710	1	7
429.881	1	13
430.051	1	11
430.222	1	9
430.392	1	15
430.563	1	1
430.734	1	10
430.904	1	16
431.075	1	7
431.245	1	6
431.416	1	24
431.586	1	3
431.757	1	22
431.927	1	5
432.098	1	15
432.269	1	1
432.439	1	9
432.610	1	18
432.780	1	22
432.951	1	8
433.121	1	5
433.292	1	18
433.462	1	14
433.633	1	5
433.804	1	11
433.974	1	5
434.145	1	19
434.315	1	1
434.486	1	6
434.656	1	12
434.827	1	11
434.997	1	15
435.168	1	9
435.339	1	26
435.509	1	10
435.680	1	19
435.850	1	4
436.021	1	2
436.191	1	17
436.362	1	12
436.532	1	13
436.703	1	4
436.873	1	8
437.044	1	18
437.214	1	6
437.385	1	10
437.556	1	11
437.726	1	14
437.897	1	10
438.067	1	11
438.238	1	11
438.408	1	9
438.579	1	4
438.749	1	12
438.920	1	20
439.090	1	10
439.261	1	15
439.431	1	6
439.602	1	17
439.772	1	10
439.943	1	7
440.113	1	10
440.284	1	25
440.455	1	-1
440.625	1	12
440.796	1	5
440.966	1	20
441.137	1	-1
441.307	1	14
441.478	1	7
441.648	1	7
441.819	1	4
441.989	1	18
442.160	1	11
442.330	1	4
442.501	1	3
442.671	1	10
442.842	1	17
443.012	1	6
443.183	1	13
443.353	1	15
443.524	1	9
443.694	1	11
443.865	1	19
444.035	1	7
444.206	1	0
444.376	1	5
444.547	1	22
444.717	1	8
444.888	1	-6
445.058	1	11
445.229	1	10
445.399	1	13
445.570	1	-2
445.740	1	8
445.911	1	8
446.081	1	13
446.252	1	12
446.422	1	10
446.593	1	9
446.763	1	7
446.934	1	8
447.104	1	0
447.275	1	6
447.445	1	6
447.616	1	6
447.786	1	2
447.957	1	13
448.127	1	8
448.298	1	10
448.468	1	8
448.639	1	8
448.809	1	5
448.979	1	12
449.150	1	6
449.320	1	19
449.491	1	-1
449.661	1	-2
449.832	1	4
450.002	1	2
450.173	1	11
450.343	1	5
450.514	1	15
450.684	1	8
450.855	1	12
451.025	1	0
451.196	1	3
451.366	1	21
451.537	1	23
451.707	1	11
451.878	1	5
452.048	1	2
452.218	1	8
452.389	1	12
452.559	1	22
452.730	1	15
452.900	1	-1
453.071	1	21
453.241	1	6
453.412	1	14
453.582	1	5
453.753	1	10
453.923	1	3
454.093	1	6
454.264	1	16
454.434	1	12
454.605	1	7
454.775	1	11
454.946	1	8
455.116	1	3
455.287	1	6
455.457	1	12
455.628	1	-3
455.798	1	15
455.968	1	10
456.139	1	19
456.309	1	8
456.480	1	11
456.650	1	3
456.821	1	12
456.991	1	18
457.161	1	10
457.332	1	13
457.502	1	6
457.673	1	-4
457.843	1	7
458.014	1	11
458.184	1	24
458.355	1	17
458.525	1	0
458.695	1	4
458.866	1	6
459.036	1	4
459.207	1	17
459.377	1	13
459.548	1	3
459.718	1	-6
459.888	1	2
460.059	1	2
460.229	1	-4
460.400	1	7
460.570	1	3
460.740	1	14
460.911	1	-1
461.081	1	12
461.252	1	1
461.422	1	8
461.593	1	12
461.763	1	17
461.933	1	7
462.104	1	7
462.274	1	2
462.445	1	3
462.615	1	23
462.785	1	13
462.956	1	1
463.126	1	4
463.297	1	11
463.467	1	19
463.638	1	5
463.808	1	8
463.978	1	1
464.149	1	5
464.319	1	7
464.490	1	6
464.660	1	4
464.830	1	0
465.001	1	8
465.171	1	1
465.342	1	-2
465.512	1	14
465.682	1	4
465.853	1	5
466.023	1	16
466.194	1	10
466.364	1	17
466.534	1	-8
466.705	1	11
466.875	1	2
467.045	1	8
467.216	1	7
467.386	1	0
467.557	1	6
467.727	1	3
467.897	1	4
468.068	1	-6
468.238	1	4
468.409	1	5
468.579	1	0
468.749	1	6
468.920	1	4
469.090	1	5
469.260	1	2
469.431	1	1
469.601	1	4
469.772	1	17
469.942	1	2
470.112	1	-3
470.283	1	16
470.453	1	5
470.623	1	14
470.794	1	5
470.964	1	-1
471.135	1	8
471.305	1	10
471.475	1	8
471.646	1	9
471.816	1	1
471.986	1	3
472.157	1	1
472.327	1	12
472.497	1	7
472.668	1	2
472.838	1	3
473.009	1	8
473.179	1	7
473.349	1	-2
473.520	1	17
473.690	1	1
473.860	1	1
474.031	1	-1
474.201	1	8
474.371	1	11
474.542	1	0
474.712	1	12
474.882	1	7
475.053	1	4
475.223	1	4
475.394	1	-4
475.564	1	4
475.734	1	0
475.905	1	13
476.075	1	12
476.245	1	9
476.416	1	-1
476.586	1	0
476.756	1	10
476.927	1	3
477.097	1	4
477.267	1	5
477.438	1	13
477.608	1	19
477.778	1	2
477.949	1	-2
478.119	1	10
478.289	1	11
478.460	1	5
478.630	1	-6
478.800	1	-10
478.971	1	-5
479.141	1	8
479.311	1	7
479.482	1	3
479.652	1	1
479.822	1	-5
479.993	1	1
480.163	1	-1
480.333	1	11
480.504	1	3
480.674	1	4
480.844	1	4
481.015	1	16
481.185	1	13
481.355	1	3
481.525	1	4
481.696	1	4
481.866	1	6
482.036	1	3
482.207	1	7
482.377	1	-4
482.547	1	-1
482.718	1	2
482.888	1	8
483.058	1	10
483.229	1	6
483.399	1	8
483.569	1	0
483.740	1	9
483.910	1	-6
484.080	1	-1
484.250	1	-1
484.421	1	4
484.591	1	-5
484.761	1	1
484.932	1	0
485.102	1	6
485.272	1	0
485.443	1	6
485.613	1	0
485.783	1	1
485.953	1	7
486.124	1	-4
486.294	1	10
486.464	1	13
486.635	1	5
486.805	1	7
486.975	1	-2
487.146	1	8
487.316	1	7
487.486	1	11
487.656	1	7
487.827	1	0
487.997	1	-11
488.167	1	7
488.338	1	-2
488.508	1	12
488.678	1	-3
488.848	1	13
489.019	1	-1
489.189	1	8
489.359	1	-5
489.529	1	7
489.700	1	7
489.870	1	13
490.040	1	2
490.211	1	5
490.381	1	-4
490.551	1	3
490.721	1	5
490.892	1	-9
491.062	1	-1
491.232	1	3
491.402	1	1
491.573	1	5
491.743	1	-2
491.913	1	6
492.084	1	2
492.254	1	-1
492.424	1	-9
492.594	1	4
492.765	1	2
492.935	1	9
493.105	1	0
493.275	1	7
493.446	1	-6
493.616	1	-7
493.786	1	4
493.956	1	3
494.127	1	5
494.297	1	-9
494.467	1	-2
494.637	1	-1
494.808	1	4
494.978	1	1
495.148	1	-4
495.318	1	1
495.489	1	3
495.659	1	4
495.829	1	7
495.999	1	5
496.170	1	13
496.340	1	-5
496.510	1	13
496.680	1	8
496.851	1	6
497.021	1	-2
497.191	1	3
497.361	1	-12
497.532	1	4
497.702	1	9
497.872	1	-1
498.042	1	5
498.213	1	-4
498.383	1	-9
498.553	1	8
498.723	1	4
498.894	1	6
499.064	1	-3
499.234	1	12
499.404	1	9
499.574	1	12
499.745	1	6
499.915	1	2
500.085	1	-1
500.255	1	-11
500.426	1	4
500.596	1	-11
500.766	1	-2
500.936	1	-8
501.106	1	2
501.277	1	-10
501.447	1	7
501.617	1	-12
501.787	1	1
501.958	1	-4
502.128	1	3
502.298	1	3
502.468	1	2
502.638	1	11
502.809	1	-1
502.979	1	3
503.149	1	3
503.319	1	10
503.489	1	-11
503.660	1	1
503.830	1	4
504.000	1	0
504.170	1	3
504.340	1	-8
504.511	1	3
504.681	1	-6
504.851	1	-2
505.021	1	-3
505.192	1	-8
505.362	1	-4
505.532	1	-8
505.702	1	14
505.872	1	0
506.043	1	11
506.213	1	10
506.383	1	5
506.553	1	5
506.723	1	-1
506.893	1	12
507.064	1	-2
507.234	1	4
507.404	1	-4
507.574	1	10
507.744	1	1
507.915	1	4
508.085	1	3
508.255	1	-2
508.425	1	1
508.595	1	-2
508.766	1	3
508.936	1	0
509.106	1	16
509.276	1	0
509.446	1	-3
509.616	1	-3
509.787	1	3
509.957	1	3
510.127	1	-2
510.297	1	5
510.467	1	12
510.638	1	-4
510.808	1	11
510.978	1	-11
511.148	1	8
511.318	1	9
511.488	1	5
511.659	1	-2
511.829	1	-14
511.999	1	5
512.169	1	8
512.339	1	5
512.509	1	-2
512.680	1	2
512.850	1	3
513.020	1	5
513.190	1	-10
513.360	1	3
513.530	1	1
513.700	1	-5
513.871	1	3
514.041	1	5
514.211	1	9
514.381	1	3
514.551	1	-7
514.721	1	2
514.892	1	-4
515.062	1	2
515.232	1	5
515.402	1	3
515.572	1	0
515.742	1	6
515.912	1	3
516.083	1	1
516.253	1	8
516.423	1	-3
516.593	1	5
516.763	1	5
516.933	1	-1
517.104	1	2
517.274	1	-5
517.444	1	1
517.614	1	6
517.784	1	-1
517.954	1	-7
518.124	1	10
518.294	1	8
518.465	1	-4
518.635	1	9
518.805	1	6
518.975	1	9
519.145	1	-4
519.315	1	-1
519.485	1	-5
519.656	1	-9
519.826	1	-11
519.996	1	10
520.166	1	2
520.336	1	2
520.506	1	-5
520.676	1	12
520.846	1	10
521.017	1	-3
521.187	1	3
521.357	1	-2
521.527	1	-8
521.697	1	-1
521.867	1	4
522.037	1	-3
522.207	1	6
522.377	1	0
522.548	1	-13
522.718	1	-1
522.888	1	5
523.058	1	9
523.228	1	-8
523.398	1	3
523.568	1	-10
523.738	1	0
523.909	1	-2
524.079	1	-3
524.249	1	-4
524.419	1	4
524.589	1	0
524.759	1	9
524.929	1	4
525.099	1	-1
525.269	1	3
525.439	1	5
525.610	1	10
525.780	1	2
525.950	1	-1
526.120	1	-5
526.290	1	-6
526.460	1	0
526.630	1	-1
526.800	1	-5
526.970	1	-5
527.140	1	-8
527.311	1	-10
527.481	1	2
527.651	1	4
527.821	1	-6
527.991	1	4
528.161	1	-1
528.331	1	2
528.501	1	-8
528.671	1	2
528.841	1	9
529.011	1	1
529.181	1	5
529.352	1	-11
529.522	1	-4
529.692	1	6
529.862	1	-7
530.032	1	-1
530.202	1	-9
530.372	1	5
530.542	1	-5
530.712	1	-3
530.882	1	-3
531.052	1	4
531.222	1	8
531.392	1	-5
531.563	1	1
531.733	1	1
531.903	1	-9
532.073	1	-1
532.243	1	-1
532.413	1	23
532.583	1	1
532.753	1	-1
532.923	1	1
533.093	1	-8
533.263	1	2
533.433	1	-11
533.603	1	-5
533.773	1	9
533.943	1	3
534.113	1	-7
534.284	1	5
534.454	1	-6
534.624	1	0
534.794	1	4
534.964	1	8
535.134	1	-2
535.304	1	-1
535.474	1	-1
535.644	1	8
535.814	1	2
535.984	1	8
536.154	1	-1
536.324	1	0
536.494	1	7
536.664	1	-2
536.834	1	-3
537.004	1	-2
537.174	1	-4
537.344	1	3
537.514	1	-1
537.685	1	3
537.855	1	-3
538.025	1	13
538.195	1	1
538.365	1	7
538.535	1	0
538.705	1	-1
538.875	1	-7
539.045	1	-3
539.215	1	-10
539.385	1	-1
539.555	1	6
539.725	1	-1
539.895	1	7
540.065	1	5
540.235	1	-1
540.405	1	7
540.575	1	-5
540.745	1	3
540.915	1	-5
541.085	1	3
541.255	1	6
541.425	1	-3
541.595	1	-5
541.765	1	12
541.935	1	-7
542.105	1	4
542.275	1	0
542.445	1	-3
542.615	1	-2
542.785	1	2
542.955	1	12
543.125	1	0
543.295	1	6
543.465	1	2
543.635	1	-3
543.805	1	4
543.975	1	-3
544.145	1	0
544.315	1	-10
544.485	1	6
544.655	1	0
544.825	1	3
544.995	1	-3
545.165	1	-2
545.335	1	1
545.505	1	2
545.675	1	7
545.845	1	3
546.015	1	-1
546.185	1	-3
546.355	1	6
546.525	1	5
546.695	1	-3
546.865	1	-1
547.035	1	-2
547.205	1	15
547.375	1	5
547.545	1	2
547.715	1	3
547.885	1	3
548.055	1	-13
548.225	1	9
548.395	1	-2
548.565	1	-7
548.735	1	-6
548.905	1	4
549.075	1	-6
549.245	1	2
549.415	1	-3
549.585	1	6
549.755	1	2
549.925	1	1
550.095	1	-2
550.265	1	-1
550.435	1	-4
550.605	1	-4
550.775	1	-3
550.945	1	0
551.115	1	10
551.285	1	-8
551.455	1	4
551.625	1	-8
551.795	1	-6
551.965	1	0
552.135	1	-8
552.305	1	8
552.475	1	-5
552.645	1	-4
552.815	1	1
552.985	1	2
553.155	1	-7
553.325	1	4
553.495	1	0
553.665	1	11
553.835	1	-6
554.004	1	6
554.174	1	-3
554.344	1	5
554.514	1	2
554.684	1	1
554.854	1	-12
555.024	1	6
555.194	1	-4
555.364	1	-5
555.534	1	-7
555.704	1	5
555.874	1	-2
556.044	1	1
556.214	1	-3
556.384	1	13
556.554	1	0
556.724	1	-4
556.894	1	-13
557.064	1	2
557.234	1	-4
557.404	1	-8
557.573	1	2
557.743	1	-8
557.913	1	-4
558.083	1	-2
558.253	1	2
558.423	1	5
558.593	1	-4
558.763	1	-4
558.933	1	1
559.103	1	1
559.273	1	7
559.443	1	10
559.613	1	0
559.783	1	-10
559.953	1	-12
560.122	1	-3
560.292	1	-11
560.462	1	-2
560.632	1	-5
560.802	1	-3
560.972	1	-5
561.142	1	7
561.312	1	1
561.482	1	4
561.652	1	-3
561.822	1	-3
561.992	1	8
562.162	1	-7
562.331	1	-20
562.501	1	-4
562.671	1	-1
562.841	1	-8
563.011	1	-3
563.181	1	-2
563.351	1	1
563.521	1	-7
563.691	1	6
563.861	1	-4
564.031	1	-3
564.201	1	-5
564.370	1	6
564.540	1	-3
564.710	1	2
564.880	1	3
565.050	1	-1
565.220	1	4
565.390	1	4
565.560	1	9
565.730	1	7
565.900	1	3
566.069	1	19
566.239	1	5
566.409	1	6
566.579	1	2
566.749	1	-1
566.919	1	-4
567.089	1	-13
567.259	1	0
567.429	1	-7
567.599	1	5
567.768	1	0
567.938	1	5
568.108	1	2
568.278	1	-1
568.448	1	2
568.618	1	3
568.788	1	4
568.958	1	1
569.128	1	-3
569.297	1	-2
569.467	1	9
569.637	1	6
569.807	1	9
569.977	1	-3
570.147	1	-7
570.317	1	-10
570.487	1	-7
570.656	1	-3
570.826	1	-9
570.996	1	10
571.166	1	-2
571.336	1	7
571.506	1	-1
571.676	1	9
571.846	1	-3
572.015	1	1
572.185	1	-3
572.355	1	-4
572.525	1	-8
572.695	1	-2
572.865	1	10
573.035	1	7
573.205	1	-4
573.374	1	-9
573.544	1	-3
573.714	1	-4
573.884	1	1
574.054	1	-4
574.224	1	-2
574.394	1	-10
574.563	1	-3
574.733	1	-3
574.903	1	-1
575.073	1	12
575.243	1	-9
575.413	1	-3
575.583	1	-7
575.752	1	6
575.922	1	4
576.092	1	-5
576.262	1	-1
576.432	1	0
576.602	1	-1
576.772	1	3
576.941	1	3
577.111	1	-2
577.281	1	-3
577.451	1	1
577.621	1	-3
577.791	1	4
577.960	1	-5
578.130	1	1
578.300	1	-7
578.470	1	-7
578.640	1	2
578.810	1	0
578.979	1	-4
579.149	1	-3
579.319	1	-4
579.489	1	7
579.659	1	-9
579.829	1	-2
579.998	1	-8
580.168	1	2
580.338	1	3
580.508	1	-6
580.678	1	-3
580.848	1	0
581.017	1	-4
581.187	1	1
581.357	1	0
581.527	1	4
581.697	1	0
581.867	1	-8
582.036	1	-14
582.206	1	-4
582.376	1	6
582.546	1	8
582.716	1	7
582.885	1	-8
583.055	1	-8
583.225	1	-5
583.395	1	5
583.565	1	7
583.735	1	0
583.904	1	-7
584.074	1	-2
584.244	1	-2
584.414	1	2
584.584	1	-1
584.753	1	-3
584.923	1	-14
585.093	1	2
585.263	1	-2
585.433	1	-2
585.602	1	8
585.772	1	16
585.942	1	1
586.112	1	0
586.282	1	1
586.451	1	3
586.621	1	-2
586.791	1	-2
586.961	1	-13
587.131	1	-5
587.300	1	7
587.470	1	-4
587.640	1	1
587.810	1	-13
587.980	1	0
588.149	1	8
588.319	1	2
588.489	1	-1
588.659	1	-5
588.829	1	2
588.998	1	-3
589.168	1	-5
589.338	1	0
589.508	1	7
589.677	1	-1
589.847	1	5
590.017	1	-3
590.187	1	2
590.357	1	-9
590.526	1	-7
590.696	1	-1
590.866	1	-4
591.036	1	5
591.205	1	2
591.375	1	-2
591.545	1	-14
591.715	1	-1
591.885	1	6
592.054	1	-3
592.224	1	-2
592.394	1	-3
592.564	1	-2
592.733	1	-5
592.903	1	0
593.073	1	-12
593.243	1	-3
593.412	1	-12
593.582	1	5
593.752	1	-7
593.922	1	4
594.091	1	8
594.261	1	-7
594.431	1	-2
594.601	1	-1
594.771	1	4
594.940	1	0
595.110	1	1
595.280	1	-6
595.450	1	0
595.619	1	-5
595.789	1	-1
595.959	1	-4
596.129	1	0
596.298	1	8
596.468	1	-11
596.638	1	-1
596.808	1	-7
596.977	1	-10
597.147	1	-6
597.317	1	-2
597.487	1	-2
597.656	1	0
597.826	1	7
597.996	1	4
598.166	1	1
598.335	1	2
598.505	1	-1
598.675	1	8
598.844	1	11
599.014	1	-10
599.184	1	-5
599.354	1	3
599.523	1	-8
599.693	1	8
599.863	1	8
600.033	1	0
600.202	1	2
600.372	1	-4
600.542	1	-3
600.712	1	-7
600.881	1	-3
601.051	1	7
601.221	1	4
601.390	1	-2
601.560	1	4
601.730	1	-6
601.900	1	-5
602.069	1	-9
602.239	1	5
602.409	1	1
602.578	1	3
602.748	1	9
602.918	1	-6
603.088	1	3
603.257	1	-5
603.427	1	3
603.597	1	1
603.767	1	2
603.936	1	2
604.106	1	-9
604.276	1	-9
604.445	1	-9
604.615	1	10
604.785	1	10
604.954	1	0
605.124	1	1
605.294	1	-17
605.464	1	-6
605.633	1	-4
605.803	1	7
605.973	1	-9
606.142	1	0
606.312	1	1
606.482	1	-7
606.652	1	-1
606.821	1	-9
606.991	1	3
607.161	1	-1
607.330	1	-8
607.500	1	7
607.670	1	-1
607.839	1	-5
608.009	1	-7
608.179	1	-1
608.348	1	2
608.518	1	2
608.688	1	-3
608.858	1	0
609.027	1	3
609.197	1	3
609.367	1	-6
609.536	1	-2
609.706	1	12
609.876	1	-2
610.045	1	4
610.215	1	2
610.385	1	1
610.554	1	-2
610.724	1	-1
610.894	1	3
611.063	1	2
611.233	1	3
611.403	1	4
611.572	1	-5
611.742	1	-12
611.912	1	4
612.081	1	9
612.251	1	1
612.421	1	1
612.590	1	0
612.760	1	4
612.930	1	4
613.099	1	1
613.269	1	-1
613.439	1	-7
613.608	1	-7
613.778	1	-1
613.948	1	6
614.117	1	-10
614.287	1	-3
614.457	1	4
614.626	1	1
614.796	1	-5
614.966	1	-7
615.135	1	15
615.305	1	-3
615.475	1	-3
615.644	1	10
615.814	1	8
615.984	1	-8
616.153	1	2
616.323	1	-4
616.493	1	-2
616.662	1	-4
616.832	1	5
617.002	1	0
617.171	1	8
617.341	1	3
617.511	1	-7
617.680	1	-7
617.850	1	2
618.019	1	-2
618.189	1	5
618.359	1	1
618.528	1	-1
618.698	1	2
618.868	1	-1
619.037	1	-1
619.207	1	-15
619.377	1	6
619.546	1	-1
619.716	1	-4
619.885	1	0
620.055	1	-1
620.225	1	2
620.394	1	5
620.564	1	-7
620.734	1	-5
620.903	1	-6
621.073	1	9
621.242	1	2
621.412	1	-11
621.582	1	0
621.751	1	-3
621.921	1	3
622.091	1	-4
622.260	1	2
622.430	1	0
622.599	1	-6
622.769	1	-6
622.939	1	-3
623.108	1	1
623.278	1	4
623.448	1	-5
623.617	1	3
623.787	1	-6
623.956	1	-2
624.126	1	10
624.296	1	3
624.465	1	6
624.635	1	-3
624.804	1	-10
624.974	1	-10
625.144	1	-4
625.313	1	14
625.483	1	6
625.652	1	-12
625.822	1	8
625.992	1	0
626.161	1	3
626.331	1	-2
626.501	1	-2
626.670	1	-5
626.840	1	1
627.009	1	-5
627.179	1	0
627.348	1	-7
627.518	1	16
627.688	1	3
627.857	1	12
628.027	1	14
628.196	1	0
628.366	1	-11
628.536	1	-5
628.705	1	-8
628.875	1	-11
629.044	1	-3
629.214	1	9
629.384	1	10
629.553	1	-3
629.723	1	7
629.892	1	4
630.062	1	8
630.232	1	-2
630.401	1	-1
630.571	1	-4
630.740	1	-3
630.910	1	6
631.079	1	-3
631.249	1	2
631.419	1	9
631.588	1	2
631.758	1	-13
631.927	1	9
632.097	1	-8
632.266	1	12
632.436	1	1
632.606	1	6
632.775	1	0
632.945	1	-2
633.114	1	-14
633.284	1	-2
633.453	1	1
633.623	1	7
633.793	1	2
633.962	1	3
634.132	1	0
634.301	1	3
634.471	1	7
634.640	1	-2
634.810	1	2
634.979	1	-2
635.149	1	-8
635.319	1	-5
635.488	1	-1
635.658	1	-1
635.827	1	-3
635.997	1	-4
636.166	1	8
636.336	1	-3
636.505	1	3
636.675	1	-1
636.845	1	-1
637.014	1	-9
637.184	1	12
637.353	1	6
637.523	1	1
637.692	1	1
637.862	1	-3
638.031	1	-5
638.201	1	8
638.370	1	4
638.540	1	5
638.710	1	-9
638.879	1	-6
639.049	1	-2
639.218	1	10
639.388	1	4
639.557	1	3
639.727	1	2
639.896	1	3
640.066	1	1
640.235	1	-6
640.405	1	2
640.574	1	9
640.744	1	-1
640.914	1	2
641.083	1	5
641.253	1	-6
641.422	1	-5
641.592	1	5
641.761	1	9
641.931	1	8
642.100	1	-3
642.270	1	-3
642.439	1	2
642.609	1	-3
642.778	1	7
642.948	1	1
643.117	1	4
643.287	1	1
643.456	1	-7
643.626	1	-5
643.795	1	-1
643.965	1	-1
644.134	1	-3
644.304	1	-7
644.473	1	-2
644.643	1	-9
644.812	1	-7
644.982	1	-1
645.151	1	0
645.321	1	6
645.490	1	21
645.660	1	0
645.829	1	-4
645.999	1	-3
646.168	1	15
646.338	1	-7
646.507	1	-10
646.677	1	-5
646.846	1	2
647.016	1	10
647.185	1	3
647.355	1	8
647.524	1	-8
647.694	1	-14
647.863	1	-5
648.033	1	-3
648.202	1	13
648.372	1	-5
648.541	1	-3
648.711	1	3
648.880	1	7
649.050	1	-6
649.219	1	-1
649.389	1	-13
649.558	1	10
649.728	1	-9
649.897	1	8
650.067	1	9
650.236	1	1
650.406	1	-3
650.575	1	3
650.745	1	0
650.914	1	1
651.084	1	2
651.253	1	-1
651.423	1	-8
651.592	1	-2
651.762	1	-6
651.931	1	18
652.101	1	-15
652.270	1	1
652.440	1	9
652.609	1	3
652.778	1	2
652.948	1	9
653.117	1	-4
653.287	1	-11
653.456	1	-13
653.626	1	-3
653.795	1	3
653.965	1	-7
654.134	1	1
654.304	1	13
654.473	1	-5
654.643	1	-8
654.812	1	8
654.982	1	0
655.151	1	2
655.320	1	4
655.490	1	-6
655.659	1	5
655.829	1	5
655.998	1	3
656.168	1	-3
656.337	1	5
656.507	1	1
656.676	1	3
656.846	1	-5
657.015	1	7
657.184	1	0
657.354	1	3
657.523	1	-8
657.693	1	-2
657.862	1	-7
658.032	1	4
658.201	1	-2
658.371	1	-6
658.540	1	-9
658.709	1	4
658.879	1	10
659.048	1	12
659.218	1	1
659.387	1	11
659.557	1	-3
659.726	1	2
659.895	1	0
660.065	1	4
660.234	1	-9
660.404	1	12
660.573	1	-3
660.743	1	1
660.912	1	-4
661.081	1	-10
661.251	1	-7
661.420	1	4
661.590	1	2
661.759	1	4
661.929	1	1
662.098	1	4
662.267	1	-8
662.437	1	4
662.606	1	-5
662.776	1	8
662.945	1	8
663.115	1	7
663.284	1	4
663.453	1	-2
663.623	1	-3
663.792	1	9
663.962	1	6
664.131	1	-8
664.300	1	-1
664.470	1	-10
664.639	1	2
664.809	1	-2
664.978	1	5
665.148	1	3
665.317	1	3
665.486	1	8
665.656	1	3
665.825	1	-1
665.995	1	-7
666.164	1	-8
666.333	1	2
666.503	1	-4
666.672	1	-4
666.842	1	3
667.011	1	0
667.180	1	-3
667.350	1	-6
667.519	1	2
667.689	1	12
667.858	1	8
668.027	1	-10
668.197	1	-9
668.366	1	1
668.536	1	-11
668.705	1	-2
668.874	1	12
669.044	1	2
669.213	1	16
669.382	1	-3
669.552	1	5
669.721	1	-4
669.891	1	-7
670.060	1	0
670.229	1	6
670.399	1	3
670.568	1	3
670.738	1	8
670.907	1	1
671.076	1	1
671.246	1	13
671.415	1	7
671.584	1	6
671.754	1	-11
671.923	1	-8
672.093	1	4
672.262	1	-5
672.431	1	11
672.601	1	6
672.770	1	3
672.939	1	0
673.109	1	-7
673.278	1	-2
673.448	1	-1
673.617	1	-1
673.786	1	-6
