325.333	1	3
325.504	1	-14
325.675	1	11
325.846	1	-5
326.017	1	4
326.188	1	0
326.359	1	10
326.531	1	-5
326.702	1	-7
326.873	1	7
327.044	1	5
327.215	1	-1
327.386	1	1
327.557	1	-11
327.728	1	-5
327.899	1	2
328.070	1	4
328.241	1	-7
328.412	1	-3
328.583	1	-6
328.754	1	7
328.926	1	7
329.097	1	-17
329.268	1	3
329.439	1	10
329.610	1	0
329.781	1	3
329.952	1	15
330.123	1	-6
330.294	1	-9
330.465	1	-24
330.636	1	9
330.807	1	8
330.978	1	-1
331.149	1	4
331.320	1	9
331.492	1	-1
331.663	1	-6
331.834	1	4
332.005	1	4
332.176	1	0
332.347	1	-9
332.518	1	13
332.689	1	2
332.860	1	-4
333.031	1	4
333.202	1	1
333.373	1	2
333.544	1	3
333.715	1	4
333.886	1	3
334.057	1	-8
334.228	1	12
334.399	1	13
334.570	1	0
334.741	1	3
334.912	1	-1
335.084	1	4
335.255	1	8
335.426	1	1
335.597	1	0
335.768	1	-2
335.939	1	-3
336.110	1	-2
336.281	1	-8
336.452	1	11
336.623	1	3
336.794	1	3
336.965	1	-5
337.136	1	10
337.307	1	-4
337.478	1	1
337.649	1	-9
337.820	1	1
337.991	1	4
338.162	1	4
338.333	1	1
338.504	1	-3
338.675	1	3
338.846	1	-6
339.017	1	3
339.188	1	3
339.359	1	-1
339.530	1	-4
339.701	1	1
339.872	1	10
340.043	1	9
340.214	1	13
340.385	1	-5
340.556	1	10
340.727	1	3
340.898	1	0
341.069	1	0
341.240	1	0
341.411	1	-5
341.582	1	-9
341.753	1	0
341.924	1	8
342.095	1	-3
342.266	1	10
342.437	1	-4
342.608	1	4
342.779	1	-8
342.950	1	-6
343.121	1	-1
343.292	1	4
343.463	1	12
343.634	1	6
343.805	1	5
343.976	1	6
344.147	1	7
344.318	1	-6
344.489	1	-4
344.660	1	3
344.831	1	5
345.002	1	-5
345.173	1	6
345.344	1	4
345.515	1	-2
345.686	1	8
345.857	1	8
346.028	1	11
346.199	1	2
346.370	1	5
346.541	1	-3
346.712	1	-4
346.883	1	-4
347.054	1	8
347.225	1	-8
347.396	1	-6
347.567	1	1
347.738	1	7
347.909	1	4
348.080	1	-3
348.251	1	-8
348.422	1	8
348.593	1	-2
348.764	1	2
348.935	1	1
349.106	1	0
349.277	1	4
349.448	1	5
349.619	1	2
349.790	1	5
349.961	1	-4
350.132	1	11
350.303	1	1
350.474	1	-5
350.645	1	-2
350.816	1	8
350.987	1	12
351.157	1	-4
351.328	1	1
351.499	1	-1
351.670	1	-2
351.841	1	6
352.012	1	3
352.183	1	15
352.354	1	0
352.525	1	4
352.696	1	-2
352.867	1	14
353.038	1	-7
353.209	1	-6
353.380	1	-2
353.551	1	1
353.722	1	-7
353.893	1	7
354.064	1	2
354.235	1	5
354.406	1	-10
354.576	1	1
354.747	1	1
354.918	1	-1
355.089	1	7
355.260	1	-5
355.431	1	-5
355.602	1	2
355.773	1	5
355.944	1	1
356.115	1	7
356.286	1	11
356.457	1	2
356.628	1	4
356.799	1	-4
356.970	1	5
357.141	1	2
357.311	1	7
357.482	1	-2
357.653	1	2
357.824	1	2
357.995	1	5
358.166	1	6
358.337	1	3
358.508	1	9
358.679	1	-8
358.850	1	5
359.021	1	4
359.192	1	13
359.363	1	11
359.533	1	3
359.704	1	-12
359.875	1	-6
360.046	1	6
360.217	1	7
360.388	1	2
360.559	1	6
360.730	1	3
360.901	1	-2
361.072	1	1
361.243	1	6
361.414	1	15
361.584	1	-11
361.755	1	0
361.926	1	3
362.097	1	0
362.268	1	8
362.439	1	-6
362.610	1	13
362.781	1	3
362.952	1	8
363.123	1	2
363.293	1	3
363.464	1	-4
363.635	1	14
363.806	1	-2
363.977	1	6
364.148	1	-5
364.319	1	1
364.490	1	7
364.661	1	7
364.832	1	5
365.002	1	9
365.173	1	12
365.344	1	4
365.515	1	-1
365.686	1	4
365.857	1	7
366.028	1	7
366.199	1	7
366.370	1	4
366.540	1	-1
366.711	1	9
366.882	1	-2
367.053	1	8
367.224	1	-1
367.395	1	14
367.566	1	4
367.737	1	4
367.908	1	3
368.078	1	1
368.249	1	0
368.420	1	-3
368.591	1	-5
368.762	1	10
368.933	1	-2
369.104	1	9
369.274	1	10
369.445	1	4
369.616	1	4
369.787	1	4
369.958	1	9
370.129	1	4
370.300	1	-7
370.471	1	3
370.641	1	-1
370.812	1	10
370.983	1	-3
371.154	1	6
371.325	1	-3
371.496	1	-3
371.667	1	11
371.837	1	8
372.008	1	12
372.179	1	2
372.350	1	8
372.521	1	10
372.692	1	13
372.863	1	8
373.033	1	-3
373.204	1	8
373.375	1	4
373.546	1	12
373.717	1	0
373.888	1	6
374.059	1	9
374.229	1	9
374.400	1	-1
374.571	1	-1
374.742	1	9
374.913	1	-4
375.084	1	7
375.254	1	3
375.425	1	9
375.596	1	8
375.767	1	0
375.938	1	1
376.109	1	-1
376.279	1	0
376.450	1	6
376.621	1	-2
376.792	1	10
376.963	1	-3
377.134	1	-2
377.304	1	5
377.475	1	1
377.646	1	-1
377.817	1	13
377.988	1	9
378.159	1	-1
378.329	1	1
378.500	1	12
378.671	1	1
378.842	1	5
379.013	1	3
379.184	1	6
379.354	1	5
379.525	1	8
379.696	1	12
379.867	1	6
380.038	1	0
380.209	1	11
380.379	1	-5
380.550	1	-10
380.721	1	10
380.892	1	0
381.063	1	0
381.233	1	5
381.404	1	7
381.575	1	7
381.746	1	12
381.917	1	1
382.087	1	0
382.258	1	11
382.429	1	3
382.600	1	1
382.771	1	-4
382.941	1	12
383.112	1	4
383.283	1	10
383.454	1	7
383.625	1	3
383.795	1	8
383.966	1	10
384.137	1	17
384.308	1	5
384.479	1	6
384.649	1	1
384.820	1	3
384.991	1	-3
385.162	1	12
385.333	1	8
385.503	1	8
385.674	1	3
385.845	1	11
386.016	1	10
386.187	1	2
386.357	1	12
386.528	1	3
386.699	1	7
386.870	1	6
387.041	1	16
387.211	1	13
387.382	1	15
387.553	1	7
387.724	1	9
387.894	1	-3
388.065	1	1
388.236	1	4
388.407	1	5
388.578	1	6
388.748	1	5
388.919	1	2
389.090	1	16
389.261	1	11
389.431	1	-9
389.602	1	1
389.773	1	0
389.944	1	16
390.114	1	-1
390.285	1	15
390.456	1	4
390.627	1	2
390.798	1	1
390.968	1	9
391.139	1	19
391.310	1	0
391.481	1	0
391.651	1	13
391.822	1	14
391.993	1	7
392.164	1	7
392.334	1	-1
392.505	1	14
392.676	1	-2
392.847	1	0
393.017	1	-2
393.188	1	2
393.359	1	11
393.530	1	22
393.700	1	9
393.871	1	7
394.042	1	6
394.213	1	7
394.383	1	6
394.554	1	4
394.725	1	-3
394.896	1	10
395.066	1	15
395.237	1	15
395.408	1	11
395.579	1	15
395.749	1	10
395.920	1	13
396.091	1	2
396.262	1	0
396.432	1	-3
396.603	1	4
396.774	1	9
396.945	1	8
397.115	1	13
397.286	1	10
397.457	1	6
397.627	1	-5
397.798	1	4
397.969	1	14
398.140	1	-3
398.310	1	13
398.481	1	12
398.652	1	13
398.823	1	0
398.993	1	-7
399.164	1	12
399.335	1	6
399.505	1	1
399.676	1	6
399.847	1	4
400.018	1	2
400.188	1	10
400.359	1	12
400.530	1	7
400.700	1	14
400.871	1	14
401.042	1	2
401.213	1	15
401.383	1	17
401.554	1	3
401.725	1	5
401.895	1	-3
402.066	1	17
402.237	1	11
402.408	1	7
402.578	1	12
402.749	1	5
402.920	1	27
403.090	1	9
403.261	1	4
403.432	1	2
403.603	1	6
403.773	1	14
403.944	1	7
404.115	1	1
404.285	1	17
404.456	1	15
404.627	1	9
404.797	1	4
404.968	1	6
405.139	1	10
405.310	1	7
405.480	1	9
405.651	1	4
405.822	1	16
405.992	1	18
406.163	1	2
406.334	1	-1
406.504	1	8
406.675	1	7
406.846	1	2
407.016	1	17
407.187	1	8
407.358	1	-1
407.528	1	7
407.699	1	9
407.870	1	12
408.041	1	1
408.211	1	10
408.382	1	18
408.553	1	8
408.723	1	12
408.894	1	7
409.065	1	5
409.235	1	12
409.406	1	2
409.577	1	14
409.747	1	4
409.918	1	8
410.089	1	16
410.259	1	-1
410.430	1	13
410.601	1	10
410.771	1	13
410.942	1	-2
411.113	1	13
411.283	1	13
411.454	1	20
411.625	1	5
411.795	1	9
411.966	1	4
412.137	1	15
412.307	1	13
412.478	1	10
412.649	1	11
412.819	1	10
412.990	1	17
413.161	1	15
413.331	1	7
413.502	1	-2
413.672	1	0
413.843	1	2
414.014	1	1
414.184	1	16
414.355	1	11
414.526	1	8
414.696	1	4
414.867	1	10
415.038	1	6
415.208	1	2
415.379	1	0
415.550	1	8
415.720	1	3
415.891	1	10
416.062	1	6
416.232	1	13
416.403	1	16
416.573	1	-5
416.744	1	16
416.915	1	0
417.085	1	10
417.256	1	7
417.427	1	8
417.597	1	7
417.768	1	11
417.939	1	-1
418.109	1	9
418.280	1	6
418.450	1	10
418.621	1	11
418.792	1	6
418.962	1	8
419.133	1	8
419.304	1	2
419.474	1	8
419.645	1	11
419.815	1	8
419.986	1	10
420.157	1	3
420.327	1	-3
420.498	1	3
420.669	1	12
420.839	1	8
421.010	1	-2
421.180	1	8
421.351	1	2
421.522	1	10
421.692	1	5
421.863	1	9
422.033	1	5
422.204	1	7
422.375	1	16
422.545	1	15
422.716	1	-4
422.886	1	12
423.057	1	4
423.228	1	-2
423.398	1	3
423.569	1	10
423.740	1	6
423.910	1	10
424.081	1	5
424.251	1	9
424.422	1	12
424.593	1	11
424.763	1	3
424.934	1	23
425.104	1	18
425.275	1	7
425.445	1	7
425.616	1	6
425.787	1	3
425.957	1	1
426.128	1	10
426.298	1	13
426.469	1	6
426.640	1	1
426.810	1	0
426.981	1	14
427.151	1	-1
427.322	1	11
427.493	1	-2
427.663	1	10
427.834	1	-5
428.004	1	12
428.175	1	8
428.345	1	0
428.516	1	-1
428.687	1	15
428.857	1	10
429.028	1	0
429.198	1	1
429.369	1	5
429.540	1	9
429.710	1	8
429.881	1	2
430.051	1	1
430.222	1	9
430.392	1	6
430.563	1	2
430.734	1	6
430.904	1	15
431.075	1	0
431.245	1	5
431.416	1	12
431.586	1	3
431.757	1	10
431.927	1	10
432.098	1	13
432.269	1	1
432.439	1	1
432.610	1	12
432.780	1	12
432.951	1	2
433.121	1	3
433.292	1	12
433.462	1	14
433.633	1	6
433.804	1	13
433.974	1	5
434.145	1	6
434.315	1	14
434.486	1	-7
434.656	1	9
434.827	1	8
434.997	1	8
435.168	1	7
435.339	1	10
435.509	1	7
435.680	1	3
435.850	1	-7
436.021	1	0
436.191	1	3
436.362	1	8
436.532	1	17
436.703	1	10
436.873	1	0
437.044	1	2
437.214	1	0
437.385	1	15
437.556	1	3
437.726	1	3
437.897	1	2
438.067	1	8
438.238	1	8
438.408	1	13
438.579	1	8
438.749	1	5
438.920	1	17
439.090	1	-6
439.261	1	10
439.431	1	-1
439.602	1	12
439.772	1	6
439.943	1	6
440.113	1	3
440.284	1	15
440.455	1	-1
440.625	1	4
440.796	1	6
440.966	1	14
441.137	1	13
441.307	1	11
441.478	1	6
441.648	1	8
441.819	1	4
441.989	1	16
442.160	1	6
442.330	1	8
442.501	1	5
442.671	1	12
442.842	1	3
443.012	1	3
443.183	1	8
443.353	1	4
443.524	1	7
443.694	1	-4
443.865	1	12
444.035	1	3
444.206	1	4
444.376	1	5
444.547	1	13
444.717	1	9
444.888	1	-10
445.058	1	3
445.229	1	16
445.399	1	12
445.570	1	-6
445.740	1	8
445.911	1	7
446.081	1	2
446.252	1	6
446.422	1	6
446.593	1	9
446.763	1	9
446.934	1	4
447.104	1	4
447.275	1	6
447.445	1	2
447.616	1	7
447.786	1	3
447.957	1	12
448.127	1	7
448.298	1	8
448.468	1	3
448.639	1	6
448.809	1	3
448.979	1	16
449.150	1	0
449.320	1	8
449.491	1	2
449.661	1	-8
449.832	1	3
450.002	1	2
450.173	1	4
450.343	1	2
450.514	1	7
450.684	1	2
450.855	1	8
451.025	1	-14
451.196	1	-5
451.366	1	16
451.537	1	11
451.707	1	11
451.878	1	12
452.048	1	-2
452.218	1	7
452.389	1	4
452.559	1	23
452.730	1	11
452.900	1	3
453.071	1	20
453.241	1	-2
453.412	1	-5
453.582	1	4
453.753	1	9
453.923	1	-3
454.093	1	4
454.264	1	14
454.434	1	10
454.605	1	-3
454.775	1	6
454.946	1	3
455.116	1	9
455.287	1	-9
455.457	1	11
455.628	1	-7
455.798	1	17
455.968	1	6
456.139	1	15
456.309	1	-2
456.480	1	-3
456.650	1	6
456.821	1	-3
456.991	1	8
457.161	1	4
457.332	1	0
457.502	1	7
457.673	1	8
457.843	1	0
458.014	1	4
458.184	1	6
458.355	1	11
458.525	1	4
458.695	1	-4
458.866	1	1
459.036	1	-2
459.207	1	12
459.377	1	12
459.548	1	2
459.718	1	5
459.888	1	-1
460.059	1	-2
460.229	1	-2
460.400	1	5
460.570	1	2
460.740	1	5
460.911	1	-1
461.081	1	7
461.252	1	5
461.422	1	-3
461.593	1	4
461.763	1	11
461.933	1	3
462.104	1	-6
462.274	1	-3
462.445	1	9
462.615	1	12
462.785	1	5
462.956	1	0
463.126	1	9
463.297	1	4
463.467	1	5
463.638	1	15
463.808	1	8
463.978	1	-2
464.149	1	-6
464.319	1	6
464.490	1	10
464.660	1	6
464.830	1	6
465.001	1	-5
465.171	1	0
465.342	1	-3
465.512	1	4
465.682	1	-7
465.853	1	-1
466.023	1	4
466.194	1	14
466.364	1	23
466.534	1	0
466.705	1	14
466.875	1	-4
467.045	1	-1
467.216	1	-2
467.386	1	1
467.557	1	13
467.727	1	-6
467.897	1	1
468.068	1	0
468.238	1	10
468.409	1	9
468.579	1	10
468.749	1	2
468.920	1	-10
469.090	1	6
469.260	1	5
469.431	1	5
469.601	1	11
469.772	1	11
469.942	1	11
470.112	1	1
470.283	1	11
470.453	1	10
470.623	1	-5
470.794	1	9
470.964	1	-12
471.135	1	15
471.305	1	-1
471.475	1	15
471.646	1	5
471.816	1	10
471.986	1	3
472.157	1	5
472.327	1	2
472.497	1	0
472.668	1	8
472.838	1	-6
473.009	1	2
473.179	1	-4
473.349	1	4
473.520	1	6
473.690	1	-3
473.860	1	-2
474.031	1	-6
474.201	1	4
474.371	1	9
474.542	1	4
474.712	1	-14
474.882	1	7
475.053	1	19
475.223	1	5
475.394	1	3
475.564	1	3
475.734	1	-5
475.905	1	2
476.075	1	13
476.245	1	-1
476.416	1	-7
476.586	1	-4
476.756	1	4
476.927	1	-7
477.097	1	-2
477.267	1	3
477.438	1	12
477.608	1	15
477.778	1	-6
477.949	1	5
478.119	1	1
478.289	1	1
478.460	1	-3
478.630	1	6
478.800	1	4
478.971	1	0
479.141	1	4
479.311	1	-4
479.482	1	-4
479.652	1	8
479.822	1	-3
479.993	1	5
480.163	1	2
480.333	1	5
480.504	1	4
480.674	1	2
480.844	1	-3
481.015	1	8
481.185	1	9
481.355	1	2
481.525	1	-4
481.696	1	1
481.866	1	11
482.036	1	9
482.207	1	12
482.377	1	-1
482.547	1	5
482.718	1	7
482.888	1	10
483.058	1	14
483.229	1	-2
483.399	1	6
483.569	1	-5
483.740	1	-2
483.910	1	-8
484.080	1	3
484.250	1	-7
484.421	1	-9
484.591	1	-1
484.761	1	1
484.932	1	8
485.102	1	7
485.272	1	-1
485.443	1	7
485.613	1	0
485.783	1	-1
485.953	1	-9
486.124	1	-4
486.294	1	-2
486.464	1	12
486.635	1	1
486.805	1	8
486.975	1	-17
487.146	1	6
487.316	1	9
487.486	1	2
487.656	1	-1
487.827	1	3
487.997	1	-8
488.167	1	1
488.338	1	-7
488.508	1	9
488.678	1	4
488.848	1	7
489.019	1	-9
489.189	1	8
489.359	1	-11
489.529	1	5
489.700	1	2
489.870	1	-3
490.040	1	-2
490.211	1	-2
490.381	1	1
490.551	1	4
490.721	1	4
490.892	1	-7
491.062	1	0
491.232	1	7
491.402	1	-3
491.573	1	5
491.743	1	-1
491.913	1	1
492.084	1	1
492.254	1	-2
492.424	1	6
492.594	1	-3
492.765	1	13
492.935	1	7
493.105	1	-1
493.275	1	0
493.446	1	-11
493.616	1	-10
493.786	1	3
493.956	1	4
494.127	1	-4
494.297	1	-12
494.467	1	-3
494.637	1	8
494.808	1	7
494.978	1	-3
495.148	1	-2
495.318	1	11
495.489	1	-3
495.659	1	3
495.829	1	-2
495.999	1	8
496.170	1	2
496.340	1	-2
496.510	1	3
496.680	1	-3
496.851	1	9
497.021	1	4
497.191	1	3
497.361	1	-9
497.532	1	-1
497.702	1	10
497.872	1	-5
498.042	1	-2
498.213	1	-4
498.383	1	-1
498.553	1	5
498.723	1	1
498.894	1	6
499.064	1	5
499.234	1	2
499.404	1	4
499.574	1	1
499.745	1	3
499.915	1	4
500.085	1	-1
500.255	1	-17
500.426	1	-6
500.596	1	1
500.766	1	0
500.936	1	-2
501.106	1	-4
501.277	1	-11
501.447	1	4
501.617	1	1
501.787	1	-6
501.958	1	7
502.128	1	4
502.298	1	8
502.468	1	2
502.638	1	10
502.809	1	-11
502.979	1	2
503.149	1	2
503.319	1	1
503.489	1	-14
503.660	1	-11
503.830	1	2
504.000	1	3
504.170	1	-8
504.340	1	-13
504.511	1	-1
504.681	1	-1
504.851	1	2
505.021	1	6
505.192	1	2
505.362	1	-10
505.532	1	-3
505.702	1	10
505.872	1	-11
506.043	1	15
506.213	1	6
506.383	1	3
506.553	1	-4
506.723	1	-3
506.893	1	2
507.064	1	6
507.234	1	-6
507.404	1	-3
507.574	1	-5
507.744	1	0
507.915	1	-3
508.085	1	-5
508.255	1	-4
508.425	1	2
508.595	1	-5
508.766	1	-5
508.936	1	4
509.106	1	3
509.276	1	6
509.446	1	-9
509.616	1	-3
509.787	1	5
509.957	1	4
510.127	1	-11
510.297	1	-6
510.467	1	11
510.638	1	2
510.808	1	9
510.978	1	-5
511.148	1	12
511.318	1	0
511.488	1	0
511.659	1	0
511.829	1	-7
511.999	1	1
512.169	1	2
512.339	1	7
512.509	1	-3
512.680	1	-3
512.850	1	-7
513.020	1	0
513.190	1	-9
513.360	1	13
513.530	1	-6
513.700	1	0
513.871	1	-12
514.041	1	8
514.211	1	6
514.381	1	6
514.551	1	-6
514.721	1	4
514.892	1	-9
515.062	1	1
515.232	1	-3
515.402	1	-1
515.572	1	1
515.742	1	5
515.912	1	3
516.083	1	-1
516.253	1	-1
516.423	1	1
516.593	1	6
516.763	1	1
516.933	1	-4
517.104	1	3
517.274	1	-7
517.444	1	6
517.614	1	1
517.784	1	-4
517.954	1	0
518.124	1	2
518.294	1	1
518.465	1	-5
518.635	1	6
518.805	1	-1
518.975	1	1
519.145	1	-16
519.315	1	-4
519.485	1	-3
519.656	1	-9
519.826	1	-14
519.996	1	1
520.166	1	-2
520.336	1	7
520.506	1	-7
520.676	1	11
520.846	1	0
521.017	1	0
521.187	1	5
521.357	1	-9
521.527	1	-2
521.697	1	-7
521.867	1	4
522.037	1	7
522.207	1	3
522.377	1	-4
522.548	1	-6
522.718	1	-9
522.888	1	-6
523.058	1	6
523.228	1	-4
523.398	1	-3
523.568	1	-13
523.738	1	6
523.909	1	0
524.079	1	1
524.249	1	-13
524.419	1	5
524.589	1	-3
524.759	1	9
524.929	1	-3
525.099	1	2
525.269	1	-1
525.439	1	-2
525.610	1	10
525.780	1	3
525.950	1	6
526.120	1	-12
526.290	1	-7
526.460	1	-11
526.630	1	1
526.800	1	-5
526.970	1	7
527.140	1	7
527.311	1	-1
527.481	1	1
527.651	1	3
527.821	1	-11
527.991	1	-7
528.161	1	-3
528.331	1	-4
528.501	1	-1
528.671	1	3
528.841	1	-2
529.011	1	2
529.181	1	-3
529.352	1	3
529.522	1	-10
529.692	1	-4
529.862	1	-3
530.032	1	-6
530.202	1	-5
530.372	1	2
530.542	1	-5
530.712	1	2
530.882	1	0
531.052	1	2
531.222	1	7
531.392	1	-3
531.563	1	1
531.733	1	9
531.903	1	-5
532.073	1	-8
532.243	1	3
532.413	1	18
532.583	1	4
532.753	1	-1
532.923	1	4
533.093	1	2
533.263	1	1
533.433	1	-8
533.603	1	-4
533.773	1	-2
533.943	1	-2
534.113	1	3
534.284	1	-1
534.454	1	-7
534.624	1	-9
534.794	1	0
534.964	1	0
535.134	1	-1
535.304	1	3
535.474	1	0
535.644	1	0
535.814	1	0
535.984	1	1
536.154	1	-8
536.324	1	-8
536.494	1	1
536.664	1	-4
536.834	1	-1
537.004	1	0
537.174	1	2
537.344	1	-2
537.514	1	-9
537.685	1	1
537.855	1	5
538.025	1	4
538.195	1	-1
538.365	1	-2
538.535	1	-3
538.705	1	-4
538.875	1	7
539.045	1	-2
539.215	1	-14
539.385	1	-1
539.555	1	-1
539.725	1	8
539.895	1	-3
540.065	1	5
540.235	1	0
540.405	1	0
540.575	1	-4
540.745	1	5
540.915	1	-2
541.085	1	-8
541.255	1	-7
541.425	1	-1
541.595	1	2
541.765	1	0
541.935	1	-5
542.105	1	-4
542.275	1	-3
542.445	1	-3
542.615	1	10
542.785	1	-5
542.955	1	8
543.125	1	-11
543.295	1	3
543.465	1	15
543.635	1	-7
543.805	1	-1
543.975	1	-2
544.145	1	1
544.315	1	-2
544.485	1	-3
544.655	1	-3
544.825	1	-2
544.995	1	-7
545.165	1	-3
545.335	1	5
545.505	1	-2
545.675	1	11
545.845	1	3
546.015	1	-4
546.185	1	-2
546.355	1	2
546.525	1	5
546.695	1	-15
546.865	1	-9
547.035	1	-2
547.205	1	12
547.375	1	7
547.545	1	5
547.715	1	2
547.885	1	-5
548.055	1	-2
548.225	1	0
548.395	1	-5
548.565	1	10
548.735	1	-15
548.905	1	3
549.075	1	-14
549.245	1	2
549.415	1	8
549.585	1	-8
549.755	1	-2
549.925	1	-5
550.095	1	-8
550.265	1	-10
550.435	1	-1
550.605	1	-2
550.775	1	-9
550.945	1	2
551.115	1	1
551.285	1	5
551.455	1	7
551.625	1	-11
551.795	1	-7
551.965	1	1
552.135	1	-3
552.305	1	2
552.475	1	-2
552.645	1	-6
552.815	1	-1
552.985	1	-7
553.155	1	5
553.325	1	1
553.495	1	-4
553.665	1	-7
553.835	1	-1
554.004	1	2
554.174	1	-11
554.344	1	1
554.514	1	-7
554.684	1	8
554.854	1	-14
555.024	1	16
555.194	1	5
555.364	1	1
555.534	1	-12
555.704	1	0
555.874	1	-1
556.044	1	-3
556.214	1	3
556.384	1	-4
556.554	1	5
556.724	1	-5
556.894	1	9
557.064	1	-5
557.234	1	0
557.404	1	-7
557.573	1	3
557.743	1	-8
557.913	1	0
558.083	1	1
558.253	1	-5
558.423	1	-2
558.593	1	2
558.763	1	2
558.933	1	-6
559.103	1	-1
559.273	1	5
559.443	1	-1
559.613	1	0
559.783	1	-8
559.953	1	-18
560.122	1	3
560.292	1	-8
560.462	1	-12
560.632	1	-6
560.802	1	2
560.972	1	-4
561.142	1	-2
561.312	1	-9
561.482	1	10
561.652	1	0
561.822	1	-2
561.992	1	-1
562.162	1	-2
562.331	1	-3
562.501	1	6
562.671	1	-5
562.841	1	-12
563.011	1	2
563.181	1	-10
563.351	1	-10
563.521	1	-5
563.691	1	-5
563.861	1	2
564.031	1	-13
564.201	1	4
564.370	1	3
564.540	1	-9
564.710	1	-11
564.880	1	4
565.050	1	2
565.220	1	2
565.390	1	-6
565.560	1	8
565.730	1	11
565.900	1	10
566.069	1	3
566.239	1	6
566.409	1	19
566.579	1	1
566.749	1	-4
566.919	1	-11
567.089	1	-10
567.259	1	5
567.429	1	3
567.599	1	9
567.768	1	2
567.938	1	2
568.108	1	-4
568.278	1	-9
568.448	1	-2
568.618	1	9
568.788	1	-6
568.958	1	-5
569.128	1	-13
569.297	1	-4
569.467	1	3
569.637	1	6
569.807	1	2
569.977	1	-5
570.147	1	-3
570.317	1	5
570.487	1	-2
570.656	1	3
570.826	1	-1
570.996	1	10
571.166	1	-4
571.336	1	-4
571.506	1	2
571.676	1	0
571.846	1	-6
572.015	1	-2
572.185	1	5
572.355	1	-2
572.525	1	-13
572.695	1	0
572.865	1	5
573.035	1	5
573.205	1	0
573.374	1	1
573.544	1	-2
573.714	1	2
573.884	1	-10
574.054	1	-2
574.224	1	-1
574.394	1	-7
574.563	1	-12
574.733	1	1
574.903	1	-9
575.073	1	-3
575.243	1	-8
575.413	1	-6
575.583	1	-1
575.752	1	6
575.922	1	5
576.092	1	-5
576.262	1	0
576.432	1	-2
576.602	1	4
576.772	1	-5
576.941	1	-2
577.111	1	-7
577.281	1	3
577.451	1	0
577.621	1	-3
577.791	1	2
577.960	1	-3
578.130	1	-3
578.300	1	-4
578.470	1	-1
578.640	1	1
578.810	1	-6
578.979	1	6
579.149	1	-4
579.319	1	-7
579.489	1	6
579.659	1	-3
579.829	1	3
579.998	1	-8
580.168	1	5
580.338	1	7
580.508	1	-10
580.678	1	6
580.848	1	9
581.017	1	-5
581.187	1	-1
581.357	1	8
581.527	1	-3
581.697	1	-4
581.867	1	-2
582.036	1	-11
582.206	1	1
582.376	1	-3
582.546	1	-2
582.716	1	-5
582.885	1	-6
583.055	1	-2
583.225	1	9
583.395	1	-6
583.565	1	4
583.735	1	4
583.904	1	-2
584.074	1	-3
584.244	1	-10
584.414	1	6
584.584	1	-2
584.753	1	-1
584.923	1	-8
585.093	1	10
585.263	1	-2
585.433	1	-8
585.602	1	-6
585.772	1	13
585.942	1	-16
586.112	1	-3
586.282	1	-3
586.451	1	10
586.621	1	-4
586.791	1	-7
586.961	1	-4
587.131	1	5
587.300	1	12
587.470	1	-5
587.640	1	-7
587.810	1	-15
587.980	1	-3
588.149	1	3
588.319	1	-2
588.489	1	-7
588.659	1	-4
588.829	1	-7
588.998	1	-4
589.168	1	3
589.338	1	-5
589.508	1	2
589.677	1	-1
589.847	1	6
590.017	1	0
590.187	1	0
590.357	1	0
590.526	1	-11
590.696	1	-12
590.866	1	-3
591.036	1	9
591.205	1	-1
591.375	1	0
591.545	1	-9
591.715	1	3
591.885	1	1
592.054	1	-5
592.224	1	-9
592.394	1	-13
592.564	1	3
592.733	1	-3
592.903	1	-8
593.073	1	-2
593.243	1	9
593.412	1	-10
593.582	1	-5
593.752	1	-10
593.922	1	-8
594.091	1	-2
594.261	1	-9
594.431	1	1
594.601	1	0
594.771	1	4
594.940	1	-1
595.110	1	-3
595.280	1	2
595.450	1	-3
595.619	1	0
595.789	1	-12
595.959	1	-2
596.129	1	-4
596.298	1	2
596.468	1	4
596.638	1	-1
596.808	1	-12
596.977	1	-12
597.147	1	0
597.317	1	2
597.487	1	-1
597.656	1	-1
597.826	1	2
597.996	1	-7
598.166	1	-4
598.335	1	-6
598.505	1	4
598.675	1	-2
598.844	1	25
599.014	1	-8
599.184	1	4
599.354	1	6
599.523	1	3
599.693	1	-10
599.863	1	0
600.033	1	-7
600.202	1	-9
600.372	1	-3
600.542	1	-7
600.712	1	-3
600.881	1	-1
601.051	1	8
601.221	1	1
601.390	1	1
601.560	1	4
601.730	1	0
601.900	1	7
602.069	1	-2
602.239	1	5
602.409	1	-6
602.578	1	0
602.748	1	6
602.918	1	-6
603.088	1	6
603.257	1	-13
603.427	1	8
603.597	1	-3
603.767	1	0
603.936	1	2
604.106	1	-7
604.276	1	2
604.445	1	-5
604.615	1	3
604.785	1	-1
604.954	1	-2
605.124	1	0
605.294	1	-1
605.464	1	-12
605.633	1	4
605.803	1	4
605.973	1	-3
606.142	1	-1
606.312	1	8
606.482	1	-12
606.652	1	-3
606.821	1	-8
606.991	1	8
607.161	1	7
607.330	1	1
607.500	1	-2
607.670	1	-2
607.839	1	-3
608.009	1	-5
608.179	1	2
608.348	1	9
608.518	1	3
608.688	1	1
608.858	1	-12
609.027	1	-1
609.197	1	0
609.367	1	-7
609.536	1	-6
609.706	1	1
609.876	1	3
610.045	1	7
610.215	1	2
610.385	1	2
610.554	1	-9
610.724	1	4
610.894	1	-2
611.063	1	-1
611.233	1	1
611.403	1	-5
611.572	1	-1
611.742	1	0
611.912	1	-2
612.081	1	1
612.251	1	5
612.421	1	4
612.590	1	9
612.760	1	-3
612.930	1	-5
613.099	1	6
613.269	1	-3
613.439	1	-15
613.608	1	6
613.778	1	5
613.948	1	11
614.117	1	0
614.287	1	-4
614.457	1	-6
614.626	1	-7
614.796	1	-5
614.966	1	-1
615.135	1	13
615.305	1	2
615.475	1	9
615.644	1	9
615.814	1	16
615.984	1	-3
616.153	1	-5
616.323	1	-9
616.493	1	-3
616.662	1	-4
616.832	1	2
617.002	1	-6
617.171	1	1
617.341	1	9
617.511	1	-8
617.680	1	-1
617.850	1	3
618.019	1	-4
618.189	1	12
618.359	1	-6
618.528	1	4
618.698	1	-1
618.868	1	0
619.037	1	0
619.207	1	-1
619.377	1	1
619.546	1	1
619.716	1	-12
619.885	1	0
620.055	1	-5
620.225	1	8
620.394	1	-2
620.564	1	3
620.734	1	-9
620.903	1	-18
621.073	1	6
621.242	1	-6
621.412	1	-4
621.582	1	8
621.751	1	-1
621.921	1	-2
622.091	1	4
622.260	1	-5
622.430	1	9
622.599	1	-5
622.769	1	-2
622.939	1	-8
623.108	1	-3
623.278	1	2
623.448	1	-7
623.617	1	0
623.787	1	-1
623.956	1	1
624.126	1	6
624.296	1	4
624.465	1	3
624.635	1	-1
624.804	1	-14
624.974	1	-3
625.144	1	-3
625.313	1	9
625.483	1	6
625.652	1	-4
625.822	1	3
625.992	1	-7
626.161	1	1
626.331	1	2
626.501	1	-1
626.670	1	-9
626.840	1	2
627.009	1	2
627.179	1	-1
627.348	1	0
627.518	1	13
627.688	1	0
627.857	1	0
628.027	1	4
628.196	1	7
628.366	1	-11
628.536	1	2
628.705	1	-6
628.875	1	0
629.044	1	-6
629.214	1	13
629.384	1	3
629.553	1	-7
629.723	1	1
629.892	1	0
630.062	1	1
630.232	1	6
630.401	1	-5
630.571	1	-5
630.740	1	-1
630.910	1	10
631.079	1	2
631.249	1	4
631.419	1	6
631.588	1	-6
631.758	1	-10
631.927	1	10
632.097	1	3
632.266	1	3
632.436	1	0
632.606	1	-5
632.775	1	8
632.945	1	-4
633.114	1	-5
633.284	1	-5
633.453	1	7
633.623	1	14
633.793	1	2
633.962	1	2
634.132	1	1
634.301	1	1
634.471	1	1
634.640	1	-1
634.810	1	5
634.979	1	1
635.149	1	-3
635.319	1	-6
635.488	1	-1
635.658	1	-6
635.827	1	4
635.997	1	1
636.166	1	-3
636.336	1	-10
636.505	1	2
636.675	1	-5
636.845	1	-6
637.014	1	-6
637.184	1	16
637.353	1	-4
637.523	1	-12
637.692	1	15
637.862	1	-5
638.031	1	-12
638.201	1	5
638.370	1	-3
638.540	1	-6
638.710	1	-9
638.879	1	-8
639.049	1	-3
639.218	1	6
639.388	1	-5
639.557	1	6
639.727	1	5
639.896	1	4
640.066	1	-7
640.235	1	-7
640.405	1	-4
640.574	1	1
640.744	1	-2
640.914	1	7
641.083	1	1
641.253	1	-10
641.422	1	-3
641.592	1	8
641.761	1	-3
641.931	1	9
642.100	1	-6
642.270	1	0
642.439	1	-1
642.609	1	9
642.778	1	-3
642.948	1	11
643.117	1	-5
643.287	1	2
643.456	1	-6
643.626	1	1
643.795	1	2
643.965	1	5
644.134	1	2
644.304	1	-3
644.473	1	-1
644.643	1	-6
644.812	1	-10
644.982	1	11
645.151	1	-2
645.321	1	4
645.490	1	2
645.660	1	-15
645.829	1	-7
645.999	1	-7
646.168	1	8
646.338	1	-6
646.507	1	-9
646.677	1	2
646.846	1	-6
647.016	1	7
647.185	1	2
647.355	1	7
647.524	1	1
647.694	1	-8
647.863	1	-6
648.033	1	1
648.202	1	2
648.372	1	-7
648.541	1	2
648.711	1	6
648.880	1	-3
649.050	1	-2
649.219	1	3
649.389	1	-3
649.558	1	6
649.728	1	-8
649.897	1	2
650.067	1	4
650.236	1	-9
650.406	1	0
650.575	1	-3
650.745	1	2
650.914	1	4
651.084	1	1
651.253	1	5
651.423	1	-5
651.592	1	-6
651.762	1	-6
651.931	1	2
652.101	1	-1
652.270	1	-2
652.440	1	3
652.609	1	8
652.778	1	1
652.948	1	6
653.117	1	0
653.287	1	-15
653.456	1	-5
653.626	1	1
653.795	1	-4
653.965	1	2
654.134	1	-10
654.304	1	-1
654.473	1	1
654.643	1	-7
654.812	1	7
654.982	1	-1
655.151	1	16
655.320	1	-1
655.490	1	0
655.659	1	-4
655.829	1	7
655.998	1	6
656.168	1	-9
656.337	1	-2
656.507	1	-8
656.676	1	-10
656.846	1	-3
657.015	1	12
657.184	1	-6
657.354	1	-2
657.523	1	-4
657.693	1	5
657.862	1	-7
658.032	1	-3
658.201	1	-7
658.371	1	-12
658.540	1	-10
658.709	1	10
658.879	1	2
659.048	1	16
659.218	1	-11
659.387	1	2
659.557	1	-3
659.726	1	-8
659.895	1	-2
660.065	1	-12
660.234	1	-2
660.404	1	4
660.573	1	2
660.743	1	-1
660.912	1	7
661.081	1	-5
661.251	1	-13
661.420	1	6
661.590	1	-11
661.759	1	-2
661.929	1	-6
662.098	1	6
662.267	1	-11
662.437	1	0
662.606	1	-4
662.776	1	1
662.945	1	-2
663.115	1	6
663.284	1	5
663.453	1	3
663.623	1	-2
663.792	1	10
663.962	1	-1
664.131	1	-6
664.300	1	-12
664.470	1	-3
664.639	1	0
664.809	1	2
664.978	1	9
665.148	1	4
665.317	1	-6
665.486	1	-3
665.656	1	0
665.825	1	8
665.995	1	-17
666.164	1	4
666.333	1	-4
666.503	1	1
666.672	1	-1
666.842	1	7
667.011	1	-1
667.180	1	-5
667.350	1	4
667.519	1	0
667.689	1	-5
667.858	1	-6
668.027	1	-3
668.197	1	-7
668.366	1	-4
668.536	1	-1
668.705	1	0
668.874	1	11
669.044	1	-1
669.213	1	-6
669.382	1	4
669.552	1	-3
669.721	1	-6
669.891	1	-3
670.060	1	-8
670.229	1	-1
670.399	1	-1
670.568	1	9
670.738	1	-4
670.907	1	1
671.076	1	1
671.246	1	6
671.415	1	2
671.584	1	14
671.754	1	3
671.923	1	-1
672.093	1	3
672.262	1	-2
672.431	1	-1
672.601	1	-5
672.770	1	-8
672.939	1	5
673.109	1	-6
673.278	1	-5
673.448	1	1
673.617	1	-2
673.786	1	-18
