325.333	1	9
325.504	1	0
325.675	1	21
325.846	1	0
326.017	1	13
326.188	1	11
326.359	1	1
326.531	1	8
326.702	1	4
326.873	1	13
327.044	1	18
327.215	1	5
327.386	1	7
327.557	1	3
327.728	1	15
327.899	1	11
328.070	1	12
328.241	1	6
328.412	1	6
328.583	1	2
328.754	1	19
328.926	1	25
329.097	1	13
329.268	1	14
329.439	1	23
329.610	1	18
329.781	1	11
329.952	1	9
330.123	1	5
330.294	1	7
330.465	1	5
330.636	1	18
330.807	1	17
330.978	1	10
331.149	1	7
331.320	1	8
331.492	1	11
331.663	1	12
331.834	1	15
332.005	1	11
332.176	1	9
332.347	1	5
332.518	1	25
332.689	1	19
332.860	1	4
333.031	1	8
333.202	1	12
333.373	1	12
333.544	1	11
333.715	1	5
333.886	1	6
334.057	1	7
334.228	1	15
334.399	1	19
334.570	1	15
334.741	1	12
334.912	1	8
335.084	1	14
335.255	1	12
335.426	1	13
335.597	1	10
335.768	1	18
335.939	1	15
336.110	1	19
336.281	1	11
336.452	1	27
336.623	1	6
336.794	1	23
336.965	1	4
337.136	1	22
337.307	1	9
337.478	1	22
337.649	1	8
337.820	1	14
337.991	1	17
338.162	1	16
338.333	1	7
338.504	1	14
338.675	1	12
338.846	1	6
339.017	1	16
339.188	1	21
339.359	1	15
339.530	1	18
339.701	1	27
339.872	1	31
340.043	1	10
340.214	1	20
340.385	1	18
340.556	1	12
340.727	1	18
340.898	1	30
341.069	1	14
341.240	1	14
341.411	1	20
341.582	1	16
341.753	1	14
341.924	1	20
342.095	1	26
342.266	1	24
342.437	1	27
342.608	1	26
342.779	1	9
342.950	1	19
343.121	1	20
343.292	1	15
343.463	1	34
343.634	1	25
343.805	1	20
343.976	1	35
344.147	1	25
344.318	1	8
344.489	1	28
344.660	1	24
344.831	1	23
345.002	1	27
345.173	1	14
345.344	1	20
345.515	1	26
345.686	1	18
345.857	1	33
346.028	1	27
346.199	1	19
346.370	1	26
346.541	1	26
346.712	1	17
346.883	1	35
347.054	1	32
347.225	1	19
347.396	1	30
347.567	1	24
347.738	1	18
347.909	1	27
348.080	1	30
348.251	1	18
348.422	1	34
348.593	1	16
348.764	1	28
348.935	1	22
349.106	1	18
349.277	1	30
349.448	1	24
349.619	1	33
349.790	1	30
349.961	1	22
350.132	1	35
350.303	1	31
350.474	1	30
350.645	1	24
350.816	1	33
350.987	1	41
351.157	1	35
351.328	1	27
351.499	1	35
351.670	1	24
351.841	1	32
352.012	1	30
352.183	1	39
352.354	1	31
352.525	1	38
352.696	1	29
352.867	1	42
353.038	1	31
353.209	1	23
353.380	1	33
353.551	1	35
353.722	1	39
353.893	1	37
354.064	1	34
354.235	1	17
354.406	1	26
354.576	1	32
354.747	1	30
354.918	1	27
355.089	1	33
355.260	1	35
355.431	1	24
355.602	1	33
355.773	1	21
355.944	1	33
356.115	1	37
356.286	1	44
356.457	1	26
356.628	1	38
356.799	1	37
356.970	1	36
357.141	1	32
357.311	1	40
357.482	1	25
357.653	1	30
357.824	1	45
357.995	1	38
358.166	1	29
358.337	1	29
358.508	1	38
358.679	1	31
358.850	1	42
359.021	1	39
359.192	1	48
359.363	1	46
359.533	1	31
359.704	1	41
359.875	1	29
360.046	1	42
360.217	1	41
360.388	1	40
360.559	1	49
360.730	1	36
360.901	1	38
361.072	1	47
361.243	1	35
361.414	1	48
361.584	1	27
361.755	1	31
361.926	1	36
362.097	1	34
362.268	1	47
362.439	1	36
362.610	1	40
362.781	1	32
362.952	1	42
363.123	1	22
363.293	1	34
363.464	1	38
363.635	1	35
363.806	1	32
363.977	1	35
364.148	1	31
364.319	1	26
364.490	1	31
364.661	1	41
364.832	1	32
365.002	1	39
365.173	1	40
365.344	1	33
365.515	1	32
365.686	1	46
365.857	1	41
366.028	1	40
366.199	1	40
366.370	1	42
366.540	1	37
366.711	1	39
366.882	1	45
367.053	1	29
367.224	1	37
367.395	1	36
367.566	1	43
367.737	1	35
367.908	1	28
368.078	1	43
368.249	1	44
368.420	1	43
368.591	1	41
368.762	1	48
368.933	1	37
369.104	1	39
369.274	1	42
369.445	1	45
369.616	1	43
369.787	1	41
369.958	1	43
370.129	1	36
370.300	1	24
370.471	1	43
370.641	1	31
370.812	1	45
370.983	1	30
371.154	1	48
371.325	1	44
371.496	1	36
371.667	1	54
371.837	1	40
372.008	1	36
372.179	1	35
372.350	1	35
372.521	1	47
372.692	1	50
372.863	1	40
373.033	1	38
373.204	1	30
373.375	1	37
373.546	1	48
373.717	1	26
373.888	1	45
374.059	1	42
374.229	1	58
374.400	1	42
374.571	1	46
374.742	1	50
374.913	1	28
375.084	1	45
375.254	1	34
375.425	1	45
375.596	1	46
375.767	1	45
375.938	1	37
376.109	1	38
376.279	1	36
376.450	1	47
376.621	1	51
376.792	1	48
376.963	1	38
377.134	1	38
377.304	1	48
377.475	1	37
377.646	1	26
377.817	1	48
377.988	1	50
378.159	1	55
378.329	1	45
378.500	1	50
378.671	1	39
378.842	1	43
379.013	1	46
379.184	1	42
379.354	1	46
379.525	1	60
379.696	1	44
379.867	1	48
380.038	1	49
380.209	1	56
380.379	1	45
380.550	1	39
380.721	1	44
380.892	1	43
381.063	1	45
381.233	1	48
381.404	1	48
381.575	1	40
381.746	1	46
381.917	1	40
382.087	1	54
382.258	1	54
382.429	1	50
382.600	1	38
382.771	1	37
382.941	1	49
383.112	1	44
383.283	1	51
383.454	1	43
383.625	1	56
383.795	1	45
383.966	1	51
384.137	1	52
384.308	1	43
384.479	1	48
384.649	1	52
384.820	1	58
384.991	1	45
385.162	1	65
385.333	1	47
385.503	1	40
385.674	1	46
385.845	1	52
386.016	1	52
386.187	1	47
386.357	1	56
386.528	1	43
386.699	1	56
386.870	1	46
387.041	1	60
387.211	1	56
387.382	1	51
387.553	1	64
387.724	1	48
387.894	1	46
388.065	1	56
388.236	1	54
388.407	1	66
388.578	1	50
388.748	1	53
388.919	1	57
389.090	1	53
389.261	1	44
389.431	1	43
389.602	1	52
389.773	1	62
389.944	1	44
390.114	1	50
390.285	1	61
390.456	1	60
390.627	1	47
390.798	1	52
390.968	1	55
391.139	1	60
391.310	1	53
391.481	1	49
391.651	1	64
391.822	1	61
391.993	1	50
392.164	1	49
392.334	1	47
392.505	1	56
392.676	1	45
392.847	1	48
393.017	1	49
393.188	1	57
393.359	1	65
393.530	1	66
393.700	1	40
393.871	1	51
394.042	1	42
394.213	1	57
394.383	1	50
394.554	1	52
394.725	1	42
394.896	1	68
395.066	1	65
395.237	1	57
395.408	1	62
395.579	1	51
395.749	1	68
395.920	1	59
396.091	1	52
396.262	1	50
396.432	1	51
396.603	1	53
396.774	1	55
396.945	1	60
397.115	1	63
397.286	1	52
397.457	1	56
397.627	1	48
397.798	1	59
397.969	1	61
398.140	1	54
398.310	1	57
398.481	1	50
398.652	1	65
398.823	1	54
398.993	1	53
399.164	1	65
399.335	1	52
399.505	1	54
399.676	1	60
399.847	1	57
400.018	1	50
400.188	1	57
400.359	1	68
400.530	1	63
400.700	1	57
400.871	1	57
401.042	1	61
401.213	1	61
401.383	1	58
401.554	1	51
401.725	1	61
401.895	1	51
402.066	1	55
402.237	1	63
402.408	1	56
402.578	1	63
402.749	1	49
402.920	1	64
403.090	1	52
403.261	1	59
403.432	1	58
403.603	1	53
403.773	1	66
403.944	1	63
404.115	1	60
404.285	1	57
404.456	1	65
404.627	1	63
404.797	1	52
404.968	1	62
405.139	1	57
405.310	1	47
405.480	1	59
405.651	1	51
405.822	1	61
405.992	1	56
406.163	1	54
406.334	1	71
406.504	1	65
406.675	1	56
406.846	1	62
407.016	1	66
407.187	1	56
407.358	1	55
407.528	1	76
407.699	1	60
407.870	1	68
408.041	1	58
408.211	1	68
408.382	1	75
408.553	1	66
408.723	1	67
408.894	1	67
409.065	1	61
409.235	1	68
409.406	1	56
409.577	1	66
409.747	1	63
409.918	1	73
410.089	1	83
410.259	1	49
410.430	1	65
410.601	1	65
410.771	1	72
410.942	1	62
411.113	1	66
411.283	1	57
411.454	1	70
411.625	1	64
411.795	1	66
411.966	1	61
412.137	1	79
412.307	1	57
412.478	1	60
412.649	1	55
412.819	1	69
412.990	1	78
413.161	1	56
413.331	1	69
413.502	1	61
413.672	1	53
413.843	1	55
414.014	1	61
414.184	1	63
414.355	1	62
414.526	1	50
414.696	1	71
414.867	1	58
415.038	1	59
415.208	1	46
415.379	1	55
415.550	1	70
415.720	1	45
415.891	1	67
416.062	1	75
416.232	1	69
416.403	1	69
416.573	1	65
416.744	1	62
416.915	1	62
417.085	1	54
417.256	1	59
417.427	1	52
417.597	1	54
417.768	1	70
417.939	1	55
418.109	1	64
418.280	1	65
418.450	1	72
418.621	1	53
418.792	1	60
418.962	1	63
419.133	1	60
419.304	1	58
419.474	1	66
419.645	1	66
419.815	1	57
419.986	1	73
420.157	1	58
420.327	1	54
420.498	1	63
420.669	1	75
420.839	1	66
421.010	1	65
421.180	1	61
421.351	1	55
421.522	1	69
421.692	1	64
421.863	1	70
422.033	1	62
422.204	1	64
422.375	1	60
422.545	1	64
422.716	1	48
422.886	1	65
423.057	1	59
423.228	1	62
423.398	1	57
423.569	1	54
423.740	1	59
423.910	1	66
424.081	1	50
424.251	1	59
424.422	1	64
424.593	1	60
424.763	1	60
424.934	1	63
425.104	1	71
425.275	1	57
425.445	1	57
425.616	1	70
425.787	1	53
425.957	1	59
426.128	1	54
426.298	1	63
426.469	1	53
426.640	1	54
426.810	1	46
426.981	1	60
427.151	1	47
427.322	1	48
427.493	1	62
427.663	1	54
427.834	1	51
428.004	1	57
428.175	1	62
428.345	1	55
428.516	1	59
428.687	1	60
428.857	1	59
429.028	1	47
429.198	1	49
429.369	1	60
429.540	1	60
429.710	1	61
429.881	1	63
430.051	1	57
430.222	1	57
430.392	1	55
430.563	1	50
430.734	1	52
430.904	1	60
431.075	1	43
431.245	1	48
431.416	1	64
431.586	1	46
431.757	1	65
431.927	1	55
432.098	1	63
432.269	1	49
432.439	1	54
432.610	1	66
432.780	1	53
432.951	1	46
433.121	1	57
433.292	1	62
433.462	1	52
433.633	1	62
433.804	1	61
433.974	1	70
434.145	1	58
434.315	1	57
434.486	1	47
434.656	1	64
434.827	1	66
434.997	1	58
435.168	1	54
435.339	1	67
435.509	1	56
435.680	1	64
435.850	1	47
436.021	1	52
436.191	1	46
436.362	1	60
436.532	1	60
436.703	1	54
436.873	1	42
437.044	1	66
437.214	1	51
437.385	1	56
437.556	1	55
437.726	1	46
437.897	1	55
438.067	1	59
438.238	1	51
438.408	1	59
438.579	1	50
438.749	1	47
438.920	1	61
439.090	1	47
439.261	1	55
439.431	1	28
439.602	1	55
439.772	1	58
439.943	1	42
440.113	1	55
440.284	1	51
440.455	1	55
440.625	1	62
440.796	1	44
440.966	1	57
441.137	1	56
441.307	1	56
441.478	1	47
441.648	1	46
441.819	1	48
441.989	1	57
442.160	1	49
442.330	1	55
442.501	1	42
442.671	1	44
442.842	1	42
443.012	1	48
443.183	1	48
443.353	1	53
443.524	1	50
443.694	1	47
443.865	1	62
444.035	1	46
444.206	1	49
444.376	1	53
444.547	1	43
444.717	1	58
444.888	1	38
445.058	1	53
445.229	1	49
445.399	1	45
445.570	1	37
445.740	1	52
445.911	1	43
446.081	1	48
446.252	1	43
446.422	1	51
446.593	1	46
446.763	1	49
446.934	1	38
447.104	1	45
447.275	1	46
447.445	1	48
447.616	1	42
447.786	1	49
447.957	1	44
448.127	1	44
448.298	1	53
448.468	1	50
448.639	1	38
448.809	1	45
448.979	1	53
449.150	1	44
449.320	1	52
449.491	1	42
449.661	1	39
449.832	1	31
450.002	1	45
450.173	1	53
450.343	1	48
450.514	1	59
450.684	1	40
450.855	1	54
451.025	1	45
451.196	1	45
451.366	1	58
451.537	1	52
451.707	1	45
451.878	1	33
452.048	1	51
452.218	1	48
452.389	1	45
452.559	1	55
452.730	1	45
452.900	1	40
453.071	1	49
453.241	1	53
453.412	1	41
453.582	1	55
453.753	1	41
453.923	1	38
454.093	1	34
454.264	1	48
454.434	1	45
454.605	1	31
454.775	1	35
454.946	1	35
455.116	1	52
455.287	1	29
455.457	1	50
455.628	1	33
455.798	1	50
455.968	1	40
456.139	1	49
456.309	1	38
456.480	1	37
456.650	1	37
456.821	1	44
456.991	1	45
457.161	1	48
457.332	1	44
457.502	1	37
457.673	1	44
457.843	1	27
458.014	1	38
458.184	1	49
458.355	1	32
458.525	1	36
458.695	1	36
458.866	1	26
459.036	1	44
459.207	1	45
459.377	1	40
459.548	1	45
459.718	1	49
459.888	1	31
460.059	1	40
460.229	1	34
460.400	1	37
460.570	1	39
460.740	1	44
460.911	1	35
461.081	1	35
461.252	1	48
461.422	1	38
461.593	1	45
461.763	1	44
461.933	1	37
462.104	1	32
462.274	1	38
462.445	1	37
462.615	1	38
462.785	1	44
462.956	1	34
463.126	1	40
463.297	1	43
463.467	1	42
463.638	1	40
463.808	1	40
463.978	1	22
464.149	1	32
464.319	1	40
464.490	1	39
464.660	1	28
464.830	1	36
465.001	1	30
465.171	1	32
465.342	1	40
465.512	1	46
465.682	1	23
465.853	1	39
466.023	1	32
466.194	1	40
466.364	1	40
466.534	1	24
466.705	1	46
466.875	1	26
467.045	1	31
467.216	1	30
467.386	1	37
467.557	1	35
467.727	1	36
467.897	1	41
468.068	1	31
468.238	1	33
468.409	1	37
468.579	1	39
468.749	1	37
468.920	1	26
469.090	1	41
469.260	1	35
469.431	1	26
469.601	1	33
469.772	1	41
469.942	1	38
470.112	1	30
470.283	1	48
470.453	1	30
470.623	1	45
470.794	1	28
470.964	1	28
471.135	1	39
471.305	1	33
471.475	1	37
471.646	1	40
471.816	1	40
471.986	1	30
472.157	1	23
472.327	1	36
472.497	1	34
472.668	1	29
472.838	1	18
473.009	1	31
473.179	1	29
473.349	1	27
473.520	1	43
473.690	1	37
473.860	1	20
474.031	1	27
474.201	1	36
474.371	1	36
474.542	1	29
474.712	1	27
474.882	1	33
475.053	1	35
475.223	1	29
475.394	1	26
475.564	1	23
475.734	1	16
475.905	1	35
476.075	1	41
476.245	1	14
476.416	1	20
476.586	1	40
476.756	1	24
476.927	1	34
477.097	1	28
477.267	1	22
477.438	1	39
477.608	1	32
477.778	1	17
477.949	1	22
478.119	1	32
478.289	1	19
478.460	1	22
478.630	1	36
478.800	1	21
478.971	1	33
479.141	1	32
479.311	1	34
479.482	1	23
479.652	1	33
479.822	1	20
479.993	1	26
480.163	1	31
480.333	1	33
480.504	1	40
480.674	1	35
480.844	1	32
481.015	1	27
481.185	1	33
481.355	1	36
481.525	1	18
481.696	1	33
481.866	1	32
482.036	1	36
482.207	1	33
482.377	1	27
482.547	1	33
482.718	1	29
482.888	1	32
483.058	1	34
483.229	1	31
483.399	1	33
483.569	1	25
483.740	1	26
483.910	1	10
484.080	1	29
484.250	1	18
484.421	1	19
484.591	1	23
484.761	1	26
484.932	1	21
485.102	1	31
485.272	1	19
485.443	1	26
485.613	1	21
485.783	1	21
485.953	1	26
486.124	1	27
486.294	1	20
486.464	1	34
486.635	1	26
486.805	1	27
486.975	1	19
487.146	1	30
487.316	1	27
487.486	1	31
487.656	1	23
487.827	1	3
487.997	1	21
488.167	1	27
488.338	1	21
488.508	1	22
488.678	1	29
488.848	1	15
489.019	1	16
489.189	1	32
489.359	1	22
489.529	1	20
489.700	1	20
489.870	1	32
490.040	1	11
490.211	1	12
490.381	1	29
490.551	1	23
490.721	1	28
490.892	1	18
491.062	1	17
491.232	1	19
491.402	1	27
491.573	1	25
491.743	1	21
491.913	1	26
492.084	1	25
492.254	1	17
492.424	1	27
492.594	1	21
492.765	1	22
492.935	1	30
493.105	1	24
493.275	1	28
493.446	1	10
493.616	1	21
493.786	1	26
493.956	1	21
494.127	1	19
494.297	1	10
494.467	1	14
494.637	1	26
494.808	1	19
494.978	1	14
495.148	1	20
495.318	1	19
495.489	1	15
495.659	1	6
495.829	1	24
495.999	1	19
496.170	1	15
496.340	1	16
496.510	1	17
496.680	1	21
496.851	1	23
497.021	1	17
497.191	1	23
497.361	1	7
497.532	1	16
497.702	1	17
497.872	1	24
498.042	1	14
498.213	1	7
498.383	1	21
498.553	1	26
498.723	1	16
498.894	1	17
499.064	1	17
499.234	1	19
499.404	1	24
499.574	1	11
499.745	1	21
499.915	1	15
500.085	1	11
500.255	1	2
500.426	1	16
500.596	1	6
500.766	1	10
500.936	1	19
501.106	1	7
501.277	1	5
501.447	1	27
501.617	1	9
501.787	1	9
501.958	1	15
502.128	1	11
502.298	1	16
502.468	1	13
502.638	1	17
502.809	1	9
502.979	1	12
503.149	1	14
503.319	1	19
503.489	1	13
503.660	1	10
503.830	1	25
504.000	1	18
504.170	1	12
504.340	1	2
504.511	1	12
504.681	1	12
504.851	1	21
505.021	1	8
505.192	1	11
505.362	1	20
505.532	1	14
505.702	1	24
505.872	1	7
506.043	1	14
506.213	1	18
506.383	1	21
506.553	1	18
506.723	1	5
506.893	1	12
507.064	1	18
507.234	1	15
507.404	1	14
507.574	1	14
507.744	1	13
507.915	1	10
508.085	1	11
508.255	1	15
508.425	1	13
508.595	1	12
508.766	1	18
508.936	1	15
509.106	1	23
509.276	1	15
509.446	1	8
509.616	1	6
509.787	1	13
509.957	1	20
510.127	1	4
510.297	1	7
510.467	1	10
510.638	1	12
510.808	1	19
510.978	1	4
511.148	1	12
511.318	1	15
511.488	1	7
511.659	1	12
511.829	1	5
511.999	1	7
512.169	1	13
512.339	1	14
512.509	1	2
512.680	1	7
512.850	1	16
513.020	1	20
513.190	1	8
513.360	1	17
513.530	1	9
513.700	1	12
513.871	1	8
514.041	1	9
514.211	1	15
514.381	1	18
514.551	1	12
514.721	1	6
514.892	1	5
515.062	1	10
515.232	1	17
515.402	1	13
515.572	1	16
515.742	1	13
515.912	1	16
516.083	1	9
516.253	1	19
516.423	1	10
516.593	1	16
516.763	1	17
516.933	1	12
517.104	1	22
517.274	1	4
517.444	1	5
517.614	1	9
517.784	1	12
517.954	1	5
518.124	1	5
518.294	1	12
518.465	1	8
518.635	1	19
518.805	1	13
518.975	1	9
519.145	1	11
519.315	1	12
519.485	1	-1
519.656	1	-1
519.826	1	7
519.996	1	24
520.166	1	7
520.336	1	9
520.506	1	1
520.676	1	15
520.846	1	14
521.017	1	-1
521.187	1	14
521.357	1	-1
521.527	1	7
521.697	1	12
521.867	1	19
522.037	1	8
522.207	1	16
522.377	1	22
522.548	1	-8
522.718	1	8
522.888	1	12
523.058	1	10
523.228	1	2
523.398	1	4
523.568	1	-5
523.738	1	7
523.909	1	14
524.079	1	17
524.249	1	11
524.419	1	2
524.589	1	18
524.759	1	10
524.929	1	12
525.099	1	5
525.269	1	12
525.439	1	4
525.610	1	17
525.780	1	7
525.950	1	12
526.120	1	6
526.290	1	-3
526.460	1	-1
526.630	1	11
526.800	1	5
526.970	1	18
527.140	1	6
527.311	1	9
527.481	1	20
527.651	1	13
527.821	1	16
527.991	1	8
528.161	1	13
528.331	1	4
528.501	1	7
528.671	1	12
528.841	1	12
529.011	1	14
529.181	1	5
529.352	1	4
529.522	1	8
529.692	1	15
529.862	1	7
530.032	1	10
530.202	1	1
530.372	1	9
530.542	1	0
530.712	1	2
530.882	1	16
531.052	1	13
531.222	1	15
531.392	1	5
531.563	1	13
531.733	1	10
531.903	1	-3
532.073	1	-2
532.243	1	24
532.413	1	17
532.583	1	8
532.753	1	1
532.923	1	13
533.093	1	-1
533.263	1	3
533.433	1	11
533.603	1	6
533.773	1	17
533.943	1	2
534.113	1	8
534.284	1	13
534.454	1	10
534.624	1	-4
534.794	1	12
534.964	1	5
535.134	1	13
535.304	1	15
535.474	1	7
535.644	1	9
535.814	1	5
535.984	1	7
536.154	1	3
536.324	1	4
536.494	1	8
536.664	1	5
536.834	1	8
537.004	1	10
537.174	1	20
537.344	1	13
537.514	1	7
537.685	1	7
537.855	1	3
538.025	1	20
538.195	1	0
538.365	1	0
538.535	1	8
538.705	1	8
538.875	1	4
539.045	1	7
539.215	1	4
539.385	1	15
539.555	1	6
539.725	1	5
539.895	1	1
540.065	1	13
540.235	1	16
540.405	1	8
540.575	1	5
540.745	1	15
540.915	1	20
541.085	1	3
541.255	1	2
541.425	1	15
541.595	1	8
541.765	1	5
541.935	1	12
542.105	1	11
542.275	1	1
542.445	1	13
542.615	1	21
542.785	1	6
542.955	1	16
543.125	1	-1
543.295	1	8
543.465	1	11
543.635	1	-4
543.805	1	4
543.975	1	10
544.145	1	11
544.315	1	-9
544.485	1	5
544.655	1	5
544.825	1	3
544.995	1	11
545.165	1	0
545.335	1	8
545.505	1	0
545.675	1	9
545.845	1	20
546.015	1	1
546.185	1	4
546.355	1	5
546.525	1	12
546.695	1	5
546.865	1	10
547.035	1	6
547.205	1	20
547.375	1	14
547.545	1	15
547.715	1	5
547.885	1	6
548.055	1	5
548.225	1	14
548.395	1	7
548.565	1	17
548.735	1	7
548.905	1	0
549.075	1	11
549.245	1	11
549.415	1	14
549.585	1	9
549.755	1	9
549.925	1	20
550.095	1	3
550.265	1	2
550.435	1	8
550.605	1	9
550.775	1	3
550.945	1	4
551.115	1	16
551.285	1	6
551.455	1	7
551.625	1	4
551.795	1	0
551.965	1	-6
552.135	1	6
552.305	1	6
552.475	1	12
552.645	1	3
552.815	1	7
552.985	1	5
553.155	1	3
553.325	1	11
553.495	1	6
553.665	1	7
553.835	1	9
554.004	1	3
554.174	1	-2
554.344	1	6
554.514	1	-12
554.684	1	10
554.854	1	-2
555.024	1	16
555.194	1	4
555.364	1	3
555.534	1	3
555.704	1	9
555.874	1	11
556.044	1	6
556.214	1	11
556.384	1	7
556.554	1	7
556.724	1	1
556.894	1	-2
557.064	1	8
557.234	1	4
557.404	1	10
557.573	1	13
557.743	1	-10
557.913	1	6
558.083	1	2
558.253	1	9
558.423	1	7
558.593	1	24
558.763	1	6
558.933	1	-3
559.103	1	5
559.273	1	13
559.443	1	5
559.613	1	7
559.783	1	0
559.953	1	-2
560.122	1	7
560.292	1	2
560.462	1	-1
560.632	1	0
560.802	1	4
560.972	1	-5
561.142	1	13
561.312	1	5
561.482	1	12
561.652	1	7
561.822	1	11
561.992	1	16
562.162	1	-4
562.331	1	3
562.501	1	9
562.671	1	-2
562.841	1	-2
563.011	1	11
563.181	1	2
563.351	1	-4
563.521	1	-4
563.691	1	7
563.861	1	4
564.031	1	1
564.201	1	12
564.370	1	9
564.540	1	0
564.710	1	0
564.880	1	1
565.050	1	8
565.220	1	1
565.390	1	4
565.560	1	8
565.730	1	10
565.900	1	3
566.069	1	12
566.239	1	7
566.409	1	9
566.579	1	5
566.749	1	-1
566.919	1	-6
567.089	1	-13
567.259	1	12
567.429	1	-6
567.599	1	18
567.768	1	1
567.938	1	6
568.108	1	7
568.278	1	14
568.448	1	9
568.618	1	5
568.788	1	9
568.958	1	1
569.128	1	-6
569.297	1	-4
569.467	1	10
569.637	1	4
569.807	1	9
569.977	1	1
570.147	1	0
570.317	1	5
570.487	1	1
570.656	1	11
570.826	1	7
570.996	1	11
571.166	1	6
571.336	1	-3
571.506	1	-6
571.676	1	3
571.846	1	8
572.015	1	10
572.185	1	6
572.355	1	2
572.525	1	-5
572.695	1	-2
572.865	1	6
573.035	1	4
573.205	1	3
573.374	1	-5
573.544	1	14
573.714	1	-8
573.884	1	6
574.054	1	12
574.224	1	2
574.394	1	0
574.563	1	-3
574.733	1	14
574.903	1	11
575.073	1	1
575.243	1	4
575.413	1	-1
575.583	1	-1
575.752	1	2
575.922	1	11
576.092	1	-5
576.262	1	4
576.432	1	3
576.602	1	5
576.772	1	6
576.941	1	12
577.111	1	1
577.281	1	6
577.451	1	13
577.621	1	4
577.791	1	6
577.960	1	6
578.130	1	5
578.300	1	-3
578.470	1	7
578.640	1	0
578.810	1	-1
578.979	1	2
579.149	1	5
579.319	1	-1
579.489	1	10
579.659	1	0
579.829	1	-5
579.998	1	-12
580.168	1	4
580.338	1	1
580.508	1	0
580.678	1	2
580.848	1	0
581.017	1	1
581.187	1	3
581.357	1	3
581.527	1	8
581.697	1	-3
581.867	1	6
582.036	1	-4
582.206	1	5
582.376	1	3
582.546	1	7
582.716	1	1
582.885	1	5
583.055	1	-2
583.225	1	5
583.395	1	6
583.565	1	6
583.735	1	9
583.904	1	5
584.074	1	0
584.244	1	3
584.414	1	-2
584.584	1	4
584.753	1	2
584.923	1	0
585.093	1	8
585.263	1	3
585.433	1	8
585.602	1	5
585.772	1	16
585.942	1	2
586.112	1	6
586.282	1	9
586.451	1	8
586.621	1	-1
586.791	1	-4
586.961	1	-1
587.131	1	-2
587.300	1	17
587.470	1	-2
587.640	1	2
587.810	1	-13
587.980	1	10
588.149	1	8
588.319	1	12
588.489	1	13
588.659	1	-3
588.829	1	2
588.998	1	3
589.168	1	12
589.338	1	-3
589.508	1	6
589.677	1	0
589.847	1	14
590.017	1	-2
590.187	1	-2
590.357	1	-5
590.526	1	-6
590.696	1	0
590.866	1	-6
591.036	1	9
591.205	1	4
591.375	1	-1
591.545	1	2
591.715	1	3
591.885	1	4
592.054	1	4
592.224	1	2
592.394	1	2
592.564	1	1
592.733	1	2
592.903	1	10
593.073	1	-2
593.243	1	19
593.412	1	-2
593.582	1	4
593.752	1	-1
593.922	1	4
594.091	1	10
594.261	1	-6
594.431	1	5
594.601	1	-4
594.771	1	-1
594.940	1	7
595.110	1	13
595.280	1	3
595.450	1	1
595.619	1	4
595.789	1	-2
595.959	1	-3
596.129	1	6
596.298	1	16
596.468	1	-3
596.638	1	4
596.808	1	-8
596.977	1	0
597.147	1	0
597.317	1	3
597.487	1	4
597.656	1	5
597.826	1	11
597.996	1	2
598.166	1	6
598.335	1	-1
598.505	1	6
598.675	1	4
598.844	1	20
599.014	1	-2
599.184	1	5
599.354	1	4
599.523	1	-1
599.693	1	3
599.863	1	13
600.033	1	10
600.202	1	0
600.372	1	0
600.542	1	-1
600.712	1	-1
600.881	1	9
601.051	1	13
601.221	1	6
601.390	1	4
601.560	1	12
601.730	1	6
601.900	1	11
602.069	1	10
602.239	1	5
602.409	1	11
602.578	1	25
602.748	1	11
602.918	1	-6
603.088	1	1
603.257	1	-6
603.427	1	7
603.597	1	0
603.767	1	6
603.936	1	11
604.106	1	-2
604.276	1	0
604.445	1	0
604.615	1	6
604.785	1	5
604.954	1	2
605.124	1	-1
605.294	1	0
605.464	1	1
605.633	1	9
605.803	1	6
605.973	1	-3
606.142	1	14
606.312	1	6
606.482	1	-2
606.652	1	11
606.821	1	5
606.991	1	17
607.161	1	12
607.330	1	8
607.500	1	0
607.670	1	3
607.839	1	8
608.009	1	5
608.179	1	-3
608.348	1	11
608.518	1	15
608.688	1	-1
608.858	1	7
609.027	1	7
609.197	1	14
609.367	1	-4
609.536	1	-8
609.706	1	5
609.876	1	9
610.045	1	7
610.215	1	10
610.385	1	4
610.554	1	3
610.724	1	8
610.894	1	0
611.063	1	5
611.233	1	7
611.403	1	9
611.572	1	5
611.742	1	3
611.912	1	-5
612.081	1	15
612.251	1	5
612.421	1	0
612.590	1	4
612.760	1	-3
612.930	1	8
613.099	1	5
613.269	1	4
613.439	1	2
613.608	1	9
613.778	1	10
613.948	1	17
614.117	1	-9
614.287	1	-1
614.457	1	11
614.626	1	8
614.796	1	8
614.966	1	-1
615.135	1	14
615.305	1	8
615.475	1	4
615.644	1	12
615.814	1	14
615.984	1	0
616.153	1	1
616.323	1	3
616.493	1	-3
616.662	1	1
616.832	1	4
617.002	1	4
617.171	1	10
617.341	1	15
617.511	1	-8
617.680	1	0
617.850	1	12
618.019	1	-2
618.189	1	11
618.359	1	5
618.528	1	6
618.698	1	8
618.868	1	12
619.037	1	1
619.207	1	6
619.377	1	17
619.546	1	14
619.716	1	0
619.885	1	3
620.055	1	1
620.225	1	6
620.394	1	5
620.564	1	3
620.734	1	9
620.903	1	-7
621.073	1	13
621.242	1	6
621.412	1	1
621.582	1	5
621.751	1	5
621.921	1	9
622.091	1	1
622.260	1	12
622.430	1	9
622.599	1	6
622.769	1	11
622.939	1	4
623.108	1	11
623.278	1	3
623.448	1	6
623.617	1	5
623.787	1	5
623.956	1	-6
624.126	1	2
624.296	1	6
624.465	1	4
624.635	1	3
624.804	1	5
624.974	1	5
625.144	1	7
625.313	1	18
625.483	1	5
625.652	1	3
625.822	1	8
625.992	1	-1
626.161	1	4
626.331	1	5
626.501	1	9
626.670	1	-1
626.840	1	10
627.009	1	6
627.179	1	2
627.348	1	12
627.518	1	13
627.688	1	4
627.857	1	13
628.027	1	4
628.196	1	18
628.366	1	-5
628.536	1	8
628.705	1	2
628.875	1	-3
629.044	1	9
629.214	1	7
629.384	1	13
629.553	1	1
629.723	1	17
629.892	1	2
630.062	1	8
630.232	1	16
630.401	1	15
630.571	1	2
630.740	1	12
630.910	1	11
631.079	1	7
631.249	1	-4
631.419	1	-1
631.588	1	13
631.758	1	-1
631.927	1	15
632.097	1	4
632.266	1	2
632.436	1	3
632.606	1	12
632.775	1	9
632.945	1	2
633.114	1	-1
633.284	1	7
633.453	1	4
633.623	1	14
633.793	1	-1
633.962	1	3
634.132	1	0
634.301	1	21
634.471	1	13
634.640	1	6
634.810	1	9
634.979	1	7
635.149	1	-2
635.319	1	0
635.488	1	3
635.658	1	9
635.827	1	11
635.997	1	16
636.166	1	14
636.336	1	8
636.505	1	11
636.675	1	9
636.845	1	2
637.014	1	-5
637.184	1	10
637.353	1	5
637.523	1	6
637.692	1	10
637.862	1	0
638.031	1	-1
638.201	1	14
638.370	1	4
638.540	1	3
638.710	1	7
638.879	1	-2
639.049	1	6
639.218	1	8
639.388	1	4
639.557	1	10
639.727	1	7
639.896	1	2
640.066	1	2
640.235	1	0
640.405	1	15
640.574	1	16
640.744	1	2
640.914	1	4
641.083	1	18
641.253	1	4
641.422	1	1
641.592	1	10
641.761	1	16
641.931	1	12
642.100	1	10
642.270	1	6
642.439	1	5
642.609	1	11
642.778	1	10
642.948	1	25
643.117	1	4
643.287	1	9
643.456	1	9
643.626	1	0
643.795	1	15
643.965	1	11
644.134	1	5
644.304	1	1
644.473	1	2
644.643	1	11
644.812	1	3
644.982	1	8
645.151	1	14
645.321	1	14
645.490	1	7
645.660	1	-4
645.829	1	10
645.999	1	2
646.168	1	18
646.338	1	0
646.507	1	1
646.677	1	8
646.846	1	3
647.016	1	18
647.185	1	14
647.355	1	22
647.524	1	8
647.694	1	5
647.863	1	-5
648.033	1	17
648.202	1	15
648.372	1	-3
648.541	1	12
648.711	1	9
648.880	1	9
649.050	1	11
649.219	1	13
649.389	1	-1
649.558	1	10
649.728	1	8
649.897	1	10
650.067	1	19
650.236	1	4
650.406	1	8
650.575	1	10
650.745	1	15
650.914	1	16
651.084	1	12
651.253	1	17
651.423	1	0
651.592	1	8
651.762	1	-5
651.931	1	6
652.101	1	8
652.270	1	0
652.440	1	7
652.609	1	6
652.778	1	20
652.948	1	3
653.117	1	1
653.287	1	-4
653.456	1	14
653.626	1	7
653.795	1	3
653.965	1	4
654.134	1	-1
654.304	1	15
654.473	1	12
654.643	1	18
654.812	1	15
654.982	1	3
655.151	1	15
655.320	1	5
655.490	1	1
655.659	1	15
655.829	1	16
655.998	1	11
656.168	1	5
656.337	1	13
656.507	1	10
656.676	1	2
656.846	1	14
657.015	1	16
657.184	1	-5
657.354	1	15
657.523	1	7
657.693	1	10
657.862	1	1
658.032	1	6
658.201	1	-12
658.371	1	-1
658.540	1	-1
658.709	1	22
658.879	1	13
659.048	1	18
659.218	1	9
659.387	1	11
659.557	1	7
659.726	1	10
659.895	1	6
660.065	1	4
660.234	1	1
660.404	1	8
660.573	1	11
660.743	1	2
660.912	1	12
661.081	1	4
661.251	1	3
661.420	1	15
661.590	1	4
661.759	1	0
661.929	1	7
662.098	1	22
662.267	1	9
662.437	1	22
662.606	1	4
662.776	1	2
662.945	1	9
663.115	1	16
663.284	1	16
663.453	1	8
663.623	1	6
663.792	1	7
663.962	1	22
664.131	1	6
664.300	1	6
664.470	1	10
664.639	1	8
664.809	1	15
664.978	1	14
665.148	1	12
665.317	1	13
665.486	1	18
665.656	1	22
665.825	1	13
665.995	1	3
666.164	1	2
666.333	1	10
666.503	1	-5
666.672	1	10
666.842	1	11
667.011	1	14
667.180	1	16
667.350	1	18
667.519	1	17
667.689	1	10
667.858	1	5
668.027	1	0
668.197	1	-5
668.366	1	15
668.536	1	1
668.705	1	4
668.874	1	17
669.044	1	19
669.213	1	14
669.382	1	11
669.552	1	13
669.721	1	6
669.891	1	-2
670.060	1	6
670.229	1	16
670.399	1	14
670.568	1	9
670.738	1	16
670.907	1	9
671.076	1	11
671.246	1	11
671.415	1	17
671.584	1	16
671.754	1	-9
671.923	1	7
672.093	1	10
672.262	1	1
672.431	1	14
672.601	1	8
672.770	1	12
672.939	1	16
673.109	1	1
673.278	1	10
673.448	1	15
673.617	1	9
673.786	1	0
