325.333	1	13
325.504	1	-1
325.675	1	19
325.846	1	1
326.017	1	15
326.188	1	15
326.359	1	12
326.531	1	12
326.702	1	13
326.873	1	8
327.044	1	17
327.215	1	9
327.386	1	10
327.557	1	5
327.728	1	12
327.899	1	-1
328.070	1	19
328.241	1	16
328.412	1	15
328.583	1	2
328.754	1	12
328.926	1	20
329.097	1	7
329.268	1	18
329.439	1	14
329.610	1	23
329.781	1	11
329.952	1	23
330.123	1	13
330.294	1	10
330.465	1	2
330.636	1	9
330.807	1	15
330.978	1	8
331.149	1	14
331.320	1	5
331.492	1	0
331.663	1	9
331.834	1	6
332.005	1	14
332.176	1	13
332.347	1	11
332.518	1	16
332.689	1	13
332.860	1	21
333.031	1	11
333.202	1	7
333.373	1	23
333.544	1	10
333.715	1	15
333.886	1	8
334.057	1	16
334.228	1	24
334.399	1	22
334.570	1	23
334.741	1	15
334.912	1	10
335.084	1	39
335.255	1	14
335.426	1	23
335.597	1	18
335.768	1	18
335.939	1	19
336.110	1	25
336.281	1	18
336.452	1	25
336.623	1	20
336.794	1	13
336.965	1	11
337.136	1	26
337.307	1	12
337.478	1	24
337.649	1	8
337.820	1	23
337.991	1	23
338.162	1	15
338.333	1	18
338.504	1	26
338.675	1	5
338.846	1	9
339.017	1	18
339.188	1	22
339.359	1	21
339.530	1	11
339.701	1	27
339.872	1	29
340.043	1	20
340.214	1	34
340.385	1	4
340.556	1	25
340.727	1	28
340.898	1	17
341.069	1	23
341.240	1	26
341.411	1	24
341.582	1	20
341.753	1	29
341.924	1	27
342.095	1	29
342.266	1	25
342.437	1	20
342.608	1	24
342.779	1	16
342.950	1	17
343.121	1	33
343.292	1	18
343.463	1	37
343.634	1	37
343.805	1	31
343.976	1	31
344.147	1	37
344.318	1	20
344.489	1	23
344.660	1	29
344.831	1	28
345.002	1	23
345.173	1	35
345.344	1	16
345.515	1	35
345.686	1	31
345.857	1	29
346.028	1	38
346.199	1	30
346.370	1	26
346.541	1	24
346.712	1	27
346.883	1	22
347.054	1	32
347.225	1	27
347.396	1	33
347.567	1	27
347.738	1	28
347.909	1	26
348.080	1	24
348.251	1	24
348.422	1	46
348.593	1	33
348.764	1	27
348.935	1	28
349.106	1	28
349.277	1	29
349.448	1	29
349.619	1	30
349.790	1	46
349.961	1	22
350.132	1	40
350.303	1	32
350.474	1	28
350.645	1	38
350.816	1	31
350.987	1	49
351.157	1	24
351.328	1	27
351.499	1	36
351.670	1	31
351.841	1	34
352.012	1	36
352.183	1	37
352.354	1	30
352.525	1	34
352.696	1	36
352.867	1	40
353.038	1	34
353.209	1	32
353.380	1	36
353.551	1	43
353.722	1	41
353.893	1	41
354.064	1	35
354.235	1	32
354.406	1	26
354.576	1	31
354.747	1	21
354.918	1	43
355.089	1	35
355.260	1	30
355.431	1	33
355.602	1	35
355.773	1	27
355.944	1	27
356.115	1	37
356.286	1	37
356.457	1	41
356.628	1	37
356.799	1	38
356.970	1	46
357.141	1	38
357.311	1	45
357.482	1	28
357.653	1	41
357.824	1	44
357.995	1	46
358.166	1	38
358.337	1	37
358.508	1	52
358.679	1	30
358.850	1	44
359.021	1	37
359.192	1	55
359.363	1	34
359.533	1	30
359.704	1	40
359.875	1	38
360.046	1	40
360.217	1	46
360.388	1	42
360.559	1	39
360.730	1	35
360.901	1	47
361.072	1	40
361.243	1	47
361.414	1	46
361.584	1	34
361.755	1	34
361.926	1	41
362.097	1	33
362.268	1	45
362.439	1	37
362.610	1	43
362.781	1	35
362.952	1	45
363.123	1	41
363.293	1	27
363.464	1	37
363.635	1	43
363.806	1	40
363.977	1	44
364.148	1	43
364.319	1	37
364.490	1	45
364.661	1	47
364.832	1	35
365.002	1	48
365.173	1	41
365.344	1	30
365.515	1	34
365.686	1	45
365.857	1	54
366.028	1	51
366.199	1	47
366.370	1	51
366.540	1	38
366.711	1	44
366.882	1	41
367.053	1	47
367.224	1	45
367.395	1	45
367.566	1	52
367.737	1	38
367.908	1	46
368.078	1	40
368.249	1	53
368.420	1	50
368.591	1	45
368.762	1	48
368.933	1	48
369.104	1	43
369.274	1	58
369.445	1	54
369.616	1	41
369.787	1	45
369.958	1	53
370.129	1	47
370.300	1	35
370.471	1	44
370.641	1	44
370.812	1	50
370.983	1	43
371.154	1	46
371.325	1	43
371.496	1	42
371.667	1	57
371.837	1	54
372.008	1	43
372.179	1	44
372.350	1	42
372.521	1	51
372.692	1	48
372.863	1	49
373.033	1	51
373.204	1	38
373.375	1	38
373.546	1	57
373.717	1	39
373.888	1	52
374.059	1	40
374.229	1	47
374.400	1	47
374.571	1	48
374.742	1	48
374.913	1	32
375.084	1	49
375.254	1	41
375.425	1	44
375.596	1	53
375.767	1	53
375.938	1	43
376.109	1	43
376.279	1	45
376.450	1	53
376.621	1	49
376.792	1	58
376.963	1	44
377.134	1	48
377.304	1	48
377.475	1	39
377.646	1	44
377.817	1	53
377.988	1	58
378.159	1	57
378.329	1	53
378.500	1	56
378.671	1	43
378.842	1	51
379.013	1	46
379.184	1	38
379.354	1	57
379.525	1	55
379.696	1	61
379.867	1	53
380.038	1	49
380.209	1	54
380.379	1	58
380.550	1	36
380.721	1	55
380.892	1	57
381.063	1	47
381.233	1	48
381.404	1	49
381.575	1	54
381.746	1	58
381.917	1	45
382.087	1	67
382.258	1	47
382.429	1	58
382.600	1	58
382.771	1	41
382.941	1	55
383.112	1	55
383.283	1	51
383.454	1	48
383.625	1	57
383.795	1	58
383.966	1	54
384.137	1	64
384.308	1	53
384.479	1	59
384.649	1	53
384.820	1	45
384.991	1	59
385.162	1	68
385.333	1	54
385.503	1	53
385.674	1	56
385.845	1	58
386.016	1	61
386.187	1	50
386.357	1	75
386.528	1	50
386.699	1	49
386.870	1	63
387.041	1	61
387.211	1	57
387.382	1	65
387.553	1	66
387.724	1	53
387.894	1	48
388.065	1	58
388.236	1	60
388.407	1	59
388.578	1	61
388.748	1	68
388.919	1	67
389.090	1	68
389.261	1	63
389.431	1	55
389.602	1	63
389.773	1	60
389.944	1	58
390.114	1	67
390.285	1	69
390.456	1	60
390.627	1	48
390.798	1	55
390.968	1	58
391.139	1	63
391.310	1	60
391.481	1	67
391.651	1	69
391.822	1	65
391.993	1	62
392.164	1	58
392.334	1	59
392.505	1	61
392.676	1	50
392.847	1	66
393.017	1	71
393.188	1	68
393.359	1	74
393.530	1	77
393.700	1	64
393.871	1	70
394.042	1	56
394.213	1	68
394.383	1	65
394.554	1	52
394.725	1	46
394.896	1	64
395.066	1	58
395.237	1	57
395.408	1	66
395.579	1	67
395.749	1	76
395.920	1	62
396.091	1	63
396.262	1	67
396.432	1	60
396.603	1	58
396.774	1	57
396.945	1	63
397.115	1	71
397.286	1	71
397.457	1	68
397.627	1	56
397.798	1	60
397.969	1	62
398.140	1	62
398.310	1	67
398.481	1	66
398.652	1	65
398.823	1	74
398.993	1	62
399.164	1	74
399.335	1	59
399.505	1	56
399.676	1	67
399.847	1	58
400.018	1	64
400.188	1	59
400.359	1	72
400.530	1	63
400.700	1	70
400.871	1	62
401.042	1	67
401.213	1	69
401.383	1	65
401.554	1	60
401.725	1	63
401.895	1	56
402.066	1	77
402.237	1	80
402.408	1	69
402.578	1	72
402.749	1	65
402.920	1	75
403.090	1	75
403.261	1	66
403.432	1	67
403.603	1	68
403.773	1	71
403.944	1	71
404.115	1	67
404.285	1	70
404.456	1	82
404.627	1	74
404.797	1	67
404.968	1	68
405.139	1	75
405.310	1	66
405.480	1	65
405.651	1	66
405.822	1	64
405.992	1	78
406.163	1	63
406.334	1	61
406.504	1	69
406.675	1	61
406.846	1	70
407.016	1	68
407.187	1	72
407.358	1	60
407.528	1	81
407.699	1	78
407.870	1	79
408.041	1	62
408.211	1	70
408.382	1	81
408.553	1	80
408.723	1	71
408.894	1	66
409.065	1	65
409.235	1	79
409.406	1	65
409.577	1	75
409.747	1	71
409.918	1	74
410.089	1	78
410.259	1	66
410.430	1	67
410.601	1	71
410.771	1	75
410.942	1	72
411.113	1	80
411.283	1	69
411.454	1	88
411.625	1	77
411.795	1	70
411.966	1	67
412.137	1	76
412.307	1	61
412.478	1	63
412.649	1	67
412.819	1	67
412.990	1	78
413.161	1	58
413.331	1	76
413.502	1	58
413.672	1	72
413.843	1	75
414.014	1	67
414.184	1	77
414.355	1	74
414.526	1	72
414.696	1	68
414.867	1	66
415.038	1	70
415.208	1	69
415.379	1	52
415.550	1	80
415.720	1	51
415.891	1	67
416.062	1	73
416.232	1	72
416.403	1	74
416.573	1	67
416.744	1	70
416.915	1	72
417.085	1	80
417.256	1	66
417.427	1	69
417.597	1	74
417.768	1	73
417.939	1	76
418.109	1	68
418.280	1	77
418.450	1	76
418.621	1	65
418.792	1	69
418.962	1	69
419.133	1	61
419.304	1	56
419.474	1	72
419.645	1	77
419.815	1	73
419.986	1	70
420.157	1	62
420.327	1	60
420.498	1	66
420.669	1	73
420.839	1	74
421.010	1	61
421.180	1	61
421.351	1	69
421.522	1	74
421.692	1	76
421.863	1	75
422.033	1	63
422.204	1	68
422.375	1	75
422.545	1	69
422.716	1	61
422.886	1	77
423.057	1	70
423.228	1	62
423.398	1	64
423.569	1	59
423.740	1	73
423.910	1	72
424.081	1	64
424.251	1	65
424.422	1	67
424.593	1	73
424.763	1	68
424.934	1	71
425.104	1	77
425.275	1	58
425.445	1	66
425.616	1	58
425.787	1	55
425.957	1	66
426.128	1	72
426.298	1	75
426.469	1	60
426.640	1	61
426.810	1	49
426.981	1	75
427.151	1	51
427.322	1	63
427.493	1	70
427.663	1	66
427.834	1	63
428.004	1	59
428.175	1	64
428.345	1	63
428.516	1	67
428.687	1	77
428.857	1	64
429.028	1	62
429.198	1	58
429.369	1	62
429.540	1	60
429.710	1	57
429.881	1	56
430.051	1	73
430.222	1	73
430.392	1	69
430.563	1	53
430.734	1	57
430.904	1	60
431.075	1	76
431.245	1	64
431.416	1	76
431.586	1	57
431.757	1	70
431.927	1	67
432.098	1	65
432.269	1	65
432.439	1	61
432.610	1	62
432.780	1	65
432.951	1	53
433.121	1	58
433.292	1	78
433.462	1	58
433.633	1	60
433.804	1	65
433.974	1	66
434.145	1	62
434.315	1	46
434.486	1	53
434.656	1	65
434.827	1	59
434.997	1	65
435.168	1	63
435.339	1	67
435.509	1	65
435.680	1	61
435.850	1	57
436.021	1	58
436.191	1	59
436.362	1	73
436.532	1	72
436.703	1	67
436.873	1	59
437.044	1	64
437.214	1	67
437.385	1	50
437.556	1	62
437.726	1	62
437.897	1	62
438.067	1	62
438.238	1	60
438.408	1	59
438.579	1	44
438.749	1	65
438.920	1	66
439.090	1	49
439.261	1	62
439.431	1	43
439.602	1	59
439.772	1	61
439.943	1	52
440.113	1	58
440.284	1	59
440.455	1	57
440.625	1	61
440.796	1	46
440.966	1	61
441.137	1	53
441.307	1	54
441.478	1	38
441.648	1	54
441.819	1	46
441.989	1	64
442.160	1	56
442.330	1	60
442.501	1	45
442.671	1	54
442.842	1	51
443.012	1	52
443.183	1	53
443.353	1	60
443.524	1	53
443.694	1	52
443.865	1	55
444.035	1	51
444.206	1	56
444.376	1	57
444.547	1	59
444.717	1	61
444.888	1	46
445.058	1	50
445.229	1	55
445.399	1	58
445.570	1	46
445.740	1	58
445.911	1	62
446.081	1	65
446.252	1	54
446.422	1	59
446.593	1	55
446.763	1	58
446.934	1	47
447.104	1	53
447.275	1	61
447.445	1	45
447.616	1	50
447.786	1	47
447.957	1	53
448.127	1	54
448.298	1	58
448.468	1	61
448.639	1	60
448.809	1	43
448.979	1	59
449.150	1	45
449.320	1	56
449.491	1	31
449.661	1	49
449.832	1	49
450.002	1	51
450.173	1	50
450.343	1	52
450.514	1	57
450.684	1	53
450.855	1	64
451.025	1	48
451.196	1	52
451.366	1	57
451.537	1	62
451.707	1	58
451.878	1	50
452.048	1	41
452.218	1	43
452.389	1	58
452.559	1	68
452.730	1	52
452.900	1	48
453.071	1	63
453.241	1	51
453.412	1	40
453.582	1	52
453.753	1	60
453.923	1	42
454.093	1	52
454.264	1	67
454.434	1	47
454.605	1	54
454.775	1	52
454.946	1	50
455.116	1	51
455.287	1	40
455.457	1	53
455.628	1	46
455.798	1	52
455.968	1	50
456.139	1	48
456.309	1	38
456.480	1	46
456.650	1	45
456.821	1	39
456.991	1	51
457.161	1	44
457.332	1	45
457.502	1	41
457.673	1	47
457.843	1	44
458.014	1	49
458.184	1	55
458.355	1	47
458.525	1	43
458.695	1	45
458.866	1	41
459.036	1	42
459.207	1	41
459.377	1	47
459.548	1	46
459.718	1	38
459.888	1	37
460.059	1	44
460.229	1	40
460.400	1	48
460.570	1	36
460.740	1	39
460.911	1	38
461.081	1	39
461.252	1	53
461.422	1	45
461.593	1	42
461.763	1	50
461.933	1	50
462.104	1	37
462.274	1	49
462.445	1	45
462.615	1	49
462.785	1	53
462.956	1	38
463.126	1	43
463.297	1	43
463.467	1	55
463.638	1	45
463.808	1	49
463.978	1	35
464.149	1	47
464.319	1	44
464.490	1	42
464.660	1	35
464.830	1	32
465.001	1	53
465.171	1	31
465.342	1	42
465.512	1	46
465.682	1	39
465.853	1	30
466.023	1	43
466.194	1	46
466.364	1	46
466.534	1	33
466.705	1	44
466.875	1	38
467.045	1	31
467.216	1	38
467.386	1	38
467.557	1	41
467.727	1	28
467.897	1	36
468.068	1	26
468.238	1	38
468.409	1	36
468.579	1	33
468.749	1	40
468.920	1	40
469.090	1	47
469.260	1	39
469.431	1	29
469.601	1	37
469.772	1	52
469.942	1	44
470.112	1	34
470.283	1	41
470.453	1	48
470.623	1	39
470.794	1	34
470.964	1	27
471.135	1	47
471.305	1	33
471.475	1	33
471.646	1	41
471.816	1	40
471.986	1	35
472.157	1	37
472.327	1	41
472.497	1	39
472.668	1	38
472.838	1	30
473.009	1	39
473.179	1	28
473.349	1	36
473.520	1	44
473.690	1	32
473.860	1	28
474.031	1	32
474.201	1	35
474.371	1	40
474.542	1	30
474.712	1	28
474.882	1	38
475.053	1	38
475.223	1	39
475.394	1	27
475.564	1	38
475.734	1	36
475.905	1	38
476.075	1	44
476.245	1	44
476.416	1	27
476.586	1	28
476.756	1	36
476.927	1	36
477.097	1	29
477.267	1	30
477.438	1	43
477.608	1	48
477.778	1	31
477.949	1	28
478.119	1	37
478.289	1	32
478.460	1	26
478.630	1	29
478.800	1	28
478.971	1	28
479.141	1	42
479.311	1	30
479.482	1	34
479.652	1	27
479.822	1	25
479.993	1	30
480.163	1	37
480.333	1	26
480.504	1	35
480.674	1	34
480.844	1	43
481.015	1	46
481.185	1	32
481.355	1	33
481.525	1	21
481.696	1	41
481.866	1	37
482.036	1	28
482.207	1	39
482.377	1	17
482.547	1	33
482.718	1	37
482.888	1	42
483.058	1	37
483.229	1	32
483.399	1	39
483.569	1	26
483.740	1	30
483.910	1	31
484.080	1	27
484.250	1	22
484.421	1	32
484.591	1	34
484.761	1	34
484.932	1	21
485.102	1	30
485.272	1	38
485.443	1	31
485.613	1	24
485.783	1	31
485.953	1	19
486.124	1	26
486.294	1	42
486.464	1	25
486.635	1	21
486.805	1	32
486.975	1	23
487.146	1	19
487.316	1	34
487.486	1	33
487.656	1	36
487.827	1	25
487.997	1	23
488.167	1	28
488.338	1	24
488.508	1	38
488.678	1	25
488.848	1	35
489.019	1	32
489.189	1	37
489.359	1	28
489.529	1	23
489.700	1	27
489.870	1	35
490.040	1	14
490.211	1	26
490.381	1	27
490.551	1	22
490.721	1	27
490.892	1	18
491.062	1	14
491.232	1	35
491.402	1	17
491.573	1	31
491.743	1	20
491.913	1	30
492.084	1	21
492.254	1	19
492.424	1	24
492.594	1	15
492.765	1	28
492.935	1	34
493.105	1	15
493.275	1	24
493.446	1	23
493.616	1	17
493.786	1	30
493.956	1	18
494.127	1	25
494.297	1	25
494.467	1	18
494.637	1	15
494.808	1	27
494.978	1	15
495.148	1	21
495.318	1	22
495.489	1	20
495.659	1	20
495.829	1	21
495.999	1	37
496.170	1	24
496.340	1	21
496.510	1	30
496.680	1	20
496.851	1	30
497.021	1	24
497.191	1	29
497.361	1	4
497.532	1	31
497.702	1	29
497.872	1	10
498.042	1	22
498.213	1	24
498.383	1	26
498.553	1	26
498.723	1	22
498.894	1	33
499.064	1	25
499.234	1	33
499.404	1	26
499.574	1	25
499.745	1	17
499.915	1	16
500.085	1	21
500.255	1	21
500.426	1	19
500.596	1	8
500.766	1	9
500.936	1	9
501.106	1	10
501.277	1	14
501.447	1	21
501.617	1	15
501.787	1	19
501.958	1	25
502.128	1	26
502.298	1	20
502.468	1	7
502.638	1	29
502.809	1	13
502.979	1	19
503.149	1	26
503.319	1	20
503.489	1	-1
503.660	1	10
503.830	1	12
504.000	1	22
504.170	1	9
504.340	1	12
504.511	1	13
504.681	1	19
504.851	1	11
505.021	1	16
505.192	1	5
505.362	1	12
505.532	1	15
505.702	1	29
505.872	1	18
506.043	1	27
506.213	1	20
506.383	1	8
506.553	1	11
506.723	1	6
506.893	1	18
507.064	1	25
507.234	1	11
507.404	1	16
507.574	1	11
507.744	1	15
507.915	1	18
508.085	1	8
508.255	1	10
508.425	1	13
508.595	1	8
508.766	1	12
508.936	1	19
509.106	1	29
509.276	1	2
509.446	1	7
509.616	1	17
509.787	1	9
509.957	1	17
510.127	1	6
510.297	1	8
510.467	1	17
510.638	1	10
510.808	1	25
510.978	1	2
511.148	1	21
511.318	1	8
511.488	1	17
511.659	1	12
511.829	1	5
511.999	1	19
512.169	1	23
512.339	1	18
512.509	1	7
512.680	1	17
512.850	1	16
513.020	1	16
513.190	1	3
513.360	1	16
513.530	1	13
513.700	1	22
513.871	1	18
514.041	1	5
514.211	1	11
514.381	1	20
514.551	1	12
514.721	1	6
514.892	1	13
515.062	1	10
515.232	1	9
515.402	1	9
515.572	1	23
515.742	1	16
515.912	1	18
516.083	1	16
516.253	1	24
516.423	1	12
516.593	1	14
516.763	1	16
516.933	1	11
517.104	1	11
517.274	1	21
517.444	1	18
517.614	1	6
517.784	1	17
517.954	1	-2
518.124	1	18
518.294	1	20
518.465	1	14
518.635	1	22
518.805	1	15
518.975	1	26
519.145	1	10
519.315	1	19
519.485	1	7
519.656	1	8
519.826	1	-4
519.996	1	19
520.166	1	12
520.336	1	6
520.506	1	14
520.676	1	11
520.846	1	18
521.017	1	7
521.187	1	21
521.357	1	7
521.527	1	13
521.697	1	3
521.867	1	21
522.037	1	8
522.207	1	12
522.377	1	18
522.548	1	0
522.718	1	8
522.888	1	11
523.058	1	13
523.228	1	5
523.398	1	9
523.568	1	9
523.738	1	5
523.909	1	10
524.079	1	19
524.249	1	0
524.419	1	8
524.589	1	6
524.759	1	21
524.929	1	16
525.099	1	12
525.269	1	14
525.439	1	7
525.610	1	13
525.780	1	7
525.950	1	8
526.120	1	2
526.290	1	5
526.460	1	0
526.630	1	16
526.800	1	0
526.970	1	12
527.140	1	1
527.311	1	10
527.481	1	9
527.651	1	19
527.821	1	5
527.991	1	5
528.161	1	12
528.331	1	11
528.501	1	15
528.671	1	4
528.841	1	15
529.011	1	11
529.181	1	13
529.352	1	11
529.522	1	16
529.692	1	15
529.862	1	8
530.032	1	3
530.202	1	6
530.372	1	14
530.542	1	5
530.712	1	12
530.882	1	14
531.052	1	12
531.222	1	14
531.392	1	15
531.563	1	20
531.733	1	6
531.903	1	7
532.073	1	9
532.243	1	19
532.413	1	26
532.583	1	12
532.753	1	-2
532.923	1	15
533.093	1	9
533.263	1	15
533.433	1	10
533.603	1	12
533.773	1	6
533.943	1	13
534.113	1	16
534.284	1	13
534.454	1	5
534.624	1	3
534.794	1	5
534.964	1	5
535.134	1	3
535.304	1	10
535.474	1	15
535.644	1	23
535.814	1	8
535.984	1	12
536.154	1	18
536.324	1	8
536.494	1	20
536.664	1	9
536.834	1	8
537.004	1	13
537.174	1	14
537.344	1	5
537.514	1	7
537.685	1	13
537.855	1	10
538.025	1	16
538.195	1	5
538.365	1	10
538.535	1	3
538.705	1	11
538.875	1	15
539.045	1	1
539.215	1	0
539.385	1	11
539.555	1	-5
539.725	1	6
539.895	1	9
540.065	1	4
540.235	1	8
540.405	1	3
540.575	1	3
540.745	1	9
540.915	1	8
541.085	1	4
541.255	1	-1
541.425	1	6
541.595	1	7
541.765	1	11
541.935	1	8
542.105	1	6
542.275	1	7
542.445	1	7
542.615	1	6
542.785	1	5
542.955	1	17
543.125	1	1
543.295	1	13
543.465	1	15
543.635	1	-6
543.805	1	4
543.975	1	6
544.145	1	14
544.315	1	-6
544.485	1	13
544.655	1	9
544.825	1	10
544.995	1	7
545.165	1	7
545.335	1	10
545.505	1	11
545.675	1	15
545.845	1	10
546.015	1	-1
546.185	1	16
546.355	1	7
546.525	1	9
546.695	1	0
546.865	1	12
547.035	1	0
547.205	1	17
547.375	1	23
547.545	1	9
547.715	1	16
547.885	1	1
548.055	1	1
548.225	1	11
548.395	1	4
548.565	1	10
548.735	1	-3
548.905	1	16
549.075	1	9
549.245	1	6
549.415	1	14
549.585	1	10
549.755	1	7
549.925	1	9
550.095	1	-7
550.265	1	9
550.435	1	4
550.605	1	8
550.775	1	9
550.945	1	4
551.115	1	13
551.285	1	9
551.455	1	5
551.625	1	-3
551.795	1	-5
551.965	1	5
552.135	1	6
552.305	1	12
552.475	1	6
552.645	1	5
552.815	1	12
552.985	1	2
553.155	1	11
553.325	1	1
553.495	1	1
553.665	1	9
553.835	1	10
554.004	1	9
554.174	1	-2
554.344	1	7
554.514	1	4
554.684	1	6
554.854	1	-1
555.024	1	8
555.194	1	5
555.364	1	1
555.534	1	7
555.704	1	4
555.874	1	10
556.044	1	6
556.214	1	3
556.384	1	14
556.554	1	0
556.724	1	6
556.894	1	4
557.064	1	8
557.234	1	6
557.404	1	-1
557.573	1	12
557.743	1	-5
557.913	1	3
558.083	1	2
558.253	1	6
558.423	1	0
558.593	1	6
558.763	1	0
558.933	1	9
559.103	1	0
559.273	1	10
559.443	1	11
559.613	1	5
559.783	1	2
559.953	1	-6
560.122	1	3
560.292	1	2
560.462	1	-2
560.632	1	12
560.802	1	5
560.972	1	6
561.142	1	9
561.312	1	4
561.482	1	15
561.652	1	1
561.822	1	3
561.992	1	15
562.162	1	10
562.331	1	-9
562.501	1	14
562.671	1	7
562.841	1	-6
563.011	1	4
563.181	1	1
563.351	1	-1
563.521	1	-1
563.691	1	6
563.861	1	-4
564.031	1	8
564.201	1	10
564.370	1	13
564.540	1	1
564.710	1	3
564.880	1	8
565.050	1	12
565.220	1	10
565.390	1	1
565.560	1	3
565.730	1	5
565.900	1	8
566.069	1	17
566.239	1	12
566.409	1	12
566.579	1	4
566.749	1	-1
566.919	1	-1
567.089	1	1
567.259	1	12
567.429	1	-9
567.599	1	15
567.768	1	-1
567.938	1	8
568.108	1	10
568.278	1	3
568.448	1	5
568.618	1	7
568.788	1	7
568.958	1	0
569.128	1	-5
569.297	1	1
569.467	1	12
569.637	1	1
569.807	1	11
569.977	1	-2
570.147	1	9
570.317	1	-10
570.487	1	6
570.656	1	4
570.826	1	-2
570.996	1	12
571.166	1	2
571.336	1	3
571.506	1	4
571.676	1	13
571.846	1	8
572.015	1	14
572.185	1	4
572.355	1	-1
572.525	1	-2
572.695	1	2
572.865	1	12
573.035	1	6
573.205	1	-2
573.374	1	0
573.544	1	0
573.714	1	6
573.884	1	3
574.054	1	6
574.224	1	12
574.394	1	1
574.563	1	-5
574.733	1	13
574.903	1	13
575.073	1	11
575.243	1	2
575.413	1	-1
575.583	1	8
575.752	1	3
575.922	1	15
576.092	1	1
576.262	1	3
576.432	1	4
576.602	1	3
576.772	1	3
576.941	1	0
577.111	1	6
577.281	1	-1
577.451	1	17
577.621	1	3
577.791	1	7
577.960	1	2
578.130	1	8
578.300	1	-4
578.470	1	16
578.640	1	-1
578.810	1	0
578.979	1	6
579.149	1	3
579.319	1	7
579.489	1	6
579.659	1	4
579.829	1	4
579.998	1	-9
580.168	1	-3
580.338	1	4
580.508	1	2
580.678	1	8
580.848	1	3
581.017	1	2
581.187	1	2
581.357	1	7
581.527	1	6
581.697	1	4
581.867	1	1
582.036	1	-8
582.206	1	8
582.376	1	7
582.546	1	14
582.716	1	6
582.885	1	6
583.055	1	-3
583.225	1	11
583.395	1	4
583.565	1	9
583.735	1	2
583.904	1	3
584.074	1	9
584.244	1	-1
584.414	1	-1
584.584	1	3
584.753	1	2
584.923	1	-1
585.093	1	10
585.263	1	6
585.433	1	-1
585.602	1	1
585.772	1	17
585.942	1	2
586.112	1	9
586.282	1	5
586.451	1	2
586.621	1	0
586.791	1	-1
586.961	1	2
587.131	1	0
587.300	1	8
587.470	1	6
587.640	1	6
587.810	1	-7
587.980	1	6
588.149	1	5
588.319	1	13
588.489	1	7
588.659	1	-1
588.829	1	-1
588.998	1	2
589.168	1	1
589.338	1	6
589.508	1	7
589.677	1	9
589.847	1	14
590.017	1	1
590.187	1	6
590.357	1	2
590.526	1	-5
590.696	1	4
590.866	1	-5
591.036	1	10
591.205	1	12
591.375	1	10
591.545	1	-5
591.715	1	7
591.885	1	9
592.054	1	1
592.224	1	3
592.394	1	-5
592.564	1	9
592.733	1	13
592.903	1	4
593.073	1	3
593.243	1	11
593.412	1	-4
593.582	1	1
593.752	1	4
593.922	1	0
594.091	1	13
594.261	1	1
594.431	1	4
594.601	1	-6
594.771	1	5
594.940	1	0
595.110	1	10
595.280	1	-3
595.450	1	3
595.619	1	10
595.789	1	11
595.959	1	7
596.129	1	2
596.298	1	12
596.468	1	-4
596.638	1	-3
596.808	1	-3
596.977	1	4
597.147	1	-1
597.317	1	6
597.487	1	11
597.656	1	10
597.826	1	7
597.996	1	11
598.166	1	3
598.335	1	1
598.505	1	4
598.675	1	5
598.844	1	17
599.014	1	-7
599.184	1	5
599.354	1	17
599.523	1	0
599.693	1	5
599.863	1	8
600.033	1	7
600.202	1	2
600.372	1	-4
600.542	1	2
600.712	1	3
600.881	1	3
601.051	1	12
601.221	1	16
601.390	1	10
601.560	1	5
601.730	1	1
601.900	1	8
602.069	1	-1
602.239	1	6
602.409	1	5
602.578	1	10
602.748	1	15
602.918	1	-5
603.088	1	13
603.257	1	-8
603.427	1	4
603.597	1	4
603.767	1	-1
603.936	1	10
604.106	1	6
604.276	1	8
604.445	1	-2
604.615	1	5
604.785	1	1
604.954	1	8
605.124	1	15
605.294	1	4
605.464	1	9
605.633	1	10
605.803	1	7
605.973	1	2
606.142	1	13
606.312	1	8
606.482	1	-2
606.652	1	5
606.821	1	3
606.991	1	7
607.161	1	2
607.330	1	1
607.500	1	4
607.670	1	3
607.839	1	-6
608.009	1	-3
608.179	1	4
608.348	1	9
608.518	1	14
608.688	1	4
608.858	1	1
609.027	1	17
609.197	1	9
609.367	1	4
609.536	1	4
609.706	1	16
609.876	1	19
610.045	1	13
610.215	1	7
610.385	1	5
610.554	1	1
610.724	1	3
610.894	1	12
611.063	1	15
611.233	1	11
611.403	1	12
611.572	1	12
611.742	1	-1
611.912	1	14
612.081	1	18
612.251	1	-1
612.421	1	-1
612.590	1	10
612.760	1	-1
612.930	1	3
613.099	1	2
613.269	1	5
613.439	1	-3
613.608	1	0
613.778	1	6
613.948	1	13
614.117	1	4
614.287	1	0
614.457	1	-1
614.626	1	5
614.796	1	9
614.966	1	5
615.135	1	20
615.305	1	6
615.475	1	4
615.644	1	13
615.814	1	17
615.984	1	-1
616.153	1	3
616.323	1	8
616.493	1	9
616.662	1	1
616.832	1	9
617.002	1	9
617.171	1	14
617.341	1	-2
617.511	1	2
617.680	1	-3
617.850	1	-3
618.019	1	11
618.189	1	18
618.359	1	12
618.528	1	2
618.698	1	16
618.868	1	10
619.037	1	12
619.207	1	-6
619.377	1	8
619.546	1	12
619.716	1	-3
619.885	1	5
620.055	1	2
620.225	1	7
620.394	1	9
620.564	1	11
620.734	1	7
620.903	1	-4
621.073	1	17
621.242	1	4
621.412	1	-3
621.582	1	11
621.751	1	7
621.921	1	17
622.091	1	11
622.260	1	13
622.430	1	-1
622.599	1	2
622.769	1	-1
622.939	1	3
623.108	1	9
623.278	1	0
623.448	1	11
623.617	1	3
623.787	1	4
623.956	1	9
624.126	1	8
624.296	1	10
624.465	1	12
624.635	1	9
624.804	1	4
624.974	1	2
625.144	1	6
625.313	1	6
625.483	1	22
625.652	1	8
625.822	1	12
625.992	1	-2
626.161	1	11
626.331	1	5
626.501	1	6
626.670	1	3
626.840	1	2
627.009	1	12
627.179	1	9
627.348	1	4
627.518	1	15
627.688	1	2
627.857	1	10
628.027	1	4
628.196	1	2
628.366	1	0
628.536	1	2
628.705	1	-1
628.875	1	7
629.044	1	7
629.214	1	9
629.384	1	22
629.553	1	10
629.723	1	7
629.892	1	9
630.062	1	11
630.232	1	14
630.401	1	8
630.571	1	1
630.740	1	7
630.910	1	17
631.079	1	7
631.249	1	8
631.419	1	12
631.588	1	21
631.758	1	2
631.927	1	9
632.097	1	4
632.266	1	15
632.436	1	12
632.606	1	6
632.775	1	12
632.945	1	10
633.114	1	6
633.284	1	4
633.453	1	18
633.623	1	15
633.793	1	6
633.962	1	14
634.132	1	8
634.301	1	6
634.471	1	12
634.640	1	-1
634.810	1	15
634.979	1	1
635.149	1	6
635.319	1	7
635.488	1	8
635.658	1	4
635.827	1	6
635.997	1	20
636.166	1	10
636.336	1	6
636.505	1	18
636.675	1	9
636.845	1	7
637.014	1	1
637.184	1	15
637.353	1	7
637.523	1	10
637.692	1	2
637.862	1	7
638.031	1	0
638.201	1	12
638.370	1	6
638.540	1	0
638.710	1	7
638.879	1	-2
639.049	1	3
639.218	1	12
639.388	1	11
639.557	1	12
639.727	1	14
639.896	1	2
640.066	1	12
640.235	1	8
640.405	1	15
640.574	1	3
640.744	1	0
640.914	1	0
641.083	1	17
641.253	1	8
641.422	1	-4
641.592	1	8
641.761	1	4
641.931	1	11
642.100	1	9
642.270	1	2
642.439	1	17
642.609	1	10
642.778	1	10
642.948	1	19
643.117	1	11
643.287	1	5
643.456	1	4
643.626	1	11
643.795	1	3
643.965	1	12
644.134	1	9
644.304	1	1
644.473	1	16
644.643	1	10
644.812	1	-1
644.982	1	14
645.151	1	6
645.321	1	7
645.490	1	18
645.660	1	-5
645.829	1	9
645.999	1	4
646.168	1	19
646.338	1	1
646.507	1	14
646.677	1	16
646.846	1	19
647.016	1	21
647.185	1	5
647.355	1	16
647.524	1	4
647.694	1	10
647.863	1	7
648.033	1	9
648.202	1	26
648.372	1	-5
648.541	1	13
648.711	1	4
648.880	1	10
649.050	1	11
649.219	1	16
649.389	1	6
649.558	1	14
649.728	1	8
649.897	1	13
650.067	1	16
650.236	1	2
650.406	1	8
650.575	1	11
650.745	1	11
650.914	1	17
651.084	1	28
651.253	1	17
651.423	1	3
651.592	1	14
651.762	1	6
651.931	1	12
652.101	1	3
652.270	1	11
652.440	1	17
652.609	1	12
652.778	1	11
652.948	1	14
653.117	1	4
653.287	1	1
653.456	1	8
653.626	1	4
653.795	1	14
653.965	1	10
654.134	1	4
654.304	1	7
654.473	1	10
654.643	1	14
654.812	1	17
654.982	1	15
655.151	1	10
655.320	1	5
655.490	1	2
655.659	1	8
655.829	1	10
655.998	1	2
656.168	1	1
656.337	1	11
656.507	1	12
656.676	1	4
656.846	1	3
657.015	1	11
657.184	1	9
657.354	1	8
657.523	1	1
657.693	1	4
657.862	1	4
658.032	1	1
658.201	1	-2
658.371	1	7
658.540	1	3
658.709	1	12
658.879	1	23
659.048	1	14
659.218	1	2
659.387	1	13
659.557	1	1
659.726	1	17
659.895	1	14
660.065	1	1
660.234	1	5
660.404	1	15
660.573	1	7
660.743	1	13
660.912	1	18
661.081	1	7
661.251	1	5
661.420	1	15
661.590	1	7
661.759	1	16
661.929	1	15
662.098	1	12
662.267	1	7
662.437	1	15
662.606	1	7
662.776	1	11
662.945	1	11
663.115	1	21
663.284	1	18
663.453	1	6
663.623	1	15
663.792	1	19
663.962	1	10
664.131	1	1
664.300	1	3
664.470	1	11
664.639	1	6
664.809	1	9
664.978	1	19
665.148	1	9
665.317	1	14
665.486	1	18
665.656	1	9
665.825	1	13
665.995	1	8
666.164	1	10
666.333	1	8
666.503	1	9
666.672	1	15
666.842	1	2
667.011	1	12
667.180	1	8
667.350	1	13
667.519	1	18
667.689	1	15
667.858	1	19
668.027	1	16
668.197	1	3
668.366	1	13
668.536	1	3
668.705	1	4
668.874	1	12
669.044	1	18
669.213	1	9
669.382	1	18
669.552	1	14
669.721	1	-5
669.891	1	-2
670.060	1	12
670.229	1	12
670.399	1	12
670.568	1	19
670.738	1	10
670.907	1	20
671.076	1	8
671.246	1	19
671.415	1	8
671.584	1	10
671.754	1	-2
671.923	1	6
672.093	1	14
672.262	1	9
672.431	1	19
672.601	1	18
672.770	1	11
672.939	1	17
673.109	1	12
673.278	1	15
673.448	1	10
673.617	1	13
673.786	1	6
