325.333	1	32
325.504	1	29
325.675	1	43
325.846	1	21
326.017	1	41
326.188	1	40
326.359	1	41
326.531	1	24
326.702	1	27
326.873	1	47
327.044	1	53
327.215	1	39
327.386	1	35
327.557	1	34
327.728	1	41
327.899	1	46
328.070	1	49
328.241	1	29
328.412	1	42
328.583	1	29
328.754	1	46
328.926	1	54
329.097	1	37
329.268	1	46
329.439	1	49
329.610	1	47
329.781	1	47
329.952	1	49
330.123	1	47
330.294	1	32
330.465	1	32
330.636	1	52
330.807	1	47
330.978	1	45
331.149	1	51
331.320	1	50
331.492	1	41
331.663	1	40
331.834	1	56
332.005	1	58
332.176	1	54
332.347	1	52
332.518	1	60
332.689	1	54
332.860	1	50
333.031	1	64
333.202	1	56
333.373	1	49
333.544	1	64
333.715	1	58
333.886	1	55
334.057	1	51
334.228	1	56
334.399	1	65
334.570	1	59
334.741	1	48
334.912	1	62
335.084	1	69
335.255	1	60
335.426	1	66
335.597	1	62
335.768	1	65
335.939	1	64
336.110	1	78
336.281	1	66
336.452	1	77
336.623	1	61
336.794	1	66
336.965	1	52
337.136	1	71
337.307	1	58
337.478	1	56
337.649	1	70
337.820	1	59
337.991	1	68
338.162	1	75
338.333	1	73
338.504	1	73
338.675	1	65
338.846	1	67
339.017	1	66
339.188	1	71
339.359	1	71
339.530	1	72
339.701	1	75
339.872	1	81
340.043	1	69
340.214	1	75
340.385	1	72
340.556	1	78
340.727	1	78
340.898	1	83
341.069	1	74
341.240	1	76
341.411	1	80
341.582	1	80
341.753	1	81
341.924	1	89
342.095	1	86
342.266	1	91
342.437	1	83
342.608	1	89
342.779	1	81
342.950	1	79
343.121	1	94
343.292	1	86
343.463	1	99
343.634	1	94
343.805	1	91
343.976	1	106
344.147	1	100
344.318	1	87
344.489	1	89
344.660	1	99
344.831	1	99
345.002	1	93
345.173	1	86
345.344	1	99
345.515	1	100
345.686	1	101
345.857	1	95
346.028	1	87
346.199	1	91
346.370	1	112
346.541	1	91
346.712	1	101
346.883	1	97
347.054	1	92
347.225	1	99
347.396	1	93
347.567	1	102
347.738	1	106
347.909	1	112
348.080	1	104
348.251	1	100
348.422	1	105
348.593	1	106
348.764	1	100
348.935	1	110
349.106	1	108
349.277	1	102
349.448	1	98
349.619	1	117
349.790	1	118
349.961	1	109
350.132	1	119
350.303	1	118
350.474	1	117
350.645	1	115
350.816	1	105
350.987	1	128
351.157	1	111
351.328	1	111
351.499	1	125
351.670	1	110
351.841	1	121
352.012	1	128
352.183	1	132
352.354	1	122
352.525	1	119
352.696	1	117
352.867	1	117
353.038	1	108
353.209	1	116
353.380	1	120
353.551	1	129
353.722	1	130
353.893	1	121
354.064	1	122
354.235	1	126
354.406	1	113
354.576	1	120
354.747	1	125
354.918	1	133
355.089	1	124
355.260	1	130
355.431	1	133
355.602	1	133
355.773	1	136
355.944	1	122
356.115	1	147
356.286	1	148
356.457	1	132
356.628	1	125
356.799	1	138
356.970	1	143
357.141	1	136
357.311	1	166
357.482	1	142
357.653	1	142
357.824	1	147
357.995	1	136
358.166	1	139
358.337	1	140
358.508	1	152
358.679	1	140
358.850	1	154
359.021	1	141
359.192	1	155
359.363	1	146
359.533	1	145
359.704	1	154
359.875	1	144
360.046	1	157
360.217	1	155
360.388	1	142
360.559	1	154
360.730	1	138
360.901	1	152
361.072	1	132
361.243	1	153
361.414	1	155
361.584	1	150
361.755	1	156
361.926	1	147
362.097	1	133
362.268	1	159
362.439	1	142
362.610	1	158
362.781	1	126
362.952	1	147
363.123	1	148
363.293	1	147
363.464	1	150
363.635	1	154
363.806	1	164
363.977	1	166
364.148	1	144
364.319	1	159
364.490	1	159
364.661	1	157
364.832	1	143
365.002	1	156
365.173	1	167
365.344	1	149
365.515	1	171
365.686	1	160
365.857	1	171
366.028	1	175
366.199	1	176
366.370	1	157
366.540	1	162
366.711	1	163
366.882	1	166
367.053	1	181
367.224	1	171
367.395	1	171
367.566	1	177
367.737	1	178
367.908	1	172
368.078	1	173
368.249	1	177
368.420	1	181
368.591	1	177
368.762	1	177
368.933	1	169
369.104	1	171
369.274	1	178
369.445	1	177
369.616	1	172
369.787	1	164
369.958	1	179
370.129	1	159
370.300	1	165
370.471	1	165
370.641	1	163
370.812	1	164
370.983	1	145
371.154	1	156
371.325	1	161
371.496	1	161
371.667	1	176
371.837	1	169
372.008	1	161
372.179	1	162
372.350	1	156
372.521	1	180
372.692	1	163
372.863	1	180
373.033	1	175
373.204	1	174
373.375	1	165
373.546	1	183
373.717	1	169
373.888	1	171
374.059	1	180
374.229	1	178
374.400	1	164
374.571	1	175
374.742	1	183
374.913	1	153
375.084	1	173
375.254	1	181
375.425	1	195
375.596	1	175
375.767	1	189
375.938	1	185
376.109	1	187
376.279	1	195
376.450	1	183
376.621	1	190
376.792	1	191
376.963	1	181
377.134	1	194
377.304	1	186
377.475	1	173
377.646	1	179
377.817	1	185
377.988	1	202
378.159	1	198
378.329	1	184
378.500	1	191
378.671	1	187
378.842	1	198
379.013	1	195
379.184	1	184
379.354	1	190
379.525	1	198
379.696	1	204
379.867	1	191
380.038	1	178
380.209	1	200
380.379	1	189
380.550	1	171
380.721	1	180
380.892	1	187
381.063	1	190
381.233	1	185
381.404	1	198
381.575	1	189
381.746	1	199
381.917	1	196
382.087	1	195
382.258	1	196
382.429	1	197
382.600	1	194
382.771	1	196
382.941	1	194
383.112	1	214
383.283	1	200
383.454	1	196
383.625	1	200
383.795	1	197
383.966	1	212
384.137	1	210
384.308	1	217
384.479	1	200
384.649	1	204
384.820	1	215
384.991	1	215
385.162	1	232
385.333	1	214
385.503	1	224
385.674	1	208
385.845	1	228
386.016	1	211
386.187	1	207
386.357	1	224
386.528	1	218
386.699	1	214
386.870	1	219
387.041	1	229
387.211	1	236
387.382	1	225
387.553	1	230
387.724	1	224
387.894	1	224
388.065	1	231
388.236	1	224
388.407	1	234
388.578	1	214
388.748	1	230
388.919	1	223
389.090	1	220
389.261	1	243
389.431	1	213
389.602	1	227
389.773	1	216
389.944	1	224
390.114	1	222
390.285	1	229
390.456	1	220
390.627	1	212
390.798	1	235
390.968	1	221
391.139	1	233
391.310	1	226
391.481	1	233
391.651	1	231
391.822	1	225
391.993	1	218
392.164	1	220
392.334	1	219
392.505	1	215
392.676	1	220
392.847	1	229
393.017	1	215
393.188	1	221
393.359	1	240
393.530	1	244
393.700	1	205
393.871	1	235
394.042	1	232
394.213	1	237
394.383	1	239
394.554	1	234
394.725	1	224
394.896	1	244
395.066	1	224
395.237	1	239
395.408	1	244
395.579	1	247
395.749	1	233
395.920	1	231
396.091	1	235
396.262	1	246
396.432	1	246
396.603	1	246
396.774	1	239
396.945	1	252
397.115	1	244
397.286	1	249
397.457	1	235
397.627	1	245
397.798	1	254
397.969	1	247
398.140	1	247
398.310	1	262
398.481	1	251
398.652	1	245
398.823	1	249
398.993	1	233
399.164	1	244
399.335	1	243
399.505	1	238
399.676	1	234
399.847	1	225
400.018	1	238
400.188	1	231
400.359	1	248
400.530	1	239
400.700	1	230
400.871	1	244
401.042	1	231
401.213	1	239
401.383	1	245
401.554	1	243
401.725	1	233
401.895	1	224
402.066	1	253
402.237	1	244
402.408	1	244
402.578	1	238
402.749	1	233
402.920	1	251
403.090	1	242
403.261	1	238
403.432	1	242
403.603	1	254
403.773	1	253
403.944	1	241
404.115	1	236
404.285	1	242
404.456	1	251
404.627	1	256
404.797	1	250
404.968	1	239
405.139	1	252
405.310	1	255
405.480	1	249
405.651	1	253
405.822	1	241
405.992	1	272
406.163	1	260
406.334	1	244
406.504	1	242
406.675	1	253
406.846	1	270
407.016	1	263
407.187	1	266
407.358	1	242
407.528	1	268
407.699	1	257
407.870	1	276
408.041	1	269
408.211	1	267
408.382	1	272
408.553	1	270
408.723	1	272
408.894	1	244
409.065	1	272
409.235	1	266
409.406	1	267
409.577	1	253
409.747	1	266
409.918	1	264
410.089	1	267
410.259	1	264
410.430	1	266
410.601	1	252
410.771	1	267
410.942	1	251
411.113	1	265
411.283	1	239
411.454	1	267
411.625	1	245
411.795	1	250
411.966	1	246
412.137	1	261
412.307	1	260
412.478	1	254
412.649	1	233
412.819	1	261
412.990	1	259
413.161	1	254
413.331	1	235
413.502	1	245
413.672	1	249
413.843	1	236
414.014	1	249
414.184	1	254
414.355	1	250
414.526	1	247
414.696	1	244
414.867	1	246
415.038	1	230
415.208	1	245
415.379	1	257
415.550	1	257
415.720	1	246
415.891	1	253
416.062	1	254
416.232	1	257
416.403	1	259
416.573	1	245
416.744	1	260
416.915	1	249
417.085	1	262
417.256	1	243
417.427	1	255
417.597	1	245
417.768	1	248
417.939	1	245
418.109	1	259
418.280	1	251
418.450	1	268
418.621	1	258
418.792	1	256
418.962	1	236
419.133	1	251
419.304	1	250
419.474	1	252
419.645	1	253
419.815	1	247
419.986	1	251
420.157	1	249
420.327	1	248
420.498	1	250
420.669	1	255
420.839	1	254
421.010	1	243
421.180	1	238
421.351	1	251
421.522	1	260
421.692	1	249
421.863	1	246
422.033	1	259
422.204	1	244
422.375	1	252
422.545	1	248
422.716	1	225
422.886	1	248
423.057	1	227
423.228	1	237
423.398	1	226
423.569	1	243
423.740	1	227
423.910	1	245
424.081	1	250
424.251	1	236
424.422	1	229
424.593	1	234
424.763	1	250
424.934	1	229
425.104	1	235
425.275	1	224
425.445	1	233
425.616	1	217
425.787	1	226
425.957	1	234
426.128	1	217
426.298	1	245
426.469	1	216
426.640	1	233
426.810	1	219
426.981	1	234
427.151	1	212
427.322	1	215
427.493	1	222
427.663	1	230
427.834	1	224
428.004	1	223
428.175	1	238
428.345	1	209
428.516	1	232
428.687	1	233
428.857	1	225
429.028	1	232
429.198	1	222
429.369	1	224
429.540	1	221
429.710	1	224
429.881	1	217
430.051	1	215
430.222	1	240
430.392	1	223
430.563	1	218
430.734	1	227
430.904	1	229
431.075	1	230
431.245	1	211
431.416	1	226
431.586	1	224
431.757	1	235
431.927	1	241
432.098	1	239
432.269	1	216
432.439	1	220
432.610	1	226
432.780	1	224
432.951	1	233
433.121	1	230
433.292	1	239
433.462	1	225
433.633	1	226
433.804	1	229
433.974	1	211
434.145	1	231
434.315	1	217
434.486	1	205
434.656	1	232
434.827	1	227
434.997	1	240
435.168	1	211
435.339	1	238
435.509	1	213
435.680	1	214
435.850	1	214
436.021	1	217
436.191	1	217
436.362	1	215
436.532	1	214
436.703	1	227
436.873	1	206
437.044	1	213
437.214	1	207
437.385	1	210
437.556	1	210
437.726	1	192
437.897	1	194
438.067	1	201
438.238	1	215
438.408	1	204
438.579	1	205
438.749	1	192
438.920	1	219
439.090	1	185
439.261	1	207
439.431	1	185
439.602	1	183
439.772	1	202
439.943	1	198
440.113	1	195
440.284	1	203
440.455	1	189
440.625	1	208
440.796	1	191
440.966	1	203
441.137	1	207
441.307	1	189
441.478	1	184
441.648	1	202
441.819	1	206
441.989	1	200
442.160	1	188
442.330	1	192
442.501	1	188
442.671	1	200
442.842	1	189
443.012	1	207
443.183	1	207
443.353	1	200
443.524	1	194
443.694	1	186
443.865	1	198
444.035	1	199
444.206	1	189
444.376	1	203
444.547	1	196
444.717	1	193
444.888	1	192
445.058	1	202
445.229	1	187
445.399	1	187
445.570	1	188
445.740	1	205
445.911	1	193
446.081	1	199
446.252	1	194
446.422	1	190
446.593	1	187
446.763	1	188
446.934	1	189
447.104	1	183
447.275	1	200
447.445	1	192
447.616	1	196
447.786	1	188
447.957	1	195
448.127	1	179
448.298	1	185
448.468	1	186
448.639	1	182
448.809	1	196
448.979	1	195
449.150	1	175
449.320	1	187
449.491	1	187
449.661	1	183
449.832	1	179
450.002	1	183
450.173	1	187
450.343	1	186
450.514	1	192
450.684	1	181
450.855	1	173
451.025	1	160
451.196	1	173
451.366	1	174
451.537	1	177
451.707	1	167
451.878	1	167
452.048	1	158
452.218	1	168
452.389	1	175
452.559	1	172
452.730	1	174
452.900	1	161
453.071	1	174
453.241	1	174
453.412	1	165
453.582	1	174
453.753	1	181
453.923	1	166
454.093	1	169
454.264	1	177
454.434	1	171
454.605	1	146
454.775	1	164
454.946	1	161
455.116	1	147
455.287	1	166
455.457	1	171
455.628	1	155
455.798	1	159
455.968	1	172
456.139	1	169
456.309	1	149
456.480	1	156
456.650	1	148
456.821	1	152
456.991	1	160
457.161	1	158
457.332	1	163
457.502	1	164
457.673	1	148
457.843	1	151
458.014	1	162
458.184	1	157
458.355	1	163
458.525	1	166
458.695	1	154
458.866	1	143
459.036	1	151
459.207	1	166
459.377	1	160
459.548	1	152
459.718	1	157
459.888	1	138
460.059	1	150
460.229	1	134
460.400	1	162
460.570	1	135
460.740	1	154
460.911	1	143
461.081	1	157
461.252	1	153
461.422	1	154
461.593	1	149
461.763	1	151
461.933	1	160
462.104	1	141
462.274	1	146
462.445	1	152
462.615	1	148
462.785	1	142
462.956	1	155
463.126	1	136
463.297	1	150
463.467	1	156
463.638	1	159
463.808	1	129
463.978	1	127
464.149	1	145
464.319	1	139
464.490	1	134
464.660	1	145
464.830	1	137
465.001	1	137
465.171	1	134
465.342	1	128
465.512	1	132
465.682	1	136
465.853	1	141
466.023	1	134
466.194	1	129
466.364	1	136
466.534	1	122
466.705	1	139
466.875	1	114
467.045	1	126
467.216	1	144
467.386	1	128
467.557	1	153
467.727	1	128
467.897	1	121
468.068	1	122
468.238	1	134
468.409	1	133
468.579	1	127
468.749	1	121
468.920	1	119
469.090	1	141
469.260	1	127
469.431	1	121
469.601	1	120
469.772	1	127
469.942	1	127
470.112	1	116
470.283	1	129
470.453	1	124
470.623	1	122
470.794	1	114
470.964	1	121
471.135	1	125
471.305	1	110
471.475	1	122
471.646	1	113
471.816	1	116
471.986	1	124
472.157	1	110
472.327	1	129
472.497	1	120
472.668	1	118
472.838	1	105
473.009	1	116
473.179	1	111
473.349	1	114
473.520	1	129
473.690	1	118
473.860	1	104
474.031	1	113
474.201	1	114
474.371	1	124
474.542	1	102
474.712	1	114
474.882	1	121
475.053	1	125
475.223	1	115
475.394	1	116
475.564	1	116
475.734	1	113
475.905	1	129
476.075	1	139
476.245	1	112
476.416	1	109
476.586	1	106
476.756	1	118
476.927	1	118
477.097	1	115
477.267	1	119
477.438	1	124
477.608	1	120
477.778	1	117
477.949	1	108
478.119	1	106
478.289	1	113
478.460	1	109
478.630	1	109
478.800	1	109
478.971	1	118
479.141	1	108
479.311	1	111
479.482	1	109
479.652	1	115
479.822	1	104
479.993	1	95
480.163	1	103
480.333	1	101
480.504	1	116
480.674	1	117
480.844	1	105
481.015	1	122
481.185	1	105
481.355	1	106
481.525	1	88
481.696	1	110
481.866	1	107
482.036	1	106
482.207	1	112
482.377	1	111
482.547	1	106
482.718	1	111
482.888	1	112
483.058	1	108
483.229	1	103
483.399	1	105
483.569	1	78
483.740	1	99
483.910	1	92
484.080	1	100
484.250	1	92
484.421	1	100
484.591	1	90
484.761	1	92
484.932	1	90
485.102	1	95
485.272	1	102
485.443	1	101
485.613	1	91
485.783	1	95
485.953	1	90
486.124	1	92
486.294	1	99
486.464	1	100
486.635	1	85
486.805	1	90
486.975	1	88
487.146	1	90
487.316	1	100
487.486	1	94
487.656	1	88
487.827	1	90
487.997	1	92
488.167	1	92
488.338	1	95
488.508	1	97
488.678	1	91
488.848	1	91
489.019	1	87
489.189	1	95
489.359	1	75
489.529	1	82
489.700	1	99
489.870	1	90
490.040	1	80
490.211	1	84
490.381	1	81
490.551	1	90
490.721	1	84
490.892	1	72
491.062	1	81
491.232	1	88
491.402	1	92
491.573	1	90
491.743	1	87
491.913	1	90
492.084	1	87
492.254	1	96
492.424	1	86
492.594	1	73
492.765	1	98
492.935	1	92
493.105	1	80
493.275	1	84
493.446	1	67
493.616	1	78
493.786	1	85
493.956	1	84
494.127	1	79
494.297	1	85
494.467	1	83
494.637	1	89
494.808	1	92
494.978	1	84
495.148	1	86
495.318	1	79
495.489	1	64
495.659	1	77
495.829	1	83
495.999	1	83
496.170	1	82
496.340	1	75
496.510	1	80
496.680	1	76
496.851	1	80
497.021	1	80
497.191	1	87
497.361	1	69
497.532	1	79
497.702	1	84
497.872	1	77
498.042	1	79
498.213	1	70
498.383	1	76
498.553	1	89
498.723	1	69
498.894	1	72
499.064	1	73
499.234	1	79
499.404	1	80
499.574	1	86
499.745	1	69
499.915	1	78
500.085	1	68
500.255	1	52
500.426	1	68
500.596	1	62
500.766	1	65
500.936	1	56
501.106	1	68
501.277	1	61
501.447	1	80
501.617	1	73
501.787	1	58
501.958	1	69
502.128	1	69
502.298	1	68
502.468	1	55
502.638	1	82
502.809	1	57
502.979	1	72
503.149	1	67
503.319	1	62
503.489	1	56
503.660	1	65
503.830	1	69
504.000	1	74
504.170	1	57
504.340	1	54
504.511	1	64
504.681	1	69
504.851	1	66
505.021	1	59
505.192	1	51
505.362	1	70
505.532	1	53
505.702	1	81
505.872	1	68
506.043	1	75
506.213	1	67
506.383	1	59
506.553	1	65
506.723	1	52
506.893	1	66
507.064	1	61
507.234	1	59
507.404	1	57
507.574	1	55
507.744	1	64
507.915	1	59
508.085	1	65
508.255	1	60
508.425	1	63
508.595	1	49
508.766	1	56
508.936	1	66
509.106	1	60
509.276	1	64
509.446	1	61
509.616	1	59
509.787	1	55
509.957	1	63
510.127	1	59
510.297	1	50
510.467	1	65
510.638	1	57
510.808	1	76
510.978	1	46
511.148	1	57
511.318	1	63
511.488	1	64
511.659	1	59
511.829	1	52
511.999	1	58
512.169	1	66
512.339	1	61
512.509	1	51
512.680	1	53
512.850	1	66
513.020	1	59
513.190	1	49
513.360	1	62
513.530	1	58
513.700	1	61
513.871	1	53
514.041	1	55
514.211	1	64
514.381	1	64
514.551	1	59
514.721	1	54
514.892	1	50
515.062	1	50
515.232	1	52
515.402	1	54
515.572	1	58
515.742	1	61
515.912	1	48
516.083	1	61
516.253	1	57
516.423	1	54
516.593	1	54
516.763	1	59
516.933	1	57
517.104	1	57
517.274	1	47
517.444	1	59
517.614	1	56
517.784	1	50
517.954	1	58
518.124	1	58
518.294	1	57
518.465	1	43
518.635	1	58
518.805	1	61
518.975	1	57
519.145	1	47
519.315	1	54
519.485	1	36
519.656	1	54
519.826	1	31
519.996	1	63
520.166	1	48
520.336	1	47
520.506	1	49
520.676	1	53
520.846	1	47
521.017	1	40
521.187	1	61
521.357	1	47
521.527	1	55
521.697	1	46
521.867	1	44
522.037	1	43
522.207	1	50
522.377	1	55
522.548	1	37
522.718	1	43
522.888	1	47
523.058	1	51
523.228	1	39
523.398	1	41
523.568	1	44
523.738	1	43
523.909	1	48
524.079	1	48
524.249	1	40
524.419	1	39
524.589	1	47
524.759	1	56
524.929	1	43
525.099	1	43
525.269	1	40
525.439	1	54
525.610	1	48
525.780	1	38
525.950	1	53
526.120	1	36
526.290	1	30
526.460	1	25
526.630	1	47
526.800	1	35
526.970	1	52
527.140	1	43
527.311	1	39
527.481	1	48
527.651	1	40
527.821	1	39
527.991	1	46
528.161	1	43
528.331	1	45
528.501	1	43
528.671	1	55
528.841	1	41
529.011	1	43
529.181	1	38
529.352	1	41
529.522	1	50
529.692	1	45
529.862	1	40
530.032	1	31
530.202	1	35
530.372	1	40
530.542	1	35
530.712	1	40
530.882	1	46
531.052	1	45
531.222	1	39
531.392	1	46
531.563	1	49
531.733	1	42
531.903	1	37
532.073	1	37
532.243	1	51
532.413	1	53
532.583	1	44
532.753	1	45
532.923	1	35
533.093	1	33
533.263	1	35
533.433	1	37
533.603	1	43
533.773	1	44
533.943	1	37
534.113	1	43
534.284	1	34
534.454	1	26
534.624	1	40
534.794	1	34
534.964	1	46
535.134	1	30
535.304	1	44
535.474	1	37
535.644	1	53
535.814	1	44
535.984	1	38
536.154	1	26
536.324	1	29
536.494	1	45
536.664	1	41
536.834	1	31
537.004	1	39
537.174	1	36
537.344	1	42
537.514	1	27
537.685	1	34
537.855	1	35
538.025	1	51
538.195	1	29
538.365	1	37
538.535	1	30
538.705	1	43
538.875	1	54
539.045	1	35
539.215	1	28
539.385	1	38
539.555	1	33
539.725	1	30
539.895	1	37
540.065	1	32
540.235	1	31
540.405	1	36
540.575	1	38
540.745	1	38
540.915	1	37
541.085	1	20
541.255	1	34
541.425	1	29
541.595	1	33
541.765	1	40
541.935	1	37
542.105	1	32
542.275	1	33
542.445	1	31
542.615	1	33
542.785	1	29
542.955	1	40
543.125	1	32
543.295	1	41
543.465	1	31
543.635	1	31
543.805	1	46
543.975	1	36
544.145	1	35
544.315	1	30
544.485	1	28
544.655	1	35
544.825	1	36
544.995	1	24
545.165	1	31
545.335	1	40
545.505	1	37
545.675	1	36
545.845	1	32
546.015	1	21
546.185	1	21
546.355	1	36
546.525	1	41
546.695	1	34
546.865	1	33
547.035	1	34
547.205	1	37
547.375	1	42
547.545	1	45
547.715	1	28
547.885	1	32
548.055	1	29
548.225	1	32
548.395	1	26
548.565	1	43
548.735	1	24
548.905	1	37
549.075	1	26
549.245	1	33
549.415	1	35
549.585	1	21
549.755	1	22
549.925	1	24
550.095	1	20
550.265	1	19
550.435	1	30
550.605	1	32
550.775	1	22
550.945	1	34
551.115	1	39
551.285	1	34
551.455	1	36
551.625	1	23
551.795	1	34
551.965	1	23
552.135	1	22
552.305	1	29
552.475	1	35
552.645	1	27
552.815	1	29
552.985	1	32
553.155	1	26
553.325	1	21
553.495	1	31
553.665	1	31
553.835	1	28
554.004	1	35
554.174	1	16
554.344	1	36
554.514	1	21
554.684	1	27
554.854	1	27
555.024	1	32
555.194	1	15
555.364	1	31
555.534	1	26
555.704	1	23
555.874	1	30
556.044	1	24
556.214	1	24
556.384	1	35
556.554	1	32
556.724	1	12
556.894	1	24
557.064	1	31
557.234	1	24
557.404	1	26
557.573	1	24
557.743	1	27
557.913	1	26
558.083	1	25
558.253	1	28
558.423	1	29
558.593	1	26
558.763	1	23
558.933	1	25
559.103	1	16
559.273	1	36
559.443	1	33
559.613	1	22
559.783	1	21
559.953	1	23
560.122	1	18
560.292	1	9
560.462	1	28
560.632	1	27
560.802	1	22
560.972	1	29
561.142	1	24
561.312	1	18
561.482	1	36
561.652	1	26
561.822	1	18
561.992	1	29
562.162	1	27
562.331	1	15
562.501	1	22
562.671	1	23
562.841	1	6
563.011	1	18
563.181	1	18
563.351	1	12
563.521	1	22
563.691	1	22
563.861	1	19
564.031	1	20
564.201	1	23
564.370	1	22
564.540	1	13
564.710	1	13
564.880	1	17
565.050	1	30
565.220	1	27
565.390	1	14
565.560	1	34
565.730	1	24
565.900	1	19
566.069	1	36
566.239	1	26
566.409	1	23
566.579	1	25
566.749	1	16
566.919	1	18
567.089	1	10
567.259	1	21
567.429	1	17
567.599	1	31
567.768	1	16
567.938	1	16
568.108	1	18
568.278	1	12
568.448	1	19
568.618	1	18
568.788	1	15
568.958	1	13
569.128	1	13
569.297	1	16
569.467	1	18
569.637	1	24
569.807	1	20
569.977	1	8
570.147	1	15
570.317	1	19
570.487	1	19
570.656	1	23
570.826	1	15
570.996	1	24
571.166	1	24
571.336	1	16
571.506	1	21
571.676	1	41
571.846	1	26
572.015	1	33
572.185	1	14
572.355	1	15
572.525	1	6
572.695	1	19
572.865	1	18
573.035	1	23
573.205	1	16
573.374	1	16
573.544	1	27
573.714	1	17
573.884	1	19
574.054	1	22
574.224	1	16
574.394	1	12
574.563	1	4
574.733	1	18
574.903	1	16
575.073	1	23
575.243	1	22
575.413	1	17
575.583	1	18
575.752	1	29
575.922	1	24
576.092	1	13
576.262	1	26
576.432	1	17
576.602	1	21
576.772	1	26
576.941	1	18
577.111	1	12
577.281	1	30
577.451	1	23
577.621	1	26
577.791	1	25
577.960	1	15
578.130	1	26
578.300	1	12
578.470	1	19
578.640	1	26
578.810	1	8
578.979	1	17
579.149	1	22
579.319	1	15
579.489	1	21
579.659	1	28
579.829	1	14
579.998	1	8
580.168	1	24
580.338	1	15
580.508	1	21
580.678	1	23
580.848	1	23
581.017	1	29
581.187	1	19
581.357	1	14
581.527	1	19
581.697	1	14
581.867	1	10
582.036	1	5
582.206	1	14
582.376	1	16
582.546	1	4
582.716	1	21
582.885	1	15
583.055	1	14
583.225	1	15
583.395	1	21
583.565	1	23
583.735	1	17
583.904	1	20
584.074	1	18
584.244	1	15
584.414	1	7
584.584	1	19
584.753	1	21
584.923	1	14
585.093	1	12
585.263	1	14
585.433	1	21
585.602	1	23
585.772	1	33
585.942	1	20
586.112	1	14
586.282	1	14
586.451	1	28
586.621	1	13
586.791	1	14
586.961	1	15
587.131	1	15
587.300	1	26
587.470	1	13
587.640	1	8
587.810	1	7
587.980	1	9
588.149	1	20
588.319	1	25
588.489	1	9
588.659	1	18
588.829	1	19
588.998	1	21
589.168	1	26
589.338	1	15
589.508	1	14
589.677	1	25
589.847	1	18
590.017	1	16
590.187	1	13
590.357	1	11
590.526	1	8
590.696	1	24
590.866	1	8
591.036	1	19
591.205	1	18
591.375	1	18
591.545	1	12
591.715	1	14
591.885	1	26
592.054	1	22
592.224	1	18
592.394	1	5
592.564	1	15
592.733	1	20
592.903	1	18
593.073	1	11
593.243	1	24
593.412	1	14
593.582	1	13
593.752	1	14
593.922	1	20
594.091	1	19
594.261	1	5
594.431	1	14
594.601	1	7
594.771	1	18
594.940	1	11
595.110	1	22
595.280	1	19
595.450	1	21
595.619	1	17
595.789	1	10
595.959	1	15
596.129	1	21
596.298	1	25
596.468	1	23
596.638	1	10
596.808	1	13
596.977	1	16
597.147	1	8
597.317	1	22
597.487	1	22
597.656	1	24
597.826	1	27
597.996	1	18
598.166	1	12
598.335	1	14
598.505	1	19
598.675	1	22
598.844	1	18
599.014	1	7
599.184	1	17
599.354	1	20
599.523	1	26
599.693	1	16
599.863	1	19
600.033	1	22
600.202	1	17
600.372	1	18
600.542	1	14
600.712	1	13
600.881	1	23
601.051	1	23
601.221	1	20
601.390	1	22
601.560	1	29
601.730	1	11
601.900	1	17
602.069	1	15
602.239	1	20
602.409	1	18
602.578	1	24
602.748	1	27
602.918	1	12
603.088	1	14
603.257	1	12
603.427	1	19
603.597	1	24
603.767	1	19
603.936	1	25
604.106	1	21
604.276	1	22
604.445	1	17
604.615	1	20
604.785	1	16
604.954	1	11
605.124	1	16
605.294	1	22
605.464	1	17
605.633	1	21
605.803	1	32
605.973	1	13
606.142	1	21
606.312	1	35
606.482	1	18
606.652	1	20
606.821	1	24
606.991	1	26
607.161	1	15
607.330	1	25
607.500	1	21
607.670	1	17
607.839	1	24
608.009	1	14
608.179	1	25
608.348	1	27
608.518	1	30
608.688	1	14
608.858	1	24
609.027	1	24
609.197	1	29
609.367	1	23
609.536	1	3
609.706	1	36
609.876	1	30
610.045	1	22
610.215	1	21
610.385	1	23
610.554	1	17
610.724	1	15
610.894	1	20
611.063	1	24
611.233	1	28
611.403	1	19
611.572	1	17
611.742	1	26
611.912	1	12
612.081	1	21
612.251	1	31
612.421	1	15
612.590	1	24
612.760	1	18
612.930	1	31
613.099	1	22
613.269	1	16
613.439	1	15
613.608	1	26
613.778	1	20
613.948	1	26
614.117	1	26
614.287	1	11
614.457	1	31
614.626	1	22
614.796	1	19
614.966	1	24
615.135	1	38
615.305	1	22
615.475	1	28
615.644	1	30
615.814	1	34
615.984	1	17
616.153	1	17
616.323	1	22
616.493	1	14
616.662	1	22
616.832	1	40
617.002	1	19
617.171	1	23
617.341	1	31
617.511	1	9
617.680	1	24
617.850	1	30
618.019	1	22
618.189	1	38
618.359	1	29
618.528	1	21
618.698	1	25
618.868	1	34
619.037	1	18
619.207	1	21
619.377	1	24
619.546	1	25
619.716	1	17
619.885	1	30
620.055	1	8
620.225	1	30
620.394	1	31
620.564	1	28
620.734	1	28
620.903	1	21
621.073	1	27
621.242	1	26
621.412	1	31
621.582	1	32
621.751	1	22
621.921	1	24
622.091	1	29
622.260	1	37
622.430	1	19
622.599	1	27
622.769	1	28
622.939	1	23
623.108	1	36
623.278	1	24
623.448	1	35
623.617	1	26
623.787	1	21
623.956	1	32
624.126	1	39
624.296	1	17
624.465	1	32
624.635	1	32
624.804	1	20
624.974	1	19
625.144	1	34
625.313	1	36
625.483	1	35
625.652	1	22
625.822	1	38
625.992	1	19
626.161	1	30
626.331	1	27
626.501	1	21
626.670	1	34
626.840	1	25
627.009	1	29
627.179	1	34
627.348	1	16
627.518	1	45
627.688	1	29
627.857	1	30
628.027	1	40
628.196	1	33
628.366	1	27
628.536	1	24
628.705	1	27
628.875	1	24
629.044	1	25
629.214	1	28
629.384	1	37
629.553	1	30
629.723	1	32
629.892	1	35
630.062	1	31
630.232	1	42
630.401	1	28
630.571	1	24
630.740	1	28
630.910	1	38
631.079	1	28
631.249	1	29
631.419	1	31
631.588	1	40
631.758	1	27
631.927	1	42
632.097	1	24
632.266	1	33
632.436	1	22
632.606	1	38
632.775	1	29
632.945	1	17
633.114	1	21
633.284	1	47
633.453	1	21
633.623	1	45
633.793	1	34
633.962	1	31
634.132	1	31
634.301	1	41
634.471	1	35
634.640	1	27
634.810	1	35
634.979	1	29
635.149	1	31
635.319	1	25
635.488	1	33
635.658	1	28
635.827	1	36
635.997	1	39
636.166	1	35
636.336	1	25
636.505	1	39
636.675	1	36
636.845	1	31
637.014	1	29
637.184	1	44
637.353	1	38
637.523	1	27
637.692	1	41
637.862	1	30
638.031	1	25
638.201	1	40
638.370	1	31
638.540	1	34
638.710	1	29
638.879	1	26
639.049	1	36
639.218	1	37
639.388	1	27
639.557	1	34
639.727	1	34
639.896	1	36
640.066	1	34
640.235	1	29
640.405	1	34
640.574	1	44
640.744	1	30
640.914	1	37
641.083	1	47
641.253	1	46
641.422	1	25
641.592	1	34
641.761	1	31
641.931	1	51
642.100	1	35
642.270	1	36
642.439	1	39
642.609	1	45
642.778	1	41
642.948	1	43
643.117	1	41
643.287	1	38
643.456	1	34
643.626	1	34
643.795	1	37
643.965	1	35
644.134	1	39
644.304	1	39
644.473	1	34
644.643	1	39
644.812	1	31
644.982	1	42
645.151	1	31
645.321	1	40
645.490	1	43
645.660	1	27
645.829	1	38
645.999	1	28
646.168	1	51
646.338	1	25
646.507	1	35
646.677	1	38
646.846	1	42
647.016	1	39
647.185	1	38
647.355	1	42
647.524	1	33
647.694	1	23
647.863	1	40
648.033	1	36
648.202	1	33
648.372	1	32
648.541	1	31
648.711	1	46
648.880	1	37
649.050	1	46
649.219	1	43
649.389	1	33
649.558	1	45
649.728	1	46
649.897	1	42
650.067	1	43
650.236	1	27
650.406	1	47
650.575	1	30
650.745	1	55
650.914	1	43
651.084	1	39
651.253	1	35
651.423	1	25
651.592	1	42
651.762	1	38
651.931	1	44
652.101	1	29
652.270	1	33
652.440	1	44
652.609	1	45
652.778	1	46
652.948	1	47
653.117	1	34
653.287	1	37
653.456	1	30
653.626	1	30
653.795	1	30
653.965	1	41
654.134	1	39
654.304	1	44
654.473	1	37
654.643	1	34
654.812	1	47
654.982	1	43
655.151	1	50
655.320	1	32
655.490	1	38
655.659	1	44
655.829	1	52
655.998	1	41
656.168	1	37
656.337	1	34
656.507	1	38
656.676	1	37
656.846	1	40
657.015	1	44
657.184	1	41
657.354	1	46
657.523	1	39
657.693	1	45
657.862	1	32
658.032	1	42
658.201	1	37
658.371	1	40
658.540	1	40
658.709	1	52
658.879	1	49
659.048	1	46
659.218	1	33
659.387	1	45
659.557	1	42
659.726	1	40
659.895	1	43
660.065	1	40
660.234	1	43
660.404	1	48
660.573	1	45
660.743	1	31
660.912	1	50
661.081	1	39
661.251	1	49
661.420	1	49
661.590	1	40
661.759	1	48
661.929	1	37
662.098	1	45
662.267	1	39
662.437	1	44
662.606	1	38
662.776	1	35
662.945	1	50
663.115	1	50
663.284	1	47
663.453	1	49
663.623	1	43
663.792	1	54
663.962	1	49
664.131	1	37
664.300	1	42
664.470	1	43
664.639	1	49
664.809	1	44
664.978	1	58
665.148	1	42
665.317	1	40
665.486	1	59
665.656	1	39
665.825	1	48
665.995	1	41
666.164	1	36
666.333	1	50
666.503	1	40
666.672	1	48
666.842	1	47
667.011	1	41
667.180	1	49
667.350	1	51
667.519	1	50
667.689	1	44
667.858	1	51
668.027	1	36
668.197	1	34
668.366	1	43
668.536	1	32
668.705	1	39
668.874	1	42
669.044	1	43
669.213	1	41
669.382	1	44
669.552	1	49
669.721	1	35
669.891	1	44
670.060	1	44
670.229	1	51
670.399	1	49
670.568	1	45
670.738	1	37
670.907	1	46
671.076	1	45
671.246	1	53
671.415	1	61
671.584	1	55
671.754	1	40
671.923	1	41
672.093	1	51
672.262	1	45
672.431	1	49
672.601	1	45
672.770	1	44
672.939	1	46
673.109	1	46
673.278	1	50
673.448	1	62
673.617	1	49
673.786	1	32
