325.333	1	-6
325.504	1	-7
325.675	1	5
325.846	1	0
326.017	1	5
326.188	1	0
326.359	1	12
326.531	1	-10
326.702	1	-7
326.873	1	5
327.044	1	9
327.215	1	-6
327.386	1	6
327.557	1	-4
327.728	1	0
327.899	1	-7
328.070	1	7
328.241	1	6
328.412	1	-2
328.583	1	-4
328.754	1	11
328.926	1	2
329.097	1	-6
329.268	1	5
329.439	1	1
329.610	1	-1
329.781	1	6
329.952	1	3
330.123	1	1
330.294	1	-1
330.465	1	-10
330.636	1	-3
330.807	1	3
330.978	1	-7
331.149	1	7
331.320	1	-2
331.492	1	4
331.663	1	2
331.834	1	5
332.005	1	1
332.176	1	8
332.347	1	-7
332.518	1	1
332.689	1	-2
332.860	1	-3
333.031	1	2
333.202	1	-3
333.373	1	-2
333.544	1	3
333.715	1	-5
333.886	1	-4
334.057	1	-1
334.228	1	-2
334.399	1	14
334.570	1	5
334.741	1	-3
334.912	1	-1
335.084	1	6
335.255	1	6
335.426	1	-1
335.597	1	-3
335.768	1	0
335.939	1	8
336.110	1	-1
336.281	1	1
336.452	1	8
336.623	1	-11
336.794	1	-8
336.965	1	-6
337.136	1	8
337.307	1	-8
337.478	1	-6
337.649	1	-7
337.820	1	-3
337.991	1	2
338.162	1	-6
338.333	1	2
338.504	1	1
338.675	1	1
338.846	1	-13
339.017	1	-4
339.188	1	-4
339.359	1	5
339.530	1	-2
339.701	1	3
339.872	1	13
340.043	1	-2
340.214	1	3
340.385	1	-8
340.556	1	6
340.727	1	4
340.898	1	2
341.069	1	-6
341.240	1	-8
341.411	1	4
341.582	1	-2
341.753	1	8
341.924	1	7
342.095	1	-3
342.266	1	13
342.437	1	-6
342.608	1	-7
342.779	1	0
342.950	1	0
343.121	1	6
343.292	1	1
343.463	1	11
343.634	1	-5
343.805	1	1
343.976	1	4
344.147	1	2
344.318	1	-3
344.489	1	-10
344.660	1	-2
344.831	1	9
345.002	1	8
345.173	1	-4
345.344	1	-5
345.515	1	0
345.686	1	-1
345.857	1	20
346.028	1	-1
346.199	1	12
346.370	1	0
346.541	1	-2
346.712	1	-2
346.883	1	2
347.054	1	2
347.225	1	-4
347.396	1	-12
347.567	1	-7
347.738	1	11
347.909	1	-2
348.080	1	0
348.251	1	7
348.422	1	-3
348.593	1	-2
348.764	1	-5
348.935	1	-2
349.106	1	1
349.277	1	-8
349.448	1	8
349.619	1	6
349.790	1	-2
349.961	1	-1
350.132	1	13
350.303	1	-1
350.474	1	1
350.645	1	7
350.816	1	4
350.987	1	13
351.157	1	-1
351.328	1	-2
351.499	1	1
351.670	1	-1
351.841	1	8
352.012	1	5
352.183	1	4
352.354	1	0
352.525	1	2
352.696	1	-3
352.867	1	2
353.038	1	0
353.209	1	-1
353.380	1	8
353.551	1	8
353.722	1	3
353.893	1	0
354.064	1	5
354.235	1	-5
354.406	1	-1
354.576	1	-7
354.747	1	3
354.918	1	0
355.089	1	11
355.260	1	-7
355.431	1	-3
355.602	1	10
355.773	1	1
355.944	1	7
356.115	1	4
356.286	1	1
356.457	1	2
356.628	1	-6
356.799	1	5
356.970	1	8
357.141	1	2
357.311	1	9
357.482	1	0
357.653	1	-4
357.824	1	4
357.995	1	7
358.166	1	1
358.337	1	1
358.508	1	12
358.679	1	-7
358.850	1	6
359.021	1	-3
359.192	1	5
359.363	1	3
359.533	1	-3
359.704	1	-2
359.875	1	-11
360.046	1	2
360.217	1	4
360.388	1	10
360.559	1	3
360.730	1	-3
360.901	1	-1
361.072	1	2
361.243	1	5
361.414	1	3
361.584	1	2
361.755	1	3
361.926	1	6
362.097	1	-2
362.268	1	15
362.439	1	-8
362.610	1	9
362.781	1	-9
362.952	1	11
363.123	1	-6
363.293	1	1
363.464	1	0
363.635	1	7
363.806	1	3
363.977	1	5
364.148	1	8
364.319	1	5
364.490	1	4
364.661	1	10
364.832	1	9
365.002	1	4
365.173	1	10
365.344	1	2
365.515	1	-1
365.686	1	6
365.857	1	7
366.028	1	-2
366.199	1	6
366.370	1	-1
366.540	1	3
366.711	1	5
366.882	1	4
367.053	1	-1
367.224	1	1
367.395	1	4
367.566	1	9
367.737	1	7
367.908	1	-2
368.078	1	-8
368.249	1	4
368.420	1	8
368.591	1	11
368.762	1	8
368.933	1	1
369.104	1	7
369.274	1	9
369.445	1	6
369.616	1	-6
369.787	1	10
369.958	1	7
370.129	1	8
370.300	1	-3
370.471	1	3
370.641	1	0
370.812	1	5
370.983	1	-1
371.154	1	12
371.325	1	-1
371.496	1	0
371.667	1	11
371.837	1	9
372.008	1	-6
372.179	1	1
372.350	1	4
372.521	1	15
372.692	1	5
372.863	1	5
373.033	1	3
373.204	1	6
373.375	1	-6
373.546	1	13
373.717	1	2
373.888	1	12
374.059	1	-3
374.229	1	3
374.400	1	6
374.571	1	1
374.742	1	8
374.913	1	-1
375.084	1	-1
375.254	1	-2
375.425	1	8
375.596	1	6
375.767	1	-5
375.938	1	-9
376.109	1	6
376.279	1	3
376.450	1	7
376.621	1	14
376.792	1	5
376.963	1	2
377.134	1	-5
377.304	1	3
377.475	1	-5
377.646	1	1
377.817	1	1
377.988	1	1
378.159	1	12
378.329	1	5
378.500	1	11
378.671	1	5
378.842	1	6
379.013	1	0
379.184	1	-2
379.354	1	8
379.525	1	9
379.696	1	7
379.867	1	11
380.038	1	-3
380.209	1	8
380.379	1	5
380.550	1	1
380.721	1	0
380.892	1	-7
381.063	1	3
381.233	1	-9
381.404	1	5
381.575	1	-1
381.746	1	13
381.917	1	-6
382.087	1	10
382.258	1	2
382.429	1	7
382.600	1	2
382.771	1	0
382.941	1	4
383.112	1	6
383.283	1	-1
383.454	1	-1
383.625	1	5
383.795	1	15
383.966	1	10
384.137	1	18
384.308	1	2
384.479	1	5
384.649	1	-4
384.820	1	8
384.991	1	-5
385.162	1	7
385.333	1	11
385.503	1	-2
385.674	1	10
385.845	1	6
386.016	1	10
386.187	1	-10
386.357	1	7
386.528	1	-6
386.699	1	-4
386.870	1	8
387.041	1	10
387.211	1	0
387.382	1	9
387.553	1	6
387.724	1	-1
387.894	1	-7
388.065	1	10
388.236	1	0
388.407	1	11
388.578	1	7
388.748	1	6
388.919	1	4
389.090	1	7
389.261	1	15
389.431	1	-10
389.602	1	1
389.773	1	-1
389.944	1	10
390.114	1	9
390.285	1	10
390.456	1	-2
390.627	1	6
390.798	1	6
390.968	1	12
391.139	1	5
391.310	1	9
391.481	1	3
391.651	1	7
391.822	1	17
391.993	1	5
392.164	1	7
392.334	1	-1
392.505	1	18
392.676	1	2
392.847	1	3
393.017	1	2
393.188	1	15
393.359	1	16
393.530	1	19
393.700	1	-1
393.871	1	9
394.042	1	0
394.213	1	3
394.383	1	18
394.554	1	-2
394.725	1	-10
394.896	1	5
395.066	1	1
395.237	1	3
395.408	1	-2
395.579	1	10
395.749	1	16
395.920	1	6
396.091	1	7
396.262	1	8
396.432	1	-5
396.603	1	10
396.774	1	8
396.945	1	10
397.115	1	11
397.286	1	4
397.457	1	0
397.627	1	2
397.798	1	13
397.969	1	7
398.140	1	6
398.310	1	0
398.481	1	5
398.652	1	6
398.823	1	5
398.993	1	10
399.164	1	10
399.335	1	4
399.505	1	-3
399.676	1	11
399.847	1	2
400.018	1	-5
400.188	1	12
400.359	1	9
400.530	1	12
400.700	1	16
400.871	1	8
401.042	1	7
401.213	1	13
401.383	1	3
401.554	1	13
401.725	1	-3
401.895	1	-4
402.066	1	8
402.237	1	7
402.408	1	7
402.578	1	11
402.749	1	0
402.920	1	18
403.090	1	4
403.261	1	6
403.432	1	8
403.603	1	-3
403.773	1	13
403.944	1	5
404.115	1	7
404.285	1	15
404.456	1	12
404.627	1	13
404.797	1	7
404.968	1	3
405.139	1	8
405.310	1	9
405.480	1	0
405.651	1	-2
405.822	1	-8
405.992	1	6
406.163	1	-2
406.334	1	8
406.504	1	7
406.675	1	-2
406.846	1	9
407.016	1	10
407.187	1	12
407.358	1	4
407.528	1	-1
407.699	1	4
407.870	1	19
408.041	1	9
408.211	1	14
408.382	1	7
408.553	1	3
408.723	1	11
408.894	1	5
409.065	1	11
409.235	1	3
409.406	1	2
409.577	1	8
409.747	1	6
409.918	1	13
410.089	1	14
410.259	1	4
410.430	1	1
410.601	1	5
410.771	1	7
410.942	1	6
411.113	1	0
411.283	1	5
411.454	1	13
411.625	1	5
411.795	1	10
411.966	1	5
412.137	1	9
412.307	1	5
412.478	1	7
412.649	1	8
412.819	1	10
412.990	1	13
413.161	1	2
413.331	1	20
413.502	1	-5
413.672	1	5
413.843	1	12
414.014	1	2
414.184	1	23
414.355	1	3
414.526	1	0
414.696	1	3
414.867	1	-5
415.038	1	5
415.208	1	-4
415.379	1	11
415.550	1	6
415.720	1	-2
415.891	1	7
416.062	1	12
416.232	1	7
416.403	1	7
416.573	1	6
416.744	1	7
416.915	1	-2
417.085	1	7
417.256	1	3
417.427	1	4
417.597	1	9
417.768	1	-2
417.939	1	-2
418.109	1	13
418.280	1	-1
418.450	1	18
418.621	1	3
418.792	1	6
418.962	1	9
419.133	1	1
419.304	1	6
419.474	1	20
419.645	1	5
419.815	1	12
419.986	1	12
420.157	1	5
420.327	1	0
420.498	1	-3
420.669	1	14
420.839	1	8
421.010	1	1
421.180	1	-3
421.351	1	3
421.522	1	11
421.692	1	10
421.863	1	8
422.033	1	9
422.204	1	7
422.375	1	7
422.545	1	8
422.716	1	-9
422.886	1	9
423.057	1	7
423.228	1	4
423.398	1	9
423.569	1	8
423.740	1	10
423.910	1	5
424.081	1	12
424.251	1	1
424.422	1	7
424.593	1	9
424.763	1	10
424.934	1	4
425.104	1	21
425.275	1	5
425.445	1	6
425.616	1	4
425.787	1	9
425.957	1	-1
426.128	1	12
426.298	1	14
426.469	1	-4
426.640	1	12
426.810	1	-10
426.981	1	16
427.151	1	2
427.322	1	3
427.493	1	12
427.663	1	4
427.834	1	3
428.004	1	7
428.175	1	6
428.345	1	1
428.516	1	4
428.687	1	9
428.857	1	16
429.028	1	-7
429.198	1	3
429.369	1	2
429.540	1	9
429.710	1	8
429.881	1	1
430.051	1	4
430.222	1	8
430.392	1	9
430.563	1	4
430.734	1	-2
430.904	1	4
431.075	1	7
431.245	1	0
431.416	1	7
431.586	1	1
431.757	1	13
431.927	1	13
432.098	1	11
432.269	1	3
432.439	1	3
432.610	1	12
432.780	1	11
432.951	1	2
433.121	1	-3
433.292	1	14
433.462	1	3
433.633	1	0
433.804	1	9
433.974	1	9
434.145	1	1
434.315	1	-5
434.486	1	-3
434.656	1	5
434.827	1	-1
434.997	1	7
435.168	1	10
435.339	1	13
435.509	1	4
435.680	1	11
435.850	1	4
436.021	1	2
436.191	1	3
436.362	1	5
436.532	1	11
436.703	1	0
436.873	1	0
437.044	1	9
437.214	1	7
437.385	1	13
437.556	1	17
437.726	1	3
437.897	1	-8
438.067	1	2
438.238	1	6
438.408	1	2
438.579	1	2
438.749	1	-5
438.920	1	20
439.090	1	4
439.261	1	8
439.431	1	-5
439.602	1	7
439.772	1	8
439.943	1	-4
440.113	1	6
440.284	1	9
440.455	1	6
440.625	1	18
440.796	1	8
440.966	1	6
441.137	1	8
441.307	1	12
441.478	1	6
441.648	1	3
441.819	1	15
441.989	1	8
442.160	1	4
442.330	1	9
442.501	1	-1
442.671	1	10
442.842	1	7
443.012	1	9
443.183	1	0
443.353	1	-3
443.524	1	6
443.694	1	7
443.865	1	8
444.035	1	-4
444.206	1	1
444.376	1	8
444.547	1	10
444.717	1	-2
444.888	1	-6
445.058	1	8
445.229	1	8
445.399	1	5
445.570	1	8
445.740	1	-2
445.911	1	12
446.081	1	10
446.252	1	5
446.422	1	8
446.593	1	1
446.763	1	6
446.934	1	0
447.104	1	-6
447.275	1	10
447.445	1	8
447.616	1	5
447.786	1	2
447.957	1	6
448.127	1	8
448.298	1	2
448.468	1	6
448.639	1	2
448.809	1	-7
448.979	1	9
449.150	1	3
449.320	1	2
449.491	1	11
449.661	1	-7
449.832	1	-1
450.002	1	1
450.173	1	5
450.343	1	-8
450.514	1	10
450.684	1	4
450.855	1	13
451.025	1	4
451.196	1	-4
451.366	1	12
451.537	1	9
451.707	1	11
451.878	1	-9
452.048	1	-4
452.218	1	6
452.389	1	10
452.559	1	13
452.730	1	4
452.900	1	0
453.071	1	10
453.241	1	7
453.412	1	-2
453.582	1	6
453.753	1	10
453.923	1	2
454.093	1	-1
454.264	1	10
454.434	1	1
454.605	1	-2
454.775	1	8
454.946	1	-5
455.116	1	0
455.287	1	2
455.457	1	12
455.628	1	-7
455.798	1	-2
455.968	1	2
456.139	1	8
456.309	1	8
456.480	1	5
456.650	1	6
456.821	1	4
456.991	1	3
457.161	1	11
457.332	1	8
457.502	1	-8
457.673	1	1
457.843	1	3
458.014	1	5
458.184	1	6
458.355	1	10
458.525	1	-2
458.695	1	1
458.866	1	-6
459.036	1	-5
459.207	1	10
459.377	1	0
459.548	1	11
459.718	1	9
459.888	1	3
460.059	1	3
460.229	1	-2
460.400	1	3
460.570	1	-3
460.740	1	6
460.911	1	-5
461.081	1	6
461.252	1	1
461.422	1	-3
461.593	1	7
461.763	1	16
461.933	1	-1
462.104	1	-9
462.274	1	-2
462.445	1	-3
462.615	1	11
462.785	1	11
462.956	1	-3
463.126	1	1
463.297	1	4
463.467	1	2
463.638	1	7
463.808	1	8
463.978	1	-5
464.149	1	0
464.319	1	9
464.490	1	-5
464.660	1	-2
464.830	1	-7
465.001	1	-2
465.171	1	4
465.342	1	2
465.512	1	3
465.682	1	-3
465.853	1	4
466.023	1	7
466.194	1	7
466.364	1	10
466.534	1	-5
466.705	1	15
466.875	1	-6
467.045	1	-5
467.216	1	-2
467.386	1	4
467.557	1	8
467.727	1	4
467.897	1	-2
468.068	1	-3
468.238	1	-4
468.409	1	2
468.579	1	5
468.749	1	1
468.920	1	-1
469.090	1	5
469.260	1	7
469.431	1	-13
469.601	1	7
469.772	1	11
469.942	1	4
470.112	1	-12
470.283	1	3
470.453	1	6
470.623	1	-7
470.794	1	8
470.964	1	-10
471.135	1	0
471.305	1	3
471.475	1	6
471.646	1	5
471.816	1	12
471.986	1	7
472.157	1	2
472.327	1	17
472.497	1	1
472.668	1	6
472.838	1	6
473.009	1	-1
473.179	1	1
473.349	1	-4
473.520	1	13
473.690	1	-2
473.860	1	-5
474.031	1	-14
474.201	1	1
474.371	1	5
474.542	1	2
474.712	1	-2
474.882	1	4
475.053	1	7
475.223	1	-3
475.394	1	-7
475.564	1	-5
475.734	1	2
475.905	1	14
476.075	1	8
476.245	1	7
476.416	1	-4
476.586	1	-4
476.756	1	0
476.927	1	6
477.097	1	3
477.267	1	1
477.438	1	10
477.608	1	5
477.778	1	-5
477.949	1	-9
478.119	1	3
478.289	1	-3
478.460	1	-6
478.630	1	2
478.800	1	-1
478.971	1	2
479.141	1	2
479.311	1	9
479.482	1	1
479.652	1	-2
479.822	1	-10
479.993	1	-3
480.163	1	2
480.333	1	10
480.504	1	8
480.674	1	11
480.844	1	8
481.015	1	8
481.185	1	8
481.355	1	1
481.525	1	-8
481.696	1	6
481.866	1	-6
482.036	1	6
482.207	1	3
482.377	1	9
482.547	1	11
482.718	1	8
482.888	1	11
483.058	1	11
483.229	1	0
483.399	1	2
483.569	1	-9
483.740	1	-2
483.910	1	-9
484.080	1	5
484.250	1	-8
484.421	1	-10
484.591	1	-1
484.761	1	9
484.932	1	-5
485.102	1	4
485.272	1	-1
485.443	1	1
485.613	1	-4
485.783	1	-4
485.953	1	-8
486.124	1	0
486.294	1	8
486.464	1	8
486.635	1	1
486.805	1	1
486.975	1	-2
487.146	1	5
487.316	1	3
487.486	1	6
487.656	1	8
487.827	1	-5
487.997	1	-7
488.167	1	1
488.338	1	4
488.508	1	6
488.678	1	0
488.848	1	1
489.019	1	-5
489.189	1	6
489.359	1	-4
489.529	1	3
489.700	1	-1
489.870	1	5
490.040	1	1
490.211	1	-3
490.381	1	1
490.551	1	1
490.721	1	3
490.892	1	-17
491.062	1	-10
491.232	1	-2
491.402	1	2
491.573	1	16
491.743	1	-2
491.913	1	-4
492.084	1	4
492.254	1	-6
492.424	1	-1
492.594	1	-7
492.765	1	12
492.935	1	4
493.105	1	3
493.275	1	-3
493.446	1	-13
493.616	1	-8
493.786	1	4
493.956	1	1
494.127	1	-6
494.297	1	-5
494.467	1	-7
494.637	1	3
494.808	1	-2
494.978	1	-7
495.148	1	-2
495.318	1	2
495.489	1	1
495.659	1	2
495.829	1	-5
495.999	1	-3
496.170	1	-1
496.340	1	-4
496.510	1	7
496.680	1	-4
496.851	1	8
497.021	1	-4
497.191	1	0
497.361	1	-14
497.532	1	-2
497.702	1	1
497.872	1	0
498.042	1	-1
498.213	1	0
498.383	1	12
498.553	1	8
498.723	1	-5
498.894	1	0
499.064	1	0
499.234	1	2
499.404	1	16
499.574	1	7
499.745	1	12
499.915	1	7
500.085	1	4
500.255	1	-7
500.426	1	-3
500.596	1	-19
500.766	1	-5
500.936	1	-7
501.106	1	-11
501.277	1	-11
501.447	1	3
501.617	1	0
501.787	1	-5
501.958	1	-3
502.128	1	4
502.298	1	11
502.468	1	2
502.638	1	-1
502.809	1	-10
502.979	1	1
503.149	1	-1
503.319	1	11
503.489	1	-16
503.660	1	2
503.830	1	-6
504.000	1	-2
504.170	1	0
504.340	1	-7
504.511	1	-4
504.681	1	2
504.851	1	-7
505.021	1	-3
505.192	1	-8
505.362	1	-1
505.532	1	-5
505.702	1	13
505.872	1	-2
506.043	1	10
506.213	1	8
506.383	1	-4
506.553	1	3
506.723	1	-3
506.893	1	-2
507.064	1	9
507.234	1	-9
507.404	1	-2
507.574	1	-6
507.744	1	7
507.915	1	-4
508.085	1	0
508.255	1	-4
508.425	1	-7
508.595	1	-7
508.766	1	-11
508.936	1	4
509.106	1	-3
509.276	1	8
509.446	1	0
509.616	1	4
509.787	1	0
509.957	1	0
510.127	1	-8
510.297	1	-3
510.467	1	-2
510.638	1	-3
510.808	1	14
510.978	1	1
511.148	1	1
511.318	1	5
511.488	1	-2
511.659	1	3
511.829	1	-5
511.999	1	-2
512.169	1	-3
512.339	1	-6
512.509	1	-12
512.680	1	6
512.850	1	-8
513.020	1	9
513.190	1	-9
513.360	1	1
513.530	1	-3
513.700	1	4
513.871	1	-3
514.041	1	2
514.211	1	8
514.381	1	4
514.551	1	-1
514.721	1	1
514.892	1	-1
515.062	1	-3
515.232	1	-1
515.402	1	-7
515.572	1	1
515.742	1	-3
515.912	1	6
516.083	1	-3
516.253	1	3
516.423	1	-4
516.593	1	-4
516.763	1	13
516.933	1	6
517.104	1	2
517.274	1	3
517.444	1	-1
517.614	1	5
517.784	1	2
517.954	1	0
518.124	1	6
518.294	1	-2
518.465	1	-4
518.635	1	4
518.805	1	2
518.975	1	-3
519.145	1	3
519.315	1	2
519.485	1	-1
519.656	1	-6
519.826	1	-5
519.996	1	5
520.166	1	-1
520.336	1	8
520.506	1	7
520.676	1	3
520.846	1	-10
521.017	1	7
521.187	1	-4
521.357	1	-8
521.527	1	0
521.697	1	-12
521.867	1	13
522.037	1	1
522.207	1	2
522.377	1	2
522.548	1	-10
522.718	1	0
522.888	1	4
523.058	1	-2
523.228	1	-10
523.398	1	-4
523.568	1	-5
523.738	1	4
523.909	1	4
524.079	1	-2
524.249	1	-16
524.419	1	1
524.589	1	5
524.759	1	1
524.929	1	-7
525.099	1	-4
525.269	1	1
525.439	1	-4
525.610	1	4
525.780	1	6
525.950	1	2
526.120	1	-5
526.290	1	-4
526.460	1	-12
526.630	1	2
526.800	1	-5
526.970	1	5
527.140	1	3
527.311	1	-3
527.481	1	2
527.651	1	8
527.821	1	-6
527.991	1	-2
528.161	1	-2
528.331	1	-9
528.501	1	-2
528.671	1	-1
528.841	1	-6
529.011	1	4
529.181	1	-5
529.352	1	-1
529.522	1	-2
529.692	1	5
529.862	1	3
530.032	1	-8
530.202	1	-4
530.372	1	-3
530.542	1	2
530.712	1	-1
530.882	1	4
531.052	1	-7
531.222	1	6
531.392	1	-10
531.563	1	-9
531.733	1	-12
531.903	1	6
532.073	1	-4
532.243	1	8
532.413	1	7
532.583	1	2
532.753	1	-10
532.923	1	-4
533.093	1	-4
533.263	1	-6
533.433	1	-2
533.603	1	-18
533.773	1	1
533.943	1	-2
534.113	1	0
534.284	1	4
534.454	1	1
534.624	1	0
534.794	1	-12
534.964	1	-12
535.134	1	-3
535.304	1	-1
535.474	1	2
535.644	1	5
535.814	1	-7
535.984	1	-2
536.154	1	-1
536.324	1	2
536.494	1	0
536.664	1	-2
536.834	1	-2
537.004	1	6
537.174	1	1
537.344	1	8
537.514	1	-2
537.685	1	7
537.855	1	5
538.025	1	8
538.195	1	-9
538.365	1	2
538.535	1	-1
538.705	1	-1
538.875	1	0
539.045	1	-2
539.215	1	-11
539.385	1	2
539.555	1	-3
539.725	1	-1
539.895	1	-5
540.065	1	6
540.235	1	2
540.405	1	4
540.575	1	-5
540.745	1	4
540.915	1	2
541.085	1	-7
541.255	1	-5
541.425	1	-4
541.595	1	-1
541.765	1	2
541.935	1	-5
542.105	1	0
542.275	1	-7
542.445	1	1
542.615	1	0
542.785	1	-10
542.955	1	10
543.125	1	-10
543.295	1	0
543.465	1	2
543.635	1	-8
543.805	1	7
543.975	1	0
544.145	1	-4
544.315	1	-16
544.485	1	-4
544.655	1	1
544.825	1	-1
544.995	1	-7
545.165	1	1
545.335	1	2
545.505	1	-5
545.675	1	2
545.845	1	-2
546.015	1	-12
546.185	1	-2
546.355	1	4
546.525	1	10
546.695	1	-5
546.865	1	1
547.035	1	2
547.205	1	1
547.375	1	10
547.545	1	1
547.715	1	9
547.885	1	-5
548.055	1	-11
548.225	1	14
548.395	1	-7
548.565	1	8
548.735	1	-7
548.905	1	1
549.075	1	-4
549.245	1	2
549.415	1	1
549.585	1	-2
549.755	1	-1
549.925	1	2
550.095	1	-3
550.265	1	-4
550.435	1	2
550.605	1	-3
550.775	1	-3
550.945	1	0
551.115	1	10
551.285	1	7
551.455	1	4
551.625	1	-8
551.795	1	-2
551.965	1	-6
552.135	1	-8
552.305	1	3
552.475	1	0
552.645	1	-11
552.815	1	-1
552.985	1	-9
553.155	1	-7
553.325	1	-7
553.495	1	3
553.665	1	-1
553.835	1	-2
554.004	1	4
554.174	1	-9
554.344	1	-1
554.514	1	-8
554.684	1	3
554.854	1	-16
555.024	1	3
555.194	1	3
555.364	1	-2
555.534	1	-11
555.704	1	0
555.874	1	-8
556.044	1	-3
556.214	1	0
556.384	1	7
556.554	1	1
556.724	1	-9
556.894	1	4
557.064	1	1
557.234	1	-1
557.404	1	1
557.573	1	10
557.743	1	-3
557.913	1	-10
558.083	1	-2
558.253	1	-4
558.423	1	-5
558.593	1	1
558.763	1	-7
558.933	1	-1
559.103	1	-6
559.273	1	3
559.443	1	7
559.613	1	-1
559.783	1	2
559.953	1	-10
560.122	1	-2
560.292	1	-10
560.462	1	-10
560.632	1	-6
560.802	1	-4
560.972	1	-7
561.142	1	-1
561.312	1	-3
561.482	1	6
561.652	1	-3
561.822	1	-6
561.992	1	-2
562.162	1	-12
562.331	1	-10
562.501	1	5
562.671	1	-9
562.841	1	-9
563.011	1	2
563.181	1	-2
563.351	1	-8
563.521	1	-10
563.691	1	2
563.861	1	-7
564.031	1	0
564.201	1	-9
564.370	1	10
564.540	1	-9
564.710	1	2
564.880	1	-3
565.050	1	9
565.220	1	7
565.390	1	-4
565.560	1	-1
565.730	1	3
565.900	1	6
566.069	1	10
566.239	1	5
566.409	1	4
566.579	1	1
566.749	1	-5
566.919	1	-18
567.089	1	-15
567.259	1	-1
567.429	1	-1
567.599	1	7
567.768	1	3
567.938	1	-1
568.108	1	-3
568.278	1	-2
568.448	1	-1
568.618	1	-1
568.788	1	-4
568.958	1	-3
569.128	1	-7
569.297	1	1
569.467	1	4
569.637	1	-2
569.807	1	-4
569.977	1	-7
570.147	1	3
570.317	1	-2
570.487	1	-7
570.656	1	6
570.826	1	-8
570.996	1	6
571.166	1	0
571.336	1	-3
571.506	1	-11
571.676	1	-3
571.846	1	5
572.015	1	1
572.185	1	-1
572.355	1	-12
572.525	1	-14
572.695	1	0
572.865	1	-1
573.035	1	4
573.205	1	-1
573.374	1	-3
573.544	1	-1
573.714	1	0
573.884	1	-8
574.054	1	-11
574.224	1	6
574.394	1	-1
574.563	1	-13
574.733	1	-4
574.903	1	-6
575.073	1	-1
575.243	1	-3
575.413	1	-2
575.583	1	-9
575.752	1	-10
575.922	1	1
576.092	1	-1
576.262	1	1
576.432	1	-5
576.602	1	-9
576.772	1	3
576.941	1	-5
577.111	1	2
577.281	1	6
577.451	1	-2
577.621	1	1
577.791	1	-3
577.960	1	-3
578.130	1	2
578.300	1	-8
578.470	1	-3
578.640	1	-4
578.810	1	-5
578.979	1	5
579.149	1	-2
579.319	1	-4
579.489	1	8
579.659	1	-3
579.829	1	-5
579.998	1	-3
580.168	1	-8
580.338	1	-1
580.508	1	-7
580.678	1	5
580.848	1	-2
581.017	1	-2
581.187	1	1
581.357	1	-2
581.527	1	0
581.697	1	1
581.867	1	7
582.036	1	-15
582.206	1	0
582.376	1	0
582.546	1	-3
582.716	1	-2
582.885	1	-8
583.055	1	-11
583.225	1	-2
583.395	1	-2
583.565	1	1
583.735	1	2
583.904	1	-6
584.074	1	8
584.244	1	2
584.414	1	-1
584.584	1	-3
584.753	1	-1
584.923	1	3
585.093	1	7
585.263	1	-5
585.433	1	-9
585.602	1	1
585.772	1	17
585.942	1	-3
586.112	1	1
586.282	1	-1
586.451	1	-3
586.621	1	-16
586.791	1	-9
586.961	1	-9
587.131	1	-5
587.300	1	7
587.470	1	-7
587.640	1	0
587.810	1	-17
587.980	1	6
588.149	1	-3
588.319	1	7
588.489	1	0
588.659	1	-2
588.829	1	5
588.998	1	-4
589.168	1	-8
589.338	1	-2
589.508	1	1
589.677	1	2
589.847	1	5
590.017	1	3
590.187	1	-1
590.357	1	-9
590.526	1	-5
590.696	1	7
590.866	1	-15
591.036	1	2
591.205	1	4
591.375	1	-3
591.545	1	-2
591.715	1	-5
591.885	1	7
592.054	1	-1
592.224	1	-5
592.394	1	-11
592.564	1	7
592.733	1	-3
592.903	1	-7
593.073	1	-8
593.243	1	7
593.412	1	-1
593.582	1	4
593.752	1	-7
593.922	1	3
594.091	1	3
594.261	1	-17
594.431	1	3
594.601	1	-8
594.771	1	0
594.940	1	-7
595.110	1	-5
595.280	1	0
595.450	1	-6
595.619	1	-2
595.789	1	-14
595.959	1	-3
596.129	1	-3
596.298	1	4
596.468	1	4
596.638	1	-2
596.808	1	-7
596.977	1	-9
597.147	1	-2
597.317	1	5
597.487	1	0
597.656	1	-2
597.826	1	4
597.996	1	-2
598.166	1	-2
598.335	1	-9
598.505	1	1
598.675	1	-3
598.844	1	3
599.014	1	-14
599.184	1	0
599.354	1	16
599.523	1	-11
599.693	1	2
599.863	1	5
600.033	1	12
600.202	1	-9
600.372	1	-15
600.542	1	-1
600.712	1	1
600.881	1	-3
601.051	1	-1
601.221	1	-6
601.390	1	6
601.560	1	5
601.730	1	1
601.900	1	-3
602.069	1	-1
602.239	1	-2
602.409	1	1
602.578	1	1
602.748	1	10
602.918	1	-3
603.088	1	3
603.257	1	-3
603.427	1	4
603.597	1	-1
603.767	1	-5
603.936	1	2
604.106	1	0
604.276	1	4
604.445	1	-4
604.615	1	-3
604.785	1	6
604.954	1	-1
605.124	1	3
605.294	1	-4
605.464	1	-11
605.633	1	3
605.803	1	2
605.973	1	0
606.142	1	4
606.312	1	4
606.482	1	-10
606.652	1	0
606.821	1	-1
606.991	1	5
607.161	1	-2
607.330	1	-4
607.500	1	-5
607.670	1	5
607.839	1	-4
608.009	1	-8
608.179	1	4
608.348	1	2
608.518	1	8
608.688	1	-2
608.858	1	-9
609.027	1	7
609.197	1	8
609.367	1	-6
609.536	1	-14
609.706	1	4
609.876	1	4
610.045	1	5
610.215	1	3
610.385	1	0
610.554	1	-7
610.724	1	-8
610.894	1	-1
611.063	1	-1
611.233	1	5
611.403	1	3
611.572	1	4
611.742	1	-4
611.912	1	0
612.081	1	9
612.251	1	2
612.421	1	3
612.590	1	-4
612.760	1	-1
612.930	1	3
613.099	1	2
613.269	1	-9
613.439	1	-8
613.608	1	-3
613.778	1	0
613.948	1	3
614.117	1	-6
614.287	1	-7
614.457	1	1
614.626	1	-3
614.796	1	3
614.966	1	0
615.135	1	10
615.305	1	-7
615.475	1	-6
615.644	1	9
615.814	1	-8
615.984	1	-6
616.153	1	-8
616.323	1	-5
616.493	1	-4
616.662	1	4
616.832	1	1
617.002	1	-7
617.171	1	-4
617.341	1	1
617.511	1	-6
617.680	1	-9
617.850	1	-7
618.019	1	-7
618.189	1	8
618.359	1	10
618.528	1	7
618.698	1	-1
618.868	1	0
619.037	1	-2
619.207	1	4
619.377	1	-6
619.546	1	6
619.716	1	-3
619.885	1	-3
620.055	1	-7
620.225	1	3
620.394	1	2
620.564	1	5
620.734	1	5
620.903	1	-14
621.073	1	3
621.242	1	0
621.412	1	-7
621.582	1	5
621.751	1	1
621.921	1	0
622.091	1	-7
622.260	1	2
622.430	1	3
622.599	1	2
622.769	1	1
622.939	1	-8
623.108	1	2
623.278	1	-7
623.448	1	-6
623.617	1	5
623.787	1	-5
623.956	1	2
624.126	1	3
624.296	1	7
624.465	1	-2
624.635	1	-3
624.804	1	-12
624.974	1	-1
625.144	1	0
625.313	1	7
625.483	1	0
625.652	1	0
625.822	1	-1
625.992	1	-3
626.161	1	1
626.331	1	-3
626.501	1	-5
626.670	1	3
626.840	1	2
627.009	1	-3
627.179	1	-7
627.348	1	-5
627.518	1	10
627.688	1	0
627.857	1	2
628.027	1	13
628.196	1	5
628.366	1	-5
628.536	1	-6
628.705	1	0
628.875	1	-8
629.044	1	2
629.214	1	0
629.384	1	4
629.553	1	2
629.723	1	1
629.892	1	5
630.062	1	6
630.232	1	1
630.401	1	-1
630.571	1	-4
630.740	1	-2
630.910	1	11
631.079	1	2
631.249	1	1
631.419	1	1
631.588	1	-1
631.758	1	-6
631.927	1	2
632.097	1	-7
632.266	1	8
632.436	1	2
632.606	1	3
632.775	1	8
632.945	1	-7
633.114	1	-10
633.284	1	-3
633.453	1	7
633.623	1	6
633.793	1	-4
633.962	1	1
634.132	1	0
634.301	1	4
634.471	1	1
634.640	1	-8
634.810	1	-4
634.979	1	-9
635.149	1	-2
635.319	1	-9
635.488	1	-5
635.658	1	4
635.827	1	3
635.997	1	13
636.166	1	-8
636.336	1	-9
636.505	1	4
636.675	1	4
636.845	1	-7
637.014	1	-13
637.184	1	9
637.353	1	-1
637.523	1	0
637.692	1	-11
637.862	1	-5
638.031	1	-9
638.201	1	2
638.370	1	3
638.540	1	-6
638.710	1	-11
638.879	1	-4
639.049	1	-5
639.218	1	6
639.388	1	4
639.557	1	0
639.727	1	6
639.896	1	-3
640.066	1	-2
640.235	1	-4
640.405	1	-1
640.574	1	1
640.744	1	-6
640.914	1	-7
641.083	1	3
641.253	1	-10
641.422	1	-7
641.592	1	4
641.761	1	-6
641.931	1	8
642.100	1	-7
642.270	1	-1
642.439	1	1
642.609	1	4
642.778	1	-6
642.948	1	14
643.117	1	10
643.287	1	7
643.456	1	0
643.626	1	-10
643.795	1	-8
643.965	1	-2
644.134	1	-2
644.304	1	2
644.473	1	-3
644.643	1	-2
644.812	1	-2
644.982	1	-3
645.151	1	-2
645.321	1	4
645.490	1	5
645.660	1	-9
645.829	1	0
645.999	1	-11
646.168	1	13
646.338	1	-7
646.507	1	6
646.677	1	-10
646.846	1	3
647.016	1	3
647.185	1	0
647.355	1	2
647.524	1	-6
647.694	1	-9
647.863	1	-6
648.033	1	2
648.202	1	10
648.372	1	-9
648.541	1	2
648.711	1	1
648.880	1	5
649.050	1	-10
649.219	1	-2
649.389	1	0
649.558	1	-2
649.728	1	-4
649.897	1	2
650.067	1	5
650.236	1	-11
650.406	1	-6
650.575	1	1
650.745	1	2
650.914	1	1
651.084	1	4
651.253	1	-2
651.423	1	-8
651.592	1	0
651.762	1	0
651.931	1	-1
652.101	1	-12
652.270	1	-1
652.440	1	-2
652.609	1	-1
652.778	1	3
652.948	1	1
653.117	1	0
653.287	1	-10
653.456	1	-4
653.626	1	-7
653.795	1	2
653.965	1	-3
654.134	1	-8
654.304	1	4
654.473	1	2
654.643	1	-9
654.812	1	9
654.982	1	-1
655.151	1	14
655.320	1	-1
655.490	1	-3
655.659	1	-1
655.829	1	10
655.998	1	-2
656.168	1	-5
656.337	1	-6
656.507	1	-12
656.676	1	-13
656.846	1	0
657.015	1	1
657.184	1	2
657.354	1	6
657.523	1	6
657.693	1	3
657.862	1	-6
658.032	1	8
658.201	1	-11
658.371	1	7
658.540	1	-8
658.709	1	12
658.879	1	10
659.048	1	10
659.218	1	-8
659.387	1	-4
659.557	1	0
659.726	1	5
659.895	1	-7
660.065	1	-15
660.234	1	-7
660.404	1	8
660.573	1	-9
660.743	1	0
660.912	1	-9
661.081	1	-8
661.251	1	-4
661.420	1	8
661.590	1	-7
661.759	1	7
661.929	1	-2
662.098	1	0
662.267	1	-15
662.437	1	-4
662.606	1	-7
662.776	1	1
662.945	1	5
663.115	1	2
663.284	1	5
663.453	1	-10
663.623	1	4
663.792	1	11
663.962	1	4
664.131	1	-7
664.300	1	-1
664.470	1	-1
664.639	1	-2
664.809	1	5
664.978	1	4
665.148	1	4
665.317	1	3
665.486	1	9
665.656	1	-4
665.825	1	6
665.995	1	-8
666.164	1	-1
666.333	1	-5
666.503	1	-7
666.672	1	-5
666.842	1	0
667.011	1	0
667.180	1	-3
667.350	1	3
667.519	1	3
667.689	1	-7
667.858	1	2
668.027	1	-7
668.197	1	-18
668.366	1	-7
668.536	1	2
668.705	1	-11
668.874	1	14
669.044	1	-3
669.213	1	-3
669.382	1	2
669.552	1	0
669.721	1	1
669.891	1	-12
670.060	1	-5
670.229	1	-1
670.399	1	7
670.568	1	2
670.738	1	0
670.907	1	1
671.076	1	-1
671.246	1	2
671.415	1	5
671.584	1	10
671.754	1	-13
671.923	1	-11
672.093	1	0
672.262	1	5
672.431	1	-3
672.601	1	1
672.770	1	-2
672.939	1	3
673.109	1	-12
673.278	1	1
673.448	1	3
673.617	1	-6
673.786	1	-7
