325.333	1	12
325.504	1	-3
325.675	1	15
325.846	1	9
326.017	1	13
326.188	1	6
326.359	1	15
326.531	1	4
326.702	1	0
326.873	1	4
327.044	1	11
327.215	1	0
327.386	1	1
327.557	1	-7
327.728	1	-1
327.899	1	7
328.070	1	7
328.241	1	-2
328.412	1	4
328.583	1	0
328.754	1	7
328.926	1	11
329.097	1	-3
329.268	1	16
329.439	1	13
329.610	1	15
329.781	1	4
329.952	1	13
330.123	1	0
330.294	1	13
330.465	1	-9
330.636	1	8
330.807	1	13
330.978	1	4
331.149	1	10
331.320	1	2
331.492	1	10
331.663	1	6
331.834	1	7
332.005	1	19
332.176	1	9
332.347	1	5
332.518	1	10
332.689	1	4
332.860	1	2
333.031	1	8
333.202	1	12
333.373	1	10
333.544	1	10
333.715	1	0
333.886	1	17
334.057	1	6
334.228	1	8
334.399	1	13
334.570	1	5
334.741	1	10
334.912	1	7
335.084	1	9
335.255	1	13
335.426	1	8
335.597	1	6
335.768	1	14
335.939	1	11
336.110	1	14
336.281	1	7
336.452	1	18
336.623	1	-1
336.794	1	7
336.965	1	-1
337.136	1	20
337.307	1	1
337.478	1	8
337.649	1	1
337.820	1	5
337.991	1	16
338.162	1	2
338.333	1	9
338.504	1	7
338.675	1	7
338.846	1	2
339.017	1	12
339.188	1	16
339.359	1	8
339.530	1	7
339.701	1	16
339.872	1	10
340.043	1	10
340.214	1	17
340.385	1	-2
340.556	1	18
340.727	1	13
340.898	1	14
341.069	1	10
341.240	1	5
341.411	1	12
341.582	1	1
341.753	1	9
341.924	1	26
342.095	1	12
342.266	1	9
342.437	1	18
342.608	1	7
342.779	1	7
342.950	1	4
343.121	1	17
343.292	1	13
343.463	1	29
343.634	1	7
343.805	1	13
343.976	1	17
344.147	1	17
344.318	1	-1
344.489	1	9
344.660	1	14
344.831	1	21
345.002	1	14
345.173	1	8
345.344	1	18
345.515	1	5
345.686	1	12
345.857	1	11
346.028	1	20
346.199	1	9
346.370	1	13
346.541	1	13
346.712	1	4
346.883	1	6
347.054	1	16
347.225	1	10
347.396	1	13
347.567	1	7
347.738	1	17
347.909	1	14
348.080	1	11
348.251	1	2
348.422	1	25
348.593	1	10
348.764	1	17
348.935	1	15
349.106	1	13
349.277	1	13
349.448	1	12
349.619	1	18
349.790	1	19
349.961	1	13
350.132	1	24
350.303	1	18
350.474	1	12
350.645	1	15
350.816	1	14
350.987	1	27
351.157	1	17
351.328	1	7
351.499	1	16
351.670	1	14
351.841	1	17
352.012	1	16
352.183	1	24
352.354	1	9
352.525	1	13
352.696	1	11
352.867	1	24
353.038	1	19
353.209	1	23
353.380	1	4
353.551	1	23
353.722	1	26
353.893	1	12
354.064	1	11
354.235	1	18
354.406	1	10
354.576	1	14
354.747	1	16
354.918	1	25
355.089	1	9
355.260	1	12
355.431	1	13
355.602	1	18
355.773	1	19
355.944	1	26
356.115	1	28
356.286	1	16
356.457	1	14
356.628	1	16
356.799	1	14
356.970	1	27
357.141	1	22
357.311	1	32
357.482	1	8
357.653	1	5
357.824	1	17
357.995	1	26
358.166	1	15
358.337	1	20
358.508	1	22
358.679	1	5
358.850	1	33
359.021	1	27
359.192	1	26
359.363	1	29
359.533	1	20
359.704	1	17
359.875	1	17
360.046	1	20
360.217	1	22
360.388	1	27
360.559	1	28
360.730	1	15
360.901	1	19
361.072	1	29
361.243	1	23
361.414	1	22
361.584	1	24
361.755	1	29
361.926	1	29
362.097	1	16
362.268	1	44
362.439	1	19
362.610	1	22
362.781	1	18
362.952	1	28
363.123	1	11
363.293	1	30
363.464	1	20
363.635	1	21
363.806	1	28
363.977	1	10
364.148	1	23
364.319	1	28
364.490	1	25
364.661	1	27
364.832	1	24
365.002	1	23
365.173	1	28
365.344	1	22
365.515	1	14
365.686	1	16
365.857	1	28
366.028	1	19
366.199	1	31
366.370	1	24
366.540	1	17
366.711	1	36
366.882	1	18
367.053	1	24
367.224	1	28
367.395	1	21
367.566	1	26
367.737	1	22
367.908	1	30
368.078	1	16
368.249	1	33
368.420	1	30
368.591	1	24
368.762	1	24
368.933	1	30
369.104	1	28
369.274	1	25
369.445	1	25
369.616	1	17
369.787	1	16
369.958	1	18
370.129	1	28
370.300	1	17
370.471	1	27
370.641	1	25
370.812	1	28
370.983	1	17
371.154	1	25
371.325	1	19
371.496	1	11
371.667	1	36
371.837	1	19
372.008	1	20
372.179	1	29
372.350	1	22
372.521	1	34
372.692	1	27
372.863	1	27
373.033	1	30
373.204	1	18
373.375	1	18
373.546	1	34
373.717	1	14
373.888	1	28
374.059	1	24
374.229	1	32
374.400	1	26
374.571	1	26
374.742	1	30
374.913	1	20
375.084	1	29
375.254	1	12
375.425	1	23
375.596	1	18
375.767	1	24
375.938	1	13
376.109	1	13
376.279	1	19
376.450	1	27
376.621	1	28
376.792	1	18
376.963	1	23
377.134	1	21
377.304	1	29
377.475	1	16
377.646	1	17
377.817	1	32
377.988	1	22
378.159	1	39
378.329	1	26
378.500	1	25
378.671	1	26
378.842	1	35
379.013	1	28
379.184	1	20
379.354	1	27
379.525	1	27
379.696	1	22
379.867	1	31
380.038	1	21
380.209	1	35
380.379	1	37
380.550	1	8
380.721	1	24
380.892	1	22
381.063	1	22
381.233	1	28
381.404	1	34
381.575	1	23
381.746	1	37
381.917	1	37
382.087	1	39
382.258	1	42
382.429	1	26
382.600	1	24
382.771	1	22
382.941	1	37
383.112	1	29
383.283	1	26
383.454	1	23
383.625	1	33
383.795	1	36
383.966	1	32
384.137	1	44
384.308	1	22
384.479	1	35
384.649	1	30
384.820	1	37
384.991	1	35
385.162	1	31
385.333	1	32
385.503	1	32
385.674	1	28
385.845	1	28
386.016	1	36
386.187	1	27
386.357	1	44
386.528	1	24
386.699	1	25
386.870	1	30
387.041	1	34
387.211	1	26
387.382	1	50
387.553	1	39
387.724	1	30
387.894	1	22
388.065	1	41
388.236	1	24
388.407	1	41
388.578	1	42
388.748	1	39
388.919	1	34
389.090	1	45
389.261	1	34
389.431	1	20
389.602	1	27
389.773	1	43
389.944	1	33
390.114	1	44
390.285	1	33
390.456	1	30
390.627	1	38
390.798	1	39
390.968	1	42
391.139	1	33
391.310	1	29
391.481	1	35
391.651	1	38
391.822	1	45
391.993	1	34
392.164	1	34
392.334	1	28
392.505	1	34
392.676	1	20
392.847	1	28
393.017	1	33
393.188	1	31
393.359	1	47
393.530	1	47
393.700	1	36
393.871	1	36
394.042	1	36
394.213	1	32
394.383	1	26
394.554	1	37
394.725	1	23
394.896	1	43
395.066	1	30
395.237	1	39
395.408	1	35
395.579	1	32
395.749	1	50
395.920	1	30
396.091	1	33
396.262	1	31
396.432	1	31
396.603	1	32
396.774	1	35
396.945	1	40
397.115	1	44
397.286	1	39
397.457	1	34
397.627	1	41
397.798	1	38
397.969	1	42
398.140	1	36
398.310	1	41
398.481	1	31
398.652	1	47
398.823	1	36
398.993	1	32
399.164	1	36
399.335	1	33
399.505	1	35
399.676	1	35
399.847	1	28
400.018	1	27
400.188	1	40
400.359	1	36
400.530	1	41
400.700	1	28
400.871	1	44
401.042	1	35
401.213	1	43
401.383	1	40
401.554	1	33
401.725	1	32
401.895	1	32
402.066	1	36
402.237	1	29
402.408	1	33
402.578	1	47
402.749	1	35
402.920	1	44
403.090	1	38
403.261	1	29
403.432	1	42
403.603	1	40
403.773	1	46
403.944	1	47
404.115	1	40
404.285	1	37
404.456	1	42
404.627	1	40
404.797	1	39
404.968	1	40
405.139	1	44
405.310	1	39
405.480	1	40
405.651	1	31
405.822	1	40
405.992	1	40
406.163	1	27
406.334	1	29
406.504	1	31
406.675	1	36
406.846	1	37
407.016	1	40
407.187	1	43
407.358	1	20
407.528	1	38
407.699	1	35
407.870	1	43
408.041	1	38
408.211	1	39
408.382	1	40
408.553	1	44
408.723	1	45
408.894	1	37
409.065	1	41
409.235	1	39
409.406	1	40
409.577	1	38
409.747	1	45
409.918	1	40
410.089	1	47
410.259	1	42
410.430	1	38
410.601	1	43
410.771	1	45
410.942	1	41
411.113	1	42
411.283	1	42
411.454	1	52
411.625	1	44
411.795	1	35
411.966	1	45
412.137	1	43
412.307	1	39
412.478	1	30
412.649	1	39
412.819	1	38
412.990	1	40
413.161	1	37
413.331	1	43
413.502	1	32
413.672	1	34
413.843	1	38
414.014	1	35
414.184	1	47
414.355	1	53
414.526	1	31
414.696	1	38
414.867	1	36
415.038	1	41
415.208	1	26
415.379	1	33
415.550	1	37
415.720	1	41
415.891	1	42
416.062	1	38
416.232	1	49
416.403	1	35
416.573	1	29
416.744	1	37
416.915	1	29
417.085	1	42
417.256	1	49
417.427	1	28
417.597	1	25
417.768	1	34
417.939	1	22
418.109	1	36
418.280	1	32
418.450	1	49
418.621	1	37
418.792	1	43
418.962	1	36
419.133	1	36
419.304	1	34
419.474	1	36
419.645	1	34
419.815	1	42
419.986	1	43
420.157	1	34
420.327	1	24
420.498	1	34
420.669	1	34
420.839	1	33
421.010	1	38
421.180	1	33
421.351	1	41
421.522	1	41
421.692	1	54
421.863	1	34
422.033	1	44
422.204	1	48
422.375	1	51
422.545	1	47
422.716	1	36
422.886	1	49
423.057	1	35
423.228	1	29
423.398	1	35
423.569	1	26
423.740	1	40
423.910	1	39
424.081	1	44
424.251	1	39
424.422	1	36
424.593	1	41
424.763	1	36
424.934	1	56
425.104	1	47
425.275	1	32
425.445	1	41
425.616	1	31
425.787	1	35
425.957	1	34
426.128	1	38
426.298	1	38
426.469	1	27
426.640	1	29
426.810	1	25
426.981	1	50
427.151	1	35
427.322	1	24
427.493	1	41
427.663	1	43
427.834	1	36
428.004	1	40
428.175	1	37
428.345	1	25
428.516	1	31
428.687	1	42
428.857	1	46
429.028	1	39
429.198	1	39
429.369	1	39
429.540	1	36
429.710	1	38
429.881	1	37
430.051	1	31
430.222	1	37
430.392	1	42
430.563	1	29
430.734	1	37
430.904	1	50
431.075	1	41
431.245	1	21
431.416	1	32
431.586	1	34
431.757	1	37
431.927	1	30
432.098	1	46
432.269	1	36
432.439	1	35
432.610	1	46
432.780	1	35
432.951	1	27
433.121	1	32
433.292	1	38
433.462	1	40
433.633	1	33
433.804	1	33
433.974	1	30
434.145	1	38
434.315	1	30
434.486	1	26
434.656	1	42
434.827	1	38
434.997	1	40
435.168	1	36
435.339	1	37
435.509	1	39
435.680	1	47
435.850	1	30
436.021	1	30
436.191	1	34
436.362	1	41
436.532	1	28
436.703	1	33
436.873	1	43
437.044	1	40
437.214	1	30
437.385	1	31
437.556	1	36
437.726	1	40
437.897	1	29
438.067	1	32
438.238	1	37
438.408	1	33
438.579	1	21
438.749	1	29
438.920	1	44
439.090	1	18
439.261	1	45
439.431	1	36
439.602	1	38
439.772	1	30
439.943	1	22
440.113	1	26
440.284	1	38
440.455	1	29
440.625	1	40
440.796	1	25
440.966	1	41
441.137	1	35
441.307	1	39
441.478	1	29
441.648	1	33
441.819	1	30
441.989	1	49
442.160	1	33
442.330	1	40
442.501	1	36
442.671	1	24
442.842	1	26
443.012	1	26
443.183	1	29
443.353	1	26
443.524	1	32
443.694	1	36
443.865	1	48
444.035	1	30
444.206	1	21
444.376	1	30
444.547	1	29
444.717	1	26
444.888	1	18
445.058	1	32
445.229	1	28
445.399	1	40
445.570	1	30
445.740	1	31
445.911	1	33
446.081	1	35
446.252	1	30
446.422	1	29
446.593	1	26
446.763	1	34
446.934	1	28
447.104	1	25
447.275	1	31
447.445	1	32
447.616	1	22
447.786	1	35
447.957	1	30
448.127	1	34
448.298	1	31
448.468	1	31
448.639	1	24
448.809	1	25
448.979	1	41
449.150	1	32
449.320	1	39
449.491	1	25
449.661	1	26
449.832	1	19
450.002	1	27
450.173	1	36
450.343	1	33
450.514	1	26
450.684	1	28
450.855	1	31
451.025	1	34
451.196	1	25
451.366	1	32
451.537	1	25
451.707	1	36
451.878	1	28
452.048	1	15
452.218	1	29
452.389	1	32
452.559	1	40
452.730	1	30
452.900	1	25
453.071	1	33
453.241	1	31
453.412	1	26
453.582	1	37
453.753	1	30
453.923	1	20
454.093	1	22
454.264	1	32
454.434	1	31
454.605	1	27
454.775	1	24
454.946	1	25
455.116	1	31
455.287	1	19
455.457	1	32
455.628	1	22
455.798	1	33
455.968	1	24
456.139	1	34
456.309	1	20
456.480	1	35
456.650	1	40
456.821	1	17
456.991	1	25
457.161	1	28
457.332	1	9
457.502	1	15
457.673	1	18
457.843	1	21
458.014	1	29
458.184	1	15
458.355	1	29
458.525	1	26
458.695	1	23
458.866	1	12
459.036	1	25
459.207	1	32
459.377	1	34
459.548	1	28
459.718	1	20
459.888	1	20
460.059	1	22
460.229	1	6
460.400	1	40
460.570	1	8
460.740	1	19
460.911	1	18
461.081	1	22
461.252	1	22
461.422	1	31
461.593	1	26
461.763	1	26
461.933	1	17
462.104	1	29
462.274	1	12
462.445	1	21
462.615	1	39
462.785	1	22
462.956	1	24
463.126	1	26
463.297	1	20
463.467	1	33
463.638	1	23
463.808	1	21
463.978	1	17
464.149	1	24
464.319	1	23
464.490	1	23
464.660	1	21
464.830	1	19
465.001	1	27
465.171	1	24
465.342	1	15
465.512	1	26
465.682	1	18
465.853	1	17
466.023	1	39
466.194	1	24
466.364	1	24
466.534	1	16
466.705	1	31
466.875	1	13
467.045	1	27
467.216	1	20
467.386	1	17
467.557	1	28
467.727	1	17
467.897	1	14
468.068	1	10
468.238	1	16
468.409	1	16
468.579	1	19
468.749	1	17
468.920	1	9
469.090	1	19
469.260	1	15
469.431	1	12
469.601	1	23
469.772	1	31
469.942	1	18
470.112	1	5
470.283	1	21
470.453	1	19
470.623	1	20
470.794	1	17
470.964	1	10
471.135	1	25
471.305	1	8
471.475	1	21
471.646	1	21
471.816	1	22
471.986	1	10
472.157	1	22
472.327	1	16
472.497	1	17
472.668	1	17
472.838	1	12
473.009	1	22
473.179	1	13
473.349	1	23
473.520	1	24
473.690	1	14
473.860	1	18
474.031	1	10
474.201	1	17
474.371	1	29
474.542	1	19
474.712	1	16
474.882	1	26
475.053	1	18
475.223	1	18
475.394	1	19
475.564	1	11
475.734	1	13
475.905	1	16
476.075	1	36
476.245	1	13
476.416	1	17
476.586	1	19
476.756	1	11
476.927	1	21
477.097	1	14
477.267	1	24
477.438	1	26
477.608	1	27
477.778	1	21
477.949	1	13
478.119	1	16
478.289	1	12
478.460	1	0
478.630	1	12
478.800	1	15
478.971	1	17
479.141	1	21
479.311	1	15
479.482	1	17
479.652	1	13
479.822	1	11
479.993	1	2
480.163	1	18
480.333	1	24
480.504	1	16
480.674	1	13
480.844	1	14
481.015	1	22
481.185	1	24
481.355	1	20
481.525	1	9
481.696	1	13
481.866	1	16
482.036	1	21
482.207	1	18
482.377	1	10
482.547	1	17
482.718	1	18
482.888	1	19
483.058	1	23
483.229	1	23
483.399	1	20
483.569	1	5
483.740	1	10
483.910	1	15
484.080	1	19
484.250	1	6
484.421	1	15
484.591	1	18
484.761	1	18
484.932	1	7
485.102	1	25
485.272	1	19
485.443	1	19
485.613	1	7
485.783	1	8
485.953	1	16
486.124	1	11
486.294	1	8
486.464	1	18
486.635	1	22
486.805	1	18
486.975	1	5
487.146	1	25
487.316	1	20
487.486	1	17
487.656	1	20
487.827	1	10
487.997	1	6
488.167	1	10
488.338	1	14
488.508	1	21
488.678	1	6
488.848	1	12
489.019	1	13
489.189	1	25
489.359	1	16
489.529	1	22
489.700	1	9
489.870	1	15
490.040	1	10
490.211	1	9
490.381	1	10
490.551	1	14
490.721	1	7
490.892	1	5
491.062	1	7
491.232	1	16
491.402	1	17
491.573	1	15
491.743	1	10
491.913	1	11
492.084	1	20
492.254	1	13
492.424	1	10
492.594	1	8
492.765	1	17
492.935	1	20
493.105	1	20
493.275	1	9
493.446	1	6
493.616	1	-2
493.786	1	19
493.956	1	9
494.127	1	10
494.297	1	-2
494.467	1	4
494.637	1	10
494.808	1	17
494.978	1	8
495.148	1	7
495.318	1	4
495.489	1	8
495.659	1	6
495.829	1	9
495.999	1	19
496.170	1	11
496.340	1	12
496.510	1	14
496.680	1	15
496.851	1	23
497.021	1	12
497.191	1	6
497.361	1	-2
497.532	1	10
497.702	1	12
497.872	1	7
498.042	1	14
498.213	1	7
498.383	1	7
498.553	1	16
498.723	1	9
498.894	1	2
499.064	1	14
499.234	1	14
499.404	1	8
499.574	1	13
499.745	1	5
499.915	1	18
500.085	1	5
500.255	1	-4
500.426	1	11
500.596	1	-2
500.766	1	-2
500.936	1	2
501.106	1	1
501.277	1	1
501.447	1	7
501.617	1	6
501.787	1	11
501.958	1	9
502.128	1	7
502.298	1	11
502.468	1	9
502.638	1	15
502.809	1	4
502.979	1	17
503.149	1	2
503.319	1	19
503.489	1	-14
503.660	1	4
503.830	1	7
504.000	1	9
504.170	1	9
504.340	1	2
504.511	1	13
504.681	1	7
504.851	1	5
505.021	1	5
505.192	1	3
505.362	1	9
505.532	1	-2
505.702	1	24
505.872	1	12
506.043	1	9
506.213	1	11
506.383	1	9
506.553	1	2
506.723	1	-4
506.893	1	11
507.064	1	13
507.234	1	7
507.404	1	6
507.574	1	2
507.744	1	13
507.915	1	5
508.085	1	2
508.255	1	12
508.425	1	6
508.595	1	4
508.766	1	-7
508.936	1	12
509.106	1	10
509.276	1	10
509.446	1	2
509.616	1	3
509.787	1	8
509.957	1	8
510.127	1	-5
510.297	1	-1
510.467	1	11
510.638	1	4
510.808	1	13
510.978	1	0
511.148	1	4
511.318	1	9
511.488	1	16
511.659	1	8
511.829	1	-5
511.999	1	11
512.169	1	12
512.339	1	9
512.509	1	-2
512.680	1	4
512.850	1	7
513.020	1	12
513.190	1	-6
513.360	1	9
513.530	1	6
513.700	1	2
513.871	1	4
514.041	1	14
514.211	1	5
514.381	1	17
514.551	1	-1
514.721	1	7
514.892	1	7
515.062	1	3
515.232	1	3
515.402	1	9
515.572	1	12
515.742	1	3
515.912	1	13
516.083	1	16
516.253	1	14
516.423	1	6
516.593	1	1
516.763	1	11
516.933	1	7
517.104	1	8
517.274	1	2
517.444	1	8
517.614	1	4
517.784	1	11
517.954	1	7
518.124	1	9
518.294	1	7
518.465	1	0
518.635	1	14
518.805	1	11
518.975	1	0
519.145	1	14
519.315	1	6
519.485	1	-3
519.656	1	3
519.826	1	-6
519.996	1	5
520.166	1	0
520.336	1	1
520.506	1	17
520.676	1	8
520.846	1	0
521.017	1	9
521.187	1	9
521.357	1	-1
521.527	1	9
521.697	1	1
521.867	1	14
522.037	1	3
522.207	1	4
522.377	1	12
522.548	1	-1
522.718	1	2
522.888	1	10
523.058	1	10
523.228	1	1
523.398	1	-2
523.568	1	-4
523.738	1	14
523.909	1	2
524.079	1	3
524.249	1	4
524.419	1	1
524.589	1	10
524.759	1	13
524.929	1	-2
525.099	1	-1
525.269	1	9
525.439	1	8
525.610	1	16
525.780	1	6
525.950	1	17
526.120	1	3
526.290	1	-1
526.460	1	-1
526.630	1	6
526.800	1	3
526.970	1	1
527.140	1	1
527.311	1	-9
527.481	1	3
527.651	1	5
527.821	1	5
527.991	1	1
528.161	1	6
528.331	1	2
528.501	1	3
528.671	1	5
528.841	1	5
529.011	1	5
529.181	1	3
529.352	1	3
529.522	1	-1
529.692	1	3
529.862	1	-2
530.032	1	-5
530.202	1	0
530.372	1	7
530.542	1	-3
530.712	1	2
530.882	1	4
531.052	1	9
531.222	1	8
531.392	1	6
531.563	1	15
531.733	1	-5
531.903	1	12
532.073	1	4
532.243	1	11
532.413	1	18
532.583	1	5
532.753	1	1
532.923	1	6
533.093	1	-2
533.263	1	5
533.433	1	-5
533.603	1	-1
533.773	1	7
533.943	1	10
534.113	1	13
534.284	1	4
534.454	1	4
534.624	1	3
534.794	1	3
534.964	1	7
535.134	1	0
535.304	1	0
535.474	1	6
535.644	1	7
535.814	1	5
535.984	1	6
536.154	1	10
536.324	1	1
536.494	1	12
536.664	1	2
536.834	1	7
537.004	1	8
537.174	1	8
537.344	1	8
537.514	1	0
537.685	1	8
537.855	1	9
538.025	1	12
538.195	1	-4
538.365	1	10
538.535	1	1
538.705	1	1
538.875	1	12
539.045	1	6
539.215	1	-7
539.385	1	5
539.555	1	-5
539.725	1	8
539.895	1	6
540.065	1	-2
540.235	1	0
540.405	1	4
540.575	1	6
540.745	1	2
540.915	1	9
541.085	1	-5
541.255	1	-2
541.425	1	-6
541.595	1	4
541.765	1	10
541.935	1	10
542.105	1	7
542.275	1	-8
542.445	1	6
542.615	1	14
542.785	1	6
542.955	1	5
543.125	1	2
543.295	1	14
543.465	1	10
543.635	1	-9
543.805	1	7
543.975	1	-1
544.145	1	2
544.315	1	-3
544.485	1	2
544.655	1	6
544.825	1	6
544.995	1	6
545.165	1	5
545.335	1	11
545.505	1	2
545.675	1	5
545.845	1	12
546.015	1	-4
546.185	1	1
546.355	1	0
546.525	1	6
546.695	1	2
546.865	1	10
547.035	1	10
547.205	1	17
547.375	1	11
547.545	1	5
547.715	1	3
547.885	1	-10
548.055	1	2
548.225	1	16
548.395	1	7
548.565	1	5
548.735	1	-9
548.905	1	12
549.075	1	7
549.245	1	7
549.415	1	8
549.585	1	-7
549.755	1	12
549.925	1	3
550.095	1	5
550.265	1	3
550.435	1	4
550.605	1	-1
550.775	1	-2
550.945	1	5
551.115	1	12
551.285	1	-6
551.455	1	1
551.625	1	3
551.795	1	-2
551.965	1	1
552.135	1	-1
552.305	1	5
552.475	1	7
552.645	1	-5
552.815	1	3
552.985	1	-6
553.155	1	3
553.325	1	1
553.495	1	10
553.665	1	-6
553.835	1	7
554.004	1	6
554.174	1	8
554.344	1	6
554.514	1	-3
554.684	1	7
554.854	1	-4
555.024	1	11
555.194	1	3
555.364	1	-3
555.534	1	-6
555.704	1	2
555.874	1	9
556.044	1	3
556.214	1	2
556.384	1	8
556.554	1	6
556.724	1	-3
556.894	1	0
557.064	1	2
557.234	1	1
557.404	1	4
557.573	1	11
557.743	1	-4
557.913	1	-5
558.083	1	5
558.253	1	2
558.423	1	10
558.593	1	9
558.763	1	-4
558.933	1	4
559.103	1	5
559.273	1	3
559.443	1	7
559.613	1	6
559.783	1	1
559.953	1	-8
560.122	1	0
560.292	1	-10
560.462	1	-1
560.632	1	-5
560.802	1	8
560.972	1	-2
561.142	1	0
561.312	1	7
561.482	1	10
561.652	1	5
561.822	1	-3
561.992	1	12
562.162	1	-1
562.331	1	1
562.501	1	7
562.671	1	3
562.841	1	-3
563.011	1	-1
563.181	1	-1
563.351	1	1
563.521	1	0
563.691	1	-1
563.861	1	7
564.031	1	1
564.201	1	3
564.370	1	-3
564.540	1	-5
564.710	1	1
564.880	1	1
565.050	1	5
565.220	1	14
565.390	1	6
565.560	1	1
565.730	1	16
565.900	1	10
566.069	1	-2
566.239	1	11
566.409	1	-1
566.579	1	-7
566.749	1	-3
566.919	1	2
567.089	1	-5
567.259	1	11
567.429	1	-5
567.599	1	16
567.768	1	3
567.938	1	2
568.108	1	5
568.278	1	1
568.448	1	7
568.618	1	7
568.788	1	9
568.958	1	1
569.128	1	-1
569.297	1	-3
569.467	1	6
569.637	1	6
569.807	1	2
569.977	1	2
570.147	1	0
570.317	1	8
570.487	1	-7
570.656	1	9
570.826	1	8
570.996	1	15
571.166	1	0
571.336	1	1
571.506	1	0
571.676	1	9
571.846	1	4
572.015	1	5
572.185	1	4
572.355	1	-4
572.525	1	-11
572.695	1	0
572.865	1	9
573.035	1	1
573.205	1	1
573.374	1	-2
573.544	1	4
573.714	1	-2
573.884	1	-3
574.054	1	1
574.224	1	7
574.394	1	3
574.563	1	-8
574.733	1	3
574.903	1	5
575.073	1	3
575.243	1	6
575.413	1	-7
575.583	1	-1
575.752	1	5
575.922	1	14
576.092	1	-4
576.262	1	6
576.432	1	-6
576.602	1	1
576.772	1	1
576.941	1	3
577.111	1	-7
577.281	1	7
577.451	1	2
577.621	1	4
577.791	1	2
577.960	1	5
578.130	1	5
578.300	1	-3
578.470	1	4
578.640	1	1
578.810	1	0
578.979	1	5
579.149	1	-1
579.319	1	6
579.489	1	10
579.659	1	0
579.829	1	2
579.998	1	-9
580.168	1	7
580.338	1	2
580.508	1	2
580.678	1	7
580.848	1	6
581.017	1	5
581.187	1	3
581.357	1	9
581.527	1	1
581.697	1	3
581.867	1	3
582.036	1	-4
582.206	1	7
582.376	1	-1
582.546	1	-3
582.716	1	4
582.885	1	6
583.055	1	-5
583.225	1	5
583.395	1	7
583.565	1	13
583.735	1	4
583.904	1	-4
584.074	1	-5
584.244	1	-2
584.414	1	4
584.584	1	2
584.753	1	7
584.923	1	-5
585.093	1	6
585.263	1	4
585.433	1	-6
585.602	1	4
585.772	1	15
585.942	1	-3
586.112	1	-1
586.282	1	-3
586.451	1	8
586.621	1	-5
586.791	1	-2
586.961	1	2
587.131	1	-8
587.300	1	8
587.470	1	-3
587.640	1	0
587.810	1	-8
587.980	1	4
588.149	1	8
588.319	1	4
588.489	1	1
588.659	1	-3
588.829	1	2
588.998	1	7
589.168	1	0
589.338	1	-3
589.508	1	2
589.677	1	0
589.847	1	6
590.017	1	1
590.187	1	3
590.357	1	1
590.526	1	2
590.696	1	5
590.866	1	-2
591.036	1	6
591.205	1	5
591.375	1	-1
591.545	1	-3
591.715	1	2
591.885	1	9
592.054	1	13
592.224	1	-7
592.394	1	-11
592.564	1	3
592.733	1	10
592.903	1	-2
593.073	1	5
593.243	1	3
593.412	1	-7
593.582	1	4
593.752	1	-8
593.922	1	-5
594.091	1	6
594.261	1	-3
594.431	1	4
594.601	1	-5
594.771	1	2
594.940	1	-4
595.110	1	-1
595.280	1	5
595.450	1	1
595.619	1	-3
595.789	1	-2
595.959	1	-4
596.129	1	10
596.298	1	17
596.468	1	0
596.638	1	5
596.808	1	-3
596.977	1	-4
597.147	1	0
597.317	1	8
597.487	1	3
597.656	1	-2
597.826	1	7
597.996	1	3
598.166	1	1
598.335	1	1
598.505	1	6
598.675	1	8
598.844	1	10
599.014	1	-9
599.184	1	6
599.354	1	4
599.523	1	-5
599.693	1	7
599.863	1	17
600.033	1	4
600.202	1	1
600.372	1	2
600.542	1	-2
600.712	1	0
600.881	1	3
601.051	1	3
601.221	1	2
601.390	1	5
601.560	1	11
601.730	1	10
601.900	1	2
602.069	1	2
602.239	1	7
602.409	1	0
602.578	1	12
602.748	1	9
602.918	1	-3
603.088	1	12
603.257	1	-2
603.427	1	4
603.597	1	1
603.767	1	1
603.936	1	3
604.106	1	-7
604.276	1	2
604.445	1	-6
604.615	1	7
604.785	1	10
604.954	1	4
605.124	1	-7
605.294	1	-4
605.464	1	8
605.633	1	8
605.803	1	3
605.973	1	4
606.142	1	6
606.312	1	8
606.482	1	5
606.652	1	1
606.821	1	7
606.991	1	0
607.161	1	5
607.330	1	-3
607.500	1	0
607.670	1	4
607.839	1	1
608.009	1	9
608.179	1	5
608.348	1	11
608.518	1	9
608.688	1	-2
608.858	1	4
609.027	1	10
609.197	1	6
609.367	1	-1
609.536	1	3
609.706	1	2
609.876	1	-3
610.045	1	12
610.215	1	6
610.385	1	12
610.554	1	2
610.724	1	6
610.894	1	2
611.063	1	4
611.233	1	14
611.403	1	8
611.572	1	7
611.742	1	6
611.912	1	7
612.081	1	9
612.251	1	-1
612.421	1	-5
612.590	1	7
612.760	1	8
612.930	1	11
613.099	1	0
613.269	1	2
613.439	1	1
613.608	1	-2
613.778	1	-1
613.948	1	16
614.117	1	3
614.287	1	2
614.457	1	8
614.626	1	-6
614.796	1	2
614.966	1	2
615.135	1	9
615.305	1	5
615.475	1	-2
615.644	1	16
615.814	1	12
615.984	1	-4
616.153	1	2
616.323	1	-3
616.493	1	6
616.662	1	-2
616.832	1	6
617.002	1	1
617.171	1	12
617.341	1	15
617.511	1	-5
617.680	1	3
617.850	1	5
618.019	1	-5
618.189	1	10
618.359	1	-1
618.528	1	3
618.698	1	6
618.868	1	-1
619.037	1	3
619.207	1	-6
619.377	1	9
619.546	1	6
619.716	1	-2
619.885	1	-1
620.055	1	-1
620.225	1	16
620.394	1	0
620.564	1	5
620.734	1	-3
620.903	1	-4
621.073	1	9
621.242	1	-2
621.412	1	-6
621.582	1	11
621.751	1	4
621.921	1	10
622.091	1	5
622.260	1	-2
622.430	1	11
622.599	1	-11
622.769	1	1
622.939	1	3
623.108	1	6
623.278	1	0
623.448	1	3
623.617	1	11
623.787	1	5
623.956	1	8
624.126	1	5
624.296	1	6
624.465	1	6
624.635	1	-2
624.804	1	-2
624.974	1	-12
625.144	1	-4
625.313	1	13
625.483	1	7
625.652	1	5
625.822	1	4
625.992	1	-1
626.161	1	3
626.331	1	11
626.501	1	3
626.670	1	1
626.840	1	0
627.009	1	4
627.179	1	3
627.348	1	3
627.518	1	7
627.688	1	5
627.857	1	3
628.027	1	-3
628.196	1	11
628.366	1	0
628.536	1	0
628.705	1	-4
628.875	1	1
629.044	1	1
629.214	1	9
629.384	1	17
629.553	1	4
629.723	1	7
629.892	1	6
630.062	1	9
630.232	1	1
630.401	1	-2
630.571	1	-1
630.740	1	5
630.910	1	19
631.079	1	6
631.249	1	5
631.419	1	7
631.588	1	10
631.758	1	-4
631.927	1	13
632.097	1	-5
632.266	1	13
632.436	1	8
632.606	1	5
632.775	1	5
632.945	1	1
633.114	1	-6
633.284	1	4
633.453	1	6
633.623	1	11
633.793	1	6
633.962	1	3
634.132	1	2
634.301	1	8
634.471	1	5
634.640	1	4
634.810	1	3
634.979	1	-3
635.149	1	8
635.319	1	4
635.488	1	7
635.658	1	6
635.827	1	0
635.997	1	10
636.166	1	-7
636.336	1	-4
636.505	1	15
636.675	1	9
636.845	1	4
637.014	1	-14
637.184	1	13
637.353	1	5
637.523	1	4
637.692	1	6
637.862	1	-5
638.031	1	-5
638.201	1	11
638.370	1	7
638.540	1	6
638.710	1	5
638.879	1	1
639.049	1	-4
639.218	1	10
639.388	1	8
639.557	1	7
639.727	1	5
639.896	1	1
640.066	1	3
640.235	1	1
640.405	1	5
640.574	1	13
640.744	1	5
640.914	1	6
641.083	1	12
641.253	1	-1
641.422	1	-3
641.592	1	7
641.761	1	4
641.931	1	11
642.100	1	4
642.270	1	5
642.439	1	3
642.609	1	12
642.778	1	0
642.948	1	11
643.117	1	10
643.287	1	7
643.456	1	1
643.626	1	7
643.795	1	3
643.965	1	5
644.134	1	9
644.304	1	-7
644.473	1	12
644.643	1	7
644.812	1	5
644.982	1	7
645.151	1	6
645.321	1	1
645.490	1	16
645.660	1	7
645.829	1	7
645.999	1	0
646.168	1	20
646.338	1	-6
646.507	1	-2
646.677	1	3
646.846	1	0
647.016	1	14
647.185	1	10
647.355	1	17
647.524	1	0
647.694	1	-8
647.863	1	3
648.033	1	-2
648.202	1	7
648.372	1	-1
648.541	1	0
648.711	1	3
648.880	1	12
649.050	1	9
649.219	1	11
649.389	1	6
649.558	1	18
649.728	1	7
649.897	1	-1
650.067	1	-4
650.236	1	-4
650.406	1	1
650.575	1	5
650.745	1	10
650.914	1	11
651.084	1	11
651.253	1	6
651.423	1	-3
651.592	1	13
651.762	1	-12
651.931	1	6
652.101	1	-2
652.270	1	9
652.440	1	2
652.609	1	14
652.778	1	13
652.948	1	10
653.117	1	6
653.287	1	3
653.456	1	-2
653.626	1	5
653.795	1	1
653.965	1	-6
654.134	1	-2
654.304	1	14
654.473	1	10
654.643	1	3
654.812	1	15
654.982	1	3
655.151	1	9
655.320	1	-4
655.490	1	1
655.659	1	8
655.829	1	8
655.998	1	5
656.168	1	1
656.337	1	9
656.507	1	2
656.676	1	5
656.846	1	9
657.015	1	12
657.184	1	1
657.354	1	-3
657.523	1	-6
657.693	1	9
657.862	1	-9
658.032	1	7
658.201	1	-4
658.371	1	5
658.540	1	2
658.709	1	11
658.879	1	13
659.048	1	11
659.218	1	4
659.387	1	6
659.557	1	3
659.726	1	6
659.895	1	6
660.065	1	-1
660.234	1	1
660.404	1	1
660.573	1	-3
660.743	1	2
660.912	1	12
661.081	1	-1
661.251	1	1
661.420	1	13
661.590	1	-4
661.759	1	17
661.929	1	3
662.098	1	12
662.267	1	0
662.437	1	5
662.606	1	-5
662.776	1	13
662.945	1	3
663.115	1	14
663.284	1	6
663.453	1	3
663.623	1	-3
663.792	1	5
663.962	1	2
664.131	1	-2
664.300	1	-2
664.470	1	3
664.639	1	-3
664.809	1	-2
664.978	1	16
665.148	1	10
665.317	1	9
665.486	1	-1
665.656	1	6
665.825	1	7
665.995	1	-3
666.164	1	0
666.333	1	-5
666.503	1	-2
666.672	1	2
666.842	1	12
667.011	1	5
667.180	1	0
667.350	1	10
667.519	1	11
667.689	1	7
667.858	1	7
668.027	1	5
668.197	1	-8
668.366	1	7
668.536	1	0
668.705	1	1
668.874	1	11
669.044	1	8
669.213	1	1
669.382	1	7
669.552	1	-1
669.721	1	10
669.891	1	-1
670.060	1	7
670.229	1	9
670.399	1	8
670.568	1	17
670.738	1	-1
670.907	1	10
671.076	1	-3
671.246	1	9
671.415	1	10
671.584	1	4
671.754	1	-4
671.923	1	10
672.093	1	12
672.262	1	4
672.431	1	5
672.601	1	9
672.770	1	5
672.939	1	2
673.109	1	1
673.278	1	7
673.448	1	5
673.617	1	12
673.786	1	0
