325.333	1	0
325.504	1	-7
325.675	1	4
325.846	1	5
326.017	1	3
326.188	1	0
326.359	1	8
326.531	1	-2
326.702	1	-2
326.873	1	12
327.044	1	11
327.215	1	0
327.386	1	1
327.557	1	2
327.728	1	-2
327.899	1	-3
328.070	1	9
328.241	1	5
328.412	1	5
328.583	1	-7
328.754	1	9
328.926	1	3
329.097	1	-4
329.268	1	13
329.439	1	20
329.610	1	3
329.781	1	8
329.952	1	7
330.123	1	4
330.294	1	4
330.465	1	-3
330.636	1	5
330.807	1	7
330.978	1	-3
331.149	1	6
331.320	1	2
331.492	1	-4
331.663	1	7
331.834	1	-1
332.005	1	9
332.176	1	18
332.347	1	8
332.518	1	10
332.689	1	8
332.860	1	-2
333.031	1	12
333.202	1	1
333.373	1	5
333.544	1	3
333.715	1	-2
333.886	1	3
334.057	1	-3
334.228	1	11
334.399	1	13
334.570	1	6
334.741	1	6
334.912	1	0
335.084	1	13
335.255	1	16
335.426	1	7
335.597	1	1
335.768	1	8
335.939	1	13
336.110	1	8
336.281	1	14
336.452	1	5
336.623	1	0
336.794	1	3
336.965	1	5
337.136	1	10
337.307	1	-8
337.478	1	11
337.649	1	6
337.820	1	1
337.991	1	1
338.162	1	6
338.333	1	8
338.504	1	9
338.675	1	3
338.846	1	-1
339.017	1	9
339.188	1	13
339.359	1	11
339.530	1	4
339.701	1	11
339.872	1	10
340.043	1	7
340.214	1	16
340.385	1	-6
340.556	1	17
340.727	1	5
340.898	1	18
341.069	1	4
341.240	1	-1
341.411	1	10
341.582	1	-8
341.753	1	0
341.924	1	17
342.095	1	3
342.266	1	12
342.437	1	4
342.608	1	-2
342.779	1	3
342.950	1	4
343.121	1	12
343.292	1	11
343.463	1	17
343.634	1	10
343.805	1	10
343.976	1	17
344.147	1	7
344.318	1	5
344.489	1	-5
344.660	1	6
344.831	1	9
345.002	1	14
345.173	1	0
345.344	1	9
345.515	1	6
345.686	1	14
345.857	1	8
346.028	1	3
346.199	1	14
346.370	1	8
346.541	1	11
346.712	1	3
346.883	1	9
347.054	1	12
347.225	1	3
347.396	1	0
347.567	1	8
347.738	1	9
347.909	1	7
348.080	1	9
348.251	1	11
348.422	1	9
348.593	1	4
348.764	1	8
348.935	1	13
349.106	1	2
349.277	1	19
349.448	1	2
349.619	1	10
349.790	1	13
349.961	1	4
350.132	1	15
350.303	1	6
350.474	1	4
350.645	1	8
350.816	1	9
350.987	1	11
351.157	1	4
351.328	1	5
351.499	1	0
351.670	1	11
351.841	1	17
352.012	1	16
352.183	1	20
352.354	1	6
352.525	1	16
352.696	1	5
352.867	1	20
353.038	1	9
353.209	1	15
353.380	1	10
353.551	1	16
353.722	1	12
353.893	1	19
354.064	1	8
354.235	1	7
354.406	1	-2
354.576	1	7
354.747	1	5
354.918	1	3
355.089	1	21
355.260	1	7
355.431	1	8
355.602	1	21
355.773	1	11
355.944	1	19
356.115	1	15
356.286	1	9
356.457	1	11
356.628	1	7
356.799	1	7
356.970	1	20
357.141	1	19
357.311	1	31
357.482	1	1
357.653	1	4
357.824	1	13
357.995	1	14
358.166	1	5
358.337	1	8
358.508	1	25
358.679	1	10
358.850	1	19
359.021	1	5
359.192	1	26
359.363	1	5
359.533	1	10
359.704	1	0
359.875	1	0
360.046	1	16
360.217	1	21
360.388	1	22
360.559	1	7
360.730	1	6
360.901	1	12
361.072	1	7
361.243	1	14
361.414	1	16
361.584	1	4
361.755	1	5
361.926	1	15
362.097	1	7
362.268	1	23
362.439	1	5
362.610	1	8
362.781	1	7
362.952	1	13
363.123	1	4
363.293	1	10
363.464	1	10
363.635	1	19
363.806	1	11
363.977	1	11
364.148	1	17
364.319	1	9
364.490	1	20
364.661	1	11
364.832	1	14
365.002	1	14
365.173	1	21
365.344	1	10
365.515	1	15
365.686	1	13
365.857	1	9
366.028	1	26
366.199	1	21
366.370	1	9
366.540	1	26
366.711	1	12
366.882	1	6
367.053	1	24
367.224	1	2
367.395	1	5
367.566	1	10
367.737	1	5
367.908	1	16
368.078	1	9
368.249	1	25
368.420	1	21
368.591	1	14
368.762	1	17
368.933	1	6
369.104	1	25
369.274	1	9
369.445	1	13
369.616	1	6
369.787	1	4
369.958	1	18
370.129	1	4
370.300	1	8
370.471	1	17
370.641	1	8
370.812	1	13
370.983	1	11
371.154	1	15
371.325	1	16
371.496	1	15
371.667	1	16
371.837	1	18
372.008	1	13
372.179	1	15
372.350	1	15
372.521	1	13
372.692	1	16
372.863	1	18
373.033	1	12
373.204	1	13
373.375	1	11
373.546	1	6
373.717	1	5
373.888	1	18
374.059	1	18
374.229	1	23
374.400	1	11
374.571	1	14
374.742	1	14
374.913	1	10
375.084	1	13
375.254	1	6
375.425	1	19
375.596	1	9
375.767	1	24
375.938	1	6
376.109	1	12
376.279	1	8
376.450	1	16
376.621	1	19
376.792	1	15
376.963	1	12
377.134	1	24
377.304	1	26
377.475	1	16
377.646	1	16
377.817	1	22
377.988	1	12
378.159	1	16
378.329	1	12
378.500	1	22
378.671	1	10
378.842	1	21
379.013	1	20
379.184	1	14
379.354	1	11
379.525	1	20
379.696	1	21
379.867	1	17
380.038	1	9
380.209	1	21
380.379	1	19
380.550	1	6
380.721	1	19
380.892	1	15
381.063	1	21
381.233	1	15
381.404	1	5
381.575	1	13
381.746	1	22
381.917	1	10
382.087	1	20
382.258	1	21
382.429	1	17
382.600	1	16
382.771	1	11
382.941	1	28
383.112	1	17
383.283	1	17
383.454	1	11
383.625	1	11
383.795	1	20
383.966	1	25
384.137	1	25
384.308	1	11
384.479	1	17
384.649	1	13
384.820	1	23
384.991	1	9
385.162	1	23
385.333	1	15
385.503	1	20
385.674	1	19
385.845	1	20
386.016	1	22
386.187	1	10
386.357	1	20
386.528	1	17
386.699	1	14
386.870	1	15
387.041	1	23
387.211	1	10
387.382	1	24
387.553	1	26
387.724	1	13
387.894	1	18
388.065	1	22
388.236	1	16
388.407	1	22
388.578	1	15
388.748	1	21
388.919	1	17
389.090	1	28
389.261	1	23
389.431	1	11
389.602	1	23
389.773	1	14
389.944	1	17
390.114	1	26
390.285	1	21
390.456	1	19
390.627	1	18
390.798	1	18
390.968	1	20
391.139	1	42
391.310	1	13
391.481	1	16
391.651	1	34
391.822	1	17
391.993	1	16
392.164	1	13
392.334	1	19
392.505	1	17
392.676	1	9
392.847	1	34
393.017	1	16
393.188	1	30
393.359	1	31
393.530	1	28
393.700	1	10
393.871	1	24
394.042	1	20
394.213	1	20
394.383	1	20
394.554	1	22
394.725	1	15
394.896	1	19
395.066	1	30
395.237	1	23
395.408	1	25
395.579	1	23
395.749	1	39
395.920	1	32
396.091	1	22
396.262	1	26
396.432	1	9
396.603	1	33
396.774	1	19
396.945	1	21
397.115	1	26
397.286	1	33
397.457	1	17
397.627	1	15
397.798	1	18
397.969	1	23
398.140	1	22
398.310	1	22
398.481	1	27
398.652	1	21
398.823	1	14
398.993	1	15
399.164	1	28
399.335	1	19
399.505	1	12
399.676	1	36
399.847	1	30
400.018	1	15
400.188	1	28
400.359	1	26
400.530	1	22
400.700	1	31
400.871	1	14
401.042	1	25
401.213	1	25
401.383	1	26
401.554	1	31
401.725	1	34
401.895	1	25
402.066	1	24
402.237	1	19
402.408	1	23
402.578	1	27
402.749	1	17
402.920	1	26
403.090	1	16
403.261	1	9
403.432	1	15
403.603	1	29
403.773	1	30
403.944	1	24
404.115	1	18
404.285	1	16
404.456	1	25
404.627	1	21
404.797	1	25
404.968	1	15
405.139	1	31
405.310	1	32
405.480	1	14
405.651	1	20
405.822	1	18
405.992	1	22
406.163	1	21
406.334	1	21
406.504	1	14
406.675	1	24
406.846	1	27
407.016	1	24
407.187	1	35
407.358	1	16
407.528	1	18
407.699	1	31
407.870	1	41
408.041	1	19
408.211	1	29
408.382	1	28
408.553	1	31
408.723	1	30
408.894	1	26
409.065	1	28
409.235	1	25
409.406	1	26
409.577	1	29
409.747	1	33
409.918	1	35
410.089	1	34
410.259	1	28
410.430	1	16
410.601	1	42
410.771	1	31
410.942	1	20
411.113	1	29
411.283	1	27
411.454	1	28
411.625	1	32
411.795	1	31
411.966	1	23
412.137	1	28
412.307	1	24
412.478	1	19
412.649	1	12
412.819	1	23
412.990	1	34
413.161	1	20
413.331	1	21
413.502	1	31
413.672	1	23
413.843	1	17
414.014	1	23
414.184	1	28
414.355	1	24
414.526	1	31
414.696	1	16
414.867	1	7
415.038	1	29
415.208	1	11
415.379	1	19
415.550	1	24
415.720	1	10
415.891	1	15
416.062	1	19
416.232	1	24
416.403	1	41
416.573	1	26
416.744	1	25
416.915	1	26
417.085	1	32
417.256	1	10
417.427	1	28
417.597	1	24
417.768	1	21
417.939	1	17
418.109	1	25
418.280	1	27
418.450	1	36
418.621	1	33
418.792	1	32
418.962	1	32
419.133	1	34
419.304	1	25
419.474	1	26
419.645	1	19
419.815	1	28
419.986	1	39
420.157	1	26
420.327	1	16
420.498	1	24
420.669	1	37
420.839	1	22
421.010	1	30
421.180	1	21
421.351	1	13
421.522	1	19
421.692	1	36
421.863	1	11
422.033	1	22
422.204	1	21
422.375	1	25
422.545	1	27
422.716	1	11
422.886	1	27
423.057	1	18
423.228	1	14
423.398	1	34
423.569	1	17
423.740	1	22
423.910	1	35
424.081	1	29
424.251	1	14
424.422	1	36
424.593	1	24
424.763	1	18
424.934	1	35
425.104	1	26
425.275	1	21
425.445	1	25
425.616	1	21
425.787	1	26
425.957	1	21
426.128	1	20
426.298	1	28
426.469	1	22
426.640	1	19
426.810	1	10
426.981	1	36
427.151	1	17
427.322	1	24
427.493	1	20
427.663	1	19
427.834	1	22
428.004	1	27
428.175	1	27
428.345	1	29
428.516	1	13
428.687	1	31
428.857	1	29
429.028	1	17
429.198	1	13
429.369	1	14
429.540	1	23
429.710	1	24
429.881	1	22
430.051	1	15
430.222	1	18
430.392	1	34
430.563	1	18
430.734	1	25
430.904	1	33
431.075	1	19
431.245	1	28
431.416	1	19
431.586	1	8
431.757	1	25
431.927	1	25
432.098	1	27
432.269	1	16
432.439	1	9
432.610	1	34
432.780	1	28
432.951	1	22
433.121	1	24
433.292	1	24
433.462	1	22
433.633	1	28
433.804	1	26
433.974	1	35
434.145	1	27
434.315	1	25
434.486	1	13
434.656	1	30
434.827	1	24
434.997	1	34
435.168	1	20
435.339	1	30
435.509	1	22
435.680	1	26
435.850	1	4
436.021	1	25
436.191	1	13
436.362	1	26
436.532	1	28
436.703	1	29
436.873	1	17
437.044	1	23
437.214	1	8
437.385	1	16
437.556	1	19
437.726	1	20
437.897	1	17
438.067	1	20
438.238	1	17
438.408	1	14
438.579	1	16
438.749	1	15
438.920	1	29
439.090	1	13
439.261	1	18
439.431	1	2
439.602	1	12
439.772	1	24
439.943	1	7
440.113	1	21
440.284	1	24
440.455	1	20
440.625	1	27
440.796	1	19
440.966	1	19
441.137	1	18
441.307	1	24
441.478	1	10
441.648	1	14
441.819	1	15
441.989	1	20
442.160	1	22
442.330	1	21
442.501	1	17
442.671	1	18
442.842	1	28
443.012	1	17
443.183	1	10
443.353	1	24
443.524	1	15
443.694	1	19
443.865	1	30
444.035	1	9
444.206	1	10
444.376	1	28
444.547	1	13
444.717	1	12
444.888	1	5
445.058	1	23
445.229	1	18
445.399	1	28
445.570	1	11
445.740	1	18
445.911	1	29
446.081	1	15
446.252	1	19
446.422	1	25
446.593	1	13
446.763	1	20
446.934	1	18
447.104	1	14
447.275	1	11
447.445	1	18
447.616	1	15
447.786	1	23
447.957	1	15
448.127	1	13
448.298	1	30
448.468	1	14
448.639	1	16
448.809	1	17
448.979	1	24
449.150	1	10
449.320	1	20
449.491	1	14
449.661	1	18
449.832	1	9
450.002	1	15
450.173	1	27
450.343	1	14
450.514	1	9
450.684	1	21
450.855	1	15
451.025	1	13
451.196	1	-1
451.366	1	24
451.537	1	35
451.707	1	25
451.878	1	11
452.048	1	14
452.218	1	15
452.389	1	22
452.559	1	25
452.730	1	15
452.900	1	10
453.071	1	29
453.241	1	17
453.412	1	16
453.582	1	8
453.753	1	17
453.923	1	8
454.093	1	17
454.264	1	25
454.434	1	21
454.605	1	8
454.775	1	18
454.946	1	11
455.116	1	19
455.287	1	7
455.457	1	23
455.628	1	13
455.798	1	14
455.968	1	18
456.139	1	24
456.309	1	10
456.480	1	22
456.650	1	7
456.821	1	9
456.991	1	13
457.161	1	17
457.332	1	14
457.502	1	10
457.673	1	19
457.843	1	11
458.014	1	17
458.184	1	18
458.355	1	17
458.525	1	10
458.695	1	10
458.866	1	11
459.036	1	16
459.207	1	23
459.377	1	22
459.548	1	12
459.718	1	6
459.888	1	4
460.059	1	7
460.229	1	15
460.400	1	14
460.570	1	18
460.740	1	11
460.911	1	7
461.081	1	28
461.252	1	16
461.422	1	8
461.593	1	25
461.763	1	21
461.933	1	20
462.104	1	1
462.274	1	13
462.445	1	8
462.615	1	17
462.785	1	27
462.956	1	5
463.126	1	16
463.297	1	26
463.467	1	18
463.638	1	15
463.808	1	12
463.978	1	-4
464.149	1	13
464.319	1	22
464.490	1	14
464.660	1	-1
464.830	1	7
465.001	1	14
465.171	1	5
465.342	1	4
465.512	1	11
465.682	1	7
465.853	1	12
466.023	1	13
466.194	1	14
466.364	1	22
466.534	1	10
466.705	1	22
466.875	1	-1
467.045	1	5
467.216	1	16
467.386	1	14
467.557	1	23
467.727	1	9
467.897	1	15
468.068	1	3
468.238	1	7
468.409	1	16
468.579	1	18
468.749	1	15
468.920	1	5
469.090	1	17
469.260	1	21
469.431	1	1
469.601	1	16
469.772	1	11
469.942	1	14
470.112	1	7
470.283	1	13
470.453	1	11
470.623	1	12
470.794	1	10
470.964	1	-3
471.135	1	19
471.305	1	8
471.475	1	17
471.646	1	9
471.816	1	18
471.986	1	5
472.157	1	9
472.327	1	24
472.497	1	9
472.668	1	13
472.838	1	9
473.009	1	15
473.179	1	7
473.349	1	10
473.520	1	26
473.690	1	9
473.860	1	11
474.031	1	3
474.201	1	12
474.371	1	1
474.542	1	15
474.712	1	10
474.882	1	17
475.053	1	15
475.223	1	6
475.394	1	15
475.564	1	8
475.734	1	-2
475.905	1	12
476.075	1	27
476.245	1	20
476.416	1	9
476.586	1	11
476.756	1	14
476.927	1	11
477.097	1	9
477.267	1	17
477.438	1	26
477.608	1	24
477.778	1	2
477.949	1	6
478.119	1	15
478.289	1	5
478.460	1	-3
478.630	1	11
478.800	1	8
478.971	1	12
479.141	1	10
479.311	1	7
479.482	1	5
479.652	1	16
479.822	1	12
479.993	1	3
480.163	1	13
480.333	1	10
480.504	1	13
480.674	1	10
480.844	1	7
481.015	1	20
481.185	1	17
481.355	1	15
481.525	1	5
481.696	1	16
481.866	1	10
482.036	1	15
482.207	1	9
482.377	1	7
482.547	1	6
482.718	1	9
482.888	1	21
483.058	1	17
483.229	1	11
483.399	1	14
483.569	1	1
483.740	1	12
483.910	1	4
484.080	1	8
484.250	1	3
484.421	1	-3
484.591	1	1
484.761	1	11
484.932	1	5
485.102	1	22
485.272	1	7
485.443	1	6
485.613	1	5
485.783	1	12
485.953	1	1
486.124	1	15
486.294	1	11
486.464	1	15
486.635	1	10
486.805	1	12
486.975	1	17
487.146	1	7
487.316	1	8
487.486	1	10
487.656	1	9
487.827	1	9
487.997	1	5
488.167	1	2
488.338	1	5
488.508	1	15
488.678	1	11
488.848	1	12
489.019	1	7
489.189	1	12
489.359	1	4
489.529	1	8
489.700	1	8
489.870	1	20
490.040	1	5
490.211	1	0
490.381	1	-3
490.551	1	10
490.721	1	11
490.892	1	-1
491.062	1	6
491.232	1	16
491.402	1	4
491.573	1	12
491.743	1	3
491.913	1	2
492.084	1	6
492.254	1	10
492.424	1	11
492.594	1	3
492.765	1	18
492.935	1	10
493.105	1	7
493.275	1	10
493.446	1	-5
493.616	1	5
493.786	1	15
493.956	1	7
494.127	1	-7
494.297	1	-4
494.467	1	2
494.637	1	5
494.808	1	3
494.978	1	13
495.148	1	6
495.318	1	10
495.489	1	-4
495.659	1	10
495.829	1	17
495.999	1	6
496.170	1	3
496.340	1	-1
496.510	1	14
496.680	1	6
496.851	1	14
497.021	1	9
497.191	1	9
497.361	1	-9
497.532	1	10
497.702	1	12
497.872	1	6
498.042	1	-1
498.213	1	5
498.383	1	8
498.553	1	7
498.723	1	-3
498.894	1	9
499.064	1	10
499.234	1	2
499.404	1	2
499.574	1	7
499.745	1	11
499.915	1	12
500.085	1	7
500.255	1	-9
500.426	1	6
500.596	1	-2
500.766	1	-3
500.936	1	-2
501.106	1	-1
501.277	1	-4
501.447	1	11
501.617	1	14
501.787	1	-5
501.958	1	4
502.128	1	1
502.298	1	6
502.468	1	-2
502.638	1	13
502.809	1	2
502.979	1	8
503.149	1	7
503.319	1	20
503.489	1	-8
503.660	1	6
503.830	1	6
504.000	1	-1
504.170	1	13
504.340	1	-6
504.511	1	-1
504.681	1	2
504.851	1	-4
505.021	1	8
505.192	1	-5
505.362	1	7
505.532	1	4
505.702	1	13
505.872	1	-6
506.043	1	14
506.213	1	19
506.383	1	3
506.553	1	8
506.723	1	-4
506.893	1	10
507.064	1	14
507.234	1	-5
507.404	1	5
507.574	1	6
507.744	1	3
507.915	1	6
508.085	1	7
508.255	1	-1
508.425	1	-1
508.595	1	2
508.766	1	-7
508.936	1	9
509.106	1	8
509.276	1	5
509.446	1	-6
509.616	1	1
509.787	1	5
509.957	1	12
510.127	1	6
510.297	1	-10
510.467	1	4
510.638	1	4
510.808	1	21
510.978	1	-3
511.148	1	5
511.318	1	3
511.488	1	13
511.659	1	-1
511.829	1	0
511.999	1	5
512.169	1	1
512.339	1	2
512.509	1	0
512.680	1	3
512.850	1	9
513.020	1	11
513.190	1	-3
513.360	1	14
513.530	1	-1
513.700	1	2
513.871	1	3
514.041	1	2
514.211	1	4
514.381	1	0
514.551	1	6
514.721	1	1
514.892	1	3
515.062	1	5
515.232	1	-1
515.402	1	1
515.572	1	0
515.742	1	6
515.912	1	5
516.083	1	9
516.253	1	4
516.423	1	6
516.593	1	1
516.763	1	6
516.933	1	10
517.104	1	19
517.274	1	0
517.444	1	6
517.614	1	-1
517.784	1	6
517.954	1	2
518.124	1	4
518.294	1	11
518.465	1	-1
518.635	1	7
518.805	1	9
518.975	1	7
519.145	1	7
519.315	1	-3
519.485	1	0
519.656	1	-2
519.826	1	-10
519.996	1	8
520.166	1	6
520.336	1	1
520.506	1	6
520.676	1	10
520.846	1	3
521.017	1	6
521.187	1	5
521.357	1	2
521.527	1	-1
521.697	1	-5
521.867	1	1
522.037	1	8
522.207	1	13
522.377	1	16
522.548	1	-3
522.718	1	10
522.888	1	6
523.058	1	4
523.228	1	0
523.398	1	-12
523.568	1	-3
523.738	1	-1
523.909	1	-5
524.079	1	1
524.249	1	1
524.419	1	-5
524.589	1	2
524.759	1	14
524.929	1	2
525.099	1	-2
525.269	1	-3
525.439	1	6
525.610	1	17
525.780	1	4
525.950	1	11
526.120	1	-3
526.290	1	-7
526.460	1	-3
526.630	1	6
526.800	1	-1
526.970	1	11
527.140	1	-3
527.311	1	9
527.481	1	8
527.651	1	2
527.821	1	-3
527.991	1	-1
528.161	1	9
528.331	1	-5
528.501	1	-3
528.671	1	4
528.841	1	8
529.011	1	3
529.181	1	0
529.352	1	-2
529.522	1	1
529.692	1	10
529.862	1	4
530.032	1	-4
530.202	1	0
530.372	1	-2
530.542	1	6
530.712	1	4
530.882	1	4
531.052	1	12
531.222	1	4
531.392	1	5
531.563	1	13
531.733	1	0
531.903	1	5
532.073	1	9
532.243	1	7
532.413	1	12
532.583	1	5
532.753	1	-1
532.923	1	3
533.093	1	-7
533.263	1	5
533.433	1	6
533.603	1	-4
533.773	1	-1
533.943	1	4
534.113	1	4
534.284	1	4
534.454	1	-1
534.624	1	3
534.794	1	1
534.964	1	3
535.134	1	5
535.304	1	12
535.474	1	5
535.644	1	9
535.814	1	-3
535.984	1	-1
536.154	1	-5
536.324	1	-1
536.494	1	4
536.664	1	0
536.834	1	-2
537.004	1	6
537.174	1	13
537.344	1	0
537.514	1	-10
537.685	1	17
537.855	1	5
538.025	1	14
538.195	1	0
538.365	1	0
538.535	1	-3
538.705	1	1
538.875	1	2
539.045	1	7
539.215	1	-5
539.385	1	-3
539.555	1	-5
539.725	1	4
539.895	1	4
540.065	1	7
540.235	1	-2
540.405	1	7
540.575	1	3
540.745	1	15
540.915	1	-1
541.085	1	2
541.255	1	2
541.425	1	-5
541.595	1	-7
541.765	1	6
541.935	1	1
542.105	1	10
542.275	1	-1
542.445	1	9
542.615	1	10
542.785	1	3
542.955	1	11
543.125	1	-5
543.295	1	0
543.465	1	0
543.635	1	-5
543.805	1	6
543.975	1	4
544.145	1	3
544.315	1	-1
544.485	1	-9
544.655	1	7
544.825	1	9
544.995	1	3
545.165	1	-1
545.335	1	6
545.505	1	4
545.675	1	4
545.845	1	7
546.015	1	-8
546.185	1	0
546.355	1	0
546.525	1	12
546.695	1	-1
546.865	1	9
547.035	1	-6
547.205	1	17
547.375	1	4
547.545	1	9
547.715	1	9
547.885	1	1
548.055	1	-5
548.225	1	14
548.395	1	-4
548.565	1	8
548.735	1	1
548.905	1	-3
549.075	1	2
549.245	1	6
549.415	1	8
549.585	1	-1
549.755	1	1
549.925	1	8
550.095	1	-5
550.265	1	8
550.435	1	4
550.605	1	4
550.775	1	0
550.945	1	1
551.115	1	3
551.285	1	4
551.455	1	6
551.625	1	-9
551.795	1	0
551.965	1	-4
552.135	1	0
552.305	1	5
552.475	1	4
552.645	1	-3
552.815	1	0
552.985	1	-3
553.155	1	6
553.325	1	-2
553.495	1	-1
553.665	1	-2
553.835	1	3
554.004	1	2
554.174	1	0
554.344	1	7
554.514	1	4
554.684	1	9
554.854	1	-12
555.024	1	1
555.194	1	-3
555.364	1	2
555.534	1	-12
555.704	1	-2
555.874	1	-3
556.044	1	0
556.214	1	0
556.384	1	5
556.554	1	5
556.724	1	-1
556.894	1	6
557.064	1	6
557.234	1	-10
557.404	1	3
557.573	1	0
557.743	1	-6
557.913	1	-3
558.083	1	-3
558.253	1	0
558.423	1	11
558.593	1	4
558.763	1	-3
558.933	1	-4
559.103	1	-11
559.273	1	2
559.443	1	8
559.613	1	9
559.783	1	8
559.953	1	-9
560.122	1	6
560.292	1	3
560.462	1	-4
560.632	1	-7
560.802	1	13
560.972	1	-12
561.142	1	1
561.312	1	-6
561.482	1	5
561.652	1	-5
561.822	1	-5
561.992	1	9
562.162	1	-7
562.331	1	-10
562.501	1	6
562.671	1	-5
562.841	1	-13
563.011	1	5
563.181	1	-5
563.351	1	-8
563.521	1	-1
563.691	1	-4
563.861	1	0
564.031	1	0
564.201	1	7
564.370	1	2
564.540	1	-5
564.710	1	-6
564.880	1	6
565.050	1	-5
565.220	1	12
565.390	1	-2
565.560	1	8
565.730	1	0
565.900	1	3
566.069	1	11
566.239	1	12
566.409	1	5
566.579	1	7
566.749	1	5
566.919	1	-15
567.089	1	-7
567.259	1	2
567.429	1	-4
567.599	1	13
567.768	1	-5
567.938	1	6
568.108	1	-2
568.278	1	5
568.448	1	0
568.618	1	5
568.788	1	11
568.958	1	3
569.128	1	-1
569.297	1	0
569.467	1	-1
569.637	1	-1
569.807	1	5
569.977	1	3
570.147	1	10
570.317	1	6
570.487	1	-5
570.656	1	10
570.826	1	1
570.996	1	15
571.166	1	-3
571.336	1	-5
571.506	1	-14
571.676	1	1
571.846	1	10
572.015	1	0
572.185	1	7
572.355	1	-7
572.525	1	-9
572.695	1	1
572.865	1	8
573.035	1	-5
573.205	1	4
573.374	1	-10
573.544	1	-4
573.714	1	2
573.884	1	3
574.054	1	-3
574.224	1	3
574.394	1	-5
574.563	1	-2
574.733	1	2
574.903	1	6
575.073	1	7
575.243	1	-3
575.413	1	-5
575.583	1	-5
575.752	1	4
575.922	1	10
576.092	1	-2
576.262	1	4
576.432	1	-2
576.602	1	5
576.772	1	-2
576.941	1	2
577.111	1	0
577.281	1	-3
577.451	1	8
577.621	1	8
577.791	1	9
577.960	1	-8
578.130	1	0
578.300	1	-6
578.470	1	7
578.640	1	-10
578.810	1	-2
578.979	1	4
579.149	1	3
579.319	1	0
579.489	1	9
579.659	1	-1
579.829	1	0
579.998	1	-16
580.168	1	1
580.338	1	-5
580.508	1	-1
580.678	1	-1
580.848	1	-1
581.017	1	-1
581.187	1	3
581.357	1	4
581.527	1	-7
581.697	1	1
581.867	1	-2
582.036	1	-4
582.206	1	-2
582.376	1	1
582.546	1	2
582.716	1	-1
582.885	1	-9
583.055	1	-1
583.225	1	4
583.395	1	-7
583.565	1	6
583.735	1	0
583.904	1	9
584.074	1	4
584.244	1	-4
584.414	1	-2
584.584	1	5
584.753	1	1
584.923	1	-3
585.093	1	0
585.263	1	-2
585.433	1	-2
585.602	1	6
585.772	1	23
585.942	1	0
586.112	1	7
586.282	1	0
586.451	1	4
586.621	1	-9
586.791	1	-10
586.961	1	9
587.131	1	0
587.300	1	11
587.470	1	-2
587.640	1	0
587.810	1	-13
587.980	1	4
588.149	1	7
588.319	1	20
588.489	1	6
588.659	1	-4
588.829	1	-4
588.998	1	-5
589.168	1	4
589.338	1	0
589.508	1	-6
589.677	1	-1
589.847	1	-3
590.017	1	3
590.187	1	0
590.357	1	6
590.526	1	-6
590.696	1	1
590.866	1	-9
591.036	1	4
591.205	1	3
591.375	1	4
591.545	1	1
591.715	1	-2
591.885	1	0
592.054	1	4
592.224	1	5
592.394	1	-9
592.564	1	-7
592.733	1	7
592.903	1	-8
593.073	1	1
593.243	1	7
593.412	1	-8
593.582	1	-6
593.752	1	-6
593.922	1	-1
594.091	1	7
594.261	1	1
594.431	1	-1
594.601	1	-6
594.771	1	-2
594.940	1	-1
595.110	1	0
595.280	1	5
595.450	1	5
595.619	1	-2
595.789	1	1
595.959	1	0
596.129	1	-6
596.298	1	12
596.468	1	-5
596.638	1	-5
596.808	1	-7
596.977	1	-14
597.147	1	3
597.317	1	-5
597.487	1	3
597.656	1	-3
597.826	1	15
597.996	1	-9
598.166	1	1
598.335	1	-6
598.505	1	1
598.675	1	4
598.844	1	20
599.014	1	-10
599.184	1	3
599.354	1	12
599.523	1	1
599.693	1	-3
599.863	1	0
600.033	1	-6
600.202	1	3
600.372	1	2
600.542	1	0
600.712	1	7
600.881	1	5
601.051	1	11
601.221	1	-2
601.390	1	3
601.560	1	-1
601.730	1	1
601.900	1	3
602.069	1	3
602.239	1	1
602.409	1	7
602.578	1	7
602.748	1	10
602.918	1	-4
603.088	1	8
603.257	1	2
603.427	1	8
603.597	1	-4
603.767	1	3
603.936	1	3
604.106	1	-3
604.276	1	3
604.445	1	-8
604.615	1	9
604.785	1	2
604.954	1	1
605.124	1	4
605.294	1	-1
605.464	1	-2
605.633	1	8
605.803	1	15
605.973	1	-1
606.142	1	7
606.312	1	12
606.482	1	-1
606.652	1	3
606.821	1	-4
606.991	1	-2
607.161	1	-4
607.330	1	-5
607.500	1	-2
607.670	1	5
607.839	1	2
608.009	1	-4
608.179	1	5
608.348	1	6
608.518	1	15
608.688	1	8
608.858	1	11
609.027	1	5
609.197	1	4
609.367	1	-5
609.536	1	-11
609.706	1	10
609.876	1	2
610.045	1	0
610.215	1	-3
610.385	1	3
610.554	1	-1
610.724	1	0
610.894	1	5
611.063	1	-1
611.233	1	-1
611.403	1	7
611.572	1	3
611.742	1	-1
611.912	1	-1
612.081	1	12
612.251	1	1
612.421	1	6
612.590	1	2
612.760	1	-5
612.930	1	5
613.099	1	1
613.269	1	5
613.439	1	-3
613.608	1	5
613.778	1	-4
613.948	1	12
614.117	1	-9
614.287	1	4
614.457	1	2
614.626	1	-2
614.796	1	4
614.966	1	-4
615.135	1	2
615.305	1	7
615.475	1	7
615.644	1	7
615.814	1	10
615.984	1	-3
616.153	1	-3
616.323	1	-5
616.493	1	-5
616.662	1	6
616.832	1	3
617.002	1	3
617.171	1	6
617.341	1	6
617.511	1	-6
617.680	1	-4
617.850	1	8
618.019	1	-3
618.189	1	10
618.359	1	-4
618.528	1	6
618.698	1	2
618.868	1	-1
619.037	1	-1
619.207	1	-3
619.377	1	-1
619.546	1	4
619.716	1	2
619.885	1	-4
620.055	1	6
620.225	1	2
620.394	1	11
620.564	1	9
620.734	1	0
620.903	1	-14
621.073	1	1
621.242	1	-1
621.412	1	-1
621.582	1	7
621.751	1	-4
621.921	1	4
622.091	1	12
622.260	1	5
622.430	1	3
622.599	1	-1
622.769	1	-6
622.939	1	-11
623.108	1	3
623.278	1	2
623.448	1	-12
623.617	1	6
623.787	1	7
623.956	1	4
624.126	1	11
624.296	1	10
624.465	1	12
624.635	1	2
624.804	1	-3
624.974	1	3
625.144	1	5
625.313	1	22
625.483	1	5
625.652	1	-3
625.822	1	7
625.992	1	-7
626.161	1	3
626.331	1	-9
626.501	1	0
626.670	1	-4
626.840	1	7
627.009	1	0
627.179	1	6
627.348	1	-2
627.518	1	12
627.688	1	3
627.857	1	7
628.027	1	13
628.196	1	-3
628.366	1	-5
628.536	1	6
628.705	1	2
628.875	1	-9
629.044	1	2
629.214	1	5
629.384	1	12
629.553	1	-5
629.723	1	0
629.892	1	-2
630.062	1	-4
630.232	1	5
630.401	1	9
630.571	1	3
630.740	1	1
630.910	1	3
631.079	1	2
631.249	1	-1
631.419	1	-5
631.588	1	5
631.758	1	4
631.927	1	12
632.097	1	1
632.266	1	14
632.436	1	-1
632.606	1	0
632.775	1	-5
632.945	1	2
633.114	1	-8
633.284	1	-7
633.453	1	1
633.623	1	17
633.793	1	4
633.962	1	8
634.132	1	10
634.301	1	3
634.471	1	7
634.640	1	-2
634.810	1	0
634.979	1	-6
635.149	1	-6
635.319	1	1
635.488	1	-5
635.658	1	0
635.827	1	-7
635.997	1	-3
636.166	1	-5
636.336	1	-6
636.505	1	14
636.675	1	1
636.845	1	2
637.014	1	-3
637.184	1	7
637.353	1	-3
637.523	1	-6
637.692	1	6
637.862	1	2
638.031	1	0
638.201	1	0
638.370	1	3
638.540	1	-3
638.710	1	2
638.879	1	-2
639.049	1	9
639.218	1	1
639.388	1	3
639.557	1	12
639.727	1	-3
639.896	1	-1
640.066	1	-1
640.235	1	4
640.405	1	3
640.574	1	2
640.744	1	-4
640.914	1	6
641.083	1	9
641.253	1	2
641.422	1	-8
641.592	1	0
641.761	1	-6
641.931	1	11
642.100	1	-7
642.270	1	7
642.439	1	-2
642.609	1	10
642.778	1	2
642.948	1	12
643.117	1	5
643.287	1	5
643.456	1	1
643.626	1	-13
643.795	1	10
643.965	1	-3
644.134	1	3
644.304	1	-7
644.473	1	-2
644.643	1	0
644.812	1	-9
644.982	1	1
645.151	1	-4
645.321	1	6
645.490	1	15
645.660	1	-6
645.829	1	10
645.999	1	-5
646.168	1	18
646.338	1	-2
646.507	1	2
646.677	1	3
646.846	1	0
647.016	1	5
647.185	1	16
647.355	1	6
647.524	1	-5
647.694	1	-4
647.863	1	0
648.033	1	4
648.202	1	8
648.372	1	-12
648.541	1	3
648.711	1	2
648.880	1	4
649.050	1	5
649.219	1	4
649.389	1	0
649.558	1	7
649.728	1	-3
649.897	1	4
650.067	1	8
650.236	1	-4
650.406	1	0
650.575	1	2
650.745	1	9
650.914	1	6
651.084	1	-2
651.253	1	-6
651.423	1	-2
651.592	1	-1
651.762	1	-4
651.931	1	13
652.101	1	-4
652.270	1	1
652.440	1	4
652.609	1	10
652.778	1	2
652.948	1	2
653.117	1	3
653.287	1	-4
653.456	1	-7
653.626	1	3
653.795	1	-3
653.965	1	-7
654.134	1	-4
654.304	1	-1
654.473	1	0
654.643	1	2
654.812	1	11
654.982	1	0
655.151	1	-6
655.320	1	-15
655.490	1	-3
655.659	1	-1
655.829	1	7
655.998	1	14
656.168	1	-1
656.337	1	3
656.507	1	-4
656.676	1	-2
656.846	1	2
657.015	1	11
657.184	1	-1
657.354	1	-3
657.523	1	-3
657.693	1	10
657.862	1	2
658.032	1	-3
658.201	1	2
658.371	1	3
658.540	1	-1
658.709	1	6
658.879	1	7
659.048	1	7
659.218	1	3
659.387	1	12
659.557	1	3
659.726	1	4
659.895	1	-7
660.065	1	6
660.234	1	-1
660.404	1	5
660.573	1	2
660.743	1	1
660.912	1	3
661.081	1	6
661.251	1	-5
661.420	1	6
661.590	1	-1
661.759	1	-2
661.929	1	-1
662.098	1	-6
662.267	1	7
662.437	1	-1
662.606	1	-3
662.776	1	4
662.945	1	8
663.115	1	5
663.284	1	-3
663.453	1	-9
663.623	1	-3
663.792	1	9
663.962	1	12
664.131	1	-2
664.300	1	-5
664.470	1	-3
664.639	1	6
664.809	1	-2
664.978	1	18
665.148	1	3
665.317	1	-1
665.486	1	9
665.656	1	6
665.825	1	7
665.995	1	-14
666.164	1	-6
666.333	1	-1
666.503	1	-5
666.672	1	10
666.842	1	7
667.011	1	1
667.180	1	-5
667.350	1	5
667.519	1	12
667.689	1	-5
667.858	1	6
668.027	1	0
668.197	1	-7
668.366	1	8
668.536	1	3
668.705	1	-3
668.874	1	7
669.044	1	2
669.213	1	3
669.382	1	7
669.552	1	5
669.721	1	-2
669.891	1	-3
670.060	1	7
670.229	1	3
670.399	1	11
670.568	1	3
670.738	1	-14
670.907	1	-6
671.076	1	3
671.246	1	5
671.415	1	18
671.584	1	13
671.754	1	-3
671.923	1	0
672.093	1	4
672.262	1	-9
672.431	1	4
672.601	1	8
672.770	1	-2
672.939	1	2
673.109	1	-1
673.278	1	2
673.448	1	8
673.617	1	14
673.786	1	-3
