325.333	1	1
325.504	1	-6
325.675	1	14
325.846	1	1
326.017	1	2
326.188	1	5
326.359	1	-3
326.531	1	-8
326.702	1	-5
326.873	1	18
327.044	1	9
327.215	1	-10
327.386	1	-1
327.557	1	-3
327.728	1	4
327.899	1	-3
328.070	1	14
328.241	1	1
328.412	1	-5
328.583	1	-6
328.754	1	17
328.926	1	1
329.097	1	-6
329.268	1	7
329.439	1	11
329.610	1	-3
329.781	1	2
329.952	1	3
330.123	1	-1
330.294	1	-8
330.465	1	-7
330.636	1	4
330.807	1	1
330.978	1	-8
331.149	1	10
331.320	1	1
331.492	1	-5
331.663	1	2
331.834	1	3
332.005	1	7
332.176	1	7
332.347	1	3
332.518	1	7
332.689	1	12
332.860	1	10
333.031	1	2
333.202	1	-6
333.373	1	3
333.544	1	7
333.715	1	-3
333.886	1	-9
334.057	1	-2
334.228	1	11
334.399	1	4
334.570	1	-6
334.741	1	-4
334.912	1	-2
335.084	1	2
335.255	1	6
335.426	1	-1
335.597	1	1
335.768	1	4
335.939	1	9
336.110	1	0
336.281	1	1
336.452	1	17
336.623	1	-1
336.794	1	-3
336.965	1	-2
337.136	1	14
337.307	1	-2
337.478	1	-1
337.649	1	2
337.820	1	-2
337.991	1	-7
338.162	1	1
338.333	1	-2
338.504	1	10
338.675	1	-3
338.846	1	-14
339.017	1	8
339.188	1	1
339.359	1	0
339.530	1	-2
339.701	1	8
339.872	1	10
340.043	1	-3
340.214	1	7
340.385	1	-6
340.556	1	13
340.727	1	8
340.898	1	9
341.069	1	-4
341.240	1	1
341.411	1	10
341.582	1	-2
341.753	1	1
341.924	1	10
342.095	1	1
342.266	1	8
342.437	1	-7
342.608	1	5
342.779	1	2
342.950	1	-5
343.121	1	-3
343.292	1	5
343.463	1	7
343.634	1	-3
343.805	1	6
343.976	1	10
344.147	1	11
344.318	1	-8
344.489	1	4
344.660	1	5
344.831	1	8
345.002	1	6
345.173	1	-9
345.344	1	-4
345.515	1	-6
345.686	1	6
345.857	1	9
346.028	1	1
346.199	1	3
346.370	1	7
346.541	1	-4
346.712	1	2
346.883	1	0
347.054	1	2
347.225	1	-4
347.396	1	-5
347.567	1	1
347.738	1	8
347.909	1	10
348.080	1	9
348.251	1	-4
348.422	1	16
348.593	1	5
348.764	1	-2
348.935	1	4
349.106	1	-9
349.277	1	0
349.448	1	0
349.619	1	6
349.790	1	7
349.961	1	-1
350.132	1	10
350.303	1	9
350.474	1	-3
350.645	1	1
350.816	1	2
350.987	1	4
351.157	1	3
351.328	1	-3
351.499	1	5
351.670	1	-2
351.841	1	2
352.012	1	3
352.183	1	17
352.354	1	-9
352.525	1	3
352.696	1	-4
352.867	1	6
353.038	1	4
353.209	1	-3
353.380	1	2
353.551	1	1
353.722	1	0
353.893	1	6
354.064	1	2
354.235	1	1
354.406	1	-12
354.576	1	-9
354.747	1	-2
354.918	1	-3
355.089	1	12
355.260	1	4
355.431	1	-5
355.602	1	9
355.773	1	-4
355.944	1	6
356.115	1	1
356.286	1	7
356.457	1	6
356.628	1	2
356.799	1	6
356.970	1	11
357.141	1	3
357.311	1	15
357.482	1	-1
357.653	1	-3
357.824	1	4
357.995	1	12
358.166	1	5
358.337	1	3
358.508	1	9
358.679	1	0
358.850	1	5
359.021	1	7
359.192	1	12
359.363	1	2
359.533	1	-9
359.704	1	-6
359.875	1	-2
360.046	1	5
360.217	1	6
360.388	1	13
360.559	1	9
360.730	1	-4
360.901	1	0
361.072	1	4
361.243	1	8
361.414	1	2
361.584	1	-6
361.755	1	-2
361.926	1	4
362.097	1	-6
362.268	1	10
362.439	1	1
362.610	1	13
362.781	1	-1
362.952	1	-1
363.123	1	-5
363.293	1	10
363.464	1	8
363.635	1	0
363.806	1	6
363.977	1	10
364.148	1	2
364.319	1	0
364.490	1	18
364.661	1	5
364.832	1	6
365.002	1	8
365.173	1	12
365.344	1	7
365.515	1	6
365.686	1	12
365.857	1	0
366.028	1	18
366.199	1	17
366.370	1	17
366.540	1	9
366.711	1	2
366.882	1	4
367.053	1	-1
367.224	1	7
367.395	1	1
367.566	1	7
367.737	1	4
367.908	1	17
368.078	1	-8
368.249	1	0
368.420	1	0
368.591	1	4
368.762	1	8
368.933	1	11
369.104	1	7
369.274	1	9
369.445	1	13
369.616	1	4
369.787	1	0
369.958	1	14
370.129	1	-6
370.300	1	-1
370.471	1	5
370.641	1	7
370.812	1	10
370.983	1	3
371.154	1	9
371.325	1	-6
371.496	1	3
371.667	1	16
371.837	1	2
372.008	1	4
372.179	1	6
372.350	1	7
372.521	1	9
372.692	1	7
372.863	1	-3
373.033	1	6
373.204	1	8
373.375	1	1
373.546	1	13
373.717	1	2
373.888	1	7
374.059	1	8
374.229	1	8
374.400	1	6
374.571	1	7
374.742	1	0
374.913	1	-8
375.084	1	1
375.254	1	0
375.425	1	4
375.596	1	7
375.767	1	11
375.938	1	-5
376.109	1	-10
376.279	1	16
376.450	1	-4
376.621	1	5
376.792	1	-3
376.963	1	5
377.134	1	7
377.304	1	14
377.475	1	0
377.646	1	-8
377.817	1	7
377.988	1	1
378.159	1	4
378.329	1	6
378.500	1	8
378.671	1	12
378.842	1	8
379.013	1	5
379.184	1	1
379.354	1	3
379.525	1	8
379.696	1	13
379.867	1	12
380.038	1	6
380.209	1	18
380.379	1	11
380.550	1	-4
380.721	1	-4
380.892	1	-2
381.063	1	7
381.233	1	12
381.404	1	7
381.575	1	0
381.746	1	5
381.917	1	4
382.087	1	7
382.258	1	10
382.429	1	7
382.600	1	3
382.771	1	3
382.941	1	17
383.112	1	10
383.283	1	18
383.454	1	1
383.625	1	7
383.795	1	8
383.966	1	8
384.137	1	15
384.308	1	-1
384.479	1	11
384.649	1	5
384.820	1	5
384.991	1	6
385.162	1	14
385.333	1	-4
385.503	1	6
385.674	1	13
385.845	1	2
386.016	1	7
386.187	1	-1
386.357	1	20
386.528	1	6
386.699	1	-2
386.870	1	10
387.041	1	8
387.211	1	6
387.382	1	10
387.553	1	8
387.724	1	16
387.894	1	-4
388.065	1	5
388.236	1	4
388.407	1	5
388.578	1	6
388.748	1	10
388.919	1	6
389.090	1	21
389.261	1	16
389.431	1	-7
389.602	1	22
389.773	1	7
389.944	1	5
390.114	1	14
390.285	1	10
390.456	1	-6
390.627	1	1
390.798	1	2
390.968	1	11
391.139	1	11
391.310	1	1
391.481	1	23
391.651	1	10
391.822	1	21
391.993	1	2
392.164	1	3
392.334	1	-2
392.505	1	7
392.676	1	0
392.847	1	3
393.017	1	1
393.188	1	17
393.359	1	21
393.530	1	20
393.700	1	5
393.871	1	9
394.042	1	-5
394.213	1	6
394.383	1	3
394.554	1	0
394.725	1	-4
394.896	1	23
395.066	1	3
395.237	1	13
395.408	1	5
395.579	1	12
395.749	1	12
395.920	1	11
396.091	1	10
396.262	1	1
396.432	1	6
396.603	1	10
396.774	1	-1
396.945	1	16
397.115	1	18
397.286	1	4
397.457	1	4
397.627	1	-4
397.798	1	0
397.969	1	2
398.140	1	4
398.310	1	12
398.481	1	4
398.652	1	16
398.823	1	4
398.993	1	7
399.164	1	8
399.335	1	2
399.505	1	-4
399.676	1	1
399.847	1	3
400.018	1	5
400.188	1	14
400.359	1	8
400.530	1	3
400.700	1	11
400.871	1	0
401.042	1	5
401.213	1	12
401.383	1	13
401.554	1	6
401.725	1	4
401.895	1	7
402.066	1	10
402.237	1	4
402.408	1	7
402.578	1	14
402.749	1	5
402.920	1	10
403.090	1	8
403.261	1	5
403.432	1	6
403.603	1	19
403.773	1	14
403.944	1	9
404.115	1	14
404.285	1	17
404.456	1	13
404.627	1	11
404.797	1	11
404.968	1	6
405.139	1	21
405.310	1	10
405.480	1	7
405.651	1	-1
405.822	1	4
405.992	1	6
406.163	1	0
406.334	1	5
406.504	1	10
406.675	1	5
406.846	1	10
407.016	1	17
407.187	1	14
407.358	1	1
407.528	1	3
407.699	1	20
407.870	1	4
408.041	1	5
408.211	1	3
408.382	1	10
408.553	1	13
408.723	1	15
408.894	1	4
409.065	1	22
409.235	1	12
409.406	1	7
409.577	1	6
409.747	1	22
409.918	1	20
410.089	1	8
410.259	1	7
410.430	1	15
410.601	1	14
410.771	1	17
410.942	1	9
411.113	1	14
411.283	1	6
411.454	1	25
411.625	1	14
411.795	1	14
411.966	1	15
412.137	1	21
412.307	1	11
412.478	1	4
412.649	1	4
412.819	1	13
412.990	1	8
413.161	1	8
413.331	1	7
413.502	1	10
413.672	1	7
413.843	1	7
414.014	1	3
414.184	1	16
414.355	1	13
414.526	1	11
414.696	1	10
414.867	1	0
415.038	1	3
415.208	1	4
415.379	1	6
415.550	1	9
415.720	1	4
415.891	1	11
416.062	1	17
416.232	1	14
416.403	1	18
416.573	1	7
416.744	1	11
416.915	1	11
417.085	1	10
417.256	1	5
417.427	1	0
417.597	1	6
417.768	1	0
417.939	1	8
418.109	1	3
418.280	1	8
418.450	1	15
418.621	1	10
418.792	1	1
418.962	1	5
419.133	1	0
419.304	1	6
419.474	1	12
419.645	1	11
419.815	1	16
419.986	1	11
420.157	1	8
420.327	1	7
420.498	1	5
420.669	1	13
420.839	1	17
421.010	1	8
421.180	1	6
421.351	1	13
421.522	1	9
421.692	1	14
421.863	1	11
422.033	1	7
422.204	1	9
422.375	1	12
422.545	1	9
422.716	1	-5
422.886	1	11
423.057	1	7
423.228	1	2
423.398	1	8
423.569	1	8
423.740	1	-2
423.910	1	17
424.081	1	15
424.251	1	3
424.422	1	16
424.593	1	16
424.763	1	7
424.934	1	19
425.104	1	12
425.275	1	4
425.445	1	15
425.616	1	9
425.787	1	0
425.957	1	3
426.128	1	11
426.298	1	17
426.469	1	1
426.640	1	0
426.810	1	-7
426.981	1	17
427.151	1	-3
427.322	1	5
427.493	1	4
427.663	1	17
427.834	1	0
428.004	1	15
428.175	1	7
428.345	1	0
428.516	1	10
428.687	1	15
428.857	1	8
429.028	1	0
429.198	1	-2
429.369	1	14
429.540	1	11
429.710	1	13
429.881	1	6
430.051	1	1
430.222	1	-2
430.392	1	4
430.563	1	0
430.734	1	2
430.904	1	18
431.075	1	11
431.245	1	6
431.416	1	10
431.586	1	0
431.757	1	15
431.927	1	7
432.098	1	6
432.269	1	4
432.439	1	7
432.610	1	17
432.780	1	14
432.951	1	7
433.121	1	2
433.292	1	10
433.462	1	2
433.633	1	5
433.804	1	3
433.974	1	9
434.145	1	12
434.315	1	16
434.486	1	-4
434.656	1	8
434.827	1	19
434.997	1	11
435.168	1	0
435.339	1	23
435.509	1	11
435.680	1	6
435.850	1	-2
436.021	1	4
436.191	1	7
436.362	1	10
436.532	1	10
436.703	1	13
436.873	1	1
437.044	1	6
437.214	1	8
437.385	1	5
437.556	1	6
437.726	1	5
437.897	1	7
438.067	1	12
438.238	1	10
438.408	1	10
438.579	1	7
438.749	1	3
438.920	1	15
439.090	1	-3
439.261	1	10
439.431	1	-13
439.602	1	2
439.772	1	13
439.943	1	5
440.113	1	-7
440.284	1	20
440.455	1	4
440.625	1	14
440.796	1	5
440.966	1	9
441.137	1	15
441.307	1	11
441.478	1	-6
441.648	1	9
441.819	1	9
441.989	1	18
442.160	1	8
442.330	1	0
442.501	1	4
442.671	1	-3
442.842	1	12
443.012	1	5
443.183	1	3
443.353	1	5
443.524	1	7
443.694	1	8
443.865	1	9
444.035	1	8
444.206	1	7
444.376	1	4
444.547	1	-1
444.717	1	-2
444.888	1	1
445.058	1	12
445.229	1	13
445.399	1	9
445.570	1	-2
445.740	1	8
445.911	1	3
446.081	1	6
446.252	1	12
446.422	1	3
446.593	1	6
446.763	1	7
446.934	1	3
447.104	1	13
447.275	1	12
447.445	1	9
447.616	1	6
447.786	1	5
447.957	1	0
448.127	1	5
448.298	1	8
448.468	1	2
448.639	1	-2
448.809	1	8
448.979	1	18
449.150	1	-1
449.320	1	7
449.491	1	-1
449.661	1	-7
449.832	1	1
450.002	1	6
450.173	1	-1
450.343	1	8
450.514	1	19
450.684	1	12
450.855	1	8
451.025	1	-3
451.196	1	1
451.366	1	8
451.537	1	16
451.707	1	13
451.878	1	8
452.048	1	4
452.218	1	5
452.389	1	14
452.559	1	13
452.730	1	-4
452.900	1	-2
453.071	1	6
453.241	1	9
453.412	1	0
453.582	1	19
453.753	1	15
453.923	1	2
454.093	1	8
454.264	1	17
454.434	1	5
454.605	1	2
454.775	1	10
454.946	1	0
455.116	1	3
455.287	1	-9
455.457	1	11
455.628	1	1
455.798	1	9
455.968	1	9
456.139	1	12
456.309	1	0
456.480	1	-1
456.650	1	5
456.821	1	0
456.991	1	15
457.161	1	12
457.332	1	-2
457.502	1	-1
457.673	1	-1
457.843	1	6
458.014	1	-2
458.184	1	11
458.355	1	-5
458.525	1	0
458.695	1	5
458.866	1	4
459.036	1	-5
459.207	1	8
459.377	1	10
459.548	1	1
459.718	1	-8
459.888	1	-6
460.059	1	5
460.229	1	-2
460.400	1	6
460.570	1	-1
460.740	1	-1
460.911	1	0
461.081	1	2
461.252	1	4
461.422	1	-3
461.593	1	9
461.763	1	16
461.933	1	-1
462.104	1	-8
462.274	1	0
462.445	1	-4
462.615	1	6
462.785	1	10
462.956	1	-1
463.126	1	14
463.297	1	-2
463.467	1	7
463.638	1	6
463.808	1	1
463.978	1	2
464.149	1	-3
464.319	1	8
464.490	1	3
464.660	1	0
464.830	1	-5
465.001	1	2
465.171	1	7
465.342	1	1
465.512	1	2
465.682	1	6
465.853	1	-3
466.023	1	7
466.194	1	4
466.364	1	14
466.534	1	-9
466.705	1	14
466.875	1	-12
467.045	1	-5
467.216	1	1
467.386	1	2
467.557	1	13
467.727	1	9
467.897	1	1
468.068	1	6
468.238	1	12
468.409	1	10
468.579	1	8
468.749	1	-6
468.920	1	6
469.090	1	8
469.260	1	9
469.431	1	-5
469.601	1	9
469.772	1	24
469.942	1	10
470.112	1	0
470.283	1	-3
470.453	1	10
470.623	1	6
470.794	1	3
470.964	1	-5
471.135	1	12
471.305	1	0
471.475	1	9
471.646	1	4
471.816	1	10
471.986	1	-1
472.157	1	7
472.327	1	13
472.497	1	-1
472.668	1	1
472.838	1	13
473.009	1	13
473.179	1	-5
473.349	1	0
473.520	1	15
473.690	1	5
473.860	1	-7
474.031	1	-4
474.201	1	2
474.371	1	8
474.542	1	2
474.712	1	9
474.882	1	0
475.053	1	9
475.223	1	6
475.394	1	2
475.564	1	-7
475.734	1	-10
475.905	1	3
476.075	1	6
476.245	1	0
476.416	1	2
476.586	1	1
476.756	1	8
476.927	1	-9
477.097	1	-3
477.267	1	0
477.438	1	21
477.608	1	5
477.778	1	0
477.949	1	4
478.119	1	9
478.289	1	-3
478.460	1	5
478.630	1	1
478.800	1	-2
478.971	1	-2
479.141	1	8
479.311	1	2
479.482	1	-4
479.652	1	7
479.822	1	-7
479.993	1	5
480.163	1	-3
480.333	1	11
480.504	1	-7
480.674	1	13
480.844	1	3
481.015	1	6
481.185	1	6
481.355	1	4
481.525	1	-12
481.696	1	1
481.866	1	6
482.036	1	0
482.207	1	6
482.377	1	1
482.547	1	10
482.718	1	7
482.888	1	8
483.058	1	5
483.229	1	0
483.399	1	10
483.569	1	-1
483.740	1	11
483.910	1	-10
484.080	1	4
484.250	1	-12
484.421	1	-3
484.591	1	-2
484.761	1	2
484.932	1	-3
485.102	1	16
485.272	1	3
485.443	1	-3
485.613	1	-1
485.783	1	5
485.953	1	1
486.124	1	1
486.294	1	0
486.464	1	11
486.635	1	2
486.805	1	5
486.975	1	-3
487.146	1	1
487.316	1	8
487.486	1	5
487.656	1	4
487.827	1	1
487.997	1	-1
488.167	1	6
488.338	1	1
488.508	1	10
488.678	1	-1
488.848	1	1
489.019	1	9
489.189	1	12
489.359	1	-4
489.529	1	-1
489.700	1	4
489.870	1	6
490.040	1	-1
490.211	1	-9
490.381	1	3
490.551	1	-1
490.721	1	3
490.892	1	-3
491.062	1	0
491.232	1	6
491.402	1	-2
491.573	1	9
491.743	1	4
491.913	1	-1
492.084	1	3
492.254	1	-3
492.424	1	-6
492.594	1	2
492.765	1	3
492.935	1	16
493.105	1	0
493.275	1	0
493.446	1	-4
493.616	1	-11
493.786	1	2
493.956	1	3
494.127	1	-1
494.297	1	-6
494.467	1	1
494.637	1	-5
494.808	1	10
494.978	1	-4
495.148	1	7
495.318	1	3
495.489	1	-5
495.659	1	4
495.829	1	-3
495.999	1	6
496.170	1	-2
496.340	1	3
496.510	1	4
496.680	1	0
496.851	1	7
497.021	1	2
497.191	1	-1
497.361	1	-6
497.532	1	2
497.702	1	2
497.872	1	7
498.042	1	-4
498.213	1	-2
498.383	1	0
498.553	1	4
498.723	1	4
498.894	1	9
499.064	1	1
499.234	1	5
499.404	1	5
499.574	1	4
499.745	1	-11
499.915	1	6
500.085	1	0
500.255	1	-13
500.426	1	2
500.596	1	-5
500.766	1	-6
500.936	1	-8
501.106	1	3
501.277	1	-5
501.447	1	1
501.617	1	1
501.787	1	-5
501.958	1	-2
502.128	1	3
502.298	1	0
502.468	1	-10
502.638	1	5
502.809	1	-2
502.979	1	7
503.149	1	2
503.319	1	10
503.489	1	-7
503.660	1	-5
503.830	1	3
504.000	1	-5
504.170	1	-4
504.340	1	-6
504.511	1	-10
504.681	1	-1
504.851	1	-2
505.021	1	11
505.192	1	-11
505.362	1	7
505.532	1	-2
505.702	1	22
505.872	1	0
506.043	1	3
506.213	1	6
506.383	1	11
506.553	1	-3
506.723	1	0
506.893	1	5
507.064	1	3
507.234	1	2
507.404	1	-1
507.574	1	2
507.744	1	1
507.915	1	-3
508.085	1	3
508.255	1	-7
508.425	1	1
508.595	1	-3
508.766	1	-11
508.936	1	6
509.106	1	0
509.276	1	11
509.446	1	-1
509.616	1	-3
509.787	1	1
509.957	1	6
510.127	1	3
510.297	1	-2
510.467	1	3
510.638	1	1
510.808	1	18
510.978	1	-10
511.148	1	-9
511.318	1	3
511.488	1	3
511.659	1	-5
511.829	1	-5
511.999	1	2
512.169	1	4
512.339	1	-1
512.509	1	-4
512.680	1	1
512.850	1	4
513.020	1	-4
513.190	1	-19
513.360	1	12
513.530	1	1
513.700	1	-6
513.871	1	-5
514.041	1	1
514.211	1	0
514.381	1	6
514.551	1	-3
514.721	1	-5
514.892	1	-7
515.062	1	-11
515.232	1	-7
515.402	1	0
515.572	1	-1
515.742	1	0
515.912	1	-4
516.083	1	7
516.253	1	0
516.423	1	-4
516.593	1	0
516.763	1	-2
516.933	1	5
517.104	1	5
517.274	1	-7
517.444	1	-8
517.614	1	0
517.784	1	-8
517.954	1	0
518.124	1	-7
518.294	1	-2
518.465	1	-2
518.635	1	10
518.805	1	4
518.975	1	2
519.145	1	-7
519.315	1	-3
519.485	1	1
519.656	1	-3
519.826	1	-10
519.996	1	5
520.166	1	3
520.336	1	5
520.506	1	2
520.676	1	-4
520.846	1	4
521.017	1	3
521.187	1	7
521.357	1	-9
521.527	1	-7
521.697	1	1
521.867	1	-1
522.037	1	0
522.207	1	7
522.377	1	2
522.548	1	-9
522.718	1	-6
522.888	1	-7
523.058	1	0
523.228	1	-2
523.398	1	2
523.568	1	-2
523.738	1	2
523.909	1	1
524.079	1	5
524.249	1	-5
524.419	1	0
524.589	1	-4
524.759	1	9
524.929	1	-1
525.099	1	-4
525.269	1	0
525.439	1	0
525.610	1	15
525.780	1	2
525.950	1	0
526.120	1	-12
526.290	1	-7
526.460	1	-12
526.630	1	5
526.800	1	-11
526.970	1	10
527.140	1	-5
527.311	1	0
527.481	1	-5
527.651	1	6
527.821	1	-1
527.991	1	-14
528.161	1	3
528.331	1	-11
528.501	1	3
528.671	1	2
528.841	1	5
529.011	1	-4
529.181	1	-2
529.352	1	-4
529.522	1	-3
529.692	1	4
529.862	1	-9
530.032	1	-7
530.202	1	-13
530.372	1	3
530.542	1	-6
530.712	1	1
530.882	1	-2
531.052	1	1
531.222	1	13
531.392	1	-2
531.563	1	2
531.733	1	-5
531.903	1	8
532.073	1	1
532.243	1	8
532.413	1	16
532.583	1	0
532.753	1	-2
532.923	1	-1
533.093	1	-14
533.263	1	-3
533.433	1	-1
533.603	1	-6
533.773	1	7
533.943	1	-3
534.113	1	-5
534.284	1	-5
534.454	1	2
534.624	1	7
534.794	1	-8
534.964	1	1
535.134	1	-10
535.304	1	7
535.474	1	8
535.644	1	6
535.814	1	4
535.984	1	5
536.154	1	-12
536.324	1	-11
536.494	1	7
536.664	1	-10
536.834	1	-11
537.004	1	3
537.174	1	1
537.344	1	-7
537.514	1	-3
537.685	1	10
537.855	1	3
538.025	1	6
538.195	1	-4
538.365	1	-4
538.535	1	-9
538.705	1	-2
538.875	1	-2
539.045	1	1
539.215	1	-11
539.385	1	7
539.555	1	-4
539.725	1	-3
539.895	1	2
540.065	1	-1
540.235	1	3
540.405	1	-9
540.575	1	10
540.745	1	-3
540.915	1	2
541.085	1	6
541.255	1	-5
541.425	1	-4
541.595	1	-7
541.765	1	2
541.935	1	-3
542.105	1	-4
542.275	1	-6
542.445	1	2
542.615	1	-3
542.785	1	-3
542.955	1	12
543.125	1	-3
543.295	1	-1
543.465	1	-4
543.635	1	-6
543.805	1	5
543.975	1	-1
544.145	1	7
544.315	1	1
544.485	1	5
544.655	1	-1
544.825	1	2
544.995	1	-5
545.165	1	-1
545.335	1	6
545.505	1	-3
545.675	1	-4
545.845	1	0
546.015	1	-13
546.185	1	-7
546.355	1	-1
546.525	1	8
546.695	1	-1
546.865	1	4
547.035	1	-1
547.205	1	1
547.375	1	10
547.545	1	8
547.715	1	2
547.885	1	-9
548.055	1	-4
548.225	1	7
548.395	1	-5
548.565	1	1
548.735	1	-10
548.905	1	6
549.075	1	-2
549.245	1	4
549.415	1	2
549.585	1	-5
549.755	1	2
549.925	1	6
550.095	1	-1
550.265	1	-1
550.435	1	4
550.605	1	-4
550.775	1	-9
550.945	1	1
551.115	1	1
551.285	1	1
551.455	1	7
551.625	1	-2
551.795	1	-8
551.965	1	-2
552.135	1	-5
552.305	1	5
552.475	1	5
552.645	1	-10
552.815	1	-3
552.985	1	-5
553.155	1	-6
553.325	1	-7
553.495	1	3
553.665	1	5
553.835	1	0
554.004	1	-10
554.174	1	-21
554.344	1	-1
554.514	1	0
554.684	1	13
554.854	1	-8
555.024	1	11
555.194	1	-2
555.364	1	2
555.534	1	-12
555.704	1	1
555.874	1	1
556.044	1	-7
556.214	1	-7
556.384	1	4
556.554	1	4
556.724	1	-5
556.894	1	2
557.064	1	-3
557.234	1	-3
557.404	1	-6
557.573	1	2
557.743	1	-1
557.913	1	-3
558.083	1	0
558.253	1	-2
558.423	1	0
558.593	1	6
558.763	1	-1
558.933	1	5
559.103	1	-9
559.273	1	6
559.443	1	-1
559.613	1	-4
559.783	1	1
559.953	1	-11
560.122	1	2
560.292	1	-13
560.462	1	-10
560.632	1	7
560.802	1	6
560.972	1	3
561.142	1	4
561.312	1	-3
561.482	1	5
561.652	1	-7
561.822	1	-1
561.992	1	-2
562.162	1	4
562.331	1	-12
562.501	1	-3
562.671	1	-14
562.841	1	-12
563.011	1	0
563.181	1	-13
563.351	1	-12
563.521	1	-7
563.691	1	4
563.861	1	-2
564.031	1	-7
564.201	1	1
564.370	1	2
564.540	1	5
564.710	1	-4
564.880	1	-5
565.050	1	4
565.220	1	4
565.390	1	-2
565.560	1	0
565.730	1	-4
565.900	1	-1
566.069	1	5
566.239	1	5
566.409	1	4
566.579	1	-2
566.749	1	-7
566.919	1	-11
567.089	1	1
567.259	1	11
567.429	1	-13
567.599	1	1
567.768	1	3
567.938	1	7
568.108	1	3
568.278	1	-5
568.448	1	-1
568.618	1	7
568.788	1	5
568.958	1	-6
569.128	1	-13
569.297	1	-9
569.467	1	7
569.637	1	7
569.807	1	9
569.977	1	-3
570.147	1	-2
570.317	1	-3
570.487	1	-4
570.656	1	6
570.826	1	-2
570.996	1	8
571.166	1	0
571.336	1	-5
571.506	1	-3
571.676	1	8
571.846	1	9
572.015	1	-2
572.185	1	-7
572.355	1	-8
572.525	1	-2
572.695	1	-4
572.865	1	0
573.035	1	-5
573.205	1	-3
573.374	1	-12
573.544	1	0
573.714	1	-3
573.884	1	-3
574.054	1	6
574.224	1	-1
574.394	1	4
574.563	1	-8
574.733	1	6
574.903	1	2
575.073	1	-4
575.243	1	-12
575.413	1	-8
575.583	1	-4
575.752	1	-7
575.922	1	3
576.092	1	-6
576.262	1	-2
576.432	1	-7
576.602	1	-4
576.772	1	-3
576.941	1	1
577.111	1	-4
577.281	1	-1
577.451	1	4
577.621	1	4
577.791	1	6
577.960	1	-1
578.130	1	-8
578.300	1	0
578.470	1	-1
578.640	1	-13
578.810	1	-7
578.979	1	1
579.149	1	-8
579.319	1	4
579.489	1	6
579.659	1	3
579.829	1	-12
579.998	1	-6
580.168	1	-4
580.338	1	0
580.508	1	-9
580.678	1	0
580.848	1	-1
581.017	1	3
581.187	1	1
581.357	1	-3
581.527	1	-7
581.697	1	-13
581.867	1	0
582.036	1	-12
582.206	1	-3
582.376	1	-7
582.546	1	-4
582.716	1	0
582.885	1	-5
583.055	1	-10
583.225	1	4
583.395	1	-6
583.565	1	-5
583.735	1	0
583.904	1	2
584.074	1	-1
584.244	1	-7
584.414	1	1
584.584	1	3
584.753	1	4
584.923	1	-4
585.093	1	9
585.263	1	-5
585.433	1	-8
585.602	1	0
585.772	1	11
585.942	1	-9
586.112	1	-3
586.282	1	0
586.451	1	7
586.621	1	-10
586.791	1	-10
586.961	1	-7
587.131	1	2
587.300	1	2
587.470	1	-3
587.640	1	-5
587.810	1	-8
587.980	1	2
588.149	1	10
588.319	1	10
588.489	1	0
588.659	1	-9
588.829	1	-5
588.998	1	7
589.168	1	0
589.338	1	-10
589.508	1	1
589.677	1	2
589.847	1	-2
590.017	1	-6
590.187	1	3
590.357	1	-11
590.526	1	-10
590.696	1	1
590.866	1	-7
591.036	1	10
591.205	1	1
591.375	1	5
591.545	1	1
591.715	1	-5
591.885	1	6
592.054	1	0
592.224	1	-1
592.394	1	-4
592.564	1	5
592.733	1	2
592.903	1	-8
593.073	1	-4
593.243	1	3
593.412	1	-10
593.582	1	5
593.752	1	-6
593.922	1	-2
594.091	1	0
594.261	1	-14
594.431	1	2
594.601	1	-9
594.771	1	1
594.940	1	-11
595.110	1	0
595.280	1	0
595.450	1	-2
595.619	1	-5
595.789	1	-10
595.959	1	2
596.129	1	2
596.298	1	9
596.468	1	-6
596.638	1	-2
596.808	1	-11
596.977	1	-5
597.147	1	0
597.317	1	1
597.487	1	-3
597.656	1	-2
597.826	1	5
597.996	1	-1
598.166	1	-4
598.335	1	-6
598.505	1	6
598.675	1	10
598.844	1	10
599.014	1	-10
599.184	1	3
599.354	1	13
599.523	1	-7
599.693	1	-7
599.863	1	0
600.033	1	4
600.202	1	-5
600.372	1	-7
600.542	1	-1
600.712	1	-3
600.881	1	-3
601.051	1	-6
601.221	1	-5
601.390	1	4
601.560	1	-1
601.730	1	8
601.900	1	1
602.069	1	4
602.239	1	-1
602.409	1	-8
602.578	1	-8
602.748	1	7
602.918	1	-4
603.088	1	0
603.257	1	-11
603.427	1	2
603.597	1	-7
603.767	1	2
603.936	1	5
604.106	1	-2
604.276	1	-3
604.445	1	-13
604.615	1	-4
604.785	1	7
604.954	1	-2
605.124	1	2
605.294	1	3
605.464	1	2
605.633	1	6
605.803	1	-1
605.973	1	-3
606.142	1	5
606.312	1	4
606.482	1	-2
606.652	1	1
606.821	1	-5
606.991	1	3
607.161	1	1
607.330	1	-6
607.500	1	6
607.670	1	-2
607.839	1	-9
608.009	1	-10
608.179	1	3
608.348	1	9
608.518	1	8
608.688	1	-2
608.858	1	-7
609.027	1	11
609.197	1	4
609.367	1	-6
609.536	1	-8
609.706	1	9
609.876	1	3
610.045	1	2
610.215	1	2
610.385	1	-3
610.554	1	0
610.724	1	-1
610.894	1	0
611.063	1	3
611.233	1	2
611.403	1	-1
611.572	1	1
611.742	1	-7
611.912	1	-5
612.081	1	6
612.251	1	-2
612.421	1	-7
612.590	1	-5
612.760	1	-1
612.930	1	6
613.099	1	1
613.269	1	-13
613.439	1	-11
613.608	1	4
613.778	1	-6
613.948	1	9
614.117	1	-1
614.287	1	-2
614.457	1	3
614.626	1	-7
614.796	1	-1
614.966	1	-6
615.135	1	11
615.305	1	-7
615.475	1	-4
615.644	1	9
615.814	1	0
615.984	1	-3
616.153	1	-3
616.323	1	-2
616.493	1	-4
616.662	1	3
616.832	1	5
617.002	1	-2
617.171	1	10
617.341	1	-7
617.511	1	-10
617.680	1	-11
617.850	1	4
618.019	1	2
618.189	1	10
618.359	1	-1
618.528	1	-3
618.698	1	2
618.868	1	-6
619.037	1	7
619.207	1	-11
619.377	1	4
619.546	1	7
619.716	1	-8
619.885	1	2
620.055	1	-6
620.225	1	3
620.394	1	5
620.564	1	4
620.734	1	-3
620.903	1	-13
621.073	1	-1
621.242	1	-6
621.412	1	-5
621.582	1	-3
621.751	1	-2
621.921	1	0
622.091	1	-2
622.260	1	0
622.430	1	-3
622.599	1	-8
622.769	1	-4
622.939	1	-5
623.108	1	-4
623.278	1	-6
623.448	1	1
623.617	1	9
623.787	1	3
623.956	1	-3
624.126	1	-7
624.296	1	3
624.465	1	5
624.635	1	-1
624.804	1	-12
624.974	1	-1
625.144	1	-5
625.313	1	10
625.483	1	-1
625.652	1	-2
625.822	1	-1
625.992	1	-9
626.161	1	5
626.331	1	-9
626.501	1	-7
626.670	1	-1
626.840	1	7
627.009	1	2
627.179	1	1
627.348	1	-4
627.518	1	6
627.688	1	-8
627.857	1	4
628.027	1	13
628.196	1	4
628.366	1	-10
628.536	1	-7
628.705	1	-5
628.875	1	2
629.044	1	-5
629.214	1	4
629.384	1	1
629.553	1	-8
629.723	1	-3
629.892	1	10
630.062	1	2
630.232	1	5
630.401	1	13
630.571	1	-3
630.740	1	-3
630.910	1	-1
631.079	1	-6
631.249	1	-1
631.419	1	0
631.588	1	5
631.758	1	-6
631.927	1	8
632.097	1	-6
632.266	1	3
632.436	1	2
632.606	1	-2
632.775	1	2
632.945	1	-4
633.114	1	-6
633.284	1	3
633.453	1	6
633.623	1	9
633.793	1	-4
633.962	1	-5
634.132	1	8
634.301	1	3
634.471	1	12
634.640	1	-8
634.810	1	-1
634.979	1	2
635.149	1	-7
635.319	1	-2
635.488	1	4
635.658	1	-9
635.827	1	-4
635.997	1	7
636.166	1	-6
636.336	1	0
636.505	1	-1
636.675	1	-7
636.845	1	2
637.014	1	-13
637.184	1	8
637.353	1	-5
637.523	1	-2
637.692	1	3
637.862	1	-2
638.031	1	-7
638.201	1	7
638.370	1	2
638.540	1	-2
638.710	1	1
638.879	1	-12
639.049	1	-3
639.218	1	2
639.388	1	-5
639.557	1	-3
639.727	1	-2
639.896	1	-2
640.066	1	2
640.235	1	-3
640.405	1	3
640.574	1	4
640.744	1	-11
640.914	1	-2
641.083	1	10
641.253	1	-2
641.422	1	-16
641.592	1	2
641.761	1	6
641.931	1	0
642.100	1	-9
642.270	1	5
642.439	1	5
642.609	1	2
642.778	1	-3
642.948	1	7
643.117	1	4
643.287	1	-5
643.456	1	-5
643.626	1	1
643.795	1	-1
643.965	1	-3
644.134	1	-4
644.304	1	-1
644.473	1	-2
644.643	1	4
644.812	1	-10
644.982	1	3
645.151	1	-4
645.321	1	0
645.490	1	13
645.660	1	-8
645.829	1	-2
645.999	1	-8
646.168	1	16
646.338	1	-12
646.507	1	-5
646.677	1	-3
646.846	1	-1
647.016	1	11
647.185	1	0
647.355	1	10
647.524	1	-17
647.694	1	-11
647.863	1	-5
648.033	1	-1
648.202	1	5
648.372	1	-12
648.541	1	0
648.711	1	5
648.880	1	4
649.050	1	-3
649.219	1	5
649.389	1	-4
649.558	1	9
649.728	1	-2
649.897	1	15
650.067	1	9
650.236	1	-9
650.406	1	0
650.575	1	7
650.745	1	-2
650.914	1	4
651.084	1	4
651.253	1	-2
651.423	1	-11
651.592	1	0
651.762	1	2
651.931	1	8
652.101	1	-8
652.270	1	-5
652.440	1	-6
652.609	1	1
652.778	1	1
652.948	1	-5
653.117	1	0
653.287	1	-10
653.456	1	1
653.626	1	5
653.795	1	-4
653.965	1	-7
654.134	1	-6
654.304	1	6
654.473	1	-1
654.643	1	-6
654.812	1	0
654.982	1	-4
655.151	1	3
655.320	1	4
655.490	1	-6
655.659	1	2
655.829	1	10
655.998	1	0
656.168	1	-8
656.337	1	2
656.507	1	-11
656.676	1	1
656.846	1	1
657.015	1	8
657.184	1	-8
657.354	1	-1
657.523	1	-6
657.693	1	5
657.862	1	-6
658.032	1	-1
658.201	1	-8
658.371	1	-3
658.540	1	-13
658.709	1	8
658.879	1	8
659.048	1	2
659.218	1	2
659.387	1	7
659.557	1	-8
659.726	1	2
659.895	1	-1
660.065	1	-2
660.234	1	-4
660.404	1	3
660.573	1	2
660.743	1	1
660.912	1	-1
661.081	1	-10
661.251	1	-9
661.420	1	7
661.590	1	-9
661.759	1	0
661.929	1	-1
662.098	1	-1
662.267	1	-3
662.437	1	0
662.606	1	-3
662.776	1	-5
662.945	1	4
663.115	1	4
663.284	1	6
663.453	1	-2
663.623	1	1
663.792	1	4
663.962	1	2
664.131	1	-4
664.300	1	-8
664.470	1	3
664.639	1	-7
664.809	1	-4
664.978	1	5
665.148	1	2
665.317	1	1
665.486	1	1
665.656	1	-8
665.825	1	-5
665.995	1	-11
666.164	1	4
666.333	1	-9
666.503	1	-4
666.672	1	1
666.842	1	5
667.011	1	7
667.180	1	1
667.350	1	3
667.519	1	4
667.689	1	-3
667.858	1	1
668.027	1	-3
668.197	1	-13
668.366	1	-1
668.536	1	0
668.705	1	-5
668.874	1	8
669.044	1	8
669.213	1	11
669.382	1	2
669.552	1	1
669.721	1	-13
669.891	1	-7
670.060	1	-1
670.229	1	9
670.399	1	8
670.568	1	10
670.738	1	1
670.907	1	1
671.076	1	5
671.246	1	4
671.415	1	6
671.584	1	6
671.754	1	-11
671.923	1	-2
672.093	1	9
672.262	1	-3
672.431	1	5
672.601	1	0
672.770	1	-3
672.939	1	7
673.109	1	-4
673.278	1	-4
673.448	1	2
673.617	1	1
673.786	1	-9
