325.333	1	33
325.504	1	31
325.675	1	33
325.846	1	27
326.017	1	42
326.188	1	29
326.359	1	34
326.531	1	32
326.702	1	29
326.873	1	40
327.044	1	45
327.215	1	46
327.386	1	37
327.557	1	31
327.728	1	37
327.899	1	46
328.070	1	44
328.241	1	37
328.412	1	44
328.583	1	37
328.754	1	53
328.926	1	47
329.097	1	37
329.268	1	45
329.439	1	43
329.610	1	49
329.781	1	58
329.952	1	55
330.123	1	42
330.294	1	44
330.465	1	39
330.636	1	47
330.807	1	36
330.978	1	35
331.149	1	53
331.320	1	52
331.492	1	55
331.663	1	42
331.834	1	57
332.005	1	47
332.176	1	56
332.347	1	50
332.518	1	52
332.689	1	54
332.860	1	49
333.031	1	48
333.202	1	59
333.373	1	59
333.544	1	54
333.715	1	50
333.886	1	55
334.057	1	57
334.228	1	63
334.399	1	59
334.570	1	54
334.741	1	56
334.912	1	57
335.084	1	66
335.255	1	61
335.426	1	64
335.597	1	46
335.768	1	71
335.939	1	67
336.110	1	61
336.281	1	55
336.452	1	72
336.623	1	60
336.794	1	68
336.965	1	72
337.136	1	73
337.307	1	65
337.478	1	63
337.649	1	62
337.820	1	53
337.991	1	72
338.162	1	69
338.333	1	68
338.504	1	72
338.675	1	55
338.846	1	58
339.017	1	74
339.188	1	63
339.359	1	62
339.530	1	68
339.701	1	73
339.872	1	74
340.043	1	75
340.214	1	77
340.385	1	58
340.556	1	88
340.727	1	75
340.898	1	85
341.069	1	68
341.240	1	73
341.411	1	78
341.582	1	77
341.753	1	79
341.924	1	89
342.095	1	76
342.266	1	92
342.437	1	81
342.608	1	85
342.779	1	76
342.950	1	90
343.121	1	82
343.292	1	87
343.463	1	107
343.634	1	91
343.805	1	82
343.976	1	97
344.147	1	95
344.318	1	88
344.489	1	95
344.660	1	93
344.831	1	98
345.002	1	97
345.173	1	92
345.344	1	85
345.515	1	92
345.686	1	85
345.857	1	98
346.028	1	88
346.199	1	96
346.370	1	96
346.541	1	80
346.712	1	96
346.883	1	89
347.054	1	95
347.225	1	92
347.396	1	97
347.567	1	95
347.738	1	100
347.909	1	94
348.080	1	90
348.251	1	94
348.422	1	114
348.593	1	98
348.764	1	118
348.935	1	97
349.106	1	105
349.277	1	112
349.448	1	114
349.619	1	102
349.790	1	118
349.961	1	97
350.132	1	114
350.303	1	106
350.474	1	116
350.645	1	113
350.816	1	119
350.987	1	127
351.157	1	109
351.328	1	108
351.499	1	121
351.670	1	113
351.841	1	119
352.012	1	129
352.183	1	123
352.354	1	118
352.525	1	130
352.696	1	115
352.867	1	122
353.038	1	110
353.209	1	118
353.380	1	135
353.551	1	127
353.722	1	118
353.893	1	120
354.064	1	130
354.235	1	119
354.406	1	114
354.576	1	122
354.747	1	132
354.918	1	124
355.089	1	131
355.260	1	120
355.431	1	114
355.602	1	128
355.773	1	129
355.944	1	138
356.115	1	147
356.286	1	127
356.457	1	131
356.628	1	119
356.799	1	122
356.970	1	150
357.141	1	138
357.311	1	151
357.482	1	132
357.653	1	136
357.824	1	136
357.995	1	149
358.166	1	134
358.337	1	137
358.508	1	158
358.679	1	130
358.850	1	150
359.021	1	147
359.192	1	160
359.363	1	153
359.533	1	141
359.704	1	147
359.875	1	145
360.046	1	160
360.217	1	154
360.388	1	145
360.559	1	158
360.730	1	143
360.901	1	152
361.072	1	161
361.243	1	144
361.414	1	153
361.584	1	136
361.755	1	140
361.926	1	156
362.097	1	136
362.268	1	154
362.439	1	140
362.610	1	141
362.781	1	143
362.952	1	155
363.123	1	142
363.293	1	149
363.464	1	157
363.635	1	159
363.806	1	150
363.977	1	154
364.148	1	145
364.319	1	143
364.490	1	169
364.661	1	152
364.832	1	157
365.002	1	174
365.173	1	152
365.344	1	155
365.515	1	168
365.686	1	161
365.857	1	172
366.028	1	150
366.199	1	152
366.370	1	168
366.540	1	168
366.711	1	163
366.882	1	160
367.053	1	158
367.224	1	169
367.395	1	177
367.566	1	159
367.737	1	169
367.908	1	182
368.078	1	159
368.249	1	178
368.420	1	169
368.591	1	180
368.762	1	172
368.933	1	170
369.104	1	168
369.274	1	179
369.445	1	164
369.616	1	160
369.787	1	154
369.958	1	162
370.129	1	157
370.300	1	169
370.471	1	173
370.641	1	145
370.812	1	167
370.983	1	162
371.154	1	161
371.325	1	167
371.496	1	162
371.667	1	180
371.837	1	169
372.008	1	151
372.179	1	169
372.350	1	164
372.521	1	172
372.692	1	178
372.863	1	163
373.033	1	180
373.204	1	172
373.375	1	164
373.546	1	170
373.717	1	170
373.888	1	179
374.059	1	159
374.229	1	183
374.400	1	167
374.571	1	194
374.742	1	183
374.913	1	172
375.084	1	181
375.254	1	169
375.425	1	191
375.596	1	173
375.767	1	186
375.938	1	174
376.109	1	173
376.279	1	186
376.450	1	184
376.621	1	205
376.792	1	194
376.963	1	199
377.134	1	197
377.304	1	185
377.475	1	188
377.646	1	178
377.817	1	199
377.988	1	186
378.159	1	191
378.329	1	190
378.500	1	200
378.671	1	186
378.842	1	190
379.013	1	186
379.184	1	183
379.354	1	201
379.525	1	190
379.696	1	197
379.867	1	189
380.038	1	202
380.209	1	203
380.379	1	198
380.550	1	187
380.721	1	185
380.892	1	185
381.063	1	183
381.233	1	180
381.404	1	190
381.575	1	190
381.746	1	201
381.917	1	203
382.087	1	193
382.258	1	192
382.429	1	207
382.600	1	196
382.771	1	207
382.941	1	215
383.112	1	196
383.283	1	206
383.454	1	205
383.625	1	207
383.795	1	206
383.966	1	211
384.137	1	231
384.308	1	198
384.479	1	212
384.649	1	218
384.820	1	215
384.991	1	214
385.162	1	217
385.333	1	221
385.503	1	223
385.674	1	203
385.845	1	224
386.016	1	228
386.187	1	207
386.357	1	222
386.528	1	214
386.699	1	202
386.870	1	226
387.041	1	221
387.211	1	228
387.382	1	231
387.553	1	225
387.724	1	227
387.894	1	226
388.065	1	239
388.236	1	207
388.407	1	228
388.578	1	216
388.748	1	218
388.919	1	214
389.090	1	236
389.261	1	228
389.431	1	201
389.602	1	229
389.773	1	230
389.944	1	221
390.114	1	228
390.285	1	209
390.456	1	208
390.627	1	202
390.798	1	216
390.968	1	224
391.139	1	209
391.310	1	220
391.481	1	215
391.651	1	227
391.822	1	227
391.993	1	224
392.164	1	235
392.334	1	216
392.505	1	214
392.676	1	198
392.847	1	217
393.017	1	216
393.188	1	232
393.359	1	234
393.530	1	237
393.700	1	220
393.871	1	234
394.042	1	227
394.213	1	220
394.383	1	233
394.554	1	235
394.725	1	219
394.896	1	246
395.066	1	225
395.237	1	243
395.408	1	247
395.579	1	239
395.749	1	246
395.920	1	217
396.091	1	240
396.262	1	231
396.432	1	237
396.603	1	226
396.774	1	233
396.945	1	242
397.115	1	258
397.286	1	251
397.457	1	230
397.627	1	231
397.798	1	242
397.969	1	246
398.140	1	231
398.310	1	243
398.481	1	253
398.652	1	248
398.823	1	243
398.993	1	244
399.164	1	257
399.335	1	239
399.505	1	238
399.676	1	243
399.847	1	235
400.018	1	230
400.188	1	240
400.359	1	256
400.530	1	244
400.700	1	230
400.871	1	235
401.042	1	245
401.213	1	251
401.383	1	234
401.554	1	241
401.725	1	242
401.895	1	228
402.066	1	241
402.237	1	227
402.408	1	243
402.578	1	244
402.749	1	236
402.920	1	243
403.090	1	234
403.261	1	240
403.432	1	243
403.603	1	245
403.773	1	242
403.944	1	244
404.115	1	241
404.285	1	245
404.456	1	237
404.627	1	231
404.797	1	235
404.968	1	238
405.139	1	260
405.310	1	239
405.480	1	235
405.651	1	254
405.822	1	258
405.992	1	264
406.163	1	243
406.334	1	250
406.504	1	258
406.675	1	252
406.846	1	260
407.016	1	256
407.187	1	262
407.358	1	246
407.528	1	267
407.699	1	260
407.870	1	270
408.041	1	259
408.211	1	263
408.382	1	278
408.553	1	269
408.723	1	257
408.894	1	257
409.065	1	264
409.235	1	265
409.406	1	257
409.577	1	261
409.747	1	261
409.918	1	251
410.089	1	259
410.259	1	259
410.430	1	255
410.601	1	257
410.771	1	253
410.942	1	251
411.113	1	246
411.283	1	248
411.454	1	269
411.625	1	253
411.795	1	254
411.966	1	257
412.137	1	251
412.307	1	261
412.478	1	247
412.649	1	245
412.819	1	241
412.990	1	251
413.161	1	241
413.331	1	243
413.502	1	247
413.672	1	241
413.843	1	237
414.014	1	244
414.184	1	261
414.355	1	252
414.526	1	250
414.696	1	234
414.867	1	232
415.038	1	238
415.208	1	237
415.379	1	248
415.550	1	244
415.720	1	241
415.891	1	249
416.062	1	252
416.232	1	242
416.403	1	243
416.573	1	250
416.744	1	239
416.915	1	253
417.085	1	243
417.256	1	248
417.427	1	243
417.597	1	256
417.768	1	244
417.939	1	243
418.109	1	252
418.280	1	244
418.450	1	262
418.621	1	242
418.792	1	251
418.962	1	257
419.133	1	255
419.304	1	251
419.474	1	260
419.645	1	255
419.815	1	254
419.986	1	243
420.157	1	254
420.327	1	250
420.498	1	247
420.669	1	248
420.839	1	238
421.010	1	243
421.180	1	246
421.351	1	239
421.522	1	243
421.692	1	250
421.863	1	232
422.033	1	243
422.204	1	250
422.375	1	238
422.545	1	242
422.716	1	229
422.886	1	236
423.057	1	228
423.228	1	223
423.398	1	235
423.569	1	236
423.740	1	239
423.910	1	228
424.081	1	243
424.251	1	238
424.422	1	233
424.593	1	226
424.763	1	245
424.934	1	231
425.104	1	231
425.275	1	221
425.445	1	212
425.616	1	217
425.787	1	239
425.957	1	218
426.128	1	224
426.298	1	227
426.469	1	222
426.640	1	226
426.810	1	200
426.981	1	232
427.151	1	215
427.322	1	223
427.493	1	207
427.663	1	232
427.834	1	222
428.004	1	222
428.175	1	223
428.345	1	218
428.516	1	226
428.687	1	229
428.857	1	223
429.028	1	219
429.198	1	221
429.369	1	232
429.540	1	229
429.710	1	227
429.881	1	220
430.051	1	218
430.222	1	250
430.392	1	225
430.563	1	228
430.734	1	237
430.904	1	224
431.075	1	224
431.245	1	228
431.416	1	229
431.586	1	225
431.757	1	242
431.927	1	236
432.098	1	222
432.269	1	225
432.439	1	215
432.610	1	245
432.780	1	233
432.951	1	223
433.121	1	224
433.292	1	231
433.462	1	220
433.633	1	222
433.804	1	213
433.974	1	231
434.145	1	216
434.315	1	209
434.486	1	215
434.656	1	218
434.827	1	219
434.997	1	225
435.168	1	217
435.339	1	221
435.509	1	233
435.680	1	211
435.850	1	200
436.021	1	200
436.191	1	210
436.362	1	218
436.532	1	213
436.703	1	211
436.873	1	202
437.044	1	217
437.214	1	196
437.385	1	199
437.556	1	219
437.726	1	208
437.897	1	191
438.067	1	195
438.238	1	204
438.408	1	208
438.579	1	195
438.749	1	199
438.920	1	217
439.090	1	193
439.261	1	202
439.431	1	193
439.602	1	204
439.772	1	186
439.943	1	199
440.113	1	188
440.284	1	211
440.455	1	194
440.625	1	197
440.796	1	193
440.966	1	204
441.137	1	193
441.307	1	202
441.478	1	204
441.648	1	197
441.819	1	179
441.989	1	197
442.160	1	201
442.330	1	194
442.501	1	183
442.671	1	195
442.842	1	201
443.012	1	203
443.183	1	199
443.353	1	196
443.524	1	193
443.694	1	179
443.865	1	195
444.035	1	197
444.206	1	187
444.376	1	193
444.547	1	194
444.717	1	192
444.888	1	198
445.058	1	182
445.229	1	197
445.399	1	189
445.570	1	190
445.740	1	172
445.911	1	195
446.081	1	194
446.252	1	188
446.422	1	186
446.593	1	195
446.763	1	200
446.934	1	189
447.104	1	187
447.275	1	190
447.445	1	186
447.616	1	189
447.786	1	191
447.957	1	186
448.127	1	196
448.298	1	188
448.468	1	177
448.639	1	188
448.809	1	188
448.979	1	204
449.150	1	180
449.320	1	185
449.491	1	186
449.661	1	167
449.832	1	176
450.002	1	180
450.173	1	197
450.343	1	182
450.514	1	178
450.684	1	198
450.855	1	190
451.025	1	170
451.196	1	174
451.366	1	169
451.537	1	172
451.707	1	171
451.878	1	167
452.048	1	168
452.218	1	161
452.389	1	173
452.559	1	178
452.730	1	173
452.900	1	167
453.071	1	177
453.241	1	168
453.412	1	173
453.582	1	173
453.753	1	162
453.923	1	161
454.093	1	166
454.264	1	170
454.434	1	172
454.605	1	157
454.775	1	172
454.946	1	164
455.116	1	162
455.287	1	161
455.457	1	176
455.628	1	149
455.798	1	156
455.968	1	155
456.139	1	158
456.309	1	151
456.480	1	163
456.650	1	178
456.821	1	152
456.991	1	159
457.161	1	167
457.332	1	143
457.502	1	150
457.673	1	153
457.843	1	153
458.014	1	152
458.184	1	166
458.355	1	153
458.525	1	168
458.695	1	149
458.866	1	134
459.036	1	150
459.207	1	159
459.377	1	144
459.548	1	165
459.718	1	170
459.888	1	148
460.059	1	158
460.229	1	154
460.400	1	140
460.570	1	149
460.740	1	160
460.911	1	152
461.081	1	160
461.252	1	161
461.422	1	141
461.593	1	145
461.763	1	177
461.933	1	154
462.104	1	142
462.274	1	162
462.445	1	146
462.615	1	147
462.785	1	148
462.956	1	127
463.126	1	147
463.297	1	146
463.467	1	154
463.638	1	151
463.808	1	148
463.978	1	130
464.149	1	138
464.319	1	147
464.490	1	140
464.660	1	128
464.830	1	134
465.001	1	135
465.171	1	133
465.342	1	136
465.512	1	143
465.682	1	131
465.853	1	123
466.023	1	144
466.194	1	135
466.364	1	147
466.534	1	120
466.705	1	137
466.875	1	126
467.045	1	120
467.216	1	125
467.386	1	130
467.557	1	137
467.727	1	121
467.897	1	124
468.068	1	133
468.238	1	130
468.409	1	122
468.579	1	130
468.749	1	117
468.920	1	117
469.090	1	127
469.260	1	122
469.431	1	122
469.601	1	130
469.772	1	131
469.942	1	122
470.112	1	127
470.283	1	134
470.453	1	115
470.623	1	125
470.794	1	125
470.964	1	109
471.135	1	124
471.305	1	122
471.475	1	125
471.646	1	120
471.816	1	127
471.986	1	111
472.157	1	127
472.327	1	126
472.497	1	120
472.668	1	129
472.838	1	115
473.009	1	123
473.179	1	113
473.349	1	117
473.520	1	131
473.690	1	119
473.860	1	124
474.031	1	114
474.201	1	120
474.371	1	116
474.542	1	121
474.712	1	105
474.882	1	128
475.053	1	117
475.223	1	112
475.394	1	114
475.564	1	117
475.734	1	114
475.905	1	120
476.075	1	134
476.245	1	124
476.416	1	107
476.586	1	110
476.756	1	112
476.927	1	118
477.097	1	113
477.267	1	120
477.438	1	123
477.608	1	126
477.778	1	112
477.949	1	108
478.119	1	117
478.289	1	104
478.460	1	124
478.630	1	115
478.800	1	110
478.971	1	116
479.141	1	109
479.311	1	116
479.482	1	108
479.652	1	114
479.822	1	97
479.993	1	114
480.163	1	116
480.333	1	115
480.504	1	106
480.674	1	113
480.844	1	103
481.015	1	120
481.185	1	104
481.355	1	118
481.525	1	99
481.696	1	112
481.866	1	115
482.036	1	106
482.207	1	108
482.377	1	91
482.547	1	97
482.718	1	114
482.888	1	105
483.058	1	112
483.229	1	104
483.399	1	111
483.569	1	81
483.740	1	98
483.910	1	95
484.080	1	93
484.250	1	88
484.421	1	100
484.591	1	99
484.761	1	100
484.932	1	91
485.102	1	98
485.272	1	95
485.443	1	95
485.613	1	100
485.783	1	97
485.953	1	89
486.124	1	91
486.294	1	106
486.464	1	101
486.635	1	97
486.805	1	101
486.975	1	94
487.146	1	98
487.316	1	100
487.486	1	95
487.656	1	95
487.827	1	88
487.997	1	82
488.167	1	102
488.338	1	99
488.508	1	78
488.678	1	94
488.848	1	92
489.019	1	87
489.189	1	102
489.359	1	80
489.529	1	90
489.700	1	88
489.870	1	104
490.040	1	88
490.211	1	82
490.381	1	82
490.551	1	91
490.721	1	83
490.892	1	75
491.062	1	77
491.232	1	88
491.402	1	84
491.573	1	95
491.743	1	77
491.913	1	86
492.084	1	88
492.254	1	81
492.424	1	90
492.594	1	78
492.765	1	85
492.935	1	97
493.105	1	87
493.275	1	86
493.446	1	74
493.616	1	83
493.786	1	88
493.956	1	80
494.127	1	79
494.297	1	68
494.467	1	80
494.637	1	89
494.808	1	89
494.978	1	78
495.148	1	87
495.318	1	76
495.489	1	71
495.659	1	98
495.829	1	73
495.999	1	86
496.170	1	90
496.340	1	80
496.510	1	77
496.680	1	84
496.851	1	81
497.021	1	88
497.191	1	78
497.361	1	71
497.532	1	85
497.702	1	80
497.872	1	82
498.042	1	77
498.213	1	68
498.383	1	68
498.553	1	80
498.723	1	72
498.894	1	75
499.064	1	71
499.234	1	89
499.404	1	70
499.574	1	79
499.745	1	67
499.915	1	73
500.085	1	79
500.255	1	61
500.426	1	74
500.596	1	66
500.766	1	66
500.936	1	77
501.106	1	63
501.277	1	64
501.447	1	75
501.617	1	71
501.787	1	72
501.958	1	76
502.128	1	78
502.298	1	66
502.468	1	66
502.638	1	67
502.809	1	65
502.979	1	73
503.149	1	69
503.319	1	73
503.489	1	44
503.660	1	63
503.830	1	58
504.000	1	68
504.170	1	72
504.340	1	66
504.511	1	59
504.681	1	58
504.851	1	64
505.021	1	71
505.192	1	60
505.362	1	65
505.532	1	58
505.702	1	76
505.872	1	65
506.043	1	64
506.213	1	74
506.383	1	71
506.553	1	67
506.723	1	55
506.893	1	64
507.064	1	70
507.234	1	54
507.404	1	60
507.574	1	71
507.744	1	70
507.915	1	67
508.085	1	67
508.255	1	55
508.425	1	59
508.595	1	53
508.766	1	60
508.936	1	70
509.106	1	73
509.276	1	68
509.446	1	61
509.616	1	54
509.787	1	63
509.957	1	59
510.127	1	47
510.297	1	50
510.467	1	68
510.638	1	55
510.808	1	72
510.978	1	52
511.148	1	56
511.318	1	69
511.488	1	60
511.659	1	61
511.829	1	57
511.999	1	57
512.169	1	71
512.339	1	63
512.509	1	55
512.680	1	62
512.850	1	47
513.020	1	60
513.190	1	54
513.360	1	64
513.530	1	62
513.700	1	64
513.871	1	57
514.041	1	61
514.211	1	61
514.381	1	62
514.551	1	55
514.721	1	57
514.892	1	56
515.062	1	65
515.232	1	49
515.402	1	61
515.572	1	61
515.742	1	56
515.912	1	55
516.083	1	58
516.253	1	58
516.423	1	49
516.593	1	50
516.763	1	62
516.933	1	64
517.104	1	67
517.274	1	47
517.444	1	53
517.614	1	50
517.784	1	56
517.954	1	43
518.124	1	46
518.294	1	48
518.465	1	51
518.635	1	65
518.805	1	53
518.975	1	56
519.145	1	54
519.315	1	50
519.485	1	35
519.656	1	43
519.826	1	36
519.996	1	51
520.166	1	48
520.336	1	52
520.506	1	50
520.676	1	46
520.846	1	50
521.017	1	43
521.187	1	52
521.357	1	38
521.527	1	42
521.697	1	34
521.867	1	53
522.037	1	46
522.207	1	60
522.377	1	51
522.548	1	32
522.718	1	35
522.888	1	43
523.058	1	43
523.228	1	43
523.398	1	43
523.568	1	44
523.738	1	46
523.909	1	47
524.079	1	43
524.249	1	39
524.419	1	48
524.589	1	55
524.759	1	43
524.929	1	46
525.099	1	44
525.269	1	33
525.439	1	49
525.610	1	54
525.780	1	49
525.950	1	47
526.120	1	40
526.290	1	53
526.460	1	30
526.630	1	48
526.800	1	40
526.970	1	57
527.140	1	39
527.311	1	40
527.481	1	47
527.651	1	49
527.821	1	39
527.991	1	36
528.161	1	45
528.331	1	38
528.501	1	31
528.671	1	54
528.841	1	44
529.011	1	51
529.181	1	45
529.352	1	45
529.522	1	39
529.692	1	39
529.862	1	44
530.032	1	28
530.202	1	36
530.372	1	41
530.542	1	41
530.712	1	42
530.882	1	47
531.052	1	32
531.222	1	39
531.392	1	34
531.563	1	50
531.733	1	41
531.903	1	41
532.073	1	43
532.243	1	53
532.413	1	61
532.583	1	44
532.753	1	28
532.923	1	43
533.093	1	30
533.263	1	44
533.433	1	34
533.603	1	36
533.773	1	41
533.943	1	44
534.113	1	50
534.284	1	47
534.454	1	32
534.624	1	41
534.794	1	40
534.964	1	37
535.134	1	31
535.304	1	45
535.474	1	43
535.644	1	35
535.814	1	38
535.984	1	44
536.154	1	48
536.324	1	41
536.494	1	41
536.664	1	45
536.834	1	31
537.004	1	46
537.174	1	45
537.344	1	29
537.514	1	30
537.685	1	45
537.855	1	39
538.025	1	37
538.195	1	38
538.365	1	37
538.535	1	40
538.705	1	37
538.875	1	42
539.045	1	43
539.215	1	32
539.385	1	40
539.555	1	25
539.725	1	43
539.895	1	38
540.065	1	37
540.235	1	43
540.405	1	42
540.575	1	35
540.745	1	38
540.915	1	35
541.085	1	36
541.255	1	23
541.425	1	27
541.595	1	39
541.765	1	39
541.935	1	42
542.105	1	34
542.275	1	38
542.445	1	42
542.615	1	35
542.785	1	40
542.955	1	45
543.125	1	28
543.295	1	41
543.465	1	40
543.635	1	30
543.805	1	43
543.975	1	34
544.145	1	35
544.315	1	23
544.485	1	28
544.655	1	39
544.825	1	37
544.995	1	32
545.165	1	38
545.335	1	35
545.505	1	26
545.675	1	38
545.845	1	34
546.015	1	29
546.185	1	20
546.355	1	35
546.525	1	38
546.695	1	29
546.865	1	33
547.035	1	33
547.205	1	43
547.375	1	37
547.545	1	34
547.715	1	33
547.885	1	23
548.055	1	27
548.225	1	50
548.395	1	31
548.565	1	36
548.735	1	29
548.905	1	36
549.075	1	39
549.245	1	33
549.415	1	27
549.585	1	22
549.755	1	28
549.925	1	35
550.095	1	16
550.265	1	32
550.435	1	26
550.605	1	19
550.775	1	25
550.945	1	35
551.115	1	28
551.285	1	23
551.455	1	35
551.625	1	20
551.795	1	24
551.965	1	24
552.135	1	28
552.305	1	37
552.475	1	28
552.645	1	31
552.815	1	31
552.985	1	27
553.155	1	29
553.325	1	34
553.495	1	30
553.665	1	22
553.835	1	29
554.004	1	32
554.174	1	16
554.344	1	39
554.514	1	24
554.684	1	29
554.854	1	14
555.024	1	37
555.194	1	32
555.364	1	18
555.534	1	19
555.704	1	27
555.874	1	23
556.044	1	29
556.214	1	21
556.384	1	24
556.554	1	28
556.724	1	18
556.894	1	17
557.064	1	35
557.234	1	16
557.404	1	28
557.573	1	35
557.743	1	13
557.913	1	26
558.083	1	24
558.253	1	22
558.423	1	26
558.593	1	21
558.763	1	16
558.933	1	29
559.103	1	13
559.273	1	31
559.443	1	37
559.613	1	25
559.783	1	33
559.953	1	14
560.122	1	30
560.292	1	9
560.462	1	20
560.632	1	22
560.802	1	21
560.972	1	21
561.142	1	32
561.312	1	21
561.482	1	27
561.652	1	23
561.822	1	33
561.992	1	25
562.162	1	22
562.331	1	19
562.501	1	27
562.671	1	24
562.841	1	13
563.011	1	37
563.181	1	21
563.351	1	7
563.521	1	25
563.691	1	24
563.861	1	14
564.031	1	17
564.201	1	21
564.370	1	25
564.540	1	26
564.710	1	19
564.880	1	21
565.050	1	24
565.220	1	24
565.390	1	25
565.560	1	24
565.730	1	21
565.900	1	23
566.069	1	29
566.239	1	27
566.409	1	27
566.579	1	20
566.749	1	8
566.919	1	11
567.089	1	3
567.259	1	22
567.429	1	0
567.599	1	27
567.768	1	15
567.938	1	17
568.108	1	14
568.278	1	30
568.448	1	15
568.618	1	27
568.788	1	24
568.958	1	19
569.128	1	22
569.297	1	16
569.467	1	29
569.637	1	28
569.807	1	23
569.977	1	19
570.147	1	23
570.317	1	13
570.487	1	12
570.656	1	25
570.826	1	20
570.996	1	29
571.166	1	21
571.336	1	29
571.506	1	20
571.676	1	13
571.846	1	26
572.015	1	20
572.185	1	22
572.355	1	8
572.525	1	12
572.695	1	23
572.865	1	24
573.035	1	20
573.205	1	13
573.374	1	9
573.544	1	19
573.714	1	16
573.884	1	8
574.054	1	20
574.224	1	16
574.394	1	20
574.563	1	15
574.733	1	13
574.903	1	17
575.073	1	29
575.243	1	13
575.413	1	16
575.583	1	18
575.752	1	19
575.922	1	26
576.092	1	12
576.262	1	20
576.432	1	14
576.602	1	23
576.772	1	18
576.941	1	27
577.111	1	17
577.281	1	18
577.451	1	22
577.621	1	25
577.791	1	18
577.960	1	18
578.130	1	25
578.300	1	23
578.470	1	19
578.640	1	9
578.810	1	27
578.979	1	19
579.149	1	16
579.319	1	25
579.489	1	20
579.659	1	17
579.829	1	24
579.998	1	11
580.168	1	18
580.338	1	25
580.508	1	18
580.678	1	29
580.848	1	19
581.017	1	18
581.187	1	24
581.357	1	24
581.527	1	15
581.697	1	24
581.867	1	12
582.036	1	10
582.206	1	26
582.376	1	18
582.546	1	10
582.716	1	28
582.885	1	18
583.055	1	16
583.225	1	26
583.395	1	14
583.565	1	23
583.735	1	33
583.904	1	15
584.074	1	18
584.244	1	10
584.414	1	17
584.584	1	21
584.753	1	24
584.923	1	13
585.093	1	18
585.263	1	9
585.433	1	12
585.602	1	21
585.772	1	39
585.942	1	11
586.112	1	24
586.282	1	26
586.451	1	23
586.621	1	18
586.791	1	15
586.961	1	15
587.131	1	13
587.300	1	23
587.470	1	16
587.640	1	20
587.810	1	9
587.980	1	18
588.149	1	14
588.319	1	26
588.489	1	25
588.659	1	19
588.829	1	17
588.998	1	18
589.168	1	27
589.338	1	14
589.508	1	18
589.677	1	26
589.847	1	23
590.017	1	14
590.187	1	32
590.357	1	9
590.526	1	14
590.696	1	21
590.866	1	22
591.036	1	11
591.205	1	24
591.375	1	24
591.545	1	7
591.715	1	5
591.885	1	14
592.054	1	29
592.224	1	9
592.394	1	15
592.564	1	30
592.733	1	18
592.903	1	16
593.073	1	15
593.243	1	26
593.412	1	13
593.582	1	12
593.752	1	14
593.922	1	17
594.091	1	17
594.261	1	10
594.431	1	28
594.601	1	17
594.771	1	11
594.940	1	17
595.110	1	22
595.280	1	24
595.450	1	14
595.619	1	20
595.789	1	16
595.959	1	19
596.129	1	8
596.298	1	25
596.468	1	23
596.638	1	21
596.808	1	5
596.977	1	29
597.147	1	7
597.317	1	18
597.487	1	22
597.656	1	29
597.826	1	20
597.996	1	8
598.166	1	26
598.335	1	11
598.505	1	24
598.675	1	22
598.844	1	26
599.014	1	7
599.184	1	24
599.354	1	23
599.523	1	15
599.693	1	21
599.863	1	20
600.033	1	19
600.202	1	17
600.372	1	18
600.542	1	20
600.712	1	12
600.881	1	26
601.051	1	26
601.221	1	20
601.390	1	20
601.560	1	21
601.730	1	18
601.900	1	17
602.069	1	20
602.239	1	16
602.409	1	16
602.578	1	29
602.748	1	32
602.918	1	10
603.088	1	17
603.257	1	16
603.427	1	28
603.597	1	12
603.767	1	15
603.936	1	23
604.106	1	15
604.276	1	22
604.445	1	9
604.615	1	19
604.785	1	30
604.954	1	16
605.124	1	16
605.294	1	20
605.464	1	17
605.633	1	13
605.803	1	19
605.973	1	23
606.142	1	24
606.312	1	21
606.482	1	10
606.652	1	24
606.821	1	18
606.991	1	23
607.161	1	18
607.330	1	20
607.500	1	11
607.670	1	21
607.839	1	13
608.009	1	21
608.179	1	32
608.348	1	30
608.518	1	47
608.688	1	34
608.858	1	19
609.027	1	21
609.197	1	26
609.367	1	7
609.536	1	20
609.706	1	23
609.876	1	30
610.045	1	28
610.215	1	20
610.385	1	27
610.554	1	22
610.724	1	18
610.894	1	21
611.063	1	24
611.233	1	24
611.403	1	25
611.572	1	23
611.742	1	22
611.912	1	22
612.081	1	30
612.251	1	23
612.421	1	25
612.590	1	15
612.760	1	25
612.930	1	37
613.099	1	16
613.269	1	26
613.439	1	15
613.608	1	22
613.778	1	31
613.948	1	25
614.117	1	20
614.287	1	26
614.457	1	21
614.626	1	8
614.796	1	17
614.966	1	23
615.135	1	34
615.305	1	31
615.475	1	30
615.644	1	38
615.814	1	34
615.984	1	25
616.153	1	26
616.323	1	25
616.493	1	26
616.662	1	23
616.832	1	26
617.002	1	27
617.171	1	33
617.341	1	37
617.511	1	17
617.680	1	20
617.850	1	26
618.019	1	20
618.189	1	35
618.359	1	36
618.528	1	37
618.698	1	29
618.868	1	24
619.037	1	28
619.207	1	25
619.377	1	24
619.546	1	38
619.716	1	30
619.885	1	35
620.055	1	26
620.225	1	36
620.394	1	30
620.564	1	25
620.734	1	34
620.903	1	27
621.073	1	34
621.242	1	27
621.412	1	27
621.582	1	36
621.751	1	23
621.921	1	26
622.091	1	19
622.260	1	35
622.430	1	35
622.599	1	16
622.769	1	20
622.939	1	21
623.108	1	21
623.278	1	38
623.448	1	28
623.617	1	28
623.787	1	35
623.956	1	33
624.126	1	32
624.296	1	33
624.465	1	25
624.635	1	30
624.804	1	26
624.974	1	9
625.144	1	25
625.313	1	35
625.483	1	26
625.652	1	21
625.822	1	33
625.992	1	23
626.161	1	23
626.331	1	31
626.501	1	26
626.670	1	14
626.840	1	28
627.009	1	32
627.179	1	21
627.348	1	27
627.518	1	32
627.688	1	21
627.857	1	29
628.027	1	27
628.196	1	41
628.366	1	9
628.536	1	19
628.705	1	21
628.875	1	29
629.044	1	17
629.214	1	42
629.384	1	43
629.553	1	25
629.723	1	43
629.892	1	28
630.062	1	26
630.232	1	34
630.401	1	41
630.571	1	27
630.740	1	27
630.910	1	31
631.079	1	25
631.249	1	33
631.419	1	31
631.588	1	38
631.758	1	19
631.927	1	45
632.097	1	29
632.266	1	52
632.436	1	35
632.606	1	32
632.775	1	36
632.945	1	33
633.114	1	27
633.284	1	29
633.453	1	40
633.623	1	48
633.793	1	26
633.962	1	38
634.132	1	35
634.301	1	43
634.471	1	34
634.640	1	27
634.810	1	31
634.979	1	34
635.149	1	32
635.319	1	25
635.488	1	31
635.658	1	28
635.827	1	38
635.997	1	37
636.166	1	34
636.336	1	29
636.505	1	29
636.675	1	32
636.845	1	28
637.014	1	28
637.184	1	37
637.353	1	29
637.523	1	27
637.692	1	43
637.862	1	30
638.031	1	38
638.201	1	41
638.370	1	40
638.540	1	29
638.710	1	29
638.879	1	31
639.049	1	34
639.218	1	47
639.388	1	33
639.557	1	34
639.727	1	33
639.896	1	30
640.066	1	31
640.235	1	28
640.405	1	33
640.574	1	41
640.744	1	32
640.914	1	36
641.083	1	33
641.253	1	32
641.422	1	21
641.592	1	49
641.761	1	35
641.931	1	46
642.100	1	42
642.270	1	38
642.439	1	39
642.609	1	40
642.778	1	41
642.948	1	42
643.117	1	30
643.287	1	39
643.456	1	39
643.626	1	29
643.795	1	21
643.965	1	33
644.134	1	42
644.304	1	29
644.473	1	37
644.643	1	38
644.812	1	28
644.982	1	27
645.151	1	32
645.321	1	39
645.490	1	50
645.660	1	29
645.829	1	42
645.999	1	35
646.168	1	44
646.338	1	24
646.507	1	27
646.677	1	40
646.846	1	33
647.016	1	38
647.185	1	44
647.355	1	57
647.524	1	34
647.694	1	37
647.863	1	42
648.033	1	43
648.202	1	50
648.372	1	35
648.541	1	38
648.711	1	41
648.880	1	41
649.050	1	40
649.219	1	41
649.389	1	46
649.558	1	37
649.728	1	32
649.897	1	39
650.067	1	44
650.236	1	30
650.406	1	27
650.575	1	34
650.745	1	38
650.914	1	55
651.084	1	39
651.253	1	53
651.423	1	31
651.592	1	33
651.762	1	35
651.931	1	41
652.101	1	34
652.270	1	32
652.440	1	45
652.609	1	45
652.778	1	49
652.948	1	47
653.117	1	37
653.287	1	30
653.456	1	31
653.626	1	41
653.795	1	33
653.965	1	32
654.134	1	31
654.304	1	47
654.473	1	37
654.643	1	37
654.812	1	54
654.982	1	39
655.151	1	45
655.320	1	33
655.490	1	39
655.659	1	35
655.829	1	43
655.998	1	47
656.168	1	40
656.337	1	42
656.507	1	30
656.676	1	37
656.846	1	36
657.015	1	39
657.184	1	41
657.354	1	37
657.523	1	44
657.693	1	49
657.862	1	42
658.032	1	37
658.201	1	42
658.371	1	39
658.540	1	34
658.709	1	46
658.879	1	39
659.048	1	47
659.218	1	47
659.387	1	56
659.557	1	37
659.726	1	42
659.895	1	37
660.065	1	36
660.234	1	36
660.404	1	48
660.573	1	40
660.743	1	37
660.912	1	50
661.081	1	38
661.251	1	37
661.420	1	52
661.590	1	46
661.759	1	48
661.929	1	43
662.098	1	45
662.267	1	46
662.437	1	46
662.606	1	36
662.776	1	43
662.945	1	60
663.115	1	60
663.284	1	54
663.453	1	33
663.623	1	38
663.792	1	40
663.962	1	55
664.131	1	48
664.300	1	43
664.470	1	40
664.639	1	50
664.809	1	45
664.978	1	54
665.148	1	49
665.317	1	51
665.486	1	51
665.656	1	47
665.825	1	44
665.995	1	29
666.164	1	45
666.333	1	37
666.503	1	36
666.672	1	42
666.842	1	41
667.011	1	46
667.180	1	51
667.350	1	48
667.519	1	43
667.689	1	46
667.858	1	42
668.027	1	49
668.197	1	39
668.366	1	41
668.536	1	43
668.705	1	38
668.874	1	49
669.044	1	53
669.213	1	46
669.382	1	40
669.552	1	48
669.721	1	39
669.891	1	43
670.060	1	49
670.229	1	50
670.399	1	43
670.568	1	56
670.738	1	37
670.907	1	41
671.076	1	48
671.246	1	47
671.415	1	49
671.584	1	52
671.754	1	46
671.923	1	44
672.093	1	50
672.262	1	29
672.431	1	46
672.601	1	42
672.770	1	50
672.939	1	48
673.109	1	38
673.278	1	53
673.448	1	39
673.617	1	55
673.786	1	33
