325.333	1	10
325.504	1	-6
325.675	1	22
325.846	1	-1
326.017	1	14
326.188	1	9
326.359	1	3
326.531	1	-1
326.702	1	1
326.873	1	17
327.044	1	16
327.215	1	-2
327.386	1	6
327.557	1	1
327.728	1	9
327.899	1	3
328.070	1	17
328.241	1	8
328.412	1	8
328.583	1	8
328.754	1	17
328.926	1	11
329.097	1	-1
329.268	1	12
329.439	1	21
329.610	1	11
329.781	1	14
329.952	1	8
330.123	1	12
330.294	1	15
330.465	1	7
330.636	1	9
330.807	1	13
330.978	1	4
331.149	1	12
331.320	1	3
331.492	1	8
331.663	1	4
331.834	1	1
332.005	1	12
332.176	1	7
332.347	1	0
332.518	1	14
332.689	1	11
332.860	1	10
333.031	1	15
333.202	1	8
333.373	1	8
333.544	1	9
333.715	1	7
333.886	1	16
334.057	1	5
334.228	1	13
334.399	1	10
334.570	1	14
334.741	1	5
334.912	1	-2
335.084	1	13
335.255	1	20
335.426	1	3
335.597	1	12
335.768	1	12
335.939	1	12
336.110	1	13
336.281	1	15
336.452	1	24
336.623	1	6
336.794	1	6
336.965	1	12
337.136	1	24
337.307	1	9
337.478	1	9
337.649	1	10
337.820	1	8
337.991	1	17
338.162	1	11
338.333	1	13
338.504	1	15
338.675	1	3
338.846	1	11
339.017	1	18
339.188	1	14
339.359	1	13
339.530	1	16
339.701	1	14
339.872	1	20
340.043	1	13
340.214	1	6
340.385	1	7
340.556	1	12
340.727	1	18
340.898	1	19
341.069	1	13
341.240	1	6
341.411	1	13
341.582	1	11
341.753	1	11
341.924	1	20
342.095	1	5
342.266	1	18
342.437	1	12
342.608	1	16
342.779	1	9
342.950	1	12
343.121	1	20
343.292	1	21
343.463	1	27
343.634	1	16
343.805	1	17
343.976	1	25
344.147	1	9
344.318	1	14
344.489	1	12
344.660	1	21
344.831	1	24
345.002	1	20
345.173	1	12
345.344	1	15
345.515	1	22
345.686	1	23
345.857	1	21
346.028	1	20
346.199	1	24
346.370	1	17
346.541	1	12
346.712	1	13
346.883	1	5
347.054	1	23
347.225	1	15
347.396	1	18
347.567	1	10
347.738	1	25
347.909	1	21
348.080	1	22
348.251	1	20
348.422	1	21
348.593	1	26
348.764	1	16
348.935	1	17
349.106	1	21
349.277	1	18
349.448	1	20
349.619	1	14
349.790	1	25
349.961	1	8
350.132	1	33
350.303	1	17
350.474	1	27
350.645	1	34
350.816	1	15
350.987	1	31
351.157	1	14
351.328	1	9
351.499	1	12
351.670	1	27
351.841	1	22
352.012	1	25
352.183	1	37
352.354	1	10
352.525	1	28
352.696	1	18
352.867	1	18
353.038	1	32
353.209	1	18
353.380	1	26
353.551	1	23
353.722	1	23
353.893	1	30
354.064	1	25
354.235	1	16
354.406	1	17
354.576	1	22
354.747	1	25
354.918	1	23
355.089	1	33
355.260	1	26
355.431	1	18
355.602	1	21
355.773	1	34
355.944	1	10
356.115	1	32
356.286	1	30
356.457	1	25
356.628	1	35
356.799	1	25
356.970	1	38
357.141	1	22
357.311	1	39
357.482	1	23
357.653	1	16
357.824	1	28
357.995	1	36
358.166	1	12
358.337	1	34
358.508	1	40
358.679	1	19
358.850	1	34
359.021	1	34
359.192	1	39
359.363	1	29
359.533	1	33
359.704	1	26
359.875	1	16
360.046	1	31
360.217	1	42
360.388	1	41
360.559	1	31
360.730	1	13
360.901	1	34
361.072	1	28
361.243	1	18
361.414	1	48
361.584	1	29
361.755	1	25
361.926	1	39
362.097	1	28
362.268	1	49
362.439	1	17
362.610	1	46
362.781	1	24
362.952	1	26
363.123	1	19
363.293	1	27
363.464	1	26
363.635	1	45
363.806	1	33
363.977	1	29
364.148	1	31
364.319	1	28
364.490	1	42
364.661	1	33
364.832	1	40
365.002	1	30
365.173	1	39
365.344	1	31
365.515	1	28
365.686	1	35
365.857	1	32
366.028	1	39
366.199	1	35
366.370	1	25
366.540	1	26
366.711	1	41
366.882	1	33
367.053	1	34
367.224	1	27
367.395	1	30
367.566	1	28
367.737	1	30
367.908	1	40
368.078	1	33
368.249	1	32
368.420	1	31
368.591	1	26
368.762	1	38
368.933	1	29
369.104	1	44
369.274	1	40
369.445	1	41
369.616	1	27
369.787	1	31
369.958	1	34
370.129	1	31
370.300	1	29
370.471	1	29
370.641	1	35
370.812	1	35
370.983	1	32
371.154	1	34
371.325	1	34
371.496	1	37
371.667	1	41
371.837	1	34
372.008	1	24
372.179	1	26
372.350	1	31
372.521	1	43
372.692	1	43
372.863	1	37
373.033	1	35
373.204	1	28
373.375	1	19
373.546	1	34
373.717	1	28
373.888	1	32
374.059	1	20
374.229	1	40
374.400	1	29
374.571	1	26
374.742	1	36
374.913	1	25
375.084	1	33
375.254	1	27
375.425	1	37
375.596	1	34
375.767	1	38
375.938	1	27
376.109	1	34
376.279	1	36
376.450	1	34
376.621	1	36
376.792	1	39
376.963	1	25
377.134	1	37
377.304	1	36
377.475	1	36
377.646	1	29
377.817	1	33
377.988	1	33
378.159	1	39
378.329	1	32
378.500	1	42
378.671	1	38
378.842	1	45
379.013	1	33
379.184	1	35
379.354	1	42
379.525	1	34
379.696	1	47
379.867	1	36
380.038	1	34
380.209	1	49
380.379	1	38
380.550	1	30
380.721	1	37
380.892	1	33
381.063	1	39
381.233	1	33
381.404	1	40
381.575	1	35
381.746	1	39
381.917	1	39
382.087	1	43
382.258	1	30
382.429	1	32
382.600	1	25
382.771	1	37
382.941	1	53
383.112	1	35
383.283	1	39
383.454	1	25
383.625	1	39
383.795	1	37
383.966	1	41
384.137	1	43
384.308	1	40
384.479	1	39
384.649	1	31
384.820	1	49
384.991	1	47
385.162	1	46
385.333	1	39
385.503	1	31
385.674	1	40
385.845	1	42
386.016	1	54
386.187	1	38
386.357	1	52
386.528	1	36
386.699	1	38
386.870	1	47
387.041	1	50
387.211	1	38
387.382	1	51
387.553	1	48
387.724	1	34
387.894	1	32
388.065	1	48
388.236	1	33
388.407	1	33
388.578	1	39
388.748	1	42
388.919	1	37
389.090	1	51
389.261	1	47
389.431	1	33
389.602	1	46
389.773	1	49
389.944	1	35
390.114	1	50
390.285	1	56
390.456	1	45
390.627	1	37
390.798	1	42
390.968	1	48
391.139	1	45
391.310	1	35
391.481	1	37
391.651	1	39
391.822	1	49
391.993	1	44
392.164	1	40
392.334	1	42
392.505	1	41
392.676	1	39
392.847	1	38
393.017	1	43
393.188	1	37
393.359	1	63
393.530	1	58
393.700	1	41
393.871	1	52
394.042	1	46
394.213	1	47
394.383	1	43
394.554	1	44
394.725	1	34
394.896	1	53
395.066	1	42
395.237	1	56
395.408	1	40
395.579	1	52
395.749	1	44
395.920	1	53
396.091	1	46
396.262	1	46
396.432	1	42
396.603	1	44
396.774	1	47
396.945	1	53
397.115	1	55
397.286	1	43
397.457	1	45
397.627	1	38
397.798	1	52
397.969	1	44
398.140	1	46
398.310	1	49
398.481	1	44
398.652	1	50
398.823	1	50
398.993	1	51
399.164	1	53
399.335	1	35
399.505	1	42
399.676	1	49
399.847	1	42
400.018	1	42
400.188	1	55
400.359	1	59
400.530	1	57
400.700	1	43
400.871	1	58
401.042	1	47
401.213	1	41
401.383	1	53
401.554	1	41
401.725	1	51
401.895	1	35
402.066	1	55
402.237	1	42
402.408	1	42
402.578	1	52
402.749	1	50
402.920	1	54
403.090	1	51
403.261	1	42
403.432	1	47
403.603	1	48
403.773	1	61
403.944	1	52
404.115	1	45
404.285	1	48
404.456	1	55
404.627	1	50
404.797	1	47
404.968	1	55
405.139	1	48
405.310	1	46
405.480	1	43
405.651	1	45
405.822	1	41
405.992	1	52
406.163	1	41
406.334	1	60
406.504	1	50
406.675	1	44
406.846	1	58
407.016	1	51
407.187	1	50
407.358	1	42
407.528	1	48
407.699	1	49
407.870	1	58
408.041	1	49
408.211	1	54
408.382	1	53
408.553	1	49
408.723	1	57
408.894	1	43
409.065	1	58
409.235	1	48
409.406	1	43
409.577	1	49
409.747	1	43
409.918	1	57
410.089	1	55
410.259	1	49
410.430	1	44
410.601	1	55
410.771	1	54
410.942	1	50
411.113	1	50
411.283	1	60
411.454	1	59
411.625	1	55
411.795	1	58
411.966	1	43
412.137	1	53
412.307	1	50
412.478	1	60
412.649	1	49
412.819	1	38
412.990	1	58
413.161	1	44
413.331	1	57
413.502	1	38
413.672	1	51
413.843	1	50
414.014	1	46
414.184	1	49
414.355	1	62
414.526	1	47
414.696	1	42
414.867	1	43
415.038	1	48
415.208	1	37
415.379	1	45
415.550	1	55
415.720	1	41
415.891	1	53
416.062	1	63
416.232	1	56
416.403	1	48
416.573	1	48
416.744	1	56
416.915	1	43
417.085	1	58
417.256	1	48
417.427	1	46
417.597	1	41
417.768	1	53
417.939	1	46
418.109	1	48
418.280	1	51
418.450	1	50
418.621	1	44
418.792	1	51
418.962	1	51
419.133	1	47
419.304	1	41
419.474	1	48
419.645	1	53
419.815	1	49
419.986	1	62
420.157	1	49
420.327	1	48
420.498	1	37
420.669	1	52
420.839	1	47
421.010	1	50
421.180	1	47
421.351	1	55
421.522	1	55
421.692	1	57
421.863	1	43
422.033	1	49
422.204	1	56
422.375	1	54
422.545	1	61
422.716	1	34
422.886	1	52
423.057	1	55
423.228	1	52
423.398	1	55
423.569	1	48
423.740	1	40
423.910	1	46
424.081	1	50
424.251	1	61
424.422	1	47
424.593	1	44
424.763	1	51
424.934	1	54
425.104	1	63
425.275	1	42
425.445	1	43
425.616	1	46
425.787	1	37
425.957	1	40
426.128	1	42
426.298	1	42
426.469	1	36
426.640	1	46
426.810	1	33
426.981	1	62
427.151	1	45
427.322	1	35
427.493	1	48
427.663	1	47
427.834	1	38
428.004	1	47
428.175	1	50
428.345	1	38
428.516	1	39
428.687	1	55
428.857	1	56
429.028	1	50
429.198	1	41
429.369	1	46
429.540	1	31
429.710	1	40
429.881	1	42
430.051	1	41
430.222	1	50
430.392	1	58
430.563	1	44
430.734	1	51
430.904	1	49
431.075	1	39
431.245	1	43
431.416	1	43
431.586	1	41
431.757	1	45
431.927	1	54
432.098	1	40
432.269	1	45
432.439	1	36
432.610	1	51
432.780	1	51
432.951	1	37
433.121	1	51
433.292	1	55
433.462	1	33
433.633	1	55
433.804	1	48
433.974	1	48
434.145	1	48
434.315	1	38
434.486	1	31
434.656	1	48
434.827	1	49
434.997	1	47
435.168	1	42
435.339	1	64
435.509	1	47
435.680	1	48
435.850	1	41
436.021	1	45
436.191	1	45
436.362	1	48
436.532	1	43
436.703	1	52
436.873	1	40
437.044	1	50
437.214	1	41
437.385	1	46
437.556	1	46
437.726	1	39
437.897	1	51
438.067	1	48
438.238	1	35
438.408	1	45
438.579	1	36
438.749	1	37
438.920	1	51
439.090	1	34
439.261	1	56
439.431	1	19
439.602	1	44
439.772	1	47
439.943	1	33
440.113	1	40
440.284	1	51
440.455	1	41
440.625	1	43
440.796	1	35
440.966	1	53
441.137	1	45
441.307	1	50
441.478	1	27
441.648	1	38
441.819	1	34
441.989	1	42
442.160	1	45
442.330	1	43
442.501	1	43
442.671	1	35
442.842	1	41
443.012	1	37
443.183	1	45
443.353	1	45
443.524	1	39
443.694	1	43
443.865	1	43
444.035	1	48
444.206	1	42
444.376	1	36
444.547	1	33
444.717	1	38
444.888	1	28
445.058	1	52
445.229	1	47
445.399	1	34
445.570	1	36
445.740	1	47
445.911	1	42
446.081	1	37
446.252	1	36
446.422	1	44
446.593	1	34
446.763	1	38
446.934	1	33
447.104	1	39
447.275	1	45
447.445	1	39
447.616	1	38
447.786	1	37
447.957	1	37
448.127	1	49
448.298	1	46
448.468	1	36
448.639	1	34
448.809	1	35
448.979	1	53
449.150	1	28
449.320	1	37
449.491	1	24
449.661	1	38
449.832	1	26
450.002	1	43
450.173	1	36
450.343	1	33
450.514	1	36
450.684	1	34
450.855	1	45
451.025	1	33
451.196	1	41
451.366	1	44
451.537	1	49
451.707	1	43
451.878	1	27
452.048	1	32
452.218	1	34
452.389	1	38
452.559	1	43
452.730	1	38
452.900	1	37
453.071	1	46
453.241	1	33
453.412	1	30
453.582	1	35
453.753	1	37
453.923	1	26
454.093	1	31
454.264	1	50
454.434	1	36
454.605	1	26
454.775	1	40
454.946	1	32
455.116	1	37
455.287	1	24
455.457	1	29
455.628	1	23
455.798	1	45
455.968	1	37
456.139	1	37
456.309	1	42
456.480	1	28
456.650	1	31
456.821	1	32
456.991	1	37
457.161	1	29
457.332	1	38
457.502	1	33
457.673	1	32
457.843	1	29
458.014	1	30
458.184	1	32
458.355	1	32
458.525	1	28
458.695	1	30
458.866	1	22
459.036	1	30
459.207	1	38
459.377	1	35
459.548	1	32
459.718	1	33
459.888	1	28
460.059	1	31
460.229	1	24
460.400	1	37
460.570	1	25
460.740	1	28
460.911	1	23
461.081	1	37
461.252	1	42
461.422	1	38
461.593	1	29
461.763	1	42
461.933	1	35
462.104	1	23
462.274	1	26
462.445	1	20
462.615	1	46
462.785	1	39
462.956	1	13
463.126	1	36
463.297	1	39
463.467	1	35
463.638	1	36
463.808	1	31
463.978	1	26
464.149	1	29
464.319	1	33
464.490	1	14
464.660	1	30
464.830	1	21
465.001	1	22
465.171	1	18
465.342	1	27
465.512	1	38
465.682	1	23
465.853	1	33
466.023	1	32
466.194	1	33
466.364	1	40
466.534	1	13
466.705	1	37
466.875	1	30
467.045	1	12
467.216	1	36
467.386	1	29
467.557	1	34
467.727	1	24
467.897	1	28
468.068	1	27
468.238	1	20
468.409	1	33
468.579	1	30
468.749	1	20
468.920	1	22
469.090	1	37
469.260	1	25
469.431	1	19
469.601	1	29
469.772	1	40
469.942	1	25
470.112	1	25
470.283	1	31
470.453	1	21
470.623	1	29
470.794	1	34
470.964	1	11
471.135	1	35
471.305	1	26
471.475	1	20
471.646	1	33
471.816	1	27
471.986	1	19
472.157	1	30
472.327	1	36
472.497	1	26
472.668	1	25
472.838	1	22
473.009	1	29
473.179	1	15
473.349	1	26
473.520	1	38
473.690	1	27
473.860	1	16
474.031	1	15
474.201	1	20
474.371	1	21
474.542	1	30
474.712	1	22
474.882	1	27
475.053	1	33
475.223	1	34
475.394	1	28
475.564	1	28
475.734	1	19
475.905	1	29
476.075	1	30
476.245	1	37
476.416	1	25
476.586	1	21
476.756	1	35
476.927	1	25
477.097	1	23
477.267	1	25
477.438	1	37
477.608	1	36
477.778	1	16
477.949	1	14
478.119	1	26
478.289	1	17
478.460	1	17
478.630	1	11
478.800	1	7
478.971	1	25
479.141	1	21
479.311	1	13
479.482	1	27
479.652	1	17
479.822	1	13
479.993	1	19
480.163	1	22
480.333	1	18
480.504	1	18
480.674	1	19
480.844	1	28
481.015	1	33
481.185	1	28
481.355	1	30
481.525	1	24
481.696	1	14
481.866	1	27
482.036	1	24
482.207	1	21
482.377	1	22
482.547	1	29
482.718	1	26
482.888	1	23
483.058	1	32
483.229	1	26
483.399	1	23
483.569	1	13
483.740	1	19
483.910	1	9
484.080	1	26
484.250	1	7
484.421	1	8
484.591	1	26
484.761	1	9
484.932	1	9
485.102	1	27
485.272	1	5
485.443	1	20
485.613	1	11
485.783	1	27
485.953	1	16
486.124	1	22
486.294	1	26
486.464	1	17
486.635	1	18
486.805	1	18
486.975	1	14
487.146	1	15
487.316	1	16
487.486	1	14
487.656	1	26
487.827	1	14
487.997	1	7
488.167	1	14
488.338	1	8
488.508	1	23
488.678	1	11
488.848	1	24
489.019	1	10
489.189	1	25
489.359	1	15
489.529	1	19
489.700	1	15
489.870	1	20
490.040	1	11
490.211	1	7
490.381	1	14
490.551	1	23
490.721	1	23
490.892	1	6
491.062	1	14
491.232	1	18
491.402	1	10
491.573	1	22
491.743	1	11
491.913	1	17
492.084	1	11
492.254	1	15
492.424	1	12
492.594	1	15
492.765	1	26
492.935	1	29
493.105	1	14
493.275	1	18
493.446	1	1
493.616	1	0
493.786	1	20
493.956	1	19
494.127	1	13
494.297	1	8
494.467	1	3
494.637	1	12
494.808	1	20
494.978	1	15
495.148	1	15
495.318	1	21
495.489	1	16
495.659	1	15
495.829	1	16
495.999	1	10
496.170	1	17
496.340	1	8
496.510	1	5
496.680	1	17
496.851	1	19
497.021	1	20
497.191	1	10
497.361	1	7
497.532	1	11
497.702	1	10
497.872	1	17
498.042	1	8
498.213	1	12
498.383	1	19
498.553	1	19
498.723	1	6
498.894	1	8
499.064	1	10
499.234	1	19
499.404	1	18
499.574	1	22
499.745	1	15
499.915	1	11
500.085	1	8
500.255	1	-5
500.426	1	15
500.596	1	4
500.766	1	9
500.936	1	1
501.106	1	6
501.277	1	0
501.447	1	24
501.617	1	8
501.787	1	11
501.958	1	8
502.128	1	13
502.298	1	8
502.468	1	19
502.638	1	16
502.809	1	9
502.979	1	12
503.149	1	17
503.319	1	8
503.489	1	2
503.660	1	3
503.830	1	13
504.000	1	16
504.170	1	1
504.340	1	-1
504.511	1	5
504.681	1	7
504.851	1	11
505.021	1	14
505.192	1	5
505.362	1	14
505.532	1	6
505.702	1	15
505.872	1	10
506.043	1	13
506.213	1	19
506.383	1	12
506.553	1	4
506.723	1	4
506.893	1	8
507.064	1	17
507.234	1	11
507.404	1	4
507.574	1	11
507.744	1	19
507.915	1	15
508.085	1	2
508.255	1	3
508.425	1	9
508.595	1	12
508.766	1	1
508.936	1	19
509.106	1	10
509.276	1	13
509.446	1	0
509.616	1	15
509.787	1	5
509.957	1	12
510.127	1	11
510.297	1	6
510.467	1	8
510.638	1	10
510.808	1	28
510.978	1	3
511.148	1	4
511.318	1	8
511.488	1	14
511.659	1	7
511.829	1	4
511.999	1	5
512.169	1	6
512.339	1	14
512.509	1	3
512.680	1	2
512.850	1	16
513.020	1	10
513.190	1	3
513.360	1	13
513.530	1	1
513.700	1	12
513.871	1	7
514.041	1	13
514.211	1	11
514.381	1	15
514.551	1	8
514.721	1	8
514.892	1	7
515.062	1	5
515.232	1	6
515.402	1	3
515.572	1	12
515.742	1	12
515.912	1	9
516.083	1	13
516.253	1	20
516.423	1	14
516.593	1	13
516.763	1	15
516.933	1	9
517.104	1	15
517.274	1	8
517.444	1	6
517.614	1	10
517.784	1	5
517.954	1	2
518.124	1	9
518.294	1	14
518.465	1	3
518.635	1	23
518.805	1	9
518.975	1	8
519.145	1	-1
519.315	1	1
519.485	1	4
519.656	1	3
519.826	1	-1
519.996	1	16
520.166	1	4
520.336	1	11
520.506	1	2
520.676	1	5
520.846	1	8
521.017	1	4
521.187	1	9
521.357	1	1
521.527	1	7
521.697	1	9
521.867	1	12
522.037	1	14
522.207	1	8
522.377	1	8
522.548	1	2
522.718	1	4
522.888	1	1
523.058	1	13
523.228	1	-4
523.398	1	3
523.568	1	-3
523.738	1	6
523.909	1	13
524.079	1	14
524.249	1	2
524.419	1	9
524.589	1	4
524.759	1	5
524.929	1	10
525.099	1	4
525.269	1	20
525.439	1	6
525.610	1	9
525.780	1	6
525.950	1	19
526.120	1	-2
526.290	1	-2
526.460	1	1
526.630	1	12
526.800	1	3
526.970	1	11
527.140	1	7
527.311	1	0
527.481	1	15
527.651	1	14
527.821	1	-3
527.991	1	0
528.161	1	8
528.331	1	4
528.501	1	8
528.671	1	4
528.841	1	10
529.011	1	9
529.181	1	8
529.352	1	5
529.522	1	4
529.692	1	10
529.862	1	5
530.032	1	-1
530.202	1	3
530.372	1	5
530.542	1	7
530.712	1	10
530.882	1	10
531.052	1	12
531.222	1	17
531.392	1	8
531.563	1	6
531.733	1	-3
531.903	1	3
532.073	1	-7
532.243	1	16
532.413	1	27
532.583	1	6
532.753	1	4
532.923	1	8
533.093	1	-8
533.263	1	7
533.433	1	0
533.603	1	4
533.773	1	10
533.943	1	9
534.113	1	11
534.284	1	1
534.454	1	3
534.624	1	3
534.794	1	6
534.964	1	10
535.134	1	3
535.304	1	6
535.474	1	2
535.644	1	14
535.814	1	-3
535.984	1	5
536.154	1	6
536.324	1	9
536.494	1	15
536.664	1	-6
536.834	1	0
537.004	1	7
537.174	1	9
537.344	1	6
537.514	1	1
537.685	1	17
537.855	1	13
538.025	1	10
538.195	1	0
538.365	1	12
538.535	1	4
538.705	1	9
538.875	1	9
539.045	1	5
539.215	1	1
539.385	1	-2
539.555	1	-1
539.725	1	9
539.895	1	7
540.065	1	5
540.235	1	11
540.405	1	3
540.575	1	2
540.745	1	10
540.915	1	3
541.085	1	0
541.255	1	15
541.425	1	-1
541.595	1	1
541.765	1	12
541.935	1	0
542.105	1	10
542.275	1	4
542.445	1	11
542.615	1	16
542.785	1	10
542.955	1	18
543.125	1	-2
543.295	1	5
543.465	1	7
543.635	1	-1
543.805	1	9
543.975	1	8
544.145	1	2
544.315	1	-3
544.485	1	4
544.655	1	10
544.825	1	13
544.995	1	-3
545.165	1	1
545.335	1	11
545.505	1	4
545.675	1	18
545.845	1	17
546.015	1	0
546.185	1	4
546.355	1	3
546.525	1	5
546.695	1	0
546.865	1	0
547.035	1	4
547.205	1	11
547.375	1	6
547.545	1	12
547.715	1	3
547.885	1	1
548.055	1	1
548.225	1	6
548.395	1	5
548.565	1	11
548.735	1	10
548.905	1	15
549.075	1	4
549.245	1	11
549.415	1	2
549.585	1	-1
549.755	1	10
549.925	1	6
550.095	1	-3
550.265	1	9
550.435	1	15
550.605	1	10
550.775	1	9
550.945	1	5
551.115	1	11
551.285	1	0
551.455	1	11
551.625	1	-3
551.795	1	3
551.965	1	-11
552.135	1	-6
552.305	1	1
552.475	1	15
552.645	1	1
552.815	1	11
552.985	1	1
553.155	1	11
553.325	1	1
553.495	1	0
553.665	1	6
553.835	1	1
554.004	1	13
554.174	1	2
554.344	1	11
554.514	1	-3
554.684	1	13
554.854	1	-2
555.024	1	14
555.194	1	5
555.364	1	-1
555.534	1	0
555.704	1	-3
555.874	1	3
556.044	1	2
556.214	1	1
556.384	1	4
556.554	1	5
556.724	1	7
556.894	1	8
557.064	1	-3
557.234	1	9
557.404	1	1
557.573	1	9
557.743	1	-2
557.913	1	-1
558.083	1	2
558.253	1	9
558.423	1	0
558.593	1	3
558.763	1	5
558.933	1	2
559.103	1	5
559.273	1	7
559.443	1	8
559.613	1	13
559.783	1	-2
559.953	1	-7
560.122	1	7
560.292	1	-5
560.462	1	1
560.632	1	-2
560.802	1	3
560.972	1	-10
561.142	1	8
561.312	1	2
561.482	1	15
561.652	1	1
561.822	1	-3
561.992	1	12
562.162	1	1
562.331	1	-4
562.501	1	10
562.671	1	-2
562.841	1	-8
563.011	1	7
563.181	1	-7
563.351	1	-4
563.521	1	-4
563.691	1	7
563.861	1	2
564.031	1	5
564.201	1	6
564.370	1	7
564.540	1	3
564.710	1	4
564.880	1	-7
565.050	1	10
565.220	1	7
565.390	1	6
565.560	1	7
565.730	1	6
565.900	1	6
566.069	1	11
566.239	1	3
566.409	1	9
566.579	1	2
566.749	1	7
566.919	1	-8
567.089	1	-12
567.259	1	7
567.429	1	-1
567.599	1	15
567.768	1	6
567.938	1	8
568.108	1	-5
568.278	1	2
568.448	1	-7
568.618	1	4
568.788	1	7
568.958	1	10
569.128	1	-2
569.297	1	0
569.467	1	8
569.637	1	3
569.807	1	15
569.977	1	-1
570.147	1	9
570.317	1	3
570.487	1	-8
570.656	1	5
570.826	1	-4
570.996	1	6
571.166	1	4
571.336	1	1
571.506	1	-4
571.676	1	10
571.846	1	7
572.015	1	12
572.185	1	-5
572.355	1	7
572.525	1	-5
572.695	1	1
572.865	1	4
573.035	1	7
573.205	1	3
573.374	1	1
573.544	1	8
573.714	1	9
573.884	1	-3
574.054	1	6
574.224	1	6
574.394	1	0
574.563	1	-6
574.733	1	4
574.903	1	1
575.073	1	7
575.243	1	2
575.413	1	4
575.583	1	4
575.752	1	4
575.922	1	7
576.092	1	1
576.262	1	0
576.432	1	0
576.602	1	11
576.772	1	-3
576.941	1	-1
577.111	1	3
577.281	1	-2
577.451	1	8
577.621	1	4
577.791	1	4
577.960	1	11
578.130	1	2
578.300	1	3
578.470	1	1
578.640	1	1
578.810	1	-4
578.979	1	8
579.149	1	4
579.319	1	2
579.489	1	7
579.659	1	0
579.829	1	6
579.998	1	2
580.168	1	-7
580.338	1	7
580.508	1	1
580.678	1	6
580.848	1	2
581.017	1	0
581.187	1	-1
581.357	1	2
581.527	1	12
581.697	1	7
581.867	1	1
582.036	1	-1
582.206	1	4
582.376	1	1
582.546	1	0
582.716	1	-2
582.885	1	0
583.055	1	-1
583.225	1	8
583.395	1	-3
583.565	1	9
583.735	1	9
583.904	1	0
584.074	1	-3
584.244	1	0
584.414	1	2
584.584	1	1
584.753	1	5
584.923	1	-8
585.093	1	6
585.263	1	4
585.433	1	6
585.602	1	17
585.772	1	12
585.942	1	-6
586.112	1	8
586.282	1	8
586.451	1	4
586.621	1	5
586.791	1	-7
586.961	1	1
587.131	1	-6
587.300	1	20
587.470	1	-4
587.640	1	-6
587.810	1	-6
587.980	1	2
588.149	1	4
588.319	1	5
588.489	1	12
588.659	1	-4
588.829	1	6
588.998	1	5
589.168	1	3
589.338	1	-4
589.508	1	6
589.677	1	6
589.847	1	4
590.017	1	-5
590.187	1	6
590.357	1	-2
590.526	1	-6
590.696	1	2
590.866	1	-2
591.036	1	10
591.205	1	9
591.375	1	6
591.545	1	0
591.715	1	4
591.885	1	5
592.054	1	1
592.224	1	3
592.394	1	0
592.564	1	-1
592.733	1	5
592.903	1	1
593.073	1	0
593.243	1	11
593.412	1	-2
593.582	1	0
593.752	1	-1
593.922	1	-2
594.091	1	9
594.261	1	-7
594.431	1	-7
594.601	1	-5
594.771	1	4
594.940	1	1
595.110	1	3
595.280	1	-1
595.450	1	7
595.619	1	3
595.789	1	-10
595.959	1	2
596.129	1	9
596.298	1	13
596.468	1	2
596.638	1	7
596.808	1	-4
596.977	1	-8
597.147	1	-11
597.317	1	5
597.487	1	10
597.656	1	2
597.826	1	14
597.996	1	0
598.166	1	3
598.335	1	-11
598.505	1	-2
598.675	1	3
598.844	1	12
599.014	1	-4
599.184	1	5
599.354	1	8
599.523	1	-2
599.693	1	2
599.863	1	9
600.033	1	7
600.202	1	1
600.372	1	-4
600.542	1	-4
600.712	1	4
600.881	1	3
601.051	1	11
601.221	1	1
601.390	1	8
601.560	1	6
601.730	1	-2
601.900	1	1
602.069	1	10
602.239	1	6
602.409	1	7
602.578	1	13
602.748	1	8
602.918	1	-1
603.088	1	-3
603.257	1	4
603.427	1	5
603.597	1	1
603.767	1	-4
603.936	1	6
604.106	1	1
604.276	1	6
604.445	1	0
604.615	1	7
604.785	1	1
604.954	1	3
605.124	1	0
605.294	1	3
605.464	1	-2
605.633	1	8
605.803	1	5
605.973	1	3
606.142	1	2
606.312	1	7
606.482	1	-11
606.652	1	5
606.821	1	-3
606.991	1	9
607.161	1	7
607.330	1	4
607.500	1	10
607.670	1	-4
607.839	1	-9
608.009	1	-1
608.179	1	5
608.348	1	10
608.518	1	15
608.688	1	0
608.858	1	-4
609.027	1	14
609.197	1	8
609.367	1	-9
609.536	1	1
609.706	1	5
609.876	1	9
610.045	1	1
610.215	1	2
610.385	1	-4
610.554	1	5
610.724	1	7
610.894	1	10
611.063	1	9
611.233	1	11
611.403	1	13
611.572	1	5
611.742	1	-13
611.912	1	9
612.081	1	11
612.251	1	4
612.421	1	-2
612.590	1	9
612.760	1	3
612.930	1	13
613.099	1	6
613.269	1	-1
613.439	1	1
613.608	1	4
613.778	1	-5
613.948	1	16
614.117	1	3
614.287	1	2
614.457	1	-7
614.626	1	2
614.796	1	8
614.966	1	1
615.135	1	10
615.305	1	11
615.475	1	2
615.644	1	7
615.814	1	13
615.984	1	6
616.153	1	10
616.323	1	-1
616.493	1	3
616.662	1	1
616.832	1	3
617.002	1	4
617.171	1	12
617.341	1	8
617.511	1	-10
617.680	1	-4
617.850	1	10
618.019	1	-1
618.189	1	20
618.359	1	7
618.528	1	5
618.698	1	0
618.868	1	-3
619.037	1	2
619.207	1	3
619.377	1	7
619.546	1	16
619.716	1	-1
619.885	1	3
620.055	1	2
620.225	1	12
620.394	1	12
620.564	1	3
620.734	1	9
620.903	1	5
621.073	1	4
621.242	1	5
621.412	1	5
621.582	1	18
621.751	1	2
621.921	1	14
622.091	1	-1
622.260	1	1
622.430	1	1
622.599	1	6
622.769	1	-3
622.939	1	5
623.108	1	7
623.278	1	3
623.448	1	3
623.617	1	14
623.787	1	-3
623.956	1	9
624.126	1	3
624.296	1	14
624.465	1	12
624.635	1	7
624.804	1	-1
624.974	1	5
625.144	1	1
625.313	1	11
625.483	1	7
625.652	1	1
625.822	1	17
625.992	1	-5
626.161	1	8
626.331	1	7
626.501	1	4
626.670	1	-6
626.840	1	9
627.009	1	6
627.179	1	12
627.348	1	8
627.518	1	22
627.688	1	-5
627.857	1	10
628.027	1	10
628.196	1	3
628.366	1	-10
628.536	1	9
628.705	1	-6
628.875	1	2
629.044	1	-4
629.214	1	6
629.384	1	12
629.553	1	7
629.723	1	6
629.892	1	12
630.062	1	7
630.232	1	8
630.401	1	10
630.571	1	-3
630.740	1	2
630.910	1	8
631.079	1	2
631.249	1	8
631.419	1	8
631.588	1	4
631.758	1	-4
631.927	1	4
632.097	1	4
632.266	1	12
632.436	1	6
632.606	1	8
632.775	1	9
632.945	1	5
633.114	1	8
633.284	1	4
633.453	1	8
633.623	1	11
633.793	1	10
633.962	1	10
634.132	1	6
634.301	1	15
634.471	1	14
634.640	1	-3
634.810	1	11
634.979	1	4
635.149	1	1
635.319	1	4
635.488	1	8
635.658	1	3
635.827	1	-2
635.997	1	3
636.166	1	8
636.336	1	6
636.505	1	8
636.675	1	5
636.845	1	-1
637.014	1	-6
637.184	1	7
637.353	1	10
637.523	1	-4
637.692	1	1
637.862	1	2
638.031	1	-7
638.201	1	8
638.370	1	8
638.540	1	-2
638.710	1	2
638.879	1	-3
639.049	1	-1
639.218	1	3
639.388	1	0
639.557	1	10
639.727	1	11
639.896	1	8
640.066	1	-3
640.235	1	5
640.405	1	0
640.574	1	12
640.744	1	-4
640.914	1	6
641.083	1	16
641.253	1	4
641.422	1	1
641.592	1	11
641.761	1	1
641.931	1	9
642.100	1	4
642.270	1	2
642.439	1	8
642.609	1	13
642.778	1	10
642.948	1	11
643.117	1	4
643.287	1	9
643.456	1	-3
643.626	1	2
643.795	1	1
643.965	1	3
644.134	1	6
644.304	1	-3
644.473	1	9
644.643	1	5
644.812	1	-1
644.982	1	8
645.151	1	5
645.321	1	5
645.490	1	15
645.660	1	3
645.829	1	10
645.999	1	4
646.168	1	18
646.338	1	-1
646.507	1	2
646.677	1	-4
646.846	1	7
647.016	1	16
647.185	1	6
647.355	1	11
647.524	1	-5
647.694	1	0
647.863	1	2
648.033	1	8
648.202	1	8
648.372	1	-10
648.541	1	9
648.711	1	13
648.880	1	10
649.050	1	7
649.219	1	9
649.389	1	-3
649.558	1	19
649.728	1	-4
649.897	1	8
650.067	1	15
650.236	1	-2
650.406	1	3
650.575	1	13
650.745	1	17
650.914	1	4
651.084	1	9
651.253	1	3
651.423	1	-6
651.592	1	2
651.762	1	0
651.931	1	13
652.101	1	-4
652.270	1	5
652.440	1	3
652.609	1	14
652.778	1	7
652.948	1	12
653.117	1	8
653.287	1	-8
653.456	1	3
653.626	1	3
653.795	1	4
653.965	1	0
654.134	1	6
654.304	1	9
654.473	1	10
654.643	1	7
654.812	1	14
654.982	1	6
655.151	1	17
655.320	1	-5
655.490	1	5
655.659	1	2
655.829	1	18
655.998	1	10
656.168	1	-1
656.337	1	6
656.507	1	-8
656.676	1	-2
656.846	1	-1
657.015	1	13
657.184	1	0
657.354	1	5
657.523	1	3
657.693	1	13
657.862	1	4
658.032	1	-3
658.201	1	5
658.371	1	7
658.540	1	-2
658.709	1	10
658.879	1	15
659.048	1	8
659.218	1	7
659.387	1	19
659.557	1	5
659.726	1	10
659.895	1	3
660.065	1	4
660.234	1	-3
660.404	1	6
660.573	1	8
660.743	1	4
660.912	1	9
661.081	1	9
661.251	1	2
661.420	1	7
661.590	1	2
661.759	1	7
661.929	1	-1
662.098	1	8
662.267	1	-7
662.437	1	12
662.606	1	4
662.776	1	9
662.945	1	12
663.115	1	16
663.284	1	19
663.453	1	-7
663.623	1	0
663.792	1	21
663.962	1	9
664.131	1	6
664.300	1	2
664.470	1	-7
664.639	1	5
664.809	1	4
664.978	1	15
665.148	1	7
665.317	1	11
665.486	1	11
665.656	1	10
665.825	1	14
665.995	1	-3
666.164	1	3
666.333	1	13
666.503	1	6
666.672	1	2
666.842	1	14
667.011	1	10
667.180	1	3
667.350	1	4
667.519	1	13
667.689	1	15
667.858	1	6
668.027	1	-1
668.197	1	-1
668.366	1	3
668.536	1	2
668.705	1	8
668.874	1	14
669.044	1	9
669.213	1	8
669.382	1	9
669.552	1	-1
669.721	1	-3
669.891	1	-1
670.060	1	5
670.229	1	11
670.399	1	7
670.568	1	19
670.738	1	7
670.907	1	2
671.076	1	6
671.246	1	21
671.415	1	18
671.584	1	-1
671.754	1	3
671.923	1	9
672.093	1	15
672.262	1	5
672.431	1	10
672.601	1	6
672.770	1	11
672.939	1	16
673.109	1	0
673.278	1	6
673.448	1	7
673.617	1	2
673.786	1	-2
