325.333	1	6
325.504	1	5
325.675	1	10
325.846	1	7
326.017	1	4
326.188	1	13
326.359	1	3
326.531	1	-3
326.702	1	14
326.873	1	15
327.044	1	17
327.215	1	15
327.386	1	9
327.557	1	2
327.728	1	11
327.899	1	1
328.070	1	8
328.241	1	15
328.412	1	14
328.583	1	18
328.754	1	22
328.926	1	16
329.097	1	16
329.268	1	15
329.439	1	14
329.610	1	7
329.781	1	15
329.952	1	25
330.123	1	17
330.294	1	4
330.465	1	8
330.636	1	14
330.807	1	18
330.978	1	10
331.149	1	10
331.320	1	7
331.492	1	11
331.663	1	8
331.834	1	20
332.005	1	12
332.176	1	15
332.347	1	10
332.518	1	20
332.689	1	12
332.860	1	11
333.031	1	16
333.202	1	4
333.373	1	22
333.544	1	20
333.715	1	12
333.886	1	1
334.057	1	8
334.228	1	21
334.399	1	15
334.570	1	14
334.741	1	13
334.912	1	9
335.084	1	27
335.255	1	20
335.426	1	21
335.597	1	17
335.768	1	6
335.939	1	15
336.110	1	6
336.281	1	10
336.452	1	33
336.623	1	19
336.794	1	8
336.965	1	10
337.136	1	23
337.307	1	11
337.478	1	20
337.649	1	9
337.820	1	10
337.991	1	16
338.162	1	12
338.333	1	13
338.504	1	20
338.675	1	17
338.846	1	11
339.017	1	12
339.188	1	9
339.359	1	31
339.530	1	21
339.701	1	14
339.872	1	27
340.043	1	22
340.214	1	26
340.385	1	13
340.556	1	22
340.727	1	18
340.898	1	10
341.069	1	13
341.240	1	21
341.411	1	24
341.582	1	11
341.753	1	23
341.924	1	29
342.095	1	14
342.266	1	24
342.437	1	11
342.608	1	27
342.779	1	1
342.950	1	19
343.121	1	25
343.292	1	22
343.463	1	35
343.634	1	12
343.805	1	14
343.976	1	37
344.147	1	30
344.318	1	12
344.489	1	21
344.660	1	28
344.831	1	22
345.002	1	35
345.173	1	23
345.344	1	10
345.515	1	27
345.686	1	35
345.857	1	26
346.028	1	20
346.199	1	20
346.370	1	16
346.541	1	19
346.712	1	24
346.883	1	25
347.054	1	23
347.225	1	26
347.396	1	32
347.567	1	5
347.738	1	26
347.909	1	25
348.080	1	25
348.251	1	25
348.422	1	21
348.593	1	31
348.764	1	29
348.935	1	21
349.106	1	28
349.277	1	25
349.448	1	25
349.619	1	22
349.790	1	38
349.961	1	21
350.132	1	35
350.303	1	38
350.474	1	27
350.645	1	32
350.816	1	22
350.987	1	39
351.157	1	26
351.328	1	16
351.499	1	27
351.670	1	19
351.841	1	35
352.012	1	39
352.183	1	31
352.354	1	36
352.525	1	39
352.696	1	33
352.867	1	40
353.038	1	37
353.209	1	27
353.380	1	31
353.551	1	38
353.722	1	31
353.893	1	38
354.064	1	28
354.235	1	25
354.406	1	20
354.576	1	38
354.747	1	37
354.918	1	32
355.089	1	35
355.260	1	34
355.431	1	28
355.602	1	37
355.773	1	33
355.944	1	39
356.115	1	36
356.286	1	41
356.457	1	26
356.628	1	33
356.799	1	26
356.970	1	55
357.141	1	41
357.311	1	46
357.482	1	36
357.653	1	25
357.824	1	39
357.995	1	49
358.166	1	23
358.337	1	28
358.508	1	42
358.679	1	34
358.850	1	44
359.021	1	33
359.192	1	47
359.363	1	32
359.533	1	38
359.704	1	31
359.875	1	27
360.046	1	32
360.217	1	44
360.388	1	48
360.559	1	38
360.730	1	35
360.901	1	34
361.072	1	34
361.243	1	41
361.414	1	42
361.584	1	37
361.755	1	37
361.926	1	47
362.097	1	31
362.268	1	48
362.439	1	36
362.610	1	39
362.781	1	30
362.952	1	38
363.123	1	27
363.293	1	40
363.464	1	30
363.635	1	37
363.806	1	34
363.977	1	44
364.148	1	38
364.319	1	37
364.490	1	41
364.661	1	40
364.832	1	34
365.002	1	48
365.173	1	46
365.344	1	37
365.515	1	38
365.686	1	47
365.857	1	41
366.028	1	36
366.199	1	44
366.370	1	35
366.540	1	39
366.711	1	43
366.882	1	41
367.053	1	37
367.224	1	45
367.395	1	35
367.566	1	48
367.737	1	51
367.908	1	41
368.078	1	36
368.249	1	45
368.420	1	30
368.591	1	35
368.762	1	44
368.933	1	26
369.104	1	36
369.274	1	53
369.445	1	45
369.616	1	36
369.787	1	42
369.958	1	44
370.129	1	33
370.300	1	35
370.471	1	43
370.641	1	39
370.812	1	42
370.983	1	39
371.154	1	38
371.325	1	37
371.496	1	47
371.667	1	44
371.837	1	40
372.008	1	33
372.179	1	40
372.350	1	27
372.521	1	47
372.692	1	53
372.863	1	40
373.033	1	37
373.204	1	41
373.375	1	31
373.546	1	43
373.717	1	49
373.888	1	38
374.059	1	31
374.229	1	49
374.400	1	41
374.571	1	48
374.742	1	54
374.913	1	34
375.084	1	41
375.254	1	27
375.425	1	41
375.596	1	55
375.767	1	40
375.938	1	37
376.109	1	28
376.279	1	45
376.450	1	44
376.621	1	55
376.792	1	46
376.963	1	43
377.134	1	44
377.304	1	51
377.475	1	25
377.646	1	35
377.817	1	51
377.988	1	39
378.159	1	46
378.329	1	48
378.500	1	51
378.671	1	56
378.842	1	50
379.013	1	54
379.184	1	44
379.354	1	51
379.525	1	51
379.696	1	51
379.867	1	49
380.038	1	33
380.209	1	55
380.379	1	54
380.550	1	32
380.721	1	38
380.892	1	47
381.063	1	50
381.233	1	49
381.404	1	44
381.575	1	42
381.746	1	57
381.917	1	48
382.087	1	48
382.258	1	49
382.429	1	46
382.600	1	43
382.771	1	37
382.941	1	49
383.112	1	50
383.283	1	38
383.454	1	38
383.625	1	50
383.795	1	45
383.966	1	45
384.137	1	52
384.308	1	46
384.479	1	40
384.649	1	52
384.820	1	47
384.991	1	52
385.162	1	53
385.333	1	46
385.503	1	51
385.674	1	58
385.845	1	57
386.016	1	55
386.187	1	42
386.357	1	54
386.528	1	36
386.699	1	37
386.870	1	52
387.041	1	71
387.211	1	61
387.382	1	59
387.553	1	60
387.724	1	51
387.894	1	45
388.065	1	63
388.236	1	47
388.407	1	57
388.578	1	58
388.748	1	58
388.919	1	59
389.090	1	63
389.261	1	49
389.431	1	37
389.602	1	37
389.773	1	67
389.944	1	37
390.114	1	59
390.285	1	69
390.456	1	49
390.627	1	44
390.798	1	54
390.968	1	56
391.139	1	61
391.310	1	61
391.481	1	50
391.651	1	56
391.822	1	66
391.993	1	46
392.164	1	56
392.334	1	57
392.505	1	50
392.676	1	52
392.847	1	56
393.017	1	57
393.188	1	60
393.359	1	70
393.530	1	65
393.700	1	56
393.871	1	61
394.042	1	49
394.213	1	48
394.383	1	61
394.554	1	54
394.725	1	46
394.896	1	72
395.066	1	64
395.237	1	58
395.408	1	61
395.579	1	62
395.749	1	62
395.920	1	64
396.091	1	59
396.262	1	59
396.432	1	48
396.603	1	62
396.774	1	53
396.945	1	69
397.115	1	63
397.286	1	63
397.457	1	49
397.627	1	56
397.798	1	60
397.969	1	62
398.140	1	60
398.310	1	59
398.481	1	58
398.652	1	56
398.823	1	55
398.993	1	61
399.164	1	66
399.335	1	54
399.505	1	41
399.676	1	56
399.847	1	50
400.018	1	42
400.188	1	69
400.359	1	63
400.530	1	63
400.700	1	57
400.871	1	61
401.042	1	64
401.213	1	66
401.383	1	54
401.554	1	62
401.725	1	55
401.895	1	52
402.066	1	59
402.237	1	62
402.408	1	59
402.578	1	74
402.749	1	54
402.920	1	70
403.090	1	58
403.261	1	68
403.432	1	59
403.603	1	60
403.773	1	77
403.944	1	60
404.115	1	52
404.285	1	56
404.456	1	71
404.627	1	68
404.797	1	64
404.968	1	63
405.139	1	62
405.310	1	75
405.480	1	53
405.651	1	56
405.822	1	60
405.992	1	66
406.163	1	58
406.334	1	56
406.504	1	59
406.675	1	68
406.846	1	61
407.016	1	77
407.187	1	62
407.358	1	53
407.528	1	67
407.699	1	67
407.870	1	69
408.041	1	68
408.211	1	67
408.382	1	65
408.553	1	70
408.723	1	61
408.894	1	53
409.065	1	67
409.235	1	68
409.406	1	59
409.577	1	64
409.747	1	60
409.918	1	79
410.089	1	73
410.259	1	69
410.430	1	64
410.601	1	73
410.771	1	60
410.942	1	59
411.113	1	60
411.283	1	66
411.454	1	76
411.625	1	64
411.795	1	71
411.966	1	62
412.137	1	78
412.307	1	72
412.478	1	64
412.649	1	60
412.819	1	61
412.990	1	68
413.161	1	62
413.331	1	64
413.502	1	67
413.672	1	64
413.843	1	57
414.014	1	56
414.184	1	62
414.355	1	71
414.526	1	66
414.696	1	44
414.867	1	59
415.038	1	60
415.208	1	65
415.379	1	51
415.550	1	63
415.720	1	56
415.891	1	62
416.062	1	68
416.232	1	76
416.403	1	73
416.573	1	61
416.744	1	66
416.915	1	59
417.085	1	65
417.256	1	55
417.427	1	59
417.597	1	61
417.768	1	68
417.939	1	51
418.109	1	58
418.280	1	62
418.450	1	67
418.621	1	59
418.792	1	59
418.962	1	64
419.133	1	64
419.304	1	67
419.474	1	57
419.645	1	67
419.815	1	51
419.986	1	68
420.157	1	57
420.327	1	51
420.498	1	55
420.669	1	70
420.839	1	63
421.010	1	57
421.180	1	60
421.351	1	63
421.522	1	64
421.692	1	63
421.863	1	70
422.033	1	63
422.204	1	69
422.375	1	60
422.545	1	66
422.716	1	58
422.886	1	61
423.057	1	66
423.228	1	59
423.398	1	68
423.569	1	61
423.740	1	55
423.910	1	70
424.081	1	69
424.251	1	69
424.422	1	64
424.593	1	58
424.763	1	57
424.934	1	59
425.104	1	69
425.275	1	53
425.445	1	49
425.616	1	49
425.787	1	64
425.957	1	55
426.128	1	53
426.298	1	58
426.469	1	51
426.640	1	52
426.810	1	48
426.981	1	67
427.151	1	45
427.322	1	55
427.493	1	63
427.663	1	51
427.834	1	52
428.004	1	64
428.175	1	69
428.345	1	54
428.516	1	64
428.687	1	60
428.857	1	65
429.028	1	53
429.198	1	48
429.369	1	61
429.540	1	61
429.710	1	53
429.881	1	54
430.051	1	52
430.222	1	62
430.392	1	55
430.563	1	54
430.734	1	59
430.904	1	58
431.075	1	53
431.245	1	50
431.416	1	54
431.586	1	54
431.757	1	70
431.927	1	54
432.098	1	71
432.269	1	63
432.439	1	55
432.610	1	56
432.780	1	65
432.951	1	62
433.121	1	46
433.292	1	66
433.462	1	61
433.633	1	54
433.804	1	64
433.974	1	57
434.145	1	68
434.315	1	57
434.486	1	49
434.656	1	48
434.827	1	67
434.997	1	57
435.168	1	62
435.339	1	62
435.509	1	54
435.680	1	74
435.850	1	51
436.021	1	65
436.191	1	49
436.362	1	48
436.532	1	60
436.703	1	57
436.873	1	56
437.044	1	57
437.214	1	43
437.385	1	49
437.556	1	74
437.726	1	58
437.897	1	58
438.067	1	49
438.238	1	60
438.408	1	56
438.579	1	46
438.749	1	48
438.920	1	61
439.090	1	53
439.261	1	53
439.431	1	38
439.602	1	50
439.772	1	68
439.943	1	49
440.113	1	45
440.284	1	56
440.455	1	37
440.625	1	55
440.796	1	46
440.966	1	55
441.137	1	51
441.307	1	47
441.478	1	42
441.648	1	56
441.819	1	53
441.989	1	60
442.160	1	51
442.330	1	53
442.501	1	48
442.671	1	44
442.842	1	42
443.012	1	56
443.183	1	54
443.353	1	48
443.524	1	51
443.694	1	48
443.865	1	62
444.035	1	54
444.206	1	52
444.376	1	63
444.547	1	33
444.717	1	58
444.888	1	40
445.058	1	46
445.229	1	47
445.399	1	48
445.570	1	52
445.740	1	47
445.911	1	53
446.081	1	54
446.252	1	44
446.422	1	53
446.593	1	48
446.763	1	51
446.934	1	43
447.104	1	50
447.275	1	51
447.445	1	52
447.616	1	46
447.786	1	51
447.957	1	43
448.127	1	52
448.298	1	45
448.468	1	45
448.639	1	41
448.809	1	40
448.979	1	61
449.150	1	53
449.320	1	49
449.491	1	44
449.661	1	49
449.832	1	39
450.002	1	44
450.173	1	43
450.343	1	48
450.514	1	47
450.684	1	43
450.855	1	50
451.025	1	49
451.196	1	42
451.366	1	54
451.537	1	57
451.707	1	59
451.878	1	41
452.048	1	38
452.218	1	53
452.389	1	49
452.559	1	58
452.730	1	41
452.900	1	40
453.071	1	50
453.241	1	42
453.412	1	35
453.582	1	52
453.753	1	53
453.923	1	38
454.093	1	37
454.264	1	54
454.434	1	45
454.605	1	35
454.775	1	48
454.946	1	42
455.116	1	54
455.287	1	31
455.457	1	54
455.628	1	35
455.798	1	39
455.968	1	49
456.139	1	44
456.309	1	39
456.480	1	35
456.650	1	42
456.821	1	44
456.991	1	49
457.161	1	44
457.332	1	48
457.502	1	45
457.673	1	46
457.843	1	43
458.014	1	46
458.184	1	38
458.355	1	50
458.525	1	39
458.695	1	40
458.866	1	37
459.036	1	42
459.207	1	53
459.377	1	42
459.548	1	51
459.718	1	41
459.888	1	34
460.059	1	49
460.229	1	40
460.400	1	40
460.570	1	28
460.740	1	43
460.911	1	35
461.081	1	48
461.252	1	49
461.422	1	39
461.593	1	36
461.763	1	45
461.933	1	36
462.104	1	38
462.274	1	27
462.445	1	41
462.615	1	47
462.785	1	45
462.956	1	35
463.126	1	41
463.297	1	42
463.467	1	41
463.638	1	42
463.808	1	48
463.978	1	32
464.149	1	27
464.319	1	42
464.490	1	33
464.660	1	32
464.830	1	36
465.001	1	30
465.171	1	32
465.342	1	30
465.512	1	39
465.682	1	25
465.853	1	35
466.023	1	42
466.194	1	42
466.364	1	50
466.534	1	20
466.705	1	44
466.875	1	22
467.045	1	34
467.216	1	36
467.386	1	32
467.557	1	46
467.727	1	26
467.897	1	31
468.068	1	25
468.238	1	32
468.409	1	36
468.579	1	35
468.749	1	32
468.920	1	19
469.090	1	45
469.260	1	41
469.431	1	29
469.601	1	45
469.772	1	43
469.942	1	34
470.112	1	29
470.283	1	34
470.453	1	39
470.623	1	43
470.794	1	37
470.964	1	25
471.135	1	49
471.305	1	31
471.475	1	33
471.646	1	36
471.816	1	34
471.986	1	28
472.157	1	34
472.327	1	47
472.497	1	30
472.668	1	27
472.838	1	33
473.009	1	25
473.179	1	36
473.349	1	22
473.520	1	50
473.690	1	33
473.860	1	38
474.031	1	15
474.201	1	29
474.371	1	36
474.542	1	36
474.712	1	29
474.882	1	38
475.053	1	37
475.223	1	34
475.394	1	32
475.564	1	29
475.734	1	23
475.905	1	39
476.075	1	42
476.245	1	23
476.416	1	25
476.586	1	26
476.756	1	26
476.927	1	36
477.097	1	27
477.267	1	38
477.438	1	34
477.608	1	43
477.778	1	27
477.949	1	14
478.119	1	31
478.289	1	26
478.460	1	25
478.630	1	33
478.800	1	30
478.971	1	35
479.141	1	26
479.311	1	21
479.482	1	26
479.652	1	26
479.822	1	26
479.993	1	37
480.163	1	37
480.333	1	40
480.504	1	33
480.674	1	34
480.844	1	29
481.015	1	35
481.185	1	33
481.355	1	35
481.525	1	28
481.696	1	23
481.866	1	28
482.036	1	31
482.207	1	31
482.377	1	25
482.547	1	27
482.718	1	25
482.888	1	30
483.058	1	34
483.229	1	23
483.399	1	36
483.569	1	22
483.740	1	14
483.910	1	27
484.080	1	27
484.250	1	14
484.421	1	24
484.591	1	29
484.761	1	22
484.932	1	20
485.102	1	33
485.272	1	7
485.443	1	36
485.613	1	29
485.783	1	26
485.953	1	21
486.124	1	34
486.294	1	26
486.464	1	37
486.635	1	26
486.805	1	18
486.975	1	13
487.146	1	29
487.316	1	19
487.486	1	20
487.656	1	33
487.827	1	15
487.997	1	24
488.167	1	33
488.338	1	17
488.508	1	31
488.678	1	26
488.848	1	29
489.019	1	16
489.189	1	33
489.359	1	24
489.529	1	19
489.700	1	29
489.870	1	29
490.040	1	15
490.211	1	21
490.381	1	15
490.551	1	22
490.721	1	31
490.892	1	-2
491.062	1	22
491.232	1	24
491.402	1	20
491.573	1	30
491.743	1	13
491.913	1	18
492.084	1	21
492.254	1	12
492.424	1	14
492.594	1	12
492.765	1	28
492.935	1	38
493.105	1	18
493.275	1	18
493.446	1	19
493.616	1	7
493.786	1	25
493.956	1	24
494.127	1	10
494.297	1	7
494.467	1	23
494.637	1	19
494.808	1	21
494.978	1	17
495.148	1	22
495.318	1	20
495.489	1	19
495.659	1	16
495.829	1	19
495.999	1	34
496.170	1	16
496.340	1	17
496.510	1	27
496.680	1	16
496.851	1	22
497.021	1	16
497.191	1	25
497.361	1	8
497.532	1	19
497.702	1	19
497.872	1	21
498.042	1	9
498.213	1	15
498.383	1	12
498.553	1	33
498.723	1	16
498.894	1	26
499.064	1	20
499.234	1	23
499.404	1	23
499.574	1	22
499.745	1	8
499.915	1	21
500.085	1	14
500.255	1	6
500.426	1	15
500.596	1	9
500.766	1	14
500.936	1	18
501.106	1	26
501.277	1	9
501.447	1	19
501.617	1	24
501.787	1	5
501.958	1	10
502.128	1	23
502.298	1	21
502.468	1	13
502.638	1	12
502.809	1	-5
502.979	1	28
503.149	1	26
503.319	1	23
503.489	1	8
503.660	1	13
503.830	1	11
504.000	1	17
504.170	1	15
504.340	1	2
504.511	1	15
504.681	1	12
504.851	1	16
505.021	1	14
505.192	1	12
505.362	1	14
505.532	1	13
505.702	1	37
505.872	1	11
506.043	1	25
506.213	1	30
506.383	1	19
506.553	1	14
506.723	1	-2
506.893	1	19
507.064	1	21
507.234	1	7
507.404	1	16
507.574	1	9
507.744	1	15
507.915	1	13
508.085	1	6
508.255	1	7
508.425	1	15
508.595	1	10
508.766	1	10
508.936	1	18
509.106	1	16
509.276	1	17
509.446	1	17
509.616	1	16
509.787	1	10
509.957	1	21
510.127	1	10
510.297	1	6
510.467	1	5
510.638	1	4
510.808	1	24
510.978	1	10
511.148	1	12
511.318	1	7
511.488	1	20
511.659	1	12
511.829	1	12
511.999	1	17
512.169	1	17
512.339	1	21
512.509	1	7
512.680	1	13
512.850	1	18
513.020	1	13
513.190	1	7
513.360	1	14
513.530	1	16
513.700	1	14
513.871	1	7
514.041	1	13
514.211	1	11
514.381	1	13
514.551	1	5
514.721	1	13
514.892	1	6
515.062	1	8
515.232	1	10
515.402	1	21
515.572	1	17
515.742	1	10
515.912	1	5
516.083	1	3
516.253	1	14
516.423	1	12
516.593	1	15
516.763	1	14
516.933	1	13
517.104	1	11
517.274	1	4
517.444	1	16
517.614	1	6
517.784	1	11
517.954	1	10
518.124	1	17
518.294	1	13
518.465	1	13
518.635	1	21
518.805	1	16
518.975	1	10
519.145	1	8
519.315	1	8
519.485	1	3
519.656	1	1
519.826	1	6
519.996	1	16
520.166	1	16
520.336	1	13
520.506	1	5
520.676	1	11
520.846	1	6
521.017	1	3
521.187	1	9
521.357	1	-8
521.527	1	4
521.697	1	7
521.867	1	21
522.037	1	13
522.207	1	11
522.377	1	12
522.548	1	-5
522.718	1	4
522.888	1	12
523.058	1	17
523.228	1	4
523.398	1	8
523.568	1	-2
523.738	1	4
523.909	1	10
524.079	1	1
524.249	1	5
524.419	1	16
524.589	1	6
524.759	1	17
524.929	1	4
525.099	1	5
525.269	1	11
525.439	1	13
525.610	1	12
525.780	1	10
525.950	1	10
526.120	1	7
526.290	1	4
526.460	1	-3
526.630	1	10
526.800	1	-7
526.970	1	11
527.140	1	7
527.311	1	9
527.481	1	13
527.651	1	15
527.821	1	6
527.991	1	7
528.161	1	5
528.331	1	1
528.501	1	12
528.671	1	9
528.841	1	8
529.011	1	8
529.181	1	4
529.352	1	5
529.522	1	6
529.692	1	7
529.862	1	9
530.032	1	0
530.202	1	4
530.372	1	13
530.542	1	10
530.712	1	7
530.882	1	11
531.052	1	12
531.222	1	1
531.392	1	9
531.563	1	14
531.733	1	3
531.903	1	7
532.073	1	7
532.243	1	8
532.413	1	27
532.583	1	16
532.753	1	1
532.923	1	18
533.093	1	1
533.263	1	7
533.433	1	-10
533.603	1	5
533.773	1	6
533.943	1	10
534.113	1	14
534.284	1	10
534.454	1	12
534.624	1	7
534.794	1	10
534.964	1	13
535.134	1	6
535.304	1	3
535.474	1	9
535.644	1	8
535.814	1	14
535.984	1	14
536.154	1	3
536.324	1	7
536.494	1	20
536.664	1	5
536.834	1	10
537.004	1	6
537.174	1	13
537.344	1	7
537.514	1	0
537.685	1	22
537.855	1	12
538.025	1	20
538.195	1	8
538.365	1	13
538.535	1	2
538.705	1	6
538.875	1	10
539.045	1	12
539.215	1	3
539.385	1	13
539.555	1	10
539.725	1	10
539.895	1	24
540.065	1	5
540.235	1	7
540.405	1	4
540.575	1	3
540.745	1	11
540.915	1	8
541.085	1	5
541.255	1	-1
541.425	1	0
541.595	1	12
541.765	1	13
541.935	1	6
542.105	1	4
542.275	1	2
542.445	1	5
542.615	1	13
542.785	1	7
542.955	1	21
543.125	1	10
543.295	1	4
543.465	1	13
543.635	1	3
543.805	1	10
543.975	1	-2
544.145	1	16
544.315	1	0
544.485	1	4
544.655	1	5
544.825	1	11
544.995	1	3
545.165	1	4
545.335	1	9
545.505	1	1
545.675	1	12
545.845	1	9
546.015	1	0
546.185	1	4
546.355	1	7
546.525	1	5
546.695	1	-2
546.865	1	4
547.035	1	4
547.205	1	18
547.375	1	8
547.545	1	12
547.715	1	2
547.885	1	0
548.055	1	-4
548.225	1	12
548.395	1	7
548.565	1	9
548.735	1	1
548.905	1	12
549.075	1	2
549.245	1	13
549.415	1	16
549.585	1	10
549.755	1	2
549.925	1	13
550.095	1	1
550.265	1	3
550.435	1	15
550.605	1	3
550.775	1	-5
550.945	1	11
551.115	1	23
551.285	1	11
551.455	1	9
551.625	1	1
551.795	1	3
551.965	1	-3
552.135	1	3
552.305	1	7
552.475	1	5
552.645	1	-5
552.815	1	-3
552.985	1	2
553.155	1	-1
553.325	1	7
553.495	1	8
553.665	1	0
553.835	1	7
554.004	1	7
554.174	1	10
554.344	1	8
554.514	1	4
554.684	1	6
554.854	1	-7
555.024	1	9
555.194	1	18
555.364	1	7
555.534	1	-7
555.704	1	6
555.874	1	11
556.044	1	4
556.214	1	4
556.384	1	6
556.554	1	4
556.724	1	-1
556.894	1	-4
557.064	1	7
557.234	1	4
557.404	1	6
557.573	1	17
557.743	1	-3
557.913	1	0
558.083	1	-2
558.253	1	11
558.423	1	2
558.593	1	11
558.763	1	3
558.933	1	5
559.103	1	13
559.273	1	12
559.443	1	4
559.613	1	11
559.783	1	-4
559.953	1	-4
560.122	1	8
560.292	1	-2
560.462	1	2
560.632	1	6
560.802	1	12
560.972	1	-6
561.142	1	10
561.312	1	-4
561.482	1	19
561.652	1	8
561.822	1	4
561.992	1	8
562.162	1	10
562.331	1	-3
562.501	1	4
562.671	1	1
562.841	1	-6
563.011	1	5
563.181	1	-1
563.351	1	4
563.521	1	-2
563.691	1	9
563.861	1	3
564.031	1	-2
564.201	1	6
564.370	1	10
564.540	1	8
564.710	1	0
564.880	1	-2
565.050	1	9
565.220	1	12
565.390	1	7
565.560	1	13
565.730	1	10
565.900	1	4
566.069	1	13
566.239	1	11
566.409	1	12
566.579	1	6
566.749	1	8
566.919	1	-3
567.089	1	-7
567.259	1	4
567.429	1	3
567.599	1	13
567.768	1	4
567.938	1	7
568.108	1	4
568.278	1	7
568.448	1	6
568.618	1	7
568.788	1	11
568.958	1	-11
569.128	1	-7
569.297	1	7
569.467	1	13
569.637	1	10
569.807	1	17
569.977	1	2
570.147	1	15
570.317	1	12
570.487	1	6
570.656	1	0
570.826	1	2
570.996	1	8
571.166	1	7
571.336	1	-3
571.506	1	3
571.676	1	2
571.846	1	12
572.015	1	5
572.185	1	4
572.355	1	5
572.525	1	-5
572.695	1	5
572.865	1	14
573.035	1	10
573.205	1	0
573.374	1	10
573.544	1	7
573.714	1	0
573.884	1	3
574.054	1	2
574.224	1	2
574.394	1	-4
574.563	1	-2
574.733	1	-2
574.903	1	1
575.073	1	1
575.243	1	8
575.413	1	5
575.583	1	-2
575.752	1	8
575.922	1	15
576.092	1	0
576.262	1	3
576.432	1	-3
576.602	1	1
576.772	1	0
576.941	1	6
577.111	1	2
577.281	1	9
577.451	1	1
577.621	1	11
577.791	1	4
577.960	1	1
578.130	1	10
578.300	1	-2
578.470	1	3
578.640	1	6
578.810	1	3
578.979	1	9
579.149	1	3
579.319	1	4
579.489	1	8
579.659	1	7
579.829	1	1
579.998	1	-2
580.168	1	7
580.338	1	5
580.508	1	-1
580.678	1	12
580.848	1	6
581.017	1	6
581.187	1	11
581.357	1	-6
581.527	1	2
581.697	1	-1
581.867	1	2
582.036	1	2
582.206	1	8
582.376	1	3
582.546	1	-3
582.716	1	1
582.885	1	11
583.055	1	-7
583.225	1	3
583.395	1	10
583.565	1	12
583.735	1	-1
583.904	1	-4
584.074	1	4
584.244	1	8
584.414	1	1
584.584	1	6
584.753	1	7
584.923	1	-5
585.093	1	4
585.263	1	6
585.433	1	-9
585.602	1	11
585.772	1	14
585.942	1	0
586.112	1	11
586.282	1	2
586.451	1	13
586.621	1	-2
586.791	1	0
586.961	1	-5
587.131	1	5
587.300	1	4
587.470	1	3
587.640	1	0
587.810	1	-6
587.980	1	6
588.149	1	5
588.319	1	13
588.489	1	-1
588.659	1	-4
588.829	1	3
588.998	1	-2
589.168	1	2
589.338	1	-6
589.508	1	-2
589.677	1	10
589.847	1	4
590.017	1	4
590.187	1	6
590.357	1	1
590.526	1	-3
590.696	1	13
590.866	1	-9
591.036	1	6
591.205	1	3
591.375	1	10
591.545	1	6
591.715	1	6
591.885	1	11
592.054	1	9
592.224	1	1
592.394	1	-8
592.564	1	8
592.733	1	5
592.903	1	1
593.073	1	-3
593.243	1	19
593.412	1	-2
593.582	1	5
593.752	1	1
593.922	1	-4
594.091	1	3
594.261	1	-4
594.431	1	11
594.601	1	2
594.771	1	4
594.940	1	-1
595.110	1	1
595.280	1	-1
595.450	1	6
595.619	1	8
595.789	1	8
595.959	1	4
596.129	1	4
596.298	1	16
596.468	1	2
596.638	1	5
596.808	1	2
596.977	1	-4
597.147	1	-2
597.317	1	3
597.487	1	16
597.656	1	6
597.826	1	8
597.996	1	-9
598.166	1	8
598.335	1	-9
598.505	1	4
598.675	1	3
598.844	1	15
599.014	1	-11
599.184	1	5
599.354	1	16
599.523	1	5
599.693	1	-1
599.863	1	17
600.033	1	12
600.202	1	1
600.372	1	-1
600.542	1	9
600.712	1	5
600.881	1	7
601.051	1	3
601.221	1	4
601.390	1	0
601.560	1	3
601.730	1	-8
601.900	1	4
602.069	1	1
602.239	1	10
602.409	1	9
602.578	1	7
602.748	1	16
602.918	1	3
603.088	1	-1
603.257	1	-8
603.427	1	12
603.597	1	2
603.767	1	7
603.936	1	5
604.106	1	-1
604.276	1	13
604.445	1	2
604.615	1	14
604.785	1	7
604.954	1	4
605.124	1	-3
605.294	1	-2
605.464	1	-1
605.633	1	5
605.803	1	7
605.973	1	-4
606.142	1	12
606.312	1	12
606.482	1	4
606.652	1	7
606.821	1	-2
606.991	1	0
607.161	1	-1
607.330	1	4
607.500	1	1
607.670	1	6
607.839	1	-1
608.009	1	5
608.179	1	4
608.348	1	8
608.518	1	24
608.688	1	9
608.858	1	1
609.027	1	15
609.197	1	9
609.367	1	-1
609.536	1	-2
609.706	1	6
609.876	1	7
610.045	1	8
610.215	1	3
610.385	1	5
610.554	1	9
610.724	1	5
610.894	1	1
611.063	1	7
611.233	1	7
611.403	1	7
611.572	1	-4
611.742	1	-3
611.912	1	5
612.081	1	12
612.251	1	4
612.421	1	3
612.590	1	8
612.760	1	6
612.930	1	13
613.099	1	4
613.269	1	8
613.439	1	-3
613.608	1	2
613.778	1	5
613.948	1	12
614.117	1	2
614.287	1	-2
614.457	1	3
614.626	1	7
614.796	1	5
614.966	1	0
615.135	1	18
615.305	1	3
615.475	1	11
615.644	1	12
615.814	1	11
615.984	1	5
616.153	1	-1
616.323	1	5
616.493	1	8
616.662	1	-4
616.832	1	4
617.002	1	11
617.171	1	7
617.341	1	15
617.511	1	2
617.680	1	-11
617.850	1	4
618.019	1	-1
618.189	1	18
618.359	1	-1
618.528	1	6
618.698	1	3
618.868	1	4
619.037	1	9
619.207	1	7
619.377	1	8
619.546	1	11
619.716	1	5
619.885	1	7
620.055	1	-4
620.225	1	-3
620.394	1	0
620.564	1	14
620.734	1	6
620.903	1	-2
621.073	1	13
621.242	1	12
621.412	1	9
621.582	1	20
621.751	1	-2
621.921	1	9
622.091	1	3
622.260	1	15
622.430	1	1
622.599	1	2
622.769	1	3
622.939	1	-3
623.108	1	7
623.278	1	2
623.448	1	1
623.617	1	13
623.787	1	10
623.956	1	3
624.126	1	7
624.296	1	11
624.465	1	14
624.635	1	7
624.804	1	-5
624.974	1	9
625.144	1	1
625.313	1	20
625.483	1	5
625.652	1	2
625.822	1	13
625.992	1	5
626.161	1	8
626.331	1	9
626.501	1	4
626.670	1	1
626.840	1	13
627.009	1	2
627.179	1	8
627.348	1	-2
627.518	1	23
627.688	1	3
627.857	1	15
628.027	1	12
628.196	1	14
628.366	1	7
628.536	1	1
628.705	1	6
628.875	1	4
629.044	1	1
629.214	1	4
629.384	1	14
629.553	1	1
629.723	1	14
629.892	1	4
630.062	1	10
630.232	1	17
630.401	1	-1
630.571	1	3
630.740	1	2
630.910	1	22
631.079	1	-1
631.249	1	4
631.419	1	15
631.588	1	11
631.758	1	1
631.927	1	19
632.097	1	10
632.266	1	11
632.436	1	0
632.606	1	1
632.775	1	13
632.945	1	3
633.114	1	-1
633.284	1	8
633.453	1	9
633.623	1	14
633.793	1	4
633.962	1	11
634.132	1	9
634.301	1	12
634.471	1	10
634.640	1	1
634.810	1	11
634.979	1	7
635.149	1	-4
635.319	1	9
635.488	1	3
635.658	1	8
635.827	1	-2
635.997	1	15
636.166	1	14
636.336	1	4
636.505	1	15
636.675	1	7
636.845	1	1
637.014	1	11
637.184	1	12
637.353	1	5
637.523	1	4
637.692	1	5
637.862	1	-6
638.031	1	3
638.201	1	8
638.370	1	12
638.540	1	6
638.710	1	3
638.879	1	14
639.049	1	8
639.218	1	8
639.388	1	7
639.557	1	17
639.727	1	18
639.896	1	8
640.066	1	11
640.235	1	13
640.405	1	6
640.574	1	16
640.744	1	-3
640.914	1	3
641.083	1	17
641.253	1	2
641.422	1	4
641.592	1	15
641.761	1	7
641.931	1	15
642.100	1	0
642.270	1	13
642.439	1	3
642.609	1	9
642.778	1	5
642.948	1	9
643.117	1	20
643.287	1	16
643.456	1	-1
643.626	1	6
643.795	1	9
643.965	1	4
644.134	1	4
644.304	1	-1
644.473	1	0
644.643	1	2
644.812	1	3
644.982	1	10
645.151	1	-4
645.321	1	14
645.490	1	18
645.660	1	6
645.829	1	1
645.999	1	7
646.168	1	19
646.338	1	-4
646.507	1	8
646.677	1	10
646.846	1	9
647.016	1	16
647.185	1	16
647.355	1	22
647.524	1	0
647.694	1	-4
647.863	1	-3
648.033	1	7
648.202	1	9
648.372	1	0
648.541	1	8
648.711	1	12
648.880	1	13
649.050	1	4
649.219	1	10
649.389	1	7
649.558	1	12
649.728	1	15
649.897	1	7
650.067	1	13
650.236	1	0
650.406	1	13
650.575	1	15
650.745	1	5
650.914	1	6
651.084	1	8
651.253	1	6
651.423	1	3
651.592	1	11
651.762	1	5
651.931	1	7
652.101	1	-2
652.270	1	16
652.440	1	5
652.609	1	13
652.778	1	16
652.948	1	9
653.117	1	12
653.287	1	0
653.456	1	6
653.626	1	2
653.795	1	14
653.965	1	7
654.134	1	3
654.304	1	6
654.473	1	13
654.643	1	7
654.812	1	14
654.982	1	9
655.151	1	26
655.320	1	-1
655.490	1	1
655.659	1	9
655.829	1	11
655.998	1	13
656.168	1	-1
656.337	1	3
656.507	1	4
656.676	1	5
656.846	1	8
657.015	1	14
657.184	1	2
657.354	1	20
657.523	1	14
657.693	1	11
657.862	1	6
658.032	1	3
658.201	1	-2
658.371	1	5
658.540	1	-1
658.709	1	17
658.879	1	20
659.048	1	21
659.218	1	7
659.387	1	7
659.557	1	2
659.726	1	5
659.895	1	9
660.065	1	3
660.234	1	3
660.404	1	8
660.573	1	9
660.743	1	2
660.912	1	9
661.081	1	11
661.251	1	6
661.420	1	8
661.590	1	16
661.759	1	197
661.929	1	41
662.098	1	13
662.267	1	1
662.437	1	8
662.606	1	21
662.776	1	275
662.945	1	489
663.115	1	188
663.284	1	26
663.453	1	7
663.623	1	8
663.792	1	12
663.962	1	9
664.131	1	5
664.300	1	-3
664.470	1	4
664.639	1	1
664.809	1	8
664.978	1	25
665.148	1	12
665.317	1	15
665.486	1	17
665.656	1	10
665.825	1	15
665.995	1	-5
666.164	1	11
666.333	1	11
666.503	1	2
666.672	1	8
666.842	1	12
667.011	1	12
667.180	1	3
667.350	1	13
667.519	1	9
667.689	1	8
667.858	1	11
668.027	1	-1
668.197	1	2
668.366	1	11
668.536	1	6
668.705	1	5
668.874	1	15
669.044	1	11
669.213	1	13
669.382	1	20
669.552	1	15
669.721	1	3
669.891	1	3
670.060	1	11
670.229	1	15
670.399	1	11
670.568	1	17
670.738	1	9
670.907	1	10
671.076	1	12
671.246	1	16
671.415	1	16
671.584	1	15
671.754	1	7
671.923	1	14
672.093	1	9
672.262	1	8
672.431	1	14
672.601	1	15
672.770	1	5
672.939	1	9
673.109	1	1
673.278	1	7
673.448	1	7
673.617	1	12
673.786	1	-4
