325.333	1	4
325.504	1	0
325.675	1	22
325.846	1	2
326.017	1	3
326.188	1	7
326.359	1	7
326.531	1	-11
326.702	1	-5
326.873	1	6
327.044	1	8
327.215	1	3
327.386	1	8
327.557	1	1
327.728	1	-1
327.899	1	4
328.070	1	13
328.241	1	3
328.412	1	7
328.583	1	6
328.754	1	13
328.926	1	13
329.097	1	1
329.268	1	15
329.439	1	12
329.610	1	1
329.781	1	4
329.952	1	15
330.123	1	0
330.294	1	-7
330.465	1	-5
330.636	1	4
330.807	1	15
330.978	1	0
331.149	1	5
331.320	1	1
331.492	1	3
331.663	1	6
331.834	1	1
332.005	1	5
332.176	1	13
332.347	1	-3
332.518	1	10
332.689	1	5
332.860	1	11
333.031	1	12
333.202	1	-5
333.373	1	13
333.544	1	7
333.715	1	4
333.886	1	-1
334.057	1	0
334.228	1	11
334.399	1	11
334.570	1	7
334.741	1	8
334.912	1	11
335.084	1	14
335.255	1	14
335.426	1	10
335.597	1	6
335.768	1	3
335.939	1	13
336.110	1	12
336.281	1	4
336.452	1	14
336.623	1	-4
336.794	1	12
336.965	1	5
337.136	1	19
337.307	1	7
337.478	1	9
337.649	1	5
337.820	1	1
337.991	1	9
338.162	1	7
338.333	1	8
338.504	1	18
338.675	1	2
338.846	1	-4
339.017	1	10
339.188	1	2
339.359	1	2
339.530	1	7
339.701	1	18
339.872	1	15
340.043	1	14
340.214	1	12
340.385	1	2
340.556	1	15
340.727	1	16
340.898	1	6
341.069	1	4
341.240	1	1
341.411	1	6
341.582	1	-1
341.753	1	1
341.924	1	14
342.095	1	8
342.266	1	17
342.437	1	1
342.608	1	9
342.779	1	5
342.950	1	6
343.121	1	17
343.292	1	9
343.463	1	17
343.634	1	7
343.805	1	16
343.976	1	17
344.147	1	17
344.318	1	8
344.489	1	5
344.660	1	21
344.831	1	15
345.002	1	6
345.173	1	10
345.344	1	5
345.515	1	4
345.686	1	7
345.857	1	21
346.028	1	9
346.199	1	6
346.370	1	13
346.541	1	6
346.712	1	7
346.883	1	2
347.054	1	14
347.225	1	8
347.396	1	7
347.567	1	7
347.738	1	17
347.909	1	15
348.080	1	5
348.251	1	7
348.422	1	20
348.593	1	15
348.764	1	12
348.935	1	7
349.106	1	8
349.277	1	12
349.448	1	14
349.619	1	12
349.790	1	13
349.961	1	5
350.132	1	17
350.303	1	13
350.474	1	11
350.645	1	15
350.816	1	12
350.987	1	24
351.157	1	8
351.328	1	2
351.499	1	6
351.670	1	8
351.841	1	15
352.012	1	17
352.183	1	33
352.354	1	7
352.525	1	13
352.696	1	5
352.867	1	20
353.038	1	14
353.209	1	11
353.380	1	21
353.551	1	25
353.722	1	7
353.893	1	16
354.064	1	6
354.235	1	7
354.406	1	7
354.576	1	11
354.747	1	15
354.918	1	11
355.089	1	12
355.260	1	8
355.431	1	4
355.602	1	16
355.773	1	8
355.944	1	18
356.115	1	21
356.286	1	16
356.457	1	6
356.628	1	6
356.799	1	12
356.970	1	18
357.141	1	22
357.311	1	28
357.482	1	18
357.653	1	6
357.824	1	16
357.995	1	19
358.166	1	17
358.337	1	16
358.508	1	25
358.679	1	2
358.850	1	19
359.021	1	20
359.192	1	26
359.363	1	16
359.533	1	8
359.704	1	12
359.875	1	11
360.046	1	21
360.217	1	29
360.388	1	18
360.559	1	16
360.730	1	18
360.901	1	17
361.072	1	17
361.243	1	25
361.414	1	32
361.584	1	11
361.755	1	21
361.926	1	29
362.097	1	10
362.268	1	14
362.439	1	13
362.610	1	27
362.781	1	7
362.952	1	15
363.123	1	4
363.293	1	19
363.464	1	14
363.635	1	17
363.806	1	17
363.977	1	16
364.148	1	21
364.319	1	16
364.490	1	20
364.661	1	12
364.832	1	18
365.002	1	17
365.173	1	18
365.344	1	12
365.515	1	14
365.686	1	27
365.857	1	16
366.028	1	19
366.199	1	28
366.370	1	25
366.540	1	14
366.711	1	28
366.882	1	23
367.053	1	32
367.224	1	27
367.395	1	14
367.566	1	18
367.737	1	24
367.908	1	21
368.078	1	11
368.249	1	27
368.420	1	19
368.591	1	26
368.762	1	28
368.933	1	8
369.104	1	26
369.274	1	18
369.445	1	11
369.616	1	23
369.787	1	11
369.958	1	22
370.129	1	22
370.300	1	20
370.471	1	15
370.641	1	20
370.812	1	25
370.983	1	18
371.154	1	18
371.325	1	10
371.496	1	10
371.667	1	27
371.837	1	16
372.008	1	9
372.179	1	13
372.350	1	15
372.521	1	25
372.692	1	32
372.863	1	21
373.033	1	13
373.204	1	17
373.375	1	7
373.546	1	24
373.717	1	13
373.888	1	16
374.059	1	16
374.229	1	18
374.400	1	14
374.571	1	8
374.742	1	19
374.913	1	11
375.084	1	9
375.254	1	11
375.425	1	15
375.596	1	25
375.767	1	20
375.938	1	9
376.109	1	25
376.279	1	14
376.450	1	30
376.621	1	18
376.792	1	20
376.963	1	11
377.134	1	15
377.304	1	19
377.475	1	12
377.646	1	18
377.817	1	32
377.988	1	28
378.159	1	21
378.329	1	22
378.500	1	21
378.671	1	17
378.842	1	18
379.013	1	18
379.184	1	15
379.354	1	25
379.525	1	28
379.696	1	28
379.867	1	12
380.038	1	30
380.209	1	22
380.379	1	17
380.550	1	13
380.721	1	19
380.892	1	21
381.063	1	13
381.233	1	21
381.404	1	26
381.575	1	17
381.746	1	12
381.917	1	21
382.087	1	21
382.258	1	37
382.429	1	23
382.600	1	22
382.771	1	18
382.941	1	27
383.112	1	31
383.283	1	24
383.454	1	11
383.625	1	15
383.795	1	19
383.966	1	25
384.137	1	27
384.308	1	23
384.479	1	38
384.649	1	14
384.820	1	29
384.991	1	26
385.162	1	30
385.333	1	22
385.503	1	24
385.674	1	31
385.845	1	34
386.016	1	34
386.187	1	24
386.357	1	33
386.528	1	28
386.699	1	27
386.870	1	22
387.041	1	31
387.211	1	27
387.382	1	44
387.553	1	30
387.724	1	22
387.894	1	9
388.065	1	29
388.236	1	29
388.407	1	25
388.578	1	37
388.748	1	30
388.919	1	22
389.090	1	35
389.261	1	31
389.431	1	3
389.602	1	27
389.773	1	26
389.944	1	33
390.114	1	37
390.285	1	39
390.456	1	22
390.627	1	18
390.798	1	29
390.968	1	29
391.139	1	29
391.310	1	28
391.481	1	21
391.651	1	35
391.822	1	33
391.993	1	30
392.164	1	35
392.334	1	32
392.505	1	26
392.676	1	20
392.847	1	27
393.017	1	23
393.188	1	38
393.359	1	49
393.530	1	40
393.700	1	22
393.871	1	35
394.042	1	25
394.213	1	24
394.383	1	23
394.554	1	22
394.725	1	21
394.896	1	29
395.066	1	30
395.237	1	35
395.408	1	29
395.579	1	31
395.749	1	50
395.920	1	27
396.091	1	25
396.262	1	25
396.432	1	30
396.603	1	33
396.774	1	27
396.945	1	41
397.115	1	42
397.286	1	39
397.457	1	20
397.627	1	11
397.798	1	27
397.969	1	27
398.140	1	30
398.310	1	28
398.481	1	31
398.652	1	25
398.823	1	37
398.993	1	20
399.164	1	44
399.335	1	29
399.505	1	30
399.676	1	31
399.847	1	23
400.018	1	23
400.188	1	32
400.359	1	33
400.530	1	24
400.700	1	26
400.871	1	35
401.042	1	31
401.213	1	34
401.383	1	36
401.554	1	35
401.725	1	28
401.895	1	24
402.066	1	43
402.237	1	29
402.408	1	24
402.578	1	41
402.749	1	27
402.920	1	39
403.090	1	27
403.261	1	24
403.432	1	33
403.603	1	32
403.773	1	35
403.944	1	38
404.115	1	28
404.285	1	37
404.456	1	36
404.627	1	32
404.797	1	40
404.968	1	29
405.139	1	33
405.310	1	31
405.480	1	30
405.651	1	20
405.822	1	25
405.992	1	38
406.163	1	28
406.334	1	26
406.504	1	36
406.675	1	19
406.846	1	43
407.016	1	40
407.187	1	36
407.358	1	17
407.528	1	32
407.699	1	32
407.870	1	33
408.041	1	39
408.211	1	28
408.382	1	40
408.553	1	33
408.723	1	33
408.894	1	29
409.065	1	28
409.235	1	36
409.406	1	22
409.577	1	34
409.747	1	38
409.918	1	42
410.089	1	44
410.259	1	35
410.430	1	30
410.601	1	48
410.771	1	35
410.942	1	38
411.113	1	34
411.283	1	30
411.454	1	47
411.625	1	36
411.795	1	36
411.966	1	29
412.137	1	29
412.307	1	35
412.478	1	36
412.649	1	28
412.819	1	43
412.990	1	38
413.161	1	36
413.331	1	31
413.502	1	24
413.672	1	36
413.843	1	37
414.014	1	28
414.184	1	39
414.355	1	35
414.526	1	31
414.696	1	25
414.867	1	21
415.038	1	29
415.208	1	26
415.379	1	23
415.550	1	29
415.720	1	30
415.891	1	34
416.062	1	40
416.232	1	34
416.403	1	37
416.573	1	38
416.744	1	40
416.915	1	31
417.085	1	34
417.256	1	25
417.427	1	30
417.597	1	22
417.768	1	38
417.939	1	31
418.109	1	24
418.280	1	30
418.450	1	50
418.621	1	36
418.792	1	28
418.962	1	24
419.133	1	32
419.304	1	37
419.474	1	32
419.645	1	30
419.815	1	37
419.986	1	39
420.157	1	26
420.327	1	17
420.498	1	34
420.669	1	32
420.839	1	30
421.010	1	34
421.180	1	29
421.351	1	29
421.522	1	29
421.692	1	35
421.863	1	31
422.033	1	35
422.204	1	32
422.375	1	34
422.545	1	42
422.716	1	23
422.886	1	40
423.057	1	32
423.228	1	19
423.398	1	38
423.569	1	34
423.740	1	36
423.910	1	36
424.081	1	37
424.251	1	24
424.422	1	37
424.593	1	30
424.763	1	34
424.934	1	28
425.104	1	40
425.275	1	19
425.445	1	38
425.616	1	41
425.787	1	32
425.957	1	34
426.128	1	27
426.298	1	29
426.469	1	23
426.640	1	18
426.810	1	21
426.981	1	42
427.151	1	17
427.322	1	27
427.493	1	27
427.663	1	31
427.834	1	28
428.004	1	35
428.175	1	38
428.345	1	23
428.516	1	21
428.687	1	33
428.857	1	35
429.028	1	22
429.198	1	33
429.369	1	32
429.540	1	31
429.710	1	27
429.881	1	31
430.051	1	24
430.222	1	30
430.392	1	30
430.563	1	32
430.734	1	25
430.904	1	34
431.075	1	24
431.245	1	26
431.416	1	35
431.586	1	30
431.757	1	40
431.927	1	33
432.098	1	38
432.269	1	31
432.439	1	21
432.610	1	39
432.780	1	31
432.951	1	27
433.121	1	35
433.292	1	36
433.462	1	28
433.633	1	27
433.804	1	34
433.974	1	36
434.145	1	20
434.315	1	25
434.486	1	18
434.656	1	43
434.827	1	30
434.997	1	34
435.168	1	32
435.339	1	41
435.509	1	26
435.680	1	37
435.850	1	15
436.021	1	29
436.191	1	31
436.362	1	28
436.532	1	32
436.703	1	27
436.873	1	30
437.044	1	25
437.214	1	18
437.385	1	35
437.556	1	34
437.726	1	32
437.897	1	20
438.067	1	33
438.238	1	29
438.408	1	14
438.579	1	19
438.749	1	31
438.920	1	32
439.090	1	23
439.261	1	33
439.431	1	23
439.602	1	25
439.772	1	33
439.943	1	20
440.113	1	26
440.284	1	24
440.455	1	20
440.625	1	34
440.796	1	15
440.966	1	39
441.137	1	26
441.307	1	23
441.478	1	20
441.648	1	31
441.819	1	10
441.989	1	31
442.160	1	24
442.330	1	24
442.501	1	23
442.671	1	18
442.842	1	24
443.012	1	26
443.183	1	19
443.353	1	19
443.524	1	39
443.694	1	17
443.865	1	21
444.035	1	30
444.206	1	12
444.376	1	29
444.547	1	29
444.717	1	29
444.888	1	15
445.058	1	21
445.229	1	25
445.399	1	30
445.570	1	14
445.740	1	26
445.911	1	38
446.081	1	22
446.252	1	27
446.422	1	23
446.593	1	25
446.763	1	36
446.934	1	26
447.104	1	25
447.275	1	21
447.445	1	27
447.616	1	24
447.786	1	16
447.957	1	30
448.127	1	22
448.298	1	26
448.468	1	29
448.639	1	17
448.809	1	26
448.979	1	26
449.150	1	15
449.320	1	25
449.491	1	18
449.661	1	15
449.832	1	15
450.002	1	22
450.173	1	28
450.343	1	17
450.514	1	34
450.684	1	24
450.855	1	24
451.025	1	25
451.196	1	34
451.366	1	25
451.537	1	32
451.707	1	35
451.878	1	15
452.048	1	23
452.218	1	28
452.389	1	23
452.559	1	32
452.730	1	27
452.900	1	14
453.071	1	22
453.241	1	28
453.412	1	16
453.582	1	26
453.753	1	17
453.923	1	14
454.093	1	28
454.264	1	29
454.434	1	23
454.605	1	15
454.775	1	22
454.946	1	12
455.116	1	21
455.287	1	22
455.457	1	23
455.628	1	14
455.798	1	27
455.968	1	14
456.139	1	19
456.309	1	17
456.480	1	18
456.650	1	22
456.821	1	23
456.991	1	28
457.161	1	29
457.332	1	18
457.502	1	23
457.673	1	14
457.843	1	12
458.014	1	20
458.184	1	22
458.355	1	22
458.525	1	17
458.695	1	7
458.866	1	10
459.036	1	16
459.207	1	27
459.377	1	25
459.548	1	12
459.718	1	27
459.888	1	11
460.059	1	20
460.229	1	17
460.400	1	17
460.570	1	10
460.740	1	14
460.911	1	11
461.081	1	23
461.252	1	21
461.422	1	12
461.593	1	20
461.763	1	25
461.933	1	15
462.104	1	15
462.274	1	15
462.445	1	24
462.615	1	20
462.785	1	15
462.956	1	13
463.126	1	18
463.297	1	18
463.467	1	31
463.638	1	15
463.808	1	16
463.978	1	16
464.149	1	14
464.319	1	25
464.490	1	22
464.660	1	12
464.830	1	11
465.001	1	24
465.171	1	8
465.342	1	8
465.512	1	20
465.682	1	4
465.853	1	17
466.023	1	14
466.194	1	27
466.364	1	24
466.534	1	6
466.705	1	41
466.875	1	3
467.045	1	15
467.216	1	19
467.386	1	10
467.557	1	25
467.727	1	15
467.897	1	15
468.068	1	10
468.238	1	11
468.409	1	26
468.579	1	7
468.749	1	12
468.920	1	15
469.090	1	23
469.260	1	20
469.431	1	0
469.601	1	19
469.772	1	25
469.942	1	11
470.112	1	6
470.283	1	21
470.453	1	24
470.623	1	19
470.794	1	9
470.964	1	5
471.135	1	29
471.305	1	15
471.475	1	14
471.646	1	19
471.816	1	20
471.986	1	6
472.157	1	11
472.327	1	22
472.497	1	5
472.668	1	11
472.838	1	7
473.009	1	11
473.179	1	18
473.349	1	3
473.520	1	26
473.690	1	14
473.860	1	8
474.031	1	6
474.201	1	11
474.371	1	20
474.542	1	6
474.712	1	12
474.882	1	22
475.053	1	16
475.223	1	13
475.394	1	6
475.564	1	15
475.734	1	1
475.905	1	9
476.075	1	31
476.245	1	13
476.416	1	8
476.586	1	6
476.756	1	13
476.927	1	13
477.097	1	6
477.267	1	15
477.438	1	25
477.608	1	22
477.778	1	7
477.949	1	9
478.119	1	21
478.289	1	5
478.460	1	6
478.630	1	6
478.800	1	7
478.971	1	5
479.141	1	21
479.311	1	16
479.482	1	6
479.652	1	18
479.822	1	10
479.993	1	14
480.163	1	13
480.333	1	19
480.504	1	13
480.674	1	18
480.844	1	13
481.015	1	21
481.185	1	24
481.355	1	16
481.525	1	1
481.696	1	14
481.866	1	16
482.036	1	11
482.207	1	18
482.377	1	10
482.547	1	16
482.718	1	15
482.888	1	20
483.058	1	17
483.229	1	19
483.399	1	19
483.569	1	6
483.740	1	9
483.910	1	-3
484.080	1	16
484.250	1	6
484.421	1	8
484.591	1	6
484.761	1	26
484.932	1	12
485.102	1	10
485.272	1	18
485.443	1	8
485.613	1	7
485.783	1	1
485.953	1	9
486.124	1	6
486.294	1	23
486.464	1	16
486.635	1	12
486.805	1	15
486.975	1	9
487.146	1	8
487.316	1	24
487.486	1	16
487.656	1	9
487.827	1	4
487.997	1	9
488.167	1	10
488.338	1	11
488.508	1	23
488.678	1	2
488.848	1	19
489.019	1	10
489.189	1	7
489.359	1	10
489.529	1	7
489.700	1	14
489.870	1	19
490.040	1	5
490.211	1	7
490.381	1	11
490.551	1	17
490.721	1	9
490.892	1	0
491.062	1	4
491.232	1	0
491.402	1	16
491.573	1	20
491.743	1	8
491.913	1	13
492.084	1	17
492.254	1	15
492.424	1	9
492.594	1	7
492.765	1	11
492.935	1	18
493.105	1	3
493.275	1	2
493.446	1	-2
493.616	1	4
493.786	1	16
493.956	1	13
494.127	1	3
494.297	1	-4
494.467	1	6
494.637	1	12
494.808	1	11
494.978	1	9
495.148	1	8
495.318	1	14
495.489	1	5
495.659	1	10
495.829	1	9
495.999	1	16
496.170	1	9
496.340	1	11
496.510	1	10
496.680	1	13
496.851	1	16
497.021	1	6
497.191	1	16
497.361	1	-3
497.532	1	13
497.702	1	14
497.872	1	17
498.042	1	5
498.213	1	2
498.383	1	5
498.553	1	17
498.723	1	6
498.894	1	11
499.064	1	10
499.234	1	13
499.404	1	9
499.574	1	9
499.745	1	11
499.915	1	5
500.085	1	3
500.255	1	-7
500.426	1	4
500.596	1	-6
500.766	1	5
500.936	1	-6
501.106	1	6
501.277	1	-1
501.447	1	19
501.617	1	10
501.787	1	2
501.958	1	-2
502.128	1	11
502.298	1	7
502.468	1	6
502.638	1	15
502.809	1	-1
502.979	1	15
503.149	1	11
503.319	1	22
503.489	1	-6
503.660	1	7
503.830	1	7
504.000	1	14
504.170	1	8
504.340	1	5
504.511	1	5
504.681	1	12
504.851	1	0
505.021	1	4
505.192	1	-5
505.362	1	5
505.532	1	-1
505.702	1	21
505.872	1	5
506.043	1	18
506.213	1	15
506.383	1	7
506.553	1	4
506.723	1	-5
506.893	1	10
507.064	1	10
507.234	1	-4
507.404	1	7
507.574	1	0
507.744	1	10
507.915	1	0
508.085	1	11
508.255	1	13
508.425	1	7
508.595	1	6
508.766	1	-3
508.936	1	8
509.106	1	9
509.276	1	6
509.446	1	5
509.616	1	3
509.787	1	9
509.957	1	9
510.127	1	-1
510.297	1	-8
510.467	1	0
510.638	1	6
510.808	1	11
510.978	1	2
511.148	1	11
511.318	1	10
511.488	1	6
511.659	1	3
511.829	1	4
511.999	1	5
512.169	1	6
512.339	1	5
512.509	1	7
512.680	1	-2
512.850	1	4
513.020	1	9
513.190	1	-3
513.360	1	11
513.530	1	-2
513.700	1	6
513.871	1	-6
514.041	1	4
514.211	1	7
514.381	1	10
514.551	1	8
514.721	1	6
514.892	1	3
515.062	1	6
515.232	1	3
515.402	1	6
515.572	1	7
515.742	1	7
515.912	1	6
516.083	1	7
516.253	1	15
516.423	1	2
516.593	1	12
516.763	1	8
516.933	1	5
517.104	1	9
517.274	1	2
517.444	1	4
517.614	1	5
517.784	1	6
517.954	1	3
518.124	1	2
518.294	1	7
518.465	1	2
518.635	1	9
518.805	1	5
518.975	1	9
519.145	1	9
519.315	1	4
519.485	1	0
519.656	1	2
519.826	1	-10
519.996	1	10
520.166	1	5
520.336	1	9
520.506	1	2
520.676	1	7
520.846	1	1
521.017	1	8
521.187	1	12
521.357	1	2
521.527	1	-3
521.697	1	3
521.867	1	6
522.037	1	5
522.207	1	4
522.377	1	15
522.548	1	-3
522.718	1	7
522.888	1	14
523.058	1	9
523.228	1	-12
523.398	1	-1
523.568	1	-9
523.738	1	6
523.909	1	-2
524.079	1	6
524.249	1	2
524.419	1	0
524.589	1	1
524.759	1	11
524.929	1	3
525.099	1	7
525.269	1	3
525.439	1	-2
525.610	1	8
525.780	1	9
525.950	1	8
526.120	1	-3
526.290	1	-3
526.460	1	-1
526.630	1	8
526.800	1	2
526.970	1	7
527.140	1	10
527.311	1	3
527.481	1	16
527.651	1	7
527.821	1	1
527.991	1	6
528.161	1	0
528.331	1	-11
528.501	1	-4
528.671	1	5
528.841	1	2
529.011	1	9
529.181	1	3
529.352	1	12
529.522	1	-4
529.692	1	10
529.862	1	0
530.032	1	-3
530.202	1	-1
530.372	1	7
530.542	1	-1
530.712	1	6
530.882	1	9
531.052	1	8
531.222	1	3
531.392	1	-5
531.563	1	15
531.733	1	4
531.903	1	-5
532.073	1	-3
532.243	1	3
532.413	1	16
532.583	1	5
532.753	1	2
532.923	1	14
533.093	1	-5
533.263	1	-2
533.433	1	-10
533.603	1	-4
533.773	1	-2
533.943	1	2
534.113	1	-1
534.284	1	6
534.454	1	4
534.624	1	0
534.794	1	-2
534.964	1	-1
535.134	1	-7
535.304	1	9
535.474	1	7
535.644	1	14
535.814	1	4
535.984	1	2
536.154	1	3
536.324	1	3
536.494	1	15
536.664	1	7
536.834	1	-6
537.004	1	5
537.174	1	9
537.344	1	7
537.514	1	-4
537.685	1	4
537.855	1	4
538.025	1	5
538.195	1	1
538.365	1	4
538.535	1	-2
538.705	1	-1
538.875	1	9
539.045	1	4
539.215	1	-4
539.385	1	-2
539.555	1	-2
539.725	1	7
539.895	1	4
540.065	1	-4
540.235	1	7
540.405	1	4
540.575	1	2
540.745	1	2
540.915	1	-5
541.085	1	-6
541.255	1	-1
541.425	1	2
541.595	1	3
541.765	1	11
541.935	1	0
542.105	1	0
542.275	1	8
542.445	1	2
542.615	1	0
542.785	1	-1
542.955	1	13
543.125	1	3
543.295	1	8
543.465	1	11
543.635	1	-5
543.805	1	8
543.975	1	3
544.145	1	7
544.315	1	-1
544.485	1	0
544.655	1	9
544.825	1	7
544.995	1	2
545.165	1	4
545.335	1	11
545.505	1	1
545.675	1	11
545.845	1	12
546.015	1	-12
546.185	1	-4
546.355	1	-2
546.525	1	10
546.695	1	2
546.865	1	8
547.035	1	-2
547.205	1	9
547.375	1	7
547.545	1	10
547.715	1	2
547.885	1	-2
548.055	1	0
548.225	1	7
548.395	1	5
548.565	1	15
548.735	1	3
548.905	1	5
549.075	1	-2
549.245	1	7
549.415	1	0
549.585	1	0
549.755	1	-5
549.925	1	9
550.095	1	-5
550.265	1	5
550.435	1	-3
550.605	1	13
550.775	1	-2
550.945	1	3
551.115	1	8
551.285	1	-1
551.455	1	-1
551.625	1	-6
551.795	1	5
551.965	1	-4
552.135	1	3
552.305	1	6
552.475	1	4
552.645	1	-11
552.815	1	-2
552.985	1	-2
553.155	1	6
553.325	1	-9
553.495	1	5
553.665	1	9
553.835	1	8
554.004	1	6
554.174	1	5
554.344	1	2
554.514	1	-8
554.684	1	7
554.854	1	-2
555.024	1	10
555.194	1	-4
555.364	1	-1
555.534	1	-9
555.704	1	9
555.874	1	3
556.044	1	1
556.214	1	12
556.384	1	3
556.554	1	2
556.724	1	-2
556.894	1	0
557.064	1	4
557.234	1	9
557.404	1	4
557.573	1	2
557.743	1	0
557.913	1	-7
558.083	1	8
558.253	1	-3
558.423	1	7
558.593	1	-1
558.763	1	3
558.933	1	-8
559.103	1	1
559.273	1	9
559.443	1	6
559.613	1	-3
559.783	1	-4
559.953	1	-2
560.122	1	-2
560.292	1	-4
560.462	1	-5
560.632	1	2
560.802	1	4
560.972	1	-5
561.142	1	4
561.312	1	-4
561.482	1	4
561.652	1	2
561.822	1	5
561.992	1	0
562.162	1	-8
562.331	1	-1
562.501	1	0
562.671	1	8
562.841	1	-6
563.011	1	5
563.181	1	9
563.351	1	-12
563.521	1	-2
563.691	1	-1
563.861	1	-2
564.031	1	-1
564.201	1	5
564.370	1	-3
564.540	1	-1
564.710	1	-4
564.880	1	6
565.050	1	9
565.220	1	3
565.390	1	4
565.560	1	5
565.730	1	7
565.900	1	0
566.069	1	12
566.239	1	6
566.409	1	12
566.579	1	9
566.749	1	-3
566.919	1	-7
567.089	1	-20
567.259	1	-1
567.429	1	2
567.599	1	6
567.768	1	2
567.938	1	16
568.108	1	3
568.278	1	5
568.448	1	-1
568.618	1	12
568.788	1	-2
568.958	1	4
569.128	1	-1
569.297	1	-1
569.467	1	8
569.637	1	1
569.807	1	5
569.977	1	-3
570.147	1	2
570.317	1	1
570.487	1	-2
570.656	1	4
570.826	1	-2
570.996	1	12
571.166	1	10
571.336	1	-4
571.506	1	-3
571.676	1	5
571.846	1	5
572.015	1	-8
572.185	1	-6
572.355	1	-5
572.525	1	-14
572.695	1	2
572.865	1	5
573.035	1	8
573.205	1	3
573.374	1	6
573.544	1	-2
573.714	1	-6
573.884	1	-2
574.054	1	2
574.224	1	10
574.394	1	-4
574.563	1	-3
574.733	1	2
574.903	1	3
575.073	1	4
575.243	1	4
575.413	1	-1
575.583	1	-3
575.752	1	-10
575.922	1	16
576.092	1	-9
576.262	1	-1
576.432	1	-1
576.602	1	7
576.772	1	0
576.941	1	-7
577.111	1	-1
577.281	1	7
577.451	1	3
577.621	1	10
577.791	1	1
577.960	1	-6
578.130	1	2
578.300	1	-9
578.470	1	7
578.640	1	-3
578.810	1	-5
578.979	1	-5
579.149	1	5
579.319	1	-4
579.489	1	12
579.659	1	-4
579.829	1	-6
579.998	1	-9
580.168	1	-1
580.338	1	9
580.508	1	4
580.678	1	-3
580.848	1	-3
581.017	1	-3
581.187	1	-3
581.357	1	5
581.527	1	8
581.697	1	6
581.867	1	10
582.036	1	-6
582.206	1	3
582.376	1	2
582.546	1	-3
582.716	1	7
582.885	1	-5
583.055	1	-9
583.225	1	3
583.395	1	0
583.565	1	10
583.735	1	1
583.904	1	5
584.074	1	-1
584.244	1	-1
584.414	1	-10
584.584	1	-2
584.753	1	0
584.923	1	-3
585.093	1	5
585.263	1	2
585.433	1	6
585.602	1	7
585.772	1	18
585.942	1	0
586.112	1	-2
586.282	1	7
586.451	1	7
586.621	1	-4
586.791	1	-2
586.961	1	0
587.131	1	8
587.300	1	4
587.470	1	1
587.640	1	-7
587.810	1	-14
587.980	1	9
588.149	1	9
588.319	1	8
588.489	1	7
588.659	1	4
588.829	1	6
588.998	1	-2
589.168	1	9
589.338	1	-1
589.508	1	1
589.677	1	7
589.847	1	-1
590.017	1	-2
590.187	1	1
590.357	1	0
590.526	1	-2
590.696	1	3
590.866	1	-2
591.036	1	8
591.205	1	5
591.375	1	4
591.545	1	-6
591.715	1	-1
591.885	1	3
592.054	1	15
592.224	1	-9
592.394	1	-11
592.564	1	8
592.733	1	5
592.903	1	3
593.073	1	-6
593.243	1	2
593.412	1	-6
593.582	1	3
593.752	1	2
593.922	1	-5
594.091	1	0
594.261	1	-17
594.431	1	1
594.601	1	-5
594.771	1	7
594.940	1	-3
595.110	1	3
595.280	1	5
595.450	1	-4
595.619	1	1
595.789	1	7
595.959	1	-4
596.129	1	0
596.298	1	9
596.468	1	-1
596.638	1	1
596.808	1	-8
596.977	1	-6
597.147	1	-1
597.317	1	-3
597.487	1	5
597.656	1	0
597.826	1	11
597.996	1	-6
598.166	1	3
598.335	1	-7
598.505	1	4
598.675	1	-3
598.844	1	9
599.014	1	-9
599.184	1	2
599.354	1	11
599.523	1	-5
599.693	1	-5
599.863	1	1
600.033	1	2
600.202	1	-8
600.372	1	-5
600.542	1	-3
600.712	1	0
600.881	1	3
601.051	1	12
601.221	1	4
601.390	1	2
601.560	1	1
601.730	1	-7
601.900	1	4
602.069	1	-2
602.239	1	10
602.409	1	9
602.578	1	-2
602.748	1	7
602.918	1	3
603.088	1	12
603.257	1	-7
603.427	1	5
603.597	1	3
603.767	1	0
603.936	1	6
604.106	1	-5
604.276	1	4
604.445	1	-10
604.615	1	13
604.785	1	6
604.954	1	5
605.124	1	15
605.294	1	-6
605.464	1	-1
605.633	1	5
605.803	1	8
605.973	1	-2
606.142	1	7
606.312	1	10
606.482	1	-10
606.652	1	7
606.821	1	5
606.991	1	4
607.161	1	-2
607.330	1	3
607.500	1	5
607.670	1	-4
607.839	1	-1
608.009	1	-7
608.179	1	1
608.348	1	1
608.518	1	14
608.688	1	1
608.858	1	4
609.027	1	13
609.197	1	2
609.367	1	-3
609.536	1	-18
609.706	1	0
609.876	1	6
610.045	1	-4
610.215	1	7
610.385	1	-7
610.554	1	7
610.724	1	0
610.894	1	4
611.063	1	9
611.233	1	6
611.403	1	0
611.572	1	4
611.742	1	-6
611.912	1	4
612.081	1	10
612.251	1	7
612.421	1	7
612.590	1	4
612.760	1	2
612.930	1	9
613.099	1	-2
613.269	1	7
613.439	1	-7
613.608	1	1
613.778	1	0
613.948	1	5
614.117	1	4
614.287	1	1
614.457	1	-1
614.626	1	-4
614.796	1	0
614.966	1	4
615.135	1	8
615.305	1	7
615.475	1	6
615.644	1	9
615.814	1	8
615.984	1	-1
616.153	1	-1
616.323	1	9
616.493	1	-9
616.662	1	-1
616.832	1	0
617.002	1	2
617.171	1	16
617.341	1	17
617.511	1	-2
617.680	1	-7
617.850	1	3
618.019	1	-4
618.189	1	11
618.359	1	7
618.528	1	4
618.698	1	6
618.868	1	4
619.037	1	0
619.207	1	-5
619.377	1	-1
619.546	1	9
619.716	1	6
619.885	1	-4
620.055	1	-4
620.225	1	0
620.394	1	-3
620.564	1	3
620.734	1	-2
620.903	1	-6
621.073	1	4
621.242	1	5
621.412	1	-5
621.582	1	9
621.751	1	-4
621.921	1	3
622.091	1	-1
622.260	1	2
622.430	1	8
622.599	1	6
622.769	1	0
622.939	1	4
623.108	1	3
623.278	1	0
623.448	1	5
623.617	1	12
623.787	1	5
623.956	1	6
624.126	1	3
624.296	1	1
624.465	1	4
624.635	1	0
624.804	1	-5
624.974	1	1
625.144	1	-3
625.313	1	14
625.483	1	4
625.652	1	2
625.822	1	6
625.992	1	-4
626.161	1	0
626.331	1	2
626.501	1	8
626.670	1	-7
626.840	1	2
627.009	1	2
627.179	1	1
627.348	1	6
627.518	1	11
627.688	1	-5
627.857	1	9
628.027	1	4
628.196	1	10
628.366	1	-8
628.536	1	2
628.705	1	-3
628.875	1	-6
629.044	1	5
629.214	1	9
629.384	1	12
629.553	1	-6
629.723	1	7
629.892	1	2
630.062	1	7
630.232	1	10
630.401	1	13
630.571	1	-2
630.740	1	2
630.910	1	15
631.079	1	3
631.249	1	-3
631.419	1	9
631.588	1	7
631.758	1	2
631.927	1	14
632.097	1	3
632.266	1	4
632.436	1	2
632.606	1	7
632.775	1	0
632.945	1	1
633.114	1	-7
633.284	1	1
633.453	1	0
633.623	1	16
633.793	1	-2
633.962	1	12
634.132	1	8
634.301	1	10
634.471	1	8
634.640	1	-2
634.810	1	5
634.979	1	-11
635.149	1	-1
635.319	1	2
635.488	1	1
635.658	1	-1
635.827	1	3
635.997	1	12
636.166	1	8
636.336	1	-1
636.505	1	8
636.675	1	6
636.845	1	-4
637.014	1	3
637.184	1	4
637.353	1	1
637.523	1	-1
637.692	1	6
637.862	1	-4
638.031	1	-7
638.201	1	7
638.370	1	14
638.540	1	-3
638.710	1	-6
638.879	1	-4
639.049	1	9
639.218	1	-3
639.388	1	2
639.557	1	10
639.727	1	14
639.896	1	4
640.066	1	-2
640.235	1	5
640.405	1	4
640.574	1	1
640.744	1	1
640.914	1	6
641.083	1	5
641.253	1	3
641.422	1	-5
641.592	1	11
641.761	1	-10
641.931	1	10
642.100	1	1
642.270	1	8
642.439	1	-1
642.609	1	3
642.778	1	1
642.948	1	15
643.117	1	5
643.287	1	2
643.456	1	-4
643.626	1	-5
643.795	1	6
643.965	1	5
644.134	1	-1
644.304	1	1
644.473	1	-6
644.643	1	8
644.812	1	-3
644.982	1	4
645.151	1	-2
645.321	1	5
645.490	1	15
645.660	1	-4
645.829	1	-3
645.999	1	-7
646.168	1	16
646.338	1	-2
646.507	1	5
646.677	1	13
646.846	1	5
647.016	1	11
647.185	1	3
647.355	1	10
647.524	1	-7
647.694	1	-11
647.863	1	-6
648.033	1	8
648.202	1	6
648.372	1	-2
648.541	1	1
648.711	1	13
648.880	1	5
649.050	1	13
649.219	1	9
649.389	1	1
649.558	1	7
649.728	1	2
649.897	1	-7
650.067	1	18
650.236	1	3
650.406	1	-5
650.575	1	-2
650.745	1	12
650.914	1	8
651.084	1	-1
651.253	1	-2
651.423	1	1
651.592	1	0
651.762	1	4
651.931	1	5
652.101	1	-4
652.270	1	2
652.440	1	11
652.609	1	3
652.778	1	7
652.948	1	1
653.117	1	4
653.287	1	-4
653.456	1	6
653.626	1	0
653.795	1	-1
653.965	1	-2
654.134	1	2
654.304	1	-1
654.473	1	8
654.643	1	1
654.812	1	18
654.982	1	5
655.151	1	10
655.320	1	2
655.490	1	-2
655.659	1	7
655.829	1	6
655.998	1	4
656.168	1	4
656.337	1	8
656.507	1	-7
656.676	1	5
656.846	1	4
657.015	1	7
657.184	1	-1
657.354	1	3
657.523	1	1
657.693	1	9
657.862	1	-1
658.032	1	6
658.201	1	-7
658.371	1	2
658.540	1	0
658.709	1	14
658.879	1	5
659.048	1	5
659.218	1	-1
659.387	1	3
659.557	1	-2
659.726	1	3
659.895	1	4
660.065	1	-7
660.234	1	0
660.404	1	15
660.573	1	9
660.743	1	1
660.912	1	0
661.081	1	7
661.251	1	-2
661.420	1	8
661.590	1	0
661.759	1	6
661.929	1	-3
662.098	1	12
662.267	1	-1
662.437	1	10
662.606	1	0
662.776	1	-1
662.945	1	11
663.115	1	8
663.284	1	8
663.453	1	-5
663.623	1	1
663.792	1	2
663.962	1	8
664.131	1	-6
664.300	1	0
664.470	1	-2
664.639	1	0
664.809	1	8
664.978	1	13
665.148	1	5
665.317	1	8
665.486	1	-3
665.656	1	2
665.825	1	8
665.995	1	1
666.164	1	6
666.333	1	-3
666.503	1	-12
666.672	1	11
666.842	1	-1
667.011	1	1
667.180	1	-2
667.350	1	5
667.519	1	1
667.689	1	2
667.858	1	5
668.027	1	-2
668.197	1	-7
668.366	1	3
668.536	1	7
668.705	1	-9
668.874	1	14
669.044	1	4
669.213	1	16
669.382	1	1
669.552	1	7
669.721	1	3
669.891	1	-1
670.060	1	0
670.229	1	0
670.399	1	7
670.568	1	4
670.738	1	9
670.907	1	4
671.076	1	8
671.246	1	6
671.415	1	13
671.584	1	13
671.754	1	4
671.923	1	-1
672.093	1	13
672.262	1	-3
672.431	1	11
672.601	1	7
672.770	1	1
672.939	1	6
673.109	1	-1
673.278	1	-4
673.448	1	2
673.617	1	11
673.786	1	-4
