325.333	1	16
325.504	1	7
325.675	1	14
325.846	1	13
326.017	1	15
326.188	1	18
326.359	1	10
326.531	1	11
326.702	1	17
326.873	1	13
327.044	1	25
327.215	1	19
327.386	1	9
327.557	1	10
327.728	1	22
327.899	1	7
328.070	1	26
328.241	1	19
328.412	1	10
328.583	1	17
328.754	1	26
328.926	1	20
329.097	1	13
329.268	1	20
329.439	1	23
329.610	1	33
329.781	1	16
329.952	1	20
330.123	1	12
330.294	1	16
330.465	1	7
330.636	1	17
330.807	1	18
330.978	1	20
331.149	1	13
331.320	1	22
331.492	1	27
331.663	1	14
331.834	1	29
332.005	1	27
332.176	1	18
332.347	1	13
332.518	1	29
332.689	1	21
332.860	1	15
333.031	1	24
333.202	1	6
333.373	1	25
333.544	1	20
333.715	1	11
333.886	1	24
334.057	1	13
334.228	1	20
334.399	1	35
334.570	1	23
334.741	1	22
334.912	1	23
335.084	1	41
335.255	1	38
335.426	1	22
335.597	1	24
335.768	1	40
335.939	1	15
336.110	1	27
336.281	1	34
336.452	1	27
336.623	1	32
336.794	1	26
336.965	1	17
337.136	1	34
337.307	1	27
337.478	1	22
337.649	1	25
337.820	1	20
337.991	1	30
338.162	1	24
338.333	1	28
338.504	1	35
338.675	1	32
338.846	1	18
339.017	1	34
339.188	1	23
339.359	1	32
339.530	1	21
339.701	1	33
339.872	1	36
340.043	1	27
340.214	1	41
340.385	1	22
340.556	1	42
340.727	1	34
340.898	1	33
341.069	1	26
341.240	1	27
341.411	1	30
341.582	1	36
341.753	1	32
341.924	1	38
342.095	1	30
342.266	1	46
342.437	1	31
342.608	1	30
342.779	1	29
342.950	1	34
343.121	1	32
343.292	1	37
343.463	1	54
343.634	1	31
343.805	1	37
343.976	1	47
344.147	1	50
344.318	1	23
344.489	1	31
344.660	1	40
344.831	1	47
345.002	1	40
345.173	1	38
345.344	1	39
345.515	1	36
345.686	1	37
345.857	1	52
346.028	1	45
346.199	1	41
346.370	1	48
346.541	1	42
346.712	1	29
346.883	1	28
347.054	1	37
347.225	1	39
347.396	1	31
347.567	1	38
347.738	1	36
347.909	1	43
348.080	1	41
348.251	1	42
348.422	1	46
348.593	1	40
348.764	1	40
348.935	1	37
349.106	1	33
349.277	1	43
349.448	1	45
349.619	1	35
349.790	1	50
349.961	1	35
350.132	1	53
350.303	1	48
350.474	1	46
350.645	1	57
350.816	1	48
350.987	1	51
351.157	1	48
351.328	1	49
351.499	1	49
351.670	1	54
351.841	1	51
352.012	1	39
352.183	1	62
352.354	1	47
352.525	1	52
352.696	1	45
352.867	1	40
353.038	1	49
353.209	1	51
353.380	1	41
353.551	1	57
353.722	1	57
353.893	1	64
354.064	1	58
354.235	1	40
354.406	1	35
354.576	1	45
354.747	1	50
354.918	1	42
355.089	1	51
355.260	1	47
355.431	1	41
355.602	1	48
355.773	1	50
355.944	1	48
356.115	1	56
356.286	1	53
356.457	1	52
356.628	1	47
356.799	1	49
356.970	1	62
357.141	1	46
357.311	1	71
357.482	1	52
357.653	1	50
357.824	1	60
357.995	1	56
358.166	1	59
358.337	1	59
358.508	1	65
358.679	1	52
358.850	1	54
359.021	1	62
359.192	1	69
359.363	1	53
359.533	1	50
359.704	1	56
359.875	1	57
360.046	1	70
360.217	1	62
360.388	1	71
360.559	1	62
360.730	1	49
360.901	1	56
361.072	1	60
361.243	1	47
361.414	1	68
361.584	1	47
361.755	1	60
361.926	1	59
362.097	1	48
362.268	1	70
362.439	1	45
362.610	1	62
362.781	1	49
362.952	1	69
363.123	1	48
363.293	1	68
363.464	1	62
363.635	1	56
363.806	1	49
363.977	1	51
364.148	1	55
364.319	1	56
364.490	1	70
364.661	1	64
364.832	1	69
365.002	1	79
365.173	1	69
365.344	1	58
365.515	1	54
365.686	1	59
365.857	1	61
366.028	1	64
366.199	1	60
366.370	1	64
366.540	1	64
366.711	1	70
366.882	1	58
367.053	1	69
367.224	1	56
367.395	1	69
367.566	1	55
367.737	1	59
367.908	1	63
368.078	1	52
368.249	1	68
368.420	1	67
368.591	1	77
368.762	1	62
368.933	1	57
369.104	1	74
369.274	1	70
369.445	1	71
369.616	1	66
369.787	1	58
369.958	1	64
370.129	1	60
370.300	1	68
370.471	1	65
370.641	1	51
370.812	1	73
370.983	1	57
371.154	1	69
371.325	1	55
371.496	1	74
371.667	1	61
371.837	1	77
372.008	1	55
372.179	1	62
372.350	1	60
372.521	1	68
372.692	1	63
372.863	1	66
373.033	1	64
373.204	1	72
373.375	1	49
373.546	1	70
373.717	1	73
373.888	1	67
374.059	1	54
374.229	1	81
374.400	1	64
374.571	1	59
374.742	1	68
374.913	1	61
375.084	1	55
375.254	1	45
375.425	1	68
375.596	1	67
375.767	1	64
375.938	1	55
376.109	1	61
376.279	1	62
376.450	1	60
376.621	1	68
376.792	1	76
376.963	1	65
377.134	1	67
377.304	1	76
377.475	1	59
377.646	1	59
377.817	1	74
377.988	1	80
378.159	1	83
378.329	1	71
378.500	1	70
378.671	1	67
378.842	1	78
379.013	1	76
379.184	1	65
379.354	1	79
379.525	1	72
379.696	1	76
379.867	1	70
380.038	1	73
380.209	1	79
380.379	1	74
380.550	1	54
380.721	1	67
380.892	1	69
381.063	1	78
381.233	1	72
381.404	1	69
381.575	1	81
381.746	1	88
381.917	1	71
382.087	1	78
382.258	1	73
382.429	1	80
382.600	1	72
382.771	1	68
382.941	1	85
383.112	1	78
383.283	1	73
383.454	1	68
383.625	1	81
383.795	1	86
383.966	1	74
384.137	1	88
384.308	1	72
384.479	1	78
384.649	1	71
384.820	1	75
384.991	1	77
385.162	1	89
385.333	1	79
385.503	1	73
385.674	1	88
385.845	1	82
386.016	1	95
386.187	1	80
386.357	1	90
386.528	1	82
386.699	1	82
386.870	1	87
387.041	1	87
387.211	1	86
387.382	1	84
387.553	1	93
387.724	1	82
387.894	1	79
388.065	1	94
388.236	1	75
388.407	1	89
388.578	1	85
388.748	1	90
388.919	1	95
389.090	1	94
389.261	1	84
389.431	1	80
389.602	1	86
389.773	1	88
389.944	1	85
390.114	1	90
390.285	1	87
390.456	1	81
390.627	1	94
390.798	1	86
390.968	1	94
391.139	1	90
391.310	1	81
391.481	1	86
391.651	1	86
391.822	1	87
391.993	1	83
392.164	1	82
392.334	1	84
392.505	1	93
392.676	1	80
392.847	1	83
393.017	1	80
393.188	1	81
393.359	1	96
393.530	1	96
393.700	1	83
393.871	1	86
394.042	1	79
394.213	1	97
394.383	1	94
394.554	1	75
394.725	1	82
394.896	1	99
395.066	1	91
395.237	1	89
395.408	1	94
395.579	1	101
395.749	1	104
395.920	1	99
396.091	1	90
396.262	1	93
396.432	1	86
396.603	1	97
396.774	1	94
396.945	1	95
397.115	1	102
397.286	1	107
397.457	1	93
397.627	1	82
397.798	1	98
397.969	1	96
398.140	1	84
398.310	1	93
398.481	1	92
398.652	1	94
398.823	1	94
398.993	1	95
399.164	1	98
399.335	1	101
399.505	1	89
399.676	1	95
399.847	1	85
400.018	1	88
400.188	1	100
400.359	1	106
400.530	1	94
400.700	1	97
400.871	1	98
401.042	1	97
401.213	1	93
401.383	1	96
401.554	1	88
401.725	1	103
401.895	1	88
402.066	1	96
402.237	1	88
402.408	1	94
402.578	1	93
402.749	1	95
402.920	1	101
403.090	1	94
403.261	1	94
403.432	1	92
403.603	1	95
403.773	1	99
403.944	1	96
404.115	1	98
404.285	1	94
404.456	1	116
404.627	1	94
404.797	1	102
404.968	1	100
405.139	1	98
405.310	1	103
405.480	1	102
405.651	1	96
405.822	1	101
405.992	1	101
406.163	1	94
406.334	1	109
406.504	1	93
406.675	1	103
406.846	1	113
407.016	1	91
407.187	1	94
407.358	1	95
407.528	1	107
407.699	1	104
407.870	1	110
408.041	1	99
408.211	1	102
408.382	1	99
408.553	1	111
408.723	1	108
408.894	1	99
409.065	1	109
409.235	1	111
409.406	1	95
409.577	1	106
409.747	1	104
409.918	1	108
410.089	1	102
410.259	1	101
410.430	1	107
410.601	1	96
410.771	1	108
410.942	1	98
411.113	1	100
411.283	1	98
411.454	1	111
411.625	1	103
411.795	1	91
411.966	1	91
412.137	1	116
412.307	1	93
412.478	1	111
412.649	1	96
412.819	1	112
412.990	1	110
413.161	1	101
413.331	1	87
413.502	1	100
413.672	1	89
413.843	1	102
414.014	1	100
414.184	1	111
414.355	1	95
414.526	1	88
414.696	1	96
414.867	1	89
415.038	1	102
415.208	1	94
415.379	1	98
415.550	1	100
415.720	1	85
415.891	1	97
416.062	1	102
416.232	1	111
416.403	1	100
416.573	1	93
416.744	1	108
416.915	1	93
417.085	1	99
417.256	1	115
417.427	1	93
417.597	1	91
417.768	1	99
417.939	1	94
418.109	1	91
418.280	1	102
418.450	1	114
418.621	1	102
418.792	1	87
418.962	1	105
419.133	1	102
419.304	1	95
419.474	1	104
419.645	1	95
419.815	1	95
419.986	1	105
420.157	1	98
420.327	1	93
420.498	1	101
420.669	1	97
420.839	1	107
421.010	1	101
421.180	1	100
421.351	1	106
421.522	1	98
421.692	1	106
421.863	1	97
422.033	1	101
422.204	1	103
422.375	1	98
422.545	1	103
422.716	1	90
422.886	1	103
423.057	1	94
423.228	1	88
423.398	1	92
423.569	1	102
423.740	1	97
423.910	1	88
424.081	1	96
424.251	1	96
424.422	1	93
424.593	1	103
424.763	1	96
424.934	1	92
425.104	1	97
425.275	1	82
425.445	1	90
425.616	1	97
425.787	1	93
425.957	1	88
426.128	1	82
426.298	1	89
426.469	1	80
426.640	1	97
426.810	1	84
426.981	1	86
427.151	1	89
427.322	1	89
427.493	1	83
427.663	1	99
427.834	1	89
428.004	1	101
428.175	1	87
428.345	1	72
428.516	1	84
428.687	1	98
428.857	1	85
429.028	1	92
429.198	1	80
429.369	1	94
429.540	1	94
429.710	1	83
429.881	1	84
430.051	1	84
430.222	1	98
430.392	1	88
430.563	1	98
430.734	1	76
430.904	1	95
431.075	1	93
431.245	1	83
431.416	1	82
431.586	1	95
431.757	1	96
431.927	1	92
432.098	1	94
432.269	1	88
432.439	1	91
432.610	1	94
432.780	1	89
432.951	1	91
433.121	1	91
433.292	1	102
433.462	1	93
433.633	1	83
433.804	1	94
433.974	1	86
434.145	1	90
434.315	1	95
434.486	1	75
434.656	1	95
434.827	1	87
434.997	1	99
435.168	1	90
435.339	1	112
435.509	1	91
435.680	1	83
435.850	1	82
436.021	1	79
436.191	1	85
436.362	1	81
436.532	1	92
436.703	1	92
436.873	1	79
437.044	1	93
437.214	1	77
437.385	1	69
437.556	1	90
437.726	1	85
437.897	1	74
438.067	1	75
438.238	1	75
438.408	1	85
438.579	1	69
438.749	1	79
438.920	1	93
439.090	1	80
439.261	1	89
439.431	1	69
439.602	1	82
439.772	1	77
439.943	1	77
440.113	1	78
440.284	1	95
440.455	1	76
440.625	1	84
440.796	1	79
440.966	1	84
441.137	1	84
441.307	1	79
441.478	1	79
441.648	1	95
441.819	1	87
441.989	1	86
442.160	1	87
442.330	1	69
442.501	1	74
442.671	1	72
442.842	1	69
443.012	1	84
443.183	1	74
443.353	1	87
443.524	1	84
443.694	1	83
443.865	1	86
444.035	1	73
444.206	1	73
444.376	1	82
444.547	1	71
444.717	1	72
444.888	1	66
445.058	1	74
445.229	1	75
445.399	1	84
445.570	1	79
445.740	1	81
445.911	1	79
446.081	1	65
446.252	1	75
446.422	1	74
446.593	1	75
446.763	1	75
446.934	1	75
447.104	1	79
447.275	1	81
447.445	1	80
447.616	1	70
447.786	1	70
447.957	1	75
448.127	1	84
448.298	1	76
448.468	1	71
448.639	1	76
448.809	1	67
448.979	1	78
449.150	1	66
449.320	1	75
449.491	1	65
449.661	1	68
449.832	1	69
450.002	1	61
450.173	1	77
450.343	1	71
450.514	1	68
450.684	1	74
450.855	1	74
451.025	1	70
451.196	1	66
451.366	1	84
451.537	1	72
451.707	1	80
451.878	1	60
452.048	1	61
452.218	1	64
452.389	1	74
452.559	1	81
452.730	1	73
452.900	1	57
453.071	1	80
453.241	1	67
453.412	1	65
453.582	1	69
453.753	1	83
453.923	1	57
454.093	1	60
454.264	1	74
454.434	1	74
454.605	1	59
454.775	1	65
454.946	1	63
455.116	1	63
455.287	1	55
455.457	1	62
455.628	1	52
455.798	1	74
455.968	1	69
456.139	1	74
456.309	1	61
456.480	1	56
456.650	1	66
456.821	1	64
456.991	1	69
457.161	1	71
457.332	1	69
457.502	1	69
457.673	1	62
457.843	1	62
458.014	1	68
458.184	1	62
458.355	1	74
458.525	1	60
458.695	1	58
458.866	1	55
459.036	1	67
459.207	1	62
459.377	1	68
459.548	1	66
459.718	1	63
459.888	1	64
460.059	1	64
460.229	1	53
460.400	1	52
460.570	1	53
460.740	1	68
460.911	1	58
461.081	1	77
461.252	1	55
461.422	1	61
461.593	1	59
461.763	1	69
461.933	1	58
462.104	1	56
462.274	1	49
462.445	1	56
462.615	1	63
462.785	1	75
462.956	1	53
463.126	1	60
463.297	1	69
463.467	1	65
463.638	1	69
463.808	1	58
463.978	1	57
464.149	1	51
464.319	1	62
464.490	1	51
464.660	1	51
464.830	1	61
465.001	1	53
465.171	1	55
465.342	1	63
465.512	1	52
465.682	1	53
465.853	1	55
466.023	1	56
466.194	1	58
466.364	1	57
466.534	1	41
466.705	1	72
466.875	1	46
467.045	1	43
467.216	1	49
467.386	1	44
467.557	1	65
467.727	1	58
467.897	1	50
468.068	1	51
468.238	1	62
468.409	1	57
468.579	1	64
468.749	1	58
468.920	1	42
469.090	1	54
469.260	1	56
469.431	1	40
469.601	1	59
469.772	1	57
469.942	1	55
470.112	1	48
470.283	1	56
470.453	1	51
470.623	1	56
470.794	1	45
470.964	1	42
471.135	1	53
471.305	1	46
471.475	1	48
471.646	1	54
471.816	1	50
471.986	1	41
472.157	1	47
472.327	1	58
472.497	1	43
472.668	1	41
472.838	1	50
473.009	1	55
473.179	1	50
473.349	1	53
473.520	1	58
473.690	1	48
473.860	1	57
474.031	1	43
474.201	1	49
474.371	1	60
474.542	1	43
474.712	1	43
474.882	1	49
475.053	1	49
475.223	1	50
475.394	1	43
475.564	1	39
475.734	1	43
475.905	1	42
476.075	1	53
476.245	1	48
476.416	1	47
476.586	1	48
476.756	1	56
476.927	1	38
477.097	1	44
477.267	1	42
477.438	1	59
477.608	1	57
477.778	1	43
477.949	1	34
478.119	1	46
478.289	1	36
478.460	1	41
478.630	1	46
478.800	1	50
478.971	1	39
479.141	1	53
479.311	1	44
479.482	1	54
479.652	1	43
479.822	1	38
479.993	1	48
480.163	1	43
480.333	1	56
480.504	1	51
480.674	1	47
480.844	1	48
481.015	1	54
481.185	1	54
481.355	1	46
481.525	1	35
481.696	1	43
481.866	1	37
482.036	1	42
482.207	1	51
482.377	1	41
482.547	1	48
482.718	1	36
482.888	1	50
483.058	1	46
483.229	1	36
483.399	1	50
483.569	1	36
483.740	1	46
483.910	1	43
484.080	1	48
484.250	1	34
484.421	1	37
484.591	1	20
484.761	1	43
484.932	1	41
485.102	1	40
485.272	1	44
485.443	1	47
485.613	1	36
485.783	1	41
485.953	1	40
486.124	1	43
486.294	1	42
486.464	1	45
486.635	1	45
486.805	1	36
486.975	1	26
487.146	1	37
487.316	1	36
487.486	1	44
487.656	1	44
487.827	1	31
487.997	1	44
488.167	1	36
488.338	1	47
488.508	1	47
488.678	1	44
488.848	1	38
489.019	1	35
489.189	1	37
489.359	1	42
489.529	1	34
489.700	1	35
489.870	1	45
490.040	1	25
490.211	1	33
490.381	1	34
490.551	1	38
490.721	1	42
490.892	1	25
491.062	1	37
491.232	1	31
491.402	1	34
491.573	1	43
491.743	1	37
491.913	1	38
492.084	1	38
492.254	1	30
492.424	1	33
492.594	1	30
492.765	1	36
492.935	1	35
493.105	1	23
493.275	1	39
493.446	1	31
493.616	1	27
493.786	1	44
493.956	1	32
494.127	1	27
494.297	1	24
494.467	1	31
494.637	1	39
494.808	1	41
494.978	1	34
495.148	1	32
495.318	1	28
495.489	1	29
495.659	1	34
495.829	1	42
495.999	1	39
496.170	1	40
496.340	1	28
496.510	1	35
496.680	1	31
496.851	1	38
497.021	1	35
497.191	1	30
497.361	1	26
497.532	1	33
497.702	1	25
497.872	1	32
498.042	1	24
498.213	1	24
498.383	1	35
498.553	1	37
498.723	1	32
498.894	1	34
499.064	1	37
499.234	1	36
499.404	1	39
499.574	1	39
499.745	1	39
499.915	1	35
500.085	1	24
500.255	1	20
500.426	1	36
500.596	1	23
500.766	1	12
500.936	1	23
501.106	1	18
501.277	1	23
501.447	1	39
501.617	1	24
501.787	1	29
501.958	1	40
502.128	1	40
502.298	1	36
502.468	1	25
502.638	1	33
502.809	1	24
502.979	1	28
503.149	1	26
503.319	1	30
503.489	1	21
503.660	1	30
503.830	1	18
504.000	1	34
504.170	1	31
504.340	1	19
504.511	1	33
504.681	1	19
504.851	1	29
505.021	1	22
505.192	1	9
505.362	1	34
505.532	1	15
505.702	1	33
505.872	1	23
506.043	1	34
506.213	1	35
506.383	1	31
506.553	1	34
506.723	1	13
506.893	1	32
507.064	1	31
507.234	1	33
507.404	1	30
507.574	1	25
507.744	1	30
507.915	1	21
508.085	1	23
508.255	1	24
508.425	1	14
508.595	1	24
508.766	1	22
508.936	1	35
509.106	1	23
509.276	1	35
509.446	1	16
509.616	1	15
509.787	1	23
509.957	1	17
510.127	1	12
510.297	1	17
510.467	1	23
510.638	1	18
510.808	1	36
510.978	1	13
511.148	1	25
511.318	1	35
511.488	1	28
511.659	1	25
511.829	1	16
511.999	1	29
512.169	1	30
512.339	1	24
512.509	1	21
512.680	1	19
512.850	1	26
513.020	1	30
513.190	1	16
513.360	1	37
513.530	1	18
513.700	1	34
513.871	1	20
514.041	1	11
514.211	1	29
514.381	1	30
514.551	1	20
514.721	1	30
514.892	1	18
515.062	1	24
515.232	1	16
515.402	1	18
515.572	1	27
515.742	1	26
515.912	1	21
516.083	1	27
516.253	1	22
516.423	1	12
516.593	1	25
516.763	1	22
516.933	1	26
517.104	1	26
517.274	1	5
517.444	1	18
517.614	1	7
517.784	1	19
517.954	1	16
518.124	1	19
518.294	1	21
518.465	1	18
518.635	1	19
518.805	1	27
518.975	1	18
519.145	1	20
519.315	1	20
519.485	1	15
519.656	1	13
519.826	1	9
519.996	1	15
520.166	1	15
520.336	1	17
520.506	1	23
520.676	1	17
520.846	1	19
521.017	1	20
521.187	1	19
521.357	1	12
521.527	1	9
521.697	1	11
521.867	1	26
522.037	1	20
522.207	1	16
522.377	1	22
522.548	1	7
522.718	1	15
522.888	1	17
523.058	1	24
523.228	1	11
523.398	1	13
523.568	1	12
523.738	1	14
523.909	1	15
524.079	1	13
524.249	1	11
524.419	1	7
524.589	1	18
524.759	1	29
524.929	1	19
525.099	1	16
525.269	1	24
525.439	1	3
525.610	1	20
525.780	1	11
525.950	1	28
526.120	1	5
526.290	1	7
526.460	1	15
526.630	1	20
526.800	1	17
526.970	1	22
527.140	1	11
527.311	1	9
527.481	1	22
527.651	1	20
527.821	1	16
527.991	1	14
528.161	1	21
528.331	1	8
528.501	1	15
528.671	1	19
528.841	1	15
529.011	1	14
529.181	1	15
529.352	1	17
529.522	1	12
529.692	1	13
529.862	1	11
530.032	1	6
530.202	1	12
530.372	1	15
530.542	1	20
530.712	1	14
530.882	1	17
531.052	1	14
531.222	1	13
531.392	1	18
531.563	1	19
531.733	1	15
531.903	1	8
532.073	1	10
532.243	1	16
532.413	1	26
532.583	1	19
532.753	1	1
532.923	1	21
533.093	1	12
533.263	1	28
533.433	1	7
533.603	1	4
533.773	1	16
533.943	1	7
534.113	1	22
534.284	1	16
534.454	1	2
534.624	1	7
534.794	1	21
534.964	1	17
535.134	1	9
535.304	1	15
535.474	1	21
535.644	1	12
535.814	1	5
535.984	1	18
536.154	1	17
536.324	1	9
536.494	1	23
536.664	1	18
536.834	1	15
537.004	1	9
537.174	1	22
537.344	1	16
537.514	1	11
537.685	1	19
537.855	1	14
538.025	1	27
538.195	1	16
538.365	1	15
538.535	1	12
538.705	1	15
538.875	1	7
539.045	1	10
539.215	1	0
539.385	1	13
539.555	1	10
539.725	1	7
539.895	1	20
540.065	1	15
540.235	1	21
540.405	1	12
540.575	1	13
540.745	1	23
540.915	1	6
541.085	1	2
541.255	1	9
541.425	1	12
541.595	1	4
541.765	1	20
541.935	1	9
542.105	1	13
542.275	1	11
542.445	1	15
542.615	1	11
542.785	1	8
542.955	1	13
543.125	1	2
543.295	1	20
543.465	1	14
543.635	1	-2
543.805	1	16
543.975	1	12
544.145	1	12
544.315	1	4
544.485	1	11
544.655	1	6
544.825	1	5
544.995	1	5
545.165	1	5
545.335	1	15
545.505	1	5
545.675	1	12
545.845	1	16
546.015	1	9
546.185	1	9
546.355	1	15
546.525	1	15
546.695	1	7
546.865	1	12
547.035	1	18
547.205	1	18
547.375	1	16
547.545	1	10
547.715	1	9
547.885	1	15
548.055	1	1
548.225	1	18
548.395	1	4
548.565	1	14
548.735	1	11
548.905	1	11
549.075	1	12
549.245	1	12
549.415	1	13
549.585	1	10
549.755	1	10
549.925	1	12
550.095	1	2
550.265	1	5
550.435	1	10
550.605	1	3
550.775	1	3
550.945	1	15
551.115	1	21
551.285	1	12
551.455	1	6
551.625	1	-2
551.795	1	11
551.965	1	8
552.135	1	3
552.305	1	9
552.475	1	14
552.645	1	4
552.815	1	9
552.985	1	10
553.155	1	3
553.325	1	7
553.495	1	15
553.665	1	3
553.835	1	13
554.004	1	8
554.174	1	8
554.344	1	15
554.514	1	2
554.684	1	9
554.854	1	2
555.024	1	17
555.194	1	5
555.364	1	2
555.534	1	0
555.704	1	7
555.874	1	9
556.044	1	12
556.214	1	6
556.384	1	21
556.554	1	7
556.724	1	3
556.894	1	5
557.064	1	5
557.234	1	2
557.404	1	4
557.573	1	11
557.743	1	3
557.913	1	-1
558.083	1	6
558.253	1	8
558.423	1	9
558.593	1	8
558.763	1	1
558.933	1	17
559.103	1	-1
559.273	1	20
559.443	1	13
559.613	1	11
559.783	1	-1
559.953	1	-3
560.122	1	12
560.292	1	-3
560.462	1	7
560.632	1	-2
560.802	1	8
560.972	1	-6
561.142	1	12
561.312	1	2
561.482	1	12
561.652	1	15
561.822	1	10
561.992	1	10
562.162	1	3
562.331	1	0
562.501	1	5
562.671	1	6
562.841	1	5
563.011	1	15
563.181	1	3
563.351	1	-5
563.521	1	10
563.691	1	6
563.861	1	21
564.031	1	6
564.201	1	9
564.370	1	13
564.540	1	11
564.710	1	-1
564.880	1	12
565.050	1	4
565.220	1	13
565.390	1	8
565.560	1	14
565.730	1	6
565.900	1	9
566.069	1	18
566.239	1	20
566.409	1	4
566.579	1	12
566.749	1	2
566.919	1	0
567.089	1	-10
567.259	1	8
567.429	1	6
567.599	1	12
567.768	1	5
567.938	1	9
568.108	1	2
568.278	1	10
568.448	1	9
568.618	1	14
568.788	1	8
568.958	1	8
569.128	1	0
569.297	1	-2
569.467	1	24
569.637	1	4
569.807	1	10
569.977	1	-1
570.147	1	9
570.317	1	5
570.487	1	1
570.656	1	2
570.826	1	9
570.996	1	10
571.166	1	5
571.336	1	7
571.506	1	2
571.676	1	10
571.846	1	10
572.015	1	10
572.185	1	4
572.355	1	5
572.525	1	2
572.695	1	9
572.865	1	8
573.035	1	12
573.205	1	7
573.374	1	1
573.544	1	15
573.714	1	4
573.884	1	2
574.054	1	2
574.224	1	4
574.394	1	3
574.563	1	-4
574.733	1	10
574.903	1	6
575.073	1	6
575.243	1	18
575.413	1	2
575.583	1	3
575.752	1	4
575.922	1	9
576.092	1	-11
576.262	1	11
576.432	1	0
576.602	1	8
576.772	1	11
576.941	1	1
577.111	1	0
577.281	1	7
577.451	1	24
577.621	1	5
577.791	1	4
577.960	1	5
578.130	1	7
578.300	1	0
578.470	1	9
578.640	1	8
578.810	1	11
578.979	1	9
579.149	1	7
579.319	1	10
579.489	1	5
579.659	1	4
579.829	1	0
579.998	1	-4
580.168	1	6
580.338	1	10
580.508	1	7
580.678	1	14
580.848	1	12
581.017	1	6
581.187	1	14
581.357	1	3
581.527	1	6
581.697	1	7
581.867	1	17
582.036	1	-5
582.206	1	9
582.376	1	8
582.546	1	4
582.716	1	8
582.885	1	2
583.055	1	-4
583.225	1	9
583.395	1	6
583.565	1	11
583.735	1	11
583.904	1	10
584.074	1	5
584.244	1	6
584.414	1	2
584.584	1	5
584.753	1	7
584.923	1	-1
585.093	1	7
585.263	1	3
585.433	1	7
585.602	1	11
585.772	1	23
585.942	1	7
586.112	1	7
586.282	1	5
586.451	1	16
586.621	1	-3
586.791	1	0
586.961	1	11
587.131	1	0
587.300	1	24
587.470	1	9
587.640	1	1
587.810	1	-4
587.980	1	4
588.149	1	4
588.319	1	12
588.489	1	15
588.659	1	4
588.829	1	11
588.998	1	10
589.168	1	4
589.338	1	3
589.508	1	1
589.677	1	7
589.847	1	6
590.017	1	7
590.187	1	-1
590.357	1	2
590.526	1	-5
590.696	1	13
590.866	1	0
591.036	1	7
591.205	1	5
591.375	1	8
591.545	1	2
591.715	1	2
591.885	1	8
592.054	1	3
592.224	1	10
592.394	1	3
592.564	1	7
592.733	1	7
592.903	1	5
593.073	1	3
593.243	1	15
593.412	1	3
593.582	1	6
593.752	1	10
593.922	1	10
594.091	1	13
594.261	1	-1
594.431	1	14
594.601	1	-4
594.771	1	5
594.940	1	5
595.110	1	10
595.280	1	6
595.450	1	9
595.619	1	6
595.789	1	-4
595.959	1	16
596.129	1	7
596.298	1	15
596.468	1	-2
596.638	1	5
596.808	1	0
596.977	1	-1
597.147	1	-5
597.317	1	9
597.487	1	7
597.656	1	12
597.826	1	16
597.996	1	4
598.166	1	4
598.335	1	5
598.505	1	2
598.675	1	9
598.844	1	15
599.014	1	-4
599.184	1	5
599.354	1	7
599.523	1	1
599.693	1	-1
599.863	1	9
600.033	1	7
600.202	1	8
600.372	1	-8
600.542	1	12
600.712	1	9
600.881	1	15
601.051	1	10
601.221	1	9
601.390	1	6
601.560	1	12
601.730	1	5
601.900	1	0
602.069	1	10
602.239	1	7
602.409	1	9
602.578	1	9
602.748	1	12
602.918	1	0
603.088	1	9
603.257	1	0
603.427	1	10
603.597	1	7
603.767	1	5
603.936	1	10
604.106	1	7
604.276	1	3
604.445	1	-7
604.615	1	9
604.785	1	6
604.954	1	14
605.124	1	18
605.294	1	2
605.464	1	6
605.633	1	10
605.803	1	3
605.973	1	-2
606.142	1	10
606.312	1	14
606.482	1	-2
606.652	1	2
606.821	1	10
606.991	1	16
607.161	1	6
607.330	1	6
607.500	1	7
607.670	1	4
607.839	1	4
608.009	1	2
608.179	1	11
608.348	1	9
608.518	1	16
608.688	1	9
608.858	1	6
609.027	1	8
609.197	1	8
609.367	1	3
609.536	1	1
609.706	1	7
609.876	1	13
610.045	1	5
610.215	1	8
610.385	1	7
610.554	1	5
610.724	1	13
610.894	1	15
611.063	1	1
611.233	1	5
611.403	1	13
611.572	1	7
611.742	1	6
611.912	1	7
612.081	1	21
612.251	1	13
612.421	1	4
612.590	1	10
612.760	1	5
612.930	1	14
613.099	1	3
613.269	1	5
613.439	1	7
613.608	1	11
613.778	1	0
613.948	1	24
614.117	1	6
614.287	1	2
614.457	1	8
614.626	1	15
614.796	1	12
614.966	1	2
615.135	1	15
615.305	1	6
615.475	1	13
615.644	1	20
615.814	1	6
615.984	1	6
616.153	1	18
616.323	1	4
616.493	1	0
616.662	1	1
616.832	1	9
617.002	1	14
617.171	1	10
617.341	1	19
617.511	1	4
617.680	1	2
617.850	1	10
618.019	1	11
618.189	1	15
618.359	1	7
618.528	1	4
618.698	1	6
618.868	1	8
619.037	1	15
619.207	1	-3
619.377	1	7
619.546	1	15
619.716	1	11
619.885	1	10
620.055	1	5
620.225	1	15
620.394	1	13
620.564	1	20
620.734	1	12
620.903	1	-3
621.073	1	18
621.242	1	13
621.412	1	5
621.582	1	16
621.751	1	4
621.921	1	13
622.091	1	13
622.260	1	10
622.430	1	15
622.599	1	8
622.769	1	-6
622.939	1	5
623.108	1	6
623.278	1	19
623.448	1	12
623.617	1	9
623.787	1	13
623.956	1	11
624.126	1	3
624.296	1	19
624.465	1	20
624.635	1	4
624.804	1	-10
624.974	1	3
625.144	1	-1
625.313	1	14
625.483	1	10
625.652	1	6
625.822	1	16
625.992	1	1
626.161	1	11
626.331	1	5
626.501	1	9
626.670	1	9
626.840	1	16
627.009	1	13
627.179	1	9
627.348	1	8
627.518	1	12
627.688	1	2
627.857	1	12
628.027	1	22
628.196	1	18
628.366	1	-6
628.536	1	7
628.705	1	10
628.875	1	9
629.044	1	5
629.214	1	8
629.384	1	19
629.553	1	6
629.723	1	13
629.892	1	18
630.062	1	4
630.232	1	10
630.401	1	19
630.571	1	2
630.740	1	1
630.910	1	19
631.079	1	13
631.249	1	17
631.419	1	7
631.588	1	9
631.758	1	5
631.927	1	13
632.097	1	16
632.266	1	15
632.436	1	7
632.606	1	5
632.775	1	11
632.945	1	6
633.114	1	7
633.284	1	9
633.453	1	18
633.623	1	21
633.793	1	12
633.962	1	6
634.132	1	18
634.301	1	16
634.471	1	15
634.640	1	9
634.810	1	11
634.979	1	11
635.149	1	2
635.319	1	16
635.488	1	13
635.658	1	12
635.827	1	14
635.997	1	11
636.166	1	11
636.336	1	7
636.505	1	15
636.675	1	12
636.845	1	7
637.014	1	-4
637.184	1	14
637.353	1	21
637.523	1	13
637.692	1	13
637.862	1	3
638.031	1	9
638.201	1	8
638.370	1	20
638.540	1	3
638.710	1	10
638.879	1	7
639.049	1	17
639.218	1	23
639.388	1	10
639.557	1	13
639.727	1	8
639.896	1	6
640.066	1	14
640.235	1	6
640.405	1	21
640.574	1	18
640.744	1	13
640.914	1	8
641.083	1	22
641.253	1	14
641.422	1	14
641.592	1	16
641.761	1	9
641.931	1	23
642.100	1	12
642.270	1	5
642.439	1	18
642.609	1	19
642.778	1	9
642.948	1	24
643.117	1	19
643.287	1	12
643.456	1	11
643.626	1	8
643.795	1	8
643.965	1	1
644.134	1	8
644.304	1	7
644.473	1	9
644.643	1	7
644.812	1	8
644.982	1	10
645.151	1	12
645.321	1	17
645.490	1	23
645.660	1	3
645.829	1	11
645.999	1	12
646.168	1	31
646.338	1	11
646.507	1	3
646.677	1	3
646.846	1	11
647.016	1	15
647.185	1	12
647.355	1	26
647.524	1	8
647.694	1	13
647.863	1	8
648.033	1	17
648.202	1	22
648.372	1	5
648.541	1	17
648.711	1	16
648.880	1	13
649.050	1	16
649.219	1	16
649.389	1	10
649.558	1	16
649.728	1	18
649.897	1	16
650.067	1	8
650.236	1	6
650.406	1	11
650.575	1	10
650.745	1	17
650.914	1	27
651.084	1	26
651.253	1	10
651.423	1	10
651.592	1	12
651.762	1	8
651.931	1	17
652.101	1	-1
652.270	1	17
652.440	1	22
652.609	1	12
652.778	1	26
652.948	1	14
653.117	1	19
653.287	1	2
653.456	1	18
653.626	1	1
653.795	1	10
653.965	1	14
654.134	1	8
654.304	1	24
654.473	1	22
654.643	1	16
654.812	1	27
654.982	1	18
655.151	1	21
655.320	1	8
655.490	1	9
655.659	1	5
655.829	1	30
655.998	1	14
656.168	1	13
656.337	1	13
656.507	1	7
656.676	1	11
656.846	1	22
657.015	1	18
657.184	1	17
657.354	1	11
657.523	1	20
657.693	1	8
657.862	1	13
658.032	1	12
658.201	1	18
658.371	1	5
658.540	1	13
658.709	1	28
658.879	1	15
659.048	1	21
659.218	1	14
659.387	1	15
659.557	1	16
659.726	1	16
659.895	1	19
660.065	1	12
660.234	1	14
660.404	1	17
660.573	1	13
660.743	1	19
660.912	1	10
661.081	1	7
661.251	1	7
661.420	1	23
661.590	1	3
661.759	1	14
661.929	1	15
662.098	1	16
662.267	1	7
662.437	1	14
662.606	1	14
662.776	1	19
662.945	1	29
663.115	1	21
663.284	1	18
663.453	1	19
663.623	1	9
663.792	1	18
663.962	1	18
664.131	1	0
664.300	1	11
664.470	1	10
664.639	1	17
664.809	1	11
664.978	1	16
665.148	1	22
665.317	1	11
665.486	1	12
665.656	1	11
665.825	1	19
665.995	1	11
666.164	1	11
666.333	1	10
666.503	1	11
666.672	1	21
666.842	1	21
667.011	1	9
667.180	1	9
667.350	1	14
667.519	1	21
667.689	1	18
667.858	1	14
668.027	1	10
668.197	1	4
668.366	1	18
668.536	1	15
668.705	1	10
668.874	1	22
669.044	1	9
669.213	1	26
669.382	1	15
669.552	1	18
669.721	1	8
669.891	1	9
670.060	1	18
670.229	1	15
670.399	1	16
670.568	1	24
670.738	1	10
670.907	1	12
671.076	1	19
671.246	1	20
671.415	1	23
671.584	1	19
671.754	1	9
671.923	1	12
672.093	1	21
672.262	1	18
672.431	1	19
672.601	1	5
672.770	1	20
672.939	1	24
673.109	1	16
673.278	1	10
673.448	1	13
673.617	1	20
673.786	1	13
