325.333	1	6
325.504	1	-1
325.675	1	4
325.846	1	-2
326.017	1	-4
326.188	1	-2
326.359	1	-1
326.531	1	-7
326.702	1	2
326.873	1	4
327.044	1	8
327.215	1	-8
327.386	1	0
327.557	1	-5
327.728	1	-2
327.899	1	2
328.070	1	1
328.241	1	4
328.412	1	6
328.583	1	-5
328.754	1	9
328.926	1	7
329.097	1	-14
329.268	1	6
329.439	1	6
329.610	1	0
329.781	1	0
329.952	1	5
330.123	1	0
330.294	1	-1
330.465	1	-6
330.636	1	-4
330.807	1	5
330.978	1	-12
331.149	1	4
331.320	1	-6
331.492	1	2
331.663	1	-8
331.834	1	6
332.005	1	10
332.176	1	2
332.347	1	-4
332.518	1	7
332.689	1	0
332.860	1	-7
333.031	1	4
333.202	1	-2
333.373	1	-2
333.544	1	4
333.715	1	-9
333.886	1	-5
334.057	1	-5
334.228	1	6
334.399	1	12
334.570	1	8
334.741	1	-4
334.912	1	6
335.084	1	5
335.255	1	6
335.426	1	1
335.597	1	-6
335.768	1	3
335.939	1	-7
336.110	1	6
336.281	1	-4
336.452	1	12
336.623	1	-1
336.794	1	-7
336.965	1	0
337.136	1	15
337.307	1	-6
337.478	1	-1
337.649	1	1
337.820	1	-4
337.991	1	0
338.162	1	-7
338.333	1	-3
338.504	1	7
338.675	1	-7
338.846	1	-6
339.017	1	2
339.188	1	4
339.359	1	6
339.530	1	-2
339.701	1	-3
339.872	1	11
340.043	1	-2
340.214	1	0
340.385	1	-9
340.556	1	9
340.727	1	12
340.898	1	-2
341.069	1	-3
341.240	1	4
341.411	1	-2
341.582	1	-10
341.753	1	0
341.924	1	11
342.095	1	-4
342.266	1	5
342.437	1	2
342.608	1	1
342.779	1	5
342.950	1	-1
343.121	1	3
343.292	1	8
343.463	1	8
343.634	1	-4
343.805	1	-5
343.976	1	3
344.147	1	0
344.318	1	-8
344.489	1	-2
344.660	1	-3
344.831	1	11
345.002	1	3
345.173	1	-2
345.344	1	-3
345.515	1	7
345.686	1	11
345.857	1	-8
346.028	1	6
346.199	1	0
346.370	1	3
346.541	1	-8
346.712	1	-1
346.883	1	-7
347.054	1	5
347.225	1	-7
347.396	1	2
347.567	1	-9
347.738	1	-3
347.909	1	4
348.080	1	5
348.251	1	6
348.422	1	6
348.593	1	4
348.764	1	2
348.935	1	-2
349.106	1	-2
349.277	1	2
349.448	1	1
349.619	1	-14
349.790	1	3
349.961	1	2
350.132	1	13
350.303	1	8
350.474	1	-3
350.645	1	7
350.816	1	-3
350.987	1	10
351.157	1	1
351.328	1	4
351.499	1	1
351.670	1	-3
351.841	1	5
352.012	1	3
352.183	1	2
352.354	1	6
352.525	1	9
352.696	1	-9
352.867	1	7
353.038	1	2
353.209	1	-2
353.380	1	1
353.551	1	5
353.722	1	11
353.893	1	15
354.064	1	0
354.235	1	-14
354.406	1	-6
354.576	1	-6
354.747	1	5
354.918	1	3
355.089	1	8
355.260	1	-6
355.431	1	0
355.602	1	5
355.773	1	-6
355.944	1	1
356.115	1	4
356.286	1	7
356.457	1	-4
356.628	1	3
356.799	1	-3
356.970	1	10
357.141	1	1
357.311	1	14
357.482	1	2
357.653	1	-4
357.824	1	11
357.995	1	9
358.166	1	-6
358.337	1	5
358.508	1	1
358.679	1	-10
358.850	1	3
359.021	1	9
359.192	1	7
359.363	1	6
359.533	1	-1
359.704	1	-2
359.875	1	-8
360.046	1	1
360.217	1	11
360.388	1	16
360.559	1	-1
360.730	1	-5
360.901	1	5
361.072	1	4
361.243	1	4
361.414	1	17
361.584	1	-1
361.755	1	8
361.926	1	4
362.097	1	-3
362.268	1	11
362.439	1	-3
362.610	1	7
362.781	1	-10
362.952	1	5
363.123	1	-9
363.293	1	-5
363.464	1	-3
363.635	1	11
363.806	1	-2
363.977	1	4
364.148	1	0
364.319	1	-5
364.490	1	8
364.661	1	13
364.832	1	3
365.002	1	3
365.173	1	1
365.344	1	-4
365.515	1	2
365.686	1	5
365.857	1	5
366.028	1	7
366.199	1	5
366.370	1	6
366.540	1	-2
366.711	1	3
366.882	1	-4
367.053	1	2
367.224	1	4
367.395	1	7
367.566	1	6
367.737	1	-1
367.908	1	-4
368.078	1	-9
368.249	1	2
368.420	1	10
368.591	1	10
368.762	1	3
368.933	1	4
369.104	1	14
369.274	1	9
369.445	1	1
369.616	1	2
369.787	1	-1
369.958	1	3
370.129	1	7
370.300	1	-2
370.471	1	8
370.641	1	-1
370.812	1	8
370.983	1	5
371.154	1	10
371.325	1	-8
371.496	1	9
371.667	1	9
371.837	1	16
372.008	1	1
372.179	1	8
372.350	1	4
372.521	1	-3
372.692	1	13
372.863	1	7
373.033	1	11
373.204	1	1
373.375	1	-2
373.546	1	5
373.717	1	-4
373.888	1	5
374.059	1	1
374.229	1	-1
374.400	1	1
374.571	1	9
374.742	1	9
374.913	1	-7
375.084	1	8
375.254	1	6
375.425	1	-3
375.596	1	1
375.767	1	1
375.938	1	-9
376.109	1	-2
376.279	1	2
376.450	1	4
376.621	1	5
376.792	1	13
376.963	1	0
377.134	1	4
377.304	1	6
377.475	1	-1
377.646	1	-4
377.817	1	7
377.988	1	3
378.159	1	3
378.329	1	0
378.500	1	5
378.671	1	3
378.842	1	6
379.013	1	13
379.184	1	7
379.354	1	10
379.525	1	12
379.696	1	10
379.867	1	11
380.038	1	-10
380.209	1	1
380.379	1	7
380.550	1	4
380.721	1	4
380.892	1	0
381.063	1	9
381.233	1	6
381.404	1	4
381.575	1	-4
381.746	1	2
381.917	1	1
382.087	1	7
382.258	1	9
382.429	1	5
382.600	1	-4
382.771	1	-2
382.941	1	12
383.112	1	0
383.283	1	7
383.454	1	-8
383.625	1	0
383.795	1	0
383.966	1	11
384.137	1	15
384.308	1	5
384.479	1	7
384.649	1	5
384.820	1	-3
384.991	1	2
385.162	1	10
385.333	1	-3
385.503	1	0
385.674	1	3
385.845	1	8
386.016	1	14
386.187	1	-4
386.357	1	8
386.528	1	-6
386.699	1	0
386.870	1	0
387.041	1	16
387.211	1	-1
387.382	1	10
387.553	1	5
387.724	1	-1
387.894	1	-9
388.065	1	5
388.236	1	5
388.407	1	6
388.578	1	3
388.748	1	15
388.919	1	2
389.090	1	7
389.261	1	7
389.431	1	-8
389.602	1	6
389.773	1	-1
389.944	1	0
390.114	1	16
390.285	1	11
390.456	1	7
390.627	1	-8
390.798	1	2
390.968	1	13
391.139	1	5
391.310	1	-10
391.481	1	-2
391.651	1	8
391.822	1	13
391.993	1	1
392.164	1	5
392.334	1	2
392.505	1	3
392.676	1	-5
392.847	1	1
393.017	1	-3
393.188	1	11
393.359	1	7
393.530	1	13
393.700	1	1
393.871	1	12
394.042	1	-2
394.213	1	9
394.383	1	6
394.554	1	10
394.725	1	-3
394.896	1	6
395.066	1	-6
395.237	1	8
395.408	1	7
395.579	1	16
395.749	1	14
395.920	1	5
396.091	1	7
396.262	1	-3
396.432	1	-5
396.603	1	3
396.774	1	3
396.945	1	12
397.115	1	6
397.286	1	7
397.457	1	6
397.627	1	2
397.798	1	2
397.969	1	1
398.140	1	-1
398.310	1	12
398.481	1	3
398.652	1	10
398.823	1	8
398.993	1	2
399.164	1	6
399.335	1	-5
399.505	1	-8
399.676	1	16
399.847	1	9
400.018	1	-2
400.188	1	-1
400.359	1	13
400.530	1	4
400.700	1	11
400.871	1	8
401.042	1	7
401.213	1	8
401.383	1	4
401.554	1	9
401.725	1	2
401.895	1	1
402.066	1	13
402.237	1	5
402.408	1	14
402.578	1	11
402.749	1	4
402.920	1	13
403.090	1	5
403.261	1	7
403.432	1	19
403.603	1	8
403.773	1	14
403.944	1	13
404.115	1	11
404.285	1	14
404.456	1	14
404.627	1	6
404.797	1	7
404.968	1	12
405.139	1	3
405.310	1	13
405.480	1	6
405.651	1	5
405.822	1	10
405.992	1	13
406.163	1	1
406.334	1	-3
406.504	1	12
406.675	1	-7
406.846	1	8
407.016	1	9
407.187	1	4
407.358	1	7
407.528	1	15
407.699	1	12
407.870	1	15
408.041	1	4
408.211	1	13
408.382	1	13
408.553	1	9
408.723	1	9
408.894	1	6
409.065	1	2
409.235	1	4
409.406	1	0
409.577	1	12
409.747	1	13
409.918	1	3
410.089	1	17
410.259	1	11
410.430	1	-2
410.601	1	13
410.771	1	14
410.942	1	15
411.113	1	14
411.283	1	7
411.454	1	25
411.625	1	16
411.795	1	10
411.966	1	3
412.137	1	15
412.307	1	11
412.478	1	9
412.649	1	4
412.819	1	7
412.990	1	10
413.161	1	5
413.331	1	6
413.502	1	1
413.672	1	2
413.843	1	3
414.014	1	6
414.184	1	5
414.355	1	11
414.526	1	5
414.696	1	16
414.867	1	-5
415.038	1	8
415.208	1	0
415.379	1	8
415.550	1	12
415.720	1	-1
415.891	1	8
416.062	1	4
416.232	1	7
416.403	1	7
416.573	1	-4
416.744	1	7
416.915	1	3
417.085	1	17
417.256	1	5
417.427	1	6
417.597	1	3
417.768	1	5
417.939	1	-3
418.109	1	2
418.280	1	5
418.450	1	21
418.621	1	8
418.792	1	0
418.962	1	9
419.133	1	6
419.304	1	8
419.474	1	-2
419.645	1	10
419.815	1	1
419.986	1	13
420.157	1	3
420.327	1	-4
420.498	1	7
420.669	1	17
420.839	1	5
421.010	1	1
421.180	1	2
421.351	1	7
421.522	1	10
421.692	1	9
421.863	1	12
422.033	1	9
422.204	1	15
422.375	1	6
422.545	1	8
422.716	1	4
422.886	1	6
423.057	1	7
423.228	1	0
423.398	1	8
423.569	1	0
423.740	1	5
423.910	1	9
424.081	1	8
424.251	1	7
424.422	1	10
424.593	1	6
424.763	1	7
424.934	1	15
425.104	1	15
425.275	1	0
425.445	1	7
425.616	1	11
425.787	1	4
425.957	1	-2
426.128	1	-1
426.298	1	12
426.469	1	-2
426.640	1	-3
426.810	1	-11
426.981	1	13
427.151	1	-5
427.322	1	2
427.493	1	-3
427.663	1	10
427.834	1	4
428.004	1	11
428.175	1	6
428.345	1	0
428.516	1	4
428.687	1	17
428.857	1	-2
429.028	1	3
429.198	1	5
429.369	1	5
429.540	1	5
429.710	1	13
429.881	1	-4
430.051	1	1
430.222	1	6
430.392	1	10
430.563	1	-5
430.734	1	11
430.904	1	8
431.075	1	7
431.245	1	0
431.416	1	15
431.586	1	-8
431.757	1	6
431.927	1	3
432.098	1	8
432.269	1	-4
432.439	1	-5
432.610	1	12
432.780	1	13
432.951	1	3
433.121	1	1
433.292	1	10
433.462	1	5
433.633	1	-1
433.804	1	11
433.974	1	4
434.145	1	-2
434.315	1	5
434.486	1	2
434.656	1	9
434.827	1	2
434.997	1	9
435.168	1	0
435.339	1	7
435.509	1	2
435.680	1	10
435.850	1	-5
436.021	1	-4
436.191	1	5
436.362	1	3
436.532	1	10
436.703	1	7
436.873	1	-7
437.044	1	2
437.214	1	-5
437.385	1	3
437.556	1	4
437.726	1	1
437.897	1	-3
438.067	1	4
438.238	1	13
438.408	1	4
438.579	1	-2
438.749	1	10
438.920	1	14
439.090	1	-7
439.261	1	10
439.431	1	-5
439.602	1	6
439.772	1	9
439.943	1	-2
440.113	1	-7
440.284	1	11
440.455	1	-1
440.625	1	12
440.796	1	-4
440.966	1	8
441.137	1	4
441.307	1	9
441.478	1	-1
441.648	1	2
441.819	1	-2
441.989	1	19
442.160	1	9
442.330	1	5
442.501	1	-12
442.671	1	0
442.842	1	-6
443.012	1	5
443.183	1	-2
443.353	1	12
443.524	1	4
443.694	1	7
443.865	1	8
444.035	1	-4
444.206	1	3
444.376	1	5
444.547	1	-5
444.717	1	3
444.888	1	-6
445.058	1	11
445.229	1	0
445.399	1	2
445.570	1	2
445.740	1	9
445.911	1	4
446.081	1	7
446.252	1	3
446.422	1	8
446.593	1	-1
446.763	1	1
446.934	1	3
447.104	1	3
447.275	1	-2
447.445	1	3
447.616	1	-10
447.786	1	1
447.957	1	5
448.127	1	7
448.298	1	6
448.468	1	-1
448.639	1	-3
448.809	1	-1
448.979	1	3
449.150	1	-4
449.320	1	18
449.491	1	1
449.661	1	0
449.832	1	-3
450.002	1	-4
450.173	1	1
450.343	1	-4
450.514	1	7
450.684	1	11
450.855	1	9
451.025	1	5
451.196	1	-6
451.366	1	15
451.537	1	12
451.707	1	13
451.878	1	3
452.048	1	-3
452.218	1	3
452.389	1	8
452.559	1	17
452.730	1	0
452.900	1	6
453.071	1	11
453.241	1	9
453.412	1	-1
453.582	1	9
453.753	1	6
453.923	1	1
454.093	1	-1
454.264	1	10
454.434	1	6
454.605	1	-1
454.775	1	7
454.946	1	7
455.116	1	3
455.287	1	3
455.457	1	10
455.628	1	-9
455.798	1	6
455.968	1	14
456.139	1	6
456.309	1	11
456.480	1	9
456.650	1	5
456.821	1	6
456.991	1	8
457.161	1	1
457.332	1	4
457.502	1	-5
457.673	1	5
457.843	1	3
458.014	1	4
458.184	1	15
458.355	1	12
458.525	1	3
458.695	1	1
458.866	1	-5
459.036	1	-4
459.207	1	2
459.377	1	-3
459.548	1	12
459.718	1	-4
459.888	1	5
460.059	1	10
460.229	1	1
460.400	1	-1
460.570	1	-8
460.740	1	4
460.911	1	5
461.081	1	10
461.252	1	9
461.422	1	2
461.593	1	11
461.763	1	8
461.933	1	2
462.104	1	-4
462.274	1	-6
462.445	1	6
462.615	1	10
462.785	1	2
462.956	1	-4
463.126	1	9
463.297	1	3
463.467	1	13
463.638	1	3
463.808	1	4
463.978	1	-10
464.149	1	-9
464.319	1	4
464.490	1	0
464.660	1	5
464.830	1	-3
465.001	1	11
465.171	1	3
465.342	1	0
465.512	1	-4
465.682	1	-8
465.853	1	3
466.023	1	6
466.194	1	-1
466.364	1	16
466.534	1	-9
466.705	1	14
466.875	1	-4
467.045	1	-6
467.216	1	0
467.386	1	-10
467.557	1	11
467.727	1	1
467.897	1	-6
468.068	1	-9
468.238	1	4
468.409	1	6
468.579	1	4
468.749	1	5
468.920	1	-12
469.090	1	-2
469.260	1	4
469.431	1	7
469.601	1	7
469.772	1	12
469.942	1	7
470.112	1	-7
470.283	1	6
470.453	1	3
470.623	1	8
470.794	1	0
470.964	1	-19
471.135	1	9
471.305	1	0
471.475	1	4
471.646	1	8
471.816	1	5
471.986	1	9
472.157	1	1
472.327	1	0
472.497	1	-5
472.668	1	10
472.838	1	-7
473.009	1	6
473.179	1	-1
473.349	1	-6
473.520	1	14
473.690	1	3
473.860	1	-7
474.031	1	-18
474.201	1	-2
474.371	1	5
474.542	1	-7
474.712	1	-6
474.882	1	2
475.053	1	11
475.223	1	1
475.394	1	1
475.564	1	-8
475.734	1	-5
475.905	1	1
476.075	1	10
476.245	1	6
476.416	1	-4
476.586	1	2
476.756	1	12
476.927	1	0
477.097	1	-1
477.267	1	-1
477.438	1	8
477.608	1	16
477.778	1	-12
477.949	1	-1
478.119	1	-2
478.289	1	-3
478.460	1	-5
478.630	1	1
478.800	1	-5
478.971	1	0
479.141	1	11
479.311	1	0
479.482	1	-3
479.652	1	7
479.822	1	4
479.993	1	9
480.163	1	0
480.333	1	2
480.504	1	1
480.674	1	2
480.844	1	-2
481.015	1	12
481.185	1	7
481.355	1	6
481.525	1	-8
481.696	1	3
481.866	1	9
482.036	1	6
482.207	1	8
482.377	1	-11
482.547	1	0
482.718	1	2
482.888	1	7
483.058	1	8
483.229	1	4
483.399	1	8
483.569	1	-7
483.740	1	-5
483.910	1	-5
484.080	1	2
484.250	1	1
484.421	1	-4
484.591	1	1
484.761	1	0
484.932	1	-1
485.102	1	12
485.272	1	1
485.443	1	1
485.613	1	-3
485.783	1	9
485.953	1	1
486.124	1	0
486.294	1	-2
486.464	1	8
486.635	1	-1
486.805	1	5
486.975	1	7
487.146	1	9
487.316	1	3
487.486	1	8
487.656	1	0
487.827	1	5
487.997	1	-2
488.167	1	11
488.338	1	-4
488.508	1	3
488.678	1	-2
488.848	1	4
489.019	1	1
489.189	1	9
489.359	1	3
489.529	1	7
489.700	1	2
489.870	1	7
490.040	1	-2
490.211	1	-10
490.381	1	-7
490.551	1	-5
490.721	1	13
490.892	1	-11
491.062	1	0
491.232	1	-1
491.402	1	-2
491.573	1	7
491.743	1	-12
491.913	1	-1
492.084	1	4
492.254	1	-2
492.424	1	-2
492.594	1	-1
492.765	1	5
492.935	1	12
493.105	1	-3
493.275	1	3
493.446	1	-2
493.616	1	-14
493.786	1	-3
493.956	1	-1
494.127	1	-5
494.297	1	-9
494.467	1	-4
494.637	1	2
494.808	1	7
494.978	1	3
495.148	1	0
495.318	1	5
495.489	1	-13
495.659	1	-3
495.829	1	-10
495.999	1	8
496.170	1	4
496.340	1	-6
496.510	1	5
496.680	1	-1
496.851	1	7
497.021	1	9
497.191	1	11
497.361	1	-14
497.532	1	5
497.702	1	6
497.872	1	-2
498.042	1	-13
498.213	1	-2
498.383	1	0
498.553	1	-1
498.723	1	2
498.894	1	4
499.064	1	6
499.234	1	0
499.404	1	8
499.574	1	2
499.745	1	0
499.915	1	-2
500.085	1	-2
500.255	1	-11
500.426	1	-5
500.596	1	-6
500.766	1	-7
500.936	1	-1
501.106	1	1
501.277	1	-5
501.447	1	6
501.617	1	2
501.787	1	-4
501.958	1	2
502.128	1	0
502.298	1	0
502.468	1	-8
502.638	1	3
502.809	1	0
502.979	1	9
503.149	1	5
503.319	1	5
503.489	1	-19
503.660	1	2
503.830	1	-3
504.000	1	1
504.170	1	0
504.340	1	-8
504.511	1	-5
504.681	1	2
504.851	1	-2
505.021	1	2
505.192	1	-13
505.362	1	3
505.532	1	-8
505.702	1	12
505.872	1	-6
506.043	1	8
506.213	1	8
506.383	1	0
506.553	1	3
506.723	1	-10
506.893	1	-4
507.064	1	16
507.234	1	-5
507.404	1	-6
507.574	1	-5
507.744	1	0
507.915	1	1
508.085	1	-8
508.255	1	-3
508.425	1	12
508.595	1	-2
508.766	1	-4
508.936	1	6
509.106	1	8
509.276	1	2
509.446	1	-10
509.616	1	-4
509.787	1	-6
509.957	1	6
510.127	1	-15
510.297	1	-8
510.467	1	-3
510.638	1	1
510.808	1	5
510.978	1	0
511.148	1	-11
511.318	1	3
511.488	1	2
511.659	1	2
511.829	1	-7
511.999	1	6
512.169	1	9
512.339	1	-5
512.509	1	-1
512.680	1	-1
512.850	1	-5
513.020	1	3
513.190	1	-10
513.360	1	4
513.530	1	2
513.700	1	-1
513.871	1	-1
514.041	1	1
514.211	1	4
514.381	1	-3
514.551	1	-11
514.721	1	-6
514.892	1	5
515.062	1	-2
515.232	1	2
515.402	1	2
515.572	1	1
515.742	1	0
515.912	1	2
516.083	1	4
516.253	1	6
516.423	1	-6
516.593	1	7
516.763	1	2
516.933	1	2
517.104	1	-2
517.274	1	-3
517.444	1	-1
517.614	1	-6
517.784	1	1
517.954	1	-12
518.124	1	1
518.294	1	2
518.465	1	1
518.635	1	3
518.805	1	11
518.975	1	-1
519.145	1	6
519.315	1	-4
519.485	1	-10
519.656	1	-11
519.826	1	-5
519.996	1	-2
520.166	1	-1
520.336	1	-1
520.506	1	-6
520.676	1	9
520.846	1	1
521.017	1	-4
521.187	1	-1
521.357	1	-4
521.527	1	-6
521.697	1	-16
521.867	1	4
522.037	1	2
522.207	1	4
522.377	1	-3
522.548	1	-7
522.718	1	3
522.888	1	7
523.058	1	-4
523.228	1	-12
523.398	1	-13
523.568	1	-16
523.738	1	-7
523.909	1	-7
524.079	1	0
524.249	1	-9
524.419	1	-2
524.589	1	-2
524.759	1	9
524.929	1	-4
525.099	1	5
525.269	1	0
525.439	1	8
525.610	1	9
525.780	1	0
525.950	1	2
526.120	1	-4
526.290	1	0
526.460	1	-2
526.630	1	-2
526.800	1	-5
526.970	1	3
527.140	1	1
527.311	1	-5
527.481	1	-1
527.651	1	3
527.821	1	2
527.991	1	-4
528.161	1	-2
528.331	1	-9
528.501	1	-1
528.671	1	-2
528.841	1	4
529.011	1	1
529.181	1	-1
529.352	1	-6
529.522	1	1
529.692	1	-6
529.862	1	-10
530.032	1	-13
530.202	1	-12
530.372	1	-3
530.542	1	-8
530.712	1	4
530.882	1	2
531.052	1	6
531.222	1	-5
531.392	1	4
531.563	1	1
531.733	1	-3
531.903	1	-5
532.073	1	-5
532.243	1	-1
532.413	1	22
532.583	1	8
532.753	1	-2
532.923	1	5
533.093	1	-8
533.263	1	-2
533.433	1	-4
533.603	1	-4
533.773	1	-3
533.943	1	-5
534.113	1	8
534.284	1	3
534.454	1	0
534.624	1	-6
534.794	1	-8
534.964	1	5
535.134	1	-8
535.304	1	1
535.474	1	-2
535.644	1	13
535.814	1	-3
535.984	1	0
536.154	1	2
536.324	1	-5
536.494	1	0
536.664	1	-6
536.834	1	-3
537.004	1	0
537.174	1	-3
537.344	1	10
537.514	1	-7
537.685	1	11
537.855	1	5
538.025	1	9
538.195	1	-13
538.365	1	-2
538.535	1	-4
538.705	1	-1
538.875	1	0
539.045	1	-1
539.215	1	-12
539.385	1	3
539.555	1	2
539.725	1	-7
539.895	1	2
540.065	1	-4
540.235	1	14
540.405	1	-6
540.575	1	0
540.745	1	7
540.915	1	1
541.085	1	0
541.255	1	-4
541.425	1	3
541.595	1	-7
541.765	1	-2
541.935	1	-4
542.105	1	4
542.275	1	-4
542.445	1	8
542.615	1	-1
542.785	1	3
542.955	1	17
543.125	1	0
543.295	1	3
543.465	1	10
543.635	1	-5
543.805	1	1
543.975	1	2
544.145	1	2
544.315	1	-5
544.485	1	-5
544.655	1	8
544.825	1	-1
544.995	1	-7
545.165	1	-3
545.335	1	3
545.505	1	-3
545.675	1	3
545.845	1	10
546.015	1	-13
546.185	1	-3
546.355	1	-6
546.525	1	11
546.695	1	-14
546.865	1	0
547.035	1	-3
547.205	1	6
547.375	1	1
547.545	1	5
547.715	1	-2
547.885	1	-8
548.055	1	-3
548.225	1	8
548.395	1	-5
548.565	1	8
548.735	1	-11
548.905	1	7
549.075	1	2
549.245	1	-5
549.415	1	-4
549.585	1	-9
549.755	1	9
549.925	1	-2
550.095	1	-9
550.265	1	-2
550.435	1	8
550.605	1	5
550.775	1	-5
550.945	1	-1
551.115	1	6
551.285	1	-4
551.455	1	5
551.625	1	-6
551.795	1	-4
551.965	1	-6
552.135	1	-7
552.305	1	3
552.475	1	-4
552.645	1	-3
552.815	1	-4
552.985	1	-6
553.155	1	-9
553.325	1	-8
553.495	1	1
553.665	1	-4
553.835	1	6
554.004	1	-4
554.174	1	-3
554.344	1	-5
554.514	1	5
554.684	1	3
554.854	1	-12
555.024	1	11
555.194	1	3
555.364	1	-7
555.534	1	-16
555.704	1	0
555.874	1	2
556.044	1	3
556.214	1	-6
556.384	1	6
556.554	1	0
556.724	1	4
556.894	1	-3
557.064	1	-5
557.234	1	-8
557.404	1	-7
557.573	1	1
557.743	1	-1
557.913	1	-11
558.083	1	-6
558.253	1	-1
558.423	1	-6
558.593	1	5
558.763	1	-1
558.933	1	-4
559.103	1	-2
559.273	1	3
559.443	1	4
559.613	1	-3
559.783	1	-1
559.953	1	-11
560.122	1	1
560.292	1	-11
560.462	1	-5
560.632	1	-7
560.802	1	10
560.972	1	-8
561.142	1	-3
561.312	1	-11
561.482	1	6
561.652	1	-12
561.822	1	-3
561.992	1	3
562.162	1	3
562.331	1	-3
562.501	1	9
562.671	1	-4
562.841	1	-13
563.011	1	0
563.181	1	-9
563.351	1	-10
563.521	1	-12
563.691	1	3
563.861	1	-4
564.031	1	-12
564.201	1	0
564.370	1	-3
564.540	1	-17
564.710	1	0
564.880	1	2
565.050	1	-5
565.220	1	-3
565.390	1	0
565.560	1	11
565.730	1	0
565.900	1	1
566.069	1	8
566.239	1	5
566.409	1	8
566.579	1	8
566.749	1	-4
566.919	1	-17
567.089	1	-13
567.259	1	-1
567.429	1	-12
567.599	1	12
567.768	1	-7
567.938	1	-8
568.108	1	-5
568.278	1	0
568.448	1	-10
568.618	1	-3
568.788	1	7
568.958	1	-8
569.128	1	-8
569.297	1	-2
569.467	1	6
569.637	1	-1
569.807	1	1
569.977	1	1
570.147	1	-11
570.317	1	2
570.487	1	-6
570.656	1	-1
570.826	1	-1
570.996	1	7
571.166	1	-3
571.336	1	-1
571.506	1	-6
571.676	1	3
571.846	1	2
572.015	1	6
572.185	1	-2
572.355	1	-3
572.525	1	-11
572.695	1	-8
572.865	1	10
573.035	1	1
573.205	1	-10
573.374	1	-7
573.544	1	-2
573.714	1	-9
573.884	1	-5
574.054	1	4
574.224	1	2
574.394	1	-7
574.563	1	-6
574.733	1	1
574.903	1	-3
575.073	1	1
575.243	1	-8
575.413	1	-7
575.583	1	-2
575.752	1	3
575.922	1	11
576.092	1	-3
576.262	1	-1
576.432	1	-6
576.602	1	-4
576.772	1	-6
576.941	1	2
577.111	1	-5
577.281	1	0
577.451	1	9
577.621	1	6
577.791	1	7
577.960	1	-7
578.130	1	-7
578.300	1	-12
578.470	1	-1
578.640	1	-10
578.810	1	-8
578.979	1	-7
579.149	1	6
579.319	1	-6
579.489	1	2
579.659	1	3
579.829	1	-7
579.998	1	-22
580.168	1	-7
580.338	1	9
580.508	1	-10
580.678	1	13
580.848	1	-8
581.017	1	5
581.187	1	3
581.357	1	-4
581.527	1	-5
581.697	1	-3
581.867	1	-8
582.036	1	-14
582.206	1	-2
582.376	1	-1
582.546	1	-8
582.716	1	2
582.885	1	0
583.055	1	-9
583.225	1	1
583.395	1	-1
583.565	1	1
583.735	1	1
583.904	1	-6
584.074	1	-1
584.244	1	-3
584.414	1	6
584.584	1	-1
584.753	1	-1
584.923	1	-3
585.093	1	5
585.263	1	-1
585.433	1	0
585.602	1	-1
585.772	1	16
585.942	1	-7
586.112	1	-1
586.282	1	-5
586.451	1	11
586.621	1	-3
586.791	1	-8
586.961	1	-4
587.131	1	-7
587.300	1	-4
587.470	1	-1
587.640	1	-6
587.810	1	-15
587.980	1	-5
588.149	1	3
588.319	1	5
588.489	1	0
588.659	1	-2
588.829	1	4
588.998	1	-11
589.168	1	4
589.338	1	-7
589.508	1	-2
589.677	1	3
589.847	1	4
590.017	1	-5
590.187	1	-3
590.357	1	-8
590.526	1	-10
590.696	1	5
590.866	1	-2
591.036	1	6
591.205	1	5
591.375	1	3
591.545	1	1
591.715	1	-4
591.885	1	2
592.054	1	-5
592.224	1	-4
592.394	1	-14
592.564	1	3
592.733	1	4
592.903	1	2
593.073	1	-8
593.243	1	2
593.412	1	-12
593.582	1	-3
593.752	1	-11
593.922	1	0
594.091	1	4
594.261	1	-16
594.431	1	5
594.601	1	-10
594.771	1	1
594.940	1	-14
595.110	1	-7
595.280	1	-2
595.450	1	-6
595.619	1	-16
595.789	1	0
595.959	1	-3
596.129	1	-8
596.298	1	8
596.468	1	-3
596.638	1	-3
596.808	1	-14
596.977	1	-7
597.147	1	-6
597.317	1	-6
597.487	1	-3
597.656	1	5
597.826	1	3
597.996	1	-6
598.166	1	0
598.335	1	-8
598.505	1	-3
598.675	1	1
598.844	1	13
599.014	1	-12
599.184	1	-11
599.354	1	8
599.523	1	0
599.693	1	-5
599.863	1	2
600.033	1	-5
600.202	1	-5
600.372	1	-4
600.542	1	1
600.712	1	5
600.881	1	-1
601.051	1	10
601.221	1	2
601.390	1	7
601.560	1	7
601.730	1	-1
601.900	1	-4
602.069	1	1
602.239	1	-2
602.409	1	-3
602.578	1	1
602.748	1	9
602.918	1	-6
603.088	1	1
603.257	1	-6
603.427	1	5
603.597	1	-10
603.767	1	0
603.936	1	2
604.106	1	-10
604.276	1	6
604.445	1	-10
604.615	1	1
604.785	1	4
604.954	1	-1
605.124	1	7
605.294	1	-6
605.464	1	-4
605.633	1	-8
605.803	1	-3
605.973	1	-1
606.142	1	-2
606.312	1	9
606.482	1	-2
606.652	1	-2
606.821	1	2
606.991	1	9
607.161	1	2
607.330	1	-1
607.500	1	-8
607.670	1	-8
607.839	1	-9
608.009	1	-4
608.179	1	7
608.348	1	-3
608.518	1	-5
608.688	1	0
608.858	1	-1
609.027	1	7
609.197	1	-1
609.367	1	-7
609.536	1	-14
609.706	1	5
609.876	1	5
610.045	1	2
610.215	1	0
610.385	1	3
610.554	1	-6
610.724	1	1
610.894	1	-2
611.063	1	0
611.233	1	0
611.403	1	3
611.572	1	-3
611.742	1	-7
611.912	1	1
612.081	1	11
612.251	1	6
612.421	1	-7
612.590	1	1
612.760	1	-2
612.930	1	-3
613.099	1	3
613.269	1	5
613.439	1	-4
613.608	1	-1
613.778	1	-3
613.948	1	4
614.117	1	-10
614.287	1	1
614.457	1	-2
614.626	1	0
614.796	1	-6
614.966	1	-4
615.135	1	3
615.305	1	6
615.475	1	-2
615.644	1	4
615.814	1	10
615.984	1	2
616.153	1	-3
616.323	1	-10
616.493	1	-7
616.662	1	-6
616.832	1	1
617.002	1	5
617.171	1	-3
617.341	1	1
617.511	1	-8
617.680	1	0
617.850	1	8
618.019	1	-7
618.189	1	5
618.359	1	-3
618.528	1	-2
618.698	1	1
618.868	1	1
619.037	1	-4
619.207	1	-4
619.377	1	-4
619.546	1	6
619.716	1	-2
619.885	1	4
620.055	1	-4
620.225	1	4
620.394	1	6
620.564	1	1
620.734	1	-4
620.903	1	-14
621.073	1	4
621.242	1	3
621.412	1	2
621.582	1	8
621.751	1	-1
621.921	1	-14
622.091	1	-7
622.260	1	5
622.430	1	10
622.599	1	-1
622.769	1	-7
622.939	1	-3
623.108	1	-7
623.278	1	-3
623.448	1	-4
623.617	1	-4
623.787	1	-6
623.956	1	-2
624.126	1	-1
624.296	1	9
624.465	1	2
624.635	1	-2
624.804	1	-15
624.974	1	-8
625.144	1	-5
625.313	1	12
625.483	1	-3
625.652	1	-7
625.822	1	6
625.992	1	-1
626.161	1	-4
626.331	1	-4
626.501	1	-4
626.670	1	-9
626.840	1	-2
627.009	1	-4
627.179	1	2
627.348	1	-3
627.518	1	9
627.688	1	0
627.857	1	0
628.027	1	0
628.196	1	-1
628.366	1	-12
628.536	1	-8
628.705	1	-10
628.875	1	-1
629.044	1	-11
629.214	1	5
629.384	1	1
629.553	1	5
629.723	1	1
629.892	1	1
630.062	1	-8
630.232	1	3
630.401	1	-2
630.571	1	-8
630.740	1	-9
630.910	1	13
631.079	1	5
631.249	1	-5
631.419	1	3
631.588	1	-3
631.758	1	-2
631.927	1	8
632.097	1	-7
632.266	1	-3
632.436	1	1
632.606	1	3
632.775	1	-8
632.945	1	-2
633.114	1	-6
633.284	1	-7
633.453	1	7
633.623	1	7
633.793	1	0
633.962	1	-5
634.132	1	-3
634.301	1	10
634.471	1	1
634.640	1	-8
634.810	1	2
634.979	1	-1
635.149	1	-11
635.319	1	-7
635.488	1	-10
635.658	1	-9
635.827	1	4
635.997	1	2
636.166	1	-4
636.336	1	-7
636.505	1	7
636.675	1	-6
636.845	1	-4
637.014	1	-4
637.184	1	3
637.353	1	-9
637.523	1	-10
637.692	1	1
637.862	1	-8
638.031	1	-8
638.201	1	8
638.370	1	0
638.540	1	-10
638.710	1	-14
638.879	1	-9
639.049	1	4
639.218	1	5
639.388	1	-3
639.557	1	-3
639.727	1	1
639.896	1	-3
640.066	1	2
640.235	1	-1
640.405	1	4
640.574	1	4
640.744	1	-7
640.914	1	-13
641.083	1	3
641.253	1	-3
641.422	1	-3
641.592	1	6
641.761	1	-16
641.931	1	5
642.100	1	-3
642.270	1	6
642.439	1	-8
642.609	1	4
642.778	1	0
642.948	1	2
643.117	1	-2
643.287	1	-1
643.456	1	0
643.626	1	-4
643.795	1	-6
643.965	1	1
644.134	1	0
644.304	1	1
644.473	1	-6
644.643	1	-6
644.812	1	-10
644.982	1	-2
645.151	1	-4
645.321	1	4
645.490	1	18
645.660	1	-11
645.829	1	1
645.999	1	-7
646.168	1	11
646.338	1	-3
646.507	1	-1
646.677	1	-6
646.846	1	-1
647.016	1	10
647.185	1	-2
647.355	1	12
647.524	1	-7
647.694	1	-6
647.863	1	3
648.033	1	-2
648.202	1	3
648.372	1	-7
648.541	1	-4
648.711	1	2
648.880	1	-2
649.050	1	3
649.219	1	-4
649.389	1	-5
649.558	1	8
649.728	1	-2
649.897	1	0
650.067	1	-2
650.236	1	-14
650.406	1	-2
650.575	1	7
650.745	1	-5
650.914	1	10
651.084	1	3
651.253	1	0
651.423	1	-10
651.592	1	-1
651.762	1	-7
651.931	1	2
652.101	1	-8
652.270	1	-8
652.440	1	0
652.609	1	6
652.778	1	-7
652.948	1	-2
653.117	1	-3
653.287	1	-7
653.456	1	-4
653.626	1	-5
653.795	1	-10
653.965	1	3
654.134	1	-7
654.304	1	5
654.473	1	-6
654.643	1	-4
654.812	1	5
654.982	1	2
655.151	1	1
655.320	1	-13
655.490	1	-7
655.659	1	2
655.829	1	-2
655.998	1	-4
656.168	1	-2
656.337	1	0
656.507	1	-8
656.676	1	-12
656.846	1	1
657.015	1	4
657.184	1	-3
657.354	1	1
657.523	1	-4
657.693	1	7
657.862	1	-7
658.032	1	1
658.201	1	-10
658.371	1	-9
658.540	1	-9
658.709	1	-2
658.879	1	9
659.048	1	-4
659.218	1	0
659.387	1	6
659.557	1	-9
659.726	1	1
659.895	1	3
660.065	1	2
660.234	1	-10
660.404	1	4
660.573	1	9
660.743	1	3
660.912	1	4
661.081	1	-6
661.251	1	-5
661.420	1	4
661.590	1	-9
661.759	1	1
661.929	1	-6
662.098	1	-4
662.267	1	-2
662.437	1	3
662.606	1	-9
662.776	1	-3
662.945	1	0
663.115	1	5
663.284	1	2
663.453	1	-9
663.623	1	0
663.792	1	-4
663.962	1	0
664.131	1	-3
664.300	1	-6
664.470	1	-8
664.639	1	-1
664.809	1	4
664.978	1	7
665.148	1	-2
665.317	1	-2
665.486	1	4
665.656	1	-8
665.825	1	-4
665.995	1	-8
666.164	1	-2
666.333	1	-3
666.503	1	-9
666.672	1	0
666.842	1	-3
667.011	1	2
667.180	1	-8
667.350	1	2
667.519	1	-3
667.689	1	7
667.858	1	1
668.027	1	-7
668.197	1	-12
668.366	1	3
668.536	1	-13
668.705	1	-5
668.874	1	10
669.044	1	-3
669.213	1	1
669.382	1	3
669.552	1	1
669.721	1	-9
669.891	1	-5
670.060	1	4
670.229	1	7
670.399	1	-5
670.568	1	2
670.738	1	-5
670.907	1	-3
671.076	1	5
671.246	1	6
671.415	1	11
671.584	1	-2
671.754	1	-15
671.923	1	1
672.093	1	5
672.262	1	-8
672.431	1	-3
672.601	1	-8
672.770	1	5
672.939	1	-1
673.109	1	-3
673.278	1	-6
673.448	1	-3
673.617	1	1
673.786	1	-11
