325.333	1	19
325.504	1	15
325.675	1	37
325.846	1	23
326.017	1	31
326.188	1	26
326.359	1	34
326.531	1	15
326.702	1	28
326.873	1	33
327.044	1	31
327.215	1	31
327.386	1	27
327.557	1	32
327.728	1	28
327.899	1	29
328.070	1	33
328.241	1	33
328.412	1	33
328.583	1	27
328.754	1	43
328.926	1	30
329.097	1	25
329.268	1	43
329.439	1	34
329.610	1	34
329.781	1	32
329.952	1	46
330.123	1	34
330.294	1	39
330.465	1	28
330.636	1	41
330.807	1	33
330.978	1	34
331.149	1	44
331.320	1	40
331.492	1	40
331.663	1	36
331.834	1	39
332.005	1	39
332.176	1	38
332.347	1	38
332.518	1	39
332.689	1	48
332.860	1	40
333.031	1	46
333.202	1	35
333.373	1	43
333.544	1	41
333.715	1	46
333.886	1	41
334.057	1	42
334.228	1	48
334.399	1	56
334.570	1	46
334.741	1	33
334.912	1	34
335.084	1	56
335.255	1	58
335.426	1	46
335.597	1	34
335.768	1	55
335.939	1	53
336.110	1	51
336.281	1	39
336.452	1	60
336.623	1	39
336.794	1	42
336.965	1	46
337.136	1	56
337.307	1	47
337.478	1	51
337.649	1	49
337.820	1	48
337.991	1	55
338.162	1	55
338.333	1	42
338.504	1	50
338.675	1	51
338.846	1	41
339.017	1	50
339.188	1	48
339.359	1	59
339.530	1	52
339.701	1	53
339.872	1	61
340.043	1	56
340.214	1	53
340.385	1	47
340.556	1	73
340.727	1	54
340.898	1	61
341.069	1	46
341.240	1	62
341.411	1	58
341.582	1	40
341.753	1	60
341.924	1	71
342.095	1	62
342.266	1	61
342.437	1	66
342.608	1	61
342.779	1	64
342.950	1	57
343.121	1	67
343.292	1	63
343.463	1	63
343.634	1	68
343.805	1	69
343.976	1	71
344.147	1	71
344.318	1	65
344.489	1	56
344.660	1	72
344.831	1	64
345.002	1	69
345.173	1	60
345.344	1	57
345.515	1	53
345.686	1	69
345.857	1	69
346.028	1	72
346.199	1	73
346.370	1	73
346.541	1	70
346.712	1	71
346.883	1	62
347.054	1	86
347.225	1	69
347.396	1	58
347.567	1	63
347.738	1	83
347.909	1	73
348.080	1	65
348.251	1	66
348.422	1	70
348.593	1	73
348.764	1	83
348.935	1	79
349.106	1	68
349.277	1	78
349.448	1	80
349.619	1	74
349.790	1	76
349.961	1	72
350.132	1	94
350.303	1	81
350.474	1	89
350.645	1	86
350.816	1	89
350.987	1	91
351.157	1	77
351.328	1	85
351.499	1	88
351.670	1	77
351.841	1	83
352.012	1	99
352.183	1	86
352.354	1	85
352.525	1	90
352.696	1	79
352.867	1	102
353.038	1	89
353.209	1	77
353.380	1	95
353.551	1	89
353.722	1	88
353.893	1	91
354.064	1	81
354.235	1	86
354.406	1	84
354.576	1	77
354.747	1	93
354.918	1	90
355.089	1	91
355.260	1	83
355.431	1	87
355.602	1	101
355.773	1	88
355.944	1	104
356.115	1	91
356.286	1	103
356.457	1	94
356.628	1	93
356.799	1	96
356.970	1	102
357.141	1	106
357.311	1	109
357.482	1	88
357.653	1	98
357.824	1	100
357.995	1	104
358.166	1	91
358.337	1	97
358.508	1	96
358.679	1	102
358.850	1	108
359.021	1	113
359.192	1	111
359.363	1	99
359.533	1	109
359.704	1	98
359.875	1	91
360.046	1	112
360.217	1	115
360.388	1	105
360.559	1	114
360.730	1	98
360.901	1	117
361.072	1	108
361.243	1	103
361.414	1	119
361.584	1	100
361.755	1	103
361.926	1	94
362.097	1	105
362.268	1	121
362.439	1	101
362.610	1	108
362.781	1	104
362.952	1	100
363.123	1	109
363.293	1	94
363.464	1	100
363.635	1	110
363.806	1	102
363.977	1	100
364.148	1	104
364.319	1	99
364.490	1	115
364.661	1	115
364.832	1	105
365.002	1	113
365.173	1	101
365.344	1	108
365.515	1	107
365.686	1	114
365.857	1	123
366.028	1	119
366.199	1	119
366.370	1	115
366.540	1	116
366.711	1	111
366.882	1	106
367.053	1	115
367.224	1	118
367.395	1	120
367.566	1	126
367.737	1	111
367.908	1	111
368.078	1	113
368.249	1	123
368.420	1	120
368.591	1	119
368.762	1	130
368.933	1	121
369.104	1	122
369.274	1	124
369.445	1	135
369.616	1	110
369.787	1	116
369.958	1	122
370.129	1	120
370.300	1	110
370.471	1	112
370.641	1	113
370.812	1	119
370.983	1	103
371.154	1	107
371.325	1	107
371.496	1	112
371.667	1	131
371.837	1	121
372.008	1	110
372.179	1	113
372.350	1	104
372.521	1	121
372.692	1	126
372.863	1	107
373.033	1	109
373.204	1	123
373.375	1	108
373.546	1	124
373.717	1	114
373.888	1	121
374.059	1	114
374.229	1	120
374.400	1	121
374.571	1	128
374.742	1	120
374.913	1	119
375.084	1	133
375.254	1	124
375.425	1	129
375.596	1	132
375.767	1	131
375.938	1	121
376.109	1	130
376.279	1	121
376.450	1	126
376.621	1	134
376.792	1	127
376.963	1	132
377.134	1	135
377.304	1	145
377.475	1	126
377.646	1	116
377.817	1	131
377.988	1	119
378.159	1	134
378.329	1	133
378.500	1	138
378.671	1	141
378.842	1	137
379.013	1	130
379.184	1	122
379.354	1	144
379.525	1	129
379.696	1	132
379.867	1	122
380.038	1	118
380.209	1	138
380.379	1	131
380.550	1	131
380.721	1	123
380.892	1	139
381.063	1	132
381.233	1	131
381.404	1	129
381.575	1	128
381.746	1	129
381.917	1	137
382.087	1	133
382.258	1	143
382.429	1	142
382.600	1	136
382.771	1	128
382.941	1	139
383.112	1	137
383.283	1	141
383.454	1	133
383.625	1	151
383.795	1	154
383.966	1	155
384.137	1	152
384.308	1	150
384.479	1	142
384.649	1	141
384.820	1	155
384.991	1	137
385.162	1	157
385.333	1	151
385.503	1	155
385.674	1	169
385.845	1	159
386.016	1	162
386.187	1	140
386.357	1	156
386.528	1	141
386.699	1	140
386.870	1	152
387.041	1	165
387.211	1	152
387.382	1	181
387.553	1	177
387.724	1	157
387.894	1	162
388.065	1	169
388.236	1	153
388.407	1	162
388.578	1	156
388.748	1	145
388.919	1	162
389.090	1	183
389.261	1	158
389.431	1	143
389.602	1	171
389.773	1	161
389.944	1	162
390.114	1	156
390.285	1	167
390.456	1	169
390.627	1	155
390.798	1	148
390.968	1	173
391.139	1	175
391.310	1	159
391.481	1	152
391.651	1	171
391.822	1	172
391.993	1	154
392.164	1	160
392.334	1	144
392.505	1	170
392.676	1	153
392.847	1	153
393.017	1	149
393.188	1	160
393.359	1	173
393.530	1	172
393.700	1	166
393.871	1	158
394.042	1	163
394.213	1	165
394.383	1	176
394.554	1	167
394.725	1	164
394.896	1	175
395.066	1	176
395.237	1	163
395.408	1	161
395.579	1	169
395.749	1	189
395.920	1	172
396.091	1	174
396.262	1	187
396.432	1	167
396.603	1	165
396.774	1	166
396.945	1	176
397.115	1	195
397.286	1	176
397.457	1	187
397.627	1	159
397.798	1	183
397.969	1	175
398.140	1	171
398.310	1	189
398.481	1	185
398.652	1	181
398.823	1	183
398.993	1	169
399.164	1	171
399.335	1	160
399.505	1	163
399.676	1	185
399.847	1	180
400.018	1	168
400.188	1	185
400.359	1	181
400.530	1	158
400.700	1	167
400.871	1	185
401.042	1	171
401.213	1	171
401.383	1	176
401.554	1	175
401.725	1	175
401.895	1	174
402.066	1	189
402.237	1	170
402.408	1	164
402.578	1	172
402.749	1	176
402.920	1	180
403.090	1	169
403.261	1	160
403.432	1	172
403.603	1	178
403.773	1	187
403.944	1	163
404.115	1	183
404.285	1	185
404.456	1	191
404.627	1	176
404.797	1	165
404.968	1	178
405.139	1	197
405.310	1	177
405.480	1	196
405.651	1	177
405.822	1	172
405.992	1	196
406.163	1	183
406.334	1	173
406.504	1	178
406.675	1	180
406.846	1	185
407.016	1	183
407.187	1	186
407.358	1	184
407.528	1	193
407.699	1	186
407.870	1	200
408.041	1	191
408.211	1	183
408.382	1	197
408.553	1	207
408.723	1	199
408.894	1	185
409.065	1	206
409.235	1	192
409.406	1	190
409.577	1	188
409.747	1	185
409.918	1	201
410.089	1	203
410.259	1	196
410.430	1	186
410.601	1	193
410.771	1	189
410.942	1	185
411.113	1	179
411.283	1	186
411.454	1	201
411.625	1	181
411.795	1	187
411.966	1	171
412.137	1	187
412.307	1	198
412.478	1	189
412.649	1	183
412.819	1	192
412.990	1	196
413.161	1	178
413.331	1	184
413.502	1	176
413.672	1	179
413.843	1	174
414.014	1	178
414.184	1	184
414.355	1	195
414.526	1	177
414.696	1	180
414.867	1	173
415.038	1	182
415.208	1	163
415.379	1	190
415.550	1	185
415.720	1	182
415.891	1	182
416.062	1	188
416.232	1	181
416.403	1	180
416.573	1	190
416.744	1	184
416.915	1	178
417.085	1	180
417.256	1	182
417.427	1	182
417.597	1	177
417.768	1	187
417.939	1	178
418.109	1	183
418.280	1	181
418.450	1	195
418.621	1	175
418.792	1	183
418.962	1	186
419.133	1	186
419.304	1	173
419.474	1	178
419.645	1	180
419.815	1	170
419.986	1	188
420.157	1	176
420.327	1	175
420.498	1	161
420.669	1	182
420.839	1	182
421.010	1	175
421.180	1	160
421.351	1	182
421.522	1	182
421.692	1	184
421.863	1	171
422.033	1	173
422.204	1	184
422.375	1	186
422.545	1	186
422.716	1	163
422.886	1	178
423.057	1	182
423.228	1	176
423.398	1	185
423.569	1	168
423.740	1	167
423.910	1	162
424.081	1	189
424.251	1	176
424.422	1	160
424.593	1	177
424.763	1	172
424.934	1	174
425.104	1	175
425.275	1	155
425.445	1	166
425.616	1	179
425.787	1	158
425.957	1	157
426.128	1	166
426.298	1	168
426.469	1	163
426.640	1	158
426.810	1	151
426.981	1	175
427.151	1	154
427.322	1	171
427.493	1	166
427.663	1	167
427.834	1	165
428.004	1	162
428.175	1	166
428.345	1	151
428.516	1	163
428.687	1	179
428.857	1	175
429.028	1	156
429.198	1	154
429.369	1	176
429.540	1	160
429.710	1	173
429.881	1	165
430.051	1	166
430.222	1	174
430.392	1	165
430.563	1	165
430.734	1	170
430.904	1	169
431.075	1	163
431.245	1	172
431.416	1	168
431.586	1	164
431.757	1	177
431.927	1	164
432.098	1	168
432.269	1	155
432.439	1	160
432.610	1	166
432.780	1	164
432.951	1	157
433.121	1	170
433.292	1	168
433.462	1	158
433.633	1	160
433.804	1	164
433.974	1	168
434.145	1	159
434.315	1	170
434.486	1	159
434.656	1	153
434.827	1	166
434.997	1	167
435.168	1	157
435.339	1	178
435.509	1	180
435.680	1	168
435.850	1	152
436.021	1	153
436.191	1	154
436.362	1	152
436.532	1	151
436.703	1	162
436.873	1	138
437.044	1	159
437.214	1	150
437.385	1	150
437.556	1	160
437.726	1	161
437.897	1	167
438.067	1	153
438.238	1	146
438.408	1	151
438.579	1	144
438.749	1	143
438.920	1	157
439.090	1	127
439.261	1	147
439.431	1	136
439.602	1	141
439.772	1	133
439.943	1	135
440.113	1	132
440.284	1	146
440.455	1	129
440.625	1	138
440.796	1	134
440.966	1	141
441.137	1	145
441.307	1	144
441.478	1	138
441.648	1	129
441.819	1	137
441.989	1	147
442.160	1	148
442.330	1	145
442.501	1	140
442.671	1	139
442.842	1	133
443.012	1	134
443.183	1	142
443.353	1	142
443.524	1	147
443.694	1	146
443.865	1	144
444.035	1	137
444.206	1	136
444.376	1	138
444.547	1	138
444.717	1	135
444.888	1	130
445.058	1	149
445.229	1	134
445.399	1	135
445.570	1	140
445.740	1	140
445.911	1	146
446.081	1	133
446.252	1	140
446.422	1	140
446.593	1	135
446.763	1	145
446.934	1	133
447.104	1	135
447.275	1	136
447.445	1	130
447.616	1	137
447.786	1	132
447.957	1	134
448.127	1	134
448.298	1	136
448.468	1	140
448.639	1	138
448.809	1	135
448.979	1	139
449.150	1	120
449.320	1	137
449.491	1	125
449.661	1	131
449.832	1	126
450.002	1	116
450.173	1	124
450.343	1	125
450.514	1	128
450.684	1	128
450.855	1	128
451.025	1	113
451.196	1	126
451.366	1	135
451.537	1	128
451.707	1	127
451.878	1	127
452.048	1	129
452.218	1	125
452.389	1	130
452.559	1	128
452.730	1	134
452.900	1	111
453.071	1	121
453.241	1	117
453.412	1	114
453.582	1	124
453.753	1	130
453.923	1	112
454.093	1	120
454.264	1	123
454.434	1	115
454.605	1	116
454.775	1	117
454.946	1	102
455.116	1	119
455.287	1	112
455.457	1	124
455.628	1	96
455.798	1	106
455.968	1	115
456.139	1	123
456.309	1	113
456.480	1	109
456.650	1	117
456.821	1	106
456.991	1	114
457.161	1	110
457.332	1	108
457.502	1	110
457.673	1	117
457.843	1	111
458.014	1	116
458.184	1	127
458.355	1	115
458.525	1	110
458.695	1	114
458.866	1	96
459.036	1	111
459.207	1	115
459.377	1	118
459.548	1	104
459.718	1	99
459.888	1	101
460.059	1	108
460.229	1	112
460.400	1	114
460.570	1	100
460.740	1	107
460.911	1	112
461.081	1	109
461.252	1	110
461.422	1	99
461.593	1	114
461.763	1	102
461.933	1	106
462.104	1	107
462.274	1	101
462.445	1	108
462.615	1	114
462.785	1	115
462.956	1	99
463.126	1	111
463.297	1	100
463.467	1	109
463.638	1	114
463.808	1	99
463.978	1	93
464.149	1	99
464.319	1	108
464.490	1	79
464.660	1	91
464.830	1	110
465.001	1	101
465.171	1	103
465.342	1	95
465.512	1	100
465.682	1	95
465.853	1	90
466.023	1	111
466.194	1	96
466.364	1	111
466.534	1	95
466.705	1	105
466.875	1	98
467.045	1	89
467.216	1	101
467.386	1	100
467.557	1	91
467.727	1	87
467.897	1	101
468.068	1	75
468.238	1	85
468.409	1	89
468.579	1	90
468.749	1	95
468.920	1	84
469.090	1	96
469.260	1	85
469.431	1	95
469.601	1	91
469.772	1	86
469.942	1	90
470.112	1	83
470.283	1	92
470.453	1	92
470.623	1	91
470.794	1	85
470.964	1	78
471.135	1	102
471.305	1	89
471.475	1	78
471.646	1	87
471.816	1	88
471.986	1	82
472.157	1	85
472.327	1	89
472.497	1	86
472.668	1	94
472.838	1	82
473.009	1	76
473.179	1	90
473.349	1	73
473.520	1	91
473.690	1	90
473.860	1	86
474.031	1	74
474.201	1	86
474.371	1	91
474.542	1	96
474.712	1	80
474.882	1	82
475.053	1	84
475.223	1	84
475.394	1	83
475.564	1	96
475.734	1	83
475.905	1	87
476.075	1	98
476.245	1	82
476.416	1	87
476.586	1	87
476.756	1	83
476.927	1	84
477.097	1	82
477.267	1	79
477.438	1	90
477.608	1	91
477.778	1	83
477.949	1	75
478.119	1	84
478.289	1	74
478.460	1	85
478.630	1	89
478.800	1	72
478.971	1	87
479.141	1	77
479.311	1	81
479.482	1	71
479.652	1	72
479.822	1	78
479.993	1	65
480.163	1	83
480.333	1	85
480.504	1	77
480.674	1	79
480.844	1	77
481.015	1	87
481.185	1	78
481.355	1	82
481.525	1	71
481.696	1	79
481.866	1	75
482.036	1	89
482.207	1	85
482.377	1	72
482.547	1	67
482.718	1	75
482.888	1	75
483.058	1	79
483.229	1	76
483.399	1	86
483.569	1	70
483.740	1	61
483.910	1	69
484.080	1	74
484.250	1	52
484.421	1	66
484.591	1	68
484.761	1	72
484.932	1	57
485.102	1	75
485.272	1	70
485.443	1	76
485.613	1	64
485.783	1	67
485.953	1	64
486.124	1	63
486.294	1	75
486.464	1	74
486.635	1	67
486.805	1	54
486.975	1	49
487.146	1	70
487.316	1	68
487.486	1	68
487.656	1	73
487.827	1	64
487.997	1	69
488.167	1	63
488.338	1	62
488.508	1	76
488.678	1	62
488.848	1	68
489.019	1	59
489.189	1	82
489.359	1	63
489.529	1	66
489.700	1	56
489.870	1	68
490.040	1	57
490.211	1	58
490.381	1	59
490.551	1	58
490.721	1	56
490.892	1	52
491.062	1	55
491.232	1	65
491.402	1	54
491.573	1	71
491.743	1	58
491.913	1	65
492.084	1	64
492.254	1	63
492.424	1	62
492.594	1	54
492.765	1	73
492.935	1	67
493.105	1	66
493.275	1	52
493.446	1	63
493.616	1	49
493.786	1	63
493.956	1	63
494.127	1	57
494.297	1	46
494.467	1	63
494.637	1	55
494.808	1	66
494.978	1	56
495.148	1	52
495.318	1	52
495.489	1	63
495.659	1	63
495.829	1	57
495.999	1	63
496.170	1	60
496.340	1	49
496.510	1	61
496.680	1	44
496.851	1	60
497.021	1	58
497.191	1	51
497.361	1	47
497.532	1	70
497.702	1	53
497.872	1	54
498.042	1	53
498.213	1	45
498.383	1	60
498.553	1	55
498.723	1	58
498.894	1	53
499.064	1	49
499.234	1	54
499.404	1	46
499.574	1	57
499.745	1	58
499.915	1	65
500.085	1	50
500.255	1	50
500.426	1	39
500.596	1	45
500.766	1	44
500.936	1	48
501.106	1	45
501.277	1	46
501.447	1	55
501.617	1	42
501.787	1	47
501.958	1	53
502.128	1	51
502.298	1	56
502.468	1	55
502.638	1	50
502.809	1	44
502.979	1	68
503.149	1	45
503.319	1	52
503.489	1	26
503.660	1	43
503.830	1	53
504.000	1	53
504.170	1	54
504.340	1	38
504.511	1	30
504.681	1	50
504.851	1	44
505.021	1	44
505.192	1	46
505.362	1	47
505.532	1	42
505.702	1	65
505.872	1	39
506.043	1	48
506.213	1	47
506.383	1	46
506.553	1	44
506.723	1	38
506.893	1	48
507.064	1	56
507.234	1	38
507.404	1	47
507.574	1	46
507.744	1	49
507.915	1	35
508.085	1	47
508.255	1	49
508.425	1	47
508.595	1	37
508.766	1	38
508.936	1	54
509.106	1	35
509.276	1	47
509.446	1	43
509.616	1	52
509.787	1	49
509.957	1	44
510.127	1	31
510.297	1	37
510.467	1	48
510.638	1	45
510.808	1	55
510.978	1	41
511.148	1	42
511.318	1	43
511.488	1	54
511.659	1	41
511.829	1	33
511.999	1	37
512.169	1	45
512.339	1	42
512.509	1	40
512.680	1	43
512.850	1	46
513.020	1	40
513.190	1	35
513.360	1	50
513.530	1	37
513.700	1	48
513.871	1	44
514.041	1	40
514.211	1	48
514.381	1	46
514.551	1	38
514.721	1	50
514.892	1	37
515.062	1	36
515.232	1	28
515.402	1	45
515.572	1	44
515.742	1	39
515.912	1	41
516.083	1	38
516.253	1	45
516.423	1	41
516.593	1	35
516.763	1	44
516.933	1	38
517.104	1	46
517.274	1	35
517.444	1	33
517.614	1	31
517.784	1	47
517.954	1	27
518.124	1	39
518.294	1	39
518.465	1	27
518.635	1	31
518.805	1	36
518.975	1	41
519.145	1	40
519.315	1	34
519.485	1	29
519.656	1	33
519.826	1	18
519.996	1	35
520.166	1	26
520.336	1	34
520.506	1	40
520.676	1	40
520.846	1	28
521.017	1	33
521.187	1	36
521.357	1	26
521.527	1	27
521.697	1	35
521.867	1	27
522.037	1	38
522.207	1	37
522.377	1	26
522.548	1	29
522.718	1	31
522.888	1	30
523.058	1	36
523.228	1	25
523.398	1	34
523.568	1	24
523.738	1	28
523.909	1	25
524.079	1	32
524.249	1	31
524.419	1	30
524.589	1	42
524.759	1	32
524.929	1	34
525.099	1	26
525.269	1	35
525.439	1	36
525.610	1	49
525.780	1	29
525.950	1	28
526.120	1	26
526.290	1	18
526.460	1	25
526.630	1	30
526.800	1	25
526.970	1	36
527.140	1	30
527.311	1	21
527.481	1	34
527.651	1	30
527.821	1	27
527.991	1	33
528.161	1	35
528.331	1	32
528.501	1	19
528.671	1	45
528.841	1	26
529.011	1	25
529.181	1	28
529.352	1	36
529.522	1	20
529.692	1	31
529.862	1	28
530.032	1	17
530.202	1	26
530.372	1	21
530.542	1	36
530.712	1	24
530.882	1	22
531.052	1	30
531.222	1	33
531.392	1	23
531.563	1	38
531.733	1	30
531.903	1	24
532.073	1	25
532.243	1	39
532.413	1	48
532.583	1	30
532.753	1	22
532.923	1	41
533.093	1	20
533.263	1	31
533.433	1	22
533.603	1	31
533.773	1	26
533.943	1	36
534.113	1	24
534.284	1	34
534.454	1	26
534.624	1	15
534.794	1	21
534.964	1	28
535.134	1	25
535.304	1	27
535.474	1	38
535.644	1	27
535.814	1	32
535.984	1	25
536.154	1	31
536.324	1	26
536.494	1	35
536.664	1	20
536.834	1	34
537.004	1	38
537.174	1	19
537.344	1	34
537.514	1	27
537.685	1	30
537.855	1	36
538.025	1	32
538.195	1	24
538.365	1	25
538.535	1	26
538.705	1	22
538.875	1	30
539.045	1	24
539.215	1	12
539.385	1	34
539.555	1	15
539.725	1	17
539.895	1	26
540.065	1	12
540.235	1	28
540.405	1	15
540.575	1	15
540.745	1	36
540.915	1	24
541.085	1	21
541.255	1	29
541.425	1	26
541.595	1	17
541.765	1	33
541.935	1	30
542.105	1	17
542.275	1	30
542.445	1	28
542.615	1	31
542.785	1	24
542.955	1	35
543.125	1	23
543.295	1	23
543.465	1	26
543.635	1	16
543.805	1	25
543.975	1	20
544.145	1	25
544.315	1	16
544.485	1	17
544.655	1	28
544.825	1	16
544.995	1	13
545.165	1	29
545.335	1	20
545.505	1	19
545.675	1	30
545.845	1	25
546.015	1	12
546.185	1	27
546.355	1	15
546.525	1	28
546.695	1	27
546.865	1	19
547.035	1	14
547.205	1	34
547.375	1	28
547.545	1	15
547.715	1	21
547.885	1	12
548.055	1	22
548.225	1	24
548.395	1	23
548.565	1	25
548.735	1	12
548.905	1	20
549.075	1	27
549.245	1	19
549.415	1	25
549.585	1	18
549.755	1	18
549.925	1	23
550.095	1	8
550.265	1	19
550.435	1	27
550.605	1	19
550.775	1	13
550.945	1	25
551.115	1	25
551.285	1	13
551.455	1	30
551.625	1	9
551.795	1	17
551.965	1	16
552.135	1	13
552.305	1	21
552.475	1	19
552.645	1	18
552.815	1	17
552.985	1	13
553.155	1	14
553.325	1	9
553.495	1	19
553.665	1	22
553.835	1	22
554.004	1	23
554.174	1	2
554.344	1	20
554.514	1	13
554.684	1	24
554.854	1	16
555.024	1	31
555.194	1	21
555.364	1	25
555.534	1	12
555.704	1	17
555.874	1	17
556.044	1	13
556.214	1	25
556.384	1	14
556.554	1	14
556.724	1	16
556.894	1	17
557.064	1	19
557.234	1	18
557.404	1	11
557.573	1	20
557.743	1	9
557.913	1	9
558.083	1	18
558.253	1	8
558.423	1	20
558.593	1	17
558.763	1	23
558.933	1	20
559.103	1	11
559.273	1	22
559.443	1	20
559.613	1	14
559.783	1	18
559.953	1	8
560.122	1	16
560.292	1	3
560.462	1	12
560.632	1	9
560.802	1	20
560.972	1	9
561.142	1	15
561.312	1	10
561.482	1	22
561.652	1	19
561.822	1	14
561.992	1	18
562.162	1	11
562.331	1	6
562.501	1	15
562.671	1	6
562.841	1	0
563.011	1	17
563.181	1	14
563.351	1	7
563.521	1	8
563.691	1	23
563.861	1	8
564.031	1	12
564.201	1	17
564.370	1	11
564.540	1	11
564.710	1	4
564.880	1	8
565.050	1	14
565.220	1	19
565.390	1	23
565.560	1	20
565.730	1	13
565.900	1	19
566.069	1	25
566.239	1	19
566.409	1	12
566.579	1	15
566.749	1	14
566.919	1	-3
567.089	1	4
567.259	1	21
567.429	1	4
567.599	1	22
567.768	1	14
567.938	1	21
568.108	1	6
568.278	1	17
568.448	1	4
568.618	1	23
568.788	1	9
568.958	1	12
569.128	1	7
569.297	1	6
569.467	1	16
569.637	1	23
569.807	1	13
569.977	1	11
570.147	1	18
570.317	1	31
570.487	1	5
570.656	1	18
570.826	1	15
570.996	1	20
571.166	1	17
571.336	1	9
571.506	1	7
571.676	1	10
571.846	1	20
572.015	1	22
572.185	1	15
572.355	1	12
572.525	1	-3
572.695	1	11
572.865	1	10
573.035	1	14
573.205	1	7
573.374	1	12
573.544	1	11
573.714	1	11
573.884	1	13
574.054	1	3
574.224	1	5
574.394	1	16
574.563	1	5
574.733	1	16
574.903	1	10
575.073	1	15
575.243	1	12
575.413	1	5
575.583	1	8
575.752	1	9
575.922	1	23
576.092	1	-1
576.262	1	13
576.432	1	4
576.602	1	15
576.772	1	20
576.941	1	15
577.111	1	11
577.281	1	6
577.451	1	16
577.621	1	11
577.791	1	10
577.960	1	6
578.130	1	14
578.300	1	8
578.470	1	20
578.640	1	17
578.810	1	14
578.979	1	15
579.149	1	6
579.319	1	16
579.489	1	14
579.659	1	13
579.829	1	9
579.998	1	-3
580.168	1	8
580.338	1	16
580.508	1	10
580.678	1	10
580.848	1	8
581.017	1	9
581.187	1	18
581.357	1	8
581.527	1	10
581.697	1	10
581.867	1	7
582.036	1	6
582.206	1	11
582.376	1	10
582.546	1	8
582.716	1	14
582.885	1	11
583.055	1	-1
583.225	1	15
583.395	1	17
583.565	1	19
583.735	1	12
583.904	1	5
584.074	1	10
584.244	1	12
584.414	1	16
584.584	1	7
584.753	1	20
584.923	1	15
585.093	1	17
585.263	1	14
585.433	1	14
585.602	1	14
585.772	1	24
585.942	1	7
586.112	1	7
586.282	1	19
586.451	1	26
586.621	1	7
586.791	1	10
586.961	1	9
587.131	1	1
587.300	1	28
587.470	1	8
587.640	1	6
587.810	1	4
587.980	1	18
588.149	1	18
588.319	1	18
588.489	1	13
588.659	1	5
588.829	1	8
588.998	1	3
589.168	1	8
589.338	1	8
589.508	1	13
589.677	1	14
589.847	1	10
590.017	1	7
590.187	1	15
590.357	1	8
590.526	1	11
590.696	1	11
590.866	1	11
591.036	1	11
591.205	1	17
591.375	1	16
591.545	1	11
591.715	1	11
591.885	1	19
592.054	1	16
592.224	1	13
592.394	1	-2
592.564	1	11
592.733	1	20
592.903	1	16
593.073	1	4
593.243	1	20
593.412	1	5
593.582	1	9
593.752	1	0
593.922	1	12
594.091	1	21
594.261	1	2
594.431	1	8
594.601	1	6
594.771	1	10
594.940	1	12
595.110	1	11
595.280	1	8
595.450	1	14
595.619	1	18
595.789	1	5
595.959	1	3
596.129	1	11
596.298	1	25
596.468	1	6
596.638	1	6
596.808	1	-1
596.977	1	6
597.147	1	11
597.317	1	14
597.487	1	10
597.656	1	16
597.826	1	18
597.996	1	13
598.166	1	16
598.335	1	1
598.505	1	18
598.675	1	19
598.844	1	23
599.014	1	-2
599.184	1	15
599.354	1	22
599.523	1	3
599.693	1	14
599.863	1	20
600.033	1	14
600.202	1	5
600.372	1	5
600.542	1	14
600.712	1	1
600.881	1	11
601.051	1	21
601.221	1	15
601.390	1	11
601.560	1	27
601.730	1	12
601.900	1	17
602.069	1	15
602.239	1	15
602.409	1	17
602.578	1	15
602.748	1	23
602.918	1	4
603.088	1	14
603.257	1	0
603.427	1	20
603.597	1	6
603.767	1	12
603.936	1	18
604.106	1	18
604.276	1	11
604.445	1	5
604.615	1	11
604.785	1	13
604.954	1	12
605.124	1	9
605.294	1	13
605.464	1	-1
605.633	1	15
605.803	1	12
605.973	1	10
606.142	1	20
606.312	1	21
606.482	1	5
606.652	1	15
606.821	1	7
606.991	1	9
607.161	1	13
607.330	1	8
607.500	1	20
607.670	1	4
607.839	1	7
608.009	1	8
608.179	1	16
608.348	1	19
608.518	1	20
608.688	1	18
608.858	1	13
609.027	1	16
609.197	1	14
609.367	1	7
609.536	1	6
609.706	1	20
609.876	1	17
610.045	1	26
610.215	1	21
610.385	1	22
610.554	1	25
610.724	1	13
610.894	1	14
611.063	1	13
611.233	1	8
611.403	1	28
611.572	1	20
611.742	1	12
611.912	1	18
612.081	1	32
612.251	1	15
612.421	1	17
612.590	1	19
612.760	1	14
612.930	1	20
613.099	1	21
613.269	1	14
613.439	1	7
613.608	1	13
613.778	1	10
613.948	1	28
614.117	1	12
614.287	1	8
614.457	1	10
614.626	1	8
614.796	1	17
614.966	1	13
615.135	1	17
615.305	1	17
615.475	1	13
615.644	1	33
615.814	1	18
615.984	1	6
616.153	1	2
616.323	1	14
616.493	1	13
616.662	1	16
616.832	1	12
617.002	1	16
617.171	1	15
617.341	1	27
617.511	1	13
617.680	1	20
617.850	1	16
618.019	1	9
618.189	1	29
618.359	1	14
618.528	1	21
618.698	1	13
618.868	1	10
619.037	1	11
619.207	1	20
619.377	1	22
619.546	1	23
619.716	1	17
619.885	1	19
620.055	1	12
620.225	1	20
620.394	1	16
620.564	1	23
620.734	1	20
620.903	1	0
621.073	1	26
621.242	1	20
621.412	1	23
621.582	1	24
621.751	1	22
621.921	1	31
622.091	1	6
622.260	1	27
622.430	1	31
622.599	1	3
622.769	1	10
622.939	1	16
623.108	1	11
623.278	1	11
623.448	1	13
623.617	1	22
623.787	1	21
623.956	1	17
624.126	1	25
624.296	1	18
624.465	1	17
624.635	1	12
624.804	1	11
624.974	1	19
625.144	1	9
625.313	1	30
625.483	1	22
625.652	1	16
625.822	1	28
625.992	1	16
626.161	1	19
626.331	1	21
626.501	1	12
626.670	1	17
626.840	1	22
627.009	1	15
627.179	1	20
627.348	1	13
627.518	1	33
627.688	1	16
627.857	1	25
628.027	1	13
628.196	1	22
628.366	1	-1
628.536	1	14
628.705	1	15
628.875	1	8
629.044	1	13
629.214	1	20
629.384	1	27
629.553	1	19
629.723	1	21
629.892	1	25
630.062	1	7
630.232	1	20
630.401	1	22
630.571	1	9
630.740	1	17
630.910	1	23
631.079	1	26
631.249	1	12
631.419	1	23
631.588	1	28
631.758	1	13
631.927	1	36
632.097	1	20
632.266	1	15
632.436	1	27
632.606	1	29
632.775	1	20
632.945	1	26
633.114	1	19
633.284	1	5
633.453	1	21
633.623	1	29
633.793	1	18
633.962	1	25
634.132	1	22
634.301	1	28
634.471	1	29
634.640	1	22
634.810	1	16
634.979	1	25
635.149	1	24
635.319	1	25
635.488	1	19
635.658	1	26
635.827	1	23
635.997	1	25
636.166	1	25
636.336	1	18
636.505	1	19
636.675	1	27
636.845	1	11
637.014	1	19
637.184	1	30
637.353	1	21
637.523	1	30
637.692	1	28
637.862	1	12
638.031	1	25
638.201	1	27
638.370	1	22
638.540	1	17
638.710	1	17
638.879	1	15
639.049	1	23
639.218	1	15
639.388	1	24
639.557	1	24
639.727	1	27
639.896	1	19
640.066	1	14
640.235	1	18
640.405	1	30
640.574	1	28
640.744	1	10
640.914	1	26
641.083	1	31
641.253	1	17
641.422	1	19
641.592	1	34
641.761	1	14
641.931	1	45
642.100	1	22
642.270	1	21
642.439	1	32
642.609	1	34
642.778	1	22
642.948	1	34
643.117	1	43
643.287	1	22
643.456	1	17
643.626	1	24
643.795	1	21
643.965	1	19
644.134	1	26
644.304	1	10
644.473	1	23
644.643	1	31
644.812	1	22
644.982	1	31
645.151	1	24
645.321	1	28
645.490	1	32
645.660	1	22
645.829	1	28
645.999	1	25
646.168	1	37
646.338	1	21
646.507	1	27
646.677	1	20
646.846	1	30
647.016	1	40
647.185	1	29
647.355	1	40
647.524	1	20
647.694	1	25
647.863	1	24
648.033	1	31
648.202	1	32
648.372	1	20
648.541	1	30
648.711	1	38
648.880	1	36
649.050	1	30
649.219	1	34
649.389	1	22
649.558	1	32
649.728	1	30
649.897	1	32
650.067	1	37
650.236	1	30
650.406	1	32
650.575	1	26
650.745	1	26
650.914	1	32
651.084	1	34
651.253	1	27
651.423	1	29
651.592	1	25
651.762	1	26
651.931	1	36
652.101	1	25
652.270	1	32
652.440	1	25
652.609	1	36
652.778	1	43
652.948	1	23
653.117	1	38
653.287	1	16
653.456	1	9
653.626	1	27
653.795	1	25
653.965	1	24
654.134	1	26
654.304	1	29
654.473	1	29
654.643	1	31
654.812	1	44
654.982	1	33
655.151	1	37
655.320	1	35
655.490	1	26
655.659	1	30
655.829	1	29
655.998	1	32
656.168	1	26
656.337	1	34
656.507	1	25
656.676	1	28
656.846	1	23
657.015	1	31
657.184	1	26
657.354	1	30
657.523	1	27
657.693	1	27
657.862	1	23
658.032	1	27
658.201	1	21
658.371	1	37
658.540	1	22
658.709	1	39
658.879	1	33
659.048	1	34
659.218	1	30
659.387	1	37
659.557	1	30
659.726	1	26
659.895	1	36
660.065	1	22
660.234	1	23
660.404	1	29
660.573	1	33
660.743	1	32
660.912	1	38
661.081	1	34
661.251	1	29
661.420	1	44
661.590	1	32
661.759	1	38
661.929	1	21
662.098	1	34
662.267	1	20
662.437	1	32
662.606	1	21
662.776	1	44
662.945	1	34
663.115	1	39
663.284	1	36
663.453	1	33
663.623	1	31
663.792	1	40
663.962	1	32
664.131	1	30
664.300	1	19
664.470	1	28
664.639	1	34
664.809	1	19
664.978	1	40
665.148	1	44
665.317	1	28
665.486	1	37
665.656	1	29
665.825	1	44
665.995	1	21
666.164	1	34
666.333	1	31
666.503	1	28
666.672	1	33
666.842	1	26
667.011	1	27
667.180	1	22
667.350	1	33
667.519	1	30
667.689	1	36
667.858	1	35
668.027	1	38
668.197	1	26
668.366	1	28
668.536	1	25
668.705	1	28
668.874	1	42
669.044	1	28
669.213	1	35
669.382	1	31
669.552	1	44
669.721	1	31
669.891	1	27
670.060	1	29
670.229	1	36
670.399	1	36
670.568	1	40
670.738	1	30
670.907	1	37
671.076	1	32
671.246	1	45
671.415	1	35
671.584	1	31
671.754	1	23
671.923	1	46
672.093	1	44
672.262	1	31
672.431	1	35
672.601	1	34
672.770	1	34
672.939	1	35
673.109	1	34
673.278	1	44
673.448	1	30
673.617	1	35
673.786	1	29
