325.333	1	7
325.504	1	-8
325.675	1	6
325.846	1	8
326.017	1	-7
326.188	1	-8
326.359	1	15
326.531	1	-5
326.702	1	-3
326.873	1	8
327.044	1	10
327.215	1	7
327.386	1	-3
327.557	1	5
327.728	1	2
327.899	1	3
328.070	1	5
328.241	1	0
328.412	1	3
328.583	1	1
328.754	1	8
328.926	1	8
329.097	1	2
329.268	1	6
329.439	1	-2
329.610	1	4
329.781	1	8
329.952	1	6
330.123	1	3
330.294	1	9
330.465	1	5
330.636	1	11
330.807	1	2
330.978	1	-2
331.149	1	8
331.320	1	3
331.492	1	-1
331.663	1	10
331.834	1	5
332.005	1	-1
332.176	1	10
332.347	1	6
332.518	1	14
332.689	1	11
332.860	1	-2
333.031	1	11
333.202	1	-6
333.373	1	7
333.544	1	2
333.715	1	3
333.886	1	4
334.057	1	1
334.228	1	0
334.399	1	21
334.570	1	6
334.741	1	6
334.912	1	3
335.084	1	8
335.255	1	2
335.426	1	14
335.597	1	-1
335.768	1	16
335.939	1	4
336.110	1	12
336.281	1	5
336.452	1	8
336.623	1	-4
336.794	1	-6
336.965	1	3
337.136	1	19
337.307	1	5
337.478	1	8
337.649	1	-4
337.820	1	0
337.991	1	6
338.162	1	3
338.333	1	3
338.504	1	19
338.675	1	1
338.846	1	-8
339.017	1	0
339.188	1	7
339.359	1	9
339.530	1	4
339.701	1	16
339.872	1	15
340.043	1	8
340.214	1	5
340.385	1	7
340.556	1	9
340.727	1	9
340.898	1	6
341.069	1	7
341.240	1	-1
341.411	1	5
341.582	1	-1
341.753	1	2
341.924	1	16
342.095	1	5
342.266	1	17
342.437	1	4
342.608	1	12
342.779	1	2
342.950	1	-10
343.121	1	10
343.292	1	7
343.463	1	15
343.634	1	13
343.805	1	6
343.976	1	15
344.147	1	8
344.318	1	5
344.489	1	9
344.660	1	10
344.831	1	13
345.002	1	8
345.173	1	13
345.344	1	4
345.515	1	10
345.686	1	10
345.857	1	11
346.028	1	9
346.199	1	14
346.370	1	-3
346.541	1	5
346.712	1	5
346.883	1	3
347.054	1	15
347.225	1	7
347.396	1	9
347.567	1	4
347.738	1	1
347.909	1	10
348.080	1	8
348.251	1	5
348.422	1	21
348.593	1	8
348.764	1	14
348.935	1	7
349.106	1	6
349.277	1	10
349.448	1	5
349.619	1	13
349.790	1	8
349.961	1	-4
350.132	1	17
350.303	1	12
350.474	1	15
350.645	1	3
350.816	1	4
350.987	1	17
351.157	1	12
351.328	1	12
351.499	1	7
351.670	1	8
351.841	1	21
352.012	1	8
352.183	1	15
352.354	1	10
352.525	1	10
352.696	1	5
352.867	1	6
353.038	1	19
353.209	1	8
353.380	1	14
353.551	1	22
353.722	1	10
353.893	1	16
354.064	1	4
354.235	1	9
354.406	1	10
354.576	1	7
354.747	1	18
354.918	1	17
355.089	1	25
355.260	1	12
355.431	1	3
355.602	1	4
355.773	1	10
355.944	1	16
356.115	1	7
356.286	1	23
356.457	1	24
356.628	1	6
356.799	1	13
356.970	1	34
357.141	1	15
357.311	1	26
357.482	1	17
357.653	1	6
357.824	1	14
357.995	1	23
358.166	1	5
358.337	1	9
358.508	1	20
358.679	1	12
358.850	1	22
359.021	1	11
359.192	1	27
359.363	1	20
359.533	1	18
359.704	1	6
359.875	1	5
360.046	1	10
360.217	1	16
360.388	1	28
360.559	1	15
360.730	1	11
360.901	1	16
361.072	1	8
361.243	1	13
361.414	1	17
361.584	1	4
361.755	1	23
361.926	1	20
362.097	1	2
362.268	1	30
362.439	1	11
362.610	1	20
362.781	1	7
362.952	1	20
363.123	1	6
363.293	1	19
363.464	1	3
363.635	1	20
363.806	1	20
363.977	1	14
364.148	1	17
364.319	1	7
364.490	1	12
364.661	1	7
364.832	1	19
365.002	1	11
365.173	1	15
365.344	1	8
365.515	1	15
365.686	1	22
365.857	1	16
366.028	1	19
366.199	1	29
366.370	1	22
366.540	1	17
366.711	1	22
366.882	1	15
367.053	1	13
367.224	1	16
367.395	1	7
367.566	1	19
367.737	1	12
367.908	1	17
368.078	1	4
368.249	1	15
368.420	1	10
368.591	1	25
368.762	1	21
368.933	1	10
369.104	1	19
369.274	1	20
369.445	1	18
369.616	1	12
369.787	1	16
369.958	1	8
370.129	1	12
370.300	1	14
370.471	1	17
370.641	1	4
370.812	1	15
370.983	1	10
371.154	1	18
371.325	1	17
371.496	1	14
371.667	1	21
371.837	1	18
372.008	1	5
372.179	1	15
372.350	1	17
372.521	1	16
372.692	1	15
372.863	1	10
373.033	1	17
373.204	1	14
373.375	1	22
373.546	1	25
373.717	1	11
373.888	1	24
374.059	1	4
374.229	1	27
374.400	1	13
374.571	1	10
374.742	1	16
374.913	1	10
375.084	1	18
375.254	1	19
375.425	1	10
375.596	1	6
375.767	1	22
375.938	1	15
376.109	1	18
376.279	1	18
376.450	1	22
376.621	1	17
376.792	1	17
376.963	1	20
377.134	1	14
377.304	1	24
377.475	1	17
377.646	1	9
377.817	1	16
377.988	1	23
378.159	1	18
378.329	1	28
378.500	1	23
378.671	1	15
378.842	1	26
379.013	1	15
379.184	1	12
379.354	1	35
379.525	1	22
379.696	1	19
379.867	1	20
380.038	1	17
380.209	1	23
380.379	1	22
380.550	1	6
380.721	1	12
380.892	1	7
381.063	1	22
381.233	1	15
381.404	1	19
381.575	1	11
381.746	1	28
381.917	1	18
382.087	1	25
382.258	1	28
382.429	1	14
382.600	1	17
382.771	1	22
382.941	1	33
383.112	1	10
383.283	1	23
383.454	1	11
383.625	1	19
383.795	1	26
383.966	1	23
384.137	1	27
384.308	1	33
384.479	1	11
384.649	1	17
384.820	1	24
384.991	1	13
385.162	1	20
385.333	1	22
385.503	1	11
385.674	1	18
385.845	1	22
386.016	1	19
386.187	1	9
386.357	1	30
386.528	1	19
386.699	1	21
386.870	1	22
387.041	1	23
387.211	1	20
387.382	1	25
387.553	1	22
387.724	1	13
387.894	1	4
388.065	1	18
388.236	1	22
388.407	1	28
388.578	1	27
388.748	1	30
388.919	1	16
389.090	1	41
389.261	1	29
389.431	1	20
389.602	1	26
389.773	1	28
389.944	1	27
390.114	1	28
390.285	1	24
390.456	1	25
390.627	1	22
390.798	1	21
390.968	1	28
391.139	1	31
391.310	1	19
391.481	1	20
391.651	1	30
391.822	1	30
391.993	1	21
392.164	1	34
392.334	1	12
392.505	1	28
392.676	1	23
392.847	1	20
393.017	1	28
393.188	1	33
393.359	1	33
393.530	1	35
393.700	1	23
393.871	1	23
394.042	1	27
394.213	1	28
394.383	1	21
394.554	1	26
394.725	1	17
394.896	1	29
395.066	1	29
395.237	1	34
395.408	1	25
395.579	1	35
395.749	1	45
395.920	1	29
396.091	1	16
396.262	1	20
396.432	1	24
396.603	1	22
396.774	1	19
396.945	1	34
397.115	1	25
397.286	1	39
397.457	1	26
397.627	1	18
397.798	1	27
397.969	1	23
398.140	1	29
398.310	1	34
398.481	1	29
398.652	1	29
398.823	1	30
398.993	1	19
399.164	1	40
399.335	1	29
399.505	1	15
399.676	1	25
399.847	1	18
400.018	1	18
400.188	1	26
400.359	1	28
400.530	1	20
400.700	1	36
400.871	1	24
401.042	1	27
401.213	1	28
401.383	1	25
401.554	1	28
401.725	1	19
401.895	1	23
402.066	1	34
402.237	1	17
402.408	1	30
402.578	1	28
402.749	1	17
402.920	1	36
403.090	1	33
403.261	1	21
403.432	1	33
403.603	1	31
403.773	1	35
403.944	1	36
404.115	1	25
404.285	1	25
404.456	1	32
404.627	1	27
404.797	1	14
404.968	1	41
405.139	1	32
405.310	1	18
405.480	1	26
405.651	1	28
405.822	1	17
405.992	1	32
406.163	1	27
406.334	1	20
406.504	1	24
406.675	1	22
406.846	1	24
407.016	1	34
407.187	1	33
407.358	1	27
407.528	1	24
407.699	1	33
407.870	1	29
408.041	1	34
408.211	1	30
408.382	1	37
408.553	1	32
408.723	1	35
408.894	1	16
409.065	1	33
409.235	1	35
409.406	1	27
409.577	1	27
409.747	1	34
409.918	1	32
410.089	1	38
410.259	1	27
410.430	1	31
410.601	1	23
410.771	1	37
410.942	1	29
411.113	1	26
411.283	1	24
411.454	1	43
411.625	1	38
411.795	1	40
411.966	1	30
412.137	1	30
412.307	1	24
412.478	1	32
412.649	1	26
412.819	1	26
412.990	1	38
413.161	1	22
413.331	1	32
413.502	1	22
413.672	1	27
413.843	1	30
414.014	1	29
414.184	1	41
414.355	1	30
414.526	1	32
414.696	1	27
414.867	1	21
415.038	1	30
415.208	1	13
415.379	1	24
415.550	1	31
415.720	1	15
415.891	1	34
416.062	1	39
416.232	1	22
416.403	1	21
416.573	1	25
416.744	1	29
416.915	1	25
417.085	1	34
417.256	1	30
417.427	1	26
417.597	1	13
417.768	1	27
417.939	1	28
418.109	1	20
418.280	1	24
418.450	1	38
418.621	1	17
418.792	1	33
418.962	1	27
419.133	1	16
419.304	1	17
419.474	1	30
419.645	1	26
419.815	1	19
419.986	1	27
420.157	1	28
420.327	1	25
420.498	1	23
420.669	1	29
420.839	1	42
421.010	1	29
421.180	1	21
421.351	1	22
421.522	1	29
421.692	1	32
421.863	1	24
422.033	1	39
422.204	1	32
422.375	1	21
422.545	1	33
422.716	1	25
422.886	1	25
423.057	1	25
423.228	1	25
423.398	1	23
423.569	1	34
423.740	1	22
423.910	1	26
424.081	1	37
424.251	1	20
424.422	1	23
424.593	1	31
424.763	1	32
424.934	1	28
425.104	1	40
425.275	1	19
425.445	1	28
425.616	1	25
425.787	1	32
425.957	1	20
426.128	1	25
426.298	1	27
426.469	1	20
426.640	1	30
426.810	1	6
426.981	1	39
427.151	1	23
427.322	1	22
427.493	1	27
427.663	1	29
427.834	1	34
428.004	1	31
428.175	1	22
428.345	1	19
428.516	1	30
428.687	1	27
428.857	1	37
429.028	1	24
429.198	1	19
429.369	1	30
429.540	1	29
429.710	1	31
429.881	1	21
430.051	1	26
430.222	1	26
430.392	1	40
430.563	1	28
430.734	1	19
430.904	1	32
431.075	1	30
431.245	1	12
431.416	1	31
431.586	1	18
431.757	1	22
431.927	1	29
432.098	1	27
432.269	1	10
432.439	1	12
432.610	1	34
432.780	1	22
432.951	1	16
433.121	1	21
433.292	1	29
433.462	1	17
433.633	1	26
433.804	1	39
433.974	1	18
434.145	1	19
434.315	1	17
434.486	1	4
434.656	1	24
434.827	1	25
434.997	1	25
435.168	1	19
435.339	1	52
435.509	1	17
435.680	1	24
435.850	1	20
436.021	1	16
436.191	1	16
436.362	1	27
436.532	1	22
436.703	1	18
436.873	1	21
437.044	1	17
437.214	1	18
437.385	1	27
437.556	1	26
437.726	1	28
437.897	1	19
438.067	1	16
438.238	1	30
438.408	1	26
438.579	1	13
438.749	1	20
438.920	1	32
439.090	1	12
439.261	1	34
439.431	1	22
439.602	1	17
439.772	1	30
439.943	1	24
440.113	1	18
440.284	1	27
440.455	1	22
440.625	1	32
440.796	1	16
440.966	1	29
441.137	1	27
441.307	1	21
441.478	1	18
441.648	1	21
441.819	1	16
441.989	1	32
442.160	1	23
442.330	1	14
442.501	1	32
442.671	1	27
442.842	1	18
443.012	1	23
443.183	1	36
443.353	1	11
443.524	1	23
443.694	1	19
443.865	1	27
444.035	1	31
444.206	1	9
444.376	1	23
444.547	1	19
444.717	1	13
444.888	1	15
445.058	1	23
445.229	1	8
445.399	1	29
445.570	1	18
445.740	1	18
445.911	1	23
446.081	1	16
446.252	1	22
446.422	1	14
446.593	1	14
446.763	1	25
446.934	1	13
447.104	1	22
447.275	1	26
447.445	1	17
447.616	1	30
447.786	1	19
447.957	1	13
448.127	1	19
448.298	1	15
448.468	1	24
448.639	1	15
448.809	1	2
448.979	1	20
449.150	1	12
449.320	1	18
449.491	1	16
449.661	1	13
449.832	1	13
450.002	1	16
450.173	1	19
450.343	1	12
450.514	1	23
450.684	1	23
450.855	1	19
451.025	1	19
451.196	1	10
451.366	1	29
451.537	1	29
451.707	1	27
451.878	1	14
452.048	1	18
452.218	1	19
452.389	1	25
452.559	1	31
452.730	1	19
452.900	1	7
453.071	1	19
453.241	1	25
453.412	1	15
453.582	1	23
453.753	1	19
453.923	1	14
454.093	1	14
454.264	1	32
454.434	1	19
454.605	1	13
454.775	1	17
454.946	1	8
455.116	1	25
455.287	1	15
455.457	1	17
455.628	1	-1
455.798	1	23
455.968	1	18
456.139	1	20
456.309	1	21
456.480	1	15
456.650	1	17
456.821	1	17
456.991	1	25
457.161	1	19
457.332	1	3
457.502	1	16
457.673	1	17
457.843	1	10
458.014	1	18
458.184	1	19
458.355	1	20
458.525	1	21
458.695	1	10
458.866	1	3
459.036	1	15
459.207	1	19
459.377	1	22
459.548	1	17
459.718	1	16
459.888	1	11
460.059	1	5
460.229	1	7
460.400	1	14
460.570	1	10
460.740	1	13
460.911	1	13
461.081	1	19
461.252	1	15
461.422	1	10
461.593	1	21
461.763	1	20
461.933	1	9
462.104	1	1
462.274	1	18
462.445	1	8
462.615	1	31
462.785	1	21
462.956	1	11
463.126	1	21
463.297	1	14
463.467	1	28
463.638	1	24
463.808	1	15
463.978	1	5
464.149	1	14
464.319	1	26
464.490	1	11
464.660	1	5
464.830	1	15
465.001	1	8
465.171	1	13
465.342	1	5
465.512	1	17
465.682	1	0
465.853	1	15
466.023	1	22
466.194	1	13
466.364	1	20
466.534	1	2
466.705	1	20
466.875	1	4
467.045	1	9
467.216	1	22
467.386	1	11
467.557	1	26
467.727	1	5
467.897	1	10
468.068	1	6
468.238	1	16
468.409	1	9
468.579	1	21
468.749	1	15
468.920	1	4
469.090	1	17
469.260	1	18
469.431	1	8
469.601	1	14
469.772	1	29
469.942	1	13
470.112	1	13
470.283	1	21
470.453	1	17
470.623	1	7
470.794	1	10
470.964	1	8
471.135	1	21
471.305	1	10
471.475	1	14
471.646	1	14
471.816	1	15
471.986	1	15
472.157	1	11
472.327	1	18
472.497	1	15
472.668	1	15
472.838	1	2
473.009	1	19
473.179	1	14
473.349	1	14
473.520	1	20
473.690	1	12
473.860	1	5
474.031	1	3
474.201	1	12
474.371	1	16
474.542	1	9
474.712	1	10
474.882	1	3
475.053	1	12
475.223	1	19
475.394	1	8
475.564	1	11
475.734	1	3
475.905	1	15
476.075	1	26
476.245	1	14
476.416	1	8
476.586	1	16
476.756	1	10
476.927	1	13
477.097	1	3
477.267	1	17
477.438	1	13
477.608	1	15
477.778	1	9
477.949	1	1
478.119	1	15
478.289	1	16
478.460	1	0
478.630	1	13
478.800	1	6
478.971	1	7
479.141	1	21
479.311	1	18
479.482	1	13
479.652	1	10
479.822	1	2
479.993	1	14
480.163	1	12
480.333	1	18
480.504	1	17
480.674	1	17
480.844	1	9
481.015	1	11
481.185	1	15
481.355	1	22
481.525	1	8
481.696	1	18
481.866	1	18
482.036	1	14
482.207	1	5
482.377	1	6
482.547	1	18
482.718	1	12
482.888	1	15
483.058	1	16
483.229	1	16
483.399	1	12
483.569	1	-3
483.740	1	11
483.910	1	-2
484.080	1	12
484.250	1	0
484.421	1	10
484.591	1	5
484.761	1	15
484.932	1	6
485.102	1	18
485.272	1	4
485.443	1	10
485.613	1	3
485.783	1	6
485.953	1	7
486.124	1	8
486.294	1	15
486.464	1	20
486.635	1	7
486.805	1	5
486.975	1	2
487.146	1	11
487.316	1	19
487.486	1	12
487.656	1	12
487.827	1	5
487.997	1	13
488.167	1	21
488.338	1	4
488.508	1	5
488.678	1	7
488.848	1	16
489.019	1	1
489.189	1	22
489.359	1	10
489.529	1	9
489.700	1	0
489.870	1	8
490.040	1	7
490.211	1	10
490.381	1	14
490.551	1	12
490.721	1	5
490.892	1	1
491.062	1	2
491.232	1	11
491.402	1	0
491.573	1	14
491.743	1	12
491.913	1	13
492.084	1	7
492.254	1	10
492.424	1	11
492.594	1	6
492.765	1	12
492.935	1	8
493.105	1	8
493.275	1	5
493.446	1	-3
493.616	1	12
493.786	1	16
493.956	1	5
494.127	1	10
494.297	1	6
494.467	1	-1
494.637	1	-1
494.808	1	14
494.978	1	10
495.148	1	1
495.318	1	11
495.489	1	4
495.659	1	15
495.829	1	9
495.999	1	11
496.170	1	6
496.340	1	6
496.510	1	19
496.680	1	4
496.851	1	16
497.021	1	0
497.191	1	11
497.361	1	-5
497.532	1	12
497.702	1	21
497.872	1	5
498.042	1	7
498.213	1	-3
498.383	1	4
498.553	1	13
498.723	1	7
498.894	1	2
499.064	1	-2
499.234	1	16
499.404	1	13
499.574	1	12
499.745	1	7
499.915	1	4
500.085	1	9
500.255	1	-6
500.426	1	-2
500.596	1	-10
500.766	1	11
500.936	1	5
501.106	1	-5
501.277	1	5
501.447	1	12
501.617	1	3
501.787	1	0
501.958	1	5
502.128	1	3
502.298	1	15
502.468	1	-6
502.638	1	7
502.809	1	-3
502.979	1	7
503.149	1	6
503.319	1	15
503.489	1	-4
503.660	1	-3
503.830	1	9
504.000	1	3
504.170	1	0
504.340	1	-6
504.511	1	2
504.681	1	2
504.851	1	5
505.021	1	10
505.192	1	-5
505.362	1	-1
505.532	1	2
505.702	1	18
505.872	1	6
506.043	1	18
506.213	1	10
506.383	1	5
506.553	1	4
506.723	1	-3
506.893	1	17
507.064	1	15
507.234	1	1
507.404	1	-6
507.574	1	3
507.744	1	6
507.915	1	5
508.085	1	0
508.255	1	6
508.425	1	5
508.595	1	-3
508.766	1	2
508.936	1	4
509.106	1	8
509.276	1	8
509.446	1	-6
509.616	1	3
509.787	1	8
509.957	1	21
510.127	1	1
510.297	1	4
510.467	1	0
510.638	1	5
510.808	1	14
510.978	1	2
511.148	1	4
511.318	1	7
511.488	1	6
511.659	1	7
511.829	1	2
511.999	1	9
512.169	1	5
512.339	1	7
512.509	1	-3
512.680	1	0
512.850	1	6
513.020	1	2
513.190	1	3
513.360	1	6
513.530	1	11
513.700	1	8
513.871	1	-5
514.041	1	9
514.211	1	11
514.381	1	12
514.551	1	5
514.721	1	6
514.892	1	-4
515.062	1	9
515.232	1	-3
515.402	1	5
515.572	1	10
515.742	1	7
515.912	1	5
516.083	1	12
516.253	1	9
516.423	1	3
516.593	1	9
516.763	1	12
516.933	1	0
517.104	1	15
517.274	1	3
517.444	1	7
517.614	1	-3
517.784	1	9
517.954	1	-8
518.124	1	3
518.294	1	7
518.465	1	4
518.635	1	11
518.805	1	2
518.975	1	9
519.145	1	8
519.315	1	10
519.485	1	0
519.656	1	5
519.826	1	-7
519.996	1	6
520.166	1	6
520.336	1	3
520.506	1	7
520.676	1	7
520.846	1	7
521.017	1	1
521.187	1	11
521.357	1	2
521.527	1	-2
521.697	1	2
521.867	1	8
522.037	1	4
522.207	1	10
522.377	1	7
522.548	1	-7
522.718	1	0
522.888	1	5
523.058	1	5
523.228	1	-2
523.398	1	-6
523.568	1	-5
523.738	1	5
523.909	1	3
524.079	1	-2
524.249	1	-1
524.419	1	5
524.589	1	3
524.759	1	6
524.929	1	-3
525.099	1	-3
525.269	1	8
525.439	1	-4
525.610	1	16
525.780	1	-5
525.950	1	6
526.120	1	-3
526.290	1	-4
526.460	1	-6
526.630	1	-2
526.800	1	-3
526.970	1	6
527.140	1	2
527.311	1	-1
527.481	1	12
527.651	1	5
527.821	1	-5
527.991	1	7
528.161	1	2
528.331	1	-5
528.501	1	-2
528.671	1	5
528.841	1	5
529.011	1	6
529.181	1	1
529.352	1	5
529.522	1	6
529.692	1	8
529.862	1	3
530.032	1	-6
530.202	1	1
530.372	1	5
530.542	1	1
530.712	1	1
530.882	1	3
531.052	1	3
531.222	1	8
531.392	1	4
531.563	1	10
531.733	1	6
531.903	1	5
532.073	1	1
532.243	1	9
532.413	1	21
532.583	1	3
532.753	1	-5
532.923	1	2
533.093	1	-9
533.263	1	7
533.433	1	-11
533.603	1	2
533.773	1	8
533.943	1	6
534.113	1	8
534.284	1	0
534.454	1	-4
534.624	1	4
534.794	1	5
534.964	1	-1
535.134	1	-1
535.304	1	-4
535.474	1	7
535.644	1	8
535.814	1	-1
535.984	1	7
536.154	1	0
536.324	1	7
536.494	1	10
536.664	1	3
536.834	1	1
537.004	1	-3
537.174	1	3
537.344	1	13
537.514	1	-8
537.685	1	7
537.855	1	5
538.025	1	13
538.195	1	3
538.365	1	0
538.535	1	-1
538.705	1	3
538.875	1	5
539.045	1	5
539.215	1	-8
539.385	1	2
539.555	1	-1
539.725	1	0
539.895	1	7
540.065	1	-2
540.235	1	0
540.405	1	5
540.575	1	9
540.745	1	8
540.915	1	11
541.085	1	-8
541.255	1	4
541.425	1	-2
541.595	1	0
541.765	1	6
541.935	1	9
542.105	1	-1
542.275	1	-6
542.445	1	-2
542.615	1	0
542.785	1	10
542.955	1	3
543.125	1	-10
543.295	1	5
543.465	1	8
543.635	1	-8
543.805	1	8
543.975	1	0
544.145	1	9
544.315	1	-7
544.485	1	2
544.655	1	4
544.825	1	3
544.995	1	4
545.165	1	3
545.335	1	4
545.505	1	5
545.675	1	4
545.845	1	7
546.015	1	-1
546.185	1	2
546.355	1	-2
546.525	1	3
546.695	1	1
546.865	1	5
547.035	1	5
547.205	1	11
547.375	1	6
547.545	1	11
547.715	1	7
547.885	1	-1
548.055	1	7
548.225	1	6
548.395	1	-5
548.565	1	6
548.735	1	-5
548.905	1	11
549.075	1	8
549.245	1	8
549.415	1	-4
549.585	1	-2
549.755	1	8
549.925	1	6
550.095	1	-8
550.265	1	4
550.435	1	10
550.605	1	1
550.775	1	-2
550.945	1	2
551.115	1	8
551.285	1	-7
551.455	1	7
551.625	1	3
551.795	1	1
551.965	1	-12
552.135	1	-1
552.305	1	6
552.475	1	16
552.645	1	2
552.815	1	3
552.985	1	-1
553.155	1	0
553.325	1	2
553.495	1	1
553.665	1	8
553.835	1	1
554.004	1	3
554.174	1	1
554.344	1	7
554.514	1	-5
554.684	1	6
554.854	1	-2
555.024	1	7
555.194	1	12
555.364	1	-4
555.534	1	-7
555.704	1	2
555.874	1	-3
556.044	1	5
556.214	1	0
556.384	1	6
556.554	1	5
556.724	1	-3
556.894	1	2
557.064	1	-6
557.234	1	4
557.404	1	5
557.573	1	-1
557.743	1	-3
557.913	1	-1
558.083	1	4
558.253	1	3
558.423	1	6
558.593	1	4
558.763	1	5
558.933	1	3
559.103	1	1
559.273	1	7
559.443	1	3
559.613	1	0
559.783	1	-4
559.953	1	-4
560.122	1	11
560.292	1	-12
560.462	1	-7
560.632	1	-3
560.802	1	11
560.972	1	-1
561.142	1	5
561.312	1	3
561.482	1	2
561.652	1	2
561.822	1	-16
561.992	1	11
562.162	1	-5
562.331	1	-6
562.501	1	3
562.671	1	-2
562.841	1	-5
563.011	1	4
563.181	1	4
563.351	1	-3
563.521	1	-8
563.691	1	11
563.861	1	2
564.031	1	-2
564.201	1	1
564.370	1	9
564.540	1	1
564.710	1	-1
564.880	1	-2
565.050	1	2
565.220	1	12
565.390	1	-6
565.560	1	8
565.730	1	9
565.900	1	-2
566.069	1	1
566.239	1	5
566.409	1	4
566.579	1	-2
566.749	1	-3
566.919	1	-9
567.089	1	-11
567.259	1	-3
567.429	1	-10
567.599	1	9
567.768	1	3
567.938	1	4
568.108	1	1
568.278	1	-2
568.448	1	0
568.618	1	10
568.788	1	8
568.958	1	1
569.128	1	6
569.297	1	-7
569.467	1	14
569.637	1	6
569.807	1	14
569.977	1	-2
570.147	1	0
570.317	1	4
570.487	1	-1
570.656	1	4
570.826	1	2
570.996	1	7
571.166	1	2
571.336	1	4
571.506	1	-6
571.676	1	7
571.846	1	11
572.015	1	1
572.185	1	-1
572.355	1	-2
572.525	1	-8
572.695	1	1
572.865	1	9
573.035	1	3
573.205	1	-3
573.374	1	-7
573.544	1	0
573.714	1	-3
573.884	1	-3
574.054	1	-4
574.224	1	-5
574.394	1	-5
574.563	1	3
574.733	1	4
574.903	1	4
575.073	1	10
575.243	1	2
575.413	1	-5
575.583	1	-9
575.752	1	-2
575.922	1	10
576.092	1	-5
576.262	1	5
576.432	1	4
576.602	1	2
576.772	1	-2
576.941	1	-7
577.111	1	-1
577.281	1	-10
577.451	1	0
577.621	1	2
577.791	1	5
577.960	1	2
578.130	1	7
578.300	1	-2
578.470	1	2
578.640	1	-2
578.810	1	-3
578.979	1	7
579.149	1	1
579.319	1	5
579.489	1	4
579.659	1	2
579.829	1	-8
579.998	1	-4
580.168	1	-1
580.338	1	-2
580.508	1	-5
580.678	1	4
580.848	1	3
581.017	1	10
581.187	1	6
581.357	1	0
581.527	1	2
581.697	1	-3
581.867	1	6
582.036	1	-8
582.206	1	3
582.376	1	-3
582.546	1	-5
582.716	1	4
582.885	1	-2
583.055	1	-4
583.225	1	3
583.395	1	-1
583.565	1	13
583.735	1	5
583.904	1	3
584.074	1	7
584.244	1	4
584.414	1	-10
584.584	1	1
584.753	1	-4
584.923	1	-8
585.093	1	8
585.263	1	3
585.433	1	6
585.602	1	5
585.772	1	19
585.942	1	-4
586.112	1	1
586.282	1	6
586.451	1	5
586.621	1	-6
586.791	1	-17
586.961	1	-5
587.131	1	3
587.300	1	2
587.470	1	3
587.640	1	-1
587.810	1	-7
587.980	1	4
588.149	1	7
588.319	1	10
588.489	1	5
588.659	1	-5
588.829	1	3
588.998	1	-1
589.168	1	5
589.338	1	-1
589.508	1	6
589.677	1	-3
589.847	1	1
590.017	1	-7
590.187	1	3
590.357	1	-5
590.526	1	1
590.696	1	12
590.866	1	-8
591.036	1	3
591.205	1	1
591.375	1	5
591.545	1	-5
591.715	1	8
591.885	1	9
592.054	1	-4
592.224	1	6
592.394	1	-12
592.564	1	5
592.733	1	2
592.903	1	11
593.073	1	3
593.243	1	-2
593.412	1	2
593.582	1	-4
593.752	1	-8
593.922	1	8
594.091	1	9
594.261	1	-6
594.431	1	-1
594.601	1	-6
594.771	1	1
594.940	1	-2
595.110	1	5
595.280	1	2
595.450	1	-3
595.619	1	1
595.789	1	4
595.959	1	-4
596.129	1	-1
596.298	1	5
596.468	1	-2
596.638	1	-14
596.808	1	-7
596.977	1	-3
597.147	1	-4
597.317	1	7
597.487	1	-4
597.656	1	11
597.826	1	10
597.996	1	-4
598.166	1	1
598.335	1	-6
598.505	1	3
598.675	1	7
598.844	1	13
599.014	1	-6
599.184	1	2
599.354	1	9
599.523	1	-6
599.693	1	-4
599.863	1	3
600.033	1	11
600.202	1	3
600.372	1	-10
600.542	1	-3
600.712	1	-6
600.881	1	3
601.051	1	8
601.221	1	0
601.390	1	4
601.560	1	5
601.730	1	-3
601.900	1	-1
602.069	1	1
602.239	1	2
602.409	1	-2
602.578	1	8
602.748	1	5
602.918	1	-8
603.088	1	0
603.257	1	-4
603.427	1	5
603.597	1	-2
603.767	1	0
603.936	1	10
604.106	1	-3
604.276	1	3
604.445	1	-7
604.615	1	-3
604.785	1	2
604.954	1	-2
605.124	1	2
605.294	1	-2
605.464	1	-3
605.633	1	10
605.803	1	1
605.973	1	-4
606.142	1	7
606.312	1	-1
606.482	1	-1
606.652	1	1
606.821	1	-3
606.991	1	1
607.161	1	6
607.330	1	5
607.500	1	-1
607.670	1	-4
607.839	1	-1
608.009	1	-10
608.179	1	11
608.348	1	2
608.518	1	17
608.688	1	6
608.858	1	1
609.027	1	5
609.197	1	4
609.367	1	-9
609.536	1	-6
609.706	1	6
609.876	1	3
610.045	1	6
610.215	1	5
610.385	1	-1
610.554	1	3
610.724	1	-2
610.894	1	3
611.063	1	5
611.233	1	6
611.403	1	8
611.572	1	-2
611.742	1	0
611.912	1	8
612.081	1	7
612.251	1	4
612.421	1	4
612.590	1	-1
612.760	1	1
612.930	1	0
613.099	1	8
613.269	1	3
613.439	1	0
613.608	1	0
613.778	1	1
613.948	1	2
614.117	1	4
614.287	1	-3
614.457	1	4
614.626	1	-12
614.796	1	-3
614.966	1	2
615.135	1	3
615.305	1	2
615.475	1	3
615.644	1	14
615.814	1	9
615.984	1	-11
616.153	1	0
616.323	1	6
616.493	1	1
616.662	1	-4
616.832	1	7
617.002	1	5
617.171	1	5
617.341	1	6
617.511	1	-10
617.680	1	-1
617.850	1	4
618.019	1	6
618.189	1	12
618.359	1	1
618.528	1	4
618.698	1	12
618.868	1	4
619.037	1	2
619.207	1	-10
619.377	1	1
619.546	1	8
619.716	1	3
619.885	1	0
620.055	1	-1
620.225	1	8
620.394	1	9
620.564	1	3
620.734	1	0
620.903	1	-8
621.073	1	14
621.242	1	9
621.412	1	-2
621.582	1	15
621.751	1	3
621.921	1	6
622.091	1	-1
622.260	1	1
622.430	1	6
622.599	1	5
622.769	1	0
622.939	1	0
623.108	1	2
623.278	1	-4
623.448	1	2
623.617	1	6
623.787	1	2
623.956	1	2
624.126	1	1
624.296	1	5
624.465	1	0
624.635	1	6
624.804	1	-1
624.974	1	-6
625.144	1	-1
625.313	1	13
625.483	1	11
625.652	1	4
625.822	1	6
625.992	1	-11
626.161	1	-3
626.331	1	1
626.501	1	-2
626.670	1	1
626.840	1	4
627.009	1	0
627.179	1	2
627.348	1	2
627.518	1	14
627.688	1	2
627.857	1	7
628.027	1	9
628.196	1	3
628.366	1	-12
628.536	1	-5
628.705	1	1
628.875	1	2
629.044	1	-6
629.214	1	7
629.384	1	11
629.553	1	-7
629.723	1	11
629.892	1	8
630.062	1	5
630.232	1	12
630.401	1	7
630.571	1	-4
630.740	1	-6
630.910	1	11
631.079	1	2
631.249	1	9
631.419	1	5
631.588	1	7
631.758	1	-5
631.927	1	14
632.097	1	-1
632.266	1	14
632.436	1	-2
632.606	1	-2
632.775	1	-1
632.945	1	-2
633.114	1	-8
633.284	1	-1
633.453	1	8
633.623	1	10
633.793	1	0
633.962	1	0
634.132	1	5
634.301	1	9
634.471	1	10
634.640	1	-4
634.810	1	7
634.979	1	6
635.149	1	1
635.319	1	-6
635.488	1	3
635.658	1	-6
635.827	1	-3
635.997	1	-1
636.166	1	5
636.336	1	-3
636.505	1	7
636.675	1	2
636.845	1	6
637.014	1	-6
637.184	1	6
637.353	1	-4
637.523	1	2
637.692	1	7
637.862	1	-3
638.031	1	-4
638.201	1	5
638.370	1	-3
638.540	1	-8
638.710	1	-5
638.879	1	3
639.049	1	-5
639.218	1	5
639.388	1	6
639.557	1	6
639.727	1	5
639.896	1	-7
640.066	1	6
640.235	1	2
640.405	1	8
640.574	1	2
640.744	1	-2
640.914	1	1
641.083	1	12
641.253	1	-1
641.422	1	-2
641.592	1	5
641.761	1	1
641.931	1	15
642.100	1	3
642.270	1	5
642.439	1	4
642.609	1	8
642.778	1	5
642.948	1	9
643.117	1	9
643.287	1	4
643.456	1	-2
643.626	1	-1
643.795	1	-1
643.965	1	-4
644.134	1	0
644.304	1	2
644.473	1	6
644.643	1	1
644.812	1	-5
644.982	1	1
645.151	1	0
645.321	1	4
645.490	1	10
645.660	1	-5
645.829	1	0
645.999	1	2
646.168	1	16
646.338	1	-4
646.507	1	2
646.677	1	7
646.846	1	0
647.016	1	17
647.185	1	4
647.355	1	11
647.524	1	-3
647.694	1	-6
647.863	1	-7
648.033	1	4
648.202	1	9
648.372	1	-10
648.541	1	-4
648.711	1	11
648.880	1	11
649.050	1	6
649.219	1	6
649.389	1	1
649.558	1	8
649.728	1	3
649.897	1	-1
650.067	1	10
650.236	1	-2
650.406	1	0
650.575	1	4
650.745	1	13
650.914	1	11
651.084	1	2
651.253	1	5
651.423	1	-10
651.592	1	1
651.762	1	-1
651.931	1	10
652.101	1	-5
652.270	1	-2
652.440	1	5
652.609	1	11
652.778	1	7
652.948	1	8
653.117	1	-4
653.287	1	-11
653.456	1	4
653.626	1	2
653.795	1	-3
653.965	1	6
654.134	1	5
654.304	1	13
654.473	1	13
654.643	1	-3
654.812	1	16
654.982	1	0
655.151	1	2
655.320	1	0
655.490	1	-8
655.659	1	-1
655.829	1	6
655.998	1	14
656.168	1	3
656.337	1	4
656.507	1	-2
656.676	1	-1
656.846	1	-3
657.015	1	12
657.184	1	-2
657.354	1	-1
657.523	1	-4
657.693	1	4
657.862	1	0
658.032	1	6
658.201	1	2
658.371	1	-4
658.540	1	-12
658.709	1	9
658.879	1	10
659.048	1	12
659.218	1	8
659.387	1	6
659.557	1	3
659.726	1	-1
659.895	1	-1
660.065	1	1
660.234	1	-8
660.404	1	1
660.573	1	-3
660.743	1	-5
660.912	1	8
661.081	1	1
661.251	1	7
661.420	1	10
661.590	1	0
661.759	1	14
661.929	1	-10
662.098	1	3
662.267	1	-7
662.437	1	8
662.606	1	-5
662.776	1	8
662.945	1	9
663.115	1	16
663.284	1	4
663.453	1	3
663.623	1	-3
663.792	1	7
663.962	1	8
664.131	1	-5
664.300	1	-4
664.470	1	2
664.639	1	0
664.809	1	8
664.978	1	14
665.148	1	12
665.317	1	7
665.486	1	13
665.656	1	7
665.825	1	7
665.995	1	-7
666.164	1	-2
666.333	1	2
666.503	1	0
666.672	1	5
666.842	1	-2
667.011	1	6
667.180	1	3
667.350	1	9
667.519	1	11
667.689	1	2
667.858	1	7
668.027	1	-1
668.197	1	-10
668.366	1	9
668.536	1	1
668.705	1	-2
668.874	1	14
669.044	1	11
669.213	1	9
669.382	1	2
669.552	1	7
669.721	1	-6
669.891	1	-6
670.060	1	-9
670.229	1	8
670.399	1	8
670.568	1	7
670.738	1	0
670.907	1	8
671.076	1	4
671.246	1	14
671.415	1	11
671.584	1	10
671.754	1	1
671.923	1	-8
672.093	1	10
672.262	1	-5
672.431	1	4
672.601	1	3
672.770	1	5
672.939	1	3
673.109	1	-2
673.278	1	-1
673.448	1	5
673.617	1	6
673.786	1	-5
