325.333	1	8
325.504	1	-9
325.675	1	3
325.846	1	0
326.017	1	0
326.188	1	-9
326.359	1	8
326.531	1	-4
326.702	1	0
326.873	1	0
327.044	1	10
327.215	1	-10
327.386	1	-4
327.557	1	-8
327.728	1	-2
327.899	1	5
328.070	1	7
328.241	1	3
328.412	1	3
328.583	1	-4
328.754	1	8
328.926	1	6
329.097	1	-12
329.268	1	10
329.439	1	0
329.610	1	5
329.781	1	5
329.952	1	7
330.123	1	4
330.294	1	-4
330.465	1	-20
330.636	1	3
330.807	1	4
330.978	1	5
331.149	1	6
331.320	1	3
331.492	1	2
331.663	1	5
331.834	1	0
332.005	1	10
332.176	1	-1
332.347	1	-7
332.518	1	11
332.689	1	3
332.860	1	-5
333.031	1	15
333.202	1	-3
333.373	1	10
333.544	1	-1
333.715	1	3
333.886	1	0
334.057	1	-9
334.228	1	4
334.399	1	4
334.570	1	2
334.741	1	5
334.912	1	5
335.084	1	11
335.255	1	9
335.426	1	12
335.597	1	6
335.768	1	3
335.939	1	-1
336.110	1	3
336.281	1	-6
336.452	1	15
336.623	1	-6
336.794	1	-1
336.965	1	-2
337.136	1	13
337.307	1	3
337.478	1	-2
337.649	1	-1
337.820	1	1
337.991	1	3
338.162	1	2
338.333	1	2
338.504	1	1
338.675	1	3
338.846	1	-8
339.017	1	3
339.188	1	1
339.359	1	5
339.530	1	-3
339.701	1	5
339.872	1	3
340.043	1	7
340.214	1	11
340.385	1	-3
340.556	1	13
340.727	1	-5
340.898	1	3
341.069	1	5
341.240	1	-2
341.411	1	8
341.582	1	-1
341.753	1	2
341.924	1	9
342.095	1	-5
342.266	1	8
342.437	1	-4
342.608	1	-2
342.779	1	0
342.950	1	-2
343.121	1	5
343.292	1	11
343.463	1	18
343.634	1	-1
343.805	1	1
343.976	1	10
344.147	1	6
344.318	1	-14
344.489	1	0
344.660	1	3
344.831	1	15
345.002	1	2
345.173	1	2
345.344	1	4
345.515	1	-7
345.686	1	4
345.857	1	7
346.028	1	5
346.199	1	2
346.370	1	4
346.541	1	3
346.712	1	0
346.883	1	-1
347.054	1	6
347.225	1	8
347.396	1	1
347.567	1	5
347.738	1	2
347.909	1	2
348.080	1	-2
348.251	1	2
348.422	1	9
348.593	1	-5
348.764	1	-2
348.935	1	1
349.106	1	-2
349.277	1	8
349.448	1	3
349.619	1	4
349.790	1	18
349.961	1	-1
350.132	1	1
350.303	1	0
350.474	1	4
350.645	1	7
350.816	1	2
350.987	1	14
351.157	1	8
351.328	1	3
351.499	1	9
351.670	1	5
351.841	1	1
352.012	1	0
352.183	1	12
352.354	1	0
352.525	1	3
352.696	1	-4
352.867	1	20
353.038	1	8
353.209	1	2
353.380	1	4
353.551	1	9
353.722	1	2
353.893	1	3
354.064	1	6
354.235	1	2
354.406	1	-3
354.576	1	5
354.747	1	4
354.918	1	-1
355.089	1	6
355.260	1	6
355.431	1	-1
355.602	1	-1
355.773	1	9
355.944	1	6
356.115	1	8
356.286	1	8
356.457	1	0
356.628	1	0
356.799	1	3
356.970	1	14
357.141	1	9
357.311	1	18
357.482	1	-1
357.653	1	-7
357.824	1	9
357.995	1	11
358.166	1	7
358.337	1	-3
358.508	1	17
358.679	1	-8
358.850	1	6
359.021	1	10
359.192	1	14
359.363	1	-5
359.533	1	2
359.704	1	0
359.875	1	-3
360.046	1	2
360.217	1	17
360.388	1	17
360.559	1	11
360.730	1	-1
360.901	1	8
361.072	1	1
361.243	1	-3
361.414	1	14
361.584	1	1
361.755	1	-2
361.926	1	10
362.097	1	4
362.268	1	13
362.439	1	-6
362.610	1	13
362.781	1	-7
362.952	1	8
363.123	1	-3
363.293	1	3
363.464	1	7
363.635	1	12
363.806	1	4
363.977	1	9
364.148	1	0
364.319	1	-4
364.490	1	15
364.661	1	14
364.832	1	6
365.002	1	13
365.173	1	15
365.344	1	4
365.515	1	13
365.686	1	9
365.857	1	9
366.028	1	16
366.199	1	7
366.370	1	7
366.540	1	1
366.711	1	11
366.882	1	2
367.053	1	6
367.224	1	8
367.395	1	12
367.566	1	7
367.737	1	1
367.908	1	3
368.078	1	8
368.249	1	10
368.420	1	-2
368.591	1	7
368.762	1	8
368.933	1	10
369.104	1	5
369.274	1	1
369.445	1	5
369.616	1	-4
369.787	1	7
369.958	1	18
370.129	1	6
370.300	1	2
370.471	1	3
370.641	1	8
370.812	1	3
370.983	1	7
371.154	1	10
371.325	1	1
371.496	1	1
371.667	1	17
371.837	1	15
372.008	1	2
372.179	1	3
372.350	1	12
372.521	1	0
372.692	1	14
372.863	1	7
373.033	1	3
373.204	1	3
373.375	1	9
373.546	1	19
373.717	1	4
373.888	1	12
374.059	1	9
374.229	1	6
374.400	1	6
374.571	1	-2
374.742	1	18
374.913	1	0
375.084	1	7
375.254	1	-3
375.425	1	12
375.596	1	7
375.767	1	5
375.938	1	-8
376.109	1	-1
376.279	1	-4
376.450	1	17
376.621	1	7
376.792	1	20
376.963	1	1
377.134	1	13
377.304	1	18
377.475	1	3
377.646	1	4
377.817	1	7
377.988	1	11
378.159	1	1
378.329	1	1
378.500	1	13
378.671	1	5
378.842	1	9
379.013	1	15
379.184	1	-2
379.354	1	10
379.525	1	12
379.696	1	12
379.867	1	0
380.038	1	7
380.209	1	11
380.379	1	8
380.550	1	0
380.721	1	5
380.892	1	-1
381.063	1	9
381.233	1	10
381.404	1	6
381.575	1	7
381.746	1	8
381.917	1	13
382.087	1	15
382.258	1	4
382.429	1	9
382.600	1	6
382.771	1	10
382.941	1	17
383.112	1	4
383.283	1	2
383.454	1	0
383.625	1	4
383.795	1	19
383.966	1	8
384.137	1	13
384.308	1	2
384.479	1	14
384.649	1	7
384.820	1	10
384.991	1	3
385.162	1	10
385.333	1	2
385.503	1	3
385.674	1	12
385.845	1	10
386.016	1	16
386.187	1	-1
386.357	1	13
386.528	1	3
386.699	1	6
386.870	1	5
387.041	1	12
387.211	1	13
387.382	1	21
387.553	1	20
387.724	1	9
387.894	1	-6
388.065	1	7
388.236	1	4
388.407	1	9
388.578	1	3
388.748	1	13
388.919	1	9
389.090	1	22
389.261	1	7
389.431	1	-1
389.602	1	0
389.773	1	-1
389.944	1	12
390.114	1	6
390.285	1	16
390.456	1	6
390.627	1	9
390.798	1	2
390.968	1	15
391.139	1	6
391.310	1	2
391.481	1	8
391.651	1	13
391.822	1	16
391.993	1	2
392.164	1	14
392.334	1	5
392.505	1	5
392.676	1	10
392.847	1	7
393.017	1	5
393.188	1	11
393.359	1	25
393.530	1	20
393.700	1	8
393.871	1	10
394.042	1	5
394.213	1	11
394.383	1	13
394.554	1	5
394.725	1	-1
394.896	1	24
395.066	1	9
395.237	1	15
395.408	1	8
395.579	1	14
395.749	1	8
395.920	1	22
396.091	1	9
396.262	1	4
396.432	1	0
396.603	1	9
396.774	1	15
396.945	1	11
397.115	1	19
397.286	1	16
397.457	1	11
397.627	1	-2
397.798	1	4
397.969	1	10
398.140	1	3
398.310	1	4
398.481	1	10
398.652	1	18
398.823	1	5
398.993	1	12
399.164	1	10
399.335	1	8
399.505	1	8
399.676	1	15
399.847	1	6
400.018	1	7
400.188	1	19
400.359	1	16
400.530	1	15
400.700	1	14
400.871	1	25
401.042	1	5
401.213	1	14
401.383	1	9
401.554	1	7
401.725	1	10
401.895	1	2
402.066	1	15
402.237	1	10
402.408	1	6
402.578	1	16
402.749	1	7
402.920	1	7
403.090	1	11
403.261	1	2
403.432	1	14
403.603	1	25
403.773	1	25
403.944	1	16
404.115	1	10
404.285	1	13
404.456	1	20
404.627	1	10
404.797	1	17
404.968	1	14
405.139	1	13
405.310	1	11
405.480	1	14
405.651	1	11
405.822	1	11
405.992	1	14
406.163	1	2
406.334	1	10
406.504	1	9
406.675	1	8
406.846	1	17
407.016	1	17
407.187	1	21
407.358	1	6
407.528	1	20
407.699	1	19
407.870	1	20
408.041	1	10
408.211	1	15
408.382	1	18
408.553	1	7
408.723	1	15
408.894	1	9
409.065	1	15
409.235	1	12
409.406	1	9
409.577	1	10
409.747	1	8
409.918	1	15
410.089	1	25
410.259	1	13
410.430	1	15
410.601	1	25
410.771	1	15
410.942	1	11
411.113	1	13
411.283	1	9
411.454	1	23
411.625	1	15
411.795	1	17
411.966	1	13
412.137	1	20
412.307	1	11
412.478	1	23
412.649	1	7
412.819	1	19
412.990	1	9
413.161	1	12
413.331	1	15
413.502	1	5
413.672	1	0
413.843	1	5
414.014	1	11
414.184	1	17
414.355	1	16
414.526	1	15
414.696	1	9
414.867	1	6
415.038	1	9
415.208	1	2
415.379	1	4
415.550	1	14
415.720	1	3
415.891	1	16
416.062	1	11
416.232	1	21
416.403	1	16
416.573	1	6
416.744	1	25
416.915	1	7
417.085	1	12
417.256	1	14
417.427	1	11
417.597	1	13
417.768	1	9
417.939	1	14
418.109	1	8
418.280	1	20
418.450	1	21
418.621	1	6
418.792	1	5
418.962	1	15
419.133	1	9
419.304	1	1
419.474	1	10
419.645	1	14
419.815	1	16
419.986	1	15
420.157	1	4
420.327	1	-4
420.498	1	13
420.669	1	15
420.839	1	19
421.010	1	8
421.180	1	7
421.351	1	7
421.522	1	13
421.692	1	16
421.863	1	6
422.033	1	20
422.204	1	13
422.375	1	16
422.545	1	21
422.716	1	6
422.886	1	20
423.057	1	10
423.228	1	8
423.398	1	19
423.569	1	8
423.740	1	17
423.910	1	12
424.081	1	17
424.251	1	7
424.422	1	13
424.593	1	16
424.763	1	17
424.934	1	15
425.104	1	17
425.275	1	3
425.445	1	14
425.616	1	7
425.787	1	11
425.957	1	18
426.128	1	7
426.298	1	5
426.469	1	3
426.640	1	6
426.810	1	4
426.981	1	16
427.151	1	9
427.322	1	15
427.493	1	14
427.663	1	13
427.834	1	5
428.004	1	15
428.175	1	7
428.345	1	4
428.516	1	17
428.687	1	18
428.857	1	26
429.028	1	2
429.198	1	3
429.369	1	9
429.540	1	9
429.710	1	9
429.881	1	17
430.051	1	2
430.222	1	16
430.392	1	12
430.563	1	7
430.734	1	14
430.904	1	18
431.075	1	8
431.245	1	-2
431.416	1	12
431.586	1	5
431.757	1	18
431.927	1	21
432.098	1	12
432.269	1	-1
432.439	1	4
432.610	1	15
432.780	1	9
432.951	1	4
433.121	1	8
433.292	1	9
433.462	1	7
433.633	1	5
433.804	1	11
433.974	1	10
434.145	1	2
434.315	1	10
434.486	1	5
434.656	1	16
434.827	1	17
434.997	1	14
435.168	1	8
435.339	1	15
435.509	1	3
435.680	1	20
435.850	1	7
436.021	1	3
436.191	1	11
436.362	1	12
436.532	1	13
436.703	1	10
436.873	1	10
437.044	1	15
437.214	1	4
437.385	1	2
437.556	1	13
437.726	1	10
437.897	1	-4
438.067	1	13
438.238	1	14
438.408	1	7
438.579	1	10
438.749	1	15
438.920	1	23
439.090	1	1
439.261	1	8
439.431	1	-3
439.602	1	10
439.772	1	15
439.943	1	9
440.113	1	10
440.284	1	18
440.455	1	-1
440.625	1	22
440.796	1	3
440.966	1	11
441.137	1	11
441.307	1	6
441.478	1	-8
441.648	1	14
441.819	1	10
441.989	1	17
442.160	1	4
442.330	1	13
442.501	1	3
442.671	1	6
442.842	1	12
443.012	1	2
443.183	1	5
443.353	1	8
443.524	1	3
443.694	1	15
443.865	1	16
444.035	1	6
444.206	1	-1
444.376	1	7
444.547	1	3
444.717	1	4
444.888	1	3
445.058	1	11
445.229	1	6
445.399	1	2
445.570	1	5
445.740	1	4
445.911	1	14
446.081	1	7
446.252	1	7
446.422	1	8
446.593	1	5
446.763	1	11
446.934	1	-1
447.104	1	-2
447.275	1	9
447.445	1	10
447.616	1	15
447.786	1	-2
447.957	1	9
448.127	1	10
448.298	1	11
448.468	1	15
448.639	1	11
448.809	1	4
448.979	1	11
449.150	1	17
449.320	1	10
449.491	1	-3
449.661	1	5
449.832	1	4
450.002	1	1
450.173	1	9
450.343	1	7
450.514	1	7
450.684	1	18
450.855	1	13
451.025	1	6
451.196	1	5
451.366	1	13
451.537	1	21
451.707	1	15
451.878	1	-4
452.048	1	0
452.218	1	13
452.389	1	9
452.559	1	11
452.730	1	16
452.900	1	10
453.071	1	11
453.241	1	5
453.412	1	10
453.582	1	11
453.753	1	13
453.923	1	3
454.093	1	7
454.264	1	23
454.434	1	11
454.605	1	0
454.775	1	20
454.946	1	-2
455.116	1	4
455.287	1	2
455.457	1	14
455.628	1	6
455.798	1	5
455.968	1	13
456.139	1	13
456.309	1	11
456.480	1	2
456.650	1	-4
456.821	1	0
456.991	1	13
457.161	1	15
457.332	1	9
457.502	1	10
457.673	1	5
457.843	1	10
458.014	1	3
458.184	1	20
458.355	1	10
458.525	1	-1
458.695	1	5
458.866	1	-1
459.036	1	7
459.207	1	13
459.377	1	11
459.548	1	8
459.718	1	-4
459.888	1	2
460.059	1	10
460.229	1	0
460.400	1	10
460.570	1	-5
460.740	1	9
460.911	1	5
461.081	1	7
461.252	1	15
461.422	1	2
461.593	1	1
461.763	1	18
461.933	1	3
462.104	1	-5
462.274	1	1
462.445	1	4
462.615	1	10
462.785	1	15
462.956	1	-3
463.126	1	11
463.297	1	4
463.467	1	15
463.638	1	10
463.808	1	6
463.978	1	-3
464.149	1	8
464.319	1	3
464.490	1	2
464.660	1	-1
464.830	1	3
465.001	1	8
465.171	1	4
465.342	1	3
465.512	1	7
465.682	1	-8
465.853	1	-1
466.023	1	8
466.194	1	11
466.364	1	19
466.534	1	-5
466.705	1	14
466.875	1	0
467.045	1	0
467.216	1	10
467.386	1	1
467.557	1	9
467.727	1	8
467.897	1	9
468.068	1	-5
468.238	1	6
468.409	1	7
468.579	1	5
468.749	1	-4
468.920	1	-8
469.090	1	9
469.260	1	14
469.431	1	4
469.601	1	10
469.772	1	12
469.942	1	8
470.112	1	-5
470.283	1	8
470.453	1	14
470.623	1	5
470.794	1	4
470.964	1	3
471.135	1	12
471.305	1	5
471.475	1	7
471.646	1	7
471.816	1	9
471.986	1	6
472.157	1	3
472.327	1	9
472.497	1	2
472.668	1	17
472.838	1	13
473.009	1	12
473.179	1	-4
473.349	1	3
473.520	1	15
473.690	1	3
473.860	1	0
474.031	1	-9
474.201	1	0
474.371	1	4
474.542	1	3
474.712	1	4
474.882	1	8
475.053	1	7
475.223	1	4
475.394	1	2
475.564	1	-1
475.734	1	3
475.905	1	8
476.075	1	12
476.245	1	9
476.416	1	0
476.586	1	-5
476.756	1	14
476.927	1	-2
477.097	1	-1
477.267	1	3
477.438	1	3
477.608	1	14
477.778	1	-1
477.949	1	-2
478.119	1	10
478.289	1	-1
478.460	1	-3
478.630	1	2
478.800	1	9
478.971	1	-2
479.141	1	12
479.311	1	6
479.482	1	5
479.652	1	10
479.822	1	-4
479.993	1	5
480.163	1	8
480.333	1	9
480.504	1	14
480.674	1	5
480.844	1	7
481.015	1	10
481.185	1	10
481.355	1	13
481.525	1	-3
481.696	1	4
481.866	1	-4
482.036	1	1
482.207	1	5
482.377	1	-2
482.547	1	13
482.718	1	6
482.888	1	4
483.058	1	16
483.229	1	1
483.399	1	5
483.569	1	-2
483.740	1	0
483.910	1	-4
484.080	1	1
484.250	1	-1
484.421	1	-3
484.591	1	1
484.761	1	-6
484.932	1	4
485.102	1	13
485.272	1	1
485.443	1	8
485.613	1	9
485.783	1	3
485.953	1	-3
486.124	1	2
486.294	1	11
486.464	1	9
486.635	1	-3
486.805	1	0
486.975	1	1
487.146	1	-5
487.316	1	10
487.486	1	12
487.656	1	10
487.827	1	2
487.997	1	1
488.167	1	10
488.338	1	4
488.508	1	11
488.678	1	2
488.848	1	6
489.019	1	-2
489.189	1	13
489.359	1	-4
489.529	1	3
489.700	1	8
489.870	1	10
490.040	1	3
490.211	1	-4
490.381	1	9
490.551	1	5
490.721	1	7
490.892	1	-1
491.062	1	2
491.232	1	14
491.402	1	6
491.573	1	4
491.743	1	1
491.913	1	6
492.084	1	4
492.254	1	4
492.424	1	0
492.594	1	-3
492.765	1	13
492.935	1	14
493.105	1	-1
493.275	1	-5
493.446	1	-8
493.616	1	-1
493.786	1	14
493.956	1	7
494.127	1	-11
494.297	1	-8
494.467	1	0
494.637	1	8
494.808	1	12
494.978	1	3
495.148	1	6
495.318	1	1
495.489	1	-14
495.659	1	-3
495.829	1	9
495.999	1	4
496.170	1	8
496.340	1	4
496.510	1	7
496.680	1	-1
496.851	1	12
497.021	1	1
497.191	1	11
497.361	1	-10
497.532	1	3
497.702	1	8
497.872	1	-1
498.042	1	2
498.213	1	-9
498.383	1	2
498.553	1	5
498.723	1	-7
498.894	1	4
499.064	1	3
499.234	1	6
499.404	1	6
499.574	1	9
499.745	1	1
499.915	1	10
500.085	1	-1
500.255	1	-7
500.426	1	-3
500.596	1	-10
500.766	1	-7
500.936	1	-10
501.106	1	-7
501.277	1	-10
501.447	1	7
501.617	1	5
501.787	1	1
501.958	1	8
502.128	1	-3
502.298	1	1
502.468	1	-7
502.638	1	13
502.809	1	-5
502.979	1	5
503.149	1	5
503.319	1	12
503.489	1	-12
503.660	1	-9
503.830	1	9
504.000	1	2
504.170	1	-1
504.340	1	-9
504.511	1	-1
504.681	1	-2
504.851	1	-9
505.021	1	1
505.192	1	9
505.362	1	11
505.532	1	-7
505.702	1	10
505.872	1	-7
506.043	1	9
506.213	1	10
506.383	1	-1
506.553	1	-2
506.723	1	-5
506.893	1	8
507.064	1	4
507.234	1	5
507.404	1	-4
507.574	1	6
507.744	1	-5
507.915	1	-2
508.085	1	-2
508.255	1	-5
508.425	1	-9
508.595	1	6
508.766	1	4
508.936	1	6
509.106	1	6
509.276	1	1
509.446	1	-8
509.616	1	5
509.787	1	1
509.957	1	4
510.127	1	-12
510.297	1	-9
510.467	1	5
510.638	1	3
510.808	1	18
510.978	1	-10
511.148	1	1
511.318	1	-5
511.488	1	9
511.659	1	4
511.829	1	-7
511.999	1	2
512.169	1	6
512.339	1	3
512.509	1	2
512.680	1	-8
512.850	1	-7
513.020	1	10
513.190	1	-5
513.360	1	4
513.530	1	0
513.700	1	0
513.871	1	-12
514.041	1	4
514.211	1	6
514.381	1	11
514.551	1	-3
514.721	1	0
514.892	1	1
515.062	1	-2
515.232	1	0
515.402	1	1
515.572	1	3
515.742	1	2
515.912	1	7
516.083	1	3
516.253	1	6
516.423	1	-9
516.593	1	-3
516.763	1	3
516.933	1	-1
517.104	1	4
517.274	1	3
517.444	1	2
517.614	1	-2
517.784	1	13
517.954	1	-5
518.124	1	6
518.294	1	5
518.465	1	-3
518.635	1	6
518.805	1	4
518.975	1	1
519.145	1	-5
519.315	1	0
519.485	1	-12
519.656	1	-3
519.826	1	-12
519.996	1	2
520.166	1	-5
520.336	1	4
520.506	1	6
520.676	1	2
520.846	1	8
521.017	1	-1
521.187	1	3
521.357	1	-5
521.527	1	1
521.697	1	3
521.867	1	3
522.037	1	6
522.207	1	3
522.377	1	3
522.548	1	-10
522.718	1	5
522.888	1	-2
523.058	1	1
523.228	1	-4
523.398	1	4
523.568	1	-9
523.738	1	-1
523.909	1	4
524.079	1	4
524.249	1	-9
524.419	1	-2
524.589	1	1
524.759	1	9
524.929	1	3
525.099	1	1
525.269	1	-2
525.439	1	-3
525.610	1	12
525.780	1	1
525.950	1	4
526.120	1	0
526.290	1	-10
526.460	1	-9
526.630	1	-4
526.800	1	4
526.970	1	4
527.140	1	2
527.311	1	4
527.481	1	5
527.651	1	-2
527.821	1	-9
527.991	1	-1
528.161	1	2
528.331	1	-5
528.501	1	0
528.671	1	1
528.841	1	1
529.011	1	5
529.181	1	-5
529.352	1	-2
529.522	1	-9
529.692	1	6
529.862	1	-1
530.032	1	-8
530.202	1	-12
530.372	1	0
530.542	1	-3
530.712	1	-2
530.882	1	2
531.052	1	7
531.222	1	-4
531.392	1	4
531.563	1	-2
531.733	1	8
531.903	1	0
532.073	1	2
532.243	1	10
532.413	1	18
532.583	1	3
532.753	1	-6
532.923	1	-3
533.093	1	-5
533.263	1	-3
533.433	1	-2
533.603	1	4
533.773	1	7
533.943	1	9
534.113	1	6
534.284	1	-3
534.454	1	-1
534.624	1	-2
534.794	1	2
534.964	1	-1
535.134	1	-7
535.304	1	2
535.474	1	3
535.644	1	4
535.814	1	0
535.984	1	8
536.154	1	-4
536.324	1	-8
536.494	1	2
536.664	1	1
536.834	1	-2
537.004	1	-3
537.174	1	4
537.344	1	1
537.514	1	-7
537.685	1	7
537.855	1	-10
538.025	1	11
538.195	1	-7
538.365	1	-2
538.535	1	-2
538.705	1	6
538.875	1	-5
539.045	1	2
539.215	1	-9
539.385	1	1
539.555	1	-4
539.725	1	0
539.895	1	5
540.065	1	-12
540.235	1	-1
540.405	1	1
540.575	1	0
540.745	1	7
540.915	1	-4
541.085	1	-1
541.255	1	-10
541.425	1	0
541.595	1	6
541.765	1	6
541.935	1	-1
542.105	1	-7
542.275	1	6
542.445	1	2
542.615	1	2
542.785	1	3
542.955	1	9
543.125	1	-3
543.295	1	9
543.465	1	6
543.635	1	-14
543.805	1	1
543.975	1	2
544.145	1	-1
544.315	1	-3
544.485	1	-4
544.655	1	3
544.825	1	-3
544.995	1	-6
545.165	1	-5
545.335	1	2
545.505	1	6
545.675	1	2
545.845	1	7
546.015	1	-6
546.185	1	-10
546.355	1	2
546.525	1	12
546.695	1	-7
546.865	1	-2
547.035	1	-8
547.205	1	5
547.375	1	3
547.545	1	-2
547.715	1	7
547.885	1	-5
548.055	1	-3
548.225	1	4
548.395	1	-5
548.565	1	3
548.735	1	-1
548.905	1	7
549.075	1	-4
549.245	1	-8
549.415	1	7
549.585	1	-5
549.755	1	5
549.925	1	9
550.095	1	-14
550.265	1	-8
550.435	1	1
550.605	1	0
550.775	1	2
550.945	1	-5
551.115	1	4
551.285	1	-5
551.455	1	0
551.625	1	-2
551.795	1	-5
551.965	1	0
552.135	1	-1
552.305	1	6
552.475	1	-3
552.645	1	-9
552.815	1	-4
552.985	1	3
553.155	1	-4
553.325	1	-1
553.495	1	5
553.665	1	3
553.835	1	-1
554.004	1	-5
554.174	1	-12
554.344	1	9
554.514	1	-3
554.684	1	9
554.854	1	-12
555.024	1	14
555.194	1	-3
555.364	1	1
555.534	1	-7
555.704	1	-3
555.874	1	3
556.044	1	-1
556.214	1	2
556.384	1	2
556.554	1	-2
556.724	1	-4
556.894	1	-7
557.064	1	4
557.234	1	-3
557.404	1	3
557.573	1	-3
557.743	1	0
557.913	1	-1
558.083	1	-4
558.253	1	-11
558.423	1	-1
558.593	1	-1
558.763	1	-4
558.933	1	-1
559.103	1	-3
559.273	1	4
559.443	1	3
559.613	1	2
559.783	1	-1
559.953	1	-19
560.122	1	6
560.292	1	-7
560.462	1	-10
560.632	1	-4
560.802	1	0
560.972	1	-9
561.142	1	-1
561.312	1	-7
561.482	1	12
561.652	1	6
561.822	1	-3
561.992	1	-2
562.162	1	-12
562.331	1	-12
562.501	1	0
562.671	1	-2
562.841	1	-12
563.011	1	2
563.181	1	3
563.351	1	-2
563.521	1	-2
563.691	1	6
563.861	1	-3
564.031	1	-4
564.201	1	-5
564.370	1	12
564.540	1	-1
564.710	1	1
564.880	1	-7
565.050	1	12
565.220	1	4
565.390	1	-13
565.560	1	7
565.730	1	4
565.900	1	-2
566.069	1	13
566.239	1	6
566.409	1	10
566.579	1	2
566.749	1	-4
566.919	1	-6
567.089	1	-8
567.259	1	-1
567.429	1	-3
567.599	1	7
567.768	1	-2
567.938	1	1
568.108	1	-2
568.278	1	6
568.448	1	-3
568.618	1	2
568.788	1	8
568.958	1	-8
569.128	1	-8
569.297	1	-13
569.467	1	9
569.637	1	-7
569.807	1	8
569.977	1	-8
570.147	1	3
570.317	1	5
570.487	1	1
570.656	1	4
570.826	1	3
570.996	1	4
571.166	1	-6
571.336	1	0
571.506	1	3
571.676	1	2
571.846	1	3
572.015	1	9
572.185	1	3
572.355	1	-6
572.525	1	-12
572.695	1	-1
572.865	1	-2
573.035	1	4
573.205	1	-4
573.374	1	-1
573.544	1	-3
573.714	1	-4
573.884	1	-6
574.054	1	-1
574.224	1	-5
574.394	1	-7
574.563	1	-4
574.733	1	5
574.903	1	4
575.073	1	10
575.243	1	-1
575.413	1	-5
575.583	1	-11
575.752	1	0
575.922	1	9
576.092	1	-5
576.262	1	-3
576.432	1	-7
576.602	1	6
576.772	1	2
576.941	1	5
577.111	1	-2
577.281	1	-1
577.451	1	6
577.621	1	1
577.791	1	-5
577.960	1	-3
578.130	1	2
578.300	1	2
578.470	1	11
578.640	1	6
578.810	1	-6
578.979	1	-3
579.149	1	3
579.319	1	-4
579.489	1	7
579.659	1	-2
579.829	1	1
579.998	1	-7
580.168	1	-8
580.338	1	-2
580.508	1	5
580.678	1	-4
580.848	1	6
581.017	1	7
581.187	1	4
581.357	1	-4
581.527	1	-6
581.697	1	2
581.867	1	-3
582.036	1	-6
582.206	1	8
582.376	1	-9
582.546	1	4
582.716	1	-7
582.885	1	1
583.055	1	-15
583.225	1	-9
583.395	1	-2
583.565	1	10
583.735	1	-1
583.904	1	-6
584.074	1	-3
584.244	1	5
584.414	1	2
584.584	1	-5
584.753	1	2
584.923	1	-3
585.093	1	3
585.263	1	0
585.433	1	-1
585.602	1	-4
585.772	1	13
585.942	1	0
586.112	1	-4
586.282	1	-4
586.451	1	8
586.621	1	-8
586.791	1	-15
586.961	1	-3
587.131	1	2
587.300	1	5
587.470	1	-5
587.640	1	-7
587.810	1	-13
587.980	1	6
588.149	1	2
588.319	1	6
588.489	1	3
588.659	1	-6
588.829	1	2
588.998	1	-3
589.168	1	9
589.338	1	-4
589.508	1	-2
589.677	1	10
589.847	1	-4
590.017	1	-3
590.187	1	6
590.357	1	1
590.526	1	-4
590.696	1	-1
590.866	1	-8
591.036	1	-4
591.205	1	8
591.375	1	-9
591.545	1	1
591.715	1	0
591.885	1	3
592.054	1	3
592.224	1	3
592.394	1	-7
592.564	1	0
592.733	1	-2
592.903	1	-9
593.073	1	-2
593.243	1	1
593.412	1	7
593.582	1	3
593.752	1	-3
593.922	1	-1
594.091	1	7
594.261	1	-14
594.431	1	-1
594.601	1	-21
594.771	1	-4
594.940	1	-5
595.110	1	3
595.280	1	2
595.450	1	1
595.619	1	2
595.789	1	-8
595.959	1	-6
596.129	1	1
596.298	1	0
596.468	1	1
596.638	1	-7
596.808	1	-1
596.977	1	-3
597.147	1	1
597.317	1	1
597.487	1	-2
597.656	1	-1
597.826	1	9
597.996	1	-6
598.166	1	3
598.335	1	-9
598.505	1	11
598.675	1	-3
598.844	1	11
599.014	1	-8
599.184	1	2
599.354	1	5
599.523	1	-2
599.693	1	-5
599.863	1	3
600.033	1	6
600.202	1	-6
600.372	1	-6
600.542	1	2
600.712	1	1
600.881	1	-1
601.051	1	9
601.221	1	6
601.390	1	-2
601.560	1	2
601.730	1	6
601.900	1	3
602.069	1	-2
602.239	1	-4
602.409	1	-1
602.578	1	6
602.748	1	2
602.918	1	-8
603.088	1	8
603.257	1	-6
603.427	1	-6
603.597	1	-2
603.767	1	-5
603.936	1	7
604.106	1	5
604.276	1	0
604.445	1	-15
604.615	1	3
604.785	1	0
604.954	1	-3
605.124	1	-4
605.294	1	-5
605.464	1	-6
605.633	1	4
605.803	1	9
605.973	1	-5
606.142	1	0
606.312	1	0
606.482	1	-6
606.652	1	1
606.821	1	6
606.991	1	10
607.161	1	-4
607.330	1	-6
607.500	1	0
607.670	1	3
607.839	1	-1
608.009	1	1
608.179	1	1
608.348	1	-1
608.518	1	8
608.688	1	-5
608.858	1	-9
609.027	1	6
609.197	1	4
609.367	1	-7
609.536	1	-6
609.706	1	8
609.876	1	5
610.045	1	10
610.215	1	-1
610.385	1	2
610.554	1	-1
610.724	1	-3
610.894	1	-4
611.063	1	-3
611.233	1	-4
611.403	1	5
611.572	1	8
611.742	1	1
611.912	1	6
612.081	1	4
612.251	1	-10
612.421	1	-2
612.590	1	2
612.760	1	1
612.930	1	-2
613.099	1	-1
613.269	1	-7
613.439	1	-4
613.608	1	8
613.778	1	-2
613.948	1	2
614.117	1	-5
614.287	1	-3
614.457	1	6
614.626	1	-6
614.796	1	5
614.966	1	-4
615.135	1	6
615.305	1	0
615.475	1	-1
615.644	1	10
615.814	1	9
615.984	1	-6
616.153	1	3
616.323	1	-2
616.493	1	2
616.662	1	-2
616.832	1	8
617.002	1	-6
617.171	1	0
617.341	1	5
617.511	1	-14
617.680	1	-6
617.850	1	3
618.019	1	-1
618.189	1	5
618.359	1	6
618.528	1	-5
618.698	1	2
618.868	1	-9
619.037	1	0
619.207	1	-15
619.377	1	4
619.546	1	9
619.716	1	-8
619.885	1	-6
620.055	1	-3
620.225	1	3
620.394	1	4
620.564	1	1
620.734	1	-1
620.903	1	-2
621.073	1	-1
621.242	1	5
621.412	1	-1
621.582	1	8
621.751	1	-8
621.921	1	9
622.091	1	3
622.260	1	8
622.430	1	3
622.599	1	-5
622.769	1	-2
622.939	1	-2
623.108	1	-5
623.278	1	0
623.448	1	2
623.617	1	1
623.787	1	-2
623.956	1	-2
624.126	1	3
624.296	1	0
624.465	1	1
624.635	1	6
624.804	1	-10
624.974	1	-16
625.144	1	6
625.313	1	20
625.483	1	-6
625.652	1	-7
625.822	1	3
625.992	1	-7
626.161	1	-7
626.331	1	-5
626.501	1	-3
626.670	1	-1
626.840	1	7
627.009	1	1
627.179	1	2
627.348	1	1
627.518	1	11
627.688	1	-9
627.857	1	7
628.027	1	4
628.196	1	4
628.366	1	-5
628.536	1	0
628.705	1	-1
628.875	1	-10
629.044	1	-6
629.214	1	1
629.384	1	5
629.553	1	-3
629.723	1	3
629.892	1	11
630.062	1	7
630.232	1	12
630.401	1	9
630.571	1	-7
630.740	1	-5
630.910	1	-3
631.079	1	-2
631.249	1	-6
631.419	1	-5
631.588	1	2
631.758	1	-12
631.927	1	13
632.097	1	-15
632.266	1	4
632.436	1	4
632.606	1	-10
632.775	1	-1
632.945	1	-8
633.114	1	-1
633.284	1	-2
633.453	1	10
633.623	1	-4
633.793	1	7
633.962	1	-11
634.132	1	0
634.301	1	6
634.471	1	4
634.640	1	-6
634.810	1	-2
634.979	1	5
635.149	1	-4
635.319	1	-1
635.488	1	-3
635.658	1	-4
635.827	1	-2
635.997	1	11
636.166	1	-4
636.336	1	-3
636.505	1	13
636.675	1	-2
636.845	1	-5
637.014	1	-6
637.184	1	-6
637.353	1	6
637.523	1	-5
637.692	1	8
637.862	1	-17
638.031	1	-1
638.201	1	2
638.370	1	-3
638.540	1	3
638.710	1	-14
638.879	1	-10
639.049	1	2
639.218	1	1
639.388	1	2
639.557	1	8
639.727	1	-1
639.896	1	-3
640.066	1	1
640.235	1	-5
640.405	1	1
640.574	1	10
640.744	1	-4
640.914	1	-3
641.083	1	4
641.253	1	-8
641.422	1	-11
641.592	1	7
641.761	1	-6
641.931	1	0
642.100	1	-9
642.270	1	-1
642.439	1	6
642.609	1	13
642.778	1	2
642.948	1	10
643.117	1	0
643.287	1	2
643.456	1	-8
643.626	1	-5
643.795	1	-3
643.965	1	0
644.134	1	-8
644.304	1	-8
644.473	1	-1
644.643	1	-2
644.812	1	2
644.982	1	5
645.151	1	-6
645.321	1	7
645.490	1	7
645.660	1	-14
645.829	1	-5
645.999	1	-6
646.168	1	19
646.338	1	-2
646.507	1	4
646.677	1	-1
646.846	1	-5
647.016	1	11
647.185	1	2
647.355	1	1
647.524	1	-12
647.694	1	-16
647.863	1	-2
648.033	1	6
648.202	1	7
648.372	1	-11
648.541	1	3
648.711	1	0
648.880	1	-1
649.050	1	-3
649.219	1	4
649.389	1	-3
649.558	1	9
649.728	1	-1
649.897	1	7
650.067	1	4
650.236	1	-2
650.406	1	-11
650.575	1	0
650.745	1	-1
650.914	1	3
651.084	1	5
651.253	1	-7
651.423	1	-11
651.592	1	-1
651.762	1	6
651.931	1	-3
652.101	1	-3
652.270	1	-5
652.440	1	9
652.609	1	1
652.778	1	6
652.948	1	-2
653.117	1	-2
653.287	1	-4
653.456	1	1
653.626	1	5
653.795	1	5
653.965	1	1
654.134	1	-10
654.304	1	-1
654.473	1	-9
654.643	1	-2
654.812	1	4
654.982	1	1
655.151	1	12
655.320	1	-2
655.490	1	-11
655.659	1	5
655.829	1	5
655.998	1	5
656.168	1	-2
656.337	1	1
656.507	1	-9
656.676	1	-9
656.846	1	3
657.015	1	13
657.184	1	0
657.354	1	-7
657.523	1	-5
657.693	1	-2
657.862	1	-3
658.032	1	-9
658.201	1	-4
658.371	1	-3
658.540	1	2
658.709	1	-4
658.879	1	11
659.048	1	9
659.218	1	-1
659.387	1	-5
659.557	1	-6
659.726	1	2
659.895	1	-4
660.065	1	0
660.234	1	-10
660.404	1	1
660.573	1	2
660.743	1	-3
660.912	1	3
661.081	1	-10
661.251	1	-11
661.420	1	-3
661.590	1	-3
661.759	1	8
661.929	1	7
662.098	1	-1
662.267	1	-7
662.437	1	-1
662.606	1	-5
662.776	1	-5
662.945	1	6
663.115	1	3
663.284	1	9
663.453	1	-5
663.623	1	6
663.792	1	-1
663.962	1	3
664.131	1	1
664.300	1	-10
664.470	1	-3
664.639	1	2
664.809	1	4
664.978	1	6
665.148	1	3
665.317	1	-2
665.486	1	-1
665.656	1	-6
665.825	1	7
665.995	1	-11
666.164	1	-8
666.333	1	-9
666.503	1	-7
666.672	1	0
666.842	1	3
667.011	1	-7
667.180	1	-3
667.350	1	0
667.519	1	11
667.689	1	-2
667.858	1	-1
668.027	1	0
668.197	1	-5
668.366	1	-2
668.536	1	1
668.705	1	-1
668.874	1	5
669.044	1	1
669.213	1	-5
669.382	1	9
669.552	1	2
669.721	1	-8
669.891	1	-1
670.060	1	4
670.229	1	9
670.399	1	4
670.568	1	5
670.738	1	-1
670.907	1	-2
671.076	1	0
671.246	1	-2
671.415	1	7
671.584	1	4
671.754	1	-9
671.923	1	2
672.093	1	6
672.262	1	-7
672.431	1	5
672.601	1	6
672.770	1	-1
672.939	1	-4
673.109	1	0
673.278	1	-4
673.448	1	-3
673.617	1	7
673.786	1	-7
