325.333	1	12
325.504	1	-8
325.675	1	18
325.846	1	3
326.017	1	5
326.188	1	12
326.359	1	5
326.531	1	-3
326.702	1	11
326.873	1	12
327.044	1	10
327.215	1	0
327.386	1	5
327.557	1	-2
327.728	1	9
327.899	1	10
328.070	1	15
328.241	1	-4
328.412	1	0
328.583	1	-1
328.754	1	3
328.926	1	15
329.097	1	-4
329.268	1	21
329.439	1	12
329.610	1	13
329.781	1	14
329.952	1	9
330.123	1	-2
330.294	1	3
330.465	1	1
330.636	1	13
330.807	1	6
330.978	1	6
331.149	1	5
331.320	1	11
331.492	1	-1
331.663	1	1
331.834	1	10
332.005	1	11
332.176	1	7
332.347	1	-3
332.518	1	16
332.689	1	17
332.860	1	9
333.031	1	14
333.202	1	12
333.373	1	11
333.544	1	3
333.715	1	6
333.886	1	11
334.057	1	1
334.228	1	11
334.399	1	14
334.570	1	6
334.741	1	6
334.912	1	8
335.084	1	18
335.255	1	5
335.426	1	6
335.597	1	5
335.768	1	17
335.939	1	8
336.110	1	3
336.281	1	6
336.452	1	22
336.623	1	2
336.794	1	3
336.965	1	8
337.136	1	20
337.307	1	7
337.478	1	17
337.649	1	14
337.820	1	0
337.991	1	16
338.162	1	11
338.333	1	13
338.504	1	13
338.675	1	5
338.846	1	8
339.017	1	12
339.188	1	6
339.359	1	15
339.530	1	6
339.701	1	10
339.872	1	17
340.043	1	7
340.214	1	13
340.385	1	3
340.556	1	13
340.727	1	11
340.898	1	16
341.069	1	5
341.240	1	6
341.411	1	13
341.582	1	-2
341.753	1	6
341.924	1	26
342.095	1	2
342.266	1	18
342.437	1	5
342.608	1	3
342.779	1	2
342.950	1	8
343.121	1	10
343.292	1	14
343.463	1	29
343.634	1	14
343.805	1	18
343.976	1	21
344.147	1	12
344.318	1	5
344.489	1	5
344.660	1	20
344.831	1	16
345.002	1	10
345.173	1	17
345.344	1	3
345.515	1	8
345.686	1	13
345.857	1	15
346.028	1	16
346.199	1	18
346.370	1	11
346.541	1	9
346.712	1	11
346.883	1	3
347.054	1	26
347.225	1	14
347.396	1	18
347.567	1	-4
347.738	1	12
347.909	1	19
348.080	1	5
348.251	1	7
348.422	1	23
348.593	1	14
348.764	1	15
348.935	1	11
349.106	1	4
349.277	1	11
349.448	1	11
349.619	1	14
349.790	1	17
349.961	1	10
350.132	1	26
350.303	1	14
350.474	1	20
350.645	1	17
350.816	1	13
350.987	1	19
351.157	1	12
351.328	1	6
351.499	1	23
351.670	1	22
351.841	1	20
352.012	1	17
352.183	1	32
352.354	1	5
352.525	1	25
352.696	1	22
352.867	1	15
353.038	1	15
353.209	1	19
353.380	1	17
353.551	1	25
353.722	1	16
353.893	1	25
354.064	1	10
354.235	1	12
354.406	1	7
354.576	1	14
354.747	1	20
354.918	1	14
355.089	1	17
355.260	1	16
355.431	1	18
355.602	1	15
355.773	1	15
355.944	1	9
356.115	1	19
356.286	1	22
356.457	1	13
356.628	1	22
356.799	1	19
356.970	1	28
357.141	1	31
357.311	1	31
357.482	1	14
357.653	1	12
357.824	1	19
357.995	1	24
358.166	1	16
358.337	1	14
358.508	1	18
358.679	1	13
358.850	1	26
359.021	1	17
359.192	1	27
359.363	1	24
359.533	1	24
359.704	1	13
359.875	1	26
360.046	1	27
360.217	1	25
360.388	1	29
360.559	1	33
360.730	1	14
360.901	1	19
361.072	1	27
361.243	1	18
361.414	1	29
361.584	1	20
361.755	1	18
361.926	1	18
362.097	1	24
362.268	1	30
362.439	1	12
362.610	1	36
362.781	1	11
362.952	1	24
363.123	1	22
363.293	1	17
363.464	1	13
363.635	1	29
363.806	1	21
363.977	1	23
364.148	1	26
364.319	1	13
364.490	1	20
364.661	1	26
364.832	1	18
365.002	1	21
365.173	1	36
365.344	1	20
365.515	1	19
365.686	1	36
365.857	1	23
366.028	1	25
366.199	1	26
366.370	1	17
366.540	1	17
366.711	1	15
366.882	1	31
367.053	1	22
367.224	1	23
367.395	1	15
367.566	1	29
367.737	1	16
367.908	1	28
368.078	1	32
368.249	1	24
368.420	1	29
368.591	1	29
368.762	1	22
368.933	1	23
369.104	1	28
369.274	1	19
369.445	1	34
369.616	1	26
369.787	1	27
369.958	1	31
370.129	1	23
370.300	1	19
370.471	1	15
370.641	1	24
370.812	1	38
370.983	1	14
371.154	1	29
371.325	1	25
371.496	1	22
371.667	1	37
371.837	1	34
372.008	1	12
372.179	1	32
372.350	1	26
372.521	1	17
372.692	1	31
372.863	1	40
373.033	1	18
373.204	1	27
373.375	1	23
373.546	1	24
373.717	1	28
373.888	1	22
374.059	1	16
374.229	1	34
374.400	1	22
374.571	1	19
374.742	1	29
374.913	1	23
375.084	1	16
375.254	1	20
375.425	1	32
375.596	1	25
375.767	1	35
375.938	1	20
376.109	1	21
376.279	1	25
376.450	1	32
376.621	1	32
376.792	1	25
376.963	1	31
377.134	1	34
377.304	1	28
377.475	1	20
377.646	1	27
377.817	1	28
377.988	1	34
378.159	1	33
378.329	1	34
378.500	1	24
378.671	1	28
378.842	1	28
379.013	1	35
379.184	1	22
379.354	1	34
379.525	1	38
379.696	1	41
379.867	1	25
380.038	1	32
380.209	1	38
380.379	1	43
380.550	1	21
380.721	1	26
380.892	1	26
381.063	1	26
381.233	1	38
381.404	1	32
381.575	1	31
381.746	1	32
381.917	1	29
382.087	1	35
382.258	1	34
382.429	1	30
382.600	1	20
382.771	1	20
382.941	1	27
383.112	1	19
383.283	1	46
383.454	1	26
383.625	1	34
383.795	1	29
383.966	1	29
384.137	1	41
384.308	1	22
384.479	1	29
384.649	1	34
384.820	1	31
384.991	1	33
385.162	1	35
385.333	1	31
385.503	1	32
385.674	1	36
385.845	1	41
386.016	1	35
386.187	1	30
386.357	1	45
386.528	1	30
386.699	1	30
386.870	1	25
387.041	1	35
387.211	1	40
387.382	1	43
387.553	1	35
387.724	1	35
387.894	1	25
388.065	1	35
388.236	1	26
388.407	1	35
388.578	1	44
388.748	1	31
388.919	1	39
389.090	1	45
389.261	1	37
389.431	1	24
389.602	1	37
389.773	1	36
389.944	1	39
390.114	1	29
390.285	1	38
390.456	1	26
390.627	1	29
390.798	1	28
390.968	1	39
391.139	1	35
391.310	1	34
391.481	1	29
391.651	1	45
391.822	1	40
391.993	1	35
392.164	1	35
392.334	1	25
392.505	1	36
392.676	1	32
392.847	1	34
393.017	1	41
393.188	1	28
393.359	1	45
393.530	1	43
393.700	1	34
393.871	1	36
394.042	1	24
394.213	1	35
394.383	1	35
394.554	1	34
394.725	1	31
394.896	1	45
395.066	1	39
395.237	1	40
395.408	1	36
395.579	1	38
395.749	1	38
395.920	1	40
396.091	1	29
396.262	1	43
396.432	1	27
396.603	1	46
396.774	1	28
396.945	1	47
397.115	1	39
397.286	1	47
397.457	1	39
397.627	1	27
397.798	1	38
397.969	1	33
398.140	1	37
398.310	1	42
398.481	1	38
398.652	1	47
398.823	1	37
398.993	1	35
399.164	1	39
399.335	1	43
399.505	1	26
399.676	1	39
399.847	1	20
400.018	1	41
400.188	1	42
400.359	1	36
400.530	1	37
400.700	1	35
400.871	1	39
401.042	1	27
401.213	1	34
401.383	1	39
401.554	1	43
401.725	1	41
401.895	1	27
402.066	1	36
402.237	1	35
402.408	1	36
402.578	1	35
402.749	1	31
402.920	1	34
403.090	1	41
403.261	1	34
403.432	1	41
403.603	1	51
403.773	1	49
403.944	1	45
404.115	1	39
404.285	1	38
404.456	1	47
404.627	1	44
404.797	1	36
404.968	1	48
405.139	1	40
405.310	1	39
405.480	1	43
405.651	1	25
405.822	1	37
405.992	1	36
406.163	1	32
406.334	1	40
406.504	1	43
406.675	1	38
406.846	1	41
407.016	1	46
407.187	1	45
407.358	1	36
407.528	1	43
407.699	1	46
407.870	1	43
408.041	1	37
408.211	1	38
408.382	1	40
408.553	1	51
408.723	1	44
408.894	1	36
409.065	1	34
409.235	1	48
409.406	1	41
409.577	1	40
409.747	1	38
409.918	1	49
410.089	1	48
410.259	1	45
410.430	1	40
410.601	1	55
410.771	1	40
410.942	1	49
411.113	1	44
411.283	1	48
411.454	1	50
411.625	1	45
411.795	1	46
411.966	1	36
412.137	1	45
412.307	1	44
412.478	1	39
412.649	1	32
412.819	1	50
412.990	1	52
413.161	1	44
413.331	1	41
413.502	1	40
413.672	1	36
413.843	1	41
414.014	1	39
414.184	1	38
414.355	1	39
414.526	1	35
414.696	1	42
414.867	1	40
415.038	1	35
415.208	1	33
415.379	1	35
415.550	1	42
415.720	1	27
415.891	1	41
416.062	1	40
416.232	1	44
416.403	1	40
416.573	1	34
416.744	1	35
416.915	1	36
417.085	1	43
417.256	1	39
417.427	1	41
417.597	1	37
417.768	1	45
417.939	1	37
418.109	1	38
418.280	1	36
418.450	1	52
418.621	1	35
418.792	1	34
418.962	1	50
419.133	1	44
419.304	1	39
419.474	1	40
419.645	1	46
419.815	1	31
419.986	1	41
420.157	1	38
420.327	1	46
420.498	1	27
420.669	1	50
420.839	1	50
421.010	1	38
421.180	1	39
421.351	1	36
421.522	1	40
421.692	1	46
421.863	1	43
422.033	1	43
422.204	1	43
422.375	1	50
422.545	1	40
422.716	1	32
422.886	1	39
423.057	1	52
423.228	1	41
423.398	1	41
423.569	1	31
423.740	1	48
423.910	1	35
424.081	1	48
424.251	1	40
424.422	1	55
424.593	1	37
424.763	1	50
424.934	1	49
425.104	1	52
425.275	1	31
425.445	1	44
425.616	1	44
425.787	1	31
425.957	1	33
426.128	1	47
426.298	1	41
426.469	1	29
426.640	1	30
426.810	1	30
426.981	1	50
427.151	1	34
427.322	1	35
427.493	1	38
427.663	1	40
427.834	1	28
428.004	1	44
428.175	1	32
428.345	1	34
428.516	1	34
428.687	1	39
428.857	1	46
429.028	1	34
429.198	1	32
429.369	1	43
429.540	1	38
429.710	1	38
429.881	1	39
430.051	1	32
430.222	1	41
430.392	1	36
430.563	1	24
430.734	1	30
430.904	1	47
431.075	1	41
431.245	1	36
431.416	1	35
431.586	1	34
431.757	1	41
431.927	1	30
432.098	1	52
432.269	1	27
432.439	1	35
432.610	1	45
432.780	1	42
432.951	1	41
433.121	1	33
433.292	1	41
433.462	1	33
433.633	1	37
433.804	1	40
433.974	1	37
434.145	1	39
434.315	1	24
434.486	1	22
434.656	1	35
434.827	1	38
434.997	1	40
435.168	1	43
435.339	1	36
435.509	1	30
435.680	1	41
435.850	1	24
436.021	1	32
436.191	1	32
436.362	1	45
436.532	1	32
436.703	1	35
436.873	1	19
437.044	1	48
437.214	1	24
437.385	1	26
437.556	1	41
437.726	1	35
437.897	1	38
438.067	1	34
438.238	1	42
438.408	1	39
438.579	1	32
438.749	1	37
438.920	1	42
439.090	1	32
439.261	1	43
439.431	1	23
439.602	1	31
439.772	1	25
439.943	1	23
440.113	1	37
440.284	1	50
440.455	1	35
440.625	1	50
440.796	1	32
440.966	1	27
441.137	1	39
441.307	1	38
441.478	1	20
441.648	1	31
441.819	1	30
441.989	1	43
442.160	1	34
442.330	1	36
442.501	1	34
442.671	1	32
442.842	1	33
443.012	1	28
443.183	1	31
443.353	1	26
443.524	1	27
443.694	1	32
443.865	1	40
444.035	1	44
444.206	1	29
444.376	1	39
444.547	1	32
444.717	1	25
444.888	1	17
445.058	1	37
445.229	1	22
445.399	1	38
445.570	1	28
445.740	1	30
445.911	1	44
446.081	1	32
446.252	1	33
446.422	1	27
446.593	1	32
446.763	1	34
446.934	1	21
447.104	1	28
447.275	1	29
447.445	1	34
447.616	1	34
447.786	1	38
447.957	1	27
448.127	1	31
448.298	1	36
448.468	1	31
448.639	1	24
448.809	1	34
448.979	1	42
449.150	1	25
449.320	1	28
449.491	1	27
449.661	1	21
449.832	1	28
450.002	1	35
450.173	1	46
450.343	1	33
450.514	1	35
450.684	1	37
450.855	1	31
451.025	1	23
451.196	1	27
451.366	1	33
451.537	1	45
451.707	1	39
451.878	1	30
452.048	1	19
452.218	1	34
452.389	1	22
452.559	1	39
452.730	1	38
452.900	1	28
453.071	1	34
453.241	1	41
453.412	1	23
453.582	1	32
453.753	1	22
453.923	1	38
454.093	1	26
454.264	1	34
454.434	1	34
454.605	1	22
454.775	1	37
454.946	1	31
455.116	1	33
455.287	1	14
455.457	1	26
455.628	1	21
455.798	1	21
455.968	1	36
456.139	1	40
456.309	1	20
456.480	1	28
456.650	1	23
456.821	1	21
456.991	1	32
457.161	1	28
457.332	1	25
457.502	1	29
457.673	1	16
457.843	1	27
458.014	1	29
458.184	1	29
458.355	1	33
458.525	1	18
458.695	1	29
458.866	1	18
459.036	1	20
459.207	1	34
459.377	1	30
459.548	1	21
459.718	1	24
459.888	1	30
460.059	1	19
460.229	1	28
460.400	1	31
460.570	1	20
460.740	1	29
460.911	1	15
461.081	1	31
461.252	1	23
461.422	1	12
461.593	1	25
461.763	1	29
461.933	1	30
462.104	1	13
462.274	1	17
462.445	1	18
462.615	1	25
462.785	1	25
462.956	1	13
463.126	1	23
463.297	1	14
463.467	1	35
463.638	1	17
463.808	1	23
463.978	1	22
464.149	1	16
464.319	1	24
464.490	1	26
464.660	1	14
464.830	1	18
465.001	1	27
465.171	1	14
465.342	1	14
465.512	1	22
465.682	1	14
465.853	1	16
466.023	1	21
466.194	1	32
466.364	1	26
466.534	1	16
466.705	1	32
466.875	1	10
467.045	1	15
467.216	1	10
467.386	1	21
467.557	1	26
467.727	1	16
467.897	1	19
468.068	1	13
468.238	1	18
468.409	1	21
468.579	1	16
468.749	1	17
468.920	1	16
469.090	1	19
469.260	1	15
469.431	1	24
469.601	1	26
469.772	1	29
469.942	1	33
470.112	1	7
470.283	1	15
470.453	1	30
470.623	1	18
470.794	1	20
470.964	1	16
471.135	1	17
471.305	1	15
471.475	1	29
471.646	1	20
471.816	1	26
471.986	1	28
472.157	1	18
472.327	1	33
472.497	1	28
472.668	1	17
472.838	1	20
473.009	1	18
473.179	1	17
473.349	1	19
473.520	1	28
473.690	1	16
473.860	1	17
474.031	1	8
474.201	1	20
474.371	1	30
474.542	1	10
474.712	1	15
474.882	1	22
475.053	1	22
475.223	1	12
475.394	1	13
475.564	1	16
475.734	1	10
475.905	1	19
476.075	1	21
476.245	1	16
476.416	1	8
476.586	1	10
476.756	1	21
476.927	1	18
477.097	1	2
477.267	1	14
477.438	1	17
477.608	1	28
477.778	1	13
477.949	1	18
478.119	1	18
478.289	1	15
478.460	1	28
478.630	1	8
478.800	1	9
478.971	1	28
479.141	1	22
479.311	1	19
479.482	1	22
479.652	1	14
479.822	1	7
479.993	1	21
480.163	1	19
480.333	1	19
480.504	1	12
480.674	1	23
480.844	1	14
481.015	1	30
481.185	1	20
481.355	1	22
481.525	1	6
481.696	1	12
481.866	1	19
482.036	1	24
482.207	1	20
482.377	1	13
482.547	1	17
482.718	1	21
482.888	1	23
483.058	1	15
483.229	1	13
483.399	1	15
483.569	1	13
483.740	1	18
483.910	1	9
484.080	1	16
484.250	1	4
484.421	1	-2
484.591	1	6
484.761	1	17
484.932	1	7
485.102	1	23
485.272	1	2
485.443	1	15
485.613	1	19
485.783	1	12
485.953	1	24
486.124	1	7
486.294	1	24
486.464	1	25
486.635	1	13
486.805	1	14
486.975	1	5
487.146	1	12
487.316	1	14
487.486	1	24
487.656	1	15
487.827	1	17
487.997	1	3
488.167	1	23
488.338	1	7
488.508	1	18
488.678	1	12
488.848	1	14
489.019	1	4
489.189	1	21
489.359	1	12
489.529	1	16
489.700	1	14
489.870	1	16
490.040	1	6
490.211	1	6
490.381	1	7
490.551	1	15
490.721	1	20
490.892	1	7
491.062	1	16
491.232	1	14
491.402	1	8
491.573	1	18
491.743	1	8
491.913	1	14
492.084	1	3
492.254	1	9
492.424	1	0
492.594	1	16
492.765	1	18
492.935	1	24
493.105	1	7
493.275	1	19
493.446	1	6
493.616	1	4
493.786	1	15
493.956	1	15
494.127	1	9
494.297	1	-1
494.467	1	9
494.637	1	12
494.808	1	16
494.978	1	12
495.148	1	13
495.318	1	21
495.489	1	7
495.659	1	11
495.829	1	7
495.999	1	15
496.170	1	16
496.340	1	0
496.510	1	19
496.680	1	9
496.851	1	14
497.021	1	7
497.191	1	16
497.361	1	-8
497.532	1	16
497.702	1	17
497.872	1	11
498.042	1	9
498.213	1	2
498.383	1	10
498.553	1	18
498.723	1	7
498.894	1	12
499.064	1	7
499.234	1	2
499.404	1	16
499.574	1	20
499.745	1	15
499.915	1	14
500.085	1	14
500.255	1	-1
500.426	1	16
500.596	1	2
500.766	1	15
500.936	1	4
501.106	1	3
501.277	1	-3
501.447	1	18
501.617	1	7
501.787	1	0
501.958	1	15
502.128	1	1
502.298	1	0
502.468	1	9
502.638	1	17
502.809	1	5
502.979	1	10
503.149	1	17
503.319	1	13
503.489	1	-4
503.660	1	4
503.830	1	9
504.000	1	7
504.170	1	11
504.340	1	-2
504.511	1	4
504.681	1	10
504.851	1	8
505.021	1	1
505.192	1	4
505.362	1	0
505.532	1	0
505.702	1	23
505.872	1	14
506.043	1	13
506.213	1	22
506.383	1	8
506.553	1	8
506.723	1	-1
506.893	1	7
507.064	1	23
507.234	1	2
507.404	1	3
507.574	1	0
507.744	1	13
507.915	1	5
508.085	1	2
508.255	1	4
508.425	1	9
508.595	1	15
508.766	1	3
508.936	1	13
509.106	1	13
509.276	1	11
509.446	1	1
509.616	1	3
509.787	1	13
509.957	1	14
510.127	1	5
510.297	1	-7
510.467	1	16
510.638	1	8
510.808	1	20
510.978	1	-6
511.148	1	4
511.318	1	6
511.488	1	11
511.659	1	7
511.829	1	6
511.999	1	2
512.169	1	1
512.339	1	12
512.509	1	3
512.680	1	4
512.850	1	4
513.020	1	5
513.190	1	-1
513.360	1	8
513.530	1	6
513.700	1	14
513.871	1	6
514.041	1	9
514.211	1	10
514.381	1	14
514.551	1	-5
514.721	1	8
514.892	1	4
515.062	1	19
515.232	1	1
515.402	1	12
515.572	1	10
515.742	1	16
515.912	1	11
516.083	1	12
516.253	1	9
516.423	1	10
516.593	1	10
516.763	1	7
516.933	1	4
517.104	1	14
517.274	1	-4
517.444	1	8
517.614	1	11
517.784	1	11
517.954	1	2
518.124	1	12
518.294	1	13
518.465	1	6
518.635	1	19
518.805	1	3
518.975	1	15
519.145	1	11
519.315	1	8
519.485	1	0
519.656	1	5
519.826	1	0
519.996	1	9
520.166	1	5
520.336	1	3
520.506	1	1
520.676	1	3
520.846	1	14
521.017	1	3
521.187	1	17
521.357	1	-6
521.527	1	1
521.697	1	-1
521.867	1	4
522.037	1	-2
522.207	1	11
522.377	1	16
522.548	1	-6
522.718	1	6
522.888	1	7
523.058	1	4
523.228	1	7
523.398	1	5
523.568	1	1
523.738	1	9
523.909	1	5
524.079	1	15
524.249	1	-2
524.419	1	0
524.589	1	4
524.759	1	7
524.929	1	4
525.099	1	3
525.269	1	17
525.439	1	14
525.610	1	11
525.780	1	13
525.950	1	9
526.120	1	-6
526.290	1	-5
526.460	1	-4
526.630	1	15
526.800	1	-5
526.970	1	16
527.140	1	-3
527.311	1	11
527.481	1	13
527.651	1	13
527.821	1	-2
527.991	1	-3
528.161	1	2
528.331	1	-1
528.501	1	6
528.671	1	4
528.841	1	9
529.011	1	11
529.181	1	9
529.352	1	4
529.522	1	12
529.692	1	8
529.862	1	-1
530.032	1	1
530.202	1	2
530.372	1	8
530.542	1	-1
530.712	1	12
530.882	1	12
531.052	1	10
531.222	1	7
531.392	1	6
531.563	1	5
531.733	1	2
531.903	1	1
532.073	1	5
532.243	1	15
532.413	1	16
532.583	1	3
532.753	1	5
532.923	1	9
533.093	1	-2
533.263	1	5
533.433	1	-4
533.603	1	-5
533.773	1	-1
533.943	1	8
534.113	1	2
534.284	1	4
534.454	1	3
534.624	1	4
534.794	1	-1
534.964	1	4
535.134	1	-3
535.304	1	3
535.474	1	7
535.644	1	16
535.814	1	7
535.984	1	10
536.154	1	7
536.324	1	11
536.494	1	12
536.664	1	8
536.834	1	1
537.004	1	11
537.174	1	10
537.344	1	2
537.514	1	3
537.685	1	9
537.855	1	8
538.025	1	11
538.195	1	2
538.365	1	10
538.535	1	3
538.705	1	7
538.875	1	6
539.045	1	6
539.215	1	-1
539.385	1	7
539.555	1	0
539.725	1	8
539.895	1	1
540.065	1	10
540.235	1	2
540.405	1	6
540.575	1	8
540.745	1	4
540.915	1	7
541.085	1	-6
541.255	1	4
541.425	1	0
541.595	1	1
541.765	1	-1
541.935	1	11
542.105	1	9
542.275	1	-5
542.445	1	4
542.615	1	3
542.785	1	6
542.955	1	3
543.125	1	4
543.295	1	-2
543.465	1	12
543.635	1	-3
543.805	1	14
543.975	1	0
544.145	1	4
544.315	1	-2
544.485	1	5
544.655	1	7
544.825	1	2
544.995	1	11
545.165	1	6
545.335	1	4
545.505	1	2
545.675	1	10
545.845	1	-2
546.015	1	-7
546.185	1	1
546.355	1	4
546.525	1	6
546.695	1	3
546.865	1	1
547.035	1	2
547.205	1	22
547.375	1	14
547.545	1	9
547.715	1	-2
547.885	1	-7
548.055	1	-1
548.225	1	10
548.395	1	3
548.565	1	5
548.735	1	-5
548.905	1	12
549.075	1	-1
549.245	1	8
549.415	1	14
549.585	1	6
549.755	1	3
549.925	1	8
550.095	1	-6
550.265	1	8
550.435	1	4
550.605	1	8
550.775	1	2
550.945	1	9
551.115	1	12
551.285	1	-5
551.455	1	7
551.625	1	-4
551.795	1	2
551.965	1	3
552.135	1	5
552.305	1	2
552.475	1	15
552.645	1	-4
552.815	1	-2
552.985	1	3
553.155	1	4
553.325	1	4
553.495	1	0
553.665	1	2
553.835	1	6
554.004	1	1
554.174	1	1
554.344	1	9
554.514	1	-6
554.684	1	5
554.854	1	-8
555.024	1	13
555.194	1	0
555.364	1	2
555.534	1	-5
555.704	1	0
555.874	1	-2
556.044	1	2
556.214	1	5
556.384	1	10
556.554	1	4
556.724	1	5
556.894	1	6
557.064	1	-7
557.234	1	6
557.404	1	0
557.573	1	4
557.743	1	-4
557.913	1	-4
558.083	1	8
558.253	1	7
558.423	1	3
558.593	1	-2
558.763	1	-3
558.933	1	-1
559.103	1	1
559.273	1	14
559.443	1	5
559.613	1	-2
559.783	1	7
559.953	1	-2
560.122	1	1
560.292	1	-7
560.462	1	1
560.632	1	-4
560.802	1	7
560.972	1	-6
561.142	1	3
561.312	1	2
561.482	1	8
561.652	1	1
561.822	1	-1
561.992	1	4
562.162	1	2
562.331	1	-6
562.501	1	-1
562.671	1	-6
562.841	1	-12
563.011	1	-1
563.181	1	-5
563.351	1	-4
563.521	1	3
563.691	1	6
563.861	1	7
564.031	1	2
564.201	1	1
564.370	1	8
564.540	1	6
564.710	1	3
564.880	1	5
565.050	1	6
565.220	1	12
565.390	1	5
565.560	1	7
565.730	1	11
565.900	1	-1
566.069	1	10
566.239	1	12
566.409	1	8
566.579	1	1
566.749	1	2
566.919	1	-9
567.089	1	-8
567.259	1	11
567.429	1	-2
567.599	1	11
567.768	1	4
567.938	1	3
568.108	1	4
568.278	1	6
568.448	1	-3
568.618	1	0
568.788	1	1
568.958	1	0
569.128	1	6
569.297	1	-4
569.467	1	6
569.637	1	10
569.807	1	-4
569.977	1	-6
570.147	1	2
570.317	1	-2
570.487	1	-1
570.656	1	15
570.826	1	4
570.996	1	10
571.166	1	-4
571.336	1	-3
571.506	1	5
571.676	1	8
571.846	1	-1
572.015	1	2
572.185	1	4
572.355	1	-1
572.525	1	-7
572.695	1	0
572.865	1	9
573.035	1	11
573.205	1	1
573.374	1	-6
573.544	1	-1
573.714	1	1
573.884	1	-5
574.054	1	-4
574.224	1	0
574.394	1	1
574.563	1	1
574.733	1	0
574.903	1	6
575.073	1	12
575.243	1	-4
575.413	1	-4
575.583	1	-8
575.752	1	11
575.922	1	7
576.092	1	-3
576.262	1	-2
576.432	1	-4
576.602	1	10
576.772	1	2
576.941	1	3
577.111	1	-4
577.281	1	1
577.451	1	-3
577.621	1	-2
577.791	1	6
577.960	1	2
578.130	1	10
578.300	1	5
578.470	1	-1
578.640	1	0
578.810	1	-3
578.979	1	5
579.149	1	5
579.319	1	0
579.489	1	10
579.659	1	-2
579.829	1	-3
579.998	1	-8
580.168	1	-6
580.338	1	10
580.508	1	-8
580.678	1	4
580.848	1	9
581.017	1	7
581.187	1	3
581.357	1	4
581.527	1	-2
581.697	1	-1
581.867	1	1
582.036	1	-13
582.206	1	7
582.376	1	1
582.546	1	-4
582.716	1	6
582.885	1	9
583.055	1	0
583.225	1	6
583.395	1	-4
583.565	1	-2
583.735	1	0
583.904	1	1
584.074	1	2
584.244	1	2
584.414	1	-1
584.584	1	-4
584.753	1	4
584.923	1	2
585.093	1	3
585.263	1	2
585.433	1	2
585.602	1	1
585.772	1	18
585.942	1	-7
586.112	1	-1
586.282	1	3
586.451	1	13
586.621	1	-7
586.791	1	-4
586.961	1	-2
587.131	1	-4
587.300	1	5
587.470	1	1
587.640	1	9
587.810	1	-10
587.980	1	4
588.149	1	11
588.319	1	13
588.489	1	9
588.659	1	-8
588.829	1	-1
588.998	1	-3
589.168	1	0
589.338	1	5
589.508	1	0
589.677	1	6
589.847	1	6
590.017	1	-2
590.187	1	3
590.357	1	3
590.526	1	-3
590.696	1	2
590.866	1	-1
591.036	1	4
591.205	1	-1
591.375	1	8
591.545	1	4
591.715	1	7
591.885	1	9
592.054	1	6
592.224	1	-1
592.394	1	-3
592.564	1	4
592.733	1	1
592.903	1	-2
593.073	1	2
593.243	1	7
593.412	1	-7
593.582	1	0
593.752	1	-1
593.922	1	-1
594.091	1	0
594.261	1	-7
594.431	1	0
594.601	1	-7
594.771	1	2
594.940	1	1
595.110	1	10
595.280	1	2
595.450	1	-3
595.619	1	1
595.789	1	-2
595.959	1	5
596.129	1	1
596.298	1	10
596.468	1	-6
596.638	1	5
596.808	1	-8
596.977	1	-5
597.147	1	-7
597.317	1	6
597.487	1	6
597.656	1	6
597.826	1	9
597.996	1	-1
598.166	1	4
598.335	1	-5
598.505	1	2
598.675	1	7
598.844	1	11
599.014	1	-6
599.184	1	6
599.354	1	18
599.523	1	-1
599.693	1	-3
599.863	1	4
600.033	1	4
600.202	1	-2
600.372	1	-2
600.542	1	4
600.712	1	6
600.881	1	7
601.051	1	0
601.221	1	-1
601.390	1	7
601.560	1	13
601.730	1	10
601.900	1	4
602.069	1	-3
602.239	1	1
602.409	1	-5
602.578	1	9
602.748	1	19
602.918	1	-3
603.088	1	0
603.257	1	-3
603.427	1	10
603.597	1	10
603.767	1	1
603.936	1	9
604.106	1	3
604.276	1	-1
604.445	1	-5
604.615	1	2
604.785	1	10
604.954	1	10
605.124	1	6
605.294	1	-8
605.464	1	-6
605.633	1	5
605.803	1	11
605.973	1	-9
606.142	1	4
606.312	1	13
606.482	1	-7
606.652	1	4
606.821	1	-4
606.991	1	4
607.161	1	1
607.330	1	5
607.500	1	0
607.670	1	8
607.839	1	4
608.009	1	7
608.179	1	8
608.348	1	-1
608.518	1	21
608.688	1	-5
608.858	1	4
609.027	1	17
609.197	1	1
609.367	1	-7
609.536	1	-3
609.706	1	17
609.876	1	8
610.045	1	3
610.215	1	4
610.385	1	12
610.554	1	-1
610.724	1	3
610.894	1	8
611.063	1	6
611.233	1	3
611.403	1	6
611.572	1	-2
611.742	1	-8
611.912	1	0
612.081	1	7
612.251	1	7
612.421	1	11
612.590	1	5
612.760	1	4
612.930	1	13
613.099	1	12
613.269	1	3
613.439	1	-1
613.608	1	1
613.778	1	10
613.948	1	11
614.117	1	-5
614.287	1	0
614.457	1	7
614.626	1	-7
614.796	1	4
614.966	1	2
615.135	1	19
615.305	1	8
615.475	1	0
615.644	1	19
615.814	1	11
615.984	1	-2
616.153	1	-1
616.323	1	-5
616.493	1	9
616.662	1	2
616.832	1	7
617.002	1	-3
617.171	1	3
617.341	1	7
617.511	1	-11
617.680	1	-2
617.850	1	11
618.019	1	4
618.189	1	10
618.359	1	6
618.528	1	11
618.698	1	7
618.868	1	-4
619.037	1	12
619.207	1	-7
619.377	1	8
619.546	1	12
619.716	1	3
619.885	1	2
620.055	1	-4
620.225	1	1
620.394	1	10
620.564	1	10
620.734	1	3
620.903	1	0
621.073	1	8
621.242	1	4
621.412	1	9
621.582	1	8
621.751	1	-2
621.921	1	1
622.091	1	7
622.260	1	7
622.430	1	1
622.599	1	3
622.769	1	1
622.939	1	2
623.108	1	10
623.278	1	-1
623.448	1	7
623.617	1	7
623.787	1	3
623.956	1	9
624.126	1	10
624.296	1	10
624.465	1	10
624.635	1	5
624.804	1	-9
624.974	1	-1
625.144	1	6
625.313	1	15
625.483	1	3
625.652	1	6
625.822	1	5
625.992	1	-5
626.161	1	6
626.331	1	1
626.501	1	0
626.670	1	-2
626.840	1	12
627.009	1	6
627.179	1	5
627.348	1	6
627.518	1	12
627.688	1	5
627.857	1	9
628.027	1	3
628.196	1	12
628.366	1	-1
628.536	1	8
628.705	1	0
628.875	1	-4
629.044	1	-4
629.214	1	-3
629.384	1	14
629.553	1	6
629.723	1	9
629.892	1	5
630.062	1	9
630.232	1	2
630.401	1	0
630.571	1	0
630.740	1	0
630.910	1	14
631.079	1	-2
631.249	1	0
631.419	1	16
631.588	1	5
631.758	1	8
631.927	1	7
632.097	1	-3
632.266	1	14
632.436	1	0
632.606	1	9
632.775	1	1
632.945	1	6
633.114	1	-9
633.284	1	4
633.453	1	7
633.623	1	17
633.793	1	1
633.962	1	9
634.132	1	9
634.301	1	7
634.471	1	7
634.640	1	-1
634.810	1	9
634.979	1	-2
635.149	1	-2
635.319	1	-1
635.488	1	-5
635.658	1	2
635.827	1	-1
635.997	1	6
636.166	1	10
636.336	1	7
636.505	1	8
636.675	1	3
636.845	1	1
637.014	1	4
637.184	1	11
637.353	1	9
637.523	1	4
637.692	1	2
637.862	1	6
638.031	1	-10
638.201	1	4
638.370	1	4
638.540	1	-1
638.710	1	-1
638.879	1	-4
639.049	1	-1
639.218	1	14
639.388	1	5
639.557	1	4
639.727	1	4
639.896	1	-3
640.066	1	0
640.235	1	6
640.405	1	5
640.574	1	4
640.744	1	2
640.914	1	9
641.083	1	15
641.253	1	-4
641.422	1	-3
641.592	1	9
641.761	1	3
641.931	1	18
642.100	1	3
642.270	1	7
642.439	1	10
642.609	1	14
642.778	1	9
642.948	1	13
643.117	1	13
643.287	1	9
643.456	1	1
643.626	1	2
643.795	1	2
643.965	1	6
644.134	1	1
644.304	1	0
644.473	1	1
644.643	1	-3
644.812	1	-1
644.982	1	16
645.151	1	1
645.321	1	14
645.490	1	9
645.660	1	2
645.829	1	3
645.999	1	-3
646.168	1	24
646.338	1	1
646.507	1	2
646.677	1	4
646.846	1	13
647.016	1	10
647.185	1	1
647.355	1	17
647.524	1	2
647.694	1	-6
647.863	1	-3
648.033	1	5
648.202	1	10
648.372	1	-13
648.541	1	5
648.711	1	4
648.880	1	11
649.050	1	8
649.219	1	7
649.389	1	7
649.558	1	11
649.728	1	5
649.897	1	8
650.067	1	6
650.236	1	0
650.406	1	4
650.575	1	5
650.745	1	10
650.914	1	13
651.084	1	9
651.253	1	11
651.423	1	-2
651.592	1	2
651.762	1	-5
651.931	1	7
652.101	1	4
652.270	1	5
652.440	1	5
652.609	1	8
652.778	1	11
652.948	1	16
653.117	1	3
653.287	1	-4
653.456	1	5
653.626	1	1
653.795	1	1
653.965	1	0
654.134	1	-4
654.304	1	3
654.473	1	3
654.643	1	-1
654.812	1	17
654.982	1	8
655.151	1	9
655.320	1	1
655.490	1	4
655.659	1	-3
655.829	1	8
655.998	1	15
656.168	1	0
656.337	1	-9
656.507	1	-1
656.676	1	3
656.846	1	7
657.015	1	19
657.184	1	7
657.354	1	5
657.523	1	3
657.693	1	16
657.862	1	-6
658.032	1	1
658.201	1	2
658.371	1	5
658.540	1	2
658.709	1	15
658.879	1	7
659.048	1	11
659.218	1	6
659.387	1	23
659.557	1	0
659.726	1	5
659.895	1	5
660.065	1	-1
660.234	1	5
660.404	1	6
660.573	1	2
660.743	1	11
660.912	1	10
661.081	1	0
661.251	1	7
661.420	1	16
661.590	1	-1
661.759	1	4
661.929	1	5
662.098	1	8
662.267	1	9
662.437	1	11
662.606	1	1
662.776	1	10
662.945	1	14
663.115	1	9
663.284	1	11
663.453	1	4
663.623	1	5
663.792	1	21
663.962	1	12
664.131	1	-6
664.300	1	10
664.470	1	-2
664.639	1	13
664.809	1	-4
664.978	1	18
665.148	1	7
665.317	1	16
665.486	1	9
665.656	1	10
665.825	1	3
665.995	1	-4
666.164	1	4
666.333	1	-1
666.503	1	-10
666.672	1	8
666.842	1	5
667.011	1	8
667.180	1	6
667.350	1	2
667.519	1	10
667.689	1	8
667.858	1	12
668.027	1	-4
668.197	1	-4
668.366	1	9
668.536	1	1
668.705	1	0
668.874	1	12
669.044	1	6
669.213	1	10
669.382	1	13
669.552	1	2
669.721	1	-11
669.891	1	7
670.060	1	13
670.229	1	18
670.399	1	3
670.568	1	9
670.738	1	7
670.907	1	13
671.076	1	7
671.246	1	11
671.415	1	10
671.584	1	5
671.754	1	-3
671.923	1	3
672.093	1	11
672.262	1	-1
672.431	1	3
672.601	1	9
672.770	1	2
672.939	1	7
673.109	1	-1
673.278	1	7
673.448	1	1
673.617	1	5
673.786	1	-4
