325.333	1	4
325.504	1	-5
325.675	1	15
325.846	1	1
326.017	1	1
326.188	1	11
326.359	1	3
326.531	1	-9
326.702	1	6
326.873	1	5
327.044	1	6
327.215	1	-5
327.386	1	6
327.557	1	-5
327.728	1	-2
327.899	1	4
328.070	1	12
328.241	1	3
328.412	1	0
328.583	1	-2
328.754	1	17
328.926	1	8
329.097	1	-5
329.268	1	3
329.439	1	6
329.610	1	4
329.781	1	2
329.952	1	5
330.123	1	-3
330.294	1	-5
330.465	1	-4
330.636	1	4
330.807	1	1
330.978	1	-4
331.149	1	-2
331.320	1	7
331.492	1	-2
331.663	1	2
331.834	1	7
332.005	1	12
332.176	1	4
332.347	1	4
332.518	1	4
332.689	1	6
332.860	1	-1
333.031	1	9
333.202	1	6
333.373	1	9
333.544	1	4
333.715	1	4
333.886	1	-6
334.057	1	-3
334.228	1	12
334.399	1	10
334.570	1	2
334.741	1	-8
334.912	1	2
335.084	1	9
335.255	1	7
335.426	1	1
335.597	1	4
335.768	1	4
335.939	1	9
336.110	1	10
336.281	1	12
336.452	1	10
336.623	1	-5
336.794	1	3
336.965	1	3
337.136	1	13
337.307	1	-4
337.478	1	11
337.649	1	-4
337.820	1	-6
337.991	1	6
338.162	1	3
338.333	1	4
338.504	1	7
338.675	1	0
338.846	1	-8
339.017	1	-1
339.188	1	-1
339.359	1	1
339.530	1	-3
339.701	1	3
339.872	1	11
340.043	1	7
340.214	1	10
340.385	1	-7
340.556	1	23
340.727	1	14
340.898	1	3
341.069	1	3
341.240	1	1
341.411	1	5
341.582	1	-3
341.753	1	-3
341.924	1	18
342.095	1	5
342.266	1	12
342.437	1	5
342.608	1	4
342.779	1	2
342.950	1	3
343.121	1	4
343.292	1	12
343.463	1	17
343.634	1	4
343.805	1	11
343.976	1	21
344.147	1	13
344.318	1	0
344.489	1	2
344.660	1	10
344.831	1	10
345.002	1	-3
345.173	1	10
345.344	1	2
345.515	1	12
345.686	1	13
345.857	1	9
346.028	1	12
346.199	1	4
346.370	1	6
346.541	1	2
346.712	1	4
346.883	1	3
347.054	1	13
347.225	1	4
347.396	1	10
347.567	1	2
347.738	1	6
347.909	1	9
348.080	1	9
348.251	1	-2
348.422	1	7
348.593	1	6
348.764	1	4
348.935	1	8
349.106	1	0
349.277	1	4
349.448	1	2
349.619	1	4
349.790	1	9
349.961	1	3
350.132	1	11
350.303	1	4
350.474	1	11
350.645	1	14
350.816	1	-1
350.987	1	14
351.157	1	8
351.328	1	1
351.499	1	7
351.670	1	6
351.841	1	7
352.012	1	9
352.183	1	20
352.354	1	9
352.525	1	15
352.696	1	0
352.867	1	11
353.038	1	7
353.209	1	9
353.380	1	18
353.551	1	13
353.722	1	15
353.893	1	13
354.064	1	14
354.235	1	8
354.406	1	-4
354.576	1	5
354.747	1	8
354.918	1	5
355.089	1	18
355.260	1	7
355.431	1	-1
355.602	1	17
355.773	1	4
355.944	1	7
356.115	1	13
356.286	1	13
356.457	1	7
356.628	1	9
356.799	1	13
356.970	1	14
357.141	1	15
357.311	1	15
357.482	1	7
357.653	1	11
357.824	1	2
357.995	1	13
358.166	1	12
358.337	1	14
358.508	1	13
358.679	1	6
358.850	1	18
359.021	1	9
359.192	1	22
359.363	1	15
359.533	1	2
359.704	1	-6
359.875	1	4
360.046	1	21
360.217	1	20
360.388	1	23
360.559	1	6
360.730	1	0
360.901	1	12
361.072	1	11
361.243	1	6
361.414	1	20
361.584	1	4
361.755	1	13
361.926	1	19
362.097	1	4
362.268	1	28
362.439	1	0
362.610	1	17
362.781	1	5
362.952	1	8
363.123	1	-2
363.293	1	13
363.464	1	13
363.635	1	25
363.806	1	4
363.977	1	18
364.148	1	9
364.319	1	0
364.490	1	14
364.661	1	11
364.832	1	9
365.002	1	11
365.173	1	5
365.344	1	14
365.515	1	17
365.686	1	14
365.857	1	12
366.028	1	20
366.199	1	19
366.370	1	17
366.540	1	13
366.711	1	16
366.882	1	20
367.053	1	7
367.224	1	13
367.395	1	10
367.566	1	15
367.737	1	8
367.908	1	13
368.078	1	6
368.249	1	19
368.420	1	14
368.591	1	9
368.762	1	22
368.933	1	10
369.104	1	16
369.274	1	19
369.445	1	20
369.616	1	8
369.787	1	8
369.958	1	17
370.129	1	13
370.300	1	15
370.471	1	5
370.641	1	12
370.812	1	10
370.983	1	3
371.154	1	12
371.325	1	8
371.496	1	14
371.667	1	19
371.837	1	25
372.008	1	10
372.179	1	16
372.350	1	5
372.521	1	20
372.692	1	18
372.863	1	12
373.033	1	18
373.204	1	3
373.375	1	15
373.546	1	12
373.717	1	8
373.888	1	13
374.059	1	11
374.229	1	15
374.400	1	11
374.571	1	1
374.742	1	13
374.913	1	1
375.084	1	10
375.254	1	1
375.425	1	22
375.596	1	11
375.767	1	11
375.938	1	4
376.109	1	12
376.279	1	13
376.450	1	9
376.621	1	15
376.792	1	13
376.963	1	-4
377.134	1	12
377.304	1	23
377.475	1	7
377.646	1	11
377.817	1	13
377.988	1	12
378.159	1	19
378.329	1	14
378.500	1	14
378.671	1	10
378.842	1	8
379.013	1	16
379.184	1	13
379.354	1	19
379.525	1	7
379.696	1	23
379.867	1	6
380.038	1	6
380.209	1	21
380.379	1	16
380.550	1	12
380.721	1	13
380.892	1	12
381.063	1	14
381.233	1	9
381.404	1	16
381.575	1	8
381.746	1	18
381.917	1	8
382.087	1	21
382.258	1	19
382.429	1	6
382.600	1	4
382.771	1	13
382.941	1	18
383.112	1	15
383.283	1	16
383.454	1	10
383.625	1	12
383.795	1	11
383.966	1	19
384.137	1	21
384.308	1	12
384.479	1	7
384.649	1	9
384.820	1	5
384.991	1	15
385.162	1	17
385.333	1	9
385.503	1	16
385.674	1	17
385.845	1	25
386.016	1	14
386.187	1	8
386.357	1	30
386.528	1	18
386.699	1	12
386.870	1	20
387.041	1	14
387.211	1	17
387.382	1	17
387.553	1	24
387.724	1	9
387.894	1	4
388.065	1	21
388.236	1	12
388.407	1	21
388.578	1	18
388.748	1	20
388.919	1	18
389.090	1	27
389.261	1	17
389.431	1	7
389.602	1	9
389.773	1	9
389.944	1	16
390.114	1	18
390.285	1	26
390.456	1	22
390.627	1	18
390.798	1	12
390.968	1	28
391.139	1	24
391.310	1	10
391.481	1	20
391.651	1	17
391.822	1	21
391.993	1	15
392.164	1	26
392.334	1	12
392.505	1	22
392.676	1	14
392.847	1	3
393.017	1	16
393.188	1	10
393.359	1	24
393.530	1	27
393.700	1	16
393.871	1	26
394.042	1	10
394.213	1	18
394.383	1	11
394.554	1	9
394.725	1	1
394.896	1	26
395.066	1	10
395.237	1	13
395.408	1	2
395.579	1	10
395.749	1	28
395.920	1	16
396.091	1	20
396.262	1	13
396.432	1	14
396.603	1	12
396.774	1	7
396.945	1	21
397.115	1	24
397.286	1	20
397.457	1	23
397.627	1	12
397.798	1	32
397.969	1	24
398.140	1	9
398.310	1	27
398.481	1	16
398.652	1	19
398.823	1	22
398.993	1	12
399.164	1	15
399.335	1	21
399.505	1	10
399.676	1	12
399.847	1	20
400.018	1	8
400.188	1	19
400.359	1	27
400.530	1	21
400.700	1	20
400.871	1	28
401.042	1	12
401.213	1	20
401.383	1	26
401.554	1	18
401.725	1	5
401.895	1	11
402.066	1	22
402.237	1	24
402.408	1	19
402.578	1	11
402.749	1	27
402.920	1	26
403.090	1	10
403.261	1	12
403.432	1	15
403.603	1	25
403.773	1	24
403.944	1	20
404.115	1	10
404.285	1	20
404.456	1	27
404.627	1	22
404.797	1	21
404.968	1	20
405.139	1	19
405.310	1	12
405.480	1	13
405.651	1	14
405.822	1	13
405.992	1	17
406.163	1	9
406.334	1	19
406.504	1	14
406.675	1	15
406.846	1	21
407.016	1	24
407.187	1	18
407.358	1	10
407.528	1	23
407.699	1	20
407.870	1	20
408.041	1	11
408.211	1	34
408.382	1	21
408.553	1	23
408.723	1	30
408.894	1	12
409.065	1	17
409.235	1	34
409.406	1	9
409.577	1	15
409.747	1	29
409.918	1	31
410.089	1	33
410.259	1	21
410.430	1	30
410.601	1	28
410.771	1	32
410.942	1	27
411.113	1	26
411.283	1	32
411.454	1	28
411.625	1	31
411.795	1	30
411.966	1	16
412.137	1	26
412.307	1	27
412.478	1	17
412.649	1	15
412.819	1	37
412.990	1	13
413.161	1	21
413.331	1	25
413.502	1	20
413.672	1	6
413.843	1	23
414.014	1	27
414.184	1	22
414.355	1	28
414.526	1	21
414.696	1	17
414.867	1	14
415.038	1	19
415.208	1	3
415.379	1	21
415.550	1	21
415.720	1	16
415.891	1	26
416.062	1	17
416.232	1	23
416.403	1	21
416.573	1	11
416.744	1	26
416.915	1	14
417.085	1	15
417.256	1	18
417.427	1	17
417.597	1	20
417.768	1	17
417.939	1	17
418.109	1	29
418.280	1	20
418.450	1	34
418.621	1	20
418.792	1	12
418.962	1	24
419.133	1	16
419.304	1	10
419.474	1	17
419.645	1	21
419.815	1	21
419.986	1	27
420.157	1	20
420.327	1	15
420.498	1	11
420.669	1	20
420.839	1	26
421.010	1	19
421.180	1	15
421.351	1	15
421.522	1	16
421.692	1	26
421.863	1	19
422.033	1	15
422.204	1	23
422.375	1	26
422.545	1	26
422.716	1	11
422.886	1	23
423.057	1	7
423.228	1	8
423.398	1	25
423.569	1	13
423.740	1	9
423.910	1	21
424.081	1	23
424.251	1	20
424.422	1	18
424.593	1	18
424.763	1	20
424.934	1	23
425.104	1	27
425.275	1	18
425.445	1	12
425.616	1	18
425.787	1	13
425.957	1	25
426.128	1	12
426.298	1	21
426.469	1	16
426.640	1	10
426.810	1	8
426.981	1	17
427.151	1	11
427.322	1	15
427.493	1	29
427.663	1	28
427.834	1	11
428.004	1	33
428.175	1	27
428.345	1	10
428.516	1	15
428.687	1	27
428.857	1	33
429.028	1	15
429.198	1	8
429.369	1	25
429.540	1	23
429.710	1	18
429.881	1	22
430.051	1	17
430.222	1	17
430.392	1	13
430.563	1	9
430.734	1	21
430.904	1	18
431.075	1	13
431.245	1	11
431.416	1	21
431.586	1	7
431.757	1	16
431.927	1	24
432.098	1	10
432.269	1	11
432.439	1	17
432.610	1	31
432.780	1	30
432.951	1	0
433.121	1	29
433.292	1	15
433.462	1	11
433.633	1	17
433.804	1	23
433.974	1	19
434.145	1	22
434.315	1	16
434.486	1	-3
434.656	1	27
434.827	1	15
434.997	1	26
435.168	1	27
435.339	1	28
435.509	1	8
435.680	1	22
435.850	1	3
436.021	1	12
436.191	1	8
436.362	1	18
436.532	1	20
436.703	1	23
436.873	1	7
437.044	1	16
437.214	1	18
437.385	1	9
437.556	1	20
437.726	1	26
437.897	1	11
438.067	1	17
438.238	1	31
438.408	1	17
438.579	1	7
438.749	1	20
438.920	1	27
439.090	1	6
439.261	1	17
439.431	1	5
439.602	1	15
439.772	1	12
439.943	1	17
440.113	1	21
440.284	1	20
440.455	1	2
440.625	1	30
440.796	1	11
440.966	1	19
441.137	1	23
441.307	1	18
441.478	1	9
441.648	1	9
441.819	1	19
441.989	1	30
442.160	1	12
442.330	1	10
442.501	1	3
442.671	1	16
442.842	1	22
443.012	1	18
443.183	1	14
443.353	1	18
443.524	1	17
443.694	1	13
443.865	1	9
444.035	1	20
444.206	1	9
444.376	1	13
444.547	1	19
444.717	1	12
444.888	1	6
445.058	1	18
445.229	1	15
445.399	1	22
445.570	1	16
445.740	1	4
445.911	1	21
446.081	1	13
446.252	1	8
446.422	1	11
446.593	1	16
446.763	1	11
446.934	1	7
447.104	1	14
447.275	1	11
447.445	1	14
447.616	1	11
447.786	1	15
447.957	1	13
448.127	1	14
448.298	1	11
448.468	1	19
448.639	1	9
448.809	1	13
448.979	1	29
449.150	1	7
449.320	1	11
449.491	1	1
449.661	1	14
449.832	1	16
450.002	1	10
450.173	1	17
450.343	1	6
450.514	1	13
450.684	1	19
450.855	1	22
451.025	1	17
451.196	1	10
451.366	1	29
451.537	1	26
451.707	1	20
451.878	1	13
452.048	1	12
452.218	1	3
452.389	1	15
452.559	1	17
452.730	1	11
452.900	1	9
453.071	1	18
453.241	1	15
453.412	1	4
453.582	1	21
453.753	1	19
453.923	1	5
454.093	1	0
454.264	1	18
454.434	1	12
454.605	1	6
454.775	1	16
454.946	1	9
455.116	1	9
455.287	1	11
455.457	1	12
455.628	1	2
455.798	1	19
455.968	1	18
456.139	1	27
456.309	1	14
456.480	1	21
456.650	1	1
456.821	1	4
456.991	1	17
457.161	1	9
457.332	1	16
457.502	1	6
457.673	1	9
457.843	1	14
458.014	1	15
458.184	1	15
458.355	1	18
458.525	1	6
458.695	1	11
458.866	1	2
459.036	1	15
459.207	1	13
459.377	1	8
459.548	1	9
459.718	1	8
459.888	1	9
460.059	1	15
460.229	1	2
460.400	1	8
460.570	1	10
460.740	1	5
460.911	1	-5
461.081	1	14
461.252	1	9
461.422	1	14
461.593	1	18
461.763	1	25
461.933	1	9
462.104	1	5
462.274	1	5
462.445	1	8
462.615	1	9
462.785	1	14
462.956	1	12
463.126	1	19
463.297	1	8
463.467	1	19
463.638	1	14
463.808	1	13
463.978	1	7
464.149	1	11
464.319	1	10
464.490	1	3
464.660	1	0
464.830	1	16
465.001	1	9
465.171	1	14
465.342	1	8
465.512	1	15
465.682	1	2
465.853	1	9
466.023	1	14
466.194	1	17
466.364	1	15
466.534	1	5
466.705	1	16
466.875	1	2
467.045	1	-2
467.216	1	5
467.386	1	12
467.557	1	14
467.727	1	8
467.897	1	8
468.068	1	0
468.238	1	7
468.409	1	16
468.579	1	8
468.749	1	17
468.920	1	6
469.090	1	5
469.260	1	15
469.431	1	-1
469.601	1	14
469.772	1	19
469.942	1	14
470.112	1	4
470.283	1	11
470.453	1	12
470.623	1	3
470.794	1	15
470.964	1	5
471.135	1	10
471.305	1	13
471.475	1	17
471.646	1	12
471.816	1	4
471.986	1	5
472.157	1	20
472.327	1	18
472.497	1	2
472.668	1	17
472.838	1	9
473.009	1	4
473.179	1	7
473.349	1	8
473.520	1	24
473.690	1	9
473.860	1	11
474.031	1	-2
474.201	1	9
474.371	1	8
474.542	1	17
474.712	1	-1
474.882	1	9
475.053	1	12
475.223	1	17
475.394	1	12
475.564	1	13
475.734	1	-4
475.905	1	9
476.075	1	11
476.245	1	9
476.416	1	5
476.586	1	4
476.756	1	15
476.927	1	8
477.097	1	2
477.267	1	0
477.438	1	18
477.608	1	15
477.778	1	9
477.949	1	-4
478.119	1	12
478.289	1	6
478.460	1	-3
478.630	1	10
478.800	1	8
478.971	1	14
479.141	1	17
479.311	1	13
479.482	1	5
479.652	1	11
479.822	1	2
479.993	1	7
480.163	1	7
480.333	1	13
480.504	1	9
480.674	1	11
480.844	1	5
481.015	1	11
481.185	1	16
481.355	1	10
481.525	1	10
481.696	1	14
481.866	1	24
482.036	1	14
482.207	1	16
482.377	1	1
482.547	1	5
482.718	1	8
482.888	1	11
483.058	1	12
483.229	1	6
483.399	1	8
483.569	1	7
483.740	1	6
483.910	1	4
484.080	1	2
484.250	1	5
484.421	1	5
484.591	1	13
484.761	1	6
484.932	1	1
485.102	1	11
485.272	1	9
485.443	1	9
485.613	1	-4
485.783	1	2
485.953	1	-2
486.124	1	9
486.294	1	3
486.464	1	14
486.635	1	10
486.805	1	10
486.975	1	6
487.146	1	12
487.316	1	5
487.486	1	7
487.656	1	9
487.827	1	6
487.997	1	-2
488.167	1	6
488.338	1	8
488.508	1	13
488.678	1	16
488.848	1	12
489.019	1	0
489.189	1	19
489.359	1	0
489.529	1	8
489.700	1	5
489.870	1	17
490.040	1	4
490.211	1	11
490.381	1	4
490.551	1	9
490.721	1	15
490.892	1	-16
491.062	1	0
491.232	1	5
491.402	1	8
491.573	1	16
491.743	1	14
491.913	1	12
492.084	1	8
492.254	1	7
492.424	1	7
492.594	1	3
492.765	1	13
492.935	1	9
493.105	1	3
493.275	1	-1
493.446	1	0
493.616	1	0
493.786	1	10
493.956	1	12
494.127	1	4
494.297	1	-5
494.467	1	3
494.637	1	2
494.808	1	7
494.978	1	5
495.148	1	6
495.318	1	8
495.489	1	7
495.659	1	1
495.829	1	0
495.999	1	16
496.170	1	4
496.340	1	4
496.510	1	12
496.680	1	9
496.851	1	7
497.021	1	7
497.191	1	19
497.361	1	-9
497.532	1	12
497.702	1	8
497.872	1	12
498.042	1	2
498.213	1	5
498.383	1	5
498.553	1	7
498.723	1	2
498.894	1	9
499.064	1	8
499.234	1	3
499.404	1	9
499.574	1	9
499.745	1	6
499.915	1	2
500.085	1	1
500.255	1	-4
500.426	1	7
500.596	1	-1
500.766	1	1
500.936	1	1
501.106	1	1
501.277	1	-4
501.447	1	5
501.617	1	11
501.787	1	2
501.958	1	4
502.128	1	3
502.298	1	8
502.468	1	-4
502.638	1	8
502.809	1	-10
502.979	1	-3
503.149	1	4
503.319	1	21
503.489	1	-6
503.660	1	-1
503.830	1	7
504.000	1	6
504.170	1	2
504.340	1	-11
504.511	1	4
504.681	1	8
504.851	1	-8
505.021	1	-7
505.192	1	2
505.362	1	5
505.532	1	-5
505.702	1	17
505.872	1	-2
506.043	1	15
506.213	1	9
506.383	1	-3
506.553	1	9
506.723	1	4
506.893	1	12
507.064	1	5
507.234	1	-10
507.404	1	4
507.574	1	-6
507.744	1	7
507.915	1	5
508.085	1	4
508.255	1	-4
508.425	1	-3
508.595	1	2
508.766	1	-5
508.936	1	13
509.106	1	-3
509.276	1	1
509.446	1	-9
509.616	1	1
509.787	1	-2
509.957	1	5
510.127	1	-2
510.297	1	-2
510.467	1	-2
510.638	1	8
510.808	1	16
510.978	1	2
511.148	1	2
511.318	1	8
511.488	1	3
511.659	1	3
511.829	1	1
511.999	1	10
512.169	1	-1
512.339	1	3
512.509	1	0
512.680	1	-2
512.850	1	2
513.020	1	8
513.190	1	0
513.360	1	8
513.530	1	2
513.700	1	7
513.871	1	-1
514.041	1	-4
514.211	1	-1
514.381	1	6
514.551	1	11
514.721	1	4
514.892	1	0
515.062	1	4
515.232	1	4
515.402	1	1
515.572	1	9
515.742	1	6
515.912	1	1
516.083	1	5
516.253	1	2
516.423	1	4
516.593	1	10
516.763	1	-2
516.933	1	5
517.104	1	9
517.274	1	-3
517.444	1	-5
517.614	1	-1
517.784	1	9
517.954	1	-4
518.124	1	-2
518.294	1	11
518.465	1	1
518.635	1	8
518.805	1	10
518.975	1	0
519.145	1	1
519.315	1	8
519.485	1	-7
519.656	1	0
519.826	1	0
519.996	1	5
520.166	1	3
520.336	1	0
520.506	1	-1
520.676	1	-3
520.846	1	5
521.017	1	2
521.187	1	16
521.357	1	-2
521.527	1	-3
521.697	1	0
521.867	1	11
522.037	1	4
522.207	1	3
522.377	1	-1
522.548	1	-14
522.718	1	2
522.888	1	3
523.058	1	-1
523.228	1	-15
523.398	1	0
523.568	1	-2
523.738	1	6
523.909	1	5
524.079	1	2
524.249	1	-6
524.419	1	2
524.589	1	-3
524.759	1	10
524.929	1	6
525.099	1	1
525.269	1	5
525.439	1	-6
525.610	1	5
525.780	1	11
525.950	1	4
526.120	1	-6
526.290	1	-4
526.460	1	0
526.630	1	5
526.800	1	2
526.970	1	1
527.140	1	6
527.311	1	-5
527.481	1	5
527.651	1	-1
527.821	1	-7
527.991	1	-3
528.161	1	3
528.331	1	-3
528.501	1	10
528.671	1	4
528.841	1	4
529.011	1	6
529.181	1	-3
529.352	1	2
529.522	1	-2
529.692	1	4
529.862	1	-3
530.032	1	-3
530.202	1	-2
530.372	1	6
530.542	1	-2
530.712	1	5
530.882	1	-7
531.052	1	4
531.222	1	10
531.392	1	-2
531.563	1	4
531.733	1	5
531.903	1	-1
532.073	1	9
532.243	1	7
532.413	1	17
532.583	1	4
532.753	1	-6
532.923	1	2
533.093	1	-10
533.263	1	0
533.433	1	-3
533.603	1	-6
533.773	1	2
533.943	1	-7
534.113	1	7
534.284	1	2
534.454	1	3
534.624	1	-7
534.794	1	4
534.964	1	3
535.134	1	-5
535.304	1	2
535.474	1	3
535.644	1	9
535.814	1	0
535.984	1	3
536.154	1	0
536.324	1	-2
536.494	1	18
536.664	1	1
536.834	1	8
537.004	1	9
537.174	1	7
537.344	1	5
537.514	1	-3
537.685	1	9
537.855	1	1
538.025	1	6
538.195	1	-7
538.365	1	1
538.535	1	1
538.705	1	3
538.875	1	3
539.045	1	5
539.215	1	-12
539.385	1	11
539.555	1	-3
539.725	1	-5
539.895	1	8
540.065	1	-4
540.235	1	6
540.405	1	-3
540.575	1	3
540.745	1	1
540.915	1	-4
541.085	1	-5
541.255	1	0
541.425	1	5
541.595	1	5
541.765	1	13
541.935	1	-14
542.105	1	-2
542.275	1	3
542.445	1	3
542.615	1	0
542.785	1	-4
542.955	1	13
543.125	1	0
543.295	1	4
543.465	1	15
543.635	1	-9
543.805	1	5
543.975	1	1
544.145	1	2
544.315	1	-4
544.485	1	2
544.655	1	0
544.825	1	0
544.995	1	-2
545.165	1	10
545.335	1	9
545.505	1	2
545.675	1	4
545.845	1	5
546.015	1	-5
546.185	1	-5
546.355	1	-3
546.525	1	3
546.695	1	-6
546.865	1	0
547.035	1	8
547.205	1	7
547.375	1	5
547.545	1	3
547.715	1	10
547.885	1	-10
548.055	1	-6
548.225	1	7
548.395	1	-1
548.565	1	3
548.735	1	-13
548.905	1	5
549.075	1	3
549.245	1	5
549.415	1	2
549.585	1	5
549.755	1	1
549.925	1	3
550.095	1	-10
550.265	1	0
550.435	1	2
550.605	1	1
550.775	1	-5
550.945	1	1
551.115	1	10
551.285	1	-4
551.455	1	5
551.625	1	-6
551.795	1	5
551.965	1	-7
552.135	1	-7
552.305	1	7
552.475	1	5
552.645	1	-4
552.815	1	-6
552.985	1	0
553.155	1	-5
553.325	1	-4
553.495	1	8
553.665	1	5
553.835	1	3
554.004	1	-1
554.174	1	-2
554.344	1	1
554.514	1	1
554.684	1	-2
554.854	1	-5
555.024	1	7
555.194	1	6
555.364	1	-1
555.534	1	-9
555.704	1	-3
555.874	1	-3
556.044	1	2
556.214	1	-3
556.384	1	16
556.554	1	1
556.724	1	0
556.894	1	-5
557.064	1	-11
557.234	1	3
557.404	1	2
557.573	1	1
557.743	1	2
557.913	1	-11
558.083	1	0
558.253	1	-2
558.423	1	9
558.593	1	1
558.763	1	-2
558.933	1	-4
559.103	1	-3
559.273	1	-3
559.443	1	3
559.613	1	0
559.783	1	2
559.953	1	-3
560.122	1	11
560.292	1	-1
560.462	1	-5
560.632	1	-6
560.802	1	2
560.972	1	-7
561.142	1	2
561.312	1	-4
561.482	1	9
561.652	1	-2
561.822	1	-1
561.992	1	4
562.162	1	-10
562.331	1	-10
562.501	1	-2
562.671	1	-2
562.841	1	-10
563.011	1	-2
563.181	1	-16
563.351	1	1
563.521	1	-3
563.691	1	-3
563.861	1	-2
564.031	1	2
564.201	1	-2
564.370	1	6
564.540	1	-2
564.710	1	-3
564.880	1	3
565.050	1	11
565.220	1	9
565.390	1	-2
565.560	1	7
565.730	1	9
565.900	1	3
566.069	1	3
566.239	1	6
566.409	1	0
566.579	1	0
566.749	1	2
566.919	1	-14
567.089	1	-16
567.259	1	5
567.429	1	-5
567.599	1	15
567.768	1	3
567.938	1	7
568.108	1	3
568.278	1	1
568.448	1	2
568.618	1	1
568.788	1	-1
568.958	1	-6
569.128	1	-8
569.297	1	-6
569.467	1	2
569.637	1	8
569.807	1	-2
569.977	1	-2
570.147	1	13
570.317	1	6
570.487	1	-2
570.656	1	-7
570.826	1	-2
570.996	1	4
571.166	1	-2
571.336	1	-1
571.506	1	8
571.676	1	4
571.846	1	6
572.015	1	1
572.185	1	4
572.355	1	4
572.525	1	-7
572.695	1	3
572.865	1	-2
573.035	1	9
573.205	1	-8
573.374	1	-1
573.544	1	-3
573.714	1	6
573.884	1	-7
574.054	1	1
574.224	1	1
574.394	1	0
574.563	1	-3
574.733	1	5
574.903	1	-2
575.073	1	4
575.243	1	-3
575.413	1	0
575.583	1	-3
575.752	1	-9
575.922	1	9
576.092	1	-7
576.262	1	6
576.432	1	0
576.602	1	-2
576.772	1	-2
576.941	1	-2
577.111	1	7
577.281	1	2
577.451	1	9
577.621	1	8
577.791	1	1
577.960	1	-13
578.130	1	-7
578.300	1	2
578.470	1	-1
578.640	1	-6
578.810	1	-6
578.979	1	1
579.149	1	5
579.319	1	-7
579.489	1	12
579.659	1	-8
579.829	1	-4
579.998	1	-4
580.168	1	2
580.338	1	1
580.508	1	-9
580.678	1	-2
580.848	1	3
581.017	1	-2
581.187	1	-5
581.357	1	-2
581.527	1	3
581.697	1	5
581.867	1	-6
582.036	1	-9
582.206	1	3
582.376	1	6
582.546	1	-1
582.716	1	3
582.885	1	-3
583.055	1	-8
583.225	1	-5
583.395	1	-2
583.565	1	4
583.735	1	-1
583.904	1	-6
584.074	1	5
584.244	1	4
584.414	1	4
584.584	1	-2
584.753	1	-10
584.923	1	-3
585.093	1	-3
585.263	1	2
585.433	1	-4
585.602	1	8
585.772	1	8
585.942	1	-9
586.112	1	7
586.282	1	1
586.451	1	10
586.621	1	-9
586.791	1	-12
586.961	1	-2
587.131	1	2
587.300	1	11
587.470	1	1
587.640	1	-1
587.810	1	-16
587.980	1	-6
588.149	1	1
588.319	1	8
588.489	1	1
588.659	1	-4
588.829	1	-4
588.998	1	-4
589.168	1	-3
589.338	1	3
589.508	1	-2
589.677	1	8
589.847	1	1
590.017	1	-2
590.187	1	4
590.357	1	-3
590.526	1	-3
590.696	1	2
590.866	1	-1
591.036	1	9
591.205	1	1
591.375	1	5
591.545	1	-4
591.715	1	-9
591.885	1	5
592.054	1	14
592.224	1	-9
592.394	1	-16
592.564	1	-4
592.733	1	7
592.903	1	0
593.073	1	-6
593.243	1	9
593.412	1	-2
593.582	1	7
593.752	1	0
593.922	1	2
594.091	1	0
594.261	1	-10
594.431	1	-2
594.601	1	2
594.771	1	-6
594.940	1	-2
595.110	1	-1
595.280	1	-5
595.450	1	-6
595.619	1	-2
595.789	1	-2
595.959	1	4
596.129	1	-8
596.298	1	3
596.468	1	-9
596.638	1	-3
596.808	1	-9
596.977	1	-6
597.147	1	-2
597.317	1	11
597.487	1	4
597.656	1	3
597.826	1	11
597.996	1	-2
598.166	1	-5
598.335	1	-6
598.505	1	1
598.675	1	4
598.844	1	11
599.014	1	-8
599.184	1	3
599.354	1	8
599.523	1	-7
599.693	1	-3
599.863	1	1
600.033	1	5
600.202	1	-6
600.372	1	-10
600.542	1	10
600.712	1	7
600.881	1	6
601.051	1	3
601.221	1	3
601.390	1	-3
601.560	1	7
601.730	1	4
601.900	1	1
602.069	1	-2
602.239	1	8
602.409	1	6
602.578	1	3
602.748	1	2
602.918	1	-8
603.088	1	5
603.257	1	-4
603.427	1	4
603.597	1	2
603.767	1	4
603.936	1	3
604.106	1	2
604.276	1	1
604.445	1	-6
604.615	1	0
604.785	1	8
604.954	1	1
605.124	1	10
605.294	1	-3
605.464	1	-5
605.633	1	-3
605.803	1	0
605.973	1	-3
606.142	1	-1
606.312	1	10
606.482	1	-3
606.652	1	9
606.821	1	5
606.991	1	-4
607.161	1	0
607.330	1	-1
607.500	1	-2
607.670	1	-4
607.839	1	-5
608.009	1	-6
608.179	1	5
608.348	1	1
608.518	1	9
608.688	1	3
608.858	1	-9
609.027	1	9
609.197	1	7
609.367	1	-8
609.536	1	-3
609.706	1	6
609.876	1	0
610.045	1	3
610.215	1	4
610.385	1	9
610.554	1	9
610.724	1	-4
610.894	1	0
611.063	1	5
611.233	1	11
611.403	1	5
611.572	1	1
611.742	1	-8
611.912	1	-3
612.081	1	10
612.251	1	9
612.421	1	-5
612.590	1	2
612.760	1	-4
612.930	1	11
613.099	1	3
613.269	1	3
613.439	1	-7
613.608	1	2
613.778	1	2
613.948	1	11
614.117	1	6
614.287	1	-1
614.457	1	2
614.626	1	-1
614.796	1	-3
614.966	1	-2
615.135	1	15
615.305	1	1
615.475	1	0
615.644	1	8
615.814	1	8
615.984	1	-3
616.153	1	-2
616.323	1	0
616.493	1	3
616.662	1	2
616.832	1	-1
617.002	1	2
617.171	1	2
617.341	1	7
617.511	1	-8
617.680	1	-8
617.850	1	9
618.019	1	-4
618.189	1	12
618.359	1	2
618.528	1	5
618.698	1	7
618.868	1	0
619.037	1	-2
619.207	1	-6
619.377	1	-3
619.546	1	1
619.716	1	5
619.885	1	0
620.055	1	-5
620.225	1	3
620.394	1	7
620.564	1	7
620.734	1	7
620.903	1	-13
621.073	1	10
621.242	1	-2
621.412	1	-2
621.582	1	8
621.751	1	1
621.921	1	0
622.091	1	5
622.260	1	4
622.430	1	2
622.599	1	-8
622.769	1	-4
622.939	1	-6
623.108	1	-3
623.278	1	1
623.448	1	2
623.617	1	3
623.787	1	11
623.956	1	5
624.126	1	5
624.296	1	7
624.465	1	0
624.635	1	-2
624.804	1	1
624.974	1	-5
625.144	1	2
625.313	1	11
625.483	1	9
625.652	1	4
625.822	1	4
625.992	1	-2
626.161	1	7
626.331	1	-5
626.501	1	1
626.670	1	-5
626.840	1	-4
627.009	1	5
627.179	1	-9
627.348	1	9
627.518	1	16
627.688	1	0
627.857	1	8
628.027	1	11
628.196	1	7
628.366	1	-8
628.536	1	-1
628.705	1	-4
628.875	1	-5
629.044	1	-5
629.214	1	5
629.384	1	10
629.553	1	1
629.723	1	3
629.892	1	-1
630.062	1	-1
630.232	1	6
630.401	1	10
630.571	1	1
630.740	1	-3
630.910	1	6
631.079	1	-2
631.249	1	1
631.419	1	8
631.588	1	1
631.758	1	0
631.927	1	9
632.097	1	-6
632.266	1	11
632.436	1	2
632.606	1	8
632.775	1	4
632.945	1	-5
633.114	1	-3
633.284	1	-6
633.453	1	6
633.623	1	8
633.793	1	0
633.962	1	1
634.132	1	3
634.301	1	10
634.471	1	6
634.640	1	0
634.810	1	0
634.979	1	7
635.149	1	-3
635.319	1	3
635.488	1	4
635.658	1	-7
635.827	1	-6
635.997	1	-2
636.166	1	2
636.336	1	4
636.505	1	15
636.675	1	1
636.845	1	2
637.014	1	-4
637.184	1	8
637.353	1	-4
637.523	1	-1
637.692	1	-3
637.862	1	-4
638.031	1	-1
638.201	1	6
638.370	1	3
638.540	1	-7
638.710	1	-3
638.879	1	0
639.049	1	-1
639.218	1	-3
639.388	1	-1
639.557	1	-3
639.727	1	7
639.896	1	-7
640.066	1	-1
640.235	1	-2
640.405	1	8
640.574	1	8
640.744	1	-7
640.914	1	-6
641.083	1	7
641.253	1	-9
641.422	1	-8
641.592	1	1
641.761	1	2
641.931	1	14
642.100	1	2
642.270	1	5
642.439	1	1
642.609	1	8
642.778	1	3
642.948	1	12
643.117	1	2
643.287	1	8
643.456	1	-6
643.626	1	1
643.795	1	5
643.965	1	-3
644.134	1	-1
644.304	1	-6
644.473	1	0
644.643	1	1
644.812	1	0
644.982	1	7
645.151	1	0
645.321	1	11
645.490	1	1
645.660	1	-3
645.829	1	6
645.999	1	-6
646.168	1	15
646.338	1	-7
646.507	1	8
646.677	1	3
646.846	1	-3
647.016	1	6
647.185	1	3
647.355	1	7
647.524	1	-3
647.694	1	-2
647.863	1	-10
648.033	1	-1
648.202	1	4
648.372	1	-12
648.541	1	-1
648.711	1	-3
648.880	1	2
649.050	1	1
649.219	1	3
649.389	1	-2
649.558	1	14
649.728	1	5
649.897	1	7
650.067	1	-2
650.236	1	-13
650.406	1	0
650.575	1	5
650.745	1	6
650.914	1	6
651.084	1	2
651.253	1	0
651.423	1	-5
651.592	1	-2
651.762	1	4
651.931	1	5
652.101	1	-5
652.270	1	6
652.440	1	12
652.609	1	10
652.778	1	13
652.948	1	4
653.117	1	-2
653.287	1	-4
653.456	1	-9
653.626	1	-5
653.795	1	-3
653.965	1	3
654.134	1	-1
654.304	1	7
654.473	1	5
654.643	1	-2
654.812	1	10
654.982	1	-2
655.151	1	5
655.320	1	-4
655.490	1	0
655.659	1	3
655.829	1	13
655.998	1	3
656.168	1	-2
656.337	1	3
656.507	1	-8
656.676	1	-7
656.846	1	-3
657.015	1	14
657.184	1	2
657.354	1	5
657.523	1	4
657.693	1	6
657.862	1	-9
658.032	1	-5
658.201	1	-12
658.371	1	0
658.540	1	-4
658.709	1	9
658.879	1	10
659.048	1	10
659.218	1	2
659.387	1	8
659.557	1	2
659.726	1	-3
659.895	1	0
660.065	1	-3
660.234	1	-2
660.404	1	4
660.573	1	0
660.743	1	-3
660.912	1	7
661.081	1	2
661.251	1	1
661.420	1	4
661.590	1	-7
661.759	1	5
661.929	1	2
662.098	1	-2
662.267	1	-9
662.437	1	3
662.606	1	2
662.776	1	1
662.945	1	9
663.115	1	9
663.284	1	8
663.453	1	2
663.623	1	1
663.792	1	2
663.962	1	5
664.131	1	-6
664.300	1	0
664.470	1	-4
664.639	1	-6
664.809	1	2
664.978	1	15
665.148	1	13
665.317	1	3
665.486	1	-4
665.656	1	-3
665.825	1	3
665.995	1	-5
666.164	1	0
666.333	1	0
666.503	1	-8
666.672	1	7
666.842	1	7
667.011	1	3
667.180	1	-2
667.350	1	2
667.519	1	3
667.689	1	0
667.858	1	9
668.027	1	-4
668.197	1	-3
668.366	1	10
668.536	1	-4
668.705	1	0
668.874	1	10
669.044	1	7
669.213	1	-4
669.382	1	6
669.552	1	6
669.721	1	-4
669.891	1	-3
670.060	1	2
670.229	1	4
670.399	1	16
670.568	1	5
670.738	1	-2
670.907	1	5
671.076	1	1
671.246	1	7
671.415	1	2
671.584	1	9
671.754	1	1
671.923	1	2
672.093	1	5
672.262	1	2
672.431	1	7
672.601	1	-6
672.770	1	-5
672.939	1	-8
673.109	1	4
673.278	1	1
673.448	1	5
673.617	1	9
673.786	1	-8
