325.333	1	23
325.504	1	18
325.675	1	32
325.846	1	22
326.017	1	36
326.188	1	29
326.359	1	37
326.531	1	23
326.702	1	33
326.873	1	36
327.044	1	33
327.215	1	28
327.386	1	27
327.557	1	24
327.728	1	20
327.899	1	36
328.070	1	34
328.241	1	37
328.412	1	34
328.583	1	31
328.754	1	44
328.926	1	41
329.097	1	22
329.268	1	41
329.439	1	46
329.610	1	34
329.781	1	34
329.952	1	38
330.123	1	31
330.294	1	33
330.465	1	28
330.636	1	36
330.807	1	41
330.978	1	32
331.149	1	44
331.320	1	44
331.492	1	39
331.663	1	37
331.834	1	37
332.005	1	45
332.176	1	41
332.347	1	35
332.518	1	42
332.689	1	34
332.860	1	40
333.031	1	51
333.202	1	43
333.373	1	42
333.544	1	38
333.715	1	40
333.886	1	32
334.057	1	36
334.228	1	47
334.399	1	47
334.570	1	44
334.741	1	43
334.912	1	42
335.084	1	52
335.255	1	51
335.426	1	43
335.597	1	48
335.768	1	44
335.939	1	48
336.110	1	43
336.281	1	44
336.452	1	55
336.623	1	42
336.794	1	33
336.965	1	52
337.136	1	59
337.307	1	34
337.478	1	41
337.649	1	43
337.820	1	55
337.991	1	38
338.162	1	46
338.333	1	49
338.504	1	69
338.675	1	58
338.846	1	47
339.017	1	53
339.188	1	59
339.359	1	62
339.530	1	47
339.701	1	57
339.872	1	65
340.043	1	50
340.214	1	73
340.385	1	43
340.556	1	51
340.727	1	47
340.898	1	59
341.069	1	56
341.240	1	50
341.411	1	65
341.582	1	63
341.753	1	60
341.924	1	61
342.095	1	50
342.266	1	74
342.437	1	64
342.608	1	57
342.779	1	60
342.950	1	60
343.121	1	67
343.292	1	65
343.463	1	78
343.634	1	65
343.805	1	64
343.976	1	72
344.147	1	68
344.318	1	62
344.489	1	66
344.660	1	69
344.831	1	72
345.002	1	60
345.173	1	75
345.344	1	59
345.515	1	72
345.686	1	58
345.857	1	82
346.028	1	65
346.199	1	72
346.370	1	68
346.541	1	57
346.712	1	72
346.883	1	65
347.054	1	80
347.225	1	61
347.396	1	58
347.567	1	63
347.738	1	80
347.909	1	83
348.080	1	75
348.251	1	62
348.422	1	81
348.593	1	72
348.764	1	74
348.935	1	71
349.106	1	75
349.277	1	72
349.448	1	70
349.619	1	63
349.790	1	91
349.961	1	85
350.132	1	96
350.303	1	89
350.474	1	83
350.645	1	76
350.816	1	82
350.987	1	90
351.157	1	96
351.328	1	84
351.499	1	94
351.670	1	95
351.841	1	89
352.012	1	87
352.183	1	90
352.354	1	71
352.525	1	87
352.696	1	85
352.867	1	96
353.038	1	93
353.209	1	89
353.380	1	85
353.551	1	96
353.722	1	87
353.893	1	91
354.064	1	92
354.235	1	79
354.406	1	78
354.576	1	91
354.747	1	78
354.918	1	94
355.089	1	92
355.260	1	90
355.431	1	80
355.602	1	92
355.773	1	92
355.944	1	83
356.115	1	105
356.286	1	95
356.457	1	92
356.628	1	96
356.799	1	104
356.970	1	109
357.141	1	96
357.311	1	110
357.482	1	85
357.653	1	94
357.824	1	109
357.995	1	109
358.166	1	99
358.337	1	103
358.508	1	113
358.679	1	86
358.850	1	103
359.021	1	108
359.192	1	102
359.363	1	109
359.533	1	98
359.704	1	104
359.875	1	109
360.046	1	106
360.217	1	103
360.388	1	115
360.559	1	112
360.730	1	99
360.901	1	107
361.072	1	105
361.243	1	112
361.414	1	113
361.584	1	98
361.755	1	106
361.926	1	118
362.097	1	86
362.268	1	114
362.439	1	102
362.610	1	114
362.781	1	92
362.952	1	103
363.123	1	103
363.293	1	111
363.464	1	104
363.635	1	115
363.806	1	111
363.977	1	113
364.148	1	98
364.319	1	109
364.490	1	115
364.661	1	119
364.832	1	112
365.002	1	107
365.173	1	106
365.344	1	115
365.515	1	106
365.686	1	119
365.857	1	101
366.028	1	114
366.199	1	121
366.370	1	107
366.540	1	123
366.711	1	124
366.882	1	117
367.053	1	114
367.224	1	116
367.395	1	105
367.566	1	123
367.737	1	115
367.908	1	117
368.078	1	112
368.249	1	125
368.420	1	116
368.591	1	117
368.762	1	124
368.933	1	112
369.104	1	115
369.274	1	125
369.445	1	102
369.616	1	121
369.787	1	107
369.958	1	116
370.129	1	112
370.300	1	109
370.471	1	118
370.641	1	116
370.812	1	109
370.983	1	96
371.154	1	113
371.325	1	113
371.496	1	112
371.667	1	128
371.837	1	112
372.008	1	115
372.179	1	118
372.350	1	127
372.521	1	111
372.692	1	122
372.863	1	120
373.033	1	118
373.204	1	106
373.375	1	118
373.546	1	114
373.717	1	116
373.888	1	128
374.059	1	116
374.229	1	122
374.400	1	115
374.571	1	108
374.742	1	122
374.913	1	108
375.084	1	123
375.254	1	120
375.425	1	130
375.596	1	118
375.767	1	138
375.938	1	129
376.109	1	121
376.279	1	123
376.450	1	123
376.621	1	131
376.792	1	129
376.963	1	128
377.134	1	131
377.304	1	131
377.475	1	115
377.646	1	117
377.817	1	127
377.988	1	131
378.159	1	134
378.329	1	129
378.500	1	140
378.671	1	128
378.842	1	136
379.013	1	138
379.184	1	133
379.354	1	145
379.525	1	147
379.696	1	127
379.867	1	127
380.038	1	121
380.209	1	139
380.379	1	136
380.550	1	121
380.721	1	131
380.892	1	126
381.063	1	130
381.233	1	130
381.404	1	121
381.575	1	125
381.746	1	146
381.917	1	124
382.087	1	142
382.258	1	130
382.429	1	122
382.600	1	129
382.771	1	139
382.941	1	147
383.112	1	132
383.283	1	134
383.454	1	136
383.625	1	132
383.795	1	143
383.966	1	153
384.137	1	136
384.308	1	151
384.479	1	127
384.649	1	136
384.820	1	162
384.991	1	156
385.162	1	161
385.333	1	166
385.503	1	150
385.674	1	170
385.845	1	149
386.016	1	155
386.187	1	149
386.357	1	150
386.528	1	146
386.699	1	151
386.870	1	146
387.041	1	150
387.211	1	151
387.382	1	167
387.553	1	157
387.724	1	173
387.894	1	158
388.065	1	173
388.236	1	161
388.407	1	162
388.578	1	174
388.748	1	171
388.919	1	168
389.090	1	178
389.261	1	162
389.431	1	148
389.602	1	167
389.773	1	176
389.944	1	166
390.114	1	149
390.285	1	166
390.456	1	162
390.627	1	148
390.798	1	152
390.968	1	154
391.139	1	166
391.310	1	150
391.481	1	168
391.651	1	168
391.822	1	159
391.993	1	142
392.164	1	142
392.334	1	143
392.505	1	166
392.676	1	152
392.847	1	147
393.017	1	150
393.188	1	166
393.359	1	168
393.530	1	163
393.700	1	161
393.871	1	168
394.042	1	162
394.213	1	170
394.383	1	160
394.554	1	151
394.725	1	152
394.896	1	175
395.066	1	164
395.237	1	170
395.408	1	177
395.579	1	181
395.749	1	182
395.920	1	179
396.091	1	186
396.262	1	169
396.432	1	173
396.603	1	168
396.774	1	169
396.945	1	172
397.115	1	182
397.286	1	182
397.457	1	191
397.627	1	182
397.798	1	181
397.969	1	180
398.140	1	181
398.310	1	173
398.481	1	178
398.652	1	178
398.823	1	168
398.993	1	163
399.164	1	188
399.335	1	166
399.505	1	164
399.676	1	177
399.847	1	163
400.018	1	174
400.188	1	163
400.359	1	160
400.530	1	167
400.700	1	181
400.871	1	179
401.042	1	177
401.213	1	179
401.383	1	167
401.554	1	163
401.725	1	168
401.895	1	156
402.066	1	177
402.237	1	171
402.408	1	173
402.578	1	180
402.749	1	165
402.920	1	182
403.090	1	183
403.261	1	172
403.432	1	173
403.603	1	159
403.773	1	181
403.944	1	171
404.115	1	178
404.285	1	178
404.456	1	193
404.627	1	185
404.797	1	174
404.968	1	174
405.139	1	174
405.310	1	179
405.480	1	181
405.651	1	166
405.822	1	174
405.992	1	181
406.163	1	181
406.334	1	179
406.504	1	181
406.675	1	182
406.846	1	185
407.016	1	184
407.187	1	190
407.358	1	182
407.528	1	180
407.699	1	201
407.870	1	196
408.041	1	185
408.211	1	195
408.382	1	193
408.553	1	205
408.723	1	198
408.894	1	192
409.065	1	186
409.235	1	202
409.406	1	183
409.577	1	187
409.747	1	183
409.918	1	197
410.089	1	201
410.259	1	191
410.430	1	186
410.601	1	181
410.771	1	194
410.942	1	186
411.113	1	184
411.283	1	195
411.454	1	186
411.625	1	187
411.795	1	172
411.966	1	183
412.137	1	187
412.307	1	197
412.478	1	181
412.649	1	187
412.819	1	195
412.990	1	183
413.161	1	180
413.331	1	178
413.502	1	173
413.672	1	182
413.843	1	177
414.014	1	196
414.184	1	193
414.355	1	173
414.526	1	170
414.696	1	175
414.867	1	167
415.038	1	181
415.208	1	178
415.379	1	189
415.550	1	175
415.720	1	162
415.891	1	181
416.062	1	184
416.232	1	180
416.403	1	188
416.573	1	178
416.744	1	188
416.915	1	188
417.085	1	177
417.256	1	180
417.427	1	171
417.597	1	175
417.768	1	183
417.939	1	179
418.109	1	168
418.280	1	176
418.450	1	187
418.621	1	186
418.792	1	182
418.962	1	183
419.133	1	176
419.304	1	183
419.474	1	177
419.645	1	173
419.815	1	184
419.986	1	180
420.157	1	179
420.327	1	177
420.498	1	177
420.669	1	185
420.839	1	189
421.010	1	170
421.180	1	169
421.351	1	189
421.522	1	190
421.692	1	181
421.863	1	166
422.033	1	164
422.204	1	189
422.375	1	182
422.545	1	170
422.716	1	173
422.886	1	166
423.057	1	166
423.228	1	171
423.398	1	176
423.569	1	167
423.740	1	172
423.910	1	180
424.081	1	160
424.251	1	174
424.422	1	173
424.593	1	163
424.763	1	170
424.934	1	184
425.104	1	184
425.275	1	159
425.445	1	167
425.616	1	159
425.787	1	167
425.957	1	155
426.128	1	158
426.298	1	155
426.469	1	152
426.640	1	165
426.810	1	155
426.981	1	160
427.151	1	162
427.322	1	165
427.493	1	162
427.663	1	149
427.834	1	153
428.004	1	156
428.175	1	154
428.345	1	153
428.516	1	154
428.687	1	176
428.857	1	153
429.028	1	159
429.198	1	155
429.369	1	153
429.540	1	173
429.710	1	173
429.881	1	157
430.051	1	161
430.222	1	162
430.392	1	184
430.563	1	160
430.734	1	159
430.904	1	173
431.075	1	167
431.245	1	173
431.416	1	165
431.586	1	150
431.757	1	161
431.927	1	176
432.098	1	182
432.269	1	159
432.439	1	161
432.610	1	169
432.780	1	172
432.951	1	156
433.121	1	161
433.292	1	149
433.462	1	147
433.633	1	169
433.804	1	173
433.974	1	151
434.145	1	153
434.315	1	155
434.486	1	141
434.656	1	168
434.827	1	151
434.997	1	170
435.168	1	144
435.339	1	150
435.509	1	152
435.680	1	159
435.850	1	147
436.021	1	151
436.191	1	141
436.362	1	170
436.532	1	161
436.703	1	148
436.873	1	153
437.044	1	155
437.214	1	143
437.385	1	157
437.556	1	159
437.726	1	140
437.897	1	147
438.067	1	152
438.238	1	142
438.408	1	144
438.579	1	141
438.749	1	147
438.920	1	158
439.090	1	148
439.261	1	143
439.431	1	126
439.602	1	144
439.772	1	135
439.943	1	140
440.113	1	135
440.284	1	144
440.455	1	131
440.625	1	143
440.796	1	149
440.966	1	133
441.137	1	158
441.307	1	144
441.478	1	126
441.648	1	150
441.819	1	143
441.989	1	145
442.160	1	149
442.330	1	141
442.501	1	135
442.671	1	132
442.842	1	135
443.012	1	131
443.183	1	141
443.353	1	141
443.524	1	143
443.694	1	138
443.865	1	153
444.035	1	143
444.206	1	132
444.376	1	142
444.547	1	143
444.717	1	127
444.888	1	128
445.058	1	141
445.229	1	142
445.399	1	136
445.570	1	129
445.740	1	139
445.911	1	147
446.081	1	143
446.252	1	141
446.422	1	130
446.593	1	139
446.763	1	125
446.934	1	145
447.104	1	121
447.275	1	143
447.445	1	135
447.616	1	143
447.786	1	142
447.957	1	120
448.127	1	127
448.298	1	137
448.468	1	130
448.639	1	125
448.809	1	125
448.979	1	146
449.150	1	134
449.320	1	132
449.491	1	124
449.661	1	116
449.832	1	125
450.002	1	120
450.173	1	125
450.343	1	122
450.514	1	124
450.684	1	131
450.855	1	116
451.025	1	114
451.196	1	111
451.366	1	133
451.537	1	121
451.707	1	133
451.878	1	118
452.048	1	126
452.218	1	126
452.389	1	120
452.559	1	124
452.730	1	114
452.900	1	106
453.071	1	125
453.241	1	110
453.412	1	112
453.582	1	118
453.753	1	127
453.923	1	122
454.093	1	118
454.264	1	128
454.434	1	103
454.605	1	107
454.775	1	117
454.946	1	104
455.116	1	118
455.287	1	99
455.457	1	117
455.628	1	102
455.798	1	131
455.968	1	114
456.139	1	128
456.309	1	122
456.480	1	109
456.650	1	114
456.821	1	110
456.991	1	117
457.161	1	113
457.332	1	100
457.502	1	102
457.673	1	109
457.843	1	115
458.014	1	119
458.184	1	111
458.355	1	116
458.525	1	104
458.695	1	103
458.866	1	103
459.036	1	110
459.207	1	114
459.377	1	105
459.548	1	122
459.718	1	108
459.888	1	109
460.059	1	107
460.229	1	107
460.400	1	113
460.570	1	107
460.740	1	116
460.911	1	99
461.081	1	114
461.252	1	106
461.422	1	103
461.593	1	112
461.763	1	127
461.933	1	102
462.104	1	100
462.274	1	105
462.445	1	111
462.615	1	105
462.785	1	103
462.956	1	95
463.126	1	108
463.297	1	99
463.467	1	115
463.638	1	108
463.808	1	104
463.978	1	91
464.149	1	100
464.319	1	113
464.490	1	94
464.660	1	92
464.830	1	97
465.001	1	99
465.171	1	93
465.342	1	102
465.512	1	101
465.682	1	97
465.853	1	100
466.023	1	99
466.194	1	109
466.364	1	101
466.534	1	84
466.705	1	104
466.875	1	87
467.045	1	92
467.216	1	91
467.386	1	92
467.557	1	96
467.727	1	94
467.897	1	93
468.068	1	88
468.238	1	94
468.409	1	91
468.579	1	97
468.749	1	87
468.920	1	99
469.090	1	88
469.260	1	81
469.431	1	72
469.601	1	86
469.772	1	99
469.942	1	97
470.112	1	82
470.283	1	92
470.453	1	97
470.623	1	89
470.794	1	87
470.964	1	82
471.135	1	102
471.305	1	80
471.475	1	90
471.646	1	81
471.816	1	90
471.986	1	80
472.157	1	76
472.327	1	88
472.497	1	87
472.668	1	87
472.838	1	76
473.009	1	101
473.179	1	89
473.349	1	85
473.520	1	105
473.690	1	95
473.860	1	83
474.031	1	74
474.201	1	91
474.371	1	95
474.542	1	80
474.712	1	87
474.882	1	83
475.053	1	79
475.223	1	88
475.394	1	75
475.564	1	83
475.734	1	80
475.905	1	88
476.075	1	90
476.245	1	83
476.416	1	77
476.586	1	85
476.756	1	78
476.927	1	89
477.097	1	89
477.267	1	88
477.438	1	90
477.608	1	95
477.778	1	86
477.949	1	76
478.119	1	79
478.289	1	78
478.460	1	74
478.630	1	68
478.800	1	77
478.971	1	72
479.141	1	86
479.311	1	82
479.482	1	77
479.652	1	74
479.822	1	69
479.993	1	74
480.163	1	76
480.333	1	75
480.504	1	71
480.674	1	88
480.844	1	80
481.015	1	78
481.185	1	80
481.355	1	79
481.525	1	70
481.696	1	89
481.866	1	69
482.036	1	80
482.207	1	79
482.377	1	73
482.547	1	68
482.718	1	71
482.888	1	77
483.058	1	85
483.229	1	68
483.399	1	78
483.569	1	63
483.740	1	72
483.910	1	67
484.080	1	73
484.250	1	66
484.421	1	70
484.591	1	65
484.761	1	64
484.932	1	67
485.102	1	77
485.272	1	67
485.443	1	70
485.613	1	76
485.783	1	68
485.953	1	69
486.124	1	71
486.294	1	77
486.464	1	72
486.635	1	63
486.805	1	68
486.975	1	64
487.146	1	71
487.316	1	70
487.486	1	71
487.656	1	67
487.827	1	72
487.997	1	54
488.167	1	65
488.338	1	65
488.508	1	70
488.678	1	64
488.848	1	64
489.019	1	71
489.189	1	73
489.359	1	66
489.529	1	65
489.700	1	60
489.870	1	67
490.040	1	47
490.211	1	46
490.381	1	62
490.551	1	61
490.721	1	61
490.892	1	60
491.062	1	61
491.232	1	68
491.402	1	62
491.573	1	69
491.743	1	66
491.913	1	58
492.084	1	64
492.254	1	60
492.424	1	55
492.594	1	61
492.765	1	80
492.935	1	79
493.105	1	69
493.275	1	66
493.446	1	46
493.616	1	44
493.786	1	61
493.956	1	51
494.127	1	58
494.297	1	46
494.467	1	59
494.637	1	68
494.808	1	74
494.978	1	56
495.148	1	57
495.318	1	53
495.489	1	46
495.659	1	55
495.829	1	53
495.999	1	66
496.170	1	48
496.340	1	55
496.510	1	58
496.680	1	47
496.851	1	62
497.021	1	50
497.191	1	61
497.361	1	49
497.532	1	57
497.702	1	63
497.872	1	51
498.042	1	42
498.213	1	50
498.383	1	50
498.553	1	59
498.723	1	59
498.894	1	61
499.064	1	49
499.234	1	65
499.404	1	51
499.574	1	46
499.745	1	50
499.915	1	54
500.085	1	50
500.255	1	47
500.426	1	48
500.596	1	40
500.766	1	57
500.936	1	45
501.106	1	49
501.277	1	47
501.447	1	47
501.617	1	46
501.787	1	37
501.958	1	54
502.128	1	54
502.298	1	51
502.468	1	53
502.638	1	45
502.809	1	43
502.979	1	49
503.149	1	41
503.319	1	61
503.489	1	33
503.660	1	42
503.830	1	53
504.000	1	48
504.170	1	45
504.340	1	31
504.511	1	46
504.681	1	37
504.851	1	39
505.021	1	51
505.192	1	39
505.362	1	39
505.532	1	36
505.702	1	55
505.872	1	45
506.043	1	54
506.213	1	53
506.383	1	43
506.553	1	44
506.723	1	35
506.893	1	36
507.064	1	48
507.234	1	47
507.404	1	35
507.574	1	50
507.744	1	36
507.915	1	36
508.085	1	47
508.255	1	44
508.425	1	40
508.595	1	38
508.766	1	47
508.936	1	57
509.106	1	48
509.276	1	49
509.446	1	30
509.616	1	44
509.787	1	36
509.957	1	44
510.127	1	36
510.297	1	41
510.467	1	49
510.638	1	37
510.808	1	47
510.978	1	37
511.148	1	50
511.318	1	40
511.488	1	46
511.659	1	46
511.829	1	38
511.999	1	48
512.169	1	52
512.339	1	52
512.509	1	41
512.680	1	37
512.850	1	42
513.020	1	41
513.190	1	28
513.360	1	48
513.530	1	42
513.700	1	38
513.871	1	31
514.041	1	48
514.211	1	43
514.381	1	48
514.551	1	32
514.721	1	43
514.892	1	39
515.062	1	41
515.232	1	43
515.402	1	47
515.572	1	45
515.742	1	40
515.912	1	41
516.083	1	40
516.253	1	37
516.423	1	36
516.593	1	29
516.763	1	43
516.933	1	42
517.104	1	39
517.274	1	32
517.444	1	39
517.614	1	34
517.784	1	30
517.954	1	31
518.124	1	23
518.294	1	40
518.465	1	27
518.635	1	38
518.805	1	34
518.975	1	39
519.145	1	32
519.315	1	32
519.485	1	29
519.656	1	30
519.826	1	30
519.996	1	45
520.166	1	31
520.336	1	41
520.506	1	36
520.676	1	37
520.846	1	35
521.017	1	31
521.187	1	28
521.357	1	28
521.527	1	32
521.697	1	27
521.867	1	41
522.037	1	33
522.207	1	35
522.377	1	36
522.548	1	18
522.718	1	35
522.888	1	33
523.058	1	42
523.228	1	27
523.398	1	27
523.568	1	23
523.738	1	32
523.909	1	24
524.079	1	35
524.249	1	35
524.419	1	39
524.589	1	32
524.759	1	41
524.929	1	30
525.099	1	31
525.269	1	32
525.439	1	32
525.610	1	36
525.780	1	35
525.950	1	38
526.120	1	28
526.290	1	28
526.460	1	26
526.630	1	27
526.800	1	32
526.970	1	32
527.140	1	32
527.311	1	34
527.481	1	37
527.651	1	43
527.821	1	24
527.991	1	29
528.161	1	34
528.331	1	24
528.501	1	26
528.671	1	31
528.841	1	29
529.011	1	33
529.181	1	35
529.352	1	38
529.522	1	31
529.692	1	30
529.862	1	25
530.032	1	28
530.202	1	31
530.372	1	40
530.542	1	32
530.712	1	30
530.882	1	33
531.052	1	27
531.222	1	37
531.392	1	29
531.563	1	30
531.733	1	31
531.903	1	26
532.073	1	29
532.243	1	29
532.413	1	45
532.583	1	27
532.753	1	12
532.923	1	26
533.093	1	24
533.263	1	29
533.433	1	10
533.603	1	25
533.773	1	28
533.943	1	21
534.113	1	24
534.284	1	32
534.454	1	23
534.624	1	17
534.794	1	33
534.964	1	36
535.134	1	18
535.304	1	18
535.474	1	27
535.644	1	19
535.814	1	19
535.984	1	31
536.154	1	30
536.324	1	26
536.494	1	37
536.664	1	25
536.834	1	20
537.004	1	16
537.174	1	37
537.344	1	24
537.514	1	14
537.685	1	31
537.855	1	21
538.025	1	34
538.195	1	23
538.365	1	18
538.535	1	20
538.705	1	21
538.875	1	18
539.045	1	24
539.215	1	8
539.385	1	32
539.555	1	20
539.725	1	24
539.895	1	30
540.065	1	24
540.235	1	23
540.405	1	30
540.575	1	21
540.745	1	23
540.915	1	19
541.085	1	16
541.255	1	20
541.425	1	19
541.595	1	16
541.765	1	22
541.935	1	23
542.105	1	21
542.275	1	15
542.445	1	30
542.615	1	17
542.785	1	17
542.955	1	37
543.125	1	23
543.295	1	17
543.465	1	34
543.635	1	17
543.805	1	30
543.975	1	17
544.145	1	30
544.315	1	19
544.485	1	14
544.655	1	28
544.825	1	31
544.995	1	11
545.165	1	17
545.335	1	23
545.505	1	18
545.675	1	24
545.845	1	32
546.015	1	17
546.185	1	9
546.355	1	26
546.525	1	21
546.695	1	30
546.865	1	29
547.035	1	20
547.205	1	37
547.375	1	37
547.545	1	17
547.715	1	29
547.885	1	20
548.055	1	5
548.225	1	30
548.395	1	26
548.565	1	25
548.735	1	21
548.905	1	29
549.075	1	22
549.245	1	21
549.415	1	31
549.585	1	13
549.755	1	26
549.925	1	17
550.095	1	7
550.265	1	18
550.435	1	22
550.605	1	20
550.775	1	5
550.945	1	19
551.115	1	22
551.285	1	25
551.455	1	18
551.625	1	9
551.795	1	21
551.965	1	15
552.135	1	17
552.305	1	35
552.475	1	15
552.645	1	10
552.815	1	16
552.985	1	13
553.155	1	16
553.325	1	15
553.495	1	25
553.665	1	17
553.835	1	20
554.004	1	16
554.174	1	20
554.344	1	18
554.514	1	17
554.684	1	34
554.854	1	15
555.024	1	18
555.194	1	13
555.364	1	17
555.534	1	6
555.704	1	20
555.874	1	15
556.044	1	27
556.214	1	20
556.384	1	20
556.554	1	23
556.724	1	16
556.894	1	18
557.064	1	9
557.234	1	18
557.404	1	20
557.573	1	16
557.743	1	13
557.913	1	20
558.083	1	21
558.253	1	13
558.423	1	15
558.593	1	14
558.763	1	14
558.933	1	11
559.103	1	19
559.273	1	16
559.443	1	18
559.613	1	16
559.783	1	17
559.953	1	13
560.122	1	16
560.292	1	1
560.462	1	8
560.632	1	8
560.802	1	19
560.972	1	5
561.142	1	20
561.312	1	9
561.482	1	28
561.652	1	12
561.822	1	16
561.992	1	16
562.162	1	17
562.331	1	0
562.501	1	15
562.671	1	12
562.841	1	11
563.011	1	16
563.181	1	15
563.351	1	2
563.521	1	15
563.691	1	12
563.861	1	16
564.031	1	17
564.201	1	12
564.370	1	21
564.540	1	5
564.710	1	13
564.880	1	18
565.050	1	20
565.220	1	18
565.390	1	17
565.560	1	12
565.730	1	13
565.900	1	17
566.069	1	22
566.239	1	31
566.409	1	14
566.579	1	14
566.749	1	7
566.919	1	7
567.089	1	1
567.259	1	18
567.429	1	7
567.599	1	15
567.768	1	-3
567.938	1	11
568.108	1	11
568.278	1	17
568.448	1	17
568.618	1	21
568.788	1	14
568.958	1	12
569.128	1	4
569.297	1	8
569.467	1	13
569.637	1	21
569.807	1	17
569.977	1	10
570.147	1	19
570.317	1	7
570.487	1	11
570.656	1	14
570.826	1	10
570.996	1	25
571.166	1	14
571.336	1	13
571.506	1	2
571.676	1	18
571.846	1	22
572.015	1	11
572.185	1	10
572.355	1	16
572.525	1	12
572.695	1	18
572.865	1	14
573.035	1	17
573.205	1	7
573.374	1	9
573.544	1	15
573.714	1	9
573.884	1	8
574.054	1	12
574.224	1	10
574.394	1	11
574.563	1	0
574.733	1	16
574.903	1	9
575.073	1	9
575.243	1	17
575.413	1	20
575.583	1	11
575.752	1	13
575.922	1	21
576.092	1	6
576.262	1	11
576.432	1	12
576.602	1	8
576.772	1	17
576.941	1	3
577.111	1	14
577.281	1	10
577.451	1	13
577.621	1	17
577.791	1	18
577.960	1	19
578.130	1	16
578.300	1	11
578.470	1	16
578.640	1	11
578.810	1	10
578.979	1	10
579.149	1	11
579.319	1	10
579.489	1	21
579.659	1	8
579.829	1	8
579.998	1	-2
580.168	1	11
580.338	1	19
580.508	1	7
580.678	1	9
580.848	1	9
581.017	1	15
581.187	1	9
581.357	1	22
581.527	1	15
581.697	1	11
581.867	1	10
582.036	1	0
582.206	1	27
582.376	1	11
582.546	1	14
582.716	1	22
582.885	1	12
583.055	1	12
583.225	1	8
583.395	1	16
583.565	1	21
583.735	1	11
583.904	1	11
584.074	1	11
584.244	1	20
584.414	1	18
584.584	1	12
584.753	1	11
584.923	1	-3
585.093	1	18
585.263	1	12
585.433	1	18
585.602	1	12
585.772	1	30
585.942	1	1
586.112	1	19
586.282	1	11
586.451	1	15
586.621	1	6
586.791	1	6
586.961	1	6
587.131	1	2
587.300	1	18
587.470	1	11
587.640	1	7
587.810	1	4
587.980	1	18
588.149	1	18
588.319	1	20
588.489	1	18
588.659	1	4
588.829	1	10
588.998	1	12
589.168	1	17
589.338	1	4
589.508	1	11
589.677	1	10
589.847	1	6
590.017	1	18
590.187	1	11
590.357	1	15
590.526	1	3
590.696	1	14
590.866	1	-1
591.036	1	15
591.205	1	19
591.375	1	8
591.545	1	6
591.715	1	15
591.885	1	19
592.054	1	23
592.224	1	19
592.394	1	2
592.564	1	4
592.733	1	13
592.903	1	18
593.073	1	5
593.243	1	22
593.412	1	0
593.582	1	17
593.752	1	7
593.922	1	8
594.091	1	18
594.261	1	0
594.431	1	8
594.601	1	10
594.771	1	7
594.940	1	15
595.110	1	14
595.280	1	15
595.450	1	16
595.619	1	8
595.789	1	3
595.959	1	8
596.129	1	11
596.298	1	15
596.468	1	21
596.638	1	15
596.808	1	2
596.977	1	5
597.147	1	9
597.317	1	18
597.487	1	7
597.656	1	19
597.826	1	22
597.996	1	13
598.166	1	21
598.335	1	9
598.505	1	20
598.675	1	17
598.844	1	23
599.014	1	9
599.184	1	14
599.354	1	22
599.523	1	12
599.693	1	13
599.863	1	18
600.033	1	16
600.202	1	13
600.372	1	9
600.542	1	12
600.712	1	8
600.881	1	12
601.051	1	23
601.221	1	17
601.390	1	16
601.560	1	12
601.730	1	6
601.900	1	15
602.069	1	13
602.239	1	13
602.409	1	5
602.578	1	13
602.748	1	20
602.918	1	15
603.088	1	25
603.257	1	9
603.427	1	13
603.597	1	8
603.767	1	11
603.936	1	18
604.106	1	15
604.276	1	16
604.445	1	11
604.615	1	11
604.785	1	15
604.954	1	12
605.124	1	19
605.294	1	11
605.464	1	8
605.633	1	17
605.803	1	7
605.973	1	12
606.142	1	5
606.312	1	21
606.482	1	3
606.652	1	12
606.821	1	20
606.991	1	22
607.161	1	15
607.330	1	14
607.500	1	11
607.670	1	15
607.839	1	13
608.009	1	16
608.179	1	14
608.348	1	15
608.518	1	20
608.688	1	10
608.858	1	15
609.027	1	11
609.197	1	18
609.367	1	8
609.536	1	4
609.706	1	18
609.876	1	19
610.045	1	23
610.215	1	8
610.385	1	21
610.554	1	11
610.724	1	10
610.894	1	12
611.063	1	10
611.233	1	23
611.403	1	18
611.572	1	11
611.742	1	13
611.912	1	19
612.081	1	20
612.251	1	14
612.421	1	21
612.590	1	14
612.760	1	17
612.930	1	21
613.099	1	14
613.269	1	19
613.439	1	7
613.608	1	6
613.778	1	11
613.948	1	26
614.117	1	9
614.287	1	13
614.457	1	10
614.626	1	13
614.796	1	15
614.966	1	15
615.135	1	30
615.305	1	14
615.475	1	16
615.644	1	24
615.814	1	22
615.984	1	10
616.153	1	13
616.323	1	16
616.493	1	7
616.662	1	7
616.832	1	12
617.002	1	15
617.171	1	19
617.341	1	30
617.511	1	7
617.680	1	13
617.850	1	14
618.019	1	10
618.189	1	25
618.359	1	19
618.528	1	18
618.698	1	29
618.868	1	12
619.037	1	12
619.207	1	14
619.377	1	20
619.546	1	24
619.716	1	17
619.885	1	21
620.055	1	10
620.225	1	19
620.394	1	12
620.564	1	29
620.734	1	18
620.903	1	9
621.073	1	24
621.242	1	20
621.412	1	16
621.582	1	14
621.751	1	18
621.921	1	17
622.091	1	10
622.260	1	21
622.430	1	13
622.599	1	16
622.769	1	6
622.939	1	15
623.108	1	20
623.278	1	13
623.448	1	14
623.617	1	24
623.787	1	20
623.956	1	17
624.126	1	16
624.296	1	25
624.465	1	18
624.635	1	16
624.804	1	6
624.974	1	14
625.144	1	23
625.313	1	36
625.483	1	24
625.652	1	19
625.822	1	20
625.992	1	17
626.161	1	18
626.331	1	20
626.501	1	16
626.670	1	18
626.840	1	25
627.009	1	21
627.179	1	16
627.348	1	20
627.518	1	24
627.688	1	11
627.857	1	28
628.027	1	27
628.196	1	24
628.366	1	15
628.536	1	11
628.705	1	6
628.875	1	16
629.044	1	1
629.214	1	24
629.384	1	22
629.553	1	17
629.723	1	19
629.892	1	13
630.062	1	12
630.232	1	19
630.401	1	22
630.571	1	19
630.740	1	14
630.910	1	25
631.079	1	17
631.249	1	18
631.419	1	12
631.588	1	15
631.758	1	4
631.927	1	28
632.097	1	14
632.266	1	26
632.436	1	18
632.606	1	22
632.775	1	24
632.945	1	14
633.114	1	10
633.284	1	16
633.453	1	30
633.623	1	26
633.793	1	24
633.962	1	24
634.132	1	19
634.301	1	29
634.471	1	16
634.640	1	23
634.810	1	33
634.979	1	19
635.149	1	22
635.319	1	20
635.488	1	24
635.658	1	18
635.827	1	25
635.997	1	15
636.166	1	23
636.336	1	16
636.505	1	28
636.675	1	17
636.845	1	16
637.014	1	22
637.184	1	25
637.353	1	26
637.523	1	26
637.692	1	22
637.862	1	16
638.031	1	22
638.201	1	28
638.370	1	24
638.540	1	16
638.710	1	21
638.879	1	8
639.049	1	8
639.218	1	33
639.388	1	27
639.557	1	32
639.727	1	23
639.896	1	23
640.066	1	21
640.235	1	14
640.405	1	28
640.574	1	31
640.744	1	10
640.914	1	19
641.083	1	34
641.253	1	22
641.422	1	17
641.592	1	34
641.761	1	20
641.931	1	28
642.100	1	20
642.270	1	16
642.439	1	16
642.609	1	29
642.778	1	15
642.948	1	28
643.117	1	28
643.287	1	20
643.456	1	17
643.626	1	26
643.795	1	25
643.965	1	24
644.134	1	31
644.304	1	22
644.473	1	33
644.643	1	25
644.812	1	19
644.982	1	24
645.151	1	22
645.321	1	32
645.490	1	23
645.660	1	24
645.829	1	28
645.999	1	24
646.168	1	45
646.338	1	30
646.507	1	28
646.677	1	29
646.846	1	27
647.016	1	29
647.185	1	35
647.355	1	42
647.524	1	22
647.694	1	19
647.863	1	16
648.033	1	35
648.202	1	40
648.372	1	18
648.541	1	27
648.711	1	37
648.880	1	39
649.050	1	32
649.219	1	26
649.389	1	21
649.558	1	26
649.728	1	32
649.897	1	29
650.067	1	32
650.236	1	26
650.406	1	30
650.575	1	29
650.745	1	29
650.914	1	40
651.084	1	40
651.253	1	28
651.423	1	20
651.592	1	25
651.762	1	29
651.931	1	34
652.101	1	28
652.270	1	30
652.440	1	26
652.609	1	35
652.778	1	37
652.948	1	21
653.117	1	18
653.287	1	24
653.456	1	18
653.626	1	19
653.795	1	31
653.965	1	20
654.134	1	19
654.304	1	34
654.473	1	27
654.643	1	37
654.812	1	37
654.982	1	28
655.151	1	36
655.320	1	26
655.490	1	22
655.659	1	23
655.829	1	33
655.998	1	32
656.168	1	26
656.337	1	33
656.507	1	22
656.676	1	33
656.846	1	27
657.015	1	39
657.184	1	26
657.354	1	30
657.523	1	25
657.693	1	41
657.862	1	25
658.032	1	27
658.201	1	21
658.371	1	28
658.540	1	18
658.709	1	35
658.879	1	35
659.048	1	41
659.218	1	18
659.387	1	31
659.557	1	26
659.726	1	28
659.895	1	34
660.065	1	28
660.234	1	33
660.404	1	31
660.573	1	31
660.743	1	31
660.912	1	30
661.081	1	24
661.251	1	28
661.420	1	33
661.590	1	37
661.759	1	42
661.929	1	29
662.098	1	45
662.267	1	19
662.437	1	32
662.606	1	31
662.776	1	33
662.945	1	38
663.115	1	47
663.284	1	36
663.453	1	29
663.623	1	34
663.792	1	31
663.962	1	35
664.131	1	24
664.300	1	37
664.470	1	25
664.639	1	36
664.809	1	27
664.978	1	45
665.148	1	38
665.317	1	39
665.486	1	35
665.656	1	27
665.825	1	37
665.995	1	22
666.164	1	30
666.333	1	33
666.503	1	24
666.672	1	33
666.842	1	45
667.011	1	39
667.180	1	33
667.350	1	32
667.519	1	37
667.689	1	33
667.858	1	31
668.027	1	33
668.197	1	21
668.366	1	45
668.536	1	30
668.705	1	24
668.874	1	42
669.044	1	28
669.213	1	38
669.382	1	29
669.552	1	33
669.721	1	26
669.891	1	26
670.060	1	36
670.229	1	44
670.399	1	45
670.568	1	42
670.738	1	34
670.907	1	33
671.076	1	24
671.246	1	43
671.415	1	35
671.584	1	23
671.754	1	22
671.923	1	22
672.093	1	35
672.262	1	25
672.431	1	47
672.601	1	38
672.770	1	28
672.939	1	33
673.109	1	38
673.278	1	42
673.448	1	35
673.617	1	34
673.786	1	34
