325.333	1	25
325.504	1	16
325.675	1	35
325.846	1	23
326.017	1	18
326.188	1	18
326.359	1	13
326.531	1	19
326.702	1	26
326.873	1	32
327.044	1	35
327.215	1	22
327.386	1	20
327.557	1	22
327.728	1	24
327.899	1	28
328.070	1	28
328.241	1	31
328.412	1	30
328.583	1	27
328.754	1	32
328.926	1	35
329.097	1	22
329.268	1	35
329.439	1	42
329.610	1	36
329.781	1	23
329.952	1	38
330.123	1	26
330.294	1	28
330.465	1	26
330.636	1	39
330.807	1	28
330.978	1	31
331.149	1	27
331.320	1	41
331.492	1	23
331.663	1	27
331.834	1	33
332.005	1	41
332.176	1	45
332.347	1	31
332.518	1	41
332.689	1	29
332.860	1	30
333.031	1	29
333.202	1	41
333.373	1	40
333.544	1	36
333.715	1	32
333.886	1	35
334.057	1	32
334.228	1	40
334.399	1	52
334.570	1	36
334.741	1	33
334.912	1	35
335.084	1	57
335.255	1	44
335.426	1	47
335.597	1	40
335.768	1	43
335.939	1	46
336.110	1	44
336.281	1	39
336.452	1	49
336.623	1	47
336.794	1	38
336.965	1	37
337.136	1	54
337.307	1	37
337.478	1	48
337.649	1	45
337.820	1	35
337.991	1	34
338.162	1	41
338.333	1	47
338.504	1	48
338.675	1	42
338.846	1	33
339.017	1	40
339.188	1	46
339.359	1	51
339.530	1	42
339.701	1	43
339.872	1	56
340.043	1	46
340.214	1	53
340.385	1	39
340.556	1	56
340.727	1	55
340.898	1	51
341.069	1	35
341.240	1	47
341.411	1	42
341.582	1	54
341.753	1	52
341.924	1	69
342.095	1	50
342.266	1	61
342.437	1	50
342.608	1	58
342.779	1	44
342.950	1	52
343.121	1	57
343.292	1	58
343.463	1	79
343.634	1	65
343.805	1	62
343.976	1	61
344.147	1	66
344.318	1	51
344.489	1	59
344.660	1	67
344.831	1	75
345.002	1	65
345.173	1	61
345.344	1	55
345.515	1	59
345.686	1	55
345.857	1	67
346.028	1	60
346.199	1	67
346.370	1	58
346.541	1	60
346.712	1	58
346.883	1	56
347.054	1	64
347.225	1	56
347.396	1	64
347.567	1	54
347.738	1	77
347.909	1	72
348.080	1	64
348.251	1	68
348.422	1	61
348.593	1	65
348.764	1	67
348.935	1	76
349.106	1	55
349.277	1	72
349.448	1	64
349.619	1	74
349.790	1	73
349.961	1	71
350.132	1	82
350.303	1	74
350.474	1	76
350.645	1	73
350.816	1	71
350.987	1	82
351.157	1	77
351.328	1	74
351.499	1	80
351.670	1	75
351.841	1	76
352.012	1	92
352.183	1	84
352.354	1	83
352.525	1	75
352.696	1	74
352.867	1	73
353.038	1	81
353.209	1	92
353.380	1	75
353.551	1	88
353.722	1	78
353.893	1	81
354.064	1	72
354.235	1	67
354.406	1	57
354.576	1	81
354.747	1	82
354.918	1	85
355.089	1	84
355.260	1	75
355.431	1	69
355.602	1	83
355.773	1	81
355.944	1	82
356.115	1	79
356.286	1	88
356.457	1	79
356.628	1	78
356.799	1	91
356.970	1	92
357.141	1	90
357.311	1	98
357.482	1	84
357.653	1	83
357.824	1	90
357.995	1	98
358.166	1	86
358.337	1	84
358.508	1	102
358.679	1	97
358.850	1	102
359.021	1	91
359.192	1	98
359.363	1	99
359.533	1	98
359.704	1	82
359.875	1	87
360.046	1	97
360.217	1	98
360.388	1	106
360.559	1	95
360.730	1	95
360.901	1	92
361.072	1	99
361.243	1	85
361.414	1	100
361.584	1	86
361.755	1	92
361.926	1	95
362.097	1	74
362.268	1	96
362.439	1	106
362.610	1	92
362.781	1	79
362.952	1	97
363.123	1	87
363.293	1	97
363.464	1	86
363.635	1	90
363.806	1	84
363.977	1	91
364.148	1	95
364.319	1	86
364.490	1	115
364.661	1	104
364.832	1	103
365.002	1	103
365.173	1	101
365.344	1	88
365.515	1	99
365.686	1	108
365.857	1	109
366.028	1	108
366.199	1	120
366.370	1	110
366.540	1	90
366.711	1	101
366.882	1	110
367.053	1	111
367.224	1	98
367.395	1	112
367.566	1	105
367.737	1	92
367.908	1	106
368.078	1	99
368.249	1	115
368.420	1	107
368.591	1	113
368.762	1	115
368.933	1	91
369.104	1	104
369.274	1	118
369.445	1	111
369.616	1	102
369.787	1	103
369.958	1	108
370.129	1	99
370.300	1	105
370.471	1	107
370.641	1	94
370.812	1	108
370.983	1	85
371.154	1	107
371.325	1	99
371.496	1	109
371.667	1	113
371.837	1	98
372.008	1	90
372.179	1	107
372.350	1	103
372.521	1	102
372.692	1	93
372.863	1	99
373.033	1	110
373.204	1	104
373.375	1	95
373.546	1	100
373.717	1	110
373.888	1	96
374.059	1	104
374.229	1	110
374.400	1	99
374.571	1	92
374.742	1	119
374.913	1	85
375.084	1	108
375.254	1	85
375.425	1	116
375.596	1	99
375.767	1	107
375.938	1	105
376.109	1	102
376.279	1	109
376.450	1	111
376.621	1	129
376.792	1	117
376.963	1	118
377.134	1	115
377.304	1	129
377.475	1	108
377.646	1	102
377.817	1	121
377.988	1	127
378.159	1	107
378.329	1	116
378.500	1	119
378.671	1	116
378.842	1	117
379.013	1	112
379.184	1	117
379.354	1	116
379.525	1	126
379.696	1	126
379.867	1	125
380.038	1	111
380.209	1	118
380.379	1	129
380.550	1	114
380.721	1	110
380.892	1	119
381.063	1	119
381.233	1	122
381.404	1	105
381.575	1	102
381.746	1	136
381.917	1	115
382.087	1	126
382.258	1	141
382.429	1	121
382.600	1	122
382.771	1	125
382.941	1	138
383.112	1	126
383.283	1	130
383.454	1	126
383.625	1	129
383.795	1	125
383.966	1	135
384.137	1	131
384.308	1	124
384.479	1	122
384.649	1	128
384.820	1	130
384.991	1	145
385.162	1	136
385.333	1	129
385.503	1	131
385.674	1	129
385.845	1	148
386.016	1	140
386.187	1	133
386.357	1	146
386.528	1	133
386.699	1	128
386.870	1	137
387.041	1	135
387.211	1	133
387.382	1	150
387.553	1	153
387.724	1	136
387.894	1	131
388.065	1	145
388.236	1	138
388.407	1	138
388.578	1	133
388.748	1	132
388.919	1	129
389.090	1	149
389.261	1	148
389.431	1	129
389.602	1	136
389.773	1	138
389.944	1	137
390.114	1	142
390.285	1	149
390.456	1	137
390.627	1	140
390.798	1	130
390.968	1	155
391.139	1	139
391.310	1	137
391.481	1	145
391.651	1	155
391.822	1	140
391.993	1	130
392.164	1	129
392.334	1	136
392.505	1	135
392.676	1	130
392.847	1	139
393.017	1	145
393.188	1	153
393.359	1	148
393.530	1	155
393.700	1	145
393.871	1	149
394.042	1	146
394.213	1	158
394.383	1	158
394.554	1	152
394.725	1	131
394.896	1	158
395.066	1	145
395.237	1	151
395.408	1	144
395.579	1	146
395.749	1	153
395.920	1	168
396.091	1	157
396.262	1	158
396.432	1	146
396.603	1	162
396.774	1	141
396.945	1	172
397.115	1	170
397.286	1	150
397.457	1	146
397.627	1	155
397.798	1	158
397.969	1	159
398.140	1	156
398.310	1	170
398.481	1	146
398.652	1	155
398.823	1	151
398.993	1	145
399.164	1	152
399.335	1	151
399.505	1	148
399.676	1	158
399.847	1	140
400.018	1	147
400.188	1	161
400.359	1	157
400.530	1	160
400.700	1	152
400.871	1	164
401.042	1	154
401.213	1	163
401.383	1	154
401.554	1	164
401.725	1	151
401.895	1	160
402.066	1	147
402.237	1	155
402.408	1	148
402.578	1	165
402.749	1	141
402.920	1	153
403.090	1	147
403.261	1	153
403.432	1	158
403.603	1	170
403.773	1	155
403.944	1	163
404.115	1	166
404.285	1	148
404.456	1	167
404.627	1	164
404.797	1	166
404.968	1	159
405.139	1	163
405.310	1	155
405.480	1	163
405.651	1	164
405.822	1	147
405.992	1	168
406.163	1	173
406.334	1	151
406.504	1	171
406.675	1	154
406.846	1	174
407.016	1	175
407.187	1	166
407.358	1	161
407.528	1	172
407.699	1	172
407.870	1	169
408.041	1	171
408.211	1	168
408.382	1	171
408.553	1	190
408.723	1	166
408.894	1	176
409.065	1	186
409.235	1	178
409.406	1	175
409.577	1	170
409.747	1	167
409.918	1	182
410.089	1	186
410.259	1	161
410.430	1	165
410.601	1	164
410.771	1	160
410.942	1	173
411.113	1	159
411.283	1	165
411.454	1	180
411.625	1	170
411.795	1	171
411.966	1	168
412.137	1	167
412.307	1	166
412.478	1	151
412.649	1	174
412.819	1	168
412.990	1	152
413.161	1	162
413.331	1	170
413.502	1	150
413.672	1	150
413.843	1	150
414.014	1	166
414.184	1	170
414.355	1	155
414.526	1	163
414.696	1	157
414.867	1	156
415.038	1	161
415.208	1	153
415.379	1	149
415.550	1	141
415.720	1	159
415.891	1	183
416.062	1	159
416.232	1	176
416.403	1	151
416.573	1	152
416.744	1	164
416.915	1	158
417.085	1	166
417.256	1	161
417.427	1	169
417.597	1	165
417.768	1	160
417.939	1	157
418.109	1	174
418.280	1	168
418.450	1	169
418.621	1	160
418.792	1	164
418.962	1	162
419.133	1	170
419.304	1	176
419.474	1	176
419.645	1	159
419.815	1	169
419.986	1	166
420.157	1	168
420.327	1	152
420.498	1	164
420.669	1	175
420.839	1	173
421.010	1	156
421.180	1	155
421.351	1	155
421.522	1	158
421.692	1	172
421.863	1	159
422.033	1	155
422.204	1	156
422.375	1	166
422.545	1	170
422.716	1	155
422.886	1	141
423.057	1	156
423.228	1	147
423.398	1	154
423.569	1	152
423.740	1	148
423.910	1	153
424.081	1	153
424.251	1	154
424.422	1	149
424.593	1	169
424.763	1	155
424.934	1	137
425.104	1	173
425.275	1	157
425.445	1	144
425.616	1	138
425.787	1	159
425.957	1	141
426.128	1	153
426.298	1	143
426.469	1	132
426.640	1	151
426.810	1	131
426.981	1	143
427.151	1	135
427.322	1	151
427.493	1	137
427.663	1	149
427.834	1	157
428.004	1	148
428.175	1	130
428.345	1	136
428.516	1	146
428.687	1	157
428.857	1	144
429.028	1	133
429.198	1	140
429.369	1	164
429.540	1	130
429.710	1	145
429.881	1	135
430.051	1	150
430.222	1	145
430.392	1	153
430.563	1	143
430.734	1	135
430.904	1	141
431.075	1	149
431.245	1	132
431.416	1	149
431.586	1	136
431.757	1	155
431.927	1	141
432.098	1	152
432.269	1	138
432.439	1	139
432.610	1	153
432.780	1	153
432.951	1	137
433.121	1	142
433.292	1	149
433.462	1	135
433.633	1	138
433.804	1	140
433.974	1	134
434.145	1	143
434.315	1	139
434.486	1	138
434.656	1	143
434.827	1	143
434.997	1	153
435.168	1	137
435.339	1	154
435.509	1	143
435.680	1	142
435.850	1	140
436.021	1	136
436.191	1	132
436.362	1	142
436.532	1	140
436.703	1	141
436.873	1	133
437.044	1	133
437.214	1	132
437.385	1	134
437.556	1	133
437.726	1	137
437.897	1	123
438.067	1	147
438.238	1	144
438.408	1	135
438.579	1	123
438.749	1	124
438.920	1	142
439.090	1	113
439.261	1	138
439.431	1	124
439.602	1	145
439.772	1	123
439.943	1	131
440.113	1	118
440.284	1	139
440.455	1	123
440.625	1	142
440.796	1	124
440.966	1	133
441.137	1	129
441.307	1	118
441.478	1	112
441.648	1	117
441.819	1	122
441.989	1	140
442.160	1	131
442.330	1	127
442.501	1	116
442.671	1	133
442.842	1	125
443.012	1	116
443.183	1	124
443.353	1	128
443.524	1	121
443.694	1	124
443.865	1	125
444.035	1	128
444.206	1	105
444.376	1	113
444.547	1	127
444.717	1	124
444.888	1	116
445.058	1	129
445.229	1	111
445.399	1	121
445.570	1	141
445.740	1	116
445.911	1	119
446.081	1	124
446.252	1	112
446.422	1	121
446.593	1	121
446.763	1	129
446.934	1	120
447.104	1	118
447.275	1	121
447.445	1	122
447.616	1	115
447.786	1	139
447.957	1	123
448.127	1	118
448.298	1	128
448.468	1	120
448.639	1	117
448.809	1	108
448.979	1	117
449.150	1	115
449.320	1	108
449.491	1	110
449.661	1	112
449.832	1	109
450.002	1	121
450.173	1	116
450.343	1	123
450.514	1	124
450.684	1	115
450.855	1	120
451.025	1	113
451.196	1	109
451.366	1	121
451.537	1	125
451.707	1	121
451.878	1	109
452.048	1	97
452.218	1	108
452.389	1	118
452.559	1	110
452.730	1	112
452.900	1	108
453.071	1	107
453.241	1	109
453.412	1	110
453.582	1	108
453.753	1	110
453.923	1	103
454.093	1	100
454.264	1	112
454.434	1	123
454.605	1	98
454.775	1	105
454.946	1	104
455.116	1	107
455.287	1	101
455.457	1	108
455.628	1	103
455.798	1	97
455.968	1	105
456.139	1	125
456.309	1	97
456.480	1	101
456.650	1	95
456.821	1	93
456.991	1	105
457.161	1	104
457.332	1	100
457.502	1	95
457.673	1	101
457.843	1	104
458.014	1	105
458.184	1	107
458.355	1	104
458.525	1	95
458.695	1	101
458.866	1	87
459.036	1	98
459.207	1	113
459.377	1	109
459.548	1	110
459.718	1	90
459.888	1	100
460.059	1	95
460.229	1	93
460.400	1	97
460.570	1	101
460.740	1	94
460.911	1	89
461.081	1	100
461.252	1	99
461.422	1	91
461.593	1	89
461.763	1	98
461.933	1	107
462.104	1	96
462.274	1	93
462.445	1	88
462.615	1	106
462.785	1	97
462.956	1	80
463.126	1	105
463.297	1	113
463.467	1	102
463.638	1	94
463.808	1	101
463.978	1	90
464.149	1	94
464.319	1	84
464.490	1	92
464.660	1	99
464.830	1	93
465.001	1	86
465.171	1	78
465.342	1	89
465.512	1	96
465.682	1	74
465.853	1	82
466.023	1	103
466.194	1	113
466.364	1	100
466.534	1	84
466.705	1	99
466.875	1	75
467.045	1	83
467.216	1	90
467.386	1	77
467.557	1	99
467.727	1	77
467.897	1	87
468.068	1	78
468.238	1	81
468.409	1	84
468.579	1	86
468.749	1	71
468.920	1	59
469.090	1	88
469.260	1	82
469.431	1	69
469.601	1	82
469.772	1	90
469.942	1	77
470.112	1	69
470.283	1	84
470.453	1	89
470.623	1	79
470.794	1	68
470.964	1	56
471.135	1	88
471.305	1	75
471.475	1	83
471.646	1	81
471.816	1	70
471.986	1	84
472.157	1	80
472.327	1	78
472.497	1	75
472.668	1	75
472.838	1	80
473.009	1	86
473.179	1	80
473.349	1	79
473.520	1	78
473.690	1	79
473.860	1	71
474.031	1	66
474.201	1	74
474.371	1	75
474.542	1	72
474.712	1	71
474.882	1	70
475.053	1	77
475.223	1	82
475.394	1	71
475.564	1	75
475.734	1	66
475.905	1	78
476.075	1	85
476.245	1	79
476.416	1	73
476.586	1	75
476.756	1	78
476.927	1	78
477.097	1	72
477.267	1	68
477.438	1	84
477.608	1	85
477.778	1	73
477.949	1	79
478.119	1	71
478.289	1	66
478.460	1	67
478.630	1	66
478.800	1	73
478.971	1	80
479.141	1	74
479.311	1	72
479.482	1	67
479.652	1	72
479.822	1	69
479.993	1	71
480.163	1	67
480.333	1	77
480.504	1	65
480.674	1	83
480.844	1	72
481.015	1	82
481.185	1	77
481.355	1	73
481.525	1	69
481.696	1	77
481.866	1	72
482.036	1	73
482.207	1	73
482.377	1	63
482.547	1	72
482.718	1	74
482.888	1	77
483.058	1	67
483.229	1	70
483.399	1	75
483.569	1	55
483.740	1	59
483.910	1	59
484.080	1	64
484.250	1	62
484.421	1	45
484.591	1	66
484.761	1	62
484.932	1	65
485.102	1	61
485.272	1	64
485.443	1	73
485.613	1	64
485.783	1	66
485.953	1	55
486.124	1	59
486.294	1	63
486.464	1	64
486.635	1	63
486.805	1	59
486.975	1	58
487.146	1	72
487.316	1	72
487.486	1	57
487.656	1	56
487.827	1	63
487.997	1	58
488.167	1	69
488.338	1	56
488.508	1	67
488.678	1	69
488.848	1	55
489.019	1	49
489.189	1	73
489.359	1	61
489.529	1	67
489.700	1	61
489.870	1	69
490.040	1	58
490.211	1	51
490.381	1	56
490.551	1	59
490.721	1	68
490.892	1	40
491.062	1	59
491.232	1	58
491.402	1	59
491.573	1	60
491.743	1	60
491.913	1	59
492.084	1	48
492.254	1	53
492.424	1	62
492.594	1	47
492.765	1	58
492.935	1	59
493.105	1	53
493.275	1	47
493.446	1	41
493.616	1	46
493.786	1	64
493.956	1	57
494.127	1	47
494.297	1	39
494.467	1	46
494.637	1	58
494.808	1	61
494.978	1	55
495.148	1	62
495.318	1	55
495.489	1	49
495.659	1	45
495.829	1	52
495.999	1	58
496.170	1	60
496.340	1	46
496.510	1	51
496.680	1	58
496.851	1	62
497.021	1	52
497.191	1	44
497.361	1	33
497.532	1	52
497.702	1	55
497.872	1	41
498.042	1	51
498.213	1	51
498.383	1	48
498.553	1	44
498.723	1	44
498.894	1	50
499.064	1	52
499.234	1	48
499.404	1	46
499.574	1	56
499.745	1	45
499.915	1	60
500.085	1	49
500.255	1	37
500.426	1	46
500.596	1	35
500.766	1	34
500.936	1	42
501.106	1	42
501.277	1	38
501.447	1	46
501.617	1	41
501.787	1	36
501.958	1	51
502.128	1	45
502.298	1	46
502.468	1	41
502.638	1	57
502.809	1	41
502.979	1	48
503.149	1	41
503.319	1	47
503.489	1	20
503.660	1	45
503.830	1	50
504.000	1	47
504.170	1	37
504.340	1	33
504.511	1	39
504.681	1	38
504.851	1	36
505.021	1	40
505.192	1	37
505.362	1	52
505.532	1	42
505.702	1	61
505.872	1	50
506.043	1	40
506.213	1	52
506.383	1	42
506.553	1	41
506.723	1	34
506.893	1	49
507.064	1	50
507.234	1	36
507.404	1	39
507.574	1	39
507.744	1	40
507.915	1	36
508.085	1	45
508.255	1	46
508.425	1	32
508.595	1	25
508.766	1	30
508.936	1	42
509.106	1	41
509.276	1	39
509.446	1	31
509.616	1	36
509.787	1	44
509.957	1	34
510.127	1	30
510.297	1	25
510.467	1	38
510.638	1	31
510.808	1	59
510.978	1	33
511.148	1	39
511.318	1	43
511.488	1	40
511.659	1	34
511.829	1	31
511.999	1	42
512.169	1	46
512.339	1	42
512.509	1	29
512.680	1	35
512.850	1	43
513.020	1	41
513.190	1	34
513.360	1	47
513.530	1	31
513.700	1	40
513.871	1	26
514.041	1	42
514.211	1	41
514.381	1	39
514.551	1	37
514.721	1	33
514.892	1	36
515.062	1	37
515.232	1	35
515.402	1	38
515.572	1	35
515.742	1	33
515.912	1	37
516.083	1	33
516.253	1	41
516.423	1	35
516.593	1	34
516.763	1	42
516.933	1	31
517.104	1	44
517.274	1	33
517.444	1	40
517.614	1	33
517.784	1	27
517.954	1	35
518.124	1	40
518.294	1	38
518.465	1	29
518.635	1	34
518.805	1	33
518.975	1	42
519.145	1	34
519.315	1	27
519.485	1	20
519.656	1	24
519.826	1	29
519.996	1	39
520.166	1	34
520.336	1	26
520.506	1	28
520.676	1	27
520.846	1	34
521.017	1	27
521.187	1	33
521.357	1	31
521.527	1	21
521.697	1	24
521.867	1	36
522.037	1	34
522.207	1	33
522.377	1	41
522.548	1	16
522.718	1	37
522.888	1	34
523.058	1	35
523.228	1	21
523.398	1	23
523.568	1	26
523.738	1	23
523.909	1	28
524.079	1	37
524.249	1	28
524.419	1	34
524.589	1	26
524.759	1	41
524.929	1	23
525.099	1	30
525.269	1	33
525.439	1	22
525.610	1	39
525.780	1	29
525.950	1	32
526.120	1	14
526.290	1	28
526.460	1	22
526.630	1	29
526.800	1	20
526.970	1	28
527.140	1	21
527.311	1	30
527.481	1	22
527.651	1	26
527.821	1	32
527.991	1	15
528.161	1	34
528.331	1	27
528.501	1	21
528.671	1	34
528.841	1	32
529.011	1	30
529.181	1	31
529.352	1	22
529.522	1	25
529.692	1	24
529.862	1	13
530.032	1	26
530.202	1	14
530.372	1	33
530.542	1	18
530.712	1	17
530.882	1	30
531.052	1	29
531.222	1	25
531.392	1	22
531.563	1	34
531.733	1	19
531.903	1	36
532.073	1	28
532.243	1	32
532.413	1	39
532.583	1	27
532.753	1	22
532.923	1	24
533.093	1	22
533.263	1	25
533.433	1	12
533.603	1	21
533.773	1	32
533.943	1	19
534.113	1	28
534.284	1	25
534.454	1	25
534.624	1	30
534.794	1	34
534.964	1	29
535.134	1	16
535.304	1	22
535.474	1	37
535.644	1	18
535.814	1	22
535.984	1	25
536.154	1	20
536.324	1	12
536.494	1	32
536.664	1	18
536.834	1	21
537.004	1	28
537.174	1	27
537.344	1	30
537.514	1	26
537.685	1	28
537.855	1	30
538.025	1	30
538.195	1	23
538.365	1	26
538.535	1	19
538.705	1	26
538.875	1	29
539.045	1	15
539.215	1	17
539.385	1	21
539.555	1	16
539.725	1	25
539.895	1	20
540.065	1	20
540.235	1	40
540.405	1	10
540.575	1	16
540.745	1	27
540.915	1	20
541.085	1	8
541.255	1	23
541.425	1	16
541.595	1	28
541.765	1	24
541.935	1	18
542.105	1	21
542.275	1	11
542.445	1	17
542.615	1	21
542.785	1	14
542.955	1	32
543.125	1	18
543.295	1	27
543.465	1	22
543.635	1	10
543.805	1	25
543.975	1	13
544.145	1	13
544.315	1	9
544.485	1	15
544.655	1	23
544.825	1	30
544.995	1	15
545.165	1	20
545.335	1	21
545.505	1	10
545.675	1	25
545.845	1	24
546.015	1	14
546.185	1	18
546.355	1	19
546.525	1	16
546.695	1	14
546.865	1	18
547.035	1	23
547.205	1	28
547.375	1	17
547.545	1	20
547.715	1	11
547.885	1	18
548.055	1	22
548.225	1	14
548.395	1	13
548.565	1	28
548.735	1	13
548.905	1	12
549.075	1	29
549.245	1	24
549.415	1	20
549.585	1	21
549.755	1	16
549.925	1	22
550.095	1	11
550.265	1	16
550.435	1	11
550.605	1	7
550.775	1	11
550.945	1	19
551.115	1	27
551.285	1	19
551.455	1	22
551.625	1	3
551.795	1	15
551.965	1	2
552.135	1	14
552.305	1	26
552.475	1	21
552.645	1	15
552.815	1	19
552.985	1	18
553.155	1	18
553.325	1	12
553.495	1	18
553.665	1	17
553.835	1	14
554.004	1	20
554.174	1	2
554.344	1	25
554.514	1	11
554.684	1	26
554.854	1	3
555.024	1	26
555.194	1	10
555.364	1	23
555.534	1	4
555.704	1	20
555.874	1	18
556.044	1	11
556.214	1	23
556.384	1	14
556.554	1	20
556.724	1	6
556.894	1	10
557.064	1	10
557.234	1	9
557.404	1	10
557.573	1	18
557.743	1	7
557.913	1	15
558.083	1	18
558.253	1	16
558.423	1	18
558.593	1	21
558.763	1	5
558.933	1	19
559.103	1	13
559.273	1	17
559.443	1	12
559.613	1	27
559.783	1	15
559.953	1	15
560.122	1	21
560.292	1	2
560.462	1	18
560.632	1	1
560.802	1	25
560.972	1	10
561.142	1	11
561.312	1	7
561.482	1	22
561.652	1	19
561.822	1	10
561.992	1	21
562.162	1	11
562.331	1	12
562.501	1	9
562.671	1	9
562.841	1	0
563.011	1	22
563.181	1	5
563.351	1	7
563.521	1	12
563.691	1	21
563.861	1	19
564.031	1	2
564.201	1	14
564.370	1	12
564.540	1	14
564.710	1	7
564.880	1	16
565.050	1	16
565.220	1	14
565.390	1	8
565.560	1	18
565.730	1	27
565.900	1	8
566.069	1	26
566.239	1	15
566.409	1	26
566.579	1	26
566.749	1	8
566.919	1	6
567.089	1	-5
567.259	1	13
567.429	1	4
567.599	1	23
567.768	1	5
567.938	1	15
568.108	1	10
568.278	1	17
568.448	1	15
568.618	1	13
568.788	1	15
568.958	1	7
569.128	1	2
569.297	1	7
569.467	1	20
569.637	1	19
569.807	1	19
569.977	1	13
570.147	1	25
570.317	1	11
570.487	1	7
570.656	1	15
570.826	1	2
570.996	1	20
571.166	1	11
571.336	1	10
571.506	1	6
571.676	1	15
571.846	1	13
572.015	1	13
572.185	1	9
572.355	1	11
572.525	1	8
572.695	1	5
572.865	1	10
573.035	1	11
573.205	1	3
573.374	1	9
573.544	1	11
573.714	1	7
573.884	1	3
574.054	1	11
574.224	1	12
574.394	1	7
574.563	1	8
574.733	1	16
574.903	1	19
575.073	1	15
575.243	1	4
575.413	1	-3
575.583	1	9
575.752	1	2
575.922	1	23
576.092	1	2
576.262	1	7
576.432	1	12
576.602	1	12
576.772	1	7
576.941	1	9
577.111	1	16
577.281	1	9
577.451	1	14
577.621	1	11
577.791	1	6
577.960	1	6
578.130	1	5
578.300	1	8
578.470	1	16
578.640	1	2
578.810	1	16
578.979	1	10
579.149	1	12
579.319	1	10
579.489	1	20
579.659	1	12
579.829	1	11
579.998	1	2
580.168	1	6
580.338	1	5
580.508	1	9
580.678	1	14
580.848	1	11
581.017	1	14
581.187	1	15
581.357	1	15
581.527	1	15
581.697	1	14
581.867	1	9
582.036	1	6
582.206	1	7
582.376	1	16
582.546	1	7
582.716	1	12
582.885	1	6
583.055	1	12
583.225	1	6
583.395	1	18
583.565	1	15
583.735	1	8
583.904	1	11
584.074	1	5
584.244	1	8
584.414	1	9
584.584	1	12
584.753	1	23
584.923	1	8
585.093	1	15
585.263	1	9
585.433	1	4
585.602	1	9
585.772	1	30
585.942	1	4
586.112	1	13
586.282	1	9
586.451	1	15
586.621	1	1
586.791	1	9
586.961	1	2
587.131	1	12
587.300	1	22
587.470	1	7
587.640	1	8
587.810	1	-3
587.980	1	13
588.149	1	15
588.319	1	20
588.489	1	14
588.659	1	3
588.829	1	15
588.998	1	8
589.168	1	14
589.338	1	4
589.508	1	16
589.677	1	13
589.847	1	11
590.017	1	6
590.187	1	9
590.357	1	4
590.526	1	7
590.696	1	16
590.866	1	2
591.036	1	15
591.205	1	20
591.375	1	5
591.545	1	5
591.715	1	8
591.885	1	15
592.054	1	19
592.224	1	8
592.394	1	6
592.564	1	22
592.733	1	14
592.903	1	9
593.073	1	3
593.243	1	15
593.412	1	6
593.582	1	0
593.752	1	11
593.922	1	13
594.091	1	8
594.261	1	6
594.431	1	12
594.601	1	13
594.771	1	1
594.940	1	7
595.110	1	13
595.280	1	12
595.450	1	4
595.619	1	15
595.789	1	5
595.959	1	6
596.129	1	10
596.298	1	20
596.468	1	6
596.638	1	9
596.808	1	6
596.977	1	10
597.147	1	2
597.317	1	9
597.487	1	13
597.656	1	9
597.826	1	24
597.996	1	8
598.166	1	13
598.335	1	-1
598.505	1	13
598.675	1	19
598.844	1	22
599.014	1	-1
599.184	1	10
599.354	1	13
599.523	1	19
599.693	1	6
599.863	1	15
600.033	1	14
600.202	1	11
600.372	1	7
600.542	1	21
600.712	1	9
600.881	1	8
601.051	1	20
601.221	1	14
601.390	1	7
601.560	1	16
601.730	1	13
601.900	1	5
602.069	1	11
602.239	1	17
602.409	1	4
602.578	1	18
602.748	1	22
602.918	1	6
603.088	1	14
603.257	1	6
603.427	1	18
603.597	1	8
603.767	1	9
603.936	1	17
604.106	1	8
604.276	1	16
604.445	1	-1
604.615	1	13
604.785	1	10
604.954	1	10
605.124	1	20
605.294	1	12
605.464	1	6
605.633	1	11
605.803	1	12
605.973	1	15
606.142	1	16
606.312	1	15
606.482	1	7
606.652	1	14
606.821	1	11
606.991	1	10
607.161	1	14
607.330	1	6
607.500	1	8
607.670	1	17
607.839	1	5
608.009	1	8
608.179	1	15
608.348	1	25
608.518	1	19
608.688	1	26
608.858	1	9
609.027	1	28
609.197	1	21
609.367	1	6
609.536	1	5
609.706	1	24
609.876	1	14
610.045	1	20
610.215	1	15
610.385	1	17
610.554	1	6
610.724	1	17
610.894	1	20
611.063	1	10
611.233	1	22
611.403	1	15
611.572	1	19
611.742	1	7
611.912	1	14
612.081	1	17
612.251	1	15
612.421	1	16
612.590	1	18
612.760	1	15
612.930	1	13
613.099	1	11
613.269	1	21
613.439	1	8
613.608	1	20
613.778	1	1
613.948	1	23
614.117	1	11
614.287	1	9
614.457	1	13
614.626	1	13
614.796	1	20
614.966	1	11
615.135	1	30
615.305	1	18
615.475	1	13
615.644	1	19
615.814	1	24
615.984	1	1
616.153	1	9
616.323	1	15
616.493	1	19
616.662	1	13
616.832	1	21
617.002	1	14
617.171	1	12
617.341	1	17
617.511	1	14
617.680	1	14
617.850	1	11
618.019	1	14
618.189	1	33
618.359	1	17
618.528	1	12
618.698	1	20
618.868	1	17
619.037	1	15
619.207	1	9
619.377	1	14
619.546	1	21
619.716	1	13
619.885	1	10
620.055	1	6
620.225	1	20
620.394	1	23
620.564	1	20
620.734	1	13
620.903	1	9
621.073	1	22
621.242	1	11
621.412	1	12
621.582	1	19
621.751	1	7
621.921	1	17
622.091	1	16
622.260	1	20
622.430	1	17
622.599	1	17
622.769	1	8
622.939	1	3
623.108	1	13
623.278	1	19
623.448	1	21
623.617	1	17
623.787	1	13
623.956	1	12
624.126	1	17
624.296	1	22
624.465	1	19
624.635	1	10
624.804	1	5
624.974	1	6
625.144	1	17
625.313	1	27
625.483	1	25
625.652	1	19
625.822	1	25
625.992	1	12
626.161	1	10
626.331	1	12
626.501	1	15
626.670	1	10
626.840	1	21
627.009	1	12
627.179	1	17
627.348	1	15
627.518	1	26
627.688	1	13
627.857	1	25
628.027	1	32
628.196	1	22
628.366	1	12
628.536	1	28
628.705	1	5
628.875	1	3
629.044	1	16
629.214	1	21
629.384	1	29
629.553	1	10
629.723	1	25
629.892	1	20
630.062	1	25
630.232	1	22
630.401	1	20
630.571	1	3
630.740	1	22
630.910	1	24
631.079	1	24
631.249	1	16
631.419	1	16
631.588	1	26
631.758	1	12
631.927	1	18
632.097	1	18
632.266	1	21
632.436	1	19
632.606	1	17
632.775	1	19
632.945	1	17
633.114	1	17
633.284	1	15
633.453	1	16
633.623	1	26
633.793	1	11
633.962	1	26
634.132	1	22
634.301	1	27
634.471	1	30
634.640	1	16
634.810	1	18
634.979	1	21
635.149	1	15
635.319	1	13
635.488	1	19
635.658	1	18
635.827	1	11
635.997	1	18
636.166	1	22
636.336	1	14
636.505	1	31
636.675	1	18
636.845	1	18
637.014	1	9
637.184	1	18
637.353	1	22
637.523	1	8
637.692	1	24
637.862	1	15
638.031	1	23
638.201	1	21
638.370	1	25
638.540	1	22
638.710	1	11
638.879	1	20
639.049	1	26
639.218	1	19
639.388	1	29
639.557	1	25
639.727	1	14
639.896	1	21
640.066	1	21
640.235	1	21
640.405	1	28
640.574	1	26
640.744	1	12
640.914	1	29
641.083	1	14
641.253	1	25
641.422	1	22
641.592	1	26
641.761	1	16
641.931	1	34
642.100	1	12
642.270	1	19
642.439	1	28
642.609	1	28
642.778	1	29
642.948	1	33
643.117	1	23
643.287	1	28
643.456	1	17
643.626	1	11
643.795	1	19
643.965	1	16
644.134	1	31
644.304	1	17
644.473	1	24
644.643	1	25
644.812	1	12
644.982	1	31
645.151	1	16
645.321	1	25
645.490	1	36
645.660	1	13
645.829	1	22
645.999	1	29
646.168	1	35
646.338	1	8
646.507	1	15
646.677	1	27
646.846	1	17
647.016	1	32
647.185	1	22
647.355	1	24
647.524	1	23
647.694	1	7
647.863	1	16
648.033	1	32
648.202	1	23
648.372	1	7
648.541	1	26
648.711	1	32
648.880	1	27
649.050	1	33
649.219	1	31
649.389	1	24
649.558	1	31
649.728	1	21
649.897	1	34
650.067	1	34
650.236	1	18
650.406	1	29
650.575	1	31
650.745	1	27
650.914	1	36
651.084	1	30
651.253	1	34
651.423	1	15
651.592	1	31
651.762	1	28
651.931	1	32
652.101	1	30
652.270	1	37
652.440	1	30
652.609	1	32
652.778	1	27
652.948	1	28
653.117	1	27
653.287	1	10
653.456	1	24
653.626	1	33
653.795	1	22
653.965	1	20
654.134	1	22
654.304	1	24
654.473	1	21
654.643	1	24
654.812	1	23
654.982	1	23
655.151	1	41
655.320	1	19
655.490	1	21
655.659	1	26
655.829	1	26
655.998	1	34
656.168	1	10
656.337	1	15
656.507	1	12
656.676	1	16
656.846	1	23
657.015	1	31
657.184	1	15
657.354	1	19
657.523	1	28
657.693	1	30
657.862	1	14
658.032	1	24
658.201	1	18
658.371	1	24
658.540	1	24
658.709	1	30
658.879	1	36
659.048	1	32
659.218	1	28
659.387	1	29
659.557	1	36
659.726	1	23
659.895	1	28
660.065	1	29
660.234	1	33
660.404	1	30
660.573	1	30
660.743	1	22
660.912	1	23
661.081	1	28
661.251	1	17
661.420	1	29
661.590	1	31
661.759	1	31
661.929	1	33
662.098	1	36
662.267	1	15
662.437	1	34
662.606	1	24
662.776	1	31
662.945	1	29
663.115	1	34
663.284	1	41
663.453	1	19
663.623	1	29
663.792	1	37
663.962	1	27
664.131	1	24
664.300	1	20
664.470	1	29
664.639	1	37
664.809	1	35
664.978	1	35
665.148	1	30
665.317	1	30
665.486	1	35
665.656	1	38
665.825	1	39
665.995	1	25
666.164	1	26
666.333	1	30
666.503	1	25
666.672	1	31
666.842	1	39
667.011	1	36
667.180	1	26
667.350	1	25
667.519	1	35
667.689	1	32
667.858	1	48
668.027	1	28
668.197	1	18
668.366	1	29
668.536	1	18
668.705	1	26
668.874	1	44
669.044	1	41
669.213	1	35
669.382	1	37
669.552	1	27
669.721	1	23
669.891	1	21
670.060	1	28
670.229	1	30
670.399	1	27
670.568	1	34
670.738	1	34
670.907	1	21
671.076	1	29
671.246	1	43
671.415	1	37
671.584	1	30
671.754	1	16
671.923	1	24
672.093	1	33
672.262	1	25
672.431	1	29
672.601	1	42
672.770	1	27
672.939	1	31
673.109	1	22
673.278	1	27
673.448	1	33
673.617	1	29
673.786	1	29
