325.333	1	3
325.504	1	-1
325.675	1	11
325.846	1	8
326.017	1	9
326.188	1	12
326.359	1	10
326.531	1	-2
326.702	1	18
326.873	1	13
327.044	1	12
327.215	1	1
327.386	1	5
327.557	1	-3
327.728	1	6
327.899	1	-3
328.070	1	21
328.241	1	-1
328.412	1	5
328.583	1	0
328.754	1	10
328.926	1	10
329.097	1	-1
329.268	1	8
329.439	1	18
329.610	1	9
329.781	1	6
329.952	1	20
330.123	1	7
330.294	1	9
330.465	1	-6
330.636	1	10
330.807	1	10
330.978	1	-2
331.149	1	8
331.320	1	8
331.492	1	-1
331.663	1	3
331.834	1	9
332.005	1	9
332.176	1	5
332.347	1	3
332.518	1	15
332.689	1	3
332.860	1	7
333.031	1	11
333.202	1	7
333.373	1	18
333.544	1	9
333.715	1	5
333.886	1	-3
334.057	1	1
334.228	1	12
334.399	1	12
334.570	1	6
334.741	1	9
334.912	1	5
335.084	1	15
335.255	1	7
335.426	1	10
335.597	1	3
335.768	1	7
335.939	1	6
336.110	1	5
336.281	1	8
336.452	1	20
336.623	1	-2
336.794	1	10
336.965	1	2
337.136	1	13
337.307	1	0
337.478	1	4
337.649	1	-4
337.820	1	-4
337.991	1	13
338.162	1	11
338.333	1	5
338.504	1	11
338.675	1	3
338.846	1	4
339.017	1	12
339.188	1	14
339.359	1	6
339.530	1	0
339.701	1	15
339.872	1	16
340.043	1	8
340.214	1	15
340.385	1	-4
340.556	1	12
340.727	1	17
340.898	1	12
341.069	1	-1
341.240	1	7
341.411	1	13
341.582	1	2
341.753	1	14
341.924	1	13
342.095	1	8
342.266	1	24
342.437	1	1
342.608	1	19
342.779	1	-2
342.950	1	9
343.121	1	18
343.292	1	21
343.463	1	18
343.634	1	19
343.805	1	7
343.976	1	15
344.147	1	18
344.318	1	-2
344.489	1	12
344.660	1	11
344.831	1	16
345.002	1	11
345.173	1	12
345.344	1	12
345.515	1	18
345.686	1	18
345.857	1	13
346.028	1	15
346.199	1	22
346.370	1	8
346.541	1	10
346.712	1	9
346.883	1	10
347.054	1	14
347.225	1	1
347.396	1	12
347.567	1	13
347.738	1	19
347.909	1	16
348.080	1	8
348.251	1	13
348.422	1	18
348.593	1	10
348.764	1	17
348.935	1	3
349.106	1	10
349.277	1	12
349.448	1	17
349.619	1	15
349.790	1	19
349.961	1	4
350.132	1	22
350.303	1	14
350.474	1	8
350.645	1	10
350.816	1	18
350.987	1	28
351.157	1	24
351.328	1	8
351.499	1	20
351.670	1	18
351.841	1	22
352.012	1	15
352.183	1	22
352.354	1	8
352.525	1	18
352.696	1	26
352.867	1	25
353.038	1	19
353.209	1	12
353.380	1	8
353.551	1	20
353.722	1	12
353.893	1	26
354.064	1	16
354.235	1	13
354.406	1	1
354.576	1	21
354.747	1	7
354.918	1	17
355.089	1	24
355.260	1	20
355.431	1	12
355.602	1	22
355.773	1	3
355.944	1	18
356.115	1	22
356.286	1	14
356.457	1	20
356.628	1	15
356.799	1	31
356.970	1	19
357.141	1	12
357.311	1	39
357.482	1	16
357.653	1	17
357.824	1	20
357.995	1	27
358.166	1	8
358.337	1	18
358.508	1	17
358.679	1	17
358.850	1	26
359.021	1	33
359.192	1	24
359.363	1	11
359.533	1	20
359.704	1	17
359.875	1	17
360.046	1	18
360.217	1	31
360.388	1	27
360.559	1	31
360.730	1	22
360.901	1	18
361.072	1	24
361.243	1	26
361.414	1	22
361.584	1	14
361.755	1	16
361.926	1	27
362.097	1	11
362.268	1	31
362.439	1	9
362.610	1	25
362.781	1	3
362.952	1	19
363.123	1	16
363.293	1	19
363.464	1	19
363.635	1	27
363.806	1	19
363.977	1	21
364.148	1	13
364.319	1	16
364.490	1	25
364.661	1	25
364.832	1	23
365.002	1	23
365.173	1	29
365.344	1	12
365.515	1	22
365.686	1	30
365.857	1	30
366.028	1	26
366.199	1	33
366.370	1	22
366.540	1	30
366.711	1	27
366.882	1	27
367.053	1	28
367.224	1	22
367.395	1	21
367.566	1	36
367.737	1	14
367.908	1	17
368.078	1	20
368.249	1	23
368.420	1	24
368.591	1	33
368.762	1	17
368.933	1	28
369.104	1	20
369.274	1	33
369.445	1	24
369.616	1	13
369.787	1	25
369.958	1	25
370.129	1	19
370.300	1	18
370.471	1	14
370.641	1	17
370.812	1	32
370.983	1	20
371.154	1	21
371.325	1	23
371.496	1	29
371.667	1	26
371.837	1	27
372.008	1	17
372.179	1	28
372.350	1	30
372.521	1	24
372.692	1	38
372.863	1	25
373.033	1	18
373.204	1	16
373.375	1	24
373.546	1	27
373.717	1	18
373.888	1	26
374.059	1	30
374.229	1	29
374.400	1	25
374.571	1	28
374.742	1	28
374.913	1	13
375.084	1	30
375.254	1	16
375.425	1	18
375.596	1	23
375.767	1	28
375.938	1	15
376.109	1	21
376.279	1	27
376.450	1	19
376.621	1	28
376.792	1	26
376.963	1	25
377.134	1	22
377.304	1	23
377.475	1	29
377.646	1	12
377.817	1	24
377.988	1	28
378.159	1	34
378.329	1	20
378.500	1	25
378.671	1	25
378.842	1	18
379.013	1	26
379.184	1	29
379.354	1	27
379.525	1	38
379.696	1	33
379.867	1	36
380.038	1	28
380.209	1	36
380.379	1	21
380.550	1	10
380.721	1	19
380.892	1	25
381.063	1	30
381.233	1	22
381.404	1	25
381.575	1	32
381.746	1	28
381.917	1	28
382.087	1	29
382.258	1	42
382.429	1	25
382.600	1	27
382.771	1	29
382.941	1	35
383.112	1	28
383.283	1	32
383.454	1	29
383.625	1	33
383.795	1	31
383.966	1	40
384.137	1	37
384.308	1	30
384.479	1	25
384.649	1	25
384.820	1	35
384.991	1	31
385.162	1	38
385.333	1	33
385.503	1	27
385.674	1	25
385.845	1	31
386.016	1	36
386.187	1	20
386.357	1	40
386.528	1	18
386.699	1	32
386.870	1	31
387.041	1	33
387.211	1	34
387.382	1	43
387.553	1	39
387.724	1	38
387.894	1	23
388.065	1	32
388.236	1	27
388.407	1	31
388.578	1	36
388.748	1	34
388.919	1	35
389.090	1	44
389.261	1	43
389.431	1	22
389.602	1	37
389.773	1	30
389.944	1	40
390.114	1	35
390.285	1	31
390.456	1	30
390.627	1	27
390.798	1	31
390.968	1	41
391.139	1	36
391.310	1	30
391.481	1	29
391.651	1	43
391.822	1	39
391.993	1	37
392.164	1	27
392.334	1	32
392.505	1	45
392.676	1	27
392.847	1	31
393.017	1	31
393.188	1	34
393.359	1	50
393.530	1	44
393.700	1	40
393.871	1	44
394.042	1	31
394.213	1	17
394.383	1	31
394.554	1	40
394.725	1	17
394.896	1	42
395.066	1	30
395.237	1	44
395.408	1	27
395.579	1	42
395.749	1	46
395.920	1	33
396.091	1	41
396.262	1	27
396.432	1	23
396.603	1	36
396.774	1	22
396.945	1	30
397.115	1	33
397.286	1	35
397.457	1	28
397.627	1	22
397.798	1	46
397.969	1	34
398.140	1	38
398.310	1	43
398.481	1	35
398.652	1	36
398.823	1	37
398.993	1	28
399.164	1	40
399.335	1	31
399.505	1	41
399.676	1	33
399.847	1	36
400.018	1	41
400.188	1	45
400.359	1	39
400.530	1	45
400.700	1	35
400.871	1	31
401.042	1	35
401.213	1	36
401.383	1	33
401.554	1	38
401.725	1	41
401.895	1	35
402.066	1	32
402.237	1	38
402.408	1	36
402.578	1	47
402.749	1	29
402.920	1	35
403.090	1	32
403.261	1	35
403.432	1	37
403.603	1	47
403.773	1	42
403.944	1	35
404.115	1	29
404.285	1	49
404.456	1	44
404.627	1	40
404.797	1	38
404.968	1	38
405.139	1	42
405.310	1	36
405.480	1	31
405.651	1	31
405.822	1	38
405.992	1	33
406.163	1	30
406.334	1	36
406.504	1	37
406.675	1	36
406.846	1	35
407.016	1	42
407.187	1	45
407.358	1	30
407.528	1	40
407.699	1	49
407.870	1	42
408.041	1	31
408.211	1	55
408.382	1	36
408.553	1	48
408.723	1	33
408.894	1	42
409.065	1	35
409.235	1	39
409.406	1	45
409.577	1	39
409.747	1	40
409.918	1	36
410.089	1	51
410.259	1	47
410.430	1	35
410.601	1	40
410.771	1	49
410.942	1	42
411.113	1	43
411.283	1	32
411.454	1	50
411.625	1	46
411.795	1	51
411.966	1	38
412.137	1	47
412.307	1	44
412.478	1	44
412.649	1	43
412.819	1	34
412.990	1	46
413.161	1	39
413.331	1	39
413.502	1	39
413.672	1	40
413.843	1	36
414.014	1	41
414.184	1	51
414.355	1	38
414.526	1	40
414.696	1	36
414.867	1	31
415.038	1	42
415.208	1	31
415.379	1	35
415.550	1	34
415.720	1	32
415.891	1	46
416.062	1	49
416.232	1	38
416.403	1	42
416.573	1	33
416.744	1	46
416.915	1	43
417.085	1	40
417.256	1	40
417.427	1	35
417.597	1	43
417.768	1	38
417.939	1	30
418.109	1	40
418.280	1	31
418.450	1	51
418.621	1	29
418.792	1	43
418.962	1	46
419.133	1	44
419.304	1	34
419.474	1	38
419.645	1	29
419.815	1	35
419.986	1	49
420.157	1	29
420.327	1	33
420.498	1	28
420.669	1	50
420.839	1	43
421.010	1	34
421.180	1	34
421.351	1	41
421.522	1	38
421.692	1	43
421.863	1	48
422.033	1	43
422.204	1	46
422.375	1	41
422.545	1	39
422.716	1	30
422.886	1	51
423.057	1	34
423.228	1	28
423.398	1	50
423.569	1	38
423.740	1	34
423.910	1	43
424.081	1	36
424.251	1	33
424.422	1	37
424.593	1	39
424.763	1	49
424.934	1	38
425.104	1	46
425.275	1	28
425.445	1	41
425.616	1	43
425.787	1	39
425.957	1	30
426.128	1	31
426.298	1	49
426.469	1	20
426.640	1	32
426.810	1	19
426.981	1	40
427.151	1	32
427.322	1	32
427.493	1	36
427.663	1	33
427.834	1	39
428.004	1	44
428.175	1	36
428.345	1	19
428.516	1	30
428.687	1	42
428.857	1	52
429.028	1	31
429.198	1	28
429.369	1	34
429.540	1	33
429.710	1	37
429.881	1	33
430.051	1	25
430.222	1	42
430.392	1	33
430.563	1	36
430.734	1	33
430.904	1	42
431.075	1	44
431.245	1	41
431.416	1	31
431.586	1	36
431.757	1	30
431.927	1	48
432.098	1	46
432.269	1	41
432.439	1	27
432.610	1	43
432.780	1	39
432.951	1	35
433.121	1	38
433.292	1	39
433.462	1	38
433.633	1	37
433.804	1	34
433.974	1	35
434.145	1	25
434.315	1	34
434.486	1	25
434.656	1	45
434.827	1	34
434.997	1	36
435.168	1	29
435.339	1	44
435.509	1	35
435.680	1	38
435.850	1	25
436.021	1	37
436.191	1	33
436.362	1	30
436.532	1	38
436.703	1	33
436.873	1	25
437.044	1	38
437.214	1	38
437.385	1	34
437.556	1	40
437.726	1	35
437.897	1	30
438.067	1	39
438.238	1	39
438.408	1	33
438.579	1	28
438.749	1	30
438.920	1	50
439.090	1	26
439.261	1	38
439.431	1	19
439.602	1	32
439.772	1	39
439.943	1	30
440.113	1	30
440.284	1	30
440.455	1	37
440.625	1	39
440.796	1	31
440.966	1	45
441.137	1	37
441.307	1	29
441.478	1	32
441.648	1	28
441.819	1	39
441.989	1	36
442.160	1	40
442.330	1	40
442.501	1	31
442.671	1	35
442.842	1	30
443.012	1	39
443.183	1	25
443.353	1	30
443.524	1	34
443.694	1	28
443.865	1	33
444.035	1	27
444.206	1	30
444.376	1	37
444.547	1	31
444.717	1	30
444.888	1	19
445.058	1	37
445.229	1	40
445.399	1	41
445.570	1	26
445.740	1	35
445.911	1	34
446.081	1	30
446.252	1	33
446.422	1	27
446.593	1	33
446.763	1	35
446.934	1	33
447.104	1	25
447.275	1	29
447.445	1	29
447.616	1	26
447.786	1	27
447.957	1	40
448.127	1	32
448.298	1	25
448.468	1	32
448.639	1	32
448.809	1	28
448.979	1	40
449.150	1	29
449.320	1	36
449.491	1	28
449.661	1	20
449.832	1	28
450.002	1	26
450.173	1	36
450.343	1	21
450.514	1	26
450.684	1	29
450.855	1	35
451.025	1	25
451.196	1	27
451.366	1	37
451.537	1	43
451.707	1	38
451.878	1	19
452.048	1	22
452.218	1	29
452.389	1	40
452.559	1	40
452.730	1	27
452.900	1	25
453.071	1	38
453.241	1	27
453.412	1	27
453.582	1	30
453.753	1	35
453.923	1	22
454.093	1	25
454.264	1	38
454.434	1	34
454.605	1	30
454.775	1	40
454.946	1	22
455.116	1	30
455.287	1	28
455.457	1	33
455.628	1	20
455.798	1	28
455.968	1	24
456.139	1	33
456.309	1	21
456.480	1	32
456.650	1	28
456.821	1	20
456.991	1	30
457.161	1	26
457.332	1	29
457.502	1	26
457.673	1	8
457.843	1	24
458.014	1	27
458.184	1	25
458.355	1	37
458.525	1	25
458.695	1	13
458.866	1	15
459.036	1	30
459.207	1	23
459.377	1	22
459.548	1	32
459.718	1	11
459.888	1	9
460.059	1	25
460.229	1	16
460.400	1	19
460.570	1	24
460.740	1	21
460.911	1	23
461.081	1	30
461.252	1	22
461.422	1	25
461.593	1	27
461.763	1	25
461.933	1	30
462.104	1	19
462.274	1	20
462.445	1	18
462.615	1	35
462.785	1	29
462.956	1	16
463.126	1	31
463.297	1	28
463.467	1	32
463.638	1	23
463.808	1	28
463.978	1	13
464.149	1	7
464.319	1	23
464.490	1	13
464.660	1	25
464.830	1	18
465.001	1	21
465.171	1	29
465.342	1	16
465.512	1	16
465.682	1	22
465.853	1	16
466.023	1	17
466.194	1	27
466.364	1	19
466.534	1	12
466.705	1	36
466.875	1	8
467.045	1	12
467.216	1	24
467.386	1	18
467.557	1	34
467.727	1	13
467.897	1	14
468.068	1	26
468.238	1	19
468.409	1	22
468.579	1	19
468.749	1	26
468.920	1	16
469.090	1	22
469.260	1	17
469.431	1	18
469.601	1	21
469.772	1	31
469.942	1	21
470.112	1	18
470.283	1	23
470.453	1	26
470.623	1	23
470.794	1	19
470.964	1	12
471.135	1	28
471.305	1	12
471.475	1	13
471.646	1	21
471.816	1	20
471.986	1	20
472.157	1	16
472.327	1	22
472.497	1	16
472.668	1	21
472.838	1	18
473.009	1	24
473.179	1	18
473.349	1	15
473.520	1	29
473.690	1	17
473.860	1	16
474.031	1	22
474.201	1	14
474.371	1	21
474.542	1	24
474.712	1	16
474.882	1	12
475.053	1	32
475.223	1	21
475.394	1	16
475.564	1	25
475.734	1	7
475.905	1	27
476.075	1	32
476.245	1	15
476.416	1	12
476.586	1	17
476.756	1	12
476.927	1	22
477.097	1	12
477.267	1	15
477.438	1	21
477.608	1	25
477.778	1	16
477.949	1	12
478.119	1	25
478.289	1	14
478.460	1	12
478.630	1	19
478.800	1	15
478.971	1	15
479.141	1	12
479.311	1	23
479.482	1	9
479.652	1	25
479.822	1	14
479.993	1	8
480.163	1	26
480.333	1	21
480.504	1	17
480.674	1	29
480.844	1	6
481.015	1	15
481.185	1	29
481.355	1	12
481.525	1	18
481.696	1	18
481.866	1	22
482.036	1	22
482.207	1	20
482.377	1	9
482.547	1	13
482.718	1	20
482.888	1	21
483.058	1	22
483.229	1	13
483.399	1	16
483.569	1	5
483.740	1	10
483.910	1	10
484.080	1	18
484.250	1	5
484.421	1	11
484.591	1	18
484.761	1	22
484.932	1	9
485.102	1	14
485.272	1	13
485.443	1	18
485.613	1	7
485.783	1	17
485.953	1	14
486.124	1	16
486.294	1	21
486.464	1	17
486.635	1	8
486.805	1	4
486.975	1	8
487.146	1	19
487.316	1	25
487.486	1	18
487.656	1	17
487.827	1	11
487.997	1	16
488.167	1	22
488.338	1	7
488.508	1	14
488.678	1	0
488.848	1	20
489.019	1	12
489.189	1	20
489.359	1	15
489.529	1	10
489.700	1	8
489.870	1	24
490.040	1	13
490.211	1	7
490.381	1	9
490.551	1	8
490.721	1	11
490.892	1	3
491.062	1	6
491.232	1	10
491.402	1	13
491.573	1	18
491.743	1	10
491.913	1	8
492.084	1	16
492.254	1	9
492.424	1	10
492.594	1	7
492.765	1	14
492.935	1	24
493.105	1	5
493.275	1	13
493.446	1	7
493.616	1	2
493.786	1	21
493.956	1	4
494.127	1	1
494.297	1	-9
494.467	1	10
494.637	1	13
494.808	1	11
494.978	1	15
495.148	1	3
495.318	1	16
495.489	1	10
495.659	1	11
495.829	1	14
495.999	1	18
496.170	1	17
496.340	1	10
496.510	1	19
496.680	1	19
496.851	1	22
497.021	1	7
497.191	1	17
497.361	1	-3
497.532	1	10
497.702	1	13
497.872	1	13
498.042	1	14
498.213	1	9
498.383	1	13
498.553	1	18
498.723	1	3
498.894	1	13
499.064	1	14
499.234	1	14
499.404	1	18
499.574	1	7
499.745	1	11
499.915	1	17
500.085	1	4
500.255	1	-4
500.426	1	4
500.596	1	1
500.766	1	1
500.936	1	-2
501.106	1	13
501.277	1	-3
501.447	1	8
501.617	1	7
501.787	1	-1
501.958	1	9
502.128	1	15
502.298	1	0
502.468	1	2
502.638	1	18
502.809	1	5
502.979	1	8
503.149	1	14
503.319	1	15
503.489	1	-8
503.660	1	1
503.830	1	10
504.000	1	6
504.170	1	9
504.340	1	3
504.511	1	2
504.681	1	11
504.851	1	6
505.021	1	10
505.192	1	-4
505.362	1	2
505.532	1	5
505.702	1	15
505.872	1	10
506.043	1	16
506.213	1	15
506.383	1	10
506.553	1	10
506.723	1	-4
506.893	1	6
507.064	1	12
507.234	1	16
507.404	1	2
507.574	1	1
507.744	1	5
507.915	1	7
508.085	1	5
508.255	1	8
508.425	1	19
508.595	1	1
508.766	1	0
508.936	1	3
509.106	1	12
509.276	1	6
509.446	1	1
509.616	1	4
509.787	1	-1
509.957	1	13
510.127	1	-1
510.297	1	-4
510.467	1	13
510.638	1	9
510.808	1	18
510.978	1	8
511.148	1	3
511.318	1	9
511.488	1	8
511.659	1	13
511.829	1	-3
511.999	1	3
512.169	1	14
512.339	1	7
512.509	1	-2
512.680	1	12
512.850	1	2
513.020	1	11
513.190	1	-2
513.360	1	9
513.530	1	6
513.700	1	6
513.871	1	6
514.041	1	6
514.211	1	7
514.381	1	12
514.551	1	12
514.721	1	2
514.892	1	3
515.062	1	-5
515.232	1	12
515.402	1	1
515.572	1	16
515.742	1	10
515.912	1	20
516.083	1	11
516.253	1	10
516.423	1	4
516.593	1	13
516.763	1	10
516.933	1	2
517.104	1	12
517.274	1	3
517.444	1	5
517.614	1	11
517.784	1	13
517.954	1	2
518.124	1	3
518.294	1	14
518.465	1	3
518.635	1	15
518.805	1	13
518.975	1	13
519.145	1	7
519.315	1	8
519.485	1	5
519.656	1	8
519.826	1	8
519.996	1	11
520.166	1	2
520.336	1	5
520.506	1	3
520.676	1	14
520.846	1	9
521.017	1	6
521.187	1	13
521.357	1	7
521.527	1	9
521.697	1	6
521.867	1	13
522.037	1	11
522.207	1	10
522.377	1	17
522.548	1	-5
522.718	1	4
522.888	1	9
523.058	1	11
523.228	1	1
523.398	1	3
523.568	1	6
523.738	1	11
523.909	1	0
524.079	1	11
524.249	1	3
524.419	1	4
524.589	1	3
524.759	1	9
524.929	1	8
525.099	1	6
525.269	1	10
525.439	1	4
525.610	1	19
525.780	1	6
525.950	1	6
526.120	1	-6
526.290	1	-5
526.460	1	-6
526.630	1	12
526.800	1	6
526.970	1	-2
527.140	1	1
527.311	1	9
527.481	1	8
527.651	1	5
527.821	1	7
527.991	1	10
528.161	1	8
528.331	1	-4
528.501	1	6
528.671	1	11
528.841	1	9
529.011	1	14
529.181	1	14
529.352	1	3
529.522	1	4
529.692	1	5
529.862	1	4
530.032	1	0
530.202	1	-7
530.372	1	1
530.542	1	5
530.712	1	-1
530.882	1	9
531.052	1	12
531.222	1	6
531.392	1	-3
531.563	1	20
531.733	1	5
531.903	1	4
532.073	1	12
532.243	1	10
532.413	1	15
532.583	1	5
532.753	1	3
532.923	1	13
533.093	1	-7
533.263	1	1
533.433	1	2
533.603	1	-2
533.773	1	10
533.943	1	3
534.113	1	8
534.284	1	6
534.454	1	0
534.624	1	-1
534.794	1	3
534.964	1	9
535.134	1	-2
535.304	1	-1
535.474	1	22
535.644	1	3
535.814	1	12
535.984	1	3
536.154	1	3
536.324	1	-4
536.494	1	12
536.664	1	3
536.834	1	0
537.004	1	5
537.174	1	11
537.344	1	9
537.514	1	2
537.685	1	11
537.855	1	1
538.025	1	12
538.195	1	-2
538.365	1	6
538.535	1	3
538.705	1	4
538.875	1	6
539.045	1	1
539.215	1	0
539.385	1	9
539.555	1	2
539.725	1	7
539.895	1	12
540.065	1	4
540.235	1	7
540.405	1	2
540.575	1	8
540.745	1	3
540.915	1	7
541.085	1	6
541.255	1	0
541.425	1	8
541.595	1	7
541.765	1	10
541.935	1	2
542.105	1	2
542.275	1	-9
542.445	1	7
542.615	1	11
542.785	1	5
542.955	1	8
543.125	1	9
543.295	1	-2
543.465	1	16
543.635	1	5
543.805	1	13
543.975	1	3
544.145	1	-1
544.315	1	1
544.485	1	6
544.655	1	8
544.825	1	4
544.995	1	0
545.165	1	5
545.335	1	10
545.505	1	-2
545.675	1	8
545.845	1	5
546.015	1	-9
546.185	1	4
546.355	1	9
546.525	1	14
546.695	1	5
546.865	1	5
547.035	1	4
547.205	1	21
547.375	1	8
547.545	1	1
547.715	1	2
547.885	1	-6
548.055	1	1
548.225	1	8
548.395	1	4
548.565	1	11
548.735	1	-3
548.905	1	10
549.075	1	-5
549.245	1	4
549.415	1	4
549.585	1	-7
549.755	1	6
549.925	1	3
550.095	1	6
550.265	1	8
550.435	1	8
550.605	1	1
550.775	1	3
550.945	1	-2
551.115	1	16
551.285	1	1
551.455	1	8
551.625	1	-2
551.795	1	-8
551.965	1	3
552.135	1	2
552.305	1	4
552.475	1	12
552.645	1	4
552.815	1	2
552.985	1	1
553.155	1	-5
553.325	1	3
553.495	1	5
553.665	1	0
553.835	1	2
554.004	1	0
554.174	1	4
554.344	1	4
554.514	1	5
554.684	1	12
554.854	1	-6
555.024	1	7
555.194	1	10
555.364	1	6
555.534	1	-1
555.704	1	9
555.874	1	1
556.044	1	-6
556.214	1	4
556.384	1	7
556.554	1	10
556.724	1	1
556.894	1	1
557.064	1	3
557.234	1	4
557.404	1	5
557.573	1	9
557.743	1	-8
557.913	1	2
558.083	1	0
558.253	1	9
558.423	1	6
558.593	1	9
558.763	1	1
558.933	1	-4
559.103	1	2
559.273	1	10
559.443	1	3
559.613	1	-4
559.783	1	1
559.953	1	-4
560.122	1	11
560.292	1	-9
560.462	1	-4
560.632	1	-3
560.802	1	3
560.972	1	0
561.142	1	10
561.312	1	-1
561.482	1	6
561.652	1	1
561.822	1	2
561.992	1	9
562.162	1	1
562.331	1	0
562.501	1	4
562.671	1	1
562.841	1	-2
563.011	1	2
563.181	1	-1
563.351	1	-3
563.521	1	2
563.691	1	3
563.861	1	-2
564.031	1	-1
564.201	1	8
564.370	1	9
564.540	1	-2
564.710	1	-6
564.880	1	1
565.050	1	5
565.220	1	9
565.390	1	3
565.560	1	3
565.730	1	12
565.900	1	6
566.069	1	13
566.239	1	13
566.409	1	8
566.579	1	6
566.749	1	-10
566.919	1	-5
567.089	1	-9
567.259	1	10
567.429	1	-7
567.599	1	14
567.768	1	-4
567.938	1	-1
568.108	1	3
568.278	1	5
568.448	1	6
568.618	1	2
568.788	1	0
568.958	1	0
569.128	1	3
569.297	1	-1
569.467	1	11
569.637	1	-8
569.807	1	3
569.977	1	-4
570.147	1	4
570.317	1	1
570.487	1	-4
570.656	1	8
570.826	1	-3
570.996	1	17
571.166	1	0
571.336	1	11
571.506	1	4
571.676	1	17
571.846	1	6
572.015	1	7
572.185	1	4
572.355	1	3
572.525	1	-4
572.695	1	5
572.865	1	11
573.035	1	10
573.205	1	-6
573.374	1	1
573.544	1	6
573.714	1	-7
573.884	1	-5
574.054	1	-1
574.224	1	12
574.394	1	-4
574.563	1	-5
574.733	1	5
574.903	1	4
575.073	1	12
575.243	1	3
575.413	1	-2
575.583	1	2
575.752	1	3
575.922	1	15
576.092	1	-3
576.262	1	9
576.432	1	2
576.602	1	-1
576.772	1	11
576.941	1	2
577.111	1	-3
577.281	1	-6
577.451	1	9
577.621	1	-1
577.791	1	3
577.960	1	0
578.130	1	3
578.300	1	-3
578.470	1	9
578.640	1	-6
578.810	1	-7
578.979	1	3
579.149	1	5
579.319	1	3
579.489	1	14
579.659	1	5
579.829	1	-1
579.998	1	-15
580.168	1	-3
580.338	1	-4
580.508	1	6
580.678	1	3
580.848	1	10
581.017	1	4
581.187	1	5
581.357	1	2
581.527	1	3
581.697	1	-1
581.867	1	-4
582.036	1	-11
582.206	1	9
582.376	1	5
582.546	1	-3
582.716	1	-2
582.885	1	-1
583.055	1	-10
583.225	1	-1
583.395	1	3
583.565	1	7
583.735	1	2
583.904	1	-1
584.074	1	7
584.244	1	-3
584.414	1	-1
584.584	1	-1
584.753	1	2
584.923	1	2
585.093	1	14
585.263	1	1
585.433	1	-7
585.602	1	8
585.772	1	15
585.942	1	-1
586.112	1	3
586.282	1	-5
586.451	1	12
586.621	1	-5
586.791	1	-5
586.961	1	-4
587.131	1	-9
587.300	1	3
587.470	1	1
587.640	1	-4
587.810	1	-10
587.980	1	-2
588.149	1	5
588.319	1	9
588.489	1	6
588.659	1	-9
588.829	1	2
588.998	1	1
589.168	1	4
589.338	1	3
589.508	1	7
589.677	1	2
589.847	1	4
590.017	1	-1
590.187	1	4
590.357	1	-6
590.526	1	-7
590.696	1	0
590.866	1	0
591.036	1	10
591.205	1	5
591.375	1	9
591.545	1	-4
591.715	1	-5
591.885	1	11
592.054	1	6
592.224	1	-4
592.394	1	-14
592.564	1	1
592.733	1	4
592.903	1	9
593.073	1	0
593.243	1	10
593.412	1	-3
593.582	1	6
593.752	1	0
593.922	1	5
594.091	1	3
594.261	1	-13
594.431	1	11
594.601	1	-7
594.771	1	-2
594.940	1	2
595.110	1	9
595.280	1	7
595.450	1	7
595.619	1	-2
595.789	1	1
595.959	1	-5
596.129	1	5
596.298	1	11
596.468	1	4
596.638	1	4
596.808	1	-7
596.977	1	-2
597.147	1	-3
597.317	1	3
597.487	1	2
597.656	1	6
597.826	1	13
597.996	1	-7
598.166	1	-1
598.335	1	-5
598.505	1	16
598.675	1	3
598.844	1	14
599.014	1	-6
599.184	1	3
599.354	1	8
599.523	1	-8
599.693	1	-3
599.863	1	10
600.033	1	14
600.202	1	1
600.372	1	-6
600.542	1	1
600.712	1	-2
600.881	1	1
601.051	1	12
601.221	1	5
601.390	1	1
601.560	1	0
601.730	1	-2
601.900	1	6
602.069	1	5
602.239	1	7
602.409	1	-5
602.578	1	0
602.748	1	16
602.918	1	-5
603.088	1	3
603.257	1	1
603.427	1	8
603.597	1	13
603.767	1	1
603.936	1	5
604.106	1	-2
604.276	1	10
604.445	1	1
604.615	1	3
604.785	1	4
604.954	1	5
605.124	1	0
605.294	1	-3
605.464	1	-6
605.633	1	2
605.803	1	4
605.973	1	10
606.142	1	10
606.312	1	5
606.482	1	2
606.652	1	1
606.821	1	5
606.991	1	10
607.161	1	3
607.330	1	-6
607.500	1	-3
607.670	1	-5
607.839	1	1
608.009	1	1
608.179	1	12
608.348	1	6
608.518	1	6
608.688	1	5
608.858	1	5
609.027	1	5
609.197	1	-5
609.367	1	2
609.536	1	-2
609.706	1	19
609.876	1	11
610.045	1	10
610.215	1	-2
610.385	1	0
610.554	1	6
610.724	1	1
610.894	1	3
611.063	1	11
611.233	1	7
611.403	1	11
611.572	1	-4
611.742	1	3
611.912	1	1
612.081	1	10
612.251	1	-2
612.421	1	5
612.590	1	-2
612.760	1	6
612.930	1	7
613.099	1	-1
613.269	1	4
613.439	1	-11
613.608	1	14
613.778	1	-3
613.948	1	10
614.117	1	2
614.287	1	-2
614.457	1	4
614.626	1	0
614.796	1	10
614.966	1	8
615.135	1	9
615.305	1	12
615.475	1	10
615.644	1	12
615.814	1	10
615.984	1	-9
616.153	1	6
616.323	1	6
616.493	1	-8
616.662	1	-5
616.832	1	9
617.002	1	-1
617.171	1	9
617.341	1	10
617.511	1	-10
617.680	1	-6
617.850	1	4
618.019	1	-5
618.189	1	12
618.359	1	4
618.528	1	9
618.698	1	5
618.868	1	7
619.037	1	6
619.207	1	-4
619.377	1	5
619.546	1	11
619.716	1	0
619.885	1	-10
620.055	1	2
620.225	1	7
620.394	1	7
620.564	1	7
620.734	1	-3
620.903	1	-8
621.073	1	10
621.242	1	2
621.412	1	-8
621.582	1	19
621.751	1	9
621.921	1	10
622.091	1	3
622.260	1	3
622.430	1	7
622.599	1	0
622.769	1	-6
622.939	1	-1
623.108	1	-5
623.278	1	-6
623.448	1	4
623.617	1	6
623.787	1	6
623.956	1	6
624.126	1	17
624.296	1	7
624.465	1	4
624.635	1	5
624.804	1	0
624.974	1	-11
625.144	1	-4
625.313	1	5
625.483	1	15
625.652	1	5
625.822	1	8
625.992	1	-6
626.161	1	3
626.331	1	2
626.501	1	5
626.670	1	-5
626.840	1	11
627.009	1	10
627.179	1	8
627.348	1	-2
627.518	1	18
627.688	1	-3
627.857	1	17
628.027	1	9
628.196	1	5
628.366	1	-2
628.536	1	-4
628.705	1	0
628.875	1	-4
629.044	1	1
629.214	1	1
629.384	1	2
629.553	1	-4
629.723	1	14
629.892	1	1
630.062	1	2
630.232	1	17
630.401	1	1
630.571	1	5
630.740	1	-6
630.910	1	8
631.079	1	5
631.249	1	5
631.419	1	-3
631.588	1	8
631.758	1	-3
631.927	1	17
632.097	1	2
632.266	1	4
632.436	1	5
632.606	1	-5
632.775	1	13
632.945	1	8
633.114	1	-6
633.284	1	7
633.453	1	9
633.623	1	8
633.793	1	0
633.962	1	2
634.132	1	5
634.301	1	14
634.471	1	17
634.640	1	3
634.810	1	3
634.979	1	-4
635.149	1	-1
635.319	1	-4
635.488	1	8
635.658	1	-3
635.827	1	7
635.997	1	3
636.166	1	-2
636.336	1	5
636.505	1	12
636.675	1	1
636.845	1	2
637.014	1	-5
637.184	1	-3
637.353	1	6
637.523	1	2
637.692	1	1
637.862	1	-5
638.031	1	-3
638.201	1	10
638.370	1	2
638.540	1	-1
638.710	1	-8
638.879	1	4
639.049	1	7
639.218	1	12
639.388	1	5
639.557	1	13
639.727	1	9
639.896	1	-6
640.066	1	5
640.235	1	1
640.405	1	3
640.574	1	11
640.744	1	2
640.914	1	-3
641.083	1	6
641.253	1	11
641.422	1	1
641.592	1	9
641.761	1	-2
641.931	1	10
642.100	1	2
642.270	1	-1
642.439	1	0
642.609	1	14
642.778	1	-1
642.948	1	2
643.117	1	6
643.287	1	6
643.456	1	5
643.626	1	3
643.795	1	0
643.965	1	11
644.134	1	-1
644.304	1	2
644.473	1	-4
644.643	1	11
644.812	1	-2
644.982	1	4
645.151	1	7
645.321	1	11
645.490	1	12
645.660	1	-4
645.829	1	1
645.999	1	0
646.168	1	27
646.338	1	-4
646.507	1	9
646.677	1	2
646.846	1	1
647.016	1	18
647.185	1	11
647.355	1	6
647.524	1	3
647.694	1	-3
647.863	1	5
648.033	1	6
648.202	1	6
648.372	1	-2
648.541	1	8
648.711	1	12
648.880	1	16
649.050	1	1
649.219	1	4
649.389	1	0
649.558	1	13
649.728	1	10
649.897	1	11
650.067	1	8
650.236	1	2
650.406	1	0
650.575	1	-1
650.745	1	2
650.914	1	14
651.084	1	12
651.253	1	18
651.423	1	-9
651.592	1	-2
651.762	1	-4
651.931	1	2
652.101	1	0
652.270	1	7
652.440	1	2
652.609	1	12
652.778	1	12
652.948	1	12
653.117	1	7
653.287	1	-10
653.456	1	8
653.626	1	9
653.795	1	12
653.965	1	2
654.134	1	-1
654.304	1	8
654.473	1	0
654.643	1	0
654.812	1	20
654.982	1	14
655.151	1	11
655.320	1	6
655.490	1	1
655.659	1	3
655.829	1	11
655.998	1	5
656.168	1	-3
656.337	1	6
656.507	1	-5
656.676	1	-1
656.846	1	1
657.015	1	10
657.184	1	3
657.354	1	5
657.523	1	0
657.693	1	9
657.862	1	-3
658.032	1	1
658.201	1	-1
658.371	1	-3
658.540	1	-6
658.709	1	9
658.879	1	11
659.048	1	8
659.218	1	7
659.387	1	3
659.557	1	1
659.726	1	-6
659.895	1	1
660.065	1	-1
660.234	1	4
660.404	1	2
660.573	1	7
660.743	1	3
660.912	1	13
661.081	1	-13
661.251	1	-4
661.420	1	15
661.590	1	-2
661.759	1	16
661.929	1	1
662.098	1	6
662.267	1	0
662.437	1	7
662.606	1	-4
662.776	1	4
662.945	1	11
663.115	1	11
663.284	1	7
663.453	1	0
663.623	1	2
663.792	1	11
663.962	1	11
664.131	1	8
664.300	1	2
664.470	1	-1
664.639	1	5
664.809	1	-3
664.978	1	23
665.148	1	10
665.317	1	7
665.486	1	5
665.656	1	8
665.825	1	7
665.995	1	-4
666.164	1	9
666.333	1	0
666.503	1	-2
666.672	1	1
666.842	1	11
667.011	1	7
667.180	1	1
667.350	1	10
667.519	1	8
667.689	1	2
667.858	1	5
668.027	1	4
668.197	1	-3
668.366	1	6
668.536	1	-2
668.705	1	6
668.874	1	17
669.044	1	5
669.213	1	2
669.382	1	10
669.552	1	13
669.721	1	-2
669.891	1	-3
670.060	1	10
670.229	1	7
670.399	1	3
670.568	1	13
670.738	1	0
670.907	1	10
671.076	1	5
671.246	1	14
671.415	1	11
671.584	1	6
671.754	1	-4
671.923	1	1
672.093	1	5
672.262	1	5
672.431	1	8
672.601	1	12
672.770	1	5
672.939	1	6
673.109	1	-1
673.278	1	1
673.448	1	6
673.617	1	13
673.786	1	-5
