325.333	1	9
325.504	1	0
325.675	1	19
325.846	1	10
326.017	1	10
326.188	1	21
326.359	1	21
326.531	1	1
326.702	1	7
326.873	1	22
327.044	1	16
327.215	1	6
327.386	1	17
327.557	1	8
327.728	1	7
327.899	1	13
328.070	1	23
328.241	1	11
328.412	1	9
328.583	1	7
328.754	1	20
328.926	1	20
329.097	1	5
329.268	1	18
329.439	1	24
329.610	1	14
329.781	1	20
329.952	1	20
330.123	1	15
330.294	1	12
330.465	1	1
330.636	1	19
330.807	1	19
330.978	1	12
331.149	1	12
331.320	1	12
331.492	1	13
331.663	1	18
331.834	1	29
332.005	1	13
332.176	1	26
332.347	1	15
332.518	1	20
332.689	1	28
332.860	1	17
333.031	1	18
333.202	1	10
333.373	1	18
333.544	1	16
333.715	1	17
333.886	1	17
334.057	1	4
334.228	1	10
334.399	1	32
334.570	1	9
334.741	1	23
334.912	1	20
335.084	1	24
335.255	1	34
335.426	1	21
335.597	1	10
335.768	1	34
335.939	1	22
336.110	1	23
336.281	1	19
336.452	1	27
336.623	1	22
336.794	1	25
336.965	1	20
337.136	1	32
337.307	1	14
337.478	1	30
337.649	1	29
337.820	1	9
337.991	1	30
338.162	1	23
338.333	1	16
338.504	1	36
338.675	1	19
338.846	1	15
339.017	1	21
339.188	1	28
339.359	1	32
339.530	1	21
339.701	1	30
339.872	1	41
340.043	1	24
340.214	1	28
340.385	1	11
340.556	1	35
340.727	1	35
340.898	1	19
341.069	1	26
341.240	1	24
341.411	1	20
341.582	1	10
341.753	1	27
341.924	1	39
342.095	1	17
342.266	1	29
342.437	1	34
342.608	1	20
342.779	1	35
342.950	1	21
343.121	1	23
343.292	1	38
343.463	1	46
343.634	1	23
343.805	1	32
343.976	1	32
344.147	1	36
344.318	1	30
344.489	1	23
344.660	1	34
344.831	1	41
345.002	1	37
345.173	1	29
345.344	1	26
345.515	1	31
345.686	1	33
345.857	1	36
346.028	1	42
346.199	1	34
346.370	1	39
346.541	1	30
346.712	1	38
346.883	1	34
347.054	1	31
347.225	1	38
347.396	1	27
347.567	1	30
347.738	1	35
347.909	1	39
348.080	1	30
348.251	1	34
348.422	1	49
348.593	1	41
348.764	1	39
348.935	1	38
349.106	1	28
349.277	1	33
349.448	1	39
349.619	1	33
349.790	1	45
349.961	1	25
350.132	1	44
350.303	1	38
350.474	1	46
350.645	1	44
350.816	1	33
350.987	1	51
351.157	1	39
351.328	1	36
351.499	1	41
351.670	1	27
351.841	1	52
352.012	1	56
352.183	1	56
352.354	1	42
352.525	1	39
352.696	1	34
352.867	1	49
353.038	1	41
353.209	1	36
353.380	1	43
353.551	1	46
353.722	1	45
353.893	1	54
354.064	1	43
354.235	1	31
354.406	1	28
354.576	1	35
354.747	1	48
354.918	1	42
355.089	1	45
355.260	1	39
355.431	1	36
355.602	1	42
355.773	1	48
355.944	1	41
356.115	1	49
356.286	1	47
356.457	1	35
356.628	1	44
356.799	1	44
356.970	1	60
357.141	1	52
357.311	1	56
357.482	1	46
357.653	1	39
357.824	1	52
357.995	1	52
358.166	1	51
358.337	1	39
358.508	1	49
358.679	1	37
358.850	1	57
359.021	1	56
359.192	1	50
359.363	1	48
359.533	1	44
359.704	1	42
359.875	1	39
360.046	1	46
360.217	1	55
360.388	1	55
360.559	1	55
360.730	1	39
360.901	1	58
361.072	1	42
361.243	1	53
361.414	1	58
361.584	1	50
361.755	1	52
361.926	1	48
362.097	1	45
362.268	1	46
362.439	1	61
362.610	1	50
362.781	1	40
362.952	1	46
363.123	1	42
363.293	1	52
363.464	1	48
363.635	1	54
363.806	1	46
363.977	1	48
364.148	1	40
364.319	1	53
364.490	1	54
364.661	1	54
364.832	1	46
365.002	1	59
365.173	1	52
365.344	1	53
365.515	1	46
365.686	1	57
365.857	1	61
366.028	1	57
366.199	1	49
366.370	1	59
366.540	1	46
366.711	1	53
366.882	1	53
367.053	1	52
367.224	1	62
367.395	1	48
367.566	1	61
367.737	1	43
367.908	1	54
368.078	1	55
368.249	1	62
368.420	1	60
368.591	1	56
368.762	1	55
368.933	1	42
369.104	1	65
369.274	1	68
369.445	1	52
369.616	1	51
369.787	1	61
369.958	1	62
370.129	1	50
370.300	1	54
370.471	1	55
370.641	1	45
370.812	1	55
370.983	1	44
371.154	1	45
371.325	1	41
371.496	1	51
371.667	1	65
371.837	1	48
372.008	1	49
372.179	1	48
372.350	1	53
372.521	1	58
372.692	1	67
372.863	1	49
373.033	1	52
373.204	1	54
373.375	1	54
373.546	1	58
373.717	1	44
373.888	1	63
374.059	1	45
374.229	1	58
374.400	1	54
374.571	1	49
374.742	1	52
374.913	1	54
375.084	1	59
375.254	1	52
375.425	1	51
375.596	1	64
375.767	1	64
375.938	1	41
376.109	1	63
376.279	1	55
376.450	1	51
376.621	1	65
376.792	1	61
376.963	1	59
377.134	1	55
377.304	1	64
377.475	1	55
377.646	1	51
377.817	1	67
377.988	1	76
378.159	1	67
378.329	1	63
378.500	1	68
378.671	1	59
378.842	1	56
379.013	1	62
379.184	1	60
379.354	1	48
379.525	1	61
379.696	1	64
379.867	1	59
380.038	1	58
380.209	1	67
380.379	1	65
380.550	1	65
380.721	1	58
380.892	1	49
381.063	1	67
381.233	1	60
381.404	1	53
381.575	1	69
381.746	1	64
381.917	1	50
382.087	1	58
382.258	1	74
382.429	1	61
382.600	1	58
382.771	1	57
382.941	1	65
383.112	1	65
383.283	1	60
383.454	1	69
383.625	1	67
383.795	1	70
383.966	1	74
384.137	1	76
384.308	1	71
384.479	1	75
384.649	1	65
384.820	1	65
384.991	1	63
385.162	1	71
385.333	1	76
385.503	1	74
385.674	1	74
385.845	1	62
386.016	1	76
386.187	1	68
386.357	1	80
386.528	1	68
386.699	1	59
386.870	1	71
387.041	1	78
387.211	1	75
387.382	1	81
387.553	1	75
387.724	1	65
387.894	1	67
388.065	1	68
388.236	1	69
388.407	1	76
388.578	1	72
388.748	1	76
388.919	1	77
389.090	1	76
389.261	1	85
389.431	1	64
389.602	1	72
389.773	1	70
389.944	1	73
390.114	1	72
390.285	1	78
390.456	1	73
390.627	1	76
390.798	1	69
390.968	1	76
391.139	1	78
391.310	1	61
391.481	1	69
391.651	1	78
391.822	1	73
391.993	1	62
392.164	1	75
392.334	1	70
392.505	1	70
392.676	1	62
392.847	1	68
393.017	1	70
393.188	1	81
393.359	1	85
393.530	1	84
393.700	1	63
393.871	1	80
394.042	1	72
394.213	1	73
394.383	1	78
394.554	1	67
394.725	1	70
394.896	1	86
395.066	1	76
395.237	1	78
395.408	1	79
395.579	1	75
395.749	1	89
395.920	1	78
396.091	1	81
396.262	1	69
396.432	1	75
396.603	1	88
396.774	1	72
396.945	1	78
397.115	1	84
397.286	1	77
397.457	1	74
397.627	1	82
397.798	1	78
397.969	1	80
398.140	1	80
398.310	1	77
398.481	1	80
398.652	1	96
398.823	1	74
398.993	1	81
399.164	1	82
399.335	1	76
399.505	1	80
399.676	1	71
399.847	1	79
400.018	1	81
400.188	1	85
400.359	1	87
400.530	1	87
400.700	1	77
400.871	1	79
401.042	1	81
401.213	1	79
401.383	1	87
401.554	1	77
401.725	1	69
401.895	1	73
402.066	1	85
402.237	1	78
402.408	1	81
402.578	1	84
402.749	1	74
402.920	1	76
403.090	1	70
403.261	1	74
403.432	1	84
403.603	1	97
403.773	1	89
403.944	1	91
404.115	1	80
404.285	1	72
404.456	1	93
404.627	1	82
404.797	1	81
404.968	1	68
405.139	1	87
405.310	1	80
405.480	1	79
405.651	1	75
405.822	1	82
405.992	1	84
406.163	1	73
406.334	1	80
406.504	1	82
406.675	1	82
406.846	1	81
407.016	1	87
407.187	1	97
407.358	1	80
407.528	1	84
407.699	1	100
407.870	1	87
408.041	1	85
408.211	1	88
408.382	1	83
408.553	1	92
408.723	1	85
408.894	1	78
409.065	1	88
409.235	1	89
409.406	1	90
409.577	1	91
409.747	1	87
409.918	1	86
410.089	1	96
410.259	1	75
410.430	1	79
410.601	1	96
410.771	1	96
410.942	1	88
411.113	1	96
411.283	1	79
411.454	1	98
411.625	1	93
411.795	1	84
411.966	1	88
412.137	1	99
412.307	1	78
412.478	1	82
412.649	1	80
412.819	1	89
412.990	1	90
413.161	1	84
413.331	1	84
413.502	1	78
413.672	1	87
413.843	1	89
414.014	1	78
414.184	1	92
414.355	1	84
414.526	1	81
414.696	1	76
414.867	1	69
415.038	1	73
415.208	1	73
415.379	1	74
415.550	1	92
415.720	1	77
415.891	1	89
416.062	1	85
416.232	1	88
416.403	1	89
416.573	1	78
416.744	1	78
416.915	1	77
417.085	1	93
417.256	1	81
417.427	1	85
417.597	1	84
417.768	1	85
417.939	1	78
418.109	1	85
418.280	1	81
418.450	1	96
418.621	1	87
418.792	1	74
418.962	1	80
419.133	1	95
419.304	1	72
419.474	1	86
419.645	1	84
419.815	1	79
419.986	1	86
420.157	1	74
420.327	1	81
420.498	1	80
420.669	1	85
420.839	1	90
421.010	1	84
421.180	1	77
421.351	1	80
421.522	1	79
421.692	1	76
421.863	1	79
422.033	1	81
422.204	1	88
422.375	1	84
422.545	1	91
422.716	1	75
422.886	1	83
423.057	1	77
423.228	1	69
423.398	1	81
423.569	1	72
423.740	1	80
423.910	1	82
424.081	1	84
424.251	1	84
424.422	1	76
424.593	1	85
424.763	1	82
424.934	1	93
425.104	1	79
425.275	1	71
425.445	1	81
425.616	1	82
425.787	1	79
425.957	1	71
426.128	1	88
426.298	1	77
426.469	1	79
426.640	1	77
426.810	1	69
426.981	1	79
427.151	1	68
427.322	1	61
427.493	1	64
427.663	1	68
427.834	1	72
428.004	1	83
428.175	1	89
428.345	1	66
428.516	1	74
428.687	1	79
428.857	1	83
429.028	1	71
429.198	1	69
429.369	1	74
429.540	1	73
429.710	1	87
429.881	1	74
430.051	1	75
430.222	1	75
430.392	1	85
430.563	1	74
430.734	1	83
430.904	1	85
431.075	1	76
431.245	1	71
431.416	1	70
431.586	1	67
431.757	1	94
431.927	1	71
432.098	1	74
432.269	1	74
432.439	1	72
432.610	1	91
432.780	1	67
432.951	1	69
433.121	1	75
433.292	1	82
433.462	1	72
433.633	1	75
433.804	1	73
433.974	1	84
434.145	1	74
434.315	1	67
434.486	1	72
434.656	1	79
434.827	1	72
434.997	1	83
435.168	1	78
435.339	1	84
435.509	1	69
435.680	1	76
435.850	1	63
436.021	1	62
436.191	1	64
436.362	1	86
436.532	1	76
436.703	1	84
436.873	1	70
437.044	1	76
437.214	1	64
437.385	1	66
437.556	1	74
437.726	1	68
437.897	1	73
438.067	1	70
438.238	1	71
438.408	1	76
438.579	1	63
438.749	1	67
438.920	1	81
439.090	1	64
439.261	1	75
439.431	1	62
439.602	1	70
439.772	1	69
439.943	1	70
440.113	1	67
440.284	1	77
440.455	1	72
440.625	1	77
440.796	1	67
440.966	1	72
441.137	1	68
441.307	1	76
441.478	1	64
441.648	1	62
441.819	1	62
441.989	1	76
442.160	1	62
442.330	1	65
442.501	1	64
442.671	1	65
442.842	1	67
443.012	1	62
443.183	1	76
443.353	1	75
443.524	1	68
443.694	1	55
443.865	1	75
444.035	1	60
444.206	1	62
444.376	1	64
444.547	1	67
444.717	1	60
444.888	1	48
445.058	1	76
445.229	1	72
445.399	1	72
445.570	1	74
445.740	1	62
445.911	1	69
446.081	1	72
446.252	1	69
446.422	1	66
446.593	1	72
446.763	1	64
446.934	1	63
447.104	1	68
447.275	1	59
447.445	1	62
447.616	1	70
447.786	1	63
447.957	1	59
448.127	1	67
448.298	1	72
448.468	1	68
448.639	1	59
448.809	1	55
448.979	1	66
449.150	1	59
449.320	1	66
449.491	1	59
449.661	1	56
449.832	1	55
450.002	1	68
450.173	1	66
450.343	1	66
450.514	1	71
450.684	1	65
450.855	1	60
451.025	1	58
451.196	1	61
451.366	1	72
451.537	1	68
451.707	1	68
451.878	1	46
452.048	1	56
452.218	1	54
452.389	1	66
452.559	1	67
452.730	1	58
452.900	1	59
453.071	1	65
453.241	1	64
453.412	1	60
453.582	1	59
453.753	1	61
453.923	1	61
454.093	1	60
454.264	1	73
454.434	1	59
454.605	1	55
454.775	1	59
454.946	1	57
455.116	1	64
455.287	1	44
455.457	1	53
455.628	1	48
455.798	1	56
455.968	1	54
456.139	1	65
456.309	1	55
456.480	1	55
456.650	1	52
456.821	1	47
456.991	1	69
457.161	1	61
457.332	1	51
457.502	1	66
457.673	1	58
457.843	1	47
458.014	1	52
458.184	1	53
458.355	1	57
458.525	1	44
458.695	1	56
458.866	1	50
459.036	1	56
459.207	1	58
459.377	1	64
459.548	1	52
459.718	1	57
459.888	1	48
460.059	1	60
460.229	1	49
460.400	1	56
460.570	1	42
460.740	1	41
460.911	1	51
461.081	1	58
461.252	1	51
461.422	1	47
461.593	1	52
461.763	1	57
461.933	1	50
462.104	1	63
462.274	1	44
462.445	1	50
462.615	1	52
462.785	1	55
462.956	1	43
463.126	1	49
463.297	1	56
463.467	1	58
463.638	1	56
463.808	1	53
463.978	1	32
464.149	1	45
464.319	1	45
464.490	1	49
464.660	1	49
464.830	1	54
465.001	1	50
465.171	1	46
465.342	1	46
465.512	1	55
465.682	1	45
465.853	1	40
466.023	1	45
466.194	1	47
466.364	1	51
466.534	1	39
466.705	1	57
466.875	1	39
467.045	1	43
467.216	1	60
467.386	1	46
467.557	1	59
467.727	1	34
467.897	1	52
468.068	1	35
468.238	1	41
468.409	1	43
468.579	1	47
468.749	1	50
468.920	1	40
469.090	1	49
469.260	1	41
469.431	1	31
469.601	1	46
469.772	1	57
469.942	1	47
470.112	1	31
470.283	1	46
470.453	1	45
470.623	1	48
470.794	1	47
470.964	1	36
471.135	1	44
471.305	1	38
471.475	1	43
471.646	1	56
471.816	1	44
471.986	1	39
472.157	1	40
472.327	1	44
472.497	1	41
472.668	1	44
472.838	1	41
473.009	1	37
473.179	1	34
473.349	1	41
473.520	1	59
473.690	1	38
473.860	1	31
474.031	1	27
474.201	1	40
474.371	1	46
474.542	1	41
474.712	1	45
474.882	1	43
475.053	1	44
475.223	1	40
475.394	1	40
475.564	1	54
475.734	1	34
475.905	1	45
476.075	1	52
476.245	1	42
476.416	1	38
476.586	1	39
476.756	1	45
476.927	1	38
477.097	1	38
477.267	1	40
477.438	1	49
477.608	1	62
477.778	1	39
477.949	1	40
478.119	1	50
478.289	1	35
478.460	1	36
478.630	1	32
478.800	1	36
478.971	1	48
479.141	1	53
479.311	1	39
479.482	1	38
479.652	1	40
479.822	1	37
479.993	1	29
480.163	1	39
480.333	1	48
480.504	1	37
480.674	1	38
480.844	1	36
481.015	1	51
481.185	1	47
481.355	1	34
481.525	1	32
481.696	1	31
481.866	1	51
482.036	1	47
482.207	1	42
482.377	1	32
482.547	1	33
482.718	1	36
482.888	1	47
483.058	1	54
483.229	1	43
483.399	1	44
483.569	1	31
483.740	1	35
483.910	1	31
484.080	1	39
484.250	1	30
484.421	1	29
484.591	1	36
484.761	1	33
484.932	1	32
485.102	1	31
485.272	1	39
485.443	1	38
485.613	1	38
485.783	1	31
485.953	1	32
486.124	1	34
486.294	1	38
486.464	1	44
486.635	1	28
486.805	1	30
486.975	1	25
487.146	1	35
487.316	1	33
487.486	1	42
487.656	1	36
487.827	1	24
487.997	1	27
488.167	1	33
488.338	1	32
488.508	1	39
488.678	1	35
488.848	1	32
489.019	1	27
489.189	1	40
489.359	1	37
489.529	1	39
489.700	1	30
489.870	1	39
490.040	1	15
490.211	1	31
490.381	1	13
490.551	1	22
490.721	1	39
490.892	1	25
491.062	1	30
491.232	1	22
491.402	1	32
491.573	1	37
491.743	1	23
491.913	1	32
492.084	1	33
492.254	1	38
492.424	1	22
492.594	1	30
492.765	1	41
492.935	1	37
493.105	1	25
493.275	1	33
493.446	1	19
493.616	1	24
493.786	1	31
493.956	1	33
494.127	1	26
494.297	1	19
494.467	1	32
494.637	1	28
494.808	1	36
494.978	1	26
495.148	1	28
495.318	1	33
495.489	1	13
495.659	1	32
495.829	1	28
495.999	1	30
496.170	1	31
496.340	1	27
496.510	1	33
496.680	1	27
496.851	1	40
497.021	1	30
497.191	1	31
497.361	1	22
497.532	1	29
497.702	1	27
497.872	1	17
498.042	1	27
498.213	1	23
498.383	1	26
498.553	1	29
498.723	1	32
498.894	1	36
499.064	1	27
499.234	1	25
499.404	1	30
499.574	1	31
499.745	1	19
499.915	1	25
500.085	1	24
500.255	1	18
500.426	1	23
500.596	1	26
500.766	1	27
500.936	1	29
501.106	1	22
501.277	1	20
501.447	1	37
501.617	1	20
501.787	1	25
501.958	1	39
502.128	1	11
502.298	1	23
502.468	1	23
502.638	1	34
502.809	1	15
502.979	1	30
503.149	1	23
503.319	1	25
503.489	1	22
503.660	1	23
503.830	1	24
504.000	1	27
504.170	1	17
504.340	1	11
504.511	1	21
504.681	1	21
504.851	1	14
505.021	1	26
505.192	1	13
505.362	1	10
505.532	1	18
505.702	1	33
505.872	1	22
506.043	1	26
506.213	1	23
506.383	1	17
506.553	1	26
506.723	1	10
506.893	1	21
507.064	1	18
507.234	1	10
507.404	1	8
507.574	1	17
507.744	1	16
507.915	1	21
508.085	1	23
508.255	1	20
508.425	1	19
508.595	1	32
508.766	1	-2
508.936	1	21
509.106	1	30
509.276	1	21
509.446	1	9
509.616	1	21
509.787	1	14
509.957	1	18
510.127	1	4
510.297	1	6
510.467	1	20
510.638	1	17
510.808	1	21
510.978	1	6
511.148	1	19
511.318	1	20
511.488	1	18
511.659	1	18
511.829	1	15
511.999	1	18
512.169	1	23
512.339	1	22
512.509	1	15
512.680	1	10
512.850	1	16
513.020	1	17
513.190	1	15
513.360	1	19
513.530	1	19
513.700	1	26
513.871	1	6
514.041	1	24
514.211	1	27
514.381	1	22
514.551	1	7
514.721	1	18
514.892	1	15
515.062	1	18
515.232	1	14
515.402	1	20
515.572	1	9
515.742	1	14
515.912	1	14
516.083	1	18
516.253	1	24
516.423	1	24
516.593	1	17
516.763	1	20
516.933	1	24
517.104	1	21
517.274	1	15
517.444	1	20
517.614	1	7
517.784	1	15
517.954	1	15
518.124	1	19
518.294	1	18
518.465	1	10
518.635	1	23
518.805	1	16
518.975	1	20
519.145	1	7
519.315	1	16
519.485	1	13
519.656	1	12
519.826	1	13
519.996	1	21
520.166	1	10
520.336	1	13
520.506	1	14
520.676	1	11
520.846	1	18
521.017	1	11
521.187	1	18
521.357	1	10
521.527	1	8
521.697	1	6
521.867	1	21
522.037	1	16
522.207	1	26
522.377	1	19
522.548	1	3
522.718	1	13
522.888	1	11
523.058	1	20
523.228	1	8
523.398	1	16
523.568	1	6
523.738	1	15
523.909	1	13
524.079	1	10
524.249	1	3
524.419	1	10
524.589	1	12
524.759	1	18
524.929	1	13
525.099	1	9
525.269	1	10
525.439	1	8
525.610	1	27
525.780	1	13
525.950	1	14
526.120	1	-5
526.290	1	16
526.460	1	4
526.630	1	16
526.800	1	5
526.970	1	19
527.140	1	14
527.311	1	7
527.481	1	18
527.651	1	11
527.821	1	-2
527.991	1	15
528.161	1	20
528.331	1	13
528.501	1	10
528.671	1	19
528.841	1	8
529.011	1	7
529.181	1	8
529.352	1	9
529.522	1	16
529.692	1	16
529.862	1	13
530.032	1	10
530.202	1	8
530.372	1	13
530.542	1	6
530.712	1	12
530.882	1	7
531.052	1	16
531.222	1	4
531.392	1	10
531.563	1	14
531.733	1	10
531.903	1	12
532.073	1	15
532.243	1	21
532.413	1	17
532.583	1	9
532.753	1	-3
532.923	1	20
533.093	1	0
533.263	1	15
533.433	1	8
533.603	1	11
533.773	1	16
533.943	1	16
534.113	1	17
534.284	1	16
534.454	1	2
534.624	1	11
534.794	1	4
534.964	1	16
535.134	1	-3
535.304	1	12
535.474	1	15
535.644	1	9
535.814	1	9
535.984	1	21
536.154	1	7
536.324	1	15
536.494	1	18
536.664	1	11
536.834	1	10
537.004	1	10
537.174	1	24
537.344	1	10
537.514	1	6
537.685	1	22
537.855	1	15
538.025	1	20
538.195	1	7
538.365	1	6
538.535	1	12
538.705	1	9
538.875	1	4
539.045	1	15
539.215	1	5
539.385	1	17
539.555	1	7
539.725	1	8
539.895	1	17
540.065	1	9
540.235	1	12
540.405	1	10
540.575	1	11
540.745	1	15
540.915	1	13
541.085	1	4
541.255	1	2
541.425	1	11
541.595	1	14
541.765	1	17
541.935	1	11
542.105	1	9
542.275	1	14
542.445	1	11
542.615	1	16
542.785	1	1
542.955	1	16
543.125	1	1
543.295	1	9
543.465	1	11
543.635	1	5
543.805	1	16
543.975	1	-1
544.145	1	16
544.315	1	-3
544.485	1	6
544.655	1	10
544.825	1	16
544.995	1	5
545.165	1	7
545.335	1	16
545.505	1	9
545.675	1	12
545.845	1	18
546.015	1	5
546.185	1	14
546.355	1	5
546.525	1	15
546.695	1	11
546.865	1	13
547.035	1	10
547.205	1	17
547.375	1	12
547.545	1	8
547.715	1	14
547.885	1	8
548.055	1	-2
548.225	1	13
548.395	1	15
548.565	1	9
548.735	1	-2
548.905	1	7
549.075	1	7
549.245	1	11
549.415	1	8
549.585	1	12
549.755	1	18
549.925	1	13
550.095	1	1
550.265	1	9
550.435	1	13
550.605	1	6
550.775	1	6
550.945	1	9
551.115	1	10
551.285	1	12
551.455	1	17
551.625	1	4
551.795	1	4
551.965	1	5
552.135	1	4
552.305	1	7
552.475	1	15
552.645	1	9
552.815	1	3
552.985	1	5
553.155	1	10
553.325	1	8
553.495	1	4
553.665	1	8
553.835	1	13
554.004	1	8
554.174	1	6
554.344	1	11
554.514	1	8
554.684	1	15
554.854	1	6
555.024	1	24
555.194	1	12
555.364	1	6
555.534	1	3
555.704	1	14
555.874	1	14
556.044	1	8
556.214	1	11
556.384	1	20
556.554	1	11
556.724	1	7
556.894	1	3
557.064	1	6
557.234	1	9
557.404	1	8
557.573	1	12
557.743	1	-1
557.913	1	10
558.083	1	8
558.253	1	3
558.423	1	11
558.593	1	7
558.763	1	8
558.933	1	4
559.103	1	7
559.273	1	22
559.443	1	9
559.613	1	10
559.783	1	-1
559.953	1	-4
560.122	1	4
560.292	1	1
560.462	1	-3
560.632	1	10
560.802	1	15
560.972	1	-3
561.142	1	8
561.312	1	9
561.482	1	18
561.652	1	3
561.822	1	0
561.992	1	12
562.162	1	4
562.331	1	8
562.501	1	5
562.671	1	-1
562.841	1	-6
563.011	1	10
563.181	1	1
563.351	1	7
563.521	1	5
563.691	1	7
563.861	1	8
564.031	1	1
564.201	1	5
564.370	1	14
564.540	1	4
564.710	1	8
564.880	1	7
565.050	1	11
565.220	1	8
565.390	1	-4
565.560	1	10
565.730	1	9
565.900	1	7
566.069	1	10
566.239	1	17
566.409	1	8
566.579	1	10
566.749	1	8
566.919	1	-2
567.089	1	-13
567.259	1	12
567.429	1	-10
567.599	1	18
567.768	1	1
567.938	1	14
568.108	1	3
568.278	1	10
568.448	1	6
568.618	1	5
568.788	1	7
568.958	1	-1
569.128	1	4
569.297	1	3
569.467	1	8
569.637	1	16
569.807	1	9
569.977	1	-4
570.147	1	9
570.317	1	13
570.487	1	10
570.656	1	10
570.826	1	3
570.996	1	16
571.166	1	-1
571.336	1	4
571.506	1	9
571.676	1	12
571.846	1	12
572.015	1	12
572.185	1	6
572.355	1	4
572.525	1	1
572.695	1	2
572.865	1	12
573.035	1	7
573.205	1	2
573.374	1	-7
573.544	1	0
573.714	1	2
573.884	1	10
574.054	1	3
574.224	1	7
574.394	1	7
574.563	1	-3
574.733	1	3
574.903	1	11
575.073	1	8
575.243	1	4
575.413	1	2
575.583	1	-1
575.752	1	4
575.922	1	12
576.092	1	-4
576.262	1	8
576.432	1	7
576.602	1	9
576.772	1	8
576.941	1	8
577.111	1	1
577.281	1	6
577.451	1	8
577.621	1	8
577.791	1	2
577.960	1	-1
578.130	1	2
578.300	1	1
578.470	1	8
578.640	1	0
578.810	1	9
578.979	1	11
579.149	1	6
579.319	1	10
579.489	1	16
579.659	1	8
579.829	1	3
579.998	1	-1
580.168	1	0
580.338	1	4
580.508	1	5
580.678	1	8
580.848	1	12
581.017	1	7
581.187	1	6
581.357	1	13
581.527	1	10
581.697	1	9
581.867	1	1
582.036	1	-1
582.206	1	11
582.376	1	10
582.546	1	1
582.716	1	8
582.885	1	4
583.055	1	-3
583.225	1	3
583.395	1	4
583.565	1	8
583.735	1	-1
583.904	1	4
584.074	1	7
584.244	1	-6
584.414	1	1
584.584	1	7
584.753	1	2
584.923	1	1
585.093	1	11
585.263	1	5
585.433	1	7
585.602	1	7
585.772	1	18
585.942	1	8
586.112	1	5
586.282	1	11
586.451	1	19
586.621	1	4
586.791	1	2
586.961	1	6
587.131	1	-5
587.300	1	15
587.470	1	8
587.640	1	10
587.810	1	-10
587.980	1	12
588.149	1	10
588.319	1	19
588.489	1	14
588.659	1	2
588.829	1	8
588.998	1	7
589.168	1	0
589.338	1	6
589.508	1	13
589.677	1	1
589.847	1	11
590.017	1	7
590.187	1	13
590.357	1	0
590.526	1	-4
590.696	1	11
590.866	1	6
591.036	1	12
591.205	1	12
591.375	1	8
591.545	1	7
591.715	1	0
591.885	1	4
592.054	1	5
592.224	1	11
592.394	1	-6
592.564	1	3
592.733	1	4
592.903	1	8
593.073	1	2
593.243	1	12
593.412	1	7
593.582	1	9
593.752	1	-10
593.922	1	9
594.091	1	16
594.261	1	-9
594.431	1	-1
594.601	1	2
594.771	1	14
594.940	1	3
595.110	1	3
595.280	1	6
595.450	1	4
595.619	1	7
595.789	1	-6
595.959	1	-4
596.129	1	2
596.298	1	16
596.468	1	5
596.638	1	6
596.808	1	2
596.977	1	0
597.147	1	5
597.317	1	4
597.487	1	9
597.656	1	9
597.826	1	5
597.996	1	4
598.166	1	8
598.335	1	1
598.505	1	7
598.675	1	3
598.844	1	19
599.014	1	-2
599.184	1	10
599.354	1	18
599.523	1	-1
599.693	1	13
599.863	1	13
600.033	1	11
600.202	1	11
600.372	1	3
600.542	1	6
600.712	1	11
600.881	1	11
601.051	1	13
601.221	1	11
601.390	1	6
601.560	1	18
601.730	1	4
601.900	1	9
602.069	1	10
602.239	1	-3
602.409	1	8
602.578	1	8
602.748	1	17
602.918	1	4
603.088	1	4
603.257	1	4
603.427	1	13
603.597	1	2
603.767	1	8
603.936	1	7
604.106	1	7
604.276	1	9
604.445	1	0
604.615	1	-2
604.785	1	15
604.954	1	8
605.124	1	10
605.294	1	3
605.464	1	5
605.633	1	7
605.803	1	6
605.973	1	7
606.142	1	15
606.312	1	18
606.482	1	-5
606.652	1	4
606.821	1	10
606.991	1	14
607.161	1	6
607.330	1	2
607.500	1	14
607.670	1	17
607.839	1	5
608.009	1	3
608.179	1	5
608.348	1	14
608.518	1	11
608.688	1	7
608.858	1	0
609.027	1	22
609.197	1	13
609.367	1	7
609.536	1	2
609.706	1	12
609.876	1	13
610.045	1	15
610.215	1	7
610.385	1	7
610.554	1	15
610.724	1	5
610.894	1	1
611.063	1	0
611.233	1	6
611.403	1	9
611.572	1	-1
611.742	1	6
611.912	1	8
612.081	1	15
612.251	1	12
612.421	1	10
612.590	1	11
612.760	1	5
612.930	1	14
613.099	1	12
613.269	1	8
613.439	1	-1
613.608	1	13
613.778	1	11
613.948	1	18
614.117	1	5
614.287	1	4
614.457	1	14
614.626	1	5
614.796	1	16
614.966	1	12
615.135	1	21
615.305	1	18
615.475	1	7
615.644	1	18
615.814	1	15
615.984	1	1
616.153	1	13
616.323	1	4
616.493	1	6
616.662	1	8
616.832	1	5
617.002	1	6
617.171	1	6
617.341	1	16
617.511	1	-6
617.680	1	-2
617.850	1	14
618.019	1	2
618.189	1	19
618.359	1	6
618.528	1	6
618.698	1	19
618.868	1	3
619.037	1	4
619.207	1	7
619.377	1	4
619.546	1	17
619.716	1	7
619.885	1	7
620.055	1	-2
620.225	1	8
620.394	1	6
620.564	1	11
620.734	1	14
620.903	1	0
621.073	1	19
621.242	1	4
621.412	1	3
621.582	1	17
621.751	1	4
621.921	1	16
622.091	1	4
622.260	1	13
622.430	1	14
622.599	1	7
622.769	1	7
622.939	1	8
623.108	1	15
623.278	1	8
623.448	1	10
623.617	1	18
623.787	1	8
623.956	1	15
624.126	1	14
624.296	1	13
624.465	1	17
624.635	1	1
624.804	1	19
624.974	1	4
625.144	1	7
625.313	1	22
625.483	1	16
625.652	1	11
625.822	1	14
625.992	1	2
626.161	1	15
626.331	1	11
626.501	1	12
626.670	1	1
626.840	1	5
627.009	1	12
627.179	1	4
627.348	1	3
627.518	1	24
627.688	1	-2
627.857	1	18
628.027	1	16
628.196	1	12
628.366	1	-3
628.536	1	8
628.705	1	-8
628.875	1	6
629.044	1	4
629.214	1	13
629.384	1	12
629.553	1	4
629.723	1	13
629.892	1	11
630.062	1	9
630.232	1	16
630.401	1	19
630.571	1	5
630.740	1	7
630.910	1	17
631.079	1	7
631.249	1	4
631.419	1	7
631.588	1	11
631.758	1	6
631.927	1	14
632.097	1	4
632.266	1	19
632.436	1	6
632.606	1	13
632.775	1	12
632.945	1	-2
633.114	1	3
633.284	1	6
633.453	1	12
633.623	1	24
633.793	1	4
633.962	1	19
634.132	1	9
634.301	1	13
634.471	1	8
634.640	1	0
634.810	1	10
634.979	1	8
635.149	1	7
635.319	1	4
635.488	1	12
635.658	1	9
635.827	1	12
635.997	1	7
636.166	1	10
636.336	1	-3
636.505	1	14
636.675	1	6
636.845	1	9
637.014	1	3
637.184	1	13
637.353	1	12
637.523	1	9
637.692	1	12
637.862	1	6
638.031	1	1
638.201	1	25
638.370	1	13
638.540	1	-5
638.710	1	0
638.879	1	9
639.049	1	9
639.218	1	13
639.388	1	4
639.557	1	17
639.727	1	16
639.896	1	10
640.066	1	3
640.235	1	10
640.405	1	9
640.574	1	17
640.744	1	11
640.914	1	8
641.083	1	12
641.253	1	7
641.422	1	-5
641.592	1	13
641.761	1	4
641.931	1	16
642.100	1	9
642.270	1	-2
642.439	1	17
642.609	1	12
642.778	1	11
642.948	1	25
643.117	1	14
643.287	1	11
643.456	1	8
643.626	1	16
643.795	1	6
643.965	1	16
644.134	1	2
644.304	1	16
644.473	1	16
644.643	1	10
644.812	1	-3
644.982	1	13
645.151	1	3
645.321	1	14
645.490	1	19
645.660	1	7
645.829	1	12
645.999	1	1
646.168	1	24
646.338	1	4
646.507	1	10
646.677	1	12
646.846	1	13
647.016	1	12
647.185	1	10
647.355	1	14
647.524	1	12
647.694	1	5
647.863	1	6
648.033	1	11
648.202	1	14
648.372	1	2
648.541	1	15
648.711	1	15
648.880	1	17
649.050	1	17
649.219	1	15
649.389	1	5
649.558	1	22
649.728	1	13
649.897	1	18
650.067	1	18
650.236	1	5
650.406	1	-3
650.575	1	9
650.745	1	20
650.914	1	15
651.084	1	15
651.253	1	10
651.423	1	7
651.592	1	8
651.762	1	13
651.931	1	20
652.101	1	12
652.270	1	13
652.440	1	16
652.609	1	6
652.778	1	13
652.948	1	4
653.117	1	13
653.287	1	5
653.456	1	16
653.626	1	18
653.795	1	17
653.965	1	8
654.134	1	4
654.304	1	14
654.473	1	5
654.643	1	9
654.812	1	23
654.982	1	17
655.151	1	22
655.320	1	5
655.490	1	11
655.659	1	20
655.829	1	19
655.998	1	16
656.168	1	3
656.337	1	13
656.507	1	4
656.676	1	5
656.846	1	15
657.015	1	20
657.184	1	11
657.354	1	9
657.523	1	10
657.693	1	16
657.862	1	2
658.032	1	3
658.201	1	3
658.371	1	15
658.540	1	9
658.709	1	18
658.879	1	24
659.048	1	19
659.218	1	17
659.387	1	25
659.557	1	3
659.726	1	6
659.895	1	9
660.065	1	12
660.234	1	12
660.404	1	8
660.573	1	14
660.743	1	10
660.912	1	14
661.081	1	17
661.251	1	10
661.420	1	15
661.590	1	6
661.759	1	14
661.929	1	11
662.098	1	19
662.267	1	6
662.437	1	10
662.606	1	8
662.776	1	15
662.945	1	22
663.115	1	30
663.284	1	12
663.453	1	9
663.623	1	6
663.792	1	22
663.962	1	17
664.131	1	8
664.300	1	13
664.470	1	8
664.639	1	12
664.809	1	10
664.978	1	21
665.148	1	20
665.317	1	13
665.486	1	9
665.656	1	14
665.825	1	16
665.995	1	0
666.164	1	9
666.333	1	17
666.503	1	5
666.672	1	14
666.842	1	6
667.011	1	11
667.180	1	15
667.350	1	12
667.519	1	18
667.689	1	12
667.858	1	21
668.027	1	12
668.197	1	2
668.366	1	13
668.536	1	3
668.705	1	5
668.874	1	19
669.044	1	15
669.213	1	19
669.382	1	24
669.552	1	21
669.721	1	7
669.891	1	11
670.060	1	12
670.229	1	16
670.399	1	16
670.568	1	19
670.738	1	12
670.907	1	17
671.076	1	17
671.246	1	20
671.415	1	14
671.584	1	19
671.754	1	-1
671.923	1	9
672.093	1	11
672.262	1	6
672.431	1	18
672.601	1	21
672.770	1	14
672.939	1	12
673.109	1	8
673.278	1	13
673.448	1	16
673.617	1	11
673.786	1	5
