325.333	1	23
325.504	1	7
325.675	1	20
325.846	1	8
326.017	1	14
326.188	1	13
326.359	1	17
326.531	1	-1
326.702	1	11
326.873	1	20
327.044	1	17
327.215	1	3
327.386	1	2
327.557	1	14
327.728	1	8
327.899	1	17
328.070	1	27
328.241	1	13
328.412	1	21
328.583	1	21
328.754	1	18
328.926	1	25
329.097	1	14
329.268	1	13
329.439	1	29
329.610	1	16
329.781	1	27
329.952	1	22
330.123	1	11
330.294	1	18
330.465	1	6
330.636	1	21
330.807	1	23
330.978	1	12
331.149	1	9
331.320	1	26
331.492	1	12
331.663	1	15
331.834	1	26
332.005	1	13
332.176	1	22
332.347	1	10
332.518	1	22
332.689	1	19
332.860	1	23
333.031	1	20
333.202	1	17
333.373	1	27
333.544	1	24
333.715	1	14
333.886	1	23
334.057	1	16
334.228	1	26
334.399	1	28
334.570	1	30
334.741	1	23
334.912	1	20
335.084	1	31
335.255	1	33
335.426	1	25
335.597	1	22
335.768	1	29
335.939	1	36
336.110	1	25
336.281	1	18
336.452	1	30
336.623	1	19
336.794	1	19
336.965	1	25
337.136	1	34
337.307	1	16
337.478	1	22
337.649	1	25
337.820	1	24
337.991	1	31
338.162	1	20
338.333	1	32
338.504	1	34
338.675	1	19
338.846	1	15
339.017	1	39
339.188	1	23
339.359	1	24
339.530	1	22
339.701	1	24
339.872	1	37
340.043	1	30
340.214	1	25
340.385	1	27
340.556	1	23
340.727	1	28
340.898	1	30
341.069	1	18
341.240	1	30
341.411	1	31
341.582	1	19
341.753	1	34
341.924	1	41
342.095	1	34
342.266	1	34
342.437	1	28
342.608	1	35
342.779	1	27
342.950	1	24
343.121	1	37
343.292	1	34
343.463	1	40
343.634	1	27
343.805	1	36
343.976	1	41
344.147	1	37
344.318	1	25
344.489	1	30
344.660	1	42
344.831	1	42
345.002	1	32
345.173	1	41
345.344	1	27
345.515	1	32
345.686	1	31
345.857	1	42
346.028	1	38
346.199	1	36
346.370	1	36
346.541	1	32
346.712	1	36
346.883	1	25
347.054	1	43
347.225	1	30
347.396	1	35
347.567	1	26
347.738	1	42
347.909	1	40
348.080	1	29
348.251	1	32
348.422	1	42
348.593	1	33
348.764	1	45
348.935	1	42
349.106	1	37
349.277	1	42
349.448	1	38
349.619	1	40
349.790	1	40
349.961	1	25
350.132	1	48
350.303	1	40
350.474	1	46
350.645	1	35
350.816	1	42
350.987	1	47
351.157	1	36
351.328	1	35
351.499	1	40
351.670	1	48
351.841	1	48
352.012	1	46
352.183	1	45
352.354	1	43
352.525	1	41
352.696	1	40
352.867	1	42
353.038	1	50
353.209	1	47
353.380	1	47
353.551	1	54
353.722	1	49
353.893	1	47
354.064	1	45
354.235	1	48
354.406	1	38
354.576	1	45
354.747	1	51
354.918	1	54
355.089	1	60
355.260	1	41
355.431	1	42
355.602	1	42
355.773	1	40
355.944	1	37
356.115	1	49
356.286	1	47
356.457	1	45
356.628	1	46
356.799	1	51
356.970	1	56
357.141	1	46
357.311	1	47
357.482	1	52
357.653	1	49
357.824	1	46
357.995	1	57
358.166	1	43
358.337	1	44
358.508	1	61
358.679	1	43
358.850	1	60
359.021	1	44
359.192	1	56
359.363	1	46
359.533	1	57
359.704	1	47
359.875	1	48
360.046	1	52
360.217	1	56
360.388	1	65
360.559	1	58
360.730	1	52
360.901	1	48
361.072	1	57
361.243	1	48
361.414	1	59
361.584	1	51
361.755	1	52
361.926	1	52
362.097	1	50
362.268	1	58
362.439	1	43
362.610	1	59
362.781	1	45
362.952	1	67
363.123	1	38
363.293	1	47
363.464	1	54
363.635	1	56
363.806	1	57
363.977	1	54
364.148	1	46
364.319	1	53
364.490	1	55
364.661	1	60
364.832	1	56
365.002	1	62
365.173	1	62
365.344	1	61
365.515	1	51
365.686	1	55
365.857	1	64
366.028	1	58
366.199	1	58
366.370	1	62
366.540	1	61
366.711	1	54
366.882	1	52
367.053	1	53
367.224	1	61
367.395	1	50
367.566	1	58
367.737	1	52
367.908	1	60
368.078	1	39
368.249	1	47
368.420	1	55
368.591	1	64
368.762	1	52
368.933	1	52
369.104	1	57
369.274	1	61
369.445	1	57
369.616	1	54
369.787	1	50
369.958	1	57
370.129	1	46
370.300	1	62
370.471	1	47
370.641	1	52
370.812	1	60
370.983	1	54
371.154	1	54
371.325	1	58
371.496	1	55
371.667	1	60
371.837	1	55
372.008	1	46
372.179	1	48
372.350	1	53
372.521	1	67
372.692	1	66
372.863	1	53
373.033	1	58
373.204	1	57
373.375	1	56
373.546	1	62
373.717	1	56
373.888	1	62
374.059	1	55
374.229	1	63
374.400	1	50
374.571	1	60
374.742	1	58
374.913	1	50
375.084	1	59
375.254	1	53
375.425	1	58
375.596	1	64
375.767	1	60
375.938	1	52
376.109	1	58
376.279	1	58
376.450	1	60
376.621	1	65
376.792	1	70
376.963	1	56
377.134	1	59
377.304	1	72
377.475	1	57
377.646	1	51
377.817	1	70
377.988	1	63
378.159	1	64
378.329	1	63
378.500	1	75
378.671	1	64
378.842	1	64
379.013	1	65
379.184	1	58
379.354	1	57
379.525	1	78
379.696	1	79
379.867	1	64
380.038	1	58
380.209	1	65
380.379	1	73
380.550	1	65
380.721	1	60
380.892	1	56
381.063	1	64
381.233	1	60
381.404	1	70
381.575	1	68
381.746	1	63
381.917	1	69
382.087	1	71
382.258	1	72
382.429	1	65
382.600	1	68
382.771	1	58
382.941	1	77
383.112	1	63
383.283	1	64
383.454	1	58
383.625	1	78
383.795	1	70
383.966	1	64
384.137	1	72
384.308	1	68
384.479	1	69
384.649	1	56
384.820	1	69
384.991	1	60
385.162	1	80
385.333	1	69
385.503	1	75
385.674	1	68
385.845	1	68
386.016	1	76
386.187	1	67
386.357	1	82
386.528	1	68
386.699	1	65
386.870	1	72
387.041	1	77
387.211	1	73
387.382	1	80
387.553	1	73
387.724	1	84
387.894	1	74
388.065	1	60
388.236	1	70
388.407	1	78
388.578	1	79
388.748	1	88
388.919	1	74
389.090	1	87
389.261	1	78
389.431	1	64
389.602	1	68
389.773	1	82
389.944	1	83
390.114	1	70
390.285	1	85
390.456	1	75
390.627	1	63
390.798	1	75
390.968	1	81
391.139	1	80
391.310	1	71
391.481	1	74
391.651	1	87
391.822	1	86
391.993	1	76
392.164	1	75
392.334	1	75
392.505	1	71
392.676	1	76
392.847	1	73
393.017	1	72
393.188	1	78
393.359	1	89
393.530	1	87
393.700	1	76
393.871	1	79
394.042	1	71
394.213	1	79
394.383	1	87
394.554	1	77
394.725	1	71
394.896	1	79
395.066	1	82
395.237	1	82
395.408	1	86
395.579	1	87
395.749	1	98
395.920	1	83
396.091	1	72
396.262	1	83
396.432	1	73
396.603	1	83
396.774	1	77
396.945	1	87
397.115	1	90
397.286	1	87
397.457	1	78
397.627	1	86
397.798	1	78
397.969	1	82
398.140	1	90
398.310	1	78
398.481	1	79
398.652	1	93
398.823	1	84
398.993	1	83
399.164	1	89
399.335	1	76
399.505	1	76
399.676	1	75
399.847	1	80
400.018	1	78
400.188	1	84
400.359	1	77
400.530	1	82
400.700	1	92
400.871	1	80
401.042	1	92
401.213	1	95
401.383	1	82
401.554	1	82
401.725	1	75
401.895	1	71
402.066	1	80
402.237	1	82
402.408	1	85
402.578	1	97
402.749	1	78
402.920	1	89
403.090	1	79
403.261	1	80
403.432	1	75
403.603	1	81
403.773	1	100
403.944	1	89
404.115	1	90
404.285	1	85
404.456	1	85
404.627	1	92
404.797	1	90
404.968	1	79
405.139	1	83
405.310	1	73
405.480	1	81
405.651	1	81
405.822	1	81
405.992	1	90
406.163	1	79
406.334	1	95
406.504	1	87
406.675	1	76
406.846	1	95
407.016	1	89
407.187	1	86
407.358	1	73
407.528	1	90
407.699	1	87
407.870	1	81
408.041	1	76
408.211	1	90
408.382	1	100
408.553	1	96
408.723	1	94
408.894	1	91
409.065	1	96
409.235	1	97
409.406	1	84
409.577	1	93
409.747	1	101
409.918	1	101
410.089	1	102
410.259	1	92
410.430	1	78
410.601	1	92
410.771	1	101
410.942	1	87
411.113	1	92
411.283	1	86
411.454	1	101
411.625	1	82
411.795	1	93
411.966	1	87
412.137	1	97
412.307	1	84
412.478	1	90
412.649	1	93
412.819	1	92
412.990	1	97
413.161	1	102
413.331	1	80
413.502	1	78
413.672	1	88
413.843	1	82
414.014	1	81
414.184	1	98
414.355	1	93
414.526	1	95
414.696	1	84
414.867	1	84
415.038	1	82
415.208	1	81
415.379	1	78
415.550	1	95
415.720	1	78
415.891	1	89
416.062	1	93
416.232	1	92
416.403	1	84
416.573	1	82
416.744	1	97
416.915	1	90
417.085	1	82
417.256	1	91
417.427	1	87
417.597	1	77
417.768	1	95
417.939	1	80
418.109	1	86
418.280	1	95
418.450	1	98
418.621	1	94
418.792	1	82
418.962	1	90
419.133	1	77
419.304	1	87
419.474	1	93
419.645	1	93
419.815	1	78
419.986	1	96
420.157	1	85
420.327	1	78
420.498	1	86
420.669	1	97
420.839	1	99
421.010	1	85
421.180	1	77
421.351	1	89
421.522	1	89
421.692	1	91
421.863	1	96
422.033	1	98
422.204	1	97
422.375	1	84
422.545	1	90
422.716	1	79
422.886	1	85
423.057	1	81
423.228	1	64
423.398	1	88
423.569	1	90
423.740	1	84
423.910	1	87
424.081	1	93
424.251	1	78
424.422	1	80
424.593	1	89
424.763	1	88
424.934	1	74
425.104	1	96
425.275	1	75
425.445	1	83
425.616	1	72
425.787	1	74
425.957	1	69
426.128	1	86
426.298	1	91
426.469	1	67
426.640	1	80
426.810	1	66
426.981	1	95
427.151	1	68
427.322	1	83
427.493	1	71
427.663	1	83
427.834	1	70
428.004	1	86
428.175	1	76
428.345	1	70
428.516	1	75
428.687	1	88
428.857	1	93
429.028	1	72
429.198	1	73
429.369	1	79
429.540	1	84
429.710	1	75
429.881	1	73
430.051	1	71
430.222	1	90
430.392	1	83
430.563	1	79
430.734	1	70
430.904	1	77
431.075	1	88
431.245	1	78
431.416	1	84
431.586	1	79
431.757	1	93
431.927	1	78
432.098	1	73
432.269	1	75
432.439	1	76
432.610	1	86
432.780	1	78
432.951	1	85
433.121	1	84
433.292	1	83
433.462	1	83
433.633	1	76
433.804	1	87
433.974	1	72
434.145	1	67
434.315	1	72
434.486	1	68
434.656	1	72
434.827	1	82
434.997	1	80
435.168	1	79
435.339	1	89
435.509	1	75
435.680	1	84
435.850	1	70
436.021	1	71
436.191	1	77
436.362	1	76
436.532	1	78
436.703	1	75
436.873	1	86
437.044	1	75
437.214	1	74
437.385	1	74
437.556	1	78
437.726	1	77
437.897	1	72
438.067	1	75
438.238	1	83
438.408	1	84
438.579	1	66
438.749	1	73
438.920	1	83
439.090	1	68
439.261	1	84
439.431	1	64
439.602	1	78
439.772	1	75
439.943	1	66
440.113	1	68
440.284	1	75
440.455	1	69
440.625	1	77
440.796	1	59
440.966	1	79
441.137	1	65
441.307	1	74
441.478	1	56
441.648	1	64
441.819	1	76
441.989	1	82
442.160	1	78
442.330	1	67
442.501	1	73
442.671	1	62
442.842	1	73
443.012	1	67
443.183	1	67
443.353	1	78
443.524	1	67
443.694	1	65
443.865	1	76
444.035	1	71
444.206	1	71
444.376	1	60
444.547	1	70
444.717	1	67
444.888	1	63
445.058	1	60
445.229	1	74
445.399	1	77
445.570	1	69
445.740	1	78
445.911	1	73
446.081	1	74
446.252	1	71
446.422	1	63
446.593	1	61
446.763	1	63
446.934	1	64
447.104	1	65
447.275	1	64
447.445	1	63
447.616	1	71
447.786	1	71
447.957	1	72
448.127	1	63
448.298	1	70
448.468	1	69
448.639	1	56
448.809	1	65
448.979	1	78
449.150	1	58
449.320	1	62
449.491	1	61
449.661	1	63
449.832	1	69
450.002	1	59
450.173	1	70
450.343	1	63
450.514	1	71
450.684	1	66
450.855	1	63
451.025	1	63
451.196	1	61
451.366	1	66
451.537	1	72
451.707	1	72
451.878	1	57
452.048	1	60
452.218	1	57
452.389	1	66
452.559	1	73
452.730	1	69
452.900	1	59
453.071	1	64
453.241	1	61
453.412	1	64
453.582	1	58
453.753	1	73
453.923	1	53
454.093	1	56
454.264	1	64
454.434	1	60
454.605	1	60
454.775	1	63
454.946	1	66
455.116	1	63
455.287	1	51
455.457	1	55
455.628	1	56
455.798	1	71
455.968	1	50
456.139	1	66
456.309	1	62
456.480	1	59
456.650	1	64
456.821	1	49
456.991	1	60
457.161	1	64
457.332	1	48
457.502	1	54
457.673	1	53
457.843	1	55
458.014	1	60
458.184	1	65
458.355	1	69
458.525	1	57
458.695	1	55
458.866	1	41
459.036	1	56
459.207	1	50
459.377	1	66
459.548	1	58
459.718	1	61
459.888	1	45
460.059	1	51
460.229	1	46
460.400	1	53
460.570	1	44
460.740	1	51
460.911	1	42
461.081	1	57
461.252	1	63
461.422	1	50
461.593	1	53
461.763	1	64
461.933	1	52
462.104	1	41
462.274	1	50
462.445	1	49
462.615	1	62
462.785	1	59
462.956	1	46
463.126	1	57
463.297	1	55
463.467	1	58
463.638	1	61
463.808	1	57
463.978	1	33
464.149	1	64
464.319	1	67
464.490	1	42
464.660	1	47
464.830	1	55
465.001	1	62
465.171	1	60
465.342	1	49
465.512	1	58
465.682	1	30
465.853	1	47
466.023	1	52
466.194	1	53
466.364	1	62
466.534	1	47
466.705	1	68
466.875	1	30
467.045	1	42
467.216	1	43
467.386	1	50
467.557	1	54
467.727	1	45
467.897	1	48
468.068	1	43
468.238	1	47
468.409	1	43
468.579	1	47
468.749	1	49
468.920	1	39
469.090	1	57
469.260	1	39
469.431	1	29
469.601	1	48
469.772	1	57
469.942	1	45
470.112	1	45
470.283	1	55
470.453	1	42
470.623	1	55
470.794	1	41
470.964	1	33
471.135	1	43
471.305	1	49
471.475	1	45
471.646	1	47
471.816	1	46
471.986	1	45
472.157	1	53
472.327	1	41
472.497	1	37
472.668	1	45
472.838	1	52
473.009	1	53
473.179	1	46
473.349	1	47
473.520	1	51
473.690	1	33
473.860	1	44
474.031	1	42
474.201	1	53
474.371	1	50
474.542	1	44
474.712	1	39
474.882	1	43
475.053	1	44
475.223	1	49
475.394	1	39
475.564	1	53
475.734	1	44
475.905	1	57
476.075	1	51
476.245	1	41
476.416	1	38
476.586	1	41
476.756	1	43
476.927	1	41
477.097	1	40
477.267	1	38
477.438	1	47
477.608	1	56
477.778	1	35
477.949	1	35
478.119	1	41
478.289	1	48
478.460	1	43
478.630	1	33
478.800	1	38
478.971	1	39
479.141	1	38
479.311	1	45
479.482	1	40
479.652	1	36
479.822	1	26
479.993	1	34
480.163	1	39
480.333	1	51
480.504	1	39
480.674	1	38
480.844	1	36
481.015	1	47
481.185	1	50
481.355	1	48
481.525	1	36
481.696	1	38
481.866	1	46
482.036	1	39
482.207	1	39
482.377	1	38
482.547	1	38
482.718	1	42
482.888	1	51
483.058	1	36
483.229	1	37
483.399	1	40
483.569	1	33
483.740	1	44
483.910	1	36
484.080	1	43
484.250	1	23
484.421	1	25
484.591	1	25
484.761	1	37
484.932	1	35
485.102	1	45
485.272	1	31
485.443	1	50
485.613	1	42
485.783	1	38
485.953	1	25
486.124	1	25
486.294	1	42
486.464	1	37
486.635	1	25
486.805	1	30
486.975	1	33
487.146	1	43
487.316	1	29
487.486	1	42
487.656	1	49
487.827	1	24
487.997	1	22
488.167	1	34
488.338	1	36
488.508	1	43
488.678	1	36
488.848	1	29
489.019	1	32
489.189	1	39
489.359	1	38
489.529	1	32
489.700	1	27
489.870	1	45
490.040	1	31
490.211	1	26
490.381	1	29
490.551	1	37
490.721	1	25
490.892	1	24
491.062	1	34
491.232	1	26
491.402	1	31
491.573	1	42
491.743	1	31
491.913	1	36
492.084	1	29
492.254	1	35
492.424	1	28
492.594	1	27
492.765	1	38
492.935	1	42
493.105	1	28
493.275	1	38
493.446	1	27
493.616	1	19
493.786	1	33
493.956	1	28
494.127	1	28
494.297	1	23
494.467	1	29
494.637	1	37
494.808	1	30
494.978	1	32
495.148	1	29
495.318	1	25
495.489	1	23
495.659	1	35
495.829	1	34
495.999	1	38
496.170	1	35
496.340	1	29
496.510	1	35
496.680	1	33
496.851	1	35
497.021	1	23
497.191	1	32
497.361	1	29
497.532	1	28
497.702	1	35
497.872	1	39
498.042	1	32
498.213	1	28
498.383	1	21
498.553	1	33
498.723	1	24
498.894	1	26
499.064	1	32
499.234	1	39
499.404	1	26
499.574	1	32
499.745	1	20
499.915	1	26
500.085	1	27
500.255	1	14
500.426	1	26
500.596	1	15
500.766	1	29
500.936	1	14
501.106	1	29
501.277	1	14
501.447	1	24
501.617	1	23
501.787	1	20
501.958	1	23
502.128	1	21
502.298	1	28
502.468	1	23
502.638	1	21
502.809	1	26
502.979	1	32
503.149	1	16
503.319	1	35
503.489	1	0
503.660	1	11
503.830	1	34
504.000	1	24
504.170	1	16
504.340	1	19
504.511	1	26
504.681	1	12
504.851	1	21
505.021	1	17
505.192	1	9
505.362	1	20
505.532	1	12
505.702	1	37
505.872	1	21
506.043	1	25
506.213	1	34
506.383	1	18
506.553	1	20
506.723	1	19
506.893	1	26
507.064	1	24
507.234	1	28
507.404	1	30
507.574	1	12
507.744	1	32
507.915	1	29
508.085	1	21
508.255	1	24
508.425	1	20
508.595	1	16
508.766	1	18
508.936	1	31
509.106	1	18
509.276	1	28
509.446	1	23
509.616	1	17
509.787	1	28
509.957	1	29
510.127	1	4
510.297	1	17
510.467	1	26
510.638	1	10
510.808	1	29
510.978	1	21
511.148	1	22
511.318	1	27
511.488	1	21
511.659	1	10
511.829	1	16
511.999	1	16
512.169	1	17
512.339	1	22
512.509	1	8
512.680	1	15
512.850	1	18
513.020	1	20
513.190	1	10
513.360	1	27
513.530	1	17
513.700	1	14
513.871	1	9
514.041	1	14
514.211	1	24
514.381	1	28
514.551	1	18
514.721	1	13
514.892	1	20
515.062	1	19
515.232	1	10
515.402	1	12
515.572	1	24
515.742	1	12
515.912	1	22
516.083	1	20
516.253	1	22
516.423	1	23
516.593	1	25
516.763	1	23
516.933	1	15
517.104	1	21
517.274	1	17
517.444	1	21
517.614	1	12
517.784	1	16
517.954	1	12
518.124	1	24
518.294	1	21
518.465	1	18
518.635	1	15
518.805	1	23
518.975	1	20
519.145	1	20
519.315	1	3
519.485	1	13
519.656	1	13
519.826	1	10
519.996	1	18
520.166	1	12
520.336	1	20
520.506	1	14
520.676	1	18
520.846	1	7
521.017	1	11
521.187	1	18
521.357	1	8
521.527	1	12
521.697	1	6
521.867	1	28
522.037	1	10
522.207	1	24
522.377	1	16
522.548	1	11
522.718	1	13
522.888	1	14
523.058	1	20
523.228	1	2
523.398	1	13
523.568	1	11
523.738	1	10
523.909	1	14
524.079	1	6
524.249	1	6
524.419	1	15
524.589	1	15
524.759	1	17
524.929	1	4
525.099	1	13
525.269	1	21
525.439	1	14
525.610	1	18
525.780	1	18
525.950	1	19
526.120	1	9
526.290	1	5
526.460	1	13
526.630	1	11
526.800	1	9
526.970	1	14
527.140	1	6
527.311	1	24
527.481	1	19
527.651	1	20
527.821	1	21
527.991	1	7
528.161	1	14
528.331	1	18
528.501	1	17
528.671	1	14
528.841	1	20
529.011	1	14
529.181	1	7
529.352	1	10
529.522	1	18
529.692	1	19
529.862	1	8
530.032	1	8
530.202	1	11
530.372	1	5
530.542	1	10
530.712	1	12
530.882	1	13
531.052	1	17
531.222	1	13
531.392	1	12
531.563	1	14
531.733	1	13
531.903	1	3
532.073	1	11
532.243	1	17
532.413	1	27
532.583	1	21
532.753	1	9
532.923	1	11
533.093	1	7
533.263	1	7
533.433	1	13
533.603	1	7
533.773	1	5
533.943	1	16
534.113	1	18
534.284	1	14
534.454	1	9
534.624	1	18
534.794	1	5
534.964	1	18
535.134	1	3
535.304	1	4
535.474	1	12
535.644	1	19
535.814	1	12
535.984	1	9
536.154	1	6
536.324	1	6
536.494	1	21
536.664	1	14
536.834	1	13
537.004	1	10
537.174	1	16
537.344	1	9
537.514	1	11
537.685	1	18
537.855	1	12
538.025	1	20
538.195	1	0
538.365	1	7
538.535	1	-1
538.705	1	8
538.875	1	2
539.045	1	14
539.215	1	2
539.385	1	12
539.555	1	9
539.725	1	5
539.895	1	18
540.065	1	11
540.235	1	9
540.405	1	5
540.575	1	9
540.745	1	12
540.915	1	12
541.085	1	7
541.255	1	7
541.425	1	17
541.595	1	13
541.765	1	10
541.935	1	1
542.105	1	9
542.275	1	3
542.445	1	7
542.615	1	15
542.785	1	9
542.955	1	24
543.125	1	15
543.295	1	19
543.465	1	22
543.635	1	2
543.805	1	16
543.975	1	4
544.145	1	12
544.315	1	3
544.485	1	8
544.655	1	8
544.825	1	10
544.995	1	13
545.165	1	11
545.335	1	11
545.505	1	5
545.675	1	12
545.845	1	21
546.015	1	3
546.185	1	-5
546.355	1	7
546.525	1	22
546.695	1	0
546.865	1	12
547.035	1	5
547.205	1	15
547.375	1	15
547.545	1	10
547.715	1	9
547.885	1	0
548.055	1	-8
548.225	1	16
548.395	1	11
548.565	1	13
548.735	1	3
548.905	1	9
549.075	1	11
549.245	1	9
549.415	1	11
549.585	1	11
549.755	1	11
549.925	1	9
550.095	1	5
550.265	1	6
550.435	1	6
550.605	1	20
550.775	1	-4
550.945	1	5
551.115	1	11
551.285	1	13
551.455	1	13
551.625	1	-6
551.795	1	16
551.965	1	4
552.135	1	10
552.305	1	10
552.475	1	9
552.645	1	-3
552.815	1	7
552.985	1	4
553.155	1	11
553.325	1	7
553.495	1	12
553.665	1	9
553.835	1	13
554.004	1	18
554.174	1	5
554.344	1	11
554.514	1	4
554.684	1	12
554.854	1	0
555.024	1	5
555.194	1	12
555.364	1	10
555.534	1	-5
555.704	1	16
555.874	1	2
556.044	1	5
556.214	1	9
556.384	1	12
556.554	1	12
556.724	1	14
556.894	1	2
557.064	1	3
557.234	1	6
557.404	1	17
557.573	1	6
557.743	1	-3
557.913	1	8
558.083	1	7
558.253	1	11
558.423	1	6
558.593	1	5
558.763	1	5
558.933	1	1
559.103	1	3
559.273	1	19
559.443	1	5
559.613	1	5
559.783	1	5
559.953	1	0
560.122	1	7
560.292	1	-2
560.462	1	3
560.632	1	7
560.802	1	11
560.972	1	0
561.142	1	13
561.312	1	11
561.482	1	14
561.652	1	6
561.822	1	4
561.992	1	18
562.162	1	2
562.331	1	-4
562.501	1	7
562.671	1	6
562.841	1	-10
563.011	1	14
563.181	1	3
563.351	1	-3
563.521	1	3
563.691	1	13
563.861	1	7
564.031	1	-1
564.201	1	4
564.370	1	4
564.540	1	8
564.710	1	4
564.880	1	14
565.050	1	12
565.220	1	11
565.390	1	3
565.560	1	12
565.730	1	10
565.900	1	3
566.069	1	11
566.239	1	18
566.409	1	6
566.579	1	10
566.749	1	12
566.919	1	3
567.089	1	-11
567.259	1	13
567.429	1	0
567.599	1	11
567.768	1	6
567.938	1	8
568.108	1	4
568.278	1	9
568.448	1	11
568.618	1	6
568.788	1	7
568.958	1	8
569.128	1	0
569.297	1	6
569.467	1	17
569.637	1	12
569.807	1	5
569.977	1	5
570.147	1	4
570.317	1	8
570.487	1	8
570.656	1	13
570.826	1	8
570.996	1	15
571.166	1	10
571.336	1	8
571.506	1	-7
571.676	1	17
571.846	1	8
572.015	1	2
572.185	1	8
572.355	1	-4
572.525	1	-5
572.695	1	12
572.865	1	10
573.035	1	13
573.205	1	1
573.374	1	0
573.544	1	-3
573.714	1	5
573.884	1	1
574.054	1	10
574.224	1	3
574.394	1	8
574.563	1	3
574.733	1	4
574.903	1	5
575.073	1	19
575.243	1	5
575.413	1	-1
575.583	1	10
575.752	1	-3
575.922	1	26
576.092	1	-6
576.262	1	3
576.432	1	3
576.602	1	-3
576.772	1	4
576.941	1	3
577.111	1	9
577.281	1	10
577.451	1	12
577.621	1	4
577.791	1	11
577.960	1	3
578.130	1	5
578.300	1	5
578.470	1	9
578.640	1	0
578.810	1	4
578.979	1	0
579.149	1	10
579.319	1	10
579.489	1	19
579.659	1	4
579.829	1	7
579.998	1	-10
580.168	1	-1
580.338	1	11
580.508	1	0
580.678	1	2
580.848	1	8
581.017	1	4
581.187	1	12
581.357	1	4
581.527	1	4
581.697	1	1
581.867	1	9
582.036	1	-3
582.206	1	7
582.376	1	7
582.546	1	2
582.716	1	11
582.885	1	6
583.055	1	0
583.225	1	3
583.395	1	8
583.565	1	3
583.735	1	6
583.904	1	13
584.074	1	9
584.244	1	8
584.414	1	6
584.584	1	14
584.753	1	9
584.923	1	-1
585.093	1	8
585.263	1	10
585.433	1	-3
585.602	1	7
585.772	1	19
585.942	1	8
586.112	1	9
586.282	1	3
586.451	1	15
586.621	1	4
586.791	1	-6
586.961	1	-4
587.131	1	2
587.300	1	14
587.470	1	7
587.640	1	9
587.810	1	-9
587.980	1	10
588.149	1	8
588.319	1	13
588.489	1	9
588.659	1	-1
588.829	1	5
588.998	1	-5
589.168	1	14
589.338	1	9
589.508	1	16
589.677	1	8
589.847	1	10
590.017	1	8
590.187	1	7
590.357	1	2
590.526	1	5
590.696	1	13
590.866	1	0
591.036	1	11
591.205	1	10
591.375	1	1
591.545	1	-3
591.715	1	4
591.885	1	19
592.054	1	5
592.224	1	7
592.394	1	-2
592.564	1	13
592.733	1	7
592.903	1	10
593.073	1	-3
593.243	1	7
593.412	1	-7
593.582	1	5
593.752	1	-7
593.922	1	12
594.091	1	12
594.261	1	4
594.431	1	7
594.601	1	-5
594.771	1	14
594.940	1	4
595.110	1	-5
595.280	1	10
595.450	1	3
595.619	1	2
595.789	1	3
595.959	1	2
596.129	1	10
596.298	1	8
596.468	1	3
596.638	1	4
596.808	1	2
596.977	1	-3
597.147	1	0
597.317	1	6
597.487	1	8
597.656	1	4
597.826	1	14
597.996	1	-3
598.166	1	12
598.335	1	6
598.505	1	10
598.675	1	9
598.844	1	15
599.014	1	-9
599.184	1	-1
599.354	1	13
599.523	1	8
599.693	1	9
599.863	1	9
600.033	1	8
600.202	1	0
600.372	1	-2
600.542	1	14
600.712	1	3
600.881	1	11
601.051	1	9
601.221	1	8
601.390	1	6
601.560	1	13
601.730	1	7
601.900	1	13
602.069	1	-2
602.239	1	17
602.409	1	7
602.578	1	20
602.748	1	8
602.918	1	-5
603.088	1	10
603.257	1	10
603.427	1	7
603.597	1	5
603.767	1	-1
603.936	1	18
604.106	1	-3
604.276	1	5
604.445	1	4
604.615	1	16
604.785	1	11
604.954	1	7
605.124	1	6
605.294	1	9
605.464	1	1
605.633	1	4
605.803	1	15
605.973	1	7
606.142	1	9
606.312	1	13
606.482	1	1
606.652	1	9
606.821	1	6
606.991	1	9
607.161	1	-2
607.330	1	3
607.500	1	4
607.670	1	6
607.839	1	0
608.009	1	7
608.179	1	13
608.348	1	8
608.518	1	20
608.688	1	6
608.858	1	-4
609.027	1	17
609.197	1	14
609.367	1	-1
609.536	1	4
609.706	1	9
609.876	1	9
610.045	1	6
610.215	1	9
610.385	1	8
610.554	1	9
610.724	1	-2
610.894	1	15
611.063	1	6
611.233	1	5
611.403	1	7
611.572	1	7
611.742	1	12
611.912	1	1
612.081	1	14
612.251	1	6
612.421	1	12
612.590	1	8
612.760	1	7
612.930	1	10
613.099	1	0
613.269	1	4
613.439	1	2
613.608	1	4
613.778	1	4
613.948	1	15
614.117	1	11
614.287	1	10
614.457	1	11
614.626	1	5
614.796	1	8
614.966	1	3
615.135	1	19
615.305	1	10
615.475	1	5
615.644	1	18
615.814	1	23
615.984	1	-4
616.153	1	6
616.323	1	9
616.493	1	12
616.662	1	-1
616.832	1	8
617.002	1	4
617.171	1	13
617.341	1	13
617.511	1	-8
617.680	1	2
617.850	1	8
618.019	1	8
618.189	1	16
618.359	1	16
618.528	1	13
618.698	1	16
618.868	1	11
619.037	1	6
619.207	1	8
619.377	1	7
619.546	1	15
619.716	1	8
619.885	1	3
620.055	1	3
620.225	1	16
620.394	1	6
620.564	1	11
620.734	1	11
620.903	1	1
621.073	1	17
621.242	1	4
621.412	1	-1
621.582	1	19
621.751	1	2
621.921	1	19
622.091	1	14
622.260	1	8
622.430	1	11
622.599	1	-2
622.769	1	1
622.939	1	-2
623.108	1	16
623.278	1	1
623.448	1	12
623.617	1	12
623.787	1	15
623.956	1	16
624.126	1	7
624.296	1	7
624.465	1	10
624.635	1	11
624.804	1	-1
624.974	1	-1
625.144	1	3
625.313	1	22
625.483	1	17
625.652	1	10
625.822	1	10
625.992	1	-1
626.161	1	11
626.331	1	9
626.501	1	2
626.670	1	11
626.840	1	7
627.009	1	14
627.179	1	9
627.348	1	2
627.518	1	28
627.688	1	8
627.857	1	11
628.027	1	9
628.196	1	17
628.366	1	2
628.536	1	14
628.705	1	13
628.875	1	2
629.044	1	-2
629.214	1	3
629.384	1	8
629.553	1	15
629.723	1	17
629.892	1	15
630.062	1	6
630.232	1	10
630.401	1	8
630.571	1	14
630.740	1	3
630.910	1	8
631.079	1	4
631.249	1	3
631.419	1	19
631.588	1	8
631.758	1	3
631.927	1	19
632.097	1	2
632.266	1	24
632.436	1	8
632.606	1	11
632.775	1	-3
632.945	1	7
633.114	1	3
633.284	1	6
633.453	1	17
633.623	1	17
633.793	1	11
633.962	1	8
634.132	1	19
634.301	1	22
634.471	1	13
634.640	1	3
634.810	1	10
634.979	1	9
635.149	1	6
635.319	1	8
635.488	1	8
635.658	1	3
635.827	1	8
635.997	1	14
636.166	1	9
636.336	1	14
636.505	1	14
636.675	1	9
636.845	1	12
637.014	1	-4
637.184	1	29
637.353	1	13
637.523	1	14
637.692	1	9
637.862	1	16
638.031	1	3
638.201	1	12
638.370	1	3
638.540	1	9
638.710	1	6
638.879	1	10
639.049	1	6
639.218	1	11
639.388	1	6
639.557	1	8
639.727	1	13
639.896	1	19
640.066	1	9
640.235	1	1
640.405	1	11
640.574	1	12
640.744	1	3
640.914	1	6
641.083	1	24
641.253	1	8
641.422	1	11
641.592	1	19
641.761	1	3
641.931	1	23
642.100	1	2
642.270	1	6
642.439	1	9
642.609	1	20
642.778	1	10
642.948	1	28
643.117	1	13
643.287	1	8
643.456	1	0
643.626	1	7
643.795	1	13
643.965	1	16
644.134	1	6
644.304	1	3
644.473	1	10
644.643	1	9
644.812	1	10
644.982	1	12
645.151	1	7
645.321	1	23
645.490	1	8
645.660	1	-6
645.829	1	9
645.999	1	8
646.168	1	25
646.338	1	2
646.507	1	15
646.677	1	8
646.846	1	15
647.016	1	16
647.185	1	11
647.355	1	19
647.524	1	8
647.694	1	8
647.863	1	6
648.033	1	18
648.202	1	15
648.372	1	10
648.541	1	18
648.711	1	19
648.880	1	13
649.050	1	10
649.219	1	15
649.389	1	8
649.558	1	20
649.728	1	8
649.897	1	15
650.067	1	23
650.236	1	18
650.406	1	12
650.575	1	19
650.745	1	4
650.914	1	25
651.084	1	22
651.253	1	20
651.423	1	5
651.592	1	14
651.762	1	10
651.931	1	19
652.101	1	1
652.270	1	7
652.440	1	13
652.609	1	12
652.778	1	16
652.948	1	13
653.117	1	8
653.287	1	-1
653.456	1	20
653.626	1	10
653.795	1	8
653.965	1	19
654.134	1	6
654.304	1	19
654.473	1	7
654.643	1	16
654.812	1	24
654.982	1	10
655.151	1	21
655.320	1	4
655.490	1	7
655.659	1	13
655.829	1	27
655.998	1	11
656.168	1	7
656.337	1	9
656.507	1	11
656.676	1	10
656.846	1	19
657.015	1	23
657.184	1	7
657.354	1	16
657.523	1	7
657.693	1	20
657.862	1	0
658.032	1	13
658.201	1	5
658.371	1	12
658.540	1	9
658.709	1	14
658.879	1	16
659.048	1	22
659.218	1	7
659.387	1	20
659.557	1	18
659.726	1	11
659.895	1	7
660.065	1	10
660.234	1	7
660.404	1	9
660.573	1	13
660.743	1	9
660.912	1	18
661.081	1	11
661.251	1	16
661.420	1	24
661.590	1	-3
661.759	1	22
661.929	1	2
662.098	1	17
662.267	1	7
662.437	1	17
662.606	1	6
662.776	1	9
662.945	1	12
663.115	1	28
663.284	1	24
663.453	1	8
663.623	1	8
663.792	1	13
663.962	1	16
664.131	1	5
664.300	1	13
664.470	1	15
664.639	1	16
664.809	1	16
664.978	1	26
665.148	1	23
665.317	1	13
665.486	1	22
665.656	1	12
665.825	1	21
665.995	1	4
666.164	1	15
666.333	1	17
666.503	1	14
666.672	1	23
666.842	1	22
667.011	1	16
667.180	1	6
667.350	1	16
667.519	1	13
667.689	1	18
667.858	1	9
668.027	1	22
668.197	1	6
668.366	1	17
668.536	1	18
668.705	1	5
668.874	1	24
669.044	1	12
669.213	1	19
669.382	1	19
669.552	1	14
669.721	1	8
669.891	1	8
670.060	1	7
670.229	1	25
670.399	1	20
670.568	1	20
670.738	1	2
670.907	1	24
671.076	1	17
671.246	1	25
671.415	1	10
671.584	1	18
671.754	1	2
671.923	1	14
672.093	1	14
672.262	1	9
672.431	1	17
672.601	1	19
672.770	1	14
672.939	1	19
673.109	1	15
673.278	1	11
673.448	1	16
673.617	1	17
673.786	1	11
