325.333	1	10
325.504	1	14
325.675	1	29
325.846	1	20
326.017	1	18
326.188	1	23
326.359	1	24
326.531	1	8
326.702	1	20
326.873	1	23
327.044	1	28
327.215	1	20
327.386	1	21
327.557	1	18
327.728	1	22
327.899	1	20
328.070	1	36
328.241	1	21
328.412	1	23
328.583	1	18
328.754	1	30
328.926	1	26
329.097	1	16
329.268	1	28
329.439	1	27
329.610	1	31
329.781	1	26
329.952	1	35
330.123	1	16
330.294	1	18
330.465	1	10
330.636	1	17
330.807	1	40
330.978	1	14
331.149	1	23
331.320	1	32
331.492	1	27
331.663	1	29
331.834	1	32
332.005	1	28
332.176	1	14
332.347	1	14
332.518	1	40
332.689	1	34
332.860	1	20
333.031	1	24
333.202	1	28
333.373	1	36
333.544	1	28
333.715	1	25
333.886	1	28
334.057	1	21
334.228	1	31
334.399	1	36
334.570	1	34
334.741	1	30
334.912	1	24
335.084	1	38
335.255	1	38
335.426	1	27
335.597	1	23
335.768	1	33
335.939	1	42
336.110	1	38
336.281	1	37
336.452	1	40
336.623	1	27
336.794	1	37
336.965	1	24
337.136	1	39
337.307	1	26
337.478	1	30
337.649	1	33
337.820	1	43
337.991	1	35
338.162	1	40
338.333	1	38
338.504	1	35
338.675	1	28
338.846	1	28
339.017	1	40
339.188	1	45
339.359	1	36
339.530	1	36
339.701	1	40
339.872	1	48
340.043	1	32
340.214	1	42
340.385	1	38
340.556	1	52
340.727	1	36
340.898	1	42
341.069	1	37
341.240	1	40
341.411	1	39
341.582	1	33
341.753	1	44
341.924	1	52
342.095	1	35
342.266	1	45
342.437	1	35
342.608	1	37
342.779	1	38
342.950	1	38
343.121	1	50
343.292	1	49
343.463	1	53
343.634	1	46
343.805	1	51
343.976	1	41
344.147	1	41
344.318	1	37
344.489	1	36
344.660	1	41
344.831	1	52
345.002	1	48
345.173	1	46
345.344	1	43
345.515	1	39
345.686	1	44
345.857	1	53
346.028	1	54
346.199	1	48
346.370	1	48
346.541	1	43
346.712	1	46
346.883	1	32
347.054	1	55
347.225	1	39
347.396	1	37
347.567	1	41
347.738	1	53
347.909	1	42
348.080	1	50
348.251	1	58
348.422	1	56
348.593	1	46
348.764	1	45
348.935	1	62
349.106	1	49
349.277	1	47
349.448	1	53
349.619	1	48
349.790	1	59
349.961	1	58
350.132	1	69
350.303	1	60
350.474	1	63
350.645	1	53
350.816	1	58
350.987	1	70
351.157	1	55
351.328	1	58
351.499	1	59
351.670	1	57
351.841	1	67
352.012	1	66
352.183	1	65
352.354	1	55
352.525	1	54
352.696	1	55
352.867	1	67
353.038	1	66
353.209	1	55
353.380	1	71
353.551	1	57
353.722	1	61
353.893	1	61
354.064	1	69
354.235	1	50
354.406	1	55
354.576	1	59
354.747	1	57
354.918	1	61
355.089	1	52
355.260	1	70
355.431	1	55
355.602	1	62
355.773	1	60
355.944	1	60
356.115	1	71
356.286	1	63
356.457	1	63
356.628	1	56
356.799	1	68
356.970	1	75
357.141	1	70
357.311	1	72
357.482	1	63
357.653	1	67
357.824	1	70
357.995	1	68
358.166	1	63
358.337	1	64
358.508	1	81
358.679	1	75
358.850	1	75
359.021	1	67
359.192	1	71
359.363	1	66
359.533	1	68
359.704	1	60
359.875	1	68
360.046	1	70
360.217	1	79
360.388	1	76
360.559	1	71
360.730	1	70
360.901	1	64
361.072	1	64
361.243	1	75
361.414	1	72
361.584	1	64
361.755	1	72
361.926	1	82
362.097	1	71
362.268	1	85
362.439	1	77
362.610	1	78
362.781	1	61
362.952	1	85
363.123	1	59
363.293	1	67
363.464	1	66
363.635	1	70
363.806	1	73
363.977	1	72
364.148	1	63
364.319	1	72
364.490	1	71
364.661	1	79
364.832	1	79
365.002	1	81
365.173	1	76
365.344	1	65
365.515	1	67
365.686	1	73
365.857	1	84
366.028	1	71
366.199	1	73
366.370	1	72
366.540	1	78
366.711	1	78
366.882	1	72
367.053	1	90
367.224	1	84
367.395	1	73
367.566	1	83
367.737	1	71
367.908	1	87
368.078	1	67
368.249	1	84
368.420	1	80
368.591	1	88
368.762	1	82
368.933	1	77
369.104	1	71
369.274	1	76
369.445	1	97
369.616	1	70
369.787	1	75
369.958	1	83
370.129	1	68
370.300	1	76
370.471	1	80
370.641	1	74
370.812	1	78
370.983	1	70
371.154	1	77
371.325	1	77
371.496	1	80
371.667	1	85
371.837	1	74
372.008	1	73
372.179	1	70
372.350	1	80
372.521	1	82
372.692	1	85
372.863	1	84
373.033	1	76
373.204	1	77
373.375	1	69
373.546	1	87
373.717	1	71
373.888	1	93
374.059	1	70
374.229	1	81
374.400	1	81
374.571	1	77
374.742	1	76
374.913	1	71
375.084	1	79
375.254	1	81
375.425	1	81
375.596	1	93
375.767	1	91
375.938	1	76
376.109	1	88
376.279	1	94
376.450	1	91
376.621	1	91
376.792	1	92
376.963	1	85
377.134	1	83
377.304	1	83
377.475	1	85
377.646	1	85
377.817	1	90
377.988	1	91
378.159	1	100
378.329	1	87
378.500	1	101
378.671	1	96
378.842	1	93
379.013	1	104
379.184	1	91
379.354	1	97
379.525	1	93
379.696	1	99
379.867	1	84
380.038	1	90
380.209	1	101
380.379	1	86
380.550	1	69
380.721	1	96
380.892	1	91
381.063	1	93
381.233	1	91
381.404	1	86
381.575	1	80
381.746	1	88
381.917	1	87
382.087	1	90
382.258	1	83
382.429	1	86
382.600	1	84
382.771	1	89
382.941	1	94
383.112	1	87
383.283	1	98
383.454	1	92
383.625	1	95
383.795	1	102
383.966	1	101
384.137	1	99
384.308	1	102
384.479	1	92
384.649	1	89
384.820	1	104
384.991	1	88
385.162	1	102
385.333	1	94
385.503	1	98
385.674	1	93
385.845	1	108
386.016	1	96
386.187	1	99
386.357	1	103
386.528	1	102
386.699	1	96
386.870	1	99
387.041	1	110
387.211	1	99
387.382	1	108
387.553	1	122
387.724	1	99
387.894	1	100
388.065	1	109
388.236	1	92
388.407	1	110
388.578	1	106
388.748	1	104
388.919	1	101
389.090	1	114
389.261	1	99
389.431	1	95
389.602	1	111
389.773	1	103
389.944	1	122
390.114	1	102
390.285	1	120
390.456	1	104
390.627	1	84
390.798	1	107
390.968	1	109
391.139	1	116
391.310	1	104
391.481	1	100
391.651	1	113
391.822	1	120
391.993	1	101
392.164	1	112
392.334	1	116
392.505	1	107
392.676	1	104
392.847	1	96
393.017	1	97
393.188	1	103
393.359	1	112
393.530	1	114
393.700	1	111
393.871	1	108
394.042	1	89
394.213	1	111
394.383	1	100
394.554	1	114
394.725	1	102
394.896	1	114
395.066	1	107
395.237	1	115
395.408	1	108
395.579	1	124
395.749	1	125
395.920	1	119
396.091	1	116
396.262	1	117
396.432	1	110
396.603	1	104
396.774	1	118
396.945	1	123
397.115	1	126
397.286	1	116
397.457	1	118
397.627	1	113
397.798	1	114
397.969	1	110
398.140	1	115
398.310	1	107
398.481	1	120
398.652	1	115
398.823	1	111
398.993	1	114
399.164	1	113
399.335	1	105
399.505	1	113
399.676	1	112
399.847	1	107
400.018	1	108
400.188	1	113
400.359	1	122
400.530	1	109
400.700	1	115
400.871	1	117
401.042	1	110
401.213	1	120
401.383	1	111
401.554	1	106
401.725	1	109
401.895	1	111
402.066	1	114
402.237	1	112
402.408	1	109
402.578	1	129
402.749	1	120
402.920	1	113
403.090	1	115
403.261	1	115
403.432	1	119
403.603	1	111
403.773	1	124
403.944	1	121
404.115	1	108
404.285	1	114
404.456	1	124
404.627	1	117
404.797	1	115
404.968	1	123
405.139	1	124
405.310	1	121
405.480	1	116
405.651	1	109
405.822	1	113
405.992	1	121
406.163	1	109
406.334	1	112
406.504	1	118
406.675	1	98
406.846	1	118
407.016	1	136
407.187	1	124
407.358	1	115
407.528	1	114
407.699	1	120
407.870	1	124
408.041	1	123
408.211	1	121
408.382	1	130
408.553	1	142
408.723	1	118
408.894	1	130
409.065	1	123
409.235	1	126
409.406	1	119
409.577	1	122
409.747	1	119
409.918	1	137
410.089	1	124
410.259	1	121
410.430	1	117
410.601	1	117
410.771	1	133
410.942	1	113
411.113	1	123
411.283	1	124
411.454	1	131
411.625	1	127
411.795	1	124
411.966	1	126
412.137	1	126
412.307	1	116
412.478	1	120
412.649	1	117
412.819	1	126
412.990	1	115
413.161	1	128
413.331	1	114
413.502	1	108
413.672	1	119
413.843	1	118
414.014	1	111
414.184	1	117
414.355	1	112
414.526	1	112
414.696	1	122
414.867	1	97
415.038	1	114
415.208	1	106
415.379	1	118
415.550	1	116
415.720	1	115
415.891	1	119
416.062	1	121
416.232	1	129
416.403	1	125
416.573	1	104
416.744	1	130
416.915	1	130
417.085	1	117
417.256	1	130
417.427	1	119
417.597	1	123
417.768	1	124
417.939	1	117
418.109	1	120
418.280	1	112
418.450	1	132
418.621	1	112
418.792	1	117
418.962	1	115
419.133	1	111
419.304	1	114
419.474	1	120
419.645	1	120
419.815	1	116
419.986	1	124
420.157	1	113
420.327	1	112
420.498	1	116
420.669	1	128
420.839	1	111
421.010	1	113
421.180	1	111
421.351	1	119
421.522	1	124
421.692	1	123
421.863	1	117
422.033	1	117
422.204	1	120
422.375	1	131
422.545	1	118
422.716	1	102
422.886	1	112
423.057	1	108
423.228	1	104
423.398	1	111
423.569	1	109
423.740	1	118
423.910	1	116
424.081	1	119
424.251	1	108
424.422	1	118
424.593	1	106
424.763	1	114
424.934	1	111
425.104	1	127
425.275	1	101
425.445	1	117
425.616	1	103
425.787	1	109
425.957	1	102
426.128	1	94
426.298	1	112
426.469	1	98
426.640	1	104
426.810	1	93
426.981	1	118
427.151	1	103
427.322	1	113
427.493	1	96
427.663	1	117
427.834	1	97
428.004	1	116
428.175	1	113
428.345	1	104
428.516	1	111
428.687	1	113
428.857	1	109
429.028	1	103
429.198	1	110
429.369	1	110
429.540	1	99
429.710	1	104
429.881	1	99
430.051	1	97
430.222	1	112
430.392	1	109
430.563	1	92
430.734	1	102
430.904	1	118
431.075	1	109
431.245	1	103
431.416	1	111
431.586	1	93
431.757	1	108
431.927	1	102
432.098	1	116
432.269	1	112
432.439	1	114
432.610	1	113
432.780	1	117
432.951	1	98
433.121	1	93
433.292	1	116
433.462	1	116
433.633	1	116
433.804	1	124
433.974	1	114
434.145	1	111
434.315	1	115
434.486	1	87
434.656	1	122
434.827	1	98
434.997	1	115
435.168	1	103
435.339	1	111
435.509	1	110
435.680	1	106
435.850	1	102
436.021	1	97
436.191	1	107
436.362	1	104
436.532	1	103
436.703	1	109
436.873	1	107
437.044	1	116
437.214	1	97
437.385	1	93
437.556	1	110
437.726	1	101
437.897	1	89
438.067	1	101
438.238	1	100
438.408	1	105
438.579	1	90
438.749	1	91
438.920	1	114
439.090	1	95
439.261	1	96
439.431	1	83
439.602	1	93
439.772	1	109
439.943	1	86
440.113	1	88
440.284	1	110
440.455	1	93
440.625	1	108
440.796	1	92
440.966	1	103
441.137	1	102
441.307	1	107
441.478	1	88
441.648	1	85
441.819	1	96
441.989	1	103
442.160	1	101
442.330	1	91
442.501	1	93
442.671	1	100
442.842	1	98
443.012	1	91
443.183	1	100
443.353	1	96
443.524	1	89
443.694	1	93
443.865	1	104
444.035	1	100
444.206	1	88
444.376	1	105
444.547	1	96
444.717	1	96
444.888	1	81
445.058	1	91
445.229	1	94
445.399	1	98
445.570	1	91
445.740	1	90
445.911	1	119
446.081	1	90
446.252	1	101
446.422	1	89
446.593	1	96
446.763	1	88
446.934	1	80
447.104	1	98
447.275	1	90
447.445	1	91
447.616	1	97
447.786	1	91
447.957	1	96
448.127	1	92
448.298	1	87
448.468	1	89
448.639	1	89
448.809	1	76
448.979	1	111
449.150	1	89
449.320	1	82
449.491	1	89
449.661	1	79
449.832	1	81
450.002	1	83
450.173	1	91
450.343	1	89
450.514	1	92
450.684	1	93
450.855	1	82
451.025	1	87
451.196	1	76
451.366	1	91
451.537	1	89
451.707	1	80
451.878	1	74
452.048	1	75
452.218	1	85
452.389	1	92
452.559	1	101
452.730	1	78
452.900	1	86
453.071	1	83
453.241	1	82
453.412	1	87
453.582	1	83
453.753	1	85
453.923	1	81
454.093	1	71
454.264	1	89
454.434	1	78
454.605	1	74
454.775	1	79
454.946	1	72
455.116	1	90
455.287	1	76
455.457	1	91
455.628	1	74
455.798	1	83
455.968	1	72
456.139	1	77
456.309	1	74
456.480	1	85
456.650	1	73
456.821	1	75
456.991	1	73
457.161	1	81
457.332	1	70
457.502	1	75
457.673	1	68
457.843	1	73
458.014	1	76
458.184	1	84
458.355	1	89
458.525	1	69
458.695	1	64
458.866	1	69
459.036	1	71
459.207	1	86
459.377	1	74
459.548	1	76
459.718	1	67
459.888	1	81
460.059	1	75
460.229	1	68
460.400	1	61
460.570	1	66
460.740	1	72
460.911	1	53
461.081	1	69
461.252	1	79
461.422	1	67
461.593	1	77
461.763	1	88
461.933	1	77
462.104	1	65
462.274	1	77
462.445	1	63
462.615	1	76
462.785	1	80
462.956	1	71
463.126	1	67
463.297	1	74
463.467	1	81
463.638	1	76
463.808	1	72
463.978	1	53
464.149	1	68
464.319	1	72
464.490	1	73
464.660	1	66
464.830	1	71
465.001	1	73
465.171	1	64
465.342	1	60
465.512	1	73
465.682	1	59
465.853	1	69
466.023	1	69
466.194	1	72
466.364	1	72
466.534	1	61
466.705	1	71
466.875	1	55
467.045	1	58
467.216	1	66
467.386	1	59
467.557	1	73
467.727	1	50
467.897	1	61
468.068	1	56
468.238	1	53
468.409	1	67
468.579	1	69
468.749	1	62
468.920	1	54
469.090	1	68
469.260	1	62
469.431	1	61
469.601	1	68
469.772	1	68
469.942	1	65
470.112	1	51
470.283	1	59
470.453	1	69
470.623	1	65
470.794	1	63
470.964	1	55
471.135	1	59
471.305	1	56
471.475	1	64
471.646	1	65
471.816	1	65
471.986	1	51
472.157	1	57
472.327	1	67
472.497	1	48
472.668	1	73
472.838	1	57
473.009	1	49
473.179	1	49
473.349	1	55
473.520	1	69
473.690	1	64
473.860	1	50
474.031	1	56
474.201	1	58
474.371	1	62
474.542	1	56
474.712	1	57
474.882	1	60
475.053	1	62
475.223	1	54
475.394	1	51
475.564	1	59
475.734	1	43
475.905	1	56
476.075	1	74
476.245	1	58
476.416	1	50
476.586	1	54
476.756	1	61
476.927	1	42
477.097	1	50
477.267	1	57
477.438	1	73
477.608	1	60
477.778	1	68
477.949	1	61
478.119	1	58
478.289	1	51
478.460	1	51
478.630	1	48
478.800	1	51
478.971	1	51
479.141	1	53
479.311	1	56
479.482	1	56
479.652	1	53
479.822	1	56
479.993	1	55
480.163	1	57
480.333	1	54
480.504	1	54
480.674	1	56
480.844	1	53
481.015	1	60
481.185	1	56
481.355	1	54
481.525	1	35
481.696	1	58
481.866	1	53
482.036	1	51
482.207	1	49
482.377	1	51
482.547	1	55
482.718	1	56
482.888	1	62
483.058	1	54
483.229	1	53
483.399	1	61
483.569	1	33
483.740	1	40
483.910	1	43
484.080	1	53
484.250	1	43
484.421	1	54
484.591	1	51
484.761	1	60
484.932	1	47
485.102	1	59
485.272	1	43
485.443	1	53
485.613	1	47
485.783	1	48
485.953	1	35
486.124	1	49
486.294	1	47
486.464	1	47
486.635	1	48
486.805	1	46
486.975	1	43
487.146	1	46
487.316	1	49
487.486	1	53
487.656	1	41
487.827	1	44
487.997	1	43
488.167	1	45
488.338	1	44
488.508	1	54
488.678	1	36
488.848	1	47
489.019	1	40
489.189	1	51
489.359	1	47
489.529	1	44
489.700	1	44
489.870	1	50
490.040	1	51
490.211	1	36
490.381	1	51
490.551	1	43
490.721	1	47
490.892	1	37
491.062	1	41
491.232	1	45
491.402	1	38
491.573	1	58
491.743	1	43
491.913	1	43
492.084	1	36
492.254	1	41
492.424	1	34
492.594	1	37
492.765	1	49
492.935	1	55
493.105	1	56
493.275	1	42
493.446	1	21
493.616	1	33
493.786	1	40
493.956	1	48
494.127	1	36
494.297	1	35
494.467	1	45
494.637	1	48
494.808	1	48
494.978	1	48
495.148	1	42
495.318	1	49
495.489	1	42
495.659	1	35
495.829	1	49
495.999	1	41
496.170	1	38
496.340	1	38
496.510	1	52
496.680	1	48
496.851	1	51
497.021	1	34
497.191	1	37
497.361	1	32
497.532	1	43
497.702	1	42
497.872	1	49
498.042	1	41
498.213	1	25
498.383	1	41
498.553	1	44
498.723	1	36
498.894	1	42
499.064	1	28
499.234	1	38
499.404	1	41
499.574	1	46
499.745	1	39
499.915	1	40
500.085	1	44
500.255	1	18
500.426	1	37
500.596	1	21
500.766	1	21
500.936	1	26
501.106	1	29
501.277	1	32
501.447	1	39
501.617	1	36
501.787	1	31
501.958	1	36
502.128	1	41
502.298	1	40
502.468	1	30
502.638	1	33
502.809	1	23
502.979	1	41
503.149	1	34
503.319	1	52
503.489	1	10
503.660	1	22
503.830	1	41
504.000	1	32
504.170	1	35
504.340	1	16
504.511	1	30
504.681	1	27
504.851	1	34
505.021	1	26
505.192	1	29
505.362	1	32
505.532	1	32
505.702	1	41
505.872	1	30
506.043	1	39
506.213	1	48
506.383	1	26
506.553	1	25
506.723	1	31
506.893	1	36
507.064	1	46
507.234	1	31
507.404	1	23
507.574	1	41
507.744	1	26
507.915	1	25
508.085	1	23
508.255	1	45
508.425	1	35
508.595	1	30
508.766	1	27
508.936	1	29
509.106	1	28
509.276	1	28
509.446	1	18
509.616	1	32
509.787	1	36
509.957	1	38
510.127	1	28
510.297	1	21
510.467	1	30
510.638	1	34
510.808	1	35
510.978	1	33
511.148	1	28
511.318	1	38
511.488	1	27
511.659	1	31
511.829	1	31
511.999	1	23
512.169	1	30
512.339	1	27
512.509	1	20
512.680	1	26
512.850	1	19
513.020	1	28
513.190	1	25
513.360	1	25
513.530	1	37
513.700	1	26
513.871	1	22
514.041	1	28
514.211	1	33
514.381	1	30
514.551	1	16
514.721	1	24
514.892	1	27
515.062	1	16
515.232	1	28
515.402	1	30
515.572	1	18
515.742	1	31
515.912	1	30
516.083	1	17
516.253	1	30
516.423	1	28
516.593	1	24
516.763	1	29
516.933	1	31
517.104	1	35
517.274	1	24
517.444	1	25
517.614	1	22
517.784	1	28
517.954	1	12
518.124	1	28
518.294	1	31
518.465	1	28
518.635	1	34
518.805	1	20
518.975	1	28
519.145	1	16
519.315	1	17
519.485	1	27
519.656	1	14
519.826	1	5
519.996	1	34
520.166	1	21
520.336	1	21
520.506	1	30
520.676	1	27
520.846	1	16
521.017	1	25
521.187	1	25
521.357	1	8
521.527	1	25
521.697	1	16
521.867	1	30
522.037	1	19
522.207	1	24
522.377	1	32
522.548	1	-5
522.718	1	13
522.888	1	20
523.058	1	29
523.228	1	18
523.398	1	16
523.568	1	17
523.738	1	33
523.909	1	17
524.079	1	30
524.249	1	17
524.419	1	11
524.589	1	31
524.759	1	21
524.929	1	20
525.099	1	25
525.269	1	23
525.439	1	14
525.610	1	31
525.780	1	15
525.950	1	25
526.120	1	8
526.290	1	5
526.460	1	16
526.630	1	18
526.800	1	16
526.970	1	26
527.140	1	23
527.311	1	14
527.481	1	17
527.651	1	28
527.821	1	15
527.991	1	15
528.161	1	37
528.331	1	2
528.501	1	22
528.671	1	23
528.841	1	19
529.011	1	17
529.181	1	14
529.352	1	16
529.522	1	15
529.692	1	18
529.862	1	15
530.032	1	9
530.202	1	15
530.372	1	12
530.542	1	12
530.712	1	18
530.882	1	24
531.052	1	18
531.222	1	21
531.392	1	7
531.563	1	16
531.733	1	14
531.903	1	15
532.073	1	21
532.243	1	15
532.413	1	37
532.583	1	17
532.753	1	16
532.923	1	16
533.093	1	8
533.263	1	16
533.433	1	9
533.603	1	15
533.773	1	10
533.943	1	20
534.113	1	2
534.284	1	18
534.454	1	12
534.624	1	11
534.794	1	12
534.964	1	22
535.134	1	16
535.304	1	15
535.474	1	19
535.644	1	14
535.814	1	7
535.984	1	17
536.154	1	17
536.324	1	15
536.494	1	25
536.664	1	12
536.834	1	11
537.004	1	27
537.174	1	22
537.344	1	20
537.514	1	17
537.685	1	19
537.855	1	14
538.025	1	26
538.195	1	10
538.365	1	20
538.535	1	18
538.705	1	21
538.875	1	19
539.045	1	22
539.215	1	7
539.385	1	17
539.555	1	12
539.725	1	11
539.895	1	19
540.065	1	11
540.235	1	23
540.405	1	11
540.575	1	17
540.745	1	10
540.915	1	16
541.085	1	4
541.255	1	18
541.425	1	13
541.595	1	15
541.765	1	15
541.935	1	8
542.105	1	23
542.275	1	19
542.445	1	12
542.615	1	31
542.785	1	11
542.955	1	23
543.125	1	9
543.295	1	15
543.465	1	23
543.635	1	7
543.805	1	21
543.975	1	9
544.145	1	15
544.315	1	11
544.485	1	11
544.655	1	11
544.825	1	10
544.995	1	8
545.165	1	16
545.335	1	21
545.505	1	9
545.675	1	19
545.845	1	15
546.015	1	6
546.185	1	6
546.355	1	15
546.525	1	26
546.695	1	14
546.865	1	22
547.035	1	12
547.205	1	12
547.375	1	15
547.545	1	16
547.715	1	12
547.885	1	11
548.055	1	9
548.225	1	16
548.395	1	8
548.565	1	18
548.735	1	9
548.905	1	7
549.075	1	16
549.245	1	16
549.415	1	6
549.585	1	11
549.755	1	10
549.925	1	11
550.095	1	7
550.265	1	8
550.435	1	13
550.605	1	9
550.775	1	5
550.945	1	12
551.115	1	25
551.285	1	8
551.455	1	11
551.625	1	4
551.795	1	15
551.965	1	2
552.135	1	3
552.305	1	9
552.475	1	10
552.645	1	7
552.815	1	7
552.985	1	1
553.155	1	14
553.325	1	7
553.495	1	16
553.665	1	18
553.835	1	14
554.004	1	21
554.174	1	6
554.344	1	17
554.514	1	10
554.684	1	21
554.854	1	4
555.024	1	8
555.194	1	14
555.364	1	12
555.534	1	3
555.704	1	20
555.874	1	15
556.044	1	12
556.214	1	1
556.384	1	5
556.554	1	9
556.724	1	7
556.894	1	6
557.064	1	17
557.234	1	8
557.404	1	9
557.573	1	12
557.743	1	1
557.913	1	6
558.083	1	10
558.253	1	13
558.423	1	11
558.593	1	19
558.763	1	11
558.933	1	10
559.103	1	9
559.273	1	12
559.443	1	18
559.613	1	6
559.783	1	4
559.953	1	6
560.122	1	17
560.292	1	0
560.462	1	8
560.632	1	6
560.802	1	16
560.972	1	2
561.142	1	10
561.312	1	8
561.482	1	11
561.652	1	6
561.822	1	10
561.992	1	10
562.162	1	10
562.331	1	4
562.501	1	12
562.671	1	5
562.841	1	-2
563.011	1	12
563.181	1	10
563.351	1	7
563.521	1	9
563.691	1	14
563.861	1	11
564.031	1	3
564.201	1	6
564.370	1	16
564.540	1	4
564.710	1	11
564.880	1	5
565.050	1	13
565.220	1	6
565.390	1	2
565.560	1	15
565.730	1	12
565.900	1	4
566.069	1	22
566.239	1	25
566.409	1	20
566.579	1	15
566.749	1	4
566.919	1	-6
567.089	1	9
567.259	1	17
567.429	1	4
567.599	1	17
567.768	1	-1
567.938	1	11
568.108	1	12
568.278	1	15
568.448	1	-3
568.618	1	5
568.788	1	12
568.958	1	12
569.128	1	5
569.297	1	8
569.467	1	27
569.637	1	12
569.807	1	12
569.977	1	4
570.147	1	3
570.317	1	-2
570.487	1	13
570.656	1	10
570.826	1	5
570.996	1	23
571.166	1	13
571.336	1	1
571.506	1	1
571.676	1	14
571.846	1	16
572.015	1	10
572.185	1	15
572.355	1	6
572.525	1	7
572.695	1	1
572.865	1	19
573.035	1	8
573.205	1	7
573.374	1	-2
573.544	1	14
573.714	1	15
573.884	1	4
574.054	1	11
574.224	1	9
574.394	1	4
574.563	1	4
574.733	1	18
574.903	1	3
575.073	1	10
575.243	1	3
575.413	1	-2
575.583	1	5
575.752	1	11
575.922	1	15
576.092	1	-1
576.262	1	4
576.432	1	-1
576.602	1	21
576.772	1	13
576.941	1	8
577.111	1	7
577.281	1	12
577.451	1	16
577.621	1	12
577.791	1	7
577.960	1	4
578.130	1	11
578.300	1	-3
578.470	1	13
578.640	1	1
578.810	1	8
578.979	1	14
579.149	1	6
579.319	1	8
579.489	1	6
579.659	1	7
579.829	1	5
579.998	1	-4
580.168	1	4
580.338	1	17
580.508	1	8
580.678	1	10
580.848	1	12
581.017	1	1
581.187	1	7
581.357	1	10
581.527	1	12
581.697	1	6
581.867	1	11
582.036	1	4
582.206	1	13
582.376	1	9
582.546	1	7
582.716	1	5
582.885	1	7
583.055	1	6
583.225	1	0
583.395	1	9
583.565	1	14
583.735	1	19
583.904	1	4
584.074	1	2
584.244	1	7
584.414	1	10
584.584	1	6
584.753	1	10
584.923	1	0
585.093	1	10
585.263	1	13
585.433	1	7
585.602	1	6
585.772	1	21
585.942	1	-1
586.112	1	10
586.282	1	10
586.451	1	18
586.621	1	5
586.791	1	9
586.961	1	1
587.131	1	10
587.300	1	12
587.470	1	6
587.640	1	0
587.810	1	2
587.980	1	15
588.149	1	15
588.319	1	19
588.489	1	13
588.659	1	0
588.829	1	5
588.998	1	4
589.168	1	7
589.338	1	3
589.508	1	5
589.677	1	5
589.847	1	9
590.017	1	6
590.187	1	4
590.357	1	6
590.526	1	0
590.696	1	7
590.866	1	3
591.036	1	10
591.205	1	8
591.375	1	8
591.545	1	8
591.715	1	10
591.885	1	9
592.054	1	15
592.224	1	9
592.394	1	1
592.564	1	2
592.733	1	1
592.903	1	6
593.073	1	1
593.243	1	22
593.412	1	5
593.582	1	16
593.752	1	5
593.922	1	3
594.091	1	13
594.261	1	2
594.431	1	7
594.601	1	-3
594.771	1	6
594.940	1	5
595.110	1	16
595.280	1	3
595.450	1	6
595.619	1	9
595.789	1	7
595.959	1	1
596.129	1	9
596.298	1	18
596.468	1	4
596.638	1	6
596.808	1	-7
596.977	1	6
597.147	1	6
597.317	1	1
597.487	1	5
597.656	1	17
597.826	1	12
597.996	1	4
598.166	1	15
598.335	1	-6
598.505	1	8
598.675	1	5
598.844	1	17
599.014	1	-2
599.184	1	13
599.354	1	22
599.523	1	6
599.693	1	6
599.863	1	10
600.033	1	10
600.202	1	10
600.372	1	-3
600.542	1	10
600.712	1	7
600.881	1	11
601.051	1	10
601.221	1	13
601.390	1	16
601.560	1	15
601.730	1	-2
601.900	1	5
602.069	1	16
602.239	1	4
602.409	1	6
602.578	1	24
602.748	1	12
602.918	1	4
603.088	1	15
603.257	1	1
603.427	1	16
603.597	1	2
603.767	1	12
603.936	1	15
604.106	1	2
604.276	1	12
604.445	1	6
604.615	1	5
604.785	1	15
604.954	1	4
605.124	1	14
605.294	1	3
605.464	1	5
605.633	1	6
605.803	1	7
605.973	1	10
606.142	1	18
606.312	1	13
606.482	1	3
606.652	1	13
606.821	1	0
606.991	1	12
607.161	1	10
607.330	1	10
607.500	1	10
607.670	1	5
607.839	1	-3
608.009	1	8
608.179	1	14
608.348	1	12
608.518	1	24
608.688	1	10
608.858	1	10
609.027	1	16
609.197	1	15
609.367	1	-2
609.536	1	11
609.706	1	17
609.876	1	14
610.045	1	14
610.215	1	11
610.385	1	9
610.554	1	14
610.724	1	1
610.894	1	15
611.063	1	14
611.233	1	6
611.403	1	14
611.572	1	13
611.742	1	8
611.912	1	12
612.081	1	18
612.251	1	14
612.421	1	13
612.590	1	12
612.760	1	14
612.930	1	13
613.099	1	8
613.269	1	6
613.439	1	2
613.608	1	8
613.778	1	8
613.948	1	31
614.117	1	8
614.287	1	9
614.457	1	12
614.626	1	9
614.796	1	9
614.966	1	11
615.135	1	18
615.305	1	16
615.475	1	12
615.644	1	21
615.814	1	8
615.984	1	6
616.153	1	18
616.323	1	12
616.493	1	12
616.662	1	-2
616.832	1	11
617.002	1	7
617.171	1	8
617.341	1	17
617.511	1	-9
617.680	1	14
617.850	1	17
618.019	1	2
618.189	1	11
618.359	1	10
618.528	1	4
618.698	1	14
618.868	1	8
619.037	1	16
619.207	1	7
619.377	1	16
619.546	1	15
619.716	1	9
619.885	1	12
620.055	1	1
620.225	1	14
620.394	1	9
620.564	1	14
620.734	1	15
620.903	1	-8
621.073	1	16
621.242	1	7
621.412	1	6
621.582	1	17
621.751	1	14
621.921	1	10
622.091	1	14
622.260	1	14
622.430	1	14
622.599	1	13
622.769	1	7
622.939	1	5
623.108	1	18
623.278	1	4
623.448	1	13
623.617	1	13
623.787	1	6
623.956	1	17
624.126	1	17
624.296	1	21
624.465	1	16
624.635	1	14
624.804	1	4
624.974	1	4
625.144	1	8
625.313	1	22
625.483	1	18
625.652	1	7
625.822	1	16
625.992	1	11
626.161	1	18
626.331	1	7
626.501	1	7
626.670	1	11
626.840	1	12
627.009	1	12
627.179	1	9
627.348	1	8
627.518	1	19
627.688	1	16
627.857	1	14
628.027	1	22
628.196	1	17
628.366	1	14
628.536	1	6
628.705	1	5
628.875	1	5
629.044	1	10
629.214	1	17
629.384	1	14
629.553	1	6
629.723	1	12
629.892	1	11
630.062	1	19
630.232	1	19
630.401	1	13
630.571	1	5
630.740	1	10
630.910	1	20
631.079	1	20
631.249	1	13
631.419	1	12
631.588	1	22
631.758	1	12
631.927	1	22
632.097	1	3
632.266	1	16
632.436	1	14
632.606	1	13
632.775	1	18
632.945	1	7
633.114	1	9
633.284	1	7
633.453	1	16
633.623	1	21
633.793	1	16
633.962	1	15
634.132	1	14
634.301	1	23
634.471	1	13
634.640	1	9
634.810	1	12
634.979	1	16
635.149	1	9
635.319	1	14
635.488	1	24
635.658	1	7
635.827	1	13
635.997	1	12
636.166	1	6
636.336	1	4
636.505	1	26
636.675	1	9
636.845	1	14
637.014	1	1
637.184	1	26
637.353	1	7
637.523	1	22
637.692	1	19
637.862	1	11
638.031	1	6
638.201	1	21
638.370	1	17
638.540	1	4
638.710	1	13
638.879	1	14
639.049	1	14
639.218	1	13
639.388	1	13
639.557	1	14
639.727	1	9
639.896	1	14
640.066	1	14
640.235	1	21
640.405	1	20
640.574	1	17
640.744	1	2
640.914	1	13
641.083	1	15
641.253	1	12
641.422	1	15
641.592	1	18
641.761	1	15
641.931	1	31
642.100	1	23
642.270	1	8
642.439	1	9
642.609	1	26
642.778	1	12
642.948	1	26
643.117	1	23
643.287	1	9
643.456	1	9
643.626	1	4
643.795	1	18
643.965	1	13
644.134	1	10
644.304	1	15
644.473	1	14
644.643	1	16
644.812	1	14
644.982	1	13
645.151	1	7
645.321	1	20
645.490	1	23
645.660	1	11
645.829	1	11
645.999	1	12
646.168	1	30
646.338	1	13
646.507	1	14
646.677	1	17
646.846	1	15
647.016	1	20
647.185	1	24
647.355	1	29
647.524	1	13
647.694	1	3
647.863	1	6
648.033	1	23
648.202	1	25
648.372	1	7
648.541	1	18
648.711	1	21
648.880	1	20
649.050	1	21
649.219	1	13
649.389	1	11
649.558	1	25
649.728	1	14
649.897	1	22
650.067	1	21
650.236	1	13
650.406	1	21
650.575	1	23
650.745	1	17
650.914	1	19
651.084	1	11
651.253	1	12
651.423	1	17
651.592	1	26
651.762	1	17
651.931	1	15
652.101	1	18
652.270	1	3
652.440	1	15
652.609	1	23
652.778	1	17
652.948	1	19
653.117	1	11
653.287	1	9
653.456	1	12
653.626	1	19
653.795	1	12
653.965	1	20
654.134	1	9
654.304	1	22
654.473	1	14
654.643	1	20
654.812	1	27
654.982	1	19
655.151	1	21
655.320	1	9
655.490	1	8
655.659	1	22
655.829	1	26
655.998	1	22
656.168	1	10
656.337	1	18
656.507	1	11
656.676	1	13
656.846	1	13
657.015	1	28
657.184	1	17
657.354	1	15
657.523	1	15
657.693	1	17
657.862	1	8
658.032	1	17
658.201	1	7
658.371	1	16
658.540	1	8
658.709	1	17
658.879	1	24
659.048	1	22
659.218	1	16
659.387	1	18
659.557	1	19
659.726	1	12
659.895	1	20
660.065	1	13
660.234	1	9
660.404	1	22
660.573	1	14
660.743	1	18
660.912	1	18
661.081	1	12
661.251	1	10
661.420	1	16
661.590	1	17
661.759	1	23
661.929	1	17
662.098	1	26
662.267	1	16
662.437	1	28
662.606	1	13
662.776	1	23
662.945	1	32
663.115	1	26
663.284	1	19
663.453	1	24
663.623	1	16
663.792	1	27
663.962	1	36
664.131	1	13
664.300	1	17
664.470	1	20
664.639	1	18
664.809	1	23
664.978	1	33
665.148	1	23
665.317	1	27
665.486	1	20
665.656	1	20
665.825	1	35
665.995	1	8
666.164	1	21
666.333	1	17
666.503	1	15
666.672	1	16
666.842	1	20
667.011	1	27
667.180	1	10
667.350	1	18
667.519	1	26
667.689	1	11
667.858	1	17
668.027	1	15
668.197	1	13
668.366	1	16
668.536	1	13
668.705	1	10
668.874	1	27
669.044	1	24
669.213	1	26
669.382	1	20
669.552	1	14
669.721	1	11
669.891	1	13
670.060	1	17
670.229	1	21
670.399	1	33
670.568	1	29
670.738	1	18
670.907	1	32
671.076	1	26
671.246	1	19
671.415	1	28
671.584	1	28
671.754	1	13
671.923	1	18
672.093	1	29
672.262	1	16
672.431	1	25
672.601	1	25
672.770	1	23
672.939	1	22
673.109	1	12
673.278	1	22
673.448	1	25
673.617	1	18
673.786	1	7
