325.333	1	28
325.504	1	25
325.675	1	41
325.846	1	35
326.017	1	33
326.188	1	28
326.359	1	47
326.531	1	31
326.702	1	33
326.873	1	43
327.044	1	45
327.215	1	39
327.386	1	32
327.557	1	27
327.728	1	33
327.899	1	40
328.070	1	44
328.241	1	39
328.412	1	48
328.583	1	43
328.754	1	50
328.926	1	48
329.097	1	33
329.268	1	40
329.439	1	40
329.610	1	46
329.781	1	46
329.952	1	45
330.123	1	43
330.294	1	49
330.465	1	38
330.636	1	55
330.807	1	41
330.978	1	38
331.149	1	53
331.320	1	47
331.492	1	43
331.663	1	36
331.834	1	40
332.005	1	52
332.176	1	60
332.347	1	43
332.518	1	43
332.689	1	53
332.860	1	48
333.031	1	57
333.202	1	55
333.373	1	48
333.544	1	50
333.715	1	54
333.886	1	62
334.057	1	52
334.228	1	62
334.399	1	60
334.570	1	62
334.741	1	55
334.912	1	54
335.084	1	65
335.255	1	72
335.426	1	68
335.597	1	53
335.768	1	51
335.939	1	66
336.110	1	62
336.281	1	51
336.452	1	71
336.623	1	64
336.794	1	57
336.965	1	57
337.136	1	70
337.307	1	57
337.478	1	64
337.649	1	66
337.820	1	51
337.991	1	56
338.162	1	55
338.333	1	68
338.504	1	75
338.675	1	70
338.846	1	54
339.017	1	59
339.188	1	63
339.359	1	76
339.530	1	62
339.701	1	70
339.872	1	82
340.043	1	73
340.214	1	73
340.385	1	68
340.556	1	81
340.727	1	74
340.898	1	76
341.069	1	74
341.240	1	61
341.411	1	79
341.582	1	70
341.753	1	76
341.924	1	89
342.095	1	71
342.266	1	87
342.437	1	73
342.608	1	89
342.779	1	82
342.950	1	84
343.121	1	84
343.292	1	75
343.463	1	99
343.634	1	84
343.805	1	94
343.976	1	99
344.147	1	88
344.318	1	84
344.489	1	85
344.660	1	91
344.831	1	97
345.002	1	78
345.173	1	87
345.344	1	79
345.515	1	85
345.686	1	91
345.857	1	85
346.028	1	87
346.199	1	96
346.370	1	85
346.541	1	93
346.712	1	86
346.883	1	82
347.054	1	99
347.225	1	90
347.396	1	85
347.567	1	84
347.738	1	91
347.909	1	97
348.080	1	104
348.251	1	99
348.422	1	92
348.593	1	94
348.764	1	101
348.935	1	100
349.106	1	94
349.277	1	98
349.448	1	103
349.619	1	111
349.790	1	109
349.961	1	111
350.132	1	110
350.303	1	114
350.474	1	109
350.645	1	119
350.816	1	121
350.987	1	124
351.157	1	109
351.328	1	105
351.499	1	123
351.670	1	119
351.841	1	117
352.012	1	110
352.183	1	124
352.354	1	112
352.525	1	129
352.696	1	118
352.867	1	124
353.038	1	115
353.209	1	104
353.380	1	126
353.551	1	118
353.722	1	117
353.893	1	123
354.064	1	122
354.235	1	113
354.406	1	111
354.576	1	115
354.747	1	116
354.918	1	132
355.089	1	115
355.260	1	111
355.431	1	111
355.602	1	131
355.773	1	114
355.944	1	129
356.115	1	139
356.286	1	127
356.457	1	129
356.628	1	124
356.799	1	137
356.970	1	143
357.141	1	133
357.311	1	150
357.482	1	127
357.653	1	142
357.824	1	141
357.995	1	152
358.166	1	143
358.337	1	127
358.508	1	148
358.679	1	135
358.850	1	142
359.021	1	144
359.192	1	152
359.363	1	144
359.533	1	127
359.704	1	133
359.875	1	146
360.046	1	155
360.217	1	136
360.388	1	143
360.559	1	141
360.730	1	137
360.901	1	140
361.072	1	138
361.243	1	137
361.414	1	158
361.584	1	152
361.755	1	133
361.926	1	156
362.097	1	149
362.268	1	140
362.439	1	145
362.610	1	148
362.781	1	138
362.952	1	146
363.123	1	143
363.293	1	144
363.464	1	140
363.635	1	163
363.806	1	151
363.977	1	157
364.148	1	145
364.319	1	145
364.490	1	146
364.661	1	145
364.832	1	126
365.002	1	149
365.173	1	155
365.344	1	151
365.515	1	154
365.686	1	156
365.857	1	157
366.028	1	154
366.199	1	151
366.370	1	151
366.540	1	160
366.711	1	157
366.882	1	154
367.053	1	155
367.224	1	166
367.395	1	173
367.566	1	176
367.737	1	136
367.908	1	177
368.078	1	168
368.249	1	175
368.420	1	156
368.591	1	174
368.762	1	171
368.933	1	164
369.104	1	160
369.274	1	172
369.445	1	154
369.616	1	158
369.787	1	156
369.958	1	150
370.129	1	154
370.300	1	154
370.471	1	151
370.641	1	172
370.812	1	165
370.983	1	143
371.154	1	166
371.325	1	164
371.496	1	148
371.667	1	171
371.837	1	154
372.008	1	144
372.179	1	158
372.350	1	168
372.521	1	156
372.692	1	165
372.863	1	153
373.033	1	176
373.204	1	166
373.375	1	152
373.546	1	176
373.717	1	175
373.888	1	173
374.059	1	160
374.229	1	172
374.400	1	163
374.571	1	176
374.742	1	167
374.913	1	162
375.084	1	181
375.254	1	165
375.425	1	176
375.596	1	158
375.767	1	182
375.938	1	171
376.109	1	181
376.279	1	192
376.450	1	180
376.621	1	188
376.792	1	177
376.963	1	177
377.134	1	187
377.304	1	191
377.475	1	159
377.646	1	168
377.817	1	189
377.988	1	192
378.159	1	178
378.329	1	187
378.500	1	179
378.671	1	180
378.842	1	188
379.013	1	174
379.184	1	171
379.354	1	199
379.525	1	191
379.696	1	199
379.867	1	190
380.038	1	178
380.209	1	191
380.379	1	190
380.550	1	164
380.721	1	176
380.892	1	175
381.063	1	198
381.233	1	177
381.404	1	178
381.575	1	187
381.746	1	189
381.917	1	193
382.087	1	199
382.258	1	196
382.429	1	187
382.600	1	186
382.771	1	189
382.941	1	203
383.112	1	191
383.283	1	198
383.454	1	191
383.625	1	209
383.795	1	198
383.966	1	203
384.137	1	210
384.308	1	201
384.479	1	194
384.649	1	204
384.820	1	212
384.991	1	204
385.162	1	215
385.333	1	210
385.503	1	195
385.674	1	214
385.845	1	218
386.016	1	218
386.187	1	215
386.357	1	232
386.528	1	207
386.699	1	205
386.870	1	223
387.041	1	209
387.211	1	199
387.382	1	220
387.553	1	212
387.724	1	217
387.894	1	197
388.065	1	217
388.236	1	212
388.407	1	214
388.578	1	226
388.748	1	217
388.919	1	221
389.090	1	228
389.261	1	224
389.431	1	206
389.602	1	218
389.773	1	220
389.944	1	218
390.114	1	219
390.285	1	229
390.456	1	217
390.627	1	210
390.798	1	213
390.968	1	218
391.139	1	218
391.310	1	217
391.481	1	208
391.651	1	218
391.822	1	225
391.993	1	202
392.164	1	197
392.334	1	213
392.505	1	220
392.676	1	211
392.847	1	228
393.017	1	210
393.188	1	219
393.359	1	225
393.530	1	231
393.700	1	229
393.871	1	226
394.042	1	211
394.213	1	233
394.383	1	223
394.554	1	206
394.725	1	219
394.896	1	238
395.066	1	226
395.237	1	232
395.408	1	245
395.579	1	236
395.749	1	228
395.920	1	247
396.091	1	244
396.262	1	241
396.432	1	228
396.603	1	225
396.774	1	232
396.945	1	234
397.115	1	240
397.286	1	252
397.457	1	231
397.627	1	236
397.798	1	248
397.969	1	239
398.140	1	223
398.310	1	243
398.481	1	245
398.652	1	233
398.823	1	225
398.993	1	230
399.164	1	240
399.335	1	229
399.505	1	231
399.676	1	240
399.847	1	228
400.018	1	215
400.188	1	241
400.359	1	238
400.530	1	231
400.700	1	232
400.871	1	238
401.042	1	229
401.213	1	229
401.383	1	235
401.554	1	232
401.725	1	223
401.895	1	225
402.066	1	239
402.237	1	236
402.408	1	227
402.578	1	244
402.749	1	235
402.920	1	235
403.090	1	236
403.261	1	251
403.432	1	237
403.603	1	238
403.773	1	243
403.944	1	242
404.115	1	230
404.285	1	256
404.456	1	246
404.627	1	228
404.797	1	248
404.968	1	243
405.139	1	242
405.310	1	258
405.480	1	225
405.651	1	241
405.822	1	226
405.992	1	250
406.163	1	236
406.334	1	256
406.504	1	241
406.675	1	238
406.846	1	250
407.016	1	251
407.187	1	257
407.358	1	248
407.528	1	244
407.699	1	257
407.870	1	267
408.041	1	253
408.211	1	253
408.382	1	262
408.553	1	267
408.723	1	251
408.894	1	247
409.065	1	257
409.235	1	244
409.406	1	240
409.577	1	258
409.747	1	254
409.918	1	262
410.089	1	258
410.259	1	251
410.430	1	254
410.601	1	239
410.771	1	250
410.942	1	240
411.113	1	247
411.283	1	254
411.454	1	263
411.625	1	252
411.795	1	244
411.966	1	239
412.137	1	253
412.307	1	244
412.478	1	241
412.649	1	233
412.819	1	245
412.990	1	249
413.161	1	240
413.331	1	235
413.502	1	241
413.672	1	240
413.843	1	238
414.014	1	236
414.184	1	227
414.355	1	228
414.526	1	248
414.696	1	236
414.867	1	226
415.038	1	242
415.208	1	237
415.379	1	225
415.550	1	236
415.720	1	240
415.891	1	232
416.062	1	237
416.232	1	255
416.403	1	251
416.573	1	235
416.744	1	239
416.915	1	230
417.085	1	248
417.256	1	243
417.427	1	236
417.597	1	245
417.768	1	250
417.939	1	229
418.109	1	252
418.280	1	240
418.450	1	259
418.621	1	242
418.792	1	249
418.962	1	242
419.133	1	240
419.304	1	238
419.474	1	251
419.645	1	254
419.815	1	238
419.986	1	257
420.157	1	237
420.327	1	240
420.498	1	232
420.669	1	243
420.839	1	239
421.010	1	240
421.180	1	232
421.351	1	246
421.522	1	261
421.692	1	252
421.863	1	223
422.033	1	237
422.204	1	229
422.375	1	233
422.545	1	249
422.716	1	215
422.886	1	229
423.057	1	235
423.228	1	224
423.398	1	229
423.569	1	225
423.740	1	245
423.910	1	220
424.081	1	239
424.251	1	234
424.422	1	218
424.593	1	223
424.763	1	213
424.934	1	230
425.104	1	227
425.275	1	216
425.445	1	221
425.616	1	222
425.787	1	217
425.957	1	210
426.128	1	216
426.298	1	217
426.469	1	201
426.640	1	216
426.810	1	207
426.981	1	225
427.151	1	211
427.322	1	222
427.493	1	220
427.663	1	221
427.834	1	222
428.004	1	230
428.175	1	222
428.345	1	223
428.516	1	218
428.687	1	232
428.857	1	216
429.028	1	228
429.198	1	210
429.369	1	216
429.540	1	235
429.710	1	234
429.881	1	210
430.051	1	223
430.222	1	224
430.392	1	221
430.563	1	212
430.734	1	229
430.904	1	216
431.075	1	236
431.245	1	218
431.416	1	210
431.586	1	212
431.757	1	225
431.927	1	230
432.098	1	233
432.269	1	221
432.439	1	205
432.610	1	214
432.780	1	217
432.951	1	215
433.121	1	221
433.292	1	223
433.462	1	226
433.633	1	221
433.804	1	233
433.974	1	228
434.145	1	213
434.315	1	197
434.486	1	212
434.656	1	209
434.827	1	221
434.997	1	213
435.168	1	205
435.339	1	224
435.509	1	208
435.680	1	205
435.850	1	206
436.021	1	201
436.191	1	199
436.362	1	211
436.532	1	205
436.703	1	213
436.873	1	193
437.044	1	205
437.214	1	196
437.385	1	187
437.556	1	215
437.726	1	196
437.897	1	197
438.067	1	191
438.238	1	206
438.408	1	203
438.579	1	184
438.749	1	195
438.920	1	195
439.090	1	193
439.261	1	192
439.431	1	181
439.602	1	184
439.772	1	205
439.943	1	186
440.113	1	191
440.284	1	200
440.455	1	193
440.625	1	197
440.796	1	196
440.966	1	196
441.137	1	199
441.307	1	181
441.478	1	198
441.648	1	172
441.819	1	191
441.989	1	190
442.160	1	180
442.330	1	196
442.501	1	178
442.671	1	182
442.842	1	187
443.012	1	178
443.183	1	193
443.353	1	196
443.524	1	179
443.694	1	187
443.865	1	198
444.035	1	180
444.206	1	180
444.376	1	187
444.547	1	184
444.717	1	189
444.888	1	175
445.058	1	198
445.229	1	178
445.399	1	197
445.570	1	183
445.740	1	184
445.911	1	182
446.081	1	194
446.252	1	186
446.422	1	180
446.593	1	188
446.763	1	196
446.934	1	189
447.104	1	172
447.275	1	194
447.445	1	189
447.616	1	190
447.786	1	184
447.957	1	188
448.127	1	174
448.298	1	190
448.468	1	173
448.639	1	173
448.809	1	170
448.979	1	201
449.150	1	174
449.320	1	177
449.491	1	172
449.661	1	177
449.832	1	179
450.002	1	169
450.173	1	176
450.343	1	172
450.514	1	159
450.684	1	163
450.855	1	178
451.025	1	167
451.196	1	165
451.366	1	172
451.537	1	178
451.707	1	177
451.878	1	166
452.048	1	159
452.218	1	166
452.389	1	171
452.559	1	157
452.730	1	168
452.900	1	157
453.071	1	184
453.241	1	163
453.412	1	148
453.582	1	154
453.753	1	163
453.923	1	145
454.093	1	161
454.264	1	169
454.434	1	175
454.605	1	137
454.775	1	172
454.946	1	155
455.116	1	156
455.287	1	155
455.457	1	155
455.628	1	149
455.798	1	152
455.968	1	151
456.139	1	165
456.309	1	159
456.480	1	152
456.650	1	158
456.821	1	149
456.991	1	153
457.161	1	162
457.332	1	143
457.502	1	149
457.673	1	142
457.843	1	152
458.014	1	149
458.184	1	140
458.355	1	153
458.525	1	134
458.695	1	143
458.866	1	148
459.036	1	150
459.207	1	145
459.377	1	149
459.548	1	139
459.718	1	150
459.888	1	137
460.059	1	142
460.229	1	148
460.400	1	139
460.570	1	140
460.740	1	143
460.911	1	149
461.081	1	138
461.252	1	135
461.422	1	141
461.593	1	143
461.763	1	139
461.933	1	142
462.104	1	135
462.274	1	133
462.445	1	135
462.615	1	150
462.785	1	159
462.956	1	133
463.126	1	145
463.297	1	139
463.467	1	141
463.638	1	139
463.808	1	145
463.978	1	133
464.149	1	144
464.319	1	137
464.490	1	138
464.660	1	125
464.830	1	140
465.001	1	129
465.171	1	125
465.342	1	130
465.512	1	131
465.682	1	124
465.853	1	125
466.023	1	134
466.194	1	133
466.364	1	145
466.534	1	111
466.705	1	135
466.875	1	121
467.045	1	113
467.216	1	126
467.386	1	121
467.557	1	124
467.727	1	114
467.897	1	131
468.068	1	115
468.238	1	116
468.409	1	124
468.579	1	117
468.749	1	114
468.920	1	111
469.090	1	132
469.260	1	125
469.431	1	104
469.601	1	132
469.772	1	122
469.942	1	115
470.112	1	114
470.283	1	107
470.453	1	122
470.623	1	121
470.794	1	124
470.964	1	108
471.135	1	120
471.305	1	114
471.475	1	119
471.646	1	122
471.816	1	110
471.986	1	105
472.157	1	111
472.327	1	129
472.497	1	123
472.668	1	118
472.838	1	123
473.009	1	114
473.179	1	116
473.349	1	104
473.520	1	131
473.690	1	116
473.860	1	104
474.031	1	113
474.201	1	113
474.371	1	117
474.542	1	104
474.712	1	115
474.882	1	118
475.053	1	118
475.223	1	111
475.394	1	109
475.564	1	110
475.734	1	112
475.905	1	111
476.075	1	128
476.245	1	117
476.416	1	112
476.586	1	119
476.756	1	112
476.927	1	107
477.097	1	107
477.267	1	116
477.438	1	120
477.608	1	115
477.778	1	105
477.949	1	109
478.119	1	124
478.289	1	98
478.460	1	111
478.630	1	116
478.800	1	107
478.971	1	108
479.141	1	118
479.311	1	107
479.482	1	90
479.652	1	112
479.822	1	103
479.993	1	110
480.163	1	107
480.333	1	103
480.504	1	110
480.674	1	106
480.844	1	102
481.015	1	119
481.185	1	121
481.355	1	95
481.525	1	98
481.696	1	96
481.866	1	113
482.036	1	113
482.207	1	96
482.377	1	103
482.547	1	101
482.718	1	102
482.888	1	111
483.058	1	113
483.229	1	89
483.399	1	96
483.569	1	92
483.740	1	99
483.910	1	90
484.080	1	98
484.250	1	84
484.421	1	95
484.591	1	93
484.761	1	94
484.932	1	102
485.102	1	103
485.272	1	91
485.443	1	91
485.613	1	94
485.783	1	85
485.953	1	92
486.124	1	86
486.294	1	95
486.464	1	108
486.635	1	86
486.805	1	93
486.975	1	77
487.146	1	100
487.316	1	100
487.486	1	84
487.656	1	83
487.827	1	91
487.997	1	86
488.167	1	92
488.338	1	89
488.508	1	86
488.678	1	88
488.848	1	90
489.019	1	79
489.189	1	89
489.359	1	99
489.529	1	91
489.700	1	85
489.870	1	86
490.040	1	83
490.211	1	74
490.381	1	81
490.551	1	81
490.721	1	92
490.892	1	77
491.062	1	81
491.232	1	88
491.402	1	78
491.573	1	91
491.743	1	70
491.913	1	91
492.084	1	90
492.254	1	75
492.424	1	91
492.594	1	81
492.765	1	84
492.935	1	96
493.105	1	89
493.275	1	75
493.446	1	79
493.616	1	74
493.786	1	81
493.956	1	65
494.127	1	76
494.297	1	69
494.467	1	77
494.637	1	84
494.808	1	76
494.978	1	78
495.148	1	77
495.318	1	80
495.489	1	74
495.659	1	80
495.829	1	68
495.999	1	76
496.170	1	72
496.340	1	75
496.510	1	66
496.680	1	76
496.851	1	83
497.021	1	72
497.191	1	76
497.361	1	60
497.532	1	77
497.702	1	73
497.872	1	64
498.042	1	71
498.213	1	66
498.383	1	72
498.553	1	79
498.723	1	76
498.894	1	73
499.064	1	68
499.234	1	80
499.404	1	79
499.574	1	68
499.745	1	64
499.915	1	72
500.085	1	64
500.255	1	59
500.426	1	63
500.596	1	54
500.766	1	66
500.936	1	74
501.106	1	60
501.277	1	64
501.447	1	73
501.617	1	63
501.787	1	62
501.958	1	70
502.128	1	66
502.298	1	63
502.468	1	66
502.638	1	69
502.809	1	52
502.979	1	60
503.149	1	66
503.319	1	74
503.489	1	49
503.660	1	52
503.830	1	64
504.000	1	58
504.170	1	68
504.340	1	53
504.511	1	54
504.681	1	64
504.851	1	58
505.021	1	61
505.192	1	54
505.362	1	64
505.532	1	59
505.702	1	74
505.872	1	59
506.043	1	62
506.213	1	65
506.383	1	60
506.553	1	64
506.723	1	57
506.893	1	64
507.064	1	68
507.234	1	59
507.404	1	58
507.574	1	61
507.744	1	59
507.915	1	53
508.085	1	46
508.255	1	54
508.425	1	61
508.595	1	60
508.766	1	56
508.936	1	57
509.106	1	58
509.276	1	59
509.446	1	50
509.616	1	66
509.787	1	56
509.957	1	53
510.127	1	44
510.297	1	60
510.467	1	49
510.638	1	62
510.808	1	67
510.978	1	51
511.148	1	56
511.318	1	58
511.488	1	65
511.659	1	57
511.829	1	55
511.999	1	55
512.169	1	63
512.339	1	67
512.509	1	49
512.680	1	64
512.850	1	52
513.020	1	52
513.190	1	45
513.360	1	53
513.530	1	56
513.700	1	54
513.871	1	44
514.041	1	50
514.211	1	60
514.381	1	60
514.551	1	39
514.721	1	60
514.892	1	53
515.062	1	59
515.232	1	42
515.402	1	65
515.572	1	55
515.742	1	59
515.912	1	57
516.083	1	50
516.253	1	61
516.423	1	50
516.593	1	50
516.763	1	54
516.933	1	54
517.104	1	53
517.274	1	49
517.444	1	44
517.614	1	38
517.784	1	49
517.954	1	48
518.124	1	58
518.294	1	55
518.465	1	51
518.635	1	65
518.805	1	47
518.975	1	49
519.145	1	53
519.315	1	46
519.485	1	44
519.656	1	50
519.826	1	46
519.996	1	51
520.166	1	44
520.336	1	49
520.506	1	46
520.676	1	47
520.846	1	44
521.017	1	41
521.187	1	52
521.357	1	40
521.527	1	42
521.697	1	41
521.867	1	54
522.037	1	35
522.207	1	43
522.377	1	46
522.548	1	24
522.718	1	44
522.888	1	38
523.058	1	49
523.228	1	37
523.398	1	42
523.568	1	35
523.738	1	35
523.909	1	37
524.079	1	44
524.249	1	35
524.419	1	36
524.589	1	50
524.759	1	54
524.929	1	43
525.099	1	35
525.269	1	37
525.439	1	43
525.610	1	56
525.780	1	40
525.950	1	42
526.120	1	33
526.290	1	41
526.460	1	34
526.630	1	37
526.800	1	37
526.970	1	43
527.140	1	30
527.311	1	41
527.481	1	50
527.651	1	30
527.821	1	44
527.991	1	36
528.161	1	55
528.331	1	32
528.501	1	25
528.671	1	50
528.841	1	37
529.011	1	40
529.181	1	34
529.352	1	36
529.522	1	27
529.692	1	33
529.862	1	33
530.032	1	41
530.202	1	28
530.372	1	48
530.542	1	33
530.712	1	32
530.882	1	39
531.052	1	42
531.222	1	38
531.392	1	34
531.563	1	44
531.733	1	34
531.903	1	41
532.073	1	43
532.243	1	42
532.413	1	52
532.583	1	39
532.753	1	35
532.923	1	37
533.093	1	29
533.263	1	46
533.433	1	31
533.603	1	25
533.773	1	36
533.943	1	43
534.113	1	39
534.284	1	40
534.454	1	34
534.624	1	38
534.794	1	36
534.964	1	38
535.134	1	32
535.304	1	35
535.474	1	47
535.644	1	46
535.814	1	38
535.984	1	44
536.154	1	39
536.324	1	33
536.494	1	44
536.664	1	37
536.834	1	35
537.004	1	33
537.174	1	35
537.344	1	43
537.514	1	26
537.685	1	39
537.855	1	35
538.025	1	52
538.195	1	32
538.365	1	36
538.535	1	24
538.705	1	35
538.875	1	40
539.045	1	28
539.215	1	19
539.385	1	38
539.555	1	27
539.725	1	36
539.895	1	40
540.065	1	27
540.235	1	36
540.405	1	28
540.575	1	38
540.745	1	34
540.915	1	35
541.085	1	26
541.255	1	33
541.425	1	31
541.595	1	34
541.765	1	47
541.935	1	39
542.105	1	29
542.275	1	32
542.445	1	31
542.615	1	29
542.785	1	26
542.955	1	42
543.125	1	29
543.295	1	43
543.465	1	44
543.635	1	16
543.805	1	41
543.975	1	18
544.145	1	26
544.315	1	21
544.485	1	25
544.655	1	38
544.825	1	31
544.995	1	37
545.165	1	30
545.335	1	37
545.505	1	24
545.675	1	41
545.845	1	38
546.015	1	29
546.185	1	38
546.355	1	27
546.525	1	23
546.695	1	29
546.865	1	35
547.035	1	24
547.205	1	35
547.375	1	38
547.545	1	24
547.715	1	37
547.885	1	19
548.055	1	20
548.225	1	38
548.395	1	24
548.565	1	27
548.735	1	33
548.905	1	28
549.075	1	24
549.245	1	19
549.415	1	33
549.585	1	21
549.755	1	25
549.925	1	30
550.095	1	20
550.265	1	26
550.435	1	38
550.605	1	30
550.775	1	26
550.945	1	21
551.115	1	29
551.285	1	26
551.455	1	31
551.625	1	12
551.795	1	26
551.965	1	26
552.135	1	21
552.305	1	35
552.475	1	29
552.645	1	24
552.815	1	17
552.985	1	25
553.155	1	23
553.325	1	19
553.495	1	34
553.665	1	25
553.835	1	26
554.004	1	30
554.174	1	26
554.344	1	29
554.514	1	27
554.684	1	27
554.854	1	19
555.024	1	34
555.194	1	18
555.364	1	27
555.534	1	19
555.704	1	22
555.874	1	29
556.044	1	28
556.214	1	16
556.384	1	33
556.554	1	35
556.724	1	18
556.894	1	27
557.064	1	20
557.234	1	17
557.404	1	28
557.573	1	30
557.743	1	15
557.913	1	22
558.083	1	31
558.253	1	17
558.423	1	23
558.593	1	35
558.763	1	18
558.933	1	16
559.103	1	28
559.273	1	29
559.443	1	22
559.613	1	25
559.783	1	21
559.953	1	10
560.122	1	32
560.292	1	1
560.462	1	18
560.632	1	17
560.802	1	25
560.972	1	18
561.142	1	20
561.312	1	17
561.482	1	40
561.652	1	19
561.822	1	19
561.992	1	24
562.162	1	21
562.331	1	7
562.501	1	15
562.671	1	13
562.841	1	7
563.011	1	25
563.181	1	18
563.351	1	13
563.521	1	19
563.691	1	23
563.861	1	20
564.031	1	14
564.201	1	26
564.370	1	20
564.540	1	15
564.710	1	26
564.880	1	20
565.050	1	14
565.220	1	31
565.390	1	16
565.560	1	22
565.730	1	23
565.900	1	24
566.069	1	26
566.239	1	14
566.409	1	27
566.579	1	23
566.749	1	15
566.919	1	5
567.089	1	5
567.259	1	17
567.429	1	14
567.599	1	24
567.768	1	14
567.938	1	14
568.108	1	16
568.278	1	29
568.448	1	22
568.618	1	26
568.788	1	24
568.958	1	15
569.128	1	26
569.297	1	6
569.467	1	22
569.637	1	24
569.807	1	22
569.977	1	18
570.147	1	25
570.317	1	26
570.487	1	18
570.656	1	18
570.826	1	26
570.996	1	27
571.166	1	22
571.336	1	27
571.506	1	17
571.676	1	20
571.846	1	27
572.015	1	21
572.185	1	19
572.355	1	17
572.525	1	9
572.695	1	8
572.865	1	21
573.035	1	27
573.205	1	19
573.374	1	17
573.544	1	12
573.714	1	14
573.884	1	8
574.054	1	23
574.224	1	21
574.394	1	15
574.563	1	20
574.733	1	17
574.903	1	18
575.073	1	25
575.243	1	14
575.413	1	10
575.583	1	13
575.752	1	18
575.922	1	31
576.092	1	13
576.262	1	15
576.432	1	10
576.602	1	19
576.772	1	20
576.941	1	12
577.111	1	16
577.281	1	23
577.451	1	22
577.621	1	13
577.791	1	15
577.960	1	22
578.130	1	23
578.300	1	3
578.470	1	30
578.640	1	14
578.810	1	16
578.979	1	19
579.149	1	8
579.319	1	9
579.489	1	17
579.659	1	13
579.829	1	15
579.998	1	0
580.168	1	13
580.338	1	14
580.508	1	21
580.678	1	22
580.848	1	26
581.017	1	32
581.187	1	12
581.357	1	23
581.527	1	19
581.697	1	13
581.867	1	10
582.036	1	7
582.206	1	12
582.376	1	18
582.546	1	14
582.716	1	18
582.885	1	11
583.055	1	7
583.225	1	16
583.395	1	15
583.565	1	21
583.735	1	15
583.904	1	16
584.074	1	17
584.244	1	22
584.414	1	20
584.584	1	18
584.753	1	26
584.923	1	5
585.093	1	20
585.263	1	16
585.433	1	11
585.602	1	28
585.772	1	40
585.942	1	18
586.112	1	18
586.282	1	19
586.451	1	16
586.621	1	18
586.791	1	17
586.961	1	19
587.131	1	11
587.300	1	31
587.470	1	10
587.640	1	14
587.810	1	-2
587.980	1	23
588.149	1	14
588.319	1	20
588.489	1	19
588.659	1	13
588.829	1	14
588.998	1	9
589.168	1	20
589.338	1	11
589.508	1	26
589.677	1	11
589.847	1	16
590.017	1	16
590.187	1	18
590.357	1	15
590.526	1	12
590.696	1	27
590.866	1	14
591.036	1	22
591.205	1	18
591.375	1	17
591.545	1	15
591.715	1	14
591.885	1	17
592.054	1	23
592.224	1	18
592.394	1	4
592.564	1	15
592.733	1	15
592.903	1	18
593.073	1	13
593.243	1	15
593.412	1	5
593.582	1	22
593.752	1	13
593.922	1	9
594.091	1	20
594.261	1	9
594.431	1	26
594.601	1	19
594.771	1	21
594.940	1	20
595.110	1	6
595.280	1	21
595.450	1	10
595.619	1	21
595.789	1	12
595.959	1	14
596.129	1	11
596.298	1	25
596.468	1	16
596.638	1	11
596.808	1	8
596.977	1	13
597.147	1	17
597.317	1	19
597.487	1	21
597.656	1	18
597.826	1	26
597.996	1	17
598.166	1	18
598.335	1	9
598.505	1	18
598.675	1	19
598.844	1	27
599.014	1	10
599.184	1	20
599.354	1	29
599.523	1	8
599.693	1	15
599.863	1	14
600.033	1	13
600.202	1	16
600.372	1	21
600.542	1	17
600.712	1	8
600.881	1	22
601.051	1	20
601.221	1	16
601.390	1	13
601.560	1	23
601.730	1	16
601.900	1	29
602.069	1	22
602.239	1	21
602.409	1	23
602.578	1	9
602.748	1	24
602.918	1	6
603.088	1	18
603.257	1	12
603.427	1	23
603.597	1	19
603.767	1	15
603.936	1	29
604.106	1	10
604.276	1	21
604.445	1	17
604.615	1	21
604.785	1	18
604.954	1	14
605.124	1	13
605.294	1	9
605.464	1	12
605.633	1	19
605.803	1	26
605.973	1	21
606.142	1	32
606.312	1	31
606.482	1	9
606.652	1	23
606.821	1	23
606.991	1	18
607.161	1	17
607.330	1	16
607.500	1	12
607.670	1	21
607.839	1	12
608.009	1	18
608.179	1	15
608.348	1	19
608.518	1	27
608.688	1	20
608.858	1	20
609.027	1	26
609.197	1	20
609.367	1	26
609.536	1	19
609.706	1	24
609.876	1	25
610.045	1	28
610.215	1	13
610.385	1	27
610.554	1	24
610.724	1	18
610.894	1	32
611.063	1	23
611.233	1	16
611.403	1	27
611.572	1	21
611.742	1	22
611.912	1	17
612.081	1	30
612.251	1	26
612.421	1	25
612.590	1	22
612.760	1	33
612.930	1	29
613.099	1	19
613.269	1	25
613.439	1	10
613.608	1	16
613.778	1	22
613.948	1	19
614.117	1	18
614.287	1	22
614.457	1	18
614.626	1	20
614.796	1	23
614.966	1	20
615.135	1	23
615.305	1	20
615.475	1	20
615.644	1	34
615.814	1	28
615.984	1	19
616.153	1	19
616.323	1	20
616.493	1	34
616.662	1	19
616.832	1	24
617.002	1	24
617.171	1	24
617.341	1	26
617.511	1	21
617.680	1	18
617.850	1	21
618.019	1	23
618.189	1	25
618.359	1	19
618.528	1	16
618.698	1	32
618.868	1	21
619.037	1	23
619.207	1	15
619.377	1	25
619.546	1	28
619.716	1	21
619.885	1	27
620.055	1	21
620.225	1	22
620.394	1	29
620.564	1	28
620.734	1	24
620.903	1	12
621.073	1	26
621.242	1	31
621.412	1	14
621.582	1	31
621.751	1	29
621.921	1	21
622.091	1	33
622.260	1	30
622.430	1	26
622.599	1	24
622.769	1	17
622.939	1	17
623.108	1	29
623.278	1	14
623.448	1	20
623.617	1	42
623.787	1	27
623.956	1	24
624.126	1	39
624.296	1	33
624.465	1	26
624.635	1	32
624.804	1	24
624.974	1	7
625.144	1	25
625.313	1	33
625.483	1	25
625.652	1	29
625.822	1	25
625.992	1	18
626.161	1	23
626.331	1	6
626.501	1	22
626.670	1	23
626.840	1	28
627.009	1	21
627.179	1	28
627.348	1	29
627.518	1	46
627.688	1	23
627.857	1	28
628.027	1	35
628.196	1	38
628.366	1	10
628.536	1	25
628.705	1	29
628.875	1	16
629.044	1	20
629.214	1	40
629.384	1	27
629.553	1	28
629.723	1	33
629.892	1	18
630.062	1	28
630.232	1	28
630.401	1	29
630.571	1	24
630.740	1	16
630.910	1	43
631.079	1	34
631.249	1	21
631.419	1	25
631.588	1	38
631.758	1	24
631.927	1	39
632.097	1	24
632.266	1	33
632.436	1	29
632.606	1	29
632.775	1	48
632.945	1	21
633.114	1	31
633.284	1	29
633.453	1	32
633.623	1	47
633.793	1	33
633.962	1	38
634.132	1	32
634.301	1	32
634.471	1	36
634.640	1	36
634.810	1	33
634.979	1	32
635.149	1	32
635.319	1	32
635.488	1	33
635.658	1	24
635.827	1	31
635.997	1	36
636.166	1	41
636.336	1	21
636.505	1	34
636.675	1	35
636.845	1	32
637.014	1	23
637.184	1	35
637.353	1	27
637.523	1	42
637.692	1	39
637.862	1	42
638.031	1	24
638.201	1	38
638.370	1	33
638.540	1	29
638.710	1	23
638.879	1	26
639.049	1	27
639.218	1	32
639.388	1	30
639.557	1	36
639.727	1	36
639.896	1	32
640.066	1	29
640.235	1	38
640.405	1	29
640.574	1	42
640.744	1	36
640.914	1	36
641.083	1	35
641.253	1	30
641.422	1	23
641.592	1	40
641.761	1	35
641.931	1	40
642.100	1	28
642.270	1	38
642.439	1	42
642.609	1	40
642.778	1	39
642.948	1	38
643.117	1	27
643.287	1	36
643.456	1	24
643.626	1	26
643.795	1	30
643.965	1	36
644.134	1	32
644.304	1	46
644.473	1	36
644.643	1	34
644.812	1	27
644.982	1	39
645.151	1	25
645.321	1	45
645.490	1	39
645.660	1	28
645.829	1	35
645.999	1	35
646.168	1	56
646.338	1	26
646.507	1	34
646.677	1	37
646.846	1	50
647.016	1	46
647.185	1	45
647.355	1	47
647.524	1	31
647.694	1	35
647.863	1	28
648.033	1	46
648.202	1	42
648.372	1	32
648.541	1	25
648.711	1	38
648.880	1	43
649.050	1	45
649.219	1	44
649.389	1	38
649.558	1	48
649.728	1	26
649.897	1	47
650.067	1	56
650.236	1	29
650.406	1	35
650.575	1	42
650.745	1	46
650.914	1	39
651.084	1	41
651.253	1	36
651.423	1	37
651.592	1	39
651.762	1	34
651.931	1	39
652.101	1	39
652.270	1	30
652.440	1	46
652.609	1	35
652.778	1	50
652.948	1	40
653.117	1	42
653.287	1	29
653.456	1	38
653.626	1	38
653.795	1	35
653.965	1	31
654.134	1	39
654.304	1	37
654.473	1	32
654.643	1	46
654.812	1	44
654.982	1	40
655.151	1	43
655.320	1	37
655.490	1	25
655.659	1	37
655.829	1	46
655.998	1	45
656.168	1	39
656.337	1	49
656.507	1	29
656.676	1	35
656.846	1	46
657.015	1	42
657.184	1	43
657.354	1	37
657.523	1	45
657.693	1	45
657.862	1	34
658.032	1	44
658.201	1	41
658.371	1	46
658.540	1	31
658.709	1	42
658.879	1	38
659.048	1	36
659.218	1	37
659.387	1	46
659.557	1	41
659.726	1	36
659.895	1	41
660.065	1	34
660.234	1	44
660.404	1	48
660.573	1	45
660.743	1	40
660.912	1	44
661.081	1	38
661.251	1	46
661.420	1	50
661.590	1	38
661.759	1	39
661.929	1	47
662.098	1	47
662.267	1	40
662.437	1	42
662.606	1	26
662.776	1	53
662.945	1	45
663.115	1	53
663.284	1	50
663.453	1	48
663.623	1	44
663.792	1	40
663.962	1	49
664.131	1	37
664.300	1	41
664.470	1	37
664.639	1	34
664.809	1	36
664.978	1	64
665.148	1	57
665.317	1	53
665.486	1	46
665.656	1	41
665.825	1	41
665.995	1	41
666.164	1	43
666.333	1	30
666.503	1	35
666.672	1	41
666.842	1	45
667.011	1	48
667.180	1	36
667.350	1	46
667.519	1	46
667.689	1	37
667.858	1	48
668.027	1	31
668.197	1	40
668.366	1	39
668.536	1	37
668.705	1	38
668.874	1	50
669.044	1	45
669.213	1	42
669.382	1	49
669.552	1	44
669.721	1	43
669.891	1	43
670.060	1	49
670.229	1	40
670.399	1	36
670.568	1	47
670.738	1	38
670.907	1	49
671.076	1	48
671.246	1	46
671.415	1	52
671.584	1	53
671.754	1	46
671.923	1	39
672.093	1	46
672.262	1	38
672.431	1	50
672.601	1	40
672.770	1	46
672.939	1	47
673.109	1	43
673.278	1	35
673.448	1	42
673.617	1	50
673.786	1	34
