325.333	1	16
325.504	1	5
325.675	1	23
325.846	1	8
326.017	1	7
326.188	1	13
326.359	1	21
326.531	1	-4
326.702	1	7
326.873	1	24
327.044	1	12
327.215	1	4
327.386	1	15
327.557	1	-1
327.728	1	7
327.899	1	8
328.070	1	15
328.241	1	-2
328.412	1	16
328.583	1	4
328.754	1	15
328.926	1	8
329.097	1	3
329.268	1	33
329.439	1	17
329.610	1	17
329.781	1	23
329.952	1	3
330.123	1	7
330.294	1	9
330.465	1	-4
330.636	1	13
330.807	1	21
330.978	1	17
331.149	1	19
331.320	1	13
331.492	1	20
331.663	1	13
331.834	1	15
332.005	1	19
332.176	1	20
332.347	1	12
332.518	1	20
332.689	1	7
332.860	1	16
333.031	1	17
333.202	1	8
333.373	1	19
333.544	1	15
333.715	1	16
333.886	1	3
334.057	1	8
334.228	1	29
334.399	1	26
334.570	1	13
334.741	1	19
334.912	1	9
335.084	1	16
335.255	1	34
335.426	1	19
335.597	1	10
335.768	1	24
335.939	1	12
336.110	1	19
336.281	1	27
336.452	1	27
336.623	1	15
336.794	1	21
336.965	1	16
337.136	1	24
337.307	1	21
337.478	1	18
337.649	1	19
337.820	1	24
337.991	1	19
338.162	1	26
338.333	1	15
338.504	1	22
338.675	1	25
338.846	1	8
339.017	1	21
339.188	1	22
339.359	1	22
339.530	1	19
339.701	1	29
339.872	1	26
340.043	1	26
340.214	1	33
340.385	1	5
340.556	1	29
340.727	1	33
340.898	1	17
341.069	1	28
341.240	1	13
341.411	1	26
341.582	1	19
341.753	1	17
341.924	1	40
342.095	1	23
342.266	1	13
342.437	1	30
342.608	1	25
342.779	1	26
342.950	1	22
343.121	1	35
343.292	1	25
343.463	1	33
343.634	1	28
343.805	1	30
343.976	1	39
344.147	1	41
344.318	1	21
344.489	1	28
344.660	1	33
344.831	1	35
345.002	1	30
345.173	1	30
345.344	1	31
345.515	1	29
345.686	1	27
345.857	1	32
346.028	1	34
346.199	1	31
346.370	1	33
346.541	1	24
346.712	1	27
346.883	1	22
347.054	1	34
347.225	1	24
347.396	1	31
347.567	1	22
347.738	1	39
347.909	1	31
348.080	1	27
348.251	1	20
348.422	1	40
348.593	1	33
348.764	1	27
348.935	1	37
349.106	1	30
349.277	1	34
349.448	1	39
349.619	1	34
349.790	1	33
349.961	1	28
350.132	1	43
350.303	1	29
350.474	1	29
350.645	1	33
350.816	1	37
350.987	1	49
351.157	1	28
351.328	1	26
351.499	1	45
351.670	1	33
351.841	1	42
352.012	1	43
352.183	1	44
352.354	1	31
352.525	1	43
352.696	1	34
352.867	1	40
353.038	1	40
353.209	1	27
353.380	1	37
353.551	1	33
353.722	1	34
353.893	1	45
354.064	1	37
354.235	1	33
354.406	1	30
354.576	1	45
354.747	1	40
354.918	1	26
355.089	1	41
355.260	1	27
355.431	1	27
355.602	1	27
355.773	1	35
355.944	1	42
356.115	1	35
356.286	1	39
356.457	1	42
356.628	1	42
356.799	1	43
356.970	1	44
357.141	1	45
357.311	1	59
357.482	1	32
357.653	1	30
357.824	1	46
357.995	1	40
358.166	1	44
358.337	1	43
358.508	1	46
358.679	1	42
358.850	1	37
359.021	1	51
359.192	1	55
359.363	1	43
359.533	1	39
359.704	1	43
359.875	1	42
360.046	1	45
360.217	1	42
360.388	1	47
360.559	1	57
360.730	1	42
360.901	1	41
361.072	1	38
361.243	1	42
361.414	1	48
361.584	1	39
361.755	1	47
361.926	1	54
362.097	1	41
362.268	1	49
362.439	1	44
362.610	1	45
362.781	1	34
362.952	1	54
363.123	1	37
363.293	1	39
363.464	1	35
363.635	1	38
363.806	1	47
363.977	1	44
364.148	1	42
364.319	1	36
364.490	1	59
364.661	1	43
364.832	1	50
365.002	1	49
365.173	1	52
365.344	1	49
365.515	1	43
365.686	1	47
365.857	1	56
366.028	1	48
366.199	1	49
366.370	1	47
366.540	1	46
366.711	1	52
366.882	1	48
367.053	1	50
367.224	1	44
367.395	1	56
367.566	1	51
367.737	1	45
367.908	1	50
368.078	1	51
368.249	1	50
368.420	1	51
368.591	1	60
368.762	1	43
368.933	1	42
369.104	1	50
369.274	1	59
369.445	1	52
369.616	1	50
369.787	1	40
369.958	1	53
370.129	1	45
370.300	1	42
370.471	1	50
370.641	1	46
370.812	1	46
370.983	1	41
371.154	1	41
371.325	1	48
371.496	1	46
371.667	1	54
371.837	1	47
372.008	1	48
372.179	1	39
372.350	1	57
372.521	1	48
372.692	1	54
372.863	1	37
373.033	1	59
373.204	1	45
373.375	1	45
373.546	1	58
373.717	1	48
373.888	1	55
374.059	1	45
374.229	1	54
374.400	1	46
374.571	1	41
374.742	1	48
374.913	1	43
375.084	1	41
375.254	1	46
375.425	1	58
375.596	1	56
375.767	1	48
375.938	1	57
376.109	1	58
376.279	1	52
376.450	1	50
376.621	1	57
376.792	1	51
376.963	1	56
377.134	1	46
377.304	1	57
377.475	1	44
377.646	1	49
377.817	1	63
377.988	1	48
378.159	1	63
378.329	1	44
378.500	1	58
378.671	1	50
378.842	1	59
379.013	1	61
379.184	1	59
379.354	1	61
379.525	1	60
379.696	1	55
379.867	1	58
380.038	1	62
380.209	1	57
380.379	1	59
380.550	1	52
380.721	1	58
380.892	1	53
381.063	1	57
381.233	1	62
381.404	1	60
381.575	1	60
381.746	1	60
381.917	1	58
382.087	1	54
382.258	1	59
382.429	1	54
382.600	1	51
382.771	1	55
382.941	1	61
383.112	1	60
383.283	1	53
383.454	1	47
383.625	1	62
383.795	1	67
383.966	1	70
384.137	1	66
384.308	1	56
384.479	1	58
384.649	1	55
384.820	1	62
384.991	1	53
385.162	1	75
385.333	1	56
385.503	1	64
385.674	1	61
385.845	1	77
386.016	1	67
386.187	1	53
386.357	1	72
386.528	1	60
386.699	1	60
386.870	1	62
387.041	1	72
387.211	1	63
387.382	1	75
387.553	1	60
387.724	1	63
387.894	1	51
388.065	1	64
388.236	1	54
388.407	1	65
388.578	1	59
388.748	1	73
388.919	1	67
389.090	1	76
389.261	1	75
389.431	1	50
389.602	1	61
389.773	1	69
389.944	1	73
390.114	1	73
390.285	1	70
390.456	1	72
390.627	1	62
390.798	1	61
390.968	1	61
391.139	1	70
391.310	1	68
391.481	1	64
391.651	1	68
391.822	1	84
391.993	1	69
392.164	1	55
392.334	1	61
392.505	1	69
392.676	1	50
392.847	1	54
393.017	1	62
393.188	1	73
393.359	1	77
393.530	1	78
393.700	1	55
393.871	1	75
394.042	1	63
394.213	1	75
394.383	1	63
394.554	1	69
394.725	1	64
394.896	1	72
395.066	1	68
395.237	1	63
395.408	1	67
395.579	1	79
395.749	1	84
395.920	1	74
396.091	1	71
396.262	1	73
396.432	1	63
396.603	1	71
396.774	1	55
396.945	1	73
397.115	1	80
397.286	1	80
397.457	1	80
397.627	1	62
397.798	1	66
397.969	1	74
398.140	1	71
398.310	1	71
398.481	1	82
398.652	1	72
398.823	1	68
398.993	1	69
399.164	1	68
399.335	1	67
399.505	1	62
399.676	1	72
399.847	1	76
400.018	1	59
400.188	1	77
400.359	1	71
400.530	1	83
400.700	1	72
400.871	1	69
401.042	1	72
401.213	1	74
401.383	1	76
401.554	1	71
401.725	1	72
401.895	1	61
402.066	1	74
402.237	1	70
402.408	1	81
402.578	1	81
402.749	1	70
402.920	1	74
403.090	1	70
403.261	1	64
403.432	1	73
403.603	1	80
403.773	1	75
403.944	1	78
404.115	1	75
404.285	1	81
404.456	1	81
404.627	1	86
404.797	1	79
404.968	1	75
405.139	1	74
405.310	1	75
405.480	1	70
405.651	1	77
405.822	1	75
405.992	1	86
406.163	1	65
406.334	1	77
406.504	1	62
406.675	1	74
406.846	1	83
407.016	1	81
407.187	1	75
407.358	1	73
407.528	1	81
407.699	1	78
407.870	1	84
408.041	1	72
408.211	1	79
408.382	1	89
408.553	1	77
408.723	1	83
408.894	1	73
409.065	1	79
409.235	1	78
409.406	1	72
409.577	1	75
409.747	1	78
409.918	1	79
410.089	1	84
410.259	1	72
410.430	1	73
410.601	1	77
410.771	1	86
410.942	1	82
411.113	1	78
411.283	1	78
411.454	1	84
411.625	1	84
411.795	1	72
411.966	1	65
412.137	1	87
412.307	1	74
412.478	1	72
412.649	1	65
412.819	1	78
412.990	1	83
413.161	1	81
413.331	1	70
413.502	1	67
413.672	1	65
413.843	1	79
414.014	1	67
414.184	1	80
414.355	1	68
414.526	1	69
414.696	1	78
414.867	1	70
415.038	1	76
415.208	1	73
415.379	1	68
415.550	1	76
415.720	1	69
415.891	1	70
416.062	1	81
416.232	1	76
416.403	1	72
416.573	1	80
416.744	1	85
416.915	1	75
417.085	1	84
417.256	1	73
417.427	1	72
417.597	1	71
417.768	1	76
417.939	1	69
418.109	1	82
418.280	1	79
418.450	1	82
418.621	1	77
418.792	1	71
418.962	1	81
419.133	1	69
419.304	1	77
419.474	1	73
419.645	1	80
419.815	1	63
419.986	1	91
420.157	1	70
420.327	1	71
420.498	1	78
420.669	1	79
420.839	1	71
421.010	1	70
421.180	1	74
421.351	1	74
421.522	1	74
421.692	1	73
421.863	1	82
422.033	1	89
422.204	1	74
422.375	1	73
422.545	1	75
422.716	1	64
422.886	1	75
423.057	1	65
423.228	1	72
423.398	1	72
423.569	1	71
423.740	1	70
423.910	1	70
424.081	1	81
424.251	1	70
424.422	1	74
424.593	1	70
424.763	1	71
424.934	1	77
425.104	1	75
425.275	1	67
425.445	1	73
425.616	1	75
425.787	1	60
425.957	1	68
426.128	1	73
426.298	1	77
426.469	1	55
426.640	1	72
426.810	1	58
426.981	1	73
427.151	1	62
427.322	1	65
427.493	1	68
427.663	1	65
427.834	1	72
428.004	1	75
428.175	1	75
428.345	1	58
428.516	1	70
428.687	1	80
428.857	1	76
429.028	1	62
429.198	1	70
429.369	1	72
429.540	1	78
429.710	1	64
429.881	1	63
430.051	1	73
430.222	1	65
430.392	1	74
430.563	1	53
430.734	1	66
430.904	1	71
431.075	1	58
431.245	1	68
431.416	1	68
431.586	1	67
431.757	1	71
431.927	1	73
432.098	1	69
432.269	1	60
432.439	1	71
432.610	1	76
432.780	1	75
432.951	1	54
433.121	1	60
433.292	1	82
433.462	1	73
433.633	1	61
433.804	1	67
433.974	1	75
434.145	1	70
434.315	1	66
434.486	1	54
434.656	1	70
434.827	1	74
434.997	1	66
435.168	1	63
435.339	1	78
435.509	1	63
435.680	1	69
435.850	1	50
436.021	1	70
436.191	1	68
436.362	1	69
436.532	1	63
436.703	1	70
436.873	1	59
437.044	1	78
437.214	1	64
437.385	1	68
437.556	1	78
437.726	1	70
437.897	1	70
438.067	1	68
438.238	1	52
438.408	1	55
438.579	1	59
438.749	1	57
438.920	1	78
439.090	1	58
439.261	1	70
439.431	1	48
439.602	1	57
439.772	1	73
439.943	1	49
440.113	1	59
440.284	1	63
440.455	1	60
440.625	1	76
440.796	1	60
440.966	1	61
441.137	1	69
441.307	1	64
441.478	1	50
441.648	1	63
441.819	1	61
441.989	1	71
442.160	1	58
442.330	1	61
442.501	1	62
442.671	1	61
442.842	1	60
443.012	1	64
443.183	1	54
443.353	1	60
443.524	1	57
443.694	1	58
443.865	1	62
444.035	1	59
444.206	1	62
444.376	1	65
444.547	1	57
444.717	1	54
444.888	1	50
445.058	1	56
445.229	1	63
445.399	1	62
445.570	1	63
445.740	1	52
445.911	1	65
446.081	1	49
446.252	1	67
446.422	1	58
446.593	1	62
446.763	1	67
446.934	1	61
447.104	1	54
447.275	1	55
447.445	1	62
447.616	1	57
447.786	1	64
447.957	1	64
448.127	1	64
448.298	1	57
448.468	1	62
448.639	1	51
448.809	1	69
448.979	1	72
449.150	1	51
449.320	1	66
449.491	1	45
449.661	1	56
449.832	1	53
450.002	1	53
450.173	1	68
450.343	1	61
450.514	1	65
450.684	1	57
450.855	1	58
451.025	1	45
451.196	1	39
451.366	1	70
451.537	1	57
451.707	1	64
451.878	1	43
452.048	1	54
452.218	1	60
452.389	1	59
452.559	1	68
452.730	1	49
452.900	1	43
453.071	1	60
453.241	1	50
453.412	1	51
453.582	1	48
453.753	1	56
453.923	1	48
454.093	1	49
454.264	1	57
454.434	1	57
454.605	1	39
454.775	1	54
454.946	1	47
455.116	1	58
455.287	1	42
455.457	1	54
455.628	1	45
455.798	1	66
455.968	1	46
456.139	1	64
456.309	1	52
456.480	1	47
456.650	1	51
456.821	1	45
456.991	1	61
457.161	1	44
457.332	1	38
457.502	1	51
457.673	1	47
457.843	1	49
458.014	1	44
458.184	1	50
458.355	1	59
458.525	1	54
458.695	1	48
458.866	1	41
459.036	1	52
459.207	1	56
459.377	1	54
459.548	1	42
459.718	1	44
459.888	1	42
460.059	1	51
460.229	1	43
460.400	1	48
460.570	1	41
460.740	1	48
460.911	1	48
461.081	1	50
461.252	1	47
461.422	1	42
461.593	1	46
461.763	1	53
461.933	1	48
462.104	1	42
462.274	1	36
462.445	1	41
462.615	1	62
462.785	1	55
462.956	1	46
463.126	1	43
463.297	1	43
463.467	1	58
463.638	1	49
463.808	1	43
463.978	1	36
464.149	1	43
464.319	1	62
464.490	1	46
464.660	1	44
464.830	1	51
465.001	1	49
465.171	1	39
465.342	1	43
465.512	1	57
465.682	1	38
465.853	1	43
466.023	1	53
466.194	1	43
466.364	1	64
466.534	1	36
466.705	1	51
466.875	1	36
467.045	1	36
467.216	1	45
467.386	1	41
467.557	1	48
467.727	1	52
467.897	1	40
468.068	1	35
468.238	1	33
468.409	1	43
468.579	1	43
468.749	1	45
468.920	1	33
469.090	1	51
469.260	1	44
469.431	1	34
469.601	1	33
469.772	1	48
469.942	1	38
470.112	1	37
470.283	1	44
470.453	1	48
470.623	1	39
470.794	1	37
470.964	1	33
471.135	1	43
471.305	1	36
471.475	1	35
471.646	1	39
471.816	1	45
471.986	1	50
472.157	1	37
472.327	1	42
472.497	1	32
472.668	1	51
472.838	1	36
473.009	1	44
473.179	1	36
473.349	1	33
473.520	1	51
473.690	1	37
473.860	1	32
474.031	1	26
474.201	1	35
474.371	1	39
474.542	1	27
474.712	1	26
474.882	1	41
475.053	1	49
475.223	1	41
475.394	1	37
475.564	1	34
475.734	1	38
475.905	1	48
476.075	1	41
476.245	1	40
476.416	1	37
476.586	1	28
476.756	1	43
476.927	1	36
477.097	1	27
477.267	1	37
477.438	1	42
477.608	1	52
477.778	1	33
477.949	1	29
478.119	1	42
478.289	1	25
478.460	1	29
478.630	1	29
478.800	1	37
478.971	1	40
479.141	1	43
479.311	1	39
479.482	1	39
479.652	1	36
479.822	1	21
479.993	1	37
480.163	1	43
480.333	1	39
480.504	1	27
480.674	1	45
480.844	1	34
481.015	1	48
481.185	1	40
481.355	1	31
481.525	1	35
481.696	1	32
481.866	1	42
482.036	1	29
482.207	1	41
482.377	1	30
482.547	1	27
482.718	1	42
482.888	1	43
483.058	1	45
483.229	1	42
483.399	1	41
483.569	1	23
483.740	1	41
483.910	1	23
484.080	1	32
484.250	1	30
484.421	1	27
484.591	1	32
484.761	1	30
484.932	1	29
485.102	1	30
485.272	1	29
485.443	1	36
485.613	1	31
485.783	1	25
485.953	1	17
486.124	1	34
486.294	1	39
486.464	1	27
486.635	1	33
486.805	1	31
486.975	1	21
487.146	1	33
487.316	1	40
487.486	1	43
487.656	1	37
487.827	1	27
487.997	1	30
488.167	1	36
488.338	1	19
488.508	1	41
488.678	1	25
488.848	1	26
489.019	1	29
489.189	1	32
489.359	1	32
489.529	1	32
489.700	1	25
489.870	1	37
490.040	1	23
490.211	1	28
490.381	1	31
490.551	1	37
490.721	1	33
490.892	1	19
491.062	1	18
491.232	1	20
491.402	1	32
491.573	1	30
491.743	1	20
491.913	1	27
492.084	1	17
492.254	1	17
492.424	1	28
492.594	1	23
492.765	1	27
492.935	1	39
493.105	1	24
493.275	1	20
493.446	1	14
493.616	1	20
493.786	1	29
493.956	1	23
494.127	1	31
494.297	1	28
494.467	1	8
494.637	1	30
494.808	1	24
494.978	1	24
495.148	1	27
495.318	1	26
495.489	1	25
495.659	1	33
495.829	1	35
495.999	1	29
496.170	1	25
496.340	1	21
496.510	1	37
496.680	1	23
496.851	1	42
497.021	1	24
497.191	1	24
497.361	1	16
497.532	1	27
497.702	1	24
497.872	1	22
498.042	1	17
498.213	1	13
498.383	1	20
498.553	1	24
498.723	1	22
498.894	1	27
499.064	1	29
499.234	1	33
499.404	1	38
499.574	1	30
499.745	1	21
499.915	1	24
500.085	1	16
500.255	1	0
500.426	1	21
500.596	1	13
500.766	1	16
500.936	1	18
501.106	1	6
501.277	1	0
501.447	1	30
501.617	1	18
501.787	1	11
501.958	1	25
502.128	1	21
502.298	1	23
502.468	1	17
502.638	1	25
502.809	1	19
502.979	1	18
503.149	1	18
503.319	1	36
503.489	1	7
503.660	1	6
503.830	1	22
504.000	1	12
504.170	1	15
504.340	1	5
504.511	1	22
504.681	1	10
504.851	1	14
505.021	1	18
505.192	1	17
505.362	1	23
505.532	1	20
505.702	1	29
505.872	1	19
506.043	1	29
506.213	1	23
506.383	1	18
506.553	1	15
506.723	1	6
506.893	1	14
507.064	1	27
507.234	1	11
507.404	1	16
507.574	1	14
507.744	1	19
507.915	1	20
508.085	1	27
508.255	1	20
508.425	1	13
508.595	1	8
508.766	1	6
508.936	1	22
509.106	1	22
509.276	1	14
509.446	1	12
509.616	1	13
509.787	1	14
509.957	1	27
510.127	1	5
510.297	1	8
510.467	1	22
510.638	1	16
510.808	1	23
510.978	1	5
511.148	1	15
511.318	1	17
511.488	1	19
511.659	1	13
511.829	1	10
511.999	1	15
512.169	1	16
512.339	1	20
512.509	1	13
512.680	1	19
512.850	1	23
513.020	1	15
513.190	1	7
513.360	1	29
513.530	1	21
513.700	1	27
513.871	1	18
514.041	1	20
514.211	1	21
514.381	1	17
514.551	1	10
514.721	1	13
514.892	1	17
515.062	1	17
515.232	1	8
515.402	1	10
515.572	1	11
515.742	1	18
515.912	1	11
516.083	1	15
516.253	1	22
516.423	1	18
516.593	1	12
516.763	1	15
516.933	1	8
517.104	1	20
517.274	1	13
517.444	1	27
517.614	1	6
517.784	1	9
517.954	1	11
518.124	1	9
518.294	1	18
518.465	1	8
518.635	1	24
518.805	1	19
518.975	1	18
519.145	1	14
519.315	1	15
519.485	1	-4
519.656	1	8
519.826	1	5
519.996	1	14
520.166	1	10
520.336	1	10
520.506	1	13
520.676	1	13
520.846	1	16
521.017	1	14
521.187	1	15
521.357	1	8
521.527	1	10
521.697	1	7
521.867	1	18
522.037	1	13
522.207	1	12
522.377	1	13
522.548	1	4
522.718	1	3
522.888	1	12
523.058	1	11
523.228	1	0
523.398	1	10
523.568	1	14
523.738	1	11
523.909	1	6
524.079	1	7
524.249	1	7
524.419	1	13
524.589	1	3
524.759	1	16
524.929	1	9
525.099	1	11
525.269	1	18
525.439	1	13
525.610	1	23
525.780	1	10
525.950	1	8
526.120	1	7
526.290	1	6
526.460	1	4
526.630	1	10
526.800	1	5
526.970	1	12
527.140	1	5
527.311	1	18
527.481	1	6
527.651	1	20
527.821	1	11
527.991	1	4
528.161	1	12
528.331	1	3
528.501	1	8
528.671	1	11
528.841	1	13
529.011	1	20
529.181	1	16
529.352	1	6
529.522	1	4
529.692	1	10
529.862	1	6
530.032	1	-2
530.202	1	7
530.372	1	16
530.542	1	11
530.712	1	13
530.882	1	12
531.052	1	16
531.222	1	21
531.392	1	3
531.563	1	15
531.733	1	15
531.903	1	11
532.073	1	8
532.243	1	20
532.413	1	30
532.583	1	9
532.753	1	2
532.923	1	8
533.093	1	-4
533.263	1	5
533.433	1	3
533.603	1	0
533.773	1	10
533.943	1	5
534.113	1	10
534.284	1	9
534.454	1	14
534.624	1	9
534.794	1	14
534.964	1	10
535.134	1	10
535.304	1	9
535.474	1	9
535.644	1	15
535.814	1	15
535.984	1	4
536.154	1	8
536.324	1	4
536.494	1	8
536.664	1	12
536.834	1	6
537.004	1	16
537.174	1	13
537.344	1	25
537.514	1	4
537.685	1	26
537.855	1	7
538.025	1	17
538.195	1	10
538.365	1	15
538.535	1	13
538.705	1	10
538.875	1	14
539.045	1	19
539.215	1	-3
539.385	1	13
539.555	1	4
539.725	1	7
539.895	1	14
540.065	1	11
540.235	1	4
540.405	1	11
540.575	1	9
540.745	1	7
540.915	1	11
541.085	1	-1
541.255	1	12
541.425	1	11
541.595	1	8
541.765	1	11
541.935	1	6
542.105	1	8
542.275	1	16
542.445	1	7
542.615	1	15
542.785	1	8
542.955	1	16
543.125	1	6
543.295	1	9
543.465	1	6
543.635	1	2
543.805	1	9
543.975	1	12
544.145	1	12
544.315	1	8
544.485	1	10
544.655	1	14
544.825	1	8
544.995	1	12
545.165	1	6
545.335	1	10
545.505	1	4
545.675	1	6
545.845	1	9
546.015	1	-1
546.185	1	4
546.355	1	12
546.525	1	17
546.695	1	0
546.865	1	16
547.035	1	16
547.205	1	15
547.375	1	8
547.545	1	8
547.715	1	9
547.885	1	5
548.055	1	7
548.225	1	20
548.395	1	14
548.565	1	14
548.735	1	0
548.905	1	6
549.075	1	3
549.245	1	10
549.415	1	5
549.585	1	8
549.755	1	5
549.925	1	8
550.095	1	8
550.265	1	13
550.435	1	4
550.605	1	7
550.775	1	3
550.945	1	8
551.115	1	9
551.285	1	3
551.455	1	10
551.625	1	6
551.795	1	4
551.965	1	-1
552.135	1	6
552.305	1	13
552.475	1	7
552.645	1	3
552.815	1	7
552.985	1	9
553.155	1	2
553.325	1	9
553.495	1	-2
553.665	1	3
553.835	1	3
554.004	1	12
554.174	1	-4
554.344	1	12
554.514	1	8
554.684	1	8
554.854	1	2
555.024	1	14
555.194	1	12
555.364	1	11
555.534	1	2
555.704	1	10
555.874	1	8
556.044	1	10
556.214	1	13
556.384	1	14
556.554	1	5
556.724	1	6
556.894	1	1
557.064	1	-1
557.234	1	7
557.404	1	10
557.573	1	6
557.743	1	5
557.913	1	0
558.083	1	10
558.253	1	10
558.423	1	5
558.593	1	15
558.763	1	4
558.933	1	3
559.103	1	10
559.273	1	7
559.443	1	16
559.613	1	13
559.783	1	-3
559.953	1	0
560.122	1	4
560.292	1	4
560.462	1	9
560.632	1	5
560.802	1	7
560.972	1	1
561.142	1	11
561.312	1	7
561.482	1	15
561.652	1	0
561.822	1	1
561.992	1	4
562.162	1	10
562.331	1	-4
562.501	1	7
562.671	1	7
562.841	1	-2
563.011	1	4
563.181	1	0
563.351	1	-2
563.521	1	1
563.691	1	8
563.861	1	6
564.031	1	12
564.201	1	2
564.370	1	12
564.540	1	7
564.710	1	1
564.880	1	-1
565.050	1	11
565.220	1	12
565.390	1	2
565.560	1	15
565.730	1	12
565.900	1	12
566.069	1	18
566.239	1	22
566.409	1	9
566.579	1	19
566.749	1	-1
566.919	1	-2
567.089	1	-8
567.259	1	5
567.429	1	-5
567.599	1	17
567.768	1	1
567.938	1	-1
568.108	1	7
568.278	1	11
568.448	1	8
568.618	1	0
568.788	1	3
568.958	1	8
569.128	1	-1
569.297	1	3
569.467	1	9
569.637	1	8
569.807	1	13
569.977	1	7
570.147	1	6
570.317	1	10
570.487	1	3
570.656	1	18
570.826	1	5
570.996	1	14
571.166	1	7
571.336	1	1
571.506	1	-7
571.676	1	9
571.846	1	4
572.015	1	1
572.185	1	3
572.355	1	3
572.525	1	-2
572.695	1	3
572.865	1	16
573.035	1	15
573.205	1	-3
573.374	1	0
573.544	1	0
573.714	1	-4
573.884	1	-1
574.054	1	11
574.224	1	12
574.394	1	9
574.563	1	4
574.733	1	10
574.903	1	12
575.073	1	3
575.243	1	0
575.413	1	-6
575.583	1	-1
575.752	1	6
575.922	1	16
576.092	1	5
576.262	1	9
576.432	1	2
576.602	1	11
576.772	1	1
576.941	1	6
577.111	1	2
577.281	1	11
577.451	1	2
577.621	1	2
577.791	1	13
577.960	1	6
578.130	1	8
578.300	1	-3
578.470	1	11
578.640	1	4
578.810	1	-5
578.979	1	10
579.149	1	1
579.319	1	13
579.489	1	15
579.659	1	2
579.829	1	-5
579.998	1	-1
580.168	1	9
580.338	1	9
580.508	1	7
580.678	1	5
580.848	1	4
581.017	1	12
581.187	1	14
581.357	1	4
581.527	1	11
581.697	1	7
581.867	1	3
582.036	1	-7
582.206	1	8
582.376	1	6
582.546	1	7
582.716	1	2
582.885	1	2
583.055	1	-1
583.225	1	1
583.395	1	12
583.565	1	8
583.735	1	12
583.904	1	11
584.074	1	4
584.244	1	1
584.414	1	6
584.584	1	7
584.753	1	3
584.923	1	1
585.093	1	12
585.263	1	8
585.433	1	2
585.602	1	13
585.772	1	18
585.942	1	4
586.112	1	1
586.282	1	3
586.451	1	12
586.621	1	-3
586.791	1	-5
586.961	1	8
587.131	1	0
587.300	1	13
587.470	1	3
587.640	1	-2
587.810	1	-5
587.980	1	4
588.149	1	3
588.319	1	16
588.489	1	2
588.659	1	-1
588.829	1	-5
588.998	1	1
589.168	1	5
589.338	1	-1
589.508	1	7
589.677	1	9
589.847	1	7
590.017	1	-2
590.187	1	6
590.357	1	3
590.526	1	10
590.696	1	8
590.866	1	1
591.036	1	11
591.205	1	1
591.375	1	2
591.545	1	-5
591.715	1	-1
591.885	1	15
592.054	1	5
592.224	1	7
592.394	1	-3
592.564	1	0
592.733	1	6
592.903	1	-1
593.073	1	2
593.243	1	12
593.412	1	1
593.582	1	8
593.752	1	-2
593.922	1	2
594.091	1	12
594.261	1	-2
594.431	1	9
594.601	1	3
594.771	1	4
594.940	1	0
595.110	1	6
595.280	1	-2
595.450	1	9
595.619	1	6
595.789	1	0
595.959	1	4
596.129	1	2
596.298	1	13
596.468	1	5
596.638	1	3
596.808	1	-7
596.977	1	0
597.147	1	3
597.317	1	6
597.487	1	9
597.656	1	3
597.826	1	10
597.996	1	11
598.166	1	7
598.335	1	-5
598.505	1	7
598.675	1	12
598.844	1	21
599.014	1	-7
599.184	1	2
599.354	1	12
599.523	1	7
599.693	1	3
599.863	1	15
600.033	1	12
600.202	1	8
600.372	1	-3
600.542	1	7
600.712	1	1
600.881	1	9
601.051	1	13
601.221	1	11
601.390	1	10
601.560	1	16
601.730	1	8
601.900	1	7
602.069	1	2
602.239	1	6
602.409	1	2
602.578	1	12
602.748	1	11
602.918	1	-3
603.088	1	4
603.257	1	2
603.427	1	3
603.597	1	-3
603.767	1	3
603.936	1	13
604.106	1	-1
604.276	1	10
604.445	1	3
604.615	1	5
604.785	1	3
604.954	1	7
605.124	1	8
605.294	1	5
605.464	1	0
605.633	1	5
605.803	1	11
605.973	1	-4
606.142	1	15
606.312	1	14
606.482	1	3
606.652	1	2
606.821	1	10
606.991	1	12
607.161	1	6
607.330	1	7
607.500	1	-4
607.670	1	3
607.839	1	6
608.009	1	5
608.179	1	1
608.348	1	12
608.518	1	21
608.688	1	8
608.858	1	-1
609.027	1	15
609.197	1	17
609.367	1	5
609.536	1	-1
609.706	1	9
609.876	1	9
610.045	1	3
610.215	1	9
610.385	1	7
610.554	1	3
610.724	1	9
610.894	1	5
611.063	1	4
611.233	1	9
611.403	1	12
611.572	1	9
611.742	1	6
611.912	1	4
612.081	1	5
612.251	1	4
612.421	1	1
612.590	1	5
612.760	1	13
612.930	1	12
613.099	1	9
613.269	1	2
613.439	1	0
613.608	1	5
613.778	1	1
613.948	1	12
614.117	1	7
614.287	1	0
614.457	1	10
614.626	1	12
614.796	1	5
614.966	1	7
615.135	1	19
615.305	1	12
615.475	1	11
615.644	1	19
615.814	1	11
615.984	1	3
616.153	1	4
616.323	1	7
616.493	1	1
616.662	1	3
616.832	1	9
617.002	1	7
617.171	1	7
617.341	1	8
617.511	1	-9
617.680	1	7
617.850	1	6
618.019	1	-6
618.189	1	25
618.359	1	5
618.528	1	5
618.698	1	8
618.868	1	4
619.037	1	4
619.207	1	3
619.377	1	13
619.546	1	12
619.716	1	6
619.885	1	5
620.055	1	-6
620.225	1	16
620.394	1	2
620.564	1	14
620.734	1	8
620.903	1	-4
621.073	1	10
621.242	1	4
621.412	1	1
621.582	1	14
621.751	1	-2
621.921	1	7
622.091	1	3
622.260	1	9
622.430	1	8
622.599	1	1
622.769	1	9
622.939	1	-1
623.108	1	4
623.278	1	5
623.448	1	7
623.617	1	14
623.787	1	3
623.956	1	15
624.126	1	20
624.296	1	7
624.465	1	12
624.635	1	10
624.804	1	0
624.974	1	5
625.144	1	9
625.313	1	9
625.483	1	8
625.652	1	5
625.822	1	24
625.992	1	7
626.161	1	3
626.331	1	8
626.501	1	2
626.670	1	-1
626.840	1	9
627.009	1	10
627.179	1	8
627.348	1	2
627.518	1	25
627.688	1	7
627.857	1	3
628.027	1	7
628.196	1	10
628.366	1	-1
628.536	1	3
628.705	1	-1
628.875	1	4
629.044	1	2
629.214	1	0
629.384	1	19
629.553	1	7
629.723	1	18
629.892	1	5
630.062	1	8
630.232	1	11
630.401	1	13
630.571	1	3
630.740	1	7
630.910	1	11
631.079	1	10
631.249	1	1
631.419	1	4
631.588	1	10
631.758	1	6
631.927	1	9
632.097	1	-5
632.266	1	12
632.436	1	18
632.606	1	1
632.775	1	8
632.945	1	1
633.114	1	1
633.284	1	10
633.453	1	2
633.623	1	19
633.793	1	11
633.962	1	13
634.132	1	12
634.301	1	13
634.471	1	14
634.640	1	2
634.810	1	16
634.979	1	16
635.149	1	3
635.319	1	5
635.488	1	7
635.658	1	0
635.827	1	17
635.997	1	11
636.166	1	-2
636.336	1	4
636.505	1	16
636.675	1	18
636.845	1	6
637.014	1	1
637.184	1	13
637.353	1	9
637.523	1	3
637.692	1	8
637.862	1	6
638.031	1	-3
638.201	1	6
638.370	1	6
638.540	1	-2
638.710	1	-1
638.879	1	5
639.049	1	10
639.218	1	11
639.388	1	12
639.557	1	24
639.727	1	6
639.896	1	12
640.066	1	4
640.235	1	6
640.405	1	10
640.574	1	0
640.744	1	10
640.914	1	13
641.083	1	13
641.253	1	6
641.422	1	-8
641.592	1	15
641.761	1	3
641.931	1	20
642.100	1	9
642.270	1	9
642.439	1	14
642.609	1	10
642.778	1	14
642.948	1	21
643.117	1	16
643.287	1	3
643.456	1	-1
643.626	1	11
643.795	1	7
643.965	1	12
644.134	1	9
644.304	1	11
644.473	1	11
644.643	1	5
644.812	1	-2
644.982	1	10
645.151	1	11
645.321	1	12
645.490	1	23
645.660	1	-3
645.829	1	16
645.999	1	-2
646.168	1	20
646.338	1	2
646.507	1	1
646.677	1	11
646.846	1	21
647.016	1	23
647.185	1	9
647.355	1	16
647.524	1	10
647.694	1	0
647.863	1	5
648.033	1	4
648.202	1	11
648.372	1	6
648.541	1	10
648.711	1	11
648.880	1	9
649.050	1	19
649.219	1	15
649.389	1	-7
649.558	1	16
649.728	1	14
649.897	1	6
650.067	1	18
650.236	1	-2
650.406	1	4
650.575	1	11
650.745	1	13
650.914	1	21
651.084	1	14
651.253	1	10
651.423	1	7
651.592	1	17
651.762	1	7
651.931	1	11
652.101	1	13
652.270	1	6
652.440	1	17
652.609	1	9
652.778	1	20
652.948	1	6
653.117	1	6
653.287	1	3
653.456	1	5
653.626	1	4
653.795	1	5
653.965	1	14
654.134	1	12
654.304	1	15
654.473	1	14
654.643	1	5
654.812	1	24
654.982	1	9
655.151	1	11
655.320	1	8
655.490	1	5
655.659	1	8
655.829	1	19
655.998	1	17
656.168	1	2
656.337	1	14
656.507	1	7
656.676	1	0
656.846	1	12
657.015	1	18
657.184	1	8
657.354	1	12
657.523	1	18
657.693	1	12
657.862	1	-2
658.032	1	15
658.201	1	7
658.371	1	14
658.540	1	8
658.709	1	18
658.879	1	21
659.048	1	6
659.218	1	17
659.387	1	12
659.557	1	13
659.726	1	-1
659.895	1	4
660.065	1	10
660.234	1	10
660.404	1	6
660.573	1	11
660.743	1	7
660.912	1	25
661.081	1	3
661.251	1	4
661.420	1	3
661.590	1	4
661.759	1	12
661.929	1	8
662.098	1	13
662.267	1	6
662.437	1	14
662.606	1	7
662.776	1	9
662.945	1	22
663.115	1	23
663.284	1	24
663.453	1	7
663.623	1	10
663.792	1	13
663.962	1	12
664.131	1	11
664.300	1	13
664.470	1	7
664.639	1	8
664.809	1	10
664.978	1	29
665.148	1	14
665.317	1	11
665.486	1	12
665.656	1	14
665.825	1	12
665.995	1	3
666.164	1	9
666.333	1	17
666.503	1	9
666.672	1	14
666.842	1	20
667.011	1	6
667.180	1	9
667.350	1	8
667.519	1	11
667.689	1	3
667.858	1	17
668.027	1	7
668.197	1	0
668.366	1	23
668.536	1	9
668.705	1	15
668.874	1	21
669.044	1	21
669.213	1	12
669.382	1	10
669.552	1	9
669.721	1	5
669.891	1	2
670.060	1	4
670.229	1	10
670.399	1	15
670.568	1	20
670.738	1	8
670.907	1	14
671.076	1	13
671.246	1	19
671.415	1	18
671.584	1	16
671.754	1	7
671.923	1	6
672.093	1	17
672.262	1	8
672.431	1	10
672.601	1	8
672.770	1	19
672.939	1	6
673.109	1	6
673.278	1	5
673.448	1	21
673.617	1	16
673.786	1	-2
