325.333	1	15
325.504	1	2
325.675	1	11
325.846	1	9
326.017	1	3
326.188	1	8
326.359	1	10
326.531	1	-2
326.702	1	-2
326.873	1	10
327.044	1	10
327.215	1	-1
327.386	1	0
327.557	1	3
327.728	1	10
327.899	1	7
328.070	1	1
328.241	1	-3
328.412	1	6
328.583	1	2
328.754	1	15
328.926	1	14
329.097	1	0
329.268	1	10
329.439	1	11
329.610	1	4
329.781	1	13
329.952	1	3
330.123	1	7
330.294	1	7
330.465	1	7
330.636	1	1
330.807	1	3
330.978	1	-3
331.149	1	1
331.320	1	7
331.492	1	7
331.663	1	0
331.834	1	9
332.005	1	11
332.176	1	12
332.347	1	2
332.518	1	4
332.689	1	2
332.860	1	3
333.031	1	19
333.202	1	6
333.373	1	15
333.544	1	7
333.715	1	11
333.886	1	4
334.057	1	-1
334.228	1	10
334.399	1	8
334.570	1	8
334.741	1	4
334.912	1	3
335.084	1	13
335.255	1	9
335.426	1	12
335.597	1	10
335.768	1	11
335.939	1	4
336.110	1	10
336.281	1	6
336.452	1	19
336.623	1	8
336.794	1	1
336.965	1	14
337.136	1	20
337.307	1	-2
337.478	1	4
337.649	1	4
337.820	1	5
337.991	1	6
338.162	1	12
338.333	1	11
338.504	1	16
338.675	1	7
338.846	1	0
339.017	1	10
339.188	1	12
339.359	1	11
339.530	1	3
339.701	1	12
339.872	1	21
340.043	1	6
340.214	1	20
340.385	1	-2
340.556	1	15
340.727	1	10
340.898	1	10
341.069	1	-2
341.240	1	6
341.411	1	11
341.582	1	2
341.753	1	12
341.924	1	21
342.095	1	8
342.266	1	16
342.437	1	12
342.608	1	12
342.779	1	5
342.950	1	4
343.121	1	10
343.292	1	10
343.463	1	25
343.634	1	8
343.805	1	5
343.976	1	26
344.147	1	10
344.318	1	7
344.489	1	7
344.660	1	11
344.831	1	24
345.002	1	17
345.173	1	10
345.344	1	15
345.515	1	18
345.686	1	15
345.857	1	16
346.028	1	10
346.199	1	12
346.370	1	18
346.541	1	8
346.712	1	15
346.883	1	6
347.054	1	20
347.225	1	10
347.396	1	8
347.567	1	5
347.738	1	18
347.909	1	15
348.080	1	5
348.251	1	17
348.422	1	21
348.593	1	15
348.764	1	12
348.935	1	12
349.106	1	7
349.277	1	14
349.448	1	11
349.619	1	14
349.790	1	15
349.961	1	9
350.132	1	17
350.303	1	18
350.474	1	22
350.645	1	19
350.816	1	9
350.987	1	31
351.157	1	13
351.328	1	5
351.499	1	10
351.670	1	17
351.841	1	9
352.012	1	20
352.183	1	16
352.354	1	14
352.525	1	17
352.696	1	8
352.867	1	25
353.038	1	19
353.209	1	13
353.380	1	13
353.551	1	15
353.722	1	11
353.893	1	20
354.064	1	15
354.235	1	11
354.406	1	11
354.576	1	11
354.747	1	20
354.918	1	13
355.089	1	24
355.260	1	8
355.431	1	4
355.602	1	16
355.773	1	21
355.944	1	17
356.115	1	22
356.286	1	31
356.457	1	16
356.628	1	20
356.799	1	18
356.970	1	26
357.141	1	16
357.311	1	25
357.482	1	9
357.653	1	14
357.824	1	28
357.995	1	18
358.166	1	18
358.337	1	18
358.508	1	19
358.679	1	10
358.850	1	23
359.021	1	23
359.192	1	28
359.363	1	24
359.533	1	9
359.704	1	16
359.875	1	20
360.046	1	23
360.217	1	16
360.388	1	32
360.559	1	21
360.730	1	14
360.901	1	22
361.072	1	23
361.243	1	13
361.414	1	35
361.584	1	13
361.755	1	24
361.926	1	29
362.097	1	12
362.268	1	27
362.439	1	18
362.610	1	26
362.781	1	12
362.952	1	23
363.123	1	14
363.293	1	12
363.464	1	11
363.635	1	29
363.806	1	18
363.977	1	16
364.148	1	21
364.319	1	13
364.490	1	32
364.661	1	17
364.832	1	21
365.002	1	26
365.173	1	25
365.344	1	15
365.515	1	21
365.686	1	18
365.857	1	29
366.028	1	17
366.199	1	27
366.370	1	30
366.540	1	13
366.711	1	29
366.882	1	29
367.053	1	21
367.224	1	21
367.395	1	26
367.566	1	23
367.737	1	15
367.908	1	19
368.078	1	15
368.249	1	20
368.420	1	17
368.591	1	23
368.762	1	25
368.933	1	17
369.104	1	21
369.274	1	25
369.445	1	31
369.616	1	10
369.787	1	20
369.958	1	31
370.129	1	17
370.300	1	20
370.471	1	26
370.641	1	11
370.812	1	30
370.983	1	23
371.154	1	21
371.325	1	18
371.496	1	31
371.667	1	28
371.837	1	23
372.008	1	18
372.179	1	18
372.350	1	28
372.521	1	24
372.692	1	22
372.863	1	27
373.033	1	26
373.204	1	30
373.375	1	25
373.546	1	30
373.717	1	21
373.888	1	30
374.059	1	21
374.229	1	37
374.400	1	27
374.571	1	12
374.742	1	23
374.913	1	21
375.084	1	21
375.254	1	11
375.425	1	35
375.596	1	15
375.767	1	20
375.938	1	16
376.109	1	9
376.279	1	29
376.450	1	30
376.621	1	32
376.792	1	35
376.963	1	26
377.134	1	28
377.304	1	32
377.475	1	18
377.646	1	12
377.817	1	21
377.988	1	27
378.159	1	30
378.329	1	30
378.500	1	39
378.671	1	31
378.842	1	27
379.013	1	29
379.184	1	28
379.354	1	32
379.525	1	35
379.696	1	28
379.867	1	28
380.038	1	24
380.209	1	41
380.379	1	32
380.550	1	22
380.721	1	25
380.892	1	25
381.063	1	36
381.233	1	30
381.404	1	22
381.575	1	24
381.746	1	35
381.917	1	36
382.087	1	37
382.258	1	38
382.429	1	26
382.600	1	26
382.771	1	20
382.941	1	31
383.112	1	24
383.283	1	40
383.454	1	31
383.625	1	29
383.795	1	34
383.966	1	41
384.137	1	35
384.308	1	17
384.479	1	26
384.649	1	21
384.820	1	20
384.991	1	26
385.162	1	37
385.333	1	22
385.503	1	29
385.674	1	39
385.845	1	35
386.016	1	35
386.187	1	30
386.357	1	32
386.528	1	27
386.699	1	18
386.870	1	29
387.041	1	26
387.211	1	29
387.382	1	43
387.553	1	25
387.724	1	26
387.894	1	15
388.065	1	28
388.236	1	25
388.407	1	33
388.578	1	30
388.748	1	35
388.919	1	26
389.090	1	52
389.261	1	39
389.431	1	24
389.602	1	19
389.773	1	26
389.944	1	31
390.114	1	22
390.285	1	38
390.456	1	28
390.627	1	15
390.798	1	31
390.968	1	43
391.139	1	20
391.310	1	30
391.481	1	30
391.651	1	33
391.822	1	42
391.993	1	27
392.164	1	27
392.334	1	20
392.505	1	36
392.676	1	31
392.847	1	26
393.017	1	31
393.188	1	30
393.359	1	37
393.530	1	42
393.700	1	33
393.871	1	49
394.042	1	19
394.213	1	32
394.383	1	31
394.554	1	30
394.725	1	24
394.896	1	41
395.066	1	32
395.237	1	33
395.408	1	32
395.579	1	33
395.749	1	44
395.920	1	31
396.091	1	31
396.262	1	34
396.432	1	24
396.603	1	35
396.774	1	22
396.945	1	32
397.115	1	39
397.286	1	41
397.457	1	41
397.627	1	27
397.798	1	30
397.969	1	36
398.140	1	26
398.310	1	34
398.481	1	32
398.652	1	32
398.823	1	27
398.993	1	40
399.164	1	36
399.335	1	28
399.505	1	26
399.676	1	38
399.847	1	34
400.018	1	28
400.188	1	41
400.359	1	44
400.530	1	34
400.700	1	42
400.871	1	34
401.042	1	33
401.213	1	34
401.383	1	40
401.554	1	29
401.725	1	43
401.895	1	28
402.066	1	41
402.237	1	36
402.408	1	40
402.578	1	36
402.749	1	30
402.920	1	40
403.090	1	42
403.261	1	25
403.432	1	39
403.603	1	37
403.773	1	50
403.944	1	39
404.115	1	36
404.285	1	41
404.456	1	45
404.627	1	35
404.797	1	32
404.968	1	30
405.139	1	29
405.310	1	44
405.480	1	34
405.651	1	33
405.822	1	34
405.992	1	43
406.163	1	26
406.334	1	29
406.504	1	42
406.675	1	25
406.846	1	49
407.016	1	33
407.187	1	39
407.358	1	29
407.528	1	42
407.699	1	32
407.870	1	36
408.041	1	43
408.211	1	53
408.382	1	44
408.553	1	44
408.723	1	37
408.894	1	39
409.065	1	43
409.235	1	42
409.406	1	29
409.577	1	41
409.747	1	40
409.918	1	55
410.089	1	47
410.259	1	36
410.430	1	40
410.601	1	39
410.771	1	36
410.942	1	51
411.113	1	33
411.283	1	38
411.454	1	50
411.625	1	36
411.795	1	47
411.966	1	38
412.137	1	52
412.307	1	45
412.478	1	42
412.649	1	34
412.819	1	50
412.990	1	44
413.161	1	41
413.331	1	32
413.502	1	41
413.672	1	36
413.843	1	40
414.014	1	36
414.184	1	42
414.355	1	35
414.526	1	32
414.696	1	38
414.867	1	32
415.038	1	33
415.208	1	32
415.379	1	31
415.550	1	38
415.720	1	37
415.891	1	42
416.062	1	38
416.232	1	47
416.403	1	41
416.573	1	44
416.744	1	45
416.915	1	35
417.085	1	37
417.256	1	36
417.427	1	38
417.597	1	30
417.768	1	40
417.939	1	38
418.109	1	29
418.280	1	41
418.450	1	46
418.621	1	50
418.792	1	37
418.962	1	37
419.133	1	29
419.304	1	32
419.474	1	34
419.645	1	46
419.815	1	44
419.986	1	52
420.157	1	31
420.327	1	27
420.498	1	36
420.669	1	41
420.839	1	48
421.010	1	42
421.180	1	26
421.351	1	37
421.522	1	36
421.692	1	40
421.863	1	35
422.033	1	41
422.204	1	38
422.375	1	39
422.545	1	35
422.716	1	29
422.886	1	39
423.057	1	35
423.228	1	34
423.398	1	43
423.569	1	31
423.740	1	37
423.910	1	40
424.081	1	40
424.251	1	32
424.422	1	46
424.593	1	39
424.763	1	39
424.934	1	38
425.104	1	42
425.275	1	30
425.445	1	40
425.616	1	39
425.787	1	25
425.957	1	36
426.128	1	35
426.298	1	41
426.469	1	29
426.640	1	39
426.810	1	24
426.981	1	46
427.151	1	30
427.322	1	32
427.493	1	36
427.663	1	34
427.834	1	37
428.004	1	45
428.175	1	38
428.345	1	23
428.516	1	36
428.687	1	43
428.857	1	29
429.028	1	33
429.198	1	24
429.369	1	24
429.540	1	34
429.710	1	38
429.881	1	15
430.051	1	31
430.222	1	34
430.392	1	32
430.563	1	26
430.734	1	35
430.904	1	40
431.075	1	34
431.245	1	28
431.416	1	36
431.586	1	28
431.757	1	36
431.927	1	37
432.098	1	42
432.269	1	20
432.439	1	21
432.610	1	45
432.780	1	31
432.951	1	24
433.121	1	30
433.292	1	46
433.462	1	28
433.633	1	34
433.804	1	33
433.974	1	44
434.145	1	32
434.315	1	35
434.486	1	15
434.656	1	37
434.827	1	27
434.997	1	45
435.168	1	44
435.339	1	34
435.509	1	34
435.680	1	38
435.850	1	29
436.021	1	35
436.191	1	28
436.362	1	32
436.532	1	39
436.703	1	41
436.873	1	42
437.044	1	31
437.214	1	26
437.385	1	30
437.556	1	35
437.726	1	36
437.897	1	34
438.067	1	37
438.238	1	34
438.408	1	36
438.579	1	25
438.749	1	37
438.920	1	39
439.090	1	28
439.261	1	40
439.431	1	14
439.602	1	34
439.772	1	33
439.943	1	31
440.113	1	32
440.284	1	42
440.455	1	34
440.625	1	36
440.796	1	28
440.966	1	42
441.137	1	24
441.307	1	37
441.478	1	25
441.648	1	23
441.819	1	28
441.989	1	40
442.160	1	34
442.330	1	32
442.501	1	36
442.671	1	38
442.842	1	35
443.012	1	27
443.183	1	28
443.353	1	28
443.524	1	31
443.694	1	33
443.865	1	32
444.035	1	34
444.206	1	23
444.376	1	22
444.547	1	32
444.717	1	30
444.888	1	16
445.058	1	38
445.229	1	27
445.399	1	33
445.570	1	30
445.740	1	31
445.911	1	32
446.081	1	27
446.252	1	41
446.422	1	31
446.593	1	31
446.763	1	24
446.934	1	24
447.104	1	27
447.275	1	43
447.445	1	35
447.616	1	24
447.786	1	27
447.957	1	21
448.127	1	35
448.298	1	30
448.468	1	42
448.639	1	30
448.809	1	28
448.979	1	40
449.150	1	23
449.320	1	35
449.491	1	26
449.661	1	29
449.832	1	14
450.002	1	32
450.173	1	29
450.343	1	19
450.514	1	29
450.684	1	30
450.855	1	14
451.025	1	26
451.196	1	20
451.366	1	34
451.537	1	33
451.707	1	34
451.878	1	28
452.048	1	23
452.218	1	34
452.389	1	30
452.559	1	45
452.730	1	37
452.900	1	27
453.071	1	37
453.241	1	28
453.412	1	21
453.582	1	28
453.753	1	39
453.923	1	20
454.093	1	30
454.264	1	40
454.434	1	24
454.605	1	26
454.775	1	21
454.946	1	13
455.116	1	30
455.287	1	13
455.457	1	24
455.628	1	17
455.798	1	25
455.968	1	24
456.139	1	33
456.309	1	27
456.480	1	30
456.650	1	22
456.821	1	15
456.991	1	31
457.161	1	24
457.332	1	21
457.502	1	19
457.673	1	21
457.843	1	28
458.014	1	18
458.184	1	35
458.355	1	28
458.525	1	23
458.695	1	19
458.866	1	22
459.036	1	29
459.207	1	17
459.377	1	28
459.548	1	23
459.718	1	12
459.888	1	15
460.059	1	20
460.229	1	13
460.400	1	11
460.570	1	17
460.740	1	20
460.911	1	17
461.081	1	28
461.252	1	24
461.422	1	12
461.593	1	29
461.763	1	24
461.933	1	29
462.104	1	22
462.274	1	11
462.445	1	20
462.615	1	38
462.785	1	30
462.956	1	9
463.126	1	32
463.297	1	28
463.467	1	26
463.638	1	38
463.808	1	28
463.978	1	1
464.149	1	16
464.319	1	28
464.490	1	18
464.660	1	7
464.830	1	15
465.001	1	6
465.171	1	15
465.342	1	18
465.512	1	27
465.682	1	19
465.853	1	13
466.023	1	28
466.194	1	33
466.364	1	29
466.534	1	12
466.705	1	30
466.875	1	12
467.045	1	12
467.216	1	20
467.386	1	16
467.557	1	27
467.727	1	17
467.897	1	19
468.068	1	9
468.238	1	21
468.409	1	22
468.579	1	15
468.749	1	14
468.920	1	10
469.090	1	17
469.260	1	13
469.431	1	10
469.601	1	22
469.772	1	23
469.942	1	13
470.112	1	12
470.283	1	21
470.453	1	18
470.623	1	18
470.794	1	28
470.964	1	12
471.135	1	18
471.305	1	24
471.475	1	17
471.646	1	19
471.816	1	27
471.986	1	8
472.157	1	18
472.327	1	28
472.497	1	11
472.668	1	25
472.838	1	13
473.009	1	26
473.179	1	3
473.349	1	18
473.520	1	36
473.690	1	17
473.860	1	2
474.031	1	20
474.201	1	17
474.371	1	24
474.542	1	15
474.712	1	16
474.882	1	23
475.053	1	8
475.223	1	11
475.394	1	13
475.564	1	16
475.734	1	16
475.905	1	21
476.075	1	27
476.245	1	18
476.416	1	7
476.586	1	14
476.756	1	16
476.927	1	11
477.097	1	4
477.267	1	17
477.438	1	22
477.608	1	24
477.778	1	8
477.949	1	12
478.119	1	24
478.289	1	12
478.460	1	17
478.630	1	16
478.800	1	14
478.971	1	15
479.141	1	15
479.311	1	5
479.482	1	5
479.652	1	19
479.822	1	8
479.993	1	18
480.163	1	23
480.333	1	23
480.504	1	20
480.674	1	16
480.844	1	8
481.015	1	26
481.185	1	25
481.355	1	18
481.525	1	1
481.696	1	21
481.866	1	31
482.036	1	20
482.207	1	7
482.377	1	21
482.547	1	11
482.718	1	15
482.888	1	24
483.058	1	17
483.229	1	18
483.399	1	20
483.569	1	9
483.740	1	10
483.910	1	7
484.080	1	16
484.250	1	12
484.421	1	12
484.591	1	7
484.761	1	21
484.932	1	8
485.102	1	20
485.272	1	1
485.443	1	13
485.613	1	7
485.783	1	14
485.953	1	8
486.124	1	4
486.294	1	16
486.464	1	25
486.635	1	6
486.805	1	22
486.975	1	13
487.146	1	19
487.316	1	18
487.486	1	21
487.656	1	16
487.827	1	13
487.997	1	7
488.167	1	20
488.338	1	7
488.508	1	26
488.678	1	13
488.848	1	17
489.019	1	8
489.189	1	14
489.359	1	8
489.529	1	6
489.700	1	3
489.870	1	15
490.040	1	8
490.211	1	10
490.381	1	15
490.551	1	16
490.721	1	13
490.892	1	-5
491.062	1	8
491.232	1	16
491.402	1	4
491.573	1	20
491.743	1	14
491.913	1	3
492.084	1	17
492.254	1	11
492.424	1	17
492.594	1	4
492.765	1	15
492.935	1	22
493.105	1	10
493.275	1	12
493.446	1	-5
493.616	1	3
493.786	1	15
493.956	1	14
494.127	1	11
494.297	1	-6
494.467	1	1
494.637	1	13
494.808	1	12
494.978	1	6
495.148	1	13
495.318	1	11
495.489	1	4
495.659	1	13
495.829	1	16
495.999	1	20
496.170	1	10
496.340	1	12
496.510	1	2
496.680	1	17
496.851	1	14
497.021	1	4
497.191	1	16
497.361	1	-11
497.532	1	13
497.702	1	15
497.872	1	10
498.042	1	4
498.213	1	4
498.383	1	11
498.553	1	6
498.723	1	7
498.894	1	9
499.064	1	11
499.234	1	8
499.404	1	25
499.574	1	5
499.745	1	9
499.915	1	11
500.085	1	12
500.255	1	3
500.426	1	12
500.596	1	-4
500.766	1	7
500.936	1	10
501.106	1	0
501.277	1	9
501.447	1	8
501.617	1	3
501.787	1	2
501.958	1	14
502.128	1	9
502.298	1	12
502.468	1	7
502.638	1	14
502.809	1	3
502.979	1	14
503.149	1	7
503.319	1	21
503.489	1	-3
503.660	1	-2
503.830	1	13
504.000	1	10
504.170	1	-5
504.340	1	2
504.511	1	3
504.681	1	3
504.851	1	2
505.021	1	16
505.192	1	-4
505.362	1	11
505.532	1	1
505.702	1	16
505.872	1	5
506.043	1	13
506.213	1	21
506.383	1	8
506.553	1	3
506.723	1	-2
506.893	1	12
507.064	1	10
507.234	1	6
507.404	1	1
507.574	1	7
507.744	1	13
507.915	1	7
508.085	1	8
508.255	1	3
508.425	1	6
508.595	1	4
508.766	1	3
508.936	1	14
509.106	1	6
509.276	1	12
509.446	1	-1
509.616	1	1
509.787	1	11
509.957	1	12
510.127	1	0
510.297	1	3
510.467	1	9
510.638	1	6
510.808	1	29
510.978	1	-2
511.148	1	15
511.318	1	-4
511.488	1	12
511.659	1	11
511.829	1	2
511.999	1	10
512.169	1	5
512.339	1	9
512.509	1	7
512.680	1	6
512.850	1	11
513.020	1	13
513.190	1	2
513.360	1	2
513.530	1	6
513.700	1	9
513.871	1	9
514.041	1	7
514.211	1	10
514.381	1	13
514.551	1	-5
514.721	1	4
514.892	1	2
515.062	1	5
515.232	1	3
515.402	1	2
515.572	1	8
515.742	1	9
515.912	1	4
516.083	1	14
516.253	1	14
516.423	1	7
516.593	1	3
516.763	1	18
516.933	1	2
517.104	1	17
517.274	1	-5
517.444	1	9
517.614	1	8
517.784	1	7
517.954	1	7
518.124	1	3
518.294	1	6
518.465	1	0
518.635	1	14
518.805	1	8
518.975	1	9
519.145	1	3
519.315	1	6
519.485	1	-3
519.656	1	9
519.826	1	-6
519.996	1	3
520.166	1	3
520.336	1	7
520.506	1	11
520.676	1	7
520.846	1	9
521.017	1	9
521.187	1	8
521.357	1	1
521.527	1	1
521.697	1	0
521.867	1	9
522.037	1	3
522.207	1	6
522.377	1	15
522.548	1	-3
522.718	1	4
522.888	1	6
523.058	1	9
523.228	1	-5
523.398	1	-4
523.568	1	0
523.738	1	2
523.909	1	-3
524.079	1	-1
524.249	1	-5
524.419	1	8
524.589	1	0
524.759	1	14
524.929	1	6
525.099	1	-1
525.269	1	10
525.439	1	-1
525.610	1	4
525.780	1	6
525.950	1	8
526.120	1	3
526.290	1	-6
526.460	1	-7
526.630	1	1
526.800	1	2
526.970	1	10
527.140	1	10
527.311	1	-1
527.481	1	11
527.651	1	7
527.821	1	4
527.991	1	0
528.161	1	4
528.331	1	-3
528.501	1	-5
528.671	1	11
528.841	1	7
529.011	1	10
529.181	1	4
529.352	1	5
529.522	1	14
529.692	1	-1
529.862	1	9
530.032	1	-6
530.202	1	-9
530.372	1	6
530.542	1	5
530.712	1	13
530.882	1	3
531.052	1	5
531.222	1	21
531.392	1	4
531.563	1	6
531.733	1	1
531.903	1	7
532.073	1	6
532.243	1	4
532.413	1	23
532.583	1	4
532.753	1	2
532.923	1	8
533.093	1	-1
533.263	1	-9
533.433	1	-4
533.603	1	-3
533.773	1	-3
533.943	1	10
534.113	1	7
534.284	1	12
534.454	1	4
534.624	1	0
534.794	1	4
534.964	1	4
535.134	1	-9
535.304	1	0
535.474	1	12
535.644	1	3
535.814	1	-2
535.984	1	7
536.154	1	12
536.324	1	4
536.494	1	9
536.664	1	2
536.834	1	-5
537.004	1	4
537.174	1	9
537.344	1	10
537.514	1	0
537.685	1	11
537.855	1	15
538.025	1	11
538.195	1	-6
538.365	1	7
538.535	1	-6
538.705	1	-4
538.875	1	-4
539.045	1	11
539.215	1	-2
539.385	1	13
539.555	1	1
539.725	1	5
539.895	1	10
540.065	1	-1
540.235	1	11
540.405	1	2
540.575	1	-1
540.745	1	3
540.915	1	9
541.085	1	-6
541.255	1	4
541.425	1	5
541.595	1	6
541.765	1	8
541.935	1	-3
542.105	1	-7
542.275	1	-4
542.445	1	8
542.615	1	10
542.785	1	0
542.955	1	11
543.125	1	6
543.295	1	5
543.465	1	6
543.635	1	6
543.805	1	8
543.975	1	-2
544.145	1	8
544.315	1	4
544.485	1	-2
544.655	1	0
544.825	1	7
544.995	1	4
545.165	1	1
545.335	1	4
545.505	1	-6
545.675	1	7
545.845	1	6
546.015	1	-9
546.185	1	-1
546.355	1	-1
546.525	1	2
546.695	1	-1
546.865	1	5
547.035	1	2
547.205	1	9
547.375	1	8
547.545	1	11
547.715	1	8
547.885	1	0
548.055	1	4
548.225	1	1
548.395	1	10
548.565	1	2
548.735	1	-9
548.905	1	4
549.075	1	5
549.245	1	16
549.415	1	4
549.585	1	-3
549.755	1	5
549.925	1	8
550.095	1	-9
550.265	1	-1
550.435	1	2
550.605	1	12
550.775	1	-7
550.945	1	10
551.115	1	6
551.285	1	3
551.455	1	3
551.625	1	-5
551.795	1	3
551.965	1	-7
552.135	1	0
552.305	1	4
552.475	1	6
552.645	1	-3
552.815	1	9
552.985	1	-7
553.155	1	5
553.325	1	1
553.495	1	2
553.665	1	-1
553.835	1	5
554.004	1	4
554.174	1	1
554.344	1	4
554.514	1	0
554.684	1	13
554.854	1	0
555.024	1	13
555.194	1	5
555.364	1	7
555.534	1	-11
555.704	1	6
555.874	1	2
556.044	1	-3
556.214	1	0
556.384	1	11
556.554	1	6
556.724	1	6
556.894	1	1
557.064	1	4
557.234	1	5
557.404	1	1
557.573	1	-7
557.743	1	-11
557.913	1	11
558.083	1	3
558.253	1	8
558.423	1	6
558.593	1	1
558.763	1	0
558.933	1	-1
559.103	1	-4
559.273	1	5
559.443	1	7
559.613	1	-2
559.783	1	-3
559.953	1	-6
560.122	1	5
560.292	1	-5
560.462	1	-6
560.632	1	-6
560.802	1	10
560.972	1	-5
561.142	1	6
561.312	1	-4
561.482	1	5
561.652	1	-1
561.822	1	-1
561.992	1	4
562.162	1	-1
562.331	1	-2
562.501	1	6
562.671	1	-6
562.841	1	-10
563.011	1	6
563.181	1	-1
563.351	1	-2
563.521	1	3
563.691	1	2
563.861	1	3
564.031	1	-1
564.201	1	5
564.370	1	5
564.540	1	-2
564.710	1	-5
564.880	1	-4
565.050	1	6
565.220	1	14
565.390	1	4
565.560	1	4
565.730	1	10
565.900	1	1
566.069	1	13
566.239	1	5
566.409	1	7
566.579	1	1
566.749	1	2
566.919	1	-1
567.089	1	-9
567.259	1	7
567.429	1	-10
567.599	1	16
567.768	1	2
567.938	1	5
568.108	1	-7
568.278	1	9
568.448	1	8
568.618	1	8
568.788	1	4
568.958	1	7
569.128	1	-3
569.297	1	-3
569.467	1	4
569.637	1	1
569.807	1	1
569.977	1	1
570.147	1	1
570.317	1	6
570.487	1	-6
570.656	1	6
570.826	1	1
570.996	1	11
571.166	1	-2
571.336	1	-7
571.506	1	-6
571.676	1	8
571.846	1	4
572.015	1	4
572.185	1	4
572.355	1	2
572.525	1	-4
572.695	1	6
572.865	1	2
573.035	1	6
573.205	1	-7
573.374	1	1
573.544	1	2
573.714	1	6
573.884	1	-4
574.054	1	3
574.224	1	11
574.394	1	9
574.563	1	-7
574.733	1	1
574.903	1	1
575.073	1	6
575.243	1	-6
575.413	1	3
575.583	1	1
575.752	1	4
575.922	1	4
576.092	1	-6
576.262	1	-3
576.432	1	0
576.602	1	6
576.772	1	6
576.941	1	4
577.111	1	0
577.281	1	1
577.451	1	10
577.621	1	0
577.791	1	3
577.960	1	-7
578.130	1	1
578.300	1	0
578.470	1	10
578.640	1	7
578.810	1	-2
578.979	1	2
579.149	1	-4
579.319	1	-1
579.489	1	10
579.659	1	1
579.829	1	-1
579.998	1	-2
580.168	1	0
580.338	1	11
580.508	1	-1
580.678	1	6
580.848	1	-5
581.017	1	3
581.187	1	5
581.357	1	2
581.527	1	-2
581.697	1	3
581.867	1	1
582.036	1	-3
582.206	1	1
582.376	1	-5
582.546	1	6
582.716	1	2
582.885	1	-1
583.055	1	-4
583.225	1	8
583.395	1	6
583.565	1	4
583.735	1	0
583.904	1	-2
584.074	1	-5
584.244	1	-5
584.414	1	-5
584.584	1	9
584.753	1	3
584.923	1	0
585.093	1	7
585.263	1	3
585.433	1	-1
585.602	1	5
585.772	1	11
585.942	1	-5
586.112	1	-1
586.282	1	3
586.451	1	12
586.621	1	-5
586.791	1	-5
586.961	1	-1
587.131	1	-3
587.300	1	10
587.470	1	1
587.640	1	-3
587.810	1	-12
587.980	1	0
588.149	1	2
588.319	1	2
588.489	1	6
588.659	1	-2
588.829	1	5
588.998	1	8
589.168	1	10
589.338	1	1
589.508	1	7
589.677	1	4
589.847	1	4
590.017	1	-1
590.187	1	-2
590.357	1	0
590.526	1	1
590.696	1	2
590.866	1	-4
591.036	1	7
591.205	1	8
591.375	1	1
591.545	1	-5
591.715	1	4
591.885	1	19
592.054	1	4
592.224	1	6
592.394	1	2
592.564	1	4
592.733	1	2
592.903	1	-3
593.073	1	-5
593.243	1	1
593.412	1	-11
593.582	1	0
593.752	1	12
593.922	1	-2
594.091	1	6
594.261	1	3
594.431	1	8
594.601	1	0
594.771	1	3
594.940	1	-1
595.110	1	10
595.280	1	1
595.450	1	4
595.619	1	3
595.789	1	2
595.959	1	2
596.129	1	4
596.298	1	6
596.468	1	-3
596.638	1	5
596.808	1	-5
596.977	1	0
597.147	1	-5
597.317	1	7
597.487	1	5
597.656	1	8
597.826	1	2
597.996	1	-1
598.166	1	-3
598.335	1	-6
598.505	1	9
598.675	1	9
598.844	1	22
599.014	1	-10
599.184	1	-8
599.354	1	5
599.523	1	2
599.693	1	-3
599.863	1	6
600.033	1	8
600.202	1	3
600.372	1	-2
600.542	1	3
600.712	1	-1
600.881	1	6
601.051	1	8
601.221	1	2
601.390	1	0
601.560	1	10
601.730	1	4
601.900	1	1
602.069	1	7
602.239	1	5
602.409	1	11
602.578	1	3
602.748	1	12
602.918	1	-1
603.088	1	-5
603.257	1	-5
603.427	1	0
603.597	1	3
603.767	1	-5
603.936	1	5
604.106	1	0
604.276	1	7
604.445	1	4
604.615	1	7
604.785	1	4
604.954	1	4
605.124	1	-5
605.294	1	5
605.464	1	-2
605.633	1	7
605.803	1	-5
605.973	1	4
606.142	1	2
606.312	1	14
606.482	1	-5
606.652	1	1
606.821	1	5
606.991	1	7
607.161	1	-3
607.330	1	-1
607.500	1	6
607.670	1	4
607.839	1	5
608.009	1	-2
608.179	1	3
608.348	1	8
608.518	1	12
608.688	1	2
608.858	1	-5
609.027	1	14
609.197	1	-1
609.367	1	-2
609.536	1	-1
609.706	1	17
609.876	1	1
610.045	1	4
610.215	1	4
610.385	1	1
610.554	1	3
610.724	1	3
610.894	1	3
611.063	1	-1
611.233	1	5
611.403	1	10
611.572	1	-1
611.742	1	-9
611.912	1	3
612.081	1	13
612.251	1	1
612.421	1	1
612.590	1	10
612.760	1	5
612.930	1	2
613.099	1	10
613.269	1	1
613.439	1	-3
613.608	1	2
613.778	1	1
613.948	1	8
614.117	1	2
614.287	1	-1
614.457	1	6
614.626	1	-2
614.796	1	4
614.966	1	3
615.135	1	9
615.305	1	15
615.475	1	4
615.644	1	10
615.814	1	8
615.984	1	-4
616.153	1	12
616.323	1	3
616.493	1	0
616.662	1	1
616.832	1	6
617.002	1	6
617.171	1	9
617.341	1	5
617.511	1	-2
617.680	1	-15
617.850	1	3
618.019	1	1
618.189	1	6
618.359	1	3
618.528	1	6
618.698	1	8
618.868	1	-2
619.037	1	0
619.207	1	-4
619.377	1	2
619.546	1	6
619.716	1	0
619.885	1	1
620.055	1	-7
620.225	1	8
620.394	1	4
620.564	1	4
620.734	1	5
620.903	1	-11
621.073	1	8
621.242	1	6
621.412	1	-1
621.582	1	5
621.751	1	-2
621.921	1	4
622.091	1	5
622.260	1	12
622.430	1	9
622.599	1	-5
622.769	1	4
622.939	1	-2
623.108	1	8
623.278	1	-1
623.448	1	0
623.617	1	8
623.787	1	3
623.956	1	6
624.126	1	3
624.296	1	8
624.465	1	8
624.635	1	6
624.804	1	-7
624.974	1	-4
625.144	1	-2
625.313	1	21
625.483	1	14
625.652	1	3
625.822	1	7
625.992	1	0
626.161	1	8
626.331	1	-7
626.501	1	4
626.670	1	-9
626.840	1	10
627.009	1	4
627.179	1	2
627.348	1	0
627.518	1	15
627.688	1	-4
627.857	1	11
628.027	1	10
628.196	1	17
628.366	1	-1
628.536	1	2
628.705	1	-4
628.875	1	1
629.044	1	5
629.214	1	10
629.384	1	10
629.553	1	5
629.723	1	-1
629.892	1	10
630.062	1	4
630.232	1	12
630.401	1	8
630.571	1	0
630.740	1	3
630.910	1	12
631.079	1	3
631.249	1	-4
631.419	1	-3
631.588	1	-2
631.758	1	-4
631.927	1	11
632.097	1	0
632.266	1	13
632.436	1	2
632.606	1	1
632.775	1	0
632.945	1	2
633.114	1	2
633.284	1	-5
633.453	1	0
633.623	1	7
633.793	1	5
633.962	1	16
634.132	1	6
634.301	1	9
634.471	1	0
634.640	1	0
634.810	1	14
634.979	1	3
635.149	1	-5
635.319	1	-5
635.488	1	8
635.658	1	-1
635.827	1	2
635.997	1	5
636.166	1	11
636.336	1	-7
636.505	1	3
636.675	1	7
636.845	1	-1
637.014	1	-7
637.184	1	7
637.353	1	3
637.523	1	2
637.692	1	0
637.862	1	-3
638.031	1	-2
638.201	1	-1
638.370	1	5
638.540	1	-12
638.710	1	-4
638.879	1	-6
639.049	1	2
639.218	1	11
639.388	1	2
639.557	1	11
639.727	1	3
639.896	1	0
640.066	1	4
640.235	1	8
640.405	1	7
640.574	1	-2
640.744	1	8
640.914	1	-2
641.083	1	15
641.253	1	-7
641.422	1	-6
641.592	1	10
641.761	1	-4
641.931	1	12
642.100	1	4
642.270	1	1
642.439	1	3
642.609	1	11
642.778	1	3
642.948	1	10
643.117	1	-2
643.287	1	-3
643.456	1	-3
643.626	1	3
643.795	1	3
643.965	1	4
644.134	1	-3
644.304	1	-4
644.473	1	2
644.643	1	8
644.812	1	-2
644.982	1	-3
645.151	1	4
645.321	1	8
645.490	1	21
645.660	1	-2
645.829	1	7
645.999	1	3
646.168	1	26
646.338	1	1
646.507	1	0
646.677	1	7
646.846	1	3
647.016	1	11
647.185	1	-2
647.355	1	10
647.524	1	-3
647.694	1	-1
647.863	1	3
648.033	1	3
648.202	1	16
648.372	1	-1
648.541	1	4
648.711	1	7
648.880	1	5
649.050	1	1
649.219	1	7
649.389	1	0
649.558	1	7
649.728	1	-8
649.897	1	6
650.067	1	14
650.236	1	-1
650.406	1	-4
650.575	1	-7
650.745	1	11
650.914	1	3
651.084	1	14
651.253	1	-2
651.423	1	0
651.592	1	1
651.762	1	1
651.931	1	7
652.101	1	3
652.270	1	-3
652.440	1	7
652.609	1	8
652.778	1	3
652.948	1	5
653.117	1	8
653.287	1	2
653.456	1	5
653.626	1	4
653.795	1	-4
653.965	1	3
654.134	1	1
654.304	1	5
654.473	1	4
654.643	1	2
654.812	1	14
654.982	1	-3
655.151	1	9
655.320	1	2
655.490	1	-1
655.659	1	4
655.829	1	9
655.998	1	2
656.168	1	3
656.337	1	3
656.507	1	-10
656.676	1	3
656.846	1	3
657.015	1	13
657.184	1	10
657.354	1	2
657.523	1	1
657.693	1	7
657.862	1	-4
658.032	1	9
658.201	1	-8
658.371	1	-6
658.540	1	-6
658.709	1	5
658.879	1	5
659.048	1	11
659.218	1	4
659.387	1	3
659.557	1	3
659.726	1	-8
659.895	1	1
660.065	1	-3
660.234	1	1
660.404	1	11
660.573	1	4
660.743	1	4
660.912	1	1
661.081	1	4
661.251	1	-1
661.420	1	13
661.590	1	7
661.759	1	10
661.929	1	4
662.098	1	-1
662.267	1	-7
662.437	1	5
662.606	1	-1
662.776	1	4
662.945	1	9
663.115	1	13
663.284	1	10
663.453	1	4
663.623	1	5
663.792	1	4
663.962	1	11
664.131	1	1
664.300	1	9
664.470	1	1
664.639	1	-2
664.809	1	7
664.978	1	13
665.148	1	7
665.317	1	-3
665.486	1	6
665.656	1	2
665.825	1	13
665.995	1	-3
666.164	1	5
666.333	1	3
666.503	1	2
666.672	1	10
666.842	1	9
667.011	1	9
667.180	1	2
667.350	1	2
667.519	1	1
667.689	1	4
667.858	1	1
668.027	1	-4
668.197	1	-6
668.366	1	13
668.536	1	0
668.705	1	-4
668.874	1	13
669.044	1	14
669.213	1	14
669.382	1	7
669.552	1	15
669.721	1	-4
669.891	1	-1
670.060	1	3
670.229	1	16
670.399	1	6
670.568	1	12
670.738	1	10
670.907	1	0
671.076	1	0
671.246	1	5
671.415	1	16
671.584	1	8
671.754	1	-1
671.923	1	6
672.093	1	3
672.262	1	-11
672.431	1	13
672.601	1	6
672.770	1	-2
672.939	1	12
673.109	1	-1
673.278	1	4
673.448	1	9
673.617	1	3
673.786	1	4
