325.333	1	9
325.504	1	-4
325.675	1	5
325.846	1	-3
326.017	1	9
326.188	1	-7
326.359	1	3
326.531	1	-8
326.702	1	1
326.873	1	5
327.044	1	11
327.215	1	0
327.386	1	5
327.557	1	-5
327.728	1	-1
327.899	1	-11
328.070	1	6
328.241	1	-3
328.412	1	-6
328.583	1	-2
328.754	1	13
328.926	1	4
329.097	1	-7
329.268	1	11
329.439	1	4
329.610	1	-4
329.781	1	3
329.952	1	6
330.123	1	0
330.294	1	-6
330.465	1	-7
330.636	1	-1
330.807	1	6
330.978	1	-7
331.149	1	4
331.320	1	3
331.492	1	4
331.663	1	-10
331.834	1	6
332.005	1	5
332.176	1	1
332.347	1	-2
332.518	1	10
332.689	1	-1
332.860	1	1
333.031	1	11
333.202	1	-1
333.373	1	4
333.544	1	0
333.715	1	-1
333.886	1	-7
334.057	1	-3
334.228	1	4
334.399	1	8
334.570	1	-1
334.741	1	-3
334.912	1	-12
335.084	1	3
335.255	1	9
335.426	1	4
335.597	1	-10
335.768	1	-3
335.939	1	11
336.110	1	3
336.281	1	-1
336.452	1	15
336.623	1	-8
336.794	1	-1
336.965	1	-5
337.136	1	15
337.307	1	-5
337.478	1	-4
337.649	1	-3
337.820	1	-1
337.991	1	1
338.162	1	-6
338.333	1	0
338.504	1	4
338.675	1	-6
338.846	1	-11
339.017	1	7
339.188	1	-3
339.359	1	1
339.530	1	-7
339.701	1	10
339.872	1	16
340.043	1	3
340.214	1	-5
340.385	1	-7
340.556	1	7
340.727	1	1
340.898	1	0
341.069	1	-1
341.240	1	-6
341.411	1	3
341.582	1	-13
341.753	1	1
341.924	1	12
342.095	1	-14
342.266	1	8
342.437	1	-8
342.608	1	-4
342.779	1	-4
342.950	1	4
343.121	1	4
343.292	1	3
343.463	1	11
343.634	1	6
343.805	1	9
343.976	1	11
344.147	1	5
344.318	1	-6
344.489	1	-3
344.660	1	1
344.831	1	8
345.002	1	2
345.173	1	-1
345.344	1	0
345.515	1	1
345.686	1	0
345.857	1	1
346.028	1	6
346.199	1	9
346.370	1	6
346.541	1	-3
346.712	1	-4
346.883	1	-7
347.054	1	6
347.225	1	-8
347.396	1	5
347.567	1	-5
347.738	1	6
347.909	1	1
348.080	1	-2
348.251	1	-6
348.422	1	7
348.593	1	11
348.764	1	7
348.935	1	5
349.106	1	-4
349.277	1	1
349.448	1	-1
349.619	1	2
349.790	1	-1
349.961	1	5
350.132	1	8
350.303	1	1
350.474	1	9
350.645	1	-2
350.816	1	9
350.987	1	17
351.157	1	4
351.328	1	-7
351.499	1	3
351.670	1	3
351.841	1	0
352.012	1	7
352.183	1	7
352.354	1	-4
352.525	1	0
352.696	1	-2
352.867	1	14
353.038	1	8
353.209	1	-1
353.380	1	7
353.551	1	4
353.722	1	5
353.893	1	11
354.064	1	1
354.235	1	-7
354.406	1	-17
354.576	1	2
354.747	1	2
354.918	1	8
355.089	1	-2
355.260	1	2
355.431	1	5
355.602	1	1
355.773	1	4
355.944	1	13
356.115	1	6
356.286	1	4
356.457	1	-1
356.628	1	-6
356.799	1	5
356.970	1	12
357.141	1	14
357.311	1	9
357.482	1	-5
357.653	1	3
357.824	1	10
357.995	1	12
358.166	1	-1
358.337	1	1
358.508	1	12
358.679	1	-5
358.850	1	5
359.021	1	1
359.192	1	11
359.363	1	-6
359.533	1	0
359.704	1	5
359.875	1	4
360.046	1	5
360.217	1	10
360.388	1	18
360.559	1	5
360.730	1	-3
360.901	1	0
361.072	1	12
361.243	1	-1
361.414	1	7
361.584	1	6
361.755	1	6
361.926	1	8
362.097	1	5
362.268	1	17
362.439	1	-1
362.610	1	1
362.781	1	-1
362.952	1	9
363.123	1	-6
363.293	1	3
363.464	1	1
363.635	1	12
363.806	1	-1
363.977	1	7
364.148	1	-4
364.319	1	5
364.490	1	7
364.661	1	5
364.832	1	11
365.002	1	14
365.173	1	11
365.344	1	-1
365.515	1	5
365.686	1	4
365.857	1	9
366.028	1	2
366.199	1	11
366.370	1	7
366.540	1	3
366.711	1	8
366.882	1	5
367.053	1	2
367.224	1	2
367.395	1	7
367.566	1	7
367.737	1	3
367.908	1	8
368.078	1	-7
368.249	1	6
368.420	1	2
368.591	1	3
368.762	1	6
368.933	1	3
369.104	1	5
369.274	1	14
369.445	1	11
369.616	1	-3
369.787	1	5
369.958	1	8
370.129	1	2
370.300	1	1
370.471	1	3
370.641	1	4
370.812	1	4
370.983	1	-7
371.154	1	3
371.325	1	0
371.496	1	4
371.667	1	16
371.837	1	9
372.008	1	0
372.179	1	5
372.350	1	4
372.521	1	4
372.692	1	11
372.863	1	0
373.033	1	6
373.204	1	5
373.375	1	8
373.546	1	4
373.717	1	0
373.888	1	9
374.059	1	2
374.229	1	8
374.400	1	12
374.571	1	8
374.742	1	7
374.913	1	-8
375.084	1	12
375.254	1	-4
375.425	1	7
375.596	1	4
375.767	1	8
375.938	1	-8
376.109	1	-2
376.279	1	2
376.450	1	-3
376.621	1	9
376.792	1	9
376.963	1	3
377.134	1	4
377.304	1	3
377.475	1	-5
377.646	1	1
377.817	1	12
377.988	1	7
378.159	1	10
378.329	1	10
378.500	1	12
378.671	1	-5
378.842	1	1
379.013	1	7
379.184	1	-2
379.354	1	15
379.525	1	1
379.696	1	5
379.867	1	10
380.038	1	2
380.209	1	10
380.379	1	3
380.550	1	-4
380.721	1	-4
380.892	1	1
381.063	1	10
381.233	1	6
381.404	1	1
381.575	1	6
381.746	1	4
381.917	1	3
382.087	1	11
382.258	1	10
382.429	1	1
382.600	1	-4
382.771	1	2
382.941	1	15
383.112	1	-5
383.283	1	5
383.454	1	-2
383.625	1	0
383.795	1	12
383.966	1	3
384.137	1	12
384.308	1	6
384.479	1	7
384.649	1	-3
384.820	1	11
384.991	1	6
385.162	1	9
385.333	1	0
385.503	1	6
385.674	1	5
385.845	1	9
386.016	1	10
386.187	1	-3
386.357	1	18
386.528	1	4
386.699	1	2
386.870	1	8
387.041	1	19
387.211	1	-4
387.382	1	13
387.553	1	-2
387.724	1	6
387.894	1	-5
388.065	1	13
388.236	1	1
388.407	1	5
388.578	1	12
388.748	1	6
388.919	1	3
389.090	1	25
389.261	1	12
389.431	1	6
389.602	1	0
389.773	1	9
389.944	1	6
390.114	1	9
390.285	1	12
390.456	1	1
390.627	1	4
390.798	1	9
390.968	1	9
391.139	1	13
391.310	1	3
391.481	1	6
391.651	1	12
391.822	1	14
391.993	1	7
392.164	1	9
392.334	1	1
392.505	1	9
392.676	1	0
392.847	1	-1
393.017	1	9
393.188	1	9
393.359	1	19
393.530	1	17
393.700	1	-3
393.871	1	20
394.042	1	-2
394.213	1	2
394.383	1	8
394.554	1	6
394.725	1	-2
394.896	1	23
395.066	1	5
395.237	1	9
395.408	1	12
395.579	1	5
395.749	1	22
395.920	1	9
396.091	1	6
396.262	1	4
396.432	1	-5
396.603	1	17
396.774	1	1
396.945	1	11
397.115	1	11
397.286	1	0
397.457	1	7
397.627	1	-7
397.798	1	4
397.969	1	3
398.140	1	6
398.310	1	12
398.481	1	0
398.652	1	8
398.823	1	11
398.993	1	-3
399.164	1	2
399.335	1	7
399.505	1	10
399.676	1	15
399.847	1	1
400.018	1	6
400.188	1	6
400.359	1	15
400.530	1	14
400.700	1	9
400.871	1	11
401.042	1	9
401.213	1	12
401.383	1	10
401.554	1	1
401.725	1	8
401.895	1	-2
402.066	1	13
402.237	1	6
402.408	1	3
402.578	1	17
402.749	1	4
402.920	1	2
403.090	1	11
403.261	1	9
403.432	1	2
403.603	1	6
403.773	1	14
403.944	1	7
404.115	1	12
404.285	1	12
404.456	1	13
404.627	1	11
404.797	1	4
404.968	1	2
405.139	1	13
405.310	1	2
405.480	1	8
405.651	1	2
405.822	1	10
405.992	1	8
406.163	1	0
406.334	1	15
406.504	1	5
406.675	1	10
406.846	1	10
407.016	1	13
407.187	1	10
407.358	1	7
407.528	1	10
407.699	1	11
407.870	1	9
408.041	1	10
408.211	1	14
408.382	1	5
408.553	1	5
408.723	1	13
408.894	1	4
409.065	1	11
409.235	1	8
409.406	1	10
409.577	1	10
409.747	1	9
409.918	1	12
410.089	1	14
410.259	1	8
410.430	1	7
410.601	1	6
410.771	1	14
410.942	1	8
411.113	1	9
411.283	1	10
411.454	1	18
411.625	1	11
411.795	1	20
411.966	1	11
412.137	1	16
412.307	1	12
412.478	1	13
412.649	1	5
412.819	1	7
412.990	1	13
413.161	1	10
413.331	1	5
413.502	1	6
413.672	1	8
413.843	1	3
414.014	1	10
414.184	1	19
414.355	1	2
414.526	1	10
414.696	1	7
414.867	1	3
415.038	1	4
415.208	1	-6
415.379	1	6
415.550	1	16
415.720	1	5
415.891	1	10
416.062	1	12
416.232	1	11
416.403	1	14
416.573	1	5
416.744	1	13
416.915	1	5
417.085	1	15
417.256	1	10
417.427	1	6
417.597	1	0
417.768	1	15
417.939	1	-1
418.109	1	8
418.280	1	12
418.450	1	25
418.621	1	7
418.792	1	6
418.962	1	7
419.133	1	1
419.304	1	8
419.474	1	5
419.645	1	11
419.815	1	8
419.986	1	7
420.157	1	3
420.327	1	8
420.498	1	10
420.669	1	12
420.839	1	6
421.010	1	-5
421.180	1	6
421.351	1	4
421.522	1	14
421.692	1	12
421.863	1	7
422.033	1	10
422.204	1	12
422.375	1	8
422.545	1	8
422.716	1	4
422.886	1	11
423.057	1	-1
423.228	1	-5
423.398	1	14
423.569	1	9
423.740	1	11
423.910	1	6
424.081	1	11
424.251	1	7
424.422	1	12
424.593	1	9
424.763	1	5
424.934	1	14
425.104	1	18
425.275	1	5
425.445	1	12
425.616	1	11
425.787	1	3
425.957	1	0
426.128	1	6
426.298	1	7
426.469	1	-1
426.640	1	10
426.810	1	-8
426.981	1	15
427.151	1	-4
427.322	1	9
427.493	1	8
427.663	1	12
427.834	1	4
428.004	1	7
428.175	1	8
428.345	1	-5
428.516	1	5
428.687	1	22
428.857	1	20
429.028	1	0
429.198	1	2
429.369	1	2
429.540	1	12
429.710	1	5
429.881	1	6
430.051	1	6
430.222	1	4
430.392	1	14
430.563	1	-1
430.734	1	9
430.904	1	12
431.075	1	12
431.245	1	5
431.416	1	4
431.586	1	3
431.757	1	-2
431.927	1	0
432.098	1	11
432.269	1	5
432.439	1	2
432.610	1	9
432.780	1	11
432.951	1	2
433.121	1	10
433.292	1	17
433.462	1	3
433.633	1	3
433.804	1	8
433.974	1	6
434.145	1	8
434.315	1	0
434.486	1	-2
434.656	1	15
434.827	1	11
434.997	1	6
435.168	1	12
435.339	1	18
435.509	1	3
435.680	1	10
435.850	1	3
436.021	1	2
436.191	1	11
436.362	1	15
436.532	1	12
436.703	1	-1
436.873	1	7
437.044	1	11
437.214	1	7
437.385	1	13
437.556	1	19
437.726	1	6
437.897	1	-2
438.067	1	4
438.238	1	10
438.408	1	14
438.579	1	1
438.749	1	0
438.920	1	11
439.090	1	-8
439.261	1	6
439.431	1	-10
439.602	1	8
439.772	1	3
439.943	1	0
440.113	1	3
440.284	1	19
440.455	1	-1
440.625	1	15
440.796	1	1
440.966	1	21
441.137	1	6
441.307	1	9
441.478	1	1
441.648	1	1
441.819	1	4
441.989	1	9
442.160	1	9
442.330	1	14
442.501	1	2
442.671	1	3
442.842	1	8
443.012	1	1
443.183	1	10
443.353	1	0
443.524	1	2
443.694	1	12
443.865	1	14
444.035	1	1
444.206	1	7
444.376	1	12
444.547	1	3
444.717	1	-1
444.888	1	-4
445.058	1	9
445.229	1	1
445.399	1	11
445.570	1	6
445.740	1	2
445.911	1	4
446.081	1	18
446.252	1	9
446.422	1	6
446.593	1	6
446.763	1	0
446.934	1	4
447.104	1	2
447.275	1	10
447.445	1	7
447.616	1	4
447.786	1	4
447.957	1	3
448.127	1	1
448.298	1	8
448.468	1	11
448.639	1	2
448.809	1	6
448.979	1	15
449.150	1	0
449.320	1	4
449.491	1	2
449.661	1	-1
449.832	1	0
450.002	1	6
450.173	1	10
450.343	1	0
450.514	1	3
450.684	1	4
450.855	1	7
451.025	1	0
451.196	1	0
451.366	1	17
451.537	1	14
451.707	1	7
451.878	1	1
452.048	1	2
452.218	1	8
452.389	1	9
452.559	1	16
452.730	1	9
452.900	1	3
453.071	1	7
453.241	1	2
453.412	1	9
453.582	1	4
453.753	1	11
453.923	1	-1
454.093	1	-1
454.264	1	20
454.434	1	6
454.605	1	-1
454.775	1	7
454.946	1	-4
455.116	1	12
455.287	1	2
455.457	1	11
455.628	1	-3
455.798	1	12
455.968	1	11
456.139	1	10
456.309	1	1
456.480	1	0
456.650	1	6
456.821	1	6
456.991	1	8
457.161	1	1
457.332	1	3
457.502	1	6
457.673	1	-3
457.843	1	1
458.014	1	7
458.184	1	12
458.355	1	10
458.525	1	-1
458.695	1	7
458.866	1	-10
459.036	1	8
459.207	1	7
459.377	1	5
459.548	1	3
459.718	1	6
459.888	1	-4
460.059	1	2
460.229	1	1
460.400	1	7
460.570	1	-8
460.740	1	2
460.911	1	5
461.081	1	8
461.252	1	7
461.422	1	-3
461.593	1	13
461.763	1	8
461.933	1	10
462.104	1	6
462.274	1	-2
462.445	1	1
462.615	1	3
462.785	1	3
462.956	1	-4
463.126	1	1
463.297	1	2
463.467	1	12
463.638	1	10
463.808	1	7
463.978	1	2
464.149	1	-2
464.319	1	5
464.490	1	8
464.660	1	2
464.830	1	-1
465.001	1	0
465.171	1	0
465.342	1	-4
465.512	1	6
465.682	1	-4
465.853	1	9
466.023	1	4
466.194	1	-1
466.364	1	16
466.534	1	-10
466.705	1	21
466.875	1	0
467.045	1	-3
467.216	1	9
467.386	1	5
467.557	1	10
467.727	1	6
467.897	1	-6
468.068	1	-10
468.238	1	2
468.409	1	10
468.579	1	2
468.749	1	2
468.920	1	2
469.090	1	15
469.260	1	6
469.431	1	-10
469.601	1	3
469.772	1	10
469.942	1	1
470.112	1	3
470.283	1	7
470.453	1	3
470.623	1	4
470.794	1	11
470.964	1	-9
471.135	1	10
471.305	1	-4
471.475	1	8
471.646	1	5
471.816	1	12
471.986	1	4
472.157	1	13
472.327	1	5
472.497	1	-3
472.668	1	9
472.838	1	3
473.009	1	11
473.179	1	3
473.349	1	1
473.520	1	18
473.690	1	-3
473.860	1	-10
474.031	1	-6
474.201	1	4
474.371	1	3
474.542	1	-5
474.712	1	0
474.882	1	3
475.053	1	10
475.223	1	-3
475.394	1	-3
475.564	1	2
475.734	1	0
475.905	1	10
476.075	1	15
476.245	1	6
476.416	1	-8
476.586	1	-3
476.756	1	2
476.927	1	-2
477.097	1	5
477.267	1	10
477.438	1	14
477.608	1	17
477.778	1	-7
477.949	1	-7
478.119	1	6
478.289	1	-2
478.460	1	-8
478.630	1	10
478.800	1	-5
478.971	1	3
479.141	1	8
479.311	1	1
479.482	1	-1
479.652	1	7
479.822	1	-8
479.993	1	0
480.163	1	6
480.333	1	11
480.504	1	-1
480.674	1	2
480.844	1	0
481.015	1	10
481.185	1	11
481.355	1	0
481.525	1	-10
481.696	1	0
481.866	1	2
482.036	1	4
482.207	1	16
482.377	1	5
482.547	1	4
482.718	1	11
482.888	1	7
483.058	1	8
483.229	1	8
483.399	1	7
483.569	1	5
483.740	1	0
483.910	1	-8
484.080	1	8
484.250	1	-8
484.421	1	-3
484.591	1	-4
484.761	1	-2
484.932	1	-7
485.102	1	13
485.272	1	4
485.443	1	4
485.613	1	6
485.783	1	1
485.953	1	8
486.124	1	4
486.294	1	8
486.464	1	11
486.635	1	0
486.805	1	10
486.975	1	-4
487.146	1	8
487.316	1	12
487.486	1	8
487.656	1	7
487.827	1	-1
487.997	1	-3
488.167	1	10
488.338	1	1
488.508	1	2
488.678	1	-7
488.848	1	3
489.019	1	-3
489.189	1	9
489.359	1	3
489.529	1	9
489.700	1	2
489.870	1	8
490.040	1	-12
490.211	1	0
490.381	1	2
490.551	1	14
490.721	1	6
490.892	1	-7
491.062	1	1
491.232	1	-9
491.402	1	-8
491.573	1	8
491.743	1	1
491.913	1	-1
492.084	1	4
492.254	1	6
492.424	1	1
492.594	1	-4
492.765	1	8
492.935	1	18
493.105	1	-3
493.275	1	-3
493.446	1	-7
493.616	1	-2
493.786	1	9
493.956	1	5
494.127	1	-6
494.297	1	-10
494.467	1	3
494.637	1	-3
494.808	1	12
494.978	1	1
495.148	1	-1
495.318	1	2
495.489	1	-10
495.659	1	3
495.829	1	-2
495.999	1	1
496.170	1	-1
496.340	1	2
496.510	1	14
496.680	1	3
496.851	1	5
497.021	1	4
497.191	1	1
497.361	1	-15
497.532	1	-11
497.702	1	6
497.872	1	-2
498.042	1	6
498.213	1	-10
498.383	1	6
498.553	1	4
498.723	1	4
498.894	1	7
499.064	1	2
499.234	1	-1
499.404	1	0
499.574	1	11
499.745	1	-1
499.915	1	-4
500.085	1	-5
500.255	1	-7
500.426	1	3
500.596	1	-15
500.766	1	-3
500.936	1	-5
501.106	1	3
501.277	1	-1
501.447	1	1
501.617	1	3
501.787	1	-1
501.958	1	8
502.128	1	2
502.298	1	1
502.468	1	-7
502.638	1	7
502.809	1	-10
502.979	1	8
503.149	1	2
503.319	1	4
503.489	1	-12
503.660	1	2
503.830	1	-1
504.000	1	3
504.170	1	1
504.340	1	-5
504.511	1	-2
504.681	1	3
504.851	1	-5
505.021	1	5
505.192	1	-11
505.362	1	-10
505.532	1	-2
505.702	1	20
505.872	1	-1
506.043	1	5
506.213	1	1
506.383	1	5
506.553	1	-7
506.723	1	4
506.893	1	4
507.064	1	8
507.234	1	-1
507.404	1	-6
507.574	1	-7
507.744	1	6
507.915	1	5
508.085	1	0
508.255	1	-2
508.425	1	-3
508.595	1	2
508.766	1	-10
508.936	1	6
509.106	1	-1
509.276	1	8
509.446	1	-9
509.616	1	-5
509.787	1	-4
509.957	1	6
510.127	1	-7
510.297	1	1
510.467	1	2
510.638	1	6
510.808	1	5
510.978	1	-10
511.148	1	-3
511.318	1	5
511.488	1	8
511.659	1	6
511.829	1	-9
511.999	1	-2
512.169	1	8
512.339	1	-1
512.509	1	-7
512.680	1	-4
512.850	1	4
513.020	1	10
513.190	1	-10
513.360	1	1
513.530	1	-9
513.700	1	3
513.871	1	-2
514.041	1	10
514.211	1	-1
514.381	1	13
514.551	1	-6
514.721	1	1
514.892	1	0
515.062	1	-7
515.232	1	-5
515.402	1	-6
515.572	1	9
515.742	1	-1
515.912	1	-7
516.083	1	9
516.253	1	7
516.423	1	-2
516.593	1	-1
516.763	1	1
516.933	1	6
517.104	1	3
517.274	1	-7
517.444	1	-3
517.614	1	-4
517.784	1	2
517.954	1	-4
518.124	1	1
518.294	1	-2
518.465	1	-2
518.635	1	5
518.805	1	3
518.975	1	2
519.145	1	-3
519.315	1	1
519.485	1	-6
519.656	1	-1
519.826	1	-9
519.996	1	3
520.166	1	-5
520.336	1	0
520.506	1	-1
520.676	1	9
520.846	1	5
521.017	1	2
521.187	1	2
521.357	1	-1
521.527	1	1
521.697	1	-12
521.867	1	0
522.037	1	-1
522.207	1	6
522.377	1	7
522.548	1	-11
522.718	1	-3
522.888	1	0
523.058	1	10
523.228	1	-8
523.398	1	0
523.568	1	-9
523.738	1	-3
523.909	1	0
524.079	1	-5
524.249	1	0
524.419	1	4
524.589	1	4
524.759	1	3
524.929	1	4
525.099	1	-11
525.269	1	3
525.439	1	2
525.610	1	0
525.780	1	-3
525.950	1	-1
526.120	1	-2
526.290	1	-3
526.460	1	5
526.630	1	4
526.800	1	-7
526.970	1	1
527.140	1	-2
527.311	1	-1
527.481	1	8
527.651	1	3
527.821	1	-5
527.991	1	0
528.161	1	-2
528.331	1	-6
528.501	1	1
528.671	1	4
528.841	1	-4
529.011	1	-3
529.181	1	0
529.352	1	-2
529.522	1	-2
529.692	1	-8
529.862	1	-3
530.032	1	-8
530.202	1	-4
530.372	1	5
530.542	1	-6
530.712	1	1
530.882	1	1
531.052	1	4
531.222	1	2
531.392	1	-5
531.563	1	-1
531.733	1	0
531.903	1	-1
532.073	1	1
532.243	1	10
532.413	1	13
532.583	1	3
532.753	1	-5
532.923	1	-2
533.093	1	-3
533.263	1	1
533.433	1	-11
533.603	1	-6
533.773	1	1
533.943	1	-7
534.113	1	-2
534.284	1	-1
534.454	1	3
534.624	1	-3
534.794	1	-3
534.964	1	8
535.134	1	-2
535.304	1	1
535.474	1	-3
535.644	1	3
535.814	1	1
535.984	1	0
536.154	1	-3
536.324	1	-3
536.494	1	-1
536.664	1	-2
536.834	1	-1
537.004	1	2
537.174	1	-4
537.344	1	0
537.514	1	-11
537.685	1	14
537.855	1	0
538.025	1	15
538.195	1	-2
538.365	1	2
538.535	1	-7
538.705	1	1
538.875	1	4
539.045	1	8
539.215	1	-10
539.385	1	-3
539.555	1	-2
539.725	1	-3
539.895	1	4
540.065	1	-4
540.235	1	1
540.405	1	-6
540.575	1	4
540.745	1	-4
540.915	1	2
541.085	1	-7
541.255	1	-3
541.425	1	1
541.595	1	-4
541.765	1	-2
541.935	1	-1
542.105	1	-1
542.275	1	-6
542.445	1	1
542.615	1	4
542.785	1	-8
542.955	1	17
543.125	1	2
543.295	1	5
543.465	1	6
543.635	1	-5
543.805	1	5
543.975	1	1
544.145	1	-2
544.315	1	0
544.485	1	2
544.655	1	7
544.825	1	-5
544.995	1	-6
545.165	1	3
545.335	1	4
545.505	1	6
545.675	1	6
545.845	1	-1
546.015	1	-4
546.185	1	-4
546.355	1	0
546.525	1	2
546.695	1	1
546.865	1	5
547.035	1	-1
547.205	1	16
547.375	1	3
547.545	1	6
547.715	1	-5
547.885	1	-6
548.055	1	-8
548.225	1	9
548.395	1	7
548.565	1	4
548.735	1	-12
548.905	1	7
549.075	1	5
549.245	1	0
549.415	1	2
549.585	1	-3
549.755	1	2
549.925	1	3
550.095	1	-12
550.265	1	6
550.435	1	6
550.605	1	4
550.775	1	-4
550.945	1	4
551.115	1	4
551.285	1	-1
551.455	1	6
551.625	1	-9
551.795	1	-10
551.965	1	-9
552.135	1	-9
552.305	1	9
552.475	1	-1
552.645	1	-4
552.815	1	5
552.985	1	-12
553.155	1	-7
553.325	1	-5
553.495	1	1
553.665	1	5
553.835	1	-2
554.004	1	0
554.174	1	-6
554.344	1	10
554.514	1	-3
554.684	1	5
554.854	1	-8
555.024	1	5
555.194	1	-1
555.364	1	-4
555.534	1	-9
555.704	1	2
555.874	1	3
556.044	1	-2
556.214	1	4
556.384	1	-3
556.554	1	13
556.724	1	-4
556.894	1	-3
557.064	1	-7
557.234	1	-5
557.404	1	-6
557.573	1	-5
557.743	1	-5
557.913	1	-7
558.083	1	-1
558.253	1	3
558.423	1	1
558.593	1	5
558.763	1	-2
558.933	1	-8
559.103	1	-1
559.273	1	8
559.443	1	-1
559.613	1	-8
559.783	1	-12
559.953	1	-14
560.122	1	5
560.292	1	-11
560.462	1	-3
560.632	1	-5
560.802	1	3
560.972	1	-6
561.142	1	-5
561.312	1	5
561.482	1	5
561.652	1	-5
561.822	1	-1
561.992	1	4
562.162	1	-12
562.331	1	-14
562.501	1	0
562.671	1	-4
562.841	1	-12
563.011	1	-1
563.181	1	2
563.351	1	-13
563.521	1	-4
563.691	1	-3
563.861	1	2
564.031	1	-10
564.201	1	1
564.370	1	2
564.540	1	1
564.710	1	-6
564.880	1	2
565.050	1	5
565.220	1	7
565.390	1	-4
565.560	1	7
565.730	1	-1
565.900	1	2
566.069	1	0
566.239	1	7
566.409	1	2
566.579	1	-3
566.749	1	1
566.919	1	-10
567.089	1	-5
567.259	1	1
567.429	1	-12
567.599	1	5
567.768	1	-10
567.938	1	-7
568.108	1	2
568.278	1	8
568.448	1	-2
568.618	1	7
568.788	1	2
568.958	1	1
569.128	1	-8
569.297	1	-6
569.467	1	1
569.637	1	-4
569.807	1	5
569.977	1	-2
570.147	1	-1
570.317	1	-1
570.487	1	-3
570.656	1	10
570.826	1	-1
570.996	1	4
571.166	1	-6
571.336	1	-5
571.506	1	-6
571.676	1	0
571.846	1	4
572.015	1	-11
572.185	1	0
572.355	1	-6
572.525	1	-6
572.695	1	2
572.865	1	9
573.035	1	8
573.205	1	-8
573.374	1	-1
573.544	1	-2
573.714	1	1
573.884	1	-5
574.054	1	-4
574.224	1	-4
574.394	1	-3
574.563	1	-4
574.733	1	3
574.903	1	-3
575.073	1	4
575.243	1	5
575.413	1	-4
575.583	1	-8
575.752	1	-14
575.922	1	2
576.092	1	-2
576.262	1	1
576.432	1	-5
576.602	1	3
576.772	1	3
576.941	1	-3
577.111	1	0
577.281	1	-2
577.451	1	-1
577.621	1	6
577.791	1	3
577.960	1	-1
578.130	1	0
578.300	1	-2
578.470	1	4
578.640	1	-9
578.810	1	-4
578.979	1	-6
579.149	1	-1
579.319	1	-2
579.489	1	12
579.659	1	-3
579.829	1	1
579.998	1	-16
580.168	1	-7
580.338	1	1
580.508	1	0
580.678	1	1
580.848	1	-4
581.017	1	3
581.187	1	-4
581.357	1	-2
581.527	1	-9
581.697	1	-2
581.867	1	-10
582.036	1	-19
582.206	1	-4
582.376	1	-5
582.546	1	-7
582.716	1	-2
582.885	1	2
583.055	1	-4
583.225	1	0
583.395	1	3
583.565	1	-2
583.735	1	3
583.904	1	-3
584.074	1	-5
584.244	1	0
584.414	1	-10
584.584	1	0
584.753	1	3
584.923	1	-14
585.093	1	4
585.263	1	3
585.433	1	-9
585.602	1	14
585.772	1	5
585.942	1	0
586.112	1	-5
586.282	1	0
586.451	1	15
586.621	1	-11
586.791	1	-15
586.961	1	-7
587.131	1	-5
587.300	1	14
587.470	1	-6
587.640	1	-3
587.810	1	-6
587.980	1	7
588.149	1	18
588.319	1	6
588.489	1	2
588.659	1	-4
588.829	1	-2
588.998	1	-1
589.168	1	-10
589.338	1	-8
589.508	1	-8
589.677	1	-3
589.847	1	-1
590.017	1	-11
590.187	1	-5
590.357	1	-16
590.526	1	-6
590.696	1	2
590.866	1	-7
591.036	1	5
591.205	1	-1
591.375	1	2
591.545	1	0
591.715	1	-14
591.885	1	8
592.054	1	7
592.224	1	-4
592.394	1	-9
592.564	1	8
592.733	1	7
592.903	1	-6
593.073	1	-10
593.243	1	8
593.412	1	-7
593.582	1	4
593.752	1	-3
593.922	1	5
594.091	1	5
594.261	1	-11
594.431	1	-5
594.601	1	-2
594.771	1	-2
594.940	1	-4
595.110	1	0
595.280	1	-4
595.450	1	5
595.619	1	-1
595.789	1	3
595.959	1	-14
596.129	1	-6
596.298	1	5
596.468	1	-5
596.638	1	-3
596.808	1	-9
596.977	1	-3
597.147	1	-8
597.317	1	7
597.487	1	0
597.656	1	-3
597.826	1	7
597.996	1	-10
598.166	1	5
598.335	1	-8
598.505	1	2
598.675	1	6
598.844	1	7
599.014	1	-12
599.184	1	1
599.354	1	12
599.523	1	-10
599.693	1	-2
599.863	1	-1
600.033	1	4
600.202	1	-11
600.372	1	-7
600.542	1	-2
600.712	1	-2
600.881	1	-7
601.051	1	5
601.221	1	-9
601.390	1	-2
601.560	1	11
601.730	1	-2
601.900	1	-4
602.069	1	-6
602.239	1	1
602.409	1	-2
602.578	1	10
602.748	1	12
602.918	1	-9
603.088	1	0
603.257	1	-6
603.427	1	-5
603.597	1	-1
603.767	1	1
603.936	1	8
604.106	1	3
604.276	1	-9
604.445	1	-5
604.615	1	-7
604.785	1	-1
604.954	1	-3
605.124	1	0
605.294	1	7
605.464	1	-4
605.633	1	-3
605.803	1	3
605.973	1	-4
606.142	1	5
606.312	1	4
606.482	1	-8
606.652	1	-4
606.821	1	-3
606.991	1	-1
607.161	1	-2
607.330	1	-2
607.500	1	4
607.670	1	-7
607.839	1	3
608.009	1	-8
608.179	1	2
608.348	1	5
608.518	1	9
608.688	1	-5
608.858	1	-1
609.027	1	4
609.197	1	6
609.367	1	-8
609.536	1	-5
609.706	1	5
609.876	1	8
610.045	1	-4
610.215	1	8
610.385	1	-1
610.554	1	-2
610.724	1	-5
610.894	1	-1
611.063	1	0
611.233	1	4
611.403	1	9
611.572	1	2
611.742	1	-6
611.912	1	-6
612.081	1	2
612.251	1	0
612.421	1	-1
612.590	1	0
612.760	1	-2
612.930	1	6
613.099	1	-3
613.269	1	4
613.439	1	-6
613.608	1	2
613.778	1	1
613.948	1	5
614.117	1	0
614.287	1	-10
614.457	1	4
614.626	1	-4
614.796	1	4
614.966	1	-4
615.135	1	11
615.305	1	1
615.475	1	1
615.644	1	8
615.814	1	13
615.984	1	1
616.153	1	9
616.323	1	1
616.493	1	-2
616.662	1	1
616.832	1	-3
617.002	1	0
617.171	1	8
617.341	1	6
617.511	1	-6
617.680	1	-9
617.850	1	-1
618.019	1	-1
618.189	1	12
618.359	1	-4
618.528	1	-4
618.698	1	1
618.868	1	-8
619.037	1	3
619.207	1	-6
619.377	1	-3
619.546	1	5
619.716	1	-3
619.885	1	-2
620.055	1	-8
620.225	1	2
620.394	1	1
620.564	1	4
620.734	1	4
620.903	1	-13
621.073	1	-4
621.242	1	3
621.412	1	-7
621.582	1	10
621.751	1	-3
621.921	1	5
622.091	1	-6
622.260	1	2
622.430	1	-1
622.599	1	-2
622.769	1	4
622.939	1	-3
623.108	1	-3
623.278	1	-5
623.448	1	-5
623.617	1	-4
623.787	1	-1
623.956	1	8
624.126	1	7
624.296	1	7
624.465	1	2
624.635	1	-10
624.804	1	-3
624.974	1	-10
625.144	1	-1
625.313	1	13
625.483	1	8
625.652	1	-9
625.822	1	4
625.992	1	-6
626.161	1	3
626.331	1	1
626.501	1	-6
626.670	1	1
626.840	1	1
627.009	1	1
627.179	1	2
627.348	1	-5
627.518	1	13
627.688	1	-4
627.857	1	5
628.027	1	5
628.196	1	3
628.366	1	-16
628.536	1	0
628.705	1	-2
628.875	1	2
629.044	1	-11
629.214	1	-5
629.384	1	-3
629.553	1	-2
629.723	1	7
629.892	1	-3
630.062	1	4
630.232	1	6
630.401	1	9
630.571	1	4
630.740	1	-2
630.910	1	6
631.079	1	-7
631.249	1	-3
631.419	1	2
631.588	1	8
631.758	1	-8
631.927	1	7
632.097	1	-9
632.266	1	8
632.436	1	-2
632.606	1	7
632.775	1	-1
632.945	1	-2
633.114	1	-9
633.284	1	-8
633.453	1	3
633.623	1	10
633.793	1	-4
633.962	1	-4
634.132	1	3
634.301	1	8
634.471	1	-1
634.640	1	-11
634.810	1	-4
634.979	1	4
635.149	1	-2
635.319	1	-5
635.488	1	0
635.658	1	-2
635.827	1	-2
635.997	1	1
636.166	1	0
636.336	1	-4
636.505	1	-5
636.675	1	3
636.845	1	-6
637.014	1	-15
637.184	1	5
637.353	1	-1
637.523	1	0
637.692	1	1
637.862	1	-7
638.031	1	-2
638.201	1	-1
638.370	1	-3
638.540	1	-13
638.710	1	-5
638.879	1	-7
639.049	1	3
639.218	1	7
639.388	1	1
639.557	1	-3
639.727	1	-7
639.896	1	-9
640.066	1	1
640.235	1	-13
640.405	1	4
640.574	1	-1
640.744	1	-8
640.914	1	-2
641.083	1	-3
641.253	1	-10
641.422	1	-6
641.592	1	5
641.761	1	2
641.931	1	8
642.100	1	0
642.270	1	-6
642.439	1	3
642.609	1	12
642.778	1	5
642.948	1	5
643.117	1	-2
643.287	1	-1
643.456	1	-5
643.626	1	-1
643.795	1	-6
643.965	1	0
644.134	1	-2
644.304	1	-2
644.473	1	3
644.643	1	-9
644.812	1	4
644.982	1	-1
645.151	1	0
645.321	1	-3
645.490	1	12
645.660	1	-7
645.829	1	6
645.999	1	-4
646.168	1	10
646.338	1	-7
646.507	1	-1
646.677	1	9
646.846	1	3
647.016	1	8
647.185	1	-2
647.355	1	5
647.524	1	-11
647.694	1	-6
647.863	1	-5
648.033	1	-2
648.202	1	4
648.372	1	-9
648.541	1	-1
648.711	1	9
648.880	1	-2
649.050	1	-2
649.219	1	-5
649.389	1	-7
649.558	1	4
649.728	1	-3
649.897	1	-4
650.067	1	-4
650.236	1	-8
650.406	1	1
650.575	1	-6
650.745	1	-2
650.914	1	3
651.084	1	5
651.253	1	-4
651.423	1	-10
651.592	1	-1
651.762	1	2
651.931	1	6
652.101	1	-5
652.270	1	-7
652.440	1	-1
652.609	1	5
652.778	1	1
652.948	1	-4
653.117	1	-4
653.287	1	-6
653.456	1	-6
653.626	1	-11
653.795	1	-6
653.965	1	1
654.134	1	-3
654.304	1	10
654.473	1	6
654.643	1	0
654.812	1	2
654.982	1	1
655.151	1	3
655.320	1	-4
655.490	1	-13
655.659	1	5
655.829	1	1
655.998	1	5
656.168	1	-3
656.337	1	6
656.507	1	-8
656.676	1	-5
656.846	1	5
657.015	1	7
657.184	1	-4
657.354	1	-4
657.523	1	-4
657.693	1	5
657.862	1	-15
658.032	1	0
658.201	1	-6
658.371	1	0
658.540	1	-13
658.709	1	4
658.879	1	10
659.048	1	10
659.218	1	-8
659.387	1	1
659.557	1	0
659.726	1	-11
659.895	1	-2
660.065	1	-5
660.234	1	-9
660.404	1	-1
660.573	1	-5
660.743	1	7
660.912	1	-1
661.081	1	-3
661.251	1	-12
661.420	1	9
661.590	1	-2
661.759	1	4
661.929	1	-8
662.098	1	-5
662.267	1	-7
662.437	1	3
662.606	1	-7
662.776	1	9
662.945	1	-3
663.115	1	9
663.284	1	4
663.453	1	-9
663.623	1	-2
663.792	1	3
663.962	1	-4
664.131	1	0
664.300	1	-6
664.470	1	-8
664.639	1	3
664.809	1	2
664.978	1	8
665.148	1	0
665.317	1	3
665.486	1	6
665.656	1	0
665.825	1	4
665.995	1	-7
666.164	1	1
666.333	1	0
666.503	1	-1
666.672	1	-1
666.842	1	-7
667.011	1	-3
667.180	1	-5
667.350	1	-1
667.519	1	3
667.689	1	-10
667.858	1	-9
668.027	1	-2
668.197	1	-13
668.366	1	-1
668.536	1	-7
668.705	1	-2
668.874	1	4
669.044	1	1
669.213	1	9
669.382	1	4
669.552	1	-4
669.721	1	-5
669.891	1	-7
670.060	1	2
670.229	1	2
670.399	1	1
670.568	1	8
670.738	1	-6
670.907	1	1
671.076	1	1
671.246	1	5
671.415	1	1
671.584	1	5
671.754	1	-10
671.923	1	5
672.093	1	5
672.262	1	-5
672.431	1	0
672.601	1	1
672.770	1	-3
672.939	1	3
673.109	1	4
673.278	1	4
673.448	1	9
673.617	1	3
673.786	1	-8
