325.333	1	2
325.504	1	-8
325.675	1	5
325.846	1	10
326.017	1	9
326.188	1	-6
326.359	1	18
326.531	1	-9
326.702	1	-6
326.873	1	12
327.044	1	-2
327.215	1	-2
327.386	1	-5
327.557	1	7
327.728	1	-3
327.899	1	6
328.070	1	1
328.241	1	2
328.412	1	0
328.583	1	4
328.754	1	12
328.926	1	3
329.097	1	1
329.268	1	12
329.439	1	6
329.610	1	3
329.781	1	6
329.952	1	11
330.123	1	3
330.294	1	6
330.465	1	-4
330.636	1	7
330.807	1	6
330.978	1	3
331.149	1	9
331.320	1	6
331.492	1	6
331.663	1	3
331.834	1	11
332.005	1	5
332.176	1	10
332.347	1	3
332.518	1	12
332.689	1	10
332.860	1	9
333.031	1	6
333.202	1	9
333.373	1	0
333.544	1	8
333.715	1	3
333.886	1	-1
334.057	1	-7
334.228	1	8
334.399	1	10
334.570	1	4
334.741	1	8
334.912	1	1
335.084	1	14
335.255	1	9
335.426	1	8
335.597	1	-3
335.768	1	3
335.939	1	9
336.110	1	8
336.281	1	-1
336.452	1	24
336.623	1	4
336.794	1	4
336.965	1	2
337.136	1	19
337.307	1	0
337.478	1	-2
337.649	1	2
337.820	1	5
337.991	1	9
338.162	1	3
338.333	1	7
338.504	1	8
338.675	1	0
338.846	1	-9
339.017	1	5
339.188	1	5
339.359	1	7
339.530	1	2
339.701	1	14
339.872	1	9
340.043	1	4
340.214	1	17
340.385	1	-2
340.556	1	-1
340.727	1	7
340.898	1	15
341.069	1	6
341.240	1	0
341.411	1	8
341.582	1	1
341.753	1	6
341.924	1	17
342.095	1	-1
342.266	1	10
342.437	1	4
342.608	1	9
342.779	1	2
342.950	1	-7
343.121	1	12
343.292	1	5
343.463	1	21
343.634	1	6
343.805	1	7
343.976	1	15
344.147	1	3
344.318	1	-5
344.489	1	5
344.660	1	18
344.831	1	14
345.002	1	12
345.173	1	12
345.344	1	-4
345.515	1	3
345.686	1	6
345.857	1	14
346.028	1	10
346.199	1	6
346.370	1	1
346.541	1	7
346.712	1	7
346.883	1	4
347.054	1	9
347.225	1	10
347.396	1	6
347.567	1	-3
347.738	1	9
347.909	1	10
348.080	1	1
348.251	1	8
348.422	1	16
348.593	1	13
348.764	1	7
348.935	1	11
349.106	1	-1
349.277	1	7
349.448	1	6
349.619	1	4
349.790	1	13
349.961	1	5
350.132	1	5
350.303	1	9
350.474	1	7
350.645	1	13
350.816	1	15
350.987	1	8
351.157	1	5
351.328	1	10
351.499	1	12
351.670	1	14
351.841	1	19
352.012	1	12
352.183	1	25
352.354	1	8
352.525	1	10
352.696	1	1
352.867	1	15
353.038	1	18
353.209	1	5
353.380	1	9
353.551	1	8
353.722	1	10
353.893	1	13
354.064	1	12
354.235	1	6
354.406	1	5
354.576	1	12
354.747	1	11
354.918	1	9
355.089	1	11
355.260	1	6
355.431	1	-1
355.602	1	8
355.773	1	12
355.944	1	14
356.115	1	22
356.286	1	16
356.457	1	15
356.628	1	6
356.799	1	17
356.970	1	24
357.141	1	10
357.311	1	21
357.482	1	18
357.653	1	9
357.824	1	13
357.995	1	17
358.166	1	0
358.337	1	13
358.508	1	18
358.679	1	13
358.850	1	16
359.021	1	11
359.192	1	16
359.363	1	10
359.533	1	12
359.704	1	17
359.875	1	8
360.046	1	13
360.217	1	15
360.388	1	21
360.559	1	18
360.730	1	2
360.901	1	17
361.072	1	19
361.243	1	7
361.414	1	20
361.584	1	3
361.755	1	18
361.926	1	13
362.097	1	11
362.268	1	20
362.439	1	17
362.610	1	7
362.781	1	17
362.952	1	11
363.123	1	8
363.293	1	9
363.464	1	9
363.635	1	18
363.806	1	10
363.977	1	14
364.148	1	7
364.319	1	13
364.490	1	21
364.661	1	17
364.832	1	10
365.002	1	20
365.173	1	9
365.344	1	15
365.515	1	14
365.686	1	13
365.857	1	16
366.028	1	9
366.199	1	16
366.370	1	18
366.540	1	9
366.711	1	15
366.882	1	14
367.053	1	16
367.224	1	8
367.395	1	15
367.566	1	20
367.737	1	15
367.908	1	10
368.078	1	6
368.249	1	17
368.420	1	10
368.591	1	7
368.762	1	20
368.933	1	10
369.104	1	17
369.274	1	17
369.445	1	21
369.616	1	23
369.787	1	12
369.958	1	17
370.129	1	18
370.300	1	-1
370.471	1	18
370.641	1	12
370.812	1	14
370.983	1	2
371.154	1	16
371.325	1	12
371.496	1	15
371.667	1	27
371.837	1	27
372.008	1	6
372.179	1	6
372.350	1	27
372.521	1	18
372.692	1	16
372.863	1	23
373.033	1	15
373.204	1	11
373.375	1	11
373.546	1	14
373.717	1	13
373.888	1	17
374.059	1	5
374.229	1	15
374.400	1	13
374.571	1	2
374.742	1	12
374.913	1	-4
375.084	1	11
375.254	1	6
375.425	1	14
375.596	1	11
375.767	1	12
375.938	1	16
376.109	1	7
376.279	1	13
376.450	1	21
376.621	1	15
376.792	1	21
376.963	1	5
377.134	1	14
377.304	1	23
377.475	1	4
377.646	1	11
377.817	1	14
377.988	1	14
378.159	1	14
378.329	1	14
378.500	1	26
378.671	1	17
378.842	1	21
379.013	1	15
379.184	1	18
379.354	1	11
379.525	1	22
379.696	1	26
379.867	1	15
380.038	1	13
380.209	1	23
380.379	1	17
380.550	1	-1
380.721	1	20
380.892	1	11
381.063	1	21
381.233	1	9
381.404	1	8
381.575	1	19
381.746	1	23
381.917	1	15
382.087	1	14
382.258	1	16
382.429	1	17
382.600	1	23
382.771	1	15
382.941	1	24
383.112	1	24
383.283	1	16
383.454	1	13
383.625	1	29
383.795	1	17
383.966	1	20
384.137	1	26
384.308	1	13
384.479	1	13
384.649	1	18
384.820	1	16
384.991	1	7
385.162	1	16
385.333	1	21
385.503	1	19
385.674	1	12
385.845	1	18
386.016	1	33
386.187	1	10
386.357	1	29
386.528	1	22
386.699	1	3
386.870	1	9
387.041	1	33
387.211	1	24
387.382	1	27
387.553	1	24
387.724	1	14
387.894	1	7
388.065	1	21
388.236	1	23
388.407	1	24
388.578	1	5
388.748	1	21
388.919	1	25
389.090	1	34
389.261	1	26
389.431	1	12
389.602	1	34
389.773	1	21
389.944	1	9
390.114	1	24
390.285	1	20
390.456	1	19
390.627	1	23
390.798	1	17
390.968	1	23
391.139	1	25
391.310	1	18
391.481	1	6
391.651	1	20
391.822	1	22
391.993	1	19
392.164	1	21
392.334	1	16
392.505	1	25
392.676	1	12
392.847	1	15
393.017	1	14
393.188	1	19
393.359	1	27
393.530	1	35
393.700	1	19
393.871	1	31
394.042	1	23
394.213	1	25
394.383	1	25
394.554	1	22
394.725	1	15
394.896	1	35
395.066	1	26
395.237	1	30
395.408	1	23
395.579	1	29
395.749	1	29
395.920	1	21
396.091	1	16
396.262	1	17
396.432	1	20
396.603	1	17
396.774	1	13
396.945	1	26
397.115	1	22
397.286	1	21
397.457	1	19
397.627	1	14
397.798	1	18
397.969	1	17
398.140	1	27
398.310	1	22
398.481	1	13
398.652	1	31
398.823	1	17
398.993	1	15
399.164	1	34
399.335	1	17
399.505	1	12
399.676	1	35
399.847	1	7
400.018	1	18
400.188	1	26
400.359	1	28
400.530	1	26
400.700	1	27
400.871	1	17
401.042	1	32
401.213	1	33
401.383	1	18
401.554	1	24
401.725	1	23
401.895	1	12
402.066	1	24
402.237	1	27
402.408	1	22
402.578	1	23
402.749	1	24
402.920	1	20
403.090	1	15
403.261	1	29
403.432	1	17
403.603	1	30
403.773	1	35
403.944	1	24
404.115	1	30
404.285	1	33
404.456	1	20
404.627	1	29
404.797	1	32
404.968	1	29
405.139	1	31
405.310	1	23
405.480	1	21
405.651	1	23
405.822	1	23
405.992	1	27
406.163	1	34
406.334	1	24
406.504	1	24
406.675	1	18
406.846	1	23
407.016	1	31
407.187	1	27
407.358	1	11
407.528	1	23
407.699	1	35
407.870	1	21
408.041	1	13
408.211	1	29
408.382	1	21
408.553	1	21
408.723	1	35
408.894	1	18
409.065	1	23
409.235	1	19
409.406	1	17
409.577	1	14
409.747	1	33
409.918	1	25
410.089	1	33
410.259	1	24
410.430	1	27
410.601	1	34
410.771	1	30
410.942	1	26
411.113	1	29
411.283	1	29
411.454	1	37
411.625	1	30
411.795	1	29
411.966	1	36
412.137	1	37
412.307	1	32
412.478	1	26
412.649	1	19
412.819	1	26
412.990	1	43
413.161	1	22
413.331	1	23
413.502	1	22
413.672	1	18
413.843	1	25
414.014	1	19
414.184	1	25
414.355	1	36
414.526	1	24
414.696	1	18
414.867	1	8
415.038	1	25
415.208	1	14
415.379	1	23
415.550	1	24
415.720	1	13
415.891	1	36
416.062	1	18
416.232	1	30
416.403	1	30
416.573	1	13
416.744	1	30
416.915	1	26
417.085	1	24
417.256	1	25
417.427	1	22
417.597	1	17
417.768	1	39
417.939	1	18
418.109	1	15
418.280	1	28
418.450	1	45
418.621	1	26
418.792	1	17
418.962	1	31
419.133	1	20
419.304	1	16
419.474	1	26
419.645	1	17
419.815	1	22
419.986	1	26
420.157	1	23
420.327	1	9
420.498	1	32
420.669	1	29
420.839	1	27
421.010	1	28
421.180	1	21
421.351	1	26
421.522	1	24
421.692	1	34
421.863	1	24
422.033	1	17
422.204	1	40
422.375	1	25
422.545	1	36
422.716	1	31
422.886	1	27
423.057	1	28
423.228	1	15
423.398	1	32
423.569	1	20
423.740	1	23
423.910	1	31
424.081	1	24
424.251	1	21
424.422	1	28
424.593	1	8
424.763	1	19
424.934	1	25
425.104	1	25
425.275	1	27
425.445	1	24
425.616	1	24
425.787	1	37
425.957	1	33
426.128	1	25
426.298	1	22
426.469	1	20
426.640	1	18
426.810	1	10
426.981	1	35
427.151	1	13
427.322	1	23
427.493	1	25
427.663	1	19
427.834	1	19
428.004	1	30
428.175	1	23
428.345	1	15
428.516	1	30
428.687	1	22
428.857	1	29
429.028	1	19
429.198	1	16
429.369	1	22
429.540	1	24
429.710	1	14
429.881	1	14
430.051	1	16
430.222	1	25
430.392	1	20
430.563	1	14
430.734	1	18
430.904	1	28
431.075	1	13
431.245	1	25
431.416	1	33
431.586	1	22
431.757	1	28
431.927	1	32
432.098	1	27
432.269	1	21
432.439	1	23
432.610	1	31
432.780	1	22
432.951	1	28
433.121	1	23
433.292	1	25
433.462	1	26
433.633	1	26
433.804	1	23
433.974	1	24
434.145	1	26
434.315	1	20
434.486	1	22
434.656	1	27
434.827	1	26
434.997	1	27
435.168	1	27
435.339	1	31
435.509	1	19
435.680	1	27
435.850	1	18
436.021	1	17
436.191	1	29
436.362	1	20
436.532	1	21
436.703	1	25
436.873	1	16
437.044	1	16
437.214	1	9
437.385	1	20
437.556	1	20
437.726	1	14
437.897	1	19
438.067	1	26
438.238	1	26
438.408	1	20
438.579	1	18
438.749	1	18
438.920	1	22
439.090	1	20
439.261	1	19
439.431	1	8
439.602	1	26
439.772	1	26
439.943	1	12
440.113	1	19
440.284	1	27
440.455	1	12
440.625	1	15
440.796	1	8
440.966	1	20
441.137	1	21
441.307	1	18
441.478	1	8
441.648	1	20
441.819	1	17
441.989	1	21
442.160	1	13
442.330	1	11
442.501	1	12
442.671	1	16
442.842	1	20
443.012	1	17
443.183	1	18
443.353	1	20
443.524	1	14
443.694	1	19
443.865	1	27
444.035	1	17
444.206	1	6
444.376	1	14
444.547	1	19
444.717	1	17
444.888	1	13
445.058	1	18
445.229	1	12
445.399	1	31
445.570	1	15
445.740	1	25
445.911	1	22
446.081	1	11
446.252	1	21
446.422	1	23
446.593	1	20
446.763	1	17
446.934	1	32
447.104	1	15
447.275	1	14
447.445	1	16
447.616	1	13
447.786	1	12
447.957	1	14
448.127	1	31
448.298	1	13
448.468	1	15
448.639	1	17
448.809	1	15
448.979	1	17
449.150	1	12
449.320	1	9
449.491	1	16
449.661	1	14
449.832	1	18
450.002	1	13
450.173	1	18
450.343	1	26
450.514	1	19
450.684	1	11
450.855	1	26
451.025	1	15
451.196	1	13
451.366	1	30
451.537	1	27
451.707	1	34
451.878	1	1
452.048	1	4
452.218	1	20
452.389	1	19
452.559	1	24
452.730	1	18
452.900	1	16
453.071	1	26
453.241	1	27
453.412	1	12
453.582	1	22
453.753	1	19
453.923	1	7
454.093	1	19
454.264	1	29
454.434	1	16
454.605	1	15
454.775	1	24
454.946	1	6
455.116	1	22
455.287	1	12
455.457	1	19
455.628	1	3
455.798	1	12
455.968	1	13
456.139	1	14
456.309	1	9
456.480	1	18
456.650	1	26
456.821	1	20
456.991	1	17
457.161	1	21
457.332	1	24
457.502	1	13
457.673	1	0
457.843	1	11
458.014	1	16
458.184	1	20
458.355	1	20
458.525	1	13
458.695	1	6
458.866	1	16
459.036	1	16
459.207	1	18
459.377	1	24
459.548	1	13
459.718	1	8
459.888	1	12
460.059	1	10
460.229	1	8
460.400	1	5
460.570	1	3
460.740	1	13
460.911	1	9
461.081	1	15
461.252	1	18
461.422	1	17
461.593	1	18
461.763	1	12
461.933	1	4
462.104	1	16
462.274	1	7
462.445	1	12
462.615	1	13
462.785	1	19
462.956	1	5
463.126	1	19
463.297	1	15
463.467	1	20
463.638	1	11
463.808	1	17
463.978	1	1
464.149	1	10
464.319	1	15
464.490	1	11
464.660	1	10
464.830	1	8
465.001	1	17
465.171	1	3
465.342	1	5
465.512	1	14
465.682	1	4
465.853	1	1
466.023	1	17
466.194	1	21
466.364	1	19
466.534	1	2
466.705	1	26
466.875	1	2
467.045	1	4
467.216	1	16
467.386	1	16
467.557	1	21
467.727	1	4
467.897	1	12
468.068	1	4
468.238	1	8
468.409	1	16
468.579	1	18
468.749	1	16
468.920	1	3
469.090	1	21
469.260	1	14
469.431	1	3
469.601	1	12
469.772	1	16
469.942	1	24
470.112	1	8
470.283	1	11
470.453	1	12
470.623	1	18
470.794	1	17
470.964	1	-2
471.135	1	15
471.305	1	3
471.475	1	11
471.646	1	13
471.816	1	21
471.986	1	8
472.157	1	18
472.327	1	19
472.497	1	17
472.668	1	12
472.838	1	10
473.009	1	6
473.179	1	9
473.349	1	2
473.520	1	22
473.690	1	10
473.860	1	4
474.031	1	3
474.201	1	11
474.371	1	12
474.542	1	7
474.712	1	14
474.882	1	18
475.053	1	12
475.223	1	10
475.394	1	10
475.564	1	14
475.734	1	8
475.905	1	19
476.075	1	17
476.245	1	7
476.416	1	2
476.586	1	4
476.756	1	19
476.927	1	7
477.097	1	7
477.267	1	9
477.438	1	25
477.608	1	28
477.778	1	6
477.949	1	3
478.119	1	9
478.289	1	12
478.460	1	10
478.630	1	8
478.800	1	0
478.971	1	1
479.141	1	11
479.311	1	4
479.482	1	3
479.652	1	18
479.822	1	-2
479.993	1	8
480.163	1	10
480.333	1	14
480.504	1	18
480.674	1	13
480.844	1	7
481.015	1	11
481.185	1	20
481.355	1	9
481.525	1	5
481.696	1	15
481.866	1	14
482.036	1	11
482.207	1	13
482.377	1	7
482.547	1	12
482.718	1	13
482.888	1	20
483.058	1	14
483.229	1	3
483.399	1	6
483.569	1	3
483.740	1	4
483.910	1	8
484.080	1	16
484.250	1	2
484.421	1	6
484.591	1	5
484.761	1	19
484.932	1	-3
485.102	1	16
485.272	1	12
485.443	1	22
485.613	1	4
485.783	1	15
485.953	1	12
486.124	1	3
486.294	1	14
486.464	1	14
486.635	1	8
486.805	1	8
486.975	1	4
487.146	1	4
487.316	1	12
487.486	1	10
487.656	1	12
487.827	1	5
487.997	1	1
488.167	1	16
488.338	1	4
488.508	1	19
488.678	1	7
488.848	1	9
489.019	1	3
489.189	1	16
489.359	1	6
489.529	1	7
489.700	1	10
489.870	1	18
490.040	1	-4
490.211	1	5
490.381	1	6
490.551	1	8
490.721	1	8
490.892	1	6
491.062	1	-3
491.232	1	8
491.402	1	10
491.573	1	17
491.743	1	6
491.913	1	2
492.084	1	17
492.254	1	3
492.424	1	-1
492.594	1	2
492.765	1	9
492.935	1	16
493.105	1	10
493.275	1	8
493.446	1	7
493.616	1	-3
493.786	1	19
493.956	1	9
494.127	1	3
494.297	1	-11
494.467	1	5
494.637	1	20
494.808	1	7
494.978	1	1
495.148	1	7
495.318	1	10
495.489	1	3
495.659	1	9
495.829	1	8
495.999	1	6
496.170	1	-2
496.340	1	6
496.510	1	13
496.680	1	4
496.851	1	21
497.021	1	4
497.191	1	15
497.361	1	-9
497.532	1	0
497.702	1	9
497.872	1	0
498.042	1	4
498.213	1	1
498.383	1	12
498.553	1	-7
498.723	1	1
498.894	1	8
499.064	1	4
499.234	1	7
499.404	1	12
499.574	1	11
499.745	1	11
499.915	1	9
500.085	1	-1
500.255	1	-9
500.426	1	-1
500.596	1	-5
500.766	1	2
500.936	1	3
501.106	1	3
501.277	1	-3
501.447	1	15
501.617	1	3
501.787	1	-3
501.958	1	13
502.128	1	12
502.298	1	6
502.468	1	-3
502.638	1	10
502.809	1	3
502.979	1	7
503.149	1	-3
503.319	1	12
503.489	1	-5
503.660	1	-3
503.830	1	-2
504.000	1	8
504.170	1	4
504.340	1	-1
504.511	1	3
504.681	1	-1
504.851	1	-9
505.021	1	5
505.192	1	6
505.362	1	9
505.532	1	-4
505.702	1	21
505.872	1	2
506.043	1	11
506.213	1	15
506.383	1	4
506.553	1	7
506.723	1	3
506.893	1	9
507.064	1	10
507.234	1	11
507.404	1	-5
507.574	1	3
507.744	1	3
507.915	1	7
508.085	1	-2
508.255	1	6
508.425	1	2
508.595	1	-7
508.766	1	-6
508.936	1	10
509.106	1	12
509.276	1	14
509.446	1	0
509.616	1	12
509.787	1	3
509.957	1	5
510.127	1	2
510.297	1	-3
510.467	1	0
510.638	1	7
510.808	1	17
510.978	1	-2
511.148	1	2
511.318	1	6
511.488	1	9
511.659	1	10
511.829	1	5
511.999	1	9
512.169	1	7
512.339	1	5
512.509	1	0
512.680	1	2
512.850	1	5
513.020	1	4
513.190	1	-5
513.360	1	1
513.530	1	-7
513.700	1	5
513.871	1	-7
514.041	1	8
514.211	1	12
514.381	1	7
514.551	1	2
514.721	1	3
514.892	1	1
515.062	1	-2
515.232	1	-4
515.402	1	0
515.572	1	5
515.742	1	8
515.912	1	0
516.083	1	3
516.253	1	6
516.423	1	16
516.593	1	0
516.763	1	10
516.933	1	-1
517.104	1	8
517.274	1	-5
517.444	1	5
517.614	1	2
517.784	1	4
517.954	1	-2
518.124	1	6
518.294	1	6
518.465	1	3
518.635	1	7
518.805	1	10
518.975	1	1
519.145	1	16
519.315	1	4
519.485	1	-7
519.656	1	0
519.826	1	-1
519.996	1	11
520.166	1	-2
520.336	1	-1
520.506	1	0
520.676	1	7
520.846	1	-6
521.017	1	-4
521.187	1	0
521.357	1	3
521.527	1	-4
521.697	1	-2
521.867	1	9
522.037	1	2
522.207	1	12
522.377	1	9
522.548	1	-12
522.718	1	-6
522.888	1	3
523.058	1	6
523.228	1	-6
523.398	1	-1
523.568	1	-3
523.738	1	4
523.909	1	-6
524.079	1	4
524.249	1	4
524.419	1	1
524.589	1	1
524.759	1	9
524.929	1	3
525.099	1	8
525.269	1	1
525.439	1	-3
525.610	1	12
525.780	1	8
525.950	1	4
526.120	1	-2
526.290	1	-6
526.460	1	-12
526.630	1	11
526.800	1	4
526.970	1	10
527.140	1	3
527.311	1	15
527.481	1	10
527.651	1	2
527.821	1	-2
527.991	1	4
528.161	1	1
528.331	1	-5
528.501	1	3
528.671	1	8
528.841	1	7
529.011	1	4
529.181	1	5
529.352	1	4
529.522	1	-2
529.692	1	7
529.862	1	1
530.032	1	-1
530.202	1	-7
530.372	1	3
530.542	1	1
530.712	1	4
530.882	1	6
531.052	1	9
531.222	1	0
531.392	1	6
531.563	1	2
531.733	1	3
531.903	1	7
532.073	1	1
532.243	1	5
532.413	1	21
532.583	1	6
532.753	1	-6
532.923	1	3
533.093	1	-1
533.263	1	2
533.433	1	0
533.603	1	-8
533.773	1	0
533.943	1	1
534.113	1	5
534.284	1	2
534.454	1	-1
534.624	1	-3
534.794	1	4
534.964	1	-2
535.134	1	-1
535.304	1	6
535.474	1	7
535.644	1	16
535.814	1	6
535.984	1	4
536.154	1	0
536.324	1	-5
536.494	1	3
536.664	1	-1
536.834	1	5
537.004	1	8
537.174	1	16
537.344	1	1
537.514	1	-5
537.685	1	4
537.855	1	-2
538.025	1	11
538.195	1	-6
538.365	1	-1
538.535	1	2
538.705	1	6
538.875	1	-3
539.045	1	4
539.215	1	-3
539.385	1	-1
539.555	1	5
539.725	1	4
539.895	1	-6
540.065	1	10
540.235	1	-1
540.405	1	-2
540.575	1	0
540.745	1	6
540.915	1	4
541.085	1	7
541.255	1	-5
541.425	1	-2
541.595	1	-1
541.765	1	4
541.935	1	10
542.105	1	2
542.275	1	2
542.445	1	-5
542.615	1	10
542.785	1	-3
542.955	1	6
543.125	1	4
543.295	1	8
543.465	1	12
543.635	1	-5
543.805	1	0
543.975	1	-1
544.145	1	12
544.315	1	-1
544.485	1	-2
544.655	1	10
544.825	1	4
544.995	1	-6
545.165	1	-4
545.335	1	8
545.505	1	3
545.675	1	7
545.845	1	5
546.015	1	-1
546.185	1	2
546.355	1	6
546.525	1	4
546.695	1	4
546.865	1	-2
547.035	1	4
547.205	1	1
547.375	1	7
547.545	1	2
547.715	1	12
547.885	1	-7
548.055	1	-5
548.225	1	9
548.395	1	-1
548.565	1	2
548.735	1	-4
548.905	1	4
549.075	1	-2
549.245	1	8
549.415	1	12
549.585	1	-2
549.755	1	-5
549.925	1	-3
550.095	1	-14
550.265	1	-1
550.435	1	-9
550.605	1	-5
550.775	1	-9
550.945	1	5
551.115	1	18
551.285	1	5
551.455	1	3
551.625	1	0
551.795	1	-5
551.965	1	-10
552.135	1	-1
552.305	1	8
552.475	1	3
552.645	1	-8
552.815	1	4
552.985	1	3
553.155	1	-5
553.325	1	1
553.495	1	7
553.665	1	-2
553.835	1	3
554.004	1	5
554.174	1	1
554.344	1	1
554.514	1	-2
554.684	1	7
554.854	1	-3
555.024	1	4
555.194	1	3
555.364	1	-1
555.534	1	-6
555.704	1	0
555.874	1	1
556.044	1	4
556.214	1	-2
556.384	1	8
556.554	1	4
556.724	1	2
556.894	1	-6
557.064	1	-8
557.234	1	-4
557.404	1	-2
557.573	1	8
557.743	1	3
557.913	1	3
558.083	1	-2
558.253	1	3
558.423	1	9
558.593	1	5
558.763	1	-3
558.933	1	0
559.103	1	-7
559.273	1	4
559.443	1	6
559.613	1	6
559.783	1	-3
559.953	1	-17
560.122	1	5
560.292	1	-7
560.462	1	-6
560.632	1	-12
560.802	1	12
560.972	1	-6
561.142	1	10
561.312	1	7
561.482	1	5
561.652	1	-1
561.822	1	-6
561.992	1	0
562.162	1	2
562.331	1	-9
562.501	1	3
562.671	1	-9
562.841	1	-10
563.011	1	11
563.181	1	8
563.351	1	-10
563.521	1	-7
563.691	1	12
563.861	1	3
564.031	1	-1
564.201	1	4
564.370	1	-1
564.540	1	2
564.710	1	-3
564.880	1	7
565.050	1	12
565.220	1	5
565.390	1	-5
565.560	1	7
565.730	1	0
565.900	1	-1
566.069	1	12
566.239	1	10
566.409	1	6
566.579	1	2
566.749	1	5
566.919	1	-8
567.089	1	-3
567.259	1	-2
567.429	1	-8
567.599	1	11
567.768	1	-1
567.938	1	3
568.108	1	2
568.278	1	2
568.448	1	0
568.618	1	3
568.788	1	-1
568.958	1	4
569.128	1	-6
569.297	1	1
569.467	1	5
569.637	1	5
569.807	1	0
569.977	1	-5
570.147	1	6
570.317	1	-1
570.487	1	-4
570.656	1	1
570.826	1	4
570.996	1	6
571.166	1	2
571.336	1	-4
571.506	1	-4
571.676	1	7
571.846	1	4
572.015	1	12
572.185	1	-3
572.355	1	1
572.525	1	-5
572.695	1	1
572.865	1	9
573.035	1	13
573.205	1	0
573.374	1	0
573.544	1	-1
573.714	1	-2
573.884	1	1
574.054	1	0
574.224	1	2
574.394	1	1
574.563	1	-11
574.733	1	5
574.903	1	-6
575.073	1	3
575.243	1	-2
575.413	1	-5
575.583	1	-1
575.752	1	2
575.922	1	7
576.092	1	-7
576.262	1	-3
576.432	1	-6
576.602	1	-1
576.772	1	1
576.941	1	1
577.111	1	4
577.281	1	3
577.451	1	4
577.621	1	2
577.791	1	-2
577.960	1	5
578.130	1	7
578.300	1	1
578.470	1	5
578.640	1	-6
578.810	1	-2
578.979	1	-2
579.149	1	-1
579.319	1	11
579.489	1	16
579.659	1	6
579.829	1	-6
579.998	1	-9
580.168	1	-8
580.338	1	2
580.508	1	-3
580.678	1	0
580.848	1	5
581.017	1	4
581.187	1	-1
581.357	1	2
581.527	1	5
581.697	1	1
581.867	1	1
582.036	1	-12
582.206	1	3
582.376	1	1
582.546	1	-3
582.716	1	-1
582.885	1	-1
583.055	1	-7
583.225	1	-6
583.395	1	-1
583.565	1	6
583.735	1	4
583.904	1	-8
584.074	1	-1
584.244	1	-4
584.414	1	3
584.584	1	-2
584.753	1	7
584.923	1	0
585.093	1	4
585.263	1	5
585.433	1	-5
585.602	1	5
585.772	1	10
585.942	1	-9
586.112	1	3
586.282	1	7
586.451	1	11
586.621	1	-6
586.791	1	-9
586.961	1	-4
587.131	1	4
587.300	1	4
587.470	1	4
587.640	1	0
587.810	1	-9
587.980	1	2
588.149	1	7
588.319	1	11
588.489	1	6
588.659	1	-3
588.829	1	2
588.998	1	2
589.168	1	0
589.338	1	3
589.508	1	2
589.677	1	-2
589.847	1	8
590.017	1	0
590.187	1	1
590.357	1	0
590.526	1	-5
590.696	1	3
590.866	1	-5
591.036	1	4
591.205	1	2
591.375	1	-5
591.545	1	5
591.715	1	4
591.885	1	9
592.054	1	15
592.224	1	-2
592.394	1	-17
592.564	1	8
592.733	1	-1
592.903	1	-5
593.073	1	2
593.243	1	-1
593.412	1	0
593.582	1	-1
593.752	1	7
593.922	1	4
594.091	1	10
594.261	1	-7
594.431	1	-1
594.601	1	-1
594.771	1	1
594.940	1	-2
595.110	1	5
595.280	1	4
595.450	1	4
595.619	1	-1
595.789	1	0
595.959	1	-2
596.129	1	-3
596.298	1	6
596.468	1	6
596.638	1	4
596.808	1	-8
596.977	1	1
597.147	1	-7
597.317	1	-3
597.487	1	-4
597.656	1	2
597.826	1	8
597.996	1	-9
598.166	1	-2
598.335	1	-4
598.505	1	9
598.675	1	-3
598.844	1	13
599.014	1	-8
599.184	1	-3
599.354	1	4
599.523	1	-3
599.693	1	-1
599.863	1	6
600.033	1	7
600.202	1	2
600.372	1	-1
600.542	1	-8
600.712	1	-2
600.881	1	-1
601.051	1	-6
601.221	1	1
601.390	1	3
601.560	1	0
601.730	1	4
601.900	1	-1
602.069	1	-1
602.239	1	7
602.409	1	-1
602.578	1	8
602.748	1	10
602.918	1	-8
603.088	1	9
603.257	1	-8
603.427	1	3
603.597	1	-8
603.767	1	-2
603.936	1	10
604.106	1	4
604.276	1	2
604.445	1	-11
604.615	1	2
604.785	1	1
604.954	1	0
605.124	1	5
605.294	1	-7
605.464	1	-2
605.633	1	11
605.803	1	16
605.973	1	1
606.142	1	8
606.312	1	5
606.482	1	-8
606.652	1	1
606.821	1	-3
606.991	1	6
607.161	1	-4
607.330	1	0
607.500	1	4
607.670	1	6
607.839	1	-11
608.009	1	-4
608.179	1	5
608.348	1	11
608.518	1	10
608.688	1	-4
608.858	1	-3
609.027	1	1
609.197	1	0
609.367	1	-6
609.536	1	-7
609.706	1	2
609.876	1	8
610.045	1	-10
610.215	1	4
610.385	1	4
610.554	1	-4
610.724	1	6
610.894	1	1
611.063	1	2
611.233	1	-1
611.403	1	10
611.572	1	7
611.742	1	2
611.912	1	-7
612.081	1	7
612.251	1	7
612.421	1	9
612.590	1	1
612.760	1	5
612.930	1	13
613.099	1	7
613.269	1	-7
613.439	1	-6
613.608	1	9
613.778	1	-4
613.948	1	9
614.117	1	-7
614.287	1	2
614.457	1	2
614.626	1	2
614.796	1	-6
614.966	1	1
615.135	1	8
615.305	1	-1
615.475	1	-2
615.644	1	17
615.814	1	17
615.984	1	-7
616.153	1	4
616.323	1	0
616.493	1	-2
616.662	1	-6
616.832	1	5
617.002	1	1
617.171	1	-2
617.341	1	7
617.511	1	-8
617.680	1	-3
617.850	1	-2
618.019	1	-2
618.189	1	15
618.359	1	-1
618.528	1	5
618.698	1	2
618.868	1	6
619.037	1	1
619.207	1	6
619.377	1	2
619.546	1	8
619.716	1	-5
619.885	1	2
620.055	1	-7
620.225	1	4
620.394	1	1
620.564	1	3
620.734	1	9
620.903	1	-11
621.073	1	8
621.242	1	3
621.412	1	-2
621.582	1	6
621.751	1	-3
621.921	1	11
622.091	1	-5
622.260	1	6
622.430	1	3
622.599	1	3
622.769	1	-2
622.939	1	-9
623.108	1	-1
623.278	1	1
623.448	1	1
623.617	1	-9
623.787	1	-3
623.956	1	6
624.126	1	5
624.296	1	12
624.465	1	7
624.635	1	2
624.804	1	-10
624.974	1	-1
625.144	1	2
625.313	1	6
625.483	1	6
625.652	1	4
625.822	1	14
625.992	1	-11
626.161	1	-4
626.331	1	0
626.501	1	7
626.670	1	-16
626.840	1	6
627.009	1	-1
627.179	1	4
627.348	1	4
627.518	1	16
627.688	1	-2
627.857	1	10
628.027	1	2
628.196	1	6
628.366	1	-5
628.536	1	1
628.705	1	-5
628.875	1	-4
629.044	1	-1
629.214	1	2
629.384	1	9
629.553	1	-5
629.723	1	4
629.892	1	7
630.062	1	0
630.232	1	5
630.401	1	7
630.571	1	-2
630.740	1	-4
630.910	1	1
631.079	1	11
631.249	1	1
631.419	1	4
631.588	1	8
631.758	1	-2
631.927	1	2
632.097	1	1
632.266	1	11
632.436	1	5
632.606	1	2
632.775	1	-1
632.945	1	-3
633.114	1	-2
633.284	1	-1
633.453	1	2
633.623	1	10
633.793	1	-5
633.962	1	6
634.132	1	6
634.301	1	17
634.471	1	-2
634.640	1	1
634.810	1	0
634.979	1	5
635.149	1	-10
635.319	1	0
635.488	1	2
635.658	1	2
635.827	1	-1
635.997	1	2
636.166	1	9
636.336	1	-2
636.505	1	11
636.675	1	0
636.845	1	-3
637.014	1	-19
637.184	1	15
637.353	1	2
637.523	1	-1
637.692	1	6
637.862	1	4
638.031	1	-6
638.201	1	8
638.370	1	4
638.540	1	-9
638.710	1	-11
638.879	1	-9
639.049	1	3
639.218	1	6
639.388	1	3
639.557	1	-2
639.727	1	12
639.896	1	-2
640.066	1	7
640.235	1	2
640.405	1	3
640.574	1	8
640.744	1	-4
640.914	1	0
641.083	1	14
641.253	1	6
641.422	1	-1
641.592	1	9
641.761	1	-5
641.931	1	4
642.100	1	1
642.270	1	-2
642.439	1	9
642.609	1	17
642.778	1	0
642.948	1	12
643.117	1	4
643.287	1	6
643.456	1	5
643.626	1	6
643.795	1	2
643.965	1	4
644.134	1	-1
644.304	1	-7
644.473	1	1
644.643	1	2
644.812	1	1
644.982	1	0
645.151	1	-3
645.321	1	8
645.490	1	14
645.660	1	-3
645.829	1	1
645.999	1	-10
646.168	1	19
646.338	1	-3
646.507	1	6
646.677	1	8
646.846	1	6
647.016	1	16
647.185	1	12
647.355	1	15
647.524	1	-4
647.694	1	-2
647.863	1	-7
648.033	1	0
648.202	1	3
648.372	1	-4
648.541	1	-1
648.711	1	9
648.880	1	4
649.050	1	2
649.219	1	-1
649.389	1	-8
649.558	1	8
649.728	1	7
649.897	1	8
650.067	1	6
650.236	1	-4
650.406	1	0
650.575	1	2
650.745	1	6
650.914	1	5
651.084	1	11
651.253	1	3
651.423	1	-7
651.592	1	3
651.762	1	-1
651.931	1	1
652.101	1	-4
652.270	1	3
652.440	1	9
652.609	1	10
652.778	1	9
652.948	1	-7
653.117	1	-3
653.287	1	-7
653.456	1	4
653.626	1	6
653.795	1	0
653.965	1	1
654.134	1	-9
654.304	1	10
654.473	1	1
654.643	1	1
654.812	1	3
654.982	1	3
655.151	1	11
655.320	1	-1
655.490	1	-5
655.659	1	1
655.829	1	10
655.998	1	12
656.168	1	-2
656.337	1	4
656.507	1	-3
656.676	1	-2
656.846	1	2
657.015	1	0
657.184	1	-1
657.354	1	7
657.523	1	1
657.693	1	7
657.862	1	-9
658.032	1	-3
658.201	1	-3
658.371	1	8
658.540	1	-7
658.709	1	15
658.879	1	15
659.048	1	5
659.218	1	7
659.387	1	12
659.557	1	0
659.726	1	4
659.895	1	2
660.065	1	5
660.234	1	-3
660.404	1	3
660.573	1	2
660.743	1	14
660.912	1	6
661.081	1	5
661.251	1	2
661.420	1	13
661.590	1	-3
661.759	1	-3
661.929	1	7
662.098	1	4
662.267	1	-4
662.437	1	9
662.606	1	1
662.776	1	3
662.945	1	9
663.115	1	6
663.284	1	2
663.453	1	6
663.623	1	0
663.792	1	6
663.962	1	10
664.131	1	-1
664.300	1	-2
664.470	1	-1
664.639	1	7
664.809	1	5
664.978	1	9
665.148	1	4
665.317	1	-4
665.486	1	0
665.656	1	1
665.825	1	10
665.995	1	-7
666.164	1	8
666.333	1	-6
666.503	1	-9
666.672	1	6
666.842	1	1
667.011	1	-2
667.180	1	-1
667.350	1	8
667.519	1	5
667.689	1	3
667.858	1	1
668.027	1	-1
668.197	1	-11
668.366	1	2
668.536	1	-1
668.705	1	-5
668.874	1	12
669.044	1	3
669.213	1	11
669.382	1	6
669.552	1	4
669.721	1	-7
669.891	1	-11
670.060	1	-4
670.229	1	15
670.399	1	8
670.568	1	0
670.738	1	-2
670.907	1	2
671.076	1	3
671.246	1	8
671.415	1	12
671.584	1	2
671.754	1	-5
671.923	1	1
672.093	1	-1
672.262	1	-10
672.431	1	4
672.601	1	7
672.770	1	2
672.939	1	7
673.109	1	1
673.278	1	4
673.448	1	6
673.617	1	8
673.786	1	-7
