325.333	1	37
325.504	1	17
325.675	1	33
325.846	1	39
326.017	1	30
326.188	1	24
326.359	1	30
326.531	1	36
326.702	1	36
326.873	1	43
327.044	1	36
327.215	1	29
327.386	1	30
327.557	1	23
327.728	1	50
327.899	1	30
328.070	1	47
328.241	1	37
328.412	1	39
328.583	1	35
328.754	1	53
328.926	1	49
329.097	1	30
329.268	1	42
329.439	1	46
329.610	1	41
329.781	1	41
329.952	1	50
330.123	1	35
330.294	1	45
330.465	1	28
330.636	1	44
330.807	1	50
330.978	1	42
331.149	1	47
331.320	1	45
331.492	1	44
331.663	1	45
331.834	1	47
332.005	1	43
332.176	1	44
332.347	1	48
332.518	1	49
332.689	1	48
332.860	1	53
333.031	1	45
333.202	1	46
333.373	1	54
333.544	1	52
333.715	1	56
333.886	1	59
334.057	1	51
334.228	1	57
334.399	1	63
334.570	1	51
334.741	1	44
334.912	1	61
335.084	1	66
335.255	1	57
335.426	1	59
335.597	1	55
335.768	1	63
335.939	1	64
336.110	1	65
336.281	1	53
336.452	1	68
336.623	1	59
336.794	1	65
336.965	1	58
337.136	1	64
337.307	1	55
337.478	1	62
337.649	1	69
337.820	1	59
337.991	1	63
338.162	1	54
338.333	1	56
338.504	1	66
338.675	1	64
338.846	1	49
339.017	1	68
339.188	1	57
339.359	1	70
339.530	1	56
339.701	1	69
339.872	1	71
340.043	1	68
340.214	1	70
340.385	1	61
340.556	1	74
340.727	1	68
340.898	1	71
341.069	1	73
341.240	1	75
341.411	1	68
341.582	1	61
341.753	1	78
341.924	1	86
342.095	1	66
342.266	1	87
342.437	1	75
342.608	1	90
342.779	1	77
342.950	1	80
343.121	1	85
343.292	1	78
343.463	1	96
343.634	1	81
343.805	1	84
343.976	1	79
344.147	1	94
344.318	1	70
344.489	1	81
344.660	1	87
344.831	1	99
345.002	1	84
345.173	1	86
345.344	1	92
345.515	1	92
345.686	1	89
345.857	1	101
346.028	1	89
346.199	1	102
346.370	1	87
346.541	1	72
346.712	1	83
346.883	1	83
347.054	1	98
347.225	1	80
347.396	1	95
347.567	1	97
347.738	1	87
347.909	1	105
348.080	1	91
348.251	1	88
348.422	1	99
348.593	1	100
348.764	1	101
348.935	1	108
349.106	1	99
349.277	1	91
349.448	1	110
349.619	1	100
349.790	1	119
349.961	1	103
350.132	1	117
350.303	1	107
350.474	1	119
350.645	1	103
350.816	1	120
350.987	1	109
351.157	1	111
351.328	1	109
351.499	1	109
351.670	1	109
351.841	1	114
352.012	1	118
352.183	1	104
352.354	1	97
352.525	1	116
352.696	1	105
352.867	1	119
353.038	1	123
353.209	1	117
353.380	1	123
353.551	1	115
353.722	1	108
353.893	1	127
354.064	1	114
354.235	1	119
354.406	1	105
354.576	1	110
354.747	1	121
354.918	1	111
355.089	1	112
355.260	1	126
355.431	1	115
355.602	1	120
355.773	1	127
355.944	1	128
356.115	1	122
356.286	1	118
356.457	1	126
356.628	1	116
356.799	1	121
356.970	1	136
357.141	1	131
357.311	1	147
357.482	1	133
357.653	1	127
357.824	1	139
357.995	1	137
358.166	1	125
358.337	1	130
358.508	1	133
358.679	1	132
358.850	1	142
359.021	1	139
359.192	1	144
359.363	1	138
359.533	1	132
359.704	1	146
359.875	1	127
360.046	1	131
360.217	1	142
360.388	1	152
360.559	1	144
360.730	1	139
360.901	1	136
361.072	1	143
361.243	1	132
361.414	1	148
361.584	1	144
361.755	1	137
361.926	1	139
362.097	1	132
362.268	1	145
362.439	1	126
362.610	1	149
362.781	1	139
362.952	1	140
363.123	1	147
363.293	1	137
363.464	1	132
363.635	1	142
363.806	1	143
363.977	1	146
364.148	1	141
364.319	1	141
364.490	1	147
364.661	1	146
364.832	1	148
365.002	1	148
365.173	1	137
365.344	1	140
365.515	1	159
365.686	1	146
365.857	1	153
366.028	1	159
366.199	1	150
366.370	1	151
366.540	1	144
366.711	1	162
366.882	1	139
367.053	1	145
367.224	1	165
367.395	1	151
367.566	1	163
367.737	1	161
367.908	1	137
368.078	1	159
368.249	1	164
368.420	1	158
368.591	1	171
368.762	1	150
368.933	1	150
369.104	1	161
369.274	1	148
369.445	1	160
369.616	1	144
369.787	1	152
369.958	1	156
370.129	1	146
370.300	1	156
370.471	1	169
370.641	1	153
370.812	1	163
370.983	1	149
371.154	1	153
371.325	1	140
371.496	1	157
371.667	1	168
371.837	1	161
372.008	1	140
372.179	1	150
372.350	1	150
372.521	1	148
372.692	1	162
372.863	1	161
373.033	1	161
373.204	1	150
373.375	1	162
373.546	1	172
373.717	1	154
373.888	1	153
374.059	1	161
374.229	1	158
374.400	1	155
374.571	1	152
374.742	1	176
374.913	1	153
375.084	1	164
375.254	1	170
375.425	1	184
375.596	1	174
375.767	1	152
375.938	1	162
376.109	1	168
376.279	1	154
376.450	1	165
376.621	1	177
376.792	1	173
376.963	1	172
377.134	1	163
377.304	1	178
377.475	1	159
377.646	1	178
377.817	1	191
377.988	1	172
378.159	1	187
378.329	1	183
378.500	1	192
378.671	1	175
378.842	1	173
379.013	1	172
379.184	1	162
379.354	1	186
379.525	1	190
379.696	1	174
379.867	1	190
380.038	1	168
380.209	1	176
380.379	1	174
380.550	1	169
380.721	1	178
380.892	1	178
381.063	1	175
381.233	1	184
381.404	1	182
381.575	1	169
381.746	1	175
381.917	1	183
382.087	1	176
382.258	1	193
382.429	1	186
382.600	1	182
382.771	1	169
382.941	1	186
383.112	1	199
383.283	1	189
383.454	1	173
383.625	1	191
383.795	1	198
383.966	1	204
384.137	1	196
384.308	1	189
384.479	1	197
384.649	1	200
384.820	1	201
384.991	1	199
385.162	1	217
385.333	1	203
385.503	1	198
385.674	1	201
385.845	1	199
386.016	1	212
386.187	1	192
386.357	1	222
386.528	1	195
386.699	1	206
386.870	1	209
387.041	1	210
387.211	1	196
387.382	1	209
387.553	1	209
387.724	1	200
387.894	1	191
388.065	1	201
388.236	1	202
388.407	1	192
388.578	1	211
388.748	1	216
388.919	1	210
389.090	1	230
389.261	1	213
389.431	1	203
389.602	1	196
389.773	1	190
389.944	1	216
390.114	1	198
390.285	1	213
390.456	1	207
390.627	1	206
390.798	1	205
390.968	1	210
391.139	1	211
391.310	1	205
391.481	1	213
391.651	1	217
391.822	1	220
391.993	1	204
392.164	1	204
392.334	1	188
392.505	1	210
392.676	1	197
392.847	1	199
393.017	1	217
393.188	1	208
393.359	1	228
393.530	1	222
393.700	1	206
393.871	1	229
394.042	1	206
394.213	1	207
394.383	1	226
394.554	1	224
394.725	1	204
394.896	1	224
395.066	1	213
395.237	1	224
395.408	1	225
395.579	1	219
395.749	1	230
395.920	1	233
396.091	1	224
396.262	1	228
396.432	1	208
396.603	1	213
396.774	1	225
396.945	1	228
397.115	1	234
397.286	1	230
397.457	1	234
397.627	1	213
397.798	1	215
397.969	1	231
398.140	1	221
398.310	1	228
398.481	1	221
398.652	1	237
398.823	1	231
398.993	1	224
399.164	1	234
399.335	1	222
399.505	1	220
399.676	1	226
399.847	1	222
400.018	1	221
400.188	1	236
400.359	1	238
400.530	1	220
400.700	1	223
400.871	1	220
401.042	1	230
401.213	1	215
401.383	1	223
401.554	1	227
401.725	1	231
401.895	1	236
402.066	1	251
402.237	1	227
402.408	1	221
402.578	1	231
402.749	1	216
402.920	1	244
403.090	1	223
403.261	1	225
403.432	1	236
403.603	1	238
403.773	1	240
403.944	1	229
404.115	1	220
404.285	1	236
404.456	1	232
404.627	1	224
404.797	1	224
404.968	1	216
405.139	1	251
405.310	1	224
405.480	1	240
405.651	1	242
405.822	1	225
405.992	1	237
406.163	1	237
406.334	1	239
406.504	1	235
406.675	1	238
406.846	1	239
407.016	1	253
407.187	1	236
407.358	1	227
407.528	1	242
407.699	1	247
407.870	1	243
408.041	1	234
408.211	1	252
408.382	1	246
408.553	1	251
408.723	1	258
408.894	1	249
409.065	1	250
409.235	1	251
409.406	1	248
409.577	1	244
409.747	1	248
409.918	1	250
410.089	1	245
410.259	1	245
410.430	1	244
410.601	1	242
410.771	1	246
410.942	1	234
411.113	1	238
411.283	1	241
411.454	1	245
411.625	1	237
411.795	1	237
411.966	1	241
412.137	1	238
412.307	1	233
412.478	1	232
412.649	1	240
412.819	1	237
412.990	1	237
413.161	1	223
413.331	1	218
413.502	1	225
413.672	1	214
413.843	1	232
414.014	1	233
414.184	1	239
414.355	1	217
414.526	1	232
414.696	1	228
414.867	1	216
415.038	1	226
415.208	1	219
415.379	1	218
415.550	1	234
415.720	1	224
415.891	1	235
416.062	1	235
416.232	1	226
416.403	1	252
416.573	1	231
416.744	1	237
416.915	1	229
417.085	1	229
417.256	1	236
417.427	1	222
417.597	1	241
417.768	1	218
417.939	1	226
418.109	1	228
418.280	1	227
418.450	1	248
418.621	1	228
418.792	1	247
418.962	1	237
419.133	1	224
419.304	1	238
419.474	1	240
419.645	1	239
419.815	1	224
419.986	1	229
420.157	1	229
420.327	1	239
420.498	1	231
420.669	1	252
420.839	1	240
421.010	1	235
421.180	1	223
421.351	1	233
421.522	1	233
421.692	1	223
421.863	1	236
422.033	1	248
422.204	1	233
422.375	1	228
422.545	1	220
422.716	1	218
422.886	1	216
423.057	1	219
423.228	1	214
423.398	1	220
423.569	1	219
423.740	1	216
423.910	1	222
424.081	1	233
424.251	1	229
424.422	1	215
424.593	1	215
424.763	1	214
424.934	1	206
425.104	1	224
425.275	1	202
425.445	1	214
425.616	1	204
425.787	1	195
425.957	1	197
426.128	1	211
426.298	1	200
426.469	1	197
426.640	1	213
426.810	1	189
426.981	1	214
427.151	1	197
427.322	1	203
427.493	1	213
427.663	1	211
427.834	1	197
428.004	1	215
428.175	1	203
428.345	1	196
428.516	1	204
428.687	1	227
428.857	1	214
429.028	1	205
429.198	1	205
429.369	1	218
429.540	1	223
429.710	1	222
429.881	1	213
430.051	1	211
430.222	1	214
430.392	1	211
430.563	1	195
430.734	1	210
430.904	1	219
431.075	1	216
431.245	1	204
431.416	1	214
431.586	1	213
431.757	1	220
431.927	1	206
432.098	1	219
432.269	1	200
432.439	1	195
432.610	1	218
432.780	1	216
432.951	1	221
433.121	1	196
433.292	1	211
433.462	1	212
433.633	1	216
433.804	1	205
433.974	1	203
434.145	1	211
434.315	1	202
434.486	1	189
434.656	1	213
434.827	1	209
434.997	1	214
435.168	1	208
435.339	1	224
435.509	1	201
435.680	1	203
435.850	1	192
436.021	1	192
436.191	1	188
436.362	1	195
436.532	1	204
436.703	1	210
436.873	1	186
437.044	1	209
437.214	1	201
437.385	1	206
437.556	1	195
437.726	1	196
437.897	1	189
438.067	1	202
438.238	1	193
438.408	1	193
438.579	1	195
438.749	1	190
438.920	1	204
439.090	1	184
439.261	1	176
439.431	1	180
439.602	1	194
439.772	1	195
439.943	1	169
440.113	1	176
440.284	1	197
440.455	1	183
440.625	1	193
440.796	1	181
440.966	1	188
441.137	1	188
441.307	1	196
441.478	1	184
441.648	1	182
441.819	1	182
441.989	1	186
442.160	1	182
442.330	1	188
442.501	1	179
442.671	1	175
442.842	1	179
443.012	1	177
443.183	1	180
443.353	1	186
443.524	1	182
443.694	1	177
443.865	1	204
444.035	1	179
444.206	1	171
444.376	1	187
444.547	1	196
444.717	1	185
444.888	1	184
445.058	1	173
445.229	1	191
445.399	1	193
445.570	1	177
445.740	1	184
445.911	1	178
446.081	1	177
446.252	1	179
446.422	1	185
446.593	1	171
446.763	1	180
446.934	1	182
447.104	1	174
447.275	1	178
447.445	1	180
447.616	1	179
447.786	1	169
447.957	1	168
448.127	1	176
448.298	1	179
448.468	1	188
448.639	1	172
448.809	1	168
448.979	1	175
449.150	1	172
449.320	1	185
449.491	1	153
449.661	1	163
449.832	1	163
450.002	1	154
450.173	1	169
450.343	1	171
450.514	1	167
450.684	1	173
450.855	1	171
451.025	1	162
451.196	1	157
451.366	1	179
451.537	1	160
451.707	1	155
451.878	1	156
452.048	1	156
452.218	1	150
452.389	1	167
452.559	1	160
452.730	1	151
452.900	1	163
453.071	1	167
453.241	1	144
453.412	1	153
453.582	1	159
453.753	1	150
453.923	1	140
454.093	1	148
454.264	1	155
454.434	1	154
454.605	1	151
454.775	1	157
454.946	1	152
455.116	1	145
455.287	1	148
455.457	1	148
455.628	1	143
455.798	1	150
455.968	1	144
456.139	1	156
456.309	1	142
456.480	1	147
456.650	1	135
456.821	1	141
456.991	1	151
457.161	1	147
457.332	1	148
457.502	1	148
457.673	1	142
457.843	1	143
458.014	1	132
458.184	1	145
458.355	1	160
458.525	1	131
458.695	1	139
458.866	1	146
459.036	1	142
459.207	1	145
459.377	1	143
459.548	1	132
459.718	1	141
459.888	1	140
460.059	1	136
460.229	1	139
460.400	1	133
460.570	1	142
460.740	1	142
460.911	1	138
461.081	1	138
461.252	1	136
461.422	1	128
461.593	1	149
461.763	1	139
461.933	1	141
462.104	1	136
462.274	1	132
462.445	1	133
462.615	1	137
462.785	1	141
462.956	1	118
463.126	1	131
463.297	1	141
463.467	1	139
463.638	1	130
463.808	1	142
463.978	1	122
464.149	1	127
464.319	1	147
464.490	1	132
464.660	1	127
464.830	1	121
465.001	1	120
465.171	1	132
465.342	1	116
465.512	1	131
465.682	1	119
465.853	1	115
466.023	1	128
466.194	1	130
466.364	1	133
466.534	1	112
466.705	1	138
466.875	1	99
467.045	1	118
467.216	1	119
467.386	1	109
467.557	1	127
467.727	1	112
467.897	1	107
468.068	1	104
468.238	1	120
468.409	1	123
468.579	1	108
468.749	1	127
468.920	1	109
469.090	1	132
469.260	1	120
469.431	1	94
469.601	1	115
469.772	1	101
469.942	1	111
470.112	1	101
470.283	1	114
470.453	1	114
470.623	1	110
470.794	1	106
470.964	1	112
471.135	1	120
471.305	1	107
471.475	1	115
471.646	1	112
471.816	1	117
471.986	1	101
472.157	1	116
472.327	1	104
472.497	1	108
472.668	1	111
472.838	1	114
473.009	1	119
473.179	1	105
473.349	1	107
473.520	1	123
473.690	1	113
473.860	1	106
474.031	1	108
474.201	1	110
474.371	1	122
474.542	1	115
474.712	1	111
474.882	1	105
475.053	1	111
475.223	1	108
475.394	1	105
475.564	1	97
475.734	1	95
475.905	1	109
476.075	1	117
476.245	1	107
476.416	1	113
476.586	1	99
476.756	1	103
476.927	1	98
477.097	1	112
477.267	1	103
477.438	1	115
477.608	1	113
477.778	1	110
477.949	1	99
478.119	1	104
478.289	1	98
478.460	1	99
478.630	1	100
478.800	1	97
478.971	1	102
479.141	1	104
479.311	1	103
479.482	1	96
479.652	1	99
479.822	1	102
479.993	1	106
480.163	1	98
480.333	1	101
480.504	1	110
480.674	1	102
480.844	1	108
481.015	1	106
481.185	1	115
481.355	1	103
481.525	1	85
481.696	1	87
481.866	1	90
482.036	1	106
482.207	1	102
482.377	1	91
482.547	1	106
482.718	1	100
482.888	1	96
483.058	1	99
483.229	1	102
483.399	1	94
483.569	1	89
483.740	1	86
483.910	1	89
484.080	1	95
484.250	1	81
484.421	1	90
484.591	1	88
484.761	1	95
484.932	1	102
485.102	1	96
485.272	1	75
485.443	1	93
485.613	1	94
485.783	1	90
485.953	1	91
486.124	1	82
486.294	1	88
486.464	1	90
486.635	1	81
486.805	1	103
486.975	1	89
487.146	1	83
487.316	1	84
487.486	1	80
487.656	1	81
487.827	1	75
487.997	1	91
488.167	1	79
488.338	1	84
488.508	1	87
488.678	1	91
488.848	1	78
489.019	1	85
489.189	1	93
489.359	1	76
489.529	1	88
489.700	1	81
489.870	1	84
490.040	1	73
490.211	1	75
490.381	1	76
490.551	1	75
490.721	1	77
490.892	1	67
491.062	1	76
491.232	1	76
491.402	1	73
491.573	1	79
491.743	1	77
491.913	1	84
492.084	1	84
492.254	1	77
492.424	1	78
492.594	1	74
492.765	1	88
492.935	1	90
493.105	1	74
493.275	1	76
493.446	1	74
493.616	1	70
493.786	1	79
493.956	1	71
494.127	1	66
494.297	1	65
494.467	1	68
494.637	1	64
494.808	1	82
494.978	1	72
495.148	1	72
495.318	1	73
495.489	1	77
495.659	1	72
495.829	1	73
495.999	1	82
496.170	1	72
496.340	1	67
496.510	1	71
496.680	1	74
496.851	1	82
497.021	1	69
497.191	1	77
497.361	1	68
497.532	1	62
497.702	1	73
497.872	1	68
498.042	1	63
498.213	1	52
498.383	1	66
498.553	1	67
498.723	1	73
498.894	1	72
499.064	1	72
499.234	1	73
499.404	1	77
499.574	1	65
499.745	1	56
499.915	1	77
500.085	1	54
500.255	1	59
500.426	1	64
500.596	1	65
500.766	1	64
500.936	1	57
501.106	1	61
501.277	1	59
501.447	1	73
501.617	1	63
501.787	1	58
501.958	1	57
502.128	1	59
502.298	1	65
502.468	1	65
502.638	1	63
502.809	1	60
502.979	1	58
503.149	1	58
503.319	1	66
503.489	1	46
503.660	1	61
503.830	1	68
504.000	1	63
504.170	1	60
504.340	1	51
504.511	1	45
504.681	1	62
504.851	1	57
505.021	1	63
505.192	1	55
505.362	1	48
505.532	1	53
505.702	1	70
505.872	1	62
506.043	1	74
506.213	1	69
506.383	1	55
506.553	1	57
506.723	1	48
506.893	1	59
507.064	1	67
507.234	1	63
507.404	1	50
507.574	1	48
507.744	1	55
507.915	1	54
508.085	1	57
508.255	1	57
508.425	1	53
508.595	1	57
508.766	1	55
508.936	1	58
509.106	1	66
509.276	1	57
509.446	1	52
509.616	1	64
509.787	1	47
509.957	1	56
510.127	1	51
510.297	1	61
510.467	1	57
510.638	1	61
510.808	1	70
510.978	1	49
511.148	1	50
511.318	1	54
511.488	1	63
511.659	1	54
511.829	1	52
511.999	1	60
512.169	1	50
512.339	1	57
512.509	1	40
512.680	1	56
512.850	1	53
513.020	1	61
513.190	1	50
513.360	1	54
513.530	1	53
513.700	1	49
513.871	1	53
514.041	1	48
514.211	1	55
514.381	1	48
514.551	1	49
514.721	1	59
514.892	1	60
515.062	1	50
515.232	1	57
515.402	1	50
515.572	1	52
515.742	1	53
515.912	1	44
516.083	1	58
516.253	1	55
516.423	1	47
516.593	1	44
516.763	1	57
516.933	1	49
517.104	1	63
517.274	1	38
517.444	1	57
517.614	1	43
517.784	1	50
517.954	1	39
518.124	1	49
518.294	1	50
518.465	1	46
518.635	1	55
518.805	1	53
518.975	1	49
519.145	1	42
519.315	1	44
519.485	1	40
519.656	1	43
519.826	1	34
519.996	1	45
520.166	1	37
520.336	1	45
520.506	1	48
520.676	1	49
520.846	1	47
521.017	1	40
521.187	1	51
521.357	1	35
521.527	1	40
521.697	1	40
521.867	1	44
522.037	1	32
522.207	1	51
522.377	1	44
522.548	1	44
522.718	1	40
522.888	1	35
523.058	1	42
523.228	1	40
523.398	1	41
523.568	1	40
523.738	1	36
523.909	1	39
524.079	1	35
524.249	1	43
524.419	1	45
524.589	1	38
524.759	1	46
524.929	1	30
525.099	1	36
525.269	1	41
525.439	1	39
525.610	1	40
525.780	1	43
525.950	1	46
526.120	1	32
526.290	1	36
526.460	1	42
526.630	1	38
526.800	1	38
526.970	1	40
527.140	1	37
527.311	1	37
527.481	1	42
527.651	1	47
527.821	1	36
527.991	1	30
528.161	1	43
528.331	1	23
528.501	1	37
528.671	1	40
528.841	1	34
529.011	1	34
529.181	1	41
529.352	1	40
529.522	1	36
529.692	1	51
529.862	1	32
530.032	1	36
530.202	1	38
530.372	1	40
530.542	1	37
530.712	1	30
530.882	1	42
531.052	1	34
531.222	1	42
531.392	1	37
531.563	1	42
531.733	1	34
531.903	1	29
532.073	1	39
532.243	1	43
532.413	1	49
532.583	1	50
532.753	1	37
532.923	1	36
533.093	1	30
533.263	1	42
533.433	1	39
533.603	1	33
533.773	1	29
533.943	1	33
534.113	1	32
534.284	1	30
534.454	1	33
534.624	1	38
534.794	1	32
534.964	1	40
535.134	1	26
535.304	1	42
535.474	1	32
535.644	1	35
535.814	1	37
535.984	1	37
536.154	1	36
536.324	1	38
536.494	1	45
536.664	1	39
536.834	1	40
537.004	1	31
537.174	1	46
537.344	1	40
537.514	1	31
537.685	1	36
537.855	1	33
538.025	1	40
538.195	1	18
538.365	1	38
538.535	1	32
538.705	1	36
538.875	1	37
539.045	1	42
539.215	1	24
539.385	1	29
539.555	1	33
539.725	1	37
539.895	1	36
540.065	1	27
540.235	1	27
540.405	1	33
540.575	1	42
540.745	1	36
540.915	1	31
541.085	1	34
541.255	1	30
541.425	1	29
541.595	1	28
541.765	1	40
541.935	1	30
542.105	1	32
542.275	1	30
542.445	1	28
542.615	1	43
542.785	1	36
542.955	1	37
543.125	1	25
543.295	1	24
543.465	1	38
543.635	1	22
543.805	1	26
543.975	1	33
544.145	1	31
544.315	1	16
544.485	1	34
544.655	1	33
544.825	1	25
544.995	1	30
545.165	1	23
545.335	1	31
545.505	1	36
545.675	1	29
545.845	1	32
546.015	1	27
546.185	1	33
546.355	1	29
546.525	1	35
546.695	1	21
546.865	1	27
547.035	1	30
547.205	1	46
547.375	1	35
547.545	1	33
547.715	1	29
547.885	1	27
548.055	1	22
548.225	1	28
548.395	1	27
548.565	1	35
548.735	1	14
548.905	1	41
549.075	1	28
549.245	1	32
549.415	1	25
549.585	1	33
549.755	1	32
549.925	1	20
550.095	1	27
550.265	1	25
550.435	1	19
550.605	1	37
550.775	1	22
550.945	1	28
551.115	1	37
551.285	1	24
551.455	1	39
551.625	1	32
551.795	1	34
551.965	1	22
552.135	1	25
552.305	1	29
552.475	1	32
552.645	1	22
552.815	1	25
552.985	1	27
553.155	1	20
553.325	1	27
553.495	1	30
553.665	1	16
553.835	1	21
554.004	1	28
554.174	1	21
554.344	1	31
554.514	1	22
554.684	1	34
554.854	1	17
555.024	1	30
555.194	1	33
555.364	1	18
555.534	1	21
555.704	1	28
555.874	1	23
556.044	1	38
556.214	1	29
556.384	1	24
556.554	1	23
556.724	1	30
556.894	1	16
557.064	1	26
557.234	1	23
557.404	1	21
557.573	1	23
557.743	1	23
557.913	1	10
558.083	1	17
558.253	1	21
558.423	1	23
558.593	1	28
558.763	1	16
558.933	1	13
559.103	1	19
559.273	1	22
559.443	1	29
559.613	1	17
559.783	1	16
559.953	1	11
560.122	1	20
560.292	1	5
560.462	1	19
560.632	1	12
560.802	1	21
560.972	1	11
561.142	1	32
561.312	1	11
561.482	1	31
561.652	1	17
561.822	1	19
561.992	1	26
562.162	1	16
562.331	1	11
562.501	1	19
562.671	1	17
562.841	1	14
563.011	1	16
563.181	1	4
563.351	1	24
563.521	1	12
563.691	1	22
563.861	1	21
564.031	1	16
564.201	1	21
564.370	1	21
564.540	1	9
564.710	1	9
564.880	1	23
565.050	1	30
565.220	1	24
565.390	1	9
565.560	1	27
565.730	1	25
565.900	1	20
566.069	1	25
566.239	1	24
566.409	1	22
566.579	1	13
566.749	1	20
566.919	1	6
567.089	1	7
567.259	1	21
567.429	1	19
567.599	1	28
567.768	1	16
567.938	1	20
568.108	1	21
568.278	1	19
568.448	1	24
568.618	1	13
568.788	1	20
568.958	1	24
569.128	1	10
569.297	1	17
569.467	1	24
569.637	1	18
569.807	1	25
569.977	1	16
570.147	1	15
570.317	1	16
570.487	1	12
570.656	1	20
570.826	1	13
570.996	1	23
571.166	1	16
571.336	1	19
571.506	1	12
571.676	1	23
571.846	1	18
572.015	1	15
572.185	1	10
572.355	1	16
572.525	1	8
572.695	1	9
572.865	1	18
573.035	1	23
573.205	1	16
573.374	1	6
573.544	1	15
573.714	1	16
573.884	1	14
574.054	1	5
574.224	1	17
574.394	1	15
574.563	1	18
574.733	1	19
574.903	1	17
575.073	1	22
575.243	1	21
575.413	1	20
575.583	1	19
575.752	1	15
575.922	1	19
576.092	1	13
576.262	1	16
576.432	1	14
576.602	1	18
576.772	1	18
576.941	1	18
577.111	1	22
577.281	1	17
577.451	1	26
577.621	1	19
577.791	1	19
577.960	1	11
578.130	1	18
578.300	1	8
578.470	1	11
578.640	1	18
578.810	1	11
578.979	1	22
579.149	1	12
579.319	1	13
579.489	1	18
579.659	1	19
579.829	1	15
579.998	1	-4
580.168	1	13
580.338	1	19
580.508	1	13
580.678	1	19
580.848	1	20
581.017	1	27
581.187	1	18
581.357	1	5
581.527	1	23
581.697	1	17
581.867	1	8
582.036	1	15
582.206	1	21
582.376	1	22
582.546	1	7
582.716	1	23
582.885	1	6
583.055	1	8
583.225	1	12
583.395	1	19
583.565	1	22
583.735	1	16
583.904	1	9
584.074	1	17
584.244	1	17
584.414	1	15
584.584	1	18
584.753	1	13
584.923	1	13
585.093	1	21
585.263	1	19
585.433	1	12
585.602	1	18
585.772	1	21
585.942	1	4
586.112	1	14
586.282	1	15
586.451	1	25
586.621	1	13
586.791	1	6
586.961	1	15
587.131	1	12
587.300	1	22
587.470	1	8
587.640	1	18
587.810	1	1
587.980	1	13
588.149	1	23
588.319	1	27
588.489	1	15
588.659	1	14
588.829	1	8
588.998	1	14
589.168	1	5
589.338	1	20
589.508	1	15
589.677	1	24
589.847	1	10
590.017	1	18
590.187	1	18
590.357	1	1
590.526	1	8
590.696	1	19
590.866	1	18
591.036	1	23
591.205	1	24
591.375	1	11
591.545	1	11
591.715	1	13
591.885	1	24
592.054	1	15
592.224	1	7
592.394	1	2
592.564	1	16
592.733	1	30
592.903	1	20
593.073	1	9
593.243	1	23
593.412	1	2
593.582	1	14
593.752	1	8
593.922	1	21
594.091	1	21
594.261	1	7
594.431	1	20
594.601	1	11
594.771	1	22
594.940	1	8
595.110	1	16
595.280	1	11
595.450	1	11
595.619	1	17
595.789	1	17
595.959	1	16
596.129	1	24
596.298	1	20
596.468	1	10
596.638	1	24
596.808	1	8
596.977	1	19
597.147	1	21
597.317	1	14
597.487	1	12
597.656	1	16
597.826	1	12
597.996	1	9
598.166	1	16
598.335	1	11
598.505	1	22
598.675	1	22
598.844	1	24
599.014	1	8
599.184	1	17
599.354	1	25
599.523	1	13
599.693	1	17
599.863	1	26
600.033	1	21
600.202	1	19
600.372	1	6
600.542	1	19
600.712	1	13
600.881	1	17
601.051	1	16
601.221	1	15
601.390	1	16
601.560	1	24
601.730	1	16
601.900	1	20
602.069	1	17
602.239	1	18
602.409	1	18
602.578	1	20
602.748	1	27
602.918	1	13
603.088	1	21
603.257	1	7
603.427	1	28
603.597	1	16
603.767	1	12
603.936	1	25
604.106	1	19
604.276	1	15
604.445	1	9
604.615	1	5
604.785	1	21
604.954	1	20
605.124	1	13
605.294	1	8
605.464	1	12
605.633	1	17
605.803	1	19
605.973	1	19
606.142	1	29
606.312	1	32
606.482	1	4
606.652	1	21
606.821	1	19
606.991	1	25
607.161	1	17
607.330	1	6
607.500	1	18
607.670	1	20
607.839	1	9
608.009	1	19
608.179	1	15
608.348	1	33
608.518	1	24
608.688	1	21
608.858	1	6
609.027	1	16
609.197	1	23
609.367	1	18
609.536	1	6
609.706	1	25
609.876	1	25
610.045	1	21
610.215	1	8
610.385	1	23
610.554	1	15
610.724	1	13
610.894	1	18
611.063	1	25
611.233	1	26
611.403	1	32
611.572	1	29
611.742	1	7
611.912	1	22
612.081	1	39
612.251	1	25
612.421	1	13
612.590	1	29
612.760	1	25
612.930	1	23
613.099	1	30
613.269	1	14
613.439	1	4
613.608	1	28
613.778	1	14
613.948	1	32
614.117	1	25
614.287	1	11
614.457	1	8
614.626	1	25
614.796	1	18
614.966	1	19
615.135	1	38
615.305	1	19
615.475	1	20
615.644	1	31
615.814	1	31
615.984	1	12
616.153	1	12
616.323	1	15
616.493	1	19
616.662	1	14
616.832	1	23
617.002	1	32
617.171	1	27
617.341	1	19
617.511	1	27
617.680	1	27
617.850	1	20
618.019	1	18
618.189	1	41
618.359	1	24
618.528	1	14
618.698	1	31
618.868	1	8
619.037	1	24
619.207	1	33
619.377	1	30
619.546	1	15
619.716	1	31
619.885	1	29
620.055	1	7
620.225	1	31
620.394	1	35
620.564	1	27
620.734	1	24
620.903	1	14
621.073	1	38
621.242	1	26
621.412	1	21
621.582	1	28
621.751	1	22
621.921	1	27
622.091	1	16
622.260	1	35
622.430	1	40
622.599	1	22
622.769	1	24
622.939	1	27
623.108	1	24
623.278	1	30
623.448	1	21
623.617	1	27
623.787	1	30
623.956	1	22
624.126	1	28
624.296	1	24
624.465	1	29
624.635	1	37
624.804	1	22
624.974	1	14
625.144	1	20
625.313	1	38
625.483	1	25
625.652	1	18
625.822	1	40
625.992	1	18
626.161	1	26
626.331	1	28
626.501	1	22
626.670	1	25
626.840	1	33
627.009	1	28
627.179	1	29
627.348	1	28
627.518	1	40
627.688	1	22
627.857	1	33
628.027	1	25
628.196	1	31
628.366	1	17
628.536	1	19
628.705	1	19
628.875	1	21
629.044	1	10
629.214	1	33
629.384	1	36
629.553	1	27
629.723	1	28
629.892	1	32
630.062	1	24
630.232	1	38
630.401	1	24
630.571	1	13
630.740	1	26
630.910	1	34
631.079	1	20
631.249	1	31
631.419	1	33
631.588	1	22
631.758	1	26
631.927	1	35
632.097	1	21
632.266	1	43
632.436	1	27
632.606	1	29
632.775	1	32
632.945	1	28
633.114	1	22
633.284	1	24
633.453	1	31
633.623	1	40
633.793	1	35
633.962	1	28
634.132	1	26
634.301	1	44
634.471	1	40
634.640	1	35
634.810	1	26
634.979	1	29
635.149	1	35
635.319	1	13
635.488	1	41
635.658	1	23
635.827	1	29
635.997	1	38
636.166	1	26
636.336	1	29
636.505	1	34
636.675	1	29
636.845	1	29
637.014	1	23
637.184	1	42
637.353	1	32
637.523	1	34
637.692	1	30
637.862	1	20
638.031	1	34
638.201	1	34
638.370	1	36
638.540	1	19
638.710	1	22
638.879	1	21
639.049	1	40
639.218	1	33
639.388	1	41
639.557	1	34
639.727	1	37
639.896	1	30
640.066	1	26
640.235	1	29
640.405	1	33
640.574	1	34
640.744	1	32
640.914	1	34
641.083	1	39
641.253	1	33
641.422	1	13
641.592	1	41
641.761	1	21
641.931	1	37
642.100	1	27
642.270	1	31
642.439	1	33
642.609	1	39
642.778	1	29
642.948	1	50
643.117	1	29
643.287	1	28
643.456	1	31
643.626	1	32
643.795	1	37
643.965	1	27
644.134	1	32
644.304	1	34
644.473	1	36
644.643	1	44
644.812	1	29
644.982	1	40
645.151	1	34
645.321	1	45
645.490	1	42
645.660	1	24
645.829	1	39
645.999	1	37
646.168	1	43
646.338	1	31
646.507	1	31
646.677	1	34
646.846	1	38
647.016	1	37
647.185	1	45
647.355	1	44
647.524	1	30
647.694	1	34
647.863	1	34
648.033	1	43
648.202	1	40
648.372	1	24
648.541	1	46
648.711	1	42
648.880	1	40
649.050	1	39
649.219	1	28
649.389	1	31
649.558	1	39
649.728	1	39
649.897	1	36
650.067	1	35
650.236	1	25
650.406	1	42
650.575	1	33
650.745	1	32
650.914	1	44
651.084	1	35
651.253	1	31
651.423	1	32
651.592	1	38
651.762	1	33
651.931	1	43
652.101	1	31
652.270	1	37
652.440	1	43
652.609	1	39
652.778	1	36
652.948	1	41
653.117	1	21
653.287	1	38
653.456	1	35
653.626	1	34
653.795	1	39
653.965	1	31
654.134	1	31
654.304	1	44
654.473	1	39
654.643	1	30
654.812	1	40
654.982	1	40
655.151	1	45
655.320	1	35
655.490	1	32
655.659	1	34
655.829	1	35
655.998	1	37
656.168	1	31
656.337	1	38
656.507	1	27
656.676	1	29
656.846	1	31
657.015	1	45
657.184	1	37
657.354	1	40
657.523	1	29
657.693	1	38
657.862	1	27
658.032	1	28
658.201	1	32
658.371	1	44
658.540	1	31
658.709	1	43
658.879	1	45
659.048	1	44
659.218	1	29
659.387	1	43
659.557	1	31
659.726	1	38
659.895	1	38
660.065	1	40
660.234	1	38
660.404	1	43
660.573	1	33
660.743	1	38
660.912	1	42
661.081	1	33
661.251	1	38
661.420	1	51
661.590	1	33
661.759	1	45
661.929	1	32
662.098	1	46
662.267	1	39
662.437	1	41
662.606	1	38
662.776	1	39
662.945	1	37
663.115	1	54
663.284	1	38
663.453	1	38
663.623	1	39
663.792	1	44
663.962	1	53
664.131	1	40
664.300	1	31
664.470	1	40
664.639	1	46
664.809	1	44
664.978	1	57
665.148	1	44
665.317	1	40
665.486	1	45
665.656	1	44
665.825	1	37
665.995	1	23
666.164	1	47
666.333	1	34
666.503	1	38
666.672	1	46
666.842	1	49
667.011	1	42
667.180	1	38
667.350	1	39
667.519	1	41
667.689	1	53
667.858	1	36
668.027	1	39
668.197	1	31
668.366	1	45
668.536	1	35
668.705	1	49
668.874	1	64
669.044	1	41
669.213	1	44
669.382	1	51
669.552	1	39
669.721	1	34
669.891	1	44
670.060	1	36
670.229	1	48
670.399	1	47
670.568	1	47
670.738	1	49
670.907	1	47
671.076	1	45
671.246	1	46
671.415	1	43
671.584	1	51
671.754	1	38
671.923	1	38
672.093	1	52
672.262	1	43
672.431	1	42
672.601	1	54
672.770	1	35
672.939	1	52
673.109	1	27
673.278	1	46
673.448	1	43
673.617	1	45
673.786	1	36
