325.333	1	11
325.504	1	-2
325.675	1	8
325.846	1	-4
326.017	1	8
326.188	1	-2
326.359	1	10
326.531	1	-14
326.702	1	6
326.873	1	9
327.044	1	15
327.215	1	1
327.386	1	2
327.557	1	-1
327.728	1	2
327.899	1	3
328.070	1	14
328.241	1	0
328.412	1	9
328.583	1	2
328.754	1	17
328.926	1	8
329.097	1	1
329.268	1	21
329.439	1	3
329.610	1	7
329.781	1	9
329.952	1	8
330.123	1	7
330.294	1	7
330.465	1	6
330.636	1	6
330.807	1	2
330.978	1	-3
331.149	1	5
331.320	1	3
331.492	1	3
331.663	1	3
331.834	1	10
332.005	1	12
332.176	1	6
332.347	1	2
332.518	1	9
332.689	1	6
332.860	1	7
333.031	1	12
333.202	1	3
333.373	1	11
333.544	1	3
333.715	1	1
333.886	1	2
334.057	1	3
334.228	1	7
334.399	1	13
334.570	1	5
334.741	1	-2
334.912	1	11
335.084	1	14
335.255	1	14
335.426	1	10
335.597	1	4
335.768	1	13
335.939	1	13
336.110	1	8
336.281	1	5
336.452	1	20
336.623	1	11
336.794	1	5
336.965	1	5
337.136	1	12
337.307	1	3
337.478	1	14
337.649	1	6
337.820	1	13
337.991	1	11
338.162	1	0
338.333	1	7
338.504	1	7
338.675	1	10
338.846	1	0
339.017	1	6
339.188	1	8
339.359	1	7
339.530	1	2
339.701	1	13
339.872	1	14
340.043	1	5
340.214	1	11
340.385	1	-1
340.556	1	17
340.727	1	13
340.898	1	13
341.069	1	0
341.240	1	6
341.411	1	11
341.582	1	1
341.753	1	7
341.924	1	18
342.095	1	6
342.266	1	23
342.437	1	5
342.608	1	16
342.779	1	18
342.950	1	12
343.121	1	5
343.292	1	8
343.463	1	28
343.634	1	16
343.805	1	14
343.976	1	18
344.147	1	17
344.318	1	8
344.489	1	6
344.660	1	19
344.831	1	16
345.002	1	14
345.173	1	10
345.344	1	6
345.515	1	13
345.686	1	14
345.857	1	21
346.028	1	17
346.199	1	22
346.370	1	6
346.541	1	5
346.712	1	6
346.883	1	2
347.054	1	17
347.225	1	14
347.396	1	12
347.567	1	11
347.738	1	17
347.909	1	17
348.080	1	12
348.251	1	9
348.422	1	17
348.593	1	8
348.764	1	12
348.935	1	15
349.106	1	16
349.277	1	3
349.448	1	13
349.619	1	10
349.790	1	11
349.961	1	1
350.132	1	14
350.303	1	10
350.474	1	16
350.645	1	18
350.816	1	2
350.987	1	28
351.157	1	9
351.328	1	12
351.499	1	12
351.670	1	12
351.841	1	13
352.012	1	21
352.183	1	19
352.354	1	10
352.525	1	11
352.696	1	11
352.867	1	17
353.038	1	13
353.209	1	25
353.380	1	17
353.551	1	13
353.722	1	16
353.893	1	19
354.064	1	18
354.235	1	6
354.406	1	9
354.576	1	12
354.747	1	22
354.918	1	7
355.089	1	24
355.260	1	10
355.431	1	5
355.602	1	20
355.773	1	12
355.944	1	20
356.115	1	23
356.286	1	19
356.457	1	27
356.628	1	14
356.799	1	15
356.970	1	30
357.141	1	24
357.311	1	21
357.482	1	13
357.653	1	14
357.824	1	28
357.995	1	34
358.166	1	16
358.337	1	18
358.508	1	31
358.679	1	5
358.850	1	15
359.021	1	28
359.192	1	12
359.363	1	21
359.533	1	18
359.704	1	12
359.875	1	7
360.046	1	20
360.217	1	23
360.388	1	26
360.559	1	20
360.730	1	12
360.901	1	19
361.072	1	22
361.243	1	17
361.414	1	28
361.584	1	11
361.755	1	16
361.926	1	17
362.097	1	18
362.268	1	21
362.439	1	13
362.610	1	23
362.781	1	10
362.952	1	19
363.123	1	16
363.293	1	18
363.464	1	14
363.635	1	32
363.806	1	16
363.977	1	25
364.148	1	18
364.319	1	7
364.490	1	35
364.661	1	16
364.832	1	19
365.002	1	27
365.173	1	17
365.344	1	17
365.515	1	15
365.686	1	17
365.857	1	29
366.028	1	26
366.199	1	21
366.370	1	20
366.540	1	17
366.711	1	22
366.882	1	13
367.053	1	17
367.224	1	17
367.395	1	24
367.566	1	21
367.737	1	12
367.908	1	12
368.078	1	19
368.249	1	18
368.420	1	25
368.591	1	31
368.762	1	14
368.933	1	23
369.104	1	24
369.274	1	26
369.445	1	34
369.616	1	10
369.787	1	11
369.958	1	21
370.129	1	24
370.300	1	16
370.471	1	13
370.641	1	20
370.812	1	21
370.983	1	19
371.154	1	14
371.325	1	16
371.496	1	28
371.667	1	32
371.837	1	18
372.008	1	21
372.179	1	28
372.350	1	13
372.521	1	31
372.692	1	28
372.863	1	20
373.033	1	30
373.204	1	18
373.375	1	18
373.546	1	29
373.717	1	9
373.888	1	23
374.059	1	26
374.229	1	22
374.400	1	25
374.571	1	29
374.742	1	15
374.913	1	12
375.084	1	23
375.254	1	16
375.425	1	11
375.596	1	29
375.767	1	29
375.938	1	9
376.109	1	19
376.279	1	26
376.450	1	23
376.621	1	23
376.792	1	35
376.963	1	22
377.134	1	23
377.304	1	36
377.475	1	19
377.646	1	17
377.817	1	25
377.988	1	28
378.159	1	33
378.329	1	11
378.500	1	31
378.671	1	27
378.842	1	25
379.013	1	22
379.184	1	24
379.354	1	34
379.525	1	31
379.696	1	31
379.867	1	35
380.038	1	18
380.209	1	31
380.379	1	33
380.550	1	0
380.721	1	26
380.892	1	18
381.063	1	23
381.233	1	29
381.404	1	17
381.575	1	12
381.746	1	33
381.917	1	21
382.087	1	24
382.258	1	25
382.429	1	18
382.600	1	25
382.771	1	19
382.941	1	29
383.112	1	27
383.283	1	30
383.454	1	9
383.625	1	26
383.795	1	27
383.966	1	26
384.137	1	39
384.308	1	24
384.479	1	21
384.649	1	17
384.820	1	29
384.991	1	18
385.162	1	36
385.333	1	31
385.503	1	24
385.674	1	25
385.845	1	32
386.016	1	37
386.187	1	18
386.357	1	30
386.528	1	28
386.699	1	25
386.870	1	27
387.041	1	38
387.211	1	28
387.382	1	39
387.553	1	34
387.724	1	29
387.894	1	20
388.065	1	22
388.236	1	27
388.407	1	33
388.578	1	26
388.748	1	39
388.919	1	39
389.090	1	44
389.261	1	28
389.431	1	27
389.602	1	22
389.773	1	37
389.944	1	38
390.114	1	38
390.285	1	40
390.456	1	22
390.627	1	19
390.798	1	34
390.968	1	32
391.139	1	25
391.310	1	28
391.481	1	24
391.651	1	23
391.822	1	40
391.993	1	32
392.164	1	28
392.334	1	20
392.505	1	34
392.676	1	21
392.847	1	32
393.017	1	27
393.188	1	43
393.359	1	35
393.530	1	41
393.700	1	37
393.871	1	35
394.042	1	23
394.213	1	34
394.383	1	24
394.554	1	24
394.725	1	21
394.896	1	29
395.066	1	41
395.237	1	33
395.408	1	24
395.579	1	40
395.749	1	47
395.920	1	36
396.091	1	29
396.262	1	34
396.432	1	19
396.603	1	29
396.774	1	30
396.945	1	43
397.115	1	38
397.286	1	41
397.457	1	34
397.627	1	25
397.798	1	27
397.969	1	36
398.140	1	32
398.310	1	27
398.481	1	29
398.652	1	32
398.823	1	37
398.993	1	26
399.164	1	28
399.335	1	39
399.505	1	19
399.676	1	36
399.847	1	27
400.018	1	24
400.188	1	36
400.359	1	42
400.530	1	28
400.700	1	36
400.871	1	32
401.042	1	37
401.213	1	32
401.383	1	28
401.554	1	33
401.725	1	30
401.895	1	32
402.066	1	35
402.237	1	26
402.408	1	36
402.578	1	43
402.749	1	30
402.920	1	37
403.090	1	26
403.261	1	23
403.432	1	36
403.603	1	37
403.773	1	44
403.944	1	34
404.115	1	34
404.285	1	35
404.456	1	37
404.627	1	35
404.797	1	37
404.968	1	35
405.139	1	38
405.310	1	32
405.480	1	27
405.651	1	33
405.822	1	35
405.992	1	46
406.163	1	25
406.334	1	30
406.504	1	37
406.675	1	38
406.846	1	36
407.016	1	34
407.187	1	38
407.358	1	24
407.528	1	34
407.699	1	40
407.870	1	44
408.041	1	30
408.211	1	35
408.382	1	45
408.553	1	43
408.723	1	34
408.894	1	32
409.065	1	39
409.235	1	31
409.406	1	27
409.577	1	32
409.747	1	37
409.918	1	42
410.089	1	46
410.259	1	35
410.430	1	41
410.601	1	34
410.771	1	39
410.942	1	32
411.113	1	32
411.283	1	33
411.454	1	53
411.625	1	48
411.795	1	32
411.966	1	31
412.137	1	44
412.307	1	31
412.478	1	34
412.649	1	34
412.819	1	38
412.990	1	41
413.161	1	24
413.331	1	46
413.502	1	34
413.672	1	36
413.843	1	31
414.014	1	30
414.184	1	43
414.355	1	40
414.526	1	26
414.696	1	33
414.867	1	28
415.038	1	32
415.208	1	32
415.379	1	33
415.550	1	34
415.720	1	26
415.891	1	42
416.062	1	36
416.232	1	45
416.403	1	39
416.573	1	32
416.744	1	39
416.915	1	27
417.085	1	40
417.256	1	37
417.427	1	33
417.597	1	18
417.768	1	44
417.939	1	20
418.109	1	29
418.280	1	42
418.450	1	42
418.621	1	30
418.792	1	31
418.962	1	43
419.133	1	27
419.304	1	33
419.474	1	33
419.645	1	39
419.815	1	35
419.986	1	48
420.157	1	37
420.327	1	34
420.498	1	26
420.669	1	48
420.839	1	42
421.010	1	26
421.180	1	40
421.351	1	31
421.522	1	36
421.692	1	43
421.863	1	46
422.033	1	38
422.204	1	40
422.375	1	41
422.545	1	35
422.716	1	24
422.886	1	40
423.057	1	34
423.228	1	30
423.398	1	38
423.569	1	35
423.740	1	32
423.910	1	32
424.081	1	32
424.251	1	37
424.422	1	36
424.593	1	43
424.763	1	37
424.934	1	46
425.104	1	47
425.275	1	34
425.445	1	34
425.616	1	13
425.787	1	29
425.957	1	33
426.128	1	27
426.298	1	35
426.469	1	33
426.640	1	31
426.810	1	18
426.981	1	43
427.151	1	27
427.322	1	28
427.493	1	20
427.663	1	27
427.834	1	25
428.004	1	26
428.175	1	39
428.345	1	21
428.516	1	38
428.687	1	41
428.857	1	39
429.028	1	26
429.198	1	27
429.369	1	26
429.540	1	51
429.710	1	37
429.881	1	34
430.051	1	34
430.222	1	35
430.392	1	33
430.563	1	24
430.734	1	31
430.904	1	29
431.075	1	33
431.245	1	27
431.416	1	36
431.586	1	33
431.757	1	36
431.927	1	42
432.098	1	36
432.269	1	33
432.439	1	29
432.610	1	42
432.780	1	31
432.951	1	26
433.121	1	32
433.292	1	30
433.462	1	26
433.633	1	31
433.804	1	43
433.974	1	37
434.145	1	33
434.315	1	28
434.486	1	27
434.656	1	35
434.827	1	39
434.997	1	35
435.168	1	39
435.339	1	41
435.509	1	39
435.680	1	27
435.850	1	26
436.021	1	33
436.191	1	34
436.362	1	25
436.532	1	36
436.703	1	24
436.873	1	28
437.044	1	35
437.214	1	19
437.385	1	32
437.556	1	42
437.726	1	37
437.897	1	20
438.067	1	27
438.238	1	37
438.408	1	20
438.579	1	22
438.749	1	26
438.920	1	31
439.090	1	29
439.261	1	43
439.431	1	9
439.602	1	37
439.772	1	29
439.943	1	23
440.113	1	26
440.284	1	41
440.455	1	32
440.625	1	32
440.796	1	34
440.966	1	28
441.137	1	33
441.307	1	32
441.478	1	26
441.648	1	33
441.819	1	27
441.989	1	46
442.160	1	29
442.330	1	27
442.501	1	30
442.671	1	26
442.842	1	34
443.012	1	25
443.183	1	29
443.353	1	22
443.524	1	26
443.694	1	32
443.865	1	28
444.035	1	29
444.206	1	21
444.376	1	26
444.547	1	27
444.717	1	24
444.888	1	20
445.058	1	23
445.229	1	30
445.399	1	26
445.570	1	26
445.740	1	34
445.911	1	34
446.081	1	28
446.252	1	26
446.422	1	35
446.593	1	32
446.763	1	28
446.934	1	25
447.104	1	38
447.275	1	29
447.445	1	32
447.616	1	32
447.786	1	29
447.957	1	30
448.127	1	20
448.298	1	30
448.468	1	33
448.639	1	16
448.809	1	17
448.979	1	38
449.150	1	20
449.320	1	21
449.491	1	24
449.661	1	31
449.832	1	20
450.002	1	29
450.173	1	25
450.343	1	11
450.514	1	29
450.684	1	27
450.855	1	30
451.025	1	30
451.196	1	16
451.366	1	43
451.537	1	30
451.707	1	29
451.878	1	13
452.048	1	17
452.218	1	31
452.389	1	18
452.559	1	40
452.730	1	33
452.900	1	20
453.071	1	24
453.241	1	28
453.412	1	26
453.582	1	22
453.753	1	28
453.923	1	28
454.093	1	25
454.264	1	44
454.434	1	32
454.605	1	28
454.775	1	32
454.946	1	19
455.116	1	32
455.287	1	22
455.457	1	25
455.628	1	9
455.798	1	26
455.968	1	20
456.139	1	20
456.309	1	19
456.480	1	32
456.650	1	21
456.821	1	18
456.991	1	18
457.161	1	31
457.332	1	18
457.502	1	22
457.673	1	26
457.843	1	22
458.014	1	31
458.184	1	28
458.355	1	13
458.525	1	25
458.695	1	16
458.866	1	17
459.036	1	24
459.207	1	19
459.377	1	33
459.548	1	25
459.718	1	15
459.888	1	20
460.059	1	26
460.229	1	9
460.400	1	22
460.570	1	14
460.740	1	18
460.911	1	17
461.081	1	16
461.252	1	22
461.422	1	19
461.593	1	22
461.763	1	28
461.933	1	23
462.104	1	13
462.274	1	13
462.445	1	28
462.615	1	25
462.785	1	22
462.956	1	13
463.126	1	27
463.297	1	11
463.467	1	27
463.638	1	29
463.808	1	28
463.978	1	13
464.149	1	17
464.319	1	23
464.490	1	17
464.660	1	27
464.830	1	13
465.001	1	22
465.171	1	5
465.342	1	6
465.512	1	26
465.682	1	10
465.853	1	11
466.023	1	23
466.194	1	29
466.364	1	28
466.534	1	10
466.705	1	37
466.875	1	3
467.045	1	9
467.216	1	21
467.386	1	10
467.557	1	27
467.727	1	13
467.897	1	13
468.068	1	15
468.238	1	14
468.409	1	17
468.579	1	19
468.749	1	18
468.920	1	5
469.090	1	21
469.260	1	13
469.431	1	17
469.601	1	21
469.772	1	24
469.942	1	16
470.112	1	13
470.283	1	13
470.453	1	29
470.623	1	20
470.794	1	22
470.964	1	15
471.135	1	24
471.305	1	20
471.475	1	13
471.646	1	26
471.816	1	14
471.986	1	14
472.157	1	15
472.327	1	24
472.497	1	20
472.668	1	18
472.838	1	6
473.009	1	12
473.179	1	8
473.349	1	12
473.520	1	19
473.690	1	15
473.860	1	6
474.031	1	10
474.201	1	15
474.371	1	18
474.542	1	12
474.712	1	13
474.882	1	21
475.053	1	19
475.223	1	16
475.394	1	17
475.564	1	10
475.734	1	12
475.905	1	24
476.075	1	22
476.245	1	18
476.416	1	2
476.586	1	11
476.756	1	24
476.927	1	6
477.097	1	15
477.267	1	13
477.438	1	22
477.608	1	25
477.778	1	3
477.949	1	13
478.119	1	13
478.289	1	10
478.460	1	11
478.630	1	12
478.800	1	5
478.971	1	12
479.141	1	12
479.311	1	13
479.482	1	16
479.652	1	16
479.822	1	10
479.993	1	14
480.163	1	14
480.333	1	18
480.504	1	11
480.674	1	22
480.844	1	12
481.015	1	24
481.185	1	19
481.355	1	10
481.525	1	8
481.696	1	11
481.866	1	24
482.036	1	22
482.207	1	20
482.377	1	11
482.547	1	12
482.718	1	22
482.888	1	19
483.058	1	13
483.229	1	14
483.399	1	23
483.569	1	9
483.740	1	13
483.910	1	12
484.080	1	18
484.250	1	11
484.421	1	3
484.591	1	10
484.761	1	13
484.932	1	10
485.102	1	18
485.272	1	8
485.443	1	8
485.613	1	8
485.783	1	8
485.953	1	12
486.124	1	13
486.294	1	13
486.464	1	14
486.635	1	11
486.805	1	19
486.975	1	9
487.146	1	11
487.316	1	15
487.486	1	19
487.656	1	15
487.827	1	4
487.997	1	10
488.167	1	17
488.338	1	10
488.508	1	13
488.678	1	8
488.848	1	11
489.019	1	10
489.189	1	15
489.359	1	6
489.529	1	15
489.700	1	15
489.870	1	13
490.040	1	5
490.211	1	5
490.381	1	4
490.551	1	15
490.721	1	11
490.892	1	0
491.062	1	7
491.232	1	15
491.402	1	13
491.573	1	17
491.743	1	7
491.913	1	10
492.084	1	17
492.254	1	7
492.424	1	8
492.594	1	10
492.765	1	11
492.935	1	17
493.105	1	12
493.275	1	9
493.446	1	4
493.616	1	-3
493.786	1	19
493.956	1	14
494.127	1	3
494.297	1	-2
494.467	1	4
494.637	1	13
494.808	1	9
494.978	1	10
495.148	1	3
495.318	1	11
495.489	1	8
495.659	1	10
495.829	1	9
495.999	1	25
496.170	1	12
496.340	1	6
496.510	1	15
496.680	1	11
496.851	1	23
497.021	1	11
497.191	1	10
497.361	1	-7
497.532	1	5
497.702	1	16
497.872	1	11
498.042	1	2
498.213	1	11
498.383	1	11
498.553	1	14
498.723	1	15
498.894	1	17
499.064	1	7
499.234	1	6
499.404	1	9
499.574	1	15
499.745	1	7
499.915	1	7
500.085	1	12
500.255	1	-8
500.426	1	5
500.596	1	3
500.766	1	2
500.936	1	2
501.106	1	4
501.277	1	7
501.447	1	8
501.617	1	12
501.787	1	5
501.958	1	10
502.128	1	12
502.298	1	7
502.468	1	5
502.638	1	11
502.809	1	10
502.979	1	13
503.149	1	3
503.319	1	10
503.489	1	-7
503.660	1	0
503.830	1	5
504.000	1	3
504.170	1	11
504.340	1	0
504.511	1	10
504.681	1	12
504.851	1	7
505.021	1	13
505.192	1	-2
505.362	1	-2
505.532	1	-2
505.702	1	15
505.872	1	8
506.043	1	17
506.213	1	15
506.383	1	6
506.553	1	7
506.723	1	-5
506.893	1	10
507.064	1	13
507.234	1	2
507.404	1	0
507.574	1	-5
507.744	1	8
507.915	1	6
508.085	1	3
508.255	1	7
508.425	1	1
508.595	1	4
508.766	1	7
508.936	1	6
509.106	1	15
509.276	1	13
509.446	1	10
509.616	1	11
509.787	1	11
509.957	1	13
510.127	1	-7
510.297	1	-3
510.467	1	7
510.638	1	9
510.808	1	15
510.978	1	-1
511.148	1	8
511.318	1	9
511.488	1	11
511.659	1	10
511.829	1	-2
511.999	1	10
512.169	1	4
512.339	1	10
512.509	1	-1
512.680	1	9
512.850	1	5
513.020	1	12
513.190	1	2
513.360	1	13
513.530	1	7
513.700	1	5
513.871	1	-2
514.041	1	4
514.211	1	5
514.381	1	10
514.551	1	5
514.721	1	3
514.892	1	6
515.062	1	14
515.232	1	3
515.402	1	5
515.572	1	9
515.742	1	8
515.912	1	12
516.083	1	6
516.253	1	17
516.423	1	6
516.593	1	6
516.763	1	13
516.933	1	6
517.104	1	9
517.274	1	1
517.444	1	7
517.614	1	4
517.784	1	5
517.954	1	4
518.124	1	4
518.294	1	10
518.465	1	4
518.635	1	10
518.805	1	9
518.975	1	3
519.145	1	9
519.315	1	4
519.485	1	7
519.656	1	8
519.826	1	-1
519.996	1	5
520.166	1	3
520.336	1	-6
520.506	1	2
520.676	1	1
520.846	1	5
521.017	1	1
521.187	1	5
521.357	1	3
521.527	1	4
521.697	1	-5
521.867	1	20
522.037	1	7
522.207	1	11
522.377	1	0
522.548	1	-8
522.718	1	-1
522.888	1	7
523.058	1	10
523.228	1	6
523.398	1	2
523.568	1	-3
523.738	1	10
523.909	1	2
524.079	1	4
524.249	1	-2
524.419	1	1
524.589	1	11
524.759	1	10
524.929	1	3
525.099	1	9
525.269	1	14
525.439	1	3
525.610	1	15
525.780	1	4
525.950	1	6
526.120	1	-1
526.290	1	-1
526.460	1	1
526.630	1	11
526.800	1	-2
526.970	1	5
527.140	1	-3
527.311	1	3
527.481	1	9
527.651	1	12
527.821	1	3
527.991	1	-5
528.161	1	14
528.331	1	-7
528.501	1	9
528.671	1	2
528.841	1	11
529.011	1	1
529.181	1	5
529.352	1	-1
529.522	1	4
529.692	1	8
529.862	1	6
530.032	1	1
530.202	1	-5
530.372	1	12
530.542	1	5
530.712	1	11
530.882	1	3
531.052	1	2
531.222	1	11
531.392	1	-3
531.563	1	2
531.733	1	6
531.903	1	7
532.073	1	2
532.243	1	18
532.413	1	18
532.583	1	2
532.753	1	1
532.923	1	15
533.093	1	-2
533.263	1	6
533.433	1	-4
533.603	1	5
533.773	1	6
533.943	1	2
534.113	1	-1
534.284	1	8
534.454	1	4
534.624	1	12
534.794	1	-1
534.964	1	0
535.134	1	-2
535.304	1	0
535.474	1	9
535.644	1	7
535.814	1	5
535.984	1	4
536.154	1	9
536.324	1	1
536.494	1	14
536.664	1	2
536.834	1	0
537.004	1	7
537.174	1	1
537.344	1	6
537.514	1	4
537.685	1	16
537.855	1	3
538.025	1	21
538.195	1	2
538.365	1	-1
538.535	1	-6
538.705	1	6
538.875	1	2
539.045	1	3
539.215	1	-10
539.385	1	4
539.555	1	3
539.725	1	9
539.895	1	7
540.065	1	7
540.235	1	6
540.405	1	0
540.575	1	2
540.745	1	2
540.915	1	3
541.085	1	-4
541.255	1	4
541.425	1	1
541.595	1	1
541.765	1	8
541.935	1	6
542.105	1	3
542.275	1	6
542.445	1	6
542.615	1	2
542.785	1	9
542.955	1	16
543.125	1	-5
543.295	1	9
543.465	1	2
543.635	1	1
543.805	1	5
543.975	1	6
544.145	1	8
544.315	1	-7
544.485	1	-1
544.655	1	6
544.825	1	9
544.995	1	2
545.165	1	8
545.335	1	1
545.505	1	2
545.675	1	11
545.845	1	9
546.015	1	-3
546.185	1	1
546.355	1	5
546.525	1	7
546.695	1	-3
546.865	1	-5
547.035	1	3
547.205	1	5
547.375	1	5
547.545	1	7
547.715	1	6
547.885	1	-4
548.055	1	3
548.225	1	7
548.395	1	3
548.565	1	11
548.735	1	-2
548.905	1	3
549.075	1	-3
549.245	1	9
549.415	1	5
549.585	1	7
549.755	1	0
549.925	1	-2
550.095	1	1
550.265	1	-3
550.435	1	5
550.605	1	-1
550.775	1	4
550.945	1	-8
551.115	1	7
551.285	1	5
551.455	1	6
551.625	1	-2
551.795	1	4
551.965	1	0
552.135	1	-3
552.305	1	4
552.475	1	4
552.645	1	3
552.815	1	2
552.985	1	1
553.155	1	8
553.325	1	-5
553.495	1	3
553.665	1	-4
553.835	1	2
554.004	1	0
554.174	1	-4
554.344	1	4
554.514	1	-7
554.684	1	1
554.854	1	-6
555.024	1	11
555.194	1	6
555.364	1	9
555.534	1	-14
555.704	1	1
555.874	1	6
556.044	1	10
556.214	1	4
556.384	1	-4
556.554	1	6
556.724	1	2
556.894	1	3
557.064	1	-1
557.234	1	1
557.404	1	7
557.573	1	6
557.743	1	-2
557.913	1	2
558.083	1	5
558.253	1	3
558.423	1	-5
558.593	1	2
558.763	1	0
558.933	1	-4
559.103	1	2
559.273	1	9
559.443	1	10
559.613	1	12
559.783	1	-2
559.953	1	-5
560.122	1	6
560.292	1	-6
560.462	1	-7
560.632	1	0
560.802	1	2
560.972	1	-5
561.142	1	5
561.312	1	5
561.482	1	9
561.652	1	-5
561.822	1	0
561.992	1	-2
562.162	1	-1
562.331	1	-5
562.501	1	-4
562.671	1	-3
562.841	1	-2
563.011	1	5
563.181	1	4
563.351	1	4
563.521	1	-7
563.691	1	11
563.861	1	-6
564.031	1	-8
564.201	1	0
564.370	1	13
564.540	1	2
564.710	1	0
564.880	1	-1
565.050	1	2
565.220	1	11
565.390	1	-5
565.560	1	5
565.730	1	-8
565.900	1	2
566.069	1	13
566.239	1	4
566.409	1	13
566.579	1	4
566.749	1	3
566.919	1	-3
567.089	1	-1
567.259	1	3
567.429	1	-2
567.599	1	15
567.768	1	2
567.938	1	1
568.108	1	1
568.278	1	2
568.448	1	0
568.618	1	2
568.788	1	1
568.958	1	10
569.128	1	-4
569.297	1	-4
569.467	1	4
569.637	1	4
569.807	1	8
569.977	1	-3
570.147	1	12
570.317	1	4
570.487	1	1
570.656	1	10
570.826	1	-1
570.996	1	15
571.166	1	9
571.336	1	-2
571.506	1	-10
571.676	1	7
571.846	1	3
572.015	1	3
572.185	1	-2
572.355	1	-5
572.525	1	-2
572.695	1	6
572.865	1	14
573.035	1	9
573.205	1	0
573.374	1	1
573.544	1	-1
573.714	1	-2
573.884	1	-6
574.054	1	1
574.224	1	2
574.394	1	0
574.563	1	-6
574.733	1	3
574.903	1	6
575.073	1	-9
575.243	1	0
575.413	1	3
575.583	1	3
575.752	1	-2
575.922	1	3
576.092	1	-5
576.262	1	15
576.432	1	-4
576.602	1	4
576.772	1	5
576.941	1	-1
577.111	1	10
577.281	1	-1
577.451	1	0
577.621	1	5
577.791	1	-1
577.960	1	7
578.130	1	3
578.300	1	-2
578.470	1	7
578.640	1	2
578.810	1	-3
578.979	1	5
579.149	1	1
579.319	1	10
579.489	1	-2
579.659	1	-1
579.829	1	2
579.998	1	-13
580.168	1	-1
580.338	1	-4
580.508	1	0
580.678	1	0
580.848	1	2
581.017	1	-2
581.187	1	8
581.357	1	12
581.527	1	10
581.697	1	0
581.867	1	2
582.036	1	-9
582.206	1	5
582.376	1	2
582.546	1	-5
582.716	1	4
582.885	1	-5
583.055	1	-5
583.225	1	4
583.395	1	-2
583.565	1	13
583.735	1	5
583.904	1	-7
584.074	1	-3
584.244	1	3
584.414	1	4
584.584	1	4
584.753	1	2
584.923	1	2
585.093	1	9
585.263	1	4
585.433	1	0
585.602	1	1
585.772	1	18
585.942	1	-9
586.112	1	2
586.282	1	-1
586.451	1	9
586.621	1	-2
586.791	1	-12
586.961	1	-5
587.131	1	2
587.300	1	10
587.470	1	5
587.640	1	-4
587.810	1	-9
587.980	1	-7
588.149	1	1
588.319	1	13
588.489	1	3
588.659	1	-4
588.829	1	6
588.998	1	-4
589.168	1	6
589.338	1	-11
589.508	1	2
589.677	1	4
589.847	1	9
590.017	1	2
590.187	1	0
590.357	1	-2
590.526	1	2
590.696	1	8
590.866	1	-1
591.036	1	5
591.205	1	5
591.375	1	3
591.545	1	9
591.715	1	-3
591.885	1	10
592.054	1	11
592.224	1	-4
592.394	1	-8
592.564	1	6
592.733	1	3
592.903	1	-4
593.073	1	-10
593.243	1	7
593.412	1	-1
593.582	1	7
593.752	1	-1
593.922	1	2
594.091	1	12
594.261	1	-11
594.431	1	-7
594.601	1	0
594.771	1	-7
594.940	1	-3
595.110	1	8
595.280	1	8
595.450	1	8
595.619	1	4
595.789	1	0
595.959	1	-4
596.129	1	-3
596.298	1	20
596.468	1	0
596.638	1	-5
596.808	1	-5
596.977	1	3
597.147	1	-4
597.317	1	-1
597.487	1	7
597.656	1	14
597.826	1	8
597.996	1	-4
598.166	1	9
598.335	1	-6
598.505	1	-3
598.675	1	4
598.844	1	14
599.014	1	-10
599.184	1	1
599.354	1	14
599.523	1	5
599.693	1	2
599.863	1	8
600.033	1	9
600.202	1	-2
600.372	1	5
600.542	1	2
600.712	1	0
600.881	1	1
601.051	1	1
601.221	1	4
601.390	1	17
601.560	1	10
601.730	1	3
601.900	1	1
602.069	1	1
602.239	1	0
602.409	1	-1
602.578	1	9
602.748	1	12
602.918	1	-5
603.088	1	7
603.257	1	-7
603.427	1	4
603.597	1	-1
603.767	1	2
603.936	1	4
604.106	1	2
604.276	1	0
604.445	1	0
604.615	1	-1
604.785	1	10
604.954	1	-1
605.124	1	6
605.294	1	-8
605.464	1	-2
605.633	1	-2
605.803	1	11
605.973	1	-4
606.142	1	6
606.312	1	4
606.482	1	-1
606.652	1	4
606.821	1	-1
606.991	1	1
607.161	1	5
607.330	1	3
607.500	1	4
607.670	1	7
607.839	1	0
608.009	1	-1
608.179	1	-3
608.348	1	4
608.518	1	16
608.688	1	-9
608.858	1	6
609.027	1	0
609.197	1	5
609.367	1	-11
609.536	1	-4
609.706	1	5
609.876	1	10
610.045	1	10
610.215	1	3
610.385	1	5
610.554	1	3
610.724	1	8
610.894	1	-3
611.063	1	-2
611.233	1	0
611.403	1	3
611.572	1	4
611.742	1	7
611.912	1	-7
612.081	1	9
612.251	1	0
612.421	1	9
612.590	1	5
612.760	1	-1
612.930	1	6
613.099	1	-9
613.269	1	-4
613.439	1	-7
613.608	1	7
613.778	1	9
613.948	1	8
614.117	1	-5
614.287	1	-5
614.457	1	5
614.626	1	0
614.796	1	3
614.966	1	0
615.135	1	14
615.305	1	0
615.475	1	10
615.644	1	8
615.814	1	11
615.984	1	-9
616.153	1	4
616.323	1	7
616.493	1	10
616.662	1	-2
616.832	1	12
617.002	1	1
617.171	1	-2
617.341	1	6
617.511	1	-1
617.680	1	3
617.850	1	9
618.019	1	-4
618.189	1	19
618.359	1	2
618.528	1	8
618.698	1	13
618.868	1	8
619.037	1	10
619.207	1	-2
619.377	1	3
619.546	1	4
619.716	1	4
619.885	1	5
620.055	1	-1
620.225	1	0
620.394	1	5
620.564	1	3
620.734	1	10
620.903	1	-12
621.073	1	6
621.242	1	9
621.412	1	-3
621.582	1	9
621.751	1	1
621.921	1	6
622.091	1	7
622.260	1	1
622.430	1	5
622.599	1	1
622.769	1	-3
622.939	1	-3
623.108	1	-2
623.278	1	2
623.448	1	7
623.617	1	3
623.787	1	3
623.956	1	10
624.126	1	5
624.296	1	10
624.465	1	9
624.635	1	5
624.804	1	-7
624.974	1	1
625.144	1	6
625.313	1	26
625.483	1	3
625.652	1	4
625.822	1	11
625.992	1	-3
626.161	1	2
626.331	1	-5
626.501	1	6
626.670	1	2
626.840	1	3
627.009	1	2
627.179	1	12
627.348	1	5
627.518	1	14
627.688	1	5
627.857	1	13
628.027	1	5
628.196	1	12
628.366	1	-11
628.536	1	0
628.705	1	-3
628.875	1	-5
629.044	1	1
629.214	1	7
629.384	1	5
629.553	1	-3
629.723	1	10
629.892	1	4
630.062	1	10
630.232	1	8
630.401	1	11
630.571	1	-2
630.740	1	-2
630.910	1	6
631.079	1	-6
631.249	1	0
631.419	1	6
631.588	1	5
631.758	1	-1
631.927	1	8
632.097	1	1
632.266	1	12
632.436	1	2
632.606	1	7
632.775	1	9
632.945	1	-8
633.114	1	-10
633.284	1	6
633.453	1	10
633.623	1	9
633.793	1	7
633.962	1	0
634.132	1	9
634.301	1	2
634.471	1	3
634.640	1	3
634.810	1	4
634.979	1	3
635.149	1	7
635.319	1	8
635.488	1	2
635.658	1	-2
635.827	1	0
635.997	1	3
636.166	1	5
636.336	1	4
636.505	1	14
636.675	1	3
636.845	1	2
637.014	1	-1
637.184	1	9
637.353	1	-2
637.523	1	1
637.692	1	2
637.862	1	-1
638.031	1	-2
638.201	1	5
638.370	1	0
638.540	1	-10
638.710	1	-2
638.879	1	-4
639.049	1	6
639.218	1	-1
639.388	1	5
639.557	1	4
639.727	1	6
639.896	1	1
640.066	1	3
640.235	1	2
640.405	1	8
640.574	1	5
640.744	1	8
640.914	1	3
641.083	1	13
641.253	1	-2
641.422	1	0
641.592	1	12
641.761	1	-3
641.931	1	12
642.100	1	-11
642.270	1	8
642.439	1	5
642.609	1	7
642.778	1	8
642.948	1	15
643.117	1	12
643.287	1	10
643.456	1	0
643.626	1	3
643.795	1	0
643.965	1	6
644.134	1	5
644.304	1	4
644.473	1	-3
644.643	1	5
644.812	1	-2
644.982	1	5
645.151	1	1
645.321	1	13
645.490	1	12
645.660	1	0
645.829	1	12
645.999	1	-3
646.168	1	15
646.338	1	-5
646.507	1	-5
646.677	1	5
646.846	1	8
647.016	1	12
647.185	1	14
647.355	1	9
647.524	1	-3
647.694	1	1
647.863	1	-9
648.033	1	6
648.202	1	8
648.372	1	-12
648.541	1	4
648.711	1	14
648.880	1	10
649.050	1	-1
649.219	1	13
649.389	1	-1
649.558	1	15
649.728	1	-4
649.897	1	10
650.067	1	12
650.236	1	-2
650.406	1	3
650.575	1	0
650.745	1	2
650.914	1	12
651.084	1	11
651.253	1	15
651.423	1	0
651.592	1	-2
651.762	1	-5
651.931	1	9
652.101	1	-9
652.270	1	1
652.440	1	5
652.609	1	9
652.778	1	3
652.948	1	10
653.117	1	6
653.287	1	-7
653.456	1	-7
653.626	1	-2
653.795	1	-4
653.965	1	3
654.134	1	3
654.304	1	10
654.473	1	1
654.643	1	6
654.812	1	6
654.982	1	9
655.151	1	8
655.320	1	-7
655.490	1	-5
655.659	1	13
655.829	1	8
655.998	1	3
656.168	1	-3
656.337	1	1
656.507	1	2
656.676	1	-1
656.846	1	-2
657.015	1	5
657.184	1	1
657.354	1	2
657.523	1	1
657.693	1	5
657.862	1	3
658.032	1	3
658.201	1	-1
658.371	1	-3
658.540	1	5
658.709	1	3
658.879	1	11
659.048	1	16
659.218	1	4
659.387	1	10
659.557	1	-1
659.726	1	4
659.895	1	8
660.065	1	4
660.234	1	-3
660.404	1	10
660.573	1	0
660.743	1	0
660.912	1	9
661.081	1	4
661.251	1	-3
661.420	1	9
661.590	1	1
661.759	1	11
661.929	1	10
662.098	1	5
662.267	1	-10
662.437	1	8
662.606	1	-2
662.776	1	6
662.945	1	12
663.115	1	15
663.284	1	2
663.453	1	3
663.623	1	8
663.792	1	3
663.962	1	5
664.131	1	2
664.300	1	-4
664.470	1	3
664.639	1	10
664.809	1	8
664.978	1	18
665.148	1	13
665.317	1	9
665.486	1	5
665.656	1	3
665.825	1	7
665.995	1	2
666.164	1	-1
666.333	1	1
666.503	1	-2
666.672	1	8
666.842	1	1
667.011	1	2
667.180	1	6
667.350	1	9
667.519	1	12
667.689	1	12
667.858	1	11
668.027	1	-4
668.197	1	-3
668.366	1	10
668.536	1	1
668.705	1	-13
668.874	1	10
669.044	1	-1
669.213	1	11
669.382	1	13
669.552	1	10
669.721	1	0
669.891	1	4
670.060	1	-1
670.229	1	8
670.399	1	12
670.568	1	10
670.738	1	2
670.907	1	10
671.076	1	5
671.246	1	16
671.415	1	14
671.584	1	1
671.754	1	-8
671.923	1	1
672.093	1	13
672.262	1	-2
672.431	1	-7
672.601	1	15
672.770	1	-4
672.939	1	-4
673.109	1	0
673.278	1	8
673.448	1	5
673.617	1	7
673.786	1	-1
