325.333	1	21
325.504	1	4
325.675	1	23
325.846	1	17
326.017	1	25
326.188	1	20
326.359	1	24
326.531	1	15
326.702	1	19
326.873	1	23
327.044	1	23
327.215	1	17
327.386	1	16
327.557	1	14
327.728	1	25
327.899	1	24
328.070	1	29
328.241	1	20
328.412	1	35
328.583	1	24
328.754	1	36
328.926	1	34
329.097	1	9
329.268	1	34
329.439	1	30
329.610	1	19
329.781	1	35
329.952	1	36
330.123	1	27
330.294	1	21
330.465	1	11
330.636	1	35
330.807	1	30
330.978	1	12
331.149	1	30
331.320	1	37
331.492	1	18
331.663	1	32
331.834	1	37
332.005	1	34
332.176	1	32
332.347	1	17
332.518	1	31
332.689	1	32
332.860	1	24
333.031	1	36
333.202	1	27
333.373	1	39
333.544	1	41
333.715	1	38
333.886	1	24
334.057	1	31
334.228	1	40
334.399	1	39
334.570	1	41
334.741	1	30
334.912	1	36
335.084	1	33
335.255	1	32
335.426	1	35
335.597	1	33
335.768	1	38
335.939	1	42
336.110	1	33
336.281	1	25
336.452	1	53
336.623	1	31
336.794	1	33
336.965	1	34
337.136	1	49
337.307	1	38
337.478	1	32
337.649	1	27
337.820	1	30
337.991	1	34
338.162	1	34
338.333	1	33
338.504	1	46
338.675	1	36
338.846	1	31
339.017	1	40
339.188	1	46
339.359	1	37
339.530	1	41
339.701	1	56
339.872	1	56
340.043	1	34
340.214	1	42
340.385	1	36
340.556	1	38
340.727	1	44
340.898	1	46
341.069	1	39
341.240	1	50
341.411	1	38
341.582	1	48
341.753	1	43
341.924	1	59
342.095	1	50
342.266	1	46
342.437	1	47
342.608	1	48
342.779	1	45
342.950	1	47
343.121	1	50
343.292	1	54
343.463	1	62
343.634	1	51
343.805	1	42
343.976	1	51
344.147	1	57
344.318	1	39
344.489	1	48
344.660	1	52
344.831	1	59
345.002	1	52
345.173	1	49
345.344	1	44
345.515	1	51
345.686	1	60
345.857	1	59
346.028	1	55
346.199	1	48
346.370	1	50
346.541	1	49
346.712	1	59
346.883	1	42
347.054	1	63
347.225	1	54
347.396	1	49
347.567	1	47
347.738	1	58
347.909	1	52
348.080	1	57
348.251	1	60
348.422	1	65
348.593	1	59
348.764	1	65
348.935	1	70
349.106	1	57
349.277	1	64
349.448	1	60
349.619	1	59
349.790	1	76
349.961	1	52
350.132	1	64
350.303	1	69
350.474	1	64
350.645	1	55
350.816	1	69
350.987	1	76
351.157	1	55
351.328	1	50
351.499	1	74
351.670	1	56
351.841	1	81
352.012	1	72
352.183	1	80
352.354	1	61
352.525	1	71
352.696	1	69
352.867	1	68
353.038	1	68
353.209	1	63
353.380	1	65
353.551	1	71
353.722	1	65
353.893	1	73
354.064	1	67
354.235	1	68
354.406	1	55
354.576	1	68
354.747	1	73
354.918	1	66
355.089	1	54
355.260	1	58
355.431	1	59
355.602	1	63
355.773	1	70
355.944	1	72
356.115	1	75
356.286	1	73
356.457	1	76
356.628	1	63
356.799	1	81
356.970	1	86
357.141	1	82
357.311	1	94
357.482	1	65
357.653	1	74
357.824	1	83
357.995	1	77
358.166	1	79
358.337	1	71
358.508	1	98
358.679	1	59
358.850	1	86
359.021	1	85
359.192	1	94
359.363	1	91
359.533	1	75
359.704	1	64
359.875	1	74
360.046	1	81
360.217	1	85
360.388	1	93
360.559	1	80
360.730	1	72
360.901	1	83
361.072	1	88
361.243	1	85
361.414	1	98
361.584	1	65
361.755	1	73
361.926	1	80
362.097	1	80
362.268	1	92
362.439	1	75
362.610	1	90
362.781	1	68
362.952	1	82
363.123	1	78
363.293	1	87
363.464	1	83
363.635	1	94
363.806	1	87
363.977	1	73
364.148	1	84
364.319	1	79
364.490	1	87
364.661	1	80
364.832	1	79
365.002	1	78
365.173	1	87
365.344	1	85
365.515	1	81
365.686	1	86
365.857	1	94
366.028	1	90
366.199	1	87
366.370	1	88
366.540	1	91
366.711	1	83
366.882	1	87
367.053	1	86
367.224	1	92
367.395	1	97
367.566	1	96
367.737	1	92
367.908	1	106
368.078	1	82
368.249	1	99
368.420	1	90
368.591	1	72
368.762	1	97
368.933	1	77
369.104	1	100
369.274	1	100
369.445	1	94
369.616	1	92
369.787	1	83
369.958	1	98
370.129	1	82
370.300	1	79
370.471	1	95
370.641	1	92
370.812	1	85
370.983	1	74
371.154	1	85
371.325	1	91
371.496	1	68
371.667	1	97
371.837	1	90
372.008	1	82
372.179	1	79
372.350	1	88
372.521	1	83
372.692	1	91
372.863	1	88
373.033	1	92
373.204	1	80
373.375	1	104
373.546	1	91
373.717	1	86
373.888	1	101
374.059	1	88
374.229	1	90
374.400	1	98
374.571	1	89
374.742	1	89
374.913	1	97
375.084	1	106
375.254	1	97
375.425	1	91
375.596	1	85
375.767	1	102
375.938	1	84
376.109	1	89
376.279	1	90
376.450	1	116
376.621	1	96
376.792	1	103
376.963	1	98
377.134	1	99
377.304	1	98
377.475	1	99
377.646	1	90
377.817	1	99
377.988	1	104
378.159	1	108
378.329	1	106
378.500	1	100
378.671	1	103
378.842	1	98
379.013	1	95
379.184	1	98
379.354	1	99
379.525	1	104
379.696	1	105
379.867	1	101
380.038	1	99
380.209	1	101
380.379	1	101
380.550	1	92
380.721	1	106
380.892	1	98
381.063	1	106
381.233	1	95
381.404	1	104
381.575	1	90
381.746	1	110
381.917	1	98
382.087	1	116
382.258	1	101
382.429	1	102
382.600	1	110
382.771	1	91
382.941	1	111
383.112	1	109
383.283	1	122
383.454	1	97
383.625	1	98
383.795	1	124
383.966	1	114
384.137	1	115
384.308	1	110
384.479	1	122
384.649	1	95
384.820	1	113
384.991	1	110
385.162	1	121
385.333	1	114
385.503	1	108
385.674	1	125
385.845	1	123
386.016	1	116
386.187	1	114
386.357	1	123
386.528	1	104
386.699	1	112
386.870	1	111
387.041	1	123
387.211	1	111
387.382	1	118
387.553	1	124
387.724	1	118
387.894	1	99
388.065	1	116
388.236	1	123
388.407	1	130
388.578	1	116
388.748	1	127
388.919	1	120
389.090	1	132
389.261	1	126
389.431	1	114
389.602	1	121
389.773	1	113
389.944	1	118
390.114	1	110
390.285	1	132
390.456	1	124
390.627	1	109
390.798	1	117
390.968	1	121
391.139	1	116
391.310	1	128
391.481	1	118
391.651	1	125
391.822	1	127
391.993	1	122
392.164	1	113
392.334	1	115
392.505	1	122
392.676	1	109
392.847	1	123
393.017	1	109
393.188	1	127
393.359	1	135
393.530	1	136
393.700	1	114
393.871	1	129
394.042	1	111
394.213	1	110
394.383	1	131
394.554	1	125
394.725	1	107
394.896	1	131
395.066	1	128
395.237	1	127
395.408	1	121
395.579	1	132
395.749	1	144
395.920	1	135
396.091	1	134
396.262	1	119
396.432	1	131
396.603	1	136
396.774	1	118
396.945	1	143
397.115	1	131
397.286	1	134
397.457	1	124
397.627	1	124
397.798	1	139
397.969	1	125
398.140	1	124
398.310	1	133
398.481	1	129
398.652	1	134
398.823	1	132
398.993	1	133
399.164	1	128
399.335	1	118
399.505	1	137
399.676	1	126
399.847	1	129
400.018	1	124
400.188	1	141
400.359	1	137
400.530	1	129
400.700	1	132
400.871	1	134
401.042	1	120
401.213	1	141
401.383	1	127
401.554	1	131
401.725	1	132
401.895	1	111
402.066	1	139
402.237	1	118
402.408	1	131
402.578	1	138
402.749	1	127
402.920	1	133
403.090	1	121
403.261	1	134
403.432	1	129
403.603	1	136
403.773	1	142
403.944	1	143
404.115	1	126
404.285	1	135
404.456	1	151
404.627	1	129
404.797	1	135
404.968	1	132
405.139	1	141
405.310	1	135
405.480	1	127
405.651	1	133
405.822	1	138
405.992	1	142
406.163	1	141
406.334	1	135
406.504	1	130
406.675	1	126
406.846	1	133
407.016	1	144
407.187	1	147
407.358	1	132
407.528	1	130
407.699	1	138
407.870	1	155
408.041	1	142
408.211	1	143
408.382	1	149
408.553	1	127
408.723	1	141
408.894	1	138
409.065	1	154
409.235	1	140
409.406	1	149
409.577	1	143
409.747	1	135
409.918	1	162
410.089	1	159
410.259	1	148
410.430	1	141
410.601	1	139
410.771	1	143
410.942	1	136
411.113	1	155
411.283	1	141
411.454	1	150
411.625	1	132
411.795	1	149
411.966	1	123
412.137	1	141
412.307	1	131
412.478	1	132
412.649	1	142
412.819	1	143
412.990	1	140
413.161	1	128
413.331	1	139
413.502	1	136
413.672	1	139
413.843	1	136
414.014	1	135
414.184	1	139
414.355	1	138
414.526	1	127
414.696	1	129
414.867	1	125
415.038	1	130
415.208	1	129
415.379	1	129
415.550	1	126
415.720	1	127
415.891	1	141
416.062	1	136
416.232	1	141
416.403	1	137
416.573	1	136
416.744	1	145
416.915	1	134
417.085	1	140
417.256	1	138
417.427	1	140
417.597	1	137
417.768	1	132
417.939	1	125
418.109	1	143
418.280	1	138
418.450	1	149
418.621	1	134
418.792	1	133
418.962	1	141
419.133	1	132
419.304	1	124
419.474	1	138
419.645	1	140
419.815	1	138
419.986	1	142
420.157	1	123
420.327	1	128
420.498	1	123
420.669	1	139
420.839	1	133
421.010	1	135
421.180	1	121
421.351	1	142
421.522	1	147
421.692	1	132
421.863	1	126
422.033	1	143
422.204	1	143
422.375	1	139
422.545	1	146
422.716	1	128
422.886	1	124
423.057	1	125
423.228	1	146
423.398	1	136
423.569	1	137
423.740	1	128
423.910	1	134
424.081	1	136
424.251	1	131
424.422	1	138
424.593	1	123
424.763	1	125
424.934	1	131
425.104	1	147
425.275	1	125
425.445	1	119
425.616	1	127
425.787	1	119
425.957	1	119
426.128	1	120
426.298	1	131
426.469	1	123
426.640	1	123
426.810	1	115
426.981	1	131
427.151	1	119
427.322	1	121
427.493	1	113
427.663	1	132
427.834	1	109
428.004	1	131
428.175	1	126
428.345	1	115
428.516	1	124
428.687	1	127
428.857	1	123
429.028	1	118
429.198	1	118
429.369	1	122
429.540	1	127
429.710	1	123
429.881	1	116
430.051	1	118
430.222	1	117
430.392	1	123
430.563	1	129
430.734	1	135
430.904	1	121
431.075	1	122
431.245	1	123
431.416	1	123
431.586	1	113
431.757	1	130
431.927	1	121
432.098	1	120
432.269	1	127
432.439	1	124
432.610	1	132
432.780	1	130
432.951	1	122
433.121	1	127
433.292	1	131
433.462	1	125
433.633	1	116
433.804	1	133
433.974	1	127
434.145	1	116
434.315	1	120
434.486	1	112
434.656	1	125
434.827	1	131
434.997	1	121
435.168	1	121
435.339	1	131
435.509	1	116
435.680	1	123
435.850	1	120
436.021	1	115
436.191	1	121
436.362	1	114
436.532	1	115
436.703	1	120
436.873	1	104
437.044	1	123
437.214	1	105
437.385	1	112
437.556	1	115
437.726	1	108
437.897	1	115
438.067	1	122
438.238	1	115
438.408	1	105
438.579	1	107
438.749	1	96
438.920	1	127
439.090	1	114
439.261	1	108
439.431	1	96
439.602	1	100
439.772	1	125
439.943	1	94
440.113	1	96
440.284	1	108
440.455	1	104
440.625	1	116
440.796	1	128
440.966	1	115
441.137	1	108
441.307	1	116
441.478	1	105
441.648	1	112
441.819	1	113
441.989	1	121
442.160	1	106
442.330	1	94
442.501	1	110
442.671	1	114
442.842	1	112
443.012	1	111
443.183	1	106
443.353	1	111
443.524	1	94
443.694	1	108
443.865	1	109
444.035	1	111
444.206	1	111
444.376	1	107
444.547	1	100
444.717	1	99
444.888	1	95
445.058	1	99
445.229	1	112
445.399	1	104
445.570	1	92
445.740	1	104
445.911	1	106
446.081	1	105
446.252	1	95
446.422	1	112
446.593	1	105
446.763	1	117
446.934	1	108
447.104	1	105
447.275	1	108
447.445	1	101
447.616	1	93
447.786	1	109
447.957	1	101
448.127	1	102
448.298	1	114
448.468	1	109
448.639	1	111
448.809	1	99
448.979	1	122
449.150	1	97
449.320	1	101
449.491	1	96
449.661	1	103
449.832	1	98
450.002	1	100
450.173	1	98
450.343	1	90
450.514	1	99
450.684	1	108
450.855	1	116
451.025	1	100
451.196	1	100
451.366	1	100
451.537	1	102
451.707	1	97
451.878	1	90
452.048	1	91
452.218	1	99
452.389	1	102
452.559	1	104
452.730	1	92
452.900	1	83
453.071	1	96
453.241	1	101
453.412	1	90
453.582	1	103
453.753	1	92
453.923	1	93
454.093	1	93
454.264	1	107
454.434	1	94
454.605	1	78
454.775	1	100
454.946	1	87
455.116	1	88
455.287	1	85
455.457	1	89
455.628	1	86
455.798	1	95
455.968	1	79
456.139	1	106
456.309	1	89
456.480	1	81
456.650	1	82
456.821	1	90
456.991	1	95
457.161	1	82
457.332	1	84
457.502	1	76
457.673	1	86
457.843	1	88
458.014	1	85
458.184	1	89
458.355	1	95
458.525	1	87
458.695	1	78
458.866	1	77
459.036	1	84
459.207	1	79
459.377	1	91
459.548	1	89
459.718	1	80
459.888	1	87
460.059	1	93
460.229	1	80
460.400	1	89
460.570	1	88
460.740	1	71
460.911	1	84
461.081	1	82
461.252	1	89
461.422	1	91
461.593	1	89
461.763	1	95
461.933	1	77
462.104	1	79
462.274	1	83
462.445	1	91
462.615	1	82
462.785	1	92
462.956	1	72
463.126	1	78
463.297	1	84
463.467	1	77
463.638	1	78
463.808	1	82
463.978	1	69
464.149	1	80
464.319	1	76
464.490	1	72
464.660	1	71
464.830	1	78
465.001	1	72
465.171	1	73
465.342	1	68
465.512	1	79
465.682	1	61
465.853	1	79
466.023	1	81
466.194	1	87
466.364	1	87
466.534	1	73
466.705	1	88
466.875	1	69
467.045	1	66
467.216	1	70
467.386	1	74
467.557	1	83
467.727	1	69
467.897	1	72
468.068	1	58
468.238	1	73
468.409	1	70
468.579	1	79
468.749	1	79
468.920	1	69
469.090	1	80
469.260	1	68
469.431	1	50
469.601	1	66
469.772	1	74
469.942	1	64
470.112	1	61
470.283	1	75
470.453	1	69
470.623	1	72
470.794	1	73
470.964	1	63
471.135	1	75
471.305	1	72
471.475	1	70
471.646	1	76
471.816	1	67
471.986	1	71
472.157	1	68
472.327	1	73
472.497	1	66
472.668	1	69
472.838	1	71
473.009	1	59
473.179	1	62
473.349	1	63
473.520	1	81
473.690	1	65
473.860	1	62
474.031	1	68
474.201	1	70
474.371	1	69
474.542	1	60
474.712	1	72
474.882	1	71
475.053	1	70
475.223	1	68
475.394	1	66
475.564	1	62
475.734	1	64
475.905	1	67
476.075	1	73
476.245	1	67
476.416	1	63
476.586	1	61
476.756	1	75
476.927	1	65
477.097	1	68
477.267	1	70
477.438	1	66
477.608	1	75
477.778	1	66
477.949	1	72
478.119	1	62
478.289	1	59
478.460	1	56
478.630	1	68
478.800	1	61
478.971	1	58
479.141	1	66
479.311	1	56
479.482	1	59
479.652	1	65
479.822	1	60
479.993	1	52
480.163	1	54
480.333	1	72
480.504	1	58
480.674	1	67
480.844	1	60
481.015	1	74
481.185	1	75
481.355	1	67
481.525	1	47
481.696	1	59
481.866	1	63
482.036	1	60
482.207	1	58
482.377	1	50
482.547	1	65
482.718	1	53
482.888	1	66
483.058	1	61
483.229	1	54
483.399	1	59
483.569	1	55
483.740	1	49
483.910	1	49
484.080	1	64
484.250	1	56
484.421	1	57
484.591	1	53
484.761	1	54
484.932	1	54
485.102	1	60
485.272	1	51
485.443	1	66
485.613	1	44
485.783	1	44
485.953	1	48
486.124	1	54
486.294	1	60
486.464	1	52
486.635	1	50
486.805	1	50
486.975	1	42
487.146	1	54
487.316	1	60
487.486	1	59
487.656	1	58
487.827	1	55
487.997	1	51
488.167	1	49
488.338	1	54
488.508	1	46
488.678	1	45
488.848	1	49
489.019	1	47
489.189	1	56
489.359	1	46
489.529	1	46
489.700	1	51
489.870	1	61
490.040	1	45
490.211	1	40
490.381	1	50
490.551	1	54
490.721	1	51
490.892	1	50
491.062	1	43
491.232	1	45
491.402	1	50
491.573	1	63
491.743	1	53
491.913	1	46
492.084	1	48
492.254	1	38
492.424	1	50
492.594	1	41
492.765	1	56
492.935	1	55
493.105	1	48
493.275	1	45
493.446	1	42
493.616	1	38
493.786	1	45
493.956	1	43
494.127	1	42
494.297	1	36
494.467	1	37
494.637	1	46
494.808	1	49
494.978	1	45
495.148	1	44
495.318	1	49
495.489	1	32
495.659	1	36
495.829	1	47
495.999	1	52
496.170	1	50
496.340	1	43
496.510	1	49
496.680	1	51
496.851	1	61
497.021	1	44
497.191	1	35
497.361	1	31
497.532	1	38
497.702	1	36
497.872	1	44
498.042	1	38
498.213	1	42
498.383	1	51
498.553	1	54
498.723	1	44
498.894	1	42
499.064	1	39
499.234	1	39
499.404	1	39
499.574	1	59
499.745	1	43
499.915	1	46
500.085	1	41
500.255	1	21
500.426	1	40
500.596	1	33
500.766	1	35
500.936	1	29
501.106	1	43
501.277	1	35
501.447	1	49
501.617	1	43
501.787	1	39
501.958	1	42
502.128	1	41
502.298	1	41
502.468	1	27
502.638	1	43
502.809	1	28
502.979	1	44
503.149	1	29
503.319	1	52
503.489	1	27
503.660	1	34
503.830	1	46
504.000	1	45
504.170	1	42
504.340	1	30
504.511	1	38
504.681	1	36
504.851	1	37
505.021	1	42
505.192	1	29
505.362	1	34
505.532	1	28
505.702	1	53
505.872	1	41
506.043	1	45
506.213	1	47
506.383	1	46
506.553	1	38
506.723	1	18
506.893	1	27
507.064	1	40
507.234	1	34
507.404	1	39
507.574	1	33
507.744	1	30
507.915	1	31
508.085	1	33
508.255	1	34
508.425	1	32
508.595	1	34
508.766	1	33
508.936	1	49
509.106	1	32
509.276	1	33
509.446	1	32
509.616	1	33
509.787	1	33
509.957	1	28
510.127	1	23
510.297	1	30
510.467	1	36
510.638	1	41
510.808	1	48
510.978	1	33
511.148	1	33
511.318	1	41
511.488	1	38
511.659	1	27
511.829	1	25
511.999	1	33
512.169	1	34
512.339	1	40
512.509	1	21
512.680	1	32
512.850	1	42
513.020	1	34
513.190	1	23
513.360	1	40
513.530	1	33
513.700	1	41
513.871	1	35
514.041	1	35
514.211	1	35
514.381	1	29
514.551	1	38
514.721	1	35
514.892	1	28
515.062	1	39
515.232	1	24
515.402	1	28
515.572	1	32
515.742	1	41
515.912	1	33
516.083	1	29
516.253	1	34
516.423	1	26
516.593	1	28
516.763	1	23
516.933	1	30
517.104	1	37
517.274	1	22
517.444	1	35
517.614	1	36
517.784	1	30
517.954	1	23
518.124	1	31
518.294	1	32
518.465	1	23
518.635	1	33
518.805	1	35
518.975	1	30
519.145	1	20
519.315	1	32
519.485	1	27
519.656	1	20
519.826	1	21
519.996	1	32
520.166	1	29
520.336	1	29
520.506	1	25
520.676	1	39
520.846	1	29
521.017	1	25
521.187	1	35
521.357	1	29
521.527	1	21
521.697	1	18
521.867	1	31
522.037	1	30
522.207	1	28
522.377	1	34
522.548	1	25
522.718	1	17
522.888	1	18
523.058	1	32
523.228	1	8
523.398	1	10
523.568	1	14
523.738	1	28
523.909	1	18
524.079	1	26
524.249	1	21
524.419	1	23
524.589	1	29
524.759	1	39
524.929	1	17
525.099	1	24
525.269	1	24
525.439	1	16
525.610	1	36
525.780	1	16
525.950	1	27
526.120	1	20
526.290	1	20
526.460	1	20
526.630	1	16
526.800	1	23
526.970	1	35
527.140	1	18
527.311	1	26
527.481	1	27
527.651	1	15
527.821	1	24
527.991	1	16
528.161	1	19
528.331	1	10
528.501	1	14
528.671	1	9
528.841	1	26
529.011	1	25
529.181	1	15
529.352	1	26
529.522	1	22
529.692	1	24
529.862	1	22
530.032	1	10
530.202	1	22
530.372	1	29
530.542	1	26
530.712	1	26
530.882	1	19
531.052	1	22
531.222	1	24
531.392	1	21
531.563	1	23
531.733	1	20
531.903	1	16
532.073	1	23
532.243	1	24
532.413	1	34
532.583	1	32
532.753	1	13
532.923	1	25
533.093	1	20
533.263	1	21
533.433	1	17
533.603	1	23
533.773	1	12
533.943	1	11
534.113	1	23
534.284	1	22
534.454	1	20
534.624	1	19
534.794	1	19
534.964	1	20
535.134	1	12
535.304	1	20
535.474	1	28
535.644	1	16
535.814	1	13
535.984	1	30
536.154	1	18
536.324	1	17
536.494	1	23
536.664	1	12
536.834	1	13
537.004	1	20
537.174	1	18
537.344	1	15
537.514	1	18
537.685	1	25
537.855	1	9
538.025	1	16
538.195	1	16
538.365	1	16
538.535	1	14
538.705	1	14
538.875	1	22
539.045	1	19
539.215	1	8
539.385	1	18
539.555	1	10
539.725	1	17
539.895	1	22
540.065	1	18
540.235	1	22
540.405	1	15
540.575	1	8
540.745	1	24
540.915	1	18
541.085	1	16
541.255	1	20
541.425	1	17
541.595	1	10
541.765	1	19
541.935	1	10
542.105	1	20
542.275	1	13
542.445	1	18
542.615	1	17
542.785	1	18
542.955	1	18
543.125	1	14
543.295	1	16
543.465	1	22
543.635	1	6
543.805	1	16
543.975	1	9
544.145	1	12
544.315	1	9
544.485	1	14
544.655	1	11
544.825	1	9
544.995	1	9
545.165	1	24
545.335	1	22
545.505	1	8
545.675	1	22
545.845	1	13
546.015	1	10
546.185	1	8
546.355	1	18
546.525	1	14
546.695	1	16
546.865	1	9
547.035	1	22
547.205	1	16
547.375	1	30
547.545	1	13
547.715	1	20
547.885	1	18
548.055	1	13
548.225	1	21
548.395	1	13
548.565	1	24
548.735	1	8
548.905	1	14
549.075	1	12
549.245	1	24
549.415	1	18
549.585	1	10
549.755	1	14
549.925	1	16
550.095	1	12
550.265	1	13
550.435	1	16
550.605	1	14
550.775	1	10
550.945	1	18
551.115	1	25
551.285	1	8
551.455	1	17
551.625	1	12
551.795	1	8
551.965	1	10
552.135	1	12
552.305	1	23
552.475	1	19
552.645	1	8
552.815	1	11
552.985	1	9
553.155	1	15
553.325	1	9
553.495	1	13
553.665	1	12
553.835	1	10
554.004	1	8
554.174	1	11
554.344	1	12
554.514	1	13
554.684	1	21
554.854	1	9
555.024	1	20
555.194	1	7
555.364	1	15
555.534	1	-2
555.704	1	14
555.874	1	13
556.044	1	1
556.214	1	8
556.384	1	18
556.554	1	16
556.724	1	11
556.894	1	9
557.064	1	12
557.234	1	14
557.404	1	7
557.573	1	14
557.743	1	11
557.913	1	11
558.083	1	19
558.253	1	10
558.423	1	16
558.593	1	15
558.763	1	10
558.933	1	10
559.103	1	7
559.273	1	18
559.443	1	22
559.613	1	8
559.783	1	12
559.953	1	6
560.122	1	16
560.292	1	1
560.462	1	7
560.632	1	7
560.802	1	11
560.972	1	4
561.142	1	8
561.312	1	10
561.482	1	22
561.652	1	15
561.822	1	11
561.992	1	17
562.162	1	10
562.331	1	6
562.501	1	8
562.671	1	12
562.841	1	4
563.011	1	12
563.181	1	3
563.351	1	1
563.521	1	15
563.691	1	10
563.861	1	12
564.031	1	9
564.201	1	5
564.370	1	13
564.540	1	1
564.710	1	4
564.880	1	6
565.050	1	11
565.220	1	14
565.390	1	4
565.560	1	20
565.730	1	18
565.900	1	10
566.069	1	18
566.239	1	18
566.409	1	17
566.579	1	18
566.749	1	4
566.919	1	-4
567.089	1	-2
567.259	1	-3
567.429	1	-4
567.599	1	21
567.768	1	12
567.938	1	21
568.108	1	20
568.278	1	8
568.448	1	8
568.618	1	16
568.788	1	16
568.958	1	9
569.128	1	1
569.297	1	9
569.467	1	22
569.637	1	14
569.807	1	11
569.977	1	5
570.147	1	18
570.317	1	13
570.487	1	5
570.656	1	16
570.826	1	8
570.996	1	16
571.166	1	6
571.336	1	16
571.506	1	14
571.676	1	15
571.846	1	9
572.015	1	8
572.185	1	8
572.355	1	2
572.525	1	5
572.695	1	10
572.865	1	16
573.035	1	13
573.205	1	5
573.374	1	3
573.544	1	6
573.714	1	5
573.884	1	2
574.054	1	9
574.224	1	10
574.394	1	8
574.563	1	4
574.733	1	20
574.903	1	14
575.073	1	7
575.243	1	13
575.413	1	7
575.583	1	13
575.752	1	3
575.922	1	23
576.092	1	-1
576.262	1	6
576.432	1	5
576.602	1	16
576.772	1	6
576.941	1	10
577.111	1	7
577.281	1	13
577.451	1	14
577.621	1	17
577.791	1	9
577.960	1	2
578.130	1	15
578.300	1	-1
578.470	1	5
578.640	1	6
578.810	1	6
578.979	1	5
579.149	1	13
579.319	1	2
579.489	1	15
579.659	1	9
579.829	1	2
579.998	1	10
580.168	1	11
580.338	1	3
580.508	1	4
580.678	1	14
580.848	1	12
581.017	1	8
581.187	1	11
581.357	1	9
581.527	1	11
581.697	1	4
581.867	1	8
582.036	1	1
582.206	1	3
582.376	1	10
582.546	1	5
582.716	1	18
582.885	1	6
583.055	1	-3
583.225	1	12
583.395	1	14
583.565	1	13
583.735	1	11
583.904	1	4
584.074	1	12
584.244	1	12
584.414	1	10
584.584	1	18
584.753	1	10
584.923	1	-2
585.093	1	13
585.263	1	18
585.433	1	-6
585.602	1	14
585.772	1	24
585.942	1	3
586.112	1	16
586.282	1	13
586.451	1	16
586.621	1	6
586.791	1	5
586.961	1	10
587.131	1	1
587.300	1	20
587.470	1	7
587.640	1	0
587.810	1	-6
587.980	1	8
588.149	1	10
588.319	1	11
588.489	1	11
588.659	1	5
588.829	1	3
588.998	1	3
589.168	1	15
589.338	1	11
589.508	1	6
589.677	1	6
589.847	1	16
590.017	1	7
590.187	1	9
590.357	1	0
590.526	1	3
590.696	1	15
590.866	1	0
591.036	1	10
591.205	1	15
591.375	1	10
591.545	1	7
591.715	1	5
591.885	1	21
592.054	1	7
592.224	1	11
592.394	1	-8
592.564	1	17
592.733	1	8
592.903	1	9
593.073	1	7
593.243	1	5
593.412	1	2
593.582	1	3
593.752	1	8
593.922	1	13
594.091	1	17
594.261	1	1
594.431	1	6
594.601	1	8
594.771	1	13
594.940	1	1
595.110	1	20
595.280	1	14
595.450	1	4
595.619	1	9
595.789	1	7
595.959	1	11
596.129	1	16
596.298	1	17
596.468	1	6
596.638	1	2
596.808	1	4
596.977	1	11
597.147	1	11
597.317	1	10
597.487	1	3
597.656	1	15
597.826	1	26
597.996	1	1
598.166	1	5
598.335	1	-2
598.505	1	15
598.675	1	13
598.844	1	26
599.014	1	8
599.184	1	12
599.354	1	17
599.523	1	9
599.693	1	9
599.863	1	10
600.033	1	12
600.202	1	5
600.372	1	1
600.542	1	12
600.712	1	3
600.881	1	5
601.051	1	12
601.221	1	17
601.390	1	13
601.560	1	7
601.730	1	7
601.900	1	7
602.069	1	3
602.239	1	8
602.409	1	13
602.578	1	17
602.748	1	13
602.918	1	2
603.088	1	13
603.257	1	6
603.427	1	18
603.597	1	4
603.767	1	9
603.936	1	16
604.106	1	3
604.276	1	18
604.445	1	13
604.615	1	11
604.785	1	4
604.954	1	12
605.124	1	13
605.294	1	19
605.464	1	4
605.633	1	16
605.803	1	14
605.973	1	14
606.142	1	9
606.312	1	10
606.482	1	5
606.652	1	7
606.821	1	12
606.991	1	13
607.161	1	9
607.330	1	5
607.500	1	5
607.670	1	9
607.839	1	10
608.009	1	-1
608.179	1	12
608.348	1	10
608.518	1	15
608.688	1	4
608.858	1	1
609.027	1	25
609.197	1	15
609.367	1	6
609.536	1	-1
609.706	1	25
609.876	1	23
610.045	1	17
610.215	1	9
610.385	1	11
610.554	1	-1
610.724	1	9
610.894	1	14
611.063	1	11
611.233	1	13
611.403	1	10
611.572	1	11
611.742	1	6
611.912	1	8
612.081	1	20
612.251	1	10
612.421	1	14
612.590	1	9
612.760	1	16
612.930	1	20
613.099	1	15
613.269	1	7
613.439	1	7
613.608	1	4
613.778	1	12
613.948	1	21
614.117	1	9
614.287	1	9
614.457	1	9
614.626	1	8
614.796	1	12
614.966	1	15
615.135	1	25
615.305	1	17
615.475	1	12
615.644	1	25
615.814	1	18
615.984	1	15
616.153	1	7
616.323	1	10
616.493	1	3
616.662	1	13
616.832	1	17
617.002	1	17
617.171	1	12
617.341	1	17
617.511	1	3
617.680	1	12
617.850	1	11
618.019	1	0
618.189	1	17
618.359	1	12
618.528	1	8
618.698	1	20
618.868	1	8
619.037	1	17
619.207	1	12
619.377	1	21
619.546	1	26
619.716	1	16
619.885	1	7
620.055	1	5
620.225	1	25
620.394	1	12
620.564	1	16
620.734	1	13
620.903	1	16
621.073	1	17
621.242	1	10
621.412	1	10
621.582	1	21
621.751	1	8
621.921	1	15
622.091	1	15
622.260	1	12
622.430	1	13
622.599	1	14
622.769	1	19
622.939	1	12
623.108	1	3
623.278	1	8
623.448	1	13
623.617	1	18
623.787	1	13
623.956	1	16
624.126	1	12
624.296	1	15
624.465	1	19
624.635	1	23
624.804	1	8
624.974	1	5
625.144	1	4
625.313	1	25
625.483	1	19
625.652	1	15
625.822	1	15
625.992	1	3
626.161	1	15
626.331	1	10
626.501	1	7
626.670	1	15
626.840	1	21
627.009	1	5
627.179	1	12
627.348	1	12
627.518	1	18
627.688	1	16
627.857	1	18
628.027	1	26
628.196	1	25
628.366	1	11
628.536	1	1
628.705	1	3
628.875	1	4
629.044	1	6
629.214	1	15
629.384	1	27
629.553	1	14
629.723	1	13
629.892	1	16
630.062	1	15
630.232	1	20
630.401	1	17
630.571	1	11
630.740	1	10
630.910	1	28
631.079	1	18
631.249	1	13
631.419	1	18
631.588	1	15
631.758	1	7
631.927	1	24
632.097	1	14
632.266	1	13
632.436	1	18
632.606	1	20
632.775	1	25
632.945	1	16
633.114	1	12
633.284	1	20
633.453	1	5
633.623	1	24
633.793	1	8
633.962	1	22
634.132	1	5
634.301	1	17
634.471	1	27
634.640	1	11
634.810	1	13
634.979	1	22
635.149	1	22
635.319	1	17
635.488	1	22
635.658	1	19
635.827	1	18
635.997	1	26
636.166	1	12
636.336	1	12
636.505	1	34
636.675	1	20
636.845	1	16
637.014	1	7
637.184	1	23
637.353	1	14
637.523	1	17
637.692	1	18
637.862	1	11
638.031	1	18
638.201	1	16
638.370	1	23
638.540	1	4
638.710	1	7
638.879	1	9
639.049	1	16
639.218	1	20
639.388	1	9
639.557	1	28
639.727	1	19
639.896	1	15
640.066	1	22
640.235	1	14
640.405	1	25
640.574	1	29
640.744	1	20
640.914	1	26
641.083	1	33
641.253	1	17
641.422	1	10
641.592	1	29
641.761	1	15
641.931	1	32
642.100	1	24
642.270	1	11
642.439	1	14
642.609	1	32
642.778	1	19
642.948	1	25
643.117	1	30
643.287	1	19
643.456	1	20
643.626	1	21
643.795	1	14
643.965	1	23
644.134	1	15
644.304	1	10
644.473	1	11
644.643	1	10
644.812	1	8
644.982	1	26
645.151	1	17
645.321	1	15
645.490	1	29
645.660	1	12
645.829	1	18
645.999	1	11
646.168	1	38
646.338	1	9
646.507	1	11
646.677	1	30
646.846	1	22
647.016	1	25
647.185	1	32
647.355	1	27
647.524	1	7
647.694	1	10
647.863	1	9
648.033	1	21
648.202	1	19
648.372	1	5
648.541	1	23
648.711	1	20
648.880	1	25
649.050	1	23
649.219	1	23
649.389	1	9
649.558	1	26
649.728	1	24
649.897	1	17
650.067	1	23
650.236	1	25
650.406	1	19
650.575	1	11
650.745	1	22
650.914	1	21
651.084	1	24
651.253	1	24
651.423	1	17
651.592	1	21
651.762	1	22
651.931	1	19
652.101	1	24
652.270	1	22
652.440	1	20
652.609	1	26
652.778	1	20
652.948	1	16
653.117	1	20
653.287	1	17
653.456	1	22
653.626	1	16
653.795	1	27
653.965	1	26
654.134	1	14
654.304	1	26
654.473	1	27
654.643	1	10
654.812	1	31
654.982	1	36
655.151	1	26
655.320	1	13
655.490	1	17
655.659	1	25
655.829	1	32
655.998	1	14
656.168	1	21
656.337	1	24
656.507	1	22
656.676	1	14
656.846	1	26
657.015	1	28
657.184	1	12
657.354	1	25
657.523	1	20
657.693	1	21
657.862	1	32
658.032	1	19
658.201	1	23
658.371	1	27
658.540	1	18
658.709	1	34
658.879	1	32
659.048	1	30
659.218	1	14
659.387	1	32
659.557	1	24
659.726	1	21
659.895	1	20
660.065	1	21
660.234	1	22
660.404	1	22
660.573	1	33
660.743	1	25
660.912	1	28
661.081	1	14
661.251	1	22
661.420	1	27
661.590	1	11
661.759	1	33
661.929	1	14
662.098	1	22
662.267	1	19
662.437	1	22
662.606	1	18
662.776	1	25
662.945	1	36
663.115	1	49
663.284	1	35
663.453	1	27
663.623	1	28
663.792	1	35
663.962	1	28
664.131	1	17
664.300	1	25
664.470	1	23
664.639	1	24
664.809	1	34
664.978	1	31
665.148	1	23
665.317	1	25
665.486	1	29
665.656	1	30
665.825	1	24
665.995	1	19
666.164	1	26
666.333	1	16
666.503	1	15
666.672	1	27
666.842	1	35
667.011	1	26
667.180	1	18
667.350	1	30
667.519	1	29
667.689	1	23
667.858	1	31
668.027	1	27
668.197	1	2
668.366	1	25
668.536	1	23
668.705	1	19
668.874	1	33
669.044	1	28
669.213	1	33
669.382	1	33
669.552	1	26
669.721	1	25
669.891	1	14
670.060	1	28
670.229	1	25
670.399	1	25
670.568	1	37
670.738	1	8
670.907	1	32
671.076	1	26
671.246	1	35
671.415	1	36
671.584	1	29
671.754	1	15
671.923	1	17
672.093	1	26
672.262	1	17
672.431	1	29
672.601	1	35
672.770	1	21
672.939	1	25
673.109	1	20
673.278	1	26
673.448	1	22
673.617	1	23
673.786	1	21
