325.333	1	23
325.504	1	8
325.675	1	21
325.846	1	16
326.017	1	17
326.188	1	23
326.359	1	33
326.531	1	22
326.702	1	24
326.873	1	27
327.044	1	26
327.215	1	23
327.386	1	23
327.557	1	24
327.728	1	28
327.899	1	24
328.070	1	33
328.241	1	28
328.412	1	33
328.583	1	29
328.754	1	30
328.926	1	27
329.097	1	18
329.268	1	27
329.439	1	30
329.610	1	30
329.781	1	32
329.952	1	32
330.123	1	31
330.294	1	34
330.465	1	25
330.636	1	34
330.807	1	31
330.978	1	30
331.149	1	20
331.320	1	32
331.492	1	32
331.663	1	15
331.834	1	36
332.005	1	32
332.176	1	27
332.347	1	23
332.518	1	38
332.689	1	32
332.860	1	27
333.031	1	37
333.202	1	25
333.373	1	33
333.544	1	42
333.715	1	29
333.886	1	35
334.057	1	31
334.228	1	36
334.399	1	40
334.570	1	35
334.741	1	32
334.912	1	37
335.084	1	43
335.255	1	34
335.426	1	46
335.597	1	37
335.768	1	34
335.939	1	36
336.110	1	37
336.281	1	43
336.452	1	50
336.623	1	28
336.794	1	40
336.965	1	37
337.136	1	49
337.307	1	45
337.478	1	40
337.649	1	44
337.820	1	30
337.991	1	49
338.162	1	35
338.333	1	35
338.504	1	48
338.675	1	41
338.846	1	30
339.017	1	45
339.188	1	40
339.359	1	47
339.530	1	40
339.701	1	41
339.872	1	57
340.043	1	38
340.214	1	49
340.385	1	28
340.556	1	46
340.727	1	41
340.898	1	51
341.069	1	43
341.240	1	40
341.411	1	39
341.582	1	45
341.753	1	46
341.924	1	49
342.095	1	47
342.266	1	53
342.437	1	41
342.608	1	54
342.779	1	52
342.950	1	44
343.121	1	56
343.292	1	59
343.463	1	61
343.634	1	59
343.805	1	44
343.976	1	50
344.147	1	60
344.318	1	48
344.489	1	45
344.660	1	63
344.831	1	62
345.002	1	62
345.173	1	46
345.344	1	45
345.515	1	44
345.686	1	56
345.857	1	62
346.028	1	56
346.199	1	56
346.370	1	54
346.541	1	48
346.712	1	51
346.883	1	44
347.054	1	56
347.225	1	51
347.396	1	60
347.567	1	51
347.738	1	59
347.909	1	62
348.080	1	57
348.251	1	54
348.422	1	68
348.593	1	61
348.764	1	62
348.935	1	58
349.106	1	60
349.277	1	60
349.448	1	71
349.619	1	64
349.790	1	71
349.961	1	57
350.132	1	66
350.303	1	61
350.474	1	72
350.645	1	62
350.816	1	72
350.987	1	79
351.157	1	58
351.328	1	67
351.499	1	62
351.670	1	71
351.841	1	69
352.012	1	75
352.183	1	71
352.354	1	69
352.525	1	68
352.696	1	64
352.867	1	80
353.038	1	70
353.209	1	66
353.380	1	74
353.551	1	80
353.722	1	72
353.893	1	78
354.064	1	73
354.235	1	69
354.406	1	57
354.576	1	71
354.747	1	74
354.918	1	71
355.089	1	77
355.260	1	69
355.431	1	72
355.602	1	72
355.773	1	69
355.944	1	80
356.115	1	89
356.286	1	75
356.457	1	83
356.628	1	80
356.799	1	74
356.970	1	84
357.141	1	79
357.311	1	88
357.482	1	79
357.653	1	76
357.824	1	84
357.995	1	87
358.166	1	81
358.337	1	75
358.508	1	82
358.679	1	78
358.850	1	83
359.021	1	84
359.192	1	98
359.363	1	84
359.533	1	89
359.704	1	79
359.875	1	80
360.046	1	87
360.217	1	86
360.388	1	83
360.559	1	104
360.730	1	78
360.901	1	83
361.072	1	85
361.243	1	74
361.414	1	92
361.584	1	67
361.755	1	78
361.926	1	87
362.097	1	90
362.268	1	86
362.439	1	78
362.610	1	89
362.781	1	78
362.952	1	82
363.123	1	80
363.293	1	78
363.464	1	82
363.635	1	84
363.806	1	81
363.977	1	88
364.148	1	79
364.319	1	82
364.490	1	85
364.661	1	85
364.832	1	86
365.002	1	99
365.173	1	94
365.344	1	85
365.515	1	87
365.686	1	93
365.857	1	102
366.028	1	95
366.199	1	93
366.370	1	90
366.540	1	95
366.711	1	94
366.882	1	96
367.053	1	95
367.224	1	94
367.395	1	102
367.566	1	98
367.737	1	86
367.908	1	88
368.078	1	87
368.249	1	94
368.420	1	81
368.591	1	93
368.762	1	97
368.933	1	98
369.104	1	92
369.274	1	107
369.445	1	89
369.616	1	97
369.787	1	94
369.958	1	95
370.129	1	81
370.300	1	86
370.471	1	84
370.641	1	91
370.812	1	99
370.983	1	81
371.154	1	100
371.325	1	80
371.496	1	88
371.667	1	102
371.837	1	105
372.008	1	97
372.179	1	97
372.350	1	87
372.521	1	85
372.692	1	94
372.863	1	102
373.033	1	89
373.204	1	80
373.375	1	85
373.546	1	101
373.717	1	88
373.888	1	92
374.059	1	88
374.229	1	96
374.400	1	94
374.571	1	93
374.742	1	98
374.913	1	91
375.084	1	103
375.254	1	97
375.425	1	102
375.596	1	104
375.767	1	112
375.938	1	80
376.109	1	103
376.279	1	93
376.450	1	97
376.621	1	98
376.792	1	98
376.963	1	90
377.134	1	99
377.304	1	95
377.475	1	107
377.646	1	100
377.817	1	102
377.988	1	104
378.159	1	108
378.329	1	93
378.500	1	115
378.671	1	106
378.842	1	109
379.013	1	100
379.184	1	100
379.354	1	114
379.525	1	108
379.696	1	111
379.867	1	108
380.038	1	105
380.209	1	112
380.379	1	117
380.550	1	92
380.721	1	105
380.892	1	102
381.063	1	99
381.233	1	107
381.404	1	103
381.575	1	92
381.746	1	109
381.917	1	107
382.087	1	110
382.258	1	111
382.429	1	115
382.600	1	111
382.771	1	109
382.941	1	111
383.112	1	118
383.283	1	107
383.454	1	112
383.625	1	125
383.795	1	111
383.966	1	116
384.137	1	129
384.308	1	120
384.479	1	123
384.649	1	112
384.820	1	118
384.991	1	112
385.162	1	128
385.333	1	118
385.503	1	112
385.674	1	123
385.845	1	127
386.016	1	129
386.187	1	119
386.357	1	127
386.528	1	120
386.699	1	114
386.870	1	120
387.041	1	139
387.211	1	116
387.382	1	130
387.553	1	134
387.724	1	124
387.894	1	139
388.065	1	127
388.236	1	121
388.407	1	114
388.578	1	117
388.748	1	135
388.919	1	122
389.090	1	142
389.261	1	132
389.431	1	125
389.602	1	119
389.773	1	134
389.944	1	120
390.114	1	135
390.285	1	133
390.456	1	133
390.627	1	118
390.798	1	120
390.968	1	121
391.139	1	124
391.310	1	128
391.481	1	109
391.651	1	130
391.822	1	127
391.993	1	129
392.164	1	132
392.334	1	122
392.505	1	137
392.676	1	108
392.847	1	118
393.017	1	124
393.188	1	123
393.359	1	136
393.530	1	138
393.700	1	128
393.871	1	119
394.042	1	114
394.213	1	123
394.383	1	126
394.554	1	124
394.725	1	125
394.896	1	131
395.066	1	129
395.237	1	126
395.408	1	135
395.579	1	132
395.749	1	136
395.920	1	138
396.091	1	144
396.262	1	132
396.432	1	128
396.603	1	135
396.774	1	148
396.945	1	140
397.115	1	141
397.286	1	139
397.457	1	132
397.627	1	135
397.798	1	142
397.969	1	135
398.140	1	132
398.310	1	148
398.481	1	135
398.652	1	136
398.823	1	134
398.993	1	150
399.164	1	135
399.335	1	133
399.505	1	141
399.676	1	136
399.847	1	123
400.018	1	124
400.188	1	144
400.359	1	144
400.530	1	139
400.700	1	134
400.871	1	141
401.042	1	133
401.213	1	144
401.383	1	127
401.554	1	137
401.725	1	128
401.895	1	121
402.066	1	149
402.237	1	140
402.408	1	131
402.578	1	141
402.749	1	136
402.920	1	146
403.090	1	136
403.261	1	130
403.432	1	137
403.603	1	147
403.773	1	144
403.944	1	141
404.115	1	138
404.285	1	136
404.456	1	150
404.627	1	139
404.797	1	136
404.968	1	135
405.139	1	150
405.310	1	123
405.480	1	132
405.651	1	133
405.822	1	137
405.992	1	144
406.163	1	132
406.334	1	135
406.504	1	145
406.675	1	157
406.846	1	141
407.016	1	149
407.187	1	144
407.358	1	141
407.528	1	142
407.699	1	160
407.870	1	148
408.041	1	143
408.211	1	155
408.382	1	140
408.553	1	152
408.723	1	164
408.894	1	147
409.065	1	133
409.235	1	153
409.406	1	139
409.577	1	140
409.747	1	163
409.918	1	157
410.089	1	169
410.259	1	145
410.430	1	148
410.601	1	151
410.771	1	153
410.942	1	150
411.113	1	138
411.283	1	148
411.454	1	154
411.625	1	150
411.795	1	158
411.966	1	135
412.137	1	147
412.307	1	146
412.478	1	143
412.649	1	135
412.819	1	153
412.990	1	141
413.161	1	143
413.331	1	138
413.502	1	148
413.672	1	141
413.843	1	137
414.014	1	151
414.184	1	149
414.355	1	143
414.526	1	143
414.696	1	133
414.867	1	129
415.038	1	142
415.208	1	127
415.379	1	137
415.550	1	134
415.720	1	142
415.891	1	151
416.062	1	153
416.232	1	142
416.403	1	148
416.573	1	143
416.744	1	151
416.915	1	139
417.085	1	141
417.256	1	135
417.427	1	138
417.597	1	138
417.768	1	145
417.939	1	138
418.109	1	133
418.280	1	141
418.450	1	159
418.621	1	140
418.792	1	142
418.962	1	142
419.133	1	137
419.304	1	137
419.474	1	142
419.645	1	137
419.815	1	136
419.986	1	154
420.157	1	144
420.327	1	126
420.498	1	142
420.669	1	141
420.839	1	134
421.010	1	145
421.180	1	146
421.351	1	137
421.522	1	142
421.692	1	138
421.863	1	148
422.033	1	143
422.204	1	149
422.375	1	139
422.545	1	140
422.716	1	126
422.886	1	135
423.057	1	136
423.228	1	135
423.398	1	140
423.569	1	127
423.740	1	137
423.910	1	133
424.081	1	126
424.251	1	135
424.422	1	137
424.593	1	116
424.763	1	122
424.934	1	125
425.104	1	135
425.275	1	123
425.445	1	131
425.616	1	138
425.787	1	126
425.957	1	125
426.128	1	124
426.298	1	132
426.469	1	126
426.640	1	130
426.810	1	112
426.981	1	136
427.151	1	131
427.322	1	133
427.493	1	127
427.663	1	134
427.834	1	110
428.004	1	138
428.175	1	133
428.345	1	120
428.516	1	124
428.687	1	137
428.857	1	122
429.028	1	124
429.198	1	111
429.369	1	126
429.540	1	125
429.710	1	126
429.881	1	131
430.051	1	115
430.222	1	138
430.392	1	129
430.563	1	133
430.734	1	127
430.904	1	125
431.075	1	126
431.245	1	133
431.416	1	124
431.586	1	113
431.757	1	128
431.927	1	130
432.098	1	141
432.269	1	129
432.439	1	114
432.610	1	144
432.780	1	133
432.951	1	119
433.121	1	134
433.292	1	139
433.462	1	129
433.633	1	124
433.804	1	134
433.974	1	134
434.145	1	120
434.315	1	129
434.486	1	112
434.656	1	122
434.827	1	133
434.997	1	124
435.168	1	128
435.339	1	143
435.509	1	134
435.680	1	130
435.850	1	123
436.021	1	117
436.191	1	111
436.362	1	117
436.532	1	126
436.703	1	123
436.873	1	127
437.044	1	129
437.214	1	108
437.385	1	114
437.556	1	123
437.726	1	118
437.897	1	113
438.067	1	124
438.238	1	112
438.408	1	117
438.579	1	135
438.749	1	111
438.920	1	124
439.090	1	113
439.261	1	117
439.431	1	109
439.602	1	117
439.772	1	116
439.943	1	116
440.113	1	118
440.284	1	118
440.455	1	115
440.625	1	120
440.796	1	103
440.966	1	104
441.137	1	105
441.307	1	118
441.478	1	97
441.648	1	104
441.819	1	93
441.989	1	123
442.160	1	113
442.330	1	118
442.501	1	104
442.671	1	101
442.842	1	105
443.012	1	125
443.183	1	116
443.353	1	108
443.524	1	119
443.694	1	95
443.865	1	114
444.035	1	108
444.206	1	111
444.376	1	116
444.547	1	108
444.717	1	109
444.888	1	91
445.058	1	119
445.229	1	116
445.399	1	121
445.570	1	94
445.740	1	105
445.911	1	109
446.081	1	117
446.252	1	103
446.422	1	109
446.593	1	114
446.763	1	113
446.934	1	114
447.104	1	103
447.275	1	118
447.445	1	111
447.616	1	111
447.786	1	104
447.957	1	104
448.127	1	111
448.298	1	113
448.468	1	111
448.639	1	104
448.809	1	101
448.979	1	108
449.150	1	100
449.320	1	109
449.491	1	92
449.661	1	103
449.832	1	95
450.002	1	103
450.173	1	110
450.343	1	100
450.514	1	115
450.684	1	107
450.855	1	114
451.025	1	109
451.196	1	97
451.366	1	116
451.537	1	105
451.707	1	108
451.878	1	96
452.048	1	83
452.218	1	98
452.389	1	94
452.559	1	112
452.730	1	113
452.900	1	97
453.071	1	101
453.241	1	101
453.412	1	88
453.582	1	97
453.753	1	104
453.923	1	109
454.093	1	99
454.264	1	106
454.434	1	95
454.605	1	96
454.775	1	103
454.946	1	91
455.116	1	93
455.287	1	77
455.457	1	100
455.628	1	96
455.798	1	107
455.968	1	95
456.139	1	104
456.309	1	99
456.480	1	92
456.650	1	99
456.821	1	86
456.991	1	98
457.161	1	89
457.332	1	95
457.502	1	89
457.673	1	82
457.843	1	86
458.014	1	97
458.184	1	93
458.355	1	83
458.525	1	94
458.695	1	89
458.866	1	79
459.036	1	98
459.207	1	97
459.377	1	98
459.548	1	101
459.718	1	83
459.888	1	94
460.059	1	99
460.229	1	75
460.400	1	84
460.570	1	85
460.740	1	88
460.911	1	84
461.081	1	91
461.252	1	89
461.422	1	78
461.593	1	90
461.763	1	96
461.933	1	77
462.104	1	75
462.274	1	84
462.445	1	96
462.615	1	90
462.785	1	88
462.956	1	82
463.126	1	85
463.297	1	84
463.467	1	97
463.638	1	79
463.808	1	87
463.978	1	73
464.149	1	86
464.319	1	90
464.490	1	81
464.660	1	73
464.830	1	87
465.001	1	76
465.171	1	74
465.342	1	74
465.512	1	82
465.682	1	71
465.853	1	81
466.023	1	78
466.194	1	92
466.364	1	81
466.534	1	78
466.705	1	92
466.875	1	61
467.045	1	72
467.216	1	70
467.386	1	65
467.557	1	79
467.727	1	68
467.897	1	65
468.068	1	60
468.238	1	70
468.409	1	78
468.579	1	68
468.749	1	75
468.920	1	65
469.090	1	74
469.260	1	75
469.431	1	70
469.601	1	61
469.772	1	91
469.942	1	65
470.112	1	62
470.283	1	73
470.453	1	78
470.623	1	74
470.794	1	73
470.964	1	67
471.135	1	73
471.305	1	63
471.475	1	72
471.646	1	75
471.816	1	68
471.986	1	70
472.157	1	73
472.327	1	61
472.497	1	70
472.668	1	84
472.838	1	62
473.009	1	63
473.179	1	60
473.349	1	67
473.520	1	84
473.690	1	60
473.860	1	60
474.031	1	64
474.201	1	74
474.371	1	72
474.542	1	72
474.712	1	66
474.882	1	69
475.053	1	69
475.223	1	69
475.394	1	60
475.564	1	71
475.734	1	60
475.905	1	70
476.075	1	86
476.245	1	68
476.416	1	61
476.586	1	62
476.756	1	71
476.927	1	66
477.097	1	67
477.267	1	70
477.438	1	68
477.608	1	86
477.778	1	65
477.949	1	64
478.119	1	79
478.289	1	60
478.460	1	61
478.630	1	66
478.800	1	69
478.971	1	66
479.141	1	67
479.311	1	66
479.482	1	59
479.652	1	63
479.822	1	60
479.993	1	66
480.163	1	63
480.333	1	69
480.504	1	63
480.674	1	69
480.844	1	63
481.015	1	64
481.185	1	64
481.355	1	55
481.525	1	51
481.696	1	65
481.866	1	66
482.036	1	60
482.207	1	64
482.377	1	61
482.547	1	50
482.718	1	61
482.888	1	64
483.058	1	57
483.229	1	53
483.399	1	67
483.569	1	54
483.740	1	58
483.910	1	47
484.080	1	63
484.250	1	45
484.421	1	53
484.591	1	53
484.761	1	61
484.932	1	53
485.102	1	55
485.272	1	51
485.443	1	63
485.613	1	58
485.783	1	51
485.953	1	50
486.124	1	58
486.294	1	59
486.464	1	60
486.635	1	49
486.805	1	54
486.975	1	45
487.146	1	55
487.316	1	60
487.486	1	68
487.656	1	57
487.827	1	51
487.997	1	40
488.167	1	52
488.338	1	45
488.508	1	64
488.678	1	47
488.848	1	57
489.019	1	45
489.189	1	57
489.359	1	51
489.529	1	51
489.700	1	53
489.870	1	58
490.040	1	42
490.211	1	39
490.381	1	59
490.551	1	47
490.721	1	49
490.892	1	45
491.062	1	52
491.232	1	49
491.402	1	41
491.573	1	62
491.743	1	44
491.913	1	45
492.084	1	45
492.254	1	49
492.424	1	43
492.594	1	49
492.765	1	50
492.935	1	60
493.105	1	48
493.275	1	52
493.446	1	38
493.616	1	41
493.786	1	52
493.956	1	47
494.127	1	47
494.297	1	41
494.467	1	50
494.637	1	44
494.808	1	56
494.978	1	52
495.148	1	51
495.318	1	43
495.489	1	51
495.659	1	54
495.829	1	37
495.999	1	54
496.170	1	48
496.340	1	49
496.510	1	48
496.680	1	42
496.851	1	48
497.021	1	46
497.191	1	53
497.361	1	29
497.532	1	52
497.702	1	51
497.872	1	53
498.042	1	32
498.213	1	34
498.383	1	47
498.553	1	42
498.723	1	44
498.894	1	49
499.064	1	35
499.234	1	45
499.404	1	48
499.574	1	35
499.745	1	37
499.915	1	48
500.085	1	36
500.255	1	38
500.426	1	40
500.596	1	23
500.766	1	38
500.936	1	37
501.106	1	38
501.277	1	31
501.447	1	49
501.617	1	35
501.787	1	32
501.958	1	46
502.128	1	42
502.298	1	36
502.468	1	36
502.638	1	51
502.809	1	30
502.979	1	39
503.149	1	43
503.319	1	46
503.489	1	18
503.660	1	36
503.830	1	31
504.000	1	38
504.170	1	41
504.340	1	31
504.511	1	41
504.681	1	45
504.851	1	34
505.021	1	39
505.192	1	28
505.362	1	31
505.532	1	26
505.702	1	45
505.872	1	36
506.043	1	37
506.213	1	49
506.383	1	34
506.553	1	22
506.723	1	24
506.893	1	38
507.064	1	28
507.234	1	42
507.404	1	33
507.574	1	26
507.744	1	42
507.915	1	26
508.085	1	38
508.255	1	35
508.425	1	35
508.595	1	33
508.766	1	28
508.936	1	39
509.106	1	30
509.276	1	46
509.446	1	33
509.616	1	34
509.787	1	30
509.957	1	39
510.127	1	25
510.297	1	27
510.467	1	34
510.638	1	38
510.808	1	38
510.978	1	27
511.148	1	37
511.318	1	39
511.488	1	44
511.659	1	35
511.829	1	24
511.999	1	37
512.169	1	26
512.339	1	46
512.509	1	41
512.680	1	23
512.850	1	47
513.020	1	22
513.190	1	28
513.360	1	31
513.530	1	26
513.700	1	31
513.871	1	30
514.041	1	33
514.211	1	35
514.381	1	41
514.551	1	38
514.721	1	33
514.892	1	27
515.062	1	36
515.232	1	32
515.402	1	34
515.572	1	35
515.742	1	40
515.912	1	29
516.083	1	38
516.253	1	28
516.423	1	38
516.593	1	19
516.763	1	31
516.933	1	34
517.104	1	30
517.274	1	30
517.444	1	32
517.614	1	30
517.784	1	35
517.954	1	22
518.124	1	37
518.294	1	37
518.465	1	27
518.635	1	40
518.805	1	38
518.975	1	32
519.145	1	29
519.315	1	23
519.485	1	18
519.656	1	19
519.826	1	12
519.996	1	24
520.166	1	22
520.336	1	23
520.506	1	21
520.676	1	38
520.846	1	18
521.017	1	25
521.187	1	31
521.357	1	15
521.527	1	19
521.697	1	30
521.867	1	19
522.037	1	30
522.207	1	38
522.377	1	23
522.548	1	13
522.718	1	17
522.888	1	26
523.058	1	27
523.228	1	10
523.398	1	28
523.568	1	22
523.738	1	20
523.909	1	34
524.079	1	24
524.249	1	13
524.419	1	31
524.589	1	26
524.759	1	26
524.929	1	32
525.099	1	26
525.269	1	20
525.439	1	29
525.610	1	46
525.780	1	13
525.950	1	29
526.120	1	16
526.290	1	14
526.460	1	17
526.630	1	12
526.800	1	22
526.970	1	37
527.140	1	20
527.311	1	21
527.481	1	32
527.651	1	24
527.821	1	22
527.991	1	29
528.161	1	18
528.331	1	21
528.501	1	24
528.671	1	28
528.841	1	24
529.011	1	24
529.181	1	29
529.352	1	20
529.522	1	11
529.692	1	24
529.862	1	18
530.032	1	10
530.202	1	12
530.372	1	21
530.542	1	19
530.712	1	24
530.882	1	16
531.052	1	19
531.222	1	23
531.392	1	9
531.563	1	25
531.733	1	20
531.903	1	25
532.073	1	16
532.243	1	25
532.413	1	43
532.583	1	21
532.753	1	15
532.923	1	30
533.093	1	6
533.263	1	27
533.433	1	24
533.603	1	14
533.773	1	28
533.943	1	20
534.113	1	20
534.284	1	26
534.454	1	13
534.624	1	17
534.794	1	26
534.964	1	23
535.134	1	17
535.304	1	27
535.474	1	22
535.644	1	30
535.814	1	26
535.984	1	21
536.154	1	23
536.324	1	19
536.494	1	18
536.664	1	32
536.834	1	14
537.004	1	28
537.174	1	22
537.344	1	29
537.514	1	24
537.685	1	32
537.855	1	23
538.025	1	34
538.195	1	17
538.365	1	15
538.535	1	22
538.705	1	14
538.875	1	19
539.045	1	29
539.215	1	3
539.385	1	22
539.555	1	19
539.725	1	19
539.895	1	19
540.065	1	10
540.235	1	22
540.405	1	21
540.575	1	20
540.745	1	21
540.915	1	7
541.085	1	18
541.255	1	17
541.425	1	19
541.595	1	16
541.765	1	20
541.935	1	15
542.105	1	20
542.275	1	18
542.445	1	14
542.615	1	18
542.785	1	14
542.955	1	24
543.125	1	15
543.295	1	16
543.465	1	22
543.635	1	14
543.805	1	25
543.975	1	16
544.145	1	19
544.315	1	10
544.485	1	10
544.655	1	22
544.825	1	18
544.995	1	16
545.165	1	14
545.335	1	26
545.505	1	17
545.675	1	27
545.845	1	21
546.015	1	9
546.185	1	8
546.355	1	13
546.525	1	15
546.695	1	8
546.865	1	13
547.035	1	16
547.205	1	20
547.375	1	25
547.545	1	15
547.715	1	12
547.885	1	4
548.055	1	10
548.225	1	18
548.395	1	19
548.565	1	14
548.735	1	3
548.905	1	24
549.075	1	13
549.245	1	21
549.415	1	12
549.585	1	16
549.755	1	13
549.925	1	19
550.095	1	10
550.265	1	11
550.435	1	15
550.605	1	15
550.775	1	13
550.945	1	15
551.115	1	15
551.285	1	16
551.455	1	15
551.625	1	7
551.795	1	22
551.965	1	7
552.135	1	9
552.305	1	21
552.475	1	23
552.645	1	14
552.815	1	15
552.985	1	13
553.155	1	7
553.325	1	8
553.495	1	8
553.665	1	13
553.835	1	16
554.004	1	7
554.174	1	11
554.344	1	13
554.514	1	17
554.684	1	15
554.854	1	9
555.024	1	12
555.194	1	13
555.364	1	17
555.534	1	-1
555.704	1	18
555.874	1	8
556.044	1	6
556.214	1	13
556.384	1	22
556.554	1	14
556.724	1	12
556.894	1	11
557.064	1	15
557.234	1	12
557.404	1	1
557.573	1	11
557.743	1	5
557.913	1	15
558.083	1	19
558.253	1	19
558.423	1	12
558.593	1	17
558.763	1	13
558.933	1	13
559.103	1	11
559.273	1	19
559.443	1	12
559.613	1	13
559.783	1	6
559.953	1	5
560.122	1	12
560.292	1	2
560.462	1	6
560.632	1	8
560.802	1	20
560.972	1	9
561.142	1	13
561.312	1	11
561.482	1	20
561.652	1	14
561.822	1	11
561.992	1	15
562.162	1	15
562.331	1	12
562.501	1	12
562.671	1	10
562.841	1	0
563.011	1	10
563.181	1	11
563.351	1	1
563.521	1	20
563.691	1	14
563.861	1	14
564.031	1	8
564.201	1	20
564.370	1	21
564.540	1	7
564.710	1	0
564.880	1	3
565.050	1	22
565.220	1	15
565.390	1	8
565.560	1	14
565.730	1	16
565.900	1	12
566.069	1	17
566.239	1	24
566.409	1	19
566.579	1	12
566.749	1	15
566.919	1	1
567.089	1	2
567.259	1	17
567.429	1	4
567.599	1	21
567.768	1	1
567.938	1	6
568.108	1	13
568.278	1	12
568.448	1	8
568.618	1	5
568.788	1	10
568.958	1	13
569.128	1	7
569.297	1	8
569.467	1	20
569.637	1	19
569.807	1	11
569.977	1	-4
570.147	1	17
570.317	1	3
570.487	1	3
570.656	1	20
570.826	1	14
570.996	1	16
571.166	1	10
571.336	1	7
571.506	1	8
571.676	1	16
571.846	1	16
572.015	1	6
572.185	1	11
572.355	1	7
572.525	1	3
572.695	1	10
572.865	1	9
573.035	1	10
573.205	1	9
573.374	1	0
573.544	1	5
573.714	1	6
573.884	1	4
574.054	1	7
574.224	1	17
574.394	1	9
574.563	1	16
574.733	1	8
574.903	1	12
575.073	1	15
575.243	1	9
575.413	1	7
575.583	1	4
575.752	1	2
575.922	1	21
576.092	1	4
576.262	1	10
576.432	1	3
576.602	1	16
576.772	1	8
576.941	1	6
577.111	1	1
577.281	1	12
577.451	1	8
577.621	1	19
577.791	1	11
577.960	1	7
578.130	1	13
578.300	1	1
578.470	1	2
578.640	1	8
578.810	1	-4
578.979	1	19
579.149	1	13
579.319	1	13
579.489	1	23
579.659	1	10
579.829	1	4
579.998	1	-4
580.168	1	6
580.338	1	9
580.508	1	1
580.678	1	5
580.848	1	7
581.017	1	12
581.187	1	6
581.357	1	12
581.527	1	13
581.697	1	8
581.867	1	7
582.036	1	-8
582.206	1	20
582.376	1	8
582.546	1	18
582.716	1	18
582.885	1	3
583.055	1	-7
583.225	1	16
583.395	1	0
583.565	1	16
583.735	1	18
583.904	1	6
584.074	1	4
584.244	1	4
584.414	1	13
584.584	1	3
584.753	1	13
584.923	1	6
585.093	1	13
585.263	1	7
585.433	1	6
585.602	1	10
585.772	1	14
585.942	1	4
586.112	1	7
586.282	1	17
586.451	1	22
586.621	1	1
586.791	1	4
586.961	1	2
587.131	1	10
587.300	1	15
587.470	1	9
587.640	1	5
587.810	1	0
587.980	1	21
588.149	1	18
588.319	1	21
588.489	1	16
588.659	1	2
588.829	1	14
588.998	1	1
589.168	1	14
589.338	1	8
589.508	1	7
589.677	1	11
589.847	1	19
590.017	1	-6
590.187	1	9
590.357	1	4
590.526	1	6
590.696	1	20
590.866	1	5
591.036	1	7
591.205	1	7
591.375	1	12
591.545	1	7
591.715	1	15
591.885	1	10
592.054	1	15
592.224	1	10
592.394	1	0
592.564	1	8
592.733	1	5
592.903	1	8
593.073	1	10
593.243	1	20
593.412	1	-4
593.582	1	9
593.752	1	5
593.922	1	7
594.091	1	19
594.261	1	-1
594.431	1	9
594.601	1	9
594.771	1	16
594.940	1	4
595.110	1	8
595.280	1	4
595.450	1	9
595.619	1	7
595.789	1	9
595.959	1	9
596.129	1	13
596.298	1	27
596.468	1	14
596.638	1	8
596.808	1	-7
596.977	1	8
597.147	1	6
597.317	1	1
597.487	1	17
597.656	1	15
597.826	1	13
597.996	1	5
598.166	1	7
598.335	1	1
598.505	1	17
598.675	1	7
598.844	1	22
599.014	1	8
599.184	1	14
599.354	1	25
599.523	1	9
599.693	1	5
599.863	1	6
600.033	1	12
600.202	1	6
600.372	1	-4
600.542	1	11
600.712	1	11
600.881	1	11
601.051	1	8
601.221	1	6
601.390	1	15
601.560	1	11
601.730	1	11
601.900	1	12
602.069	1	16
602.239	1	9
602.409	1	13
602.578	1	18
602.748	1	23
602.918	1	1
603.088	1	10
603.257	1	-1
603.427	1	12
603.597	1	12
603.767	1	10
603.936	1	22
604.106	1	1
604.276	1	11
604.445	1	9
604.615	1	12
604.785	1	16
604.954	1	5
605.124	1	7
605.294	1	11
605.464	1	2
605.633	1	17
605.803	1	15
605.973	1	9
606.142	1	13
606.312	1	16
606.482	1	7
606.652	1	9
606.821	1	9
606.991	1	7
607.161	1	16
607.330	1	12
607.500	1	21
607.670	1	6
607.839	1	3
608.009	1	8
608.179	1	14
608.348	1	9
608.518	1	26
608.688	1	9
608.858	1	8
609.027	1	20
609.197	1	7
609.367	1	6
609.536	1	10
609.706	1	24
609.876	1	14
610.045	1	7
610.215	1	15
610.385	1	13
610.554	1	14
610.724	1	11
610.894	1	17
611.063	1	9
611.233	1	11
611.403	1	13
611.572	1	16
611.742	1	6
611.912	1	16
612.081	1	20
612.251	1	22
612.421	1	16
612.590	1	8
612.760	1	14
612.930	1	22
613.099	1	5
613.269	1	15
613.439	1	1
613.608	1	20
613.778	1	16
613.948	1	26
614.117	1	15
614.287	1	14
614.457	1	19
614.626	1	8
614.796	1	14
614.966	1	6
615.135	1	21
615.305	1	16
615.475	1	7
615.644	1	19
615.814	1	19
615.984	1	3
616.153	1	16
616.323	1	9
616.493	1	9
616.662	1	7
616.832	1	18
617.002	1	12
617.171	1	22
617.341	1	18
617.511	1	8
617.680	1	9
617.850	1	15
618.019	1	7
618.189	1	16
618.359	1	14
618.528	1	15
618.698	1	15
618.868	1	12
619.037	1	12
619.207	1	10
619.377	1	4
619.546	1	27
619.716	1	10
619.885	1	19
620.055	1	1
620.225	1	15
620.394	1	11
620.564	1	17
620.734	1	15
620.903	1	12
621.073	1	15
621.242	1	8
621.412	1	8
621.582	1	24
621.751	1	7
621.921	1	13
622.091	1	12
622.260	1	25
622.430	1	16
622.599	1	2
622.769	1	11
622.939	1	7
623.108	1	15
623.278	1	7
623.448	1	22
623.617	1	20
623.787	1	14
623.956	1	6
624.126	1	16
624.296	1	20
624.465	1	15
624.635	1	14
624.804	1	5
624.974	1	3
625.144	1	6
625.313	1	28
625.483	1	10
625.652	1	23
625.822	1	24
625.992	1	13
626.161	1	26
626.331	1	3
626.501	1	12
626.670	1	2
626.840	1	12
627.009	1	21
627.179	1	20
627.348	1	8
627.518	1	18
627.688	1	6
627.857	1	16
628.027	1	25
628.196	1	25
628.366	1	6
628.536	1	2
628.705	1	15
628.875	1	7
629.044	1	12
629.214	1	16
629.384	1	28
629.553	1	14
629.723	1	16
629.892	1	18
630.062	1	15
630.232	1	19
630.401	1	25
630.571	1	13
630.740	1	10
630.910	1	7
631.079	1	16
631.249	1	19
631.419	1	9
631.588	1	10
631.758	1	3
631.927	1	30
632.097	1	7
632.266	1	30
632.436	1	15
632.606	1	19
632.775	1	13
632.945	1	10
633.114	1	6
633.284	1	18
633.453	1	22
633.623	1	28
633.793	1	15
633.962	1	16
634.132	1	15
634.301	1	23
634.471	1	18
634.640	1	17
634.810	1	14
634.979	1	10
635.149	1	6
635.319	1	10
635.488	1	15
635.658	1	23
635.827	1	15
635.997	1	16
636.166	1	23
636.336	1	13
636.505	1	18
636.675	1	15
636.845	1	24
637.014	1	15
637.184	1	28
637.353	1	14
637.523	1	17
637.692	1	11
637.862	1	15
638.031	1	19
638.201	1	23
638.370	1	25
638.540	1	14
638.710	1	8
638.879	1	18
639.049	1	18
639.218	1	18
639.388	1	11
639.557	1	27
639.727	1	21
639.896	1	13
640.066	1	22
640.235	1	16
640.405	1	20
640.574	1	24
640.744	1	14
640.914	1	18
641.083	1	23
641.253	1	14
641.422	1	10
641.592	1	21
641.761	1	16
641.931	1	35
642.100	1	15
642.270	1	9
642.439	1	26
642.609	1	28
642.778	1	28
642.948	1	34
643.117	1	18
643.287	1	31
643.456	1	16
643.626	1	21
643.795	1	19
643.965	1	17
644.134	1	27
644.304	1	9
644.473	1	22
644.643	1	20
644.812	1	14
644.982	1	16
645.151	1	6
645.321	1	26
645.490	1	20
645.660	1	15
645.829	1	17
645.999	1	13
646.168	1	31
646.338	1	14
646.507	1	18
646.677	1	24
646.846	1	23
647.016	1	26
647.185	1	23
647.355	1	27
647.524	1	18
647.694	1	11
647.863	1	10
648.033	1	20
648.202	1	27
648.372	1	7
648.541	1	19
648.711	1	17
648.880	1	25
649.050	1	16
649.219	1	25
649.389	1	15
649.558	1	19
649.728	1	19
649.897	1	20
650.067	1	30
650.236	1	14
650.406	1	19
650.575	1	26
650.745	1	22
650.914	1	22
651.084	1	27
651.253	1	13
651.423	1	13
651.592	1	28
651.762	1	13
651.931	1	17
652.101	1	21
652.270	1	12
652.440	1	25
652.609	1	27
652.778	1	27
652.948	1	12
653.117	1	11
653.287	1	12
653.456	1	14
653.626	1	22
653.795	1	19
653.965	1	14
654.134	1	16
654.304	1	26
654.473	1	24
654.643	1	17
654.812	1	14
654.982	1	33
655.151	1	25
655.320	1	12
655.490	1	25
655.659	1	21
655.829	1	20
655.998	1	22
656.168	1	24
656.337	1	12
656.507	1	9
656.676	1	15
656.846	1	17
657.015	1	37
657.184	1	23
657.354	1	20
657.523	1	21
657.693	1	37
657.862	1	11
658.032	1	4
658.201	1	21
658.371	1	20
658.540	1	9
658.709	1	35
658.879	1	26
659.048	1	30
659.218	1	31
659.387	1	27
659.557	1	32
659.726	1	16
659.895	1	22
660.065	1	21
660.234	1	14
660.404	1	22
660.573	1	22
660.743	1	17
660.912	1	22
661.081	1	11
661.251	1	20
661.420	1	33
661.590	1	11
661.759	1	31
661.929	1	13
662.098	1	16
662.267	1	21
662.437	1	21
662.606	1	18
662.776	1	34
662.945	1	33
663.115	1	39
663.284	1	18
663.453	1	24
663.623	1	31
663.792	1	22
663.962	1	33
664.131	1	29
664.300	1	20
664.470	1	29
664.639	1	27
664.809	1	28
664.978	1	31
665.148	1	25
665.317	1	30
665.486	1	12
665.656	1	23
665.825	1	23
665.995	1	10
666.164	1	18
666.333	1	17
666.503	1	13
666.672	1	32
666.842	1	20
667.011	1	24
667.180	1	26
667.350	1	28
667.519	1	18
667.689	1	26
667.858	1	36
668.027	1	13
668.197	1	15
668.366	1	25
668.536	1	12
668.705	1	26
668.874	1	35
669.044	1	31
669.213	1	33
669.382	1	35
669.552	1	26
669.721	1	19
669.891	1	23
670.060	1	30
670.229	1	34
670.399	1	21
670.568	1	28
670.738	1	25
670.907	1	24
671.076	1	31
671.246	1	33
671.415	1	24
671.584	1	36
671.754	1	17
671.923	1	21
672.093	1	33
672.262	1	27
672.431	1	22
672.601	1	37
672.770	1	26
672.939	1	29
673.109	1	23
673.278	1	22
673.448	1	36
673.617	1	32
673.786	1	11
