325.333	1	-2
325.504	1	-10
325.675	1	8
325.846	1	1
326.017	1	3
326.188	1	-7
326.359	1	-3
326.531	1	-3
326.702	1	-5
326.873	1	7
327.044	1	6
327.215	1	-6
327.386	1	1
327.557	1	-2
327.728	1	-3
327.899	1	1
328.070	1	10
328.241	1	-6
328.412	1	2
328.583	1	1
328.754	1	-1
328.926	1	0
329.097	1	-11
329.268	1	6
329.439	1	14
329.610	1	8
329.781	1	2
329.952	1	2
330.123	1	9
330.294	1	5
330.465	1	-10
330.636	1	-2
330.807	1	7
330.978	1	-3
331.149	1	4
331.320	1	8
331.492	1	2
331.663	1	1
331.834	1	3
332.005	1	17
332.176	1	-7
332.347	1	4
332.518	1	6
332.689	1	1
332.860	1	2
333.031	1	5
333.202	1	-2
333.373	1	8
333.544	1	-1
333.715	1	-2
333.886	1	-2
334.057	1	-3
334.228	1	12
334.399	1	5
334.570	1	-2
334.741	1	5
334.912	1	3
335.084	1	16
335.255	1	11
335.426	1	1
335.597	1	-2
335.768	1	3
335.939	1	4
336.110	1	0
336.281	1	3
336.452	1	12
336.623	1	2
336.794	1	12
336.965	1	0
337.136	1	13
337.307	1	-4
337.478	1	3
337.649	1	-2
337.820	1	-3
337.991	1	-4
338.162	1	0
338.333	1	-4
338.504	1	9
338.675	1	2
338.846	1	-10
339.017	1	5
339.188	1	-4
339.359	1	6
339.530	1	3
339.701	1	7
339.872	1	15
340.043	1	2
340.214	1	1
340.385	1	2
340.556	1	8
340.727	1	3
340.898	1	-2
341.069	1	-5
341.240	1	3
341.411	1	8
341.582	1	-1
341.753	1	7
341.924	1	14
342.095	1	-6
342.266	1	7
342.437	1	-6
342.608	1	5
342.779	1	-5
342.950	1	1
343.121	1	8
343.292	1	16
343.463	1	9
343.634	1	2
343.805	1	6
343.976	1	14
344.147	1	3
344.318	1	-3
344.489	1	3
344.660	1	7
344.831	1	12
345.002	1	7
345.173	1	-1
345.344	1	-6
345.515	1	3
345.686	1	6
345.857	1	2
346.028	1	5
346.199	1	11
346.370	1	5
346.541	1	-1
346.712	1	6
346.883	1	1
347.054	1	13
347.225	1	10
347.396	1	-4
347.567	1	-4
347.738	1	6
347.909	1	10
348.080	1	6
348.251	1	2
348.422	1	14
348.593	1	2
348.764	1	-5
348.935	1	7
349.106	1	0
349.277	1	6
349.448	1	9
349.619	1	-2
349.790	1	8
349.961	1	4
350.132	1	20
350.303	1	1
350.474	1	-1
350.645	1	9
350.816	1	5
350.987	1	21
351.157	1	2
351.328	1	1
351.499	1	1
351.670	1	7
351.841	1	9
352.012	1	5
352.183	1	13
352.354	1	6
352.525	1	4
352.696	1	-4
352.867	1	10
353.038	1	1
353.209	1	9
353.380	1	3
353.551	1	10
353.722	1	-2
353.893	1	13
354.064	1	4
354.235	1	2
354.406	1	-1
354.576	1	5
354.747	1	4
354.918	1	5
355.089	1	13
355.260	1	-1
355.431	1	3
355.602	1	10
355.773	1	4
355.944	1	11
356.115	1	10
356.286	1	12
356.457	1	9
356.628	1	4
356.799	1	8
356.970	1	16
357.141	1	11
357.311	1	15
357.482	1	9
357.653	1	-2
357.824	1	7
357.995	1	9
358.166	1	8
358.337	1	-3
358.508	1	20
358.679	1	6
358.850	1	15
359.021	1	4
359.192	1	14
359.363	1	9
359.533	1	0
359.704	1	-1
359.875	1	6
360.046	1	10
360.217	1	12
360.388	1	17
360.559	1	12
360.730	1	9
360.901	1	7
361.072	1	10
361.243	1	5
361.414	1	3
361.584	1	6
361.755	1	3
361.926	1	16
362.097	1	7
362.268	1	20
362.439	1	-2
362.610	1	15
362.781	1	2
362.952	1	3
363.123	1	-3
363.293	1	17
363.464	1	-4
363.635	1	8
363.806	1	12
363.977	1	5
364.148	1	6
364.319	1	-3
364.490	1	14
364.661	1	14
364.832	1	2
365.002	1	6
365.173	1	10
365.344	1	3
365.515	1	12
365.686	1	15
365.857	1	12
366.028	1	14
366.199	1	12
366.370	1	12
366.540	1	9
366.711	1	9
366.882	1	7
367.053	1	13
367.224	1	9
367.395	1	9
367.566	1	8
367.737	1	5
367.908	1	12
368.078	1	-3
368.249	1	12
368.420	1	9
368.591	1	12
368.762	1	11
368.933	1	6
369.104	1	6
369.274	1	12
369.445	1	14
369.616	1	1
369.787	1	6
369.958	1	16
370.129	1	9
370.300	1	8
370.471	1	7
370.641	1	7
370.812	1	10
370.983	1	-1
371.154	1	3
371.325	1	4
371.496	1	1
371.667	1	12
371.837	1	6
372.008	1	6
372.179	1	9
372.350	1	8
372.521	1	6
372.692	1	16
372.863	1	9
373.033	1	7
373.204	1	9
373.375	1	5
373.546	1	9
373.717	1	0
373.888	1	10
374.059	1	5
374.229	1	13
374.400	1	7
374.571	1	7
374.742	1	14
374.913	1	1
375.084	1	5
375.254	1	-4
375.425	1	15
375.596	1	11
375.767	1	9
375.938	1	-1
376.109	1	2
376.279	1	3
376.450	1	16
376.621	1	16
376.792	1	7
376.963	1	7
377.134	1	8
377.304	1	16
377.475	1	1
377.646	1	2
377.817	1	20
377.988	1	15
378.159	1	22
378.329	1	6
378.500	1	8
378.671	1	6
378.842	1	8
379.013	1	11
379.184	1	11
379.354	1	8
379.525	1	10
379.696	1	10
379.867	1	5
380.038	1	10
380.209	1	12
380.379	1	11
380.550	1	3
380.721	1	8
380.892	1	-1
381.063	1	4
381.233	1	11
381.404	1	9
381.575	1	9
381.746	1	11
381.917	1	3
382.087	1	18
382.258	1	5
382.429	1	12
382.600	1	9
382.771	1	5
382.941	1	6
383.112	1	9
383.283	1	16
383.454	1	10
383.625	1	5
383.795	1	16
383.966	1	16
384.137	1	13
384.308	1	7
384.479	1	9
384.649	1	8
384.820	1	10
384.991	1	10
385.162	1	18
385.333	1	8
385.503	1	2
385.674	1	5
385.845	1	15
386.016	1	11
386.187	1	4
386.357	1	10
386.528	1	15
386.699	1	7
386.870	1	18
387.041	1	8
387.211	1	13
387.382	1	13
387.553	1	15
387.724	1	0
387.894	1	0
388.065	1	21
388.236	1	10
388.407	1	17
388.578	1	5
388.748	1	15
388.919	1	8
389.090	1	23
389.261	1	13
389.431	1	9
389.602	1	14
389.773	1	16
389.944	1	17
390.114	1	16
390.285	1	24
390.456	1	20
390.627	1	6
390.798	1	14
390.968	1	11
391.139	1	19
391.310	1	7
391.481	1	10
391.651	1	14
391.822	1	21
391.993	1	5
392.164	1	15
392.334	1	15
392.505	1	16
392.676	1	0
392.847	1	7
393.017	1	7
393.188	1	16
393.359	1	20
393.530	1	26
393.700	1	8
393.871	1	20
394.042	1	0
394.213	1	10
394.383	1	16
394.554	1	10
394.725	1	7
394.896	1	20
395.066	1	11
395.237	1	15
395.408	1	11
395.579	1	19
395.749	1	21
395.920	1	20
396.091	1	9
396.262	1	3
396.432	1	0
396.603	1	9
396.774	1	1
396.945	1	15
397.115	1	20
397.286	1	10
397.457	1	15
397.627	1	7
397.798	1	15
397.969	1	16
398.140	1	6
398.310	1	20
398.481	1	10
398.652	1	9
398.823	1	6
398.993	1	15
399.164	1	14
399.335	1	11
399.505	1	7
399.676	1	11
399.847	1	5
400.018	1	10
400.188	1	25
400.359	1	24
400.530	1	17
400.700	1	7
400.871	1	17
401.042	1	21
401.213	1	14
401.383	1	17
401.554	1	15
401.725	1	8
401.895	1	14
402.066	1	17
402.237	1	14
402.408	1	9
402.578	1	23
402.749	1	11
402.920	1	19
403.090	1	-1
403.261	1	15
403.432	1	17
403.603	1	20
403.773	1	17
403.944	1	19
404.115	1	22
404.285	1	24
404.456	1	25
404.627	1	20
404.797	1	16
404.968	1	14
405.139	1	13
405.310	1	16
405.480	1	15
405.651	1	16
405.822	1	13
405.992	1	22
406.163	1	10
406.334	1	13
406.504	1	7
406.675	1	2
406.846	1	7
407.016	1	18
407.187	1	20
407.358	1	8
407.528	1	13
407.699	1	18
407.870	1	26
408.041	1	15
408.211	1	16
408.382	1	16
408.553	1	22
408.723	1	10
408.894	1	17
409.065	1	13
409.235	1	15
409.406	1	4
409.577	1	13
409.747	1	13
409.918	1	17
410.089	1	15
410.259	1	11
410.430	1	14
410.601	1	26
410.771	1	27
410.942	1	15
411.113	1	19
411.283	1	11
411.454	1	29
411.625	1	15
411.795	1	14
411.966	1	14
412.137	1	18
412.307	1	14
412.478	1	16
412.649	1	17
412.819	1	16
412.990	1	16
413.161	1	22
413.331	1	12
413.502	1	12
413.672	1	6
413.843	1	10
414.014	1	16
414.184	1	21
414.355	1	20
414.526	1	6
414.696	1	12
414.867	1	-6
415.038	1	20
415.208	1	10
415.379	1	14
415.550	1	17
415.720	1	4
415.891	1	25
416.062	1	20
416.232	1	18
416.403	1	11
416.573	1	15
416.744	1	19
416.915	1	23
417.085	1	12
417.256	1	10
417.427	1	18
417.597	1	14
417.768	1	15
417.939	1	8
418.109	1	8
418.280	1	18
418.450	1	18
418.621	1	16
418.792	1	3
418.962	1	20
419.133	1	12
419.304	1	10
419.474	1	13
419.645	1	13
419.815	1	14
419.986	1	15
420.157	1	18
420.327	1	6
420.498	1	16
420.669	1	14
420.839	1	16
421.010	1	8
421.180	1	4
421.351	1	19
421.522	1	21
421.692	1	21
421.863	1	16
422.033	1	18
422.204	1	25
422.375	1	13
422.545	1	19
422.716	1	3
422.886	1	14
423.057	1	14
423.228	1	8
423.398	1	21
423.569	1	10
423.740	1	15
423.910	1	10
424.081	1	20
424.251	1	17
424.422	1	12
424.593	1	12
424.763	1	15
424.934	1	22
425.104	1	28
425.275	1	14
425.445	1	16
425.616	1	12
425.787	1	17
425.957	1	17
426.128	1	25
426.298	1	17
426.469	1	7
426.640	1	23
426.810	1	-3
426.981	1	16
427.151	1	15
427.322	1	7
427.493	1	14
427.663	1	16
427.834	1	17
428.004	1	18
428.175	1	16
428.345	1	2
428.516	1	11
428.687	1	11
428.857	1	17
429.028	1	17
429.198	1	2
429.369	1	16
429.540	1	24
429.710	1	13
429.881	1	5
430.051	1	9
430.222	1	11
430.392	1	16
430.563	1	4
430.734	1	12
430.904	1	13
431.075	1	15
431.245	1	17
431.416	1	22
431.586	1	12
431.757	1	18
431.927	1	20
432.098	1	13
432.269	1	6
432.439	1	5
432.610	1	23
432.780	1	14
432.951	1	9
433.121	1	14
433.292	1	21
433.462	1	12
433.633	1	12
433.804	1	20
433.974	1	18
434.145	1	0
434.315	1	14
434.486	1	1
434.656	1	21
434.827	1	15
434.997	1	22
435.168	1	19
435.339	1	23
435.509	1	9
435.680	1	11
435.850	1	9
436.021	1	4
436.191	1	7
436.362	1	8
436.532	1	25
436.703	1	11
436.873	1	8
437.044	1	13
437.214	1	10
437.385	1	16
437.556	1	15
437.726	1	14
437.897	1	8
438.067	1	18
438.238	1	13
438.408	1	9
438.579	1	2
438.749	1	4
438.920	1	17
439.090	1	8
439.261	1	14
439.431	1	7
439.602	1	16
439.772	1	20
439.943	1	6
440.113	1	9
440.284	1	21
440.455	1	9
440.625	1	12
440.796	1	4
440.966	1	15
441.137	1	18
441.307	1	13
441.478	1	6
441.648	1	9
441.819	1	12
441.989	1	19
442.160	1	14
442.330	1	19
442.501	1	3
442.671	1	14
442.842	1	9
443.012	1	11
443.183	1	8
443.353	1	9
443.524	1	13
443.694	1	4
443.865	1	25
444.035	1	9
444.206	1	13
444.376	1	10
444.547	1	8
444.717	1	7
444.888	1	-4
445.058	1	3
445.229	1	14
445.399	1	12
445.570	1	7
445.740	1	9
445.911	1	9
446.081	1	17
446.252	1	14
446.422	1	8
446.593	1	18
446.763	1	14
446.934	1	14
447.104	1	6
447.275	1	12
447.445	1	16
447.616	1	7
447.786	1	6
447.957	1	10
448.127	1	6
448.298	1	11
448.468	1	11
448.639	1	14
448.809	1	6
448.979	1	20
449.150	1	1
449.320	1	16
449.491	1	6
449.661	1	0
449.832	1	4
450.002	1	13
450.173	1	6
450.343	1	8
450.514	1	18
450.684	1	19
450.855	1	21
451.025	1	6
451.196	1	-2
451.366	1	17
451.537	1	25
451.707	1	23
451.878	1	11
452.048	1	3
452.218	1	12
452.389	1	19
452.559	1	11
452.730	1	13
452.900	1	0
453.071	1	19
453.241	1	16
453.412	1	9
453.582	1	15
453.753	1	10
453.923	1	5
454.093	1	11
454.264	1	15
454.434	1	2
454.605	1	-1
454.775	1	20
454.946	1	6
455.116	1	17
455.287	1	8
455.457	1	13
455.628	1	7
455.798	1	12
455.968	1	10
456.139	1	24
456.309	1	3
456.480	1	8
456.650	1	8
456.821	1	3
456.991	1	12
457.161	1	22
457.332	1	7
457.502	1	13
457.673	1	3
457.843	1	11
458.014	1	10
458.184	1	18
458.355	1	16
458.525	1	8
458.695	1	-1
458.866	1	5
459.036	1	5
459.207	1	9
459.377	1	12
459.548	1	7
459.718	1	3
459.888	1	7
460.059	1	0
460.229	1	8
460.400	1	8
460.570	1	1
460.740	1	8
460.911	1	14
461.081	1	17
461.252	1	14
461.422	1	4
461.593	1	17
461.763	1	23
461.933	1	17
462.104	1	1
462.274	1	3
462.445	1	-4
462.615	1	13
462.785	1	9
462.956	1	7
463.126	1	14
463.297	1	16
463.467	1	21
463.638	1	18
463.808	1	3
463.978	1	-1
464.149	1	7
464.319	1	7
464.490	1	4
464.660	1	-1
464.830	1	5
465.001	1	12
465.171	1	11
465.342	1	5
465.512	1	7
465.682	1	-1
465.853	1	7
466.023	1	11
466.194	1	13
466.364	1	16
466.534	1	-3
466.705	1	12
466.875	1	5
467.045	1	1
467.216	1	1
467.386	1	8
467.557	1	15
467.727	1	11
467.897	1	11
468.068	1	3
468.238	1	6
468.409	1	10
468.579	1	14
468.749	1	3
468.920	1	7
469.090	1	16
469.260	1	12
469.431	1	4
469.601	1	11
469.772	1	4
469.942	1	5
470.112	1	-10
470.283	1	7
470.453	1	4
470.623	1	16
470.794	1	1
470.964	1	1
471.135	1	21
471.305	1	2
471.475	1	9
471.646	1	7
471.816	1	9
471.986	1	0
472.157	1	8
472.327	1	6
472.497	1	8
472.668	1	11
472.838	1	6
473.009	1	11
473.179	1	9
473.349	1	-4
473.520	1	27
473.690	1	7
473.860	1	-2
474.031	1	0
474.201	1	15
474.371	1	11
474.542	1	7
474.712	1	-6
474.882	1	3
475.053	1	10
475.223	1	10
475.394	1	7
475.564	1	0
475.734	1	1
475.905	1	17
476.075	1	17
476.245	1	6
476.416	1	14
476.586	1	9
476.756	1	7
476.927	1	6
477.097	1	4
477.267	1	5
477.438	1	15
477.608	1	12
477.778	1	9
477.949	1	9
478.119	1	12
478.289	1	-3
478.460	1	2
478.630	1	5
478.800	1	2
478.971	1	6
479.141	1	9
479.311	1	5
479.482	1	13
479.652	1	3
479.822	1	-2
479.993	1	0
480.163	1	6
480.333	1	6
480.504	1	9
480.674	1	7
480.844	1	7
481.015	1	4
481.185	1	19
481.355	1	14
481.525	1	2
481.696	1	2
481.866	1	11
482.036	1	9
482.207	1	13
482.377	1	6
482.547	1	7
482.718	1	7
482.888	1	13
483.058	1	6
483.229	1	2
483.399	1	6
483.569	1	-8
483.740	1	0
483.910	1	2
484.080	1	-2
484.250	1	2
484.421	1	7
484.591	1	2
484.761	1	5
484.932	1	2
485.102	1	17
485.272	1	6
485.443	1	4
485.613	1	2
485.783	1	3
485.953	1	5
486.124	1	6
486.294	1	8
486.464	1	14
486.635	1	-2
486.805	1	0
486.975	1	0
487.146	1	9
487.316	1	-1
487.486	1	4
487.656	1	12
487.827	1	2
487.997	1	5
488.167	1	7
488.338	1	3
488.508	1	6
488.678	1	7
488.848	1	6
489.019	1	1
489.189	1	9
489.359	1	2
489.529	1	10
489.700	1	6
489.870	1	17
490.040	1	5
490.211	1	-11
490.381	1	-1
490.551	1	4
490.721	1	6
490.892	1	-6
491.062	1	2
491.232	1	1
491.402	1	2
491.573	1	11
491.743	1	8
491.913	1	5
492.084	1	7
492.254	1	8
492.424	1	0
492.594	1	7
492.765	1	14
492.935	1	11
493.105	1	11
493.275	1	11
493.446	1	-11
493.616	1	2
493.786	1	9
493.956	1	4
494.127	1	1
494.297	1	-3
494.467	1	6
494.637	1	3
494.808	1	9
494.978	1	5
495.148	1	15
495.318	1	9
495.489	1	0
495.659	1	6
495.829	1	10
495.999	1	6
496.170	1	10
496.340	1	-2
496.510	1	11
496.680	1	14
496.851	1	11
497.021	1	-2
497.191	1	1
497.361	1	-12
497.532	1	7
497.702	1	1
497.872	1	11
498.042	1	-2
498.213	1	-2
498.383	1	4
498.553	1	12
498.723	1	8
498.894	1	5
499.064	1	9
499.234	1	7
499.404	1	-1
499.574	1	8
499.745	1	-4
499.915	1	4
500.085	1	-1
500.255	1	-3
500.426	1	10
500.596	1	-7
500.766	1	1
500.936	1	-6
501.106	1	-3
501.277	1	-6
501.447	1	8
501.617	1	-5
501.787	1	-14
501.958	1	0
502.128	1	2
502.298	1	2
502.468	1	-3
502.638	1	9
502.809	1	3
502.979	1	12
503.149	1	-5
503.319	1	13
503.489	1	-11
503.660	1	-2
503.830	1	-4
504.000	1	-1
504.170	1	4
504.340	1	-2
504.511	1	2
504.681	1	-1
504.851	1	-3
505.021	1	-2
505.192	1	-9
505.362	1	4
505.532	1	-12
505.702	1	13
505.872	1	5
506.043	1	16
506.213	1	5
506.383	1	10
506.553	1	5
506.723	1	-4
506.893	1	9
507.064	1	2
507.234	1	0
507.404	1	-8
507.574	1	6
507.744	1	9
507.915	1	-3
508.085	1	-8
508.255	1	-2
508.425	1	2
508.595	1	4
508.766	1	-8
508.936	1	14
509.106	1	2
509.276	1	8
509.446	1	-4
509.616	1	3
509.787	1	3
509.957	1	7
510.127	1	-6
510.297	1	-7
510.467	1	4
510.638	1	8
510.808	1	18
510.978	1	1
511.148	1	4
511.318	1	4
511.488	1	12
511.659	1	2
511.829	1	-6
511.999	1	13
512.169	1	8
512.339	1	13
512.509	1	12
512.680	1	2
512.850	1	2
513.020	1	5
513.190	1	-2
513.360	1	3
513.530	1	2
513.700	1	-3
513.871	1	-7
514.041	1	2
514.211	1	5
514.381	1	2
514.551	1	7
514.721	1	-5
514.892	1	5
515.062	1	2
515.232	1	-12
515.402	1	0
515.572	1	9
515.742	1	7
515.912	1	5
516.083	1	4
516.253	1	9
516.423	1	1
516.593	1	5
516.763	1	2
516.933	1	0
517.104	1	9
517.274	1	2
517.444	1	7
517.614	1	-1
517.784	1	10
517.954	1	-7
518.124	1	-4
518.294	1	1
518.465	1	-3
518.635	1	11
518.805	1	-2
518.975	1	1
519.145	1	-7
519.315	1	4
519.485	1	-4
519.656	1	-2
519.826	1	-9
519.996	1	8
520.166	1	5
520.336	1	3
520.506	1	3
520.676	1	7
520.846	1	0
521.017	1	1
521.187	1	17
521.357	1	-4
521.527	1	-7
521.697	1	-5
521.867	1	8
522.037	1	0
522.207	1	-1
522.377	1	10
522.548	1	-10
522.718	1	3
522.888	1	-5
523.058	1	1
523.228	1	-12
523.398	1	-5
523.568	1	5
523.738	1	3
523.909	1	-3
524.079	1	7
524.249	1	-1
524.419	1	0
524.589	1	0
524.759	1	13
524.929	1	-4
525.099	1	-2
525.269	1	0
525.439	1	2
525.610	1	16
525.780	1	-2
525.950	1	3
526.120	1	-6
526.290	1	-5
526.460	1	-9
526.630	1	2
526.800	1	-8
526.970	1	4
527.140	1	1
527.311	1	1
527.481	1	9
527.651	1	3
527.821	1	3
527.991	1	-6
528.161	1	6
528.331	1	-10
528.501	1	4
528.671	1	4
528.841	1	10
529.011	1	2
529.181	1	-1
529.352	1	3
529.522	1	0
529.692	1	6
529.862	1	2
530.032	1	-5
530.202	1	-6
530.372	1	3
530.542	1	7
530.712	1	9
530.882	1	-9
531.052	1	2
531.222	1	8
531.392	1	-7
531.563	1	-2
531.733	1	-2
531.903	1	6
532.073	1	4
532.243	1	4
532.413	1	15
532.583	1	-1
532.753	1	-3
532.923	1	6
533.093	1	-11
533.263	1	-2
533.433	1	-1
533.603	1	3
533.773	1	-3
533.943	1	-2
534.113	1	-3
534.284	1	3
534.454	1	0
534.624	1	2
534.794	1	4
534.964	1	7
535.134	1	4
535.304	1	0
535.474	1	7
535.644	1	3
535.814	1	3
535.984	1	12
536.154	1	9
536.324	1	-4
536.494	1	16
536.664	1	-3
536.834	1	0
537.004	1	-1
537.174	1	4
537.344	1	5
537.514	1	2
537.685	1	-1
537.855	1	-1
538.025	1	6
538.195	1	3
538.365	1	-1
538.535	1	5
538.705	1	0
538.875	1	-6
539.045	1	9
539.215	1	-11
539.385	1	0
539.555	1	-6
539.725	1	12
539.895	1	7
540.065	1	1
540.235	1	6
540.405	1	-1
540.575	1	0
540.745	1	0
540.915	1	-4
541.085	1	0
541.255	1	3
541.425	1	0
541.595	1	-1
541.765	1	4
541.935	1	-3
542.105	1	10
542.275	1	-8
542.445	1	-2
542.615	1	4
542.785	1	-4
542.955	1	9
543.125	1	-2
543.295	1	12
543.465	1	8
543.635	1	-6
543.805	1	1
543.975	1	-3
544.145	1	-3
544.315	1	-12
544.485	1	-5
544.655	1	7
544.825	1	1
544.995	1	2
545.165	1	4
545.335	1	2
545.505	1	2
545.675	1	7
545.845	1	7
546.015	1	-9
546.185	1	-7
546.355	1	-1
546.525	1	11
546.695	1	1
546.865	1	11
547.035	1	-3
547.205	1	15
547.375	1	13
547.545	1	-1
547.715	1	-2
547.885	1	-2
548.055	1	1
548.225	1	5
548.395	1	5
548.565	1	8
548.735	1	2
548.905	1	3
549.075	1	-2
549.245	1	-2
549.415	1	0
549.585	1	-2
549.755	1	2
549.925	1	0
550.095	1	-9
550.265	1	4
550.435	1	-2
550.605	1	-4
550.775	1	2
550.945	1	1
551.115	1	12
551.285	1	-3
551.455	1	7
551.625	1	-5
551.795	1	2
551.965	1	-3
552.135	1	-4
552.305	1	5
552.475	1	-4
552.645	1	0
552.815	1	-6
552.985	1	2
553.155	1	0
553.325	1	1
553.495	1	5
553.665	1	1
553.835	1	2
554.004	1	0
554.174	1	-10
554.344	1	7
554.514	1	-1
554.684	1	7
554.854	1	-4
555.024	1	12
555.194	1	-3
555.364	1	5
555.534	1	-15
555.704	1	0
555.874	1	-6
556.044	1	5
556.214	1	-12
556.384	1	0
556.554	1	-7
556.724	1	-3
556.894	1	2
557.064	1	-3
557.234	1	-4
557.404	1	-3
557.573	1	-5
557.743	1	-10
557.913	1	-9
558.083	1	4
558.253	1	5
558.423	1	0
558.593	1	4
558.763	1	-2
558.933	1	-5
559.103	1	-4
559.273	1	-2
559.443	1	-1
559.613	1	-1
559.783	1	3
559.953	1	-7
560.122	1	7
560.292	1	-7
560.462	1	-10
560.632	1	-5
560.802	1	6
560.972	1	-4
561.142	1	3
561.312	1	-3
561.482	1	7
561.652	1	5
561.822	1	1
561.992	1	4
562.162	1	-2
562.331	1	-15
562.501	1	1
562.671	1	-13
562.841	1	-10
563.011	1	6
563.181	1	-12
563.351	1	-12
563.521	1	-2
563.691	1	7
563.861	1	2
564.031	1	-4
564.201	1	-2
564.370	1	1
564.540	1	-6
564.710	1	-3
564.880	1	-2
565.050	1	-6
565.220	1	-4
565.390	1	-6
565.560	1	1
565.730	1	6
565.900	1	-2
566.069	1	15
566.239	1	3
566.409	1	5
566.579	1	-4
566.749	1	-6
566.919	1	-10
567.089	1	-14
567.259	1	5
567.429	1	-6
567.599	1	8
567.768	1	-4
567.938	1	6
568.108	1	-4
568.278	1	2
568.448	1	5
568.618	1	1
568.788	1	8
568.958	1	-5
569.128	1	-3
569.297	1	-12
569.467	1	15
569.637	1	-2
569.807	1	7
569.977	1	1
570.147	1	0
570.317	1	0
570.487	1	-2
570.656	1	0
570.826	1	0
570.996	1	5
571.166	1	0
571.336	1	-6
571.506	1	-1
571.676	1	0
571.846	1	7
572.015	1	0
572.185	1	5
572.355	1	2
572.525	1	-10
572.695	1	1
572.865	1	4
573.035	1	7
573.205	1	3
573.374	1	-4
573.544	1	-3
573.714	1	1
573.884	1	-6
574.054	1	-3
574.224	1	-5
574.394	1	-2
574.563	1	-1
574.733	1	9
574.903	1	-3
575.073	1	6
575.243	1	-2
575.413	1	0
575.583	1	-6
575.752	1	3
575.922	1	7
576.092	1	-8
576.262	1	-7
576.432	1	-1
576.602	1	3
576.772	1	6
576.941	1	2
577.111	1	0
577.281	1	-4
577.451	1	-2
577.621	1	5
577.791	1	0
577.960	1	-6
578.130	1	3
578.300	1	4
578.470	1	1
578.640	1	-10
578.810	1	-4
578.979	1	-2
579.149	1	-1
579.319	1	-6
579.489	1	10
579.659	1	-5
579.829	1	-2
579.998	1	-9
580.168	1	4
580.338	1	3
580.508	1	-2
580.678	1	-7
580.848	1	-2
581.017	1	-6
581.187	1	0
581.357	1	0
581.527	1	0
581.697	1	-1
581.867	1	1
582.036	1	-13
582.206	1	-1
582.376	1	7
582.546	1	1
582.716	1	-1
582.885	1	-1
583.055	1	-16
583.225	1	-7
583.395	1	-5
583.565	1	0
583.735	1	1
583.904	1	2
584.074	1	-1
584.244	1	5
584.414	1	-7
584.584	1	1
584.753	1	-8
584.923	1	-8
585.093	1	0
585.263	1	-10
585.433	1	1
585.602	1	2
585.772	1	12
585.942	1	-2
586.112	1	1
586.282	1	-1
586.451	1	1
586.621	1	-4
586.791	1	-11
586.961	1	-2
587.131	1	0
587.300	1	5
587.470	1	-2
587.640	1	-10
587.810	1	-7
587.980	1	7
588.149	1	12
588.319	1	11
588.489	1	0
588.659	1	-5
588.829	1	4
588.998	1	1
589.168	1	4
589.338	1	-5
589.508	1	-1
589.677	1	-1
589.847	1	0
590.017	1	-4
590.187	1	6
590.357	1	-3
590.526	1	-15
590.696	1	6
590.866	1	-2
591.036	1	-2
591.205	1	2
591.375	1	-5
591.545	1	0
591.715	1	-6
591.885	1	8
592.054	1	3
592.224	1	0
592.394	1	-10
592.564	1	7
592.733	1	1
592.903	1	-9
593.073	1	-1
593.243	1	8
593.412	1	9
593.582	1	-5
593.752	1	-8
593.922	1	6
594.091	1	-2
594.261	1	-6
594.431	1	0
594.601	1	-2
594.771	1	1
594.940	1	-4
595.110	1	1
595.280	1	-9
595.450	1	4
595.619	1	-3
595.789	1	-2
595.959	1	-4
596.129	1	-1
596.298	1	6
596.468	1	-1
596.638	1	1
596.808	1	-10
596.977	1	-11
597.147	1	-2
597.317	1	-8
597.487	1	-2
597.656	1	5
597.826	1	5
597.996	1	-5
598.166	1	-1
598.335	1	-5
598.505	1	2
598.675	1	-3
598.844	1	5
599.014	1	-12
599.184	1	0
599.354	1	15
599.523	1	4
599.693	1	-1
599.863	1	-4
600.033	1	-4
600.202	1	-1
600.372	1	-6
600.542	1	-2
600.712	1	0
600.881	1	6
601.051	1	0
601.221	1	2
601.390	1	4
601.560	1	3
601.730	1	10
601.900	1	5
602.069	1	-2
602.239	1	-3
602.409	1	1
602.578	1	9
602.748	1	6
602.918	1	-6
603.088	1	1
603.257	1	-13
603.427	1	2
603.597	1	-7
603.767	1	3
603.936	1	4
604.106	1	2
604.276	1	5
604.445	1	-4
604.615	1	-1
604.785	1	4
604.954	1	-2
605.124	1	-6
605.294	1	-8
605.464	1	-8
605.633	1	11
605.803	1	-1
605.973	1	0
606.142	1	6
606.312	1	12
606.482	1	2
606.652	1	2
606.821	1	1
606.991	1	-1
607.161	1	2
607.330	1	-2
607.500	1	2
607.670	1	0
607.839	1	-9
608.009	1	3
608.179	1	5
608.348	1	-3
608.518	1	10
608.688	1	-5
608.858	1	-3
609.027	1	9
609.197	1	-4
609.367	1	-7
609.536	1	-3
609.706	1	7
609.876	1	4
610.045	1	2
610.215	1	3
610.385	1	7
610.554	1	-8
610.724	1	-8
610.894	1	-3
611.063	1	-1
611.233	1	6
611.403	1	6
611.572	1	3
611.742	1	3
611.912	1	3
612.081	1	1
612.251	1	3
612.421	1	-11
612.590	1	2
612.760	1	-5
612.930	1	6
613.099	1	0
613.269	1	0
613.439	1	-5
613.608	1	-4
613.778	1	-5
613.948	1	6
614.117	1	-2
614.287	1	-1
614.457	1	-1
614.626	1	-8
614.796	1	0
614.966	1	1
615.135	1	13
615.305	1	3
615.475	1	5
615.644	1	8
615.814	1	5
615.984	1	-11
616.153	1	-1
616.323	1	-10
616.493	1	3
616.662	1	-2
616.832	1	9
617.002	1	3
617.171	1	3
617.341	1	8
617.511	1	-11
617.680	1	-5
617.850	1	-1
618.019	1	-5
618.189	1	11
618.359	1	-2
618.528	1	-2
618.698	1	5
618.868	1	4
619.037	1	-5
619.207	1	-6
619.377	1	-5
619.546	1	4
619.716	1	-7
619.885	1	6
620.055	1	-5
620.225	1	3
620.394	1	-3
620.564	1	14
620.734	1	-3
620.903	1	-2
621.073	1	-6
621.242	1	6
621.412	1	-2
621.582	1	2
621.751	1	-5
621.921	1	1
622.091	1	-10
622.260	1	3
622.430	1	2
622.599	1	-3
622.769	1	-9
622.939	1	-10
623.108	1	6
623.278	1	-3
623.448	1	-6
623.617	1	9
623.787	1	-2
623.956	1	1
624.126	1	-2
624.296	1	4
624.465	1	0
624.635	1	-1
624.804	1	-7
624.974	1	1
625.144	1	-5
625.313	1	14
625.483	1	1
625.652	1	0
625.822	1	3
625.992	1	-5
626.161	1	-3
626.331	1	-8
626.501	1	1
626.670	1	0
626.840	1	4
627.009	1	1
627.179	1	8
627.348	1	4
627.518	1	12
627.688	1	0
627.857	1	9
628.027	1	9
628.196	1	3
628.366	1	-8
628.536	1	0
628.705	1	-2
628.875	1	-3
629.044	1	-2
629.214	1	1
629.384	1	0
629.553	1	-4
629.723	1	8
629.892	1	10
630.062	1	0
630.232	1	10
630.401	1	11
630.571	1	0
630.740	1	4
630.910	1	10
631.079	1	-4
631.249	1	2
631.419	1	0
631.588	1	1
631.758	1	-10
631.927	1	2
632.097	1	-14
632.266	1	6
632.436	1	0
632.606	1	-2
632.775	1	1
632.945	1	-9
633.114	1	-5
633.284	1	-2
633.453	1	0
633.623	1	23
633.793	1	1
633.962	1	1
634.132	1	-6
634.301	1	9
634.471	1	-3
634.640	1	6
634.810	1	7
634.979	1	-4
635.149	1	2
635.319	1	-1
635.488	1	8
635.658	1	-1
635.827	1	0
635.997	1	2
636.166	1	0
636.336	1	-4
636.505	1	8
636.675	1	3
636.845	1	-4
637.014	1	-3
637.184	1	6
637.353	1	-6
637.523	1	-7
637.692	1	-5
637.862	1	-4
638.031	1	1
638.201	1	2
638.370	1	0
638.540	1	0
638.710	1	-11
638.879	1	-7
639.049	1	-8
639.218	1	11
639.388	1	-4
639.557	1	2
639.727	1	1
639.896	1	1
640.066	1	-6
640.235	1	0
640.405	1	0
640.574	1	1
640.744	1	-7
640.914	1	-4
641.083	1	7
641.253	1	-4
641.422	1	-3
641.592	1	8
641.761	1	1
641.931	1	13
642.100	1	-13
642.270	1	-3
642.439	1	-1
642.609	1	4
642.778	1	-5
642.948	1	7
643.117	1	17
643.287	1	2
643.456	1	-7
643.626	1	2
643.795	1	-2
643.965	1	-5
644.134	1	-5
644.304	1	2
644.473	1	-2
644.643	1	8
644.812	1	-9
644.982	1	4
645.151	1	-4
645.321	1	2
645.490	1	2
645.660	1	-12
645.829	1	-5
645.999	1	-6
646.168	1	14
646.338	1	0
646.507	1	-4
646.677	1	10
646.846	1	-5
647.016	1	9
647.185	1	2
647.355	1	7
647.524	1	2
647.694	1	-11
647.863	1	-18
648.033	1	-5
648.202	1	4
648.372	1	-3
648.541	1	3
648.711	1	9
648.880	1	8
649.050	1	13
649.219	1	3
649.389	1	-5
649.558	1	12
649.728	1	3
649.897	1	6
650.067	1	5
650.236	1	-6
650.406	1	-5
650.575	1	-6
650.745	1	5
650.914	1	7
651.084	1	5
651.253	1	-6
651.423	1	-3
651.592	1	-1
651.762	1	-2
651.931	1	8
652.101	1	-2
652.270	1	-1
652.440	1	6
652.609	1	12
652.778	1	-1
652.948	1	-4
653.117	1	1
653.287	1	-6
653.456	1	8
653.626	1	4
653.795	1	2
653.965	1	-9
654.134	1	-14
654.304	1	-4
654.473	1	-2
654.643	1	-6
654.812	1	10
654.982	1	-5
655.151	1	11
655.320	1	-6
655.490	1	-6
655.659	1	-2
655.829	1	10
655.998	1	-3
656.168	1	-1
656.337	1	-2
656.507	1	-3
656.676	1	3
656.846	1	-4
657.015	1	12
657.184	1	2
657.354	1	1
657.523	1	-2
657.693	1	1
657.862	1	0
658.032	1	-6
658.201	1	-6
658.371	1	-4
658.540	1	-16
658.709	1	6
658.879	1	10
659.048	1	8
659.218	1	3
659.387	1	4
659.557	1	5
659.726	1	4
659.895	1	-2
660.065	1	-9
660.234	1	0
660.404	1	-2
660.573	1	0
660.743	1	-7
660.912	1	0
661.081	1	-6
661.251	1	-6
661.420	1	7
661.590	1	1
661.759	1	12
661.929	1	1
662.098	1	-3
662.267	1	-10
662.437	1	-3
662.606	1	-2
662.776	1	-6
662.945	1	8
663.115	1	12
663.284	1	5
663.453	1	-7
663.623	1	-8
663.792	1	0
663.962	1	2
664.131	1	-5
664.300	1	-4
664.470	1	-2
664.639	1	-3
664.809	1	-1
664.978	1	16
665.148	1	-4
665.317	1	2
665.486	1	-2
665.656	1	-1
665.825	1	8
665.995	1	-5
666.164	1	-9
666.333	1	-1
666.503	1	-1
666.672	1	10
666.842	1	4
667.011	1	0
667.180	1	7
667.350	1	9
667.519	1	-3
667.689	1	5
667.858	1	7
668.027	1	-1
668.197	1	-6
668.366	1	-2
668.536	1	-2
668.705	1	-8
668.874	1	4
669.044	1	7
669.213	1	4
669.382	1	1
669.552	1	-1
669.721	1	-10
669.891	1	1
670.060	1	5
670.229	1	0
670.399	1	2
670.568	1	8
670.738	1	1
670.907	1	5
671.076	1	-1
671.246	1	1
671.415	1	9
671.584	1	3
671.754	1	-4
671.923	1	-3
672.093	1	11
672.262	1	4
672.431	1	-4
672.601	1	1
672.770	1	-8
672.939	1	17
673.109	1	-2
673.278	1	7
673.448	1	-3
673.617	1	7
673.786	1	-8
