325.333	1	3
325.504	1	-8
325.675	1	7
325.846	1	4
326.017	1	-5
326.188	1	-8
326.359	1	2
326.531	1	-3
326.702	1	-1
326.873	1	3
327.044	1	14
327.215	1	-3
327.386	1	-4
327.557	1	-1
327.728	1	-4
327.899	1	-1
328.070	1	8
328.241	1	3
328.412	1	-6
328.583	1	3
328.754	1	10
328.926	1	13
329.097	1	-7
329.268	1	-12
329.439	1	9
329.610	1	4
329.781	1	-2
329.952	1	6
330.123	1	0
330.294	1	-7
330.465	1	-5
330.636	1	1
330.807	1	0
330.978	1	-12
331.149	1	-3
331.320	1	5
331.492	1	-3
331.663	1	0
331.834	1	7
332.005	1	9
332.176	1	2
332.347	1	-2
332.518	1	13
332.689	1	2
332.860	1	-6
333.031	1	7
333.202	1	-5
333.373	1	3
333.544	1	0
333.715	1	4
333.886	1	1
334.057	1	-6
334.228	1	8
334.399	1	7
334.570	1	3
334.741	1	3
334.912	1	2
335.084	1	9
335.255	1	9
335.426	1	0
335.597	1	4
335.768	1	3
335.939	1	0
336.110	1	2
336.281	1	-1
336.452	1	13
336.623	1	3
336.794	1	1
336.965	1	-2
337.136	1	9
337.307	1	4
337.478	1	-1
337.649	1	-4
337.820	1	1
337.991	1	0
338.162	1	5
338.333	1	0
338.504	1	7
338.675	1	1
338.846	1	-6
339.017	1	1
339.188	1	-3
339.359	1	-1
339.530	1	-2
339.701	1	4
339.872	1	9
340.043	1	1
340.214	1	5
340.385	1	-5
340.556	1	13
340.727	1	11
340.898	1	3
341.069	1	1
341.240	1	0
341.411	1	1
341.582	1	-9
341.753	1	-2
341.924	1	10
342.095	1	-6
342.266	1	11
342.437	1	7
342.608	1	4
342.779	1	1
342.950	1	-3
343.121	1	1
343.292	1	8
343.463	1	11
343.634	1	-1
343.805	1	3
343.976	1	12
344.147	1	11
344.318	1	-8
344.489	1	-1
344.660	1	13
344.831	1	16
345.002	1	2
345.173	1	-1
345.344	1	-5
345.515	1	4
345.686	1	11
345.857	1	16
346.028	1	2
346.199	1	8
346.370	1	4
346.541	1	-3
346.712	1	3
346.883	1	-7
347.054	1	14
347.225	1	-5
347.396	1	5
347.567	1	-2
347.738	1	12
347.909	1	2
348.080	1	7
348.251	1	9
348.422	1	12
348.593	1	6
348.764	1	8
348.935	1	9
349.106	1	-3
349.277	1	-3
349.448	1	16
349.619	1	8
349.790	1	2
349.961	1	2
350.132	1	10
350.303	1	1
350.474	1	4
350.645	1	2
350.816	1	4
350.987	1	15
351.157	1	6
351.328	1	5
351.499	1	-2
351.670	1	3
351.841	1	5
352.012	1	5
352.183	1	6
352.354	1	1
352.525	1	6
352.696	1	-2
352.867	1	10
353.038	1	10
353.209	1	1
353.380	1	3
353.551	1	14
353.722	1	10
353.893	1	9
354.064	1	9
354.235	1	4
354.406	1	-7
354.576	1	2
354.747	1	6
354.918	1	4
355.089	1	12
355.260	1	0
355.431	1	-7
355.602	1	8
355.773	1	-4
355.944	1	-2
356.115	1	9
356.286	1	12
356.457	1	6
356.628	1	4
356.799	1	6
356.970	1	9
357.141	1	7
357.311	1	23
357.482	1	0
357.653	1	-1
357.824	1	5
357.995	1	13
358.166	1	7
358.337	1	-1
358.508	1	12
358.679	1	-7
358.850	1	8
359.021	1	5
359.192	1	10
359.363	1	4
359.533	1	0
359.704	1	2
359.875	1	-2
360.046	1	6
360.217	1	5
360.388	1	9
360.559	1	14
360.730	1	4
360.901	1	5
361.072	1	12
361.243	1	12
361.414	1	12
361.584	1	2
361.755	1	11
361.926	1	14
362.097	1	-3
362.268	1	14
362.439	1	-1
362.610	1	12
362.781	1	1
362.952	1	15
363.123	1	-2
363.293	1	8
363.464	1	8
363.635	1	12
363.806	1	9
363.977	1	9
364.148	1	0
364.319	1	0
364.490	1	17
364.661	1	9
364.832	1	7
365.002	1	8
365.173	1	14
365.344	1	-2
365.515	1	14
365.686	1	4
365.857	1	14
366.028	1	7
366.199	1	13
366.370	1	7
366.540	1	0
366.711	1	2
366.882	1	14
367.053	1	4
367.224	1	16
367.395	1	7
367.566	1	12
367.737	1	6
367.908	1	6
368.078	1	6
368.249	1	5
368.420	1	8
368.591	1	5
368.762	1	9
368.933	1	4
369.104	1	9
369.274	1	13
369.445	1	11
369.616	1	0
369.787	1	13
369.958	1	8
370.129	1	8
370.300	1	-3
370.471	1	3
370.641	1	9
370.812	1	20
370.983	1	3
371.154	1	13
371.325	1	-3
371.496	1	5
371.667	1	13
371.837	1	4
372.008	1	-3
372.179	1	3
372.350	1	4
372.521	1	17
372.692	1	16
372.863	1	10
373.033	1	10
373.204	1	2
373.375	1	9
373.546	1	15
373.717	1	12
373.888	1	8
374.059	1	11
374.229	1	9
374.400	1	8
374.571	1	6
374.742	1	14
374.913	1	-2
375.084	1	4
375.254	1	-4
375.425	1	4
375.596	1	5
375.767	1	9
375.938	1	-5
376.109	1	4
376.279	1	9
376.450	1	9
376.621	1	16
376.792	1	9
376.963	1	-1
377.134	1	7
377.304	1	14
377.475	1	2
377.646	1	-5
377.817	1	6
377.988	1	5
378.159	1	8
378.329	1	7
378.500	1	20
378.671	1	5
378.842	1	2
379.013	1	6
379.184	1	1
379.354	1	13
379.525	1	14
379.696	1	9
379.867	1	15
380.038	1	7
380.209	1	21
380.379	1	9
380.550	1	6
380.721	1	5
380.892	1	8
381.063	1	3
381.233	1	10
381.404	1	7
381.575	1	1
381.746	1	8
381.917	1	15
382.087	1	16
382.258	1	9
382.429	1	13
382.600	1	7
382.771	1	9
382.941	1	18
383.112	1	7
383.283	1	15
383.454	1	6
383.625	1	9
383.795	1	20
383.966	1	8
384.137	1	20
384.308	1	18
384.479	1	12
384.649	1	0
384.820	1	6
384.991	1	9
385.162	1	14
385.333	1	5
385.503	1	8
385.674	1	13
385.845	1	9
386.016	1	13
386.187	1	-7
386.357	1	18
386.528	1	8
386.699	1	3
386.870	1	5
387.041	1	12
387.211	1	10
387.382	1	15
387.553	1	20
387.724	1	7
387.894	1	3
388.065	1	18
388.236	1	5
388.407	1	11
388.578	1	1
388.748	1	-2
388.919	1	15
389.090	1	20
389.261	1	22
389.431	1	9
389.602	1	8
389.773	1	11
389.944	1	9
390.114	1	11
390.285	1	11
390.456	1	7
390.627	1	7
390.798	1	3
390.968	1	24
391.139	1	8
391.310	1	6
391.481	1	5
391.651	1	12
391.822	1	22
391.993	1	16
392.164	1	10
392.334	1	3
392.505	1	12
392.676	1	9
392.847	1	19
393.017	1	22
393.188	1	18
393.359	1	21
393.530	1	28
393.700	1	7
393.871	1	18
394.042	1	6
394.213	1	16
394.383	1	11
394.554	1	17
394.725	1	3
394.896	1	23
395.066	1	11
395.237	1	16
395.408	1	13
395.579	1	13
395.749	1	11
395.920	1	9
396.091	1	6
396.262	1	5
396.432	1	0
396.603	1	8
396.774	1	8
396.945	1	19
397.115	1	15
397.286	1	17
397.457	1	5
397.627	1	2
397.798	1	3
397.969	1	3
398.140	1	8
398.310	1	13
398.481	1	9
398.652	1	8
398.823	1	6
398.993	1	11
399.164	1	9
399.335	1	5
399.505	1	3
399.676	1	9
399.847	1	1
400.018	1	10
400.188	1	16
400.359	1	25
400.530	1	11
400.700	1	13
400.871	1	12
401.042	1	6
401.213	1	12
401.383	1	12
401.554	1	13
401.725	1	12
401.895	1	2
402.066	1	9
402.237	1	12
402.408	1	8
402.578	1	18
402.749	1	13
402.920	1	24
403.090	1	9
403.261	1	6
403.432	1	4
403.603	1	18
403.773	1	17
403.944	1	13
404.115	1	12
404.285	1	22
404.456	1	22
404.627	1	22
404.797	1	9
404.968	1	15
405.139	1	10
405.310	1	14
405.480	1	7
405.651	1	16
405.822	1	8
405.992	1	17
406.163	1	-7
406.334	1	9
406.504	1	9
406.675	1	2
406.846	1	18
407.016	1	19
407.187	1	22
407.358	1	-2
407.528	1	11
407.699	1	7
407.870	1	16
408.041	1	3
408.211	1	15
408.382	1	18
408.553	1	12
408.723	1	17
408.894	1	18
409.065	1	19
409.235	1	15
409.406	1	13
409.577	1	14
409.747	1	14
409.918	1	23
410.089	1	22
410.259	1	11
410.430	1	14
410.601	1	14
410.771	1	25
410.942	1	8
411.113	1	18
411.283	1	13
411.454	1	21
411.625	1	11
411.795	1	20
411.966	1	16
412.137	1	25
412.307	1	14
412.478	1	9
412.649	1	2
412.819	1	15
412.990	1	21
413.161	1	15
413.331	1	14
413.502	1	10
413.672	1	10
413.843	1	11
414.014	1	9
414.184	1	15
414.355	1	17
414.526	1	13
414.696	1	13
414.867	1	-4
415.038	1	6
415.208	1	2
415.379	1	9
415.550	1	18
415.720	1	9
415.891	1	17
416.062	1	20
416.232	1	21
416.403	1	22
416.573	1	11
416.744	1	17
416.915	1	17
417.085	1	14
417.256	1	13
417.427	1	12
417.597	1	5
417.768	1	9
417.939	1	6
418.109	1	16
418.280	1	12
418.450	1	19
418.621	1	12
418.792	1	3
418.962	1	25
419.133	1	15
419.304	1	12
419.474	1	21
419.645	1	16
419.815	1	5
419.986	1	13
420.157	1	3
420.327	1	1
420.498	1	5
420.669	1	20
420.839	1	20
421.010	1	11
421.180	1	4
421.351	1	7
421.522	1	24
421.692	1	20
421.863	1	11
422.033	1	16
422.204	1	18
422.375	1	19
422.545	1	10
422.716	1	4
422.886	1	19
423.057	1	6
423.228	1	16
423.398	1	10
423.569	1	1
423.740	1	3
423.910	1	17
424.081	1	15
424.251	1	13
424.422	1	18
424.593	1	20
424.763	1	28
424.934	1	14
425.104	1	22
425.275	1	12
425.445	1	11
425.616	1	22
425.787	1	16
425.957	1	9
426.128	1	17
426.298	1	21
426.469	1	6
426.640	1	9
426.810	1	-3
426.981	1	19
427.151	1	10
427.322	1	8
427.493	1	13
427.663	1	15
427.834	1	9
428.004	1	15
428.175	1	16
428.345	1	0
428.516	1	18
428.687	1	24
428.857	1	19
429.028	1	4
429.198	1	13
429.369	1	11
429.540	1	15
429.710	1	17
429.881	1	9
430.051	1	7
430.222	1	15
430.392	1	13
430.563	1	5
430.734	1	17
430.904	1	19
431.075	1	15
431.245	1	8
431.416	1	24
431.586	1	3
431.757	1	17
431.927	1	6
432.098	1	23
432.269	1	8
432.439	1	5
432.610	1	22
432.780	1	11
432.951	1	10
433.121	1	11
433.292	1	27
433.462	1	8
433.633	1	13
433.804	1	9
433.974	1	16
434.145	1	10
434.315	1	3
434.486	1	6
434.656	1	18
434.827	1	8
434.997	1	18
435.168	1	5
435.339	1	18
435.509	1	7
435.680	1	14
435.850	1	1
436.021	1	4
436.191	1	7
436.362	1	9
436.532	1	23
436.703	1	11
436.873	1	2
437.044	1	13
437.214	1	0
437.385	1	11
437.556	1	14
437.726	1	8
437.897	1	11
438.067	1	22
438.238	1	21
438.408	1	21
438.579	1	3
438.749	1	8
438.920	1	26
439.090	1	8
439.261	1	15
439.431	1	-4
439.602	1	10
439.772	1	18
439.943	1	5
440.113	1	12
440.284	1	17
440.455	1	8
440.625	1	14
440.796	1	0
440.966	1	5
441.137	1	17
441.307	1	3
441.478	1	7
441.648	1	5
441.819	1	13
441.989	1	16
442.160	1	15
442.330	1	12
442.501	1	9
442.671	1	12
442.842	1	5
443.012	1	10
443.183	1	3
443.353	1	12
443.524	1	8
443.694	1	8
443.865	1	16
444.035	1	7
444.206	1	10
444.376	1	9
444.547	1	7
444.717	1	8
444.888	1	-1
445.058	1	11
445.229	1	19
445.399	1	12
445.570	1	7
445.740	1	5
445.911	1	13
446.081	1	12
446.252	1	6
446.422	1	2
446.593	1	12
446.763	1	12
446.934	1	11
447.104	1	10
447.275	1	9
447.445	1	1
447.616	1	9
447.786	1	3
447.957	1	1
448.127	1	8
448.298	1	11
448.468	1	13
448.639	1	10
448.809	1	5
448.979	1	11
449.150	1	4
449.320	1	12
449.491	1	7
449.661	1	0
449.832	1	-2
450.002	1	11
450.173	1	14
450.343	1	4
450.514	1	14
450.684	1	6
450.855	1	16
451.025	1	7
451.196	1	5
451.366	1	18
451.537	1	21
451.707	1	14
451.878	1	6
452.048	1	4
452.218	1	7
452.389	1	17
452.559	1	16
452.730	1	13
452.900	1	10
453.071	1	15
453.241	1	11
453.412	1	7
453.582	1	11
453.753	1	11
453.923	1	2
454.093	1	7
454.264	1	16
454.434	1	14
454.605	1	9
454.775	1	12
454.946	1	4
455.116	1	11
455.287	1	-2
455.457	1	11
455.628	1	-2
455.798	1	7
455.968	1	6
456.139	1	15
456.309	1	13
456.480	1	9
456.650	1	3
456.821	1	2
456.991	1	6
457.161	1	16
457.332	1	-1
457.502	1	11
457.673	1	8
457.843	1	13
458.014	1	5
458.184	1	6
458.355	1	2
458.525	1	0
458.695	1	3
458.866	1	-6
459.036	1	5
459.207	1	8
459.377	1	13
459.548	1	12
459.718	1	0
459.888	1	5
460.059	1	6
460.229	1	2
460.400	1	1
460.570	1	1
460.740	1	13
460.911	1	5
461.081	1	19
461.252	1	14
461.422	1	12
461.593	1	5
461.763	1	17
461.933	1	2
462.104	1	-4
462.274	1	-4
462.445	1	2
462.615	1	16
462.785	1	11
462.956	1	0
463.126	1	1
463.297	1	10
463.467	1	9
463.638	1	15
463.808	1	2
463.978	1	1
464.149	1	7
464.319	1	16
464.490	1	5
464.660	1	7
464.830	1	1
465.001	1	10
465.171	1	0
465.342	1	5
465.512	1	11
465.682	1	1
465.853	1	2
466.023	1	8
466.194	1	16
466.364	1	8
466.534	1	1
466.705	1	17
466.875	1	-1
467.045	1	-4
467.216	1	11
467.386	1	7
467.557	1	12
467.727	1	7
467.897	1	11
468.068	1	-3
468.238	1	8
468.409	1	3
468.579	1	8
468.749	1	7
468.920	1	4
469.090	1	6
469.260	1	12
469.431	1	4
469.601	1	7
469.772	1	10
469.942	1	19
470.112	1	6
470.283	1	2
470.453	1	15
470.623	1	8
470.794	1	6
470.964	1	-8
471.135	1	4
471.305	1	10
471.475	1	10
471.646	1	5
471.816	1	9
471.986	1	10
472.157	1	12
472.327	1	1
472.497	1	7
472.668	1	5
472.838	1	4
473.009	1	7
473.179	1	1
473.349	1	-1
473.520	1	10
473.690	1	8
473.860	1	-2
474.031	1	-5
474.201	1	2
474.371	1	14
474.542	1	-3
474.712	1	-3
474.882	1	7
475.053	1	10
475.223	1	4
475.394	1	8
475.564	1	7
475.734	1	-5
475.905	1	14
476.075	1	13
476.245	1	6
476.416	1	0
476.586	1	6
476.756	1	2
476.927	1	7
477.097	1	-4
477.267	1	10
477.438	1	16
477.608	1	15
477.778	1	4
477.949	1	3
478.119	1	2
478.289	1	4
478.460	1	4
478.630	1	0
478.800	1	2
478.971	1	11
479.141	1	6
479.311	1	6
479.482	1	3
479.652	1	9
479.822	1	-6
479.993	1	-3
480.163	1	7
480.333	1	6
480.504	1	0
480.674	1	3
480.844	1	11
481.015	1	13
481.185	1	12
481.355	1	4
481.525	1	-2
481.696	1	7
481.866	1	5
482.036	1	5
482.207	1	10
482.377	1	-11
482.547	1	7
482.718	1	11
482.888	1	18
483.058	1	1
483.229	1	2
483.399	1	4
483.569	1	-6
483.740	1	5
483.910	1	3
484.080	1	4
484.250	1	-3
484.421	1	3
484.591	1	12
484.761	1	9
484.932	1	2
485.102	1	13
485.272	1	4
485.443	1	10
485.613	1	4
485.783	1	-1
485.953	1	7
486.124	1	-3
486.294	1	12
486.464	1	7
486.635	1	1
486.805	1	7
486.975	1	-1
487.146	1	-1
487.316	1	3
487.486	1	13
487.656	1	8
487.827	1	-4
487.997	1	1
488.167	1	4
488.338	1	3
488.508	1	7
488.678	1	1
488.848	1	14
489.019	1	-3
489.189	1	12
489.359	1	3
489.529	1	17
489.700	1	3
489.870	1	9
490.040	1	-7
490.211	1	4
490.381	1	2
490.551	1	11
490.721	1	6
490.892	1	-7
491.062	1	1
491.232	1	-1
491.402	1	0
491.573	1	8
491.743	1	3
491.913	1	4
492.084	1	5
492.254	1	-6
492.424	1	2
492.594	1	3
492.765	1	8
492.935	1	12
493.105	1	0
493.275	1	-3
493.446	1	-2
493.616	1	-9
493.786	1	11
493.956	1	3
494.127	1	-4
494.297	1	-7
494.467	1	-2
494.637	1	0
494.808	1	10
494.978	1	2
495.148	1	0
495.318	1	7
495.489	1	-5
495.659	1	4
495.829	1	5
495.999	1	9
496.170	1	4
496.340	1	0
496.510	1	10
496.680	1	5
496.851	1	0
497.021	1	-4
497.191	1	15
497.361	1	-5
497.532	1	3
497.702	1	5
497.872	1	3
498.042	1	-12
498.213	1	-7
498.383	1	1
498.553	1	1
498.723	1	1
498.894	1	5
499.064	1	2
499.234	1	5
499.404	1	7
499.574	1	12
499.745	1	-5
499.915	1	3
500.085	1	-7
500.255	1	-13
500.426	1	-1
500.596	1	2
500.766	1	1
500.936	1	5
501.106	1	-2
501.277	1	-7
501.447	1	2
501.617	1	1
501.787	1	-8
501.958	1	4
502.128	1	6
502.298	1	1
502.468	1	-3
502.638	1	15
502.809	1	0
502.979	1	15
503.149	1	4
503.319	1	17
503.489	1	-4
503.660	1	1
503.830	1	0
504.000	1	-1
504.170	1	-2
504.340	1	-7
504.511	1	-4
504.681	1	5
504.851	1	2
505.021	1	5
505.192	1	-14
505.362	1	5
505.532	1	-2
505.702	1	10
505.872	1	-6
506.043	1	14
506.213	1	11
506.383	1	7
506.553	1	0
506.723	1	-10
506.893	1	-3
507.064	1	10
507.234	1	-3
507.404	1	-3
507.574	1	8
507.744	1	5
507.915	1	1
508.085	1	-2
508.255	1	1
508.425	1	4
508.595	1	-3
508.766	1	-8
508.936	1	6
509.106	1	5
509.276	1	6
509.446	1	-2
509.616	1	0
509.787	1	-3
509.957	1	1
510.127	1	3
510.297	1	-6
510.467	1	-7
510.638	1	8
510.808	1	10
510.978	1	-4
511.148	1	2
511.318	1	-4
511.488	1	4
511.659	1	-1
511.829	1	-10
511.999	1	0
512.169	1	5
512.339	1	6
512.509	1	-5
512.680	1	-2
512.850	1	8
513.020	1	1
513.190	1	-12
513.360	1	5
513.530	1	3
513.700	1	1
513.871	1	7
514.041	1	-2
514.211	1	12
514.381	1	-1
514.551	1	0
514.721	1	4
514.892	1	1
515.062	1	5
515.232	1	-1
515.402	1	-5
515.572	1	1
515.742	1	0
515.912	1	4
516.083	1	5
516.253	1	6
516.423	1	1
516.593	1	7
516.763	1	7
516.933	1	1
517.104	1	-2
517.274	1	1
517.444	1	7
517.614	1	-2
517.784	1	-1
517.954	1	1
518.124	1	1
518.294	1	10
518.465	1	2
518.635	1	5
518.805	1	4
518.975	1	4
519.145	1	-3
519.315	1	1
519.485	1	0
519.656	1	-4
519.826	1	-9
519.996	1	3
520.166	1	2
520.336	1	6
520.506	1	5
520.676	1	2
520.846	1	-3
521.017	1	-7
521.187	1	1
521.357	1	0
521.527	1	-1
521.697	1	-3
521.867	1	12
522.037	1	1
522.207	1	6
522.377	1	-6
522.548	1	-8
522.718	1	2
522.888	1	2
523.058	1	11
523.228	1	-10
523.398	1	-1
523.568	1	-9
523.738	1	0
523.909	1	-4
524.079	1	-5
524.249	1	-2
524.419	1	8
524.589	1	4
524.759	1	5
524.929	1	3
525.099	1	-10
525.269	1	-1
525.439	1	-5
525.610	1	10
525.780	1	-4
525.950	1	10
526.120	1	-7
526.290	1	-7
526.460	1	-7
526.630	1	-4
526.800	1	-4
526.970	1	3
527.140	1	-2
527.311	1	3
527.481	1	3
527.651	1	-5
527.821	1	-7
527.991	1	-3
528.161	1	7
528.331	1	3
528.501	1	-1
528.671	1	5
528.841	1	7
529.011	1	1
529.181	1	-2
529.352	1	5
529.522	1	1
529.692	1	-8
529.862	1	-5
530.032	1	-2
530.202	1	-4
530.372	1	6
530.542	1	-3
530.712	1	4
530.882	1	1
531.052	1	0
531.222	1	-2
531.392	1	0
531.563	1	0
531.733	1	-1
531.903	1	-1
532.073	1	11
532.243	1	10
532.413	1	14
532.583	1	4
532.753	1	-9
532.923	1	4
533.093	1	-5
533.263	1	-3
533.433	1	-11
533.603	1	-2
533.773	1	-3
533.943	1	2
534.113	1	-7
534.284	1	7
534.454	1	0
534.624	1	9
534.794	1	-4
534.964	1	6
535.134	1	-7
535.304	1	7
535.474	1	5
535.644	1	9
535.814	1	-3
535.984	1	3
536.154	1	-2
536.324	1	2
536.494	1	8
536.664	1	-2
536.834	1	-4
537.004	1	-3
537.174	1	4
537.344	1	2
537.514	1	-1
537.685	1	3
537.855	1	10
538.025	1	5
538.195	1	-5
538.365	1	1
538.535	1	-1
538.705	1	0
538.875	1	0
539.045	1	6
539.215	1	-5
539.385	1	17
539.555	1	0
539.725	1	1
539.895	1	2
540.065	1	0
540.235	1	-2
540.405	1	7
540.575	1	2
540.745	1	6
540.915	1	6
541.085	1	-2
541.255	1	-4
541.425	1	0
541.595	1	-2
541.765	1	-1
541.935	1	-2
542.105	1	-4
542.275	1	4
542.445	1	3
542.615	1	5
542.785	1	-3
542.955	1	8
543.125	1	-6
543.295	1	3
543.465	1	2
543.635	1	-6
543.805	1	7
543.975	1	8
544.145	1	-4
544.315	1	-10
544.485	1	-3
544.655	1	11
544.825	1	6
544.995	1	-2
545.165	1	-6
545.335	1	2
545.505	1	-11
545.675	1	-4
545.845	1	9
546.015	1	-10
546.185	1	-3
546.355	1	-1
546.525	1	3
546.695	1	8
546.865	1	7
547.035	1	9
547.205	1	10
547.375	1	4
547.545	1	2
547.715	1	7
547.885	1	-10
548.055	1	-5
548.225	1	13
548.395	1	0
548.565	1	0
548.735	1	-7
548.905	1	3
549.075	1	7
549.245	1	8
549.415	1	-3
549.585	1	-5
549.755	1	3
549.925	1	-5
550.095	1	-11
550.265	1	1
550.435	1	0
550.605	1	6
550.775	1	-3
550.945	1	0
551.115	1	-3
551.285	1	2
551.455	1	-2
551.625	1	-3
551.795	1	-4
551.965	1	-4
552.135	1	-6
552.305	1	4
552.475	1	-4
552.645	1	-1
552.815	1	-3
552.985	1	3
553.155	1	-7
553.325	1	-1
553.495	1	-2
553.665	1	3
553.835	1	-3
554.004	1	0
554.174	1	-5
554.344	1	10
554.514	1	-4
554.684	1	8
554.854	1	-17
555.024	1	-1
555.194	1	-1
555.364	1	-7
555.534	1	-12
555.704	1	1
555.874	1	5
556.044	1	5
556.214	1	3
556.384	1	8
556.554	1	4
556.724	1	3
556.894	1	0
557.064	1	3
557.234	1	1
557.404	1	-5
557.573	1	-2
557.743	1	-1
557.913	1	-4
558.083	1	2
558.253	1	0
558.423	1	0
558.593	1	-5
558.763	1	-1
558.933	1	-4
559.103	1	5
559.273	1	2
559.443	1	10
559.613	1	6
559.783	1	0
559.953	1	-5
560.122	1	8
560.292	1	-12
560.462	1	-7
560.632	1	-3
560.802	1	8
560.972	1	-13
561.142	1	0
561.312	1	-2
561.482	1	7
561.652	1	3
561.822	1	-3
561.992	1	6
562.162	1	-6
562.331	1	-11
562.501	1	0
562.671	1	2
562.841	1	-9
563.011	1	10
563.181	1	1
563.351	1	-6
563.521	1	-3
563.691	1	-6
563.861	1	-1
564.031	1	3
564.201	1	-12
564.370	1	4
564.540	1	0
564.710	1	-3
564.880	1	1
565.050	1	3
565.220	1	7
565.390	1	-3
565.560	1	-5
565.730	1	4
565.900	1	10
566.069	1	0
566.239	1	8
566.409	1	6
566.579	1	5
566.749	1	-2
566.919	1	-3
567.089	1	-7
567.259	1	3
567.429	1	-5
567.599	1	6
567.768	1	-4
567.938	1	1
568.108	1	1
568.278	1	-2
568.448	1	-1
568.618	1	1
568.788	1	8
568.958	1	3
569.128	1	-5
569.297	1	0
569.467	1	1
569.637	1	-4
569.807	1	5
569.977	1	-8
570.147	1	4
570.317	1	5
570.487	1	3
570.656	1	8
570.826	1	5
570.996	1	4
571.166	1	2
571.336	1	-9
571.506	1	-2
571.676	1	9
571.846	1	10
572.015	1	-3
572.185	1	-8
572.355	1	-4
572.525	1	-19
572.695	1	-5
572.865	1	3
573.035	1	5
573.205	1	-3
573.374	1	-6
573.544	1	1
573.714	1	-3
573.884	1	-6
574.054	1	-1
574.224	1	6
574.394	1	-2
574.563	1	-1
574.733	1	-4
574.903	1	-1
575.073	1	2
575.243	1	-7
575.413	1	-9
575.583	1	-7
575.752	1	-6
575.922	1	7
576.092	1	-5
576.262	1	4
576.432	1	-2
576.602	1	1
576.772	1	0
576.941	1	-1
577.111	1	-10
577.281	1	-1
577.451	1	6
577.621	1	-2
577.791	1	-1
577.960	1	0
578.130	1	-1
578.300	1	-7
578.470	1	2
578.640	1	-1
578.810	1	-8
578.979	1	7
579.149	1	0
579.319	1	-4
579.489	1	11
579.659	1	-2
579.829	1	-5
579.998	1	-11
580.168	1	-3
580.338	1	8
580.508	1	-3
580.678	1	-6
580.848	1	-1
581.017	1	-3
581.187	1	6
581.357	1	0
581.527	1	-2
581.697	1	3
581.867	1	3
582.036	1	-10
582.206	1	2
582.376	1	0
582.546	1	-1
582.716	1	9
582.885	1	0
583.055	1	-12
583.225	1	-5
583.395	1	0
583.565	1	13
583.735	1	-5
583.904	1	-2
584.074	1	-6
584.244	1	-1
584.414	1	-1
584.584	1	-5
584.753	1	-2
584.923	1	-1
585.093	1	8
585.263	1	-4
585.433	1	-3
585.602	1	7
585.772	1	19
585.942	1	-4
586.112	1	3
586.282	1	-4
586.451	1	5
586.621	1	-7
586.791	1	-1
586.961	1	-3
587.131	1	-7
587.300	1	5
587.470	1	-1
587.640	1	-9
587.810	1	-15
587.980	1	5
588.149	1	4
588.319	1	6
588.489	1	-1
588.659	1	-2
588.829	1	0
588.998	1	1
589.168	1	-8
589.338	1	-5
589.508	1	-1
589.677	1	3
589.847	1	5
590.017	1	4
590.187	1	-1
590.357	1	-2
590.526	1	-9
590.696	1	2
590.866	1	-10
591.036	1	0
591.205	1	2
591.375	1	-4
591.545	1	1
591.715	1	-1
591.885	1	12
592.054	1	2
592.224	1	-1
592.394	1	-11
592.564	1	-9
592.733	1	1
592.903	1	0
593.073	1	-6
593.243	1	14
593.412	1	-8
593.582	1	-6
593.752	1	-9
593.922	1	3
594.091	1	5
594.261	1	-10
594.431	1	10
594.601	1	-11
594.771	1	3
594.940	1	-7
595.110	1	-3
595.280	1	-4
595.450	1	0
595.619	1	-5
595.789	1	-7
595.959	1	-2
596.129	1	5
596.298	1	3
596.468	1	-3
596.638	1	-5
596.808	1	-12
596.977	1	-2
597.147	1	2
597.317	1	-4
597.487	1	-4
597.656	1	0
597.826	1	6
597.996	1	2
598.166	1	-1
598.335	1	-3
598.505	1	2
598.675	1	6
598.844	1	9
599.014	1	-8
599.184	1	-4
599.354	1	9
599.523	1	-6
599.693	1	-3
599.863	1	7
600.033	1	3
600.202	1	-2
600.372	1	-8
600.542	1	4
600.712	1	2
600.881	1	2
601.051	1	4
601.221	1	2
601.390	1	1
601.560	1	6
601.730	1	5
601.900	1	-9
602.069	1	5
602.239	1	0
602.409	1	-1
602.578	1	0
602.748	1	13
602.918	1	-9
603.088	1	7
603.257	1	-7
603.427	1	4
603.597	1	-5
603.767	1	-3
603.936	1	5
604.106	1	5
604.276	1	0
604.445	1	-5
604.615	1	6
604.785	1	-1
604.954	1	-4
605.124	1	-3
605.294	1	-5
605.464	1	-6
605.633	1	5
605.803	1	-1
605.973	1	5
606.142	1	4
606.312	1	7
606.482	1	5
606.652	1	-2
606.821	1	-1
606.991	1	-4
607.161	1	9
607.330	1	-10
607.500	1	-1
607.670	1	1
607.839	1	-5
608.009	1	4
608.179	1	13
608.348	1	1
608.518	1	4
608.688	1	-1
608.858	1	-10
609.027	1	0
609.197	1	0
609.367	1	-8
609.536	1	-4
609.706	1	0
609.876	1	4
610.045	1	-4
610.215	1	1
610.385	1	5
610.554	1	2
610.724	1	2
610.894	1	-5
611.063	1	-2
611.233	1	3
611.403	1	8
611.572	1	-2
611.742	1	-13
611.912	1	-2
612.081	1	5
612.251	1	-4
612.421	1	-2
612.590	1	-5
612.760	1	4
612.930	1	2
613.099	1	5
613.269	1	3
613.439	1	-6
613.608	1	3
613.778	1	-4
613.948	1	9
614.117	1	-4
614.287	1	-2
614.457	1	14
614.626	1	-2
614.796	1	-4
614.966	1	-3
615.135	1	10
615.305	1	5
615.475	1	3
615.644	1	6
615.814	1	9
615.984	1	-17
616.153	1	1
616.323	1	-4
616.493	1	-3
616.662	1	0
616.832	1	3
617.002	1	3
617.171	1	9
617.341	1	5
617.511	1	-13
617.680	1	-12
617.850	1	2
618.019	1	1
618.189	1	10
618.359	1	2
618.528	1	-3
618.698	1	1
618.868	1	-1
619.037	1	1
619.207	1	-4
619.377	1	4
619.546	1	5
619.716	1	-1
619.885	1	7
620.055	1	-4
620.225	1	2
620.394	1	-1
620.564	1	3
620.734	1	-2
620.903	1	-7
621.073	1	7
621.242	1	-4
621.412	1	-6
621.582	1	3
621.751	1	-6
621.921	1	1
622.091	1	1
622.260	1	6
622.430	1	5
622.599	1	-5
622.769	1	3
622.939	1	-5
623.108	1	0
623.278	1	-6
623.448	1	-1
623.617	1	5
623.787	1	3
623.956	1	-2
624.126	1	1
624.296	1	6
624.465	1	5
624.635	1	3
624.804	1	-2
624.974	1	-7
625.144	1	-1
625.313	1	12
625.483	1	-8
625.652	1	-9
625.822	1	6
625.992	1	-5
626.161	1	-3
626.331	1	6
626.501	1	-4
626.670	1	-1
626.840	1	0
627.009	1	3
627.179	1	4
627.348	1	-7
627.518	1	14
627.688	1	2
627.857	1	2
628.027	1	7
628.196	1	5
628.366	1	1
628.536	1	1
628.705	1	-4
628.875	1	-4
629.044	1	-4
629.214	1	0
629.384	1	15
629.553	1	-1
629.723	1	15
629.892	1	-5
630.062	1	2
630.232	1	7
630.401	1	-1
630.571	1	0
630.740	1	-5
630.910	1	6
631.079	1	-8
631.249	1	1
631.419	1	8
631.588	1	9
631.758	1	-11
631.927	1	14
632.097	1	-3
632.266	1	5
632.436	1	4
632.606	1	5
632.775	1	-6
632.945	1	-1
633.114	1	-11
633.284	1	4
633.453	1	4
633.623	1	11
633.793	1	-4
633.962	1	1
634.132	1	2
634.301	1	5
634.471	1	3
634.640	1	-6
634.810	1	10
634.979	1	-1
635.149	1	-7
635.319	1	-3
635.488	1	1
635.658	1	-5
635.827	1	-12
635.997	1	6
636.166	1	0
636.336	1	1
636.505	1	6
636.675	1	-1
636.845	1	-4
637.014	1	-9
637.184	1	12
637.353	1	-3
637.523	1	5
637.692	1	0
637.862	1	-14
638.031	1	-4
638.201	1	1
638.370	1	3
638.540	1	-6
638.710	1	-10
638.879	1	-7
639.049	1	-6
639.218	1	6
639.388	1	-2
639.557	1	6
639.727	1	10
639.896	1	-3
640.066	1	-8
640.235	1	5
640.405	1	9
640.574	1	6
640.744	1	-9
640.914	1	3
641.083	1	9
641.253	1	-4
641.422	1	-12
641.592	1	1
641.761	1	2
641.931	1	13
642.100	1	-5
642.270	1	-1
642.439	1	4
642.609	1	2
642.778	1	1
642.948	1	10
643.117	1	5
643.287	1	-1
643.456	1	0
643.626	1	-2
643.795	1	-11
643.965	1	4
644.134	1	0
644.304	1	-8
644.473	1	-2
644.643	1	-2
644.812	1	-15
644.982	1	-2
645.151	1	-4
645.321	1	1
645.490	1	7
645.660	1	-4
645.829	1	-5
645.999	1	-4
646.168	1	18
646.338	1	-4
646.507	1	-3
646.677	1	-3
646.846	1	-2
647.016	1	8
647.185	1	8
647.355	1	9
647.524	1	-10
647.694	1	-10
647.863	1	-3
648.033	1	-1
648.202	1	2
648.372	1	-18
648.541	1	-1
648.711	1	-7
648.880	1	6
649.050	1	13
649.219	1	-4
649.389	1	0
649.558	1	1
649.728	1	-2
649.897	1	11
650.067	1	4
650.236	1	-12
650.406	1	-11
650.575	1	5
650.745	1	5
650.914	1	4
651.084	1	1
651.253	1	1
651.423	1	-13
651.592	1	-3
651.762	1	-6
651.931	1	3
652.101	1	-3
652.270	1	0
652.440	1	14
652.609	1	7
652.778	1	9
652.948	1	1
653.117	1	-12
653.287	1	-13
653.456	1	-10
653.626	1	-9
653.795	1	-1
653.965	1	-7
654.134	1	-12
654.304	1	9
654.473	1	2
654.643	1	-1
654.812	1	9
654.982	1	4
655.151	1	3
655.320	1	-4
655.490	1	0
655.659	1	1
655.829	1	10
655.998	1	1
656.168	1	-3
656.337	1	-5
656.507	1	-4
656.676	1	-3
656.846	1	5
657.015	1	9
657.184	1	-3
657.354	1	-4
657.523	1	2
657.693	1	13
657.862	1	-7
658.032	1	4
658.201	1	-3
658.371	1	-8
658.540	1	-7
658.709	1	10
658.879	1	5
659.048	1	11
659.218	1	-7
659.387	1	4
659.557	1	-6
659.726	1	-5
659.895	1	-10
660.065	1	-3
660.234	1	-1
660.404	1	1
660.573	1	-5
660.743	1	-4
660.912	1	0
661.081	1	-5
661.251	1	-2
661.420	1	4
661.590	1	-9
661.759	1	5
661.929	1	-2
662.098	1	1
662.267	1	-12
662.437	1	-1
662.606	1	-9
662.776	1	9
662.945	1	12
663.115	1	7
663.284	1	9
663.453	1	-4
663.623	1	-6
663.792	1	6
663.962	1	4
664.131	1	-2
664.300	1	-9
664.470	1	-4
664.639	1	2
664.809	1	-3
664.978	1	5
665.148	1	1
665.317	1	8
665.486	1	-5
665.656	1	4
665.825	1	4
665.995	1	-12
666.164	1	2
666.333	1	2
666.503	1	-1
666.672	1	-8
666.842	1	2
667.011	1	-2
667.180	1	-1
667.350	1	4
667.519	1	-3
667.689	1	-3
667.858	1	-3
668.027	1	4
668.197	1	-16
668.366	1	1
668.536	1	-8
668.705	1	0
668.874	1	14
669.044	1	4
669.213	1	1
669.382	1	-2
669.552	1	9
669.721	1	-4
669.891	1	-2
670.060	1	4
670.229	1	0
670.399	1	5
670.568	1	8
670.738	1	-1
670.907	1	-1
671.076	1	8
671.246	1	5
671.415	1	5
671.584	1	7
671.754	1	-10
671.923	1	-2
672.093	1	5
672.262	1	-8
672.431	1	2
672.601	1	-1
672.770	1	2
672.939	1	8
673.109	1	-1
673.278	1	-3
673.448	1	2
673.617	1	6
673.786	1	-7
