325.333	1	29
325.504	1	25
325.675	1	38
325.846	1	26
326.017	1	33
326.188	1	30
326.359	1	41
326.531	1	35
326.702	1	34
326.873	1	47
327.044	1	41
327.215	1	49
327.386	1	41
327.557	1	34
327.728	1	37
327.899	1	45
328.070	1	47
328.241	1	31
328.412	1	43
328.583	1	41
328.754	1	51
328.926	1	50
329.097	1	34
329.268	1	56
329.439	1	47
329.610	1	41
329.781	1	42
329.952	1	45
330.123	1	46
330.294	1	37
330.465	1	37
330.636	1	51
330.807	1	52
330.978	1	33
331.149	1	41
331.320	1	32
331.492	1	44
331.663	1	41
331.834	1	49
332.005	1	53
332.176	1	38
332.347	1	34
332.518	1	56
332.689	1	52
332.860	1	43
333.031	1	57
333.202	1	43
333.373	1	51
333.544	1	45
333.715	1	53
333.886	1	42
334.057	1	41
334.228	1	64
334.399	1	55
334.570	1	46
334.741	1	54
334.912	1	51
335.084	1	56
335.255	1	64
335.426	1	68
335.597	1	63
335.768	1	62
335.939	1	53
336.110	1	54
336.281	1	61
336.452	1	68
336.623	1	65
336.794	1	56
336.965	1	65
337.136	1	59
337.307	1	60
337.478	1	53
337.649	1	65
337.820	1	55
337.991	1	68
338.162	1	58
338.333	1	68
338.504	1	73
338.675	1	62
338.846	1	43
339.017	1	61
339.188	1	55
339.359	1	60
339.530	1	65
339.701	1	71
339.872	1	73
340.043	1	59
340.214	1	75
340.385	1	55
340.556	1	83
340.727	1	65
340.898	1	69
341.069	1	66
341.240	1	68
341.411	1	76
341.582	1	66
341.753	1	78
341.924	1	90
342.095	1	74
342.266	1	83
342.437	1	74
342.608	1	77
342.779	1	73
342.950	1	68
343.121	1	86
343.292	1	87
343.463	1	94
343.634	1	86
343.805	1	89
343.976	1	91
344.147	1	85
344.318	1	84
344.489	1	86
344.660	1	86
344.831	1	82
345.002	1	77
345.173	1	81
345.344	1	74
345.515	1	86
345.686	1	82
345.857	1	93
346.028	1	92
346.199	1	86
346.370	1	91
346.541	1	80
346.712	1	83
346.883	1	85
347.054	1	93
347.225	1	85
347.396	1	89
347.567	1	90
347.738	1	101
347.909	1	95
348.080	1	100
348.251	1	97
348.422	1	106
348.593	1	85
348.764	1	96
348.935	1	102
349.106	1	95
349.277	1	98
349.448	1	104
349.619	1	100
349.790	1	101
349.961	1	90
350.132	1	102
350.303	1	100
350.474	1	115
350.645	1	104
350.816	1	114
350.987	1	117
351.157	1	95
351.328	1	109
351.499	1	106
351.670	1	104
351.841	1	104
352.012	1	107
352.183	1	120
352.354	1	107
352.525	1	111
352.696	1	111
352.867	1	133
353.038	1	106
353.209	1	114
353.380	1	112
353.551	1	124
353.722	1	111
353.893	1	117
354.064	1	120
354.235	1	100
354.406	1	111
354.576	1	115
354.747	1	116
354.918	1	117
355.089	1	116
355.260	1	109
355.431	1	102
355.602	1	117
355.773	1	119
355.944	1	110
356.115	1	117
356.286	1	122
356.457	1	129
356.628	1	125
356.799	1	119
356.970	1	134
357.141	1	120
357.311	1	128
357.482	1	120
357.653	1	136
357.824	1	131
357.995	1	125
358.166	1	124
358.337	1	133
358.508	1	145
358.679	1	130
358.850	1	142
359.021	1	128
359.192	1	146
359.363	1	138
359.533	1	138
359.704	1	125
359.875	1	138
360.046	1	136
360.217	1	132
360.388	1	125
360.559	1	143
360.730	1	122
360.901	1	140
361.072	1	132
361.243	1	135
361.414	1	150
361.584	1	118
361.755	1	136
361.926	1	132
362.097	1	138
362.268	1	139
362.439	1	120
362.610	1	140
362.781	1	133
362.952	1	128
363.123	1	134
363.293	1	132
363.464	1	136
363.635	1	144
363.806	1	129
363.977	1	141
364.148	1	133
364.319	1	147
364.490	1	142
364.661	1	135
364.832	1	143
365.002	1	144
365.173	1	145
365.344	1	141
365.515	1	141
365.686	1	140
365.857	1	146
366.028	1	163
366.199	1	167
366.370	1	147
366.540	1	144
366.711	1	155
366.882	1	133
367.053	1	152
367.224	1	168
367.395	1	150
367.566	1	151
367.737	1	146
367.908	1	144
368.078	1	141
368.249	1	160
368.420	1	151
368.591	1	157
368.762	1	150
368.933	1	151
369.104	1	151
369.274	1	148
369.445	1	166
369.616	1	145
369.787	1	153
369.958	1	161
370.129	1	149
370.300	1	133
370.471	1	147
370.641	1	137
370.812	1	143
370.983	1	133
371.154	1	143
371.325	1	147
371.496	1	158
371.667	1	167
371.837	1	143
372.008	1	137
372.179	1	143
372.350	1	154
372.521	1	145
372.692	1	152
372.863	1	152
373.033	1	148
373.204	1	148
373.375	1	150
373.546	1	156
373.717	1	159
373.888	1	167
374.059	1	154
374.229	1	177
374.400	1	163
374.571	1	146
374.742	1	165
374.913	1	148
375.084	1	163
375.254	1	163
375.425	1	180
375.596	1	164
375.767	1	169
375.938	1	150
376.109	1	165
376.279	1	163
376.450	1	172
376.621	1	174
376.792	1	181
376.963	1	181
377.134	1	172
377.304	1	174
377.475	1	176
377.646	1	170
377.817	1	183
377.988	1	163
378.159	1	169
378.329	1	168
378.500	1	177
378.671	1	168
378.842	1	169
379.013	1	167
379.184	1	187
379.354	1	185
379.525	1	168
379.696	1	185
379.867	1	179
380.038	1	172
380.209	1	180
380.379	1	176
380.550	1	170
380.721	1	167
380.892	1	172
381.063	1	180
381.233	1	177
381.404	1	182
381.575	1	180
381.746	1	193
381.917	1	178
382.087	1	191
382.258	1	178
382.429	1	175
382.600	1	191
382.771	1	177
382.941	1	207
383.112	1	187
383.283	1	185
383.454	1	179
383.625	1	199
383.795	1	198
383.966	1	189
384.137	1	193
384.308	1	191
384.479	1	187
384.649	1	192
384.820	1	191
384.991	1	188
385.162	1	206
385.333	1	201
385.503	1	195
385.674	1	192
385.845	1	205
386.016	1	202
386.187	1	192
386.357	1	218
386.528	1	201
386.699	1	205
386.870	1	198
387.041	1	220
387.211	1	204
387.382	1	214
387.553	1	211
387.724	1	196
387.894	1	189
388.065	1	216
388.236	1	206
388.407	1	199
388.578	1	197
388.748	1	208
388.919	1	195
389.090	1	211
389.261	1	212
389.431	1	205
389.602	1	203
389.773	1	208
389.944	1	198
390.114	1	200
390.285	1	217
390.456	1	210
390.627	1	205
390.798	1	193
390.968	1	207
391.139	1	222
391.310	1	201
391.481	1	204
391.651	1	215
391.822	1	208
391.993	1	190
392.164	1	199
392.334	1	186
392.505	1	201
392.676	1	182
392.847	1	202
393.017	1	193
393.188	1	205
393.359	1	217
393.530	1	219
393.700	1	216
393.871	1	205
394.042	1	210
394.213	1	216
394.383	1	212
394.554	1	216
394.725	1	198
394.896	1	214
395.066	1	210
395.237	1	212
395.408	1	204
395.579	1	211
395.749	1	231
395.920	1	221
396.091	1	208
396.262	1	219
396.432	1	231
396.603	1	213
396.774	1	227
396.945	1	228
397.115	1	224
397.286	1	228
397.457	1	230
397.627	1	225
397.798	1	224
397.969	1	233
398.140	1	218
398.310	1	243
398.481	1	225
398.652	1	223
398.823	1	222
398.993	1	215
399.164	1	234
399.335	1	210
399.505	1	205
399.676	1	231
399.847	1	224
400.018	1	211
400.188	1	224
400.359	1	229
400.530	1	217
400.700	1	219
400.871	1	227
401.042	1	218
401.213	1	219
401.383	1	227
401.554	1	229
401.725	1	218
401.895	1	210
402.066	1	218
402.237	1	224
402.408	1	227
402.578	1	223
402.749	1	225
402.920	1	228
403.090	1	220
403.261	1	212
403.432	1	234
403.603	1	224
403.773	1	240
403.944	1	232
404.115	1	220
404.285	1	233
404.456	1	231
404.627	1	218
404.797	1	215
404.968	1	227
405.139	1	222
405.310	1	230
405.480	1	223
405.651	1	226
405.822	1	232
405.992	1	235
406.163	1	226
406.334	1	235
406.504	1	244
406.675	1	238
406.846	1	231
407.016	1	233
407.187	1	234
407.358	1	214
407.528	1	236
407.699	1	241
407.870	1	233
408.041	1	246
408.211	1	246
408.382	1	239
408.553	1	251
408.723	1	244
408.894	1	239
409.065	1	234
409.235	1	232
409.406	1	231
409.577	1	231
409.747	1	244
409.918	1	247
410.089	1	240
410.259	1	233
410.430	1	243
410.601	1	239
410.771	1	237
410.942	1	239
411.113	1	235
411.283	1	246
411.454	1	252
411.625	1	248
411.795	1	237
411.966	1	236
412.137	1	229
412.307	1	237
412.478	1	236
412.649	1	226
412.819	1	232
412.990	1	231
413.161	1	230
413.331	1	219
413.502	1	219
413.672	1	208
413.843	1	232
414.014	1	226
414.184	1	221
414.355	1	237
414.526	1	231
414.696	1	233
414.867	1	221
415.038	1	223
415.208	1	219
415.379	1	232
415.550	1	221
415.720	1	226
415.891	1	234
416.062	1	238
416.232	1	244
416.403	1	232
416.573	1	234
416.744	1	226
416.915	1	234
417.085	1	234
417.256	1	223
417.427	1	237
417.597	1	237
417.768	1	232
417.939	1	226
418.109	1	226
418.280	1	236
418.450	1	248
418.621	1	240
418.792	1	224
418.962	1	228
419.133	1	226
419.304	1	220
419.474	1	236
419.645	1	227
419.815	1	233
419.986	1	239
420.157	1	234
420.327	1	233
420.498	1	226
420.669	1	231
420.839	1	241
421.010	1	221
421.180	1	234
421.351	1	225
421.522	1	227
421.692	1	240
421.863	1	221
422.033	1	240
422.204	1	233
422.375	1	210
422.545	1	228
422.716	1	205
422.886	1	216
423.057	1	225
423.228	1	215
423.398	1	208
423.569	1	218
423.740	1	205
423.910	1	221
424.081	1	228
424.251	1	205
424.422	1	225
424.593	1	223
424.763	1	217
424.934	1	198
425.104	1	214
425.275	1	207
425.445	1	209
425.616	1	207
425.787	1	214
425.957	1	200
426.128	1	199
426.298	1	212
426.469	1	196
426.640	1	206
426.810	1	195
426.981	1	212
427.151	1	212
427.322	1	195
427.493	1	213
427.663	1	218
427.834	1	200
428.004	1	202
428.175	1	221
428.345	1	189
428.516	1	205
428.687	1	221
428.857	1	215
429.028	1	201
429.198	1	196
429.369	1	215
429.540	1	211
429.710	1	214
429.881	1	213
430.051	1	198
430.222	1	211
430.392	1	208
430.563	1	201
430.734	1	209
430.904	1	212
431.075	1	214
431.245	1	212
431.416	1	215
431.586	1	197
431.757	1	216
431.927	1	190
432.098	1	215
432.269	1	207
432.439	1	218
432.610	1	222
432.780	1	210
432.951	1	208
433.121	1	217
433.292	1	219
433.462	1	206
433.633	1	205
433.804	1	206
433.974	1	201
434.145	1	208
434.315	1	199
434.486	1	201
434.656	1	201
434.827	1	205
434.997	1	220
435.168	1	208
435.339	1	210
435.509	1	208
435.680	1	202
435.850	1	180
436.021	1	205
436.191	1	200
436.362	1	197
436.532	1	191
436.703	1	187
436.873	1	195
437.044	1	193
437.214	1	196
437.385	1	181
437.556	1	196
437.726	1	192
437.897	1	181
438.067	1	192
438.238	1	196
438.408	1	194
438.579	1	182
438.749	1	192
438.920	1	199
439.090	1	181
439.261	1	186
439.431	1	170
439.602	1	185
439.772	1	182
439.943	1	179
440.113	1	184
440.284	1	188
440.455	1	186
440.625	1	197
440.796	1	183
440.966	1	179
441.137	1	185
441.307	1	189
441.478	1	172
441.648	1	169
441.819	1	173
441.989	1	186
442.160	1	199
442.330	1	171
442.501	1	189
442.671	1	187
442.842	1	179
443.012	1	173
443.183	1	186
443.353	1	182
443.524	1	179
443.694	1	178
443.865	1	167
444.035	1	177
444.206	1	183
444.376	1	176
444.547	1	178
444.717	1	172
444.888	1	170
445.058	1	183
445.229	1	186
445.399	1	180
445.570	1	171
445.740	1	180
445.911	1	184
446.081	1	184
446.252	1	170
446.422	1	179
446.593	1	174
446.763	1	181
446.934	1	175
447.104	1	179
447.275	1	160
447.445	1	172
447.616	1	172
447.786	1	182
447.957	1	188
448.127	1	176
448.298	1	190
448.468	1	177
448.639	1	152
448.809	1	165
448.979	1	190
449.150	1	154
449.320	1	170
449.491	1	149
449.661	1	166
449.832	1	158
450.002	1	168
450.173	1	172
450.343	1	144
450.514	1	157
450.684	1	157
450.855	1	168
451.025	1	155
451.196	1	163
451.366	1	167
451.537	1	180
451.707	1	165
451.878	1	166
452.048	1	158
452.218	1	167
452.389	1	159
452.559	1	165
452.730	1	139
452.900	1	158
453.071	1	166
453.241	1	170
453.412	1	158
453.582	1	176
453.753	1	147
453.923	1	161
454.093	1	143
454.264	1	158
454.434	1	154
454.605	1	151
454.775	1	151
454.946	1	157
455.116	1	159
455.287	1	134
455.457	1	145
455.628	1	147
455.798	1	145
455.968	1	142
456.139	1	155
456.309	1	145
456.480	1	135
456.650	1	139
456.821	1	158
456.991	1	146
457.161	1	149
457.332	1	138
457.502	1	157
457.673	1	144
457.843	1	143
458.014	1	142
458.184	1	145
458.355	1	148
458.525	1	134
458.695	1	134
458.866	1	126
459.036	1	143
459.207	1	138
459.377	1	137
459.548	1	140
459.718	1	149
459.888	1	129
460.059	1	138
460.229	1	143
460.400	1	136
460.570	1	133
460.740	1	126
460.911	1	142
461.081	1	140
461.252	1	136
461.422	1	135
461.593	1	141
461.763	1	145
461.933	1	136
462.104	1	136
462.274	1	130
462.445	1	138
462.615	1	124
462.785	1	142
462.956	1	130
463.126	1	123
463.297	1	140
463.467	1	147
463.638	1	133
463.808	1	130
463.978	1	120
464.149	1	131
464.319	1	133
464.490	1	120
464.660	1	127
464.830	1	124
465.001	1	127
465.171	1	124
465.342	1	125
465.512	1	129
465.682	1	104
465.853	1	123
466.023	1	137
466.194	1	103
466.364	1	138
466.534	1	108
466.705	1	140
466.875	1	104
467.045	1	126
467.216	1	123
467.386	1	117
467.557	1	121
467.727	1	117
467.897	1	108
468.068	1	113
468.238	1	109
468.409	1	119
468.579	1	113
468.749	1	116
468.920	1	100
469.090	1	109
469.260	1	115
469.431	1	106
469.601	1	118
469.772	1	126
469.942	1	109
470.112	1	101
470.283	1	114
470.453	1	128
470.623	1	121
470.794	1	118
470.964	1	97
471.135	1	107
471.305	1	96
471.475	1	113
471.646	1	118
471.816	1	117
471.986	1	102
472.157	1	112
472.327	1	106
472.497	1	101
472.668	1	105
472.838	1	94
473.009	1	108
473.179	1	105
473.349	1	120
473.520	1	105
473.690	1	118
473.860	1	97
474.031	1	90
474.201	1	105
474.371	1	122
474.542	1	100
474.712	1	110
474.882	1	107
475.053	1	114
475.223	1	108
475.394	1	98
475.564	1	106
475.734	1	97
475.905	1	109
476.075	1	116
476.245	1	97
476.416	1	101
476.586	1	104
476.756	1	105
476.927	1	105
477.097	1	107
477.267	1	106
477.438	1	120
477.608	1	111
477.778	1	98
477.949	1	104
478.119	1	99
478.289	1	112
478.460	1	105
478.630	1	93
478.800	1	108
478.971	1	103
479.141	1	110
479.311	1	104
479.482	1	95
479.652	1	98
479.822	1	95
479.993	1	96
480.163	1	101
480.333	1	97
480.504	1	100
480.674	1	105
480.844	1	87
481.015	1	110
481.185	1	95
481.355	1	99
481.525	1	83
481.696	1	103
481.866	1	99
482.036	1	98
482.207	1	109
482.377	1	88
482.547	1	99
482.718	1	106
482.888	1	101
483.058	1	108
483.229	1	94
483.399	1	88
483.569	1	73
483.740	1	90
483.910	1	80
484.080	1	91
484.250	1	80
484.421	1	80
484.591	1	89
484.761	1	92
484.932	1	88
485.102	1	91
485.272	1	76
485.443	1	85
485.613	1	81
485.783	1	90
485.953	1	80
486.124	1	87
486.294	1	86
486.464	1	87
486.635	1	88
486.805	1	80
486.975	1	83
487.146	1	97
487.316	1	87
487.486	1	90
487.656	1	83
487.827	1	90
487.997	1	84
488.167	1	88
488.338	1	83
488.508	1	87
488.678	1	74
488.848	1	67
489.019	1	76
489.189	1	88
489.359	1	77
489.529	1	85
489.700	1	81
489.870	1	84
490.040	1	77
490.211	1	78
490.381	1	75
490.551	1	86
490.721	1	77
490.892	1	71
491.062	1	67
491.232	1	79
491.402	1	76
491.573	1	85
491.743	1	75
491.913	1	81
492.084	1	78
492.254	1	82
492.424	1	80
492.594	1	80
492.765	1	80
492.935	1	76
493.105	1	77
493.275	1	72
493.446	1	68
493.616	1	65
493.786	1	74
493.956	1	77
494.127	1	79
494.297	1	72
494.467	1	83
494.637	1	78
494.808	1	88
494.978	1	69
495.148	1	62
495.318	1	71
495.489	1	64
495.659	1	74
495.829	1	75
495.999	1	76
496.170	1	83
496.340	1	71
496.510	1	82
496.680	1	72
496.851	1	83
497.021	1	70
497.191	1	62
497.361	1	62
497.532	1	71
497.702	1	70
497.872	1	69
498.042	1	68
498.213	1	71
498.383	1	66
498.553	1	69
498.723	1	63
498.894	1	62
499.064	1	74
499.234	1	69
499.404	1	79
499.574	1	75
499.745	1	65
499.915	1	75
500.085	1	60
500.255	1	63
500.426	1	63
500.596	1	56
500.766	1	55
500.936	1	55
501.106	1	63
501.277	1	57
501.447	1	75
501.617	1	68
501.787	1	62
501.958	1	70
502.128	1	71
502.298	1	66
502.468	1	71
502.638	1	65
502.809	1	61
502.979	1	66
503.149	1	69
503.319	1	65
503.489	1	34
503.660	1	58
503.830	1	59
504.000	1	62
504.170	1	59
504.340	1	54
504.511	1	61
504.681	1	53
504.851	1	60
505.021	1	59
505.192	1	48
505.362	1	72
505.532	1	53
505.702	1	64
505.872	1	51
506.043	1	65
506.213	1	66
506.383	1	49
506.553	1	59
506.723	1	50
506.893	1	71
507.064	1	57
507.234	1	52
507.404	1	49
507.574	1	41
507.744	1	50
507.915	1	45
508.085	1	50
508.255	1	57
508.425	1	56
508.595	1	50
508.766	1	53
508.936	1	76
509.106	1	44
509.276	1	58
509.446	1	50
509.616	1	52
509.787	1	56
509.957	1	62
510.127	1	47
510.297	1	58
510.467	1	59
510.638	1	58
510.808	1	64
510.978	1	50
511.148	1	60
511.318	1	48
511.488	1	57
511.659	1	47
511.829	1	45
511.999	1	46
512.169	1	52
512.339	1	49
512.509	1	51
512.680	1	51
512.850	1	51
513.020	1	57
513.190	1	43
513.360	1	53
513.530	1	59
513.700	1	54
513.871	1	37
514.041	1	58
514.211	1	55
514.381	1	57
514.551	1	48
514.721	1	55
514.892	1	47
515.062	1	54
515.232	1	42
515.402	1	54
515.572	1	53
515.742	1	57
515.912	1	48
516.083	1	59
516.253	1	49
516.423	1	41
516.593	1	55
516.763	1	47
516.933	1	51
517.104	1	45
517.274	1	38
517.444	1	50
517.614	1	46
517.784	1	58
517.954	1	41
518.124	1	46
518.294	1	54
518.465	1	38
518.635	1	47
518.805	1	53
518.975	1	42
519.145	1	45
519.315	1	40
519.485	1	35
519.656	1	44
519.826	1	37
519.996	1	47
520.166	1	36
520.336	1	43
520.506	1	52
520.676	1	43
520.846	1	46
521.017	1	36
521.187	1	42
521.357	1	37
521.527	1	40
521.697	1	34
521.867	1	41
522.037	1	40
522.207	1	51
522.377	1	45
522.548	1	38
522.718	1	32
522.888	1	44
523.058	1	41
523.228	1	28
523.398	1	37
523.568	1	36
523.738	1	37
523.909	1	38
524.079	1	50
524.249	1	35
524.419	1	40
524.589	1	41
524.759	1	48
524.929	1	46
525.099	1	37
525.269	1	39
525.439	1	36
525.610	1	39
525.780	1	32
525.950	1	42
526.120	1	23
526.290	1	35
526.460	1	29
526.630	1	42
526.800	1	39
526.970	1	41
527.140	1	34
527.311	1	42
527.481	1	44
527.651	1	39
527.821	1	34
527.991	1	40
528.161	1	40
528.331	1	31
528.501	1	34
528.671	1	45
528.841	1	36
529.011	1	42
529.181	1	38
529.352	1	42
529.522	1	42
529.692	1	31
529.862	1	36
530.032	1	28
530.202	1	21
530.372	1	40
530.542	1	39
530.712	1	44
530.882	1	30
531.052	1	41
531.222	1	35
531.392	1	37
531.563	1	35
531.733	1	37
531.903	1	29
532.073	1	36
532.243	1	37
532.413	1	47
532.583	1	47
532.753	1	28
532.923	1	41
533.093	1	25
533.263	1	31
533.433	1	31
533.603	1	36
533.773	1	28
533.943	1	38
534.113	1	44
534.284	1	32
534.454	1	43
534.624	1	37
534.794	1	28
534.964	1	36
535.134	1	33
535.304	1	37
535.474	1	41
535.644	1	36
535.814	1	40
535.984	1	37
536.154	1	24
536.324	1	33
536.494	1	40
536.664	1	29
536.834	1	40
537.004	1	41
537.174	1	42
537.344	1	36
537.514	1	32
537.685	1	39
537.855	1	29
538.025	1	35
538.195	1	34
538.365	1	33
538.535	1	27
538.705	1	32
538.875	1	35
539.045	1	45
539.215	1	23
539.385	1	34
539.555	1	28
539.725	1	34
539.895	1	25
540.065	1	27
540.235	1	40
540.405	1	25
540.575	1	33
540.745	1	28
540.915	1	37
541.085	1	21
541.255	1	27
541.425	1	31
541.595	1	28
541.765	1	35
541.935	1	31
542.105	1	34
542.275	1	37
542.445	1	33
542.615	1	31
542.785	1	26
542.955	1	49
543.125	1	23
543.295	1	31
543.465	1	37
543.635	1	26
543.805	1	35
543.975	1	27
544.145	1	33
544.315	1	21
544.485	1	27
544.655	1	34
544.825	1	31
544.995	1	24
545.165	1	23
545.335	1	33
545.505	1	28
545.675	1	20
545.845	1	37
546.015	1	32
546.185	1	23
546.355	1	26
546.525	1	36
546.695	1	23
546.865	1	40
547.035	1	34
547.205	1	37
547.375	1	29
547.545	1	38
547.715	1	31
547.885	1	15
548.055	1	30
548.225	1	28
548.395	1	26
548.565	1	34
548.735	1	22
548.905	1	30
549.075	1	25
549.245	1	32
549.415	1	35
549.585	1	28
549.755	1	32
549.925	1	26
550.095	1	22
550.265	1	29
550.435	1	33
550.605	1	21
550.775	1	22
550.945	1	22
551.115	1	27
551.285	1	33
551.455	1	28
551.625	1	19
551.795	1	24
551.965	1	27
552.135	1	20
552.305	1	24
552.475	1	27
552.645	1	24
552.815	1	16
552.985	1	27
553.155	1	27
553.325	1	22
553.495	1	30
553.665	1	30
553.835	1	13
554.004	1	36
554.174	1	12
554.344	1	26
554.514	1	20
554.684	1	24
554.854	1	8
555.024	1	29
555.194	1	30
555.364	1	31
555.534	1	6
555.704	1	29
555.874	1	27
556.044	1	21
556.214	1	32
556.384	1	30
556.554	1	31
556.724	1	21
556.894	1	22
557.064	1	19
557.234	1	30
557.404	1	29
557.573	1	19
557.743	1	19
557.913	1	10
558.083	1	25
558.253	1	32
558.423	1	29
558.593	1	29
558.763	1	30
558.933	1	14
559.103	1	18
559.273	1	23
559.443	1	25
559.613	1	19
559.783	1	17
559.953	1	4
560.122	1	17
560.292	1	9
560.462	1	22
560.632	1	16
560.802	1	18
560.972	1	14
561.142	1	20
561.312	1	14
561.482	1	28
561.652	1	18
561.822	1	20
561.992	1	22
562.162	1	17
562.331	1	14
562.501	1	16
562.671	1	19
562.841	1	13
563.011	1	12
563.181	1	6
563.351	1	8
563.521	1	18
563.691	1	16
563.861	1	3
564.031	1	19
564.201	1	20
564.370	1	26
564.540	1	23
564.710	1	12
564.880	1	14
565.050	1	25
565.220	1	19
565.390	1	16
565.560	1	17
565.730	1	20
565.900	1	15
566.069	1	26
566.239	1	23
566.409	1	23
566.579	1	21
566.749	1	6
566.919	1	9
567.089	1	1
567.259	1	23
567.429	1	5
567.599	1	25
567.768	1	14
567.938	1	14
568.108	1	20
568.278	1	18
568.448	1	16
568.618	1	17
568.788	1	15
568.958	1	17
569.128	1	16
569.297	1	17
569.467	1	19
569.637	1	21
569.807	1	13
569.977	1	18
570.147	1	19
570.317	1	23
570.487	1	12
570.656	1	23
570.826	1	14
570.996	1	22
571.166	1	10
571.336	1	16
571.506	1	4
571.676	1	10
571.846	1	19
572.015	1	15
572.185	1	16
572.355	1	18
572.525	1	9
572.695	1	24
572.865	1	16
573.035	1	24
573.205	1	15
573.374	1	9
573.544	1	10
573.714	1	13
573.884	1	8
574.054	1	10
574.224	1	9
574.394	1	17
574.563	1	7
574.733	1	21
574.903	1	10
575.073	1	21
575.243	1	11
575.413	1	19
575.583	1	15
575.752	1	9
575.922	1	20
576.092	1	5
576.262	1	15
576.432	1	17
576.602	1	25
576.772	1	11
576.941	1	24
577.111	1	17
577.281	1	21
577.451	1	32
577.621	1	15
577.791	1	15
577.960	1	19
578.130	1	18
578.300	1	7
578.470	1	15
578.640	1	11
578.810	1	18
578.979	1	24
579.149	1	18
579.319	1	13
579.489	1	19
579.659	1	13
579.829	1	11
579.998	1	9
580.168	1	12
580.338	1	16
580.508	1	7
580.678	1	20
580.848	1	21
581.017	1	23
581.187	1	12
581.357	1	16
581.527	1	10
581.697	1	9
581.867	1	11
582.036	1	9
582.206	1	14
582.376	1	17
582.546	1	18
582.716	1	18
582.885	1	20
583.055	1	9
583.225	1	13
583.395	1	4
583.565	1	25
583.735	1	15
583.904	1	13
584.074	1	10
584.244	1	17
584.414	1	14
584.584	1	11
584.753	1	14
584.923	1	10
585.093	1	22
585.263	1	10
585.433	1	12
585.602	1	23
585.772	1	28
585.942	1	1
586.112	1	12
586.282	1	19
586.451	1	21
586.621	1	8
586.791	1	15
586.961	1	5
587.131	1	13
587.300	1	23
587.470	1	15
587.640	1	14
587.810	1	12
587.980	1	19
588.149	1	14
588.319	1	21
588.489	1	22
588.659	1	9
588.829	1	10
588.998	1	14
589.168	1	18
589.338	1	8
589.508	1	22
589.677	1	19
589.847	1	21
590.017	1	11
590.187	1	23
590.357	1	12
590.526	1	11
590.696	1	18
590.866	1	14
591.036	1	20
591.205	1	13
591.375	1	23
591.545	1	10
591.715	1	19
591.885	1	11
592.054	1	21
592.224	1	6
592.394	1	7
592.564	1	13
592.733	1	19
592.903	1	8
593.073	1	12
593.243	1	20
593.412	1	7
593.582	1	14
593.752	1	11
593.922	1	20
594.091	1	24
594.261	1	5
594.431	1	17
594.601	1	15
594.771	1	16
594.940	1	11
595.110	1	20
595.280	1	24
595.450	1	18
595.619	1	10
595.789	1	8
595.959	1	8
596.129	1	12
596.298	1	18
596.468	1	23
596.638	1	11
596.808	1	13
596.977	1	14
597.147	1	15
597.317	1	20
597.487	1	17
597.656	1	11
597.826	1	16
597.996	1	11
598.166	1	18
598.335	1	9
598.505	1	21
598.675	1	17
598.844	1	29
599.014	1	1
599.184	1	10
599.354	1	23
599.523	1	9
599.693	1	10
599.863	1	25
600.033	1	25
600.202	1	20
600.372	1	12
600.542	1	16
600.712	1	9
600.881	1	7
601.051	1	34
601.221	1	24
601.390	1	19
601.560	1	29
601.730	1	15
601.900	1	16
602.069	1	13
602.239	1	22
602.409	1	17
602.578	1	25
602.748	1	23
602.918	1	10
603.088	1	18
603.257	1	7
603.427	1	21
603.597	1	20
603.767	1	13
603.936	1	16
604.106	1	12
604.276	1	16
604.445	1	11
604.615	1	8
604.785	1	14
604.954	1	19
605.124	1	9
605.294	1	19
605.464	1	12
605.633	1	25
605.803	1	19
605.973	1	23
606.142	1	23
606.312	1	17
606.482	1	2
606.652	1	17
606.821	1	14
606.991	1	30
607.161	1	11
607.330	1	11
607.500	1	26
607.670	1	19
607.839	1	14
608.009	1	20
608.179	1	24
608.348	1	23
608.518	1	28
608.688	1	20
608.858	1	14
609.027	1	20
609.197	1	19
609.367	1	12
609.536	1	18
609.706	1	25
609.876	1	22
610.045	1	27
610.215	1	18
610.385	1	23
610.554	1	19
610.724	1	16
610.894	1	23
611.063	1	21
611.233	1	23
611.403	1	24
611.572	1	19
611.742	1	15
611.912	1	19
612.081	1	25
612.251	1	16
612.421	1	22
612.590	1	22
612.760	1	20
612.930	1	18
613.099	1	19
613.269	1	24
613.439	1	16
613.608	1	21
613.778	1	20
613.948	1	23
614.117	1	22
614.287	1	12
614.457	1	14
614.626	1	22
614.796	1	24
614.966	1	17
615.135	1	33
615.305	1	31
615.475	1	19
615.644	1	36
615.814	1	23
615.984	1	10
616.153	1	32
616.323	1	7
616.493	1	23
616.662	1	24
616.832	1	26
617.002	1	19
617.171	1	28
617.341	1	36
617.511	1	7
617.680	1	24
617.850	1	28
618.019	1	17
618.189	1	37
618.359	1	20
618.528	1	16
618.698	1	30
618.868	1	18
619.037	1	18
619.207	1	21
619.377	1	20
619.546	1	30
619.716	1	27
619.885	1	17
620.055	1	20
620.225	1	25
620.394	1	20
620.564	1	32
620.734	1	16
620.903	1	6
621.073	1	32
621.242	1	22
621.412	1	14
621.582	1	33
621.751	1	19
621.921	1	21
622.091	1	29
622.260	1	28
622.430	1	26
622.599	1	16
622.769	1	27
622.939	1	21
623.108	1	13
623.278	1	27
623.448	1	21
623.617	1	23
623.787	1	29
623.956	1	22
624.126	1	20
624.296	1	35
624.465	1	20
624.635	1	28
624.804	1	21
624.974	1	15
625.144	1	29
625.313	1	32
625.483	1	25
625.652	1	20
625.822	1	32
625.992	1	11
626.161	1	26
626.331	1	16
626.501	1	19
626.670	1	27
626.840	1	20
627.009	1	16
627.179	1	26
627.348	1	10
627.518	1	33
627.688	1	22
627.857	1	29
628.027	1	18
628.196	1	32
628.366	1	4
628.536	1	22
628.705	1	19
628.875	1	16
629.044	1	17
629.214	1	18
629.384	1	31
629.553	1	19
629.723	1	29
629.892	1	27
630.062	1	28
630.232	1	37
630.401	1	28
630.571	1	33
630.740	1	33
630.910	1	37
631.079	1	26
631.249	1	32
631.419	1	33
631.588	1	34
631.758	1	22
631.927	1	38
632.097	1	26
632.266	1	39
632.436	1	26
632.606	1	40
632.775	1	29
632.945	1	28
633.114	1	29
633.284	1	31
633.453	1	29
633.623	1	32
633.793	1	22
633.962	1	36
634.132	1	19
634.301	1	33
634.471	1	37
634.640	1	19
634.810	1	29
634.979	1	27
635.149	1	27
635.319	1	25
635.488	1	40
635.658	1	30
635.827	1	32
635.997	1	31
636.166	1	46
636.336	1	20
636.505	1	34
636.675	1	23
636.845	1	32
637.014	1	17
637.184	1	34
637.353	1	34
637.523	1	33
637.692	1	33
637.862	1	26
638.031	1	27
638.201	1	37
638.370	1	31
638.540	1	34
638.710	1	24
638.879	1	26
639.049	1	40
639.218	1	36
639.388	1	31
639.557	1	42
639.727	1	36
639.896	1	28
640.066	1	30
640.235	1	23
640.405	1	19
640.574	1	34
640.744	1	23
640.914	1	33
641.083	1	35
641.253	1	16
641.422	1	30
641.592	1	40
641.761	1	28
641.931	1	46
642.100	1	25
642.270	1	33
642.439	1	33
642.609	1	35
642.778	1	30
642.948	1	48
643.117	1	37
643.287	1	40
643.456	1	37
643.626	1	20
643.795	1	38
643.965	1	30
644.134	1	29
644.304	1	24
644.473	1	36
644.643	1	40
644.812	1	30
644.982	1	33
645.151	1	28
645.321	1	41
645.490	1	42
645.660	1	16
645.829	1	39
645.999	1	28
646.168	1	47
646.338	1	31
646.507	1	30
646.677	1	40
646.846	1	24
647.016	1	40
647.185	1	32
647.355	1	37
647.524	1	38
647.694	1	28
647.863	1	43
648.033	1	28
648.202	1	41
648.372	1	24
648.541	1	33
648.711	1	40
648.880	1	41
649.050	1	34
649.219	1	34
649.389	1	31
649.558	1	50
649.728	1	43
649.897	1	39
650.067	1	50
650.236	1	40
650.406	1	33
650.575	1	41
650.745	1	35
650.914	1	43
651.084	1	45
651.253	1	35
651.423	1	23
651.592	1	40
651.762	1	35
651.931	1	41
652.101	1	31
652.270	1	29
652.440	1	35
652.609	1	44
652.778	1	47
652.948	1	38
653.117	1	34
653.287	1	20
653.456	1	40
653.626	1	36
653.795	1	38
653.965	1	39
654.134	1	27
654.304	1	36
654.473	1	36
654.643	1	36
654.812	1	43
654.982	1	33
655.151	1	43
655.320	1	38
655.490	1	33
655.659	1	34
655.829	1	36
655.998	1	34
656.168	1	25
656.337	1	32
656.507	1	27
656.676	1	27
656.846	1	43
657.015	1	44
657.184	1	43
657.354	1	41
657.523	1	39
657.693	1	37
657.862	1	28
658.032	1	40
658.201	1	26
658.371	1	38
658.540	1	32
658.709	1	41
658.879	1	45
659.048	1	30
659.218	1	40
659.387	1	36
659.557	1	47
659.726	1	30
659.895	1	27
660.065	1	34
660.234	1	42
660.404	1	38
660.573	1	59
660.743	1	37
660.912	1	45
661.081	1	34
661.251	1	39
661.420	1	49
661.590	1	39
661.759	1	47
661.929	1	45
662.098	1	44
662.267	1	31
662.437	1	50
662.606	1	40
662.776	1	46
662.945	1	46
663.115	1	53
663.284	1	47
663.453	1	36
663.623	1	44
663.792	1	39
663.962	1	43
664.131	1	40
664.300	1	30
664.470	1	36
664.639	1	33
664.809	1	37
664.978	1	42
665.148	1	45
665.317	1	40
665.486	1	46
665.656	1	39
665.825	1	46
665.995	1	36
666.164	1	27
666.333	1	42
666.503	1	25
666.672	1	44
666.842	1	42
667.011	1	39
667.180	1	30
667.350	1	46
667.519	1	44
667.689	1	48
667.858	1	42
668.027	1	37
668.197	1	30
668.366	1	38
668.536	1	47
668.705	1	25
668.874	1	52
669.044	1	44
669.213	1	53
669.382	1	47
669.552	1	46
669.721	1	35
669.891	1	39
670.060	1	48
670.229	1	37
670.399	1	42
670.568	1	49
670.738	1	39
670.907	1	42
671.076	1	49
671.246	1	47
671.415	1	43
671.584	1	44
671.754	1	36
671.923	1	37
672.093	1	49
672.262	1	30
672.431	1	41
672.601	1	47
672.770	1	41
672.939	1	43
673.109	1	43
673.278	1	44
673.448	1	40
673.617	1	48
673.786	1	34
