325.333	1	26
325.504	1	8
325.675	1	27
325.846	1	21
326.017	1	9
326.188	1	24
326.359	1	20
326.531	1	7
326.702	1	19
326.873	1	29
327.044	1	15
327.215	1	21
327.386	1	28
327.557	1	7
327.728	1	29
327.899	1	25
328.070	1	30
328.241	1	18
328.412	1	30
328.583	1	26
328.754	1	32
328.926	1	34
329.097	1	15
329.268	1	36
329.439	1	33
329.610	1	26
329.781	1	23
329.952	1	24
330.123	1	22
330.294	1	19
330.465	1	23
330.636	1	26
330.807	1	37
330.978	1	17
331.149	1	29
331.320	1	16
331.492	1	33
331.663	1	30
331.834	1	18
332.005	1	26
332.176	1	31
332.347	1	12
332.518	1	33
332.689	1	31
332.860	1	18
333.031	1	33
333.202	1	25
333.373	1	18
333.544	1	35
333.715	1	29
333.886	1	21
334.057	1	16
334.228	1	27
334.399	1	33
334.570	1	35
334.741	1	33
334.912	1	27
335.084	1	33
335.255	1	32
335.426	1	38
335.597	1	28
335.768	1	36
335.939	1	27
336.110	1	33
336.281	1	34
336.452	1	47
336.623	1	30
336.794	1	28
336.965	1	33
337.136	1	53
337.307	1	34
337.478	1	36
337.649	1	30
337.820	1	38
337.991	1	22
338.162	1	28
338.333	1	30
338.504	1	41
338.675	1	32
338.846	1	31
339.017	1	46
339.188	1	39
339.359	1	37
339.530	1	41
339.701	1	38
339.872	1	42
340.043	1	39
340.214	1	43
340.385	1	26
340.556	1	46
340.727	1	44
340.898	1	36
341.069	1	34
341.240	1	39
341.411	1	44
341.582	1	33
341.753	1	37
341.924	1	43
342.095	1	38
342.266	1	45
342.437	1	47
342.608	1	46
342.779	1	37
342.950	1	42
343.121	1	48
343.292	1	48
343.463	1	50
343.634	1	42
343.805	1	46
343.976	1	59
344.147	1	47
344.318	1	38
344.489	1	36
344.660	1	55
344.831	1	42
345.002	1	46
345.173	1	42
345.344	1	53
345.515	1	39
345.686	1	46
345.857	1	51
346.028	1	51
346.199	1	44
346.370	1	45
346.541	1	42
346.712	1	40
346.883	1	44
347.054	1	44
347.225	1	42
347.396	1	54
347.567	1	44
347.738	1	50
347.909	1	52
348.080	1	42
348.251	1	48
348.422	1	51
348.593	1	49
348.764	1	45
348.935	1	61
349.106	1	40
349.277	1	50
349.448	1	58
349.619	1	53
349.790	1	53
349.961	1	53
350.132	1	50
350.303	1	54
350.474	1	60
350.645	1	62
350.816	1	59
350.987	1	70
351.157	1	52
351.328	1	54
351.499	1	61
351.670	1	63
351.841	1	63
352.012	1	60
352.183	1	65
352.354	1	60
352.525	1	61
352.696	1	60
352.867	1	63
353.038	1	61
353.209	1	58
353.380	1	57
353.551	1	73
353.722	1	63
353.893	1	67
354.064	1	68
354.235	1	62
354.406	1	37
354.576	1	66
354.747	1	59
354.918	1	58
355.089	1	59
355.260	1	58
355.431	1	61
355.602	1	61
355.773	1	58
355.944	1	56
356.115	1	67
356.286	1	74
356.457	1	64
356.628	1	66
356.799	1	70
356.970	1	74
357.141	1	73
357.311	1	74
357.482	1	60
357.653	1	58
357.824	1	70
357.995	1	78
358.166	1	77
358.337	1	70
358.508	1	81
358.679	1	66
358.850	1	78
359.021	1	69
359.192	1	75
359.363	1	75
359.533	1	62
359.704	1	69
359.875	1	66
360.046	1	80
360.217	1	80
360.388	1	83
360.559	1	75
360.730	1	62
360.901	1	77
361.072	1	73
361.243	1	72
361.414	1	75
361.584	1	66
361.755	1	82
361.926	1	60
362.097	1	67
362.268	1	75
362.439	1	76
362.610	1	79
362.781	1	65
362.952	1	75
363.123	1	63
363.293	1	76
363.464	1	64
363.635	1	71
363.806	1	81
363.977	1	77
364.148	1	66
364.319	1	73
364.490	1	72
364.661	1	77
364.832	1	69
365.002	1	75
365.173	1	79
365.344	1	65
365.515	1	68
365.686	1	77
365.857	1	85
366.028	1	78
366.199	1	84
366.370	1	73
366.540	1	73
366.711	1	71
366.882	1	84
367.053	1	76
367.224	1	73
367.395	1	76
367.566	1	84
367.737	1	80
367.908	1	87
368.078	1	82
368.249	1	81
368.420	1	79
368.591	1	76
368.762	1	82
368.933	1	77
369.104	1	80
369.274	1	85
369.445	1	88
369.616	1	80
369.787	1	75
369.958	1	81
370.129	1	80
370.300	1	70
370.471	1	74
370.641	1	73
370.812	1	80
370.983	1	74
371.154	1	84
371.325	1	85
371.496	1	74
371.667	1	83
371.837	1	80
372.008	1	73
372.179	1	73
372.350	1	77
372.521	1	81
372.692	1	74
372.863	1	75
373.033	1	87
373.204	1	75
373.375	1	80
373.546	1	77
373.717	1	88
373.888	1	74
374.059	1	81
374.229	1	85
374.400	1	70
374.571	1	72
374.742	1	97
374.913	1	74
375.084	1	85
375.254	1	77
375.425	1	81
375.596	1	81
375.767	1	90
375.938	1	73
376.109	1	82
376.279	1	79
376.450	1	84
376.621	1	88
376.792	1	89
376.963	1	74
377.134	1	86
377.304	1	89
377.475	1	86
377.646	1	79
377.817	1	96
377.988	1	85
378.159	1	99
378.329	1	94
378.500	1	109
378.671	1	97
378.842	1	93
379.013	1	85
379.184	1	89
379.354	1	89
379.525	1	95
379.696	1	88
379.867	1	82
380.038	1	88
380.209	1	95
380.379	1	90
380.550	1	80
380.721	1	85
380.892	1	86
381.063	1	91
381.233	1	93
381.404	1	91
381.575	1	88
381.746	1	99
381.917	1	88
382.087	1	91
382.258	1	102
382.429	1	97
382.600	1	78
382.771	1	83
382.941	1	93
383.112	1	91
383.283	1	98
383.454	1	88
383.625	1	99
383.795	1	91
383.966	1	96
384.137	1	96
384.308	1	102
384.479	1	94
384.649	1	100
384.820	1	98
384.991	1	95
385.162	1	98
385.333	1	104
385.503	1	90
385.674	1	98
385.845	1	94
386.016	1	101
386.187	1	90
386.357	1	104
386.528	1	107
386.699	1	98
386.870	1	98
387.041	1	115
387.211	1	109
387.382	1	117
387.553	1	103
387.724	1	97
387.894	1	86
388.065	1	106
388.236	1	100
388.407	1	102
388.578	1	105
388.748	1	104
388.919	1	117
389.090	1	121
389.261	1	118
389.431	1	97
389.602	1	99
389.773	1	109
389.944	1	111
390.114	1	113
390.285	1	112
390.456	1	97
390.627	1	103
390.798	1	100
390.968	1	103
391.139	1	108
391.310	1	99
391.481	1	107
391.651	1	110
391.822	1	105
391.993	1	93
392.164	1	109
392.334	1	96
392.505	1	113
392.676	1	88
392.847	1	106
393.017	1	94
393.188	1	102
393.359	1	119
393.530	1	118
393.700	1	115
393.871	1	103
394.042	1	105
394.213	1	106
394.383	1	124
394.554	1	100
394.725	1	105
394.896	1	125
395.066	1	111
395.237	1	112
395.408	1	109
395.579	1	122
395.749	1	101
395.920	1	124
396.091	1	110
396.262	1	114
396.432	1	109
396.603	1	126
396.774	1	107
396.945	1	113
397.115	1	125
397.286	1	121
397.457	1	112
397.627	1	112
397.798	1	119
397.969	1	113
398.140	1	122
398.310	1	113
398.481	1	122
398.652	1	111
398.823	1	114
398.993	1	119
399.164	1	125
399.335	1	104
399.505	1	106
399.676	1	115
399.847	1	110
400.018	1	117
400.188	1	117
400.359	1	109
400.530	1	124
400.700	1	116
400.871	1	115
401.042	1	121
401.213	1	120
401.383	1	113
401.554	1	119
401.725	1	117
401.895	1	112
402.066	1	117
402.237	1	108
402.408	1	109
402.578	1	115
402.749	1	105
402.920	1	129
403.090	1	107
403.261	1	107
403.432	1	105
403.603	1	133
403.773	1	125
403.944	1	127
404.115	1	112
404.285	1	115
404.456	1	130
404.627	1	130
404.797	1	118
404.968	1	116
405.139	1	123
405.310	1	120
405.480	1	119
405.651	1	117
405.822	1	103
405.992	1	131
406.163	1	119
406.334	1	119
406.504	1	123
406.675	1	123
406.846	1	128
407.016	1	129
407.187	1	128
407.358	1	117
407.528	1	131
407.699	1	131
407.870	1	146
408.041	1	115
408.211	1	130
408.382	1	127
408.553	1	131
408.723	1	126
408.894	1	135
409.065	1	119
409.235	1	129
409.406	1	136
409.577	1	122
409.747	1	118
409.918	1	128
410.089	1	139
410.259	1	120
410.430	1	132
410.601	1	124
410.771	1	131
410.942	1	122
411.113	1	112
411.283	1	120
411.454	1	150
411.625	1	124
411.795	1	115
411.966	1	120
412.137	1	123
412.307	1	116
412.478	1	121
412.649	1	113
412.819	1	114
412.990	1	133
413.161	1	122
413.331	1	111
413.502	1	120
413.672	1	122
413.843	1	106
414.014	1	124
414.184	1	124
414.355	1	114
414.526	1	116
414.696	1	108
414.867	1	116
415.038	1	115
415.208	1	103
415.379	1	103
415.550	1	114
415.720	1	116
415.891	1	126
416.062	1	125
416.232	1	125
416.403	1	126
416.573	1	116
416.744	1	135
416.915	1	121
417.085	1	125
417.256	1	123
417.427	1	113
417.597	1	123
417.768	1	110
417.939	1	116
418.109	1	118
418.280	1	120
418.450	1	135
418.621	1	120
418.792	1	113
418.962	1	122
419.133	1	122
419.304	1	107
419.474	1	132
419.645	1	123
419.815	1	116
419.986	1	118
420.157	1	116
420.327	1	116
420.498	1	120
420.669	1	118
420.839	1	136
421.010	1	117
421.180	1	112
421.351	1	119
421.522	1	125
421.692	1	122
421.863	1	102
422.033	1	123
422.204	1	116
422.375	1	125
422.545	1	122
422.716	1	113
422.886	1	129
423.057	1	119
423.228	1	108
423.398	1	125
423.569	1	112
423.740	1	98
423.910	1	125
424.081	1	129
424.251	1	111
424.422	1	111
424.593	1	117
424.763	1	111
424.934	1	110
425.104	1	133
425.275	1	109
425.445	1	111
425.616	1	106
425.787	1	109
425.957	1	112
426.128	1	115
426.298	1	105
426.469	1	98
426.640	1	105
426.810	1	86
426.981	1	113
427.151	1	106
427.322	1	99
427.493	1	115
427.663	1	107
427.834	1	102
428.004	1	107
428.175	1	123
428.345	1	99
428.516	1	113
428.687	1	116
428.857	1	111
429.028	1	106
429.198	1	107
429.369	1	108
429.540	1	108
429.710	1	108
429.881	1	102
430.051	1	106
430.222	1	117
430.392	1	117
430.563	1	94
430.734	1	111
430.904	1	106
431.075	1	101
431.245	1	105
431.416	1	107
431.586	1	109
431.757	1	114
431.927	1	127
432.098	1	112
432.269	1	106
432.439	1	112
432.610	1	111
432.780	1	104
432.951	1	108
433.121	1	108
433.292	1	119
433.462	1	112
433.633	1	111
433.804	1	112
433.974	1	118
434.145	1	97
434.315	1	108
434.486	1	95
434.656	1	121
434.827	1	111
434.997	1	113
435.168	1	94
435.339	1	106
435.509	1	104
435.680	1	105
435.850	1	89
436.021	1	103
436.191	1	93
436.362	1	110
436.532	1	106
436.703	1	102
436.873	1	105
437.044	1	103
437.214	1	89
437.385	1	98
437.556	1	101
437.726	1	104
437.897	1	105
438.067	1	108
438.238	1	108
438.408	1	97
438.579	1	93
438.749	1	96
438.920	1	116
439.090	1	78
439.261	1	91
439.431	1	91
439.602	1	98
439.772	1	100
439.943	1	92
440.113	1	94
440.284	1	104
440.455	1	97
440.625	1	101
440.796	1	99
440.966	1	100
441.137	1	99
441.307	1	100
441.478	1	89
441.648	1	92
441.819	1	95
441.989	1	107
442.160	1	95
442.330	1	104
442.501	1	94
442.671	1	94
442.842	1	102
443.012	1	97
443.183	1	90
443.353	1	95
443.524	1	102
443.694	1	84
443.865	1	105
444.035	1	86
444.206	1	91
444.376	1	88
444.547	1	78
444.717	1	89
444.888	1	73
445.058	1	93
445.229	1	93
445.399	1	103
445.570	1	92
445.740	1	90
445.911	1	95
446.081	1	100
446.252	1	103
446.422	1	90
446.593	1	95
446.763	1	86
446.934	1	85
447.104	1	88
447.275	1	91
447.445	1	89
447.616	1	95
447.786	1	101
447.957	1	93
448.127	1	91
448.298	1	92
448.468	1	106
448.639	1	91
448.809	1	92
448.979	1	102
449.150	1	91
449.320	1	87
449.491	1	80
449.661	1	86
449.832	1	81
450.002	1	89
450.173	1	94
450.343	1	90
450.514	1	92
450.684	1	90
450.855	1	93
451.025	1	80
451.196	1	77
451.366	1	89
451.537	1	88
451.707	1	96
451.878	1	89
452.048	1	78
452.218	1	97
452.389	1	92
452.559	1	88
452.730	1	89
452.900	1	77
453.071	1	73
453.241	1	83
453.412	1	77
453.582	1	78
453.753	1	81
453.923	1	75
454.093	1	80
454.264	1	91
454.434	1	88
454.605	1	67
454.775	1	81
454.946	1	70
455.116	1	88
455.287	1	65
455.457	1	78
455.628	1	70
455.798	1	81
455.968	1	90
456.139	1	89
456.309	1	88
456.480	1	86
456.650	1	78
456.821	1	81
456.991	1	89
457.161	1	73
457.332	1	80
457.502	1	77
457.673	1	74
457.843	1	80
458.014	1	78
458.184	1	78
458.355	1	84
458.525	1	81
458.695	1	68
458.866	1	67
459.036	1	76
459.207	1	80
459.377	1	77
459.548	1	77
459.718	1	80
459.888	1	86
460.059	1	74
460.229	1	68
460.400	1	68
460.570	1	59
460.740	1	85
460.911	1	72
461.081	1	71
461.252	1	79
461.422	1	71
461.593	1	79
461.763	1	77
461.933	1	66
462.104	1	64
462.274	1	63
462.445	1	78
462.615	1	82
462.785	1	76
462.956	1	66
463.126	1	78
463.297	1	73
463.467	1	82
463.638	1	72
463.808	1	72
463.978	1	60
464.149	1	71
464.319	1	66
464.490	1	71
464.660	1	73
464.830	1	71
465.001	1	65
465.171	1	67
465.342	1	60
465.512	1	71
465.682	1	63
465.853	1	78
466.023	1	67
466.194	1	74
466.364	1	82
466.534	1	59
466.705	1	64
466.875	1	49
467.045	1	59
467.216	1	65
467.386	1	56
467.557	1	74
467.727	1	67
467.897	1	60
468.068	1	69
468.238	1	64
468.409	1	59
468.579	1	64
468.749	1	71
468.920	1	64
469.090	1	67
469.260	1	61
469.431	1	57
469.601	1	61
469.772	1	66
469.942	1	64
470.112	1	57
470.283	1	72
470.453	1	60
470.623	1	69
470.794	1	57
470.964	1	60
471.135	1	69
471.305	1	63
471.475	1	52
471.646	1	66
471.816	1	72
471.986	1	58
472.157	1	62
472.327	1	59
472.497	1	60
472.668	1	64
472.838	1	61
473.009	1	57
473.179	1	62
473.349	1	60
473.520	1	77
473.690	1	66
473.860	1	57
474.031	1	51
474.201	1	62
474.371	1	66
474.542	1	56
474.712	1	59
474.882	1	59
475.053	1	64
475.223	1	60
475.394	1	57
475.564	1	59
475.734	1	48
475.905	1	70
476.075	1	60
476.245	1	60
476.416	1	53
476.586	1	48
476.756	1	62
476.927	1	58
477.097	1	57
477.267	1	63
477.438	1	57
477.608	1	73
477.778	1	52
477.949	1	52
478.119	1	65
478.289	1	56
478.460	1	50
478.630	1	56
478.800	1	61
478.971	1	54
479.141	1	64
479.311	1	58
479.482	1	60
479.652	1	54
479.822	1	47
479.993	1	51
480.163	1	54
480.333	1	61
480.504	1	62
480.674	1	52
480.844	1	63
481.015	1	66
481.185	1	63
481.355	1	57
481.525	1	39
481.696	1	61
481.866	1	52
482.036	1	56
482.207	1	66
482.377	1	46
482.547	1	61
482.718	1	64
482.888	1	62
483.058	1	51
483.229	1	52
483.399	1	50
483.569	1	44
483.740	1	46
483.910	1	37
484.080	1	46
484.250	1	49
484.421	1	47
484.591	1	45
484.761	1	57
484.932	1	39
485.102	1	55
485.272	1	43
485.443	1	46
485.613	1	40
485.783	1	49
485.953	1	58
486.124	1	48
486.294	1	58
486.464	1	56
486.635	1	47
486.805	1	52
486.975	1	39
487.146	1	46
487.316	1	45
487.486	1	53
487.656	1	48
487.827	1	47
487.997	1	40
488.167	1	50
488.338	1	44
488.508	1	44
488.678	1	33
488.848	1	47
489.019	1	34
489.189	1	55
489.359	1	59
489.529	1	42
489.700	1	47
489.870	1	54
490.040	1	38
490.211	1	35
490.381	1	46
490.551	1	44
490.721	1	54
490.892	1	30
491.062	1	35
491.232	1	42
491.402	1	52
491.573	1	49
491.743	1	38
491.913	1	45
492.084	1	51
492.254	1	35
492.424	1	48
492.594	1	38
492.765	1	47
492.935	1	59
493.105	1	45
493.275	1	43
493.446	1	36
493.616	1	26
493.786	1	50
493.956	1	52
494.127	1	47
494.297	1	34
494.467	1	43
494.637	1	40
494.808	1	43
494.978	1	43
495.148	1	44
495.318	1	43
495.489	1	38
495.659	1	44
495.829	1	40
495.999	1	47
496.170	1	45
496.340	1	36
496.510	1	36
496.680	1	45
496.851	1	43
497.021	1	33
497.191	1	45
497.361	1	29
497.532	1	45
497.702	1	46
497.872	1	40
498.042	1	36
498.213	1	35
498.383	1	36
498.553	1	34
498.723	1	30
498.894	1	38
499.064	1	35
499.234	1	39
499.404	1	35
499.574	1	44
499.745	1	32
499.915	1	30
500.085	1	33
500.255	1	25
500.426	1	28
500.596	1	26
500.766	1	32
500.936	1	36
501.106	1	32
501.277	1	31
501.447	1	45
501.617	1	34
501.787	1	34
501.958	1	33
502.128	1	36
502.298	1	40
502.468	1	28
502.638	1	42
502.809	1	25
502.979	1	26
503.149	1	33
503.319	1	40
503.489	1	29
503.660	1	39
503.830	1	30
504.000	1	40
504.170	1	31
504.340	1	24
504.511	1	34
504.681	1	31
504.851	1	31
505.021	1	27
505.192	1	39
505.362	1	31
505.532	1	21
505.702	1	45
505.872	1	29
506.043	1	37
506.213	1	35
506.383	1	35
506.553	1	29
506.723	1	20
506.893	1	33
507.064	1	40
507.234	1	29
507.404	1	12
507.574	1	33
507.744	1	27
507.915	1	30
508.085	1	29
508.255	1	32
508.425	1	28
508.595	1	22
508.766	1	30
508.936	1	40
509.106	1	31
509.276	1	36
509.446	1	22
509.616	1	28
509.787	1	26
509.957	1	29
510.127	1	16
510.297	1	32
510.467	1	40
510.638	1	21
510.808	1	41
510.978	1	19
511.148	1	17
511.318	1	29
511.488	1	37
511.659	1	24
511.829	1	22
511.999	1	28
512.169	1	36
512.339	1	33
512.509	1	16
512.680	1	23
512.850	1	26
513.020	1	25
513.190	1	19
513.360	1	43
513.530	1	18
513.700	1	28
513.871	1	30
514.041	1	30
514.211	1	32
514.381	1	34
514.551	1	24
514.721	1	27
514.892	1	24
515.062	1	29
515.232	1	27
515.402	1	23
515.572	1	29
515.742	1	33
515.912	1	33
516.083	1	36
516.253	1	30
516.423	1	25
516.593	1	24
516.763	1	21
516.933	1	19
517.104	1	32
517.274	1	15
517.444	1	23
517.614	1	32
517.784	1	16
517.954	1	20
518.124	1	20
518.294	1	13
518.465	1	22
518.635	1	24
518.805	1	22
518.975	1	30
519.145	1	21
519.315	1	20
519.485	1	20
519.656	1	26
519.826	1	25
519.996	1	25
520.166	1	22
520.336	1	26
520.506	1	13
520.676	1	28
520.846	1	30
521.017	1	14
521.187	1	30
521.357	1	24
521.527	1	17
521.697	1	21
521.867	1	29
522.037	1	20
522.207	1	24
522.377	1	37
522.548	1	5
522.718	1	16
522.888	1	32
523.058	1	22
523.228	1	16
523.398	1	24
523.568	1	9
523.738	1	12
523.909	1	25
524.079	1	15
524.249	1	15
524.419	1	28
524.589	1	21
524.759	1	34
524.929	1	29
525.099	1	18
525.269	1	23
525.439	1	26
525.610	1	31
525.780	1	13
525.950	1	27
526.120	1	9
526.290	1	16
526.460	1	24
526.630	1	15
526.800	1	12
526.970	1	28
527.140	1	18
527.311	1	22
527.481	1	20
527.651	1	22
527.821	1	20
527.991	1	17
528.161	1	29
528.331	1	2
528.501	1	7
528.671	1	25
528.841	1	14
529.011	1	24
529.181	1	16
529.352	1	18
529.522	1	18
529.692	1	22
529.862	1	18
530.032	1	12
530.202	1	9
530.372	1	9
530.542	1	20
530.712	1	16
530.882	1	23
531.052	1	27
531.222	1	19
531.392	1	18
531.563	1	28
531.733	1	12
531.903	1	13
532.073	1	19
532.243	1	27
532.413	1	35
532.583	1	20
532.753	1	11
532.923	1	28
533.093	1	6
533.263	1	12
533.433	1	8
533.603	1	9
533.773	1	21
533.943	1	15
534.113	1	14
534.284	1	18
534.454	1	9
534.624	1	13
534.794	1	13
534.964	1	22
535.134	1	12
535.304	1	18
535.474	1	14
535.644	1	18
535.814	1	20
535.984	1	16
536.154	1	12
536.324	1	5
536.494	1	19
536.664	1	13
536.834	1	9
537.004	1	24
537.174	1	20
537.344	1	21
537.514	1	5
537.685	1	29
537.855	1	17
538.025	1	21
538.195	1	4
538.365	1	21
538.535	1	15
538.705	1	17
538.875	1	12
539.045	1	12
539.215	1	0
539.385	1	18
539.555	1	7
539.725	1	15
539.895	1	16
540.065	1	15
540.235	1	14
540.405	1	13
540.575	1	7
540.745	1	19
540.915	1	8
541.085	1	9
541.255	1	16
541.425	1	18
541.595	1	12
541.765	1	19
541.935	1	13
542.105	1	14
542.275	1	10
542.445	1	14
542.615	1	16
542.785	1	16
542.955	1	24
543.125	1	6
543.295	1	12
543.465	1	16
543.635	1	12
543.805	1	19
543.975	1	10
544.145	1	19
544.315	1	8
544.485	1	11
544.655	1	24
544.825	1	10
544.995	1	15
545.165	1	17
545.335	1	15
545.505	1	6
545.675	1	14
545.845	1	21
546.015	1	10
546.185	1	5
546.355	1	20
546.525	1	27
546.695	1	9
546.865	1	19
547.035	1	9
547.205	1	29
547.375	1	16
547.545	1	20
547.715	1	19
547.885	1	11
548.055	1	16
548.225	1	14
548.395	1	8
548.565	1	17
548.735	1	8
548.905	1	9
549.075	1	12
549.245	1	18
549.415	1	12
549.585	1	9
549.755	1	14
549.925	1	18
550.095	1	0
550.265	1	8
550.435	1	16
550.605	1	4
550.775	1	7
550.945	1	8
551.115	1	22
551.285	1	14
551.455	1	17
551.625	1	3
551.795	1	14
551.965	1	2
552.135	1	8
552.305	1	10
552.475	1	12
552.645	1	-3
552.815	1	9
552.985	1	10
553.155	1	12
553.325	1	9
553.495	1	19
553.665	1	7
553.835	1	18
554.004	1	8
554.174	1	3
554.344	1	20
554.514	1	4
554.684	1	19
554.854	1	3
555.024	1	16
555.194	1	7
555.364	1	11
555.534	1	5
555.704	1	9
555.874	1	21
556.044	1	12
556.214	1	18
556.384	1	18
556.554	1	17
556.724	1	6
556.894	1	6
557.064	1	3
557.234	1	3
557.404	1	12
557.573	1	11
557.743	1	3
557.913	1	-2
558.083	1	15
558.253	1	13
558.423	1	4
558.593	1	8
558.763	1	18
558.933	1	7
559.103	1	-1
559.273	1	16
559.443	1	12
559.613	1	13
559.783	1	12
559.953	1	4
560.122	1	17
560.292	1	-1
560.462	1	3
560.632	1	6
560.802	1	14
560.972	1	4
561.142	1	20
561.312	1	7
561.482	1	7
561.652	1	15
561.822	1	4
561.992	1	13
562.162	1	6
562.331	1	5
562.501	1	9
562.671	1	12
562.841	1	5
563.011	1	11
563.181	1	-2
563.351	1	-5
563.521	1	2
563.691	1	11
563.861	1	15
564.031	1	8
564.201	1	13
564.370	1	9
564.540	1	5
564.710	1	2
564.880	1	4
565.050	1	13
565.220	1	17
565.390	1	8
565.560	1	19
565.730	1	17
565.900	1	9
566.069	1	9
566.239	1	21
566.409	1	11
566.579	1	15
566.749	1	11
566.919	1	2
567.089	1	2
567.259	1	9
567.429	1	7
567.599	1	8
567.768	1	1
567.938	1	10
568.108	1	6
568.278	1	16
568.448	1	9
568.618	1	6
568.788	1	12
568.958	1	12
569.128	1	10
569.297	1	-1
569.467	1	23
569.637	1	17
569.807	1	12
569.977	1	7
570.147	1	10
570.317	1	9
570.487	1	7
570.656	1	16
570.826	1	13
570.996	1	16
571.166	1	11
571.336	1	8
571.506	1	11
571.676	1	14
571.846	1	16
572.015	1	13
572.185	1	16
572.355	1	11
572.525	1	7
572.695	1	1
572.865	1	21
573.035	1	13
573.205	1	5
573.374	1	6
573.544	1	2
573.714	1	4
573.884	1	2
574.054	1	4
574.224	1	15
574.394	1	5
574.563	1	3
574.733	1	9
574.903	1	7
575.073	1	12
575.243	1	-3
575.413	1	4
575.583	1	12
575.752	1	2
575.922	1	2
576.092	1	2
576.262	1	15
576.432	1	8
576.602	1	0
576.772	1	7
576.941	1	13
577.111	1	6
577.281	1	4
577.451	1	18
577.621	1	4
577.791	1	10
577.960	1	-1
578.130	1	15
578.300	1	13
578.470	1	2
578.640	1	6
578.810	1	5
578.979	1	14
579.149	1	8
579.319	1	14
579.489	1	17
579.659	1	13
579.829	1	3
579.998	1	4
580.168	1	2
580.338	1	9
580.508	1	7
580.678	1	7
580.848	1	6
581.017	1	12
581.187	1	8
581.357	1	-1
581.527	1	16
581.697	1	11
581.867	1	6
582.036	1	7
582.206	1	14
582.376	1	14
582.546	1	9
582.716	1	11
582.885	1	0
583.055	1	-3
583.225	1	1
583.395	1	8
583.565	1	10
583.735	1	12
583.904	1	6
584.074	1	3
584.244	1	-4
584.414	1	7
584.584	1	2
584.753	1	13
584.923	1	7
585.093	1	9
585.263	1	14
585.433	1	6
585.602	1	5
585.772	1	20
585.942	1	4
586.112	1	20
586.282	1	7
586.451	1	18
586.621	1	6
586.791	1	2
586.961	1	4
587.131	1	13
587.300	1	13
587.470	1	6
587.640	1	2
587.810	1	-9
587.980	1	19
588.149	1	13
588.319	1	20
588.489	1	7
588.659	1	6
588.829	1	13
588.998	1	5
589.168	1	8
589.338	1	7
589.508	1	8
589.677	1	7
589.847	1	11
590.017	1	-2
590.187	1	10
590.357	1	0
590.526	1	4
590.696	1	15
590.866	1	9
591.036	1	15
591.205	1	11
591.375	1	5
591.545	1	1
591.715	1	-1
591.885	1	12
592.054	1	10
592.224	1	6
592.394	1	0
592.564	1	9
592.733	1	5
592.903	1	5
593.073	1	-1
593.243	1	10
593.412	1	-10
593.582	1	4
593.752	1	9
593.922	1	13
594.091	1	15
594.261	1	4
594.431	1	14
594.601	1	6
594.771	1	6
594.940	1	7
595.110	1	14
595.280	1	8
595.450	1	10
595.619	1	15
595.789	1	2
595.959	1	6
596.129	1	8
596.298	1	16
596.468	1	1
596.638	1	11
596.808	1	-3
596.977	1	2
597.147	1	0
597.317	1	13
597.487	1	12
597.656	1	12
597.826	1	13
597.996	1	3
598.166	1	7
598.335	1	-3
598.505	1	22
598.675	1	10
598.844	1	22
599.014	1	-5
599.184	1	17
599.354	1	14
599.523	1	4
599.693	1	4
599.863	1	15
600.033	1	6
600.202	1	6
600.372	1	5
600.542	1	14
600.712	1	4
600.881	1	10
601.051	1	19
601.221	1	8
601.390	1	16
601.560	1	18
601.730	1	8
601.900	1	1
602.069	1	11
602.239	1	14
602.409	1	11
602.578	1	15
602.748	1	9
602.918	1	10
603.088	1	14
603.257	1	5
603.427	1	12
603.597	1	11
603.767	1	11
603.936	1	14
604.106	1	8
604.276	1	14
604.445	1	2
604.615	1	8
604.785	1	11
604.954	1	3
605.124	1	14
605.294	1	2
605.464	1	3
605.633	1	12
605.803	1	8
605.973	1	5
606.142	1	12
606.312	1	14
606.482	1	2
606.652	1	18
606.821	1	11
606.991	1	8
607.161	1	10
607.330	1	11
607.500	1	7
607.670	1	10
607.839	1	13
608.009	1	10
608.179	1	13
608.348	1	16
608.518	1	20
608.688	1	-1
608.858	1	-1
609.027	1	17
609.197	1	18
609.367	1	3
609.536	1	-2
609.706	1	12
609.876	1	20
610.045	1	8
610.215	1	7
610.385	1	17
610.554	1	3
610.724	1	7
610.894	1	9
611.063	1	10
611.233	1	15
611.403	1	25
611.572	1	11
611.742	1	11
611.912	1	11
612.081	1	16
612.251	1	8
612.421	1	-1
612.590	1	13
612.760	1	5
612.930	1	28
613.099	1	12
613.269	1	7
613.439	1	8
613.608	1	13
613.778	1	21
613.948	1	11
614.117	1	0
614.287	1	-1
614.457	1	23
614.626	1	9
614.796	1	7
614.966	1	9
615.135	1	24
615.305	1	4
615.475	1	9
615.644	1	12
615.814	1	18
615.984	1	4
616.153	1	13
616.323	1	17
616.493	1	8
616.662	1	9
616.832	1	10
617.002	1	10
617.171	1	10
617.341	1	10
617.511	1	3
617.680	1	6
617.850	1	13
618.019	1	9
618.189	1	20
618.359	1	13
618.528	1	15
618.698	1	19
618.868	1	8
619.037	1	4
619.207	1	11
619.377	1	17
619.546	1	20
619.716	1	12
619.885	1	15
620.055	1	1
620.225	1	19
620.394	1	10
620.564	1	10
620.734	1	9
620.903	1	7
621.073	1	8
621.242	1	15
621.412	1	12
621.582	1	29
621.751	1	10
621.921	1	6
622.091	1	17
622.260	1	20
622.430	1	19
622.599	1	6
622.769	1	7
622.939	1	11
623.108	1	17
623.278	1	6
623.448	1	19
623.617	1	21
623.787	1	13
623.956	1	10
624.126	1	14
624.296	1	19
624.465	1	22
624.635	1	13
624.804	1	2
624.974	1	4
625.144	1	12
625.313	1	20
625.483	1	14
625.652	1	6
625.822	1	18
625.992	1	6
626.161	1	14
626.331	1	6
626.501	1	19
626.670	1	8
626.840	1	16
627.009	1	15
627.179	1	21
627.348	1	3
627.518	1	23
627.688	1	-3
627.857	1	17
628.027	1	11
628.196	1	17
628.366	1	17
628.536	1	10
628.705	1	14
628.875	1	8
629.044	1	9
629.214	1	11
629.384	1	18
629.553	1	8
629.723	1	23
629.892	1	15
630.062	1	14
630.232	1	17
630.401	1	15
630.571	1	14
630.740	1	7
630.910	1	25
631.079	1	14
631.249	1	11
631.419	1	16
631.588	1	10
631.758	1	12
631.927	1	17
632.097	1	7
632.266	1	24
632.436	1	10
632.606	1	10
632.775	1	27
632.945	1	18
633.114	1	10
633.284	1	16
633.453	1	13
633.623	1	27
633.793	1	12
633.962	1	16
634.132	1	25
634.301	1	27
634.471	1	19
634.640	1	5
634.810	1	19
634.979	1	14
635.149	1	10
635.319	1	14
635.488	1	16
635.658	1	12
635.827	1	13
635.997	1	17
636.166	1	16
636.336	1	4
636.505	1	8
636.675	1	20
636.845	1	18
637.014	1	3
637.184	1	26
637.353	1	5
637.523	1	16
637.692	1	16
637.862	1	13
638.031	1	6
638.201	1	15
638.370	1	17
638.540	1	7
638.710	1	13
638.879	1	20
639.049	1	18
639.218	1	20
639.388	1	24
639.557	1	10
639.727	1	22
639.896	1	10
640.066	1	5
640.235	1	14
640.405	1	13
640.574	1	27
640.744	1	9
640.914	1	17
641.083	1	13
641.253	1	23
641.422	1	2
641.592	1	26
641.761	1	20
641.931	1	24
642.100	1	8
642.270	1	14
642.439	1	22
642.609	1	25
642.778	1	16
642.948	1	24
643.117	1	15
643.287	1	16
643.456	1	15
643.626	1	7
643.795	1	18
643.965	1	16
644.134	1	18
644.304	1	16
644.473	1	14
644.643	1	14
644.812	1	12
644.982	1	12
645.151	1	10
645.321	1	21
645.490	1	28
645.660	1	11
645.829	1	12
645.999	1	15
646.168	1	32
646.338	1	3
646.507	1	12
646.677	1	16
646.846	1	22
647.016	1	22
647.185	1	14
647.355	1	23
647.524	1	15
647.694	1	5
647.863	1	8
648.033	1	22
648.202	1	21
648.372	1	-1
648.541	1	17
648.711	1	24
648.880	1	17
649.050	1	17
649.219	1	18
649.389	1	6
649.558	1	20
649.728	1	19
649.897	1	33
650.067	1	26
650.236	1	11
650.406	1	28
650.575	1	10
650.745	1	25
650.914	1	22
651.084	1	13
651.253	1	11
651.423	1	14
651.592	1	13
651.762	1	19
651.931	1	16
652.101	1	17
652.270	1	10
652.440	1	22
652.609	1	20
652.778	1	16
652.948	1	16
653.117	1	14
653.287	1	8
653.456	1	5
653.626	1	20
653.795	1	18
653.965	1	23
654.134	1	14
654.304	1	22
654.473	1	22
654.643	1	15
654.812	1	24
654.982	1	13
655.151	1	25
655.320	1	19
655.490	1	15
655.659	1	10
655.829	1	16
655.998	1	15
656.168	1	16
656.337	1	19
656.507	1	10
656.676	1	13
656.846	1	19
657.015	1	23
657.184	1	22
657.354	1	15
657.523	1	15
657.693	1	20
657.862	1	12
658.032	1	16
658.201	1	14
658.371	1	10
658.540	1	17
658.709	1	20
658.879	1	27
659.048	1	33
659.218	1	21
659.387	1	20
659.557	1	17
659.726	1	5
659.895	1	16
660.065	1	12
660.234	1	5
660.404	1	15
660.573	1	14
660.743	1	19
660.912	1	20
661.081	1	16
661.251	1	16
661.420	1	26
661.590	1	21
661.759	1	18
661.929	1	16
662.098	1	32
662.267	1	19
662.437	1	19
662.606	1	18
662.776	1	29
662.945	1	18
663.115	1	32
663.284	1	24
663.453	1	18
663.623	1	11
663.792	1	23
663.962	1	30
664.131	1	19
664.300	1	23
664.470	1	19
664.639	1	16
664.809	1	29
664.978	1	41
665.148	1	17
665.317	1	25
665.486	1	25
665.656	1	15
665.825	1	12
665.995	1	5
666.164	1	23
666.333	1	29
666.503	1	20
666.672	1	25
666.842	1	22
667.011	1	27
667.180	1	22
667.350	1	29
667.519	1	21
667.689	1	24
667.858	1	23
668.027	1	10
668.197	1	12
668.366	1	26
668.536	1	19
668.705	1	14
668.874	1	35
669.044	1	21
669.213	1	22
669.382	1	33
669.552	1	20
669.721	1	8
669.891	1	17
670.060	1	15
670.229	1	21
670.399	1	23
670.568	1	27
670.738	1	16
670.907	1	20
671.076	1	25
671.246	1	24
671.415	1	33
671.584	1	34
671.754	1	16
671.923	1	27
672.093	1	24
672.262	1	24
672.431	1	23
672.601	1	21
672.770	1	26
672.939	1	18
673.109	1	17
673.278	1	29
673.448	1	29
673.617	1	23
673.786	1	18
