325.333	1	0
325.504	1	-11
325.675	1	7
325.846	1	-5
326.017	1	-5
326.188	1	-7
326.359	1	7
326.531	1	2
326.702	1	-11
326.873	1	5
327.044	1	9
327.215	1	-2
327.386	1	-2
327.557	1	-12
327.728	1	-3
327.899	1	1
328.070	1	3
328.241	1	-2
328.412	1	-3
328.583	1	0
328.754	1	10
328.926	1	1
329.097	1	-3
329.268	1	-1
329.439	1	11
329.610	1	-5
329.781	1	4
329.952	1	2
330.123	1	3
330.294	1	-10
330.465	1	-5
330.636	1	2
330.807	1	-1
330.978	1	0
331.149	1	7
331.320	1	-4
331.492	1	-8
331.663	1	-3
331.834	1	2
332.005	1	0
332.176	1	6
332.347	1	-11
332.518	1	0
332.689	1	2
332.860	1	2
333.031	1	1
333.202	1	-4
333.373	1	-5
333.544	1	3
333.715	1	1
333.886	1	-6
334.057	1	-8
334.228	1	3
334.399	1	8
334.570	1	-2
334.741	1	1
334.912	1	-1
335.084	1	11
335.255	1	-4
335.426	1	2
335.597	1	-1
335.768	1	1
335.939	1	6
336.110	1	11
336.281	1	-2
336.452	1	3
336.623	1	-6
336.794	1	-5
336.965	1	-3
337.136	1	11
337.307	1	-3
337.478	1	5
337.649	1	-3
337.820	1	-2
337.991	1	6
338.162	1	-13
338.333	1	-2
338.504	1	6
338.675	1	-7
338.846	1	-11
339.017	1	-2
339.188	1	1
339.359	1	8
339.530	1	-1
339.701	1	4
339.872	1	3
340.043	1	1
340.214	1	10
340.385	1	-10
340.556	1	3
340.727	1	5
340.898	1	-3
341.069	1	2
341.240	1	-8
341.411	1	7
341.582	1	-5
341.753	1	2
341.924	1	8
342.095	1	-6
342.266	1	3
342.437	1	5
342.608	1	2
342.779	1	-3
342.950	1	-3
343.121	1	8
343.292	1	-3
343.463	1	18
343.634	1	-1
343.805	1	4
343.976	1	8
344.147	1	7
344.318	1	-11
344.489	1	-3
344.660	1	-4
344.831	1	15
345.002	1	3
345.173	1	-5
345.344	1	-6
345.515	1	6
345.686	1	-3
345.857	1	4
346.028	1	9
346.199	1	14
346.370	1	-1
346.541	1	-10
346.712	1	-2
346.883	1	-3
347.054	1	-1
347.225	1	-2
347.396	1	0
347.567	1	-5
347.738	1	4
347.909	1	4
348.080	1	1
348.251	1	-2
348.422	1	0
348.593	1	5
348.764	1	0
348.935	1	-1
349.106	1	-11
349.277	1	-4
349.448	1	-5
349.619	1	-2
349.790	1	6
349.961	1	-5
350.132	1	9
350.303	1	-4
350.474	1	5
350.645	1	-8
350.816	1	5
350.987	1	4
351.157	1	-1
351.328	1	0
351.499	1	10
351.670	1	-3
351.841	1	6
352.012	1	1
352.183	1	10
352.354	1	-9
352.525	1	10
352.696	1	-5
352.867	1	9
353.038	1	8
353.209	1	9
353.380	1	1
353.551	1	10
353.722	1	8
353.893	1	3
354.064	1	-4
354.235	1	-4
354.406	1	-9
354.576	1	2
354.747	1	6
354.918	1	3
355.089	1	5
355.260	1	-10
355.431	1	0
355.602	1	1
355.773	1	-3
355.944	1	4
356.115	1	0
356.286	1	8
356.457	1	3
356.628	1	4
356.799	1	7
356.970	1	7
357.141	1	4
357.311	1	10
357.482	1	-3
357.653	1	-6
357.824	1	7
357.995	1	10
358.166	1	3
358.337	1	-4
358.508	1	6
358.679	1	-10
358.850	1	6
359.021	1	0
359.192	1	15
359.363	1	-1
359.533	1	5
359.704	1	-4
359.875	1	-5
360.046	1	5
360.217	1	11
360.388	1	13
360.559	1	-2
360.730	1	-6
360.901	1	1
361.072	1	14
361.243	1	6
361.414	1	7
361.584	1	1
361.755	1	4
361.926	1	5
362.097	1	3
362.268	1	10
362.439	1	3
362.610	1	2
362.781	1	-2
362.952	1	8
363.123	1	1
363.293	1	2
363.464	1	-4
363.635	1	2
363.806	1	-2
363.977	1	5
364.148	1	-1
364.319	1	-8
364.490	1	9
364.661	1	8
364.832	1	3
365.002	1	6
365.173	1	2
365.344	1	-7
365.515	1	3
365.686	1	4
365.857	1	11
366.028	1	4
366.199	1	10
366.370	1	1
366.540	1	4
366.711	1	10
366.882	1	18
367.053	1	4
367.224	1	3
367.395	1	-3
367.566	1	8
367.737	1	-5
367.908	1	2
368.078	1	1
368.249	1	5
368.420	1	2
368.591	1	8
368.762	1	13
368.933	1	6
369.104	1	9
369.274	1	6
369.445	1	6
369.616	1	-4
369.787	1	-2
369.958	1	0
370.129	1	2
370.300	1	2
370.471	1	10
370.641	1	0
370.812	1	13
370.983	1	3
371.154	1	3
371.325	1	4
371.496	1	7
371.667	1	11
371.837	1	4
372.008	1	3
372.179	1	-1
372.350	1	2
372.521	1	2
372.692	1	7
372.863	1	-1
373.033	1	4
373.204	1	1
373.375	1	-1
373.546	1	-4
373.717	1	-4
373.888	1	8
374.059	1	4
374.229	1	13
374.400	1	-2
374.571	1	-1
374.742	1	2
374.913	1	4
375.084	1	-3
375.254	1	1
375.425	1	2
375.596	1	9
375.767	1	11
375.938	1	-8
376.109	1	3
376.279	1	6
376.450	1	8
376.621	1	-3
376.792	1	5
376.963	1	2
377.134	1	11
377.304	1	7
377.475	1	2
377.646	1	0
377.817	1	15
377.988	1	-1
378.159	1	-1
378.329	1	-1
378.500	1	8
378.671	1	3
378.842	1	2
379.013	1	4
379.184	1	-4
379.354	1	5
379.525	1	16
379.696	1	16
379.867	1	1
380.038	1	6
380.209	1	4
380.379	1	6
380.550	1	-7
380.721	1	3
380.892	1	-4
381.063	1	8
381.233	1	17
381.404	1	4
381.575	1	7
381.746	1	14
381.917	1	2
382.087	1	16
382.258	1	6
382.429	1	6
382.600	1	4
382.771	1	-6
382.941	1	6
383.112	1	0
383.283	1	4
383.454	1	1
383.625	1	9
383.795	1	14
383.966	1	8
384.137	1	7
384.308	1	7
384.479	1	2
384.649	1	2
384.820	1	8
384.991	1	-4
385.162	1	10
385.333	1	3
385.503	1	2
385.674	1	10
385.845	1	11
386.016	1	10
386.187	1	-4
386.357	1	16
386.528	1	-2
386.699	1	2
386.870	1	2
387.041	1	10
387.211	1	-1
387.382	1	10
387.553	1	13
387.724	1	5
387.894	1	-5
388.065	1	11
388.236	1	5
388.407	1	6
388.578	1	11
388.748	1	4
388.919	1	10
389.090	1	11
389.261	1	0
389.431	1	-1
389.602	1	7
389.773	1	9
389.944	1	8
390.114	1	14
390.285	1	16
390.456	1	13
390.627	1	-7
390.798	1	4
390.968	1	0
391.139	1	3
391.310	1	5
391.481	1	4
391.651	1	14
391.822	1	16
391.993	1	3
392.164	1	6
392.334	1	-4
392.505	1	9
392.676	1	-6
392.847	1	10
393.017	1	-2
393.188	1	14
393.359	1	18
393.530	1	22
393.700	1	6
393.871	1	11
394.042	1	-5
394.213	1	5
394.383	1	7
394.554	1	0
394.725	1	-7
394.896	1	14
395.066	1	8
395.237	1	16
395.408	1	5
395.579	1	13
395.749	1	4
395.920	1	4
396.091	1	4
396.262	1	3
396.432	1	1
396.603	1	10
396.774	1	-4
396.945	1	2
397.115	1	12
397.286	1	15
397.457	1	4
397.627	1	-2
397.798	1	7
397.969	1	9
398.140	1	2
398.310	1	9
398.481	1	5
398.652	1	6
398.823	1	5
398.993	1	3
399.164	1	9
399.335	1	2
399.505	1	1
399.676	1	1
399.847	1	-3
400.018	1	-1
400.188	1	11
400.359	1	6
400.530	1	6
400.700	1	15
400.871	1	8
401.042	1	-1
401.213	1	1
401.383	1	8
401.554	1	6
401.725	1	-1
401.895	1	-1
402.066	1	8
402.237	1	11
402.408	1	6
402.578	1	12
402.749	1	-2
402.920	1	6
403.090	1	9
403.261	1	7
403.432	1	2
403.603	1	8
403.773	1	13
403.944	1	13
404.115	1	11
404.285	1	15
404.456	1	14
404.627	1	12
404.797	1	2
404.968	1	13
405.139	1	10
405.310	1	8
405.480	1	0
405.651	1	-7
405.822	1	11
405.992	1	19
406.163	1	-4
406.334	1	8
406.504	1	7
406.675	1	7
406.846	1	12
407.016	1	2
407.187	1	3
407.358	1	-6
407.528	1	6
407.699	1	13
407.870	1	18
408.041	1	1
408.211	1	14
408.382	1	2
408.553	1	9
408.723	1	13
408.894	1	12
409.065	1	7
409.235	1	10
409.406	1	4
409.577	1	6
409.747	1	10
409.918	1	15
410.089	1	15
410.259	1	7
410.430	1	-3
410.601	1	7
410.771	1	11
410.942	1	3
411.113	1	2
411.283	1	2
411.454	1	16
411.625	1	15
411.795	1	15
411.966	1	0
412.137	1	2
412.307	1	6
412.478	1	12
412.649	1	12
412.819	1	6
412.990	1	9
413.161	1	11
413.331	1	17
413.502	1	6
413.672	1	-3
413.843	1	5
414.014	1	9
414.184	1	12
414.355	1	13
414.526	1	15
414.696	1	0
414.867	1	-9
415.038	1	4
415.208	1	7
415.379	1	12
415.550	1	9
415.720	1	0
415.891	1	17
416.062	1	15
416.232	1	10
416.403	1	19
416.573	1	-1
416.744	1	9
416.915	1	2
417.085	1	11
417.256	1	0
417.427	1	6
417.597	1	6
417.768	1	5
417.939	1	4
418.109	1	5
418.280	1	5
418.450	1	15
418.621	1	3
418.792	1	0
418.962	1	5
419.133	1	4
419.304	1	-3
419.474	1	13
419.645	1	4
419.815	1	14
419.986	1	19
420.157	1	0
420.327	1	-6
420.498	1	2
420.669	1	5
420.839	1	5
421.010	1	11
421.180	1	8
421.351	1	3
421.522	1	6
421.692	1	9
421.863	1	10
422.033	1	5
422.204	1	9
422.375	1	8
422.545	1	19
422.716	1	-5
422.886	1	14
423.057	1	0
423.228	1	7
423.398	1	12
423.569	1	4
423.740	1	5
423.910	1	12
424.081	1	16
424.251	1	10
424.422	1	5
424.593	1	3
424.763	1	12
424.934	1	13
425.104	1	12
425.275	1	-2
425.445	1	15
425.616	1	7
425.787	1	6
425.957	1	-2
426.128	1	5
426.298	1	13
426.469	1	3
426.640	1	7
426.810	1	-11
426.981	1	14
427.151	1	6
427.322	1	3
427.493	1	2
427.663	1	7
427.834	1	14
428.004	1	7
428.175	1	5
428.345	1	-3
428.516	1	12
428.687	1	12
428.857	1	7
429.028	1	-2
429.198	1	3
429.369	1	12
429.540	1	9
429.710	1	12
429.881	1	0
430.051	1	-6
430.222	1	16
430.392	1	5
430.563	1	1
430.734	1	11
430.904	1	11
431.075	1	8
431.245	1	9
431.416	1	8
431.586	1	11
431.757	1	14
431.927	1	4
432.098	1	8
432.269	1	-1
432.439	1	-2
432.610	1	5
432.780	1	11
432.951	1	-2
433.121	1	4
433.292	1	10
433.462	1	8
433.633	1	-4
433.804	1	1
433.974	1	9
434.145	1	3
434.315	1	3
434.486	1	-7
434.656	1	8
434.827	1	15
434.997	1	10
435.168	1	4
435.339	1	17
435.509	1	2
435.680	1	3
435.850	1	2
436.021	1	2
436.191	1	1
436.362	1	5
436.532	1	11
436.703	1	11
436.873	1	6
437.044	1	14
437.214	1	0
437.385	1	7
437.556	1	9
437.726	1	3
437.897	1	0
438.067	1	4
438.238	1	1
438.408	1	18
438.579	1	1
438.749	1	9
438.920	1	8
439.090	1	-3
439.261	1	5
439.431	1	2
439.602	1	2
439.772	1	6
439.943	1	-1
440.113	1	4
440.284	1	12
440.455	1	7
440.625	1	4
440.796	1	3
440.966	1	7
441.137	1	6
441.307	1	4
441.478	1	1
441.648	1	3
441.819	1	9
441.989	1	12
442.160	1	1
442.330	1	8
442.501	1	10
442.671	1	4
442.842	1	1
443.012	1	-4
443.183	1	7
443.353	1	2
443.524	1	8
443.694	1	1
443.865	1	12
444.035	1	10
444.206	1	2
444.376	1	8
444.547	1	6
444.717	1	-4
444.888	1	-5
445.058	1	0
445.229	1	5
445.399	1	-3
445.570	1	12
445.740	1	6
445.911	1	7
446.081	1	9
446.252	1	6
446.422	1	6
446.593	1	13
446.763	1	9
446.934	1	4
447.104	1	-6
447.275	1	-2
447.445	1	16
447.616	1	7
447.786	1	2
447.957	1	6
448.127	1	4
448.298	1	13
448.468	1	9
448.639	1	2
448.809	1	2
448.979	1	15
449.150	1	-5
449.320	1	10
449.491	1	9
449.661	1	-8
449.832	1	-4
450.002	1	1
450.173	1	3
450.343	1	3
450.514	1	6
450.684	1	2
450.855	1	8
451.025	1	5
451.196	1	-5
451.366	1	14
451.537	1	7
451.707	1	10
451.878	1	-3
452.048	1	-5
452.218	1	4
452.389	1	4
452.559	1	15
452.730	1	7
452.900	1	8
453.071	1	2
453.241	1	3
453.412	1	-5
453.582	1	19
453.753	1	11
453.923	1	4
454.093	1	4
454.264	1	23
454.434	1	6
454.605	1	2
454.775	1	2
454.946	1	-6
455.116	1	6
455.287	1	-10
455.457	1	12
455.628	1	0
455.798	1	10
455.968	1	10
456.139	1	8
456.309	1	-10
456.480	1	5
456.650	1	3
456.821	1	-3
456.991	1	2
457.161	1	9
457.332	1	8
457.502	1	7
457.673	1	-6
457.843	1	0
458.014	1	7
458.184	1	5
458.355	1	11
458.525	1	-3
458.695	1	6
458.866	1	-3
459.036	1	6
459.207	1	16
459.377	1	12
459.548	1	2
459.718	1	-9
459.888	1	6
460.059	1	7
460.229	1	1
460.400	1	-4
460.570	1	1
460.740	1	5
460.911	1	0
461.081	1	-1
461.252	1	7
461.422	1	-3
461.593	1	6
461.763	1	3
461.933	1	2
462.104	1	-7
462.274	1	1
462.445	1	-3
462.615	1	16
462.785	1	12
462.956	1	-3
463.126	1	-7
463.297	1	0
463.467	1	7
463.638	1	3
463.808	1	11
463.978	1	2
464.149	1	-1
464.319	1	5
464.490	1	0
464.660	1	-3
464.830	1	2
465.001	1	2
465.171	1	-5
465.342	1	-3
465.512	1	10
465.682	1	1
465.853	1	2
466.023	1	3
466.194	1	12
466.364	1	10
466.534	1	-6
466.705	1	13
466.875	1	-9
467.045	1	6
467.216	1	2
467.386	1	-4
467.557	1	13
467.727	1	1
467.897	1	7
468.068	1	6
468.238	1	1
468.409	1	8
468.579	1	3
468.749	1	6
468.920	1	-8
469.090	1	11
469.260	1	1
469.431	1	3
469.601	1	1
469.772	1	18
469.942	1	13
470.112	1	1
470.283	1	13
470.453	1	9
470.623	1	12
470.794	1	-1
470.964	1	-8
471.135	1	15
471.305	1	-7
471.475	1	8
471.646	1	15
471.816	1	3
471.986	1	2
472.157	1	6
472.327	1	3
472.497	1	-2
472.668	1	2
472.838	1	-5
473.009	1	1
473.179	1	-7
473.349	1	-7
473.520	1	15
473.690	1	4
473.860	1	-2
474.031	1	-13
474.201	1	5
474.371	1	7
474.542	1	-4
474.712	1	-4
474.882	1	7
475.053	1	7
475.223	1	9
475.394	1	-7
475.564	1	14
475.734	1	-4
475.905	1	6
476.075	1	3
476.245	1	-5
476.416	1	3
476.586	1	-2
476.756	1	-2
476.927	1	5
477.097	1	3
477.267	1	2
477.438	1	16
477.608	1	10
477.778	1	-10
477.949	1	-7
478.119	1	9
478.289	1	2
478.460	1	-5
478.630	1	-5
478.800	1	-3
478.971	1	7
479.141	1	3
479.311	1	2
479.482	1	3
479.652	1	4
479.822	1	-10
479.993	1	-10
480.163	1	-5
480.333	1	2
480.504	1	13
480.674	1	8
480.844	1	9
481.015	1	8
481.185	1	9
481.355	1	12
481.525	1	0
481.696	1	5
481.866	1	7
482.036	1	-1
482.207	1	7
482.377	1	-4
482.547	1	10
482.718	1	2
482.888	1	4
483.058	1	2
483.229	1	3
483.399	1	7
483.569	1	-1
483.740	1	2
483.910	1	2
484.080	1	5
484.250	1	-4
484.421	1	5
484.591	1	3
484.761	1	7
484.932	1	-5
485.102	1	9
485.272	1	1
485.443	1	4
485.613	1	2
485.783	1	3
485.953	1	-4
486.124	1	7
486.294	1	3
486.464	1	6
486.635	1	7
486.805	1	-1
486.975	1	-12
487.146	1	5
487.316	1	4
487.486	1	2
487.656	1	-4
487.827	1	-5
487.997	1	-2
488.167	1	10
488.338	1	-5
488.508	1	9
488.678	1	-3
488.848	1	6
489.019	1	4
489.189	1	9
489.359	1	-5
489.529	1	-4
489.700	1	3
489.870	1	-1
490.040	1	-7
490.211	1	0
490.381	1	8
490.551	1	3
490.721	1	-1
490.892	1	-10
491.062	1	0
491.232	1	1
491.402	1	-1
491.573	1	0
491.743	1	4
491.913	1	2
492.084	1	0
492.254	1	-1
492.424	1	-1
492.594	1	2
492.765	1	6
492.935	1	14
493.105	1	1
493.275	1	-4
493.446	1	-11
493.616	1	-2
493.786	1	3
493.956	1	5
494.127	1	-7
494.297	1	-4
494.467	1	1
494.637	1	-2
494.808	1	-7
494.978	1	0
495.148	1	5
495.318	1	-6
495.489	1	-1
495.659	1	5
495.829	1	4
495.999	1	8
496.170	1	5
496.340	1	-3
496.510	1	7
496.680	1	-2
496.851	1	8
497.021	1	1
497.191	1	-1
497.361	1	-1
497.532	1	6
497.702	1	8
497.872	1	-1
498.042	1	-4
498.213	1	-4
498.383	1	3
498.553	1	2
498.723	1	-5
498.894	1	6
499.064	1	2
499.234	1	-1
499.404	1	3
499.574	1	3
499.745	1	9
499.915	1	0
500.085	1	9
500.255	1	-7
500.426	1	-2
500.596	1	-2
500.766	1	-10
500.936	1	-1
501.106	1	-8
501.277	1	-8
501.447	1	3
501.617	1	-6
501.787	1	-1
501.958	1	0
502.128	1	10
502.298	1	3
502.468	1	-7
502.638	1	-2
502.809	1	-7
502.979	1	7
503.149	1	2
503.319	1	11
503.489	1	-18
503.660	1	1
503.830	1	-1
504.000	1	2
504.170	1	-6
504.340	1	-4
504.511	1	-5
504.681	1	2
504.851	1	-5
505.021	1	3
505.192	1	-2
505.362	1	5
505.532	1	-6
505.702	1	7
505.872	1	-10
506.043	1	6
506.213	1	1
506.383	1	3
506.553	1	4
506.723	1	-9
506.893	1	-2
507.064	1	4
507.234	1	9
507.404	1	-1
507.574	1	-1
507.744	1	4
507.915	1	-1
508.085	1	0
508.255	1	0
508.425	1	1
508.595	1	-3
508.766	1	-11
508.936	1	4
509.106	1	6
509.276	1	1
509.446	1	-8
509.616	1	-8
509.787	1	0
509.957	1	0
510.127	1	-7
510.297	1	-8
510.467	1	1
510.638	1	3
510.808	1	8
510.978	1	-11
511.148	1	-1
511.318	1	-1
511.488	1	4
511.659	1	10
511.829	1	-10
511.999	1	4
512.169	1	10
512.339	1	4
512.509	1	-7
512.680	1	-8
512.850	1	5
513.020	1	3
513.190	1	-5
513.360	1	-4
513.530	1	2
513.700	1	1
513.871	1	3
514.041	1	4
514.211	1	2
514.381	1	2
514.551	1	-11
514.721	1	2
514.892	1	-4
515.062	1	3
515.232	1	-7
515.402	1	1
515.572	1	5
515.742	1	7
515.912	1	-7
516.083	1	-4
516.253	1	8
516.423	1	0
516.593	1	-2
516.763	1	-2
516.933	1	7
517.104	1	3
517.274	1	-7
517.444	1	-1
517.614	1	-1
517.784	1	-1
517.954	1	-2
518.124	1	1
518.294	1	-1
518.465	1	-9
518.635	1	4
518.805	1	2
518.975	1	11
519.145	1	-3
519.315	1	13
519.485	1	-4
519.656	1	-6
519.826	1	-13
519.996	1	-3
520.166	1	-6
520.336	1	2
520.506	1	-5
520.676	1	1
520.846	1	2
521.017	1	-6
521.187	1	2
521.357	1	-10
521.527	1	-2
521.697	1	-13
521.867	1	3
522.037	1	2
522.207	1	-1
522.377	1	0
522.548	1	-6
522.718	1	-2
522.888	1	1
523.058	1	3
523.228	1	-13
523.398	1	-2
523.568	1	-9
523.738	1	-4
523.909	1	3
524.079	1	1
524.249	1	-1
524.419	1	-4
524.589	1	5
524.759	1	6
524.929	1	-8
525.099	1	-9
525.269	1	7
525.439	1	1
525.610	1	10
525.780	1	-11
525.950	1	-2
526.120	1	-7
526.290	1	-9
526.460	1	-6
526.630	1	-4
526.800	1	-8
526.970	1	1
527.140	1	-2
527.311	1	2
527.481	1	8
527.651	1	-6
527.821	1	2
527.991	1	-12
528.161	1	8
528.331	1	0
528.501	1	-10
528.671	1	6
528.841	1	1
529.011	1	-3
529.181	1	-6
529.352	1	-3
529.522	1	0
529.692	1	5
529.862	1	1
530.032	1	-6
530.202	1	-11
530.372	1	-4
530.542	1	-11
530.712	1	5
530.882	1	2
531.052	1	-1
531.222	1	6
531.392	1	2
531.563	1	2
531.733	1	-7
531.903	1	-4
532.073	1	1
532.243	1	11
532.413	1	21
532.583	1	4
532.753	1	-13
532.923	1	3
533.093	1	-5
533.263	1	10
533.433	1	-3
533.603	1	0
533.773	1	6
533.943	1	-6
534.113	1	4
534.284	1	2
534.454	1	1
534.624	1	-3
534.794	1	-3
534.964	1	-5
535.134	1	-7
535.304	1	0
535.474	1	2
535.644	1	0
535.814	1	5
535.984	1	-2
536.154	1	-2
536.324	1	-6
536.494	1	6
536.664	1	3
536.834	1	1
537.004	1	11
537.174	1	1
537.344	1	-2
537.514	1	-5
537.685	1	3
537.855	1	-2
538.025	1	8
538.195	1	-1
538.365	1	2
538.535	1	-5
538.705	1	-8
538.875	1	4
539.045	1	-6
539.215	1	-9
539.385	1	-5
539.555	1	1
539.725	1	-1
539.895	1	-1
540.065	1	1
540.235	1	3
540.405	1	5
540.575	1	-14
540.745	1	1
540.915	1	1
541.085	1	-6
541.255	1	-9
541.425	1	0
541.595	1	-1
541.765	1	2
541.935	1	1
542.105	1	1
542.275	1	-2
542.445	1	-7
542.615	1	0
542.785	1	-2
542.955	1	15
543.125	1	-5
543.295	1	6
543.465	1	12
543.635	1	-16
543.805	1	9
543.975	1	-4
544.145	1	-6
544.315	1	-8
544.485	1	-5
544.655	1	6
544.825	1	1
544.995	1	-4
545.165	1	0
545.335	1	2
545.505	1	-6
545.675	1	8
545.845	1	5
546.015	1	-6
546.185	1	-9
546.355	1	-4
546.525	1	4
546.695	1	0
546.865	1	4
547.035	1	5
547.205	1	8
547.375	1	5
547.545	1	10
547.715	1	-4
547.885	1	-6
548.055	1	4
548.225	1	7
548.395	1	1
548.565	1	-10
548.735	1	-4
548.905	1	4
549.075	1	1
549.245	1	-4
549.415	1	1
549.585	1	-4
549.755	1	5
549.925	1	1
550.095	1	-3
550.265	1	6
550.435	1	-8
550.605	1	-7
550.775	1	-2
550.945	1	-5
551.115	1	10
551.285	1	4
551.455	1	4
551.625	1	-13
551.795	1	-6
551.965	1	-7
552.135	1	-5
552.305	1	-6
552.475	1	2
552.645	1	-8
552.815	1	-5
552.985	1	-4
553.155	1	-6
553.325	1	-5
553.495	1	2
553.665	1	-2
553.835	1	-4
554.004	1	-2
554.174	1	-4
554.344	1	4
554.514	1	-3
554.684	1	-3
554.854	1	-3
555.024	1	9
555.194	1	-2
555.364	1	-7
555.534	1	-11
555.704	1	2
555.874	1	6
556.044	1	4
556.214	1	7
556.384	1	7
556.554	1	1
556.724	1	-8
556.894	1	-4
557.064	1	-4
557.234	1	-5
557.404	1	3
557.573	1	-6
557.743	1	-10
557.913	1	-12
558.083	1	7
558.253	1	-1
558.423	1	-7
558.593	1	-3
558.763	1	-7
558.933	1	-1
559.103	1	-6
559.273	1	6
559.443	1	3
559.613	1	-4
559.783	1	-3
559.953	1	-15
560.122	1	1
560.292	1	-9
560.462	1	-4
560.632	1	-7
560.802	1	6
560.972	1	-8
561.142	1	-5
561.312	1	-13
561.482	1	6
561.652	1	8
561.822	1	-1
561.992	1	4
562.162	1	-1
562.331	1	-12
562.501	1	2
562.671	1	-6
562.841	1	-12
563.011	1	0
563.181	1	-4
563.351	1	-9
563.521	1	-4
563.691	1	-2
563.861	1	2
564.031	1	1
564.201	1	6
564.370	1	3
564.540	1	-11
564.710	1	-8
564.880	1	-1
565.050	1	0
565.220	1	6
565.390	1	-10
565.560	1	2
565.730	1	7
565.900	1	0
566.069	1	2
566.239	1	1
566.409	1	7
566.579	1	4
566.749	1	3
566.919	1	-7
567.089	1	-9
567.259	1	-2
567.429	1	-7
567.599	1	12
567.768	1	-3
567.938	1	-5
568.108	1	-4
568.278	1	6
568.448	1	-1
568.618	1	3
568.788	1	0
568.958	1	-9
569.128	1	-8
569.297	1	-5
569.467	1	5
569.637	1	0
569.807	1	4
569.977	1	-7
570.147	1	5
570.317	1	-2
570.487	1	-1
570.656	1	3
570.826	1	-3
570.996	1	7
571.166	1	-9
571.336	1	5
571.506	1	-3
571.676	1	5
571.846	1	0
572.015	1	1
572.185	1	1
572.355	1	-6
572.525	1	-16
572.695	1	0
572.865	1	3
573.035	1	0
573.205	1	6
573.374	1	-2
573.544	1	-5
573.714	1	-7
573.884	1	-10
574.054	1	-5
574.224	1	-3
574.394	1	-2
574.563	1	-2
574.733	1	4
574.903	1	-3
575.073	1	-5
575.243	1	-8
575.413	1	-1
575.583	1	-2
575.752	1	-3
575.922	1	4
576.092	1	0
576.262	1	-6
576.432	1	-3
576.602	1	-4
576.772	1	-8
576.941	1	1
577.111	1	-3
577.281	1	-8
577.451	1	7
577.621	1	5
577.791	1	10
577.960	1	-8
578.130	1	-4
578.300	1	-7
578.470	1	9
578.640	1	-1
578.810	1	-3
578.979	1	-1
579.149	1	-7
579.319	1	1
579.489	1	10
579.659	1	-3
579.829	1	-1
579.998	1	-22
580.168	1	-10
580.338	1	-1
580.508	1	-3
580.678	1	1
580.848	1	2
581.017	1	2
581.187	1	-5
581.357	1	-4
581.527	1	-1
581.697	1	-2
581.867	1	-2
582.036	1	-8
582.206	1	4
582.376	1	-4
582.546	1	-2
582.716	1	6
582.885	1	-4
583.055	1	-12
583.225	1	-3
583.395	1	-4
583.565	1	-1
583.735	1	-5
583.904	1	-10
584.074	1	-1
584.244	1	-1
584.414	1	1
584.584	1	-11
584.753	1	0
584.923	1	-8
585.093	1	1
585.263	1	0
585.433	1	4
585.602	1	-1
585.772	1	14
585.942	1	-13
586.112	1	0
586.282	1	0
586.451	1	14
586.621	1	3
586.791	1	-13
586.961	1	-4
587.131	1	-9
587.300	1	13
587.470	1	-7
587.640	1	-8
587.810	1	-15
587.980	1	-8
588.149	1	4
588.319	1	11
588.489	1	0
588.659	1	-3
588.829	1	-5
588.998	1	3
589.168	1	3
589.338	1	-3
589.508	1	-1
589.677	1	11
589.847	1	4
590.017	1	-9
590.187	1	-5
590.357	1	-9
590.526	1	1
590.696	1	9
590.866	1	-7
591.036	1	1
591.205	1	2
591.375	1	-1
591.545	1	-8
591.715	1	-3
591.885	1	6
592.054	1	0
592.224	1	0
592.394	1	-5
592.564	1	-2
592.733	1	-8
592.903	1	-13
593.073	1	0
593.243	1	-3
593.412	1	-4
593.582	1	-2
593.752	1	-4
593.922	1	-2
594.091	1	-2
594.261	1	-5
594.431	1	1
594.601	1	-3
594.771	1	-6
594.940	1	-6
595.110	1	-5
595.280	1	-2
595.450	1	-1
595.619	1	0
595.789	1	-8
595.959	1	-10
596.129	1	-6
596.298	1	0
596.468	1	8
596.638	1	2
596.808	1	-10
596.977	1	-4
597.147	1	-3
597.317	1	0
597.487	1	4
597.656	1	6
597.826	1	-3
597.996	1	-6
598.166	1	-9
598.335	1	-11
598.505	1	11
598.675	1	-10
598.844	1	4
599.014	1	-7
599.184	1	2
599.354	1	11
599.523	1	-5
599.693	1	-4
599.863	1	2
600.033	1	-2
600.202	1	4
600.372	1	-4
600.542	1	3
600.712	1	2
600.881	1	4
601.051	1	4
601.221	1	-9
601.390	1	4
601.560	1	2
601.730	1	-1
601.900	1	-3
602.069	1	4
602.239	1	-8
602.409	1	2
602.578	1	7
602.748	1	6
602.918	1	-6
603.088	1	-2
603.257	1	-5
603.427	1	6
603.597	1	2
603.767	1	-4
603.936	1	9
604.106	1	0
604.276	1	4
604.445	1	-5
604.615	1	-8
604.785	1	-7
604.954	1	6
605.124	1	-2
605.294	1	3
605.464	1	-7
605.633	1	-2
605.803	1	-1
605.973	1	1
606.142	1	-1
606.312	1	5
606.482	1	-2
606.652	1	0
606.821	1	3
606.991	1	2
607.161	1	-5
607.330	1	-10
607.500	1	-4
607.670	1	0
607.839	1	-8
608.009	1	-3
608.179	1	4
608.348	1	6
608.518	1	9
608.688	1	-3
608.858	1	2
609.027	1	11
609.197	1	0
609.367	1	-4
609.536	1	-15
609.706	1	3
609.876	1	-2
610.045	1	-1
610.215	1	0
610.385	1	9
610.554	1	-6
610.724	1	-6
610.894	1	2
611.063	1	0
611.233	1	12
611.403	1	-8
611.572	1	-4
611.742	1	-4
611.912	1	1
612.081	1	3
612.251	1	2
612.421	1	1
612.590	1	2
612.760	1	-2
612.930	1	6
613.099	1	2
613.269	1	3
613.439	1	-4
613.608	1	9
613.778	1	-4
613.948	1	11
614.117	1	-2
614.287	1	-6
614.457	1	-3
614.626	1	-5
614.796	1	-4
614.966	1	5
615.135	1	11
615.305	1	3
615.475	1	-2
615.644	1	16
615.814	1	14
615.984	1	-7
616.153	1	-4
616.323	1	-9
616.493	1	0
616.662	1	2
616.832	1	3
617.002	1	-1
617.171	1	4
617.341	1	4
617.511	1	-12
617.680	1	-9
617.850	1	6
618.019	1	-12
618.189	1	6
618.359	1	-5
618.528	1	-6
618.698	1	5
618.868	1	0
619.037	1	2
619.207	1	-6
619.377	1	3
619.546	1	6
619.716	1	-1
619.885	1	-1
620.055	1	-1
620.225	1	-5
620.394	1	-2
620.564	1	1
620.734	1	-2
620.903	1	-11
621.073	1	11
621.242	1	-2
621.412	1	-7
621.582	1	5
621.751	1	-9
621.921	1	2
622.091	1	-6
622.260	1	6
622.430	1	2
622.599	1	-2
622.769	1	-11
622.939	1	-6
623.108	1	-6
623.278	1	1
623.448	1	-1
623.617	1	1
623.787	1	3
623.956	1	0
624.126	1	-4
624.296	1	4
624.465	1	-4
624.635	1	-2
624.804	1	-19
624.974	1	-4
625.144	1	-8
625.313	1	14
625.483	1	8
625.652	1	4
625.822	1	-2
625.992	1	-4
626.161	1	-7
626.331	1	-4
626.501	1	-2
626.670	1	3
626.840	1	7
627.009	1	-3
627.179	1	-4
627.348	1	-5
627.518	1	7
627.688	1	-4
627.857	1	5
628.027	1	-2
628.196	1	11
628.366	1	-4
628.536	1	-6
628.705	1	-5
628.875	1	-2
629.044	1	-1
629.214	1	1
629.384	1	0
629.553	1	5
629.723	1	0
629.892	1	3
630.062	1	5
630.232	1	6
630.401	1	-5
630.571	1	-8
630.740	1	-5
630.910	1	-1
631.079	1	-2
631.249	1	-3
631.419	1	6
631.588	1	-3
631.758	1	-10
631.927	1	7
632.097	1	2
632.266	1	10
632.436	1	-1
632.606	1	-2
632.775	1	0
632.945	1	2
633.114	1	-8
633.284	1	-11
633.453	1	-2
633.623	1	5
633.793	1	-1
633.962	1	-1
634.132	1	1
634.301	1	2
634.471	1	3
634.640	1	-4
634.810	1	-1
634.979	1	-5
635.149	1	-10
635.319	1	-4
635.488	1	-8
635.658	1	0
635.827	1	4
635.997	1	-2
636.166	1	-7
636.336	1	-6
636.505	1	4
636.675	1	-6
636.845	1	-8
637.014	1	-7
637.184	1	4
637.353	1	-3
637.523	1	-6
637.692	1	2
637.862	1	-7
638.031	1	-7
638.201	1	9
638.370	1	-7
638.540	1	-5
638.710	1	-5
638.879	1	-3
639.049	1	4
639.218	1	2
639.388	1	1
639.557	1	1
639.727	1	4
639.896	1	-1
640.066	1	-2
640.235	1	-5
640.405	1	-1
640.574	1	1
640.744	1	-4
640.914	1	0
641.083	1	5
641.253	1	0
641.422	1	-11
641.592	1	6
641.761	1	0
641.931	1	6
642.100	1	-6
642.270	1	2
642.439	1	-4
642.609	1	3
642.778	1	0
642.948	1	11
643.117	1	7
643.287	1	8
643.456	1	-14
643.626	1	-4
643.795	1	0
643.965	1	-2
644.134	1	-5
644.304	1	-3
644.473	1	2
644.643	1	2
644.812	1	-4
644.982	1	0
645.151	1	-7
645.321	1	3
645.490	1	-2
645.660	1	2
645.829	1	-8
645.999	1	-11
646.168	1	17
646.338	1	-4
646.507	1	2
646.677	1	-1
646.846	1	3
647.016	1	7
647.185	1	4
647.355	1	0
647.524	1	-10
647.694	1	-12
647.863	1	-6
648.033	1	5
648.202	1	6
648.372	1	-11
648.541	1	4
648.711	1	6
648.880	1	1
649.050	1	-4
649.219	1	-4
649.389	1	-7
649.558	1	6
649.728	1	-2
649.897	1	-1
650.067	1	4
650.236	1	-9
650.406	1	-6
650.575	1	-8
650.745	1	-2
650.914	1	0
651.084	1	-16
651.253	1	-3
651.423	1	-8
651.592	1	-4
651.762	1	-8
651.931	1	3
652.101	1	-6
652.270	1	-5
652.440	1	7
652.609	1	9
652.778	1	6
652.948	1	-3
653.117	1	-14
653.287	1	-16
653.456	1	-3
653.626	1	-6
653.795	1	5
653.965	1	2
654.134	1	2
654.304	1	7
654.473	1	-4
654.643	1	-6
654.812	1	-3
654.982	1	-4
655.151	1	-1
655.320	1	-7
655.490	1	0
655.659	1	6
655.829	1	12
655.998	1	5
656.168	1	-5
656.337	1	1
656.507	1	-11
656.676	1	-10
656.846	1	-8
657.015	1	7
657.184	1	-8
657.354	1	0
657.523	1	1
657.693	1	4
657.862	1	-9
658.032	1	1
658.201	1	-8
658.371	1	1
658.540	1	-10
658.709	1	1
658.879	1	1
659.048	1	1
659.218	1	-6
659.387	1	2
659.557	1	-2
659.726	1	-4
659.895	1	6
660.065	1	-14
660.234	1	3
660.404	1	-3
660.573	1	-1
660.743	1	-7
660.912	1	2
661.081	1	-5
661.251	1	-1
661.420	1	-1
661.590	1	-6
661.759	1	-4
661.929	1	-8
662.098	1	2
662.267	1	-1
662.437	1	1
662.606	1	-1
662.776	1	0
662.945	1	8
663.115	1	6
663.284	1	-3
663.453	1	-12
663.623	1	-1
663.792	1	3
663.962	1	9
664.131	1	-1
664.300	1	0
664.470	1	-9
664.639	1	-1
664.809	1	-2
664.978	1	9
665.148	1	-1
665.317	1	4
665.486	1	2
665.656	1	2
665.825	1	3
665.995	1	-9
666.164	1	1
666.333	1	-3
666.503	1	-2
666.672	1	1
666.842	1	5
667.011	1	4
667.180	1	-7
667.350	1	-1
667.519	1	-1
667.689	1	-4
667.858	1	4
668.027	1	4
668.197	1	-3
668.366	1	2
668.536	1	-10
668.705	1	-7
668.874	1	3
669.044	1	8
669.213	1	-2
669.382	1	7
669.552	1	-5
669.721	1	-9
669.891	1	-9
670.060	1	-8
670.229	1	7
670.399	1	-3
670.568	1	13
670.738	1	-6
670.907	1	2
671.076	1	3
671.246	1	7
671.415	1	11
671.584	1	2
671.754	1	-6
671.923	1	-4
672.093	1	4
672.262	1	-18
672.431	1	-4
672.601	1	4
672.770	1	-1
672.939	1	-1
673.109	1	-1
673.278	1	1
673.448	1	2
673.617	1	-3
673.786	1	-13
