325.333	1	12
325.504	1	8
325.675	1	29
325.846	1	18
326.017	1	17
326.188	1	21
326.359	1	19
326.531	1	14
326.702	1	8
326.873	1	22
327.044	1	27
327.215	1	17
327.386	1	13
327.557	1	15
327.728	1	17
327.899	1	10
328.070	1	30
328.241	1	18
328.412	1	20
328.583	1	20
328.754	1	31
328.926	1	30
329.097	1	14
329.268	1	27
329.439	1	21
329.610	1	27
329.781	1	31
329.952	1	21
330.123	1	24
330.294	1	18
330.465	1	18
330.636	1	32
330.807	1	25
330.978	1	18
331.149	1	27
331.320	1	28
331.492	1	22
331.663	1	22
331.834	1	27
332.005	1	26
332.176	1	28
332.347	1	29
332.518	1	30
332.689	1	26
332.860	1	25
333.031	1	26
333.202	1	26
333.373	1	32
333.544	1	33
333.715	1	22
333.886	1	27
334.057	1	17
334.228	1	33
334.399	1	35
334.570	1	25
334.741	1	22
334.912	1	29
335.084	1	36
335.255	1	35
335.426	1	33
335.597	1	29
335.768	1	37
335.939	1	26
336.110	1	35
336.281	1	27
336.452	1	41
336.623	1	28
336.794	1	38
336.965	1	33
337.136	1	40
337.307	1	27
337.478	1	29
337.649	1	26
337.820	1	33
337.991	1	31
338.162	1	26
338.333	1	30
338.504	1	36
338.675	1	33
338.846	1	22
339.017	1	36
339.188	1	31
339.359	1	41
339.530	1	27
339.701	1	34
339.872	1	52
340.043	1	39
340.214	1	42
340.385	1	25
340.556	1	44
340.727	1	38
340.898	1	40
341.069	1	25
341.240	1	48
341.411	1	30
341.582	1	37
341.753	1	32
341.924	1	49
342.095	1	28
342.266	1	45
342.437	1	33
342.608	1	46
342.779	1	45
342.950	1	34
343.121	1	40
343.292	1	44
343.463	1	56
343.634	1	36
343.805	1	45
343.976	1	49
344.147	1	45
344.318	1	42
344.489	1	39
344.660	1	45
344.831	1	44
345.002	1	45
345.173	1	42
345.344	1	39
345.515	1	42
345.686	1	52
345.857	1	48
346.028	1	39
346.199	1	46
346.370	1	43
346.541	1	30
346.712	1	46
346.883	1	44
347.054	1	45
347.225	1	38
347.396	1	49
347.567	1	37
347.738	1	38
347.909	1	47
348.080	1	45
348.251	1	46
348.422	1	48
348.593	1	41
348.764	1	46
348.935	1	54
349.106	1	49
349.277	1	52
349.448	1	43
349.619	1	47
349.790	1	48
349.961	1	46
350.132	1	53
350.303	1	56
350.474	1	53
350.645	1	54
350.816	1	56
350.987	1	68
351.157	1	41
351.328	1	47
351.499	1	58
351.670	1	53
351.841	1	58
352.012	1	60
352.183	1	65
352.354	1	59
352.525	1	67
352.696	1	45
352.867	1	63
353.038	1	51
353.209	1	50
353.380	1	57
353.551	1	64
353.722	1	53
353.893	1	74
354.064	1	48
354.235	1	58
354.406	1	45
354.576	1	59
354.747	1	50
354.918	1	63
355.089	1	68
355.260	1	47
355.431	1	58
355.602	1	59
355.773	1	55
355.944	1	51
356.115	1	64
356.286	1	63
356.457	1	52
356.628	1	71
356.799	1	61
356.970	1	69
357.141	1	68
357.311	1	76
357.482	1	57
357.653	1	70
357.824	1	57
357.995	1	66
358.166	1	63
358.337	1	61
358.508	1	81
358.679	1	60
358.850	1	76
359.021	1	56
359.192	1	75
359.363	1	60
359.533	1	62
359.704	1	59
359.875	1	56
360.046	1	66
360.217	1	60
360.388	1	70
360.559	1	76
360.730	1	71
360.901	1	69
361.072	1	69
361.243	1	59
361.414	1	71
361.584	1	61
361.755	1	67
361.926	1	68
362.097	1	62
362.268	1	79
362.439	1	66
362.610	1	68
362.781	1	59
362.952	1	62
363.123	1	55
363.293	1	58
363.464	1	66
363.635	1	81
363.806	1	70
363.977	1	70
364.148	1	67
364.319	1	61
364.490	1	67
364.661	1	58
364.832	1	74
365.002	1	67
365.173	1	70
365.344	1	68
365.515	1	70
365.686	1	71
365.857	1	71
366.028	1	73
366.199	1	75
366.370	1	79
366.540	1	64
366.711	1	76
366.882	1	62
367.053	1	71
367.224	1	75
367.395	1	81
367.566	1	81
367.737	1	69
367.908	1	65
368.078	1	63
368.249	1	73
368.420	1	71
368.591	1	78
368.762	1	78
368.933	1	79
369.104	1	85
369.274	1	73
369.445	1	69
369.616	1	65
369.787	1	68
369.958	1	77
370.129	1	63
370.300	1	70
370.471	1	67
370.641	1	76
370.812	1	74
370.983	1	66
371.154	1	71
371.325	1	68
371.496	1	61
371.667	1	75
371.837	1	73
372.008	1	66
372.179	1	71
372.350	1	72
372.521	1	80
372.692	1	87
372.863	1	64
373.033	1	73
373.204	1	76
373.375	1	69
373.546	1	77
373.717	1	63
373.888	1	67
374.059	1	69
374.229	1	76
374.400	1	83
374.571	1	75
374.742	1	75
374.913	1	73
375.084	1	70
375.254	1	65
375.425	1	73
375.596	1	72
375.767	1	70
375.938	1	70
376.109	1	81
376.279	1	78
376.450	1	75
376.621	1	78
376.792	1	79
376.963	1	85
377.134	1	80
377.304	1	89
377.475	1	65
377.646	1	79
377.817	1	80
377.988	1	95
378.159	1	87
378.329	1	91
378.500	1	94
378.671	1	79
378.842	1	91
379.013	1	95
379.184	1	86
379.354	1	91
379.525	1	87
379.696	1	86
379.867	1	90
380.038	1	80
380.209	1	90
380.379	1	94
380.550	1	80
380.721	1	77
380.892	1	79
381.063	1	86
381.233	1	85
381.404	1	88
381.575	1	79
381.746	1	98
381.917	1	89
382.087	1	89
382.258	1	78
382.429	1	89
382.600	1	88
382.771	1	83
382.941	1	88
383.112	1	89
383.283	1	97
383.454	1	80
383.625	1	93
383.795	1	101
383.966	1	92
384.137	1	99
384.308	1	86
384.479	1	92
384.649	1	85
384.820	1	100
384.991	1	99
385.162	1	102
385.333	1	105
385.503	1	90
385.674	1	92
385.845	1	101
386.016	1	95
386.187	1	83
386.357	1	104
386.528	1	91
386.699	1	87
386.870	1	102
387.041	1	95
387.211	1	112
387.382	1	103
387.553	1	95
387.724	1	90
387.894	1	75
388.065	1	108
388.236	1	97
388.407	1	90
388.578	1	101
388.748	1	102
388.919	1	97
389.090	1	114
389.261	1	112
389.431	1	97
389.602	1	99
389.773	1	90
389.944	1	99
390.114	1	103
390.285	1	101
390.456	1	101
390.627	1	95
390.798	1	82
390.968	1	102
391.139	1	102
391.310	1	94
391.481	1	100
391.651	1	98
391.822	1	110
391.993	1	90
392.164	1	102
392.334	1	89
392.505	1	107
392.676	1	81
392.847	1	95
393.017	1	92
393.188	1	100
393.359	1	115
393.530	1	115
393.700	1	94
393.871	1	110
394.042	1	92
394.213	1	101
394.383	1	104
394.554	1	97
394.725	1	97
394.896	1	109
395.066	1	102
395.237	1	105
395.408	1	104
395.579	1	99
395.749	1	109
395.920	1	110
396.091	1	106
396.262	1	96
396.432	1	104
396.603	1	114
396.774	1	109
396.945	1	108
397.115	1	111
397.286	1	111
397.457	1	98
397.627	1	100
397.798	1	107
397.969	1	100
398.140	1	107
398.310	1	117
398.481	1	115
398.652	1	124
398.823	1	108
398.993	1	105
399.164	1	108
399.335	1	107
399.505	1	105
399.676	1	112
399.847	1	106
400.018	1	99
400.188	1	109
400.359	1	107
400.530	1	116
400.700	1	100
400.871	1	109
401.042	1	100
401.213	1	109
401.383	1	108
401.554	1	111
401.725	1	111
401.895	1	96
402.066	1	118
402.237	1	115
402.408	1	113
402.578	1	105
402.749	1	103
402.920	1	112
403.090	1	99
403.261	1	111
403.432	1	113
403.603	1	109
403.773	1	116
403.944	1	117
404.115	1	110
404.285	1	111
404.456	1	108
404.627	1	125
404.797	1	107
404.968	1	109
405.139	1	121
405.310	1	105
405.480	1	114
405.651	1	108
405.822	1	101
405.992	1	125
406.163	1	99
406.334	1	125
406.504	1	119
406.675	1	118
406.846	1	119
407.016	1	113
407.187	1	120
407.358	1	109
407.528	1	115
407.699	1	123
407.870	1	128
408.041	1	112
408.211	1	119
408.382	1	114
408.553	1	120
408.723	1	121
408.894	1	123
409.065	1	121
409.235	1	113
409.406	1	114
409.577	1	123
409.747	1	123
409.918	1	114
410.089	1	120
410.259	1	112
410.430	1	116
410.601	1	124
410.771	1	120
410.942	1	113
411.113	1	114
411.283	1	119
411.454	1	121
411.625	1	110
411.795	1	123
411.966	1	109
412.137	1	125
412.307	1	116
412.478	1	110
412.649	1	109
412.819	1	109
412.990	1	113
413.161	1	112
413.331	1	113
413.502	1	107
413.672	1	111
413.843	1	111
414.014	1	108
414.184	1	117
414.355	1	115
414.526	1	114
414.696	1	108
414.867	1	109
415.038	1	112
415.208	1	103
415.379	1	114
415.550	1	103
415.720	1	97
415.891	1	113
416.062	1	109
416.232	1	117
416.403	1	111
416.573	1	111
416.744	1	116
416.915	1	119
417.085	1	110
417.256	1	117
417.427	1	114
417.597	1	99
417.768	1	97
417.939	1	108
418.109	1	108
418.280	1	115
418.450	1	120
418.621	1	111
418.792	1	116
418.962	1	111
419.133	1	119
419.304	1	99
419.474	1	111
419.645	1	117
419.815	1	115
419.986	1	125
420.157	1	120
420.327	1	110
420.498	1	116
420.669	1	119
420.839	1	111
421.010	1	116
421.180	1	106
421.351	1	111
421.522	1	108
421.692	1	110
421.863	1	114
422.033	1	111
422.204	1	114
422.375	1	117
422.545	1	118
422.716	1	111
422.886	1	110
423.057	1	103
423.228	1	102
423.398	1	109
423.569	1	109
423.740	1	106
423.910	1	112
424.081	1	105
424.251	1	104
424.422	1	120
424.593	1	114
424.763	1	102
424.934	1	111
425.104	1	125
425.275	1	90
425.445	1	107
425.616	1	96
425.787	1	99
425.957	1	103
426.128	1	105
426.298	1	105
426.469	1	98
426.640	1	104
426.810	1	81
426.981	1	108
427.151	1	106
427.322	1	104
427.493	1	99
427.663	1	105
427.834	1	107
428.004	1	103
428.175	1	108
428.345	1	95
428.516	1	98
428.687	1	112
428.857	1	118
429.028	1	104
429.198	1	99
429.369	1	111
429.540	1	108
429.710	1	101
429.881	1	83
430.051	1	102
430.222	1	111
430.392	1	87
430.563	1	91
430.734	1	113
430.904	1	103
431.075	1	118
431.245	1	97
431.416	1	113
431.586	1	103
431.757	1	101
431.927	1	114
432.098	1	103
432.269	1	97
432.439	1	96
432.610	1	109
432.780	1	99
432.951	1	95
433.121	1	109
433.292	1	104
433.462	1	107
433.633	1	102
433.804	1	104
433.974	1	104
434.145	1	103
434.315	1	96
434.486	1	96
434.656	1	91
434.827	1	97
434.997	1	100
435.168	1	109
435.339	1	112
435.509	1	97
435.680	1	101
435.850	1	91
436.021	1	95
436.191	1	101
436.362	1	105
436.532	1	102
436.703	1	104
436.873	1	100
437.044	1	81
437.214	1	97
437.385	1	97
437.556	1	100
437.726	1	100
437.897	1	98
438.067	1	95
438.238	1	94
438.408	1	99
438.579	1	94
438.749	1	87
438.920	1	105
439.090	1	85
439.261	1	103
439.431	1	79
439.602	1	102
439.772	1	102
439.943	1	86
440.113	1	84
440.284	1	95
440.455	1	98
440.625	1	90
440.796	1	80
440.966	1	94
441.137	1	86
441.307	1	85
441.478	1	92
441.648	1	96
441.819	1	85
441.989	1	99
442.160	1	87
442.330	1	95
442.501	1	94
442.671	1	80
442.842	1	96
443.012	1	78
443.183	1	89
443.353	1	94
443.524	1	95
443.694	1	91
443.865	1	102
444.035	1	85
444.206	1	81
444.376	1	93
444.547	1	93
444.717	1	81
444.888	1	79
445.058	1	91
445.229	1	95
445.399	1	93
445.570	1	82
445.740	1	96
445.911	1	89
446.081	1	95
446.252	1	84
446.422	1	92
446.593	1	94
446.763	1	90
446.934	1	89
447.104	1	86
447.275	1	85
447.445	1	91
447.616	1	85
447.786	1	79
447.957	1	88
448.127	1	94
448.298	1	84
448.468	1	85
448.639	1	88
448.809	1	89
448.979	1	97
449.150	1	76
449.320	1	89
449.491	1	79
449.661	1	86
449.832	1	76
450.002	1	74
450.173	1	88
450.343	1	82
450.514	1	90
450.684	1	87
450.855	1	93
451.025	1	86
451.196	1	67
451.366	1	93
451.537	1	90
451.707	1	98
451.878	1	70
452.048	1	66
452.218	1	84
452.389	1	88
452.559	1	97
452.730	1	85
452.900	1	75
453.071	1	88
453.241	1	77
453.412	1	82
453.582	1	75
453.753	1	76
453.923	1	81
454.093	1	77
454.264	1	95
454.434	1	67
454.605	1	64
454.775	1	74
454.946	1	71
455.116	1	80
455.287	1	77
455.457	1	83
455.628	1	67
455.798	1	68
455.968	1	78
456.139	1	79
456.309	1	71
456.480	1	60
456.650	1	75
456.821	1	69
456.991	1	82
457.161	1	91
457.332	1	71
457.502	1	68
457.673	1	78
457.843	1	74
458.014	1	74
458.184	1	77
458.355	1	76
458.525	1	68
458.695	1	71
458.866	1	64
459.036	1	66
459.207	1	72
459.377	1	74
459.548	1	74
459.718	1	74
459.888	1	70
460.059	1	66
460.229	1	63
460.400	1	73
460.570	1	64
460.740	1	72
460.911	1	74
461.081	1	75
461.252	1	80
461.422	1	69
461.593	1	72
461.763	1	76
461.933	1	72
462.104	1	64
462.274	1	58
462.445	1	70
462.615	1	64
462.785	1	77
462.956	1	69
463.126	1	75
463.297	1	69
463.467	1	80
463.638	1	75
463.808	1	61
463.978	1	57
464.149	1	55
464.319	1	60
464.490	1	60
464.660	1	66
464.830	1	65
465.001	1	57
465.171	1	65
465.342	1	60
465.512	1	73
465.682	1	50
465.853	1	67
466.023	1	70
466.194	1	67
466.364	1	69
466.534	1	53
466.705	1	72
466.875	1	49
467.045	1	53
467.216	1	57
467.386	1	61
467.557	1	72
467.727	1	54
467.897	1	57
468.068	1	50
468.238	1	54
468.409	1	68
468.579	1	59
468.749	1	65
468.920	1	47
469.090	1	56
469.260	1	50
469.431	1	49
469.601	1	68
469.772	1	70
469.942	1	55
470.112	1	51
470.283	1	60
470.453	1	56
470.623	1	55
470.794	1	54
470.964	1	50
471.135	1	55
471.305	1	58
471.475	1	56
471.646	1	56
471.816	1	55
471.986	1	52
472.157	1	56
472.327	1	54
472.497	1	53
472.668	1	61
472.838	1	50
473.009	1	54
473.179	1	48
473.349	1	52
473.520	1	66
473.690	1	55
473.860	1	44
474.031	1	42
474.201	1	55
474.371	1	44
474.542	1	56
474.712	1	49
474.882	1	66
475.053	1	62
475.223	1	58
475.394	1	50
475.564	1	51
475.734	1	48
475.905	1	48
476.075	1	56
476.245	1	60
476.416	1	56
476.586	1	52
476.756	1	67
476.927	1	56
477.097	1	54
477.267	1	48
477.438	1	55
477.608	1	66
477.778	1	55
477.949	1	42
478.119	1	59
478.289	1	55
478.460	1	54
478.630	1	43
478.800	1	50
478.971	1	46
479.141	1	57
479.311	1	52
479.482	1	44
479.652	1	66
479.822	1	42
479.993	1	53
480.163	1	60
480.333	1	50
480.504	1	48
480.674	1	59
480.844	1	54
481.015	1	64
481.185	1	63
481.355	1	57
481.525	1	44
481.696	1	54
481.866	1	47
482.036	1	47
482.207	1	46
482.377	1	51
482.547	1	49
482.718	1	56
482.888	1	60
483.058	1	60
483.229	1	52
483.399	1	48
483.569	1	42
483.740	1	47
483.910	1	43
484.080	1	46
484.250	1	40
484.421	1	32
484.591	1	43
484.761	1	54
484.932	1	44
485.102	1	54
485.272	1	41
485.443	1	48
485.613	1	44
485.783	1	49
485.953	1	41
486.124	1	39
486.294	1	53
486.464	1	53
486.635	1	49
486.805	1	49
486.975	1	39
487.146	1	46
487.316	1	50
487.486	1	47
487.656	1	46
487.827	1	38
487.997	1	42
488.167	1	47
488.338	1	39
488.508	1	56
488.678	1	44
488.848	1	44
489.019	1	34
489.189	1	51
489.359	1	42
489.529	1	42
489.700	1	39
489.870	1	54
490.040	1	38
490.211	1	35
490.381	1	45
490.551	1	47
490.721	1	56
490.892	1	22
491.062	1	39
491.232	1	34
491.402	1	42
491.573	1	54
491.743	1	42
491.913	1	42
492.084	1	38
492.254	1	36
492.424	1	36
492.594	1	35
492.765	1	40
492.935	1	48
493.105	1	36
493.275	1	50
493.446	1	34
493.616	1	27
493.786	1	39
493.956	1	44
494.127	1	28
494.297	1	20
494.467	1	39
494.637	1	50
494.808	1	44
494.978	1	35
495.148	1	39
495.318	1	40
495.489	1	36
495.659	1	37
495.829	1	38
495.999	1	46
496.170	1	38
496.340	1	39
496.510	1	43
496.680	1	28
496.851	1	41
497.021	1	38
497.191	1	35
497.361	1	26
497.532	1	39
497.702	1	48
497.872	1	34
498.042	1	32
498.213	1	31
498.383	1	42
498.553	1	46
498.723	1	33
498.894	1	39
499.064	1	37
499.234	1	41
499.404	1	43
499.574	1	41
499.745	1	25
499.915	1	43
500.085	1	37
500.255	1	27
500.426	1	32
500.596	1	22
500.766	1	27
500.936	1	25
501.106	1	28
501.277	1	26
501.447	1	28
501.617	1	33
501.787	1	23
501.958	1	43
502.128	1	31
502.298	1	25
502.468	1	33
502.638	1	33
502.809	1	22
502.979	1	39
503.149	1	25
503.319	1	43
503.489	1	13
503.660	1	26
503.830	1	36
504.000	1	36
504.170	1	27
504.340	1	25
504.511	1	33
504.681	1	32
504.851	1	25
505.021	1	30
505.192	1	30
505.362	1	30
505.532	1	27
505.702	1	35
505.872	1	23
506.043	1	46
506.213	1	42
506.383	1	40
506.553	1	38
506.723	1	28
506.893	1	29
507.064	1	38
507.234	1	28
507.404	1	23
507.574	1	19
507.744	1	33
507.915	1	23
508.085	1	25
508.255	1	30
508.425	1	23
508.595	1	27
508.766	1	22
508.936	1	39
509.106	1	25
509.276	1	37
509.446	1	30
509.616	1	21
509.787	1	30
509.957	1	28
510.127	1	11
510.297	1	24
510.467	1	28
510.638	1	20
510.808	1	33
510.978	1	32
511.148	1	16
511.318	1	27
511.488	1	35
511.659	1	33
511.829	1	29
511.999	1	21
512.169	1	28
512.339	1	32
512.509	1	20
512.680	1	25
512.850	1	41
513.020	1	33
513.190	1	13
513.360	1	37
513.530	1	34
513.700	1	17
513.871	1	23
514.041	1	29
514.211	1	26
514.381	1	30
514.551	1	25
514.721	1	25
514.892	1	23
515.062	1	31
515.232	1	14
515.402	1	29
515.572	1	30
515.742	1	23
515.912	1	30
516.083	1	35
516.253	1	24
516.423	1	26
516.593	1	23
516.763	1	23
516.933	1	30
517.104	1	23
517.274	1	10
517.444	1	26
517.614	1	19
517.784	1	28
517.954	1	32
518.124	1	27
518.294	1	32
518.465	1	19
518.635	1	31
518.805	1	20
518.975	1	20
519.145	1	31
519.315	1	17
519.485	1	22
519.656	1	17
519.826	1	15
519.996	1	29
520.166	1	17
520.336	1	24
520.506	1	31
520.676	1	22
520.846	1	13
521.017	1	22
521.187	1	15
521.357	1	18
521.527	1	15
521.697	1	23
521.867	1	23
522.037	1	21
522.207	1	27
522.377	1	26
522.548	1	14
522.718	1	16
522.888	1	18
523.058	1	14
523.228	1	15
523.398	1	13
523.568	1	16
523.738	1	12
523.909	1	19
524.079	1	18
524.249	1	14
524.419	1	15
524.589	1	20
524.759	1	13
524.929	1	15
525.099	1	22
525.269	1	20
525.439	1	9
525.610	1	37
525.780	1	15
525.950	1	19
526.120	1	13
526.290	1	2
526.460	1	12
526.630	1	11
526.800	1	11
526.970	1	22
527.140	1	14
527.311	1	14
527.481	1	25
527.651	1	23
527.821	1	29
527.991	1	24
528.161	1	18
528.331	1	20
528.501	1	15
528.671	1	17
528.841	1	25
529.011	1	12
529.181	1	20
529.352	1	12
529.522	1	25
529.692	1	20
529.862	1	17
530.032	1	9
530.202	1	8
530.372	1	17
530.542	1	13
530.712	1	26
530.882	1	16
531.052	1	20
531.222	1	35
531.392	1	18
531.563	1	20
531.733	1	13
531.903	1	16
532.073	1	16
532.243	1	20
532.413	1	29
532.583	1	16
532.753	1	9
532.923	1	17
533.093	1	9
533.263	1	19
533.433	1	6
533.603	1	15
533.773	1	12
533.943	1	12
534.113	1	17
534.284	1	17
534.454	1	16
534.624	1	24
534.794	1	18
534.964	1	14
535.134	1	11
535.304	1	15
535.474	1	16
535.644	1	19
535.814	1	13
535.984	1	16
536.154	1	20
536.324	1	14
536.494	1	21
536.664	1	18
536.834	1	19
537.004	1	20
537.174	1	19
537.344	1	16
537.514	1	4
537.685	1	16
537.855	1	21
538.025	1	31
538.195	1	15
538.365	1	7
538.535	1	5
538.705	1	9
538.875	1	14
539.045	1	20
539.215	1	13
539.385	1	18
539.555	1	10
539.725	1	12
539.895	1	24
540.065	1	6
540.235	1	8
540.405	1	13
540.575	1	13
540.745	1	24
540.915	1	11
541.085	1	11
541.255	1	7
541.425	1	6
541.595	1	19
541.765	1	17
541.935	1	10
542.105	1	19
542.275	1	6
542.445	1	12
542.615	1	23
542.785	1	12
542.955	1	27
543.125	1	14
543.295	1	17
543.465	1	16
543.635	1	0
543.805	1	15
543.975	1	13
544.145	1	10
544.315	1	7
544.485	1	14
544.655	1	22
544.825	1	19
544.995	1	15
545.165	1	8
545.335	1	16
545.505	1	11
545.675	1	28
545.845	1	14
546.015	1	5
546.185	1	4
546.355	1	12
546.525	1	15
546.695	1	13
546.865	1	12
547.035	1	19
547.205	1	28
547.375	1	14
547.545	1	20
547.715	1	6
547.885	1	19
548.055	1	7
548.225	1	16
548.395	1	3
548.565	1	18
548.735	1	4
548.905	1	8
549.075	1	17
549.245	1	8
549.415	1	13
549.585	1	15
549.755	1	13
549.925	1	14
550.095	1	5
550.265	1	15
550.435	1	14
550.605	1	11
550.775	1	-1
550.945	1	21
551.115	1	22
551.285	1	13
551.455	1	12
551.625	1	7
551.795	1	8
551.965	1	3
552.135	1	10
552.305	1	11
552.475	1	15
552.645	1	12
552.815	1	9
552.985	1	21
553.155	1	6
553.325	1	7
553.495	1	10
553.665	1	11
553.835	1	8
554.004	1	16
554.174	1	5
554.344	1	13
554.514	1	15
554.684	1	21
554.854	1	2
555.024	1	14
555.194	1	9
555.364	1	14
555.534	1	7
555.704	1	9
555.874	1	11
556.044	1	8
556.214	1	25
556.384	1	10
556.554	1	16
556.724	1	14
556.894	1	-2
557.064	1	7
557.234	1	9
557.404	1	14
557.573	1	16
557.743	1	11
557.913	1	13
558.083	1	10
558.253	1	12
558.423	1	3
558.593	1	9
558.763	1	6
558.933	1	8
559.103	1	5
559.273	1	7
559.443	1	20
559.613	1	12
559.783	1	8
559.953	1	-2
560.122	1	17
560.292	1	4
560.462	1	-1
560.632	1	1
560.802	1	14
560.972	1	-5
561.142	1	8
561.312	1	7
561.482	1	14
561.652	1	7
561.822	1	7
561.992	1	17
562.162	1	3
562.331	1	3
562.501	1	15
562.671	1	9
562.841	1	0
563.011	1	8
563.181	1	-3
563.351	1	11
563.521	1	13
563.691	1	5
563.861	1	8
564.031	1	0
564.201	1	12
564.370	1	10
564.540	1	10
564.710	1	10
564.880	1	7
565.050	1	18
565.220	1	21
565.390	1	3
565.560	1	22
565.730	1	9
565.900	1	6
566.069	1	14
566.239	1	9
566.409	1	20
566.579	1	12
566.749	1	3
566.919	1	-4
567.089	1	-3
567.259	1	16
567.429	1	1
567.599	1	20
567.768	1	16
567.938	1	5
568.108	1	5
568.278	1	8
568.448	1	3
568.618	1	8
568.788	1	6
568.958	1	8
569.128	1	2
569.297	1	7
569.467	1	21
569.637	1	19
569.807	1	11
569.977	1	3
570.147	1	6
570.317	1	4
570.487	1	5
570.656	1	18
570.826	1	6
570.996	1	15
571.166	1	18
571.336	1	2
571.506	1	1
571.676	1	7
571.846	1	3
572.015	1	7
572.185	1	6
572.355	1	2
572.525	1	6
572.695	1	6
572.865	1	17
573.035	1	13
573.205	1	5
573.374	1	11
573.544	1	6
573.714	1	2
573.884	1	2
574.054	1	8
574.224	1	6
574.394	1	7
574.563	1	4
574.733	1	10
574.903	1	5
575.073	1	6
575.243	1	3
575.413	1	-1
575.583	1	4
575.752	1	6
575.922	1	17
576.092	1	9
576.262	1	21
576.432	1	-4
576.602	1	11
576.772	1	6
576.941	1	10
577.111	1	6
577.281	1	7
577.451	1	11
577.621	1	8
577.791	1	18
577.960	1	4
578.130	1	5
578.300	1	11
578.470	1	11
578.640	1	8
578.810	1	6
578.979	1	6
579.149	1	8
579.319	1	7
579.489	1	9
579.659	1	3
579.829	1	6
579.998	1	-3
580.168	1	-1
580.338	1	12
580.508	1	7
580.678	1	14
580.848	1	8
581.017	1	12
581.187	1	6
581.357	1	1
581.527	1	10
581.697	1	4
581.867	1	12
582.036	1	-5
582.206	1	14
582.376	1	6
582.546	1	5
582.716	1	15
582.885	1	3
583.055	1	-9
583.225	1	9
583.395	1	7
583.565	1	13
583.735	1	7
583.904	1	2
584.074	1	0
584.244	1	5
584.414	1	1
584.584	1	7
584.753	1	-1
584.923	1	0
585.093	1	19
585.263	1	11
585.433	1	1
585.602	1	11
585.772	1	13
585.942	1	1
586.112	1	11
586.282	1	11
586.451	1	9
586.621	1	6
586.791	1	3
586.961	1	0
587.131	1	5
587.300	1	22
587.470	1	10
587.640	1	2
587.810	1	-7
587.980	1	9
588.149	1	11
588.319	1	17
588.489	1	9
588.659	1	0
588.829	1	10
588.998	1	3
589.168	1	11
589.338	1	5
589.508	1	15
589.677	1	5
589.847	1	11
590.017	1	13
590.187	1	17
590.357	1	2
590.526	1	0
590.696	1	5
590.866	1	-3
591.036	1	16
591.205	1	13
591.375	1	5
591.545	1	5
591.715	1	18
591.885	1	11
592.054	1	17
592.224	1	4
592.394	1	1
592.564	1	6
592.733	1	7
592.903	1	4
593.073	1	1
593.243	1	14
593.412	1	2
593.582	1	10
593.752	1	9
593.922	1	12
594.091	1	14
594.261	1	-3
594.431	1	7
594.601	1	1
594.771	1	13
594.940	1	4
595.110	1	6
595.280	1	8
595.450	1	9
595.619	1	5
595.789	1	-7
595.959	1	10
596.129	1	11
596.298	1	12
596.468	1	1
596.638	1	14
596.808	1	1
596.977	1	6
597.147	1	4
597.317	1	0
597.487	1	9
597.656	1	7
597.826	1	11
597.996	1	12
598.166	1	7
598.335	1	5
598.505	1	12
598.675	1	8
598.844	1	19
599.014	1	2
599.184	1	15
599.354	1	19
599.523	1	-3
599.693	1	10
599.863	1	5
600.033	1	18
600.202	1	10
600.372	1	3
600.542	1	13
600.712	1	10
600.881	1	13
601.051	1	17
601.221	1	5
601.390	1	9
601.560	1	18
601.730	1	10
601.900	1	8
602.069	1	8
602.239	1	9
602.409	1	8
602.578	1	20
602.748	1	18
602.918	1	-3
603.088	1	10
603.257	1	6
603.427	1	19
603.597	1	4
603.767	1	11
603.936	1	10
604.106	1	5
604.276	1	8
604.445	1	0
604.615	1	16
604.785	1	7
604.954	1	11
605.124	1	6
605.294	1	12
605.464	1	9
605.633	1	10
605.803	1	14
605.973	1	11
606.142	1	13
606.312	1	15
606.482	1	3
606.652	1	12
606.821	1	9
606.991	1	12
607.161	1	4
607.330	1	9
607.500	1	10
607.670	1	12
607.839	1	5
608.009	1	12
608.179	1	10
608.348	1	15
608.518	1	14
608.688	1	4
608.858	1	7
609.027	1	14
609.197	1	16
609.367	1	5
609.536	1	-3
609.706	1	16
609.876	1	11
610.045	1	12
610.215	1	13
610.385	1	5
610.554	1	12
610.724	1	6
610.894	1	9
611.063	1	11
611.233	1	21
611.403	1	19
611.572	1	9
611.742	1	6
611.912	1	11
612.081	1	24
612.251	1	6
612.421	1	12
612.590	1	6
612.760	1	8
612.930	1	10
613.099	1	7
613.269	1	17
613.439	1	2
613.608	1	14
613.778	1	9
613.948	1	26
614.117	1	8
614.287	1	9
614.457	1	1
614.626	1	6
614.796	1	9
614.966	1	11
615.135	1	19
615.305	1	16
615.475	1	5
615.644	1	12
615.814	1	19
615.984	1	4
616.153	1	6
616.323	1	6
616.493	1	3
616.662	1	3
616.832	1	12
617.002	1	12
617.171	1	20
617.341	1	22
617.511	1	-2
617.680	1	3
617.850	1	14
618.019	1	-1
618.189	1	14
618.359	1	7
618.528	1	11
618.698	1	11
618.868	1	9
619.037	1	12
619.207	1	9
619.377	1	10
619.546	1	15
619.716	1	13
619.885	1	16
620.055	1	7
620.225	1	14
620.394	1	18
620.564	1	10
620.734	1	13
620.903	1	0
621.073	1	8
621.242	1	8
621.412	1	14
621.582	1	16
621.751	1	4
621.921	1	15
622.091	1	7
622.260	1	16
622.430	1	13
622.599	1	17
622.769	1	11
622.939	1	3
623.108	1	6
623.278	1	1
623.448	1	10
623.617	1	7
623.787	1	13
623.956	1	20
624.126	1	7
624.296	1	21
624.465	1	17
624.635	1	11
624.804	1	-3
624.974	1	3
625.144	1	6
625.313	1	33
625.483	1	24
625.652	1	20
625.822	1	5
625.992	1	10
626.161	1	16
626.331	1	3
626.501	1	14
626.670	1	11
626.840	1	6
627.009	1	19
627.179	1	8
627.348	1	11
627.518	1	25
627.688	1	3
627.857	1	9
628.027	1	19
628.196	1	12
628.366	1	2
628.536	1	4
628.705	1	16
628.875	1	14
629.044	1	7
629.214	1	13
629.384	1	12
629.553	1	5
629.723	1	17
629.892	1	22
630.062	1	18
630.232	1	14
630.401	1	21
630.571	1	15
630.740	1	8
630.910	1	11
631.079	1	13
631.249	1	28
631.419	1	16
631.588	1	9
631.758	1	8
631.927	1	13
632.097	1	11
632.266	1	15
632.436	1	7
632.606	1	12
632.775	1	14
632.945	1	14
633.114	1	6
633.284	1	3
633.453	1	19
633.623	1	19
633.793	1	13
633.962	1	13
634.132	1	17
634.301	1	12
634.471	1	18
634.640	1	9
634.810	1	16
634.979	1	7
635.149	1	4
635.319	1	14
635.488	1	11
635.658	1	12
635.827	1	4
635.997	1	21
636.166	1	12
636.336	1	11
636.505	1	17
636.675	1	23
636.845	1	11
637.014	1	8
637.184	1	31
637.353	1	8
637.523	1	6
637.692	1	23
637.862	1	8
638.031	1	11
638.201	1	26
638.370	1	25
638.540	1	7
638.710	1	11
638.879	1	16
639.049	1	14
639.218	1	22
639.388	1	11
639.557	1	21
639.727	1	15
639.896	1	12
640.066	1	8
640.235	1	17
640.405	1	14
640.574	1	13
640.744	1	8
640.914	1	18
641.083	1	17
641.253	1	11
641.422	1	3
641.592	1	18
641.761	1	10
641.931	1	19
642.100	1	11
642.270	1	16
642.439	1	12
642.609	1	21
642.778	1	12
642.948	1	30
643.117	1	15
643.287	1	16
643.456	1	16
643.626	1	11
643.795	1	17
643.965	1	21
644.134	1	12
644.304	1	4
644.473	1	11
644.643	1	12
644.812	1	1
644.982	1	19
645.151	1	7
645.321	1	16
645.490	1	27
645.660	1	11
645.829	1	19
645.999	1	9
646.168	1	19
646.338	1	5
646.507	1	19
646.677	1	23
646.846	1	25
647.016	1	19
647.185	1	10
647.355	1	30
647.524	1	11
647.694	1	0
647.863	1	1
648.033	1	16
648.202	1	18
648.372	1	4
648.541	1	26
648.711	1	32
648.880	1	22
649.050	1	32
649.219	1	21
649.389	1	5
649.558	1	30
649.728	1	11
649.897	1	16
650.067	1	20
650.236	1	9
650.406	1	14
650.575	1	18
650.745	1	17
650.914	1	26
651.084	1	22
651.253	1	17
651.423	1	18
651.592	1	22
651.762	1	14
651.931	1	26
652.101	1	2
652.270	1	17
652.440	1	14
652.609	1	24
652.778	1	5
652.948	1	15
653.117	1	13
653.287	1	2
653.456	1	18
653.626	1	24
653.795	1	14
653.965	1	5
654.134	1	22
654.304	1	15
654.473	1	16
654.643	1	18
654.812	1	22
654.982	1	12
655.151	1	21
655.320	1	10
655.490	1	15
655.659	1	17
655.829	1	24
655.998	1	18
656.168	1	7
656.337	1	19
656.507	1	11
656.676	1	5
656.846	1	12
657.015	1	24
657.184	1	24
657.354	1	19
657.523	1	8
657.693	1	22
657.862	1	11
658.032	1	16
658.201	1	3
658.371	1	15
658.540	1	7
658.709	1	31
658.879	1	23
659.048	1	24
659.218	1	17
659.387	1	30
659.557	1	12
659.726	1	11
659.895	1	26
660.065	1	8
660.234	1	11
660.404	1	26
660.573	1	16
660.743	1	9
660.912	1	20
661.081	1	6
661.251	1	9
661.420	1	18
661.590	1	14
661.759	1	23
661.929	1	13
662.098	1	26
662.267	1	13
662.437	1	19
662.606	1	24
662.776	1	6
662.945	1	26
663.115	1	35
663.284	1	18
663.453	1	15
663.623	1	27
663.792	1	26
663.962	1	20
664.131	1	16
664.300	1	13
664.470	1	16
664.639	1	15
664.809	1	27
664.978	1	28
665.148	1	18
665.317	1	19
665.486	1	15
665.656	1	16
665.825	1	25
665.995	1	7
666.164	1	20
666.333	1	13
666.503	1	17
666.672	1	17
666.842	1	20
667.011	1	19
667.180	1	20
667.350	1	20
667.519	1	14
667.689	1	14
667.858	1	15
668.027	1	6
668.197	1	7
668.366	1	21
668.536	1	14
668.705	1	12
668.874	1	26
669.044	1	22
669.213	1	24
669.382	1	19
669.552	1	17
669.721	1	13
669.891	1	7
670.060	1	23
670.229	1	22
670.399	1	26
670.568	1	7
670.738	1	12
670.907	1	15
671.076	1	6
671.246	1	22
671.415	1	35
671.584	1	21
671.754	1	13
671.923	1	18
672.093	1	23
672.262	1	16
672.431	1	20
672.601	1	16
672.770	1	26
672.939	1	18
673.109	1	23
673.278	1	22
673.448	1	19
673.617	1	22
673.786	1	4
