325.333	1	14
325.504	1	-5
325.675	1	16
325.846	1	13
326.017	1	10
326.188	1	11
326.359	1	18
326.531	1	-7
326.702	1	8
326.873	1	26
327.044	1	12
327.215	1	7
327.386	1	11
327.557	1	-1
327.728	1	12
327.899	1	10
328.070	1	14
328.241	1	14
328.412	1	15
328.583	1	10
328.754	1	23
328.926	1	14
329.097	1	1
329.268	1	8
329.439	1	18
329.610	1	19
329.781	1	10
329.952	1	14
330.123	1	11
330.294	1	10
330.465	1	8
330.636	1	15
330.807	1	15
330.978	1	2
331.149	1	16
331.320	1	17
331.492	1	14
331.663	1	1
331.834	1	22
332.005	1	13
332.176	1	16
332.347	1	4
332.518	1	25
332.689	1	12
332.860	1	5
333.031	1	16
333.202	1	16
333.373	1	17
333.544	1	24
333.715	1	12
333.886	1	6
334.057	1	21
334.228	1	22
334.399	1	27
334.570	1	19
334.741	1	12
334.912	1	20
335.084	1	9
335.255	1	20
335.426	1	25
335.597	1	5
335.768	1	21
335.939	1	27
336.110	1	18
336.281	1	12
336.452	1	38
336.623	1	6
336.794	1	15
336.965	1	20
337.136	1	22
337.307	1	8
337.478	1	22
337.649	1	18
337.820	1	9
337.991	1	27
338.162	1	16
338.333	1	18
338.504	1	29
338.675	1	24
338.846	1	12
339.017	1	29
339.188	1	22
339.359	1	26
339.530	1	19
339.701	1	20
339.872	1	38
340.043	1	22
340.214	1	21
340.385	1	11
340.556	1	27
340.727	1	25
340.898	1	18
341.069	1	12
341.240	1	18
341.411	1	25
341.582	1	14
341.753	1	17
341.924	1	38
342.095	1	10
342.266	1	26
342.437	1	30
342.608	1	22
342.779	1	18
342.950	1	22
343.121	1	22
343.292	1	28
343.463	1	44
343.634	1	29
343.805	1	23
343.976	1	28
344.147	1	34
344.318	1	23
344.489	1	18
344.660	1	32
344.831	1	38
345.002	1	16
345.173	1	24
345.344	1	21
345.515	1	21
345.686	1	25
345.857	1	38
346.028	1	26
346.199	1	45
346.370	1	34
346.541	1	38
346.712	1	21
346.883	1	27
347.054	1	35
347.225	1	31
347.396	1	33
347.567	1	17
347.738	1	26
347.909	1	29
348.080	1	37
348.251	1	40
348.422	1	36
348.593	1	36
348.764	1	23
348.935	1	32
349.106	1	22
349.277	1	32
349.448	1	29
349.619	1	34
349.790	1	32
349.961	1	37
350.132	1	35
350.303	1	32
350.474	1	41
350.645	1	28
350.816	1	33
350.987	1	47
351.157	1	25
351.328	1	30
351.499	1	38
351.670	1	29
351.841	1	39
352.012	1	44
352.183	1	39
352.354	1	20
352.525	1	37
352.696	1	27
352.867	1	47
353.038	1	35
353.209	1	30
353.380	1	41
353.551	1	36
353.722	1	39
353.893	1	44
354.064	1	39
354.235	1	36
354.406	1	32
354.576	1	28
354.747	1	39
354.918	1	35
355.089	1	46
355.260	1	28
355.431	1	34
355.602	1	39
355.773	1	31
355.944	1	30
356.115	1	28
356.286	1	48
356.457	1	34
356.628	1	32
356.799	1	50
356.970	1	53
357.141	1	51
357.311	1	54
357.482	1	38
357.653	1	39
357.824	1	41
357.995	1	37
358.166	1	37
358.337	1	33
358.508	1	55
358.679	1	36
358.850	1	49
359.021	1	49
359.192	1	49
359.363	1	36
359.533	1	44
359.704	1	40
359.875	1	36
360.046	1	44
360.217	1	45
360.388	1	46
360.559	1	49
360.730	1	40
360.901	1	37
361.072	1	43
361.243	1	42
361.414	1	49
361.584	1	39
361.755	1	40
361.926	1	49
362.097	1	40
362.268	1	49
362.439	1	32
362.610	1	40
362.781	1	35
362.952	1	38
363.123	1	42
363.293	1	40
363.464	1	35
363.635	1	52
363.806	1	45
363.977	1	40
364.148	1	33
364.319	1	40
364.490	1	38
364.661	1	34
364.832	1	44
365.002	1	44
365.173	1	37
365.344	1	41
365.515	1	45
365.686	1	39
365.857	1	49
366.028	1	59
366.199	1	44
366.370	1	38
366.540	1	39
366.711	1	56
366.882	1	36
367.053	1	53
367.224	1	46
367.395	1	52
367.566	1	44
367.737	1	35
367.908	1	38
368.078	1	31
368.249	1	45
368.420	1	49
368.591	1	58
368.762	1	56
368.933	1	41
369.104	1	45
369.274	1	50
369.445	1	54
369.616	1	40
369.787	1	45
369.958	1	43
370.129	1	37
370.300	1	48
370.471	1	48
370.641	1	44
370.812	1	51
370.983	1	39
371.154	1	46
371.325	1	35
371.496	1	47
371.667	1	55
371.837	1	53
372.008	1	40
372.179	1	44
372.350	1	49
372.521	1	53
372.692	1	55
372.863	1	36
373.033	1	47
373.204	1	50
373.375	1	43
373.546	1	49
373.717	1	37
373.888	1	47
374.059	1	43
374.229	1	55
374.400	1	38
374.571	1	44
374.742	1	50
374.913	1	44
375.084	1	47
375.254	1	38
375.425	1	48
375.596	1	49
375.767	1	52
375.938	1	35
376.109	1	43
376.279	1	49
376.450	1	50
376.621	1	57
376.792	1	51
376.963	1	44
377.134	1	51
377.304	1	62
377.475	1	43
377.646	1	44
377.817	1	55
377.988	1	60
378.159	1	58
378.329	1	49
378.500	1	64
378.671	1	49
378.842	1	53
379.013	1	60
379.184	1	41
379.354	1	59
379.525	1	57
379.696	1	54
379.867	1	58
380.038	1	56
380.209	1	53
380.379	1	57
380.550	1	41
380.721	1	51
380.892	1	49
381.063	1	57
381.233	1	50
381.404	1	56
381.575	1	51
381.746	1	53
381.917	1	58
382.087	1	59
382.258	1	51
382.429	1	59
382.600	1	54
382.771	1	46
382.941	1	63
383.112	1	60
383.283	1	53
383.454	1	62
383.625	1	55
383.795	1	54
383.966	1	65
384.137	1	56
384.308	1	56
384.479	1	50
384.649	1	56
384.820	1	52
384.991	1	47
385.162	1	57
385.333	1	63
385.503	1	52
385.674	1	53
385.845	1	59
386.016	1	58
386.187	1	51
386.357	1	62
386.528	1	51
386.699	1	61
386.870	1	62
387.041	1	67
387.211	1	60
387.382	1	65
387.553	1	66
387.724	1	53
387.894	1	47
388.065	1	58
388.236	1	60
388.407	1	70
388.578	1	57
388.748	1	59
388.919	1	48
389.090	1	74
389.261	1	66
389.431	1	58
389.602	1	71
389.773	1	60
389.944	1	62
390.114	1	72
390.285	1	69
390.456	1	57
390.627	1	64
390.798	1	49
390.968	1	69
391.139	1	58
391.310	1	56
391.481	1	55
391.651	1	72
391.822	1	69
391.993	1	62
392.164	1	55
392.334	1	64
392.505	1	57
392.676	1	37
392.847	1	53
393.017	1	64
393.188	1	77
393.359	1	81
393.530	1	64
393.700	1	54
393.871	1	69
394.042	1	53
394.213	1	60
394.383	1	72
394.554	1	62
394.725	1	54
394.896	1	59
395.066	1	58
395.237	1	58
395.408	1	71
395.579	1	65
395.749	1	77
395.920	1	61
396.091	1	66
396.262	1	59
396.432	1	64
396.603	1	55
396.774	1	65
396.945	1	72
397.115	1	75
397.286	1	54
397.457	1	73
397.627	1	51
397.798	1	70
397.969	1	63
398.140	1	68
398.310	1	66
398.481	1	69
398.652	1	72
398.823	1	66
398.993	1	59
399.164	1	63
399.335	1	62
399.505	1	66
399.676	1	60
399.847	1	64
400.018	1	65
400.188	1	64
400.359	1	70
400.530	1	75
400.700	1	50
400.871	1	60
401.042	1	64
401.213	1	74
401.383	1	64
401.554	1	69
401.725	1	71
401.895	1	55
402.066	1	65
402.237	1	68
402.408	1	69
402.578	1	71
402.749	1	54
402.920	1	60
403.090	1	66
403.261	1	63
403.432	1	80
403.603	1	65
403.773	1	76
403.944	1	78
404.115	1	75
404.285	1	71
404.456	1	72
404.627	1	85
404.797	1	73
404.968	1	71
405.139	1	69
405.310	1	81
405.480	1	62
405.651	1	66
405.822	1	65
405.992	1	81
406.163	1	54
406.334	1	73
406.504	1	67
406.675	1	70
406.846	1	67
407.016	1	72
407.187	1	75
407.358	1	52
407.528	1	73
407.699	1	74
407.870	1	84
408.041	1	71
408.211	1	78
408.382	1	75
408.553	1	81
408.723	1	73
408.894	1	61
409.065	1	69
409.235	1	77
409.406	1	63
409.577	1	70
409.747	1	73
409.918	1	71
410.089	1	81
410.259	1	70
410.430	1	61
410.601	1	75
410.771	1	80
410.942	1	60
411.113	1	80
411.283	1	74
411.454	1	82
411.625	1	73
411.795	1	77
411.966	1	79
412.137	1	69
412.307	1	72
412.478	1	77
412.649	1	83
412.819	1	76
412.990	1	79
413.161	1	65
413.331	1	71
413.502	1	64
413.672	1	79
413.843	1	63
414.014	1	65
414.184	1	76
414.355	1	82
414.526	1	74
414.696	1	62
414.867	1	56
415.038	1	78
415.208	1	56
415.379	1	67
415.550	1	55
415.720	1	71
415.891	1	69
416.062	1	72
416.232	1	74
416.403	1	67
416.573	1	66
416.744	1	76
416.915	1	67
417.085	1	81
417.256	1	73
417.427	1	72
417.597	1	73
417.768	1	75
417.939	1	63
418.109	1	62
418.280	1	78
418.450	1	76
418.621	1	64
418.792	1	70
418.962	1	77
419.133	1	72
419.304	1	66
419.474	1	82
419.645	1	67
419.815	1	67
419.986	1	72
420.157	1	83
420.327	1	65
420.498	1	73
420.669	1	69
420.839	1	75
421.010	1	69
421.180	1	63
421.351	1	72
421.522	1	62
421.692	1	75
421.863	1	78
422.033	1	84
422.204	1	70
422.375	1	60
422.545	1	70
422.716	1	70
422.886	1	72
423.057	1	66
423.228	1	60
423.398	1	70
423.569	1	66
423.740	1	70
423.910	1	77
424.081	1	77
424.251	1	70
424.422	1	73
424.593	1	68
424.763	1	71
424.934	1	76
425.104	1	73
425.275	1	69
425.445	1	80
425.616	1	73
425.787	1	71
425.957	1	64
426.128	1	69
426.298	1	75
426.469	1	61
426.640	1	75
426.810	1	45
426.981	1	77
427.151	1	61
427.322	1	67
427.493	1	53
427.663	1	68
427.834	1	64
428.004	1	64
428.175	1	62
428.345	1	48
428.516	1	67
428.687	1	66
428.857	1	70
429.028	1	67
429.198	1	63
429.369	1	68
429.540	1	60
429.710	1	56
429.881	1	57
430.051	1	56
430.222	1	69
430.392	1	68
430.563	1	59
430.734	1	66
430.904	1	66
431.075	1	71
431.245	1	65
431.416	1	66
431.586	1	46
431.757	1	66
431.927	1	63
432.098	1	63
432.269	1	57
432.439	1	71
432.610	1	69
432.780	1	72
432.951	1	54
433.121	1	60
433.292	1	62
433.462	1	62
433.633	1	55
433.804	1	72
433.974	1	74
434.145	1	63
434.315	1	60
434.486	1	61
434.656	1	63
434.827	1	69
434.997	1	57
435.168	1	61
435.339	1	75
435.509	1	60
435.680	1	62
435.850	1	57
436.021	1	61
436.191	1	62
436.362	1	62
436.532	1	66
436.703	1	68
436.873	1	60
437.044	1	63
437.214	1	61
437.385	1	56
437.556	1	62
437.726	1	60
437.897	1	60
438.067	1	57
438.238	1	57
438.408	1	62
438.579	1	57
438.749	1	67
438.920	1	64
439.090	1	56
439.261	1	68
439.431	1	53
439.602	1	63
439.772	1	62
439.943	1	56
440.113	1	70
440.284	1	62
440.455	1	59
440.625	1	66
440.796	1	55
440.966	1	63
441.137	1	58
441.307	1	65
441.478	1	51
441.648	1	48
441.819	1	51
441.989	1	71
442.160	1	52
442.330	1	60
442.501	1	54
442.671	1	57
442.842	1	60
443.012	1	51
443.183	1	62
443.353	1	54
443.524	1	54
443.694	1	57
443.865	1	58
444.035	1	64
444.206	1	57
444.376	1	66
444.547	1	62
444.717	1	45
444.888	1	45
445.058	1	64
445.229	1	54
445.399	1	53
445.570	1	50
445.740	1	59
445.911	1	60
446.081	1	65
446.252	1	52
446.422	1	59
446.593	1	56
446.763	1	55
446.934	1	53
447.104	1	60
447.275	1	49
447.445	1	59
447.616	1	64
447.786	1	53
447.957	1	55
448.127	1	61
448.298	1	57
448.468	1	61
448.639	1	49
448.809	1	61
448.979	1	68
449.150	1	55
449.320	1	55
449.491	1	47
449.661	1	52
449.832	1	36
450.002	1	47
450.173	1	70
450.343	1	51
450.514	1	52
450.684	1	56
450.855	1	51
451.025	1	52
451.196	1	50
451.366	1	64
451.537	1	57
451.707	1	50
451.878	1	45
452.048	1	53
452.218	1	46
452.389	1	43
452.559	1	66
452.730	1	60
452.900	1	47
453.071	1	57
453.241	1	49
453.412	1	44
453.582	1	51
453.753	1	53
453.923	1	47
454.093	1	51
454.264	1	56
454.434	1	57
454.605	1	46
454.775	1	44
454.946	1	38
455.116	1	44
455.287	1	49
455.457	1	48
455.628	1	47
455.798	1	51
455.968	1	45
456.139	1	51
456.309	1	43
456.480	1	46
456.650	1	44
456.821	1	42
456.991	1	52
457.161	1	50
457.332	1	38
457.502	1	44
457.673	1	42
457.843	1	46
458.014	1	46
458.184	1	46
458.355	1	45
458.525	1	41
458.695	1	37
458.866	1	36
459.036	1	37
459.207	1	52
459.377	1	52
459.548	1	43
459.718	1	40
459.888	1	46
460.059	1	41
460.229	1	42
460.400	1	43
460.570	1	36
460.740	1	52
460.911	1	40
461.081	1	48
461.252	1	44
461.422	1	39
461.593	1	50
461.763	1	52
461.933	1	42
462.104	1	42
462.274	1	41
462.445	1	46
462.615	1	40
462.785	1	48
462.956	1	36
463.126	1	51
463.297	1	53
463.467	1	50
463.638	1	45
463.808	1	47
463.978	1	33
464.149	1	48
464.319	1	40
464.490	1	43
464.660	1	36
464.830	1	43
465.001	1	40
465.171	1	38
465.342	1	35
465.512	1	46
465.682	1	31
465.853	1	40
466.023	1	46
466.194	1	48
466.364	1	44
466.534	1	42
466.705	1	46
466.875	1	35
467.045	1	25
467.216	1	37
467.386	1	35
467.557	1	53
467.727	1	35
467.897	1	42
468.068	1	36
468.238	1	38
468.409	1	45
468.579	1	42
468.749	1	37
468.920	1	20
469.090	1	52
469.260	1	44
469.431	1	39
469.601	1	47
469.772	1	52
469.942	1	42
470.112	1	26
470.283	1	31
470.453	1	47
470.623	1	48
470.794	1	37
470.964	1	27
471.135	1	40
471.305	1	37
471.475	1	41
471.646	1	47
471.816	1	49
471.986	1	31
472.157	1	45
472.327	1	39
472.497	1	33
472.668	1	47
472.838	1	34
473.009	1	39
473.179	1	39
473.349	1	31
473.520	1	49
473.690	1	49
473.860	1	22
474.031	1	28
474.201	1	31
474.371	1	43
474.542	1	33
474.712	1	40
474.882	1	38
475.053	1	39
475.223	1	38
475.394	1	35
475.564	1	35
475.734	1	39
475.905	1	37
476.075	1	44
476.245	1	33
476.416	1	28
476.586	1	28
476.756	1	38
476.927	1	33
477.097	1	29
477.267	1	36
477.438	1	47
477.608	1	49
477.778	1	21
477.949	1	21
478.119	1	38
478.289	1	29
478.460	1	32
478.630	1	40
478.800	1	31
478.971	1	37
479.141	1	37
479.311	1	36
479.482	1	32
479.652	1	37
479.822	1	27
479.993	1	34
480.163	1	37
480.333	1	35
480.504	1	37
480.674	1	35
480.844	1	33
481.015	1	47
481.185	1	45
481.355	1	32
481.525	1	22
481.696	1	26
481.866	1	32
482.036	1	31
482.207	1	33
482.377	1	34
482.547	1	30
482.718	1	42
482.888	1	29
483.058	1	44
483.229	1	27
483.399	1	48
483.569	1	20
483.740	1	32
483.910	1	32
484.080	1	33
484.250	1	29
484.421	1	16
484.591	1	23
484.761	1	23
484.932	1	20
485.102	1	34
485.272	1	25
485.443	1	27
485.613	1	34
485.783	1	21
485.953	1	21
486.124	1	17
486.294	1	27
486.464	1	37
486.635	1	22
486.805	1	31
486.975	1	18
487.146	1	30
487.316	1	33
487.486	1	28
487.656	1	29
487.827	1	28
487.997	1	36
488.167	1	31
488.338	1	26
488.508	1	29
488.678	1	27
488.848	1	35
489.019	1	15
489.189	1	34
489.359	1	27
489.529	1	20
489.700	1	28
489.870	1	34
490.040	1	18
490.211	1	22
490.381	1	29
490.551	1	24
490.721	1	32
490.892	1	14
491.062	1	24
491.232	1	26
491.402	1	28
491.573	1	37
491.743	1	30
491.913	1	29
492.084	1	24
492.254	1	23
492.424	1	28
492.594	1	11
492.765	1	38
492.935	1	37
493.105	1	26
493.275	1	24
493.446	1	26
493.616	1	26
493.786	1	33
493.956	1	21
494.127	1	24
494.297	1	18
494.467	1	19
494.637	1	30
494.808	1	36
494.978	1	19
495.148	1	27
495.318	1	17
495.489	1	25
495.659	1	30
495.829	1	24
495.999	1	25
496.170	1	26
496.340	1	19
496.510	1	17
496.680	1	27
496.851	1	29
497.021	1	8
497.191	1	32
497.361	1	11
497.532	1	24
497.702	1	25
497.872	1	18
498.042	1	23
498.213	1	10
498.383	1	19
498.553	1	33
498.723	1	20
498.894	1	18
499.064	1	17
499.234	1	24
499.404	1	18
499.574	1	26
499.745	1	19
499.915	1	28
500.085	1	18
500.255	1	11
500.426	1	19
500.596	1	7
500.766	1	18
500.936	1	9
501.106	1	10
501.277	1	4
501.447	1	24
501.617	1	6
501.787	1	13
501.958	1	23
502.128	1	26
502.298	1	15
502.468	1	9
502.638	1	28
502.809	1	8
502.979	1	16
503.149	1	21
503.319	1	21
503.489	1	-1
503.660	1	13
503.830	1	19
504.000	1	10
504.170	1	22
504.340	1	14
504.511	1	11
504.681	1	25
504.851	1	16
505.021	1	16
505.192	1	17
505.362	1	23
505.532	1	5
505.702	1	22
505.872	1	14
506.043	1	24
506.213	1	24
506.383	1	16
506.553	1	15
506.723	1	18
506.893	1	18
507.064	1	27
507.234	1	10
507.404	1	17
507.574	1	14
507.744	1	17
507.915	1	11
508.085	1	9
508.255	1	17
508.425	1	18
508.595	1	16
508.766	1	7
508.936	1	21
509.106	1	18
509.276	1	16
509.446	1	9
509.616	1	15
509.787	1	18
509.957	1	24
510.127	1	13
510.297	1	12
510.467	1	20
510.638	1	19
510.808	1	25
510.978	1	9
511.148	1	14
511.318	1	16
511.488	1	23
511.659	1	18
511.829	1	14
511.999	1	7
512.169	1	16
512.339	1	19
512.509	1	8
512.680	1	15
512.850	1	17
513.020	1	15
513.190	1	2
513.360	1	28
513.530	1	11
513.700	1	10
513.871	1	10
514.041	1	12
514.211	1	22
514.381	1	13
514.551	1	20
514.721	1	15
514.892	1	19
515.062	1	17
515.232	1	15
515.402	1	11
515.572	1	11
515.742	1	11
515.912	1	7
516.083	1	16
516.253	1	20
516.423	1	15
516.593	1	19
516.763	1	20
516.933	1	13
517.104	1	8
517.274	1	2
517.444	1	10
517.614	1	17
517.784	1	14
517.954	1	8
518.124	1	11
518.294	1	17
518.465	1	17
518.635	1	26
518.805	1	21
518.975	1	12
519.145	1	3
519.315	1	10
519.485	1	5
519.656	1	12
519.826	1	4
519.996	1	11
520.166	1	10
520.336	1	17
520.506	1	17
520.676	1	19
520.846	1	14
521.017	1	13
521.187	1	15
521.357	1	9
521.527	1	6
521.697	1	14
521.867	1	17
522.037	1	16
522.207	1	21
522.377	1	21
522.548	1	-1
522.718	1	10
522.888	1	4
523.058	1	16
523.228	1	8
523.398	1	8
523.568	1	-2
523.738	1	9
523.909	1	5
524.079	1	13
524.249	1	9
524.419	1	11
524.589	1	13
524.759	1	23
524.929	1	15
525.099	1	3
525.269	1	9
525.439	1	0
525.610	1	16
525.780	1	15
525.950	1	14
526.120	1	4
526.290	1	-2
526.460	1	7
526.630	1	7
526.800	1	13
526.970	1	15
527.140	1	8
527.311	1	9
527.481	1	12
527.651	1	9
527.821	1	12
527.991	1	17
528.161	1	10
528.331	1	9
528.501	1	9
528.671	1	14
528.841	1	15
529.011	1	12
529.181	1	16
529.352	1	12
529.522	1	16
529.692	1	5
529.862	1	-1
530.032	1	7
530.202	1	4
530.372	1	20
530.542	1	8
530.712	1	14
530.882	1	9
531.052	1	16
531.222	1	9
531.392	1	7
531.563	1	13
531.733	1	6
531.903	1	7
532.073	1	8
532.243	1	26
532.413	1	20
532.583	1	15
532.753	1	6
532.923	1	17
533.093	1	-5
533.263	1	15
533.433	1	-3
533.603	1	-2
533.773	1	-2
533.943	1	7
534.113	1	5
534.284	1	8
534.454	1	8
534.624	1	5
534.794	1	8
534.964	1	16
535.134	1	-3
535.304	1	0
535.474	1	16
535.644	1	15
535.814	1	13
535.984	1	10
536.154	1	14
536.324	1	5
536.494	1	14
536.664	1	5
536.834	1	11
537.004	1	10
537.174	1	9
537.344	1	8
537.514	1	9
537.685	1	23
537.855	1	2
538.025	1	12
538.195	1	7
538.365	1	9
538.535	1	5
538.705	1	6
538.875	1	7
539.045	1	15
539.215	1	-4
539.385	1	11
539.555	1	9
539.725	1	11
539.895	1	15
540.065	1	4
540.235	1	9
540.405	1	20
540.575	1	8
540.745	1	13
540.915	1	13
541.085	1	18
541.255	1	2
541.425	1	10
541.595	1	0
541.765	1	11
541.935	1	3
542.105	1	8
542.275	1	4
542.445	1	16
542.615	1	12
542.785	1	3
542.955	1	9
543.125	1	6
543.295	1	11
543.465	1	9
543.635	1	3
543.805	1	15
543.975	1	7
544.145	1	2
544.315	1	9
544.485	1	11
544.655	1	11
544.825	1	13
544.995	1	4
545.165	1	10
545.335	1	10
545.505	1	5
545.675	1	4
545.845	1	10
546.015	1	-1
546.185	1	8
546.355	1	5
546.525	1	9
546.695	1	10
546.865	1	8
547.035	1	8
547.205	1	13
547.375	1	4
547.545	1	14
547.715	1	10
547.885	1	4
548.055	1	8
548.225	1	17
548.395	1	12
548.565	1	3
548.735	1	3
548.905	1	6
549.075	1	10
549.245	1	14
549.415	1	6
549.585	1	5
549.755	1	9
549.925	1	10
550.095	1	3
550.265	1	9
550.435	1	19
550.605	1	12
550.775	1	6
550.945	1	5
551.115	1	11
551.285	1	0
551.455	1	11
551.625	1	-3
551.795	1	5
551.965	1	0
552.135	1	-4
552.305	1	13
552.475	1	4
552.645	1	6
552.815	1	13
552.985	1	2
553.155	1	3
553.325	1	1
553.495	1	5
553.665	1	10
553.835	1	9
554.004	1	7
554.174	1	1
554.344	1	11
554.514	1	2
554.684	1	13
554.854	1	5
555.024	1	7
555.194	1	4
555.364	1	1
555.534	1	0
555.704	1	11
555.874	1	2
556.044	1	10
556.214	1	10
556.384	1	7
556.554	1	15
556.724	1	8
556.894	1	3
557.064	1	8
557.234	1	1
557.404	1	5
557.573	1	4
557.743	1	0
557.913	1	6
558.083	1	9
558.253	1	8
558.423	1	9
558.593	1	12
558.763	1	13
558.933	1	4
559.103	1	3
559.273	1	17
559.443	1	14
559.613	1	3
559.783	1	6
559.953	1	-2
560.122	1	1
560.292	1	8
560.462	1	0
560.632	1	-4
560.802	1	4
560.972	1	-4
561.142	1	16
561.312	1	2
561.482	1	11
561.652	1	5
561.822	1	4
561.992	1	4
562.162	1	-2
562.331	1	-1
562.501	1	7
562.671	1	6
562.841	1	-7
563.011	1	13
563.181	1	-6
563.351	1	-1
563.521	1	-3
563.691	1	8
563.861	1	3
564.031	1	1
564.201	1	3
564.370	1	9
564.540	1	0
564.710	1	5
564.880	1	11
565.050	1	9
565.220	1	18
565.390	1	-4
565.560	1	13
565.730	1	16
565.900	1	10
566.069	1	27
566.239	1	4
566.409	1	12
566.579	1	1
566.749	1	-1
566.919	1	-2
567.089	1	-3
567.259	1	11
567.429	1	-3
567.599	1	14
567.768	1	7
567.938	1	9
568.108	1	4
568.278	1	13
568.448	1	1
568.618	1	-1
568.788	1	5
568.958	1	1
569.128	1	-8
569.297	1	-4
569.467	1	12
569.637	1	8
569.807	1	6
569.977	1	5
570.147	1	8
570.317	1	7
570.487	1	11
570.656	1	9
570.826	1	6
570.996	1	16
571.166	1	8
571.336	1	10
571.506	1	-3
571.676	1	8
571.846	1	3
572.015	1	8
572.185	1	2
572.355	1	1
572.525	1	4
572.695	1	9
572.865	1	14
573.035	1	6
573.205	1	-5
573.374	1	3
573.544	1	-1
573.714	1	6
573.884	1	0
574.054	1	6
574.224	1	8
574.394	1	5
574.563	1	-3
574.733	1	8
574.903	1	10
575.073	1	8
575.243	1	3
575.413	1	7
575.583	1	3
575.752	1	-2
575.922	1	18
576.092	1	-1
576.262	1	10
576.432	1	6
576.602	1	6
576.772	1	3
576.941	1	3
577.111	1	6
577.281	1	6
577.451	1	5
577.621	1	5
577.791	1	9
577.960	1	3
578.130	1	7
578.300	1	-2
578.470	1	-4
578.640	1	1
578.810	1	4
578.979	1	5
579.149	1	4
579.319	1	-2
579.489	1	10
579.659	1	-2
579.829	1	1
579.998	1	0
580.168	1	-1
580.338	1	4
580.508	1	2
580.678	1	3
580.848	1	6
581.017	1	6
581.187	1	5
581.357	1	5
581.527	1	13
581.697	1	9
581.867	1	9
582.036	1	1
582.206	1	6
582.376	1	-4
582.546	1	0
582.716	1	9
582.885	1	4
583.055	1	-5
583.225	1	-3
583.395	1	9
583.565	1	10
583.735	1	3
583.904	1	7
584.074	1	0
584.244	1	4
584.414	1	-4
584.584	1	2
584.753	1	7
584.923	1	6
585.093	1	9
585.263	1	10
585.433	1	2
585.602	1	2
585.772	1	20
585.942	1	5
586.112	1	8
586.282	1	3
586.451	1	12
586.621	1	8
586.791	1	-7
586.961	1	-5
587.131	1	8
587.300	1	17
587.470	1	3
587.640	1	7
587.810	1	-11
587.980	1	8
588.149	1	12
588.319	1	11
588.489	1	5
588.659	1	-2
588.829	1	7
588.998	1	3
589.168	1	0
589.338	1	1
589.508	1	12
589.677	1	9
589.847	1	8
590.017	1	0
590.187	1	2
590.357	1	5
590.526	1	3
590.696	1	8
590.866	1	-7
591.036	1	10
591.205	1	1
591.375	1	4
591.545	1	4
591.715	1	9
591.885	1	8
592.054	1	15
592.224	1	5
592.394	1	-5
592.564	1	4
592.733	1	11
592.903	1	-4
593.073	1	-1
593.243	1	5
593.412	1	2
593.582	1	5
593.752	1	11
593.922	1	8
594.091	1	10
594.261	1	0
594.431	1	8
594.601	1	9
594.771	1	3
594.940	1	-3
595.110	1	2
595.280	1	6
595.450	1	0
595.619	1	5
595.789	1	-3
595.959	1	-4
596.129	1	-4
596.298	1	21
596.468	1	5
596.638	1	6
596.808	1	-6
596.977	1	-2
597.147	1	10
597.317	1	2
597.487	1	14
597.656	1	9
597.826	1	7
597.996	1	2
598.166	1	7
598.335	1	0
598.505	1	6
598.675	1	7
598.844	1	17
599.014	1	-3
599.184	1	9
599.354	1	13
599.523	1	-1
599.693	1	7
599.863	1	8
600.033	1	2
600.202	1	6
600.372	1	6
600.542	1	1
600.712	1	7
600.881	1	0
601.051	1	10
601.221	1	4
601.390	1	2
601.560	1	12
601.730	1	3
601.900	1	5
602.069	1	5
602.239	1	16
602.409	1	6
602.578	1	7
602.748	1	11
602.918	1	-4
603.088	1	6
603.257	1	0
603.427	1	11
603.597	1	7
603.767	1	2
603.936	1	10
604.106	1	3
604.276	1	2
604.445	1	-1
604.615	1	3
604.785	1	10
604.954	1	11
605.124	1	4
605.294	1	-4
605.464	1	2
605.633	1	11
605.803	1	7
605.973	1	7
606.142	1	12
606.312	1	11
606.482	1	-8
606.652	1	7
606.821	1	3
606.991	1	4
607.161	1	10
607.330	1	1
607.500	1	9
607.670	1	6
607.839	1	2
608.009	1	-1
608.179	1	10
608.348	1	4
608.518	1	17
608.688	1	1
608.858	1	4
609.027	1	21
609.197	1	0
609.367	1	-2
609.536	1	-6
609.706	1	9
609.876	1	13
610.045	1	12
610.215	1	12
610.385	1	15
610.554	1	3
610.724	1	3
610.894	1	8
611.063	1	-3
611.233	1	13
611.403	1	7
611.572	1	10
611.742	1	1
611.912	1	8
612.081	1	14
612.251	1	11
612.421	1	16
612.590	1	2
612.760	1	2
612.930	1	9
613.099	1	12
613.269	1	2
613.439	1	2
613.608	1	3
613.778	1	2
613.948	1	21
614.117	1	6
614.287	1	10
614.457	1	13
614.626	1	-2
614.796	1	8
614.966	1	3
615.135	1	19
615.305	1	12
615.475	1	2
615.644	1	16
615.814	1	16
615.984	1	0
616.153	1	-4
616.323	1	0
616.493	1	-4
616.662	1	7
616.832	1	11
617.002	1	10
617.171	1	18
617.341	1	13
617.511	1	-3
617.680	1	1
617.850	1	4
618.019	1	-5
618.189	1	16
618.359	1	5
618.528	1	10
618.698	1	8
618.868	1	6
619.037	1	2
619.207	1	11
619.377	1	9
619.546	1	17
619.716	1	11
619.885	1	6
620.055	1	3
620.225	1	15
620.394	1	10
620.564	1	14
620.734	1	11
620.903	1	-1
621.073	1	4
621.242	1	10
621.412	1	2
621.582	1	7
621.751	1	9
621.921	1	6
622.091	1	4
622.260	1	5
622.430	1	8
622.599	1	2
622.769	1	-2
622.939	1	11
623.108	1	11
623.278	1	7
623.448	1	6
623.617	1	12
623.787	1	11
623.956	1	8
624.126	1	3
624.296	1	11
624.465	1	4
624.635	1	3
624.804	1	2
624.974	1	14
625.144	1	0
625.313	1	20
625.483	1	10
625.652	1	8
625.822	1	17
625.992	1	4
626.161	1	13
626.331	1	6
626.501	1	6
626.670	1	2
626.840	1	14
627.009	1	10
627.179	1	7
627.348	1	-3
627.518	1	13
627.688	1	5
627.857	1	20
628.027	1	8
628.196	1	20
628.366	1	-5
628.536	1	3
628.705	1	2
628.875	1	-2
629.044	1	0
629.214	1	14
629.384	1	14
629.553	1	1
629.723	1	12
629.892	1	12
630.062	1	11
630.232	1	11
630.401	1	13
630.571	1	4
630.740	1	-1
630.910	1	11
631.079	1	8
631.249	1	7
631.419	1	6
631.588	1	13
631.758	1	4
631.927	1	10
632.097	1	10
632.266	1	10
632.436	1	9
632.606	1	4
632.775	1	10
632.945	1	11
633.114	1	7
633.284	1	1
633.453	1	16
633.623	1	24
633.793	1	10
633.962	1	15
634.132	1	6
634.301	1	13
634.471	1	8
634.640	1	4
634.810	1	14
634.979	1	13
635.149	1	3
635.319	1	-6
635.488	1	12
635.658	1	4
635.827	1	9
635.997	1	10
636.166	1	3
636.336	1	-5
636.505	1	11
636.675	1	4
636.845	1	8
637.014	1	-6
637.184	1	12
637.353	1	9
637.523	1	7
637.692	1	13
637.862	1	13
638.031	1	6
638.201	1	17
638.370	1	17
638.540	1	2
638.710	1	-8
638.879	1	-2
639.049	1	3
639.218	1	9
639.388	1	4
639.557	1	8
639.727	1	11
639.896	1	5
640.066	1	-1
640.235	1	3
640.405	1	14
640.574	1	9
640.744	1	17
640.914	1	9
641.083	1	12
641.253	1	4
641.422	1	12
641.592	1	9
641.761	1	5
641.931	1	12
642.100	1	13
642.270	1	14
642.439	1	12
642.609	1	13
642.778	1	12
642.948	1	16
643.117	1	6
643.287	1	16
643.456	1	12
643.626	1	7
643.795	1	6
643.965	1	14
644.134	1	10
644.304	1	2
644.473	1	6
644.643	1	9
644.812	1	0
644.982	1	11
645.151	1	2
645.321	1	9
645.490	1	25
645.660	1	6
645.829	1	12
645.999	1	7
646.168	1	27
646.338	1	4
646.507	1	2
646.677	1	8
646.846	1	12
647.016	1	17
647.185	1	6
647.355	1	16
647.524	1	2
647.694	1	8
647.863	1	6
648.033	1	0
648.202	1	23
648.372	1	-3
648.541	1	7
648.711	1	10
648.880	1	9
649.050	1	13
649.219	1	4
649.389	1	1
649.558	1	18
649.728	1	7
649.897	1	9
650.067	1	12
650.236	1	4
650.406	1	6
650.575	1	14
650.745	1	15
650.914	1	16
651.084	1	12
651.253	1	8
651.423	1	3
651.592	1	13
651.762	1	12
651.931	1	13
652.101	1	7
652.270	1	14
652.440	1	25
652.609	1	17
652.778	1	20
652.948	1	10
653.117	1	12
653.287	1	-4
653.456	1	7
653.626	1	5
653.795	1	3
653.965	1	2
654.134	1	6
654.304	1	10
654.473	1	11
654.643	1	10
654.812	1	13
654.982	1	8
655.151	1	16
655.320	1	13
655.490	1	-4
655.659	1	18
655.829	1	14
655.998	1	8
656.168	1	5
656.337	1	14
656.507	1	-4
656.676	1	1
656.846	1	7
657.015	1	11
657.184	1	11
657.354	1	11
657.523	1	4
657.693	1	13
657.862	1	5
658.032	1	6
658.201	1	-2
658.371	1	4
658.540	1	9
658.709	1	14
658.879	1	21
659.048	1	6
659.218	1	7
659.387	1	19
659.557	1	12
659.726	1	8
659.895	1	8
660.065	1	4
660.234	1	16
660.404	1	14
660.573	1	14
660.743	1	8
660.912	1	15
661.081	1	8
661.251	1	8
661.420	1	13
661.590	1	7
661.759	1	13
661.929	1	7
662.098	1	13
662.267	1	4
662.437	1	4
662.606	1	7
662.776	1	9
662.945	1	6
663.115	1	31
663.284	1	11
663.453	1	14
663.623	1	15
663.792	1	15
663.962	1	19
664.131	1	10
664.300	1	12
664.470	1	3
664.639	1	16
664.809	1	9
664.978	1	22
665.148	1	9
665.317	1	8
665.486	1	10
665.656	1	5
665.825	1	11
665.995	1	6
666.164	1	14
666.333	1	11
666.503	1	1
666.672	1	15
666.842	1	14
667.011	1	13
667.180	1	12
667.350	1	12
667.519	1	20
667.689	1	8
667.858	1	16
668.027	1	8
668.197	1	3
668.366	1	8
668.536	1	-1
668.705	1	2
668.874	1	22
669.044	1	11
669.213	1	10
669.382	1	11
669.552	1	19
669.721	1	6
669.891	1	9
670.060	1	11
670.229	1	14
670.399	1	9
670.568	1	14
670.738	1	7
670.907	1	15
671.076	1	10
671.246	1	11
671.415	1	26
671.584	1	13
671.754	1	13
671.923	1	10
672.093	1	14
672.262	1	4
672.431	1	10
672.601	1	11
672.770	1	12
672.939	1	14
673.109	1	6
673.278	1	19
673.448	1	7
673.617	1	4
673.786	1	6
