325.333	1	18
325.504	1	3
325.675	1	12
325.846	1	18
326.017	1	14
326.188	1	1
326.359	1	13
326.531	1	17
326.702	1	13
326.873	1	18
327.044	1	20
327.215	1	14
327.386	1	4
327.557	1	-2
327.728	1	13
327.899	1	-1
328.070	1	15
328.241	1	9
328.412	1	15
328.583	1	7
328.754	1	19
328.926	1	10
329.097	1	-2
329.268	1	8
329.439	1	21
329.610	1	17
329.781	1	8
329.952	1	11
330.123	1	12
330.294	1	12
330.465	1	-1
330.636	1	11
330.807	1	19
330.978	1	10
331.149	1	16
331.320	1	11
331.492	1	11
331.663	1	15
331.834	1	5
332.005	1	22
332.176	1	14
332.347	1	6
332.518	1	20
332.689	1	16
332.860	1	12
333.031	1	16
333.202	1	4
333.373	1	22
333.544	1	14
333.715	1	14
333.886	1	5
334.057	1	8
334.228	1	17
334.399	1	22
334.570	1	18
334.741	1	22
334.912	1	10
335.084	1	19
335.255	1	19
335.426	1	13
335.597	1	18
335.768	1	17
335.939	1	15
336.110	1	20
336.281	1	18
336.452	1	29
336.623	1	14
336.794	1	-3
336.965	1	18
337.136	1	24
337.307	1	15
337.478	1	7
337.649	1	11
337.820	1	13
337.991	1	21
338.162	1	24
338.333	1	21
338.504	1	14
338.675	1	19
338.846	1	15
339.017	1	24
339.188	1	23
339.359	1	18
339.530	1	17
339.701	1	18
339.872	1	22
340.043	1	19
340.214	1	30
340.385	1	8
340.556	1	23
340.727	1	21
340.898	1	19
341.069	1	16
341.240	1	22
341.411	1	17
341.582	1	21
341.753	1	25
341.924	1	22
342.095	1	18
342.266	1	35
342.437	1	20
342.608	1	19
342.779	1	15
342.950	1	14
343.121	1	21
343.292	1	19
343.463	1	31
343.634	1	22
343.805	1	18
343.976	1	35
344.147	1	24
344.318	1	22
344.489	1	25
344.660	1	21
344.831	1	33
345.002	1	26
345.173	1	24
345.344	1	25
345.515	1	26
345.686	1	31
345.857	1	24
346.028	1	28
346.199	1	30
346.370	1	19
346.541	1	19
346.712	1	18
346.883	1	23
347.054	1	17
347.225	1	22
347.396	1	29
347.567	1	17
347.738	1	36
347.909	1	24
348.080	1	25
348.251	1	20
348.422	1	31
348.593	1	33
348.764	1	18
348.935	1	31
349.106	1	20
349.277	1	27
349.448	1	33
349.619	1	26
349.790	1	39
349.961	1	20
350.132	1	36
350.303	1	30
350.474	1	28
350.645	1	36
350.816	1	24
350.987	1	43
351.157	1	38
351.328	1	32
351.499	1	29
351.670	1	35
351.841	1	40
352.012	1	32
352.183	1	38
352.354	1	27
352.525	1	39
352.696	1	37
352.867	1	29
353.038	1	39
353.209	1	36
353.380	1	40
353.551	1	39
353.722	1	33
353.893	1	33
354.064	1	39
354.235	1	35
354.406	1	28
354.576	1	30
354.747	1	42
354.918	1	31
355.089	1	45
355.260	1	34
355.431	1	26
355.602	1	40
355.773	1	30
355.944	1	47
356.115	1	46
356.286	1	32
356.457	1	36
356.628	1	36
356.799	1	46
356.970	1	47
357.141	1	34
357.311	1	48
357.482	1	32
357.653	1	37
357.824	1	33
357.995	1	48
358.166	1	44
358.337	1	28
358.508	1	46
358.679	1	31
358.850	1	46
359.021	1	38
359.192	1	39
359.363	1	36
359.533	1	32
359.704	1	39
359.875	1	39
360.046	1	51
360.217	1	45
360.388	1	40
360.559	1	44
360.730	1	30
360.901	1	31
361.072	1	40
361.243	1	33
361.414	1	49
361.584	1	34
361.755	1	40
361.926	1	43
362.097	1	26
362.268	1	51
362.439	1	29
362.610	1	51
362.781	1	29
362.952	1	41
363.123	1	32
363.293	1	50
363.464	1	34
363.635	1	45
363.806	1	34
363.977	1	43
364.148	1	39
364.319	1	38
364.490	1	43
364.661	1	51
364.832	1	40
365.002	1	42
365.173	1	46
365.344	1	31
365.515	1	36
365.686	1	46
365.857	1	48
366.028	1	38
366.199	1	52
366.370	1	45
366.540	1	44
366.711	1	39
366.882	1	46
367.053	1	43
367.224	1	37
367.395	1	42
367.566	1	46
367.737	1	37
367.908	1	52
368.078	1	43
368.249	1	47
368.420	1	42
368.591	1	48
368.762	1	44
368.933	1	46
369.104	1	41
369.274	1	57
369.445	1	45
369.616	1	42
369.787	1	47
369.958	1	54
370.129	1	40
370.300	1	34
370.471	1	53
370.641	1	42
370.812	1	42
370.983	1	26
371.154	1	42
371.325	1	42
371.496	1	46
371.667	1	56
371.837	1	48
372.008	1	33
372.179	1	46
372.350	1	48
372.521	1	43
372.692	1	47
372.863	1	43
373.033	1	43
373.204	1	46
373.375	1	36
373.546	1	47
373.717	1	37
373.888	1	41
374.059	1	38
374.229	1	48
374.400	1	39
374.571	1	42
374.742	1	45
374.913	1	35
375.084	1	47
375.254	1	42
375.425	1	46
375.596	1	56
375.767	1	45
375.938	1	35
376.109	1	46
376.279	1	46
376.450	1	39
376.621	1	55
376.792	1	45
376.963	1	37
377.134	1	49
377.304	1	55
377.475	1	41
377.646	1	35
377.817	1	54
377.988	1	41
378.159	1	54
378.329	1	43
378.500	1	55
378.671	1	56
378.842	1	50
379.013	1	50
379.184	1	50
379.354	1	48
379.525	1	65
379.696	1	59
379.867	1	59
380.038	1	39
380.209	1	57
380.379	1	48
380.550	1	45
380.721	1	45
380.892	1	54
381.063	1	53
381.233	1	51
381.404	1	52
381.575	1	48
381.746	1	48
381.917	1	42
382.087	1	47
382.258	1	59
382.429	1	36
382.600	1	44
382.771	1	46
382.941	1	56
383.112	1	43
383.283	1	54
383.454	1	47
383.625	1	49
383.795	1	43
383.966	1	54
384.137	1	65
384.308	1	64
384.479	1	48
384.649	1	45
384.820	1	51
384.991	1	51
385.162	1	44
385.333	1	60
385.503	1	55
385.674	1	52
385.845	1	63
386.016	1	71
386.187	1	49
386.357	1	58
386.528	1	51
386.699	1	43
386.870	1	54
387.041	1	63
387.211	1	61
387.382	1	66
387.553	1	62
387.724	1	61
387.894	1	45
388.065	1	54
388.236	1	49
388.407	1	62
388.578	1	62
388.748	1	61
388.919	1	65
389.090	1	61
389.261	1	65
389.431	1	49
389.602	1	62
389.773	1	61
389.944	1	58
390.114	1	66
390.285	1	70
390.456	1	59
390.627	1	44
390.798	1	59
390.968	1	68
391.139	1	60
391.310	1	61
391.481	1	68
391.651	1	62
391.822	1	70
391.993	1	57
392.164	1	62
392.334	1	58
392.505	1	62
392.676	1	54
392.847	1	57
393.017	1	61
393.188	1	68
393.359	1	74
393.530	1	69
393.700	1	56
393.871	1	65
394.042	1	53
394.213	1	54
394.383	1	63
394.554	1	56
394.725	1	46
394.896	1	68
395.066	1	57
395.237	1	67
395.408	1	65
395.579	1	69
395.749	1	71
395.920	1	63
396.091	1	59
396.262	1	54
396.432	1	61
396.603	1	68
396.774	1	58
396.945	1	66
397.115	1	68
397.286	1	74
397.457	1	60
397.627	1	53
397.798	1	59
397.969	1	55
398.140	1	61
398.310	1	63
398.481	1	73
398.652	1	63
398.823	1	64
398.993	1	74
399.164	1	68
399.335	1	60
399.505	1	58
399.676	1	57
399.847	1	56
400.018	1	47
400.188	1	62
400.359	1	67
400.530	1	59
400.700	1	66
400.871	1	71
401.042	1	61
401.213	1	65
401.383	1	54
401.554	1	65
401.725	1	54
401.895	1	53
402.066	1	57
402.237	1	70
402.408	1	62
402.578	1	67
402.749	1	68
402.920	1	66
403.090	1	54
403.261	1	59
403.432	1	54
403.603	1	62
403.773	1	72
403.944	1	68
404.115	1	61
404.285	1	68
404.456	1	73
404.627	1	78
404.797	1	58
404.968	1	58
405.139	1	62
405.310	1	68
405.480	1	66
405.651	1	71
405.822	1	63
405.992	1	73
406.163	1	54
406.334	1	65
406.504	1	73
406.675	1	59
406.846	1	69
407.016	1	65
407.187	1	65
407.358	1	62
407.528	1	69
407.699	1	78
407.870	1	72
408.041	1	67
408.211	1	76
408.382	1	74
408.553	1	79
408.723	1	68
408.894	1	62
409.065	1	68
409.235	1	75
409.406	1	65
409.577	1	68
409.747	1	85
409.918	1	76
410.089	1	80
410.259	1	63
410.430	1	62
410.601	1	66
410.771	1	66
410.942	1	65
411.113	1	72
411.283	1	67
411.454	1	93
411.625	1	84
411.795	1	77
411.966	1	65
412.137	1	79
412.307	1	69
412.478	1	57
412.649	1	71
412.819	1	62
412.990	1	68
413.161	1	66
413.331	1	80
413.502	1	74
413.672	1	56
413.843	1	61
414.014	1	65
414.184	1	71
414.355	1	72
414.526	1	58
414.696	1	66
414.867	1	60
415.038	1	77
415.208	1	58
415.379	1	66
415.550	1	69
415.720	1	56
415.891	1	65
416.062	1	75
416.232	1	68
416.403	1	68
416.573	1	58
416.744	1	71
416.915	1	66
417.085	1	72
417.256	1	64
417.427	1	58
417.597	1	65
417.768	1	76
417.939	1	50
418.109	1	64
418.280	1	55
418.450	1	70
418.621	1	58
418.792	1	75
418.962	1	67
419.133	1	73
419.304	1	64
419.474	1	67
419.645	1	66
419.815	1	69
419.986	1	70
420.157	1	68
420.327	1	58
420.498	1	64
420.669	1	68
420.839	1	74
421.010	1	69
421.180	1	65
421.351	1	69
421.522	1	65
421.692	1	72
421.863	1	70
422.033	1	71
422.204	1	72
422.375	1	70
422.545	1	70
422.716	1	54
422.886	1	64
423.057	1	68
423.228	1	61
423.398	1	70
423.569	1	73
423.740	1	64
423.910	1	66
424.081	1	78
424.251	1	65
424.422	1	68
424.593	1	67
424.763	1	64
424.934	1	73
425.104	1	75
425.275	1	56
425.445	1	64
425.616	1	55
425.787	1	55
425.957	1	53
426.128	1	57
426.298	1	73
426.469	1	57
426.640	1	62
426.810	1	49
426.981	1	74
427.151	1	56
427.322	1	56
427.493	1	59
427.663	1	59
427.834	1	61
428.004	1	76
428.175	1	64
428.345	1	53
428.516	1	72
428.687	1	69
428.857	1	63
429.028	1	56
429.198	1	59
429.369	1	63
429.540	1	60
429.710	1	58
429.881	1	53
430.051	1	62
430.222	1	73
430.392	1	66
430.563	1	57
430.734	1	57
430.904	1	69
431.075	1	60
431.245	1	56
431.416	1	57
431.586	1	55
431.757	1	66
431.927	1	70
432.098	1	66
432.269	1	49
432.439	1	58
432.610	1	71
432.780	1	62
432.951	1	58
433.121	1	58
433.292	1	66
433.462	1	60
433.633	1	64
433.804	1	59
433.974	1	57
434.145	1	54
434.315	1	51
434.486	1	55
434.656	1	63
434.827	1	63
434.997	1	67
435.168	1	65
435.339	1	68
435.509	1	67
435.680	1	63
435.850	1	53
436.021	1	53
436.191	1	55
436.362	1	57
436.532	1	63
436.703	1	59
436.873	1	62
437.044	1	56
437.214	1	48
437.385	1	56
437.556	1	60
437.726	1	55
437.897	1	58
438.067	1	54
438.238	1	53
438.408	1	66
438.579	1	53
438.749	1	56
438.920	1	65
439.090	1	45
439.261	1	67
439.431	1	38
439.602	1	56
439.772	1	62
439.943	1	50
440.113	1	51
440.284	1	62
440.455	1	44
440.625	1	59
440.796	1	55
440.966	1	60
441.137	1	54
441.307	1	63
441.478	1	48
441.648	1	59
441.819	1	53
441.989	1	59
442.160	1	47
442.330	1	53
442.501	1	39
442.671	1	54
442.842	1	55
443.012	1	63
443.183	1	45
443.353	1	45
443.524	1	51
443.694	1	54
443.865	1	54
444.035	1	55
444.206	1	48
444.376	1	56
444.547	1	53
444.717	1	48
444.888	1	41
445.058	1	59
445.229	1	56
445.399	1	49
445.570	1	51
445.740	1	48
445.911	1	54
446.081	1	60
446.252	1	53
446.422	1	39
446.593	1	52
446.763	1	54
446.934	1	45
447.104	1	57
447.275	1	53
447.445	1	49
447.616	1	47
447.786	1	47
447.957	1	57
448.127	1	54
448.298	1	46
448.468	1	54
448.639	1	45
448.809	1	47
448.979	1	58
449.150	1	41
449.320	1	50
449.491	1	45
449.661	1	55
449.832	1	45
450.002	1	47
450.173	1	50
450.343	1	50
450.514	1	53
450.684	1	55
450.855	1	60
451.025	1	45
451.196	1	50
451.366	1	59
451.537	1	60
451.707	1	52
451.878	1	47
452.048	1	50
452.218	1	51
452.389	1	47
452.559	1	63
452.730	1	59
452.900	1	53
453.071	1	51
453.241	1	53
453.412	1	51
453.582	1	52
453.753	1	47
453.923	1	42
454.093	1	48
454.264	1	66
454.434	1	54
454.605	1	42
454.775	1	53
454.946	1	34
455.116	1	52
455.287	1	36
455.457	1	47
455.628	1	36
455.798	1	50
455.968	1	34
456.139	1	45
456.309	1	50
456.480	1	49
456.650	1	52
456.821	1	35
456.991	1	43
457.161	1	43
457.332	1	51
457.502	1	35
457.673	1	42
457.843	1	43
458.014	1	42
458.184	1	42
458.355	1	52
458.525	1	31
458.695	1	38
458.866	1	39
459.036	1	41
459.207	1	55
459.377	1	44
459.548	1	40
459.718	1	39
459.888	1	35
460.059	1	47
460.229	1	39
460.400	1	48
460.570	1	43
460.740	1	40
460.911	1	40
461.081	1	40
461.252	1	47
461.422	1	44
461.593	1	49
461.763	1	59
461.933	1	37
462.104	1	36
462.274	1	39
462.445	1	38
462.615	1	53
462.785	1	48
462.956	1	30
463.126	1	51
463.297	1	34
463.467	1	48
463.638	1	42
463.808	1	51
463.978	1	31
464.149	1	43
464.319	1	36
464.490	1	31
464.660	1	38
464.830	1	34
465.001	1	36
465.171	1	45
465.342	1	33
465.512	1	32
465.682	1	34
465.853	1	42
466.023	1	37
466.194	1	40
466.364	1	47
466.534	1	36
466.705	1	50
466.875	1	24
467.045	1	28
467.216	1	42
467.386	1	38
467.557	1	48
467.727	1	34
467.897	1	36
468.068	1	33
468.238	1	40
468.409	1	34
468.579	1	37
468.749	1	42
468.920	1	28
469.090	1	41
469.260	1	47
469.431	1	33
469.601	1	35
469.772	1	44
469.942	1	38
470.112	1	29
470.283	1	29
470.453	1	39
470.623	1	45
470.794	1	38
470.964	1	26
471.135	1	36
471.305	1	29
471.475	1	41
471.646	1	36
471.816	1	35
471.986	1	24
472.157	1	35
472.327	1	43
472.497	1	43
472.668	1	39
472.838	1	27
473.009	1	32
473.179	1	23
473.349	1	26
473.520	1	40
473.690	1	41
473.860	1	29
474.031	1	27
474.201	1	38
474.371	1	46
474.542	1	29
474.712	1	28
474.882	1	39
475.053	1	38
475.223	1	35
475.394	1	24
475.564	1	33
475.734	1	28
475.905	1	42
476.075	1	47
476.245	1	33
476.416	1	27
476.586	1	28
476.756	1	36
476.927	1	37
477.097	1	34
477.267	1	35
477.438	1	46
477.608	1	43
477.778	1	36
477.949	1	20
478.119	1	38
478.289	1	32
478.460	1	27
478.630	1	21
478.800	1	32
478.971	1	34
479.141	1	38
479.311	1	30
479.482	1	29
479.652	1	33
479.822	1	26
479.993	1	33
480.163	1	33
480.333	1	35
480.504	1	41
480.674	1	47
480.844	1	36
481.015	1	40
481.185	1	41
481.355	1	39
481.525	1	25
481.696	1	30
481.866	1	33
482.036	1	36
482.207	1	34
482.377	1	18
482.547	1	28
482.718	1	37
482.888	1	34
483.058	1	28
483.229	1	28
483.399	1	38
483.569	1	14
483.740	1	34
483.910	1	30
484.080	1	28
484.250	1	19
484.421	1	30
484.591	1	22
484.761	1	31
484.932	1	24
485.102	1	39
485.272	1	30
485.443	1	37
485.613	1	26
485.783	1	34
485.953	1	22
486.124	1	29
486.294	1	37
486.464	1	30
486.635	1	20
486.805	1	39
486.975	1	12
487.146	1	18
487.316	1	39
487.486	1	33
487.656	1	34
487.827	1	14
487.997	1	15
488.167	1	26
488.338	1	23
488.508	1	32
488.678	1	19
488.848	1	32
489.019	1	32
489.189	1	25
489.359	1	27
489.529	1	33
489.700	1	17
489.870	1	32
490.040	1	21
490.211	1	12
490.381	1	21
490.551	1	26
490.721	1	21
490.892	1	21
491.062	1	25
491.232	1	25
491.402	1	23
491.573	1	34
491.743	1	22
491.913	1	30
492.084	1	25
492.254	1	8
492.424	1	28
492.594	1	31
492.765	1	24
492.935	1	30
493.105	1	28
493.275	1	21
493.446	1	12
493.616	1	11
493.786	1	24
493.956	1	17
494.127	1	16
494.297	1	10
494.467	1	18
494.637	1	17
494.808	1	23
494.978	1	18
495.148	1	19
495.318	1	17
495.489	1	9
495.659	1	17
495.829	1	15
495.999	1	31
496.170	1	30
496.340	1	19
496.510	1	28
496.680	1	20
496.851	1	29
497.021	1	11
497.191	1	19
497.361	1	8
497.532	1	24
497.702	1	25
497.872	1	20
498.042	1	29
498.213	1	8
498.383	1	18
498.553	1	33
498.723	1	17
498.894	1	22
499.064	1	29
499.234	1	21
499.404	1	15
499.574	1	25
499.745	1	15
499.915	1	23
500.085	1	16
500.255	1	5
500.426	1	14
500.596	1	12
500.766	1	14
500.936	1	16
501.106	1	10
501.277	1	16
501.447	1	17
501.617	1	19
501.787	1	12
501.958	1	18
502.128	1	14
502.298	1	26
502.468	1	9
502.638	1	22
502.809	1	16
502.979	1	23
503.149	1	20
503.319	1	25
503.489	1	-4
503.660	1	14
503.830	1	8
504.000	1	13
504.170	1	17
504.340	1	13
504.511	1	12
504.681	1	10
504.851	1	8
505.021	1	14
505.192	1	10
505.362	1	19
505.532	1	14
505.702	1	30
505.872	1	9
506.043	1	27
506.213	1	23
506.383	1	22
506.553	1	8
506.723	1	10
506.893	1	15
507.064	1	21
507.234	1	16
507.404	1	14
507.574	1	7
507.744	1	24
507.915	1	13
508.085	1	18
508.255	1	25
508.425	1	8
508.595	1	16
508.766	1	12
508.936	1	24
509.106	1	16
509.276	1	13
509.446	1	7
509.616	1	13
509.787	1	18
509.957	1	9
510.127	1	3
510.297	1	10
510.467	1	22
510.638	1	16
510.808	1	23
510.978	1	11
511.148	1	14
511.318	1	13
511.488	1	17
511.659	1	12
511.829	1	15
511.999	1	18
512.169	1	29
512.339	1	16
512.509	1	6
512.680	1	17
512.850	1	15
513.020	1	20
513.190	1	6
513.360	1	14
513.530	1	9
513.700	1	14
513.871	1	14
514.041	1	12
514.211	1	26
514.381	1	18
514.551	1	11
514.721	1	20
514.892	1	6
515.062	1	17
515.232	1	7
515.402	1	12
515.572	1	18
515.742	1	15
515.912	1	8
516.083	1	15
516.253	1	22
516.423	1	9
516.593	1	15
516.763	1	17
516.933	1	18
517.104	1	9
517.274	1	6
517.444	1	7
517.614	1	-2
517.784	1	18
517.954	1	8
518.124	1	13
518.294	1	4
518.465	1	11
518.635	1	21
518.805	1	15
518.975	1	18
519.145	1	5
519.315	1	14
519.485	1	7
519.656	1	7
519.826	1	6
519.996	1	12
520.166	1	3
520.336	1	5
520.506	1	19
520.676	1	15
520.846	1	9
521.017	1	16
521.187	1	7
521.357	1	7
521.527	1	10
521.697	1	10
521.867	1	11
522.037	1	6
522.207	1	15
522.377	1	23
522.548	1	-1
522.718	1	9
522.888	1	7
523.058	1	17
523.228	1	7
523.398	1	7
523.568	1	4
523.738	1	9
523.909	1	10
524.079	1	-2
524.249	1	6
524.419	1	11
524.589	1	13
524.759	1	8
524.929	1	11
525.099	1	16
525.269	1	11
525.439	1	3
525.610	1	22
525.780	1	14
525.950	1	14
526.120	1	0
526.290	1	7
526.460	1	-3
526.630	1	16
526.800	1	10
526.970	1	10
527.140	1	8
527.311	1	0
527.481	1	10
527.651	1	9
527.821	1	8
527.991	1	11
528.161	1	18
528.331	1	-1
528.501	1	8
528.671	1	11
528.841	1	7
529.011	1	15
529.181	1	4
529.352	1	10
529.522	1	17
529.692	1	9
529.862	1	0
530.032	1	6
530.202	1	3
530.372	1	12
530.542	1	11
530.712	1	10
530.882	1	7
531.052	1	4
531.222	1	18
531.392	1	10
531.563	1	20
531.733	1	2
531.903	1	16
532.073	1	13
532.243	1	14
532.413	1	22
532.583	1	14
532.753	1	3
532.923	1	7
533.093	1	5
533.263	1	15
533.433	1	4
533.603	1	17
533.773	1	11
533.943	1	11
534.113	1	5
534.284	1	8
534.454	1	3
534.624	1	11
534.794	1	-3
534.964	1	17
535.134	1	4
535.304	1	12
535.474	1	15
535.644	1	11
535.814	1	6
535.984	1	17
536.154	1	13
536.324	1	5
536.494	1	26
536.664	1	9
536.834	1	5
537.004	1	10
537.174	1	25
537.344	1	9
537.514	1	4
537.685	1	9
537.855	1	10
538.025	1	20
538.195	1	13
538.365	1	7
538.535	1	0
538.705	1	1
538.875	1	10
539.045	1	6
539.215	1	4
539.385	1	11
539.555	1	6
539.725	1	5
539.895	1	14
540.065	1	18
540.235	1	8
540.405	1	7
540.575	1	10
540.745	1	14
540.915	1	6
541.085	1	0
541.255	1	2
541.425	1	-1
541.595	1	3
541.765	1	14
541.935	1	4
542.105	1	5
542.275	1	7
542.445	1	8
542.615	1	10
542.785	1	14
542.955	1	13
543.125	1	4
543.295	1	17
543.465	1	13
543.635	1	-4
543.805	1	10
543.975	1	3
544.145	1	2
544.315	1	-2
544.485	1	10
544.655	1	14
544.825	1	8
544.995	1	7
545.165	1	18
545.335	1	9
545.505	1	5
545.675	1	11
545.845	1	7
546.015	1	0
546.185	1	5
546.355	1	7
546.525	1	11
546.695	1	4
546.865	1	7
547.035	1	6
547.205	1	8
547.375	1	15
547.545	1	8
547.715	1	17
547.885	1	6
548.055	1	-3
548.225	1	16
548.395	1	11
548.565	1	10
548.735	1	-3
548.905	1	15
549.075	1	8
549.245	1	5
549.415	1	7
549.585	1	-6
549.755	1	7
549.925	1	5
550.095	1	0
550.265	1	-1
550.435	1	6
550.605	1	9
550.775	1	-1
550.945	1	13
551.115	1	17
551.285	1	6
551.455	1	9
551.625	1	-4
551.795	1	1
551.965	1	3
552.135	1	0
552.305	1	12
552.475	1	18
552.645	1	2
552.815	1	4
552.985	1	6
553.155	1	7
553.325	1	10
553.495	1	3
553.665	1	7
553.835	1	11
554.004	1	9
554.174	1	-2
554.344	1	11
554.514	1	-3
554.684	1	13
554.854	1	6
555.024	1	16
555.194	1	10
555.364	1	-1
555.534	1	6
555.704	1	5
555.874	1	8
556.044	1	4
556.214	1	7
556.384	1	15
556.554	1	3
556.724	1	7
556.894	1	0
557.064	1	9
557.234	1	0
557.404	1	15
557.573	1	16
557.743	1	0
557.913	1	7
558.083	1	8
558.253	1	4
558.423	1	10
558.593	1	6
558.763	1	4
558.933	1	-1
559.103	1	-1
559.273	1	12
559.443	1	11
559.613	1	9
559.783	1	2
559.953	1	2
560.122	1	8
560.292	1	5
560.462	1	1
560.632	1	-6
560.802	1	1
560.972	1	-6
561.142	1	3
561.312	1	0
561.482	1	6
561.652	1	15
561.822	1	2
561.992	1	14
562.162	1	3
562.331	1	-8
562.501	1	5
562.671	1	-3
562.841	1	-2
563.011	1	5
563.181	1	1
563.351	1	-5
563.521	1	18
563.691	1	1
563.861	1	1
564.031	1	7
564.201	1	10
564.370	1	16
564.540	1	3
564.710	1	3
564.880	1	2
565.050	1	3
565.220	1	16
565.390	1	7
565.560	1	14
565.730	1	16
565.900	1	9
566.069	1	15
566.239	1	10
566.409	1	12
566.579	1	9
566.749	1	0
566.919	1	-4
567.089	1	-11
567.259	1	15
567.429	1	6
567.599	1	10
567.768	1	-1
567.938	1	6
568.108	1	0
568.278	1	18
568.448	1	4
568.618	1	14
568.788	1	4
568.958	1	2
569.128	1	-4
569.297	1	1
569.467	1	3
569.637	1	16
569.807	1	9
569.977	1	2
570.147	1	5
570.317	1	6
570.487	1	-7
570.656	1	5
570.826	1	6
570.996	1	14
571.166	1	2
571.336	1	-1
571.506	1	-7
571.676	1	6
571.846	1	4
572.015	1	6
572.185	1	10
572.355	1	0
572.525	1	-3
572.695	1	2
572.865	1	7
573.035	1	6
573.205	1	2
573.374	1	-1
573.544	1	9
573.714	1	5
573.884	1	3
574.054	1	5
574.224	1	2
574.394	1	9
574.563	1	0
574.733	1	8
574.903	1	-1
575.073	1	9
575.243	1	-1
575.413	1	0
575.583	1	3
575.752	1	-2
575.922	1	9
576.092	1	-7
576.262	1	-1
576.432	1	8
576.602	1	6
576.772	1	9
576.941	1	3
577.111	1	4
577.281	1	6
577.451	1	13
577.621	1	0
577.791	1	10
577.960	1	0
578.130	1	4
578.300	1	2
578.470	1	2
578.640	1	-2
578.810	1	3
578.979	1	-2
579.149	1	1
579.319	1	-5
579.489	1	2
579.659	1	4
579.829	1	1
579.998	1	-2
580.168	1	1
580.338	1	9
580.508	1	-1
580.678	1	5
580.848	1	4
581.017	1	9
581.187	1	-2
581.357	1	10
581.527	1	2
581.697	1	-2
581.867	1	2
582.036	1	-9
582.206	1	-9
582.376	1	1
582.546	1	-1
582.716	1	7
582.885	1	1
583.055	1	-4
583.225	1	13
583.395	1	8
583.565	1	7
583.735	1	8
583.904	1	4
584.074	1	4
584.244	1	-2
584.414	1	1
584.584	1	-3
584.753	1	3
584.923	1	-9
585.093	1	17
585.263	1	9
585.433	1	-2
585.602	1	4
585.772	1	16
585.942	1	4
586.112	1	-1
586.282	1	4
586.451	1	18
586.621	1	0
586.791	1	-4
586.961	1	3
587.131	1	0
587.300	1	11
587.470	1	-6
587.640	1	3
587.810	1	-1
587.980	1	3
588.149	1	4
588.319	1	8
588.489	1	10
588.659	1	7
588.829	1	9
588.998	1	0
589.168	1	13
589.338	1	3
589.508	1	6
589.677	1	6
589.847	1	12
590.017	1	4
590.187	1	4
590.357	1	5
590.526	1	3
590.696	1	10
590.866	1	-3
591.036	1	6
591.205	1	8
591.375	1	1
591.545	1	6
591.715	1	-3
591.885	1	11
592.054	1	8
592.224	1	6
592.394	1	3
592.564	1	6
592.733	1	5
592.903	1	-5
593.073	1	-4
593.243	1	11
593.412	1	0
593.582	1	5
593.752	1	4
593.922	1	4
594.091	1	18
594.261	1	-12
594.431	1	4
594.601	1	3
594.771	1	10
594.940	1	-3
595.110	1	3
595.280	1	5
595.450	1	6
595.619	1	11
595.789	1	3
595.959	1	5
596.129	1	1
596.298	1	9
596.468	1	0
596.638	1	5
596.808	1	-6
596.977	1	2
597.147	1	0
597.317	1	9
597.487	1	7
597.656	1	10
597.826	1	17
597.996	1	2
598.166	1	2
598.335	1	-3
598.505	1	6
598.675	1	13
598.844	1	8
599.014	1	-1
599.184	1	2
599.354	1	11
599.523	1	8
599.693	1	-2
599.863	1	10
600.033	1	8
600.202	1	10
600.372	1	-1
600.542	1	7
600.712	1	0
600.881	1	6
601.051	1	5
601.221	1	7
601.390	1	5
601.560	1	10
601.730	1	6
601.900	1	14
602.069	1	9
602.239	1	2
602.409	1	4
602.578	1	11
602.748	1	17
602.918	1	-8
603.088	1	4
603.257	1	-7
603.427	1	3
603.597	1	2
603.767	1	10
603.936	1	10
604.106	1	-5
604.276	1	2
604.445	1	1
604.615	1	7
604.785	1	5
604.954	1	-1
605.124	1	1
605.294	1	7
605.464	1	-3
605.633	1	5
605.803	1	12
605.973	1	8
606.142	1	13
606.312	1	10
606.482	1	-7
606.652	1	9
606.821	1	6
606.991	1	3
607.161	1	11
607.330	1	4
607.500	1	9
607.670	1	-1
607.839	1	-4
608.009	1	-2
608.179	1	5
608.348	1	1
608.518	1	18
608.688	1	0
608.858	1	4
609.027	1	8
609.197	1	5
609.367	1	3
609.536	1	2
609.706	1	16
609.876	1	10
610.045	1	9
610.215	1	8
610.385	1	11
610.554	1	-1
610.724	1	5
610.894	1	10
611.063	1	15
611.233	1	3
611.403	1	12
611.572	1	15
611.742	1	2
611.912	1	15
612.081	1	16
612.251	1	3
612.421	1	-2
612.590	1	8
612.760	1	2
612.930	1	17
613.099	1	7
613.269	1	0
613.439	1	-3
613.608	1	6
613.778	1	1
613.948	1	18
614.117	1	4
614.287	1	1
614.457	1	4
614.626	1	4
614.796	1	5
614.966	1	8
615.135	1	10
615.305	1	10
615.475	1	7
615.644	1	20
615.814	1	20
615.984	1	-7
616.153	1	6
616.323	1	7
616.493	1	7
616.662	1	2
616.832	1	4
617.002	1	7
617.171	1	10
617.341	1	16
617.511	1	1
617.680	1	1
617.850	1	10
618.019	1	0
618.189	1	9
618.359	1	10
618.528	1	-3
618.698	1	6
618.868	1	7
619.037	1	2
619.207	1	3
619.377	1	4
619.546	1	15
619.716	1	-3
619.885	1	6
620.055	1	-3
620.225	1	13
620.394	1	14
620.564	1	10
620.734	1	6
620.903	1	-3
621.073	1	9
621.242	1	5
621.412	1	-3
621.582	1	22
621.751	1	-5
621.921	1	7
622.091	1	3
622.260	1	21
622.430	1	14
622.599	1	3
622.769	1	4
622.939	1	2
623.108	1	-1
623.278	1	9
623.448	1	0
623.617	1	3
623.787	1	-1
623.956	1	8
624.126	1	3
624.296	1	15
624.465	1	12
624.635	1	7
624.804	1	7
624.974	1	9
625.144	1	3
625.313	1	13
625.483	1	2
625.652	1	0
625.822	1	12
625.992	1	8
626.161	1	8
626.331	1	9
626.501	1	3
626.670	1	2
626.840	1	12
627.009	1	-4
627.179	1	0
627.348	1	-2
627.518	1	13
627.688	1	4
627.857	1	18
628.027	1	9
628.196	1	17
628.366	1	6
628.536	1	10
628.705	1	-2
628.875	1	7
629.044	1	2
629.214	1	17
629.384	1	9
629.553	1	-2
629.723	1	15
629.892	1	11
630.062	1	6
630.232	1	25
630.401	1	5
630.571	1	16
630.740	1	-2
630.910	1	18
631.079	1	5
631.249	1	8
631.419	1	10
631.588	1	9
631.758	1	-3
631.927	1	16
632.097	1	7
632.266	1	11
632.436	1	16
632.606	1	4
632.775	1	14
632.945	1	8
633.114	1	2
633.284	1	3
633.453	1	7
633.623	1	18
633.793	1	8
633.962	1	8
634.132	1	8
634.301	1	13
634.471	1	10
634.640	1	6
634.810	1	7
634.979	1	8
635.149	1	7
635.319	1	9
635.488	1	7
635.658	1	4
635.827	1	2
635.997	1	10
636.166	1	5
636.336	1	7
636.505	1	17
636.675	1	1
636.845	1	9
637.014	1	-5
637.184	1	7
637.353	1	-6
637.523	1	8
637.692	1	10
637.862	1	5
638.031	1	4
638.201	1	16
638.370	1	14
638.540	1	4
638.710	1	3
638.879	1	7
639.049	1	3
639.218	1	10
639.388	1	7
639.557	1	7
639.727	1	13
639.896	1	-1
640.066	1	8
640.235	1	6
640.405	1	7
640.574	1	13
640.744	1	9
640.914	1	-2
641.083	1	23
641.253	1	2
641.422	1	-4
641.592	1	10
641.761	1	7
641.931	1	23
642.100	1	11
642.270	1	14
642.439	1	6
642.609	1	17
642.778	1	10
642.948	1	17
643.117	1	16
643.287	1	6
643.456	1	3
643.626	1	9
643.795	1	11
643.965	1	16
644.134	1	1
644.304	1	3
644.473	1	10
644.643	1	9
644.812	1	0
644.982	1	5
645.151	1	-1
645.321	1	5
645.490	1	20
645.660	1	-2
645.829	1	15
645.999	1	7
646.168	1	23
646.338	1	3
646.507	1	5
646.677	1	17
646.846	1	6
647.016	1	21
647.185	1	10
647.355	1	18
647.524	1	3
647.694	1	-8
647.863	1	7
648.033	1	21
648.202	1	16
648.372	1	-6
648.541	1	13
648.711	1	12
648.880	1	20
649.050	1	13
649.219	1	15
649.389	1	3
649.558	1	19
649.728	1	11
649.897	1	19
650.067	1	9
650.236	1	1
650.406	1	4
650.575	1	8
650.745	1	11
650.914	1	19
651.084	1	12
651.253	1	17
651.423	1	0
651.592	1	12
651.762	1	6
651.931	1	12
652.101	1	-1
652.270	1	12
652.440	1	20
652.609	1	16
652.778	1	12
652.948	1	12
653.117	1	9
653.287	1	7
653.456	1	12
653.626	1	12
653.795	1	10
653.965	1	7
654.134	1	0
654.304	1	12
654.473	1	10
654.643	1	0
654.812	1	12
654.982	1	13
655.151	1	21
655.320	1	-3
655.490	1	5
655.659	1	6
655.829	1	18
655.998	1	8
656.168	1	7
656.337	1	20
656.507	1	5
656.676	1	5
656.846	1	10
657.015	1	6
657.184	1	4
657.354	1	11
657.523	1	8
657.693	1	11
657.862	1	11
658.032	1	8
658.201	1	4
658.371	1	8
658.540	1	4
658.709	1	14
658.879	1	15
659.048	1	11
659.218	1	2
659.387	1	10
659.557	1	8
659.726	1	2
659.895	1	11
660.065	1	10
660.234	1	10
660.404	1	15
660.573	1	10
660.743	1	-3
660.912	1	11
661.081	1	-1
661.251	1	8
661.420	1	15
661.590	1	4
661.759	1	10
661.929	1	5
662.098	1	16
662.267	1	-2
662.437	1	12
662.606	1	4
662.776	1	14
662.945	1	23
663.115	1	19
663.284	1	14
663.453	1	8
663.623	1	9
663.792	1	9
663.962	1	11
664.131	1	5
664.300	1	4
664.470	1	1
664.639	1	11
664.809	1	16
664.978	1	17
665.148	1	16
665.317	1	18
665.486	1	12
665.656	1	0
665.825	1	14
665.995	1	2
666.164	1	4
666.333	1	11
666.503	1	3
666.672	1	16
666.842	1	11
667.011	1	8
667.180	1	8
667.350	1	12
667.519	1	8
667.689	1	15
667.858	1	12
668.027	1	0
668.197	1	1
668.366	1	14
668.536	1	6
668.705	1	6
668.874	1	12
669.044	1	15
669.213	1	12
669.382	1	9
669.552	1	20
669.721	1	9
669.891	1	1
670.060	1	11
670.229	1	9
670.399	1	12
670.568	1	10
670.738	1	3
670.907	1	18
671.076	1	17
671.246	1	15
671.415	1	26
671.584	1	20
671.754	1	-1
671.923	1	2
672.093	1	11
672.262	1	1
672.431	1	13
672.601	1	10
672.770	1	9
672.939	1	16
673.109	1	8
673.278	1	6
673.448	1	7
673.617	1	15
673.786	1	0
