325.333	1	13
325.504	1	1
325.675	1	17
325.846	1	0
326.017	1	9
326.188	1	4
326.359	1	7
326.531	1	2
326.702	1	5
326.873	1	13
327.044	1	8
327.215	1	3
327.386	1	4
327.557	1	7
327.728	1	2
327.899	1	5
328.070	1	6
328.241	1	9
328.412	1	5
328.583	1	11
328.754	1	22
328.926	1	9
329.097	1	2
329.268	1	11
329.439	1	25
329.610	1	11
329.781	1	8
329.952	1	6
330.123	1	1
330.294	1	7
330.465	1	-4
330.636	1	12
330.807	1	14
330.978	1	13
331.149	1	11
331.320	1	-1
331.492	1	12
331.663	1	6
331.834	1	4
332.005	1	14
332.176	1	19
332.347	1	12
332.518	1	12
332.689	1	10
332.860	1	4
333.031	1	12
333.202	1	6
333.373	1	16
333.544	1	14
333.715	1	2
333.886	1	10
334.057	1	2
334.228	1	15
334.399	1	20
334.570	1	9
334.741	1	13
334.912	1	4
335.084	1	12
335.255	1	18
335.426	1	14
335.597	1	7
335.768	1	11
335.939	1	19
336.110	1	3
336.281	1	10
336.452	1	15
336.623	1	3
336.794	1	12
336.965	1	14
337.136	1	17
337.307	1	9
337.478	1	6
337.649	1	10
337.820	1	10
337.991	1	8
338.162	1	5
338.333	1	3
338.504	1	18
338.675	1	5
338.846	1	5
339.017	1	17
339.188	1	7
339.359	1	20
339.530	1	10
339.701	1	21
339.872	1	25
340.043	1	13
340.214	1	21
340.385	1	5
340.556	1	16
340.727	1	21
340.898	1	12
341.069	1	7
341.240	1	14
341.411	1	18
341.582	1	5
341.753	1	19
341.924	1	16
342.095	1	10
342.266	1	23
342.437	1	9
342.608	1	13
342.779	1	12
342.950	1	7
343.121	1	15
343.292	1	11
343.463	1	24
343.634	1	9
343.805	1	12
343.976	1	25
344.147	1	27
344.318	1	15
344.489	1	10
344.660	1	28
344.831	1	27
345.002	1	16
345.173	1	21
345.344	1	9
345.515	1	14
345.686	1	20
345.857	1	23
346.028	1	18
346.199	1	17
346.370	1	11
346.541	1	10
346.712	1	23
346.883	1	18
347.054	1	17
347.225	1	12
347.396	1	17
347.567	1	14
347.738	1	12
347.909	1	16
348.080	1	23
348.251	1	16
348.422	1	20
348.593	1	19
348.764	1	13
348.935	1	18
349.106	1	14
349.277	1	17
349.448	1	16
349.619	1	19
349.790	1	19
349.961	1	14
350.132	1	23
350.303	1	21
350.474	1	21
350.645	1	22
350.816	1	17
350.987	1	29
351.157	1	13
351.328	1	20
351.499	1	18
351.670	1	13
351.841	1	28
352.012	1	31
352.183	1	29
352.354	1	20
352.525	1	24
352.696	1	19
352.867	1	29
353.038	1	13
353.209	1	29
353.380	1	24
353.551	1	25
353.722	1	29
353.893	1	23
354.064	1	24
354.235	1	26
354.406	1	10
354.576	1	16
354.747	1	23
354.918	1	17
355.089	1	22
355.260	1	19
355.431	1	5
355.602	1	18
355.773	1	20
355.944	1	20
356.115	1	28
356.286	1	26
356.457	1	26
356.628	1	32
356.799	1	30
356.970	1	46
357.141	1	20
357.311	1	33
357.482	1	17
357.653	1	16
357.824	1	32
357.995	1	36
358.166	1	22
358.337	1	20
358.508	1	32
358.679	1	23
358.850	1	38
359.021	1	33
359.192	1	33
359.363	1	34
359.533	1	27
359.704	1	25
359.875	1	23
360.046	1	32
360.217	1	37
360.388	1	39
360.559	1	42
360.730	1	26
360.901	1	34
361.072	1	31
361.243	1	32
361.414	1	30
361.584	1	26
361.755	1	26
361.926	1	39
362.097	1	16
362.268	1	32
362.439	1	16
362.610	1	27
362.781	1	27
362.952	1	32
363.123	1	9
363.293	1	34
363.464	1	27
363.635	1	19
363.806	1	24
363.977	1	35
364.148	1	19
364.319	1	15
364.490	1	27
364.661	1	22
364.832	1	22
365.002	1	26
365.173	1	30
365.344	1	27
365.515	1	31
365.686	1	31
365.857	1	34
366.028	1	27
366.199	1	36
366.370	1	34
366.540	1	30
366.711	1	31
366.882	1	28
367.053	1	38
367.224	1	24
367.395	1	34
367.566	1	41
367.737	1	26
367.908	1	36
368.078	1	23
368.249	1	40
368.420	1	33
368.591	1	37
368.762	1	26
368.933	1	29
369.104	1	41
369.274	1	30
369.445	1	26
369.616	1	23
369.787	1	33
369.958	1	33
370.129	1	29
370.300	1	27
370.471	1	26
370.641	1	22
370.812	1	35
370.983	1	25
371.154	1	20
371.325	1	33
371.496	1	31
371.667	1	27
371.837	1	37
372.008	1	20
372.179	1	19
372.350	1	35
372.521	1	34
372.692	1	26
372.863	1	31
373.033	1	30
373.204	1	26
373.375	1	24
373.546	1	35
373.717	1	32
373.888	1	31
374.059	1	28
374.229	1	38
374.400	1	25
374.571	1	25
374.742	1	31
374.913	1	27
375.084	1	32
375.254	1	28
375.425	1	27
375.596	1	36
375.767	1	43
375.938	1	22
376.109	1	30
376.279	1	15
376.450	1	33
376.621	1	39
376.792	1	33
376.963	1	35
377.134	1	36
377.304	1	38
377.475	1	17
377.646	1	27
377.817	1	40
377.988	1	41
378.159	1	38
378.329	1	28
378.500	1	45
378.671	1	43
378.842	1	37
379.013	1	40
379.184	1	23
379.354	1	40
379.525	1	38
379.696	1	37
379.867	1	41
380.038	1	38
380.209	1	42
380.379	1	47
380.550	1	26
380.721	1	32
380.892	1	33
381.063	1	39
381.233	1	38
381.404	1	32
381.575	1	42
381.746	1	34
381.917	1	38
382.087	1	43
382.258	1	43
382.429	1	40
382.600	1	31
382.771	1	30
382.941	1	49
383.112	1	36
383.283	1	33
383.454	1	30
383.625	1	34
383.795	1	44
383.966	1	33
384.137	1	46
384.308	1	40
384.479	1	35
384.649	1	35
384.820	1	31
384.991	1	36
385.162	1	46
385.333	1	45
385.503	1	32
385.674	1	41
385.845	1	44
386.016	1	45
386.187	1	32
386.357	1	39
386.528	1	50
386.699	1	46
386.870	1	45
387.041	1	41
387.211	1	42
387.382	1	53
387.553	1	36
387.724	1	34
387.894	1	33
388.065	1	38
388.236	1	47
388.407	1	41
388.578	1	50
388.748	1	40
388.919	1	45
389.090	1	62
389.261	1	31
389.431	1	37
389.602	1	38
389.773	1	47
389.944	1	35
390.114	1	50
390.285	1	44
390.456	1	38
390.627	1	40
390.798	1	43
390.968	1	43
391.139	1	41
391.310	1	35
391.481	1	43
391.651	1	41
391.822	1	49
391.993	1	40
392.164	1	34
392.334	1	33
392.505	1	45
392.676	1	40
392.847	1	34
393.017	1	37
393.188	1	46
393.359	1	54
393.530	1	52
393.700	1	36
393.871	1	49
394.042	1	35
394.213	1	29
394.383	1	43
394.554	1	41
394.725	1	46
394.896	1	53
395.066	1	45
395.237	1	36
395.408	1	42
395.579	1	45
395.749	1	58
395.920	1	49
396.091	1	44
396.262	1	41
396.432	1	40
396.603	1	47
396.774	1	43
396.945	1	52
397.115	1	48
397.286	1	48
397.457	1	43
397.627	1	46
397.798	1	44
397.969	1	42
398.140	1	39
398.310	1	40
398.481	1	45
398.652	1	47
398.823	1	55
398.993	1	43
399.164	1	49
399.335	1	41
399.505	1	34
399.676	1	47
399.847	1	43
400.018	1	39
400.188	1	47
400.359	1	51
400.530	1	51
400.700	1	43
400.871	1	52
401.042	1	41
401.213	1	45
401.383	1	47
401.554	1	49
401.725	1	52
401.895	1	38
402.066	1	53
402.237	1	39
402.408	1	48
402.578	1	56
402.749	1	39
402.920	1	46
403.090	1	41
403.261	1	42
403.432	1	47
403.603	1	43
403.773	1	54
403.944	1	37
404.115	1	43
404.285	1	48
404.456	1	61
404.627	1	50
404.797	1	42
404.968	1	44
405.139	1	43
405.310	1	54
405.480	1	53
405.651	1	44
405.822	1	50
405.992	1	48
406.163	1	46
406.334	1	56
406.504	1	43
406.675	1	42
406.846	1	54
407.016	1	45
407.187	1	46
407.358	1	34
407.528	1	46
407.699	1	45
407.870	1	51
408.041	1	37
408.211	1	52
408.382	1	44
408.553	1	55
408.723	1	56
408.894	1	42
409.065	1	47
409.235	1	55
409.406	1	49
409.577	1	46
409.747	1	55
409.918	1	52
410.089	1	64
410.259	1	39
410.430	1	49
410.601	1	47
410.771	1	59
410.942	1	49
411.113	1	50
411.283	1	45
411.454	1	66
411.625	1	54
411.795	1	52
411.966	1	41
412.137	1	47
412.307	1	55
412.478	1	53
412.649	1	50
412.819	1	42
412.990	1	57
413.161	1	42
413.331	1	59
413.502	1	46
413.672	1	43
413.843	1	37
414.014	1	42
414.184	1	51
414.355	1	47
414.526	1	46
414.696	1	44
414.867	1	37
415.038	1	49
415.208	1	47
415.379	1	51
415.550	1	52
415.720	1	34
415.891	1	52
416.062	1	55
416.232	1	54
416.403	1	51
416.573	1	47
416.744	1	59
416.915	1	49
417.085	1	47
417.256	1	44
417.427	1	47
417.597	1	49
417.768	1	44
417.939	1	37
418.109	1	40
418.280	1	40
418.450	1	58
418.621	1	52
418.792	1	41
418.962	1	48
419.133	1	35
419.304	1	55
419.474	1	47
419.645	1	52
419.815	1	48
419.986	1	56
420.157	1	41
420.327	1	42
420.498	1	44
420.669	1	51
420.839	1	49
421.010	1	44
421.180	1	45
421.351	1	43
421.522	1	55
421.692	1	61
421.863	1	49
422.033	1	54
422.204	1	49
422.375	1	53
422.545	1	46
422.716	1	34
422.886	1	47
423.057	1	47
423.228	1	50
423.398	1	49
423.569	1	48
423.740	1	39
423.910	1	48
424.081	1	55
424.251	1	42
424.422	1	43
424.593	1	48
424.763	1	44
424.934	1	57
425.104	1	60
425.275	1	44
425.445	1	44
425.616	1	40
425.787	1	42
425.957	1	52
426.128	1	37
426.298	1	47
426.469	1	32
426.640	1	44
426.810	1	40
426.981	1	39
427.151	1	39
427.322	1	40
427.493	1	49
427.663	1	46
427.834	1	53
428.004	1	41
428.175	1	50
428.345	1	41
428.516	1	38
428.687	1	56
428.857	1	51
429.028	1	39
429.198	1	40
429.369	1	46
429.540	1	45
429.710	1	43
429.881	1	40
430.051	1	44
430.222	1	48
430.392	1	49
430.563	1	40
430.734	1	42
430.904	1	46
431.075	1	49
431.245	1	41
431.416	1	42
431.586	1	45
431.757	1	48
431.927	1	49
432.098	1	44
432.269	1	44
432.439	1	44
432.610	1	56
432.780	1	50
432.951	1	40
433.121	1	38
433.292	1	54
433.462	1	47
433.633	1	39
433.804	1	43
433.974	1	45
434.145	1	48
434.315	1	45
434.486	1	31
434.656	1	54
434.827	1	48
434.997	1	45
435.168	1	37
435.339	1	46
435.509	1	44
435.680	1	46
435.850	1	32
436.021	1	45
436.191	1	50
436.362	1	46
436.532	1	46
436.703	1	47
436.873	1	37
437.044	1	30
437.214	1	29
437.385	1	38
437.556	1	50
437.726	1	39
437.897	1	41
438.067	1	45
438.238	1	41
438.408	1	45
438.579	1	29
438.749	1	45
438.920	1	47
439.090	1	31
439.261	1	42
439.431	1	23
439.602	1	39
439.772	1	43
439.943	1	34
440.113	1	36
440.284	1	50
440.455	1	44
440.625	1	46
440.796	1	43
440.966	1	43
441.137	1	44
441.307	1	40
441.478	1	33
441.648	1	43
441.819	1	35
441.989	1	48
442.160	1	44
442.330	1	41
442.501	1	41
442.671	1	40
442.842	1	37
443.012	1	29
443.183	1	33
443.353	1	41
443.524	1	39
443.694	1	38
443.865	1	43
444.035	1	39
444.206	1	35
444.376	1	36
444.547	1	49
444.717	1	29
444.888	1	19
445.058	1	43
445.229	1	42
445.399	1	45
445.570	1	33
445.740	1	38
445.911	1	38
446.081	1	44
446.252	1	37
446.422	1	40
446.593	1	34
446.763	1	37
446.934	1	31
447.104	1	39
447.275	1	32
447.445	1	40
447.616	1	43
447.786	1	33
447.957	1	38
448.127	1	31
448.298	1	43
448.468	1	38
448.639	1	35
448.809	1	33
448.979	1	43
449.150	1	38
449.320	1	49
449.491	1	34
449.661	1	32
449.832	1	29
450.002	1	33
450.173	1	38
450.343	1	24
450.514	1	41
450.684	1	35
450.855	1	37
451.025	1	28
451.196	1	34
451.366	1	45
451.537	1	35
451.707	1	31
451.878	1	30
452.048	1	30
452.218	1	43
452.389	1	37
452.559	1	41
452.730	1	42
452.900	1	35
453.071	1	43
453.241	1	44
453.412	1	43
453.582	1	30
453.753	1	32
453.923	1	22
454.093	1	31
454.264	1	40
454.434	1	34
454.605	1	30
454.775	1	44
454.946	1	29
455.116	1	35
455.287	1	27
455.457	1	40
455.628	1	23
455.798	1	39
455.968	1	29
456.139	1	41
456.309	1	31
456.480	1	33
456.650	1	37
456.821	1	33
456.991	1	42
457.161	1	39
457.332	1	26
457.502	1	27
457.673	1	25
457.843	1	32
458.014	1	30
458.184	1	37
458.355	1	35
458.525	1	20
458.695	1	27
458.866	1	21
459.036	1	34
459.207	1	35
459.377	1	30
459.548	1	30
459.718	1	36
459.888	1	22
460.059	1	32
460.229	1	27
460.400	1	31
460.570	1	32
460.740	1	32
460.911	1	27
461.081	1	28
461.252	1	27
461.422	1	23
461.593	1	37
461.763	1	38
461.933	1	32
462.104	1	19
462.274	1	20
462.445	1	31
462.615	1	40
462.785	1	38
462.956	1	18
463.126	1	33
463.297	1	27
463.467	1	52
463.638	1	29
463.808	1	28
463.978	1	21
464.149	1	29
464.319	1	31
464.490	1	31
464.660	1	29
464.830	1	27
465.001	1	35
465.171	1	27
465.342	1	30
465.512	1	22
465.682	1	27
465.853	1	30
466.023	1	24
466.194	1	37
466.364	1	37
466.534	1	19
466.705	1	42
466.875	1	21
467.045	1	16
467.216	1	31
467.386	1	23
467.557	1	35
467.727	1	25
467.897	1	34
468.068	1	16
468.238	1	34
468.409	1	28
468.579	1	25
468.749	1	23
468.920	1	20
469.090	1	35
469.260	1	15
469.431	1	14
469.601	1	27
469.772	1	37
469.942	1	31
470.112	1	20
470.283	1	33
470.453	1	32
470.623	1	32
470.794	1	29
470.964	1	21
471.135	1	37
471.305	1	21
471.475	1	24
471.646	1	27
471.816	1	21
471.986	1	21
472.157	1	37
472.327	1	21
472.497	1	19
472.668	1	24
472.838	1	22
473.009	1	27
473.179	1	19
473.349	1	20
473.520	1	41
473.690	1	24
473.860	1	7
474.031	1	21
474.201	1	28
474.371	1	30
474.542	1	26
474.712	1	15
474.882	1	25
475.053	1	30
475.223	1	21
475.394	1	31
475.564	1	28
475.734	1	10
475.905	1	31
476.075	1	28
476.245	1	18
476.416	1	17
476.586	1	22
476.756	1	22
476.927	1	21
477.097	1	23
477.267	1	16
477.438	1	31
477.608	1	39
477.778	1	12
477.949	1	7
478.119	1	32
478.289	1	18
478.460	1	18
478.630	1	19
478.800	1	17
478.971	1	20
479.141	1	14
479.311	1	15
479.482	1	20
479.652	1	17
479.822	1	17
479.993	1	26
480.163	1	22
480.333	1	21
480.504	1	24
480.674	1	19
480.844	1	16
481.015	1	22
481.185	1	27
481.355	1	22
481.525	1	10
481.696	1	24
481.866	1	21
482.036	1	24
482.207	1	21
482.377	1	15
482.547	1	15
482.718	1	20
482.888	1	30
483.058	1	20
483.229	1	20
483.399	1	27
483.569	1	10
483.740	1	17
483.910	1	9
484.080	1	14
484.250	1	15
484.421	1	11
484.591	1	20
484.761	1	19
484.932	1	20
485.102	1	14
485.272	1	6
485.443	1	23
485.613	1	12
485.783	1	16
485.953	1	14
486.124	1	9
486.294	1	37
486.464	1	23
486.635	1	10
486.805	1	22
486.975	1	23
487.146	1	28
487.316	1	13
487.486	1	25
487.656	1	17
487.827	1	20
487.997	1	6
488.167	1	13
488.338	1	10
488.508	1	17
488.678	1	18
488.848	1	17
489.019	1	8
489.189	1	28
489.359	1	9
489.529	1	18
489.700	1	12
489.870	1	20
490.040	1	18
490.211	1	14
490.381	1	15
490.551	1	16
490.721	1	14
490.892	1	13
491.062	1	6
491.232	1	16
491.402	1	13
491.573	1	24
491.743	1	19
491.913	1	22
492.084	1	19
492.254	1	16
492.424	1	16
492.594	1	11
492.765	1	20
492.935	1	23
493.105	1	11
493.275	1	27
493.446	1	2
493.616	1	8
493.786	1	27
493.956	1	11
494.127	1	11
494.297	1	-1
494.467	1	18
494.637	1	16
494.808	1	17
494.978	1	16
495.148	1	21
495.318	1	17
495.489	1	16
495.659	1	5
495.829	1	9
495.999	1	13
496.170	1	13
496.340	1	16
496.510	1	16
496.680	1	16
496.851	1	16
497.021	1	9
497.191	1	19
497.361	1	6
497.532	1	10
497.702	1	19
497.872	1	12
498.042	1	14
498.213	1	4
498.383	1	13
498.553	1	9
498.723	1	17
498.894	1	13
499.064	1	13
499.234	1	18
499.404	1	16
499.574	1	15
499.745	1	10
499.915	1	20
500.085	1	7
500.255	1	3
500.426	1	10
500.596	1	11
500.766	1	7
500.936	1	16
501.106	1	6
501.277	1	2
501.447	1	22
501.617	1	13
501.787	1	10
501.958	1	17
502.128	1	12
502.298	1	15
502.468	1	-2
502.638	1	14
502.809	1	14
502.979	1	13
503.149	1	6
503.319	1	17
503.489	1	-5
503.660	1	-2
503.830	1	11
504.000	1	8
504.170	1	3
504.340	1	10
504.511	1	10
504.681	1	3
504.851	1	7
505.021	1	10
505.192	1	-2
505.362	1	4
505.532	1	7
505.702	1	22
505.872	1	11
506.043	1	13
506.213	1	11
506.383	1	20
506.553	1	8
506.723	1	5
506.893	1	8
507.064	1	17
507.234	1	9
507.404	1	3
507.574	1	11
507.744	1	6
507.915	1	8
508.085	1	15
508.255	1	12
508.425	1	6
508.595	1	3
508.766	1	2
508.936	1	20
509.106	1	14
509.276	1	17
509.446	1	-1
509.616	1	13
509.787	1	13
509.957	1	10
510.127	1	0
510.297	1	-4
510.467	1	9
510.638	1	2
510.808	1	20
510.978	1	1
511.148	1	9
511.318	1	9
511.488	1	10
511.659	1	10
511.829	1	4
511.999	1	17
512.169	1	20
512.339	1	15
512.509	1	4
512.680	1	5
512.850	1	6
513.020	1	17
513.190	1	-1
513.360	1	10
513.530	1	8
513.700	1	15
513.871	1	3
514.041	1	19
514.211	1	7
514.381	1	5
514.551	1	7
514.721	1	6
514.892	1	12
515.062	1	8
515.232	1	-1
515.402	1	8
515.572	1	4
515.742	1	17
515.912	1	10
516.083	1	6
516.253	1	21
516.423	1	11
516.593	1	4
516.763	1	12
516.933	1	14
517.104	1	17
517.274	1	6
517.444	1	7
517.614	1	1
517.784	1	7
517.954	1	5
518.124	1	14
518.294	1	8
518.465	1	11
518.635	1	19
518.805	1	10
518.975	1	7
519.145	1	8
519.315	1	12
519.485	1	7
519.656	1	3
519.826	1	4
519.996	1	10
520.166	1	3
520.336	1	12
520.506	1	2
520.676	1	12
520.846	1	2
521.017	1	4
521.187	1	10
521.357	1	4
521.527	1	-3
521.697	1	-2
521.867	1	11
522.037	1	15
522.207	1	9
522.377	1	13
522.548	1	-6
522.718	1	2
522.888	1	14
523.058	1	9
523.228	1	2
523.398	1	1
523.568	1	7
523.738	1	9
523.909	1	12
524.079	1	2
524.249	1	-1
524.419	1	1
524.589	1	2
524.759	1	16
524.929	1	0
525.099	1	7
525.269	1	8
525.439	1	-3
525.610	1	8
525.780	1	0
525.950	1	17
526.120	1	1
526.290	1	6
526.460	1	1
526.630	1	5
526.800	1	16
526.970	1	19
527.140	1	12
527.311	1	1
527.481	1	10
527.651	1	12
527.821	1	4
527.991	1	-5
528.161	1	15
528.331	1	-3
528.501	1	10
528.671	1	5
528.841	1	4
529.011	1	13
529.181	1	9
529.352	1	6
529.522	1	2
529.692	1	8
529.862	1	-3
530.032	1	-3
530.202	1	-7
530.372	1	15
530.542	1	-1
530.712	1	5
530.882	1	-2
531.052	1	4
531.222	1	11
531.392	1	5
531.563	1	10
531.733	1	14
531.903	1	2
532.073	1	6
532.243	1	12
532.413	1	20
532.583	1	9
532.753	1	5
532.923	1	7
533.093	1	-4
533.263	1	11
533.433	1	-12
533.603	1	3
533.773	1	5
533.943	1	14
534.113	1	4
534.284	1	3
534.454	1	-3
534.624	1	6
534.794	1	0
534.964	1	7
535.134	1	-2
535.304	1	0
535.474	1	5
535.644	1	8
535.814	1	9
535.984	1	7
536.154	1	1
536.324	1	9
536.494	1	14
536.664	1	1
536.834	1	2
537.004	1	20
537.174	1	6
537.344	1	5
537.514	1	-4
537.685	1	4
537.855	1	-1
538.025	1	10
538.195	1	8
538.365	1	8
538.535	1	-8
538.705	1	10
538.875	1	17
539.045	1	8
539.215	1	-2
539.385	1	3
539.555	1	-6
539.725	1	7
539.895	1	8
540.065	1	7
540.235	1	-1
540.405	1	3
540.575	1	8
540.745	1	11
540.915	1	11
541.085	1	-2
541.255	1	-4
541.425	1	1
541.595	1	10
541.765	1	6
541.935	1	2
542.105	1	-2
542.275	1	4
542.445	1	0
542.615	1	7
542.785	1	0
542.955	1	14
543.125	1	10
543.295	1	8
543.465	1	10
543.635	1	-4
543.805	1	14
543.975	1	-3
544.145	1	3
544.315	1	5
544.485	1	2
544.655	1	11
544.825	1	0
544.995	1	0
545.165	1	7
545.335	1	0
545.505	1	3
545.675	1	3
545.845	1	1
546.015	1	3
546.185	1	11
546.355	1	2
546.525	1	17
546.695	1	2
546.865	1	0
547.035	1	14
547.205	1	12
547.375	1	7
547.545	1	8
547.715	1	0
547.885	1	1
548.055	1	0
548.225	1	2
548.395	1	11
548.565	1	4
548.735	1	-2
548.905	1	11
549.075	1	-2
549.245	1	13
549.415	1	7
549.585	1	3
549.755	1	5
549.925	1	11
550.095	1	-4
550.265	1	4
550.435	1	3
550.605	1	1
550.775	1	3
550.945	1	0
551.115	1	13
551.285	1	11
551.455	1	7
551.625	1	0
551.795	1	1
551.965	1	3
552.135	1	-2
552.305	1	4
552.475	1	14
552.645	1	-4
552.815	1	7
552.985	1	-1
553.155	1	3
553.325	1	4
553.495	1	12
553.665	1	3
553.835	1	-3
554.004	1	4
554.174	1	-1
554.344	1	8
554.514	1	0
554.684	1	7
554.854	1	-5
555.024	1	10
555.194	1	7
555.364	1	1
555.534	1	1
555.704	1	3
555.874	1	9
556.044	1	2
556.214	1	5
556.384	1	12
556.554	1	2
556.724	1	3
556.894	1	4
557.064	1	4
557.234	1	2
557.404	1	-6
557.573	1	0
557.743	1	1
557.913	1	4
558.083	1	17
558.253	1	3
558.423	1	4
558.593	1	8
558.763	1	5
558.933	1	-2
559.103	1	-5
559.273	1	12
559.443	1	16
559.613	1	4
559.783	1	4
559.953	1	-13
560.122	1	1
560.292	1	1
560.462	1	-4
560.632	1	-1
560.802	1	3
560.972	1	1
561.142	1	2
561.312	1	5
561.482	1	13
561.652	1	-4
561.822	1	8
561.992	1	2
562.162	1	6
562.331	1	-9
562.501	1	6
562.671	1	2
562.841	1	-3
563.011	1	4
563.181	1	6
563.351	1	0
563.521	1	0
563.691	1	7
563.861	1	6
564.031	1	4
564.201	1	0
564.370	1	3
564.540	1	-1
564.710	1	4
564.880	1	8
565.050	1	8
565.220	1	13
565.390	1	1
565.560	1	6
565.730	1	1
565.900	1	5
566.069	1	10
566.239	1	4
566.409	1	13
566.579	1	8
566.749	1	3
566.919	1	-9
567.089	1	-4
567.259	1	9
567.429	1	-5
567.599	1	5
567.768	1	-2
567.938	1	9
568.108	1	-2
568.278	1	6
568.448	1	3
568.618	1	9
568.788	1	6
568.958	1	9
569.128	1	-1
569.297	1	-7
569.467	1	10
569.637	1	-1
569.807	1	6
569.977	1	-3
570.147	1	6
570.317	1	6
570.487	1	-2
570.656	1	10
570.826	1	-4
570.996	1	6
571.166	1	0
571.336	1	-2
571.506	1	-1
571.676	1	9
571.846	1	9
572.015	1	8
572.185	1	1
572.355	1	0
572.525	1	-4
572.695	1	-1
572.865	1	9
573.035	1	8
573.205	1	4
573.374	1	0
573.544	1	-4
573.714	1	-6
573.884	1	4
574.054	1	6
574.224	1	-2
574.394	1	-1
574.563	1	-11
574.733	1	-3
574.903	1	7
575.073	1	3
575.243	1	9
575.413	1	-7
575.583	1	-6
575.752	1	-3
575.922	1	13
576.092	1	-1
576.262	1	3
576.432	1	4
576.602	1	-6
576.772	1	0
576.941	1	-1
577.111	1	5
577.281	1	3
577.451	1	6
577.621	1	4
577.791	1	4
577.960	1	3
578.130	1	9
578.300	1	-5
578.470	1	2
578.640	1	-4
578.810	1	-5
578.979	1	4
579.149	1	7
579.319	1	6
579.489	1	6
579.659	1	-9
579.829	1	-1
579.998	1	-5
580.168	1	6
580.338	1	8
580.508	1	5
580.678	1	9
580.848	1	-8
581.017	1	17
581.187	1	7
581.357	1	-3
581.527	1	1
581.697	1	3
581.867	1	1
582.036	1	0
582.206	1	4
582.376	1	4
582.546	1	-2
582.716	1	2
582.885	1	0
583.055	1	-7
583.225	1	0
583.395	1	3
583.565	1	12
583.735	1	7
583.904	1	-7
584.074	1	2
584.244	1	6
584.414	1	-3
584.584	1	-4
584.753	1	11
584.923	1	-9
585.093	1	2
585.263	1	7
585.433	1	3
585.602	1	10
585.772	1	17
585.942	1	-1
586.112	1	10
586.282	1	-1
586.451	1	9
586.621	1	-7
586.791	1	1
586.961	1	-2
587.131	1	-5
587.300	1	10
587.470	1	7
587.640	1	-5
587.810	1	-5
587.980	1	4
588.149	1	4
588.319	1	8
588.489	1	8
588.659	1	3
588.829	1	6
588.998	1	-2
589.168	1	9
589.338	1	-4
589.508	1	6
589.677	1	8
589.847	1	5
590.017	1	-1
590.187	1	0
590.357	1	-1
590.526	1	0
590.696	1	-1
590.866	1	-4
591.036	1	10
591.205	1	4
591.375	1	1
591.545	1	-5
591.715	1	-1
591.885	1	8
592.054	1	2
592.224	1	8
592.394	1	-7
592.564	1	-2
592.733	1	-5
592.903	1	7
593.073	1	-5
593.243	1	17
593.412	1	-1
593.582	1	-2
593.752	1	4
593.922	1	4
594.091	1	6
594.261	1	-8
594.431	1	2
594.601	1	1
594.771	1	-2
594.940	1	1
595.110	1	2
595.280	1	6
595.450	1	-5
595.619	1	3
595.789	1	-5
595.959	1	5
596.129	1	9
596.298	1	8
596.468	1	-3
596.638	1	-2
596.808	1	-11
596.977	1	-7
597.147	1	10
597.317	1	5
597.487	1	3
597.656	1	4
597.826	1	11
597.996	1	3
598.166	1	-1
598.335	1	-2
598.505	1	10
598.675	1	4
598.844	1	16
599.014	1	-8
599.184	1	2
599.354	1	14
599.523	1	10
599.693	1	5
599.863	1	5
600.033	1	7
600.202	1	2
600.372	1	7
600.542	1	3
600.712	1	-1
600.881	1	-1
601.051	1	8
601.221	1	7
601.390	1	3
601.560	1	7
601.730	1	4
601.900	1	1
602.069	1	2
602.239	1	-1
602.409	1	2
602.578	1	13
602.748	1	13
602.918	1	-4
603.088	1	0
603.257	1	-9
603.427	1	4
603.597	1	0
603.767	1	5
603.936	1	2
604.106	1	-3
604.276	1	-4
604.445	1	-10
604.615	1	3
604.785	1	2
604.954	1	7
605.124	1	4
605.294	1	-1
605.464	1	0
605.633	1	0
605.803	1	11
605.973	1	0
606.142	1	2
606.312	1	15
606.482	1	-3
606.652	1	10
606.821	1	8
606.991	1	-3
607.161	1	-3
607.330	1	0
607.500	1	6
607.670	1	13
607.839	1	2
608.009	1	-7
608.179	1	11
608.348	1	6
608.518	1	13
608.688	1	7
608.858	1	3
609.027	1	14
609.197	1	9
609.367	1	-9
609.536	1	4
609.706	1	9
609.876	1	0
610.045	1	8
610.215	1	2
610.385	1	5
610.554	1	0
610.724	1	6
610.894	1	-4
611.063	1	4
611.233	1	10
611.403	1	5
611.572	1	9
611.742	1	3
611.912	1	0
612.081	1	11
612.251	1	1
612.421	1	10
612.590	1	4
612.760	1	-2
612.930	1	7
613.099	1	0
613.269	1	6
613.439	1	-4
613.608	1	4
613.778	1	3
613.948	1	15
614.117	1	3
614.287	1	-1
614.457	1	4
614.626	1	3
614.796	1	1
614.966	1	2
615.135	1	18
615.305	1	13
615.475	1	0
615.644	1	10
615.814	1	15
615.984	1	-7
616.153	1	3
616.323	1	-3
616.493	1	2
616.662	1	-5
616.832	1	5
617.002	1	1
617.171	1	5
617.341	1	7
617.511	1	-10
617.680	1	1
617.850	1	5
618.019	1	-3
618.189	1	8
618.359	1	3
618.528	1	9
618.698	1	2
618.868	1	4
619.037	1	7
619.207	1	2
619.377	1	9
619.546	1	2
619.716	1	-3
619.885	1	7
620.055	1	-4
620.225	1	2
620.394	1	3
620.564	1	11
620.734	1	3
620.903	1	3
621.073	1	12
621.242	1	7
621.412	1	-1
621.582	1	7
621.751	1	2
621.921	1	6
622.091	1	4
622.260	1	7
622.430	1	7
622.599	1	7
622.769	1	-1
622.939	1	-7
623.108	1	9
623.278	1	7
623.448	1	4
623.617	1	0
623.787	1	5
623.956	1	5
624.126	1	10
624.296	1	5
624.465	1	16
624.635	1	6
624.804	1	-1
624.974	1	2
625.144	1	2
625.313	1	13
625.483	1	11
625.652	1	7
625.822	1	5
625.992	1	-4
626.161	1	4
626.331	1	2
626.501	1	8
626.670	1	0
626.840	1	9
627.009	1	7
627.179	1	-1
627.348	1	3
627.518	1	16
627.688	1	1
627.857	1	6
628.027	1	3
628.196	1	-1
628.366	1	-10
628.536	1	0
628.705	1	13
628.875	1	-2
629.044	1	5
629.214	1	10
629.384	1	9
629.553	1	0
629.723	1	7
629.892	1	5
630.062	1	8
630.232	1	15
630.401	1	10
630.571	1	-2
630.740	1	6
630.910	1	14
631.079	1	4
631.249	1	8
631.419	1	9
631.588	1	0
631.758	1	-4
631.927	1	16
632.097	1	8
632.266	1	12
632.436	1	4
632.606	1	6
632.775	1	0
632.945	1	3
633.114	1	-5
633.284	1	-4
633.453	1	6
633.623	1	17
633.793	1	16
633.962	1	7
634.132	1	5
634.301	1	7
634.471	1	4
634.640	1	3
634.810	1	11
634.979	1	5
635.149	1	-1
635.319	1	1
635.488	1	8
635.658	1	5
635.827	1	-2
635.997	1	4
636.166	1	5
636.336	1	-1
636.505	1	9
636.675	1	1
636.845	1	8
637.014	1	-9
637.184	1	13
637.353	1	1
637.523	1	-1
637.692	1	9
637.862	1	4
638.031	1	0
638.201	1	9
638.370	1	10
638.540	1	-3
638.710	1	1
638.879	1	4
639.049	1	10
639.218	1	5
639.388	1	8
639.557	1	5
639.727	1	10
639.896	1	10
640.066	1	3
640.235	1	7
640.405	1	1
640.574	1	9
640.744	1	6
640.914	1	6
641.083	1	11
641.253	1	14
641.422	1	-8
641.592	1	6
641.761	1	2
641.931	1	12
642.100	1	-1
642.270	1	4
642.439	1	9
642.609	1	12
642.778	1	6
642.948	1	11
643.117	1	6
643.287	1	9
643.456	1	6
643.626	1	6
643.795	1	10
643.965	1	4
644.134	1	12
644.304	1	5
644.473	1	4
644.643	1	2
644.812	1	3
644.982	1	7
645.151	1	8
645.321	1	11
645.490	1	8
645.660	1	-3
645.829	1	0
645.999	1	8
646.168	1	24
646.338	1	1
646.507	1	-3
646.677	1	12
646.846	1	12
647.016	1	12
647.185	1	8
647.355	1	13
647.524	1	1
647.694	1	-1
647.863	1	1
648.033	1	12
648.202	1	12
648.372	1	1
648.541	1	11
648.711	1	12
648.880	1	12
649.050	1	11
649.219	1	7
649.389	1	7
649.558	1	10
649.728	1	3
649.897	1	18
650.067	1	16
650.236	1	-2
650.406	1	8
650.575	1	6
650.745	1	8
650.914	1	9
651.084	1	2
651.253	1	-3
651.423	1	-6
651.592	1	6
651.762	1	-1
651.931	1	9
652.101	1	6
652.270	1	9
652.440	1	5
652.609	1	13
652.778	1	9
652.948	1	2
653.117	1	7
653.287	1	-11
653.456	1	7
653.626	1	9
653.795	1	6
653.965	1	1
654.134	1	0
654.304	1	7
654.473	1	3
654.643	1	10
654.812	1	14
654.982	1	17
655.151	1	8
655.320	1	3
655.490	1	3
655.659	1	10
655.829	1	8
655.998	1	9
656.168	1	0
656.337	1	3
656.507	1	-3
656.676	1	1
656.846	1	-1
657.015	1	14
657.184	1	8
657.354	1	6
657.523	1	5
657.693	1	14
657.862	1	-4
658.032	1	6
658.201	1	-3
658.371	1	7
658.540	1	-4
658.709	1	16
658.879	1	11
659.048	1	10
659.218	1	11
659.387	1	11
659.557	1	9
659.726	1	6
659.895	1	1
660.065	1	7
660.234	1	3
660.404	1	4
660.573	1	4
660.743	1	3
660.912	1	7
661.081	1	0
661.251	1	8
661.420	1	6
661.590	1	6
661.759	1	19
661.929	1	2
662.098	1	12
662.267	1	-1
662.437	1	12
662.606	1	5
662.776	1	5
662.945	1	9
663.115	1	14
663.284	1	11
663.453	1	8
663.623	1	1
663.792	1	11
663.962	1	15
664.131	1	-2
664.300	1	9
664.470	1	3
664.639	1	12
664.809	1	8
664.978	1	13
665.148	1	16
665.317	1	16
665.486	1	10
665.656	1	4
665.825	1	16
665.995	1	-1
666.164	1	-2
666.333	1	0
666.503	1	4
666.672	1	10
666.842	1	7
667.011	1	13
667.180	1	9
667.350	1	3
667.519	1	9
667.689	1	7
667.858	1	11
668.027	1	1
668.197	1	-3
668.366	1	12
668.536	1	11
668.705	1	0
668.874	1	16
669.044	1	9
669.213	1	7
669.382	1	12
669.552	1	4
669.721	1	1
669.891	1	3
670.060	1	7
670.229	1	9
670.399	1	7
670.568	1	9
670.738	1	2
670.907	1	4
671.076	1	7
671.246	1	21
671.415	1	14
671.584	1	10
671.754	1	-2
671.923	1	6
672.093	1	8
672.262	1	5
672.431	1	12
672.601	1	12
672.770	1	-1
672.939	1	22
673.109	1	0
673.278	1	5
673.448	1	2
673.617	1	3
673.786	1	0
