325.333	1	3
325.504	1	-10
325.675	1	10
325.846	1	0
326.017	1	3
326.188	1	9
326.359	1	14
326.531	1	2
326.702	1	-1
326.873	1	14
327.044	1	4
327.215	1	2
327.386	1	-1
327.557	1	-7
327.728	1	-6
327.899	1	1
328.070	1	7
328.241	1	0
328.412	1	3
328.583	1	-8
328.754	1	7
328.926	1	8
329.097	1	1
329.268	1	13
329.439	1	6
329.610	1	-3
329.781	1	10
329.952	1	11
330.123	1	-4
330.294	1	9
330.465	1	-10
330.636	1	6
330.807	1	10
330.978	1	5
331.149	1	5
331.320	1	1
331.492	1	10
331.663	1	-4
331.834	1	9
332.005	1	4
332.176	1	8
332.347	1	0
332.518	1	15
332.689	1	8
332.860	1	5
333.031	1	10
333.202	1	3
333.373	1	7
333.544	1	6
333.715	1	5
333.886	1	-2
334.057	1	-1
334.228	1	9
334.399	1	18
334.570	1	10
334.741	1	-7
334.912	1	3
335.084	1	14
335.255	1	12
335.426	1	9
335.597	1	-4
335.768	1	9
335.939	1	5
336.110	1	4
336.281	1	5
336.452	1	18
336.623	1	-7
336.794	1	1
336.965	1	5
337.136	1	7
337.307	1	6
337.478	1	7
337.649	1	6
337.820	1	4
337.991	1	12
338.162	1	1
338.333	1	12
338.504	1	8
338.675	1	9
338.846	1	-11
339.017	1	6
339.188	1	9
339.359	1	10
339.530	1	3
339.701	1	5
339.872	1	9
340.043	1	9
340.214	1	8
340.385	1	0
340.556	1	11
340.727	1	10
340.898	1	14
341.069	1	1
341.240	1	3
341.411	1	8
341.582	1	-4
341.753	1	2
341.924	1	16
342.095	1	5
342.266	1	19
342.437	1	6
342.608	1	6
342.779	1	5
342.950	1	2
343.121	1	1
343.292	1	13
343.463	1	18
343.634	1	9
343.805	1	6
343.976	1	13
344.147	1	7
344.318	1	0
344.489	1	4
344.660	1	11
344.831	1	15
345.002	1	12
345.173	1	15
345.344	1	-3
345.515	1	2
345.686	1	10
345.857	1	11
346.028	1	14
346.199	1	5
346.370	1	2
346.541	1	2
346.712	1	14
346.883	1	-1
347.054	1	10
347.225	1	2
347.396	1	5
347.567	1	-4
347.738	1	6
347.909	1	10
348.080	1	13
348.251	1	11
348.422	1	14
348.593	1	5
348.764	1	4
348.935	1	11
349.106	1	-1
349.277	1	7
349.448	1	10
349.619	1	10
349.790	1	19
349.961	1	11
350.132	1	17
350.303	1	11
350.474	1	13
350.645	1	13
350.816	1	15
350.987	1	14
351.157	1	4
351.328	1	-6
351.499	1	11
351.670	1	11
351.841	1	6
352.012	1	9
352.183	1	12
352.354	1	9
352.525	1	21
352.696	1	6
352.867	1	17
353.038	1	4
353.209	1	7
353.380	1	12
353.551	1	6
353.722	1	10
353.893	1	12
354.064	1	15
354.235	1	12
354.406	1	11
354.576	1	1
354.747	1	8
354.918	1	5
355.089	1	16
355.260	1	5
355.431	1	7
355.602	1	10
355.773	1	3
355.944	1	12
356.115	1	17
356.286	1	20
356.457	1	11
356.628	1	10
356.799	1	18
356.970	1	15
357.141	1	9
357.311	1	23
357.482	1	-2
357.653	1	5
357.824	1	10
357.995	1	11
358.166	1	8
358.337	1	10
358.508	1	10
358.679	1	7
358.850	1	16
359.021	1	11
359.192	1	12
359.363	1	6
359.533	1	5
359.704	1	1
359.875	1	8
360.046	1	14
360.217	1	10
360.388	1	20
360.559	1	25
360.730	1	13
360.901	1	12
361.072	1	12
361.243	1	11
361.414	1	24
361.584	1	1
361.755	1	15
361.926	1	14
362.097	1	8
362.268	1	18
362.439	1	7
362.610	1	18
362.781	1	11
362.952	1	21
363.123	1	12
363.293	1	19
363.464	1	11
363.635	1	18
363.806	1	5
363.977	1	14
364.148	1	16
364.319	1	8
364.490	1	14
364.661	1	13
364.832	1	15
365.002	1	18
365.173	1	9
365.344	1	6
365.515	1	17
365.686	1	9
365.857	1	21
366.028	1	17
366.199	1	18
366.370	1	4
366.540	1	9
366.711	1	10
366.882	1	16
367.053	1	18
367.224	1	19
367.395	1	13
367.566	1	19
367.737	1	12
367.908	1	22
368.078	1	2
368.249	1	16
368.420	1	14
368.591	1	3
368.762	1	19
368.933	1	8
369.104	1	22
369.274	1	18
369.445	1	13
369.616	1	16
369.787	1	14
369.958	1	9
370.129	1	12
370.300	1	11
370.471	1	5
370.641	1	12
370.812	1	16
370.983	1	10
371.154	1	15
371.325	1	6
371.496	1	9
371.667	1	23
371.837	1	16
372.008	1	9
372.179	1	4
372.350	1	21
372.521	1	13
372.692	1	18
372.863	1	13
373.033	1	15
373.204	1	4
373.375	1	5
373.546	1	17
373.717	1	3
373.888	1	15
374.059	1	11
374.229	1	21
374.400	1	16
374.571	1	11
374.742	1	13
374.913	1	5
375.084	1	5
375.254	1	3
375.425	1	9
375.596	1	8
375.767	1	17
375.938	1	12
376.109	1	8
376.279	1	19
376.450	1	25
376.621	1	28
376.792	1	23
376.963	1	-2
377.134	1	16
377.304	1	14
377.475	1	7
377.646	1	6
377.817	1	30
377.988	1	21
378.159	1	19
378.329	1	16
378.500	1	12
378.671	1	9
378.842	1	11
379.013	1	10
379.184	1	19
379.354	1	22
379.525	1	18
379.696	1	25
379.867	1	21
380.038	1	13
380.209	1	10
380.379	1	16
380.550	1	-3
380.721	1	8
380.892	1	7
381.063	1	14
381.233	1	21
381.404	1	22
381.575	1	16
381.746	1	23
381.917	1	20
382.087	1	16
382.258	1	13
382.429	1	19
382.600	1	15
382.771	1	16
382.941	1	25
383.112	1	17
383.283	1	20
383.454	1	7
383.625	1	9
383.795	1	21
383.966	1	19
384.137	1	23
384.308	1	12
384.479	1	10
384.649	1	7
384.820	1	8
384.991	1	17
385.162	1	16
385.333	1	19
385.503	1	18
385.674	1	8
385.845	1	18
386.016	1	16
386.187	1	10
386.357	1	28
386.528	1	16
386.699	1	12
386.870	1	13
387.041	1	21
387.211	1	14
387.382	1	31
387.553	1	23
387.724	1	21
387.894	1	17
388.065	1	20
388.236	1	21
388.407	1	16
388.578	1	11
388.748	1	27
388.919	1	21
389.090	1	23
389.261	1	30
389.431	1	3
389.602	1	19
389.773	1	27
389.944	1	6
390.114	1	16
390.285	1	36
390.456	1	17
390.627	1	7
390.798	1	20
390.968	1	15
391.139	1	24
391.310	1	11
391.481	1	22
391.651	1	21
391.822	1	32
391.993	1	20
392.164	1	25
392.334	1	26
392.505	1	14
392.676	1	12
392.847	1	18
393.017	1	22
393.188	1	11
393.359	1	22
393.530	1	43
393.700	1	19
393.871	1	25
394.042	1	20
394.213	1	8
394.383	1	18
394.554	1	19
394.725	1	9
394.896	1	25
395.066	1	27
395.237	1	25
395.408	1	25
395.579	1	24
395.749	1	31
395.920	1	35
396.091	1	25
396.262	1	10
396.432	1	22
396.603	1	20
396.774	1	14
396.945	1	21
397.115	1	24
397.286	1	27
397.457	1	13
397.627	1	21
397.798	1	32
397.969	1	14
398.140	1	16
398.310	1	25
398.481	1	11
398.652	1	21
398.823	1	17
398.993	1	29
399.164	1	31
399.335	1	15
399.505	1	24
399.676	1	17
399.847	1	13
400.018	1	27
400.188	1	25
400.359	1	26
400.530	1	24
400.700	1	16
400.871	1	20
401.042	1	30
401.213	1	18
401.383	1	27
401.554	1	25
401.725	1	24
401.895	1	11
402.066	1	26
402.237	1	20
402.408	1	22
402.578	1	22
402.749	1	20
402.920	1	22
403.090	1	21
403.261	1	21
403.432	1	20
403.603	1	17
403.773	1	36
403.944	1	21
404.115	1	21
404.285	1	30
404.456	1	25
404.627	1	16
404.797	1	23
404.968	1	20
405.139	1	27
405.310	1	16
405.480	1	20
405.651	1	21
405.822	1	21
405.992	1	30
406.163	1	25
406.334	1	34
406.504	1	31
406.675	1	16
406.846	1	22
407.016	1	32
407.187	1	19
407.358	1	15
407.528	1	31
407.699	1	32
407.870	1	17
408.041	1	20
408.211	1	39
408.382	1	24
408.553	1	36
408.723	1	23
408.894	1	18
409.065	1	23
409.235	1	21
409.406	1	20
409.577	1	13
409.747	1	26
409.918	1	41
410.089	1	32
410.259	1	29
410.430	1	33
410.601	1	38
410.771	1	26
410.942	1	38
411.113	1	28
411.283	1	22
411.454	1	32
411.625	1	35
411.795	1	23
411.966	1	11
412.137	1	40
412.307	1	26
412.478	1	17
412.649	1	21
412.819	1	38
412.990	1	27
413.161	1	30
413.331	1	19
413.502	1	3
413.672	1	21
413.843	1	14
414.014	1	21
414.184	1	39
414.355	1	23
414.526	1	29
414.696	1	31
414.867	1	3
415.038	1	30
415.208	1	21
415.379	1	23
415.550	1	31
415.720	1	18
415.891	1	29
416.062	1	25
416.232	1	33
416.403	1	31
416.573	1	19
416.744	1	34
416.915	1	25
417.085	1	20
417.256	1	20
417.427	1	27
417.597	1	11
417.768	1	22
417.939	1	13
418.109	1	17
418.280	1	21
418.450	1	29
418.621	1	26
418.792	1	14
418.962	1	28
419.133	1	20
419.304	1	15
419.474	1	28
419.645	1	13
419.815	1	25
419.986	1	37
420.157	1	16
420.327	1	24
420.498	1	20
420.669	1	29
420.839	1	29
421.010	1	27
421.180	1	18
421.351	1	29
421.522	1	32
421.692	1	18
421.863	1	34
422.033	1	28
422.204	1	28
422.375	1	32
422.545	1	40
422.716	1	20
422.886	1	36
423.057	1	25
423.228	1	27
423.398	1	25
423.569	1	33
423.740	1	27
423.910	1	21
424.081	1	33
424.251	1	27
424.422	1	17
424.593	1	26
424.763	1	32
424.934	1	19
425.104	1	32
425.275	1	21
425.445	1	29
425.616	1	17
425.787	1	24
425.957	1	16
426.128	1	20
426.298	1	36
426.469	1	14
426.640	1	23
426.810	1	9
426.981	1	25
427.151	1	18
427.322	1	21
427.493	1	21
427.663	1	19
427.834	1	15
428.004	1	28
428.175	1	25
428.345	1	17
428.516	1	22
428.687	1	23
428.857	1	29
429.028	1	14
429.198	1	14
429.369	1	25
429.540	1	27
429.710	1	31
429.881	1	30
430.051	1	29
430.222	1	23
430.392	1	29
430.563	1	11
430.734	1	15
430.904	1	21
431.075	1	22
431.245	1	25
431.416	1	25
431.586	1	9
431.757	1	30
431.927	1	34
432.098	1	18
432.269	1	17
432.439	1	20
432.610	1	25
432.780	1	23
432.951	1	19
433.121	1	8
433.292	1	26
433.462	1	29
433.633	1	10
433.804	1	25
433.974	1	21
434.145	1	16
434.315	1	20
434.486	1	12
434.656	1	24
434.827	1	28
434.997	1	16
435.168	1	22
435.339	1	41
435.509	1	21
435.680	1	39
435.850	1	17
436.021	1	9
436.191	1	20
436.362	1	22
436.532	1	7
436.703	1	40
436.873	1	7
437.044	1	23
437.214	1	20
437.385	1	18
437.556	1	29
437.726	1	20
437.897	1	19
438.067	1	27
438.238	1	24
438.408	1	19
438.579	1	20
438.749	1	9
438.920	1	26
439.090	1	17
439.261	1	20
439.431	1	9
439.602	1	36
439.772	1	22
439.943	1	11
440.113	1	22
440.284	1	14
440.455	1	11
440.625	1	29
440.796	1	15
440.966	1	19
441.137	1	16
441.307	1	25
441.478	1	14
441.648	1	21
441.819	1	18
441.989	1	24
442.160	1	23
442.330	1	18
442.501	1	16
442.671	1	9
442.842	1	20
443.012	1	16
443.183	1	18
443.353	1	16
443.524	1	16
443.694	1	21
443.865	1	20
444.035	1	12
444.206	1	12
444.376	1	23
444.547	1	18
444.717	1	24
444.888	1	8
445.058	1	14
445.229	1	23
445.399	1	14
445.570	1	18
445.740	1	19
445.911	1	25
446.081	1	16
446.252	1	16
446.422	1	17
446.593	1	26
446.763	1	9
446.934	1	13
447.104	1	17
447.275	1	13
447.445	1	8
447.616	1	11
447.786	1	17
447.957	1	17
448.127	1	16
448.298	1	19
448.468	1	17
448.639	1	12
448.809	1	11
448.979	1	26
449.150	1	9
449.320	1	16
449.491	1	-2
449.661	1	16
449.832	1	4
450.002	1	13
450.173	1	13
450.343	1	11
450.514	1	27
450.684	1	18
450.855	1	11
451.025	1	19
451.196	1	11
451.366	1	24
451.537	1	29
451.707	1	24
451.878	1	9
452.048	1	9
452.218	1	8
452.389	1	28
452.559	1	31
452.730	1	14
452.900	1	19
453.071	1	22
453.241	1	19
453.412	1	21
453.582	1	20
453.753	1	17
453.923	1	19
454.093	1	4
454.264	1	23
454.434	1	25
454.605	1	12
454.775	1	10
454.946	1	12
455.116	1	18
455.287	1	13
455.457	1	20
455.628	1	3
455.798	1	20
455.968	1	11
456.139	1	25
456.309	1	19
456.480	1	12
456.650	1	9
456.821	1	16
456.991	1	13
457.161	1	18
457.332	1	11
457.502	1	14
457.673	1	10
457.843	1	12
458.014	1	15
458.184	1	14
458.355	1	20
458.525	1	9
458.695	1	5
458.866	1	5
459.036	1	7
459.207	1	17
459.377	1	16
459.548	1	15
459.718	1	4
459.888	1	4
460.059	1	11
460.229	1	11
460.400	1	15
460.570	1	5
460.740	1	14
460.911	1	11
461.081	1	15
461.252	1	14
461.422	1	16
461.593	1	9
461.763	1	24
461.933	1	10
462.104	1	12
462.274	1	9
462.445	1	7
462.615	1	13
462.785	1	14
462.956	1	6
463.126	1	21
463.297	1	14
463.467	1	22
463.638	1	22
463.808	1	17
463.978	1	3
464.149	1	7
464.319	1	19
464.490	1	10
464.660	1	15
464.830	1	16
465.001	1	11
465.171	1	12
465.342	1	9
465.512	1	13
465.682	1	4
465.853	1	16
466.023	1	16
466.194	1	23
466.364	1	18
466.534	1	-1
466.705	1	19
466.875	1	1
467.045	1	8
467.216	1	10
467.386	1	1
467.557	1	21
467.727	1	8
467.897	1	11
468.068	1	10
468.238	1	13
468.409	1	15
468.579	1	10
468.749	1	15
468.920	1	-5
469.090	1	16
469.260	1	9
469.431	1	6
469.601	1	15
469.772	1	21
469.942	1	19
470.112	1	9
470.283	1	18
470.453	1	12
470.623	1	14
470.794	1	4
470.964	1	1
471.135	1	13
471.305	1	13
471.475	1	6
471.646	1	9
471.816	1	16
471.986	1	4
472.157	1	8
472.327	1	16
472.497	1	1
472.668	1	21
472.838	1	10
473.009	1	18
473.179	1	13
473.349	1	4
473.520	1	23
473.690	1	15
473.860	1	2
474.031	1	-2
474.201	1	19
474.371	1	17
474.542	1	9
474.712	1	-1
474.882	1	17
475.053	1	16
475.223	1	10
475.394	1	4
475.564	1	11
475.734	1	1
475.905	1	17
476.075	1	26
476.245	1	9
476.416	1	18
476.586	1	9
476.756	1	17
476.927	1	9
477.097	1	10
477.267	1	-4
477.438	1	20
477.608	1	24
477.778	1	13
477.949	1	6
478.119	1	16
478.289	1	6
478.460	1	9
478.630	1	8
478.800	1	6
478.971	1	13
479.141	1	7
479.311	1	10
479.482	1	6
479.652	1	10
479.822	1	-1
479.993	1	14
480.163	1	16
480.333	1	7
480.504	1	19
480.674	1	8
480.844	1	5
481.015	1	13
481.185	1	16
481.355	1	11
481.525	1	4
481.696	1	10
481.866	1	10
482.036	1	13
482.207	1	18
482.377	1	8
482.547	1	13
482.718	1	13
482.888	1	9
483.058	1	13
483.229	1	11
483.399	1	10
483.569	1	9
483.740	1	2
483.910	1	-5
484.080	1	7
484.250	1	4
484.421	1	2
484.591	1	4
484.761	1	4
484.932	1	4
485.102	1	15
485.272	1	6
485.443	1	12
485.613	1	3
485.783	1	9
485.953	1	5
486.124	1	14
486.294	1	22
486.464	1	17
486.635	1	2
486.805	1	11
486.975	1	3
487.146	1	9
487.316	1	11
487.486	1	18
487.656	1	9
487.827	1	0
487.997	1	8
488.167	1	8
488.338	1	3
488.508	1	14
488.678	1	2
488.848	1	12
489.019	1	11
489.189	1	15
489.359	1	9
489.529	1	10
489.700	1	13
489.870	1	16
490.040	1	7
490.211	1	-3
490.381	1	-2
490.551	1	8
490.721	1	10
490.892	1	-2
491.062	1	1
491.232	1	11
491.402	1	13
491.573	1	9
491.743	1	6
491.913	1	17
492.084	1	16
492.254	1	2
492.424	1	7
492.594	1	-6
492.765	1	24
492.935	1	20
493.105	1	4
493.275	1	5
493.446	1	4
493.616	1	4
493.786	1	12
493.956	1	8
494.127	1	-3
494.297	1	-3
494.467	1	4
494.637	1	8
494.808	1	15
494.978	1	4
495.148	1	8
495.318	1	4
495.489	1	4
495.659	1	3
495.829	1	-7
495.999	1	11
496.170	1	5
496.340	1	9
496.510	1	2
496.680	1	7
496.851	1	18
497.021	1	9
497.191	1	16
497.361	1	-5
497.532	1	8
497.702	1	9
497.872	1	1
498.042	1	5
498.213	1	6
498.383	1	11
498.553	1	15
498.723	1	5
498.894	1	3
499.064	1	6
499.234	1	8
499.404	1	8
499.574	1	3
499.745	1	4
499.915	1	10
500.085	1	-1
500.255	1	-4
500.426	1	10
500.596	1	-9
500.766	1	-1
500.936	1	10
501.106	1	3
501.277	1	-3
501.447	1	8
501.617	1	3
501.787	1	1
501.958	1	12
502.128	1	0
502.298	1	10
502.468	1	9
502.638	1	12
502.809	1	4
502.979	1	12
503.149	1	7
503.319	1	17
503.489	1	-7
503.660	1	4
503.830	1	16
504.000	1	2
504.170	1	-1
504.340	1	-1
504.511	1	10
504.681	1	10
504.851	1	-2
505.021	1	2
505.192	1	5
505.362	1	7
505.532	1	5
505.702	1	15
505.872	1	-1
506.043	1	10
506.213	1	6
506.383	1	6
506.553	1	3
506.723	1	-5
506.893	1	12
507.064	1	4
507.234	1	5
507.404	1	8
507.574	1	4
507.744	1	4
507.915	1	4
508.085	1	7
508.255	1	4
508.425	1	4
508.595	1	2
508.766	1	-4
508.936	1	7
509.106	1	9
509.276	1	10
509.446	1	-7
509.616	1	2
509.787	1	2
509.957	1	10
510.127	1	-5
510.297	1	-6
510.467	1	5
510.638	1	9
510.808	1	13
510.978	1	-4
511.148	1	6
511.318	1	3
511.488	1	12
511.659	1	11
511.829	1	8
511.999	1	3
512.169	1	10
512.339	1	10
512.509	1	-8
512.680	1	-9
512.850	1	7
513.020	1	16
513.190	1	-5
513.360	1	7
513.530	1	9
513.700	1	-3
513.871	1	-1
514.041	1	7
514.211	1	15
514.381	1	14
514.551	1	-1
514.721	1	12
514.892	1	4
515.062	1	3
515.232	1	0
515.402	1	2
515.572	1	13
515.742	1	5
515.912	1	-2
516.083	1	9
516.253	1	4
516.423	1	-2
516.593	1	4
516.763	1	7
516.933	1	6
517.104	1	6
517.274	1	-4
517.444	1	8
517.614	1	-4
517.784	1	3
517.954	1	10
518.124	1	5
518.294	1	7
518.465	1	0
518.635	1	11
518.805	1	4
518.975	1	10
519.145	1	5
519.315	1	5
519.485	1	-5
519.656	1	-1
519.826	1	-12
519.996	1	-6
520.166	1	-3
520.336	1	5
520.506	1	2
520.676	1	2
520.846	1	-2
521.017	1	4
521.187	1	3
521.357	1	3
521.527	1	0
521.697	1	-4
521.867	1	5
522.037	1	5
522.207	1	15
522.377	1	11
522.548	1	-12
522.718	1	11
522.888	1	6
523.058	1	3
523.228	1	-1
523.398	1	-6
523.568	1	-1
523.738	1	-1
523.909	1	4
524.079	1	-2
524.249	1	0
524.419	1	3
524.589	1	2
524.759	1	10
524.929	1	3
525.099	1	2
525.269	1	5
525.439	1	-1
525.610	1	14
525.780	1	-2
525.950	1	0
526.120	1	-3
526.290	1	-5
526.460	1	-6
526.630	1	2
526.800	1	-3
526.970	1	12
527.140	1	8
527.311	1	1
527.481	1	3
527.651	1	10
527.821	1	-2
527.991	1	0
528.161	1	11
528.331	1	-7
528.501	1	6
528.671	1	10
528.841	1	10
529.011	1	-7
529.181	1	9
529.352	1	-6
529.522	1	-2
529.692	1	16
529.862	1	-2
530.032	1	-5
530.202	1	-5
530.372	1	2
530.542	1	-6
530.712	1	6
530.882	1	9
531.052	1	7
531.222	1	7
531.392	1	-11
531.563	1	13
531.733	1	5
531.903	1	-11
532.073	1	3
532.243	1	5
532.413	1	11
532.583	1	-2
532.753	1	-9
532.923	1	2
533.093	1	2
533.263	1	8
533.433	1	-6
533.603	1	8
533.773	1	5
533.943	1	8
534.113	1	6
534.284	1	2
534.454	1	0
534.624	1	-6
534.794	1	4
534.964	1	-1
535.134	1	5
535.304	1	5
535.474	1	2
535.644	1	4
535.814	1	-5
535.984	1	6
536.154	1	-4
536.324	1	3
536.494	1	9
536.664	1	7
536.834	1	-5
537.004	1	7
537.174	1	7
537.344	1	9
537.514	1	6
537.685	1	10
537.855	1	-2
538.025	1	9
538.195	1	8
538.365	1	5
538.535	1	-4
538.705	1	9
538.875	1	6
539.045	1	1
539.215	1	-12
539.385	1	9
539.555	1	-6
539.725	1	7
539.895	1	5
540.065	1	3
540.235	1	3
540.405	1	7
540.575	1	6
540.745	1	4
540.915	1	-5
541.085	1	-9
541.255	1	4
541.425	1	-7
541.595	1	-4
541.765	1	4
541.935	1	6
542.105	1	3
542.275	1	7
542.445	1	3
542.615	1	5
542.785	1	-3
542.955	1	12
543.125	1	-3
543.295	1	4
543.465	1	11
543.635	1	-1
543.805	1	2
543.975	1	2
544.145	1	0
544.315	1	5
544.485	1	-1
544.655	1	5
544.825	1	-2
544.995	1	-2
545.165	1	-2
545.335	1	6
545.505	1	-10
545.675	1	12
545.845	1	13
546.015	1	-6
546.185	1	-10
546.355	1	5
546.525	1	5
546.695	1	0
546.865	1	6
547.035	1	-1
547.205	1	16
547.375	1	11
547.545	1	14
547.715	1	8
547.885	1	-2
548.055	1	-6
548.225	1	7
548.395	1	1
548.565	1	1
548.735	1	-6
548.905	1	5
549.075	1	0
549.245	1	10
549.415	1	0
549.585	1	0
549.755	1	-3
549.925	1	5
550.095	1	2
550.265	1	5
550.435	1	2
550.605	1	-9
550.775	1	-2
550.945	1	9
551.115	1	12
551.285	1	0
551.455	1	0
551.625	1	2
551.795	1	2
551.965	1	-4
552.135	1	-3
552.305	1	11
552.475	1	5
552.645	1	1
552.815	1	-3
552.985	1	0
553.155	1	-1
553.325	1	-8
553.495	1	9
553.665	1	3
553.835	1	4
554.004	1	1
554.174	1	-3
554.344	1	3
554.514	1	-1
554.684	1	11
554.854	1	-9
555.024	1	9
555.194	1	-9
555.364	1	-5
555.534	1	-5
555.704	1	4
555.874	1	8
556.044	1	-1
556.214	1	-5
556.384	1	14
556.554	1	1
556.724	1	-2
556.894	1	-5
557.064	1	-2
557.234	1	4
557.404	1	0
557.573	1	1
557.743	1	-11
557.913	1	2
558.083	1	-3
558.253	1	0
558.423	1	-5
558.593	1	11
558.763	1	-4
558.933	1	-4
559.103	1	2
559.273	1	6
559.443	1	3
559.613	1	6
559.783	1	4
559.953	1	-4
560.122	1	4
560.292	1	-12
560.462	1	-9
560.632	1	-5
560.802	1	1
560.972	1	-9
561.142	1	3
561.312	1	-11
561.482	1	5
561.652	1	2
561.822	1	6
561.992	1	5
562.162	1	3
562.331	1	-5
562.501	1	4
562.671	1	1
562.841	1	-4
563.011	1	-2
563.181	1	0
563.351	1	0
563.521	1	0
563.691	1	0
563.861	1	-2
564.031	1	3
564.201	1	7
564.370	1	4
564.540	1	-1
564.710	1	-8
564.880	1	0
565.050	1	6
565.220	1	8
565.390	1	5
565.560	1	5
565.730	1	8
565.900	1	4
566.069	1	17
566.239	1	14
566.409	1	5
566.579	1	2
566.749	1	-2
566.919	1	-9
567.089	1	-7
567.259	1	4
567.429	1	-3
567.599	1	13
567.768	1	-3
567.938	1	1
568.108	1	4
568.278	1	4
568.448	1	4
568.618	1	0
568.788	1	0
568.958	1	8
569.128	1	-2
569.297	1	-3
569.467	1	8
569.637	1	8
569.807	1	7
569.977	1	-6
570.147	1	-3
570.317	1	-4
570.487	1	-7
570.656	1	3
570.826	1	-4
570.996	1	12
571.166	1	-4
571.336	1	-1
571.506	1	-7
571.676	1	7
571.846	1	9
572.015	1	2
572.185	1	3
572.355	1	-1
572.525	1	-4
572.695	1	-1
572.865	1	1
573.035	1	5
573.205	1	-8
573.374	1	-10
573.544	1	-2
573.714	1	-5
573.884	1	-2
574.054	1	-2
574.224	1	3
574.394	1	-3
574.563	1	-5
574.733	1	6
574.903	1	1
575.073	1	4
575.243	1	2
575.413	1	-4
575.583	1	2
575.752	1	4
575.922	1	4
576.092	1	-7
576.262	1	2
576.432	1	0
576.602	1	-6
576.772	1	-6
576.941	1	-5
577.111	1	5
577.281	1	-8
577.451	1	10
577.621	1	-2
577.791	1	1
577.960	1	2
578.130	1	-4
578.300	1	-3
578.470	1	2
578.640	1	7
578.810	1	-7
578.979	1	4
579.149	1	-3
579.319	1	1
579.489	1	10
579.659	1	-9
579.829	1	-4
579.998	1	-12
580.168	1	2
580.338	1	2
580.508	1	1
580.678	1	1
580.848	1	7
581.017	1	-3
581.187	1	-4
581.357	1	-4
581.527	1	-4
581.697	1	2
581.867	1	-7
582.036	1	-5
582.206	1	6
582.376	1	10
582.546	1	3
582.716	1	3
582.885	1	1
583.055	1	-5
583.225	1	2
583.395	1	-2
583.565	1	16
583.735	1	2
583.904	1	1
584.074	1	2
584.244	1	7
584.414	1	-4
584.584	1	5
584.753	1	-1
584.923	1	0
585.093	1	3
585.263	1	3
585.433	1	5
585.602	1	-1
585.772	1	12
585.942	1	5
586.112	1	5
586.282	1	10
586.451	1	6
586.621	1	-13
586.791	1	-6
586.961	1	3
587.131	1	-11
587.300	1	4
587.470	1	-8
587.640	1	-4
587.810	1	-16
587.980	1	0
588.149	1	8
588.319	1	10
588.489	1	4
588.659	1	1
588.829	1	-3
588.998	1	4
589.168	1	0
589.338	1	2
589.508	1	2
589.677	1	1
589.847	1	0
590.017	1	-7
590.187	1	1
590.357	1	3
590.526	1	-1
590.696	1	0
590.866	1	-8
591.036	1	-5
591.205	1	0
591.375	1	2
591.545	1	-15
591.715	1	13
591.885	1	12
592.054	1	7
592.224	1	-7
592.394	1	-6
592.564	1	6
592.733	1	-1
592.903	1	-1
593.073	1	-8
593.243	1	7
593.412	1	6
593.582	1	1
593.752	1	-2
593.922	1	-2
594.091	1	7
594.261	1	-7
594.431	1	7
594.601	1	-5
594.771	1	0
594.940	1	-6
595.110	1	2
595.280	1	4
595.450	1	11
595.619	1	4
595.789	1	0
595.959	1	-1
596.129	1	-6
596.298	1	0
596.468	1	-2
596.638	1	0
596.808	1	-3
596.977	1	-3
597.147	1	-1
597.317	1	-5
597.487	1	-5
597.656	1	1
597.826	1	17
597.996	1	2
598.166	1	1
598.335	1	-3
598.505	1	3
598.675	1	3
598.844	1	12
599.014	1	-8
599.184	1	1
599.354	1	4
599.523	1	-5
599.693	1	8
599.863	1	5
600.033	1	-1
600.202	1	4
600.372	1	-5
600.542	1	2
600.712	1	-1
600.881	1	-1
601.051	1	6
601.221	1	1
601.390	1	0
601.560	1	14
601.730	1	-3
601.900	1	-3
602.069	1	4
602.239	1	8
602.409	1	9
602.578	1	9
602.748	1	7
602.918	1	-11
603.088	1	3
603.257	1	-12
603.427	1	-3
603.597	1	7
603.767	1	3
603.936	1	4
604.106	1	1
604.276	1	10
604.445	1	-6
604.615	1	-2
604.785	1	-2
604.954	1	0
605.124	1	-3
605.294	1	1
605.464	1	0
605.633	1	8
605.803	1	6
605.973	1	-1
606.142	1	4
606.312	1	11
606.482	1	-7
606.652	1	5
606.821	1	1
606.991	1	8
607.161	1	6
607.330	1	-8
607.500	1	0
607.670	1	-6
607.839	1	-3
608.009	1	-2
608.179	1	7
608.348	1	-7
608.518	1	7
608.688	1	-1
608.858	1	-9
609.027	1	10
609.197	1	-2
609.367	1	-7
609.536	1	-6
609.706	1	3
609.876	1	6
610.045	1	4
610.215	1	5
610.385	1	-2
610.554	1	2
610.724	1	-4
610.894	1	2
611.063	1	-4
611.233	1	1
611.403	1	-2
611.572	1	7
611.742	1	-2
611.912	1	-1
612.081	1	14
612.251	1	0
612.421	1	-11
612.590	1	9
612.760	1	1
612.930	1	-4
613.099	1	3
613.269	1	-1
613.439	1	-3
613.608	1	0
613.778	1	0
613.948	1	14
614.117	1	-8
614.287	1	-2
614.457	1	1
614.626	1	-5
614.796	1	4
614.966	1	-1
615.135	1	9
615.305	1	-10
615.475	1	-1
615.644	1	6
615.814	1	4
615.984	1	-5
616.153	1	1
616.323	1	4
616.493	1	2
616.662	1	-1
616.832	1	4
617.002	1	6
617.171	1	9
617.341	1	5
617.511	1	-6
617.680	1	-1
617.850	1	2
618.019	1	-2
618.189	1	11
618.359	1	-4
618.528	1	-2
618.698	1	9
618.868	1	-2
619.037	1	-3
619.207	1	-9
619.377	1	-2
619.546	1	9
619.716	1	3
619.885	1	5
620.055	1	-12
620.225	1	6
620.394	1	-4
620.564	1	8
620.734	1	1
620.903	1	-7
621.073	1	11
621.242	1	-1
621.412	1	0
621.582	1	13
621.751	1	-2
621.921	1	-1
622.091	1	1
622.260	1	2
622.430	1	1
622.599	1	-4
622.769	1	2
622.939	1	0
623.108	1	-2
623.278	1	4
623.448	1	2
623.617	1	-1
623.787	1	-3
623.956	1	-4
624.126	1	8
624.296	1	8
624.465	1	13
624.635	1	1
624.804	1	-4
624.974	1	-1
625.144	1	4
625.313	1	6
625.483	1	1
625.652	1	-11
625.822	1	0
625.992	1	1
626.161	1	3
626.331	1	0
626.501	1	-1
626.670	1	-1
626.840	1	7
627.009	1	-5
627.179	1	8
627.348	1	-3
627.518	1	12
627.688	1	-5
627.857	1	5
628.027	1	6
628.196	1	3
628.366	1	-14
628.536	1	-5
628.705	1	-4
628.875	1	-3
629.044	1	-1
629.214	1	11
629.384	1	10
629.553	1	-4
629.723	1	7
629.892	1	6
630.062	1	2
630.232	1	12
630.401	1	0
630.571	1	3
630.740	1	-6
630.910	1	11
631.079	1	4
631.249	1	-1
631.419	1	9
631.588	1	2
631.758	1	0
631.927	1	5
632.097	1	0
632.266	1	5
632.436	1	4
632.606	1	7
632.775	1	-2
632.945	1	-1
633.114	1	-6
633.284	1	-8
633.453	1	4
633.623	1	4
633.793	1	6
633.962	1	7
634.132	1	2
634.301	1	10
634.471	1	6
634.640	1	-5
634.810	1	-3
634.979	1	6
635.149	1	-1
635.319	1	-4
635.488	1	-3
635.658	1	-2
635.827	1	-1
635.997	1	9
636.166	1	6
636.336	1	-4
636.505	1	6
636.675	1	-1
636.845	1	0
637.014	1	-14
637.184	1	8
637.353	1	-9
637.523	1	2
637.692	1	6
637.862	1	-2
638.031	1	-1
638.201	1	6
638.370	1	2
638.540	1	-4
638.710	1	-7
638.879	1	1
639.049	1	-3
639.218	1	8
639.388	1	3
639.557	1	7
639.727	1	8
639.896	1	-2
640.066	1	4
640.235	1	1
640.405	1	1
640.574	1	2
640.744	1	-7
640.914	1	7
641.083	1	4
641.253	1	-5
641.422	1	2
641.592	1	10
641.761	1	-1
641.931	1	9
642.100	1	4
642.270	1	-2
642.439	1	7
642.609	1	2
642.778	1	5
642.948	1	10
643.117	1	9
643.287	1	5
643.456	1	-4
643.626	1	-3
643.795	1	-2
643.965	1	1
644.134	1	-1
644.304	1	4
644.473	1	-6
644.643	1	1
644.812	1	-9
644.982	1	-4
645.151	1	-6
645.321	1	6
645.490	1	10
645.660	1	-5
645.829	1	4
645.999	1	-5
646.168	1	16
646.338	1	-2
646.507	1	-9
646.677	1	8
646.846	1	0
647.016	1	3
647.185	1	-3
647.355	1	4
647.524	1	-4
647.694	1	-7
647.863	1	-5
648.033	1	9
648.202	1	9
648.372	1	-8
648.541	1	6
648.711	1	7
648.880	1	6
649.050	1	0
649.219	1	1
649.389	1	-9
649.558	1	5
649.728	1	0
649.897	1	5
650.067	1	6
650.236	1	4
650.406	1	4
650.575	1	10
650.745	1	4
650.914	1	9
651.084	1	15
651.253	1	3
651.423	1	-6
651.592	1	2
651.762	1	-6
651.931	1	7
652.101	1	-10
652.270	1	4
652.440	1	9
652.609	1	14
652.778	1	7
652.948	1	-4
653.117	1	0
653.287	1	-13
653.456	1	6
653.626	1	-5
653.795	1	-2
653.965	1	-1
654.134	1	-1
654.304	1	8
654.473	1	-5
654.643	1	3
654.812	1	7
654.982	1	3
655.151	1	3
655.320	1	-5
655.490	1	-8
655.659	1	0
655.829	1	8
655.998	1	6
656.168	1	-6
656.337	1	-1
656.507	1	-2
656.676	1	-8
656.846	1	-5
657.015	1	11
657.184	1	-4
657.354	1	-8
657.523	1	-1
657.693	1	11
657.862	1	-4
658.032	1	-4
658.201	1	-8
658.371	1	5
658.540	1	-8
658.709	1	11
658.879	1	11
659.048	1	6
659.218	1	2
659.387	1	14
659.557	1	13
659.726	1	6
659.895	1	4
660.065	1	-4
660.234	1	9
660.404	1	4
660.573	1	6
660.743	1	-3
660.912	1	8
661.081	1	-3
661.251	1	-3
661.420	1	16
661.590	1	-2
661.759	1	-1
661.929	1	2
662.098	1	10
662.267	1	-6
662.437	1	-2
662.606	1	2
662.776	1	4
662.945	1	9
663.115	1	11
663.284	1	0
663.453	1	-6
663.623	1	0
663.792	1	8
663.962	1	10
664.131	1	0
664.300	1	-7
664.470	1	1
664.639	1	7
664.809	1	11
664.978	1	12
665.148	1	0
665.317	1	2
665.486	1	5
665.656	1	3
665.825	1	11
665.995	1	-5
666.164	1	0
666.333	1	1
666.503	1	0
666.672	1	7
666.842	1	9
667.011	1	5
667.180	1	-2
667.350	1	-3
667.519	1	9
667.689	1	5
667.858	1	10
668.027	1	-4
668.197	1	-1
668.366	1	3
668.536	1	-1
668.705	1	3
668.874	1	12
669.044	1	3
669.213	1	15
669.382	1	2
669.552	1	1
669.721	1	-4
669.891	1	-1
670.060	1	1
670.229	1	10
670.399	1	8
670.568	1	4
670.738	1	0
670.907	1	4
671.076	1	12
671.246	1	9
671.415	1	11
671.584	1	8
671.754	1	-3
671.923	1	4
672.093	1	10
672.262	1	8
672.431	1	5
672.601	1	5
672.770	1	0
672.939	1	8
673.109	1	-3
673.278	1	4
673.448	1	2
673.617	1	12
673.786	1	-9
