325.333	1	11
325.504	1	-1
325.675	1	16
325.846	1	10
326.017	1	6
326.188	1	1
326.359	1	22
326.531	1	7
326.702	1	2
326.873	1	19
327.044	1	19
327.215	1	2
327.386	1	3
327.557	1	2
327.728	1	2
327.899	1	10
328.070	1	12
328.241	1	9
328.412	1	7
328.583	1	1
328.754	1	19
328.926	1	16
329.097	1	0
329.268	1	21
329.439	1	14
329.610	1	7
329.781	1	10
329.952	1	12
330.123	1	15
330.294	1	12
330.465	1	4
330.636	1	17
330.807	1	9
330.978	1	9
331.149	1	8
331.320	1	9
331.492	1	15
331.663	1	14
331.834	1	4
332.005	1	17
332.176	1	15
332.347	1	6
332.518	1	17
332.689	1	18
332.860	1	4
333.031	1	10
333.202	1	11
333.373	1	16
333.544	1	6
333.715	1	5
333.886	1	9
334.057	1	8
334.228	1	18
334.399	1	14
334.570	1	15
334.741	1	10
334.912	1	1
335.084	1	18
335.255	1	19
335.426	1	12
335.597	1	3
335.768	1	14
335.939	1	12
336.110	1	24
336.281	1	9
336.452	1	17
336.623	1	12
336.794	1	15
336.965	1	5
337.136	1	24
337.307	1	11
337.478	1	24
337.649	1	14
337.820	1	4
337.991	1	26
338.162	1	11
338.333	1	10
338.504	1	22
338.675	1	3
338.846	1	7
339.017	1	15
339.188	1	14
339.359	1	15
339.530	1	19
339.701	1	13
339.872	1	25
340.043	1	27
340.214	1	19
340.385	1	0
340.556	1	24
340.727	1	19
340.898	1	24
341.069	1	6
341.240	1	12
341.411	1	11
341.582	1	15
341.753	1	24
341.924	1	28
342.095	1	12
342.266	1	29
342.437	1	9
342.608	1	12
342.779	1	21
342.950	1	11
343.121	1	19
343.292	1	28
343.463	1	28
343.634	1	12
343.805	1	15
343.976	1	22
344.147	1	16
344.318	1	11
344.489	1	15
344.660	1	26
344.831	1	26
345.002	1	15
345.173	1	20
345.344	1	7
345.515	1	18
345.686	1	22
345.857	1	17
346.028	1	27
346.199	1	28
346.370	1	20
346.541	1	24
346.712	1	22
346.883	1	14
347.054	1	29
347.225	1	19
347.396	1	19
347.567	1	16
347.738	1	23
347.909	1	26
348.080	1	19
348.251	1	18
348.422	1	33
348.593	1	12
348.764	1	21
348.935	1	28
349.106	1	9
349.277	1	16
349.448	1	19
349.619	1	18
349.790	1	24
349.961	1	9
350.132	1	29
350.303	1	17
350.474	1	27
350.645	1	19
350.816	1	19
350.987	1	37
351.157	1	19
351.328	1	18
351.499	1	28
351.670	1	12
351.841	1	32
352.012	1	28
352.183	1	30
352.354	1	22
352.525	1	29
352.696	1	17
352.867	1	36
353.038	1	19
353.209	1	29
353.380	1	28
353.551	1	26
353.722	1	29
353.893	1	33
354.064	1	20
354.235	1	24
354.406	1	18
354.576	1	20
354.747	1	35
354.918	1	25
355.089	1	34
355.260	1	34
355.431	1	25
355.602	1	35
355.773	1	24
355.944	1	23
356.115	1	37
356.286	1	28
356.457	1	18
356.628	1	28
356.799	1	37
356.970	1	40
357.141	1	31
357.311	1	35
357.482	1	28
357.653	1	24
357.824	1	35
357.995	1	34
358.166	1	26
358.337	1	31
358.508	1	43
358.679	1	20
358.850	1	39
359.021	1	38
359.192	1	44
359.363	1	19
359.533	1	27
359.704	1	20
359.875	1	9
360.046	1	35
360.217	1	37
360.388	1	35
360.559	1	41
360.730	1	25
360.901	1	36
361.072	1	30
361.243	1	30
361.414	1	37
361.584	1	32
361.755	1	32
361.926	1	26
362.097	1	27
362.268	1	48
362.439	1	18
362.610	1	38
362.781	1	27
362.952	1	28
363.123	1	30
363.293	1	25
363.464	1	28
363.635	1	44
363.806	1	26
363.977	1	33
364.148	1	28
364.319	1	26
364.490	1	40
364.661	1	33
364.832	1	30
365.002	1	35
365.173	1	32
365.344	1	21
365.515	1	36
365.686	1	35
365.857	1	35
366.028	1	36
366.199	1	41
366.370	1	31
366.540	1	40
366.711	1	32
366.882	1	34
367.053	1	37
367.224	1	33
367.395	1	30
367.566	1	27
367.737	1	36
367.908	1	42
368.078	1	24
368.249	1	30
368.420	1	38
368.591	1	35
368.762	1	40
368.933	1	30
369.104	1	37
369.274	1	41
369.445	1	42
369.616	1	34
369.787	1	37
369.958	1	40
370.129	1	26
370.300	1	24
370.471	1	34
370.641	1	35
370.812	1	37
370.983	1	26
371.154	1	38
371.325	1	34
371.496	1	24
371.667	1	38
371.837	1	35
372.008	1	36
372.179	1	26
372.350	1	38
372.521	1	35
372.692	1	46
372.863	1	32
373.033	1	41
373.204	1	33
373.375	1	21
373.546	1	40
373.717	1	31
373.888	1	39
374.059	1	36
374.229	1	34
374.400	1	32
374.571	1	30
374.742	1	36
374.913	1	24
375.084	1	27
375.254	1	37
375.425	1	41
375.596	1	38
375.767	1	37
375.938	1	30
376.109	1	38
376.279	1	36
376.450	1	36
376.621	1	50
376.792	1	40
376.963	1	35
377.134	1	41
377.304	1	36
377.475	1	27
377.646	1	27
377.817	1	39
377.988	1	31
378.159	1	42
378.329	1	44
378.500	1	45
378.671	1	41
378.842	1	43
379.013	1	45
379.184	1	35
379.354	1	43
379.525	1	45
379.696	1	39
379.867	1	43
380.038	1	34
380.209	1	45
380.379	1	43
380.550	1	30
380.721	1	41
380.892	1	44
381.063	1	44
381.233	1	40
381.404	1	30
381.575	1	37
381.746	1	39
381.917	1	34
382.087	1	40
382.258	1	41
382.429	1	41
382.600	1	37
382.771	1	36
382.941	1	48
383.112	1	45
383.283	1	40
383.454	1	39
383.625	1	42
383.795	1	45
383.966	1	45
384.137	1	54
384.308	1	40
384.479	1	36
384.649	1	47
384.820	1	38
384.991	1	40
385.162	1	57
385.333	1	47
385.503	1	36
385.674	1	34
385.845	1	49
386.016	1	42
386.187	1	52
386.357	1	47
386.528	1	36
386.699	1	33
386.870	1	43
387.041	1	50
387.211	1	50
387.382	1	43
387.553	1	51
387.724	1	41
387.894	1	37
388.065	1	46
388.236	1	44
388.407	1	47
388.578	1	37
388.748	1	46
388.919	1	49
389.090	1	61
389.261	1	50
389.431	1	42
389.602	1	42
389.773	1	48
389.944	1	46
390.114	1	47
390.285	1	44
390.456	1	37
390.627	1	32
390.798	1	43
390.968	1	45
391.139	1	41
391.310	1	45
391.481	1	38
391.651	1	51
391.822	1	63
391.993	1	44
392.164	1	47
392.334	1	32
392.505	1	50
392.676	1	37
392.847	1	41
393.017	1	58
393.188	1	57
393.359	1	59
393.530	1	52
393.700	1	35
393.871	1	52
394.042	1	40
394.213	1	50
394.383	1	52
394.554	1	43
394.725	1	40
394.896	1	55
395.066	1	46
395.237	1	45
395.408	1	45
395.579	1	49
395.749	1	58
395.920	1	58
396.091	1	48
396.262	1	42
396.432	1	40
396.603	1	53
396.774	1	53
396.945	1	47
397.115	1	47
397.286	1	50
397.457	1	50
397.627	1	43
397.798	1	46
397.969	1	54
398.140	1	54
398.310	1	58
398.481	1	56
398.652	1	49
398.823	1	53
398.993	1	41
399.164	1	58
399.335	1	49
399.505	1	44
399.676	1	48
399.847	1	41
400.018	1	43
400.188	1	60
400.359	1	61
400.530	1	41
400.700	1	51
400.871	1	60
401.042	1	52
401.213	1	52
401.383	1	58
401.554	1	44
401.725	1	46
401.895	1	41
402.066	1	51
402.237	1	50
402.408	1	43
402.578	1	63
402.749	1	48
402.920	1	61
403.090	1	48
403.261	1	49
403.432	1	45
403.603	1	57
403.773	1	55
403.944	1	47
404.115	1	46
404.285	1	60
404.456	1	58
404.627	1	47
404.797	1	50
404.968	1	47
405.139	1	48
405.310	1	46
405.480	1	47
405.651	1	42
405.822	1	44
405.992	1	53
406.163	1	33
406.334	1	53
406.504	1	60
406.675	1	45
406.846	1	52
407.016	1	51
407.187	1	55
407.358	1	55
407.528	1	60
407.699	1	46
407.870	1	63
408.041	1	50
408.211	1	57
408.382	1	57
408.553	1	56
408.723	1	53
408.894	1	47
409.065	1	62
409.235	1	61
409.406	1	53
409.577	1	57
409.747	1	51
409.918	1	53
410.089	1	65
410.259	1	57
410.430	1	60
410.601	1	59
410.771	1	59
410.942	1	48
411.113	1	53
411.283	1	56
411.454	1	54
411.625	1	55
411.795	1	62
411.966	1	48
412.137	1	66
412.307	1	50
412.478	1	61
412.649	1	59
412.819	1	55
412.990	1	62
413.161	1	54
413.331	1	47
413.502	1	47
413.672	1	47
413.843	1	61
414.014	1	44
414.184	1	54
414.355	1	55
414.526	1	35
414.696	1	44
414.867	1	45
415.038	1	43
415.208	1	47
415.379	1	49
415.550	1	55
415.720	1	35
415.891	1	47
416.062	1	49
416.232	1	67
416.403	1	54
416.573	1	50
416.744	1	59
416.915	1	49
417.085	1	52
417.256	1	53
417.427	1	53
417.597	1	50
417.768	1	38
417.939	1	44
418.109	1	56
418.280	1	58
418.450	1	65
418.621	1	54
418.792	1	48
418.962	1	58
419.133	1	45
419.304	1	46
419.474	1	50
419.645	1	58
419.815	1	39
419.986	1	60
420.157	1	49
420.327	1	52
420.498	1	50
420.669	1	56
420.839	1	51
421.010	1	53
421.180	1	45
421.351	1	51
421.522	1	50
421.692	1	66
421.863	1	57
422.033	1	61
422.204	1	60
422.375	1	56
422.545	1	51
422.716	1	42
422.886	1	48
423.057	1	41
423.228	1	49
423.398	1	59
423.569	1	56
423.740	1	48
423.910	1	57
424.081	1	48
424.251	1	49
424.422	1	45
424.593	1	51
424.763	1	56
424.934	1	51
425.104	1	61
425.275	1	48
425.445	1	53
425.616	1	47
425.787	1	43
425.957	1	40
426.128	1	43
426.298	1	50
426.469	1	44
426.640	1	31
426.810	1	41
426.981	1	53
427.151	1	53
427.322	1	47
427.493	1	49
427.663	1	55
427.834	1	50
428.004	1	53
428.175	1	47
428.345	1	42
428.516	1	47
428.687	1	61
428.857	1	59
429.028	1	48
429.198	1	49
429.369	1	45
429.540	1	56
429.710	1	46
429.881	1	52
430.051	1	46
430.222	1	44
430.392	1	48
430.563	1	53
430.734	1	44
430.904	1	55
431.075	1	50
431.245	1	42
431.416	1	50
431.586	1	39
431.757	1	53
431.927	1	51
432.098	1	57
432.269	1	45
432.439	1	47
432.610	1	46
432.780	1	57
432.951	1	42
433.121	1	49
433.292	1	54
433.462	1	44
433.633	1	33
433.804	1	50
433.974	1	55
434.145	1	52
434.315	1	46
434.486	1	41
434.656	1	55
434.827	1	39
434.997	1	58
435.168	1	51
435.339	1	55
435.509	1	49
435.680	1	51
435.850	1	41
436.021	1	40
436.191	1	40
436.362	1	48
436.532	1	56
436.703	1	43
436.873	1	44
437.044	1	48
437.214	1	41
437.385	1	54
437.556	1	47
437.726	1	46
437.897	1	38
438.067	1	51
438.238	1	43
438.408	1	48
438.579	1	35
438.749	1	57
438.920	1	53
439.090	1	34
439.261	1	48
439.431	1	26
439.602	1	46
439.772	1	44
439.943	1	40
440.113	1	33
440.284	1	45
440.455	1	30
440.625	1	52
440.796	1	54
440.966	1	50
441.137	1	44
441.307	1	49
441.478	1	39
441.648	1	42
441.819	1	52
441.989	1	48
442.160	1	45
442.330	1	43
442.501	1	46
442.671	1	43
442.842	1	47
443.012	1	43
443.183	1	46
443.353	1	51
443.524	1	37
443.694	1	39
443.865	1	54
444.035	1	37
444.206	1	45
444.376	1	53
444.547	1	35
444.717	1	46
444.888	1	34
445.058	1	45
445.229	1	52
445.399	1	43
445.570	1	37
445.740	1	37
445.911	1	46
446.081	1	55
446.252	1	44
446.422	1	40
446.593	1	31
446.763	1	42
446.934	1	40
447.104	1	37
447.275	1	44
447.445	1	47
447.616	1	42
447.786	1	41
447.957	1	40
448.127	1	43
448.298	1	43
448.468	1	43
448.639	1	33
448.809	1	31
448.979	1	50
449.150	1	43
449.320	1	47
449.491	1	38
449.661	1	28
449.832	1	38
450.002	1	39
450.173	1	38
450.343	1	34
450.514	1	43
450.684	1	43
450.855	1	43
451.025	1	38
451.196	1	40
451.366	1	50
451.537	1	45
451.707	1	44
451.878	1	33
452.048	1	28
452.218	1	29
452.389	1	42
452.559	1	38
452.730	1	44
452.900	1	30
453.071	1	47
453.241	1	45
453.412	1	39
453.582	1	41
453.753	1	45
453.923	1	29
454.093	1	33
454.264	1	51
454.434	1	41
454.605	1	36
454.775	1	38
454.946	1	29
455.116	1	41
455.287	1	35
455.457	1	36
455.628	1	22
455.798	1	38
455.968	1	45
456.139	1	38
456.309	1	32
456.480	1	25
456.650	1	38
456.821	1	37
456.991	1	43
457.161	1	41
457.332	1	37
457.502	1	36
457.673	1	33
457.843	1	35
458.014	1	33
458.184	1	38
458.355	1	43
458.525	1	31
458.695	1	36
458.866	1	34
459.036	1	28
459.207	1	27
459.377	1	46
459.548	1	29
459.718	1	35
459.888	1	30
460.059	1	32
460.229	1	37
460.400	1	35
460.570	1	23
460.740	1	38
460.911	1	37
461.081	1	35
461.252	1	40
461.422	1	28
461.593	1	45
461.763	1	38
461.933	1	38
462.104	1	19
462.274	1	25
462.445	1	23
462.615	1	42
462.785	1	50
462.956	1	24
463.126	1	36
463.297	1	28
463.467	1	38
463.638	1	45
463.808	1	34
463.978	1	25
464.149	1	31
464.319	1	37
464.490	1	31
464.660	1	31
464.830	1	32
465.001	1	32
465.171	1	28
465.342	1	23
465.512	1	41
465.682	1	28
465.853	1	33
466.023	1	37
466.194	1	37
466.364	1	40
466.534	1	22
466.705	1	45
466.875	1	18
467.045	1	23
467.216	1	38
467.386	1	32
467.557	1	38
467.727	1	19
467.897	1	29
468.068	1	31
468.238	1	32
468.409	1	35
468.579	1	30
468.749	1	25
468.920	1	23
469.090	1	28
469.260	1	34
469.431	1	21
469.601	1	33
469.772	1	43
469.942	1	33
470.112	1	25
470.283	1	17
470.453	1	35
470.623	1	37
470.794	1	23
470.964	1	16
471.135	1	27
471.305	1	19
471.475	1	35
471.646	1	23
471.816	1	36
471.986	1	29
472.157	1	28
472.327	1	41
472.497	1	20
472.668	1	25
472.838	1	25
473.009	1	28
473.179	1	18
473.349	1	30
473.520	1	39
473.690	1	16
473.860	1	20
474.031	1	19
474.201	1	20
474.371	1	34
474.542	1	24
474.712	1	21
474.882	1	33
475.053	1	30
475.223	1	29
475.394	1	25
475.564	1	26
475.734	1	20
475.905	1	26
476.075	1	37
476.245	1	31
476.416	1	19
476.586	1	23
476.756	1	29
476.927	1	32
477.097	1	25
477.267	1	20
477.438	1	28
477.608	1	32
477.778	1	17
477.949	1	13
478.119	1	32
478.289	1	17
478.460	1	21
478.630	1	27
478.800	1	20
478.971	1	30
479.141	1	20
479.311	1	14
479.482	1	26
479.652	1	21
479.822	1	9
479.993	1	22
480.163	1	27
480.333	1	24
480.504	1	33
480.674	1	31
480.844	1	20
481.015	1	31
481.185	1	32
481.355	1	27
481.525	1	26
481.696	1	14
481.866	1	29
482.036	1	29
482.207	1	26
482.377	1	14
482.547	1	20
482.718	1	28
482.888	1	23
483.058	1	23
483.229	1	34
483.399	1	11
483.569	1	11
483.740	1	27
483.910	1	10
484.080	1	21
484.250	1	18
484.421	1	17
484.591	1	16
484.761	1	31
484.932	1	12
485.102	1	15
485.272	1	14
485.443	1	18
485.613	1	18
485.783	1	18
485.953	1	14
486.124	1	10
486.294	1	26
486.464	1	26
486.635	1	19
486.805	1	17
486.975	1	11
487.146	1	17
487.316	1	21
487.486	1	20
487.656	1	19
487.827	1	18
487.997	1	17
488.167	1	24
488.338	1	21
488.508	1	25
488.678	1	12
488.848	1	14
489.019	1	11
489.189	1	24
489.359	1	23
489.529	1	21
489.700	1	11
489.870	1	32
490.040	1	10
490.211	1	12
490.381	1	16
490.551	1	14
490.721	1	8
490.892	1	7
491.062	1	18
491.232	1	12
491.402	1	12
491.573	1	22
491.743	1	27
491.913	1	14
492.084	1	16
492.254	1	20
492.424	1	19
492.594	1	11
492.765	1	16
492.935	1	17
493.105	1	20
493.275	1	20
493.446	1	3
493.616	1	4
493.786	1	24
493.956	1	20
494.127	1	17
494.297	1	13
494.467	1	23
494.637	1	15
494.808	1	20
494.978	1	14
495.148	1	1
495.318	1	16
495.489	1	10
495.659	1	17
495.829	1	14
495.999	1	16
496.170	1	27
496.340	1	11
496.510	1	17
496.680	1	24
496.851	1	21
497.021	1	14
497.191	1	14
497.361	1	5
497.532	1	14
497.702	1	22
497.872	1	20
498.042	1	13
498.213	1	6
498.383	1	8
498.553	1	16
498.723	1	15
498.894	1	26
499.064	1	18
499.234	1	16
499.404	1	23
499.574	1	17
499.745	1	16
499.915	1	15
500.085	1	11
500.255	1	2
500.426	1	7
500.596	1	0
500.766	1	7
500.936	1	13
501.106	1	15
501.277	1	4
501.447	1	12
501.617	1	9
501.787	1	11
501.958	1	19
502.128	1	18
502.298	1	19
502.468	1	16
502.638	1	15
502.809	1	3
502.979	1	17
503.149	1	22
503.319	1	22
503.489	1	2
503.660	1	6
503.830	1	10
504.000	1	9
504.170	1	13
504.340	1	10
504.511	1	-2
504.681	1	5
504.851	1	9
505.021	1	12
505.192	1	7
505.362	1	12
505.532	1	14
505.702	1	29
505.872	1	11
506.043	1	17
506.213	1	21
506.383	1	12
506.553	1	17
506.723	1	2
506.893	1	12
507.064	1	22
507.234	1	5
507.404	1	7
507.574	1	6
507.744	1	3
507.915	1	5
508.085	1	20
508.255	1	9
508.425	1	8
508.595	1	9
508.766	1	16
508.936	1	19
509.106	1	7
509.276	1	8
509.446	1	8
509.616	1	5
509.787	1	10
509.957	1	17
510.127	1	7
510.297	1	11
510.467	1	11
510.638	1	11
510.808	1	24
510.978	1	11
511.148	1	15
511.318	1	9
511.488	1	13
511.659	1	12
511.829	1	1
511.999	1	20
512.169	1	10
512.339	1	12
512.509	1	6
512.680	1	4
512.850	1	20
513.020	1	21
513.190	1	2
513.360	1	10
513.530	1	3
513.700	1	18
513.871	1	4
514.041	1	13
514.211	1	15
514.381	1	17
514.551	1	5
514.721	1	4
514.892	1	8
515.062	1	19
515.232	1	9
515.402	1	9
515.572	1	22
515.742	1	19
515.912	1	8
516.083	1	18
516.253	1	23
516.423	1	5
516.593	1	9
516.763	1	6
516.933	1	10
517.104	1	10
517.274	1	3
517.444	1	9
517.614	1	12
517.784	1	7
517.954	1	9
518.124	1	14
518.294	1	13
518.465	1	14
518.635	1	20
518.805	1	8
518.975	1	20
519.145	1	9
519.315	1	5
519.485	1	-2
519.656	1	12
519.826	1	0
519.996	1	-2
520.166	1	13
520.336	1	10
520.506	1	7
520.676	1	10
520.846	1	11
521.017	1	3
521.187	1	10
521.357	1	3
521.527	1	11
521.697	1	7
521.867	1	9
522.037	1	10
522.207	1	13
522.377	1	5
522.548	1	0
522.718	1	6
522.888	1	4
523.058	1	13
523.228	1	-1
523.398	1	4
523.568	1	-1
523.738	1	4
523.909	1	18
524.079	1	7
524.249	1	-5
524.419	1	5
524.589	1	9
524.759	1	17
524.929	1	9
525.099	1	5
525.269	1	4
525.439	1	0
525.610	1	13
525.780	1	6
525.950	1	20
526.120	1	5
526.290	1	-3
526.460	1	-5
526.630	1	8
526.800	1	3
526.970	1	10
527.140	1	12
527.311	1	-6
527.481	1	13
527.651	1	9
527.821	1	4
527.991	1	5
528.161	1	9
528.331	1	-10
528.501	1	10
528.671	1	10
528.841	1	6
529.011	1	3
529.181	1	11
529.352	1	4
529.522	1	8
529.692	1	12
529.862	1	-8
530.032	1	6
530.202	1	-2
530.372	1	11
530.542	1	4
530.712	1	8
530.882	1	1
531.052	1	2
531.222	1	9
531.392	1	2
531.563	1	1
531.733	1	-1
531.903	1	9
532.073	1	1
532.243	1	16
532.413	1	21
532.583	1	14
532.753	1	-5
532.923	1	7
533.093	1	2
533.263	1	13
533.433	1	6
533.603	1	8
533.773	1	7
533.943	1	5
534.113	1	6
534.284	1	11
534.454	1	1
534.624	1	5
534.794	1	6
534.964	1	10
535.134	1	0
535.304	1	12
535.474	1	9
535.644	1	5
535.814	1	10
535.984	1	11
536.154	1	2
536.324	1	1
536.494	1	17
536.664	1	-1
536.834	1	7
537.004	1	12
537.174	1	18
537.344	1	10
537.514	1	-7
537.685	1	1
537.855	1	7
538.025	1	10
538.195	1	0
538.365	1	6
538.535	1	10
538.705	1	7
538.875	1	7
539.045	1	10
539.215	1	-1
539.385	1	8
539.555	1	-1
539.725	1	7
539.895	1	7
540.065	1	16
540.235	1	10
540.405	1	13
540.575	1	2
540.745	1	19
540.915	1	0
541.085	1	2
541.255	1	2
541.425	1	3
541.595	1	2
541.765	1	12
541.935	1	9
542.105	1	9
542.275	1	11
542.445	1	0
542.615	1	5
542.785	1	1
542.955	1	19
543.125	1	-6
543.295	1	1
543.465	1	15
543.635	1	-1
543.805	1	1
543.975	1	7
544.145	1	8
544.315	1	9
544.485	1	-2
544.655	1	10
544.825	1	13
544.995	1	-1
545.165	1	0
545.335	1	9
545.505	1	11
545.675	1	13
545.845	1	8
546.015	1	-5
546.185	1	4
546.355	1	8
546.525	1	21
546.695	1	4
546.865	1	7
547.035	1	6
547.205	1	6
547.375	1	6
547.545	1	7
547.715	1	5
547.885	1	-5
548.055	1	1
548.225	1	20
548.395	1	6
548.565	1	6
548.735	1	-1
548.905	1	8
549.075	1	-4
549.245	1	6
549.415	1	8
549.585	1	-5
549.755	1	6
549.925	1	9
550.095	1	12
550.265	1	0
550.435	1	4
550.605	1	12
550.775	1	2
550.945	1	9
551.115	1	13
551.285	1	-3
551.455	1	24
551.625	1	-3
551.795	1	3
551.965	1	-1
552.135	1	-4
552.305	1	-3
552.475	1	10
552.645	1	-2
552.815	1	9
552.985	1	2
553.155	1	3
553.325	1	8
553.495	1	6
553.665	1	1
553.835	1	8
554.004	1	12
554.174	1	-10
554.344	1	8
554.514	1	-7
554.684	1	14
554.854	1	0
555.024	1	10
555.194	1	8
555.364	1	4
555.534	1	6
555.704	1	1
555.874	1	4
556.044	1	-1
556.214	1	7
556.384	1	10
556.554	1	5
556.724	1	3
556.894	1	5
557.064	1	1
557.234	1	3
557.404	1	3
557.573	1	6
557.743	1	-2
557.913	1	2
558.083	1	12
558.253	1	0
558.423	1	4
558.593	1	11
558.763	1	6
558.933	1	5
559.103	1	3
559.273	1	5
559.443	1	4
559.613	1	4
559.783	1	1
559.953	1	-3
560.122	1	5
560.292	1	-5
560.462	1	4
560.632	1	2
560.802	1	8
560.972	1	-2
561.142	1	0
561.312	1	2
561.482	1	8
561.652	1	8
561.822	1	3
561.992	1	3
562.162	1	6
562.331	1	-2
562.501	1	10
562.671	1	3
562.841	1	-6
563.011	1	4
563.181	1	-8
563.351	1	-3
563.521	1	2
563.691	1	8
563.861	1	3
564.031	1	-3
564.201	1	13
564.370	1	8
564.540	1	0
564.710	1	-2
564.880	1	10
565.050	1	4
565.220	1	11
565.390	1	-7
565.560	1	8
565.730	1	0
565.900	1	6
566.069	1	8
566.239	1	14
566.409	1	4
566.579	1	10
566.749	1	7
566.919	1	5
567.089	1	-12
567.259	1	16
567.429	1	0
567.599	1	10
567.768	1	3
567.938	1	4
568.108	1	4
568.278	1	6
568.448	1	-1
568.618	1	8
568.788	1	3
568.958	1	1
569.128	1	-1
569.297	1	6
569.467	1	9
569.637	1	5
569.807	1	14
569.977	1	-1
570.147	1	4
570.317	1	15
570.487	1	-1
570.656	1	10
570.826	1	-7
570.996	1	9
571.166	1	4
571.336	1	19
571.506	1	-1
571.676	1	6
571.846	1	11
572.015	1	4
572.185	1	2
572.355	1	-3
572.525	1	5
572.695	1	3
572.865	1	13
573.035	1	6
573.205	1	3
573.374	1	7
573.544	1	-4
573.714	1	0
573.884	1	-4
574.054	1	0
574.224	1	2
574.394	1	5
574.563	1	5
574.733	1	-9
574.903	1	2
575.073	1	10
575.243	1	3
575.413	1	0
575.583	1	-3
575.752	1	-5
575.922	1	12
576.092	1	-2
576.262	1	6
576.432	1	6
576.602	1	2
576.772	1	6
576.941	1	-1
577.111	1	3
577.281	1	2
577.451	1	16
577.621	1	10
577.791	1	2
577.960	1	0
578.130	1	10
578.300	1	13
578.470	1	-2
578.640	1	1
578.810	1	3
578.979	1	7
579.149	1	10
579.319	1	10
579.489	1	14
579.659	1	5
579.829	1	4
579.998	1	-15
580.168	1	4
580.338	1	5
580.508	1	2
580.678	1	2
580.848	1	2
581.017	1	6
581.187	1	7
581.357	1	-2
581.527	1	3
581.697	1	8
581.867	1	-5
582.036	1	-5
582.206	1	13
582.376	1	9
582.546	1	0
582.716	1	6
582.885	1	10
583.055	1	-4
583.225	1	1
583.395	1	3
583.565	1	4
583.735	1	5
583.904	1	-5
584.074	1	6
584.244	1	-5
584.414	1	8
584.584	1	1
584.753	1	4
584.923	1	-3
585.093	1	7
585.263	1	-2
585.433	1	-1
585.602	1	7
585.772	1	9
585.942	1	-3
586.112	1	8
586.282	1	-1
586.451	1	16
586.621	1	-5
586.791	1	-8
586.961	1	6
587.131	1	-7
587.300	1	6
587.470	1	1
587.640	1	5
587.810	1	-6
587.980	1	9
588.149	1	15
588.319	1	4
588.489	1	4
588.659	1	1
588.829	1	4
588.998	1	7
589.168	1	4
589.338	1	7
589.508	1	1
589.677	1	2
589.847	1	12
590.017	1	5
590.187	1	10
590.357	1	6
590.526	1	7
590.696	1	4
590.866	1	0
591.036	1	1
591.205	1	11
591.375	1	5
591.545	1	2
591.715	1	0
591.885	1	6
592.054	1	2
592.224	1	-3
592.394	1	2
592.564	1	3
592.733	1	13
592.903	1	7
593.073	1	-4
593.243	1	12
593.412	1	-14
593.582	1	0
593.752	1	-4
593.922	1	2
594.091	1	-2
594.261	1	-1
594.431	1	3
594.601	1	4
594.771	1	1
594.940	1	4
595.110	1	12
595.280	1	2
595.450	1	9
595.619	1	11
595.789	1	-4
595.959	1	0
596.129	1	-1
596.298	1	8
596.468	1	-1
596.638	1	-7
596.808	1	-5
596.977	1	-5
597.147	1	-3
597.317	1	9
597.487	1	-6
597.656	1	10
597.826	1	9
597.996	1	10
598.166	1	12
598.335	1	-2
598.505	1	3
598.675	1	8
598.844	1	18
599.014	1	-2
599.184	1	0
599.354	1	8
599.523	1	-4
599.693	1	2
599.863	1	4
600.033	1	5
600.202	1	6
600.372	1	-3
600.542	1	5
600.712	1	8
600.881	1	4
601.051	1	12
601.221	1	7
601.390	1	1
601.560	1	10
601.730	1	3
601.900	1	1
602.069	1	4
602.239	1	-1
602.409	1	6
602.578	1	9
602.748	1	16
602.918	1	-1
603.088	1	1
603.257	1	1
603.427	1	4
603.597	1	-4
603.767	1	5
603.936	1	8
604.106	1	-1
604.276	1	12
604.445	1	-1
604.615	1	1
604.785	1	-2
604.954	1	5
605.124	1	9
605.294	1	7
605.464	1	-2
605.633	1	-2
605.803	1	5
605.973	1	3
606.142	1	4
606.312	1	10
606.482	1	-9
606.652	1	3
606.821	1	2
606.991	1	11
607.161	1	1
607.330	1	-5
607.500	1	6
607.670	1	6
607.839	1	-3
608.009	1	-3
608.179	1	5
608.348	1	7
608.518	1	17
608.688	1	3
608.858	1	-7
609.027	1	9
609.197	1	2
609.367	1	-3
609.536	1	-4
609.706	1	8
609.876	1	9
610.045	1	12
610.215	1	4
610.385	1	6
610.554	1	1
610.724	1	11
610.894	1	4
611.063	1	0
611.233	1	14
611.403	1	12
611.572	1	9
611.742	1	-1
611.912	1	9
612.081	1	19
612.251	1	1
612.421	1	5
612.590	1	5
612.760	1	14
612.930	1	-4
613.099	1	0
613.269	1	2
613.439	1	5
613.608	1	4
613.778	1	-3
613.948	1	18
614.117	1	5
614.287	1	-1
614.457	1	10
614.626	1	5
614.796	1	-1
614.966	1	0
615.135	1	19
615.305	1	4
615.475	1	3
615.644	1	11
615.814	1	5
615.984	1	1
616.153	1	9
616.323	1	-3
616.493	1	2
616.662	1	8
616.832	1	3
617.002	1	5
617.171	1	7
617.341	1	7
617.511	1	-2
617.680	1	3
617.850	1	9
618.019	1	-1
618.189	1	21
618.359	1	5
618.528	1	4
618.698	1	6
618.868	1	-4
619.037	1	-1
619.207	1	-2
619.377	1	5
619.546	1	8
619.716	1	1
619.885	1	7
620.055	1	4
620.225	1	8
620.394	1	14
620.564	1	16
620.734	1	13
620.903	1	4
621.073	1	15
621.242	1	6
621.412	1	-2
621.582	1	13
621.751	1	-2
621.921	1	5
622.091	1	3
622.260	1	13
622.430	1	7
622.599	1	-2
622.769	1	-3
622.939	1	-2
623.108	1	3
623.278	1	5
623.448	1	2
623.617	1	6
623.787	1	0
623.956	1	10
624.126	1	6
624.296	1	22
624.465	1	12
624.635	1	0
624.804	1	-7
624.974	1	-4
625.144	1	4
625.313	1	18
625.483	1	13
625.652	1	-3
625.822	1	15
625.992	1	3
626.161	1	7
626.331	1	-1
626.501	1	-1
626.670	1	6
626.840	1	9
627.009	1	-2
627.179	1	9
627.348	1	2
627.518	1	20
627.688	1	11
627.857	1	11
628.027	1	9
628.196	1	5
628.366	1	-7
628.536	1	6
628.705	1	1
628.875	1	4
629.044	1	2
629.214	1	6
629.384	1	12
629.553	1	0
629.723	1	10
629.892	1	9
630.062	1	6
630.232	1	9
630.401	1	3
630.571	1	1
630.740	1	3
630.910	1	21
631.079	1	12
631.249	1	12
631.419	1	6
631.588	1	5
631.758	1	-3
631.927	1	10
632.097	1	-4
632.266	1	17
632.436	1	2
632.606	1	8
632.775	1	5
632.945	1	2
633.114	1	5
633.284	1	8
633.453	1	15
633.623	1	15
633.793	1	10
633.962	1	8
634.132	1	11
634.301	1	10
634.471	1	10
634.640	1	-1
634.810	1	1
634.979	1	12
635.149	1	6
635.319	1	4
635.488	1	10
635.658	1	3
635.827	1	10
635.997	1	7
636.166	1	3
636.336	1	3
636.505	1	9
636.675	1	5
636.845	1	8
637.014	1	-1
637.184	1	1
637.353	1	-3
637.523	1	9
637.692	1	3
637.862	1	-3
638.031	1	4
638.201	1	18
638.370	1	9
638.540	1	-1
638.710	1	-5
638.879	1	-1
639.049	1	9
639.218	1	8
639.388	1	8
639.557	1	12
639.727	1	15
639.896	1	3
640.066	1	0
640.235	1	-2
640.405	1	6
640.574	1	7
640.744	1	0
640.914	1	5
641.083	1	15
641.253	1	0
641.422	1	0
641.592	1	17
641.761	1	5
641.931	1	8
642.100	1	-3
642.270	1	14
642.439	1	9
642.609	1	15
642.778	1	9
642.948	1	21
643.117	1	14
643.287	1	-3
643.456	1	-3
643.626	1	4
643.795	1	-6
643.965	1	-1
644.134	1	-5
644.304	1	2
644.473	1	16
644.643	1	15
644.812	1	3
644.982	1	19
645.151	1	1
645.321	1	19
645.490	1	15
645.660	1	-3
645.829	1	9
645.999	1	-6
646.168	1	23
646.338	1	11
646.507	1	4
646.677	1	6
646.846	1	3
647.016	1	8
647.185	1	8
647.355	1	13
647.524	1	-1
647.694	1	-1
647.863	1	-1
648.033	1	19
648.202	1	8
648.372	1	5
648.541	1	7
648.711	1	13
648.880	1	14
649.050	1	0
649.219	1	8
649.389	1	-1
649.558	1	12
649.728	1	-2
649.897	1	6
650.067	1	18
650.236	1	-1
650.406	1	4
650.575	1	8
650.745	1	12
650.914	1	9
651.084	1	11
651.253	1	14
651.423	1	1
651.592	1	4
651.762	1	2
651.931	1	7
652.101	1	4
652.270	1	10
652.440	1	8
652.609	1	13
652.778	1	11
652.948	1	3
653.117	1	5
653.287	1	-3
653.456	1	3
653.626	1	11
653.795	1	1
653.965	1	2
654.134	1	5
654.304	1	15
654.473	1	8
654.643	1	2
654.812	1	20
654.982	1	16
655.151	1	8
655.320	1	2
655.490	1	2
655.659	1	12
655.829	1	17
655.998	1	8
656.168	1	2
656.337	1	10
656.507	1	1
656.676	1	5
656.846	1	9
657.015	1	9
657.184	1	4
657.354	1	10
657.523	1	11
657.693	1	7
657.862	1	11
658.032	1	4
658.201	1	3
658.371	1	-2
658.540	1	-2
658.709	1	14
658.879	1	14
659.048	1	10
659.218	1	5
659.387	1	8
659.557	1	5
659.726	1	5
659.895	1	3
660.065	1	-7
660.234	1	3
660.404	1	17
660.573	1	17
660.743	1	6
660.912	1	9
661.081	1	0
661.251	1	1
661.420	1	8
661.590	1	12
661.759	1	9
661.929	1	-3
662.098	1	21
662.267	1	0
662.437	1	15
662.606	1	-9
662.776	1	6
662.945	1	14
663.115	1	12
663.284	1	8
663.453	1	8
663.623	1	4
663.792	1	16
663.962	1	14
664.131	1	7
664.300	1	7
664.470	1	14
664.639	1	0
664.809	1	6
664.978	1	13
665.148	1	12
665.317	1	6
665.486	1	6
665.656	1	13
665.825	1	10
665.995	1	5
666.164	1	9
666.333	1	10
666.503	1	3
666.672	1	7
666.842	1	12
667.011	1	16
667.180	1	6
667.350	1	16
667.519	1	-1
667.689	1	12
667.858	1	15
668.027	1	3
668.197	1	13
668.366	1	3
668.536	1	-3
668.705	1	-5
668.874	1	22
669.044	1	8
669.213	1	18
669.382	1	11
669.552	1	12
669.721	1	-5
669.891	1	-11
670.060	1	6
670.229	1	17
670.399	1	14
670.568	1	13
670.738	1	12
670.907	1	9
671.076	1	11
671.246	1	15
671.415	1	13
671.584	1	20
671.754	1	1
671.923	1	1
672.093	1	13
672.262	1	5
672.431	1	13
672.601	1	20
672.770	1	10
672.939	1	6
673.109	1	4
673.278	1	6
673.448	1	10
673.617	1	2
673.786	1	0
