325.333	1	9
325.504	1	-3
325.675	1	15
325.846	1	0
326.017	1	8
326.188	1	10
326.359	1	18
326.531	1	1
326.702	1	5
326.873	1	16
327.044	1	5
327.215	1	4
327.386	1	-3
327.557	1	-1
327.728	1	9
327.899	1	-4
328.070	1	12
328.241	1	0
328.412	1	6
328.583	1	11
328.754	1	15
328.926	1	15
329.097	1	3
329.268	1	15
329.439	1	14
329.610	1	5
329.781	1	4
329.952	1	17
330.123	1	9
330.294	1	5
330.465	1	-5
330.636	1	6
330.807	1	11
330.978	1	4
331.149	1	6
331.320	1	4
331.492	1	4
331.663	1	3
331.834	1	12
332.005	1	14
332.176	1	7
332.347	1	-5
332.518	1	18
332.689	1	15
332.860	1	-1
333.031	1	8
333.202	1	6
333.373	1	5
333.544	1	5
333.715	1	11
333.886	1	3
334.057	1	-4
334.228	1	11
334.399	1	14
334.570	1	5
334.741	1	6
334.912	1	3
335.084	1	9
335.255	1	14
335.426	1	14
335.597	1	-2
335.768	1	13
335.939	1	10
336.110	1	23
336.281	1	7
336.452	1	17
336.623	1	14
336.794	1	12
336.965	1	1
337.136	1	20
337.307	1	3
337.478	1	10
337.649	1	7
337.820	1	10
337.991	1	10
338.162	1	6
338.333	1	9
338.504	1	11
338.675	1	7
338.846	1	9
339.017	1	21
339.188	1	4
339.359	1	10
339.530	1	7
339.701	1	14
339.872	1	22
340.043	1	11
340.214	1	19
340.385	1	-1
340.556	1	24
340.727	1	19
340.898	1	16
341.069	1	5
341.240	1	14
341.411	1	10
341.582	1	11
341.753	1	13
341.924	1	23
342.095	1	1
342.266	1	15
342.437	1	10
342.608	1	18
342.779	1	9
342.950	1	14
343.121	1	13
343.292	1	10
343.463	1	21
343.634	1	12
343.805	1	17
343.976	1	23
344.147	1	18
344.318	1	9
344.489	1	11
344.660	1	11
344.831	1	29
345.002	1	12
345.173	1	11
345.344	1	4
345.515	1	17
345.686	1	15
345.857	1	18
346.028	1	18
346.199	1	24
346.370	1	14
346.541	1	6
346.712	1	21
346.883	1	6
347.054	1	16
347.225	1	21
347.396	1	7
347.567	1	3
347.738	1	21
347.909	1	19
348.080	1	13
348.251	1	18
348.422	1	22
348.593	1	18
348.764	1	16
348.935	1	17
349.106	1	11
349.277	1	18
349.448	1	22
349.619	1	11
349.790	1	20
349.961	1	20
350.132	1	14
350.303	1	4
350.474	1	22
350.645	1	19
350.816	1	16
350.987	1	28
351.157	1	17
351.328	1	20
351.499	1	19
351.670	1	24
351.841	1	30
352.012	1	17
352.183	1	37
352.354	1	22
352.525	1	23
352.696	1	12
352.867	1	39
353.038	1	17
353.209	1	18
353.380	1	20
353.551	1	22
353.722	1	21
353.893	1	26
354.064	1	25
354.235	1	14
354.406	1	11
354.576	1	24
354.747	1	17
354.918	1	22
355.089	1	28
355.260	1	19
355.431	1	18
355.602	1	27
355.773	1	14
355.944	1	20
356.115	1	32
356.286	1	22
356.457	1	18
356.628	1	21
356.799	1	17
356.970	1	24
357.141	1	18
357.311	1	30
357.482	1	17
357.653	1	5
357.824	1	20
357.995	1	17
358.166	1	20
358.337	1	6
358.508	1	36
358.679	1	19
358.850	1	32
359.021	1	19
359.192	1	38
359.363	1	36
359.533	1	18
359.704	1	22
359.875	1	17
360.046	1	25
360.217	1	34
360.388	1	28
360.559	1	26
360.730	1	12
360.901	1	15
361.072	1	22
361.243	1	20
361.414	1	29
361.584	1	17
361.755	1	22
361.926	1	18
362.097	1	15
362.268	1	22
362.439	1	17
362.610	1	31
362.781	1	9
362.952	1	23
363.123	1	16
363.293	1	24
363.464	1	13
363.635	1	27
363.806	1	28
363.977	1	26
364.148	1	11
364.319	1	19
364.490	1	29
364.661	1	19
364.832	1	20
365.002	1	29
365.173	1	28
365.344	1	15
365.515	1	35
365.686	1	34
365.857	1	21
366.028	1	30
366.199	1	30
366.370	1	25
366.540	1	20
366.711	1	30
366.882	1	28
367.053	1	23
367.224	1	27
367.395	1	26
367.566	1	28
367.737	1	25
367.908	1	21
368.078	1	22
368.249	1	34
368.420	1	27
368.591	1	37
368.762	1	31
368.933	1	28
369.104	1	31
369.274	1	36
369.445	1	40
369.616	1	26
369.787	1	26
369.958	1	24
370.129	1	30
370.300	1	19
370.471	1	18
370.641	1	26
370.812	1	36
370.983	1	20
371.154	1	27
371.325	1	32
371.496	1	25
371.667	1	31
371.837	1	35
372.008	1	26
372.179	1	20
372.350	1	30
372.521	1	30
372.692	1	28
372.863	1	38
373.033	1	36
373.204	1	25
373.375	1	30
373.546	1	32
373.717	1	22
373.888	1	26
374.059	1	27
374.229	1	35
374.400	1	19
374.571	1	25
374.742	1	23
374.913	1	17
375.084	1	26
375.254	1	11
375.425	1	28
375.596	1	27
375.767	1	25
375.938	1	21
376.109	1	24
376.279	1	20
376.450	1	32
376.621	1	34
376.792	1	27
376.963	1	26
377.134	1	22
377.304	1	40
377.475	1	23
377.646	1	14
377.817	1	28
377.988	1	36
378.159	1	27
378.329	1	39
378.500	1	38
378.671	1	24
378.842	1	25
379.013	1	36
379.184	1	31
379.354	1	37
379.525	1	34
379.696	1	38
379.867	1	26
380.038	1	28
380.209	1	38
380.379	1	36
380.550	1	23
380.721	1	29
380.892	1	31
381.063	1	29
381.233	1	33
381.404	1	32
381.575	1	33
381.746	1	35
381.917	1	36
382.087	1	38
382.258	1	35
382.429	1	36
382.600	1	26
382.771	1	27
382.941	1	40
383.112	1	26
383.283	1	43
383.454	1	25
383.625	1	37
383.795	1	23
383.966	1	38
384.137	1	47
384.308	1	30
384.479	1	29
384.649	1	33
384.820	1	39
384.991	1	28
385.162	1	34
385.333	1	37
385.503	1	28
385.674	1	35
385.845	1	32
386.016	1	40
386.187	1	26
386.357	1	39
386.528	1	31
386.699	1	29
386.870	1	32
387.041	1	37
387.211	1	40
387.382	1	48
387.553	1	40
387.724	1	26
387.894	1	25
388.065	1	37
388.236	1	33
388.407	1	37
388.578	1	42
388.748	1	40
388.919	1	32
389.090	1	52
389.261	1	34
389.431	1	24
389.602	1	40
389.773	1	38
389.944	1	39
390.114	1	33
390.285	1	52
390.456	1	32
390.627	1	40
390.798	1	38
390.968	1	37
391.139	1	39
391.310	1	37
391.481	1	42
391.651	1	37
391.822	1	44
391.993	1	31
392.164	1	34
392.334	1	27
392.505	1	41
392.676	1	24
392.847	1	33
393.017	1	30
393.188	1	34
393.359	1	48
393.530	1	51
393.700	1	34
393.871	1	36
394.042	1	37
394.213	1	40
394.383	1	31
394.554	1	38
394.725	1	35
394.896	1	55
395.066	1	36
395.237	1	43
395.408	1	44
395.579	1	43
395.749	1	50
395.920	1	54
396.091	1	37
396.262	1	27
396.432	1	38
396.603	1	50
396.774	1	36
396.945	1	46
397.115	1	35
397.286	1	47
397.457	1	40
397.627	1	32
397.798	1	44
397.969	1	42
398.140	1	35
398.310	1	40
398.481	1	40
398.652	1	50
398.823	1	43
398.993	1	40
399.164	1	47
399.335	1	36
399.505	1	30
399.676	1	49
399.847	1	36
400.018	1	38
400.188	1	45
400.359	1	42
400.530	1	44
400.700	1	40
400.871	1	37
401.042	1	36
401.213	1	40
401.383	1	32
401.554	1	36
401.725	1	34
401.895	1	37
402.066	1	41
402.237	1	39
402.408	1	30
402.578	1	44
402.749	1	37
402.920	1	40
403.090	1	40
403.261	1	38
403.432	1	41
403.603	1	41
403.773	1	61
403.944	1	47
404.115	1	39
404.285	1	49
404.456	1	52
404.627	1	53
404.797	1	45
404.968	1	46
405.139	1	44
405.310	1	40
405.480	1	42
405.651	1	36
405.822	1	36
405.992	1	49
406.163	1	41
406.334	1	40
406.504	1	48
406.675	1	37
406.846	1	46
407.016	1	44
407.187	1	41
407.358	1	33
407.528	1	48
407.699	1	55
407.870	1	52
408.041	1	43
408.211	1	49
408.382	1	42
408.553	1	43
408.723	1	49
408.894	1	51
409.065	1	40
409.235	1	49
409.406	1	37
409.577	1	47
409.747	1	41
409.918	1	48
410.089	1	43
410.259	1	44
410.430	1	47
410.601	1	51
410.771	1	46
410.942	1	39
411.113	1	44
411.283	1	47
411.454	1	56
411.625	1	42
411.795	1	40
411.966	1	37
412.137	1	62
412.307	1	46
412.478	1	43
412.649	1	39
412.819	1	54
412.990	1	51
413.161	1	36
413.331	1	53
413.502	1	39
413.672	1	33
413.843	1	40
414.014	1	41
414.184	1	50
414.355	1	48
414.526	1	45
414.696	1	40
414.867	1	36
415.038	1	41
415.208	1	36
415.379	1	36
415.550	1	49
415.720	1	39
415.891	1	35
416.062	1	48
416.232	1	46
416.403	1	48
416.573	1	31
416.744	1	42
416.915	1	40
417.085	1	43
417.256	1	32
417.427	1	37
417.597	1	43
417.768	1	41
417.939	1	33
418.109	1	38
418.280	1	44
418.450	1	58
418.621	1	50
418.792	1	38
418.962	1	38
419.133	1	34
419.304	1	40
419.474	1	40
419.645	1	38
419.815	1	48
419.986	1	42
420.157	1	32
420.327	1	37
420.498	1	36
420.669	1	44
420.839	1	55
421.010	1	38
421.180	1	42
421.351	1	39
421.522	1	40
421.692	1	48
421.863	1	50
422.033	1	39
422.204	1	42
422.375	1	37
422.545	1	50
422.716	1	27
422.886	1	44
423.057	1	39
423.228	1	39
423.398	1	43
423.569	1	37
423.740	1	42
423.910	1	49
424.081	1	47
424.251	1	42
424.422	1	42
424.593	1	44
424.763	1	43
424.934	1	52
425.104	1	55
425.275	1	41
425.445	1	39
425.616	1	41
425.787	1	34
425.957	1	23
426.128	1	38
426.298	1	51
426.469	1	30
426.640	1	40
426.810	1	35
426.981	1	43
427.151	1	38
427.322	1	31
427.493	1	38
427.663	1	46
427.834	1	36
428.004	1	39
428.175	1	44
428.345	1	34
428.516	1	40
428.687	1	45
428.857	1	40
429.028	1	29
429.198	1	31
429.369	1	39
429.540	1	35
429.710	1	42
429.881	1	37
430.051	1	40
430.222	1	39
430.392	1	41
430.563	1	30
430.734	1	31
430.904	1	36
431.075	1	37
431.245	1	40
431.416	1	40
431.586	1	31
431.757	1	46
431.927	1	44
432.098	1	44
432.269	1	34
432.439	1	39
432.610	1	46
432.780	1	39
432.951	1	24
433.121	1	39
433.292	1	37
433.462	1	42
433.633	1	42
433.804	1	32
433.974	1	34
434.145	1	36
434.315	1	34
434.486	1	29
434.656	1	45
434.827	1	37
434.997	1	47
435.168	1	35
435.339	1	47
435.509	1	43
435.680	1	40
435.850	1	32
436.021	1	34
436.191	1	38
436.362	1	38
436.532	1	43
436.703	1	37
436.873	1	34
437.044	1	47
437.214	1	31
437.385	1	40
437.556	1	48
437.726	1	44
437.897	1	41
438.067	1	37
438.238	1	42
438.408	1	43
438.579	1	33
438.749	1	37
438.920	1	46
439.090	1	24
439.261	1	39
439.431	1	22
439.602	1	34
439.772	1	34
439.943	1	44
440.113	1	40
440.284	1	40
440.455	1	34
440.625	1	39
440.796	1	28
440.966	1	30
441.137	1	41
441.307	1	40
441.478	1	32
441.648	1	27
441.819	1	38
441.989	1	48
442.160	1	35
442.330	1	34
442.501	1	35
442.671	1	39
442.842	1	32
443.012	1	23
443.183	1	44
443.353	1	25
443.524	1	36
443.694	1	33
443.865	1	44
444.035	1	35
444.206	1	30
444.376	1	35
444.547	1	36
444.717	1	28
444.888	1	21
445.058	1	36
445.229	1	34
445.399	1	32
445.570	1	27
445.740	1	31
445.911	1	28
446.081	1	37
446.252	1	32
446.422	1	34
446.593	1	32
446.763	1	31
446.934	1	24
447.104	1	30
447.275	1	32
447.445	1	39
447.616	1	18
447.786	1	35
447.957	1	30
448.127	1	31
448.298	1	28
448.468	1	38
448.639	1	29
448.809	1	39
448.979	1	43
449.150	1	33
449.320	1	39
449.491	1	29
449.661	1	30
449.832	1	24
450.002	1	23
450.173	1	39
450.343	1	25
450.514	1	33
450.684	1	33
450.855	1	41
451.025	1	29
451.196	1	36
451.366	1	44
451.537	1	38
451.707	1	38
451.878	1	29
452.048	1	31
452.218	1	34
452.389	1	43
452.559	1	41
452.730	1	36
452.900	1	16
453.071	1	36
453.241	1	26
453.412	1	17
453.582	1	39
453.753	1	31
453.923	1	21
454.093	1	26
454.264	1	39
454.434	1	36
454.605	1	26
454.775	1	34
454.946	1	25
455.116	1	36
455.287	1	14
455.457	1	33
455.628	1	25
455.798	1	30
455.968	1	33
456.139	1	28
456.309	1	29
456.480	1	28
456.650	1	28
456.821	1	37
456.991	1	31
457.161	1	35
457.332	1	20
457.502	1	28
457.673	1	32
457.843	1	19
458.014	1	30
458.184	1	29
458.355	1	28
458.525	1	27
458.695	1	32
458.866	1	26
459.036	1	17
459.207	1	32
459.377	1	33
459.548	1	27
459.718	1	31
459.888	1	31
460.059	1	35
460.229	1	29
460.400	1	22
460.570	1	14
460.740	1	30
460.911	1	26
461.081	1	24
461.252	1	33
461.422	1	29
461.593	1	23
461.763	1	33
461.933	1	31
462.104	1	26
462.274	1	23
462.445	1	26
462.615	1	34
462.785	1	27
462.956	1	17
463.126	1	20
463.297	1	31
463.467	1	36
463.638	1	17
463.808	1	22
463.978	1	21
464.149	1	19
464.319	1	24
464.490	1	27
464.660	1	19
464.830	1	17
465.001	1	23
465.171	1	22
465.342	1	18
465.512	1	26
465.682	1	17
465.853	1	23
466.023	1	31
466.194	1	32
466.364	1	32
466.534	1	22
466.705	1	35
466.875	1	15
467.045	1	26
467.216	1	35
467.386	1	25
467.557	1	39
467.727	1	20
467.897	1	26
468.068	1	19
468.238	1	15
468.409	1	29
468.579	1	32
468.749	1	24
468.920	1	12
469.090	1	28
469.260	1	32
469.431	1	15
469.601	1	37
469.772	1	34
469.942	1	19
470.112	1	15
470.283	1	24
470.453	1	30
470.623	1	29
470.794	1	21
470.964	1	19
471.135	1	30
471.305	1	13
471.475	1	18
471.646	1	26
471.816	1	30
471.986	1	20
472.157	1	18
472.327	1	38
472.497	1	12
472.668	1	25
472.838	1	19
473.009	1	25
473.179	1	17
473.349	1	8
473.520	1	38
473.690	1	15
473.860	1	18
474.031	1	17
474.201	1	29
474.371	1	35
474.542	1	27
474.712	1	19
474.882	1	29
475.053	1	17
475.223	1	9
475.394	1	23
475.564	1	18
475.734	1	14
475.905	1	32
476.075	1	21
476.245	1	13
476.416	1	24
476.586	1	13
476.756	1	20
476.927	1	23
477.097	1	18
477.267	1	20
477.438	1	38
477.608	1	24
477.778	1	2
477.949	1	24
478.119	1	10
478.289	1	12
478.460	1	21
478.630	1	16
478.800	1	19
478.971	1	27
479.141	1	20
479.311	1	21
479.482	1	18
479.652	1	15
479.822	1	9
479.993	1	17
480.163	1	21
480.333	1	21
480.504	1	20
480.674	1	24
480.844	1	8
481.015	1	20
481.185	1	24
481.355	1	23
481.525	1	15
481.696	1	17
481.866	1	15
482.036	1	19
482.207	1	16
482.377	1	16
482.547	1	24
482.718	1	14
482.888	1	29
483.058	1	16
483.229	1	14
483.399	1	28
483.569	1	7
483.740	1	19
483.910	1	22
484.080	1	18
484.250	1	13
484.421	1	16
484.591	1	15
484.761	1	23
484.932	1	8
485.102	1	19
485.272	1	18
485.443	1	26
485.613	1	15
485.783	1	14
485.953	1	23
486.124	1	17
486.294	1	21
486.464	1	20
486.635	1	14
486.805	1	16
486.975	1	4
487.146	1	15
487.316	1	18
487.486	1	20
487.656	1	18
487.827	1	10
487.997	1	17
488.167	1	12
488.338	1	16
488.508	1	17
488.678	1	9
488.848	1	17
489.019	1	9
489.189	1	22
489.359	1	11
489.529	1	9
489.700	1	8
489.870	1	25
490.040	1	4
490.211	1	16
490.381	1	8
490.551	1	29
490.721	1	10
490.892	1	6
491.062	1	10
491.232	1	20
491.402	1	4
491.573	1	20
491.743	1	7
491.913	1	12
492.084	1	27
492.254	1	12
492.424	1	4
492.594	1	18
492.765	1	11
492.935	1	25
493.105	1	8
493.275	1	10
493.446	1	7
493.616	1	7
493.786	1	10
493.956	1	15
494.127	1	7
494.297	1	9
494.467	1	7
494.637	1	9
494.808	1	7
494.978	1	15
495.148	1	13
495.318	1	10
495.489	1	3
495.659	1	14
495.829	1	13
495.999	1	17
496.170	1	10
496.340	1	6
496.510	1	12
496.680	1	9
496.851	1	18
497.021	1	5
497.191	1	19
497.361	1	1
497.532	1	9
497.702	1	8
497.872	1	17
498.042	1	14
498.213	1	4
498.383	1	10
498.553	1	12
498.723	1	5
498.894	1	14
499.064	1	20
499.234	1	12
499.404	1	15
499.574	1	15
499.745	1	15
499.915	1	9
500.085	1	16
500.255	1	-10
500.426	1	11
500.596	1	7
500.766	1	12
500.936	1	9
501.106	1	9
501.277	1	7
501.447	1	18
501.617	1	-4
501.787	1	5
501.958	1	17
502.128	1	12
502.298	1	16
502.468	1	0
502.638	1	5
502.809	1	6
502.979	1	15
503.149	1	5
503.319	1	23
503.489	1	-7
503.660	1	-1
503.830	1	16
504.000	1	2
504.170	1	4
504.340	1	10
504.511	1	8
504.681	1	22
504.851	1	10
505.021	1	13
505.192	1	11
505.362	1	14
505.532	1	-2
505.702	1	23
505.872	1	12
506.043	1	12
506.213	1	19
506.383	1	3
506.553	1	7
506.723	1	4
506.893	1	15
507.064	1	11
507.234	1	4
507.404	1	4
507.574	1	14
507.744	1	6
507.915	1	8
508.085	1	-2
508.255	1	4
508.425	1	9
508.595	1	12
508.766	1	-4
508.936	1	8
509.106	1	10
509.276	1	20
509.446	1	3
509.616	1	15
509.787	1	10
509.957	1	5
510.127	1	3
510.297	1	-1
510.467	1	10
510.638	1	9
510.808	1	21
510.978	1	5
511.148	1	7
511.318	1	9
511.488	1	16
511.659	1	14
511.829	1	0
511.999	1	1
512.169	1	12
512.339	1	11
512.509	1	-1
512.680	1	7
512.850	1	8
513.020	1	14
513.190	1	7
513.360	1	1
513.530	1	1
513.700	1	14
513.871	1	8
514.041	1	8
514.211	1	4
514.381	1	18
514.551	1	2
514.721	1	12
514.892	1	-1
515.062	1	3
515.232	1	2
515.402	1	8
515.572	1	3
515.742	1	9
515.912	1	15
516.083	1	12
516.253	1	12
516.423	1	9
516.593	1	5
516.763	1	10
516.933	1	9
517.104	1	18
517.274	1	3
517.444	1	8
517.614	1	1
517.784	1	7
517.954	1	6
518.124	1	6
518.294	1	7
518.465	1	7
518.635	1	15
518.805	1	8
518.975	1	9
519.145	1	11
519.315	1	9
519.485	1	0
519.656	1	5
519.826	1	0
519.996	1	14
520.166	1	2
520.336	1	10
520.506	1	6
520.676	1	16
520.846	1	5
521.017	1	-6
521.187	1	4
521.357	1	-1
521.527	1	-1
521.697	1	5
521.867	1	11
522.037	1	9
522.207	1	16
522.377	1	6
522.548	1	7
522.718	1	-1
522.888	1	2
523.058	1	13
523.228	1	0
523.398	1	-4
523.568	1	-1
523.738	1	10
523.909	1	10
524.079	1	5
524.249	1	0
524.419	1	5
524.589	1	-2
524.759	1	6
524.929	1	4
525.099	1	4
525.269	1	3
525.439	1	5
525.610	1	11
525.780	1	9
525.950	1	11
526.120	1	-1
526.290	1	-5
526.460	1	-4
526.630	1	-4
526.800	1	-4
526.970	1	12
527.140	1	12
527.311	1	11
527.481	1	7
527.651	1	9
527.821	1	-3
527.991	1	-2
528.161	1	7
528.331	1	1
528.501	1	8
528.671	1	12
528.841	1	11
529.011	1	9
529.181	1	8
529.352	1	5
529.522	1	2
529.692	1	7
529.862	1	4
530.032	1	-4
530.202	1	-5
530.372	1	1
530.542	1	2
530.712	1	10
530.882	1	12
531.052	1	5
531.222	1	2
531.392	1	5
531.563	1	2
531.733	1	6
531.903	1	1
532.073	1	2
532.243	1	14
532.413	1	22
532.583	1	7
532.753	1	2
532.923	1	8
533.093	1	4
533.263	1	0
533.433	1	-10
533.603	1	5
533.773	1	11
533.943	1	10
534.113	1	11
534.284	1	2
534.454	1	5
534.624	1	6
534.794	1	13
534.964	1	1
535.134	1	-3
535.304	1	5
535.474	1	17
535.644	1	8
535.814	1	10
535.984	1	7
536.154	1	0
536.324	1	3
536.494	1	6
536.664	1	5
536.834	1	3
537.004	1	6
537.174	1	8
537.344	1	4
537.514	1	-5
537.685	1	7
537.855	1	9
538.025	1	12
538.195	1	-1
538.365	1	-3
538.535	1	5
538.705	1	6
538.875	1	4
539.045	1	14
539.215	1	-12
539.385	1	5
539.555	1	5
539.725	1	10
539.895	1	7
540.065	1	16
540.235	1	8
540.405	1	6
540.575	1	3
540.745	1	6
540.915	1	5
541.085	1	-7
541.255	1	-2
541.425	1	4
541.595	1	13
541.765	1	3
541.935	1	5
542.105	1	1
542.275	1	4
542.445	1	5
542.615	1	6
542.785	1	4
542.955	1	15
543.125	1	-1
543.295	1	9
543.465	1	9
543.635	1	-4
543.805	1	3
543.975	1	7
544.145	1	1
544.315	1	-4
544.485	1	1
544.655	1	19
544.825	1	8
544.995	1	9
545.165	1	6
545.335	1	4
545.505	1	-1
545.675	1	4
545.845	1	9
546.015	1	2
546.185	1	0
546.355	1	6
546.525	1	11
546.695	1	2
546.865	1	8
547.035	1	4
547.205	1	5
547.375	1	5
547.545	1	10
547.715	1	7
547.885	1	0
548.055	1	-2
548.225	1	7
548.395	1	6
548.565	1	7
548.735	1	-7
548.905	1	-4
549.075	1	4
549.245	1	9
549.415	1	6
549.585	1	2
549.755	1	10
549.925	1	5
550.095	1	-3
550.265	1	-4
550.435	1	5
550.605	1	5
550.775	1	-3
550.945	1	6
551.115	1	22
551.285	1	4
551.455	1	9
551.625	1	-10
551.795	1	6
551.965	1	1
552.135	1	-9
552.305	1	8
552.475	1	3
552.645	1	4
552.815	1	4
552.985	1	5
553.155	1	-3
553.325	1	12
553.495	1	-6
553.665	1	2
553.835	1	8
554.004	1	6
554.174	1	0
554.344	1	2
554.514	1	3
554.684	1	13
554.854	1	-7
555.024	1	17
555.194	1	13
555.364	1	1
555.534	1	-11
555.704	1	6
555.874	1	3
556.044	1	4
556.214	1	1
556.384	1	13
556.554	1	10
556.724	1	6
556.894	1	1
557.064	1	4
557.234	1	3
557.404	1	-3
557.573	1	6
557.743	1	-1
557.913	1	-7
558.083	1	4
558.253	1	5
558.423	1	7
558.593	1	9
558.763	1	-1
558.933	1	0
559.103	1	0
559.273	1	17
559.443	1	0
559.613	1	10
559.783	1	-7
559.953	1	-3
560.122	1	1
560.292	1	1
560.462	1	-1
560.632	1	4
560.802	1	0
560.972	1	1
561.142	1	10
561.312	1	1
561.482	1	12
561.652	1	-1
561.822	1	2
561.992	1	6
562.162	1	0
562.331	1	2
562.501	1	0
562.671	1	3
562.841	1	-3
563.011	1	7
563.181	1	-10
563.351	1	-6
563.521	1	2
563.691	1	7
563.861	1	8
564.031	1	1
564.201	1	7
564.370	1	8
564.540	1	-1
564.710	1	-3
564.880	1	-4
565.050	1	3
565.220	1	7
565.390	1	4
565.560	1	12
565.730	1	7
565.900	1	-2
566.069	1	13
566.239	1	13
566.409	1	14
566.579	1	5
566.749	1	-2
566.919	1	-8
567.089	1	-11
567.259	1	10
567.429	1	-4
567.599	1	14
567.768	1	1
567.938	1	9
568.108	1	-3
568.278	1	10
568.448	1	0
568.618	1	11
568.788	1	11
568.958	1	-2
569.128	1	1
569.297	1	-3
569.467	1	7
569.637	1	12
569.807	1	13
569.977	1	10
570.147	1	1
570.317	1	5
570.487	1	-1
570.656	1	7
570.826	1	-3
570.996	1	14
571.166	1	7
571.336	1	10
571.506	1	-4
571.676	1	2
571.846	1	4
572.015	1	7
572.185	1	-1
572.355	1	9
572.525	1	-8
572.695	1	5
572.865	1	7
573.035	1	3
573.205	1	-3
573.374	1	-3
573.544	1	-2
573.714	1	1
573.884	1	-6
574.054	1	1
574.224	1	0
574.394	1	1
574.563	1	3
574.733	1	1
574.903	1	1
575.073	1	11
575.243	1	7
575.413	1	0
575.583	1	3
575.752	1	0
575.922	1	10
576.092	1	-7
576.262	1	8
576.432	1	-4
576.602	1	5
576.772	1	-3
576.941	1	8
577.111	1	0
577.281	1	1
577.451	1	13
577.621	1	4
577.791	1	6
577.960	1	7
578.130	1	4
578.300	1	1
578.470	1	6
578.640	1	1
578.810	1	2
578.979	1	8
579.149	1	-6
579.319	1	2
579.489	1	8
579.659	1	7
579.829	1	-5
579.998	1	-9
580.168	1	4
580.338	1	2
580.508	1	3
580.678	1	-5
580.848	1	9
581.017	1	-3
581.187	1	2
581.357	1	8
581.527	1	7
581.697	1	6
581.867	1	4
582.036	1	-4
582.206	1	0
582.376	1	1
582.546	1	3
582.716	1	3
582.885	1	8
583.055	1	-6
583.225	1	4
583.395	1	1
583.565	1	11
583.735	1	-3
583.904	1	3
584.074	1	-4
584.244	1	0
584.414	1	-1
584.584	1	5
584.753	1	5
584.923	1	-2
585.093	1	9
585.263	1	3
585.433	1	-5
585.602	1	2
585.772	1	18
585.942	1	-2
586.112	1	2
586.282	1	-4
586.451	1	15
586.621	1	1
586.791	1	-7
586.961	1	-3
587.131	1	0
587.300	1	9
587.470	1	0
587.640	1	-1
587.810	1	-7
587.980	1	6
588.149	1	8
588.319	1	12
588.489	1	8
588.659	1	4
588.829	1	-1
588.998	1	4
589.168	1	0
589.338	1	-5
589.508	1	2
589.677	1	0
589.847	1	12
590.017	1	-4
590.187	1	9
590.357	1	6
590.526	1	-4
590.696	1	7
590.866	1	-5
591.036	1	7
591.205	1	1
591.375	1	10
591.545	1	-6
591.715	1	-3
591.885	1	9
592.054	1	4
592.224	1	-2
592.394	1	-5
592.564	1	5
592.733	1	3
592.903	1	-2
593.073	1	3
593.243	1	10
593.412	1	-5
593.582	1	2
593.752	1	-1
593.922	1	10
594.091	1	6
594.261	1	2
594.431	1	9
594.601	1	-5
594.771	1	4
594.940	1	-2
595.110	1	2
595.280	1	5
595.450	1	2
595.619	1	5
595.789	1	-6
595.959	1	5
596.129	1	-1
596.298	1	3
596.468	1	-1
596.638	1	-1
596.808	1	-12
596.977	1	2
597.147	1	14
597.317	1	2
597.487	1	-2
597.656	1	6
597.826	1	9
597.996	1	-5
598.166	1	3
598.335	1	-1
598.505	1	7
598.675	1	11
598.844	1	11
599.014	1	-6
599.184	1	13
599.354	1	10
599.523	1	1
599.693	1	0
599.863	1	6
600.033	1	11
600.202	1	-2
600.372	1	-3
600.542	1	6
600.712	1	5
600.881	1	-5
601.051	1	6
601.221	1	-2
601.390	1	2
601.560	1	10
601.730	1	3
601.900	1	2
602.069	1	5
602.239	1	4
602.409	1	4
602.578	1	12
602.748	1	11
602.918	1	-2
603.088	1	7
603.257	1	-8
603.427	1	2
603.597	1	-1
603.767	1	7
603.936	1	6
604.106	1	-2
604.276	1	14
604.445	1	-2
604.615	1	7
604.785	1	13
604.954	1	-1
605.124	1	-1
605.294	1	0
605.464	1	2
605.633	1	9
605.803	1	1
605.973	1	-1
606.142	1	9
606.312	1	8
606.482	1	-9
606.652	1	7
606.821	1	6
606.991	1	8
607.161	1	-3
607.330	1	0
607.500	1	2
607.670	1	4
607.839	1	-2
608.009	1	-4
608.179	1	9
608.348	1	4
608.518	1	10
608.688	1	5
608.858	1	6
609.027	1	20
609.197	1	3
609.367	1	-7
609.536	1	0
609.706	1	14
609.876	1	8
610.045	1	-7
610.215	1	4
610.385	1	4
610.554	1	-4
610.724	1	5
610.894	1	5
611.063	1	8
611.233	1	9
611.403	1	16
611.572	1	12
611.742	1	-1
611.912	1	-1
612.081	1	5
612.251	1	-3
612.421	1	-1
612.590	1	10
612.760	1	-3
612.930	1	9
613.099	1	-4
613.269	1	0
613.439	1	-9
613.608	1	4
613.778	1	1
613.948	1	12
614.117	1	0
614.287	1	-9
614.457	1	-3
614.626	1	-1
614.796	1	1
614.966	1	2
615.135	1	3
615.305	1	2
615.475	1	-6
615.644	1	11
615.814	1	10
615.984	1	2
616.153	1	-5
616.323	1	-3
616.493	1	0
616.662	1	1
616.832	1	0
617.002	1	3
617.171	1	7
617.341	1	12
617.511	1	-10
617.680	1	-2
617.850	1	4
618.019	1	-3
618.189	1	14
618.359	1	4
618.528	1	4
618.698	1	3
618.868	1	2
619.037	1	6
619.207	1	1
619.377	1	7
619.546	1	6
619.716	1	4
619.885	1	5
620.055	1	-1
620.225	1	5
620.394	1	-2
620.564	1	5
620.734	1	8
620.903	1	-7
621.073	1	7
621.242	1	12
621.412	1	-2
621.582	1	12
621.751	1	7
621.921	1	8
622.091	1	2
622.260	1	6
622.430	1	0
622.599	1	-3
622.769	1	-3
622.939	1	3
623.108	1	0
623.278	1	-2
623.448	1	3
623.617	1	9
623.787	1	5
623.956	1	11
624.126	1	-1
624.296	1	11
624.465	1	18
624.635	1	5
624.804	1	-5
624.974	1	3
625.144	1	9
625.313	1	23
625.483	1	5
625.652	1	1
625.822	1	7
625.992	1	1
626.161	1	7
626.331	1	7
626.501	1	0
626.670	1	-9
626.840	1	4
627.009	1	12
627.179	1	4
627.348	1	-3
627.518	1	10
627.688	1	6
627.857	1	17
628.027	1	10
628.196	1	13
628.366	1	-3
628.536	1	0
628.705	1	2
628.875	1	-5
629.044	1	4
629.214	1	10
629.384	1	8
629.553	1	10
629.723	1	6
629.892	1	12
630.062	1	8
630.232	1	3
630.401	1	5
630.571	1	5
630.740	1	3
630.910	1	7
631.079	1	12
631.249	1	6
631.419	1	5
631.588	1	14
631.758	1	-2
631.927	1	10
632.097	1	-4
632.266	1	11
632.436	1	8
632.606	1	12
632.775	1	1
632.945	1	12
633.114	1	1
633.284	1	1
633.453	1	2
633.623	1	13
633.793	1	1
633.962	1	6
634.132	1	5
634.301	1	16
634.471	1	13
634.640	1	-2
634.810	1	6
634.979	1	4
635.149	1	3
635.319	1	1
635.488	1	3
635.658	1	0
635.827	1	1
635.997	1	9
636.166	1	6
636.336	1	1
636.505	1	11
636.675	1	8
636.845	1	2
637.014	1	-7
637.184	1	9
637.353	1	3
637.523	1	3
637.692	1	3
637.862	1	5
638.031	1	-1
638.201	1	4
638.370	1	7
638.540	1	11
638.710	1	0
638.879	1	-5
639.049	1	6
639.218	1	6
639.388	1	4
639.557	1	6
639.727	1	3
639.896	1	-4
640.066	1	0
640.235	1	5
640.405	1	2
640.574	1	6
640.744	1	-3
640.914	1	6
641.083	1	7
641.253	1	4
641.422	1	-6
641.592	1	10
641.761	1	6
641.931	1	20
642.100	1	4
642.270	1	1
642.439	1	4
642.609	1	15
642.778	1	6
642.948	1	9
643.117	1	3
643.287	1	3
643.456	1	6
643.626	1	2
643.795	1	2
643.965	1	5
644.134	1	-6
644.304	1	4
644.473	1	3
644.643	1	5
644.812	1	-6
644.982	1	13
645.151	1	2
645.321	1	16
645.490	1	14
645.660	1	-4
645.829	1	7
645.999	1	-3
646.168	1	20
646.338	1	4
646.507	1	5
646.677	1	0
646.846	1	-5
647.016	1	16
647.185	1	12
647.355	1	14
647.524	1	-2
647.694	1	5
647.863	1	-2
648.033	1	2
648.202	1	14
648.372	1	-11
648.541	1	7
648.711	1	0
648.880	1	15
649.050	1	4
649.219	1	19
649.389	1	-2
649.558	1	19
649.728	1	0
649.897	1	13
650.067	1	11
650.236	1	0
650.406	1	6
650.575	1	5
650.745	1	6
650.914	1	6
651.084	1	5
651.253	1	7
651.423	1	7
651.592	1	1
651.762	1	0
651.931	1	8
652.101	1	6
652.270	1	1
652.440	1	0
652.609	1	10
652.778	1	2
652.948	1	4
653.117	1	4
653.287	1	-6
653.456	1	8
653.626	1	3
653.795	1	-2
653.965	1	-1
654.134	1	4
654.304	1	4
654.473	1	11
654.643	1	4
654.812	1	15
654.982	1	1
655.151	1	8
655.320	1	0
655.490	1	3
655.659	1	7
655.829	1	19
655.998	1	10
656.168	1	0
656.337	1	3
656.507	1	-7
656.676	1	7
656.846	1	-3
657.015	1	10
657.184	1	2
657.354	1	7
657.523	1	2
657.693	1	12
657.862	1	2
658.032	1	6
658.201	1	2
658.371	1	5
658.540	1	1
658.709	1	3
658.879	1	13
659.048	1	11
659.218	1	9
659.387	1	11
659.557	1	-1
659.726	1	3
659.895	1	4
660.065	1	2
660.234	1	3
660.404	1	8
660.573	1	13
660.743	1	-1
660.912	1	5
661.081	1	0
661.251	1	3
661.420	1	12
661.590	1	2
661.759	1	6
661.929	1	3
662.098	1	4
662.267	1	4
662.437	1	10
662.606	1	5
662.776	1	5
662.945	1	9
663.115	1	13
663.284	1	8
663.453	1	-4
663.623	1	1
663.792	1	2
663.962	1	13
664.131	1	-3
664.300	1	-1
664.470	1	-6
664.639	1	8
664.809	1	7
664.978	1	16
665.148	1	10
665.317	1	1
665.486	1	8
665.656	1	1
665.825	1	18
665.995	1	-6
666.164	1	2
666.333	1	11
666.503	1	3
666.672	1	7
666.842	1	9
667.011	1	1
667.180	1	-1
667.350	1	0
667.519	1	17
667.689	1	8
667.858	1	5
668.027	1	5
668.197	1	0
668.366	1	6
668.536	1	2
668.705	1	-7
668.874	1	7
669.044	1	10
669.213	1	11
669.382	1	10
669.552	1	8
669.721	1	-6
669.891	1	8
670.060	1	2
670.229	1	15
670.399	1	8
670.568	1	10
670.738	1	4
670.907	1	16
671.076	1	3
671.246	1	12
671.415	1	10
671.584	1	8
671.754	1	-1
671.923	1	10
672.093	1	12
672.262	1	3
672.431	1	7
672.601	1	8
672.770	1	6
672.939	1	11
673.109	1	9
673.278	1	-2
673.448	1	13
673.617	1	11
673.786	1	3
