325.333	1	3
325.504	1	-7
325.675	1	3
325.846	1	-7
326.017	1	0
326.188	1	-7
326.359	1	8
326.531	1	-10
326.702	1	-7
326.873	1	3
327.044	1	5
327.215	1	-5
327.386	1	-5
327.557	1	-5
327.728	1	-3
327.899	1	3
328.070	1	1
328.241	1	-1
328.412	1	-3
328.583	1	-4
328.754	1	8
328.926	1	5
329.097	1	-5
329.268	1	3
329.439	1	3
329.610	1	2
329.781	1	3
329.952	1	-2
330.123	1	-4
330.294	1	-6
330.465	1	-15
330.636	1	-3
330.807	1	5
330.978	1	-1
331.149	1	0
331.320	1	-11
331.492	1	-7
331.663	1	-8
331.834	1	0
332.005	1	-5
332.176	1	1
332.347	1	-12
332.518	1	11
332.689	1	2
332.860	1	4
333.031	1	-1
333.202	1	5
333.373	1	7
333.544	1	1
333.715	1	6
333.886	1	-7
334.057	1	-13
334.228	1	4
334.399	1	1
334.570	1	8
334.741	1	-3
334.912	1	-4
335.084	1	5
335.255	1	1
335.426	1	8
335.597	1	4
335.768	1	9
335.939	1	1
336.110	1	-3
336.281	1	5
336.452	1	7
336.623	1	-8
336.794	1	2
336.965	1	2
337.136	1	11
337.307	1	1
337.478	1	-3
337.649	1	-2
337.820	1	-7
337.991	1	-1
338.162	1	-2
338.333	1	3
338.504	1	3
338.675	1	4
338.846	1	-8
339.017	1	3
339.188	1	1
339.359	1	1
339.530	1	-2
339.701	1	8
339.872	1	13
340.043	1	-6
340.214	1	-2
340.385	1	-8
340.556	1	1
340.727	1	11
340.898	1	3
341.069	1	-3
341.240	1	2
341.411	1	5
341.582	1	-11
341.753	1	-3
341.924	1	2
342.095	1	3
342.266	1	-2
342.437	1	0
342.608	1	-5
342.779	1	-1
342.950	1	-12
343.121	1	7
343.292	1	4
343.463	1	7
343.634	1	-8
343.805	1	4
343.976	1	11
344.147	1	7
344.318	1	-3
344.489	1	-4
344.660	1	-2
344.831	1	8
345.002	1	9
345.173	1	-3
345.344	1	-2
345.515	1	-2
345.686	1	6
345.857	1	3
346.028	1	0
346.199	1	5
346.370	1	2
346.541	1	2
346.712	1	-5
346.883	1	-4
347.054	1	3
347.225	1	0
347.396	1	-3
347.567	1	-5
347.738	1	-4
347.909	1	2
348.080	1	-7
348.251	1	-4
348.422	1	11
348.593	1	2
348.764	1	-5
348.935	1	14
349.106	1	-5
349.277	1	4
349.448	1	7
349.619	1	-1
349.790	1	-6
349.961	1	-5
350.132	1	13
350.303	1	-7
350.474	1	-3
350.645	1	-7
350.816	1	2
350.987	1	10
351.157	1	-8
351.328	1	-9
351.499	1	5
351.670	1	-2
351.841	1	4
352.012	1	3
352.183	1	8
352.354	1	-2
352.525	1	3
352.696	1	-9
352.867	1	12
353.038	1	0
353.209	1	1
353.380	1	2
353.551	1	3
353.722	1	9
353.893	1	1
354.064	1	6
354.235	1	5
354.406	1	-4
354.576	1	-1
354.747	1	-1
354.918	1	-4
355.089	1	2
355.260	1	-4
355.431	1	8
355.602	1	8
355.773	1	0
355.944	1	3
356.115	1	7
356.286	1	7
356.457	1	3
356.628	1	4
356.799	1	6
356.970	1	8
357.141	1	9
357.311	1	11
357.482	1	-2
357.653	1	-8
357.824	1	2
357.995	1	3
358.166	1	-3
358.337	1	1
358.508	1	8
358.679	1	1
358.850	1	8
359.021	1	9
359.192	1	-1
359.363	1	4
359.533	1	7
359.704	1	0
359.875	1	-3
360.046	1	1
360.217	1	3
360.388	1	15
360.559	1	6
360.730	1	-4
360.901	1	0
361.072	1	3
361.243	1	-1
361.414	1	20
361.584	1	-3
361.755	1	14
361.926	1	4
362.097	1	5
362.268	1	2
362.439	1	-1
362.610	1	7
362.781	1	-6
362.952	1	5
363.123	1	-7
363.293	1	4
363.464	1	4
363.635	1	5
363.806	1	9
363.977	1	2
364.148	1	-3
364.319	1	8
364.490	1	3
364.661	1	1
364.832	1	8
365.002	1	4
365.173	1	5
365.344	1	-2
365.515	1	14
365.686	1	9
365.857	1	9
366.028	1	1
366.199	1	3
366.370	1	-1
366.540	1	-10
366.711	1	4
366.882	1	5
367.053	1	6
367.224	1	4
367.395	1	-1
367.566	1	14
367.737	1	3
367.908	1	-4
368.078	1	4
368.249	1	8
368.420	1	16
368.591	1	1
368.762	1	1
368.933	1	1
369.104	1	6
369.274	1	13
369.445	1	11
369.616	1	-10
369.787	1	-4
369.958	1	2
370.129	1	5
370.300	1	1
370.471	1	13
370.641	1	2
370.812	1	11
370.983	1	-2
371.154	1	8
371.325	1	-6
371.496	1	4
371.667	1	10
371.837	1	1
372.008	1	-5
372.179	1	10
372.350	1	6
372.521	1	7
372.692	1	15
372.863	1	8
373.033	1	1
373.204	1	-2
373.375	1	-3
373.546	1	12
373.717	1	-7
373.888	1	10
374.059	1	-6
374.229	1	7
374.400	1	1
374.571	1	5
374.742	1	2
374.913	1	-10
375.084	1	11
375.254	1	-1
375.425	1	7
375.596	1	4
375.767	1	4
375.938	1	-19
376.109	1	-10
376.279	1	4
376.450	1	6
376.621	1	9
376.792	1	7
376.963	1	6
377.134	1	-3
377.304	1	5
377.475	1	-11
377.646	1	-6
377.817	1	8
377.988	1	5
378.159	1	7
378.329	1	3
378.500	1	17
378.671	1	0
378.842	1	-3
379.013	1	6
379.184	1	1
379.354	1	8
379.525	1	5
379.696	1	4
379.867	1	1
380.038	1	0
380.209	1	11
380.379	1	4
380.550	1	-3
380.721	1	1
380.892	1	4
381.063	1	3
381.233	1	8
381.404	1	5
381.575	1	0
381.746	1	10
381.917	1	2
382.087	1	12
382.258	1	5
382.429	1	4
382.600	1	-1
382.771	1	-1
382.941	1	15
383.112	1	6
383.283	1	12
383.454	1	-3
383.625	1	7
383.795	1	12
383.966	1	6
384.137	1	6
384.308	1	4
384.479	1	6
384.649	1	3
384.820	1	0
384.991	1	-2
385.162	1	6
385.333	1	4
385.503	1	0
385.674	1	8
385.845	1	6
386.016	1	8
386.187	1	3
386.357	1	7
386.528	1	0
386.699	1	-1
386.870	1	4
387.041	1	11
387.211	1	5
387.382	1	3
387.553	1	12
387.724	1	1
387.894	1	-7
388.065	1	10
388.236	1	-7
388.407	1	-2
388.578	1	3
388.748	1	9
388.919	1	2
389.090	1	2
389.261	1	12
389.431	1	-9
389.602	1	4
389.773	1	5
389.944	1	7
390.114	1	2
390.285	1	14
390.456	1	6
390.627	1	-1
390.798	1	3
390.968	1	11
391.139	1	5
391.310	1	-1
391.481	1	1
391.651	1	14
391.822	1	12
391.993	1	4
392.164	1	7
392.334	1	1
392.505	1	6
392.676	1	3
392.847	1	0
393.017	1	12
393.188	1	13
393.359	1	15
393.530	1	19
393.700	1	-3
393.871	1	10
394.042	1	-2
394.213	1	13
394.383	1	2
394.554	1	-3
394.725	1	-1
394.896	1	16
395.066	1	1
395.237	1	8
395.408	1	4
395.579	1	2
395.749	1	8
395.920	1	11
396.091	1	6
396.262	1	3
396.432	1	0
396.603	1	3
396.774	1	2
396.945	1	10
397.115	1	10
397.286	1	13
397.457	1	-5
397.627	1	9
397.798	1	8
397.969	1	4
398.140	1	9
398.310	1	19
398.481	1	-2
398.652	1	11
398.823	1	0
398.993	1	-2
399.164	1	4
399.335	1	-7
399.505	1	1
399.676	1	11
399.847	1	-5
400.018	1	2
400.188	1	15
400.359	1	7
400.530	1	10
400.700	1	7
400.871	1	9
401.042	1	8
401.213	1	4
401.383	1	-3
401.554	1	4
401.725	1	2
401.895	1	1
402.066	1	8
402.237	1	2
402.408	1	4
402.578	1	15
402.749	1	2
402.920	1	13
403.090	1	5
403.261	1	8
403.432	1	6
403.603	1	4
403.773	1	23
403.944	1	1
404.115	1	0
404.285	1	3
404.456	1	18
404.627	1	16
404.797	1	8
404.968	1	8
405.139	1	2
405.310	1	5
405.480	1	3
405.651	1	5
405.822	1	4
405.992	1	11
406.163	1	6
406.334	1	4
406.504	1	10
406.675	1	0
406.846	1	9
407.016	1	10
407.187	1	13
407.358	1	0
407.528	1	1
407.699	1	7
407.870	1	24
408.041	1	13
408.211	1	5
408.382	1	13
408.553	1	7
408.723	1	8
408.894	1	4
409.065	1	1
409.235	1	3
409.406	1	9
409.577	1	9
409.747	1	5
409.918	1	12
410.089	1	13
410.259	1	4
410.430	1	14
410.601	1	6
410.771	1	9
410.942	1	1
411.113	1	10
411.283	1	3
411.454	1	15
411.625	1	3
411.795	1	10
411.966	1	4
412.137	1	23
412.307	1	2
412.478	1	14
412.649	1	3
412.819	1	8
412.990	1	6
413.161	1	4
413.331	1	9
413.502	1	6
413.672	1	4
413.843	1	1
414.014	1	6
414.184	1	7
414.355	1	15
414.526	1	10
414.696	1	6
414.867	1	-5
415.038	1	3
415.208	1	-9
415.379	1	7
415.550	1	7
415.720	1	-3
415.891	1	11
416.062	1	13
416.232	1	7
416.403	1	12
416.573	1	7
416.744	1	15
416.915	1	3
417.085	1	17
417.256	1	17
417.427	1	0
417.597	1	5
417.768	1	8
417.939	1	2
418.109	1	5
418.280	1	8
418.450	1	10
418.621	1	15
418.792	1	6
418.962	1	1
419.133	1	-4
419.304	1	10
419.474	1	9
419.645	1	4
419.815	1	10
419.986	1	18
420.157	1	-3
420.327	1	-8
420.498	1	1
420.669	1	14
420.839	1	3
421.010	1	10
421.180	1	1
421.351	1	4
421.522	1	6
421.692	1	25
421.863	1	14
422.033	1	7
422.204	1	11
422.375	1	11
422.545	1	12
422.716	1	-6
422.886	1	2
423.057	1	10
423.228	1	0
423.398	1	7
423.569	1	3
423.740	1	3
423.910	1	8
424.081	1	9
424.251	1	6
424.422	1	14
424.593	1	8
424.763	1	12
424.934	1	11
425.104	1	16
425.275	1	7
425.445	1	1
425.616	1	10
425.787	1	3
425.957	1	4
426.128	1	5
426.298	1	15
426.469	1	2
426.640	1	7
426.810	1	0
426.981	1	16
427.151	1	4
427.322	1	0
427.493	1	18
427.663	1	8
427.834	1	5
428.004	1	4
428.175	1	4
428.345	1	2
428.516	1	5
428.687	1	21
428.857	1	5
429.028	1	-1
429.198	1	3
429.369	1	1
429.540	1	15
429.710	1	17
429.881	1	1
430.051	1	6
430.222	1	9
430.392	1	4
430.563	1	-12
430.734	1	6
430.904	1	17
431.075	1	9
431.245	1	-3
431.416	1	7
431.586	1	3
431.757	1	2
431.927	1	3
432.098	1	10
432.269	1	1
432.439	1	3
432.610	1	13
432.780	1	1
432.951	1	5
433.121	1	5
433.292	1	13
433.462	1	9
433.633	1	6
433.804	1	13
433.974	1	0
434.145	1	-2
434.315	1	2
434.486	1	-11
434.656	1	8
434.827	1	7
434.997	1	11
435.168	1	0
435.339	1	13
435.509	1	3
435.680	1	10
435.850	1	-1
436.021	1	-2
436.191	1	7
436.362	1	16
436.532	1	9
436.703	1	13
436.873	1	8
437.044	1	8
437.214	1	3
437.385	1	10
437.556	1	-5
437.726	1	1
437.897	1	1
438.067	1	6
438.238	1	13
438.408	1	10
438.579	1	1
438.749	1	2
438.920	1	16
439.090	1	-5
439.261	1	0
439.431	1	4
439.602	1	9
439.772	1	7
439.943	1	1
440.113	1	7
440.284	1	4
440.455	1	-6
440.625	1	17
440.796	1	5
440.966	1	4
441.137	1	0
441.307	1	10
441.478	1	2
441.648	1	8
441.819	1	5
441.989	1	23
442.160	1	5
442.330	1	5
442.501	1	4
442.671	1	3
442.842	1	3
443.012	1	-4
443.183	1	-3
443.353	1	11
443.524	1	10
443.694	1	6
443.865	1	6
444.035	1	3
444.206	1	4
444.376	1	11
444.547	1	4
444.717	1	2
444.888	1	2
445.058	1	-8
445.229	1	0
445.399	1	10
445.570	1	12
445.740	1	10
445.911	1	3
446.081	1	12
446.252	1	-3
446.422	1	2
446.593	1	6
446.763	1	4
446.934	1	-5
447.104	1	2
447.275	1	8
447.445	1	9
447.616	1	1
447.786	1	7
447.957	1	4
448.127	1	8
448.298	1	14
448.468	1	8
448.639	1	-3
448.809	1	1
448.979	1	13
449.150	1	-1
449.320	1	6
449.491	1	1
449.661	1	-2
449.832	1	0
450.002	1	4
450.173	1	5
450.343	1	-3
450.514	1	13
450.684	1	10
450.855	1	10
451.025	1	2
451.196	1	6
451.366	1	22
451.537	1	6
451.707	1	5
451.878	1	-5
452.048	1	-4
452.218	1	3
452.389	1	15
452.559	1	16
452.730	1	3
452.900	1	3
453.071	1	17
453.241	1	10
453.412	1	4
453.582	1	6
453.753	1	7
453.923	1	-2
454.093	1	4
454.264	1	15
454.434	1	5
454.605	1	-3
454.775	1	4
454.946	1	-7
455.116	1	8
455.287	1	1
455.457	1	4
455.628	1	-1
455.798	1	14
455.968	1	6
456.139	1	4
456.309	1	4
456.480	1	4
456.650	1	2
456.821	1	0
456.991	1	8
457.161	1	5
457.332	1	-3
457.502	1	13
457.673	1	-5
457.843	1	11
458.014	1	10
458.184	1	12
458.355	1	10
458.525	1	2
458.695	1	-1
458.866	1	-10
459.036	1	-7
459.207	1	12
459.377	1	4
459.548	1	3
459.718	1	-1
459.888	1	-9
460.059	1	2
460.229	1	-1
460.400	1	3
460.570	1	-2
460.740	1	-1
460.911	1	-5
461.081	1	1
461.252	1	1
461.422	1	4
461.593	1	8
461.763	1	12
461.933	1	6
462.104	1	-5
462.274	1	-5
462.445	1	-1
462.615	1	5
462.785	1	4
462.956	1	-6
463.126	1	7
463.297	1	5
463.467	1	16
463.638	1	-1
463.808	1	2
463.978	1	-6
464.149	1	1
464.319	1	4
464.490	1	8
464.660	1	-3
464.830	1	-9
465.001	1	2
465.171	1	8
465.342	1	1
465.512	1	10
465.682	1	-6
465.853	1	-5
466.023	1	7
466.194	1	8
466.364	1	12
466.534	1	-7
466.705	1	10
466.875	1	-9
467.045	1	-7
467.216	1	-2
467.386	1	-1
467.557	1	16
467.727	1	6
467.897	1	9
468.068	1	9
468.238	1	1
468.409	1	4
468.579	1	8
468.749	1	7
468.920	1	-8
469.090	1	9
469.260	1	3
469.431	1	-1
469.601	1	1
469.772	1	15
469.942	1	-2
470.112	1	-2
470.283	1	2
470.453	1	4
470.623	1	2
470.794	1	-1
470.964	1	-8
471.135	1	3
471.305	1	-1
471.475	1	12
471.646	1	9
471.816	1	6
471.986	1	-4
472.157	1	9
472.327	1	-1
472.497	1	-1
472.668	1	13
472.838	1	-1
473.009	1	4
473.179	1	6
473.349	1	-3
473.520	1	16
473.690	1	0
473.860	1	-6
474.031	1	-12
474.201	1	1
474.371	1	10
474.542	1	-1
474.712	1	-2
474.882	1	0
475.053	1	0
475.223	1	6
475.394	1	-6
475.564	1	5
475.734	1	0
475.905	1	5
476.075	1	10
476.245	1	1
476.416	1	4
476.586	1	6
476.756	1	4
476.927	1	7
477.097	1	-3
477.267	1	4
477.438	1	13
477.608	1	18
477.778	1	-8
477.949	1	-13
478.119	1	7
478.289	1	-10
478.460	1	2
478.630	1	-4
478.800	1	6
478.971	1	-2
479.141	1	9
479.311	1	0
479.482	1	-7
479.652	1	0
479.822	1	3
479.993	1	2
480.163	1	3
480.333	1	-3
480.504	1	11
480.674	1	5
480.844	1	5
481.015	1	4
481.185	1	8
481.355	1	5
481.525	1	-7
481.696	1	3
481.866	1	2
482.036	1	12
482.207	1	-1
482.377	1	1
482.547	1	1
482.718	1	0
482.888	1	8
483.058	1	5
483.229	1	2
483.399	1	3
483.569	1	3
483.740	1	-7
483.910	1	-7
484.080	1	3
484.250	1	-6
484.421	1	-5
484.591	1	3
484.761	1	-2
484.932	1	-6
485.102	1	6
485.272	1	3
485.443	1	-3
485.613	1	-3
485.783	1	-7
485.953	1	1
486.124	1	3
486.294	1	12
486.464	1	12
486.635	1	3
486.805	1	2
486.975	1	-6
487.146	1	9
487.316	1	7
487.486	1	0
487.656	1	6
487.827	1	-1
487.997	1	5
488.167	1	10
488.338	1	-4
488.508	1	1
488.678	1	-8
488.848	1	2
489.019	1	0
489.189	1	13
489.359	1	6
489.529	1	4
489.700	1	-11
489.870	1	1
490.040	1	-7
490.211	1	-8
490.381	1	-7
490.551	1	7
490.721	1	1
490.892	1	-11
491.062	1	-3
491.232	1	-1
491.402	1	-3
491.573	1	4
491.743	1	2
491.913	1	2
492.084	1	0
492.254	1	-5
492.424	1	1
492.594	1	-2
492.765	1	7
492.935	1	15
493.105	1	-5
493.275	1	1
493.446	1	-10
493.616	1	-9
493.786	1	6
493.956	1	6
494.127	1	-2
494.297	1	-5
494.467	1	-6
494.637	1	-5
494.808	1	0
494.978	1	-2
495.148	1	-2
495.318	1	4
495.489	1	-5
495.659	1	4
495.829	1	-2
495.999	1	18
496.170	1	-1
496.340	1	1
496.510	1	6
496.680	1	5
496.851	1	8
497.021	1	0
497.191	1	5
497.361	1	-9
497.532	1	-4
497.702	1	0
497.872	1	1
498.042	1	2
498.213	1	0
498.383	1	-5
498.553	1	-2
498.723	1	-6
498.894	1	2
499.064	1	-2
499.234	1	0
499.404	1	6
499.574	1	8
499.745	1	4
499.915	1	1
500.085	1	0
500.255	1	-9
500.426	1	-1
500.596	1	-5
500.766	1	-2
500.936	1	-7
501.106	1	4
501.277	1	-14
501.447	1	-2
501.617	1	7
501.787	1	5
501.958	1	8
502.128	1	-2
502.298	1	-4
502.468	1	0
502.638	1	9
502.809	1	2
502.979	1	-1
503.149	1	5
503.319	1	13
503.489	1	-15
503.660	1	2
503.830	1	-1
504.000	1	-11
504.170	1	-2
504.340	1	-7
504.511	1	-10
504.681	1	0
504.851	1	-1
505.021	1	0
505.192	1	-5
505.362	1	-5
505.532	1	-3
505.702	1	4
505.872	1	1
506.043	1	5
506.213	1	4
506.383	1	-2
506.553	1	-2
506.723	1	-1
506.893	1	-3
507.064	1	-10
507.234	1	3
507.404	1	-3
507.574	1	0
507.744	1	-5
507.915	1	2
508.085	1	2
508.255	1	-1
508.425	1	-16
508.595	1	0
508.766	1	-11
508.936	1	5
509.106	1	3
509.276	1	-2
509.446	1	-6
509.616	1	-1
509.787	1	-2
509.957	1	5
510.127	1	-1
510.297	1	-8
510.467	1	-3
510.638	1	-2
510.808	1	14
510.978	1	-3
511.148	1	11
511.318	1	3
511.488	1	3
511.659	1	1
511.829	1	-8
511.999	1	-3
512.169	1	0
512.339	1	3
512.509	1	-1
512.680	1	6
512.850	1	-6
513.020	1	5
513.190	1	-1
513.360	1	12
513.530	1	-6
513.700	1	3
513.871	1	-4
514.041	1	3
514.211	1	-8
514.381	1	7
514.551	1	0
514.721	1	-2
514.892	1	1
515.062	1	3
515.232	1	3
515.402	1	-3
515.572	1	5
515.742	1	-11
515.912	1	2
516.083	1	-3
516.253	1	8
516.423	1	2
516.593	1	2
516.763	1	-1
516.933	1	-4
517.104	1	-1
517.274	1	-13
517.444	1	-3
517.614	1	-9
517.784	1	0
517.954	1	-2
518.124	1	-3
518.294	1	-2
518.465	1	2
518.635	1	9
518.805	1	-1
518.975	1	6
519.145	1	1
519.315	1	-1
519.485	1	-7
519.656	1	-3
519.826	1	-7
519.996	1	7
520.166	1	-8
520.336	1	3
520.506	1	-2
520.676	1	5
520.846	1	3
521.017	1	-8
521.187	1	2
521.357	1	-5
521.527	1	-2
521.697	1	-5
521.867	1	1
522.037	1	-6
522.207	1	3
522.377	1	11
522.548	1	-13
522.718	1	-5
522.888	1	-3
523.058	1	2
523.228	1	0
523.398	1	2
523.568	1	-9
523.738	1	-4
523.909	1	-2
524.079	1	-1
524.249	1	-7
524.419	1	-6
524.589	1	-2
524.759	1	1
524.929	1	-2
525.099	1	-7
525.269	1	-5
525.439	1	-5
525.610	1	8
525.780	1	-5
525.950	1	4
526.120	1	4
526.290	1	-10
526.460	1	-1
526.630	1	2
526.800	1	-4
526.970	1	5
527.140	1	-6
527.311	1	6
527.481	1	9
527.651	1	1
527.821	1	-11
527.991	1	1
528.161	1	0
528.331	1	-6
528.501	1	-6
528.671	1	2
528.841	1	-1
529.011	1	4
529.181	1	2
529.352	1	-7
529.522	1	-6
529.692	1	1
529.862	1	5
530.032	1	-4
530.202	1	-8
530.372	1	-1
530.542	1	1
530.712	1	5
530.882	1	-3
531.052	1	1
531.222	1	-1
531.392	1	-13
531.563	1	2
531.733	1	8
531.903	1	-11
532.073	1	2
532.243	1	10
532.413	1	19
532.583	1	2
532.753	1	-2
532.923	1	3
533.093	1	-7
533.263	1	-5
533.433	1	-5
533.603	1	-9
533.773	1	-4
533.943	1	9
534.113	1	-3
534.284	1	4
534.454	1	-5
534.624	1	3
534.794	1	2
534.964	1	5
535.134	1	-8
535.304	1	2
535.474	1	4
535.644	1	4
535.814	1	-3
535.984	1	-4
536.154	1	3
536.324	1	-2
536.494	1	8
536.664	1	5
536.834	1	0
537.004	1	-4
537.174	1	-1
537.344	1	12
537.514	1	-2
537.685	1	8
537.855	1	1
538.025	1	2
538.195	1	-9
538.365	1	5
538.535	1	1
538.705	1	-1
538.875	1	-4
539.045	1	0
539.215	1	-17
539.385	1	-3
539.555	1	-9
539.725	1	3
539.895	1	2
540.065	1	0
540.235	1	-3
540.405	1	-4
540.575	1	-4
540.745	1	2
540.915	1	-1
541.085	1	-11
541.255	1	-5
541.425	1	0
541.595	1	2
541.765	1	2
541.935	1	-3
542.105	1	-7
542.275	1	-3
542.445	1	-5
542.615	1	4
542.785	1	-3
542.955	1	8
543.125	1	0
543.295	1	2
543.465	1	3
543.635	1	-14
543.805	1	3
543.975	1	-12
544.145	1	2
544.315	1	-11
544.485	1	-8
544.655	1	1
544.825	1	4
544.995	1	-5
545.165	1	-1
545.335	1	10
545.505	1	-3
545.675	1	4
545.845	1	5
546.015	1	5
546.185	1	-13
546.355	1	0
546.525	1	4
546.695	1	-5
546.865	1	2
547.035	1	3
547.205	1	6
547.375	1	12
547.545	1	-7
547.715	1	-1
547.885	1	-18
548.055	1	-9
548.225	1	7
548.395	1	2
548.565	1	1
548.735	1	2
548.905	1	6
549.075	1	-2
549.245	1	9
549.415	1	5
549.585	1	-3
549.755	1	-13
549.925	1	-2
550.095	1	-4
550.265	1	0
550.435	1	1
550.605	1	-4
550.775	1	2
550.945	1	-6
551.115	1	0
551.285	1	-7
551.455	1	5
551.625	1	-9
551.795	1	-1
551.965	1	-11
552.135	1	-9
552.305	1	9
552.475	1	6
552.645	1	-7
552.815	1	-2
552.985	1	-7
553.155	1	3
553.325	1	-2
553.495	1	5
553.665	1	-2
553.835	1	4
554.004	1	-1
554.174	1	-8
554.344	1	4
554.514	1	-4
554.684	1	9
554.854	1	-6
555.024	1	5
555.194	1	-1
555.364	1	-2
555.534	1	-13
555.704	1	1
555.874	1	-9
556.044	1	-8
556.214	1	-3
556.384	1	1
556.554	1	8
556.724	1	-7
556.894	1	2
557.064	1	0
557.234	1	6
557.404	1	1
557.573	1	2
557.743	1	-11
557.913	1	-8
558.083	1	3
558.253	1	-5
558.423	1	1
558.593	1	5
558.763	1	-8
558.933	1	-4
559.103	1	-17
559.273	1	2
559.443	1	3
559.613	1	-1
559.783	1	1
559.953	1	-10
560.122	1	5
560.292	1	-15
560.462	1	-7
560.632	1	-8
560.802	1	3
560.972	1	-10
561.142	1	6
561.312	1	-6
561.482	1	0
561.652	1	0
561.822	1	-1
561.992	1	4
562.162	1	1
562.331	1	-12
562.501	1	0
562.671	1	-8
562.841	1	-5
563.011	1	-2
563.181	1	-2
563.351	1	-15
563.521	1	2
563.691	1	0
563.861	1	-6
564.031	1	-4
564.201	1	2
564.370	1	2
564.540	1	-3
564.710	1	-5
564.880	1	0
565.050	1	4
565.220	1	9
565.390	1	-6
565.560	1	1
565.730	1	1
565.900	1	2
566.069	1	12
566.239	1	6
566.409	1	0
566.579	1	3
566.749	1	-7
566.919	1	-3
567.089	1	-8
567.259	1	-4
567.429	1	-12
567.599	1	11
567.768	1	-11
567.938	1	7
568.108	1	2
568.278	1	3
568.448	1	2
568.618	1	6
568.788	1	11
568.958	1	5
569.128	1	-8
569.297	1	-5
569.467	1	7
569.637	1	-5
569.807	1	1
569.977	1	-3
570.147	1	-2
570.317	1	-2
570.487	1	-5
570.656	1	2
570.826	1	1
570.996	1	10
571.166	1	5
571.336	1	-1
571.506	1	-17
571.676	1	-4
571.846	1	6
572.015	1	6
572.185	1	-4
572.355	1	-9
572.525	1	-10
572.695	1	4
572.865	1	2
573.035	1	7
573.205	1	-2
573.374	1	-8
573.544	1	-4
573.714	1	0
573.884	1	-8
574.054	1	0
574.224	1	-6
574.394	1	0
574.563	1	-5
574.733	1	2
574.903	1	0
575.073	1	1
575.243	1	-6
575.413	1	0
575.583	1	-4
575.752	1	3
575.922	1	-3
576.092	1	-4
576.262	1	-7
576.432	1	-5
576.602	1	2
576.772	1	2
576.941	1	0
577.111	1	8
577.281	1	-6
577.451	1	8
577.621	1	0
577.791	1	2
577.960	1	-3
578.130	1	0
578.300	1	-4
578.470	1	-1
578.640	1	-2
578.810	1	-4
578.979	1	8
579.149	1	0
579.319	1	2
579.489	1	7
579.659	1	-2
579.829	1	-3
579.998	1	-6
580.168	1	-4
580.338	1	4
580.508	1	-6
580.678	1	-2
580.848	1	1
581.017	1	5
581.187	1	-2
581.357	1	5
581.527	1	1
581.697	1	-5
581.867	1	-7
582.036	1	-9
582.206	1	4
582.376	1	4
582.546	1	-14
582.716	1	7
582.885	1	-6
583.055	1	-9
583.225	1	-3
583.395	1	1
583.565	1	10
583.735	1	-3
583.904	1	-5
584.074	1	-7
584.244	1	-4
584.414	1	-5
584.584	1	-6
584.753	1	1
584.923	1	-1
585.093	1	-1
585.263	1	1
585.433	1	-10
585.602	1	4
585.772	1	16
585.942	1	-8
586.112	1	-1
586.282	1	3
586.451	1	9
586.621	1	-14
586.791	1	-1
586.961	1	-1
587.131	1	-14
587.300	1	4
587.470	1	-1
587.640	1	-2
587.810	1	-19
587.980	1	1
588.149	1	-1
588.319	1	5
588.489	1	0
588.659	1	-7
588.829	1	-3
588.998	1	-4
589.168	1	-1
589.338	1	-4
589.508	1	-2
589.677	1	1
589.847	1	-7
590.017	1	-1
590.187	1	-1
590.357	1	-9
590.526	1	-4
590.696	1	3
590.866	1	-2
591.036	1	-4
591.205	1	-4
591.375	1	-2
591.545	1	-2
591.715	1	-10
591.885	1	-2
592.054	1	1
592.224	1	1
592.394	1	-6
592.564	1	-4
592.733	1	-2
592.903	1	-5
593.073	1	-10
593.243	1	3
593.412	1	-11
593.582	1	-2
593.752	1	-7
593.922	1	-1
594.091	1	7
594.261	1	-7
594.431	1	8
594.601	1	-5
594.771	1	-4
594.940	1	-12
595.110	1	-3
595.280	1	-5
595.450	1	-4
595.619	1	3
595.789	1	1
595.959	1	-10
596.129	1	5
596.298	1	3
596.468	1	8
596.638	1	-10
596.808	1	-12
596.977	1	-10
597.147	1	-1
597.317	1	-4
597.487	1	-4
597.656	1	5
597.826	1	5
597.996	1	4
598.166	1	-4
598.335	1	-12
598.505	1	0
598.675	1	-4
598.844	1	4
599.014	1	-10
599.184	1	7
599.354	1	10
599.523	1	-9
599.693	1	-3
599.863	1	8
600.033	1	0
600.202	1	-8
600.372	1	-6
600.542	1	3
600.712	1	-4
600.881	1	6
601.051	1	2
601.221	1	-3
601.390	1	-9
601.560	1	1
601.730	1	-4
601.900	1	-6
602.069	1	5
602.239	1	10
602.409	1	-11
602.578	1	0
602.748	1	9
602.918	1	-7
603.088	1	3
603.257	1	-4
603.427	1	-2
603.597	1	-4
603.767	1	-6
603.936	1	1
604.106	1	-15
604.276	1	-5
604.445	1	-9
604.615	1	0
604.785	1	6
604.954	1	2
605.124	1	-2
605.294	1	-5
605.464	1	-6
605.633	1	1
605.803	1	-1
605.973	1	3
606.142	1	0
606.312	1	2
606.482	1	-7
606.652	1	11
606.821	1	-1
606.991	1	0
607.161	1	4
607.330	1	-12
607.500	1	-8
607.670	1	3
607.839	1	-3
608.009	1	1
608.179	1	1
608.348	1	3
608.518	1	2
608.688	1	-5
608.858	1	-8
609.027	1	6
609.197	1	-3
609.367	1	-6
609.536	1	3
609.706	1	12
609.876	1	1
610.045	1	0
610.215	1	-2
610.385	1	0
610.554	1	-6
610.724	1	-1
610.894	1	3
611.063	1	-2
611.233	1	4
611.403	1	4
611.572	1	2
611.742	1	0
611.912	1	-3
612.081	1	8
612.251	1	2
612.421	1	-4
612.590	1	-8
612.760	1	3
612.930	1	5
613.099	1	-10
613.269	1	-5
613.439	1	-11
613.608	1	5
613.778	1	8
613.948	1	12
614.117	1	-10
614.287	1	-4
614.457	1	0
614.626	1	-3
614.796	1	3
614.966	1	-1
615.135	1	13
615.305	1	0
615.475	1	-1
615.644	1	15
615.814	1	15
615.984	1	-8
616.153	1	-5
616.323	1	-10
616.493	1	-4
616.662	1	-2
616.832	1	5
617.002	1	-10
617.171	1	3
617.341	1	6
617.511	1	-10
617.680	1	-5
617.850	1	2
618.019	1	-3
618.189	1	13
618.359	1	5
618.528	1	-3
618.698	1	-2
618.868	1	8
619.037	1	2
619.207	1	-2
619.377	1	1
619.546	1	9
619.716	1	-5
619.885	1	-2
620.055	1	-8
620.225	1	-1
620.394	1	-7
620.564	1	3
620.734	1	-8
620.903	1	-11
621.073	1	4
621.242	1	-1
621.412	1	-2
621.582	1	8
621.751	1	-7
621.921	1	2
622.091	1	2
622.260	1	9
622.430	1	-1
622.599	1	-6
622.769	1	-9
622.939	1	0
623.108	1	-3
623.278	1	-12
623.448	1	-7
623.617	1	4
623.787	1	-3
623.956	1	9
624.126	1	8
624.296	1	3
624.465	1	0
624.635	1	4
624.804	1	-14
624.974	1	-10
625.144	1	-1
625.313	1	14
625.483	1	4
625.652	1	3
625.822	1	2
625.992	1	1
626.161	1	-2
626.331	1	0
626.501	1	-4
626.670	1	-6
626.840	1	4
627.009	1	-9
627.179	1	0
627.348	1	0
627.518	1	7
627.688	1	-8
627.857	1	7
628.027	1	7
628.196	1	-2
628.366	1	-13
628.536	1	-6
628.705	1	-7
628.875	1	1
629.044	1	-5
629.214	1	-2
629.384	1	5
629.553	1	-1
629.723	1	1
629.892	1	2
630.062	1	2
630.232	1	6
630.401	1	2
630.571	1	-6
630.740	1	-13
630.910	1	9
631.079	1	-3
631.249	1	6
631.419	1	7
631.588	1	5
631.758	1	-11
631.927	1	3
632.097	1	-5
632.266	1	0
632.436	1	6
632.606	1	-2
632.775	1	-1
632.945	1	-12
633.114	1	-10
633.284	1	-6
633.453	1	3
633.623	1	10
633.793	1	-5
633.962	1	2
634.132	1	2
634.301	1	5
634.471	1	2
634.640	1	-8
634.810	1	7
634.979	1	-1
635.149	1	-5
635.319	1	-4
635.488	1	-5
635.658	1	-10
635.827	1	1
635.997	1	-3
636.166	1	4
636.336	1	-8
636.505	1	6
636.675	1	-1
636.845	1	-7
637.014	1	-8
637.184	1	0
637.353	1	-7
637.523	1	-6
637.692	1	4
637.862	1	-5
638.031	1	-7
638.201	1	-6
638.370	1	-1
638.540	1	-2
638.710	1	-14
638.879	1	-3
639.049	1	2
639.218	1	1
639.388	1	1
639.557	1	0
639.727	1	0
639.896	1	-9
640.066	1	2
640.235	1	0
640.405	1	7
640.574	1	4
640.744	1	-4
640.914	1	-2
641.083	1	5
641.253	1	-2
641.422	1	-11
641.592	1	3
641.761	1	1
641.931	1	3
642.100	1	-7
642.270	1	5
642.439	1	4
642.609	1	8
642.778	1	-10
642.948	1	11
643.117	1	-4
643.287	1	-7
643.456	1	-11
643.626	1	1
643.795	1	1
643.965	1	9
644.134	1	-9
644.304	1	-2
644.473	1	-3
644.643	1	-1
644.812	1	-10
644.982	1	2
645.151	1	-9
645.321	1	1
645.490	1	4
645.660	1	-13
645.829	1	-9
645.999	1	-4
646.168	1	11
646.338	1	-7
646.507	1	-6
646.677	1	0
646.846	1	4
647.016	1	1
647.185	1	-9
647.355	1	3
647.524	1	-12
647.694	1	-4
647.863	1	-11
648.033	1	-5
648.202	1	6
648.372	1	-11
648.541	1	1
648.711	1	3
648.880	1	3
649.050	1	14
649.219	1	-1
649.389	1	-11
649.558	1	2
649.728	1	-1
649.897	1	9
650.067	1	2
650.236	1	-7
650.406	1	0
650.575	1	0
650.745	1	6
650.914	1	-5
651.084	1	-6
651.253	1	1
651.423	1	-17
651.592	1	-2
651.762	1	-1
651.931	1	-9
652.101	1	-21
652.270	1	-5
652.440	1	8
652.609	1	6
652.778	1	7
652.948	1	-5
653.117	1	-6
653.287	1	-15
653.456	1	4
653.626	1	6
653.795	1	-3
653.965	1	-4
654.134	1	-11
654.304	1	-3
654.473	1	-10
654.643	1	3
654.812	1	11
654.982	1	-3
655.151	1	4
655.320	1	-7
655.490	1	-3
655.659	1	0
655.829	1	5
655.998	1	7
656.168	1	-10
656.337	1	-11
656.507	1	-8
656.676	1	-7
656.846	1	1
657.015	1	3
657.184	1	0
657.354	1	11
657.523	1	-3
657.693	1	2
657.862	1	-8
658.032	1	-4
658.201	1	-13
658.371	1	-1
658.540	1	-1
658.709	1	-1
658.879	1	10
659.048	1	7
659.218	1	-6
659.387	1	9
659.557	1	6
659.726	1	-1
659.895	1	6
660.065	1	-12
660.234	1	-2
660.404	1	3
660.573	1	-5
660.743	1	-1
660.912	1	3
661.081	1	-9
661.251	1	-9
661.420	1	3
661.590	1	-9
661.759	1	9
661.929	1	-8
662.098	1	-3
662.267	1	-6
662.437	1	-2
662.606	1	-4
662.776	1	-4
662.945	1	-6
663.115	1	6
663.284	1	4
663.453	1	-3
663.623	1	-3
663.792	1	2
663.962	1	9
664.131	1	-13
664.300	1	-4
664.470	1	-10
664.639	1	-6
664.809	1	-3
664.978	1	9
665.148	1	0
665.317	1	-7
665.486	1	-1
665.656	1	3
665.825	1	3
665.995	1	-3
666.164	1	-5
666.333	1	-3
666.503	1	-10
666.672	1	-8
666.842	1	-1
667.011	1	0
667.180	1	2
667.350	1	0
667.519	1	-3
667.689	1	3
667.858	1	-3
668.027	1	4
668.197	1	-8
668.366	1	9
668.536	1	-2
668.705	1	1
668.874	1	8
669.044	1	3
669.213	1	-6
669.382	1	11
669.552	1	-1
669.721	1	-12
669.891	1	-3
670.060	1	3
670.229	1	7
670.399	1	9
670.568	1	10
670.738	1	1
670.907	1	2
671.076	1	4
671.246	1	5
671.415	1	11
671.584	1	-7
671.754	1	-14
671.923	1	-3
672.093	1	-2
672.262	1	-5
672.431	1	3
672.601	1	0
672.770	1	-4
672.939	1	3
673.109	1	-2
673.278	1	-4
673.448	1	-3
673.617	1	-3
673.786	1	-6
