325.333	1	11
325.504	1	0
325.675	1	14
325.846	1	-1
326.017	1	0
326.188	1	11
326.359	1	8
326.531	1	2
326.702	1	4
326.873	1	0
327.044	1	8
327.215	1	6
327.386	1	-4
327.557	1	-1
327.728	1	2
327.899	1	6
328.070	1	9
328.241	1	5
328.412	1	-8
328.583	1	-1
328.754	1	12
328.926	1	13
329.097	1	-2
329.268	1	13
329.439	1	6
329.610	1	10
329.781	1	6
329.952	1	11
330.123	1	1
330.294	1	2
330.465	1	-8
330.636	1	1
330.807	1	9
330.978	1	-1
331.149	1	9
331.320	1	0
331.492	1	7
331.663	1	-4
331.834	1	14
332.005	1	15
332.176	1	14
332.347	1	-8
332.518	1	10
332.689	1	9
332.860	1	4
333.031	1	10
333.202	1	0
333.373	1	13
333.544	1	7
333.715	1	2
333.886	1	-2
334.057	1	4
334.228	1	8
334.399	1	20
334.570	1	7
334.741	1	-4
334.912	1	-1
335.084	1	13
335.255	1	13
335.426	1	3
335.597	1	3
335.768	1	3
335.939	1	12
336.110	1	7
336.281	1	-2
336.452	1	15
336.623	1	-1
336.794	1	2
336.965	1	7
337.136	1	12
337.307	1	-5
337.478	1	6
337.649	1	-3
337.820	1	6
337.991	1	4
338.162	1	3
338.333	1	5
338.504	1	22
338.675	1	-2
338.846	1	1
339.017	1	7
339.188	1	-5
339.359	1	3
339.530	1	-3
339.701	1	8
339.872	1	15
340.043	1	8
340.214	1	10
340.385	1	3
340.556	1	16
340.727	1	2
340.898	1	15
341.069	1	2
341.240	1	-4
341.411	1	10
341.582	1	-1
341.753	1	2
341.924	1	9
342.095	1	1
342.266	1	10
342.437	1	2
342.608	1	6
342.779	1	-1
342.950	1	-2
343.121	1	8
343.292	1	10
343.463	1	19
343.634	1	7
343.805	1	15
343.976	1	19
344.147	1	9
344.318	1	-1
344.489	1	4
344.660	1	27
344.831	1	17
345.002	1	12
345.173	1	11
345.344	1	0
345.515	1	2
345.686	1	9
345.857	1	14
346.028	1	3
346.199	1	17
346.370	1	6
346.541	1	3
346.712	1	12
346.883	1	-1
347.054	1	17
347.225	1	4
347.396	1	7
347.567	1	1
347.738	1	13
347.909	1	13
348.080	1	7
348.251	1	11
348.422	1	18
348.593	1	8
348.764	1	11
348.935	1	5
349.106	1	3
349.277	1	8
349.448	1	6
349.619	1	10
349.790	1	14
349.961	1	11
350.132	1	18
350.303	1	5
350.474	1	10
350.645	1	9
350.816	1	11
350.987	1	18
351.157	1	8
351.328	1	7
351.499	1	16
351.670	1	4
351.841	1	18
352.012	1	15
352.183	1	17
352.354	1	3
352.525	1	12
352.696	1	5
352.867	1	10
353.038	1	11
353.209	1	14
353.380	1	14
353.551	1	21
353.722	1	10
353.893	1	16
354.064	1	12
354.235	1	5
354.406	1	11
354.576	1	16
354.747	1	13
354.918	1	12
355.089	1	8
355.260	1	9
355.431	1	4
355.602	1	16
355.773	1	5
355.944	1	13
356.115	1	22
356.286	1	26
356.457	1	8
356.628	1	13
356.799	1	5
356.970	1	20
357.141	1	20
357.311	1	22
357.482	1	10
357.653	1	6
357.824	1	17
357.995	1	26
358.166	1	12
358.337	1	10
358.508	1	14
358.679	1	8
358.850	1	24
359.021	1	10
359.192	1	20
359.363	1	8
359.533	1	11
359.704	1	5
359.875	1	10
360.046	1	8
360.217	1	15
360.388	1	14
360.559	1	11
360.730	1	4
360.901	1	17
361.072	1	23
361.243	1	14
361.414	1	29
361.584	1	3
361.755	1	11
361.926	1	17
362.097	1	12
362.268	1	22
362.439	1	6
362.610	1	22
362.781	1	8
362.952	1	9
363.123	1	11
363.293	1	4
363.464	1	6
363.635	1	19
363.806	1	5
363.977	1	16
364.148	1	10
364.319	1	19
364.490	1	20
364.661	1	8
364.832	1	17
365.002	1	19
365.173	1	10
365.344	1	14
365.515	1	14
365.686	1	9
365.857	1	24
366.028	1	20
366.199	1	12
366.370	1	18
366.540	1	8
366.711	1	18
366.882	1	13
367.053	1	20
367.224	1	21
367.395	1	13
367.566	1	15
367.737	1	10
367.908	1	16
368.078	1	3
368.249	1	15
368.420	1	19
368.591	1	20
368.762	1	17
368.933	1	7
369.104	1	15
369.274	1	19
369.445	1	20
369.616	1	11
369.787	1	10
369.958	1	7
370.129	1	16
370.300	1	9
370.471	1	15
370.641	1	16
370.812	1	29
370.983	1	9
371.154	1	17
371.325	1	11
371.496	1	10
371.667	1	30
371.837	1	10
372.008	1	9
372.179	1	9
372.350	1	12
372.521	1	17
372.692	1	12
372.863	1	15
373.033	1	17
373.204	1	12
373.375	1	10
373.546	1	12
373.717	1	17
373.888	1	15
374.059	1	9
374.229	1	25
374.400	1	16
374.571	1	9
374.742	1	16
374.913	1	8
375.084	1	19
375.254	1	15
375.425	1	16
375.596	1	23
375.767	1	11
375.938	1	6
376.109	1	6
376.279	1	20
376.450	1	17
376.621	1	16
376.792	1	10
376.963	1	17
377.134	1	9
377.304	1	15
377.475	1	10
377.646	1	10
377.817	1	23
377.988	1	15
378.159	1	19
378.329	1	25
378.500	1	25
378.671	1	14
378.842	1	28
379.013	1	17
379.184	1	17
379.354	1	15
379.525	1	23
379.696	1	25
379.867	1	19
380.038	1	16
380.209	1	23
380.379	1	13
380.550	1	13
380.721	1	12
380.892	1	14
381.063	1	13
381.233	1	9
381.404	1	12
381.575	1	10
381.746	1	20
381.917	1	20
382.087	1	19
382.258	1	23
382.429	1	13
382.600	1	17
382.771	1	13
382.941	1	30
383.112	1	23
383.283	1	23
383.454	1	17
383.625	1	27
383.795	1	20
383.966	1	10
384.137	1	28
384.308	1	15
384.479	1	12
384.649	1	13
384.820	1	13
384.991	1	15
385.162	1	27
385.333	1	21
385.503	1	11
385.674	1	24
385.845	1	16
386.016	1	24
386.187	1	16
386.357	1	22
386.528	1	10
386.699	1	25
386.870	1	14
387.041	1	23
387.211	1	22
387.382	1	26
387.553	1	15
387.724	1	23
387.894	1	13
388.065	1	19
388.236	1	23
388.407	1	17
388.578	1	26
388.748	1	30
388.919	1	21
389.090	1	36
389.261	1	28
389.431	1	6
389.602	1	26
389.773	1	28
389.944	1	17
390.114	1	28
390.285	1	28
390.456	1	21
390.627	1	22
390.798	1	22
390.968	1	21
391.139	1	28
391.310	1	30
391.481	1	21
391.651	1	32
391.822	1	31
391.993	1	26
392.164	1	22
392.334	1	13
392.505	1	22
392.676	1	6
392.847	1	23
393.017	1	16
393.188	1	25
393.359	1	28
393.530	1	29
393.700	1	19
393.871	1	25
394.042	1	23
394.213	1	21
394.383	1	30
394.554	1	21
394.725	1	15
394.896	1	36
395.066	1	17
395.237	1	28
395.408	1	27
395.579	1	25
395.749	1	32
395.920	1	31
396.091	1	6
396.262	1	31
396.432	1	23
396.603	1	19
396.774	1	17
396.945	1	25
397.115	1	29
397.286	1	21
397.457	1	19
397.627	1	23
397.798	1	17
397.969	1	23
398.140	1	27
398.310	1	24
398.481	1	23
398.652	1	23
398.823	1	18
398.993	1	24
399.164	1	17
399.335	1	11
399.505	1	19
399.676	1	20
399.847	1	30
400.018	1	22
400.188	1	25
400.359	1	36
400.530	1	27
400.700	1	24
400.871	1	35
401.042	1	34
401.213	1	35
401.383	1	26
401.554	1	27
401.725	1	19
401.895	1	15
402.066	1	31
402.237	1	25
402.408	1	34
402.578	1	30
402.749	1	18
402.920	1	24
403.090	1	35
403.261	1	13
403.432	1	22
403.603	1	29
403.773	1	34
403.944	1	32
404.115	1	38
404.285	1	28
404.456	1	26
404.627	1	23
404.797	1	33
404.968	1	19
405.139	1	22
405.310	1	22
405.480	1	24
405.651	1	17
405.822	1	22
405.992	1	27
406.163	1	17
406.334	1	40
406.504	1	29
406.675	1	23
406.846	1	26
407.016	1	38
407.187	1	40
407.358	1	31
407.528	1	30
407.699	1	23
407.870	1	32
408.041	1	23
408.211	1	24
408.382	1	35
408.553	1	37
408.723	1	23
408.894	1	26
409.065	1	31
409.235	1	18
409.406	1	28
409.577	1	29
409.747	1	22
409.918	1	35
410.089	1	34
410.259	1	21
410.430	1	28
410.601	1	30
410.771	1	38
410.942	1	33
411.113	1	27
411.283	1	36
411.454	1	45
411.625	1	42
411.795	1	29
411.966	1	28
412.137	1	43
412.307	1	34
412.478	1	30
412.649	1	28
412.819	1	31
412.990	1	29
413.161	1	23
413.331	1	31
413.502	1	28
413.672	1	27
413.843	1	29
414.014	1	28
414.184	1	37
414.355	1	26
414.526	1	31
414.696	1	28
414.867	1	24
415.038	1	16
415.208	1	24
415.379	1	21
415.550	1	30
415.720	1	28
415.891	1	32
416.062	1	29
416.232	1	39
416.403	1	34
416.573	1	15
416.744	1	37
416.915	1	32
417.085	1	23
417.256	1	30
417.427	1	30
417.597	1	25
417.768	1	33
417.939	1	32
418.109	1	25
418.280	1	30
418.450	1	29
418.621	1	27
418.792	1	19
418.962	1	28
419.133	1	27
419.304	1	7
419.474	1	32
419.645	1	28
419.815	1	18
419.986	1	38
420.157	1	24
420.327	1	13
420.498	1	25
420.669	1	32
420.839	1	25
421.010	1	28
421.180	1	28
421.351	1	26
421.522	1	19
421.692	1	35
421.863	1	26
422.033	1	19
422.204	1	29
422.375	1	29
422.545	1	26
422.716	1	21
422.886	1	32
423.057	1	23
423.228	1	18
423.398	1	27
423.569	1	32
423.740	1	13
423.910	1	33
424.081	1	32
424.251	1	25
424.422	1	38
424.593	1	27
424.763	1	26
424.934	1	33
425.104	1	28
425.275	1	18
425.445	1	29
425.616	1	20
425.787	1	21
425.957	1	19
426.128	1	30
426.298	1	25
426.469	1	9
426.640	1	18
426.810	1	13
426.981	1	33
427.151	1	14
427.322	1	29
427.493	1	26
427.663	1	12
427.834	1	17
428.004	1	31
428.175	1	24
428.345	1	8
428.516	1	24
428.687	1	28
428.857	1	29
429.028	1	24
429.198	1	24
429.369	1	22
429.540	1	20
429.710	1	23
429.881	1	15
430.051	1	15
430.222	1	22
430.392	1	24
430.563	1	14
430.734	1	22
430.904	1	21
431.075	1	29
431.245	1	18
431.416	1	26
431.586	1	17
431.757	1	20
431.927	1	24
432.098	1	17
432.269	1	16
432.439	1	8
432.610	1	27
432.780	1	24
432.951	1	14
433.121	1	23
433.292	1	26
433.462	1	21
433.633	1	24
433.804	1	19
433.974	1	21
434.145	1	24
434.315	1	14
434.486	1	9
434.656	1	30
434.827	1	24
434.997	1	26
435.168	1	28
435.339	1	22
435.509	1	13
435.680	1	35
435.850	1	8
436.021	1	15
436.191	1	28
436.362	1	21
436.532	1	24
436.703	1	28
436.873	1	16
437.044	1	24
437.214	1	14
437.385	1	20
437.556	1	25
437.726	1	15
437.897	1	11
438.067	1	13
438.238	1	23
438.408	1	25
438.579	1	17
438.749	1	15
438.920	1	35
439.090	1	12
439.261	1	23
439.431	1	18
439.602	1	27
439.772	1	20
439.943	1	18
440.113	1	26
440.284	1	22
440.455	1	19
440.625	1	35
440.796	1	10
440.966	1	17
441.137	1	30
441.307	1	22
441.478	1	10
441.648	1	21
441.819	1	18
441.989	1	31
442.160	1	25
442.330	1	14
442.501	1	11
442.671	1	12
442.842	1	26
443.012	1	19
443.183	1	18
443.353	1	25
443.524	1	19
443.694	1	23
443.865	1	28
444.035	1	22
444.206	1	17
444.376	1	23
444.547	1	11
444.717	1	16
444.888	1	17
445.058	1	16
445.229	1	24
445.399	1	29
445.570	1	21
445.740	1	30
445.911	1	26
446.081	1	31
446.252	1	18
446.422	1	25
446.593	1	18
446.763	1	22
446.934	1	29
447.104	1	12
447.275	1	14
447.445	1	13
447.616	1	15
447.786	1	18
447.957	1	18
448.127	1	14
448.298	1	14
448.468	1	12
448.639	1	15
448.809	1	10
448.979	1	14
449.150	1	16
449.320	1	11
449.491	1	6
449.661	1	14
449.832	1	4
450.002	1	14
450.173	1	19
450.343	1	13
450.514	1	28
450.684	1	11
450.855	1	17
451.025	1	21
451.196	1	6
451.366	1	22
451.537	1	28
451.707	1	20
451.878	1	15
452.048	1	6
452.218	1	21
452.389	1	28
452.559	1	28
452.730	1	13
452.900	1	20
453.071	1	14
453.241	1	24
453.412	1	20
453.582	1	23
453.753	1	16
453.923	1	10
454.093	1	14
454.264	1	30
454.434	1	13
454.605	1	8
454.775	1	22
454.946	1	7
455.116	1	17
455.287	1	13
455.457	1	20
455.628	1	8
455.798	1	23
455.968	1	18
456.139	1	24
456.309	1	16
456.480	1	14
456.650	1	16
456.821	1	15
456.991	1	13
457.161	1	16
457.332	1	6
457.502	1	20
457.673	1	2
457.843	1	17
458.014	1	8
458.184	1	15
458.355	1	16
458.525	1	16
458.695	1	12
458.866	1	8
459.036	1	19
459.207	1	19
459.377	1	15
459.548	1	16
459.718	1	16
459.888	1	13
460.059	1	21
460.229	1	10
460.400	1	10
460.570	1	8
460.740	1	13
460.911	1	18
461.081	1	22
461.252	1	15
461.422	1	10
461.593	1	19
461.763	1	25
461.933	1	14
462.104	1	4
462.274	1	20
462.445	1	6
462.615	1	22
462.785	1	22
462.956	1	8
463.126	1	9
463.297	1	4
463.467	1	26
463.638	1	21
463.808	1	19
463.978	1	6
464.149	1	5
464.319	1	14
464.490	1	14
464.660	1	16
464.830	1	18
465.001	1	9
465.171	1	15
465.342	1	11
465.512	1	7
465.682	1	8
465.853	1	13
466.023	1	11
466.194	1	17
466.364	1	23
466.534	1	8
466.705	1	16
466.875	1	-1
467.045	1	8
467.216	1	11
467.386	1	13
467.557	1	14
467.727	1	12
467.897	1	7
468.068	1	7
468.238	1	16
468.409	1	22
468.579	1	12
468.749	1	12
468.920	1	11
469.090	1	7
469.260	1	12
469.431	1	7
469.601	1	7
469.772	1	17
469.942	1	18
470.112	1	5
470.283	1	15
470.453	1	10
470.623	1	17
470.794	1	11
470.964	1	7
471.135	1	22
471.305	1	3
471.475	1	17
471.646	1	26
471.816	1	15
471.986	1	7
472.157	1	7
472.327	1	19
472.497	1	14
472.668	1	7
472.838	1	12
473.009	1	19
473.179	1	5
473.349	1	6
473.520	1	26
473.690	1	17
473.860	1	5
474.031	1	5
474.201	1	0
474.371	1	20
474.542	1	7
474.712	1	16
474.882	1	15
475.053	1	14
475.223	1	11
475.394	1	6
475.564	1	20
475.734	1	6
475.905	1	13
476.075	1	19
476.245	1	13
476.416	1	9
476.586	1	11
476.756	1	9
476.927	1	7
477.097	1	4
477.267	1	3
477.438	1	17
477.608	1	15
477.778	1	6
477.949	1	7
478.119	1	14
478.289	1	9
478.460	1	3
478.630	1	7
478.800	1	10
478.971	1	12
479.141	1	19
479.311	1	-3
479.482	1	6
479.652	1	19
479.822	1	1
479.993	1	11
480.163	1	6
480.333	1	15
480.504	1	19
480.674	1	14
480.844	1	13
481.015	1	20
481.185	1	31
481.355	1	10
481.525	1	-2
481.696	1	12
481.866	1	16
482.036	1	14
482.207	1	15
482.377	1	18
482.547	1	5
482.718	1	8
482.888	1	17
483.058	1	21
483.229	1	5
483.399	1	11
483.569	1	4
483.740	1	11
483.910	1	-1
484.080	1	12
484.250	1	6
484.421	1	2
484.591	1	6
484.761	1	5
484.932	1	4
485.102	1	14
485.272	1	4
485.443	1	19
485.613	1	10
485.783	1	9
485.953	1	8
486.124	1	3
486.294	1	22
486.464	1	10
486.635	1	4
486.805	1	9
486.975	1	6
487.146	1	6
487.316	1	19
487.486	1	13
487.656	1	8
487.827	1	8
487.997	1	8
488.167	1	14
488.338	1	16
488.508	1	15
488.678	1	2
488.848	1	3
489.019	1	11
489.189	1	16
489.359	1	7
489.529	1	10
489.700	1	12
489.870	1	19
490.040	1	15
490.211	1	3
490.381	1	3
490.551	1	6
490.721	1	17
490.892	1	-3
491.062	1	1
491.232	1	6
491.402	1	2
491.573	1	16
491.743	1	14
491.913	1	15
492.084	1	7
492.254	1	2
492.424	1	4
492.594	1	-3
492.765	1	12
492.935	1	16
493.105	1	3
493.275	1	10
493.446	1	-4
493.616	1	-3
493.786	1	9
493.956	1	3
494.127	1	2
494.297	1	1
494.467	1	6
494.637	1	3
494.808	1	18
494.978	1	15
495.148	1	4
495.318	1	11
495.489	1	3
495.659	1	8
495.829	1	8
495.999	1	12
496.170	1	7
496.340	1	10
496.510	1	8
496.680	1	13
496.851	1	15
497.021	1	8
497.191	1	6
497.361	1	0
497.532	1	2
497.702	1	1
497.872	1	2
498.042	1	1
498.213	1	2
498.383	1	5
498.553	1	14
498.723	1	9
498.894	1	9
499.064	1	7
499.234	1	15
499.404	1	13
499.574	1	11
499.745	1	8
499.915	1	5
500.085	1	2
500.255	1	1
500.426	1	7
500.596	1	0
500.766	1	0
500.936	1	7
501.106	1	1
501.277	1	-7
501.447	1	8
501.617	1	4
501.787	1	-1
501.958	1	1
502.128	1	6
502.298	1	5
502.468	1	2
502.638	1	9
502.809	1	2
502.979	1	16
503.149	1	7
503.319	1	22
503.489	1	-9
503.660	1	5
503.830	1	5
504.000	1	6
504.170	1	8
504.340	1	-6
504.511	1	10
504.681	1	7
504.851	1	-2
505.021	1	8
505.192	1	4
505.362	1	3
505.532	1	6
505.702	1	24
505.872	1	-1
506.043	1	6
506.213	1	13
506.383	1	11
506.553	1	3
506.723	1	-6
506.893	1	12
507.064	1	14
507.234	1	-3
507.404	1	-1
507.574	1	6
507.744	1	7
507.915	1	-2
508.085	1	6
508.255	1	-5
508.425	1	3
508.595	1	-1
508.766	1	-2
508.936	1	11
509.106	1	5
509.276	1	9
509.446	1	-5
509.616	1	6
509.787	1	-3
509.957	1	3
510.127	1	-3
510.297	1	-2
510.467	1	16
510.638	1	17
510.808	1	23
510.978	1	-1
511.148	1	-1
511.318	1	9
511.488	1	16
511.659	1	3
511.829	1	4
511.999	1	9
512.169	1	5
512.339	1	12
512.509	1	2
512.680	1	3
512.850	1	9
513.020	1	6
513.190	1	-8
513.360	1	14
513.530	1	4
513.700	1	8
513.871	1	0
514.041	1	5
514.211	1	5
514.381	1	12
514.551	1	0
514.721	1	2
514.892	1	8
515.062	1	6
515.232	1	-3
515.402	1	1
515.572	1	6
515.742	1	4
515.912	1	5
516.083	1	12
516.253	1	13
516.423	1	-1
516.593	1	8
516.763	1	14
516.933	1	1
517.104	1	11
517.274	1	-1
517.444	1	6
517.614	1	-3
517.784	1	3
517.954	1	3
518.124	1	9
518.294	1	5
518.465	1	-3
518.635	1	13
518.805	1	8
518.975	1	2
519.145	1	-1
519.315	1	2
519.485	1	-1
519.656	1	1
519.826	1	-7
519.996	1	8
520.166	1	-9
520.336	1	3
520.506	1	-2
520.676	1	7
520.846	1	8
521.017	1	2
521.187	1	9
521.357	1	-10
521.527	1	-3
521.697	1	-2
521.867	1	8
522.037	1	8
522.207	1	11
522.377	1	7
522.548	1	-2
522.718	1	5
522.888	1	13
523.058	1	5
523.228	1	-6
523.398	1	-6
523.568	1	-4
523.738	1	4
523.909	1	1
524.079	1	0
524.249	1	-5
524.419	1	1
524.589	1	11
524.759	1	12
524.929	1	5
525.099	1	7
525.269	1	-1
525.439	1	-5
525.610	1	11
525.780	1	-4
525.950	1	5
526.120	1	-4
526.290	1	1
526.460	1	-5
526.630	1	0
526.800	1	-1
526.970	1	14
527.140	1	3
527.311	1	1
527.481	1	10
527.651	1	9
527.821	1	3
527.991	1	-6
528.161	1	2
528.331	1	-2
528.501	1	7
528.671	1	10
528.841	1	5
529.011	1	10
529.181	1	4
529.352	1	3
529.522	1	1
529.692	1	10
529.862	1	1
530.032	1	-7
530.202	1	-6
530.372	1	4
530.542	1	-3
530.712	1	8
530.882	1	3
531.052	1	2
531.222	1	8
531.392	1	-3
531.563	1	7
531.733	1	-3
531.903	1	2
532.073	1	5
532.243	1	11
532.413	1	18
532.583	1	6
532.753	1	-4
532.923	1	7
533.093	1	4
533.263	1	-4
533.433	1	0
533.603	1	-3
533.773	1	1
533.943	1	-3
534.113	1	7
534.284	1	2
534.454	1	-2
534.624	1	7
534.794	1	5
534.964	1	3
535.134	1	-10
535.304	1	3
535.474	1	11
535.644	1	9
535.814	1	4
535.984	1	-3
536.154	1	-10
536.324	1	-5
536.494	1	3
536.664	1	3
536.834	1	8
537.004	1	10
537.174	1	7
537.344	1	6
537.514	1	-2
537.685	1	11
537.855	1	-3
538.025	1	11
538.195	1	-7
538.365	1	-3
538.535	1	3
538.705	1	4
538.875	1	8
539.045	1	12
539.215	1	-2
539.385	1	-3
539.555	1	-2
539.725	1	-2
539.895	1	4
540.065	1	0
540.235	1	8
540.405	1	7
540.575	1	-2
540.745	1	4
540.915	1	-5
541.085	1	-2
541.255	1	4
541.425	1	-1
541.595	1	1
541.765	1	7
541.935	1	-2
542.105	1	3
542.275	1	-1
542.445	1	-2
542.615	1	6
542.785	1	4
542.955	1	16
543.125	1	3
543.295	1	3
543.465	1	2
543.635	1	-3
543.805	1	7
543.975	1	5
544.145	1	-1
544.315	1	-1
544.485	1	-3
544.655	1	3
544.825	1	-2
544.995	1	3
545.165	1	3
545.335	1	15
545.505	1	2
545.675	1	11
545.845	1	6
546.015	1	-3
546.185	1	-4
546.355	1	5
546.525	1	14
546.695	1	1
546.865	1	0
547.035	1	7
547.205	1	13
547.375	1	3
547.545	1	0
547.715	1	9
547.885	1	-3
548.055	1	-10
548.225	1	11
548.395	1	4
548.565	1	6
548.735	1	-6
548.905	1	3
549.075	1	4
549.245	1	1
549.415	1	4
549.585	1	4
549.755	1	1
549.925	1	0
550.095	1	-5
550.265	1	8
550.435	1	1
550.605	1	5
550.775	1	1
550.945	1	4
551.115	1	13
551.285	1	5
551.455	1	0
551.625	1	-14
551.795	1	-2
551.965	1	2
552.135	1	-3
552.305	1	2
552.475	1	8
552.645	1	-1
552.815	1	8
552.985	1	-7
553.155	1	0
553.325	1	-11
553.495	1	-1
553.665	1	-2
553.835	1	-1
554.004	1	3
554.174	1	3
554.344	1	4
554.514	1	0
554.684	1	10
554.854	1	3
555.024	1	-4
555.194	1	-1
555.364	1	-2
555.534	1	-6
555.704	1	4
555.874	1	-2
556.044	1	0
556.214	1	11
556.384	1	5
556.554	1	11
556.724	1	-2
556.894	1	3
557.064	1	6
557.234	1	6
557.404	1	2
557.573	1	8
557.743	1	-14
557.913	1	-2
558.083	1	-3
558.253	1	1
558.423	1	1
558.593	1	8
558.763	1	-1
558.933	1	2
559.103	1	-3
559.273	1	9
559.443	1	12
559.613	1	6
559.783	1	-5
559.953	1	0
560.122	1	7
560.292	1	-6
560.462	1	0
560.632	1	-2
560.802	1	2
560.972	1	-7
561.142	1	1
561.312	1	3
561.482	1	7
561.652	1	-2
561.822	1	2
561.992	1	2
562.162	1	-5
562.331	1	-4
562.501	1	0
562.671	1	4
562.841	1	-5
563.011	1	7
563.181	1	-1
563.351	1	-15
563.521	1	-2
563.691	1	7
563.861	1	4
564.031	1	-6
564.201	1	10
564.370	1	3
564.540	1	-6
564.710	1	-5
564.880	1	-1
565.050	1	4
565.220	1	6
565.390	1	-7
565.560	1	7
565.730	1	9
565.900	1	3
566.069	1	8
566.239	1	12
566.409	1	18
566.579	1	3
566.749	1	-1
566.919	1	-7
567.089	1	0
567.259	1	9
567.429	1	2
567.599	1	18
567.768	1	1
567.938	1	1
568.108	1	-1
568.278	1	-5
568.448	1	2
568.618	1	1
568.788	1	10
568.958	1	4
569.128	1	-4
569.297	1	-6
569.467	1	9
569.637	1	3
569.807	1	4
569.977	1	-3
570.147	1	7
570.317	1	7
570.487	1	0
570.656	1	-1
570.826	1	-3
570.996	1	8
571.166	1	4
571.336	1	-8
571.506	1	3
571.676	1	-4
571.846	1	2
572.015	1	8
572.185	1	0
572.355	1	-4
572.525	1	-2
572.695	1	8
572.865	1	9
573.035	1	6
573.205	1	-8
573.374	1	-8
573.544	1	5
573.714	1	2
573.884	1	1
574.054	1	-7
574.224	1	2
574.394	1	-1
574.563	1	7
574.733	1	-2
574.903	1	3
575.073	1	9
575.243	1	0
575.413	1	2
575.583	1	-5
575.752	1	3
575.922	1	12
576.092	1	-6
576.262	1	1
576.432	1	-8
576.602	1	-5
576.772	1	1
576.941	1	2
577.111	1	-1
577.281	1	7
577.451	1	4
577.621	1	6
577.791	1	0
577.960	1	5
578.130	1	1
578.300	1	-5
578.470	1	4
578.640	1	-8
578.810	1	-3
578.979	1	10
579.149	1	1
579.319	1	1
579.489	1	13
579.659	1	-6
579.829	1	-9
579.998	1	-12
580.168	1	-3
580.338	1	6
580.508	1	-7
580.678	1	6
580.848	1	-1
581.017	1	0
581.187	1	2
581.357	1	-2
581.527	1	6
581.697	1	3
581.867	1	7
582.036	1	-11
582.206	1	1
582.376	1	0
582.546	1	0
582.716	1	4
582.885	1	1
583.055	1	-9
583.225	1	-8
583.395	1	2
583.565	1	4
583.735	1	8
583.904	1	1
584.074	1	2
584.244	1	2
584.414	1	1
584.584	1	1
584.753	1	5
584.923	1	-1
585.093	1	8
585.263	1	-3
585.433	1	-1
585.602	1	9
585.772	1	14
585.942	1	-3
586.112	1	-1
586.282	1	2
586.451	1	12
586.621	1	-3
586.791	1	-6
586.961	1	-6
587.131	1	4
587.300	1	10
587.470	1	1
587.640	1	3
587.810	1	-5
587.980	1	1
588.149	1	2
588.319	1	5
588.489	1	11
588.659	1	-6
588.829	1	2
588.998	1	-5
589.168	1	-10
589.338	1	-6
589.508	1	2
589.677	1	5
589.847	1	1
590.017	1	-4
590.187	1	-3
590.357	1	-2
590.526	1	-1
590.696	1	7
590.866	1	-6
591.036	1	-1
591.205	1	-1
591.375	1	3
591.545	1	-3
591.715	1	-3
591.885	1	3
592.054	1	1
592.224	1	-3
592.394	1	2
592.564	1	6
592.733	1	0
592.903	1	-1
593.073	1	-11
593.243	1	1
593.412	1	-6
593.582	1	0
593.752	1	-5
593.922	1	-3
594.091	1	-2
594.261	1	-8
594.431	1	1
594.601	1	3
594.771	1	1
594.940	1	-9
595.110	1	-5
595.280	1	5
595.450	1	-1
595.619	1	2
595.789	1	-10
595.959	1	-7
596.129	1	-1
596.298	1	19
596.468	1	-8
596.638	1	-4
596.808	1	-4
596.977	1	-2
597.147	1	-4
597.317	1	-1
597.487	1	-2
597.656	1	4
597.826	1	8
597.996	1	2
598.166	1	-2
598.335	1	0
598.505	1	-1
598.675	1	2
598.844	1	14
599.014	1	-5
599.184	1	7
599.354	1	15
599.523	1	-4
599.693	1	-4
599.863	1	-3
600.033	1	3
600.202	1	0
600.372	1	4
600.542	1	-1
600.712	1	0
600.881	1	4
601.051	1	6
601.221	1	10
601.390	1	0
601.560	1	7
601.730	1	-4
601.900	1	-4
602.069	1	10
602.239	1	1
602.409	1	0
602.578	1	12
602.748	1	12
602.918	1	-3
603.088	1	6
603.257	1	-4
603.427	1	0
603.597	1	6
603.767	1	2
603.936	1	9
604.106	1	-3
604.276	1	3
604.445	1	-5
604.615	1	7
604.785	1	3
604.954	1	3
605.124	1	-4
605.294	1	4
605.464	1	-3
605.633	1	0
605.803	1	1
605.973	1	2
606.142	1	10
606.312	1	8
606.482	1	-1
606.652	1	2
606.821	1	2
606.991	1	-2
607.161	1	11
607.330	1	-1
607.500	1	-2
607.670	1	0
607.839	1	-6
608.009	1	-5
608.179	1	0
608.348	1	-4
608.518	1	10
608.688	1	-4
608.858	1	3
609.027	1	8
609.197	1	7
609.367	1	-14
609.536	1	-3
609.706	1	13
609.876	1	-3
610.045	1	3
610.215	1	5
610.385	1	4
610.554	1	-2
610.724	1	4
610.894	1	-5
611.063	1	7
611.233	1	-3
611.403	1	5
611.572	1	10
611.742	1	0
611.912	1	-4
612.081	1	11
612.251	1	6
612.421	1	3
612.590	1	2
612.760	1	0
612.930	1	6
613.099	1	6
613.269	1	13
613.439	1	-12
613.608	1	-4
613.778	1	-1
613.948	1	12
614.117	1	2
614.287	1	-7
614.457	1	5
614.626	1	-2
614.796	1	5
614.966	1	-9
615.135	1	11
615.305	1	-1
615.475	1	1
615.644	1	16
615.814	1	7
615.984	1	0
616.153	1	2
616.323	1	-6
616.493	1	-5
616.662	1	-7
616.832	1	4
617.002	1	5
617.171	1	-1
617.341	1	2
617.511	1	-7
617.680	1	3
617.850	1	-7
618.019	1	-4
618.189	1	14
618.359	1	10
618.528	1	-2
618.698	1	1
618.868	1	4
619.037	1	2
619.207	1	1
619.377	1	2
619.546	1	12
619.716	1	3
619.885	1	-1
620.055	1	-6
620.225	1	10
620.394	1	6
620.564	1	8
620.734	1	-5
620.903	1	-8
621.073	1	3
621.242	1	0
621.412	1	-1
621.582	1	9
621.751	1	4
621.921	1	3
622.091	1	-1
622.260	1	4
622.430	1	5
622.599	1	-6
622.769	1	-6
622.939	1	0
623.108	1	-1
623.278	1	0
623.448	1	2
623.617	1	2
623.787	1	0
623.956	1	4
624.126	1	7
624.296	1	11
624.465	1	5
624.635	1	0
624.804	1	-1
624.974	1	-5
625.144	1	2
625.313	1	10
625.483	1	7
625.652	1	2
625.822	1	8
625.992	1	4
626.161	1	3
626.331	1	-7
626.501	1	3
626.670	1	-3
626.840	1	1
627.009	1	9
627.179	1	4
627.348	1	1
627.518	1	22
627.688	1	-8
627.857	1	7
628.027	1	9
628.196	1	17
628.366	1	-6
628.536	1	0
628.705	1	2
628.875	1	-8
629.044	1	-2
629.214	1	5
629.384	1	13
629.553	1	-5
629.723	1	5
629.892	1	-1
630.062	1	6
630.232	1	12
630.401	1	8
630.571	1	-2
630.740	1	-5
630.910	1	4
631.079	1	0
631.249	1	-3
631.419	1	1
631.588	1	-5
631.758	1	-1
631.927	1	17
632.097	1	6
632.266	1	9
632.436	1	-6
632.606	1	0
632.775	1	6
632.945	1	2
633.114	1	1
633.284	1	-4
633.453	1	2
633.623	1	9
633.793	1	3
633.962	1	1
634.132	1	9
634.301	1	7
634.471	1	3
634.640	1	-4
634.810	1	0
634.979	1	9
635.149	1	0
635.319	1	-2
635.488	1	6
635.658	1	3
635.827	1	4
635.997	1	10
636.166	1	-1
636.336	1	-2
636.505	1	11
636.675	1	2
636.845	1	5
637.014	1	-11
637.184	1	10
637.353	1	9
637.523	1	-6
637.692	1	3
637.862	1	-2
638.031	1	1
638.201	1	10
638.370	1	1
638.540	1	-7
638.710	1	-8
638.879	1	2
639.049	1	1
639.218	1	1
639.388	1	-4
639.557	1	3
639.727	1	3
639.896	1	3
640.066	1	2
640.235	1	-4
640.405	1	4
640.574	1	2
640.744	1	-2
640.914	1	12
641.083	1	2
641.253	1	4
641.422	1	-3
641.592	1	17
641.761	1	-1
641.931	1	7
642.100	1	2
642.270	1	2
642.439	1	6
642.609	1	6
642.778	1	7
642.948	1	11
643.117	1	11
643.287	1	-2
643.456	1	2
643.626	1	0
643.795	1	0
643.965	1	1
644.134	1	4
644.304	1	3
644.473	1	-2
644.643	1	-1
644.812	1	-1
644.982	1	6
645.151	1	-2
645.321	1	8
645.490	1	6
645.660	1	-1
645.829	1	-1
645.999	1	-8
646.168	1	15
646.338	1	-1
646.507	1	0
646.677	1	2
646.846	1	1
647.016	1	7
647.185	1	-2
647.355	1	14
647.524	1	-1
647.694	1	-9
647.863	1	-5
648.033	1	12
648.202	1	7
648.372	1	-4
648.541	1	1
648.711	1	2
648.880	1	-2
649.050	1	2
649.219	1	-1
649.389	1	-4
649.558	1	7
649.728	1	-2
649.897	1	1
650.067	1	16
650.236	1	0
650.406	1	-4
650.575	1	7
650.745	1	2
650.914	1	3
651.084	1	9
651.253	1	5
651.423	1	5
651.592	1	1
651.762	1	-1
651.931	1	4
652.101	1	-3
652.270	1	6
652.440	1	6
652.609	1	11
652.778	1	11
652.948	1	1
653.117	1	-3
653.287	1	-8
653.456	1	1
653.626	1	-3
653.795	1	1
653.965	1	4
654.134	1	-4
654.304	1	3
654.473	1	8
654.643	1	13
654.812	1	15
654.982	1	-3
655.151	1	5
655.320	1	2
655.490	1	-3
655.659	1	10
655.829	1	5
655.998	1	11
656.168	1	0
656.337	1	3
656.507	1	2
656.676	1	-7
656.846	1	-5
657.015	1	8
657.184	1	5
657.354	1	1
657.523	1	-7
657.693	1	11
657.862	1	2
658.032	1	2
658.201	1	-15
658.371	1	8
658.540	1	-2
658.709	1	11
658.879	1	9
659.048	1	11
659.218	1	-3
659.387	1	5
659.557	1	2
659.726	1	-5
659.895	1	-6
660.065	1	-8
660.234	1	-8
660.404	1	10
660.573	1	1
660.743	1	2
660.912	1	9
661.081	1	0
661.251	1	0
661.420	1	-1
661.590	1	7
661.759	1	2
661.929	1	-2
662.098	1	1
662.267	1	-7
662.437	1	14
662.606	1	-8
662.776	1	5
662.945	1	10
663.115	1	10
663.284	1	-4
663.453	1	-8
663.623	1	-1
663.792	1	9
663.962	1	11
664.131	1	5
664.300	1	2
664.470	1	-8
664.639	1	7
664.809	1	0
664.978	1	16
665.148	1	-1
665.317	1	8
665.486	1	-5
665.656	1	4
665.825	1	0
665.995	1	3
666.164	1	2
666.333	1	-2
666.503	1	3
666.672	1	2
666.842	1	12
667.011	1	-1
667.180	1	0
667.350	1	0
667.519	1	1
667.689	1	1
667.858	1	3
668.027	1	-4
668.197	1	-8
668.366	1	11
668.536	1	-5
668.705	1	-2
668.874	1	5
669.044	1	4
669.213	1	7
669.382	1	6
669.552	1	1
669.721	1	-4
669.891	1	-4
670.060	1	2
670.229	1	11
670.399	1	0
670.568	1	6
670.738	1	-6
670.907	1	7
671.076	1	6
671.246	1	13
671.415	1	8
671.584	1	12
671.754	1	-14
671.923	1	4
672.093	1	5
672.262	1	4
672.431	1	9
672.601	1	-4
672.770	1	1
672.939	1	8
673.109	1	4
673.278	1	1
673.448	1	7
673.617	1	7
673.786	1	-3
