325.333	1	9
325.504	1	-7
325.675	1	9
325.846	1	0
326.017	1	8
326.188	1	-6
326.359	1	15
326.531	1	-3
326.702	1	14
326.873	1	18
327.044	1	13
327.215	1	4
327.386	1	0
327.557	1	-6
327.728	1	3
327.899	1	-1
328.070	1	3
328.241	1	9
328.412	1	2
328.583	1	6
328.754	1	14
328.926	1	13
329.097	1	-3
329.268	1	14
329.439	1	12
329.610	1	14
329.781	1	3
329.952	1	13
330.123	1	5
330.294	1	4
330.465	1	2
330.636	1	2
330.807	1	8
330.978	1	-4
331.149	1	7
331.320	1	7
331.492	1	9
331.663	1	1
331.834	1	11
332.005	1	12
332.176	1	12
332.347	1	1
332.518	1	16
332.689	1	10
332.860	1	5
333.031	1	1
333.202	1	6
333.373	1	12
333.544	1	5
333.715	1	7
333.886	1	3
334.057	1	2
334.228	1	11
334.399	1	14
334.570	1	6
334.741	1	5
334.912	1	3
335.084	1	17
335.255	1	8
335.426	1	12
335.597	1	6
335.768	1	14
335.939	1	4
336.110	1	13
336.281	1	6
336.452	1	7
336.623	1	7
336.794	1	2
336.965	1	2
337.136	1	16
337.307	1	6
337.478	1	7
337.649	1	5
337.820	1	6
337.991	1	15
338.162	1	2
338.333	1	1
338.504	1	12
338.675	1	6
338.846	1	1
339.017	1	15
339.188	1	-2
339.359	1	10
339.530	1	-5
339.701	1	12
339.872	1	24
340.043	1	13
340.214	1	19
340.385	1	1
340.556	1	9
340.727	1	16
340.898	1	16
341.069	1	10
341.240	1	9
341.411	1	10
341.582	1	8
341.753	1	2
341.924	1	21
342.095	1	11
342.266	1	14
342.437	1	8
342.608	1	4
342.779	1	12
342.950	1	0
343.121	1	14
343.292	1	21
343.463	1	21
343.634	1	15
343.805	1	9
343.976	1	34
344.147	1	18
344.318	1	12
344.489	1	8
344.660	1	14
344.831	1	17
345.002	1	18
345.173	1	8
345.344	1	2
345.515	1	13
345.686	1	15
345.857	1	12
346.028	1	19
346.199	1	15
346.370	1	17
346.541	1	-1
346.712	1	6
346.883	1	8
347.054	1	14
347.225	1	5
347.396	1	7
347.567	1	13
347.738	1	18
347.909	1	14
348.080	1	10
348.251	1	6
348.422	1	12
348.593	1	11
348.764	1	13
348.935	1	17
349.106	1	12
349.277	1	11
349.448	1	21
349.619	1	17
349.790	1	16
349.961	1	1
350.132	1	13
350.303	1	19
350.474	1	17
350.645	1	11
350.816	1	14
350.987	1	21
351.157	1	8
351.328	1	12
351.499	1	19
351.670	1	15
351.841	1	25
352.012	1	17
352.183	1	25
352.354	1	8
352.525	1	23
352.696	1	11
352.867	1	20
353.038	1	12
353.209	1	12
353.380	1	17
353.551	1	16
353.722	1	14
353.893	1	17
354.064	1	18
354.235	1	17
354.406	1	7
354.576	1	14
354.747	1	18
354.918	1	14
355.089	1	21
355.260	1	15
355.431	1	11
355.602	1	15
355.773	1	11
355.944	1	15
356.115	1	14
356.286	1	22
356.457	1	10
356.628	1	19
356.799	1	24
356.970	1	21
357.141	1	10
357.311	1	28
357.482	1	10
357.653	1	17
357.824	1	15
357.995	1	21
358.166	1	14
358.337	1	11
358.508	1	33
358.679	1	11
358.850	1	10
359.021	1	20
359.192	1	20
359.363	1	18
359.533	1	17
359.704	1	19
359.875	1	17
360.046	1	27
360.217	1	26
360.388	1	19
360.559	1	35
360.730	1	9
360.901	1	25
361.072	1	26
361.243	1	14
361.414	1	39
361.584	1	25
361.755	1	7
361.926	1	32
362.097	1	19
362.268	1	35
362.439	1	25
362.610	1	21
362.781	1	11
362.952	1	21
363.123	1	15
363.293	1	19
363.464	1	20
363.635	1	24
363.806	1	14
363.977	1	15
364.148	1	24
364.319	1	16
364.490	1	20
364.661	1	28
364.832	1	19
365.002	1	23
365.173	1	27
365.344	1	11
365.515	1	18
365.686	1	29
365.857	1	29
366.028	1	28
366.199	1	19
366.370	1	25
366.540	1	19
366.711	1	32
366.882	1	31
367.053	1	14
367.224	1	32
367.395	1	24
367.566	1	24
367.737	1	11
367.908	1	24
368.078	1	21
368.249	1	28
368.420	1	19
368.591	1	23
368.762	1	22
368.933	1	11
369.104	1	20
369.274	1	29
369.445	1	28
369.616	1	20
369.787	1	10
369.958	1	24
370.129	1	22
370.300	1	11
370.471	1	13
370.641	1	22
370.812	1	20
370.983	1	21
371.154	1	16
371.325	1	17
371.496	1	29
371.667	1	31
371.837	1	23
372.008	1	25
372.179	1	15
372.350	1	30
372.521	1	19
372.692	1	15
372.863	1	18
373.033	1	28
373.204	1	21
373.375	1	16
373.546	1	29
373.717	1	18
373.888	1	23
374.059	1	26
374.229	1	33
374.400	1	10
374.571	1	24
374.742	1	18
374.913	1	18
375.084	1	27
375.254	1	12
375.425	1	26
375.596	1	42
375.767	1	22
375.938	1	25
376.109	1	23
376.279	1	17
376.450	1	29
376.621	1	31
376.792	1	22
376.963	1	22
377.134	1	24
377.304	1	25
377.475	1	30
377.646	1	26
377.817	1	24
377.988	1	24
378.159	1	25
378.329	1	15
378.500	1	28
378.671	1	25
378.842	1	23
379.013	1	22
379.184	1	26
379.354	1	26
379.525	1	40
379.696	1	26
379.867	1	38
380.038	1	24
380.209	1	28
380.379	1	26
380.550	1	20
380.721	1	19
380.892	1	30
381.063	1	29
381.233	1	25
381.404	1	30
381.575	1	26
381.746	1	27
381.917	1	19
382.087	1	36
382.258	1	12
382.429	1	19
382.600	1	25
382.771	1	21
382.941	1	28
383.112	1	31
383.283	1	27
383.454	1	26
383.625	1	32
383.795	1	28
383.966	1	30
384.137	1	33
384.308	1	19
384.479	1	33
384.649	1	26
384.820	1	19
384.991	1	31
385.162	1	36
385.333	1	34
385.503	1	19
385.674	1	26
385.845	1	31
386.016	1	28
386.187	1	26
386.357	1	47
386.528	1	21
386.699	1	21
386.870	1	31
387.041	1	42
387.211	1	28
387.382	1	37
387.553	1	41
387.724	1	27
387.894	1	20
388.065	1	35
388.236	1	30
388.407	1	36
388.578	1	30
388.748	1	33
388.919	1	37
389.090	1	45
389.261	1	41
389.431	1	25
389.602	1	27
389.773	1	29
389.944	1	25
390.114	1	26
390.285	1	38
390.456	1	35
390.627	1	34
390.798	1	31
390.968	1	33
391.139	1	37
391.310	1	30
391.481	1	35
391.651	1	38
391.822	1	44
391.993	1	25
392.164	1	34
392.334	1	22
392.505	1	32
392.676	1	23
392.847	1	26
393.017	1	41
393.188	1	27
393.359	1	39
393.530	1	43
393.700	1	37
393.871	1	41
394.042	1	27
394.213	1	35
394.383	1	40
394.554	1	30
394.725	1	26
394.896	1	35
395.066	1	28
395.237	1	32
395.408	1	37
395.579	1	35
395.749	1	37
395.920	1	32
396.091	1	35
396.262	1	35
396.432	1	33
396.603	1	34
396.774	1	32
396.945	1	38
397.115	1	38
397.286	1	31
397.457	1	35
397.627	1	28
397.798	1	35
397.969	1	37
398.140	1	37
398.310	1	35
398.481	1	32
398.652	1	38
398.823	1	40
398.993	1	29
399.164	1	41
399.335	1	32
399.505	1	34
399.676	1	34
399.847	1	35
400.018	1	24
400.188	1	35
400.359	1	39
400.530	1	35
400.700	1	32
400.871	1	40
401.042	1	28
401.213	1	46
401.383	1	29
401.554	1	36
401.725	1	34
401.895	1	32
402.066	1	34
402.237	1	35
402.408	1	38
402.578	1	42
402.749	1	33
402.920	1	36
403.090	1	37
403.261	1	22
403.432	1	44
403.603	1	37
403.773	1	44
403.944	1	40
404.115	1	39
404.285	1	42
404.456	1	41
404.627	1	38
404.797	1	32
404.968	1	41
405.139	1	39
405.310	1	31
405.480	1	40
405.651	1	30
405.822	1	34
405.992	1	38
406.163	1	33
406.334	1	28
406.504	1	33
406.675	1	28
406.846	1	49
407.016	1	42
407.187	1	37
407.358	1	33
407.528	1	40
407.699	1	40
407.870	1	46
408.041	1	33
408.211	1	39
408.382	1	56
408.553	1	30
408.723	1	46
408.894	1	30
409.065	1	42
409.235	1	37
409.406	1	34
409.577	1	33
409.747	1	45
409.918	1	32
410.089	1	51
410.259	1	32
410.430	1	34
410.601	1	38
410.771	1	32
410.942	1	40
411.113	1	45
411.283	1	41
411.454	1	51
411.625	1	41
411.795	1	43
411.966	1	39
412.137	1	43
412.307	1	40
412.478	1	39
412.649	1	50
412.819	1	41
412.990	1	45
413.161	1	34
413.331	1	31
413.502	1	35
413.672	1	39
413.843	1	39
414.014	1	32
414.184	1	46
414.355	1	35
414.526	1	40
414.696	1	28
414.867	1	36
415.038	1	43
415.208	1	36
415.379	1	17
415.550	1	48
415.720	1	32
415.891	1	39
416.062	1	38
416.232	1	36
416.403	1	43
416.573	1	32
416.744	1	41
416.915	1	28
417.085	1	38
417.256	1	36
417.427	1	41
417.597	1	34
417.768	1	41
417.939	1	33
418.109	1	27
418.280	1	40
418.450	1	55
418.621	1	39
418.792	1	39
418.962	1	41
419.133	1	34
419.304	1	30
419.474	1	39
419.645	1	37
419.815	1	34
419.986	1	51
420.157	1	32
420.327	1	29
420.498	1	37
420.669	1	35
420.839	1	41
421.010	1	34
421.180	1	28
421.351	1	37
421.522	1	35
421.692	1	45
421.863	1	46
422.033	1	45
422.204	1	39
422.375	1	40
422.545	1	46
422.716	1	26
422.886	1	40
423.057	1	39
423.228	1	32
423.398	1	42
423.569	1	44
423.740	1	26
423.910	1	44
424.081	1	37
424.251	1	37
424.422	1	42
424.593	1	39
424.763	1	36
424.934	1	47
425.104	1	43
425.275	1	35
425.445	1	40
425.616	1	21
425.787	1	36
425.957	1	39
426.128	1	34
426.298	1	35
426.469	1	33
426.640	1	39
426.810	1	19
426.981	1	39
427.151	1	35
427.322	1	27
427.493	1	35
427.663	1	37
427.834	1	36
428.004	1	47
428.175	1	37
428.345	1	30
428.516	1	39
428.687	1	43
428.857	1	32
429.028	1	30
429.198	1	23
429.369	1	42
429.540	1	42
429.710	1	40
429.881	1	34
430.051	1	30
430.222	1	35
430.392	1	28
430.563	1	24
430.734	1	37
430.904	1	38
431.075	1	39
431.245	1	36
431.416	1	40
431.586	1	19
431.757	1	43
431.927	1	40
432.098	1	39
432.269	1	28
432.439	1	38
432.610	1	34
432.780	1	39
432.951	1	32
433.121	1	30
433.292	1	45
433.462	1	30
433.633	1	29
433.804	1	35
433.974	1	36
434.145	1	33
434.315	1	37
434.486	1	28
434.656	1	39
434.827	1	35
434.997	1	39
435.168	1	36
435.339	1	52
435.509	1	25
435.680	1	43
435.850	1	29
436.021	1	20
436.191	1	29
436.362	1	32
436.532	1	41
436.703	1	32
436.873	1	39
437.044	1	35
437.214	1	35
437.385	1	25
437.556	1	31
437.726	1	29
437.897	1	32
438.067	1	34
438.238	1	40
438.408	1	38
438.579	1	33
438.749	1	30
438.920	1	37
439.090	1	19
439.261	1	42
439.431	1	20
439.602	1	29
439.772	1	41
439.943	1	22
440.113	1	32
440.284	1	31
440.455	1	27
440.625	1	31
440.796	1	30
440.966	1	35
441.137	1	34
441.307	1	37
441.478	1	21
441.648	1	36
441.819	1	26
441.989	1	34
442.160	1	27
442.330	1	26
442.501	1	33
442.671	1	26
442.842	1	33
443.012	1	34
443.183	1	30
443.353	1	37
443.524	1	31
443.694	1	39
443.865	1	33
444.035	1	33
444.206	1	20
444.376	1	36
444.547	1	32
444.717	1	36
444.888	1	22
445.058	1	36
445.229	1	30
445.399	1	32
445.570	1	22
445.740	1	31
445.911	1	30
446.081	1	38
446.252	1	40
446.422	1	26
446.593	1	32
446.763	1	35
446.934	1	28
447.104	1	22
447.275	1	27
447.445	1	28
447.616	1	22
447.786	1	31
447.957	1	39
448.127	1	30
448.298	1	24
448.468	1	33
448.639	1	30
448.809	1	34
448.979	1	44
449.150	1	25
449.320	1	32
449.491	1	16
449.661	1	25
449.832	1	23
450.002	1	28
450.173	1	33
450.343	1	14
450.514	1	32
450.684	1	28
450.855	1	23
451.025	1	22
451.196	1	29
451.366	1	22
451.537	1	38
451.707	1	36
451.878	1	16
452.048	1	21
452.218	1	29
452.389	1	36
452.559	1	40
452.730	1	31
452.900	1	14
453.071	1	33
453.241	1	26
453.412	1	25
453.582	1	27
453.753	1	29
453.923	1	21
454.093	1	27
454.264	1	43
454.434	1	32
454.605	1	27
454.775	1	32
454.946	1	20
455.116	1	36
455.287	1	16
455.457	1	27
455.628	1	23
455.798	1	22
455.968	1	23
456.139	1	25
456.309	1	26
456.480	1	20
456.650	1	29
456.821	1	24
456.991	1	30
457.161	1	38
457.332	1	25
457.502	1	21
457.673	1	34
457.843	1	27
458.014	1	22
458.184	1	20
458.355	1	29
458.525	1	16
458.695	1	20
458.866	1	34
459.036	1	21
459.207	1	25
459.377	1	27
459.548	1	25
459.718	1	10
459.888	1	16
460.059	1	27
460.229	1	19
460.400	1	19
460.570	1	24
460.740	1	25
460.911	1	20
461.081	1	32
461.252	1	25
461.422	1	26
461.593	1	15
461.763	1	38
461.933	1	21
462.104	1	14
462.274	1	18
462.445	1	12
462.615	1	18
462.785	1	28
462.956	1	3
463.126	1	21
463.297	1	23
463.467	1	29
463.638	1	29
463.808	1	28
463.978	1	8
464.149	1	26
464.319	1	33
464.490	1	17
464.660	1	21
464.830	1	18
465.001	1	13
465.171	1	21
465.342	1	20
465.512	1	22
465.682	1	18
465.853	1	26
466.023	1	24
466.194	1	20
466.364	1	31
466.534	1	13
466.705	1	28
466.875	1	20
467.045	1	13
467.216	1	19
467.386	1	25
467.557	1	27
467.727	1	18
467.897	1	19
468.068	1	19
468.238	1	15
468.409	1	18
468.579	1	28
468.749	1	23
468.920	1	10
469.090	1	18
469.260	1	9
469.431	1	10
469.601	1	17
469.772	1	26
469.942	1	19
470.112	1	15
470.283	1	18
470.453	1	26
470.623	1	21
470.794	1	8
470.964	1	10
471.135	1	23
471.305	1	10
471.475	1	15
471.646	1	23
471.816	1	19
471.986	1	9
472.157	1	15
472.327	1	27
472.497	1	21
472.668	1	14
472.838	1	10
473.009	1	15
473.179	1	8
473.349	1	11
473.520	1	23
473.690	1	15
473.860	1	7
474.031	1	10
474.201	1	26
474.371	1	18
474.542	1	8
474.712	1	8
474.882	1	16
475.053	1	18
475.223	1	17
475.394	1	11
475.564	1	14
475.734	1	17
475.905	1	22
476.075	1	25
476.245	1	14
476.416	1	15
476.586	1	19
476.756	1	19
476.927	1	9
477.097	1	12
477.267	1	13
477.438	1	27
477.608	1	24
477.778	1	17
477.949	1	12
478.119	1	25
478.289	1	9
478.460	1	17
478.630	1	13
478.800	1	10
478.971	1	12
479.141	1	15
479.311	1	13
479.482	1	11
479.652	1	22
479.822	1	14
479.993	1	10
480.163	1	14
480.333	1	20
480.504	1	18
480.674	1	19
480.844	1	13
481.015	1	18
481.185	1	21
481.355	1	18
481.525	1	5
481.696	1	14
481.866	1	24
482.036	1	21
482.207	1	17
482.377	1	9
482.547	1	8
482.718	1	23
482.888	1	21
483.058	1	17
483.229	1	18
483.399	1	22
483.569	1	7
483.740	1	7
483.910	1	3
484.080	1	12
484.250	1	9
484.421	1	11
484.591	1	0
484.761	1	24
484.932	1	14
485.102	1	21
485.272	1	9
485.443	1	18
485.613	1	13
485.783	1	13
485.953	1	5
486.124	1	18
486.294	1	14
486.464	1	23
486.635	1	6
486.805	1	7
486.975	1	2
487.146	1	27
487.316	1	20
487.486	1	12
487.656	1	24
487.827	1	1
487.997	1	9
488.167	1	12
488.338	1	16
488.508	1	20
488.678	1	10
488.848	1	10
489.019	1	8
489.189	1	20
489.359	1	11
489.529	1	13
489.700	1	8
489.870	1	14
490.040	1	5
490.211	1	9
490.381	1	11
490.551	1	14
490.721	1	17
490.892	1	0
491.062	1	5
491.232	1	11
491.402	1	9
491.573	1	17
491.743	1	13
491.913	1	15
492.084	1	8
492.254	1	5
492.424	1	13
492.594	1	11
492.765	1	21
492.935	1	12
493.105	1	5
493.275	1	13
493.446	1	4
493.616	1	0
493.786	1	12
493.956	1	9
494.127	1	9
494.297	1	1
494.467	1	8
494.637	1	10
494.808	1	11
494.978	1	14
495.148	1	8
495.318	1	8
495.489	1	6
495.659	1	11
495.829	1	0
495.999	1	18
496.170	1	13
496.340	1	7
496.510	1	17
496.680	1	21
496.851	1	17
497.021	1	12
497.191	1	17
497.361	1	3
497.532	1	14
497.702	1	15
497.872	1	9
498.042	1	7
498.213	1	0
498.383	1	6
498.553	1	21
498.723	1	6
498.894	1	0
499.064	1	4
499.234	1	18
499.404	1	24
499.574	1	7
499.745	1	8
499.915	1	15
500.085	1	2
500.255	1	-7
500.426	1	4
500.596	1	3
500.766	1	10
500.936	1	8
501.106	1	13
501.277	1	9
501.447	1	5
501.617	1	0
501.787	1	1
501.958	1	13
502.128	1	3
502.298	1	6
502.468	1	9
502.638	1	8
502.809	1	4
502.979	1	9
503.149	1	10
503.319	1	18
503.489	1	-6
503.660	1	3
503.830	1	8
504.000	1	7
504.170	1	-1
504.340	1	1
504.511	1	-8
504.681	1	11
504.851	1	9
505.021	1	11
505.192	1	5
505.362	1	7
505.532	1	7
505.702	1	21
505.872	1	-5
506.043	1	15
506.213	1	25
506.383	1	8
506.553	1	-1
506.723	1	-2
506.893	1	4
507.064	1	15
507.234	1	7
507.404	1	11
507.574	1	7
507.744	1	5
507.915	1	3
508.085	1	14
508.255	1	3
508.425	1	6
508.595	1	4
508.766	1	1
508.936	1	15
509.106	1	13
509.276	1	12
509.446	1	0
509.616	1	7
509.787	1	9
509.957	1	11
510.127	1	6
510.297	1	-1
510.467	1	9
510.638	1	3
510.808	1	18
510.978	1	4
511.148	1	12
511.318	1	-1
511.488	1	10
511.659	1	13
511.829	1	14
511.999	1	8
512.169	1	1
512.339	1	22
512.509	1	2
512.680	1	11
512.850	1	4
513.020	1	17
513.190	1	-10
513.360	1	10
513.530	1	8
513.700	1	2
513.871	1	14
514.041	1	6
514.211	1	16
514.381	1	10
514.551	1	-4
514.721	1	7
514.892	1	-3
515.062	1	10
515.232	1	5
515.402	1	14
515.572	1	13
515.742	1	6
515.912	1	-2
516.083	1	8
516.253	1	14
516.423	1	10
516.593	1	13
516.763	1	19
516.933	1	9
517.104	1	13
517.274	1	3
517.444	1	4
517.614	1	-5
517.784	1	2
517.954	1	1
518.124	1	10
518.294	1	8
518.465	1	3
518.635	1	7
518.805	1	9
518.975	1	6
519.145	1	4
519.315	1	3
519.485	1	-6
519.656	1	-1
519.826	1	-4
519.996	1	10
520.166	1	2
520.336	1	14
520.506	1	3
520.676	1	15
520.846	1	5
521.017	1	-2
521.187	1	9
521.357	1	4
521.527	1	5
521.697	1	-1
521.867	1	14
522.037	1	3
522.207	1	10
522.377	1	1
522.548	1	-4
522.718	1	3
522.888	1	11
523.058	1	4
523.228	1	3
523.398	1	-10
523.568	1	-8
523.738	1	9
523.909	1	1
524.079	1	2
524.249	1	0
524.419	1	3
524.589	1	9
524.759	1	7
524.929	1	9
525.099	1	12
525.269	1	-4
525.439	1	8
525.610	1	10
525.780	1	13
525.950	1	1
526.120	1	8
526.290	1	0
526.460	1	-3
526.630	1	6
526.800	1	3
526.970	1	15
527.140	1	-7
527.311	1	6
527.481	1	16
527.651	1	3
527.821	1	3
527.991	1	6
528.161	1	9
528.331	1	5
528.501	1	10
528.671	1	5
528.841	1	9
529.011	1	-3
529.181	1	-2
529.352	1	-3
529.522	1	10
529.692	1	-4
529.862	1	2
530.032	1	3
530.202	1	2
530.372	1	3
530.542	1	4
530.712	1	9
530.882	1	8
531.052	1	3
531.222	1	12
531.392	1	-3
531.563	1	8
531.733	1	1
531.903	1	7
532.073	1	1
532.243	1	10
532.413	1	25
532.583	1	10
532.753	1	-3
532.923	1	5
533.093	1	-4
533.263	1	5
533.433	1	-2
533.603	1	6
533.773	1	10
533.943	1	5
534.113	1	5
534.284	1	2
534.454	1	-4
534.624	1	3
534.794	1	-4
534.964	1	4
535.134	1	-6
535.304	1	3
535.474	1	11
535.644	1	7
535.814	1	1
535.984	1	9
536.154	1	4
536.324	1	-2
536.494	1	15
536.664	1	0
536.834	1	-5
537.004	1	6
537.174	1	9
537.344	1	3
537.514	1	-3
537.685	1	15
537.855	1	9
538.025	1	15
538.195	1	6
538.365	1	9
538.535	1	0
538.705	1	-2
538.875	1	11
539.045	1	7
539.215	1	2
539.385	1	8
539.555	1	2
539.725	1	0
539.895	1	4
540.065	1	8
540.235	1	6
540.405	1	8
540.575	1	-2
540.745	1	0
540.915	1	9
541.085	1	0
541.255	1	4
541.425	1	0
541.595	1	2
541.765	1	-4
541.935	1	2
542.105	1	-2
542.275	1	3
542.445	1	1
542.615	1	12
542.785	1	2
542.955	1	16
543.125	1	0
543.295	1	8
543.465	1	9
543.635	1	-4
543.805	1	1
543.975	1	1
544.145	1	12
544.315	1	1
544.485	1	-3
544.655	1	6
544.825	1	4
544.995	1	3
545.165	1	0
545.335	1	6
545.505	1	0
545.675	1	8
545.845	1	6
546.015	1	2
546.185	1	-3
546.355	1	7
546.525	1	9
546.695	1	-9
546.865	1	10
547.035	1	7
547.205	1	14
547.375	1	9
547.545	1	6
547.715	1	2
547.885	1	0
548.055	1	1
548.225	1	14
548.395	1	-7
548.565	1	14
548.735	1	-1
548.905	1	17
549.075	1	-2
549.245	1	7
549.415	1	5
549.585	1	5
549.755	1	7
549.925	1	1
550.095	1	-5
550.265	1	6
550.435	1	2
550.605	1	13
550.775	1	0
550.945	1	12
551.115	1	16
551.285	1	5
551.455	1	5
551.625	1	6
551.795	1	-5
551.965	1	1
552.135	1	-3
552.305	1	10
552.475	1	6
552.645	1	9
552.815	1	3
552.985	1	10
553.155	1	-2
553.325	1	1
553.495	1	4
553.665	1	3
553.835	1	-5
554.004	1	4
554.174	1	2
554.344	1	4
554.514	1	2
554.684	1	9
554.854	1	2
555.024	1	11
555.194	1	7
555.364	1	-2
555.534	1	-12
555.704	1	0
555.874	1	-1
556.044	1	7
556.214	1	0
556.384	1	3
556.554	1	5
556.724	1	-7
556.894	1	-7
557.064	1	-13
557.234	1	3
557.404	1	-6
557.573	1	2
557.743	1	3
557.913	1	-4
558.083	1	3
558.253	1	1
558.423	1	-3
558.593	1	8
558.763	1	3
558.933	1	0
559.103	1	0
559.273	1	12
559.443	1	10
559.613	1	-1
559.783	1	1
559.953	1	-4
560.122	1	10
560.292	1	0
560.462	1	-9
560.632	1	4
560.802	1	8
560.972	1	-7
561.142	1	8
561.312	1	-6
561.482	1	14
561.652	1	-2
561.822	1	-7
561.992	1	11
562.162	1	3
562.331	1	-7
562.501	1	3
562.671	1	3
562.841	1	-4
563.011	1	6
563.181	1	-7
563.351	1	-8
563.521	1	5
563.691	1	2
563.861	1	3
564.031	1	3
564.201	1	-6
564.370	1	7
564.540	1	-5
564.710	1	7
564.880	1	-2
565.050	1	11
565.220	1	7
565.390	1	1
565.560	1	6
565.730	1	4
565.900	1	4
566.069	1	8
566.239	1	13
566.409	1	8
566.579	1	6
566.749	1	-12
566.919	1	-1
567.089	1	-7
567.259	1	4
567.429	1	-9
567.599	1	11
567.768	1	2
567.938	1	1
568.108	1	5
568.278	1	3
568.448	1	4
568.618	1	1
568.788	1	2
568.958	1	-2
569.128	1	-3
569.297	1	-9
569.467	1	10
569.637	1	-4
569.807	1	5
569.977	1	-11
570.147	1	13
570.317	1	-6
570.487	1	-5
570.656	1	11
570.826	1	6
570.996	1	8
571.166	1	-7
571.336	1	3
571.506	1	-1
571.676	1	0
571.846	1	0
572.015	1	-1
572.185	1	0
572.355	1	-2
572.525	1	-5
572.695	1	7
572.865	1	10
573.035	1	6
573.205	1	-7
573.374	1	-7
573.544	1	5
573.714	1	-1
573.884	1	0
574.054	1	6
574.224	1	4
574.394	1	1
574.563	1	-2
574.733	1	1
574.903	1	-4
575.073	1	1
575.243	1	-3
575.413	1	-5
575.583	1	-7
575.752	1	1
575.922	1	7
576.092	1	-1
576.262	1	0
576.432	1	-5
576.602	1	11
576.772	1	6
576.941	1	-1
577.111	1	5
577.281	1	0
577.451	1	14
577.621	1	10
577.791	1	2
577.960	1	7
578.130	1	4
578.300	1	0
578.470	1	4
578.640	1	-3
578.810	1	-4
578.979	1	3
579.149	1	-8
579.319	1	-8
579.489	1	9
579.659	1	9
579.829	1	6
579.998	1	-15
580.168	1	1
580.338	1	8
580.508	1	1
580.678	1	0
580.848	1	1
581.017	1	2
581.187	1	8
581.357	1	8
581.527	1	0
581.697	1	1
581.867	1	-4
582.036	1	-5
582.206	1	3
582.376	1	-2
582.546	1	-3
582.716	1	5
582.885	1	6
583.055	1	0
583.225	1	5
583.395	1	2
583.565	1	10
583.735	1	0
583.904	1	-1
584.074	1	-2
584.244	1	-2
584.414	1	2
584.584	1	1
584.753	1	10
584.923	1	8
585.093	1	6
585.263	1	-1
585.433	1	0
585.602	1	7
585.772	1	12
585.942	1	-5
586.112	1	2
586.282	1	4
586.451	1	14
586.621	1	2
586.791	1	-9
586.961	1	1
587.131	1	3
587.300	1	11
587.470	1	-7
587.640	1	-9
587.810	1	-17
587.980	1	1
588.149	1	8
588.319	1	14
588.489	1	-1
588.659	1	-6
588.829	1	5
588.998	1	5
589.168	1	7
589.338	1	3
589.508	1	4
589.677	1	4
589.847	1	10
590.017	1	-3
590.187	1	10
590.357	1	-6
590.526	1	-9
590.696	1	9
590.866	1	-8
591.036	1	14
591.205	1	7
591.375	1	3
591.545	1	1
591.715	1	-7
591.885	1	5
592.054	1	0
592.224	1	2
592.394	1	-11
592.564	1	1
592.733	1	3
592.903	1	-2
593.073	1	-8
593.243	1	16
593.412	1	-10
593.582	1	3
593.752	1	-2
593.922	1	3
594.091	1	13
594.261	1	-8
594.431	1	17
594.601	1	-3
594.771	1	-7
594.940	1	-4
595.110	1	12
595.280	1	5
595.450	1	2
595.619	1	7
595.789	1	2
595.959	1	-8
596.129	1	5
596.298	1	11
596.468	1	0
596.638	1	1
596.808	1	-6
596.977	1	-3
597.147	1	-6
597.317	1	-3
597.487	1	0
597.656	1	6
597.826	1	12
597.996	1	-5
598.166	1	5
598.335	1	1
598.505	1	5
598.675	1	2
598.844	1	7
599.014	1	-7
599.184	1	-3
599.354	1	10
599.523	1	-1
599.693	1	-1
599.863	1	3
600.033	1	0
600.202	1	-5
600.372	1	-6
600.542	1	2
600.712	1	-2
600.881	1	9
601.051	1	13
601.221	1	9
601.390	1	11
601.560	1	11
601.730	1	-6
601.900	1	4
602.069	1	-2
602.239	1	5
602.409	1	-3
602.578	1	1
602.748	1	9
602.918	1	0
603.088	1	9
603.257	1	-3
603.427	1	4
603.597	1	-6
603.767	1	1
603.936	1	3
604.106	1	-3
604.276	1	5
604.445	1	-3
604.615	1	4
604.785	1	10
604.954	1	3
605.124	1	0
605.294	1	5
605.464	1	-9
605.633	1	-4
605.803	1	11
605.973	1	4
606.142	1	7
606.312	1	17
606.482	1	-2
606.652	1	9
606.821	1	2
606.991	1	0
607.161	1	-1
607.330	1	0
607.500	1	0
607.670	1	5
607.839	1	4
608.009	1	4
608.179	1	5
608.348	1	-3
608.518	1	10
608.688	1	-1
608.858	1	1
609.027	1	4
609.197	1	8
609.367	1	-2
609.536	1	0
609.706	1	5
609.876	1	7
610.045	1	4
610.215	1	11
610.385	1	9
610.554	1	-2
610.724	1	10
610.894	1	7
611.063	1	6
611.233	1	-1
611.403	1	5
611.572	1	3
611.742	1	4
611.912	1	6
612.081	1	2
612.251	1	8
612.421	1	-5
612.590	1	4
612.760	1	-5
612.930	1	8
613.099	1	6
613.269	1	-5
613.439	1	-4
613.608	1	4
613.778	1	6
613.948	1	5
614.117	1	-4
614.287	1	-10
614.457	1	5
614.626	1	1
614.796	1	8
614.966	1	7
615.135	1	17
615.305	1	3
615.475	1	2
615.644	1	18
615.814	1	12
615.984	1	-4
616.153	1	6
616.323	1	2
616.493	1	-8
616.662	1	-1
616.832	1	13
617.002	1	9
617.171	1	0
617.341	1	10
617.511	1	2
617.680	1	-4
617.850	1	6
618.019	1	-8
618.189	1	15
618.359	1	0
618.528	1	7
618.698	1	0
618.868	1	-3
619.037	1	-4
619.207	1	-4
619.377	1	5
619.546	1	6
619.716	1	2
619.885	1	-3
620.055	1	-2
620.225	1	12
620.394	1	10
620.564	1	6
620.734	1	1
620.903	1	-6
621.073	1	-2
621.242	1	11
621.412	1	-4
621.582	1	12
621.751	1	-3
621.921	1	4
622.091	1	3
622.260	1	7
622.430	1	-1
622.599	1	-7
622.769	1	-3
622.939	1	-2
623.108	1	5
623.278	1	0
623.448	1	5
623.617	1	2
623.787	1	2
623.956	1	5
624.126	1	5
624.296	1	4
624.465	1	2
624.635	1	6
624.804	1	-4
624.974	1	-5
625.144	1	-5
625.313	1	15
625.483	1	8
625.652	1	1
625.822	1	10
625.992	1	0
626.161	1	7
626.331	1	3
626.501	1	3
626.670	1	-5
626.840	1	3
627.009	1	7
627.179	1	4
627.348	1	9
627.518	1	13
627.688	1	-12
627.857	1	4
628.027	1	11
628.196	1	12
628.366	1	-16
628.536	1	-3
628.705	1	-1
628.875	1	5
629.044	1	3
629.214	1	11
629.384	1	10
629.553	1	0
629.723	1	11
629.892	1	-1
630.062	1	8
630.232	1	9
630.401	1	5
630.571	1	1
630.740	1	3
630.910	1	6
631.079	1	8
631.249	1	4
631.419	1	3
631.588	1	5
631.758	1	0
631.927	1	4
632.097	1	-2
632.266	1	4
632.436	1	6
632.606	1	-3
632.775	1	6
632.945	1	-1
633.114	1	5
633.284	1	-5
633.453	1	8
633.623	1	15
633.793	1	3
633.962	1	7
634.132	1	3
634.301	1	12
634.471	1	7
634.640	1	7
634.810	1	4
634.979	1	6
635.149	1	-2
635.319	1	3
635.488	1	2
635.658	1	7
635.827	1	-10
635.997	1	12
636.166	1	5
636.336	1	5
636.505	1	7
636.675	1	-1
636.845	1	8
637.014	1	-6
637.184	1	11
637.353	1	-2
637.523	1	5
637.692	1	5
637.862	1	3
638.031	1	-3
638.201	1	11
638.370	1	8
638.540	1	-6
638.710	1	6
638.879	1	0
639.049	1	-1
639.218	1	4
639.388	1	8
639.557	1	6
639.727	1	5
639.896	1	7
640.066	1	5
640.235	1	3
640.405	1	8
640.574	1	5
640.744	1	0
640.914	1	3
641.083	1	13
641.253	1	10
641.422	1	4
641.592	1	10
641.761	1	-1
641.931	1	13
642.100	1	-2
642.270	1	1
642.439	1	5
642.609	1	8
642.778	1	-1
642.948	1	13
643.117	1	14
643.287	1	7
643.456	1	2
643.626	1	10
643.795	1	-6
643.965	1	0
644.134	1	2
644.304	1	-4
644.473	1	3
644.643	1	2
644.812	1	2
644.982	1	3
645.151	1	-5
645.321	1	13
645.490	1	11
645.660	1	-1
645.829	1	5
645.999	1	-4
646.168	1	9
646.338	1	-1
646.507	1	-3
646.677	1	1
646.846	1	2
647.016	1	6
647.185	1	10
647.355	1	10
647.524	1	0
647.694	1	-2
647.863	1	4
648.033	1	-3
648.202	1	6
648.372	1	-10
648.541	1	7
648.711	1	10
648.880	1	11
649.050	1	1
649.219	1	3
649.389	1	5
649.558	1	17
649.728	1	11
649.897	1	5
650.067	1	14
650.236	1	1
650.406	1	-2
650.575	1	5
650.745	1	5
650.914	1	15
651.084	1	13
651.253	1	5
651.423	1	-5
651.592	1	12
651.762	1	5
651.931	1	11
652.101	1	-6
652.270	1	6
652.440	1	5
652.609	1	8
652.778	1	7
652.948	1	5
653.117	1	0
653.287	1	-9
653.456	1	6
653.626	1	2
653.795	1	13
653.965	1	8
654.134	1	-2
654.304	1	11
654.473	1	-3
654.643	1	-1
654.812	1	16
654.982	1	7
655.151	1	9
655.320	1	4
655.490	1	-2
655.659	1	4
655.829	1	12
655.998	1	11
656.168	1	1
656.337	1	-14
656.507	1	-4
656.676	1	-3
656.846	1	2
657.015	1	13
657.184	1	5
657.354	1	5
657.523	1	2
657.693	1	13
657.862	1	3
658.032	1	-2
658.201	1	-3
658.371	1	2
658.540	1	-1
658.709	1	6
658.879	1	10
659.048	1	9
659.218	1	5
659.387	1	15
659.557	1	2
659.726	1	-3
659.895	1	14
660.065	1	-6
660.234	1	1
660.404	1	5
660.573	1	5
660.743	1	9
660.912	1	10
661.081	1	-8
661.251	1	0
661.420	1	1
661.590	1	6
661.759	1	6
661.929	1	3
662.098	1	-1
662.267	1	-6
662.437	1	2
662.606	1	-2
662.776	1	3
662.945	1	9
663.115	1	12
663.284	1	13
663.453	1	-1
663.623	1	-6
663.792	1	11
663.962	1	19
664.131	1	15
664.300	1	-3
664.470	1	-4
664.639	1	4
664.809	1	11
664.978	1	19
665.148	1	12
665.317	1	7
665.486	1	14
665.656	1	3
665.825	1	6
665.995	1	-4
666.164	1	0
666.333	1	0
666.503	1	-7
666.672	1	-1
666.842	1	9
667.011	1	2
667.180	1	6
667.350	1	9
667.519	1	7
667.689	1	3
667.858	1	15
668.027	1	6
668.197	1	-11
668.366	1	7
668.536	1	-6
668.705	1	0
668.874	1	3
669.044	1	12
669.213	1	9
669.382	1	11
669.552	1	9
669.721	1	3
669.891	1	-5
670.060	1	16
670.229	1	7
670.399	1	0
670.568	1	13
670.738	1	1
670.907	1	12
671.076	1	9
671.246	1	9
671.415	1	12
671.584	1	5
671.754	1	-8
671.923	1	2
672.093	1	8
672.262	1	4
672.431	1	10
672.601	1	5
672.770	1	8
672.939	1	9
673.109	1	-3
673.278	1	2
673.448	1	4
673.617	1	18
673.786	1	-5
