325.333	1	10
325.504	1	1
325.675	1	16
325.846	1	1
326.017	1	5
326.188	1	8
326.359	1	7
326.531	1	0
326.702	1	7
326.873	1	8
327.044	1	17
327.215	1	4
327.386	1	4
327.557	1	-6
327.728	1	-11
327.899	1	6
328.070	1	15
328.241	1	4
328.412	1	2
328.583	1	7
328.754	1	24
328.926	1	10
329.097	1	-7
329.268	1	3
329.439	1	12
329.610	1	7
329.781	1	10
329.952	1	3
330.123	1	1
330.294	1	9
330.465	1	-6
330.636	1	16
330.807	1	1
330.978	1	8
331.149	1	13
331.320	1	7
331.492	1	1
331.663	1	8
331.834	1	1
332.005	1	7
332.176	1	11
332.347	1	-2
332.518	1	17
332.689	1	-1
332.860	1	-1
333.031	1	10
333.202	1	8
333.373	1	4
333.544	1	11
333.715	1	7
333.886	1	2
334.057	1	5
334.228	1	14
334.399	1	14
334.570	1	12
334.741	1	9
334.912	1	7
335.084	1	11
335.255	1	13
335.426	1	13
335.597	1	10
335.768	1	13
335.939	1	5
336.110	1	14
336.281	1	2
336.452	1	18
336.623	1	4
336.794	1	9
336.965	1	4
337.136	1	19
337.307	1	3
337.478	1	13
337.649	1	0
337.820	1	10
337.991	1	14
338.162	1	11
338.333	1	5
338.504	1	17
338.675	1	3
338.846	1	0
339.017	1	6
339.188	1	10
339.359	1	11
339.530	1	11
339.701	1	13
339.872	1	24
340.043	1	14
340.214	1	19
340.385	1	4
340.556	1	16
340.727	1	17
340.898	1	14
341.069	1	12
341.240	1	3
341.411	1	11
341.582	1	2
341.753	1	4
341.924	1	25
342.095	1	14
342.266	1	13
342.437	1	2
342.608	1	8
342.779	1	9
342.950	1	1
343.121	1	10
343.292	1	13
343.463	1	25
343.634	1	19
343.805	1	14
343.976	1	23
344.147	1	14
344.318	1	4
344.489	1	6
344.660	1	20
344.831	1	14
345.002	1	11
345.173	1	14
345.344	1	2
345.515	1	19
345.686	1	10
345.857	1	17
346.028	1	10
346.199	1	16
346.370	1	4
346.541	1	8
346.712	1	11
346.883	1	7
347.054	1	20
347.225	1	8
347.396	1	11
347.567	1	4
347.738	1	11
347.909	1	12
348.080	1	13
348.251	1	17
348.422	1	18
348.593	1	15
348.764	1	7
348.935	1	14
349.106	1	2
349.277	1	15
349.448	1	8
349.619	1	12
349.790	1	17
349.961	1	15
350.132	1	18
350.303	1	14
350.474	1	16
350.645	1	18
350.816	1	22
350.987	1	25
351.157	1	5
351.328	1	7
351.499	1	9
351.670	1	19
351.841	1	22
352.012	1	21
352.183	1	25
352.354	1	6
352.525	1	17
352.696	1	10
352.867	1	23
353.038	1	14
353.209	1	18
353.380	1	16
353.551	1	13
353.722	1	27
353.893	1	17
354.064	1	13
354.235	1	12
354.406	1	4
354.576	1	8
354.747	1	19
354.918	1	20
355.089	1	19
355.260	1	13
355.431	1	9
355.602	1	17
355.773	1	9
355.944	1	5
356.115	1	18
356.286	1	28
356.457	1	19
356.628	1	16
356.799	1	24
356.970	1	37
357.141	1	12
357.311	1	27
357.482	1	19
357.653	1	10
357.824	1	20
357.995	1	31
358.166	1	6
358.337	1	11
358.508	1	27
358.679	1	16
358.850	1	26
359.021	1	24
359.192	1	25
359.363	1	18
359.533	1	8
359.704	1	12
359.875	1	18
360.046	1	20
360.217	1	23
360.388	1	23
360.559	1	30
360.730	1	11
360.901	1	21
361.072	1	20
361.243	1	16
361.414	1	29
361.584	1	14
361.755	1	23
361.926	1	18
362.097	1	17
362.268	1	38
362.439	1	16
362.610	1	31
362.781	1	11
362.952	1	20
363.123	1	21
363.293	1	20
363.464	1	15
363.635	1	25
363.806	1	15
363.977	1	12
364.148	1	16
364.319	1	14
364.490	1	23
364.661	1	27
364.832	1	23
365.002	1	29
365.173	1	31
365.344	1	10
365.515	1	27
365.686	1	13
365.857	1	13
366.028	1	27
366.199	1	31
366.370	1	25
366.540	1	24
366.711	1	26
366.882	1	27
367.053	1	29
367.224	1	26
367.395	1	26
367.566	1	39
367.737	1	12
367.908	1	30
368.078	1	12
368.249	1	13
368.420	1	24
368.591	1	28
368.762	1	30
368.933	1	28
369.104	1	23
369.274	1	25
369.445	1	31
369.616	1	7
369.787	1	23
369.958	1	27
370.129	1	23
370.300	1	22
370.471	1	28
370.641	1	24
370.812	1	22
370.983	1	20
371.154	1	25
371.325	1	23
371.496	1	19
371.667	1	32
371.837	1	26
372.008	1	17
372.179	1	22
372.350	1	21
372.521	1	13
372.692	1	27
372.863	1	15
373.033	1	17
373.204	1	10
373.375	1	11
373.546	1	22
373.717	1	16
373.888	1	23
374.059	1	17
374.229	1	25
374.400	1	19
374.571	1	13
374.742	1	12
374.913	1	11
375.084	1	21
375.254	1	16
375.425	1	19
375.596	1	22
375.767	1	39
375.938	1	14
376.109	1	22
376.279	1	13
376.450	1	16
376.621	1	29
376.792	1	23
376.963	1	19
377.134	1	30
377.304	1	30
377.475	1	20
377.646	1	20
377.817	1	36
377.988	1	26
378.159	1	22
378.329	1	18
378.500	1	33
378.671	1	20
378.842	1	26
379.013	1	39
379.184	1	19
379.354	1	35
379.525	1	33
379.696	1	19
379.867	1	34
380.038	1	24
380.209	1	31
380.379	1	31
380.550	1	24
380.721	1	17
380.892	1	20
381.063	1	25
381.233	1	21
381.404	1	28
381.575	1	26
381.746	1	33
381.917	1	29
382.087	1	29
382.258	1	30
382.429	1	25
382.600	1	30
382.771	1	30
382.941	1	39
383.112	1	20
383.283	1	43
383.454	1	30
383.625	1	24
383.795	1	28
383.966	1	36
384.137	1	26
384.308	1	37
384.479	1	41
384.649	1	28
384.820	1	26
384.991	1	29
385.162	1	38
385.333	1	30
385.503	1	30
385.674	1	29
385.845	1	34
386.016	1	35
386.187	1	16
386.357	1	37
386.528	1	25
386.699	1	31
386.870	1	34
387.041	1	27
387.211	1	26
387.382	1	41
387.553	1	23
387.724	1	40
387.894	1	22
388.065	1	27
388.236	1	26
388.407	1	32
388.578	1	40
388.748	1	34
388.919	1	30
389.090	1	50
389.261	1	39
389.431	1	21
389.602	1	40
389.773	1	25
389.944	1	32
390.114	1	31
390.285	1	37
390.456	1	35
390.627	1	33
390.798	1	36
390.968	1	32
391.139	1	36
391.310	1	34
391.481	1	29
391.651	1	40
391.822	1	38
391.993	1	29
392.164	1	26
392.334	1	27
392.505	1	44
392.676	1	35
392.847	1	29
393.017	1	34
393.188	1	39
393.359	1	37
393.530	1	45
393.700	1	29
393.871	1	36
394.042	1	29
394.213	1	41
394.383	1	34
394.554	1	22
394.725	1	27
394.896	1	46
395.066	1	38
395.237	1	43
395.408	1	28
395.579	1	34
395.749	1	38
395.920	1	44
396.091	1	34
396.262	1	30
396.432	1	40
396.603	1	31
396.774	1	39
396.945	1	39
397.115	1	43
397.286	1	42
397.457	1	28
397.627	1	24
397.798	1	34
397.969	1	36
398.140	1	27
398.310	1	32
398.481	1	31
398.652	1	46
398.823	1	35
398.993	1	29
399.164	1	32
399.335	1	29
399.505	1	31
399.676	1	28
399.847	1	36
400.018	1	31
400.188	1	39
400.359	1	34
400.530	1	34
400.700	1	45
400.871	1	35
401.042	1	39
401.213	1	39
401.383	1	32
401.554	1	36
401.725	1	33
401.895	1	31
402.066	1	41
402.237	1	33
402.408	1	46
402.578	1	36
402.749	1	25
402.920	1	35
403.090	1	30
403.261	1	40
403.432	1	42
403.603	1	38
403.773	1	44
403.944	1	42
404.115	1	34
404.285	1	37
404.456	1	33
404.627	1	35
404.797	1	42
404.968	1	34
405.139	1	34
405.310	1	34
405.480	1	30
405.651	1	35
405.822	1	34
405.992	1	44
406.163	1	25
406.334	1	39
406.504	1	32
406.675	1	27
406.846	1	45
407.016	1	42
407.187	1	45
407.358	1	33
407.528	1	40
407.699	1	40
407.870	1	39
408.041	1	40
408.211	1	38
408.382	1	33
408.553	1	51
408.723	1	40
408.894	1	30
409.065	1	44
409.235	1	34
409.406	1	35
409.577	1	35
409.747	1	34
409.918	1	57
410.089	1	58
410.259	1	33
410.430	1	31
410.601	1	47
410.771	1	44
410.942	1	38
411.113	1	38
411.283	1	44
411.454	1	34
411.625	1	42
411.795	1	35
411.966	1	36
412.137	1	46
412.307	1	38
412.478	1	41
412.649	1	35
412.819	1	39
412.990	1	41
413.161	1	35
413.331	1	33
413.502	1	28
413.672	1	44
413.843	1	40
414.014	1	30
414.184	1	46
414.355	1	41
414.526	1	43
414.696	1	29
414.867	1	20
415.038	1	32
415.208	1	28
415.379	1	37
415.550	1	41
415.720	1	21
415.891	1	38
416.062	1	39
416.232	1	48
416.403	1	43
416.573	1	36
416.744	1	36
416.915	1	29
417.085	1	41
417.256	1	28
417.427	1	28
417.597	1	30
417.768	1	22
417.939	1	22
418.109	1	33
418.280	1	29
418.450	1	39
418.621	1	36
418.792	1	40
418.962	1	38
419.133	1	32
419.304	1	29
419.474	1	34
419.645	1	47
419.815	1	37
419.986	1	45
420.157	1	37
420.327	1	34
420.498	1	26
420.669	1	40
420.839	1	36
421.010	1	45
421.180	1	30
421.351	1	28
421.522	1	43
421.692	1	37
421.863	1	40
422.033	1	38
422.204	1	45
422.375	1	34
422.545	1	47
422.716	1	26
422.886	1	45
423.057	1	44
423.228	1	32
423.398	1	33
423.569	1	45
423.740	1	35
423.910	1	34
424.081	1	39
424.251	1	43
424.422	1	42
424.593	1	39
424.763	1	29
424.934	1	46
425.104	1	45
425.275	1	41
425.445	1	40
425.616	1	40
425.787	1	29
425.957	1	39
426.128	1	31
426.298	1	37
426.469	1	23
426.640	1	39
426.810	1	28
426.981	1	45
427.151	1	34
427.322	1	34
427.493	1	30
427.663	1	29
427.834	1	30
428.004	1	32
428.175	1	31
428.345	1	28
428.516	1	33
428.687	1	40
428.857	1	34
429.028	1	36
429.198	1	31
429.369	1	35
429.540	1	40
429.710	1	37
429.881	1	22
430.051	1	28
430.222	1	39
430.392	1	34
430.563	1	33
430.734	1	39
430.904	1	41
431.075	1	38
431.245	1	37
431.416	1	32
431.586	1	27
431.757	1	31
431.927	1	40
432.098	1	39
432.269	1	39
432.439	1	31
432.610	1	38
432.780	1	39
432.951	1	27
433.121	1	31
433.292	1	42
433.462	1	34
433.633	1	32
433.804	1	38
433.974	1	37
434.145	1	27
434.315	1	31
434.486	1	21
434.656	1	32
434.827	1	41
434.997	1	47
435.168	1	22
435.339	1	42
435.509	1	39
435.680	1	42
435.850	1	39
436.021	1	25
436.191	1	38
436.362	1	34
436.532	1	39
436.703	1	37
436.873	1	27
437.044	1	41
437.214	1	27
437.385	1	34
437.556	1	33
437.726	1	39
437.897	1	30
438.067	1	34
438.238	1	19
438.408	1	29
438.579	1	31
438.749	1	26
438.920	1	48
439.090	1	22
439.261	1	43
439.431	1	17
439.602	1	29
439.772	1	29
439.943	1	30
440.113	1	25
440.284	1	38
440.455	1	31
440.625	1	39
440.796	1	25
440.966	1	38
441.137	1	35
441.307	1	40
441.478	1	19
441.648	1	25
441.819	1	29
441.989	1	41
442.160	1	40
442.330	1	36
442.501	1	37
442.671	1	39
442.842	1	37
443.012	1	28
443.183	1	32
443.353	1	31
443.524	1	35
443.694	1	33
443.865	1	37
444.035	1	24
444.206	1	25
444.376	1	35
444.547	1	35
444.717	1	38
444.888	1	22
445.058	1	30
445.229	1	25
445.399	1	33
445.570	1	30
445.740	1	35
445.911	1	28
446.081	1	31
446.252	1	22
446.422	1	30
446.593	1	33
446.763	1	45
446.934	1	24
447.104	1	20
447.275	1	23
447.445	1	31
447.616	1	23
447.786	1	25
447.957	1	26
448.127	1	29
448.298	1	36
448.468	1	26
448.639	1	28
448.809	1	24
448.979	1	44
449.150	1	28
449.320	1	25
449.491	1	23
449.661	1	20
449.832	1	27
450.002	1	23
450.173	1	35
450.343	1	27
450.514	1	33
450.684	1	26
450.855	1	25
451.025	1	23
451.196	1	27
451.366	1	33
451.537	1	35
451.707	1	44
451.878	1	28
452.048	1	28
452.218	1	34
452.389	1	27
452.559	1	43
452.730	1	31
452.900	1	22
453.071	1	32
453.241	1	29
453.412	1	25
453.582	1	30
453.753	1	34
453.923	1	26
454.093	1	34
454.264	1	33
454.434	1	25
454.605	1	25
454.775	1	34
454.946	1	13
455.116	1	40
455.287	1	22
455.457	1	28
455.628	1	20
455.798	1	37
455.968	1	36
456.139	1	39
456.309	1	30
456.480	1	28
456.650	1	20
456.821	1	22
456.991	1	27
457.161	1	24
457.332	1	26
457.502	1	17
457.673	1	16
457.843	1	29
458.014	1	25
458.184	1	32
458.355	1	33
458.525	1	25
458.695	1	22
458.866	1	17
459.036	1	19
459.207	1	32
459.377	1	25
459.548	1	12
459.718	1	18
459.888	1	24
460.059	1	25
460.229	1	12
460.400	1	18
460.570	1	25
460.740	1	17
460.911	1	13
461.081	1	28
461.252	1	27
461.422	1	14
461.593	1	35
461.763	1	34
461.933	1	20
462.104	1	18
462.274	1	22
462.445	1	18
462.615	1	33
462.785	1	25
462.956	1	5
463.126	1	25
463.297	1	12
463.467	1	25
463.638	1	28
463.808	1	14
463.978	1	10
464.149	1	25
464.319	1	21
464.490	1	21
464.660	1	24
464.830	1	11
465.001	1	19
465.171	1	19
465.342	1	14
465.512	1	28
465.682	1	26
465.853	1	12
466.023	1	26
466.194	1	24
466.364	1	27
466.534	1	2
466.705	1	30
466.875	1	14
467.045	1	23
467.216	1	27
467.386	1	24
467.557	1	26
467.727	1	26
467.897	1	23
468.068	1	14
468.238	1	24
468.409	1	28
468.579	1	17
468.749	1	33
468.920	1	11
469.090	1	19
469.260	1	22
469.431	1	10
469.601	1	25
469.772	1	35
469.942	1	21
470.112	1	4
470.283	1	34
470.453	1	23
470.623	1	24
470.794	1	29
470.964	1	8
471.135	1	29
471.305	1	23
471.475	1	10
471.646	1	16
471.816	1	25
471.986	1	21
472.157	1	20
472.327	1	14
472.497	1	11
472.668	1	29
472.838	1	17
473.009	1	19
473.179	1	16
473.349	1	8
473.520	1	18
473.690	1	23
473.860	1	16
474.031	1	1
474.201	1	22
474.371	1	12
474.542	1	24
474.712	1	16
474.882	1	24
475.053	1	25
475.223	1	17
475.394	1	5
475.564	1	14
475.734	1	14
475.905	1	23
476.075	1	19
476.245	1	13
476.416	1	12
476.586	1	22
476.756	1	18
476.927	1	11
477.097	1	12
477.267	1	17
477.438	1	24
477.608	1	31
477.778	1	3
477.949	1	20
478.119	1	20
478.289	1	18
478.460	1	21
478.630	1	14
478.800	1	3
478.971	1	24
479.141	1	13
479.311	1	14
479.482	1	15
479.652	1	24
479.822	1	10
479.993	1	9
480.163	1	15
480.333	1	27
480.504	1	13
480.674	1	17
480.844	1	22
481.015	1	13
481.185	1	20
481.355	1	13
481.525	1	10
481.696	1	16
481.866	1	16
482.036	1	10
482.207	1	20
482.377	1	10
482.547	1	19
482.718	1	12
482.888	1	20
483.058	1	20
483.229	1	13
483.399	1	10
483.569	1	2
483.740	1	14
483.910	1	5
484.080	1	23
484.250	1	-7
484.421	1	18
484.591	1	8
484.761	1	11
484.932	1	6
485.102	1	27
485.272	1	10
485.443	1	15
485.613	1	11
485.783	1	19
485.953	1	15
486.124	1	11
486.294	1	12
486.464	1	18
486.635	1	18
486.805	1	20
486.975	1	2
487.146	1	16
487.316	1	20
487.486	1	20
487.656	1	22
487.827	1	6
487.997	1	8
488.167	1	9
488.338	1	15
488.508	1	20
488.678	1	2
488.848	1	12
489.019	1	-2
489.189	1	19
489.359	1	9
489.529	1	12
489.700	1	5
489.870	1	19
490.040	1	14
490.211	1	9
490.381	1	8
490.551	1	8
490.721	1	17
490.892	1	0
491.062	1	8
491.232	1	12
491.402	1	6
491.573	1	18
491.743	1	9
491.913	1	8
492.084	1	15
492.254	1	11
492.424	1	5
492.594	1	9
492.765	1	17
492.935	1	15
493.105	1	19
493.275	1	13
493.446	1	-2
493.616	1	1
493.786	1	17
493.956	1	10
494.127	1	9
494.297	1	-2
494.467	1	13
494.637	1	9
494.808	1	19
494.978	1	1
495.148	1	15
495.318	1	7
495.489	1	0
495.659	1	11
495.829	1	11
495.999	1	15
496.170	1	10
496.340	1	6
496.510	1	19
496.680	1	15
496.851	1	22
497.021	1	10
497.191	1	9
497.361	1	-4
497.532	1	9
497.702	1	14
497.872	1	11
498.042	1	6
498.213	1	3
498.383	1	7
498.553	1	21
498.723	1	12
498.894	1	6
499.064	1	16
499.234	1	17
499.404	1	16
499.574	1	15
499.745	1	7
499.915	1	13
500.085	1	8
500.255	1	-10
500.426	1	5
500.596	1	4
500.766	1	9
500.936	1	0
501.106	1	6
501.277	1	3
501.447	1	7
501.617	1	1
501.787	1	7
501.958	1	7
502.128	1	8
502.298	1	9
502.468	1	7
502.638	1	8
502.809	1	3
502.979	1	3
503.149	1	5
503.319	1	16
503.489	1	-7
503.660	1	-6
503.830	1	8
504.000	1	6
504.170	1	0
504.340	1	-4
504.511	1	1
504.681	1	10
504.851	1	3
505.021	1	12
505.192	1	2
505.362	1	10
505.532	1	9
505.702	1	15
505.872	1	9
506.043	1	7
506.213	1	18
506.383	1	12
506.553	1	11
506.723	1	-2
506.893	1	3
507.064	1	19
507.234	1	4
507.404	1	-3
507.574	1	9
507.744	1	6
507.915	1	8
508.085	1	6
508.255	1	17
508.425	1	10
508.595	1	5
508.766	1	-10
508.936	1	16
509.106	1	4
509.276	1	12
509.446	1	4
509.616	1	4
509.787	1	10
509.957	1	8
510.127	1	2
510.297	1	3
510.467	1	14
510.638	1	9
510.808	1	24
510.978	1	9
511.148	1	4
511.318	1	11
511.488	1	14
511.659	1	-1
511.829	1	5
511.999	1	8
512.169	1	12
512.339	1	13
512.509	1	-2
512.680	1	1
512.850	1	3
513.020	1	12
513.190	1	-6
513.360	1	7
513.530	1	2
513.700	1	8
513.871	1	-4
514.041	1	21
514.211	1	17
514.381	1	15
514.551	1	-1
514.721	1	0
514.892	1	5
515.062	1	10
515.232	1	0
515.402	1	7
515.572	1	13
515.742	1	7
515.912	1	17
516.083	1	8
516.253	1	13
516.423	1	5
516.593	1	3
516.763	1	10
516.933	1	2
517.104	1	5
517.274	1	1
517.444	1	6
517.614	1	5
517.784	1	8
517.954	1	4
518.124	1	9
518.294	1	5
518.465	1	4
518.635	1	19
518.805	1	7
518.975	1	5
519.145	1	8
519.315	1	3
519.485	1	7
519.656	1	15
519.826	1	-2
519.996	1	10
520.166	1	8
520.336	1	8
520.506	1	7
520.676	1	16
520.846	1	15
521.017	1	4
521.187	1	3
521.357	1	4
521.527	1	4
521.697	1	-3
521.867	1	13
522.037	1	7
522.207	1	10
522.377	1	9
522.548	1	-6
522.718	1	7
522.888	1	9
523.058	1	4
523.228	1	-3
523.398	1	6
523.568	1	-1
523.738	1	1
523.909	1	5
524.079	1	8
524.249	1	5
524.419	1	7
524.589	1	12
524.759	1	16
524.929	1	2
525.099	1	1
525.269	1	-3
525.439	1	-5
525.610	1	19
525.780	1	3
525.950	1	8
526.120	1	-5
526.290	1	2
526.460	1	4
526.630	1	2
526.800	1	4
526.970	1	6
527.140	1	6
527.311	1	11
527.481	1	12
527.651	1	1
527.821	1	-3
527.991	1	1
528.161	1	7
528.331	1	-2
528.501	1	2
528.671	1	8
528.841	1	10
529.011	1	2
529.181	1	6
529.352	1	1
529.522	1	7
529.692	1	7
529.862	1	2
530.032	1	-15
530.202	1	-5
530.372	1	3
530.542	1	1
530.712	1	1
530.882	1	5
531.052	1	2
531.222	1	6
531.392	1	-1
531.563	1	4
531.733	1	3
531.903	1	1
532.073	1	5
532.243	1	8
532.413	1	19
532.583	1	10
532.753	1	2
532.923	1	8
533.093	1	6
533.263	1	2
533.433	1	-1
533.603	1	2
533.773	1	-2
533.943	1	8
534.113	1	-2
534.284	1	6
534.454	1	3
534.624	1	7
534.794	1	-1
534.964	1	14
535.134	1	3
535.304	1	14
535.474	1	-1
535.644	1	7
535.814	1	-3
535.984	1	-2
536.154	1	-1
536.324	1	8
536.494	1	13
536.664	1	-1
536.834	1	0
537.004	1	7
537.174	1	14
537.344	1	13
537.514	1	-9
537.685	1	9
537.855	1	-5
538.025	1	4
538.195	1	-7
538.365	1	4
538.535	1	8
538.705	1	6
538.875	1	13
539.045	1	5
539.215	1	-8
539.385	1	-3
539.555	1	5
539.725	1	2
539.895	1	10
540.065	1	-2
540.235	1	2
540.405	1	3
540.575	1	7
540.745	1	8
540.915	1	7
541.085	1	0
541.255	1	4
541.425	1	2
541.595	1	3
541.765	1	10
541.935	1	-2
542.105	1	9
542.275	1	-1
542.445	1	5
542.615	1	7
542.785	1	1
542.955	1	18
543.125	1	-4
543.295	1	6
543.465	1	10
543.635	1	-1
543.805	1	8
543.975	1	6
544.145	1	13
544.315	1	-5
544.485	1	1
544.655	1	12
544.825	1	4
544.995	1	3
545.165	1	15
545.335	1	1
545.505	1	-2
545.675	1	-3
545.845	1	11
546.015	1	-5
546.185	1	0
546.355	1	0
546.525	1	15
546.695	1	-3
546.865	1	4
547.035	1	5
547.205	1	17
547.375	1	0
547.545	1	12
547.715	1	9
547.885	1	4
548.055	1	3
548.225	1	16
548.395	1	4
548.565	1	4
548.735	1	-7
548.905	1	12
549.075	1	9
549.245	1	-1
549.415	1	2
549.585	1	-3
549.755	1	8
549.925	1	7
550.095	1	-10
550.265	1	-1
550.435	1	0
550.605	1	5
550.775	1	-5
550.945	1	8
551.115	1	11
551.285	1	2
551.455	1	-8
551.625	1	-8
551.795	1	-3
551.965	1	-5
552.135	1	-5
552.305	1	11
552.475	1	6
552.645	1	3
552.815	1	-3
552.985	1	3
553.155	1	-3
553.325	1	3
553.495	1	4
553.665	1	-1
553.835	1	5
554.004	1	0
554.174	1	-4
554.344	1	12
554.514	1	4
554.684	1	13
554.854	1	-1
555.024	1	6
555.194	1	3
555.364	1	-8
555.534	1	1
555.704	1	-2
555.874	1	3
556.044	1	4
556.214	1	7
556.384	1	7
556.554	1	8
556.724	1	-1
556.894	1	2
557.064	1	4
557.234	1	3
557.404	1	1
557.573	1	-3
557.743	1	4
557.913	1	0
558.083	1	0
558.253	1	2
558.423	1	-1
558.593	1	5
558.763	1	-8
558.933	1	5
559.103	1	-1
559.273	1	5
559.443	1	0
559.613	1	8
559.783	1	6
559.953	1	-1
560.122	1	6
560.292	1	-12
560.462	1	0
560.632	1	-4
560.802	1	1
560.972	1	-9
561.142	1	3
561.312	1	0
561.482	1	3
561.652	1	7
561.822	1	-1
561.992	1	10
562.162	1	-3
562.331	1	-3
562.501	1	-2
562.671	1	-3
562.841	1	-9
563.011	1	2
563.181	1	0
563.351	1	-2
563.521	1	5
563.691	1	6
563.861	1	4
564.031	1	1
564.201	1	-2
564.370	1	1
564.540	1	-2
564.710	1	5
564.880	1	5
565.050	1	-4
565.220	1	16
565.390	1	-3
565.560	1	7
565.730	1	2
565.900	1	1
566.069	1	19
566.239	1	8
566.409	1	8
566.579	1	7
566.749	1	3
566.919	1	-5
567.089	1	-8
567.259	1	1
567.429	1	-3
567.599	1	11
567.768	1	-6
567.938	1	6
568.108	1	4
568.278	1	-1
568.448	1	7
568.618	1	-2
568.788	1	9
568.958	1	-15
569.128	1	1
569.297	1	0
569.467	1	9
569.637	1	2
569.807	1	14
569.977	1	-4
570.147	1	4
570.317	1	3
570.487	1	4
570.656	1	2
570.826	1	-1
570.996	1	2
571.166	1	7
571.336	1	8
571.506	1	-1
571.676	1	6
571.846	1	2
572.015	1	8
572.185	1	1
572.355	1	-3
572.525	1	-5
572.695	1	2
572.865	1	11
573.035	1	2
573.205	1	-7
573.374	1	-2
573.544	1	5
573.714	1	-4
573.884	1	10
574.054	1	1
574.224	1	3
574.394	1	-5
574.563	1	-4
574.733	1	-3
574.903	1	11
575.073	1	1
575.243	1	-2
575.413	1	-3
575.583	1	7
575.752	1	6
575.922	1	9
576.092	1	-8
576.262	1	5
576.432	1	3
576.602	1	7
576.772	1	1
576.941	1	2
577.111	1	6
577.281	1	3
577.451	1	13
577.621	1	0
577.791	1	12
577.960	1	0
578.130	1	-3
578.300	1	2
578.470	1	-2
578.640	1	-1
578.810	1	-2
578.979	1	3
579.149	1	-3
579.319	1	6
579.489	1	1
579.659	1	-2
579.829	1	2
579.998	1	3
580.168	1	-7
580.338	1	-3
580.508	1	2
580.678	1	10
580.848	1	-1
581.017	1	-3
581.187	1	13
581.357	1	6
581.527	1	4
581.697	1	-3
581.867	1	-6
582.036	1	-7
582.206	1	-4
582.376	1	-3
582.546	1	1
582.716	1	9
582.885	1	0
583.055	1	-13
583.225	1	2
583.395	1	0
583.565	1	6
583.735	1	3
583.904	1	1
584.074	1	2
584.244	1	-3
584.414	1	0
584.584	1	5
584.753	1	0
584.923	1	-3
585.093	1	4
585.263	1	-2
585.433	1	4
585.602	1	7
585.772	1	15
585.942	1	-4
586.112	1	5
586.282	1	4
586.451	1	8
586.621	1	2
586.791	1	-12
586.961	1	1
587.131	1	-1
587.300	1	9
587.470	1	0
587.640	1	-2
587.810	1	-7
587.980	1	5
588.149	1	1
588.319	1	10
588.489	1	6
588.659	1	-5
588.829	1	1
588.998	1	0
589.168	1	-1
589.338	1	-4
589.508	1	5
589.677	1	7
589.847	1	5
590.017	1	-4
590.187	1	7
590.357	1	3
590.526	1	-10
590.696	1	8
590.866	1	-15
591.036	1	9
591.205	1	4
591.375	1	-3
591.545	1	-2
591.715	1	3
591.885	1	12
592.054	1	2
592.224	1	-3
592.394	1	-11
592.564	1	-2
592.733	1	10
592.903	1	1
593.073	1	0
593.243	1	15
593.412	1	-1
593.582	1	-6
593.752	1	2
593.922	1	-2
594.091	1	9
594.261	1	-12
594.431	1	2
594.601	1	-2
594.771	1	5
594.940	1	-3
595.110	1	14
595.280	1	-1
595.450	1	-8
595.619	1	11
595.789	1	1
595.959	1	-1
596.129	1	2
596.298	1	10
596.468	1	-4
596.638	1	1
596.808	1	-1
596.977	1	-9
597.147	1	-4
597.317	1	0
597.487	1	2
597.656	1	3
597.826	1	11
597.996	1	-4
598.166	1	4
598.335	1	-3
598.505	1	14
598.675	1	3
598.844	1	15
599.014	1	-2
599.184	1	6
599.354	1	10
599.523	1	-6
599.693	1	2
599.863	1	2
600.033	1	5
600.202	1	-2
600.372	1	2
600.542	1	9
600.712	1	-1
600.881	1	11
601.051	1	9
601.221	1	4
601.390	1	-2
601.560	1	6
601.730	1	2
601.900	1	2
602.069	1	7
602.239	1	5
602.409	1	7
602.578	1	9
602.748	1	3
602.918	1	0
603.088	1	9
603.257	1	-10
603.427	1	6
603.597	1	-4
603.767	1	5
603.936	1	5
604.106	1	-2
604.276	1	-3
604.445	1	1
604.615	1	-5
604.785	1	9
604.954	1	-1
605.124	1	14
605.294	1	2
605.464	1	-9
605.633	1	1
605.803	1	1
605.973	1	2
606.142	1	9
606.312	1	13
606.482	1	-6
606.652	1	5
606.821	1	4
606.991	1	7
607.161	1	-4
607.330	1	-1
607.500	1	5
607.670	1	-4
607.839	1	-1
608.009	1	-1
608.179	1	7
608.348	1	0
608.518	1	19
608.688	1	4
608.858	1	-7
609.027	1	4
609.197	1	4
609.367	1	-6
609.536	1	-1
609.706	1	9
609.876	1	9
610.045	1	0
610.215	1	4
610.385	1	0
610.554	1	9
610.724	1	-3
610.894	1	-2
611.063	1	6
611.233	1	9
611.403	1	11
611.572	1	7
611.742	1	-3
611.912	1	3
612.081	1	4
612.251	1	-7
612.421	1	-4
612.590	1	2
612.760	1	-5
612.930	1	8
613.099	1	4
613.269	1	3
613.439	1	0
613.608	1	5
613.778	1	-1
613.948	1	15
614.117	1	-6
614.287	1	-2
614.457	1	0
614.626	1	0
614.796	1	0
614.966	1	2
615.135	1	6
615.305	1	8
615.475	1	5
615.644	1	14
615.814	1	4
615.984	1	-8
616.153	1	-2
616.323	1	2
616.493	1	-1
616.662	1	-4
616.832	1	0
617.002	1	2
617.171	1	1
617.341	1	18
617.511	1	-5
617.680	1	-6
617.850	1	1
618.019	1	4
618.189	1	6
618.359	1	10
618.528	1	2
618.698	1	-1
618.868	1	6
619.037	1	-1
619.207	1	-9
619.377	1	5
619.546	1	14
619.716	1	3
619.885	1	2
620.055	1	0
620.225	1	1
620.394	1	5
620.564	1	10
620.734	1	10
620.903	1	-5
621.073	1	5
621.242	1	2
621.412	1	-6
621.582	1	11
621.751	1	2
621.921	1	4
622.091	1	2
622.260	1	8
622.430	1	13
622.599	1	-3
622.769	1	-3
622.939	1	2
623.108	1	-1
623.278	1	3
623.448	1	0
623.617	1	4
623.787	1	4
623.956	1	-1
624.126	1	9
624.296	1	7
624.465	1	9
624.635	1	10
624.804	1	2
624.974	1	-3
625.144	1	4
625.313	1	18
625.483	1	1
625.652	1	1
625.822	1	6
625.992	1	-1
626.161	1	1
626.331	1	2
626.501	1	2
626.670	1	0
626.840	1	7
627.009	1	2
627.179	1	-1
627.348	1	1
627.518	1	17
627.688	1	-5
627.857	1	11
628.027	1	6
628.196	1	5
628.366	1	-14
628.536	1	4
628.705	1	4
628.875	1	-6
629.044	1	-2
629.214	1	5
629.384	1	9
629.553	1	0
629.723	1	10
629.892	1	12
630.062	1	6
630.232	1	14
630.401	1	5
630.571	1	4
630.740	1	4
630.910	1	3
631.079	1	-2
631.249	1	3
631.419	1	16
631.588	1	-5
631.758	1	-4
631.927	1	12
632.097	1	5
632.266	1	13
632.436	1	-1
632.606	1	1
632.775	1	-4
632.945	1	1
633.114	1	-1
633.284	1	2
633.453	1	3
633.623	1	13
633.793	1	6
633.962	1	9
634.132	1	6
634.301	1	0
634.471	1	2
634.640	1	-3
634.810	1	6
634.979	1	11
635.149	1	-2
635.319	1	-8
635.488	1	6
635.658	1	-2
635.827	1	-1
635.997	1	3
636.166	1	15
636.336	1	1
636.505	1	3
636.675	1	0
636.845	1	-1
637.014	1	-12
637.184	1	17
637.353	1	3
637.523	1	3
637.692	1	9
637.862	1	4
638.031	1	-11
638.201	1	13
638.370	1	5
638.540	1	1
638.710	1	-3
638.879	1	-2
639.049	1	6
639.218	1	15
639.388	1	4
639.557	1	10
639.727	1	8
639.896	1	-1
640.066	1	0
640.235	1	-2
640.405	1	7
640.574	1	12
640.744	1	10
640.914	1	5
641.083	1	8
641.253	1	-1
641.422	1	-4
641.592	1	9
641.761	1	-8
641.931	1	11
642.100	1	4
642.270	1	11
642.439	1	-1
642.609	1	8
642.778	1	7
642.948	1	6
643.117	1	7
643.287	1	2
643.456	1	-7
643.626	1	-4
643.795	1	1
643.965	1	9
644.134	1	11
644.304	1	-2
644.473	1	10
644.643	1	4
644.812	1	-2
644.982	1	9
645.151	1	-3
645.321	1	3
645.490	1	14
645.660	1	1
645.829	1	-1
645.999	1	-2
646.168	1	21
646.338	1	0
646.507	1	-2
646.677	1	0
646.846	1	-5
647.016	1	7
647.185	1	4
647.355	1	7
647.524	1	0
647.694	1	-2
647.863	1	-3
648.033	1	4
648.202	1	3
648.372	1	-2
648.541	1	3
648.711	1	3
648.880	1	6
649.050	1	4
649.219	1	7
649.389	1	1
649.558	1	12
649.728	1	5
649.897	1	10
650.067	1	7
650.236	1	2
650.406	1	3
650.575	1	8
650.745	1	-2
650.914	1	9
651.084	1	10
651.253	1	7
651.423	1	-2
651.592	1	9
651.762	1	4
651.931	1	4
652.101	1	4
652.270	1	2
652.440	1	13
652.609	1	9
652.778	1	7
652.948	1	12
653.117	1	6
653.287	1	-6
653.456	1	6
653.626	1	4
653.795	1	-2
653.965	1	1
654.134	1	11
654.304	1	10
654.473	1	8
654.643	1	8
654.812	1	10
654.982	1	13
655.151	1	16
655.320	1	0
655.490	1	-2
655.659	1	6
655.829	1	8
655.998	1	4
656.168	1	3
656.337	1	6
656.507	1	-2
656.676	1	-5
656.846	1	0
657.015	1	7
657.184	1	8
657.354	1	8
657.523	1	2
657.693	1	8
657.862	1	-4
658.032	1	3
658.201	1	-5
658.371	1	3
658.540	1	-6
658.709	1	10
658.879	1	11
659.048	1	9
659.218	1	7
659.387	1	12
659.557	1	10
659.726	1	-5
659.895	1	-9
660.065	1	1
660.234	1	4
660.404	1	-1
660.573	1	-3
660.743	1	-11
660.912	1	11
661.081	1	-6
661.251	1	-2
661.420	1	4
661.590	1	9
661.759	1	4
661.929	1	-1
662.098	1	10
662.267	1	4
662.437	1	4
662.606	1	9
662.776	1	13
662.945	1	7
663.115	1	9
663.284	1	6
663.453	1	3
663.623	1	-3
663.792	1	9
663.962	1	6
664.131	1	0
664.300	1	4
664.470	1	8
664.639	1	4
664.809	1	8
664.978	1	17
665.148	1	13
665.317	1	4
665.486	1	9
665.656	1	10
665.825	1	5
665.995	1	-8
666.164	1	5
666.333	1	5
666.503	1	-10
666.672	1	7
666.842	1	5
667.011	1	11
667.180	1	4
667.350	1	5
667.519	1	0
667.689	1	6
667.858	1	3
668.027	1	-6
668.197	1	-4
668.366	1	-1
668.536	1	-2
668.705	1	-4
668.874	1	11
669.044	1	6
669.213	1	8
669.382	1	10
669.552	1	-1
669.721	1	-6
669.891	1	-5
670.060	1	-3
670.229	1	4
670.399	1	2
670.568	1	9
670.738	1	6
670.907	1	7
671.076	1	0
671.246	1	15
671.415	1	8
671.584	1	4
671.754	1	-5
671.923	1	0
672.093	1	13
672.262	1	0
672.431	1	10
672.601	1	5
672.770	1	3
672.939	1	13
673.109	1	-2
673.278	1	-1
673.448	1	3
673.617	1	5
673.786	1	-5
