325.333	1	3
325.504	1	-7
325.675	1	4
325.846	1	-1
326.017	1	4
326.188	1	-12
326.359	1	6
326.531	1	-8
326.702	1	4
326.873	1	9
327.044	1	12
327.215	1	-7
327.386	1	4
327.557	1	-5
327.728	1	-1
327.899	1	1
328.070	1	-4
328.241	1	-4
328.412	1	-7
328.583	1	2
328.754	1	7
328.926	1	13
329.097	1	-3
329.268	1	-5
329.439	1	7
329.610	1	6
329.781	1	-1
329.952	1	6
330.123	1	-3
330.294	1	-3
330.465	1	-11
330.636	1	2
330.807	1	3
330.978	1	-5
331.149	1	-6
331.320	1	-1
331.492	1	1
331.663	1	-2
331.834	1	2
332.005	1	-2
332.176	1	0
332.347	1	-6
332.518	1	6
332.689	1	6
332.860	1	-11
333.031	1	-5
333.202	1	1
333.373	1	-1
333.544	1	-2
333.715	1	-2
333.886	1	1
334.057	1	-1
334.228	1	5
334.399	1	3
334.570	1	6
334.741	1	-7
334.912	1	-3
335.084	1	3
335.255	1	-2
335.426	1	1
335.597	1	-8
335.768	1	2
335.939	1	4
336.110	1	5
336.281	1	8
336.452	1	14
336.623	1	-2
336.794	1	1
336.965	1	-1
337.136	1	16
337.307	1	-7
337.478	1	-1
337.649	1	5
337.820	1	-1
337.991	1	-8
338.162	1	-10
338.333	1	3
338.504	1	-5
338.675	1	-3
338.846	1	-11
339.017	1	13
339.188	1	3
339.359	1	7
339.530	1	-1
339.701	1	0
339.872	1	8
340.043	1	4
340.214	1	1
340.385	1	-15
340.556	1	3
340.727	1	1
340.898	1	1
341.069	1	-1
341.240	1	-5
341.411	1	6
341.582	1	-7
341.753	1	-7
341.924	1	14
342.095	1	-4
342.266	1	1
342.437	1	-4
342.608	1	3
342.779	1	-1
342.950	1	-4
343.121	1	6
343.292	1	-2
343.463	1	14
343.634	1	3
343.805	1	7
343.976	1	-2
344.147	1	4
344.318	1	-3
344.489	1	-10
344.660	1	9
344.831	1	9
345.002	1	1
345.173	1	-4
345.344	1	-12
345.515	1	-4
345.686	1	2
345.857	1	5
346.028	1	1
346.199	1	1
346.370	1	-5
346.541	1	-5
346.712	1	-13
346.883	1	1
347.054	1	5
347.225	1	-8
347.396	1	-4
347.567	1	-8
347.738	1	-2
347.909	1	-2
348.080	1	7
348.251	1	-2
348.422	1	14
348.593	1	-2
348.764	1	1
348.935	1	-3
349.106	1	-5
349.277	1	-4
349.448	1	3
349.619	1	-7
349.790	1	4
349.961	1	-5
350.132	1	9
350.303	1	0
350.474	1	-5
350.645	1	-3
350.816	1	0
350.987	1	11
351.157	1	4
351.328	1	-5
351.499	1	-1
351.670	1	4
351.841	1	9
352.012	1	7
352.183	1	11
352.354	1	-4
352.525	1	5
352.696	1	-5
352.867	1	11
353.038	1	3
353.209	1	1
353.380	1	1
353.551	1	11
353.722	1	-1
353.893	1	11
354.064	1	5
354.235	1	-12
354.406	1	-12
354.576	1	-2
354.747	1	12
354.918	1	-1
355.089	1	6
355.260	1	1
355.431	1	-6
355.602	1	4
355.773	1	-6
355.944	1	-2
356.115	1	12
356.286	1	-3
356.457	1	4
356.628	1	9
356.799	1	9
356.970	1	5
357.141	1	6
357.311	1	11
357.482	1	-1
357.653	1	-4
357.824	1	1
357.995	1	10
358.166	1	-5
358.337	1	1
358.508	1	6
358.679	1	-6
358.850	1	9
359.021	1	6
359.192	1	17
359.363	1	5
359.533	1	0
359.704	1	-5
359.875	1	-3
360.046	1	6
360.217	1	7
360.388	1	9
360.559	1	12
360.730	1	-9
360.901	1	2
361.072	1	8
361.243	1	0
361.414	1	15
361.584	1	-7
361.755	1	-9
361.926	1	7
362.097	1	2
362.268	1	15
362.439	1	3
362.610	1	6
362.781	1	-4
362.952	1	7
363.123	1	-3
363.293	1	5
363.464	1	0
363.635	1	-3
363.806	1	2
363.977	1	9
364.148	1	5
364.319	1	3
364.490	1	9
364.661	1	2
364.832	1	1
365.002	1	2
365.173	1	5
365.344	1	-3
365.515	1	-1
365.686	1	5
365.857	1	13
366.028	1	12
366.199	1	0
366.370	1	7
366.540	1	-1
366.711	1	5
366.882	1	-5
367.053	1	3
367.224	1	-1
367.395	1	8
367.566	1	7
367.737	1	2
367.908	1	7
368.078	1	-1
368.249	1	5
368.420	1	0
368.591	1	4
368.762	1	2
368.933	1	6
369.104	1	2
369.274	1	8
369.445	1	16
369.616	1	6
369.787	1	7
369.958	1	4
370.129	1	7
370.300	1	2
370.471	1	5
370.641	1	2
370.812	1	2
370.983	1	1
371.154	1	5
371.325	1	-7
371.496	1	4
371.667	1	2
371.837	1	1
372.008	1	-1
372.179	1	5
372.350	1	2
372.521	1	11
372.692	1	13
372.863	1	11
373.033	1	5
373.204	1	3
373.375	1	-4
373.546	1	8
373.717	1	-1
373.888	1	8
374.059	1	-5
374.229	1	-1
374.400	1	-3
374.571	1	-1
374.742	1	1
374.913	1	-5
375.084	1	-6
375.254	1	-6
375.425	1	8
375.596	1	-8
375.767	1	6
375.938	1	-11
376.109	1	2
376.279	1	-2
376.450	1	12
376.621	1	13
376.792	1	9
376.963	1	1
377.134	1	2
377.304	1	6
377.475	1	-7
377.646	1	7
377.817	1	8
377.988	1	-3
378.159	1	9
378.329	1	7
378.500	1	4
378.671	1	-6
378.842	1	8
379.013	1	8
379.184	1	5
379.354	1	1
379.525	1	18
379.696	1	9
379.867	1	0
380.038	1	-7
380.209	1	15
380.379	1	5
380.550	1	-7
380.721	1	-3
380.892	1	-2
381.063	1	3
381.233	1	5
381.404	1	-1
381.575	1	5
381.746	1	7
381.917	1	-6
382.087	1	-4
382.258	1	0
382.429	1	2
382.600	1	6
382.771	1	1
382.941	1	6
383.112	1	8
383.283	1	-3
383.454	1	2
383.625	1	15
383.795	1	6
383.966	1	3
384.137	1	6
384.308	1	2
384.479	1	1
384.649	1	3
384.820	1	3
384.991	1	-1
385.162	1	8
385.333	1	5
385.503	1	4
385.674	1	-4
385.845	1	2
386.016	1	14
386.187	1	-5
386.357	1	10
386.528	1	0
386.699	1	1
386.870	1	-1
387.041	1	12
387.211	1	4
387.382	1	14
387.553	1	3
387.724	1	0
387.894	1	-1
388.065	1	6
388.236	1	-1
388.407	1	6
388.578	1	11
388.748	1	0
388.919	1	0
389.090	1	23
389.261	1	1
389.431	1	-4
389.602	1	-3
389.773	1	14
389.944	1	8
390.114	1	0
390.285	1	3
390.456	1	5
390.627	1	4
390.798	1	1
390.968	1	0
391.139	1	9
391.310	1	-5
391.481	1	5
391.651	1	6
391.822	1	8
391.993	1	4
392.164	1	10
392.334	1	6
392.505	1	10
392.676	1	-2
392.847	1	-1
393.017	1	5
393.188	1	11
393.359	1	19
393.530	1	13
393.700	1	1
393.871	1	15
394.042	1	2
394.213	1	3
394.383	1	9
394.554	1	4
394.725	1	-2
394.896	1	21
395.066	1	10
395.237	1	7
395.408	1	6
395.579	1	8
395.749	1	11
395.920	1	10
396.091	1	3
396.262	1	9
396.432	1	-6
396.603	1	5
396.774	1	-1
396.945	1	13
397.115	1	10
397.286	1	3
397.457	1	-4
397.627	1	5
397.798	1	7
397.969	1	0
398.140	1	1
398.310	1	12
398.481	1	3
398.652	1	2
398.823	1	9
398.993	1	3
399.164	1	12
399.335	1	-3
399.505	1	-5
399.676	1	2
399.847	1	2
400.018	1	1
400.188	1	2
400.359	1	11
400.530	1	7
400.700	1	12
400.871	1	16
401.042	1	6
401.213	1	11
401.383	1	3
401.554	1	1
401.725	1	-5
401.895	1	0
402.066	1	9
402.237	1	12
402.408	1	3
402.578	1	14
402.749	1	4
402.920	1	16
403.090	1	12
403.261	1	0
403.432	1	8
403.603	1	15
403.773	1	10
403.944	1	-4
404.115	1	11
404.285	1	11
404.456	1	22
404.627	1	10
404.797	1	14
404.968	1	6
405.139	1	5
405.310	1	7
405.480	1	3
405.651	1	-2
405.822	1	12
405.992	1	7
406.163	1	5
406.334	1	10
406.504	1	11
406.675	1	7
406.846	1	5
407.016	1	10
407.187	1	10
407.358	1	3
407.528	1	9
407.699	1	18
407.870	1	17
408.041	1	6
408.211	1	12
408.382	1	5
408.553	1	8
408.723	1	1
408.894	1	5
409.065	1	6
409.235	1	10
409.406	1	3
409.577	1	5
409.747	1	3
409.918	1	9
410.089	1	13
410.259	1	-9
410.430	1	8
410.601	1	5
410.771	1	13
410.942	1	4
411.113	1	3
411.283	1	8
411.454	1	14
411.625	1	10
411.795	1	4
411.966	1	1
412.137	1	20
412.307	1	5
412.478	1	9
412.649	1	4
412.819	1	12
412.990	1	19
413.161	1	-5
413.331	1	-4
413.502	1	-1
413.672	1	4
413.843	1	6
414.014	1	-3
414.184	1	14
414.355	1	15
414.526	1	17
414.696	1	-2
414.867	1	-1
415.038	1	4
415.208	1	0
415.379	1	8
415.550	1	3
415.720	1	1
415.891	1	10
416.062	1	13
416.232	1	15
416.403	1	6
416.573	1	4
416.744	1	8
416.915	1	9
417.085	1	13
417.256	1	8
417.427	1	4
417.597	1	5
417.768	1	17
417.939	1	-2
418.109	1	5
418.280	1	10
418.450	1	16
418.621	1	12
418.792	1	7
418.962	1	6
419.133	1	13
419.304	1	8
419.474	1	7
419.645	1	14
419.815	1	4
419.986	1	12
420.157	1	3
420.327	1	-5
420.498	1	2
420.669	1	8
420.839	1	12
421.010	1	6
421.180	1	5
421.351	1	8
421.522	1	9
421.692	1	7
421.863	1	16
422.033	1	20
422.204	1	8
422.375	1	9
422.545	1	12
422.716	1	0
422.886	1	3
423.057	1	7
423.228	1	6
423.398	1	10
423.569	1	7
423.740	1	7
423.910	1	12
424.081	1	15
424.251	1	21
424.422	1	11
424.593	1	11
424.763	1	2
424.934	1	11
425.104	1	16
425.275	1	8
425.445	1	9
425.616	1	8
425.787	1	4
425.957	1	5
426.128	1	6
426.298	1	13
426.469	1	0
426.640	1	3
426.810	1	-2
426.981	1	12
427.151	1	-5
427.322	1	2
427.493	1	9
427.663	1	12
427.834	1	7
428.004	1	16
428.175	1	12
428.345	1	-7
428.516	1	7
428.687	1	12
428.857	1	19
429.028	1	0
429.198	1	2
429.369	1	10
429.540	1	14
429.710	1	10
429.881	1	4
430.051	1	4
430.222	1	7
430.392	1	3
430.563	1	6
430.734	1	6
430.904	1	6
431.075	1	14
431.245	1	-2
431.416	1	6
431.586	1	5
431.757	1	14
431.927	1	4
432.098	1	11
432.269	1	3
432.439	1	-8
432.610	1	20
432.780	1	10
432.951	1	0
433.121	1	6
433.292	1	13
433.462	1	1
433.633	1	1
433.804	1	10
433.974	1	10
434.145	1	7
434.315	1	0
434.486	1	-2
434.656	1	6
434.827	1	4
434.997	1	11
435.168	1	4
435.339	1	12
435.509	1	4
435.680	1	10
435.850	1	3
436.021	1	5
436.191	1	0
436.362	1	4
436.532	1	4
436.703	1	3
436.873	1	2
437.044	1	4
437.214	1	3
437.385	1	1
437.556	1	7
437.726	1	8
437.897	1	-1
438.067	1	8
438.238	1	6
438.408	1	6
438.579	1	4
438.749	1	4
438.920	1	10
439.090	1	-6
439.261	1	7
439.431	1	0
439.602	1	3
439.772	1	7
439.943	1	1
440.113	1	0
440.284	1	9
440.455	1	2
440.625	1	12
440.796	1	1
440.966	1	8
441.137	1	7
441.307	1	16
441.478	1	6
441.648	1	2
441.819	1	-1
441.989	1	19
442.160	1	9
442.330	1	10
442.501	1	8
442.671	1	2
442.842	1	12
443.012	1	-1
443.183	1	9
443.353	1	4
443.524	1	3
443.694	1	2
443.865	1	9
444.035	1	6
444.206	1	2
444.376	1	4
444.547	1	-2
444.717	1	8
444.888	1	3
445.058	1	8
445.229	1	-1
445.399	1	3
445.570	1	5
445.740	1	4
445.911	1	9
446.081	1	8
446.252	1	7
446.422	1	1
446.593	1	12
446.763	1	7
446.934	1	8
447.104	1	8
447.275	1	-2
447.445	1	15
447.616	1	15
447.786	1	0
447.957	1	-2
448.127	1	8
448.298	1	4
448.468	1	7
448.639	1	-1
448.809	1	6
448.979	1	6
449.150	1	6
449.320	1	7
449.491	1	3
449.661	1	-5
449.832	1	-5
450.002	1	7
450.173	1	13
450.343	1	3
450.514	1	13
450.684	1	14
450.855	1	5
451.025	1	2
451.196	1	6
451.366	1	18
451.537	1	8
451.707	1	6
451.878	1	6
452.048	1	-6
452.218	1	7
452.389	1	11
452.559	1	22
452.730	1	2
452.900	1	-1
453.071	1	15
453.241	1	10
453.412	1	6
453.582	1	6
453.753	1	14
453.923	1	4
454.093	1	4
454.264	1	12
454.434	1	11
454.605	1	1
454.775	1	7
454.946	1	-4
455.116	1	4
455.287	1	-4
455.457	1	6
455.628	1	-11
455.798	1	2
455.968	1	1
456.139	1	12
456.309	1	6
456.480	1	7
456.650	1	5
456.821	1	-3
456.991	1	10
457.161	1	5
457.332	1	4
457.502	1	6
457.673	1	0
457.843	1	0
458.014	1	0
458.184	1	11
458.355	1	12
458.525	1	3
458.695	1	0
458.866	1	-5
459.036	1	-5
459.207	1	6
459.377	1	2
459.548	1	11
459.718	1	2
459.888	1	-1
460.059	1	5
460.229	1	-4
460.400	1	4
460.570	1	-5
460.740	1	0
460.911	1	-6
461.081	1	18
461.252	1	3
461.422	1	0
461.593	1	14
461.763	1	18
461.933	1	2
462.104	1	7
462.274	1	2
462.445	1	10
462.615	1	3
462.785	1	5
462.956	1	-2
463.126	1	6
463.297	1	-9
463.467	1	11
463.638	1	1
463.808	1	8
463.978	1	-11
464.149	1	5
464.319	1	4
464.490	1	-2
464.660	1	-1
464.830	1	-5
465.001	1	-3
465.171	1	1
465.342	1	5
465.512	1	5
465.682	1	4
465.853	1	1
466.023	1	14
466.194	1	8
466.364	1	10
466.534	1	-11
466.705	1	14
466.875	1	-13
467.045	1	-3
467.216	1	2
467.386	1	-4
467.557	1	11
467.727	1	-1
467.897	1	8
468.068	1	-4
468.238	1	1
468.409	1	6
468.579	1	6
468.749	1	4
468.920	1	1
469.090	1	4
469.260	1	2
469.431	1	0
469.601	1	9
469.772	1	12
469.942	1	6
470.112	1	0
470.283	1	6
470.453	1	7
470.623	1	3
470.794	1	1
470.964	1	-7
471.135	1	7
471.305	1	8
471.475	1	14
471.646	1	-2
471.816	1	4
471.986	1	5
472.157	1	1
472.327	1	3
472.497	1	0
472.668	1	3
472.838	1	2
473.009	1	2
473.179	1	5
473.349	1	-4
473.520	1	15
473.690	1	4
473.860	1	-2
474.031	1	-3
474.201	1	-3
474.371	1	7
474.542	1	7
474.712	1	-1
474.882	1	-3
475.053	1	9
475.223	1	-3
475.394	1	-1
475.564	1	-3
475.734	1	3
475.905	1	1
476.075	1	16
476.245	1	6
476.416	1	-1
476.586	1	-2
476.756	1	-3
476.927	1	1
477.097	1	2
477.267	1	-10
477.438	1	18
477.608	1	15
477.778	1	-7
477.949	1	2
478.119	1	6
478.289	1	-11
478.460	1	-5
478.630	1	-6
478.800	1	0
478.971	1	2
479.141	1	-5
479.311	1	-2
479.482	1	5
479.652	1	11
479.822	1	0
479.993	1	1
480.163	1	6
480.333	1	-1
480.504	1	2
480.674	1	5
480.844	1	9
481.015	1	10
481.185	1	6
481.355	1	9
481.525	1	0
481.696	1	6
481.866	1	8
482.036	1	7
482.207	1	9
482.377	1	-6
482.547	1	2
482.718	1	1
482.888	1	9
483.058	1	9
483.229	1	9
483.399	1	10
483.569	1	-7
483.740	1	0
483.910	1	-7
484.080	1	2
484.250	1	-4
484.421	1	1
484.591	1	3
484.761	1	1
484.932	1	2
485.102	1	14
485.272	1	0
485.443	1	6
485.613	1	-3
485.783	1	0
485.953	1	-2
486.124	1	4
486.294	1	6
486.464	1	12
486.635	1	-5
486.805	1	-6
486.975	1	1
487.146	1	6
487.316	1	9
487.486	1	2
487.656	1	9
487.827	1	0
487.997	1	-1
488.167	1	11
488.338	1	6
488.508	1	3
488.678	1	-5
488.848	1	7
489.019	1	0
489.189	1	8
489.359	1	-6
489.529	1	13
489.700	1	2
489.870	1	13
490.040	1	-7
490.211	1	-7
490.381	1	-12
490.551	1	7
490.721	1	4
490.892	1	-17
491.062	1	4
491.232	1	5
491.402	1	4
491.573	1	9
491.743	1	8
491.913	1	-1
492.084	1	1
492.254	1	-8
492.424	1	1
492.594	1	2
492.765	1	6
492.935	1	-1
493.105	1	1
493.275	1	6
493.446	1	-6
493.616	1	-4
493.786	1	-2
493.956	1	-3
494.127	1	-4
494.297	1	-6
494.467	1	1
494.637	1	2
494.808	1	6
494.978	1	-4
495.148	1	8
495.318	1	-1
495.489	1	4
495.659	1	0
495.829	1	2
495.999	1	10
496.170	1	1
496.340	1	-1
496.510	1	-2
496.680	1	2
496.851	1	9
497.021	1	-2
497.191	1	4
497.361	1	-3
497.532	1	-1
497.702	1	4
497.872	1	4
498.042	1	-2
498.213	1	-1
498.383	1	-4
498.553	1	4
498.723	1	-7
498.894	1	-1
499.064	1	2
499.234	1	6
499.404	1	5
499.574	1	0
499.745	1	1
499.915	1	2
500.085	1	-5
500.255	1	-9
500.426	1	3
500.596	1	-8
500.766	1	-4
500.936	1	-1
501.106	1	-7
501.277	1	-6
501.447	1	6
501.617	1	-1
501.787	1	-5
501.958	1	4
502.128	1	0
502.298	1	4
502.468	1	1
502.638	1	-5
502.809	1	-11
502.979	1	4
503.149	1	0
503.319	1	8
503.489	1	-12
503.660	1	-1
503.830	1	2
504.000	1	2
504.170	1	-8
504.340	1	2
504.511	1	-5
504.681	1	5
504.851	1	-1
505.021	1	-2
505.192	1	-2
505.362	1	0
505.532	1	-9
505.702	1	6
505.872	1	6
506.043	1	10
506.213	1	6
506.383	1	0
506.553	1	4
506.723	1	-8
506.893	1	-2
507.064	1	5
507.234	1	0
507.404	1	2
507.574	1	-7
507.744	1	9
507.915	1	-4
508.085	1	3
508.255	1	1
508.425	1	0
508.595	1	-2
508.766	1	-5
508.936	1	10
509.106	1	4
509.276	1	3
509.446	1	-6
509.616	1	-1
509.787	1	-3
509.957	1	-4
510.127	1	-5
510.297	1	-10
510.467	1	5
510.638	1	-1
510.808	1	11
510.978	1	-7
511.148	1	-8
511.318	1	4
511.488	1	5
511.659	1	4
511.829	1	-4
511.999	1	6
512.169	1	2
512.339	1	2
512.509	1	-1
512.680	1	-2
512.850	1	-2
513.020	1	-5
513.190	1	-2
513.360	1	-1
513.530	1	-3
513.700	1	-5
513.871	1	-5
514.041	1	5
514.211	1	1
514.381	1	2
514.551	1	-1
514.721	1	5
514.892	1	-9
515.062	1	7
515.232	1	-6
515.402	1	-5
515.572	1	-4
515.742	1	0
515.912	1	5
516.083	1	6
516.253	1	3
516.423	1	2
516.593	1	3
516.763	1	0
516.933	1	-5
517.104	1	-8
517.274	1	-6
517.444	1	2
517.614	1	-5
517.784	1	6
517.954	1	0
518.124	1	8
518.294	1	1
518.465	1	-2
518.635	1	-3
518.805	1	-2
518.975	1	7
519.145	1	-9
519.315	1	7
519.485	1	-3
519.656	1	-2
519.826	1	-12
519.996	1	-4
520.166	1	-1
520.336	1	10
520.506	1	8
520.676	1	-1
520.846	1	-5
521.017	1	-6
521.187	1	3
521.357	1	-4
521.527	1	-3
521.697	1	0
521.867	1	4
522.037	1	-2
522.207	1	7
522.377	1	0
522.548	1	-12
522.718	1	0
522.888	1	-3
523.058	1	8
523.228	1	-15
523.398	1	-2
523.568	1	-11
523.738	1	-5
523.909	1	-5
524.079	1	0
524.249	1	-5
524.419	1	-2
524.589	1	4
524.759	1	-1
524.929	1	1
525.099	1	-7
525.269	1	5
525.439	1	-7
525.610	1	12
525.780	1	2
525.950	1	-2
526.120	1	-7
526.290	1	-8
526.460	1	-2
526.630	1	-1
526.800	1	-10
526.970	1	4
527.140	1	-5
527.311	1	-2
527.481	1	1
527.651	1	8
527.821	1	-6
527.991	1	-3
528.161	1	12
528.331	1	-13
528.501	1	1
528.671	1	-6
528.841	1	-2
529.011	1	2
529.181	1	5
529.352	1	0
529.522	1	5
529.692	1	4
529.862	1	1
530.032	1	-15
530.202	1	0
530.372	1	2
530.542	1	3
530.712	1	-3
530.882	1	7
531.052	1	-1
531.222	1	-2
531.392	1	4
531.563	1	4
531.733	1	-12
531.903	1	0
532.073	1	-4
532.243	1	1
532.413	1	13
532.583	1	6
532.753	1	-3
532.923	1	-2
533.093	1	-11
533.263	1	7
533.433	1	-9
533.603	1	-3
533.773	1	-4
533.943	1	-2
534.113	1	1
534.284	1	-7
534.454	1	-3
534.624	1	-2
534.794	1	-3
534.964	1	-2
535.134	1	-7
535.304	1	-9
535.474	1	3
535.644	1	-1
535.814	1	2
535.984	1	-4
536.154	1	-2
536.324	1	-3
536.494	1	8
536.664	1	-3
536.834	1	-6
537.004	1	8
537.174	1	3
537.344	1	2
537.514	1	-4
537.685	1	12
537.855	1	7
538.025	1	8
538.195	1	-3
538.365	1	-1
538.535	1	-7
538.705	1	-4
538.875	1	-5
539.045	1	-2
539.215	1	-6
539.385	1	2
539.555	1	-1
539.725	1	-2
539.895	1	1
540.065	1	-4
540.235	1	-3
540.405	1	-2
540.575	1	-13
540.745	1	-1
540.915	1	0
541.085	1	-5
541.255	1	-6
541.425	1	-2
541.595	1	5
541.765	1	-3
541.935	1	3
542.105	1	-6
542.275	1	-1
542.445	1	3
542.615	1	1
542.785	1	-4
542.955	1	7
543.125	1	-2
543.295	1	3
543.465	1	12
543.635	1	-6
543.805	1	2
543.975	1	-7
544.145	1	-10
544.315	1	-8
544.485	1	-7
544.655	1	2
544.825	1	-6
544.995	1	2
545.165	1	-5
545.335	1	4
545.505	1	3
545.675	1	5
545.845	1	9
546.015	1	-13
546.185	1	0
546.355	1	-3
546.525	1	0
546.695	1	1
546.865	1	-1
547.035	1	3
547.205	1	4
547.375	1	6
547.545	1	-11
547.715	1	-3
547.885	1	-5
548.055	1	-3
548.225	1	5
548.395	1	3
548.565	1	11
548.735	1	-2
548.905	1	-4
549.075	1	-8
549.245	1	2
549.415	1	0
549.585	1	-10
549.755	1	7
549.925	1	5
550.095	1	-2
550.265	1	2
550.435	1	-9
550.605	1	-2
550.775	1	1
550.945	1	-1
551.115	1	9
551.285	1	-6
551.455	1	-2
551.625	1	-11
551.795	1	-2
551.965	1	-7
552.135	1	-8
552.305	1	1
552.475	1	7
552.645	1	-3
552.815	1	-2
552.985	1	-11
553.155	1	1
553.325	1	-8
553.495	1	-6
553.665	1	-7
553.835	1	10
554.004	1	6
554.174	1	-5
554.344	1	4
554.514	1	-4
554.684	1	9
554.854	1	-13
555.024	1	8
555.194	1	5
555.364	1	2
555.534	1	-9
555.704	1	-6
555.874	1	-3
556.044	1	-5
556.214	1	-2
556.384	1	2
556.554	1	-4
556.724	1	-2
556.894	1	-2
557.064	1	7
557.234	1	3
557.404	1	-1
557.573	1	-4
557.743	1	-6
557.913	1	-3
558.083	1	-1
558.253	1	-7
558.423	1	3
558.593	1	7
558.763	1	2
558.933	1	-6
559.103	1	-1
559.273	1	-2
559.443	1	-3
559.613	1	1
559.783	1	-12
559.953	1	-11
560.122	1	2
560.292	1	-14
560.462	1	-5
560.632	1	-7
560.802	1	5
560.972	1	-10
561.142	1	2
561.312	1	-11
561.482	1	1
561.652	1	-5
561.822	1	4
561.992	1	-1
562.162	1	-3
562.331	1	-11
562.501	1	4
562.671	1	-5
562.841	1	-10
563.011	1	0
563.181	1	-12
563.351	1	-9
563.521	1	-2
563.691	1	2
563.861	1	-1
564.031	1	-7
564.201	1	2
564.370	1	3
564.540	1	-7
564.710	1	-2
564.880	1	-5
565.050	1	6
565.220	1	0
565.390	1	-12
565.560	1	7
565.730	1	9
565.900	1	-7
566.069	1	11
566.239	1	7
566.409	1	6
566.579	1	2
566.749	1	-1
566.919	1	-7
567.089	1	-17
567.259	1	3
567.429	1	-6
567.599	1	12
567.768	1	-5
567.938	1	0
568.108	1	-3
568.278	1	-3
568.448	1	-2
568.618	1	9
568.788	1	-5
568.958	1	-12
569.128	1	-2
569.297	1	-3
569.467	1	-2
569.637	1	2
569.807	1	6
569.977	1	-14
570.147	1	-5
570.317	1	-6
570.487	1	-7
570.656	1	6
570.826	1	-5
570.996	1	12
571.166	1	4
571.336	1	-5
571.506	1	-2
571.676	1	6
571.846	1	-2
572.015	1	8
572.185	1	2
572.355	1	-8
572.525	1	-15
572.695	1	11
572.865	1	2
573.035	1	5
573.205	1	-6
573.374	1	-6
573.544	1	-4
573.714	1	-8
573.884	1	-7
574.054	1	2
574.224	1	-1
574.394	1	-2
574.563	1	-4
574.733	1	-2
574.903	1	-6
575.073	1	1
575.243	1	3
575.413	1	-5
575.583	1	-14
575.752	1	1
575.922	1	9
576.092	1	-12
576.262	1	2
576.432	1	-3
576.602	1	8
576.772	1	-6
576.941	1	2
577.111	1	-9
577.281	1	-4
577.451	1	0
577.621	1	5
577.791	1	4
577.960	1	-1
578.130	1	-1
578.300	1	-1
578.470	1	2
578.640	1	-2
578.810	1	-6
578.979	1	2
579.149	1	-3
579.319	1	-6
579.489	1	9
579.659	1	-4
579.829	1	-2
579.998	1	-13
580.168	1	2
580.338	1	12
580.508	1	-1
580.678	1	-6
580.848	1	-2
581.017	1	-10
581.187	1	2
581.357	1	-7
581.527	1	-5
581.697	1	0
581.867	1	-1
582.036	1	-10
582.206	1	2
582.376	1	-4
582.546	1	-2
582.716	1	3
582.885	1	-4
583.055	1	-2
583.225	1	-2
583.395	1	1
583.565	1	3
583.735	1	-5
583.904	1	-5
584.074	1	-8
584.244	1	-6
584.414	1	0
584.584	1	-5
584.753	1	2
584.923	1	-4
585.093	1	0
585.263	1	-3
585.433	1	-10
585.602	1	-3
585.772	1	12
585.942	1	-2
586.112	1	-4
586.282	1	3
586.451	1	8
586.621	1	1
586.791	1	-8
586.961	1	-6
587.131	1	-6
587.300	1	2
587.470	1	-5
587.640	1	-8
587.810	1	-11
587.980	1	-2
588.149	1	6
588.319	1	9
588.489	1	4
588.659	1	-10
588.829	1	-12
588.998	1	-3
589.168	1	-5
589.338	1	-6
589.508	1	1
589.677	1	8
589.847	1	1
590.017	1	0
590.187	1	2
590.357	1	-8
590.526	1	-11
590.696	1	1
590.866	1	0
591.036	1	10
591.205	1	1
591.375	1	-1
591.545	1	-10
591.715	1	0
591.885	1	1
592.054	1	4
592.224	1	-4
592.394	1	-15
592.564	1	-1
592.733	1	3
592.903	1	-3
593.073	1	-12
593.243	1	8
593.412	1	-6
593.582	1	-1
593.752	1	-7
593.922	1	-3
594.091	1	5
594.261	1	-17
594.431	1	6
594.601	1	-4
594.771	1	-1
594.940	1	-5
595.110	1	5
595.280	1	-5
595.450	1	-3
595.619	1	1
595.789	1	-7
595.959	1	-4
596.129	1	-1
596.298	1	13
596.468	1	-3
596.638	1	0
596.808	1	-10
596.977	1	-1
597.147	1	-3
597.317	1	-9
597.487	1	3
597.656	1	-3
597.826	1	3
597.996	1	1
598.166	1	9
598.335	1	-3
598.505	1	1
598.675	1	2
598.844	1	17
599.014	1	-6
599.184	1	-3
599.354	1	4
599.523	1	-6
599.693	1	-2
599.863	1	-4
600.033	1	0
600.202	1	3
600.372	1	-5
600.542	1	-5
600.712	1	0
600.881	1	7
601.051	1	4
601.221	1	-1
601.390	1	-10
601.560	1	8
601.730	1	0
601.900	1	-3
602.069	1	-1
602.239	1	2
602.409	1	-2
602.578	1	1
602.748	1	10
602.918	1	-5
603.088	1	-2
603.257	1	-9
603.427	1	8
603.597	1	-7
603.767	1	0
603.936	1	-5
604.106	1	-9
604.276	1	0
604.445	1	-11
604.615	1	-1
604.785	1	-1
604.954	1	-2
605.124	1	8
605.294	1	-3
605.464	1	-8
605.633	1	-6
605.803	1	-4
605.973	1	-5
606.142	1	2
606.312	1	9
606.482	1	-8
606.652	1	3
606.821	1	-1
606.991	1	9
607.161	1	7
607.330	1	-11
607.500	1	-4
607.670	1	-2
607.839	1	3
608.009	1	-6
608.179	1	0
608.348	1	3
608.518	1	7
608.688	1	-8
608.858	1	-5
609.027	1	3
609.197	1	3
609.367	1	-8
609.536	1	-9
609.706	1	6
609.876	1	4
610.045	1	0
610.215	1	4
610.385	1	8
610.554	1	1
610.724	1	1
610.894	1	-1
611.063	1	4
611.233	1	6
611.403	1	2
611.572	1	-2
611.742	1	-6
611.912	1	2
612.081	1	19
612.251	1	1
612.421	1	-4
612.590	1	2
612.760	1	-2
612.930	1	2
613.099	1	3
613.269	1	7
613.439	1	-6
613.608	1	5
613.778	1	1
613.948	1	4
614.117	1	-9
614.287	1	3
614.457	1	-5
614.626	1	-2
614.796	1	-4
614.966	1	2
615.135	1	2
615.305	1	-1
615.475	1	-2
615.644	1	13
615.814	1	10
615.984	1	-6
616.153	1	-3
616.323	1	1
616.493	1	-3
616.662	1	-12
616.832	1	3
617.002	1	3
617.171	1	3
617.341	1	4
617.511	1	-7
617.680	1	-2
617.850	1	-7
618.019	1	1
618.189	1	9
618.359	1	-1
618.528	1	-10
618.698	1	3
618.868	1	-5
619.037	1	2
619.207	1	6
619.377	1	4
619.546	1	4
619.716	1	-12
619.885	1	1
620.055	1	-7
620.225	1	1
620.394	1	2
620.564	1	9
620.734	1	0
620.903	1	-8
621.073	1	-6
621.242	1	-1
621.412	1	-10
621.582	1	8
621.751	1	-9
621.921	1	6
622.091	1	-4
622.260	1	8
622.430	1	6
622.599	1	5
622.769	1	-10
622.939	1	-3
623.108	1	10
623.278	1	-3
623.448	1	-5
623.617	1	8
623.787	1	-6
623.956	1	7
624.126	1	1
624.296	1	7
624.465	1	4
624.635	1	3
624.804	1	-13
624.974	1	-8
625.144	1	-9
625.313	1	16
625.483	1	3
625.652	1	0
625.822	1	4
625.992	1	-9
626.161	1	0
626.331	1	-8
626.501	1	1
626.670	1	-9
626.840	1	2
627.009	1	-8
627.179	1	-3
627.348	1	-3
627.518	1	7
627.688	1	0
627.857	1	2
628.027	1	7
628.196	1	-1
628.366	1	-2
628.536	1	-9
628.705	1	-5
628.875	1	-11
629.044	1	-2
629.214	1	3
629.384	1	13
629.553	1	0
629.723	1	15
629.892	1	-1
630.062	1	1
630.232	1	1
630.401	1	-5
630.571	1	-3
630.740	1	-1
630.910	1	6
631.079	1	-7
631.249	1	2
631.419	1	-1
631.588	1	-4
631.758	1	-10
631.927	1	1
632.097	1	-9
632.266	1	9
632.436	1	-4
632.606	1	-6
632.775	1	0
632.945	1	-5
633.114	1	-2
633.284	1	-6
633.453	1	2
633.623	1	6
633.793	1	-7
633.962	1	0
634.132	1	4
634.301	1	7
634.471	1	-3
634.640	1	-7
634.810	1	-2
634.979	1	-3
635.149	1	-8
635.319	1	-9
635.488	1	-6
635.658	1	-1
635.827	1	2
635.997	1	0
636.166	1	-3
636.336	1	-5
636.505	1	0
636.675	1	-1
636.845	1	-10
637.014	1	-2
637.184	1	4
637.353	1	2
637.523	1	-5
637.692	1	-5
637.862	1	-10
638.031	1	-4
638.201	1	5
638.370	1	4
638.540	1	-8
638.710	1	-11
638.879	1	-8
639.049	1	-3
639.218	1	1
639.388	1	0
639.557	1	-1
639.727	1	2
639.896	1	-1
640.066	1	-1
640.235	1	2
640.405	1	3
640.574	1	3
640.744	1	0
640.914	1	-7
641.083	1	-3
641.253	1	0
641.422	1	-12
641.592	1	3
641.761	1	-2
641.931	1	12
642.100	1	-3
642.270	1	6
642.439	1	-5
642.609	1	4
642.778	1	-9
642.948	1	10
643.117	1	1
643.287	1	2
643.456	1	-9
643.626	1	-2
643.795	1	-5
643.965	1	-11
644.134	1	-5
644.304	1	3
644.473	1	-10
644.643	1	1
644.812	1	1
644.982	1	-2
645.151	1	-1
645.321	1	-2
645.490	1	4
645.660	1	-18
645.829	1	3
645.999	1	-10
646.168	1	20
646.338	1	-7
646.507	1	-6
646.677	1	0
646.846	1	-4
647.016	1	6
647.185	1	5
647.355	1	2
647.524	1	-4
647.694	1	-5
647.863	1	-5
648.033	1	3
648.202	1	5
648.372	1	-10
648.541	1	2
648.711	1	-1
648.880	1	8
649.050	1	2
649.219	1	-5
649.389	1	-3
649.558	1	7
649.728	1	2
649.897	1	0
650.067	1	5
650.236	1	-2
650.406	1	-3
650.575	1	8
650.745	1	-2
650.914	1	4
651.084	1	-1
651.253	1	1
651.423	1	-11
651.592	1	2
651.762	1	-9
651.931	1	3
652.101	1	1
652.270	1	1
652.440	1	0
652.609	1	2
652.778	1	3
652.948	1	-2
653.117	1	-6
653.287	1	-10
653.456	1	-5
653.626	1	3
653.795	1	-1
653.965	1	-1
654.134	1	2
654.304	1	7
654.473	1	-3
654.643	1	-7
654.812	1	5
654.982	1	-2
655.151	1	-4
655.320	1	-1
655.490	1	-7
655.659	1	-2
655.829	1	2
655.998	1	0
656.168	1	1
656.337	1	-5
656.507	1	-15
656.676	1	-9
656.846	1	2
657.015	1	1
657.184	1	2
657.354	1	2
657.523	1	2
657.693	1	-5
657.862	1	-8
658.032	1	4
658.201	1	-15
658.371	1	0
658.540	1	-18
658.709	1	12
658.879	1	6
659.048	1	-4
659.218	1	-10
659.387	1	10
659.557	1	3
659.726	1	0
659.895	1	0
660.065	1	-6
660.234	1	-3
660.404	1	1
660.573	1	3
660.743	1	-4
660.912	1	1
661.081	1	-6
661.251	1	-1
661.420	1	10
661.590	1	-5
661.759	1	5
661.929	1	-7
662.098	1	-1
662.267	1	-2
662.437	1	0
662.606	1	-9
662.776	1	1
662.945	1	7
663.115	1	16
663.284	1	9
663.453	1	-7
663.623	1	-3
663.792	1	6
663.962	1	4
664.131	1	-13
664.300	1	-6
664.470	1	-5
664.639	1	-5
664.809	1	1
664.978	1	14
665.148	1	2
665.317	1	0
665.486	1	-5
665.656	1	-5
665.825	1	1
665.995	1	-15
666.164	1	-1
666.333	1	-5
666.503	1	2
666.672	1	-7
666.842	1	5
667.011	1	2
667.180	1	4
667.350	1	-2
667.519	1	3
667.689	1	-10
667.858	1	4
668.027	1	-4
668.197	1	-7
668.366	1	7
668.536	1	-9
668.705	1	-8
668.874	1	7
669.044	1	10
669.213	1	2
669.382	1	7
669.552	1	0
669.721	1	-17
669.891	1	-12
670.060	1	3
670.229	1	4
670.399	1	4
670.568	1	-4
670.738	1	0
670.907	1	3
671.076	1	6
671.246	1	8
671.415	1	6
671.584	1	2
671.754	1	-11
671.923	1	-4
672.093	1	0
672.262	1	-10
672.431	1	-3
672.601	1	1
672.770	1	-4
672.939	1	5
673.109	1	1
673.278	1	-1
673.448	1	-6
673.617	1	6
673.786	1	-19
