325.333	1	8
325.504	1	-11
325.675	1	7
325.846	1	8
326.017	1	5
326.188	1	-3
326.359	1	12
326.531	1	-8
326.702	1	3
326.873	1	7
327.044	1	20
327.215	1	3
327.386	1	5
327.557	1	1
327.728	1	-5
327.899	1	-6
328.070	1	8
328.241	1	-7
328.412	1	3
328.583	1	-2
328.754	1	13
328.926	1	10
329.097	1	-2
329.268	1	19
329.439	1	13
329.610	1	8
329.781	1	2
329.952	1	13
330.123	1	5
330.294	1	4
330.465	1	1
330.636	1	9
330.807	1	3
330.978	1	-1
331.149	1	5
331.320	1	1
331.492	1	8
331.663	1	-6
331.834	1	15
332.005	1	12
332.176	1	17
332.347	1	3
332.518	1	10
332.689	1	-1
332.860	1	5
333.031	1	9
333.202	1	4
333.373	1	19
333.544	1	12
333.715	1	-3
333.886	1	6
334.057	1	5
334.228	1	13
334.399	1	12
334.570	1	3
334.741	1	1
334.912	1	4
335.084	1	5
335.255	1	6
335.426	1	13
335.597	1	11
335.768	1	6
335.939	1	14
336.110	1	10
336.281	1	11
336.452	1	9
336.623	1	13
336.794	1	7
336.965	1	1
337.136	1	16
337.307	1	-7
337.478	1	3
337.649	1	5
337.820	1	6
337.991	1	12
338.162	1	2
338.333	1	4
338.504	1	10
338.675	1	8
338.846	1	-8
339.017	1	15
339.188	1	8
339.359	1	15
339.530	1	0
339.701	1	10
339.872	1	13
340.043	1	8
340.214	1	9
340.385	1	0
340.556	1	19
340.727	1	11
340.898	1	12
341.069	1	9
341.240	1	6
341.411	1	12
341.582	1	0
341.753	1	3
341.924	1	18
342.095	1	12
342.266	1	11
342.437	1	5
342.608	1	5
342.779	1	-3
342.950	1	5
343.121	1	6
343.292	1	10
343.463	1	17
343.634	1	6
343.805	1	11
343.976	1	20
344.147	1	8
344.318	1	-4
344.489	1	6
344.660	1	10
344.831	1	10
345.002	1	14
345.173	1	6
345.344	1	7
345.515	1	13
345.686	1	9
345.857	1	15
346.028	1	15
346.199	1	11
346.370	1	11
346.541	1	8
346.712	1	12
346.883	1	5
347.054	1	10
347.225	1	6
347.396	1	13
347.567	1	0
347.738	1	12
347.909	1	14
348.080	1	13
348.251	1	8
348.422	1	25
348.593	1	10
348.764	1	7
348.935	1	12
349.106	1	7
349.277	1	10
349.448	1	8
349.619	1	13
349.790	1	20
349.961	1	9
350.132	1	9
350.303	1	15
350.474	1	15
350.645	1	14
350.816	1	12
350.987	1	20
351.157	1	7
351.328	1	18
351.499	1	21
351.670	1	14
351.841	1	28
352.012	1	13
352.183	1	17
352.354	1	17
352.525	1	16
352.696	1	12
352.867	1	18
353.038	1	13
353.209	1	11
353.380	1	15
353.551	1	22
353.722	1	22
353.893	1	14
354.064	1	9
354.235	1	5
354.406	1	3
354.576	1	13
354.747	1	16
354.918	1	18
355.089	1	20
355.260	1	12
355.431	1	8
355.602	1	10
355.773	1	2
355.944	1	15
356.115	1	17
356.286	1	22
356.457	1	15
356.628	1	6
356.799	1	24
356.970	1	28
357.141	1	24
357.311	1	11
357.482	1	2
357.653	1	9
357.824	1	19
357.995	1	15
358.166	1	8
358.337	1	13
358.508	1	17
358.679	1	19
358.850	1	29
359.021	1	21
359.192	1	30
359.363	1	3
359.533	1	26
359.704	1	4
359.875	1	10
360.046	1	16
360.217	1	21
360.388	1	28
360.559	1	25
360.730	1	6
360.901	1	12
361.072	1	24
361.243	1	13
361.414	1	24
361.584	1	6
361.755	1	14
361.926	1	25
362.097	1	16
362.268	1	26
362.439	1	17
362.610	1	12
362.781	1	6
362.952	1	20
363.123	1	9
363.293	1	11
363.464	1	7
363.635	1	14
363.806	1	9
363.977	1	13
364.148	1	17
364.319	1	18
364.490	1	18
364.661	1	13
364.832	1	15
365.002	1	16
365.173	1	16
365.344	1	6
365.515	1	14
365.686	1	15
365.857	1	22
366.028	1	9
366.199	1	22
366.370	1	13
366.540	1	9
366.711	1	14
366.882	1	18
367.053	1	11
367.224	1	25
367.395	1	18
367.566	1	14
367.737	1	19
367.908	1	19
368.078	1	15
368.249	1	19
368.420	1	13
368.591	1	18
368.762	1	23
368.933	1	15
369.104	1	25
369.274	1	22
369.445	1	26
369.616	1	5
369.787	1	22
369.958	1	15
370.129	1	21
370.300	1	18
370.471	1	21
370.641	1	20
370.812	1	16
370.983	1	11
371.154	1	19
371.325	1	16
371.496	1	20
371.667	1	33
371.837	1	15
372.008	1	10
372.179	1	21
372.350	1	23
372.521	1	14
372.692	1	15
372.863	1	8
373.033	1	22
373.204	1	20
373.375	1	14
373.546	1	18
373.717	1	9
373.888	1	25
374.059	1	13
374.229	1	28
374.400	1	8
374.571	1	8
374.742	1	8
374.913	1	22
375.084	1	19
375.254	1	5
375.425	1	18
375.596	1	13
375.767	1	24
375.938	1	11
376.109	1	20
376.279	1	18
376.450	1	11
376.621	1	37
376.792	1	18
376.963	1	12
377.134	1	26
377.304	1	32
377.475	1	17
377.646	1	19
377.817	1	22
377.988	1	25
378.159	1	27
378.329	1	18
378.500	1	31
378.671	1	20
378.842	1	21
379.013	1	33
379.184	1	12
379.354	1	17
379.525	1	26
379.696	1	27
379.867	1	25
380.038	1	15
380.209	1	41
380.379	1	26
380.550	1	4
380.721	1	16
380.892	1	24
381.063	1	15
381.233	1	11
381.404	1	32
381.575	1	17
381.746	1	29
381.917	1	24
382.087	1	11
382.258	1	23
382.429	1	26
382.600	1	7
382.771	1	23
382.941	1	36
383.112	1	19
383.283	1	26
383.454	1	19
383.625	1	21
383.795	1	25
383.966	1	30
384.137	1	25
384.308	1	17
384.479	1	28
384.649	1	16
384.820	1	17
384.991	1	15
385.162	1	26
385.333	1	24
385.503	1	21
385.674	1	27
385.845	1	31
386.016	1	25
386.187	1	18
386.357	1	34
386.528	1	23
386.699	1	24
386.870	1	26
387.041	1	31
387.211	1	29
387.382	1	39
387.553	1	31
387.724	1	38
387.894	1	16
388.065	1	29
388.236	1	23
388.407	1	25
388.578	1	33
388.748	1	32
388.919	1	27
389.090	1	46
389.261	1	33
389.431	1	19
389.602	1	23
389.773	1	33
389.944	1	17
390.114	1	26
390.285	1	34
390.456	1	20
390.627	1	27
390.798	1	21
390.968	1	25
391.139	1	30
391.310	1	28
391.481	1	24
391.651	1	44
391.822	1	29
391.993	1	23
392.164	1	16
392.334	1	23
392.505	1	35
392.676	1	18
392.847	1	19
393.017	1	22
393.188	1	34
393.359	1	44
393.530	1	109
393.700	1	366
393.871	1	408
394.042	1	711
394.213	1	457
394.383	1	82
394.554	1	28
394.725	1	23
394.896	1	41
395.066	1	19
395.237	1	32
395.408	1	27
395.579	1	34
395.749	1	37
395.920	1	38
396.091	1	30
396.262	1	26
396.432	1	24
396.603	1	28
396.774	1	20
396.945	1	34
397.115	1	28
397.286	1	40
397.457	1	24
397.627	1	28
397.798	1	32
397.969	1	37
398.140	1	20
398.310	1	36
398.481	1	25
398.652	1	31
398.823	1	27
398.993	1	21
399.164	1	29
399.335	1	28
399.505	1	27
399.676	1	29
399.847	1	27
400.018	1	19
400.188	1	34
400.359	1	30
400.530	1	26
400.700	1	28
400.871	1	43
401.042	1	32
401.213	1	34
401.383	1	30
401.554	1	26
401.725	1	25
401.895	1	18
402.066	1	36
402.237	1	40
402.408	1	32
402.578	1	39
402.749	1	27
402.920	1	35
403.090	1	25
403.261	1	23
403.432	1	29
403.603	1	37
403.773	1	39
403.944	1	43
404.115	1	30
404.285	1	34
404.456	1	38
404.627	1	33
404.797	1	29
404.968	1	30
405.139	1	32
405.310	1	35
405.480	1	29
405.651	1	32
405.822	1	21
405.992	1	35
406.163	1	30
406.334	1	37
406.504	1	21
406.675	1	20
406.846	1	29
407.016	1	20
407.187	1	28
407.358	1	34
407.528	1	32
407.699	1	40
407.870	1	46
408.041	1	34
408.211	1	42
408.382	1	41
408.553	1	32
408.723	1	37
408.894	1	24
409.065	1	37
409.235	1	33
409.406	1	25
409.577	1	27
409.747	1	31
409.918	1	43
410.089	1	40
410.259	1	30
410.430	1	26
410.601	1	37
410.771	1	37
410.942	1	32
411.113	1	33
411.283	1	41
411.454	1	41
411.625	1	33
411.795	1	41
411.966	1	32
412.137	1	30
412.307	1	38
412.478	1	35
412.649	1	39
412.819	1	39
412.990	1	31
413.161	1	28
413.331	1	29
413.502	1	27
413.672	1	27
413.843	1	28
414.014	1	28
414.184	1	42
414.355	1	33
414.526	1	34
414.696	1	33
414.867	1	29
415.038	1	30
415.208	1	23
415.379	1	27
415.550	1	31
415.720	1	26
415.891	1	43
416.062	1	36
416.232	1	30
416.403	1	39
416.573	1	33
416.744	1	32
416.915	1	28
417.085	1	32
417.256	1	37
417.427	1	34
417.597	1	23
417.768	1	26
417.939	1	30
418.109	1	32
418.280	1	37
418.450	1	41
418.621	1	29
418.792	1	28
418.962	1	38
419.133	1	21
419.304	1	32
419.474	1	31
419.645	1	40
419.815	1	32
419.986	1	35
420.157	1	24
420.327	1	33
420.498	1	27
420.669	1	29
420.839	1	44
421.010	1	32
421.180	1	39
421.351	1	31
421.522	1	30
421.692	1	34
421.863	1	33
422.033	1	36
422.204	1	35
422.375	1	43
422.545	1	32
422.716	1	24
422.886	1	29
423.057	1	32
423.228	1	21
423.398	1	31
423.569	1	29
423.740	1	30
423.910	1	37
424.081	1	33
424.251	1	33
424.422	1	43
424.593	1	34
424.763	1	34
424.934	1	40
425.104	1	36
425.275	1	26
425.445	1	40
425.616	1	30
425.787	1	28
425.957	1	30
426.128	1	27
426.298	1	35
426.469	1	20
426.640	1	32
426.810	1	20
426.981	1	38
427.151	1	26
427.322	1	39
427.493	1	26
427.663	1	38
427.834	1	24
428.004	1	30
428.175	1	31
428.345	1	19
428.516	1	25
428.687	1	34
428.857	1	38
429.028	1	29
429.198	1	23
429.369	1	42
429.540	1	32
429.710	1	34
429.881	1	26
430.051	1	25
430.222	1	35
430.392	1	37
430.563	1	18
430.734	1	30
430.904	1	24
431.075	1	23
431.245	1	27
431.416	1	38
431.586	1	20
431.757	1	42
431.927	1	34
432.098	1	30
432.269	1	20
432.439	1	21
432.610	1	46
432.780	1	44
432.951	1	24
433.121	1	35
433.292	1	30
433.462	1	39
433.633	1	28
433.804	1	35
433.974	1	35
434.145	1	27
434.315	1	20
434.486	1	26
434.656	1	32
434.827	1	33
434.997	1	33
435.168	1	30
435.339	1	44
435.509	1	26
435.680	1	36
435.850	1	15
436.021	1	23
436.191	1	30
436.362	1	35
436.532	1	39
436.703	1	34
436.873	1	26
437.044	1	35
437.214	1	29
437.385	1	24
437.556	1	38
437.726	1	26
437.897	1	12
438.067	1	25
438.238	1	35
438.408	1	25
438.579	1	23
438.749	1	27
438.920	1	42
439.090	1	22
439.261	1	28
439.431	1	28
439.602	1	22
439.772	1	34
439.943	1	17
440.113	1	9
440.284	1	40
440.455	1	14
440.625	1	36
440.796	1	24
440.966	1	30
441.137	1	27
441.307	1	30
441.478	1	20
441.648	1	26
441.819	1	27
441.989	1	39
442.160	1	33
442.330	1	23
442.501	1	21
442.671	1	23
442.842	1	19
443.012	1	25
443.183	1	30
443.353	1	24
443.524	1	34
443.694	1	29
443.865	1	36
444.035	1	22
444.206	1	20
444.376	1	22
444.547	1	23
444.717	1	37
444.888	1	7
445.058	1	27
445.229	1	19
445.399	1	25
445.570	1	30
445.740	1	25
445.911	1	26
446.081	1	27
446.252	1	19
446.422	1	31
446.593	1	20
446.763	1	25
446.934	1	28
447.104	1	15
447.275	1	27
447.445	1	26
447.616	1	18
447.786	1	27
447.957	1	17
448.127	1	14
448.298	1	27
448.468	1	33
448.639	1	28
448.809	1	19
448.979	1	34
449.150	1	22
449.320	1	32
449.491	1	21
449.661	1	31
449.832	1	23
450.002	1	22
450.173	1	33
450.343	1	23
450.514	1	21
450.684	1	30
450.855	1	30
451.025	1	21
451.196	1	20
451.366	1	37
451.537	1	32
451.707	1	29
451.878	1	20
452.048	1	23
452.218	1	29
452.389	1	34
452.559	1	36
452.730	1	26
452.900	1	25
453.071	1	31
453.241	1	30
453.412	1	21
453.582	1	25
453.753	1	26
453.923	1	29
454.093	1	18
454.264	1	26
454.434	1	23
454.605	1	23
454.775	1	21
454.946	1	9
455.116	1	27
455.287	1	11
455.457	1	11
455.628	1	8
455.798	1	34
455.968	1	21
456.139	1	28
456.309	1	23
456.480	1	17
456.650	1	25
456.821	1	12
456.991	1	24
457.161	1	32
457.332	1	20
457.502	1	20
457.673	1	17
457.843	1	12
458.014	1	16
458.184	1	17
458.355	1	21
458.525	1	27
458.695	1	14
458.866	1	5
459.036	1	25
459.207	1	18
459.377	1	18
459.548	1	26
459.718	1	16
459.888	1	8
460.059	1	19
460.229	1	14
460.400	1	16
460.570	1	16
460.740	1	18
460.911	1	9
461.081	1	21
461.252	1	23
461.422	1	9
461.593	1	21
461.763	1	22
461.933	1	23
462.104	1	0
462.274	1	6
462.445	1	23
462.615	1	22
462.785	1	24
462.956	1	22
463.126	1	23
463.297	1	16
463.467	1	26
463.638	1	21
463.808	1	17
463.978	1	13
464.149	1	8
464.319	1	18
464.490	1	7
464.660	1	11
464.830	1	19
465.001	1	23
465.171	1	17
465.342	1	12
465.512	1	33
465.682	1	16
465.853	1	17
466.023	1	23
466.194	1	17
466.364	1	17
466.534	1	10
466.705	1	28
466.875	1	6
467.045	1	15
467.216	1	16
467.386	1	20
467.557	1	23
467.727	1	12
467.897	1	14
468.068	1	9
468.238	1	14
468.409	1	14
468.579	1	17
468.749	1	17
468.920	1	10
469.090	1	25
469.260	1	11
469.431	1	14
469.601	1	18
469.772	1	32
469.942	1	12
470.112	1	7
470.283	1	26
470.453	1	20
470.623	1	18
470.794	1	11
470.964	1	4
471.135	1	26
471.305	1	14
471.475	1	10
471.646	1	25
471.816	1	15
471.986	1	20
472.157	1	15
472.327	1	25
472.497	1	20
472.668	1	18
472.838	1	11
473.009	1	15
473.179	1	7
473.349	1	8
473.520	1	24
473.690	1	7
473.860	1	11
474.031	1	7
474.201	1	21
474.371	1	17
474.542	1	10
474.712	1	17
474.882	1	11
475.053	1	14
475.223	1	18
475.394	1	15
475.564	1	13
475.734	1	10
475.905	1	18
476.075	1	26
476.245	1	16
476.416	1	10
476.586	1	8
476.756	1	15
476.927	1	6
477.097	1	17
477.267	1	8
477.438	1	13
477.608	1	27
477.778	1	12
477.949	1	6
478.119	1	23
478.289	1	12
478.460	1	8
478.630	1	11
478.800	1	17
478.971	1	7
479.141	1	10
479.311	1	16
479.482	1	14
479.652	1	9
479.822	1	5
479.993	1	12
480.163	1	13
480.333	1	7
480.504	1	14
480.674	1	25
480.844	1	15
481.015	1	21
481.185	1	13
481.355	1	16
481.525	1	0
481.696	1	12
481.866	1	19
482.036	1	24
482.207	1	9
482.377	1	1
482.547	1	13
482.718	1	14
482.888	1	19
483.058	1	19
483.229	1	19
483.399	1	20
483.569	1	-4
483.740	1	12
483.910	1	9
484.080	1	17
484.250	1	11
484.421	1	5
484.591	1	1
484.761	1	14
484.932	1	9
485.102	1	17
485.272	1	3
485.443	1	5
485.613	1	8
485.783	1	5
485.953	1	9
486.124	1	15
486.294	1	15
486.464	1	14
486.635	1	13
486.805	1	6
486.975	1	-2
487.146	1	11
487.316	1	8
487.486	1	10
487.656	1	15
487.827	1	6
487.997	1	7
488.167	1	10
488.338	1	13
488.508	1	8
488.678	1	4
488.848	1	4
489.019	1	3
489.189	1	11
489.359	1	13
489.529	1	14
489.700	1	14
489.870	1	13
490.040	1	3
490.211	1	8
490.381	1	5
490.551	1	5
490.721	1	13
490.892	1	3
491.062	1	4
491.232	1	7
491.402	1	9
491.573	1	21
491.743	1	7
491.913	1	8
492.084	1	14
492.254	1	11
492.424	1	11
492.594	1	9
492.765	1	6
492.935	1	18
493.105	1	11
493.275	1	14
493.446	1	4
493.616	1	0
493.786	1	10
493.956	1	14
494.127	1	9
494.297	1	-1
494.467	1	13
494.637	1	7
494.808	1	15
494.978	1	6
495.148	1	5
495.318	1	4
495.489	1	-2
495.659	1	10
495.829	1	12
495.999	1	14
496.170	1	10
496.340	1	8
496.510	1	8
496.680	1	8
496.851	1	21
497.021	1	3
497.191	1	10
497.361	1	-2
497.532	1	10
497.702	1	13
497.872	1	15
498.042	1	14
498.213	1	3
498.383	1	12
498.553	1	17
498.723	1	7
498.894	1	16
499.064	1	11
499.234	1	8
499.404	1	15
499.574	1	14
499.745	1	5
499.915	1	10
500.085	1	8
500.255	1	-7
500.426	1	6
500.596	1	1
500.766	1	5
500.936	1	3
501.106	1	12
501.277	1	-3
501.447	1	16
501.617	1	-8
501.787	1	2
501.958	1	10
502.128	1	13
502.298	1	9
502.468	1	2
502.638	1	11
502.809	1	-7
502.979	1	-1
503.149	1	7
503.319	1	16
503.489	1	1
503.660	1	6
503.830	1	6
504.000	1	-2
504.170	1	6
504.340	1	-1
504.511	1	4
504.681	1	7
504.851	1	3
505.021	1	2
505.192	1	-1
505.362	1	9
505.532	1	9
505.702	1	21
505.872	1	7
506.043	1	21
506.213	1	15
506.383	1	11
506.553	1	7
506.723	1	-1
506.893	1	13
507.064	1	16
507.234	1	7
507.404	1	3
507.574	1	0
507.744	1	8
507.915	1	-2
508.085	1	10
508.255	1	16
508.425	1	7
508.595	1	3
508.766	1	-1
508.936	1	6
509.106	1	7
509.276	1	6
509.446	1	5
509.616	1	0
509.787	1	3
509.957	1	9
510.127	1	1
510.297	1	-8
510.467	1	6
510.638	1	15
510.808	1	21
510.978	1	-3
511.148	1	3
511.318	1	12
511.488	1	15
511.659	1	5
511.829	1	-3
511.999	1	6
512.169	1	10
512.339	1	9
512.509	1	1
512.680	1	6
512.850	1	5
513.020	1	-7
513.190	1	1
513.360	1	4
513.530	1	1
513.700	1	12
513.871	1	5
514.041	1	5
514.211	1	3
514.381	1	9
514.551	1	-1
514.721	1	9
514.892	1	5
515.062	1	12
515.232	1	2
515.402	1	4
515.572	1	1
515.742	1	4
515.912	1	7
516.083	1	6
516.253	1	7
516.423	1	5
516.593	1	3
516.763	1	11
516.933	1	-3
517.104	1	8
517.274	1	-5
517.444	1	7
517.614	1	1
517.784	1	6
517.954	1	8
518.124	1	4
518.294	1	10
518.465	1	4
518.635	1	14
518.805	1	12
518.975	1	6
519.145	1	9
519.315	1	8
519.485	1	-2
519.656	1	-2
519.826	1	1
519.996	1	10
520.166	1	4
520.336	1	13
520.506	1	5
520.676	1	6
520.846	1	2
521.017	1	3
521.187	1	6
521.357	1	4
521.527	1	-2
521.697	1	1
521.867	1	3
522.037	1	3
522.207	1	6
522.377	1	10
522.548	1	-5
522.718	1	8
522.888	1	7
523.058	1	8
523.228	1	-1
523.398	1	-3
523.568	1	-3
523.738	1	-2
523.909	1	6
524.079	1	-1
524.249	1	0
524.419	1	9
524.589	1	8
524.759	1	14
524.929	1	3
525.099	1	-3
525.269	1	4
525.439	1	0
525.610	1	2
525.780	1	5
525.950	1	6
526.120	1	-1
526.290	1	2
526.460	1	-1
526.630	1	-1
526.800	1	0
526.970	1	3
527.140	1	1
527.311	1	6
527.481	1	5
527.651	1	6
527.821	1	-2
527.991	1	1
528.161	1	7
528.331	1	1
528.501	1	-4
528.671	1	13
528.841	1	-1
529.011	1	12
529.181	1	2
529.352	1	-10
529.522	1	8
529.692	1	3
529.862	1	-4
530.032	1	-4
530.202	1	3
530.372	1	7
530.542	1	7
530.712	1	3
530.882	1	5
531.052	1	-2
531.222	1	13
531.392	1	6
531.563	1	7
531.733	1	3
531.903	1	7
532.073	1	2
532.243	1	15
532.413	1	23
532.583	1	3
532.753	1	-1
532.923	1	10
533.093	1	-6
533.263	1	1
533.433	1	-8
533.603	1	4
533.773	1	6
533.943	1	-1
534.113	1	6
534.284	1	-3
534.454	1	-1
534.624	1	6
534.794	1	3
534.964	1	9
535.134	1	-3
535.304	1	9
535.474	1	6
535.644	1	0
535.814	1	-1
535.984	1	3
536.154	1	4
536.324	1	3
536.494	1	13
536.664	1	1
536.834	1	-2
537.004	1	-7
537.174	1	14
537.344	1	2
537.514	1	4
537.685	1	7
537.855	1	8
538.025	1	15
538.195	1	7
538.365	1	0
538.535	1	-1
538.705	1	3
538.875	1	12
539.045	1	4
539.215	1	-5
539.385	1	7
539.555	1	0
539.725	1	5
539.895	1	5
540.065	1	10
540.235	1	8
540.405	1	-3
540.575	1	3
540.745	1	6
540.915	1	-1
541.085	1	-4
541.255	1	5
541.425	1	-1
541.595	1	4
541.765	1	4
541.935	1	0
542.105	1	-1
542.275	1	3
542.445	1	1
542.615	1	1
542.785	1	-5
542.955	1	13
543.125	1	1
543.295	1	5
543.465	1	12
543.635	1	-5
543.805	1	9
543.975	1	0
544.145	1	5
544.315	1	-12
544.485	1	2
544.655	1	-4
544.825	1	8
544.995	1	-4
545.165	1	6
545.335	1	3
545.505	1	2
545.675	1	10
545.845	1	11
546.015	1	0
546.185	1	1
546.355	1	-6
546.525	1	8
546.695	1	2
546.865	1	5
547.035	1	9
547.205	1	7
547.375	1	7
547.545	1	6
547.715	1	1
547.885	1	-4
548.055	1	-7
548.225	1	18
548.395	1	2
548.565	1	11
548.735	1	-7
548.905	1	5
549.075	1	-1
549.245	1	-1
549.415	1	9
549.585	1	1
549.755	1	3
549.925	1	-7
550.095	1	-2
550.265	1	-1
550.435	1	4
550.605	1	4
550.775	1	-3
550.945	1	-1
551.115	1	8
551.285	1	-2
551.455	1	9
551.625	1	4
551.795	1	-1
551.965	1	-5
552.135	1	2
552.305	1	7
552.475	1	9
552.645	1	-1
552.815	1	8
552.985	1	-3
553.155	1	-2
553.325	1	1
553.495	1	8
553.665	1	7
553.835	1	2
554.004	1	1
554.174	1	-9
554.344	1	1
554.514	1	-5
554.684	1	7
554.854	1	1
555.024	1	9
555.194	1	-4
555.364	1	8
555.534	1	-2
555.704	1	8
555.874	1	6
556.044	1	4
556.214	1	0
556.384	1	6
556.554	1	2
556.724	1	-2
556.894	1	4
557.064	1	4
557.234	1	-1
557.404	1	1
557.573	1	2
557.743	1	-8
557.913	1	-8
558.083	1	6
558.253	1	9
558.423	1	0
558.593	1	0
558.763	1	10
558.933	1	1
559.103	1	-2
559.273	1	9
559.443	1	-1
559.613	1	7
559.783	1	-8
559.953	1	-2
560.122	1	-4
560.292	1	1
560.462	1	-8
560.632	1	-4
560.802	1	8
560.972	1	-4
561.142	1	7
561.312	1	0
561.482	1	11
561.652	1	7
561.822	1	-5
561.992	1	5
562.162	1	4
562.331	1	-7
562.501	1	7
562.671	1	-2
562.841	1	-7
563.011	1	2
563.181	1	-3
563.351	1	-8
563.521	1	1
563.691	1	9
563.861	1	3
564.031	1	-1
564.201	1	3
564.370	1	11
564.540	1	-1
564.710	1	1
564.880	1	2
565.050	1	-3
565.220	1	4
565.390	1	-4
565.560	1	12
565.730	1	4
565.900	1	1
566.069	1	7
566.239	1	16
566.409	1	4
566.579	1	3
566.749	1	8
566.919	1	-7
567.089	1	-7
567.259	1	0
567.429	1	-4
567.599	1	9
567.768	1	1
567.938	1	9
568.108	1	7
568.278	1	8
568.448	1	-10
568.618	1	-4
568.788	1	-6
568.958	1	-3
569.128	1	-5
569.297	1	-11
569.467	1	7
569.637	1	-1
569.807	1	4
569.977	1	2
570.147	1	10
570.317	1	-2
570.487	1	-5
570.656	1	9
570.826	1	1
570.996	1	11
571.166	1	-1
571.336	1	4
571.506	1	-9
571.676	1	-1
571.846	1	12
572.015	1	6
572.185	1	2
572.355	1	-4
572.525	1	-4
572.695	1	4
572.865	1	10
573.035	1	4
573.205	1	11
573.374	1	-7
573.544	1	-1
573.714	1	-5
573.884	1	-7
574.054	1	-3
574.224	1	4
574.394	1	-1
574.563	1	-1
574.733	1	0
574.903	1	7
575.073	1	4
575.243	1	-9
575.413	1	1
575.583	1	-10
575.752	1	-2
575.922	1	7
576.092	1	0
576.262	1	1
576.432	1	1
576.602	1	7
576.772	1	-2
576.941	1	3
577.111	1	0
577.281	1	2
577.451	1	9
577.621	1	0
577.791	1	2
577.960	1	2
578.130	1	0
578.300	1	7
578.470	1	4
578.640	1	6
578.810	1	2
578.979	1	1
579.149	1	-1
579.319	1	4
579.489	1	9
579.659	1	-2
579.829	1	-9
579.998	1	-8
580.168	1	-7
580.338	1	-2
580.508	1	2
580.678	1	-1
580.848	1	0
581.017	1	3
581.187	1	6
581.357	1	1
581.527	1	-2
581.697	1	1
581.867	1	9
582.036	1	-13
582.206	1	2
582.376	1	1
582.546	1	-6
582.716	1	10
582.885	1	-1
583.055	1	-8
583.225	1	7
583.395	1	1
583.565	1	6
583.735	1	7
583.904	1	-3
584.074	1	6
584.244	1	-3
584.414	1	1
584.584	1	-5
584.753	1	2
584.923	1	4
585.093	1	13
585.263	1	5
585.433	1	3
585.602	1	5
585.772	1	13
585.942	1	2
586.112	1	0
586.282	1	-6
586.451	1	4
586.621	1	5
586.791	1	5
586.961	1	0
587.131	1	0
587.300	1	10
587.470	1	3
587.640	1	-3
587.810	1	-7
587.980	1	0
588.149	1	6
588.319	1	13
588.489	1	5
588.659	1	-3
588.829	1	-2
588.998	1	-1
589.168	1	0
589.338	1	-3
589.508	1	6
589.677	1	-4
589.847	1	15
590.017	1	-1
590.187	1	12
590.357	1	5
590.526	1	-2
590.696	1	0
590.866	1	0
591.036	1	5
591.205	1	1
591.375	1	7
591.545	1	5
591.715	1	-1
591.885	1	3
592.054	1	5
592.224	1	0
592.394	1	-13
592.564	1	0
592.733	1	5
592.903	1	6
593.073	1	-6
593.243	1	7
593.412	1	2
593.582	1	6
593.752	1	7
593.922	1	6
594.091	1	9
594.261	1	-11
594.431	1	1
594.601	1	1
594.771	1	6
594.940	1	-8
595.110	1	6
595.280	1	3
595.450	1	-2
595.619	1	-4
595.789	1	-7
595.959	1	-7
596.129	1	-4
596.298	1	9
596.468	1	-5
596.638	1	-2
596.808	1	-11
596.977	1	-3
597.147	1	-1
597.317	1	4
597.487	1	7
597.656	1	4
597.826	1	6
597.996	1	-2
598.166	1	3
598.335	1	-6
598.505	1	2
598.675	1	-2
598.844	1	16
599.014	1	-7
599.184	1	5
599.354	1	7
599.523	1	-1
599.693	1	-1
599.863	1	2
600.033	1	11
600.202	1	0
600.372	1	-3
600.542	1	-1
600.712	1	-1
600.881	1	1
601.051	1	5
601.221	1	6
601.390	1	6
601.560	1	7
601.730	1	8
601.900	1	0
602.069	1	-4
602.239	1	2
602.409	1	-3
602.578	1	6
602.748	1	11
602.918	1	0
603.088	1	6
603.257	1	-8
603.427	1	9
603.597	1	-4
603.767	1	7
603.936	1	6
604.106	1	-7
604.276	1	6
604.445	1	-5
604.615	1	-8
604.785	1	-3
604.954	1	4
605.124	1	2
605.294	1	-2
605.464	1	-4
605.633	1	-3
605.803	1	9
605.973	1	3
606.142	1	9
606.312	1	3
606.482	1	-9
606.652	1	-1
606.821	1	-4
606.991	1	3
607.161	1	8
607.330	1	-3
607.500	1	12
607.670	1	4
607.839	1	1
608.009	1	-2
608.179	1	1
608.348	1	3
608.518	1	13
608.688	1	10
608.858	1	2
609.027	1	22
609.197	1	1
609.367	1	-12
609.536	1	1
609.706	1	14
609.876	1	8
610.045	1	4
610.215	1	4
610.385	1	3
610.554	1	5
610.724	1	3
610.894	1	2
611.063	1	-4
611.233	1	6
611.403	1	5
611.572	1	11
611.742	1	-6
611.912	1	-2
612.081	1	12
612.251	1	7
612.421	1	1
612.590	1	2
612.760	1	1
612.930	1	5
613.099	1	4
613.269	1	-6
613.439	1	-3
613.608	1	4
613.778	1	-8
613.948	1	15
614.117	1	1
614.287	1	-2
614.457	1	-1
614.626	1	1
614.796	1	6
614.966	1	6
615.135	1	13
615.305	1	10
615.475	1	-6
615.644	1	14
615.814	1	20
615.984	1	-3
616.153	1	-5
616.323	1	1
616.493	1	2
616.662	1	4
616.832	1	-2
617.002	1	0
617.171	1	9
617.341	1	7
617.511	1	-1
617.680	1	-5
617.850	1	3
618.019	1	-6
618.189	1	14
618.359	1	5
618.528	1	6
618.698	1	17
618.868	1	5
619.037	1	10
619.207	1	-1
619.377	1	3
619.546	1	9
619.716	1	-3
619.885	1	0
620.055	1	-3
620.225	1	4
620.394	1	10
620.564	1	-5
620.734	1	0
620.903	1	-6
621.073	1	10
621.242	1	3
621.412	1	1
621.582	1	5
621.751	1	-5
621.921	1	3
622.091	1	-1
622.260	1	10
622.430	1	7
622.599	1	8
622.769	1	-1
622.939	1	2
623.108	1	1
623.278	1	3
623.448	1	-1
623.617	1	3
623.787	1	-4
623.956	1	5
624.126	1	7
624.296	1	3
624.465	1	7
624.635	1	3
624.804	1	-9
624.974	1	-5
625.144	1	1
625.313	1	10
625.483	1	10
625.652	1	-2
625.822	1	12
625.992	1	-7
626.161	1	-4
626.331	1	3
626.501	1	2
626.670	1	5
626.840	1	-1
627.009	1	6
627.179	1	0
627.348	1	2
627.518	1	8
627.688	1	-1
627.857	1	10
628.027	1	4
628.196	1	7
628.366	1	-1
628.536	1	6
628.705	1	1
628.875	1	-3
629.044	1	1
629.214	1	4
629.384	1	12
629.553	1	1
629.723	1	7
629.892	1	5
630.062	1	3
630.232	1	16
630.401	1	4
630.571	1	1
630.740	1	-11
630.910	1	8
631.079	1	-1
631.249	1	7
631.419	1	1
631.588	1	-5
631.758	1	-4
631.927	1	15
632.097	1	3
632.266	1	12
632.436	1	-2
632.606	1	-3
632.775	1	3
632.945	1	-5
633.114	1	-5
633.284	1	7
633.453	1	9
633.623	1	17
633.793	1	-6
633.962	1	-1
634.132	1	7
634.301	1	5
634.471	1	10
634.640	1	0
634.810	1	-1
634.979	1	4
635.149	1	-1
635.319	1	2
635.488	1	-7
635.658	1	-1
635.827	1	-3
635.997	1	14
636.166	1	3
636.336	1	0
636.505	1	11
636.675	1	3
636.845	1	-3
637.014	1	-3
637.184	1	9
637.353	1	7
637.523	1	9
637.692	1	1
637.862	1	-7
638.031	1	-8
638.201	1	9
638.370	1	5
638.540	1	-7
638.710	1	-7
638.879	1	-1
639.049	1	7
639.218	1	5
639.388	1	5
639.557	1	7
639.727	1	13
639.896	1	-1
640.066	1	6
640.235	1	5
640.405	1	1
640.574	1	12
640.744	1	-5
640.914	1	7
641.083	1	8
641.253	1	-4
641.422	1	2
641.592	1	1
641.761	1	2
641.931	1	9
642.100	1	-3
642.270	1	-4
642.439	1	3
642.609	1	0
642.778	1	9
642.948	1	6
643.117	1	11
643.287	1	6
643.456	1	-9
643.626	1	-2
643.795	1	4
643.965	1	9
644.134	1	6
644.304	1	5
644.473	1	6
644.643	1	10
644.812	1	-1
644.982	1	3
645.151	1	-6
645.321	1	7
645.490	1	13
645.660	1	-9
645.829	1	8
645.999	1	-9
646.168	1	20
646.338	1	1
646.507	1	0
646.677	1	2
646.846	1	4
647.016	1	14
647.185	1	12
647.355	1	14
647.524	1	-6
647.694	1	3
647.863	1	2
648.033	1	7
648.202	1	10
648.372	1	-10
648.541	1	7
648.711	1	0
648.880	1	6
649.050	1	3
649.219	1	7
649.389	1	-8
649.558	1	15
649.728	1	7
649.897	1	6
650.067	1	9
650.236	1	-2
650.406	1	-3
650.575	1	4
650.745	1	10
650.914	1	7
651.084	1	-8
651.253	1	5
651.423	1	-4
651.592	1	3
651.762	1	10
651.931	1	11
652.101	1	-6
652.270	1	-6
652.440	1	9
652.609	1	-3
652.778	1	7
652.948	1	3
653.117	1	8
653.287	1	3
653.456	1	2
653.626	1	10
653.795	1	5
653.965	1	-4
654.134	1	-3
654.304	1	3
654.473	1	-4
654.643	1	5
654.812	1	15
654.982	1	9
655.151	1	8
655.320	1	-2
655.490	1	-2
655.659	1	4
655.829	1	10
655.998	1	2
656.168	1	-5
656.337	1	8
656.507	1	3
656.676	1	-3
656.846	1	8
657.015	1	11
657.184	1	2
657.354	1	8
657.523	1	-4
657.693	1	0
657.862	1	-11
658.032	1	7
658.201	1	-3
658.371	1	-1
658.540	1	7
658.709	1	16
658.879	1	13
659.048	1	6
659.218	1	-1
659.387	1	9
659.557	1	4
659.726	1	0
659.895	1	6
660.065	1	-7
660.234	1	-5
660.404	1	5
660.573	1	-1
660.743	1	-3
660.912	1	5
661.081	1	-4
661.251	1	4
661.420	1	14
661.590	1	5
661.759	1	16
661.929	1	12
662.098	1	9
662.267	1	-6
662.437	1	8
662.606	1	-4
662.776	1	6
662.945	1	7
663.115	1	20
663.284	1	7
663.453	1	-8
663.623	1	1
663.792	1	13
663.962	1	13
664.131	1	3
664.300	1	1
664.470	1	-3
664.639	1	2
664.809	1	1
664.978	1	13
665.148	1	7
665.317	1	7
665.486	1	3
665.656	1	7
665.825	1	8
665.995	1	-6
666.164	1	2
666.333	1	9
666.503	1	-3
666.672	1	11
666.842	1	6
667.011	1	2
667.180	1	-5
667.350	1	3
667.519	1	5
667.689	1	-1
667.858	1	1
668.027	1	2
668.197	1	-6
668.366	1	8
668.536	1	-4
668.705	1	-8
668.874	1	7
669.044	1	20
669.213	1	6
669.382	1	17
669.552	1	6
669.721	1	-12
669.891	1	4
670.060	1	5
670.229	1	10
670.399	1	9
670.568	1	8
670.738	1	5
670.907	1	-3
671.076	1	5
671.246	1	11
671.415	1	7
671.584	1	10
671.754	1	-5
671.923	1	1
672.093	1	1
672.262	1	4
672.431	1	5
672.601	1	5
672.770	1	5
672.939	1	9
673.109	1	1
673.278	1	6
673.448	1	1
673.617	1	6
673.786	1	-5
