325.333	1	3
325.504	1	-4
325.675	1	17
325.846	1	-7
326.017	1	1
326.188	1	5
326.359	1	10
326.531	1	-4
326.702	1	-5
326.873	1	10
327.044	1	7
327.215	1	-6
327.386	1	0
327.557	1	-4
327.728	1	-4
327.899	1	-2
328.070	1	8
328.241	1	2
328.412	1	5
328.583	1	-3
328.754	1	6
328.926	1	5
329.097	1	-4
329.268	1	5
329.439	1	17
329.610	1	-2
329.781	1	5
329.952	1	8
330.123	1	-2
330.294	1	-1
330.465	1	-5
330.636	1	5
330.807	1	4
330.978	1	-9
331.149	1	-2
331.320	1	6
331.492	1	6
331.663	1	3
331.834	1	8
332.005	1	9
332.176	1	6
332.347	1	-4
332.518	1	8
332.689	1	6
332.860	1	0
333.031	1	7
333.202	1	2
333.373	1	3
333.544	1	2
333.715	1	-4
333.886	1	-6
334.057	1	-3
334.228	1	4
334.399	1	14
334.570	1	-1
334.741	1	-4
334.912	1	-5
335.084	1	2
335.255	1	10
335.426	1	4
335.597	1	-6
335.768	1	7
335.939	1	7
336.110	1	1
336.281	1	-3
336.452	1	19
336.623	1	-5
336.794	1	5
336.965	1	-4
337.136	1	7
337.307	1	-3
337.478	1	-1
337.649	1	2
337.820	1	0
337.991	1	10
338.162	1	-4
338.333	1	0
338.504	1	7
338.675	1	-5
338.846	1	-15
339.017	1	1
339.188	1	5
339.359	1	8
339.530	1	11
339.701	1	8
339.872	1	13
340.043	1	-1
340.214	1	5
340.385	1	-8
340.556	1	12
340.727	1	1
340.898	1	-1
341.069	1	-8
341.240	1	3
341.411	1	7
341.582	1	-2
341.753	1	0
341.924	1	15
342.095	1	7
342.266	1	4
342.437	1	1
342.608	1	-10
342.779	1	2
342.950	1	-3
343.121	1	6
343.292	1	-1
343.463	1	14
343.634	1	7
343.805	1	2
343.976	1	9
344.147	1	6
344.318	1	-6
344.489	1	1
344.660	1	3
344.831	1	15
345.002	1	-1
345.173	1	0
345.344	1	-3
345.515	1	2
345.686	1	8
345.857	1	10
346.028	1	9
346.199	1	8
346.370	1	3
346.541	1	-10
346.712	1	5
346.883	1	0
347.054	1	5
347.225	1	-3
347.396	1	-4
347.567	1	3
347.738	1	6
347.909	1	11
348.080	1	-2
348.251	1	-1
348.422	1	10
348.593	1	11
348.764	1	0
348.935	1	2
349.106	1	-2
349.277	1	5
349.448	1	8
349.619	1	4
349.790	1	11
349.961	1	2
350.132	1	7
350.303	1	10
350.474	1	1
350.645	1	0
350.816	1	4
350.987	1	9
351.157	1	2
351.328	1	1
351.499	1	10
351.670	1	7
351.841	1	3
352.012	1	4
352.183	1	13
352.354	1	3
352.525	1	5
352.696	1	3
352.867	1	7
353.038	1	5
353.209	1	-2
353.380	1	0
353.551	1	12
353.722	1	10
353.893	1	5
354.064	1	2
354.235	1	-1
354.406	1	-7
354.576	1	2
354.747	1	1
354.918	1	5
355.089	1	13
355.260	1	7
355.431	1	-6
355.602	1	8
355.773	1	3
355.944	1	-3
356.115	1	14
356.286	1	10
356.457	1	4
356.628	1	7
356.799	1	7
356.970	1	16
357.141	1	3
357.311	1	6
357.482	1	0
357.653	1	3
357.824	1	8
357.995	1	7
358.166	1	-3
358.337	1	-4
358.508	1	14
358.679	1	0
358.850	1	15
359.021	1	6
359.192	1	13
359.363	1	7
359.533	1	2
359.704	1	-2
359.875	1	1
360.046	1	8
360.217	1	10
360.388	1	10
360.559	1	13
360.730	1	-1
360.901	1	2
361.072	1	6
361.243	1	7
361.414	1	16
361.584	1	-1
361.755	1	10
361.926	1	9
362.097	1	14
362.268	1	15
362.439	1	-9
362.610	1	9
362.781	1	-9
362.952	1	8
363.123	1	-6
363.293	1	5
363.464	1	0
363.635	1	19
363.806	1	7
363.977	1	2
364.148	1	1
364.319	1	-4
364.490	1	15
364.661	1	-6
364.832	1	11
365.002	1	5
365.173	1	10
365.344	1	4
365.515	1	9
365.686	1	13
365.857	1	9
366.028	1	12
366.199	1	10
366.370	1	4
366.540	1	1
366.711	1	7
366.882	1	-1
367.053	1	7
367.224	1	9
367.395	1	5
367.566	1	14
367.737	1	9
367.908	1	11
368.078	1	5
368.249	1	4
368.420	1	5
368.591	1	12
368.762	1	6
368.933	1	3
369.104	1	9
369.274	1	18
369.445	1	10
369.616	1	-4
369.787	1	0
369.958	1	-1
370.129	1	4
370.300	1	-4
370.471	1	7
370.641	1	3
370.812	1	9
370.983	1	-3
371.154	1	13
371.325	1	6
371.496	1	-3
371.667	1	13
371.837	1	12
372.008	1	-3
372.179	1	1
372.350	1	5
372.521	1	11
372.692	1	14
372.863	1	11
373.033	1	12
373.204	1	1
373.375	1	4
373.546	1	9
373.717	1	1
373.888	1	-4
374.059	1	7
374.229	1	8
374.400	1	10
374.571	1	6
374.742	1	3
374.913	1	3
375.084	1	7
375.254	1	-5
375.425	1	8
375.596	1	5
375.767	1	6
375.938	1	-7
376.109	1	6
376.279	1	6
376.450	1	3
376.621	1	16
376.792	1	18
376.963	1	9
377.134	1	11
377.304	1	10
377.475	1	-9
377.646	1	-2
377.817	1	13
377.988	1	11
378.159	1	12
378.329	1	10
378.500	1	14
378.671	1	9
378.842	1	6
379.013	1	17
379.184	1	-2
379.354	1	10
379.525	1	10
379.696	1	10
379.867	1	11
380.038	1	3
380.209	1	14
380.379	1	11
380.550	1	-8
380.721	1	4
380.892	1	4
381.063	1	4
381.233	1	-1
381.404	1	17
381.575	1	7
381.746	1	16
381.917	1	-2
382.087	1	17
382.258	1	3
382.429	1	2
382.600	1	4
382.771	1	1
382.941	1	8
383.112	1	1
383.283	1	12
383.454	1	2
383.625	1	8
383.795	1	1
383.966	1	17
384.137	1	12
384.308	1	4
384.479	1	5
384.649	1	-2
384.820	1	9
384.991	1	9
385.162	1	15
385.333	1	9
385.503	1	5
385.674	1	5
385.845	1	6
386.016	1	16
386.187	1	-8
386.357	1	14
386.528	1	5
386.699	1	5
386.870	1	10
387.041	1	10
387.211	1	9
387.382	1	18
387.553	1	10
387.724	1	4
387.894	1	-1
388.065	1	8
388.236	1	7
388.407	1	14
388.578	1	7
388.748	1	10
388.919	1	7
389.090	1	20
389.261	1	17
389.431	1	-1
389.602	1	0
389.773	1	9
389.944	1	11
390.114	1	10
390.285	1	5
390.456	1	5
390.627	1	6
390.798	1	10
390.968	1	8
391.139	1	15
391.310	1	-2
391.481	1	9
391.651	1	22
391.822	1	21
391.993	1	6
392.164	1	6
392.334	1	13
392.505	1	8
392.676	1	-3
392.847	1	10
393.017	1	-4
393.188	1	10
393.359	1	30
393.530	1	18
393.700	1	4
393.871	1	16
394.042	1	2
394.213	1	6
394.383	1	12
394.554	1	2
394.725	1	-7
394.896	1	17
395.066	1	1
395.237	1	8
395.408	1	14
395.579	1	9
395.749	1	5
395.920	1	15
396.091	1	-1
396.262	1	2
396.432	1	6
396.603	1	11
396.774	1	3
396.945	1	23
397.115	1	18
397.286	1	10
397.457	1	5
397.627	1	3
397.798	1	5
397.969	1	7
398.140	1	3
398.310	1	7
398.481	1	15
398.652	1	13
398.823	1	3
398.993	1	10
399.164	1	12
399.335	1	2
399.505	1	-1
399.676	1	15
399.847	1	14
400.018	1	5
400.188	1	13
400.359	1	16
400.530	1	13
400.700	1	13
400.871	1	11
401.042	1	10
401.213	1	10
401.383	1	14
401.554	1	5
401.725	1	15
401.895	1	1
402.066	1	16
402.237	1	16
402.408	1	15
402.578	1	19
402.749	1	11
402.920	1	17
403.090	1	7
403.261	1	5
403.432	1	18
403.603	1	10
403.773	1	19
403.944	1	21
404.115	1	11
404.285	1	16
404.456	1	11
404.627	1	20
404.797	1	-5
404.968	1	3
405.139	1	9
405.310	1	17
405.480	1	5
405.651	1	6
405.822	1	3
405.992	1	12
406.163	1	10
406.334	1	9
406.504	1	7
406.675	1	4
406.846	1	10
407.016	1	10
407.187	1	14
407.358	1	10
407.528	1	18
407.699	1	17
407.870	1	11
408.041	1	14
408.211	1	20
408.382	1	8
408.553	1	19
408.723	1	13
408.894	1	1
409.065	1	9
409.235	1	9
409.406	1	7
409.577	1	8
409.747	1	13
409.918	1	11
410.089	1	20
410.259	1	18
410.430	1	6
410.601	1	23
410.771	1	10
410.942	1	11
411.113	1	18
411.283	1	9
411.454	1	26
411.625	1	10
411.795	1	15
411.966	1	5
412.137	1	22
412.307	1	14
412.478	1	7
412.649	1	6
412.819	1	12
412.990	1	15
413.161	1	6
413.331	1	9
413.502	1	7
413.672	1	3
413.843	1	13
414.014	1	6
414.184	1	16
414.355	1	20
414.526	1	11
414.696	1	9
414.867	1	8
415.038	1	11
415.208	1	3
415.379	1	8
415.550	1	15
415.720	1	5
415.891	1	18
416.062	1	8
416.232	1	17
416.403	1	19
416.573	1	10
416.744	1	18
416.915	1	8
417.085	1	14
417.256	1	9
417.427	1	17
417.597	1	12
417.768	1	14
417.939	1	6
418.109	1	8
418.280	1	3
418.450	1	16
418.621	1	9
418.792	1	15
418.962	1	11
419.133	1	10
419.304	1	6
419.474	1	22
419.645	1	8
419.815	1	9
419.986	1	15
420.157	1	0
420.327	1	13
420.498	1	9
420.669	1	17
420.839	1	10
421.010	1	12
421.180	1	7
421.351	1	8
421.522	1	14
421.692	1	19
421.863	1	13
422.033	1	7
422.204	1	8
422.375	1	6
422.545	1	23
422.716	1	-6
422.886	1	15
423.057	1	-2
423.228	1	7
423.398	1	18
423.569	1	10
423.740	1	14
423.910	1	23
424.081	1	18
424.251	1	15
424.422	1	14
424.593	1	7
424.763	1	9
424.934	1	17
425.104	1	18
425.275	1	9
425.445	1	18
425.616	1	13
425.787	1	9
425.957	1	7
426.128	1	3
426.298	1	14
426.469	1	4
426.640	1	6
426.810	1	1
426.981	1	14
427.151	1	1
427.322	1	12
427.493	1	1
427.663	1	20
427.834	1	3
428.004	1	23
428.175	1	10
428.345	1	1
428.516	1	5
428.687	1	19
428.857	1	16
429.028	1	2
429.198	1	-1
429.369	1	11
429.540	1	11
429.710	1	27
429.881	1	9
430.051	1	1
430.222	1	11
430.392	1	6
430.563	1	3
430.734	1	15
430.904	1	15
431.075	1	9
431.245	1	10
431.416	1	14
431.586	1	3
431.757	1	12
431.927	1	12
432.098	1	14
432.269	1	9
432.439	1	6
432.610	1	13
432.780	1	13
432.951	1	-2
433.121	1	12
433.292	1	16
433.462	1	8
433.633	1	6
433.804	1	12
433.974	1	16
434.145	1	6
434.315	1	10
434.486	1	4
434.656	1	12
434.827	1	10
434.997	1	9
435.168	1	15
435.339	1	20
435.509	1	6
435.680	1	10
435.850	1	1
436.021	1	15
436.191	1	6
436.362	1	7
436.532	1	10
436.703	1	16
436.873	1	-1
437.044	1	8
437.214	1	2
437.385	1	8
437.556	1	9
437.726	1	14
437.897	1	15
438.067	1	2
438.238	1	6
438.408	1	5
438.579	1	4
438.749	1	6
438.920	1	17
439.090	1	1
439.261	1	10
439.431	1	2
439.602	1	12
439.772	1	8
439.943	1	3
440.113	1	7
440.284	1	9
440.455	1	10
440.625	1	20
440.796	1	8
440.966	1	9
441.137	1	8
441.307	1	15
441.478	1	1
441.648	1	5
441.819	1	7
441.989	1	12
442.160	1	10
442.330	1	9
442.501	1	11
442.671	1	10
442.842	1	6
443.012	1	9
443.183	1	12
443.353	1	16
443.524	1	13
443.694	1	4
443.865	1	14
444.035	1	9
444.206	1	4
444.376	1	20
444.547	1	7
444.717	1	14
444.888	1	6
445.058	1	6
445.229	1	18
445.399	1	14
445.570	1	3
445.740	1	6
445.911	1	21
446.081	1	15
446.252	1	9
446.422	1	9
446.593	1	8
446.763	1	13
446.934	1	2
447.104	1	-2
447.275	1	7
447.445	1	4
447.616	1	7
447.786	1	5
447.957	1	14
448.127	1	9
448.298	1	12
448.468	1	8
448.639	1	-2
448.809	1	1
448.979	1	8
449.150	1	4
449.320	1	9
449.491	1	9
449.661	1	13
449.832	1	3
450.002	1	7
450.173	1	6
450.343	1	0
450.514	1	11
450.684	1	2
450.855	1	14
451.025	1	8
451.196	1	0
451.366	1	14
451.537	1	17
451.707	1	12
451.878	1	0
452.048	1	5
452.218	1	7
452.389	1	14
452.559	1	20
452.730	1	12
452.900	1	8
453.071	1	12
453.241	1	5
453.412	1	4
453.582	1	9
453.753	1	16
453.923	1	5
454.093	1	0
454.264	1	12
454.434	1	15
454.605	1	2
454.775	1	6
454.946	1	-6
455.116	1	9
455.287	1	-2
455.457	1	12
455.628	1	1
455.798	1	9
455.968	1	7
456.139	1	12
456.309	1	2
456.480	1	8
456.650	1	5
456.821	1	0
456.991	1	11
457.161	1	13
457.332	1	5
457.502	1	-3
457.673	1	-5
457.843	1	7
458.014	1	6
458.184	1	15
458.355	1	13
458.525	1	4
458.695	1	-1
458.866	1	0
459.036	1	5
459.207	1	11
459.377	1	9
459.548	1	-3
459.718	1	6
459.888	1	1
460.059	1	6
460.229	1	13
460.400	1	5
460.570	1	-5
460.740	1	3
460.911	1	-3
461.081	1	7
461.252	1	7
461.422	1	-1
461.593	1	8
461.763	1	12
461.933	1	0
462.104	1	4
462.274	1	2
462.445	1	4
462.615	1	19
462.785	1	11
462.956	1	-3
463.126	1	0
463.297	1	8
463.467	1	5
463.638	1	10
463.808	1	12
463.978	1	-7
464.149	1	5
464.319	1	15
464.490	1	-7
464.660	1	9
464.830	1	8
465.001	1	2
465.171	1	4
465.342	1	2
465.512	1	11
465.682	1	-3
465.853	1	-1
466.023	1	6
466.194	1	14
466.364	1	12
466.534	1	-5
466.705	1	14
466.875	1	0
467.045	1	-3
467.216	1	8
467.386	1	11
467.557	1	8
467.727	1	3
467.897	1	7
468.068	1	7
468.238	1	-1
468.409	1	17
468.579	1	5
468.749	1	7
468.920	1	-10
469.090	1	12
469.260	1	1
469.431	1	8
469.601	1	9
469.772	1	17
469.942	1	7
470.112	1	-3
470.283	1	12
470.453	1	14
470.623	1	8
470.794	1	-1
470.964	1	3
471.135	1	5
471.305	1	5
471.475	1	1
471.646	1	8
471.816	1	8
471.986	1	3
472.157	1	6
472.327	1	8
472.497	1	7
472.668	1	10
472.838	1	10
473.009	1	14
473.179	1	-3
473.349	1	0
473.520	1	19
473.690	1	6
473.860	1	-10
474.031	1	-4
474.201	1	-2
474.371	1	13
474.542	1	0
474.712	1	1
474.882	1	2
475.053	1	7
475.223	1	2
475.394	1	1
475.564	1	3
475.734	1	-2
475.905	1	9
476.075	1	10
476.245	1	8
476.416	1	-6
476.586	1	-1
476.756	1	7
476.927	1	-10
477.097	1	-3
477.267	1	-1
477.438	1	12
477.608	1	18
477.778	1	-3
477.949	1	7
478.119	1	9
478.289	1	-2
478.460	1	-1
478.630	1	2
478.800	1	0
478.971	1	2
479.141	1	3
479.311	1	6
479.482	1	5
479.652	1	8
479.822	1	-5
479.993	1	5
480.163	1	6
480.333	1	2
480.504	1	3
480.674	1	4
480.844	1	9
481.015	1	9
481.185	1	11
481.355	1	12
481.525	1	1
481.696	1	5
481.866	1	14
482.036	1	5
482.207	1	9
482.377	1	4
482.547	1	3
482.718	1	9
482.888	1	7
483.058	1	5
483.229	1	6
483.399	1	9
483.569	1	-3
483.740	1	1
483.910	1	-2
484.080	1	4
484.250	1	-1
484.421	1	-8
484.591	1	0
484.761	1	4
484.932	1	4
485.102	1	11
485.272	1	4
485.443	1	0
485.613	1	5
485.783	1	0
485.953	1	4
486.124	1	6
486.294	1	13
486.464	1	10
486.635	1	5
486.805	1	4
486.975	1	0
487.146	1	6
487.316	1	4
487.486	1	4
487.656	1	8
487.827	1	10
487.997	1	-1
488.167	1	2
488.338	1	-7
488.508	1	1
488.678	1	5
488.848	1	-2
489.019	1	-4
489.189	1	14
489.359	1	5
489.529	1	2
489.700	1	6
489.870	1	3
490.040	1	-5
490.211	1	-14
490.381	1	-7
490.551	1	1
490.721	1	-1
490.892	1	-9
491.062	1	1
491.232	1	5
491.402	1	0
491.573	1	12
491.743	1	5
491.913	1	-3
492.084	1	-5
492.254	1	-10
492.424	1	9
492.594	1	6
492.765	1	19
492.935	1	5
493.105	1	-1
493.275	1	5
493.446	1	1
493.616	1	-4
493.786	1	2
493.956	1	-1
494.127	1	0
494.297	1	-6
494.467	1	-4
494.637	1	2
494.808	1	15
494.978	1	-1
495.148	1	-3
495.318	1	10
495.489	1	5
495.659	1	3
495.829	1	-4
495.999	1	15
496.170	1	7
496.340	1	4
496.510	1	13
496.680	1	4
496.851	1	11
497.021	1	6
497.191	1	-2
497.361	1	-6
497.532	1	6
497.702	1	5
497.872	1	-1
498.042	1	3
498.213	1	-7
498.383	1	3
498.553	1	-4
498.723	1	-3
498.894	1	6
499.064	1	6
499.234	1	-3
499.404	1	2
499.574	1	3
499.745	1	5
499.915	1	-1
500.085	1	-1
500.255	1	-10
500.426	1	2
500.596	1	-7
500.766	1	-4
500.936	1	-7
501.106	1	-5
501.277	1	-1
501.447	1	11
501.617	1	1
501.787	1	-4
501.958	1	7
502.128	1	-6
502.298	1	6
502.468	1	-1
502.638	1	8
502.809	1	-4
502.979	1	-5
503.149	1	-2
503.319	1	8
503.489	1	-11
503.660	1	3
503.830	1	5
504.000	1	-5
504.170	1	-6
504.340	1	-10
504.511	1	-1
504.681	1	7
504.851	1	0
505.021	1	3
505.192	1	-9
505.362	1	6
505.532	1	-8
505.702	1	16
505.872	1	-3
506.043	1	0
506.213	1	4
506.383	1	-2
506.553	1	14
506.723	1	-6
506.893	1	-1
507.064	1	2
507.234	1	1
507.404	1	-5
507.574	1	-2
507.744	1	10
507.915	1	-9
508.085	1	2
508.255	1	1
508.425	1	6
508.595	1	-7
508.766	1	-8
508.936	1	9
509.106	1	2
509.276	1	5
509.446	1	-9
509.616	1	2
509.787	1	-2
509.957	1	3
510.127	1	-5
510.297	1	3
510.467	1	4
510.638	1	1
510.808	1	10
510.978	1	-10
511.148	1	1
511.318	1	-6
511.488	1	1
511.659	1	1
511.829	1	-2
511.999	1	5
512.169	1	-1
512.339	1	7
512.509	1	-4
512.680	1	-2
512.850	1	-2
513.020	1	1
513.190	1	-8
513.360	1	2
513.530	1	3
513.700	1	5
513.871	1	6
514.041	1	-5
514.211	1	6
514.381	1	3
514.551	1	1
514.721	1	6
514.892	1	1
515.062	1	-3
515.232	1	-2
515.402	1	-1
515.572	1	7
515.742	1	0
515.912	1	-3
516.083	1	4
516.253	1	7
516.423	1	-4
516.593	1	0
516.763	1	6
516.933	1	-4
517.104	1	3
517.274	1	1
517.444	1	1
517.614	1	-5
517.784	1	-8
517.954	1	-1
518.124	1	3
518.294	1	4
518.465	1	-3
518.635	1	7
518.805	1	-3
518.975	1	-8
519.145	1	1
519.315	1	5
519.485	1	-18
519.656	1	-1
519.826	1	-17
519.996	1	4
520.166	1	1
520.336	1	1
520.506	1	11
520.676	1	-7
520.846	1	-2
521.017	1	-8
521.187	1	1
521.357	1	-4
521.527	1	-1
521.697	1	-6
521.867	1	16
522.037	1	-1
522.207	1	5
522.377	1	12
522.548	1	-12
522.718	1	0
522.888	1	3
523.058	1	4
523.228	1	-17
523.398	1	0
523.568	1	-8
523.738	1	1
523.909	1	1
524.079	1	-7
524.249	1	-3
524.419	1	5
524.589	1	8
524.759	1	5
524.929	1	-3
525.099	1	-2
525.269	1	4
525.439	1	6
525.610	1	3
525.780	1	-5
525.950	1	7
526.120	1	-12
526.290	1	-4
526.460	1	-8
526.630	1	2
526.800	1	-3
526.970	1	4
527.140	1	2
527.311	1	-3
527.481	1	6
527.651	1	-1
527.821	1	-7
527.991	1	-4
528.161	1	-1
528.331	1	-3
528.501	1	2
528.671	1	9
528.841	1	6
529.011	1	-4
529.181	1	0
529.352	1	-2
529.522	1	9
529.692	1	1
529.862	1	-4
530.032	1	-5
530.202	1	-6
530.372	1	-2
530.542	1	-10
530.712	1	-4
530.882	1	0
531.052	1	6
531.222	1	4
531.392	1	-4
531.563	1	-3
531.733	1	-2
531.903	1	-4
532.073	1	2
532.243	1	15
532.413	1	14
532.583	1	-1
532.753	1	-9
532.923	1	4
533.093	1	-16
533.263	1	-2
533.433	1	-7
533.603	1	-5
533.773	1	10
533.943	1	-6
534.113	1	8
534.284	1	4
534.454	1	-10
534.624	1	-4
534.794	1	-3
534.964	1	7
535.134	1	-11
535.304	1	0
535.474	1	13
535.644	1	8
535.814	1	-4
535.984	1	2
536.154	1	2
536.324	1	-2
536.494	1	5
536.664	1	-3
536.834	1	-2
537.004	1	-4
537.174	1	4
537.344	1	2
537.514	1	-13
537.685	1	-6
537.855	1	3
538.025	1	6
538.195	1	-2
538.365	1	11
538.535	1	-2
538.705	1	4
538.875	1	-2
539.045	1	-1
539.215	1	-8
539.385	1	-6
539.555	1	3
539.725	1	0
539.895	1	10
540.065	1	0
540.235	1	-4
540.405	1	-5
540.575	1	1
540.745	1	5
540.915	1	1
541.085	1	-2
541.255	1	1
541.425	1	-5
541.595	1	2
541.765	1	5
541.935	1	6
542.105	1	-5
542.275	1	1
542.445	1	11
542.615	1	2
542.785	1	-2
542.955	1	8
543.125	1	-8
543.295	1	-1
543.465	1	10
543.635	1	-7
543.805	1	4
543.975	1	-1
544.145	1	-2
544.315	1	-16
544.485	1	-4
544.655	1	6
544.825	1	4
544.995	1	-4
545.165	1	-8
545.335	1	2
545.505	1	1
545.675	1	9
545.845	1	1
546.015	1	-5
546.185	1	-1
546.355	1	1
546.525	1	5
546.695	1	-3
546.865	1	-1
547.035	1	-8
547.205	1	3
547.375	1	6
547.545	1	-4
547.715	1	5
547.885	1	3
548.055	1	4
548.225	1	9
548.395	1	-3
548.565	1	-7
548.735	1	-11
548.905	1	4
549.075	1	-1
549.245	1	7
549.415	1	9
549.585	1	2
549.755	1	6
549.925	1	-5
550.095	1	-7
550.265	1	-2
550.435	1	-2
550.605	1	-8
550.775	1	-7
550.945	1	5
551.115	1	15
551.285	1	-7
551.455	1	4
551.625	1	-13
551.795	1	-1
551.965	1	4
552.135	1	-6
552.305	1	2
552.475	1	4
552.645	1	-3
552.815	1	-5
552.985	1	-8
553.155	1	-4
553.325	1	-7
553.495	1	-3
553.665	1	0
553.835	1	-2
554.004	1	9
554.174	1	-4
554.344	1	4
554.514	1	0
554.684	1	-1
554.854	1	-14
555.024	1	4
555.194	1	3
555.364	1	-9
555.534	1	-7
555.704	1	0
555.874	1	2
556.044	1	-3
556.214	1	0
556.384	1	10
556.554	1	-5
556.724	1	-4
556.894	1	-1
557.064	1	-2
557.234	1	-1
557.404	1	1
557.573	1	2
557.743	1	2
557.913	1	-5
558.083	1	-4
558.253	1	-8
558.423	1	-1
558.593	1	6
558.763	1	-2
558.933	1	-8
559.103	1	-4
559.273	1	-1
559.443	1	2
559.613	1	-6
559.783	1	4
559.953	1	-6
560.122	1	8
560.292	1	-15
560.462	1	-10
560.632	1	-5
560.802	1	6
560.972	1	-9
561.142	1	-2
561.312	1	-8
561.482	1	0
561.652	1	-1
561.822	1	-3
561.992	1	-11
562.162	1	-3
562.331	1	-11
562.501	1	3
562.671	1	-4
562.841	1	-11
563.011	1	1
563.181	1	1
563.351	1	-11
563.521	1	-5
563.691	1	-1
563.861	1	8
564.031	1	-4
564.201	1	-4
564.370	1	5
564.540	1	1
564.710	1	-11
564.880	1	3
565.050	1	2
565.220	1	3
565.390	1	-11
565.560	1	1
565.730	1	7
565.900	1	5
566.069	1	9
566.239	1	13
566.409	1	4
566.579	1	-1
566.749	1	-3
566.919	1	-2
567.089	1	-5
567.259	1	0
567.429	1	-9
567.599	1	7
567.768	1	2
567.938	1	-7
568.108	1	-5
568.278	1	-3
568.448	1	7
568.618	1	-1
568.788	1	-2
568.958	1	-4
569.128	1	-4
569.297	1	-1
569.467	1	0
569.637	1	4
569.807	1	0
569.977	1	-4
570.147	1	3
570.317	1	-2
570.487	1	2
570.656	1	-2
570.826	1	-2
570.996	1	5
571.166	1	-1
571.336	1	-14
571.506	1	-9
571.676	1	2
571.846	1	4
572.015	1	5
572.185	1	4
572.355	1	-3
572.525	1	-9
572.695	1	-9
572.865	1	6
573.035	1	1
573.205	1	-10
573.374	1	-5
573.544	1	0
573.714	1	0
573.884	1	-3
574.054	1	6
574.224	1	0
574.394	1	-2
574.563	1	-11
574.733	1	0
574.903	1	3
575.073	1	5
575.243	1	2
575.413	1	-15
575.583	1	0
575.752	1	-2
575.922	1	10
576.092	1	-11
576.262	1	4
576.432	1	-7
576.602	1	3
576.772	1	-6
576.941	1	1
577.111	1	5
577.281	1	-3
577.451	1	8
577.621	1	-3
577.791	1	-2
577.960	1	-2
578.130	1	5
578.300	1	-3
578.470	1	-4
578.640	1	-1
578.810	1	-6
578.979	1	3
579.149	1	-10
579.319	1	2
579.489	1	8
579.659	1	2
579.829	1	-16
579.998	1	-6
580.168	1	-8
580.338	1	2
580.508	1	-7
580.678	1	5
580.848	1	0
581.017	1	-4
581.187	1	6
581.357	1	-6
581.527	1	-2
581.697	1	-3
581.867	1	5
582.036	1	-12
582.206	1	9
582.376	1	-5
582.546	1	-3
582.716	1	2
582.885	1	-1
583.055	1	-16
583.225	1	1
583.395	1	-4
583.565	1	-1
583.735	1	-4
583.904	1	1
584.074	1	1
584.244	1	-2
584.414	1	-2
584.584	1	-3
584.753	1	5
584.923	1	-13
585.093	1	7
585.263	1	-7
585.433	1	-1
585.602	1	1
585.772	1	19
585.942	1	-11
586.112	1	3
586.282	1	-5
586.451	1	9
586.621	1	-6
586.791	1	-6
586.961	1	1
587.131	1	1
587.300	1	11
587.470	1	-1
587.640	1	2
587.810	1	-13
587.980	1	-4
588.149	1	-2
588.319	1	11
588.489	1	2
588.659	1	-1
588.829	1	-4
588.998	1	-3
589.168	1	1
589.338	1	-5
589.508	1	-1
589.677	1	8
589.847	1	4
590.017	1	-14
590.187	1	2
590.357	1	-6
590.526	1	-15
590.696	1	0
590.866	1	-5
591.036	1	-2
591.205	1	7
591.375	1	-2
591.545	1	-6
591.715	1	-12
591.885	1	8
592.054	1	10
592.224	1	1
592.394	1	-5
592.564	1	2
592.733	1	3
592.903	1	-6
593.073	1	-3
593.243	1	11
593.412	1	-18
593.582	1	0
593.752	1	-6
593.922	1	1
594.091	1	-6
594.261	1	-10
594.431	1	5
594.601	1	-14
594.771	1	-6
594.940	1	-6
595.110	1	3
595.280	1	-5
595.450	1	-1
595.619	1	3
595.789	1	-2
595.959	1	-8
596.129	1	2
596.298	1	6
596.468	1	0
596.638	1	-2
596.808	1	-5
596.977	1	-1
597.147	1	-10
597.317	1	1
597.487	1	-5
597.656	1	8
597.826	1	13
597.996	1	-7
598.166	1	-3
598.335	1	-15
598.505	1	0
598.675	1	-4
598.844	1	14
599.014	1	-9
599.184	1	-1
599.354	1	14
599.523	1	10
599.693	1	-4
599.863	1	-4
600.033	1	-4
600.202	1	-9
600.372	1	-6
600.542	1	5
600.712	1	1
600.881	1	0
601.051	1	5
601.221	1	3
601.390	1	4
601.560	1	8
601.730	1	0
601.900	1	-1
602.069	1	0
602.239	1	-5
602.409	1	-5
602.578	1	9
602.748	1	7
602.918	1	-6
603.088	1	1
603.257	1	-7
603.427	1	9
603.597	1	-16
603.767	1	0
603.936	1	0
604.106	1	-4
604.276	1	0
604.445	1	-7
604.615	1	-6
604.785	1	7
604.954	1	2
605.124	1	8
605.294	1	-5
605.464	1	-6
605.633	1	-1
605.803	1	4
605.973	1	-2
606.142	1	5
606.312	1	6
606.482	1	4
606.652	1	-1
606.821	1	-7
606.991	1	6
607.161	1	0
607.330	1	-2
607.500	1	-3
607.670	1	2
607.839	1	-6
608.009	1	-4
608.179	1	4
608.348	1	3
608.518	1	4
608.688	1	-2
608.858	1	-13
609.027	1	13
609.197	1	6
609.367	1	-9
609.536	1	-11
609.706	1	3
609.876	1	6
610.045	1	0
610.215	1	-1
610.385	1	-6
610.554	1	-1
610.724	1	-5
610.894	1	5
611.063	1	-8
611.233	1	7
611.403	1	5
611.572	1	-3
611.742	1	1
611.912	1	6
612.081	1	8
612.251	1	-2
612.421	1	-5
612.590	1	6
612.760	1	10
612.930	1	2
613.099	1	7
613.269	1	2
613.439	1	-7
613.608	1	-2
613.778	1	-5
613.948	1	12
614.117	1	-4
614.287	1	-4
614.457	1	3
614.626	1	-5
614.796	1	8
614.966	1	-9
615.135	1	3
615.305	1	-1
615.475	1	-2
615.644	1	17
615.814	1	10
615.984	1	-10
616.153	1	2
616.323	1	4
616.493	1	-6
616.662	1	-8
616.832	1	-1
617.002	1	2
617.171	1	8
617.341	1	3
617.511	1	-14
617.680	1	-7
617.850	1	2
618.019	1	2
618.189	1	10
618.359	1	-7
618.528	1	-7
618.698	1	-5
618.868	1	0
619.037	1	3
619.207	1	3
619.377	1	-1
619.546	1	3
619.716	1	-6
619.885	1	-1
620.055	1	-3
620.225	1	0
620.394	1	1
620.564	1	1
620.734	1	-2
620.903	1	-13
621.073	1	5
621.242	1	-1
621.412	1	2
621.582	1	9
621.751	1	-9
621.921	1	3
622.091	1	1
622.260	1	4
622.430	1	0
622.599	1	4
622.769	1	4
622.939	1	-2
623.108	1	-3
623.278	1	8
623.448	1	-5
623.617	1	0
623.787	1	2
623.956	1	3
624.126	1	3
624.296	1	4
624.465	1	9
624.635	1	3
624.804	1	-16
624.974	1	-16
625.144	1	-4
625.313	1	4
625.483	1	-2
625.652	1	-3
625.822	1	7
625.992	1	0
626.161	1	-2
626.331	1	-12
626.501	1	-5
626.670	1	-1
626.840	1	11
627.009	1	-2
627.179	1	1
627.348	1	-2
627.518	1	13
627.688	1	0
627.857	1	1
628.027	1	4
628.196	1	-3
628.366	1	-9
628.536	1	-2
628.705	1	-2
628.875	1	-6
629.044	1	-4
629.214	1	10
629.384	1	11
629.553	1	4
629.723	1	-1
629.892	1	7
630.062	1	-2
630.232	1	7
630.401	1	1
630.571	1	5
630.740	1	4
630.910	1	-1
631.079	1	-3
631.249	1	-3
631.419	1	0
631.588	1	5
631.758	1	-3
631.927	1	4
632.097	1	-7
632.266	1	12
632.436	1	-4
632.606	1	-3
632.775	1	5
632.945	1	-8
633.114	1	0
633.284	1	-2
633.453	1	4
633.623	1	6
633.793	1	3
633.962	1	2
634.132	1	0
634.301	1	-2
634.471	1	-2
634.640	1	-8
634.810	1	5
634.979	1	2
635.149	1	-7
635.319	1	-6
635.488	1	3
635.658	1	-2
635.827	1	-8
635.997	1	5
636.166	1	-3
636.336	1	-2
636.505	1	1
636.675	1	-1
636.845	1	-3
637.014	1	-15
637.184	1	12
637.353	1	-5
637.523	1	4
637.692	1	1
637.862	1	-1
638.031	1	-10
638.201	1	-5
638.370	1	1
638.540	1	-7
638.710	1	-4
638.879	1	-4
639.049	1	-2
639.218	1	6
639.388	1	-3
639.557	1	-2
639.727	1	1
639.896	1	-3
640.066	1	-4
640.235	1	2
640.405	1	3
640.574	1	0
640.744	1	-6
640.914	1	-7
641.083	1	9
641.253	1	0
641.422	1	-2
641.592	1	1
641.761	1	1
641.931	1	11
642.100	1	-4
642.270	1	0
642.439	1	-1
642.609	1	-1
642.778	1	-7
642.948	1	8
643.117	1	3
643.287	1	10
643.456	1	-2
643.626	1	-7
643.795	1	2
643.965	1	-4
644.134	1	0
644.304	1	-5
644.473	1	5
644.643	1	1
644.812	1	-4
644.982	1	9
645.151	1	-4
645.321	1	2
645.490	1	10
645.660	1	-1
645.829	1	2
645.999	1	2
646.168	1	16
646.338	1	-6
646.507	1	-8
646.677	1	0
646.846	1	-2
647.016	1	0
647.185	1	-1
647.355	1	2
647.524	1	-5
647.694	1	-7
647.863	1	-3
648.033	1	-1
648.202	1	7
648.372	1	-6
648.541	1	0
648.711	1	-2
648.880	1	5
649.050	1	-9
649.219	1	6
649.389	1	-4
649.558	1	9
649.728	1	9
649.897	1	2
650.067	1	-2
650.236	1	-9
650.406	1	-1
650.575	1	-4
650.745	1	4
650.914	1	0
651.084	1	1
651.253	1	-2
651.423	1	-12
651.592	1	-2
651.762	1	-7
651.931	1	3
652.101	1	-12
652.270	1	0
652.440	1	2
652.609	1	2
652.778	1	-2
652.948	1	4
653.117	1	1
653.287	1	-3
653.456	1	4
653.626	1	0
653.795	1	-7
653.965	1	-1
654.134	1	-7
654.304	1	7
654.473	1	0
654.643	1	-2
654.812	1	15
654.982	1	13
655.151	1	9
655.320	1	-9
655.490	1	-7
655.659	1	1
655.829	1	2
655.998	1	-1
656.168	1	0
656.337	1	0
656.507	1	-8
656.676	1	-1
656.846	1	3
657.015	1	8
657.184	1	-1
657.354	1	-11
657.523	1	-8
657.693	1	1
657.862	1	-5
658.032	1	-4
658.201	1	-5
658.371	1	1
658.540	1	-3
658.709	1	9
658.879	1	3
659.048	1	4
659.218	1	-2
659.387	1	6
659.557	1	4
659.726	1	-3
659.895	1	0
660.065	1	-7
660.234	1	-6
660.404	1	8
660.573	1	-4
660.743	1	0
660.912	1	-3
661.081	1	4
661.251	1	-10
661.420	1	7
661.590	1	-9
661.759	1	11
661.929	1	-2
662.098	1	5
662.267	1	-7
662.437	1	3
662.606	1	-11
662.776	1	2
662.945	1	10
663.115	1	12
663.284	1	6
663.453	1	6
663.623	1	0
663.792	1	3
663.962	1	14
664.131	1	-8
664.300	1	-9
664.470	1	-3
664.639	1	-6
664.809	1	5
664.978	1	8
665.148	1	4
665.317	1	5
665.486	1	8
665.656	1	-1
665.825	1	7
665.995	1	-7
666.164	1	3
666.333	1	-6
666.503	1	-1
666.672	1	-10
666.842	1	9
667.011	1	5
667.180	1	-3
667.350	1	-4
667.519	1	-1
667.689	1	1
667.858	1	0
668.027	1	0
668.197	1	-11
668.366	1	-3
668.536	1	-6
668.705	1	-8
668.874	1	12
669.044	1	3
669.213	1	3
669.382	1	-6
669.552	1	5
669.721	1	-7
669.891	1	-1
670.060	1	1
670.229	1	8
670.399	1	5
670.568	1	5
670.738	1	-1
670.907	1	7
671.076	1	7
671.246	1	10
671.415	1	11
671.584	1	1
671.754	1	-6
671.923	1	-8
672.093	1	5
672.262	1	-3
672.431	1	7
672.601	1	3
672.770	1	-4
672.939	1	0
673.109	1	-4
673.278	1	0
673.448	1	1
673.617	1	-6
673.786	1	2
