325.333	1	0
325.504	1	-6
325.675	1	7
325.846	1	-2
326.017	1	0
326.188	1	-3
326.359	1	1
326.531	1	-1
326.702	1	-9
326.873	1	9
327.044	1	9
327.215	1	-13
327.386	1	-4
327.557	1	-7
327.728	1	-10
327.899	1	5
328.070	1	5
328.241	1	-8
328.412	1	-7
328.583	1	-10
328.754	1	3
328.926	1	5
329.097	1	-9
329.268	1	6
329.439	1	5
329.610	1	-2
329.781	1	6
329.952	1	7
330.123	1	0
330.294	1	0
330.465	1	-8
330.636	1	3
330.807	1	-7
330.978	1	-1
331.149	1	3
331.320	1	2
331.492	1	0
331.663	1	-5
331.834	1	4
332.005	1	-1
332.176	1	5
332.347	1	3
332.518	1	4
332.689	1	5
332.860	1	0
333.031	1	-8
333.202	1	-6
333.373	1	3
333.544	1	0
333.715	1	5
333.886	1	-8
334.057	1	-5
334.228	1	12
334.399	1	10
334.570	1	1
334.741	1	-3
334.912	1	-5
335.084	1	4
335.255	1	4
335.426	1	1
335.597	1	-8
335.768	1	5
335.939	1	7
336.110	1	8
336.281	1	10
336.452	1	6
336.623	1	-6
336.794	1	-12
336.965	1	2
337.136	1	2
337.307	1	-2
337.478	1	-6
337.649	1	6
337.820	1	-6
337.991	1	-2
338.162	1	-5
338.333	1	-8
338.504	1	4
338.675	1	-4
338.846	1	-10
339.017	1	-2
339.188	1	-6
339.359	1	4
339.530	1	-4
339.701	1	2
339.872	1	9
340.043	1	-1
340.214	1	6
340.385	1	0
340.556	1	12
340.727	1	8
340.898	1	5
341.069	1	-1
341.240	1	-5
341.411	1	5
341.582	1	-1
341.753	1	0
341.924	1	9
342.095	1	-18
342.266	1	6
342.437	1	-9
342.608	1	4
342.779	1	-8
342.950	1	-3
343.121	1	-5
343.292	1	7
343.463	1	6
343.634	1	1
343.805	1	-4
343.976	1	10
344.147	1	5
344.318	1	-8
344.489	1	-6
344.660	1	5
344.831	1	10
345.002	1	2
345.173	1	2
345.344	1	-4
345.515	1	-3
345.686	1	-4
345.857	1	-4
346.028	1	4
346.199	1	6
346.370	1	9
346.541	1	-1
346.712	1	-1
346.883	1	-2
347.054	1	1
347.225	1	-2
347.396	1	-5
347.567	1	-14
347.738	1	2
347.909	1	8
348.080	1	1
348.251	1	-6
348.422	1	9
348.593	1	6
348.764	1	3
348.935	1	-5
349.106	1	7
349.277	1	-8
349.448	1	0
349.619	1	1
349.790	1	1
349.961	1	-6
350.132	1	9
350.303	1	2
350.474	1	2
350.645	1	-4
350.816	1	1
350.987	1	9
351.157	1	-5
351.328	1	-4
351.499	1	-4
351.670	1	8
351.841	1	2
352.012	1	10
352.183	1	9
352.354	1	-6
352.525	1	4
352.696	1	-6
352.867	1	3
353.038	1	2
353.209	1	2
353.380	1	-3
353.551	1	4
353.722	1	-1
353.893	1	9
354.064	1	-2
354.235	1	-10
354.406	1	-12
354.576	1	0
354.747	1	-3
354.918	1	-4
355.089	1	11
355.260	1	-1
355.431	1	1
355.602	1	0
355.773	1	-1
355.944	1	1
356.115	1	9
356.286	1	7
356.457	1	8
356.628	1	-2
356.799	1	7
356.970	1	14
357.141	1	1
357.311	1	10
357.482	1	-4
357.653	1	0
357.824	1	8
357.995	1	6
358.166	1	-5
358.337	1	2
358.508	1	24
358.679	1	-3
358.850	1	3
359.021	1	1
359.192	1	4
359.363	1	-2
359.533	1	1
359.704	1	-8
359.875	1	4
360.046	1	2
360.217	1	6
360.388	1	16
360.559	1	6
360.730	1	-1
360.901	1	-1
361.072	1	6
361.243	1	-7
361.414	1	5
361.584	1	2
361.755	1	3
361.926	1	-2
362.097	1	-8
362.268	1	15
362.439	1	2
362.610	1	14
362.781	1	-10
362.952	1	9
363.123	1	3
363.293	1	-2
363.464	1	-6
363.635	1	19
363.806	1	-1
363.977	1	7
364.148	1	10
364.319	1	3
364.490	1	5
364.661	1	-4
364.832	1	9
365.002	1	6
365.173	1	0
365.344	1	-3
365.515	1	3
365.686	1	7
365.857	1	0
366.028	1	15
366.199	1	8
366.370	1	15
366.540	1	0
366.711	1	3
366.882	1	2
367.053	1	3
367.224	1	12
367.395	1	3
367.566	1	8
367.737	1	-3
367.908	1	5
368.078	1	-7
368.249	1	3
368.420	1	1
368.591	1	0
368.762	1	5
368.933	1	-8
369.104	1	13
369.274	1	17
369.445	1	10
369.616	1	5
369.787	1	-1
369.958	1	7
370.129	1	-4
370.300	1	-1
370.471	1	2
370.641	1	4
370.812	1	13
370.983	1	-7
371.154	1	2
371.325	1	7
371.496	1	0
371.667	1	3
371.837	1	8
372.008	1	-8
372.179	1	4
372.350	1	4
372.521	1	8
372.692	1	9
372.863	1	1
373.033	1	7
373.204	1	3
373.375	1	13
373.546	1	-2
373.717	1	6
373.888	1	10
374.059	1	0
374.229	1	8
374.400	1	-6
374.571	1	5
374.742	1	11
374.913	1	-5
375.084	1	4
375.254	1	-7
375.425	1	3
375.596	1	-4
375.767	1	6
375.938	1	0
376.109	1	0
376.279	1	5
376.450	1	7
376.621	1	11
376.792	1	2
376.963	1	5
377.134	1	-1
377.304	1	1
377.475	1	-3
377.646	1	-11
377.817	1	5
377.988	1	6
378.159	1	12
378.329	1	6
378.500	1	8
378.671	1	7
378.842	1	0
379.013	1	4
379.184	1	-7
379.354	1	6
379.525	1	4
379.696	1	10
379.867	1	-1
380.038	1	10
380.209	1	7
380.379	1	9
380.550	1	-9
380.721	1	2
380.892	1	-6
381.063	1	-5
381.233	1	1
381.404	1	6
381.575	1	0
381.746	1	12
381.917	1	6
382.087	1	2
382.258	1	14
382.429	1	15
382.600	1	-3
382.771	1	0
382.941	1	12
383.112	1	7
383.283	1	0
383.454	1	0
383.625	1	8
383.795	1	5
383.966	1	8
384.137	1	3
384.308	1	0
384.479	1	4
384.649	1	-2
384.820	1	4
384.991	1	1
385.162	1	11
385.333	1	0
385.503	1	-4
385.674	1	3
385.845	1	8
386.016	1	12
386.187	1	-7
386.357	1	2
386.528	1	-7
386.699	1	6
386.870	1	8
387.041	1	16
387.211	1	4
387.382	1	19
387.553	1	3
387.724	1	-3
387.894	1	-3
388.065	1	5
388.236	1	-2
388.407	1	5
388.578	1	17
388.748	1	11
388.919	1	5
389.090	1	16
389.261	1	13
389.431	1	-8
389.602	1	5
389.773	1	9
389.944	1	-2
390.114	1	9
390.285	1	10
390.456	1	8
390.627	1	2
390.798	1	1
390.968	1	15
391.139	1	6
391.310	1	-2
391.481	1	2
391.651	1	13
391.822	1	12
391.993	1	0
392.164	1	10
392.334	1	-4
392.505	1	10
392.676	1	-6
392.847	1	6
393.017	1	9
393.188	1	14
393.359	1	21
393.530	1	17
393.700	1	1
393.871	1	13
394.042	1	-3
394.213	1	7
394.383	1	6
394.554	1	-3
394.725	1	2
394.896	1	4
395.066	1	10
395.237	1	7
395.408	1	7
395.579	1	8
395.749	1	14
395.920	1	10
396.091	1	-3
396.262	1	-5
396.432	1	0
396.603	1	12
396.774	1	-10
396.945	1	4
397.115	1	14
397.286	1	7
397.457	1	5
397.627	1	-3
397.798	1	5
397.969	1	5
398.140	1	1
398.310	1	6
398.481	1	-4
398.652	1	13
398.823	1	10
398.993	1	5
399.164	1	7
399.335	1	-5
399.505	1	1
399.676	1	3
399.847	1	13
400.018	1	6
400.188	1	4
400.359	1	8
400.530	1	4
400.700	1	12
400.871	1	-2
401.042	1	4
401.213	1	13
401.383	1	9
401.554	1	6
401.725	1	10
401.895	1	6
402.066	1	17
402.237	1	3
402.408	1	1
402.578	1	13
402.749	1	-5
402.920	1	11
403.090	1	6
403.261	1	-3
403.432	1	7
403.603	1	11
403.773	1	15
403.944	1	10
404.115	1	6
404.285	1	2
404.456	1	24
404.627	1	9
404.797	1	7
404.968	1	0
405.139	1	4
405.310	1	7
405.480	1	-4
405.651	1	-2
405.822	1	8
405.992	1	11
406.163	1	-3
406.334	1	-2
406.504	1	14
406.675	1	2
406.846	1	6
407.016	1	5
407.187	1	10
407.358	1	-2
407.528	1	4
407.699	1	7
407.870	1	2
408.041	1	7
408.211	1	13
408.382	1	15
408.553	1	12
408.723	1	15
408.894	1	7
409.065	1	5
409.235	1	7
409.406	1	1
409.577	1	4
409.747	1	7
409.918	1	8
410.089	1	16
410.259	1	-6
410.430	1	14
410.601	1	9
410.771	1	15
410.942	1	3
411.113	1	-2
411.283	1	4
411.454	1	19
411.625	1	8
411.795	1	10
411.966	1	18
412.137	1	14
412.307	1	2
412.478	1	12
412.649	1	3
412.819	1	9
412.990	1	7
413.161	1	-3
413.331	1	7
413.502	1	1
413.672	1	0
413.843	1	3
414.014	1	-1
414.184	1	15
414.355	1	7
414.526	1	6
414.696	1	12
414.867	1	-5
415.038	1	7
415.208	1	-4
415.379	1	4
415.550	1	13
415.720	1	3
415.891	1	10
416.062	1	12
416.232	1	4
416.403	1	10
416.573	1	7
416.744	1	10
416.915	1	7
417.085	1	10
417.256	1	1
417.427	1	2
417.597	1	-1
417.768	1	2
417.939	1	-3
418.109	1	2
418.280	1	5
418.450	1	15
418.621	1	4
418.792	1	-1
418.962	1	3
419.133	1	6
419.304	1	-4
419.474	1	10
419.645	1	-1
419.815	1	8
419.986	1	9
420.157	1	2
420.327	1	-4
420.498	1	9
420.669	1	15
420.839	1	11
421.010	1	9
421.180	1	1
421.351	1	3
421.522	1	2
421.692	1	17
421.863	1	6
422.033	1	6
422.204	1	20
422.375	1	15
422.545	1	10
422.716	1	0
422.886	1	10
423.057	1	5
423.228	1	3
423.398	1	9
423.569	1	8
423.740	1	3
423.910	1	9
424.081	1	5
424.251	1	8
424.422	1	15
424.593	1	2
424.763	1	18
424.934	1	13
425.104	1	20
425.275	1	0
425.445	1	12
425.616	1	12
425.787	1	-1
425.957	1	-7
426.128	1	10
426.298	1	6
426.469	1	2
426.640	1	6
426.810	1	-4
426.981	1	11
427.151	1	-5
427.322	1	11
427.493	1	-5
427.663	1	16
427.834	1	6
428.004	1	14
428.175	1	14
428.345	1	5
428.516	1	9
428.687	1	13
428.857	1	9
429.028	1	-2
429.198	1	-6
429.369	1	3
429.540	1	15
429.710	1	13
429.881	1	3
430.051	1	8
430.222	1	8
430.392	1	12
430.563	1	-4
430.734	1	5
430.904	1	10
431.075	1	10
431.245	1	4
431.416	1	7
431.586	1	-1
431.757	1	2
431.927	1	7
432.098	1	2
432.269	1	-3
432.439	1	1
432.610	1	18
432.780	1	8
432.951	1	4
433.121	1	5
433.292	1	0
433.462	1	12
433.633	1	7
433.804	1	14
433.974	1	-1
434.145	1	9
434.315	1	-4
434.486	1	-16
434.656	1	14
434.827	1	6
434.997	1	10
435.168	1	6
435.339	1	17
435.509	1	-11
435.680	1	5
435.850	1	-4
436.021	1	-6
436.191	1	1
436.362	1	9
436.532	1	13
436.703	1	0
436.873	1	9
437.044	1	11
437.214	1	6
437.385	1	8
437.556	1	10
437.726	1	16
437.897	1	3
438.067	1	5
438.238	1	2
438.408	1	0
438.579	1	-6
438.749	1	3
438.920	1	11
439.090	1	-1
439.261	1	12
439.431	1	2
439.602	1	-5
439.772	1	9
439.943	1	-4
440.113	1	7
440.284	1	14
440.455	1	2
440.625	1	15
440.796	1	1
440.966	1	6
441.137	1	10
441.307	1	4
441.478	1	-9
441.648	1	1
441.819	1	8
441.989	1	15
442.160	1	12
442.330	1	10
442.501	1	4
442.671	1	11
442.842	1	16
443.012	1	-2
443.183	1	6
443.353	1	4
443.524	1	9
443.694	1	7
443.865	1	9
444.035	1	7
444.206	1	4
444.376	1	6
444.547	1	9
444.717	1	5
444.888	1	-7
445.058	1	7
445.229	1	2
445.399	1	10
445.570	1	-2
445.740	1	-3
445.911	1	11
446.081	1	11
446.252	1	6
446.422	1	7
446.593	1	2
446.763	1	10
446.934	1	6
447.104	1	2
447.275	1	12
447.445	1	0
447.616	1	-2
447.786	1	1
447.957	1	3
448.127	1	11
448.298	1	11
448.468	1	5
448.639	1	1
448.809	1	2
448.979	1	20
449.150	1	0
449.320	1	0
449.491	1	1
449.661	1	-1
449.832	1	-6
450.002	1	-7
450.173	1	9
450.343	1	-9
450.514	1	16
450.684	1	14
450.855	1	14
451.025	1	7
451.196	1	4
451.366	1	17
451.537	1	20
451.707	1	12
451.878	1	-7
452.048	1	-1
452.218	1	7
452.389	1	8
452.559	1	18
452.730	1	14
452.900	1	-2
453.071	1	8
453.241	1	9
453.412	1	5
453.582	1	12
453.753	1	3
453.923	1	2
454.093	1	0
454.264	1	12
454.434	1	-6
454.605	1	-3
454.775	1	11
454.946	1	1
455.116	1	11
455.287	1	-3
455.457	1	4
455.628	1	-4
455.798	1	9
455.968	1	-1
456.139	1	7
456.309	1	-2
456.480	1	-5
456.650	1	11
456.821	1	-2
456.991	1	9
457.161	1	6
457.332	1	1
457.502	1	2
457.673	1	0
457.843	1	1
458.014	1	1
458.184	1	7
458.355	1	5
458.525	1	5
458.695	1	-1
458.866	1	-2
459.036	1	11
459.207	1	3
459.377	1	6
459.548	1	5
459.718	1	-2
459.888	1	0
460.059	1	7
460.229	1	-5
460.400	1	7
460.570	1	7
460.740	1	6
460.911	1	-1
461.081	1	5
461.252	1	1
461.422	1	0
461.593	1	7
461.763	1	9
461.933	1	-1
462.104	1	-7
462.274	1	-16
462.445	1	13
462.615	1	14
462.785	1	9
462.956	1	-2
463.126	1	9
463.297	1	8
463.467	1	3
463.638	1	10
463.808	1	6
463.978	1	-7
464.149	1	-5
464.319	1	0
464.490	1	1
464.660	1	-1
464.830	1	3
465.001	1	3
465.171	1	1
465.342	1	-4
465.512	1	6
465.682	1	-6
465.853	1	-3
466.023	1	8
466.194	1	9
466.364	1	9
466.534	1	5
466.705	1	6
466.875	1	-5
467.045	1	-6
467.216	1	3
467.386	1	2
467.557	1	16
467.727	1	-1
467.897	1	-2
468.068	1	2
468.238	1	5
468.409	1	5
468.579	1	2
468.749	1	4
468.920	1	-11
469.090	1	11
469.260	1	4
469.431	1	-8
469.601	1	4
469.772	1	11
469.942	1	0
470.112	1	-12
470.283	1	-4
470.453	1	-5
470.623	1	2
470.794	1	3
470.964	1	-17
471.135	1	3
471.305	1	-12
471.475	1	2
471.646	1	1
471.816	1	2
471.986	1	5
472.157	1	-7
472.327	1	4
472.497	1	-7
472.668	1	6
472.838	1	4
473.009	1	3
473.179	1	-5
473.349	1	1
473.520	1	20
473.690	1	-5
473.860	1	-3
474.031	1	-6
474.201	1	2
474.371	1	3
474.542	1	-3
474.712	1	4
474.882	1	2
475.053	1	13
475.223	1	5
475.394	1	-5
475.564	1	1
475.734	1	2
475.905	1	7
476.075	1	13
476.245	1	10
476.416	1	-4
476.586	1	9
476.756	1	8
476.927	1	7
477.097	1	0
477.267	1	-7
477.438	1	3
477.608	1	8
477.778	1	-4
477.949	1	-5
478.119	1	3
478.289	1	-2
478.460	1	-11
478.630	1	-7
478.800	1	5
478.971	1	-4
479.141	1	6
479.311	1	-4
479.482	1	1
479.652	1	-1
479.822	1	-8
479.993	1	-1
480.163	1	-3
480.333	1	-3
480.504	1	3
480.674	1	12
480.844	1	0
481.015	1	7
481.185	1	14
481.355	1	2
481.525	1	-4
481.696	1	5
481.866	1	9
482.036	1	3
482.207	1	7
482.377	1	-8
482.547	1	3
482.718	1	-4
482.888	1	4
483.058	1	-1
483.229	1	3
483.399	1	6
483.569	1	0
483.740	1	-1
483.910	1	-3
484.080	1	6
484.250	1	-4
484.421	1	-11
484.591	1	-4
484.761	1	2
484.932	1	6
485.102	1	5
485.272	1	3
485.443	1	9
485.613	1	2
485.783	1	-7
485.953	1	-9
486.124	1	-2
486.294	1	8
486.464	1	5
486.635	1	6
486.805	1	3
486.975	1	1
487.146	1	10
487.316	1	4
487.486	1	6
487.656	1	-4
487.827	1	-5
487.997	1	-3
488.167	1	5
488.338	1	-7
488.508	1	10
488.678	1	-2
488.848	1	-5
489.019	1	-11
489.189	1	5
489.359	1	8
489.529	1	9
489.700	1	1
489.870	1	2
490.040	1	-6
490.211	1	-5
490.381	1	5
490.551	1	9
490.721	1	10
490.892	1	-6
491.062	1	-1
491.232	1	3
491.402	1	-6
491.573	1	7
491.743	1	-8
491.913	1	5
492.084	1	7
492.254	1	-4
492.424	1	4
492.594	1	6
492.765	1	-2
492.935	1	7
493.105	1	-2
493.275	1	10
493.446	1	-8
493.616	1	-8
493.786	1	5
493.956	1	2
494.127	1	0
494.297	1	-5
494.467	1	-2
494.637	1	1
494.808	1	3
494.978	1	-1
495.148	1	1
495.318	1	3
495.489	1	-10
495.659	1	2
495.829	1	-1
495.999	1	8
496.170	1	1
496.340	1	-2
496.510	1	8
496.680	1	3
496.851	1	6
497.021	1	-4
497.191	1	11
497.361	1	-6
497.532	1	4
497.702	1	1
497.872	1	2
498.042	1	-1
498.213	1	-14
498.383	1	0
498.553	1	5
498.723	1	8
498.894	1	6
499.064	1	5
499.234	1	8
499.404	1	-2
499.574	1	7
499.745	1	4
499.915	1	3
500.085	1	-2
500.255	1	-7
500.426	1	-1
500.596	1	-6
500.766	1	-7
500.936	1	-7
501.106	1	-2
501.277	1	-10
501.447	1	3
501.617	1	-9
501.787	1	1
501.958	1	10
502.128	1	9
502.298	1	-3
502.468	1	-6
502.638	1	8
502.809	1	0
502.979	1	-3
503.149	1	-2
503.319	1	7
503.489	1	-17
503.660	1	-5
503.830	1	10
504.000	1	-2
504.170	1	-5
504.340	1	-1
504.511	1	-8
504.681	1	3
504.851	1	-6
505.021	1	3
505.192	1	-15
505.362	1	3
505.532	1	-4
505.702	1	10
505.872	1	-10
506.043	1	6
506.213	1	8
506.383	1	-2
506.553	1	2
506.723	1	-7
506.893	1	5
507.064	1	4
507.234	1	-7
507.404	1	3
507.574	1	-1
507.744	1	3
507.915	1	5
508.085	1	-1
508.255	1	0
508.425	1	-7
508.595	1	2
508.766	1	-10
508.936	1	5
509.106	1	1
509.276	1	1
509.446	1	-5
509.616	1	0
509.787	1	3
509.957	1	0
510.127	1	-2
510.297	1	-10
510.467	1	3
510.638	1	1
510.808	1	16
510.978	1	-9
511.148	1	7
511.318	1	8
511.488	1	8
511.659	1	-5
511.829	1	-13
511.999	1	4
512.169	1	-3
512.339	1	4
512.509	1	-6
512.680	1	-3
512.850	1	3
513.020	1	3
513.190	1	-8
513.360	1	6
513.530	1	-2
513.700	1	5
513.871	1	-4
514.041	1	1
514.211	1	6
514.381	1	0
514.551	1	-5
514.721	1	-4
514.892	1	-5
515.062	1	-8
515.232	1	-7
515.402	1	1
515.572	1	-2
515.742	1	1
515.912	1	-1
516.083	1	2
516.253	1	0
516.423	1	-1
516.593	1	-5
516.763	1	11
516.933	1	6
517.104	1	6
517.274	1	-5
517.444	1	-3
517.614	1	-7
517.784	1	0
517.954	1	-8
518.124	1	13
518.294	1	-4
518.465	1	-3
518.635	1	9
518.805	1	1
518.975	1	7
519.145	1	-6
519.315	1	-2
519.485	1	-6
519.656	1	-7
519.826	1	-8
519.996	1	-3
520.166	1	-5
520.336	1	7
520.506	1	6
520.676	1	6
520.846	1	-5
521.017	1	-2
521.187	1	2
521.357	1	-9
521.527	1	-7
521.697	1	-8
521.867	1	2
522.037	1	-2
522.207	1	4
522.377	1	3
522.548	1	-13
522.718	1	-9
522.888	1	-2
523.058	1	11
523.228	1	-6
523.398	1	-4
523.568	1	-13
523.738	1	-5
523.909	1	-4
524.079	1	5
524.249	1	-7
524.419	1	-5
524.589	1	2
524.759	1	8
524.929	1	0
525.099	1	2
525.269	1	3
525.439	1	-6
525.610	1	5
525.780	1	4
525.950	1	9
526.120	1	-11
526.290	1	-7
526.460	1	-9
526.630	1	6
526.800	1	0
526.970	1	1
527.140	1	-2
527.311	1	-2
527.481	1	-4
527.651	1	-1
527.821	1	-2
527.991	1	-7
528.161	1	2
528.331	1	-11
528.501	1	2
528.671	1	6
528.841	1	3
529.011	1	-1
529.181	1	-2
529.352	1	3
529.522	1	4
529.692	1	-2
529.862	1	0
530.032	1	-8
530.202	1	-5
530.372	1	-5
530.542	1	7
530.712	1	3
530.882	1	9
531.052	1	-3
531.222	1	2
531.392	1	-7
531.563	1	1
531.733	1	-7
531.903	1	-4
532.073	1	-3
532.243	1	2
532.413	1	13
532.583	1	3
532.753	1	-6
532.923	1	-3
533.093	1	-8
533.263	1	-1
533.433	1	-8
533.603	1	-9
533.773	1	-1
533.943	1	10
534.113	1	-4
534.284	1	7
534.454	1	2
534.624	1	3
534.794	1	-6
534.964	1	0
535.134	1	-1
535.304	1	-2
535.474	1	-3
535.644	1	8
535.814	1	-6
535.984	1	0
536.154	1	-3
536.324	1	-6
536.494	1	0
536.664	1	-3
536.834	1	-1
537.004	1	1
537.174	1	5
537.344	1	-2
537.514	1	-1
537.685	1	3
537.855	1	3
538.025	1	4
538.195	1	-12
538.365	1	-9
538.535	1	-2
538.705	1	5
538.875	1	-10
539.045	1	2
539.215	1	-7
539.385	1	-4
539.555	1	-4
539.725	1	-3
539.895	1	-5
540.065	1	0
540.235	1	-3
540.405	1	5
540.575	1	-4
540.745	1	-7
540.915	1	0
541.085	1	-9
541.255	1	-19
541.425	1	2
541.595	1	-4
541.765	1	8
541.935	1	-6
542.105	1	-5
542.275	1	-1
542.445	1	6
542.615	1	8
542.785	1	3
542.955	1	13
543.125	1	-4
543.295	1	-6
543.465	1	7
543.635	1	-8
543.805	1	8
543.975	1	-1
544.145	1	4
544.315	1	-5
544.485	1	-1
544.655	1	0
544.825	1	3
544.995	1	8
545.165	1	5
545.335	1	3
545.505	1	-1
545.675	1	-2
545.845	1	7
546.015	1	-7
546.185	1	-6
546.355	1	0
546.525	1	2
546.695	1	-3
546.865	1	0
547.035	1	7
547.205	1	17
547.375	1	2
547.545	1	-2
547.715	1	-3
547.885	1	-4
548.055	1	1
548.225	1	4
548.395	1	4
548.565	1	9
548.735	1	-8
548.905	1	-2
549.075	1	2
549.245	1	2
549.415	1	9
549.585	1	-12
549.755	1	-1
549.925	1	4
550.095	1	-10
550.265	1	4
550.435	1	1
550.605	1	-2
550.775	1	-7
550.945	1	-1
551.115	1	0
551.285	1	5
551.455	1	2
551.625	1	-2
551.795	1	-6
551.965	1	-3
552.135	1	-3
552.305	1	-1
552.475	1	2
552.645	1	-5
552.815	1	-2
552.985	1	-16
553.155	1	-6
553.325	1	-7
553.495	1	-1
553.665	1	3
553.835	1	-2
554.004	1	1
554.174	1	-17
554.344	1	-5
554.514	1	-6
554.684	1	-4
554.854	1	-8
555.024	1	1
555.194	1	8
555.364	1	-1
555.534	1	-3
555.704	1	4
555.874	1	1
556.044	1	-5
556.214	1	3
556.384	1	-5
556.554	1	0
556.724	1	-1
556.894	1	-9
557.064	1	-4
557.234	1	-7
557.404	1	1
557.573	1	-2
557.743	1	-12
557.913	1	-2
558.083	1	5
558.253	1	-2
558.423	1	5
558.593	1	4
558.763	1	-1
558.933	1	-13
559.103	1	-3
559.273	1	8
559.443	1	4
559.613	1	-2
559.783	1	-2
559.953	1	-8
560.122	1	2
560.292	1	-2
560.462	1	-4
560.632	1	-8
560.802	1	0
560.972	1	-6
561.142	1	2
561.312	1	-1
561.482	1	3
561.652	1	-5
561.822	1	0
561.992	1	5
562.162	1	-5
562.331	1	-9
562.501	1	11
562.671	1	-11
562.841	1	-21
563.011	1	-4
563.181	1	-11
563.351	1	-10
563.521	1	-2
563.691	1	12
563.861	1	4
564.031	1	2
564.201	1	4
564.370	1	-4
564.540	1	-10
564.710	1	-5
564.880	1	-4
565.050	1	3
565.220	1	7
565.390	1	5
565.560	1	11
565.730	1	-4
565.900	1	-5
566.069	1	-1
566.239	1	15
566.409	1	2
566.579	1	-3
566.749	1	-4
566.919	1	-4
567.089	1	-5
567.259	1	-3
567.429	1	-2
567.599	1	9
567.768	1	-11
567.938	1	-7
568.108	1	-2
568.278	1	4
568.448	1	-9
568.618	1	0
568.788	1	2
568.958	1	-3
569.128	1	-8
569.297	1	-4
569.467	1	5
569.637	1	3
569.807	1	-5
569.977	1	-4
570.147	1	-1
570.317	1	-3
570.487	1	2
570.656	1	-3
570.826	1	5
570.996	1	7
571.166	1	-3
571.336	1	-2
571.506	1	-11
571.676	1	10
571.846	1	4
572.015	1	-2
572.185	1	-6
572.355	1	-5
572.525	1	-1
572.695	1	8
572.865	1	-2
573.035	1	1
573.205	1	-3
573.374	1	2
573.544	1	-8
573.714	1	-3
573.884	1	-11
574.054	1	3
574.224	1	2
574.394	1	6
574.563	1	1
574.733	1	-1
574.903	1	3
575.073	1	1
575.243	1	-6
575.413	1	-5
575.583	1	-9
575.752	1	5
575.922	1	15
576.092	1	-7
576.262	1	6
576.432	1	-2
576.602	1	2
576.772	1	-4
576.941	1	0
577.111	1	-6
577.281	1	-3
577.451	1	4
577.621	1	1
577.791	1	3
577.960	1	-1
578.130	1	3
578.300	1	-3
578.470	1	-2
578.640	1	-6
578.810	1	-5
578.979	1	4
579.149	1	2
579.319	1	2
579.489	1	7
579.659	1	1
579.829	1	-5
579.998	1	-11
580.168	1	-9
580.338	1	-2
580.508	1	-9
580.678	1	0
580.848	1	7
581.017	1	6
581.187	1	5
581.357	1	-2
581.527	1	1
581.697	1	-8
581.867	1	-11
582.036	1	-2
582.206	1	2
582.376	1	-11
582.546	1	-8
582.716	1	4
582.885	1	-11
583.055	1	-7
583.225	1	-8
583.395	1	-12
583.565	1	17
583.735	1	-1
583.904	1	-4
584.074	1	-1
584.244	1	-5
584.414	1	2
584.584	1	-1
584.753	1	-4
584.923	1	-13
585.093	1	7
585.263	1	-5
585.433	1	-4
585.602	1	-1
585.772	1	13
585.942	1	-10
586.112	1	0
586.282	1	1
586.451	1	3
586.621	1	-10
586.791	1	-10
586.961	1	-3
587.131	1	-8
587.300	1	10
587.470	1	0
587.640	1	-8
587.810	1	-12
587.980	1	7
588.149	1	-4
588.319	1	7
588.489	1	-7
588.659	1	-9
588.829	1	-6
588.998	1	-5
589.168	1	0
589.338	1	5
589.508	1	5
589.677	1	0
589.847	1	-5
590.017	1	-6
590.187	1	2
590.357	1	-13
590.526	1	-8
590.696	1	4
590.866	1	-6
591.036	1	1
591.205	1	2
591.375	1	1
591.545	1	-12
591.715	1	-9
591.885	1	12
592.054	1	7
592.224	1	-2
592.394	1	-9
592.564	1	7
592.733	1	4
592.903	1	-1
593.073	1	-6
593.243	1	5
593.412	1	-17
593.582	1	-3
593.752	1	-4
593.922	1	-4
594.091	1	3
594.261	1	-8
594.431	1	3
594.601	1	-11
594.771	1	0
594.940	1	-2
595.110	1	1
595.280	1	-1
595.450	1	3
595.619	1	-1
595.789	1	-6
595.959	1	-2
596.129	1	3
596.298	1	1
596.468	1	-3
596.638	1	-8
596.808	1	2
596.977	1	-12
597.147	1	3
597.317	1	-4
597.487	1	-2
597.656	1	6
597.826	1	11
597.996	1	-6
598.166	1	-4
598.335	1	-3
598.505	1	6
598.675	1	1
598.844	1	12
599.014	1	-17
599.184	1	-6
599.354	1	7
599.523	1	0
599.693	1	-7
599.863	1	0
600.033	1	-6
600.202	1	-7
600.372	1	-3
600.542	1	-4
600.712	1	-7
600.881	1	0
601.051	1	11
601.221	1	0
601.390	1	-2
601.560	1	4
601.730	1	9
601.900	1	-4
602.069	1	-5
602.239	1	1
602.409	1	-6
602.578	1	4
602.748	1	13
602.918	1	-4
603.088	1	-3
603.257	1	-14
603.427	1	3
603.597	1	-5
603.767	1	-3
603.936	1	8
604.106	1	-10
604.276	1	2
604.445	1	-10
604.615	1	8
604.785	1	0
604.954	1	-3
605.124	1	-3
605.294	1	-3
605.464	1	-13
605.633	1	-3
605.803	1	3
605.973	1	3
606.142	1	0
606.312	1	-4
606.482	1	-8
606.652	1	6
606.821	1	0
606.991	1	-1
607.161	1	0
607.330	1	1
607.500	1	-5
607.670	1	4
607.839	1	-4
608.009	1	-4
608.179	1	8
608.348	1	-3
608.518	1	9
608.688	1	-4
608.858	1	-2
609.027	1	10
609.197	1	3
609.367	1	-10
609.536	1	-5
609.706	1	0
609.876	1	7
610.045	1	1
610.215	1	3
610.385	1	3
610.554	1	-4
610.724	1	-7
610.894	1	-1
611.063	1	0
611.233	1	3
611.403	1	-2
611.572	1	-7
611.742	1	-15
611.912	1	3
612.081	1	5
612.251	1	-1
612.421	1	-5
612.590	1	3
612.760	1	-6
612.930	1	7
613.099	1	6
613.269	1	-9
613.439	1	-10
613.608	1	-3
613.778	1	9
613.948	1	8
614.117	1	-2
614.287	1	-2
614.457	1	4
614.626	1	-5
614.796	1	0
614.966	1	-8
615.135	1	5
615.305	1	4
615.475	1	2
615.644	1	14
615.814	1	-6
615.984	1	-7
616.153	1	4
616.323	1	-1
616.493	1	0
616.662	1	-9
616.832	1	2
617.002	1	1
617.171	1	5
617.341	1	0
617.511	1	-16
617.680	1	-7
617.850	1	3
618.019	1	0
618.189	1	4
618.359	1	4
618.528	1	-8
618.698	1	5
618.868	1	-8
619.037	1	4
619.207	1	-15
619.377	1	0
619.546	1	3
619.716	1	-8
619.885	1	0
620.055	1	-9
620.225	1	-3
620.394	1	4
620.564	1	3
620.734	1	10
620.903	1	-9
621.073	1	5
621.242	1	-7
621.412	1	-10
621.582	1	5
621.751	1	1
621.921	1	11
622.091	1	-3
622.260	1	5
622.430	1	2
622.599	1	-3
622.769	1	-2
622.939	1	5
623.108	1	-2
623.278	1	-8
623.448	1	-1
623.617	1	2
623.787	1	-4
623.956	1	-1
624.126	1	3
624.296	1	1
624.465	1	3
624.635	1	7
624.804	1	-9
624.974	1	-5
625.144	1	-5
625.313	1	16
625.483	1	7
625.652	1	-2
625.822	1	2
625.992	1	-8
626.161	1	1
626.331	1	-6
626.501	1	-6
626.670	1	-3
626.840	1	4
627.009	1	-2
627.179	1	0
627.348	1	-9
627.518	1	6
627.688	1	-4
627.857	1	1
628.027	1	11
628.196	1	11
628.366	1	-3
628.536	1	-9
628.705	1	-8
628.875	1	-16
629.044	1	-3
629.214	1	5
629.384	1	8
629.553	1	3
629.723	1	5
629.892	1	-3
630.062	1	-1
630.232	1	8
630.401	1	4
630.571	1	-3
630.740	1	-2
630.910	1	3
631.079	1	-2
631.249	1	-1
631.419	1	-2
631.588	1	2
631.758	1	-4
631.927	1	8
632.097	1	-9
632.266	1	8
632.436	1	5
632.606	1	-4
632.775	1	5
632.945	1	-8
633.114	1	-5
633.284	1	-5
633.453	1	8
633.623	1	14
633.793	1	-1
633.962	1	-1
634.132	1	8
634.301	1	6
634.471	1	0
634.640	1	-10
634.810	1	2
634.979	1	-2
635.149	1	-13
635.319	1	-6
635.488	1	6
635.658	1	-3
635.827	1	-2
635.997	1	0
636.166	1	9
636.336	1	4
636.505	1	-2
636.675	1	-1
636.845	1	8
637.014	1	-8
637.184	1	4
637.353	1	-4
637.523	1	-3
637.692	1	-5
637.862	1	-6
638.031	1	-4
638.201	1	2
638.370	1	-1
638.540	1	-11
638.710	1	-7
638.879	1	-4
639.049	1	1
639.218	1	10
639.388	1	4
639.557	1	6
639.727	1	1
639.896	1	-7
640.066	1	-1
640.235	1	-4
640.405	1	2
640.574	1	1
640.744	1	-4
640.914	1	-8
641.083	1	7
641.253	1	-7
641.422	1	-6
641.592	1	-3
641.761	1	-7
641.931	1	15
642.100	1	-3
642.270	1	8
642.439	1	1
642.609	1	7
642.778	1	1
642.948	1	17
643.117	1	-7
643.287	1	-7
643.456	1	3
643.626	1	-8
643.795	1	0
643.965	1	-3
644.134	1	0
644.304	1	-10
644.473	1	-5
644.643	1	-3
644.812	1	-5
644.982	1	4
645.151	1	-3
645.321	1	3
645.490	1	0
645.660	1	-5
645.829	1	4
645.999	1	-9
646.168	1	8
646.338	1	-6
646.507	1	-7
646.677	1	3
646.846	1	0
647.016	1	3
647.185	1	7
647.355	1	5
647.524	1	-1
647.694	1	-3
647.863	1	-10
648.033	1	-3
648.202	1	1
648.372	1	-14
648.541	1	-3
648.711	1	8
648.880	1	-1
649.050	1	-8
649.219	1	0
649.389	1	-6
649.558	1	5
649.728	1	-4
649.897	1	1
650.067	1	6
650.236	1	-6
650.406	1	6
650.575	1	1
650.745	1	-7
650.914	1	4
651.084	1	2
651.253	1	1
651.423	1	-6
651.592	1	5
651.762	1	-1
651.931	1	1
652.101	1	-11
652.270	1	-10
652.440	1	5
652.609	1	2
652.778	1	3
652.948	1	-1
653.117	1	0
653.287	1	-19
653.456	1	-9
653.626	1	-5
653.795	1	-9
653.965	1	-2
654.134	1	-15
654.304	1	11
654.473	1	-5
654.643	1	1
654.812	1	15
654.982	1	-4
655.151	1	6
655.320	1	3
655.490	1	-7
655.659	1	7
655.829	1	1
655.998	1	-2
656.168	1	0
656.337	1	4
656.507	1	4
656.676	1	-8
656.846	1	-1
657.015	1	4
657.184	1	-4
657.354	1	-9
657.523	1	-6
657.693	1	3
657.862	1	-14
658.032	1	-2
658.201	1	-10
658.371	1	11
658.540	1	-13
658.709	1	5
658.879	1	1
659.048	1	5
659.218	1	-5
659.387	1	5
659.557	1	-4
659.726	1	-6
659.895	1	1
660.065	1	-8
660.234	1	0
660.404	1	1
660.573	1	2
660.743	1	-3
660.912	1	1
661.081	1	-5
661.251	1	-9
661.420	1	1
661.590	1	-17
661.759	1	2
661.929	1	-4
662.098	1	0
662.267	1	-4
662.437	1	6
662.606	1	-10
662.776	1	9
662.945	1	8
663.115	1	3
663.284	1	1
663.453	1	-12
663.623	1	-4
663.792	1	4
663.962	1	15
664.131	1	-6
664.300	1	-14
664.470	1	-4
664.639	1	-9
664.809	1	-8
664.978	1	9
665.148	1	2
665.317	1	6
665.486	1	-2
665.656	1	1
665.825	1	0
665.995	1	-6
666.164	1	3
666.333	1	0
666.503	1	1
666.672	1	-7
666.842	1	-5
667.011	1	-10
667.180	1	-6
667.350	1	2
667.519	1	2
667.689	1	2
667.858	1	2
668.027	1	-11
668.197	1	-7
668.366	1	-4
668.536	1	-6
668.705	1	-12
668.874	1	6
669.044	1	3
669.213	1	6
669.382	1	-3
669.552	1	1
669.721	1	-12
669.891	1	-9
670.060	1	1
670.229	1	2
670.399	1	4
670.568	1	0
670.738	1	-3
670.907	1	2
671.076	1	-4
671.246	1	7
671.415	1	9
671.584	1	5
671.754	1	-11
671.923	1	-6
672.093	1	0
672.262	1	-6
672.431	1	0
672.601	1	-1
672.770	1	2
672.939	1	6
673.109	1	0
673.278	1	-4
673.448	1	1
673.617	1	5
673.786	1	-4
