325.333	1	11
325.504	1	-6
325.675	1	2
325.846	1	-1
326.017	1	1
326.188	1	2
326.359	1	2
326.531	1	-5
326.702	1	0
326.873	1	4
327.044	1	3
327.215	1	-4
327.386	1	-8
327.557	1	-7
327.728	1	-4
327.899	1	2
328.070	1	-1
328.241	1	-3
328.412	1	3
328.583	1	-9
328.754	1	12
328.926	1	4
329.097	1	-4
329.268	1	14
329.439	1	1
329.610	1	-4
329.781	1	4
329.952	1	3
330.123	1	-4
330.294	1	-15
330.465	1	-8
330.636	1	5
330.807	1	2
330.978	1	-6
331.149	1	5
331.320	1	1
331.492	1	2
331.663	1	-10
331.834	1	0
332.005	1	13
332.176	1	1
332.347	1	-6
332.518	1	5
332.689	1	6
332.860	1	6
333.031	1	8
333.202	1	2
333.373	1	-1
333.544	1	3
333.715	1	-2
333.886	1	-4
334.057	1	-9
334.228	1	5
334.399	1	11
334.570	1	0
334.741	1	-4
334.912	1	0
335.084	1	0
335.255	1	2
335.426	1	3
335.597	1	0
335.768	1	2
335.939	1	5
336.110	1	-1
336.281	1	-2
336.452	1	17
336.623	1	3
336.794	1	-1
336.965	1	1
337.136	1	8
337.307	1	-2
337.478	1	-4
337.649	1	-2
337.820	1	-5
337.991	1	-2
338.162	1	-2
338.333	1	6
338.504	1	4
338.675	1	-2
338.846	1	-1
339.017	1	3
339.188	1	2
339.359	1	9
339.530	1	-6
339.701	1	-1
339.872	1	15
340.043	1	3
340.214	1	5
340.385	1	-6
340.556	1	11
340.727	1	-2
340.898	1	6
341.069	1	4
341.240	1	3
341.411	1	0
341.582	1	-4
341.753	1	-1
341.924	1	16
342.095	1	-5
342.266	1	9
342.437	1	-2
342.608	1	-1
342.779	1	-7
342.950	1	-1
343.121	1	5
343.292	1	3
343.463	1	0
343.634	1	-5
343.805	1	7
343.976	1	7
344.147	1	3
344.318	1	3
344.489	1	-2
344.660	1	17
344.831	1	12
345.002	1	-6
345.173	1	3
345.344	1	-3
345.515	1	-1
345.686	1	4
345.857	1	-2
346.028	1	6
346.199	1	4
346.370	1	10
346.541	1	0
346.712	1	3
346.883	1	-5
347.054	1	13
347.225	1	-3
347.396	1	12
347.567	1	-1
347.738	1	4
347.909	1	7
348.080	1	-3
348.251	1	3
348.422	1	10
348.593	1	1
348.764	1	-5
348.935	1	0
349.106	1	-5
349.277	1	0
349.448	1	-3
349.619	1	9
349.790	1	10
349.961	1	-8
350.132	1	1
350.303	1	7
350.474	1	4
350.645	1	6
350.816	1	1
350.987	1	15
351.157	1	5
351.328	1	10
351.499	1	9
351.670	1	7
351.841	1	6
352.012	1	5
352.183	1	11
352.354	1	-6
352.525	1	7
352.696	1	-5
352.867	1	14
353.038	1	3
353.209	1	8
353.380	1	1
353.551	1	10
353.722	1	-1
353.893	1	14
354.064	1	8
354.235	1	3
354.406	1	-3
354.576	1	-1
354.747	1	2
354.918	1	-11
355.089	1	7
355.260	1	-4
355.431	1	-8
355.602	1	1
355.773	1	8
355.944	1	8
356.115	1	6
356.286	1	5
356.457	1	4
356.628	1	1
356.799	1	12
356.970	1	7
357.141	1	5
357.311	1	10
357.482	1	2
357.653	1	-8
357.824	1	11
357.995	1	4
358.166	1	-3
358.337	1	-1
358.508	1	9
358.679	1	3
358.850	1	7
359.021	1	6
359.192	1	13
359.363	1	4
359.533	1	2
359.704	1	-5
359.875	1	8
360.046	1	3
360.217	1	5
360.388	1	18
360.559	1	15
360.730	1	2
360.901	1	8
361.072	1	7
361.243	1	9
361.414	1	11
361.584	1	-7
361.755	1	0
361.926	1	10
362.097	1	-5
362.268	1	12
362.439	1	-5
362.610	1	11
362.781	1	-4
362.952	1	9
363.123	1	-9
363.293	1	4
363.464	1	0
363.635	1	5
363.806	1	5
363.977	1	6
364.148	1	9
364.319	1	-5
364.490	1	7
364.661	1	4
364.832	1	3
365.002	1	7
365.173	1	11
365.344	1	6
365.515	1	10
365.686	1	7
365.857	1	11
366.028	1	10
366.199	1	7
366.370	1	-5
366.540	1	11
366.711	1	0
366.882	1	8
367.053	1	1
367.224	1	1
367.395	1	10
367.566	1	12
367.737	1	-3
367.908	1	11
368.078	1	0
368.249	1	8
368.420	1	4
368.591	1	9
368.762	1	14
368.933	1	4
369.104	1	-1
369.274	1	12
369.445	1	4
369.616	1	0
369.787	1	6
369.958	1	10
370.129	1	5
370.300	1	6
370.471	1	7
370.641	1	1
370.812	1	7
370.983	1	-1
371.154	1	1
371.325	1	-4
371.496	1	-1
371.667	1	17
371.837	1	10
372.008	1	-1
372.179	1	7
372.350	1	6
372.521	1	10
372.692	1	10
372.863	1	0
373.033	1	6
373.204	1	11
373.375	1	6
373.546	1	8
373.717	1	5
373.888	1	5
374.059	1	-1
374.229	1	17
374.400	1	4
374.571	1	3
374.742	1	4
374.913	1	-8
375.084	1	4
375.254	1	0
375.425	1	8
375.596	1	5
375.767	1	11
375.938	1	2
376.109	1	-6
376.279	1	6
376.450	1	5
376.621	1	4
376.792	1	8
376.963	1	0
377.134	1	-1
377.304	1	17
377.475	1	-5
377.646	1	0
377.817	1	12
377.988	1	6
378.159	1	9
378.329	1	1
378.500	1	11
378.671	1	5
378.842	1	11
379.013	1	0
379.184	1	7
379.354	1	23
379.525	1	16
379.696	1	7
379.867	1	1
380.038	1	7
380.209	1	12
380.379	1	17
380.550	1	-4
380.721	1	2
380.892	1	3
381.063	1	10
381.233	1	11
381.404	1	-6
381.575	1	2
381.746	1	3
381.917	1	4
382.087	1	14
382.258	1	9
382.429	1	13
382.600	1	6
382.771	1	-1
382.941	1	19
383.112	1	5
383.283	1	2
383.454	1	-3
383.625	1	10
383.795	1	10
383.966	1	17
384.137	1	16
384.308	1	14
384.479	1	0
384.649	1	6
384.820	1	4
384.991	1	6
385.162	1	9
385.333	1	5
385.503	1	9
385.674	1	9
385.845	1	10
386.016	1	14
386.187	1	2
386.357	1	18
386.528	1	5
386.699	1	9
386.870	1	12
387.041	1	15
387.211	1	11
387.382	1	15
387.553	1	5
387.724	1	8
387.894	1	3
388.065	1	11
388.236	1	8
388.407	1	9
388.578	1	7
388.748	1	17
388.919	1	10
389.090	1	15
389.261	1	13
389.431	1	7
389.602	1	-2
389.773	1	8
389.944	1	14
390.114	1	15
390.285	1	10
390.456	1	9
390.627	1	2
390.798	1	2
390.968	1	9
391.139	1	10
391.310	1	6
391.481	1	3
391.651	1	19
391.822	1	18
391.993	1	9
392.164	1	10
392.334	1	5
392.505	1	10
392.676	1	4
392.847	1	4
393.017	1	6
393.188	1	17
393.359	1	12
393.530	1	22
393.700	1	4
393.871	1	24
394.042	1	1
394.213	1	9
394.383	1	5
394.554	1	0
394.725	1	9
394.896	1	13
395.066	1	9
395.237	1	13
395.408	1	8
395.579	1	15
395.749	1	11
395.920	1	10
396.091	1	12
396.262	1	2
396.432	1	2
396.603	1	8
396.774	1	-4
396.945	1	18
397.115	1	21
397.286	1	20
397.457	1	7
397.627	1	2
397.798	1	12
397.969	1	12
398.140	1	5
398.310	1	1
398.481	1	13
398.652	1	9
398.823	1	6
398.993	1	6
399.164	1	16
399.335	1	2
399.505	1	3
399.676	1	7
399.847	1	7
400.018	1	-5
400.188	1	16
400.359	1	23
400.530	1	15
400.700	1	4
400.871	1	15
401.042	1	13
401.213	1	15
401.383	1	14
401.554	1	11
401.725	1	8
401.895	1	0
402.066	1	15
402.237	1	7
402.408	1	3
402.578	1	13
402.749	1	6
402.920	1	19
403.090	1	5
403.261	1	15
403.432	1	9
403.603	1	11
403.773	1	13
403.944	1	12
404.115	1	5
404.285	1	19
404.456	1	26
404.627	1	10
404.797	1	13
404.968	1	9
405.139	1	10
405.310	1	11
405.480	1	5
405.651	1	15
405.822	1	-2
405.992	1	8
406.163	1	2
406.334	1	22
406.504	1	3
406.675	1	14
406.846	1	6
407.016	1	15
407.187	1	17
407.358	1	1
407.528	1	7
407.699	1	9
407.870	1	12
408.041	1	9
408.211	1	14
408.382	1	9
408.553	1	12
408.723	1	14
408.894	1	9
409.065	1	5
409.235	1	13
409.406	1	10
409.577	1	13
409.747	1	14
409.918	1	14
410.089	1	22
410.259	1	10
410.430	1	16
410.601	1	13
410.771	1	16
410.942	1	4
411.113	1	19
411.283	1	9
411.454	1	29
411.625	1	9
411.795	1	21
411.966	1	16
412.137	1	21
412.307	1	13
412.478	1	15
412.649	1	6
412.819	1	10
412.990	1	15
413.161	1	15
413.331	1	22
413.502	1	3
413.672	1	15
413.843	1	10
414.014	1	-1
414.184	1	18
414.355	1	21
414.526	1	11
414.696	1	7
414.867	1	0
415.038	1	12
415.208	1	14
415.379	1	5
415.550	1	10
415.720	1	8
415.891	1	17
416.062	1	20
416.232	1	16
416.403	1	5
416.573	1	6
416.744	1	13
416.915	1	13
417.085	1	6
417.256	1	8
417.427	1	4
417.597	1	6
417.768	1	9
417.939	1	-5
418.109	1	16
418.280	1	16
418.450	1	13
418.621	1	12
418.792	1	3
418.962	1	15
419.133	1	5
419.304	1	6
419.474	1	12
419.645	1	8
419.815	1	8
419.986	1	14
420.157	1	10
420.327	1	6
420.498	1	7
420.669	1	14
420.839	1	12
421.010	1	2
421.180	1	13
421.351	1	11
421.522	1	11
421.692	1	13
421.863	1	14
422.033	1	13
422.204	1	16
422.375	1	7
422.545	1	17
422.716	1	3
422.886	1	4
423.057	1	15
423.228	1	2
423.398	1	12
423.569	1	8
423.740	1	1
423.910	1	15
424.081	1	16
424.251	1	6
424.422	1	12
424.593	1	2
424.763	1	13
424.934	1	10
425.104	1	16
425.275	1	2
425.445	1	18
425.616	1	10
425.787	1	5
425.957	1	2
426.128	1	8
426.298	1	13
426.469	1	-1
426.640	1	15
426.810	1	0
426.981	1	12
427.151	1	9
427.322	1	13
427.493	1	8
427.663	1	8
427.834	1	13
428.004	1	22
428.175	1	6
428.345	1	8
428.516	1	10
428.687	1	17
428.857	1	15
429.028	1	7
429.198	1	12
429.369	1	11
429.540	1	14
429.710	1	10
429.881	1	9
430.051	1	1
430.222	1	13
430.392	1	5
430.563	1	6
430.734	1	12
430.904	1	7
431.075	1	11
431.245	1	11
431.416	1	11
431.586	1	1
431.757	1	11
431.927	1	14
432.098	1	18
432.269	1	1
432.439	1	-3
432.610	1	25
432.780	1	9
432.951	1	1
433.121	1	4
433.292	1	14
433.462	1	2
433.633	1	7
433.804	1	17
433.974	1	3
434.145	1	13
434.315	1	13
434.486	1	-9
434.656	1	12
434.827	1	17
434.997	1	15
435.168	1	10
435.339	1	20
435.509	1	14
435.680	1	15
435.850	1	5
436.021	1	5
436.191	1	2
436.362	1	12
436.532	1	14
436.703	1	15
436.873	1	6
437.044	1	17
437.214	1	4
437.385	1	11
437.556	1	12
437.726	1	6
437.897	1	5
438.067	1	10
438.238	1	17
438.408	1	14
438.579	1	10
438.749	1	17
438.920	1	18
439.090	1	0
439.261	1	15
439.431	1	-4
439.602	1	10
439.772	1	7
439.943	1	-3
440.113	1	3
440.284	1	18
440.455	1	10
440.625	1	17
440.796	1	6
440.966	1	14
441.137	1	8
441.307	1	15
441.478	1	9
441.648	1	10
441.819	1	11
441.989	1	14
442.160	1	10
442.330	1	11
442.501	1	8
442.671	1	1
442.842	1	7
443.012	1	12
443.183	1	9
443.353	1	3
443.524	1	3
443.694	1	8
443.865	1	19
444.035	1	4
444.206	1	9
444.376	1	11
444.547	1	14
444.717	1	3
444.888	1	-4
445.058	1	11
445.229	1	5
445.399	1	10
445.570	1	7
445.740	1	6
445.911	1	24
446.081	1	5
446.252	1	17
446.422	1	9
446.593	1	9
446.763	1	0
446.934	1	7
447.104	1	5
447.275	1	13
447.445	1	7
447.616	1	-1
447.786	1	7
447.957	1	1
448.127	1	8
448.298	1	5
448.468	1	5
448.639	1	2
448.809	1	11
448.979	1	15
449.150	1	5
449.320	1	9
449.491	1	2
449.661	1	-4
449.832	1	5
450.002	1	9
450.173	1	6
450.343	1	-1
450.514	1	9
450.684	1	8
450.855	1	2
451.025	1	-5
451.196	1	11
451.366	1	9
451.537	1	21
451.707	1	14
451.878	1	1
452.048	1	0
452.218	1	13
452.389	1	10
452.559	1	15
452.730	1	4
452.900	1	5
453.071	1	17
453.241	1	3
453.412	1	14
453.582	1	13
453.753	1	19
453.923	1	3
454.093	1	3
454.264	1	15
454.434	1	9
454.605	1	-1
454.775	1	2
454.946	1	0
455.116	1	13
455.287	1	0
455.457	1	7
455.628	1	0
455.798	1	1
455.968	1	9
456.139	1	16
456.309	1	9
456.480	1	5
456.650	1	5
456.821	1	10
456.991	1	11
457.161	1	10
457.332	1	12
457.502	1	3
457.673	1	-2
457.843	1	-3
458.014	1	10
458.184	1	10
458.355	1	5
458.525	1	12
458.695	1	0
458.866	1	1
459.036	1	9
459.207	1	17
459.377	1	21
459.548	1	14
459.718	1	1
459.888	1	-2
460.059	1	11
460.229	1	0
460.400	1	9
460.570	1	6
460.740	1	0
460.911	1	4
461.081	1	9
461.252	1	13
461.422	1	10
461.593	1	2
461.763	1	12
461.933	1	0
462.104	1	0
462.274	1	-4
462.445	1	4
462.615	1	12
462.785	1	10
462.956	1	-3
463.126	1	8
463.297	1	2
463.467	1	23
463.638	1	17
463.808	1	8
463.978	1	-1
464.149	1	-2
464.319	1	10
464.490	1	-1
464.660	1	-4
464.830	1	5
465.001	1	1
465.171	1	3
465.342	1	-6
465.512	1	6
465.682	1	6
465.853	1	3
466.023	1	8
466.194	1	14
466.364	1	11
466.534	1	-1
466.705	1	19
466.875	1	-5
467.045	1	-10
467.216	1	1
467.386	1	9
467.557	1	12
467.727	1	1
467.897	1	1
468.068	1	-1
468.238	1	10
468.409	1	7
468.579	1	14
468.749	1	2
468.920	1	3
469.090	1	4
469.260	1	3
469.431	1	-8
469.601	1	17
469.772	1	16
469.942	1	9
470.112	1	0
470.283	1	7
470.453	1	6
470.623	1	15
470.794	1	8
470.964	1	-5
471.135	1	14
471.305	1	3
471.475	1	2
471.646	1	14
471.816	1	11
471.986	1	7
472.157	1	6
472.327	1	13
472.497	1	1
472.668	1	-3
472.838	1	2
473.009	1	6
473.179	1	9
473.349	1	9
473.520	1	17
473.690	1	5
473.860	1	-4
474.031	1	-13
474.201	1	2
474.371	1	12
474.542	1	-2
474.712	1	-4
474.882	1	8
475.053	1	9
475.223	1	9
475.394	1	-1
475.564	1	0
475.734	1	3
475.905	1	12
476.075	1	11
476.245	1	5
476.416	1	3
476.586	1	5
476.756	1	9
476.927	1	1
477.097	1	2
477.267	1	0
477.438	1	5
477.608	1	10
477.778	1	-2
477.949	1	-2
478.119	1	18
478.289	1	0
478.460	1	1
478.630	1	-4
478.800	1	1
478.971	1	6
479.141	1	2
479.311	1	7
479.482	1	-2
479.652	1	9
479.822	1	1
479.993	1	-1
480.163	1	5
480.333	1	8
480.504	1	8
480.674	1	14
480.844	1	3
481.015	1	9
481.185	1	5
481.355	1	2
481.525	1	-3
481.696	1	5
481.866	1	2
482.036	1	-1
482.207	1	12
482.377	1	-5
482.547	1	6
482.718	1	7
482.888	1	8
483.058	1	10
483.229	1	-1
483.399	1	7
483.569	1	-1
483.740	1	1
483.910	1	-14
484.080	1	2
484.250	1	2
484.421	1	-9
484.591	1	1
484.761	1	6
484.932	1	2
485.102	1	3
485.272	1	2
485.443	1	6
485.613	1	3
485.783	1	-1
485.953	1	3
486.124	1	-1
486.294	1	1
486.464	1	8
486.635	1	3
486.805	1	-1
486.975	1	-1
487.146	1	4
487.316	1	10
487.486	1	8
487.656	1	11
487.827	1	-3
487.997	1	-9
488.167	1	13
488.338	1	-2
488.508	1	3
488.678	1	1
488.848	1	7
489.019	1	-1
489.189	1	12
489.359	1	1
489.529	1	3
489.700	1	4
489.870	1	-4
490.040	1	1
490.211	1	-5
490.381	1	-1
490.551	1	-4
490.721	1	9
490.892	1	-15
491.062	1	4
491.232	1	-1
491.402	1	4
491.573	1	15
491.743	1	-1
491.913	1	-3
492.084	1	0
492.254	1	-1
492.424	1	-5
492.594	1	-7
492.765	1	8
492.935	1	19
493.105	1	-4
493.275	1	14
493.446	1	-8
493.616	1	-8
493.786	1	1
493.956	1	10
494.127	1	-1
494.297	1	-4
494.467	1	-6
494.637	1	5
494.808	1	-13
494.978	1	5
495.148	1	0
495.318	1	1
495.489	1	-3
495.659	1	3
495.829	1	1
495.999	1	8
496.170	1	1
496.340	1	3
496.510	1	12
496.680	1	-7
496.851	1	13
497.021	1	-2
497.191	1	9
497.361	1	-7
497.532	1	6
497.702	1	7
497.872	1	1
498.042	1	1
498.213	1	-9
498.383	1	0
498.553	1	4
498.723	1	-1
498.894	1	2
499.064	1	1
499.234	1	6
499.404	1	0
499.574	1	3
499.745	1	5
499.915	1	8
500.085	1	-3
500.255	1	-9
500.426	1	1
500.596	1	-1
500.766	1	-3
500.936	1	-8
501.106	1	-1
501.277	1	-1
501.447	1	8
501.617	1	0
501.787	1	-4
501.958	1	6
502.128	1	3
502.298	1	11
502.468	1	3
502.638	1	1
502.809	1	0
502.979	1	5
503.149	1	2
503.319	1	4
503.489	1	-14
503.660	1	-6
503.830	1	2
504.000	1	2
504.170	1	-5
504.340	1	-6
504.511	1	6
504.681	1	1
504.851	1	-1
505.021	1	6
505.192	1	-8
505.362	1	-8
505.532	1	-6
505.702	1	8
505.872	1	5
506.043	1	8
506.213	1	8
506.383	1	-4
506.553	1	3
506.723	1	-7
506.893	1	10
507.064	1	6
507.234	1	2
507.404	1	7
507.574	1	2
507.744	1	2
507.915	1	1
508.085	1	-4
508.255	1	-4
508.425	1	-8
508.595	1	-5
508.766	1	-12
508.936	1	9
509.106	1	0
509.276	1	9
509.446	1	-11
509.616	1	-2
509.787	1	0
509.957	1	8
510.127	1	-3
510.297	1	-4
510.467	1	7
510.638	1	-2
510.808	1	13
510.978	1	5
511.148	1	-4
511.318	1	2
511.488	1	10
511.659	1	9
511.829	1	4
511.999	1	1
512.169	1	13
512.339	1	6
512.509	1	2
512.680	1	0
512.850	1	7
513.020	1	11
513.190	1	-11
513.360	1	8
513.530	1	4
513.700	1	3
513.871	1	-8
514.041	1	6
514.211	1	2
514.381	1	4
514.551	1	-3
514.721	1	0
514.892	1	-12
515.062	1	6
515.232	1	2
515.402	1	-4
515.572	1	3
515.742	1	-1
515.912	1	9
516.083	1	-1
516.253	1	9
516.423	1	6
516.593	1	4
516.763	1	9
516.933	1	0
517.104	1	6
517.274	1	-9
517.444	1	-2
517.614	1	-1
517.784	1	-7
517.954	1	-6
518.124	1	0
518.294	1	5
518.465	1	-7
518.635	1	10
518.805	1	6
518.975	1	2
519.145	1	-3
519.315	1	4
519.485	1	-3
519.656	1	-6
519.826	1	-11
519.996	1	6
520.166	1	1
520.336	1	3
520.506	1	-5
520.676	1	-2
520.846	1	-2
521.017	1	1
521.187	1	6
521.357	1	-7
521.527	1	-10
521.697	1	1
521.867	1	8
522.037	1	2
522.207	1	3
522.377	1	11
522.548	1	-5
522.718	1	-4
522.888	1	-1
523.058	1	7
523.228	1	-6
523.398	1	-9
523.568	1	-7
523.738	1	-1
523.909	1	0
524.079	1	8
524.249	1	-4
524.419	1	-2
524.589	1	0
524.759	1	0
524.929	1	3
525.099	1	2
525.269	1	9
525.439	1	3
525.610	1	10
525.780	1	0
525.950	1	-4
526.120	1	-6
526.290	1	0
526.460	1	-15
526.630	1	1
526.800	1	-7
526.970	1	10
527.140	1	-6
527.311	1	0
527.481	1	12
527.651	1	3
527.821	1	2
527.991	1	-1
528.161	1	6
528.331	1	-11
528.501	1	1
528.671	1	4
528.841	1	8
529.011	1	2
529.181	1	-6
529.352	1	-4
529.522	1	-8
529.692	1	-1
529.862	1	-8
530.032	1	0
530.202	1	-10
530.372	1	-1
530.542	1	8
530.712	1	6
530.882	1	5
531.052	1	7
531.222	1	-6
531.392	1	-3
531.563	1	-5
531.733	1	-14
531.903	1	-4
532.073	1	-2
532.243	1	9
532.413	1	16
532.583	1	2
532.753	1	-5
532.923	1	2
533.093	1	-5
533.263	1	-8
533.433	1	1
533.603	1	6
533.773	1	5
533.943	1	4
534.113	1	3
534.284	1	-2
534.454	1	-2
534.624	1	-2
534.794	1	3
534.964	1	0
535.134	1	-1
535.304	1	2
535.474	1	7
535.644	1	5
535.814	1	-4
535.984	1	3
536.154	1	-4
536.324	1	0
536.494	1	3
536.664	1	-1
536.834	1	-10
537.004	1	-1
537.174	1	10
537.344	1	2
537.514	1	-5
537.685	1	0
537.855	1	-1
538.025	1	6
538.195	1	-8
538.365	1	0
538.535	1	-4
538.705	1	2
538.875	1	4
539.045	1	1
539.215	1	-11
539.385	1	0
539.555	1	-11
539.725	1	3
539.895	1	4
540.065	1	6
540.235	1	8
540.405	1	2
540.575	1	-9
540.745	1	3
540.915	1	1
541.085	1	-16
541.255	1	-5
541.425	1	0
541.595	1	-2
541.765	1	-1
541.935	1	-4
542.105	1	2
542.275	1	4
542.445	1	6
542.615	1	1
542.785	1	1
542.955	1	11
543.125	1	2
543.295	1	-7
543.465	1	-4
543.635	1	-8
543.805	1	-4
543.975	1	-3
544.145	1	1
544.315	1	-6
544.485	1	2
544.655	1	9
544.825	1	2
544.995	1	-4
545.165	1	-7
545.335	1	14
545.505	1	-8
545.675	1	6
545.845	1	4
546.015	1	-5
546.185	1	-1
546.355	1	-9
546.525	1	5
546.695	1	-11
546.865	1	-5
547.035	1	-3
547.205	1	16
547.375	1	7
547.545	1	7
547.715	1	-3
547.885	1	-7
548.055	1	-2
548.225	1	11
548.395	1	-6
548.565	1	7
548.735	1	-10
548.905	1	16
549.075	1	-2
549.245	1	1
549.415	1	8
549.585	1	-4
549.755	1	0
549.925	1	-5
550.095	1	-4
550.265	1	-3
550.435	1	2
550.605	1	-5
550.775	1	-8
550.945	1	0
551.115	1	6
551.285	1	7
551.455	1	-5
551.625	1	-7
551.795	1	-4
551.965	1	-11
552.135	1	-8
552.305	1	6
552.475	1	12
552.645	1	-3
552.815	1	6
552.985	1	-2
553.155	1	0
553.325	1	-7
553.495	1	5
553.665	1	-2
553.835	1	-2
554.004	1	-1
554.174	1	-7
554.344	1	7
554.514	1	-9
554.684	1	11
554.854	1	-15
555.024	1	6
555.194	1	-1
555.364	1	3
555.534	1	-15
555.704	1	-2
555.874	1	-6
556.044	1	-1
556.214	1	-1
556.384	1	8
556.554	1	-2
556.724	1	2
556.894	1	0
557.064	1	3
557.234	1	-2
557.404	1	-3
557.573	1	-3
557.743	1	-3
557.913	1	-10
558.083	1	4
558.253	1	4
558.423	1	3
558.593	1	4
558.763	1	-3
558.933	1	-6
559.103	1	0
559.273	1	8
559.443	1	20
559.613	1	-5
559.783	1	2
559.953	1	-15
560.122	1	7
560.292	1	-5
560.462	1	-5
560.632	1	-7
560.802	1	0
560.972	1	-10
561.142	1	1
561.312	1	-6
561.482	1	4
561.652	1	5
561.822	1	-7
561.992	1	5
562.162	1	-6
562.331	1	-13
562.501	1	3
562.671	1	0
562.841	1	-7
563.011	1	1
563.181	1	-2
563.351	1	-11
563.521	1	-5
563.691	1	4
563.861	1	-3
564.031	1	-3
564.201	1	-2
564.370	1	3
564.540	1	0
564.710	1	-6
564.880	1	-4
565.050	1	-1
565.220	1	4
565.390	1	-6
565.560	1	10
565.730	1	9
565.900	1	4
566.069	1	5
566.239	1	8
566.409	1	8
566.579	1	4
566.749	1	1
566.919	1	-13
567.089	1	-12
567.259	1	-1
567.429	1	-12
567.599	1	2
567.768	1	2
567.938	1	8
568.108	1	11
568.278	1	2
568.448	1	4
568.618	1	3
568.788	1	4
568.958	1	-1
569.128	1	-10
569.297	1	-3
569.467	1	13
569.637	1	4
569.807	1	11
569.977	1	-2
570.147	1	-3
570.317	1	-9
570.487	1	0
570.656	1	4
570.826	1	-6
570.996	1	2
571.166	1	-5
571.336	1	4
571.506	1	-3
571.676	1	5
571.846	1	0
572.015	1	1
572.185	1	2
572.355	1	1
572.525	1	-5
572.695	1	2
572.865	1	1
573.035	1	1
573.205	1	-2
573.374	1	-5
573.544	1	-1
573.714	1	-6
573.884	1	-9
574.054	1	1
574.224	1	7
574.394	1	-3
574.563	1	-6
574.733	1	-7
574.903	1	3
575.073	1	-5
575.243	1	1
575.413	1	-3
575.583	1	0
575.752	1	-6
575.922	1	9
576.092	1	-5
576.262	1	4
576.432	1	-5
576.602	1	8
576.772	1	-8
576.941	1	1
577.111	1	-3
577.281	1	-2
577.451	1	2
577.621	1	-1
577.791	1	5
577.960	1	-3
578.130	1	0
578.300	1	6
578.470	1	-1
578.640	1	-12
578.810	1	3
578.979	1	0
579.149	1	-4
579.319	1	-5
579.489	1	9
579.659	1	-1
579.829	1	2
579.998	1	-8
580.168	1	0
580.338	1	-3
580.508	1	-2
580.678	1	-6
580.848	1	2
581.017	1	-3
581.187	1	-1
581.357	1	4
581.527	1	-5
581.697	1	-4
581.867	1	-5
582.036	1	-13
582.206	1	-4
582.376	1	-7
582.546	1	0
582.716	1	6
582.885	1	-3
583.055	1	-3
583.225	1	-6
583.395	1	2
583.565	1	8
583.735	1	3
583.904	1	-4
584.074	1	-5
584.244	1	3
584.414	1	1
584.584	1	-2
584.753	1	-2
584.923	1	-4
585.093	1	4
585.263	1	4
585.433	1	1
585.602	1	-2
585.772	1	16
585.942	1	-6
586.112	1	-5
586.282	1	-3
586.451	1	11
586.621	1	-10
586.791	1	-11
586.961	1	-5
587.131	1	-11
587.300	1	13
587.470	1	-7
587.640	1	3
587.810	1	-7
587.980	1	3
588.149	1	1
588.319	1	5
588.489	1	5
588.659	1	-1
588.829	1	-3
588.998	1	-1
589.168	1	1
589.338	1	-9
589.508	1	4
589.677	1	1
589.847	1	10
590.017	1	-5
590.187	1	-8
590.357	1	-12
590.526	1	-6
590.696	1	-7
590.866	1	-1
591.036	1	7
591.205	1	4
591.375	1	2
591.545	1	-6
591.715	1	-6
591.885	1	10
592.054	1	11
592.224	1	-6
592.394	1	-13
592.564	1	10
592.733	1	-5
592.903	1	4
593.073	1	-14
593.243	1	13
593.412	1	-8
593.582	1	-11
593.752	1	-3
593.922	1	-3
594.091	1	11
594.261	1	-12
594.431	1	9
594.601	1	0
594.771	1	6
594.940	1	-10
595.110	1	0
595.280	1	0
595.450	1	-1
595.619	1	-1
595.789	1	-7
595.959	1	0
596.129	1	-2
596.298	1	8
596.468	1	-6
596.638	1	-12
596.808	1	-7
596.977	1	-8
597.147	1	-6
597.317	1	-3
597.487	1	5
597.656	1	11
597.826	1	9
597.996	1	-5
598.166	1	1
598.335	1	-8
598.505	1	5
598.675	1	-5
598.844	1	3
599.014	1	-9
599.184	1	-7
599.354	1	5
599.523	1	-4
599.693	1	5
599.863	1	1
600.033	1	-4
600.202	1	-4
600.372	1	-10
600.542	1	-2
600.712	1	-4
600.881	1	-4
601.051	1	4
601.221	1	10
601.390	1	-2
601.560	1	8
601.730	1	-2
601.900	1	1
602.069	1	0
602.239	1	2
602.409	1	2
602.578	1	7
602.748	1	11
602.918	1	-11
603.088	1	5
603.257	1	-12
603.427	1	1
603.597	1	-13
603.767	1	-1
603.936	1	-1
604.106	1	-9
604.276	1	4
604.445	1	-6
604.615	1	3
604.785	1	3
604.954	1	-4
605.124	1	-2
605.294	1	10
605.464	1	2
605.633	1	-2
605.803	1	5
605.973	1	1
606.142	1	2
606.312	1	3
606.482	1	-7
606.652	1	-7
606.821	1	-6
606.991	1	2
607.161	1	-2
607.330	1	3
607.500	1	-6
607.670	1	1
607.839	1	0
608.009	1	-1
608.179	1	9
608.348	1	-2
608.518	1	8
608.688	1	-8
608.858	1	-3
609.027	1	-4
609.197	1	2
609.367	1	-7
609.536	1	-14
609.706	1	-1
609.876	1	3
610.045	1	-2
610.215	1	2
610.385	1	2
610.554	1	3
610.724	1	-9
610.894	1	-3
611.063	1	-1
611.233	1	4
611.403	1	2
611.572	1	-5
611.742	1	4
611.912	1	-2
612.081	1	9
612.251	1	3
612.421	1	-12
612.590	1	2
612.760	1	1
612.930	1	3
613.099	1	-3
613.269	1	-3
613.439	1	-6
613.608	1	3
613.778	1	-6
613.948	1	18
614.117	1	-6
614.287	1	-13
614.457	1	-3
614.626	1	-4
614.796	1	0
614.966	1	-2
615.135	1	7
615.305	1	8
615.475	1	0
615.644	1	11
615.814	1	-2
615.984	1	-7
616.153	1	1
616.323	1	-4
616.493	1	-2
616.662	1	-9
616.832	1	-1
617.002	1	1
617.171	1	8
617.341	1	2
617.511	1	-7
617.680	1	-9
617.850	1	0
618.019	1	2
618.189	1	9
618.359	1	-1
618.528	1	0
618.698	1	1
618.868	1	-1
619.037	1	-2
619.207	1	-4
619.377	1	8
619.546	1	7
619.716	1	-5
619.885	1	10
620.055	1	-1
620.225	1	1
620.394	1	4
620.564	1	3
620.734	1	5
620.903	1	-11
621.073	1	5
621.242	1	-2
621.412	1	0
621.582	1	15
621.751	1	-3
621.921	1	3
622.091	1	-3
622.260	1	5
622.430	1	6
622.599	1	-4
622.769	1	4
622.939	1	-10
623.108	1	1
623.278	1	3
623.448	1	-9
623.617	1	-4
623.787	1	-3
623.956	1	3
624.126	1	0
624.296	1	10
624.465	1	9
624.635	1	-4
624.804	1	-11
624.974	1	-6
625.144	1	-5
625.313	1	15
625.483	1	7
625.652	1	1
625.822	1	7
625.992	1	-7
626.161	1	4
626.331	1	-8
626.501	1	4
626.670	1	-2
626.840	1	0
627.009	1	-1
627.179	1	3
627.348	1	-2
627.518	1	5
627.688	1	-6
627.857	1	10
628.027	1	3
628.196	1	3
628.366	1	0
628.536	1	-9
628.705	1	-3
628.875	1	-2
629.044	1	1
629.214	1	-4
629.384	1	10
629.553	1	-4
629.723	1	0
629.892	1	1
630.062	1	1
630.232	1	4
630.401	1	1
630.571	1	-10
630.740	1	-6
630.910	1	-3
631.079	1	-6
631.249	1	0
631.419	1	-6
631.588	1	2
631.758	1	-9
631.927	1	16
632.097	1	-3
632.266	1	6
632.436	1	-1
632.606	1	0
632.775	1	0
632.945	1	-3
633.114	1	-6
633.284	1	-4
633.453	1	2
633.623	1	11
633.793	1	-1
633.962	1	3
634.132	1	4
634.301	1	3
634.471	1	12
634.640	1	-2
634.810	1	3
634.979	1	-2
635.149	1	-1
635.319	1	2
635.488	1	2
635.658	1	1
635.827	1	8
635.997	1	11
636.166	1	6
636.336	1	-6
636.505	1	5
636.675	1	-7
636.845	1	-2
637.014	1	-9
637.184	1	5
637.353	1	0
637.523	1	-4
637.692	1	8
637.862	1	0
638.031	1	-4
638.201	1	-1
638.370	1	3
638.540	1	-9
638.710	1	-6
638.879	1	-1
639.049	1	5
639.218	1	0
639.388	1	-3
639.557	1	3
639.727	1	0
639.896	1	0
640.066	1	-4
640.235	1	-7
640.405	1	6
640.574	1	-2
640.744	1	-1
640.914	1	-1
641.083	1	10
641.253	1	-4
641.422	1	-2
641.592	1	5
641.761	1	1
641.931	1	4
642.100	1	-2
642.270	1	0
642.439	1	-7
642.609	1	9
642.778	1	5
642.948	1	17
643.117	1	-1
643.287	1	-5
643.456	1	4
643.626	1	-5
643.795	1	-10
643.965	1	1
644.134	1	-4
644.304	1	1
644.473	1	-2
644.643	1	-4
644.812	1	-12
644.982	1	-6
645.151	1	1
645.321	1	4
645.490	1	7
645.660	1	-11
645.829	1	2
645.999	1	3
646.168	1	12
646.338	1	-6
646.507	1	-8
646.677	1	3
646.846	1	5
647.016	1	7
647.185	1	4
647.355	1	5
647.524	1	-2
647.694	1	-14
647.863	1	-5
648.033	1	2
648.202	1	3
648.372	1	-2
648.541	1	-2
648.711	1	2
648.880	1	2
649.050	1	4
649.219	1	2
649.389	1	-10
649.558	1	8
649.728	1	-1
649.897	1	11
650.067	1	7
650.236	1	2
650.406	1	-2
650.575	1	-1
650.745	1	-5
650.914	1	3
651.084	1	1
651.253	1	4
651.423	1	-8
651.592	1	0
651.762	1	-3
651.931	1	7
652.101	1	-8
652.270	1	0
652.440	1	7
652.609	1	3
652.778	1	7
652.948	1	9
653.117	1	-4
653.287	1	-8
653.456	1	-10
653.626	1	-5
653.795	1	-9
653.965	1	-3
654.134	1	-3
654.304	1	6
654.473	1	4
654.643	1	-3
654.812	1	13
654.982	1	7
655.151	1	10
655.320	1	-6
655.490	1	-10
655.659	1	7
655.829	1	10
655.998	1	7
656.168	1	-6
656.337	1	0
656.507	1	-5
656.676	1	-7
656.846	1	-5
657.015	1	10
657.184	1	-7
657.354	1	-3
657.523	1	-3
657.693	1	7
657.862	1	-4
658.032	1	-2
658.201	1	-11
658.371	1	2
658.540	1	-6
658.709	1	12
658.879	1	-1
659.048	1	0
659.218	1	1
659.387	1	2
659.557	1	4
659.726	1	-3
659.895	1	-1
660.065	1	0
660.234	1	-4
660.404	1	-1
660.573	1	-6
660.743	1	-9
660.912	1	11
661.081	1	-6
661.251	1	1
661.420	1	0
661.590	1	3
661.759	1	2
661.929	1	-1
662.098	1	1
662.267	1	-9
662.437	1	3
662.606	1	-9
662.776	1	7
662.945	1	9
663.115	1	7
663.284	1	-6
663.453	1	1
663.623	1	-1
663.792	1	0
663.962	1	2
664.131	1	-4
664.300	1	-8
664.470	1	-6
664.639	1	7
664.809	1	4
664.978	1	10
665.148	1	3
665.317	1	4
665.486	1	4
665.656	1	5
665.825	1	0
665.995	1	-9
666.164	1	-5
666.333	1	0
666.503	1	0
666.672	1	-5
666.842	1	-1
667.011	1	4
667.180	1	-5
667.350	1	-1
667.519	1	-7
667.689	1	-1
667.858	1	6
668.027	1	-11
668.197	1	-17
668.366	1	-1
668.536	1	-3
668.705	1	-9
668.874	1	5
669.044	1	4
669.213	1	10
669.382	1	2
669.552	1	2
669.721	1	-2
669.891	1	-5
670.060	1	-1
670.229	1	9
670.399	1	4
670.568	1	3
670.738	1	-7
670.907	1	-1
671.076	1	-8
671.246	1	4
671.415	1	4
671.584	1	-3
671.754	1	-7
671.923	1	-12
672.093	1	-1
672.262	1	-7
672.431	1	4
672.601	1	-2
672.770	1	1
672.939	1	1
673.109	1	-5
673.278	1	-2
673.448	1	0
673.617	1	-5
673.786	1	-10
