325.333	1	2
325.504	1	-8
325.675	1	7
325.846	1	3
326.017	1	-4
326.188	1	-6
326.359	1	-9
326.531	1	-4
326.702	1	-7
326.873	1	0
327.044	1	11
327.215	1	2
327.386	1	-2
327.557	1	-6
327.728	1	1
327.899	1	0
328.070	1	3
328.241	1	-6
328.412	1	-2
328.583	1	-5
328.754	1	18
328.926	1	5
329.097	1	-8
329.268	1	4
329.439	1	4
329.610	1	1
329.781	1	6
329.952	1	7
330.123	1	7
330.294	1	2
330.465	1	-13
330.636	1	1
330.807	1	-1
330.978	1	-12
331.149	1	-3
331.320	1	12
331.492	1	-2
331.663	1	0
331.834	1	1
332.005	1	-2
332.176	1	2
332.347	1	-11
332.518	1	10
332.689	1	6
332.860	1	-2
333.031	1	12
333.202	1	-1
333.373	1	-3
333.544	1	4
333.715	1	-6
333.886	1	-9
334.057	1	-15
334.228	1	6
334.399	1	8
334.570	1	5
334.741	1	-2
334.912	1	0
335.084	1	7
335.255	1	-5
335.426	1	4
335.597	1	-5
335.768	1	2
335.939	1	0
336.110	1	-1
336.281	1	-3
336.452	1	15
336.623	1	-2
336.794	1	-3
336.965	1	0
337.136	1	17
337.307	1	-7
337.478	1	-1
337.649	1	-1
337.820	1	-5
337.991	1	-6
338.162	1	1
338.333	1	4
338.504	1	12
338.675	1	-3
338.846	1	-11
339.017	1	-6
339.188	1	1
339.359	1	5
339.530	1	-12
339.701	1	6
339.872	1	9
340.043	1	8
340.214	1	1
340.385	1	-7
340.556	1	8
340.727	1	5
340.898	1	-7
341.069	1	-6
341.240	1	-8
341.411	1	-3
341.582	1	-9
341.753	1	-4
341.924	1	8
342.095	1	-9
342.266	1	9
342.437	1	-3
342.608	1	3
342.779	1	-10
342.950	1	-4
343.121	1	7
343.292	1	2
343.463	1	7
343.634	1	-9
343.805	1	4
343.976	1	6
344.147	1	18
344.318	1	3
344.489	1	-5
344.660	1	-3
344.831	1	17
345.002	1	-1
345.173	1	1
345.344	1	-10
345.515	1	4
345.686	1	4
345.857	1	9
346.028	1	7
346.199	1	-1
346.370	1	1
346.541	1	-6
346.712	1	-4
346.883	1	-14
347.054	1	10
347.225	1	-4
347.396	1	-4
347.567	1	-7
347.738	1	3
347.909	1	2
348.080	1	0
348.251	1	-7
348.422	1	0
348.593	1	-4
348.764	1	-2
348.935	1	0
349.106	1	-12
349.277	1	3
349.448	1	-7
349.619	1	5
349.790	1	5
349.961	1	5
350.132	1	-10
350.303	1	4
350.474	1	5
350.645	1	-1
350.816	1	0
350.987	1	11
351.157	1	-2
351.328	1	0
351.499	1	2
351.670	1	2
351.841	1	9
352.012	1	1
352.183	1	8
352.354	1	1
352.525	1	13
352.696	1	-2
352.867	1	5
353.038	1	-5
353.209	1	-2
353.380	1	-1
353.551	1	2
353.722	1	4
353.893	1	-1
354.064	1	5
354.235	1	-1
354.406	1	-10
354.576	1	-4
354.747	1	13
354.918	1	5
355.089	1	4
355.260	1	0
355.431	1	-8
355.602	1	8
355.773	1	-6
355.944	1	7
356.115	1	7
356.286	1	8
356.457	1	6
356.628	1	-4
356.799	1	1
356.970	1	3
357.141	1	3
357.311	1	10
357.482	1	-5
357.653	1	-2
357.824	1	6
357.995	1	9
358.166	1	2
358.337	1	1
358.508	1	16
358.679	1	7
358.850	1	-5
359.021	1	2
359.192	1	7
359.363	1	-3
359.533	1	-4
359.704	1	1
359.875	1	2
360.046	1	-6
360.217	1	5
360.388	1	8
360.559	1	9
360.730	1	-2
360.901	1	7
361.072	1	-4
361.243	1	3
361.414	1	3
361.584	1	5
361.755	1	1
361.926	1	6
362.097	1	-5
362.268	1	12
362.439	1	-4
362.610	1	6
362.781	1	-3
362.952	1	9
363.123	1	-10
363.293	1	2
363.464	1	0
363.635	1	11
363.806	1	7
363.977	1	2
364.148	1	5
364.319	1	-5
364.490	1	2
364.661	1	-4
364.832	1	-7
365.002	1	2
365.173	1	3
365.344	1	4
365.515	1	-1
365.686	1	5
365.857	1	2
366.028	1	11
366.199	1	3
366.370	1	4
366.540	1	-2
366.711	1	5
366.882	1	0
367.053	1	6
367.224	1	4
367.395	1	3
367.566	1	10
367.737	1	4
367.908	1	7
368.078	1	-2
368.249	1	4
368.420	1	-2
368.591	1	9
368.762	1	1
368.933	1	8
369.104	1	7
369.274	1	4
369.445	1	11
369.616	1	2
369.787	1	-1
369.958	1	1
370.129	1	2
370.300	1	6
370.471	1	3
370.641	1	1
370.812	1	12
370.983	1	2
371.154	1	3
371.325	1	6
371.496	1	-4
371.667	1	7
371.837	1	8
372.008	1	0
372.179	1	5
372.350	1	6
372.521	1	8
372.692	1	8
372.863	1	-1
373.033	1	-2
373.204	1	0
373.375	1	-1
373.546	1	0
373.717	1	1
373.888	1	0
374.059	1	5
374.229	1	19
374.400	1	-2
374.571	1	-5
374.742	1	0
374.913	1	-3
375.084	1	-2
375.254	1	-3
375.425	1	3
375.596	1	-5
375.767	1	-2
375.938	1	-10
376.109	1	4
376.279	1	12
376.450	1	-2
376.621	1	9
376.792	1	1
376.963	1	0
377.134	1	0
377.304	1	10
377.475	1	1
377.646	1	-5
377.817	1	-2
377.988	1	11
378.159	1	2
378.329	1	6
378.500	1	6
378.671	1	2
378.842	1	5
379.013	1	6
379.184	1	4
379.354	1	14
379.525	1	-1
379.696	1	2
379.867	1	4
380.038	1	2
380.209	1	15
380.379	1	9
380.550	1	-7
380.721	1	6
380.892	1	3
381.063	1	-3
381.233	1	7
381.404	1	7
381.575	1	5
381.746	1	5
381.917	1	2
382.087	1	3
382.258	1	13
382.429	1	11
382.600	1	11
382.771	1	-4
382.941	1	3
383.112	1	1
383.283	1	1
383.454	1	1
383.625	1	3
383.795	1	10
383.966	1	13
384.137	1	5
384.308	1	2
384.479	1	-1
384.649	1	-8
384.820	1	2
384.991	1	7
385.162	1	11
385.333	1	3
385.503	1	0
385.674	1	0
385.845	1	9
386.016	1	16
386.187	1	-5
386.357	1	12
386.528	1	-5
386.699	1	-2
386.870	1	3
387.041	1	9
387.211	1	-3
387.382	1	9
387.553	1	4
387.724	1	6
387.894	1	-7
388.065	1	7
388.236	1	0
388.407	1	-4
388.578	1	2
388.748	1	5
388.919	1	4
389.090	1	14
389.261	1	6
389.431	1	-5
389.602	1	-4
389.773	1	2
389.944	1	9
390.114	1	3
390.285	1	11
390.456	1	3
390.627	1	-2
390.798	1	-2
390.968	1	0
391.139	1	5
391.310	1	8
391.481	1	6
391.651	1	8
391.822	1	17
391.993	1	0
392.164	1	3
392.334	1	5
392.505	1	12
392.676	1	-3
392.847	1	0
393.017	1	7
393.188	1	11
393.359	1	6
393.530	1	16
393.700	1	3
393.871	1	6
394.042	1	-2
394.213	1	5
394.383	1	6
394.554	1	10
394.725	1	-3
394.896	1	6
395.066	1	1
395.237	1	1
395.408	1	3
395.579	1	10
395.749	1	13
395.920	1	10
396.091	1	3
396.262	1	0
396.432	1	-3
396.603	1	3
396.774	1	0
396.945	1	4
397.115	1	8
397.286	1	8
397.457	1	7
397.627	1	9
397.798	1	-2
397.969	1	13
398.140	1	1
398.310	1	9
398.481	1	19
398.652	1	-1
398.823	1	5
398.993	1	6
399.164	1	6
399.335	1	-2
399.505	1	2
399.676	1	7
399.847	1	6
400.018	1	1
400.188	1	7
400.359	1	3
400.530	1	10
400.700	1	3
400.871	1	9
401.042	1	5
401.213	1	9
401.383	1	1
401.554	1	9
401.725	1	10
401.895	1	-4
402.066	1	1
402.237	1	0
402.408	1	2
402.578	1	10
402.749	1	9
402.920	1	10
403.090	1	12
403.261	1	-4
403.432	1	9
403.603	1	5
403.773	1	17
403.944	1	9
404.115	1	4
404.285	1	8
404.456	1	16
404.627	1	7
404.797	1	3
404.968	1	6
405.139	1	12
405.310	1	0
405.480	1	-2
405.651	1	-1
405.822	1	9
405.992	1	12
406.163	1	0
406.334	1	8
406.504	1	10
406.675	1	-1
406.846	1	15
407.016	1	11
407.187	1	7
407.358	1	-4
407.528	1	1
407.699	1	7
407.870	1	12
408.041	1	1
408.211	1	7
408.382	1	10
408.553	1	9
408.723	1	1
408.894	1	0
409.065	1	5
409.235	1	5
409.406	1	5
409.577	1	7
409.747	1	6
409.918	1	13
410.089	1	18
410.259	1	0
410.430	1	3
410.601	1	9
410.771	1	8
410.942	1	-4
411.113	1	4
411.283	1	9
411.454	1	21
411.625	1	19
411.795	1	19
411.966	1	7
412.137	1	9
412.307	1	9
412.478	1	13
412.649	1	1
412.819	1	20
412.990	1	18
413.161	1	7
413.331	1	6
413.502	1	-1
413.672	1	6
413.843	1	6
414.014	1	8
414.184	1	18
414.355	1	12
414.526	1	9
414.696	1	-5
414.867	1	-2
415.038	1	2
415.208	1	-2
415.379	1	9
415.550	1	6
415.720	1	-1
415.891	1	19
416.062	1	6
416.232	1	8
416.403	1	11
416.573	1	0
416.744	1	14
416.915	1	-3
417.085	1	11
417.256	1	7
417.427	1	-1
417.597	1	5
417.768	1	11
417.939	1	-8
418.109	1	3
418.280	1	8
418.450	1	15
418.621	1	8
418.792	1	10
418.962	1	17
419.133	1	11
419.304	1	3
419.474	1	9
419.645	1	12
419.815	1	2
419.986	1	16
420.157	1	2
420.327	1	2
420.498	1	8
420.669	1	9
420.839	1	5
421.010	1	11
421.180	1	3
421.351	1	4
421.522	1	2
421.692	1	10
421.863	1	5
422.033	1	3
422.204	1	7
422.375	1	4
422.545	1	16
422.716	1	2
422.886	1	4
423.057	1	8
423.228	1	-6
423.398	1	7
423.569	1	-4
423.740	1	3
423.910	1	7
424.081	1	13
424.251	1	9
424.422	1	12
424.593	1	9
424.763	1	11
424.934	1	10
425.104	1	24
425.275	1	0
425.445	1	3
425.616	1	4
425.787	1	0
425.957	1	-2
426.128	1	3
426.298	1	9
426.469	1	6
426.640	1	4
426.810	1	-2
426.981	1	14
427.151	1	-7
427.322	1	5
427.493	1	3
427.663	1	13
427.834	1	6
428.004	1	18
428.175	1	8
428.345	1	2
428.516	1	3
428.687	1	8
428.857	1	5
429.028	1	-4
429.198	1	3
429.369	1	9
429.540	1	8
429.710	1	-1
429.881	1	6
430.051	1	5
430.222	1	5
430.392	1	11
430.563	1	4
430.734	1	14
430.904	1	17
431.075	1	2
431.245	1	-4
431.416	1	7
431.586	1	2
431.757	1	9
431.927	1	11
432.098	1	15
432.269	1	5
432.439	1	9
432.610	1	8
432.780	1	11
432.951	1	-3
433.121	1	-1
433.292	1	9
433.462	1	6
433.633	1	-4
433.804	1	3
433.974	1	9
434.145	1	10
434.315	1	7
434.486	1	-8
434.656	1	12
434.827	1	8
434.997	1	5
435.168	1	-1
435.339	1	15
435.509	1	8
435.680	1	5
435.850	1	8
436.021	1	2
436.191	1	3
436.362	1	2
436.532	1	12
436.703	1	-4
436.873	1	3
437.044	1	4
437.214	1	-4
437.385	1	6
437.556	1	12
437.726	1	3
437.897	1	10
438.067	1	6
438.238	1	11
438.408	1	9
438.579	1	-5
438.749	1	6
438.920	1	16
439.090	1	1
439.261	1	9
439.431	1	-1
439.602	1	1
439.772	1	2
439.943	1	3
440.113	1	0
440.284	1	7
440.455	1	1
440.625	1	13
440.796	1	-3
440.966	1	9
441.137	1	-2
441.307	1	3
441.478	1	-11
441.648	1	-2
441.819	1	3
441.989	1	20
442.160	1	9
442.330	1	7
442.501	1	5
442.671	1	5
442.842	1	6
443.012	1	2
443.183	1	9
443.353	1	7
443.524	1	0
443.694	1	7
443.865	1	13
444.035	1	4
444.206	1	-5
444.376	1	11
444.547	1	-1
444.717	1	12
444.888	1	-8
445.058	1	7
445.229	1	0
445.399	1	2
445.570	1	-2
445.740	1	0
445.911	1	11
446.081	1	0
446.252	1	6
446.422	1	5
446.593	1	0
446.763	1	7
446.934	1	7
447.104	1	5
447.275	1	0
447.445	1	5
447.616	1	2
447.786	1	3
447.957	1	0
448.127	1	-6
448.298	1	7
448.468	1	7
448.639	1	10
448.809	1	-4
448.979	1	16
449.150	1	-6
449.320	1	7
449.491	1	-5
449.661	1	2
449.832	1	-5
450.002	1	4
450.173	1	8
450.343	1	6
450.514	1	3
450.684	1	2
450.855	1	7
451.025	1	-9
451.196	1	0
451.366	1	3
451.537	1	9
451.707	1	7
451.878	1	3
452.048	1	-4
452.218	1	2
452.389	1	13
452.559	1	11
452.730	1	9
452.900	1	-3
453.071	1	10
453.241	1	-2
453.412	1	0
453.582	1	11
453.753	1	14
453.923	1	-3
454.093	1	0
454.264	1	12
454.434	1	14
454.605	1	1
454.775	1	8
454.946	1	-1
455.116	1	1
455.287	1	-8
455.457	1	4
455.628	1	-1
455.798	1	6
455.968	1	4
456.139	1	7
456.309	1	7
456.480	1	3
456.650	1	8
456.821	1	0
456.991	1	6
457.161	1	10
457.332	1	1
457.502	1	0
457.673	1	-5
457.843	1	3
458.014	1	-1
458.184	1	9
458.355	1	20
458.525	1	0
458.695	1	-1
458.866	1	-4
459.036	1	-3
459.207	1	12
459.377	1	-6
459.548	1	2
459.718	1	2
459.888	1	-1
460.059	1	5
460.229	1	-7
460.400	1	-4
460.570	1	0
460.740	1	0
460.911	1	-1
461.081	1	11
461.252	1	10
461.422	1	3
461.593	1	6
461.763	1	9
461.933	1	-1
462.104	1	4
462.274	1	2
462.445	1	-3
462.615	1	12
462.785	1	15
462.956	1	-4
463.126	1	-7
463.297	1	5
463.467	1	6
463.638	1	13
463.808	1	-1
463.978	1	-12
464.149	1	-1
464.319	1	5
464.490	1	1
464.660	1	9
464.830	1	1
465.001	1	1
465.171	1	-3
465.342	1	0
465.512	1	2
465.682	1	-8
465.853	1	1
466.023	1	11
466.194	1	7
466.364	1	9
466.534	1	-1
466.705	1	16
466.875	1	-11
467.045	1	-6
467.216	1	9
467.386	1	0
467.557	1	12
467.727	1	0
467.897	1	1
468.068	1	1
468.238	1	-4
468.409	1	9
468.579	1	4
468.749	1	5
468.920	1	-11
469.090	1	5
469.260	1	2
469.431	1	-7
469.601	1	6
469.772	1	11
469.942	1	12
470.112	1	-5
470.283	1	11
470.453	1	7
470.623	1	8
470.794	1	1
470.964	1	-9
471.135	1	13
471.305	1	9
471.475	1	-1
471.646	1	2
471.816	1	8
471.986	1	-3
472.157	1	10
472.327	1	1
472.497	1	4
472.668	1	3
472.838	1	10
473.009	1	-1
473.179	1	8
473.349	1	-6
473.520	1	19
473.690	1	2
473.860	1	-6
474.031	1	-9
474.201	1	1
474.371	1	6
474.542	1	-1
474.712	1	1
474.882	1	0
475.053	1	9
475.223	1	3
475.394	1	-3
475.564	1	-5
475.734	1	0
475.905	1	0
476.075	1	3
476.245	1	-4
476.416	1	8
476.586	1	-2
476.756	1	7
476.927	1	0
477.097	1	3
477.267	1	-7
477.438	1	16
477.608	1	17
477.778	1	-4
477.949	1	-1
478.119	1	4
478.289	1	-2
478.460	1	-2
478.630	1	0
478.800	1	-2
478.971	1	-7
479.141	1	-1
479.311	1	3
479.482	1	3
479.652	1	2
479.822	1	-4
479.993	1	-6
480.163	1	-1
480.333	1	4
480.504	1	4
480.674	1	7
480.844	1	-5
481.015	1	4
481.185	1	6
481.355	1	-2
481.525	1	-9
481.696	1	5
481.866	1	1
482.036	1	5
482.207	1	6
482.377	1	-1
482.547	1	6
482.718	1	-2
482.888	1	3
483.058	1	7
483.229	1	9
483.399	1	6
483.569	1	-16
483.740	1	7
483.910	1	-3
484.080	1	-8
484.250	1	-3
484.421	1	-2
484.591	1	3
484.761	1	-5
484.932	1	-5
485.102	1	4
485.272	1	-1
485.443	1	-2
485.613	1	-5
485.783	1	0
485.953	1	3
486.124	1	-2
486.294	1	11
486.464	1	10
486.635	1	6
486.805	1	-5
486.975	1	-8
487.146	1	8
487.316	1	10
487.486	1	12
487.656	1	8
487.827	1	5
487.997	1	1
488.167	1	9
488.338	1	-6
488.508	1	4
488.678	1	2
488.848	1	6
489.019	1	6
489.189	1	9
489.359	1	-2
489.529	1	6
489.700	1	2
489.870	1	6
490.040	1	-6
490.211	1	-1
490.381	1	7
490.551	1	0
490.721	1	4
490.892	1	-7
491.062	1	-9
491.232	1	8
491.402	1	-2
491.573	1	2
491.743	1	-1
491.913	1	-5
492.084	1	0
492.254	1	1
492.424	1	1
492.594	1	2
492.765	1	4
492.935	1	4
493.105	1	-7
493.275	1	2
493.446	1	-10
493.616	1	-5
493.786	1	10
493.956	1	-3
494.127	1	-5
494.297	1	-11
494.467	1	-7
494.637	1	3
494.808	1	4
494.978	1	0
495.148	1	-1
495.318	1	7
495.489	1	-3
495.659	1	5
495.829	1	-8
495.999	1	17
496.170	1	0
496.340	1	-2
496.510	1	2
496.680	1	-2
496.851	1	8
497.021	1	4
497.191	1	4
497.361	1	-9
497.532	1	1
497.702	1	4
497.872	1	3
498.042	1	-6
498.213	1	-9
498.383	1	-1
498.553	1	-3
498.723	1	-4
498.894	1	9
499.064	1	-3
499.234	1	4
499.404	1	6
499.574	1	1
499.745	1	-6
499.915	1	-5
500.085	1	2
500.255	1	-11
500.426	1	-4
500.596	1	-11
500.766	1	-1
500.936	1	-7
501.106	1	-9
501.277	1	-5
501.447	1	7
501.617	1	-2
501.787	1	0
501.958	1	3
502.128	1	7
502.298	1	-3
502.468	1	4
502.638	1	1
502.809	1	-12
502.979	1	6
503.149	1	-2
503.319	1	5
503.489	1	-6
503.660	1	-12
503.830	1	4
504.000	1	2
504.170	1	1
504.340	1	-8
504.511	1	-2
504.681	1	0
504.851	1	3
505.021	1	1
505.192	1	-3
505.362	1	-2
505.532	1	-6
505.702	1	4
505.872	1	2
506.043	1	5
506.213	1	7
506.383	1	-5
506.553	1	-7
506.723	1	-4
506.893	1	6
507.064	1	5
507.234	1	-3
507.404	1	-10
507.574	1	6
507.744	1	-6
507.915	1	-5
508.085	1	-8
508.255	1	5
508.425	1	-5
508.595	1	-6
508.766	1	-15
508.936	1	11
509.106	1	-4
509.276	1	4
509.446	1	0
509.616	1	-4
509.787	1	4
509.957	1	-8
510.127	1	-11
510.297	1	-12
510.467	1	8
510.638	1	0
510.808	1	11
510.978	1	-7
511.148	1	-3
511.318	1	-3
511.488	1	7
511.659	1	2
511.829	1	2
511.999	1	-4
512.169	1	-1
512.339	1	6
512.509	1	-13
512.680	1	2
512.850	1	-3
513.020	1	8
513.190	1	-8
513.360	1	6
513.530	1	-7
513.700	1	-1
513.871	1	-3
514.041	1	5
514.211	1	-4
514.381	1	5
514.551	1	-7
514.721	1	2
514.892	1	-10
515.062	1	5
515.232	1	-6
515.402	1	-5
515.572	1	6
515.742	1	6
515.912	1	-5
516.083	1	-1
516.253	1	11
516.423	1	-1
516.593	1	2
516.763	1	-2
516.933	1	-4
517.104	1	-2
517.274	1	-5
517.444	1	-3
517.614	1	-5
517.784	1	-6
517.954	1	-2
518.124	1	1
518.294	1	-1
518.465	1	0
518.635	1	9
518.805	1	-4
518.975	1	-4
519.145	1	-4
519.315	1	5
519.485	1	-6
519.656	1	-12
519.826	1	-9
519.996	1	0
520.166	1	-1
520.336	1	0
520.506	1	1
520.676	1	2
520.846	1	0
521.017	1	-6
521.187	1	-3
521.357	1	-7
521.527	1	-3
521.697	1	2
521.867	1	1
522.037	1	3
522.207	1	0
522.377	1	3
522.548	1	-11
522.718	1	3
522.888	1	-5
523.058	1	3
523.228	1	-1
523.398	1	0
523.568	1	-7
523.738	1	-1
523.909	1	-2
524.079	1	6
524.249	1	-4
524.419	1	-5
524.589	1	0
524.759	1	1
524.929	1	-5
525.099	1	-5
525.269	1	-4
525.439	1	-7
525.610	1	3
525.780	1	-3
525.950	1	10
526.120	1	-13
526.290	1	-6
526.460	1	-6
526.630	1	5
526.800	1	-9
526.970	1	6
527.140	1	-9
527.311	1	-5
527.481	1	3
527.651	1	2
527.821	1	-5
527.991	1	-4
528.161	1	14
528.331	1	-8
528.501	1	6
528.671	1	4
528.841	1	4
529.011	1	-5
529.181	1	-7
529.352	1	1
529.522	1	4
529.692	1	4
529.862	1	-1
530.032	1	-1
530.202	1	-10
530.372	1	-1
530.542	1	-1
530.712	1	5
530.882	1	-6
531.052	1	5
531.222	1	4
531.392	1	0
531.563	1	4
531.733	1	3
531.903	1	-5
532.073	1	-1
532.243	1	-1
532.413	1	22
532.583	1	9
532.753	1	-9
532.923	1	6
533.093	1	-13
533.263	1	0
533.433	1	-9
533.603	1	-2
533.773	1	-5
533.943	1	-4
534.113	1	-9
534.284	1	0
534.454	1	0
534.624	1	-1
534.794	1	-8
534.964	1	-3
535.134	1	-5
535.304	1	4
535.474	1	9
535.644	1	10
535.814	1	-6
535.984	1	-7
536.154	1	-4
536.324	1	2
536.494	1	7
536.664	1	3
536.834	1	0
537.004	1	3
537.174	1	3
537.344	1	-2
537.514	1	-7
537.685	1	-2
537.855	1	-1
538.025	1	10
538.195	1	-1
538.365	1	-7
538.535	1	-7
538.705	1	-3
538.875	1	-1
539.045	1	3
539.215	1	-8
539.385	1	1
539.555	1	-3
539.725	1	2
539.895	1	4
540.065	1	1
540.235	1	-7
540.405	1	-6
540.575	1	4
540.745	1	0
540.915	1	0
541.085	1	-1
541.255	1	1
541.425	1	-2
541.595	1	4
541.765	1	-7
541.935	1	3
542.105	1	-6
542.275	1	-4
542.445	1	0
542.615	1	2
542.785	1	-6
542.955	1	13
543.125	1	-4
543.295	1	3
543.465	1	3
543.635	1	-12
543.805	1	-1
543.975	1	-1
544.145	1	2
544.315	1	-7
544.485	1	-6
544.655	1	4
544.825	1	-4
544.995	1	-7
545.165	1	-1
545.335	1	0
545.505	1	-3
545.675	1	0
545.845	1	2
546.015	1	-8
546.185	1	-13
546.355	1	3
546.525	1	6
546.695	1	-7
546.865	1	-6
547.035	1	2
547.205	1	16
547.375	1	13
547.545	1	5
547.715	1	-6
547.885	1	-6
548.055	1	-1
548.225	1	1
548.395	1	2
548.565	1	-2
548.735	1	-4
548.905	1	-3
549.075	1	5
549.245	1	5
549.415	1	-3
549.585	1	-7
549.755	1	-1
549.925	1	-9
550.095	1	-7
550.265	1	-4
550.435	1	-2
550.605	1	2
550.775	1	-6
550.945	1	5
551.115	1	8
551.285	1	-3
551.455	1	0
551.625	1	-6
551.795	1	-10
551.965	1	-5
552.135	1	-11
552.305	1	3
552.475	1	0
552.645	1	1
552.815	1	-7
552.985	1	2
553.155	1	-1
553.325	1	3
553.495	1	4
553.665	1	-1
553.835	1	7
554.004	1	4
554.174	1	-3
554.344	1	-2
554.514	1	0
554.684	1	4
554.854	1	-8
555.024	1	5
555.194	1	0
555.364	1	-9
555.534	1	-17
555.704	1	0
555.874	1	0
556.044	1	-1
556.214	1	9
556.384	1	6
556.554	1	4
556.724	1	1
556.894	1	-1
557.064	1	0
557.234	1	-1
557.404	1	-4
557.573	1	4
557.743	1	-6
557.913	1	0
558.083	1	-2
558.253	1	-1
558.423	1	-1
558.593	1	6
558.763	1	-1
558.933	1	-7
559.103	1	-9
559.273	1	7
559.443	1	-6
559.613	1	-3
559.783	1	-10
559.953	1	-11
560.122	1	-1
560.292	1	-7
560.462	1	-3
560.632	1	4
560.802	1	9
560.972	1	-7
561.142	1	7
561.312	1	-5
561.482	1	3
561.652	1	-5
561.822	1	-3
561.992	1	6
562.162	1	-8
562.331	1	-7
562.501	1	-1
562.671	1	-3
562.841	1	-12
563.011	1	-3
563.181	1	-2
563.351	1	-22
563.521	1	-2
563.691	1	3
563.861	1	2
564.031	1	-5
564.201	1	4
564.370	1	1
564.540	1	-5
564.710	1	0
564.880	1	-4
565.050	1	1
565.220	1	4
565.390	1	-10
565.560	1	9
565.730	1	5
565.900	1	1
566.069	1	12
566.239	1	6
566.409	1	5
566.579	1	1
566.749	1	-8
566.919	1	-14
567.089	1	-7
567.259	1	-5
567.429	1	-8
567.599	1	8
567.768	1	-6
567.938	1	5
568.108	1	-1
568.278	1	0
568.448	1	-7
568.618	1	-1
568.788	1	4
568.958	1	-8
569.128	1	-4
569.297	1	1
569.467	1	2
569.637	1	4
569.807	1	7
569.977	1	-9
570.147	1	-7
570.317	1	3
570.487	1	-5
570.656	1	-3
570.826	1	-5
570.996	1	10
571.166	1	-4
571.336	1	-2
571.506	1	-4
571.676	1	-2
571.846	1	-1
572.015	1	-3
572.185	1	7
572.355	1	-6
572.525	1	-4
572.695	1	-13
572.865	1	1
573.035	1	4
573.205	1	1
573.374	1	-4
573.544	1	-8
573.714	1	-8
573.884	1	-10
574.054	1	-4
574.224	1	-5
574.394	1	-2
574.563	1	-3
574.733	1	0
574.903	1	-5
575.073	1	-9
575.243	1	-5
575.413	1	-3
575.583	1	-10
575.752	1	-9
575.922	1	7
576.092	1	-3
576.262	1	5
576.432	1	-4
576.602	1	5
576.772	1	9
576.941	1	-5
577.111	1	-10
577.281	1	3
577.451	1	1
577.621	1	-4
577.791	1	0
577.960	1	-3
578.130	1	3
578.300	1	-7
578.470	1	-8
578.640	1	-3
578.810	1	-11
578.979	1	-4
579.149	1	-11
579.319	1	-3
579.489	1	1
579.659	1	-8
579.829	1	-7
579.998	1	-8
580.168	1	-5
580.338	1	7
580.508	1	-5
580.678	1	0
580.848	1	0
581.017	1	-3
581.187	1	-2
581.357	1	-5
581.527	1	5
581.697	1	-7
581.867	1	-10
582.036	1	-10
582.206	1	4
582.376	1	-4
582.546	1	-2
582.716	1	-5
582.885	1	0
583.055	1	-7
583.225	1	2
583.395	1	-1
583.565	1	9
583.735	1	2
583.904	1	-3
584.074	1	0
584.244	1	0
584.414	1	-2
584.584	1	-2
584.753	1	2
584.923	1	-2
585.093	1	10
585.263	1	5
585.433	1	-4
585.602	1	-1
585.772	1	-3
585.942	1	-5
586.112	1	0
586.282	1	3
586.451	1	6
586.621	1	0
586.791	1	-12
586.961	1	-11
587.131	1	-6
587.300	1	3
587.470	1	7
587.640	1	-9
587.810	1	-9
587.980	1	2
588.149	1	1
588.319	1	1
588.489	1	7
588.659	1	-13
588.829	1	-12
588.998	1	-6
589.168	1	3
589.338	1	-8
589.508	1	0
589.677	1	-1
589.847	1	-2
590.017	1	-9
590.187	1	-5
590.357	1	-7
590.526	1	-6
590.696	1	5
590.866	1	-8
591.036	1	-1
591.205	1	1
591.375	1	3
591.545	1	-7
591.715	1	-8
591.885	1	8
592.054	1	1
592.224	1	-5
592.394	1	-17
592.564	1	-2
592.733	1	-8
592.903	1	-4
593.073	1	-7
593.243	1	4
593.412	1	-5
593.582	1	3
593.752	1	-6
593.922	1	1
594.091	1	8
594.261	1	-16
594.431	1	5
594.601	1	-4
594.771	1	6
594.940	1	-9
595.110	1	-3
595.280	1	-1
595.450	1	6
595.619	1	1
595.789	1	-4
595.959	1	-8
596.129	1	-1
596.298	1	8
596.468	1	-6
596.638	1	3
596.808	1	-6
596.977	1	-6
597.147	1	-8
597.317	1	-1
597.487	1	-2
597.656	1	9
597.826	1	2
597.996	1	-9
598.166	1	-2
598.335	1	-10
598.505	1	1
598.675	1	0
598.844	1	10
599.014	1	-6
599.184	1	6
599.354	1	4
599.523	1	-6
599.693	1	-3
599.863	1	-1
600.033	1	1
600.202	1	-5
600.372	1	-10
600.542	1	-6
600.712	1	-7
600.881	1	-1
601.051	1	7
601.221	1	2
601.390	1	5
601.560	1	4
601.730	1	-3
601.900	1	1
602.069	1	-8
602.239	1	-2
602.409	1	-2
602.578	1	16
602.748	1	8
602.918	1	-4
603.088	1	8
603.257	1	5
603.427	1	-1
603.597	1	-12
603.767	1	0
603.936	1	10
604.106	1	-8
604.276	1	7
604.445	1	-6
604.615	1	2
604.785	1	11
604.954	1	-5
605.124	1	-5
605.294	1	3
605.464	1	-5
605.633	1	-1
605.803	1	-6
605.973	1	-1
606.142	1	5
606.312	1	3
606.482	1	-11
606.652	1	1
606.821	1	-9
606.991	1	-8
607.161	1	-4
607.330	1	-1
607.500	1	0
607.670	1	6
607.839	1	-6
608.009	1	-4
608.179	1	-4
608.348	1	-2
608.518	1	-2
608.688	1	-3
608.858	1	-7
609.027	1	-4
609.197	1	-1
609.367	1	-9
609.536	1	-1
609.706	1	8
609.876	1	5
610.045	1	0
610.215	1	8
610.385	1	-3
610.554	1	-4
610.724	1	-8
610.894	1	4
611.063	1	4
611.233	1	3
611.403	1	2
611.572	1	-6
611.742	1	-11
611.912	1	-4
612.081	1	7
612.251	1	-5
612.421	1	-2
612.590	1	6
612.760	1	-4
612.930	1	-1
613.099	1	3
613.269	1	-2
613.439	1	-10
613.608	1	5
613.778	1	1
613.948	1	9
614.117	1	-6
614.287	1	-4
614.457	1	4
614.626	1	1
614.796	1	3
614.966	1	-6
615.135	1	0
615.305	1	-11
615.475	1	5
615.644	1	6
615.814	1	5
615.984	1	-3
616.153	1	5
616.323	1	-5
616.493	1	-2
616.662	1	-3
616.832	1	-6
617.002	1	-4
617.171	1	2
617.341	1	10
617.511	1	-8
617.680	1	0
617.850	1	0
618.019	1	2
618.189	1	7
618.359	1	-2
618.528	1	-1
618.698	1	5
618.868	1	-3
619.037	1	-6
619.207	1	-9
619.377	1	3
619.546	1	8
619.716	1	0
619.885	1	-3
620.055	1	-4
620.225	1	3
620.394	1	1
620.564	1	2
620.734	1	-6
620.903	1	-13
621.073	1	4
621.242	1	2
621.412	1	-4
621.582	1	7
621.751	1	-4
621.921	1	-1
622.091	1	-3
622.260	1	2
622.430	1	1
622.599	1	1
622.769	1	-2
622.939	1	-7
623.108	1	1
623.278	1	-6
623.448	1	-3
623.617	1	-2
623.787	1	6
623.956	1	2
624.126	1	6
624.296	1	4
624.465	1	-5
624.635	1	-2
624.804	1	-2
624.974	1	-8
625.144	1	-5
625.313	1	12
625.483	1	-1
625.652	1	-3
625.822	1	5
625.992	1	-2
626.161	1	4
626.331	1	-7
626.501	1	-3
626.670	1	-5
626.840	1	-8
627.009	1	-2
627.179	1	2
627.348	1	-9
627.518	1	7
627.688	1	-8
627.857	1	2
628.027	1	4
628.196	1	12
628.366	1	-14
628.536	1	-2
628.705	1	-4
628.875	1	-3
629.044	1	-4
629.214	1	10
629.384	1	9
629.553	1	-1
629.723	1	-3
629.892	1	1
630.062	1	1
630.232	1	8
630.401	1	2
630.571	1	-10
630.740	1	-11
630.910	1	8
631.079	1	0
631.249	1	3
631.419	1	5
631.588	1	-2
631.758	1	-6
631.927	1	8
632.097	1	-6
632.266	1	11
632.436	1	2
632.606	1	0
632.775	1	2
632.945	1	-11
633.114	1	-6
633.284	1	-3
633.453	1	-3
633.623	1	9
633.793	1	0
633.962	1	0
634.132	1	5
634.301	1	1
634.471	1	10
634.640	1	-12
634.810	1	6
634.979	1	-4
635.149	1	-3
635.319	1	-6
635.488	1	0
635.658	1	1
635.827	1	-6
635.997	1	1
636.166	1	-3
636.336	1	-7
636.505	1	0
636.675	1	-6
636.845	1	-3
637.014	1	-7
637.184	1	3
637.353	1	7
637.523	1	-6
637.692	1	-7
637.862	1	0
638.031	1	-9
638.201	1	3
638.370	1	-7
638.540	1	-1
638.710	1	-1
638.879	1	-7
639.049	1	-7
639.218	1	0
639.388	1	5
639.557	1	10
639.727	1	2
639.896	1	-3
640.066	1	-10
640.235	1	-3
640.405	1	9
640.574	1	8
640.744	1	-10
640.914	1	-1
641.083	1	6
641.253	1	0
641.422	1	-5
641.592	1	1
641.761	1	-4
641.931	1	9
642.100	1	5
642.270	1	-4
642.439	1	1
642.609	1	3
642.778	1	-2
642.948	1	9
643.117	1	7
643.287	1	2
643.456	1	-2
643.626	1	-6
643.795	1	1
643.965	1	-1
644.134	1	-2
644.304	1	-7
644.473	1	-11
644.643	1	-9
644.812	1	-16
644.982	1	9
645.151	1	-8
645.321	1	-2
645.490	1	9
645.660	1	-14
645.829	1	-1
645.999	1	-6
646.168	1	23
646.338	1	-17
646.507	1	-15
646.677	1	-5
646.846	1	-3
647.016	1	6
647.185	1	9
647.355	1	-1
647.524	1	-9
647.694	1	-8
647.863	1	-13
648.033	1	7
648.202	1	-1
648.372	1	-13
648.541	1	3
648.711	1	-5
648.880	1	3
649.050	1	-3
649.219	1	1
649.389	1	-11
649.558	1	7
649.728	1	0
649.897	1	6
650.067	1	5
650.236	1	-8
650.406	1	-7
650.575	1	2
650.745	1	4
650.914	1	-2
651.084	1	3
651.253	1	-7
651.423	1	-13
651.592	1	-7
651.762	1	0
651.931	1	2
652.101	1	-9
652.270	1	-2
652.440	1	-1
652.609	1	2
652.778	1	7
652.948	1	-2
653.117	1	-4
653.287	1	-11
653.456	1	-5
653.626	1	-5
653.795	1	-6
653.965	1	-7
654.134	1	-5
654.304	1	2
654.473	1	7
654.643	1	8
654.812	1	4
654.982	1	7
655.151	1	3
655.320	1	-5
655.490	1	-8
655.659	1	-3
655.829	1	6
655.998	1	2
656.168	1	-3
656.337	1	3
656.507	1	-5
656.676	1	-8
656.846	1	-3
657.015	1	-1
657.184	1	-9
657.354	1	-5
657.523	1	3
657.693	1	6
657.862	1	-4
658.032	1	-2
658.201	1	-3
658.371	1	3
658.540	1	-12
658.709	1	2
658.879	1	5
659.048	1	1
659.218	1	-6
659.387	1	-1
659.557	1	-4
659.726	1	-2
659.895	1	-2
660.065	1	-2
660.234	1	-3
660.404	1	-7
660.573	1	-9
660.743	1	1
660.912	1	2
661.081	1	-8
661.251	1	0
661.420	1	4
661.590	1	1
661.759	1	1
661.929	1	1
662.098	1	-9
662.267	1	-6
662.437	1	-2
662.606	1	-12
662.776	1	2
662.945	1	8
663.115	1	12
663.284	1	0
663.453	1	-12
663.623	1	-3
663.792	1	4
663.962	1	5
664.131	1	-6
664.300	1	-5
664.470	1	-3
664.639	1	6
664.809	1	2
664.978	1	8
665.148	1	0
665.317	1	5
665.486	1	5
665.656	1	-5
665.825	1	6
665.995	1	-9
666.164	1	-7
666.333	1	-6
666.503	1	-7
666.672	1	1
666.842	1	1
667.011	1	-5
667.180	1	0
667.350	1	-5
667.519	1	-2
667.689	1	-2
667.858	1	6
668.027	1	-4
668.197	1	-8
668.366	1	0
668.536	1	-7
668.705	1	-2
668.874	1	7
669.044	1	3
669.213	1	6
669.382	1	5
669.552	1	10
669.721	1	-4
669.891	1	-10
670.060	1	6
670.229	1	3
670.399	1	4
670.568	1	0
670.738	1	-8
670.907	1	2
671.076	1	-1
671.246	1	5
671.415	1	13
671.584	1	-1
671.754	1	-13
671.923	1	-5
672.093	1	7
672.262	1	-9
672.431	1	-3
672.601	1	2
672.770	1	-4
672.939	1	-1
673.109	1	-6
673.278	1	8
673.448	1	-2
673.617	1	1
673.786	1	-13
