325.333	1	10
325.504	1	-20
325.675	1	7
325.846	1	4
326.017	1	6
326.188	1	-2
326.359	1	7
326.531	1	-3
326.702	1	2
326.873	1	-7
327.044	1	8
327.215	1	1
327.386	1	2
327.557	1	-19
327.728	1	7
327.899	1	-3
328.070	1	11
328.241	1	-2
328.412	1	3
328.583	1	-7
328.754	1	6
328.926	1	4
329.097	1	-11
329.268	1	4
329.439	1	1
329.610	1	-2
329.781	1	-2
329.952	1	2
330.123	1	1
330.294	1	-1
330.465	1	-11
330.636	1	-1
330.807	1	3
330.978	1	-4
331.149	1	3
331.320	1	-3
331.492	1	-3
331.663	1	-3
331.834	1	8
332.005	1	7
332.176	1	-3
332.347	1	4
332.518	1	7
332.689	1	1
332.860	1	-8
333.031	1	8
333.202	1	4
333.373	1	9
333.544	1	4
333.715	1	3
333.886	1	-8
334.057	1	-3
334.228	1	-1
334.399	1	7
334.570	1	4
334.741	1	0
334.912	1	4
335.084	1	5
335.255	1	4
335.426	1	3
335.597	1	-4
335.768	1	3
335.939	1	9
336.110	1	2
336.281	1	-1
336.452	1	10
336.623	1	-4
336.794	1	-4
336.965	1	-6
337.136	1	5
337.307	1	0
337.478	1	-5
337.649	1	2
337.820	1	-4
337.991	1	4
338.162	1	9
338.333	1	2
338.504	1	12
338.675	1	5
338.846	1	-15
339.017	1	7
339.188	1	-7
339.359	1	10
339.530	1	-3
339.701	1	2
339.872	1	9
340.043	1	-5
340.214	1	14
340.385	1	-12
340.556	1	10
340.727	1	6
340.898	1	3
341.069	1	-6
341.240	1	9
341.411	1	-3
341.582	1	-4
341.753	1	5
341.924	1	13
342.095	1	0
342.266	1	6
342.437	1	1
342.608	1	5
342.779	1	2
342.950	1	-7
343.121	1	-2
343.292	1	1
343.463	1	15
343.634	1	3
343.805	1	8
343.976	1	12
344.147	1	12
344.318	1	-6
344.489	1	-2
344.660	1	0
344.831	1	10
345.002	1	7
345.173	1	-2
345.344	1	-3
345.515	1	0
345.686	1	5
345.857	1	6
346.028	1	3
346.199	1	3
346.370	1	5
346.541	1	-2
346.712	1	-1
346.883	1	-5
347.054	1	3
347.225	1	8
347.396	1	8
347.567	1	0
347.738	1	12
347.909	1	3
348.080	1	6
348.251	1	0
348.422	1	8
348.593	1	9
348.764	1	4
348.935	1	-3
349.106	1	-3
349.277	1	3
349.448	1	4
349.619	1	-8
349.790	1	7
349.961	1	-5
350.132	1	16
350.303	1	1
350.474	1	-1
350.645	1	14
350.816	1	8
350.987	1	14
351.157	1	-10
351.328	1	1
351.499	1	1
351.670	1	5
351.841	1	6
352.012	1	4
352.183	1	2
352.354	1	-1
352.525	1	0
352.696	1	2
352.867	1	10
353.038	1	4
353.209	1	-2
353.380	1	6
353.551	1	9
353.722	1	11
353.893	1	5
354.064	1	4
354.235	1	3
354.406	1	-8
354.576	1	1
354.747	1	10
354.918	1	5
355.089	1	6
355.260	1	5
355.431	1	-6
355.602	1	6
355.773	1	-4
355.944	1	8
356.115	1	10
356.286	1	8
356.457	1	2
356.628	1	4
356.799	1	11
356.970	1	9
357.141	1	3
357.311	1	21
357.482	1	6
357.653	1	6
357.824	1	10
357.995	1	7
358.166	1	-7
358.337	1	0
358.508	1	13
358.679	1	1
358.850	1	10
359.021	1	4
359.192	1	13
359.363	1	5
359.533	1	-3
359.704	1	11
359.875	1	-4
360.046	1	1
360.217	1	8
360.388	1	8
360.559	1	8
360.730	1	8
360.901	1	6
361.072	1	17
361.243	1	6
361.414	1	11
361.584	1	-2
361.755	1	0
361.926	1	2
362.097	1	5
362.268	1	12
362.439	1	4
362.610	1	14
362.781	1	-1
362.952	1	15
363.123	1	2
363.293	1	11
363.464	1	8
363.635	1	14
363.806	1	3
363.977	1	7
364.148	1	7
364.319	1	-2
364.490	1	7
364.661	1	18
364.832	1	1
365.002	1	12
365.173	1	6
365.344	1	12
365.515	1	8
365.686	1	11
365.857	1	12
366.028	1	8
366.199	1	12
366.370	1	0
366.540	1	10
366.711	1	13
366.882	1	-4
367.053	1	4
367.224	1	4
367.395	1	18
367.566	1	9
367.737	1	-1
367.908	1	3
368.078	1	-1
368.249	1	12
368.420	1	3
368.591	1	10
368.762	1	11
368.933	1	11
369.104	1	5
369.274	1	13
369.445	1	10
369.616	1	3
369.787	1	1
369.958	1	6
370.129	1	1
370.300	1	-7
370.471	1	7
370.641	1	0
370.812	1	11
370.983	1	3
371.154	1	5
371.325	1	1
371.496	1	6
371.667	1	9
371.837	1	9
372.008	1	-1
372.179	1	7
372.350	1	6
372.521	1	6
372.692	1	16
372.863	1	10
373.033	1	3
373.204	1	6
373.375	1	3
373.546	1	10
373.717	1	-7
373.888	1	7
374.059	1	6
374.229	1	12
374.400	1	5
374.571	1	12
374.742	1	-4
374.913	1	-3
375.084	1	9
375.254	1	0
375.425	1	-2
375.596	1	12
375.767	1	14
375.938	1	-5
376.109	1	7
376.279	1	2
376.450	1	9
376.621	1	7
376.792	1	13
376.963	1	6
377.134	1	9
377.304	1	11
377.475	1	-2
377.646	1	4
377.817	1	12
377.988	1	11
378.159	1	10
378.329	1	12
378.500	1	15
378.671	1	6
378.842	1	13
379.013	1	14
379.184	1	7
379.354	1	14
379.525	1	7
379.696	1	13
379.867	1	9
380.038	1	6
380.209	1	13
380.379	1	21
380.550	1	9
380.721	1	10
380.892	1	5
381.063	1	14
381.233	1	3
381.404	1	-4
381.575	1	2
381.746	1	13
381.917	1	8
382.087	1	15
382.258	1	13
382.429	1	11
382.600	1	4
382.771	1	2
382.941	1	8
383.112	1	9
383.283	1	6
383.454	1	6
383.625	1	8
383.795	1	6
383.966	1	12
384.137	1	12
384.308	1	13
384.479	1	10
384.649	1	5
384.820	1	7
384.991	1	5
385.162	1	11
385.333	1	11
385.503	1	4
385.674	1	1
385.845	1	9
386.016	1	15
386.187	1	2
386.357	1	15
386.528	1	10
386.699	1	7
386.870	1	8
387.041	1	19
387.211	1	13
387.382	1	12
387.553	1	15
387.724	1	6
387.894	1	2
388.065	1	3
388.236	1	10
388.407	1	11
388.578	1	14
388.748	1	11
388.919	1	8
389.090	1	24
389.261	1	9
389.431	1	-2
389.602	1	9
389.773	1	13
389.944	1	19
390.114	1	9
390.285	1	12
390.456	1	10
390.627	1	1
390.798	1	6
390.968	1	20
391.139	1	10
391.310	1	11
391.481	1	3
391.651	1	17
391.822	1	11
391.993	1	-2
392.164	1	13
392.334	1	1
392.505	1	15
392.676	1	-3
392.847	1	-2
393.017	1	14
393.188	1	10
393.359	1	20
393.530	1	13
393.700	1	11
393.871	1	24
394.042	1	2
394.213	1	10
394.383	1	14
394.554	1	5
394.725	1	6
394.896	1	13
395.066	1	8
395.237	1	10
395.408	1	5
395.579	1	13
395.749	1	17
395.920	1	21
396.091	1	9
396.262	1	9
396.432	1	7
396.603	1	20
396.774	1	6
396.945	1	17
397.115	1	17
397.286	1	12
397.457	1	9
397.627	1	13
397.798	1	12
397.969	1	12
398.140	1	2
398.310	1	7
398.481	1	12
398.652	1	6
398.823	1	4
398.993	1	10
399.164	1	10
399.335	1	8
399.505	1	1
399.676	1	14
399.847	1	7
400.018	1	5
400.188	1	22
400.359	1	9
400.530	1	5
400.700	1	13
400.871	1	3
401.042	1	8
401.213	1	4
401.383	1	7
401.554	1	13
401.725	1	7
401.895	1	7
402.066	1	25
402.237	1	7
402.408	1	15
402.578	1	10
402.749	1	3
402.920	1	18
403.090	1	11
403.261	1	-2
403.432	1	13
403.603	1	20
403.773	1	23
403.944	1	15
404.115	1	10
404.285	1	16
404.456	1	18
404.627	1	24
404.797	1	1
404.968	1	14
405.139	1	13
405.310	1	13
405.480	1	8
405.651	1	6
405.822	1	12
405.992	1	18
406.163	1	6
406.334	1	5
406.504	1	10
406.675	1	9
406.846	1	14
407.016	1	19
407.187	1	9
407.358	1	3
407.528	1	8
407.699	1	14
407.870	1	11
408.041	1	10
408.211	1	14
408.382	1	13
408.553	1	14
408.723	1	12
408.894	1	1
409.065	1	17
409.235	1	14
409.406	1	11
409.577	1	12
409.747	1	9
409.918	1	16
410.089	1	17
410.259	1	6
410.430	1	6
410.601	1	14
410.771	1	16
410.942	1	15
411.113	1	20
411.283	1	21
411.454	1	22
411.625	1	15
411.795	1	13
411.966	1	12
412.137	1	18
412.307	1	16
412.478	1	9
412.649	1	7
412.819	1	12
412.990	1	11
413.161	1	22
413.331	1	23
413.502	1	12
413.672	1	6
413.843	1	8
414.014	1	16
414.184	1	15
414.355	1	14
414.526	1	14
414.696	1	14
414.867	1	8
415.038	1	7
415.208	1	11
415.379	1	13
415.550	1	12
415.720	1	4
415.891	1	18
416.062	1	14
416.232	1	13
416.403	1	4
416.573	1	2
416.744	1	16
416.915	1	8
417.085	1	17
417.256	1	13
417.427	1	9
417.597	1	-5
417.768	1	16
417.939	1	6
418.109	1	0
418.280	1	7
418.450	1	26
418.621	1	14
418.792	1	3
418.962	1	8
419.133	1	12
419.304	1	12
419.474	1	12
419.645	1	8
419.815	1	19
419.986	1	22
420.157	1	1
420.327	1	5
420.498	1	-1
420.669	1	10
420.839	1	15
421.010	1	7
421.180	1	7
421.351	1	15
421.522	1	14
421.692	1	14
421.863	1	19
422.033	1	14
422.204	1	13
422.375	1	7
422.545	1	9
422.716	1	-4
422.886	1	13
423.057	1	17
423.228	1	4
423.398	1	4
423.569	1	4
423.740	1	13
423.910	1	17
424.081	1	14
424.251	1	6
424.422	1	10
424.593	1	15
424.763	1	16
424.934	1	19
425.104	1	26
425.275	1	4
425.445	1	8
425.616	1	11
425.787	1	13
425.957	1	10
426.128	1	10
426.298	1	14
426.469	1	4
426.640	1	9
426.810	1	1
426.981	1	15
427.151	1	5
427.322	1	17
427.493	1	8
427.663	1	7
427.834	1	1
428.004	1	23
428.175	1	18
428.345	1	1
428.516	1	11
428.687	1	17
428.857	1	21
429.028	1	13
429.198	1	9
429.369	1	15
429.540	1	10
429.710	1	13
429.881	1	7
430.051	1	14
430.222	1	19
430.392	1	15
430.563	1	9
430.734	1	17
430.904	1	17
431.075	1	4
431.245	1	10
431.416	1	13
431.586	1	8
431.757	1	24
431.927	1	14
432.098	1	18
432.269	1	4
432.439	1	15
432.610	1	21
432.780	1	8
432.951	1	7
433.121	1	9
433.292	1	13
433.462	1	9
433.633	1	8
433.804	1	18
433.974	1	7
434.145	1	1
434.315	1	11
434.486	1	-6
434.656	1	22
434.827	1	10
434.997	1	16
435.168	1	11
435.339	1	20
435.509	1	4
435.680	1	16
435.850	1	4
436.021	1	7
436.191	1	8
436.362	1	17
436.532	1	12
436.703	1	12
436.873	1	5
437.044	1	17
437.214	1	-4
437.385	1	5
437.556	1	16
437.726	1	15
437.897	1	9
438.067	1	10
438.238	1	-1
438.408	1	8
438.579	1	8
438.749	1	11
438.920	1	20
439.090	1	3
439.261	1	15
439.431	1	7
439.602	1	5
439.772	1	10
439.943	1	-3
440.113	1	2
440.284	1	22
440.455	1	3
440.625	1	6
440.796	1	7
440.966	1	12
441.137	1	15
441.307	1	10
441.478	1	4
441.648	1	7
441.819	1	9
441.989	1	17
442.160	1	13
442.330	1	13
442.501	1	6
442.671	1	12
442.842	1	7
443.012	1	-7
443.183	1	15
443.353	1	10
443.524	1	4
443.694	1	11
443.865	1	19
444.035	1	11
444.206	1	2
444.376	1	14
444.547	1	12
444.717	1	2
444.888	1	-8
445.058	1	11
445.229	1	6
445.399	1	8
445.570	1	8
445.740	1	6
445.911	1	16
446.081	1	16
446.252	1	7
446.422	1	4
446.593	1	10
446.763	1	9
446.934	1	-2
447.104	1	-1
447.275	1	17
447.445	1	12
447.616	1	1
447.786	1	5
447.957	1	17
448.127	1	15
448.298	1	6
448.468	1	8
448.639	1	1
448.809	1	-1
448.979	1	12
449.150	1	9
449.320	1	19
449.491	1	4
449.661	1	9
449.832	1	-1
450.002	1	8
450.173	1	9
450.343	1	7
450.514	1	11
450.684	1	12
450.855	1	8
451.025	1	15
451.196	1	-1
451.366	1	19
451.537	1	11
451.707	1	14
451.878	1	5
452.048	1	1
452.218	1	14
452.389	1	13
452.559	1	22
452.730	1	11
452.900	1	6
453.071	1	12
453.241	1	11
453.412	1	-3
453.582	1	7
453.753	1	12
453.923	1	8
454.093	1	0
454.264	1	18
454.434	1	11
454.605	1	3
454.775	1	14
454.946	1	2
455.116	1	11
455.287	1	8
455.457	1	17
455.628	1	-6
455.798	1	13
455.968	1	11
456.139	1	16
456.309	1	12
456.480	1	9
456.650	1	7
456.821	1	-1
456.991	1	8
457.161	1	12
457.332	1	3
457.502	1	5
457.673	1	5
457.843	1	6
458.014	1	6
458.184	1	11
458.355	1	-1
458.525	1	-1
458.695	1	-5
458.866	1	1
459.036	1	13
459.207	1	9
459.377	1	14
459.548	1	8
459.718	1	2
459.888	1	-5
460.059	1	10
460.229	1	7
460.400	1	5
460.570	1	2
460.740	1	3
460.911	1	5
461.081	1	10
461.252	1	7
461.422	1	6
461.593	1	10
461.763	1	11
461.933	1	8
462.104	1	4
462.274	1	-4
462.445	1	4
462.615	1	9
462.785	1	13
462.956	1	-4
463.126	1	10
463.297	1	-5
463.467	1	7
463.638	1	7
463.808	1	3
463.978	1	-1
464.149	1	7
464.319	1	3
464.490	1	2
464.660	1	-4
464.830	1	-6
465.001	1	-2
465.171	1	6
465.342	1	0
465.512	1	6
465.682	1	1
465.853	1	8
466.023	1	6
466.194	1	10
466.364	1	16
466.534	1	-1
466.705	1	10
466.875	1	-5
467.045	1	6
467.216	1	17
467.386	1	5
467.557	1	10
467.727	1	2
467.897	1	2
468.068	1	-6
468.238	1	1
468.409	1	14
468.579	1	3
468.749	1	6
468.920	1	1
469.090	1	10
469.260	1	1
469.431	1	12
469.601	1	14
469.772	1	14
469.942	1	5
470.112	1	2
470.283	1	11
470.453	1	5
470.623	1	8
470.794	1	10
470.964	1	-10
471.135	1	9
471.305	1	12
471.475	1	13
471.646	1	5
471.816	1	11
471.986	1	3
472.157	1	3
472.327	1	13
472.497	1	5
472.668	1	3
472.838	1	8
473.009	1	7
473.179	1	-1
473.349	1	2
473.520	1	12
473.690	1	-1
473.860	1	-11
474.031	1	-2
474.201	1	8
474.371	1	11
474.542	1	6
474.712	1	0
474.882	1	3
475.053	1	1
475.223	1	-2
475.394	1	3
475.564	1	8
475.734	1	-5
475.905	1	6
476.075	1	10
476.245	1	14
476.416	1	10
476.586	1	0
476.756	1	5
476.927	1	-1
477.097	1	3
477.267	1	7
477.438	1	18
477.608	1	14
477.778	1	0
477.949	1	2
478.119	1	8
478.289	1	6
478.460	1	5
478.630	1	-3
478.800	1	-8
478.971	1	0
479.141	1	14
479.311	1	9
479.482	1	4
479.652	1	8
479.822	1	-1
479.993	1	0
480.163	1	0
480.333	1	9
480.504	1	9
480.674	1	2
480.844	1	0
481.015	1	11
481.185	1	10
481.355	1	6
481.525	1	-3
481.696	1	6
481.866	1	3
482.036	1	5
482.207	1	8
482.377	1	0
482.547	1	5
482.718	1	9
482.888	1	7
483.058	1	7
483.229	1	0
483.399	1	13
483.569	1	-5
483.740	1	6
483.910	1	2
484.080	1	9
484.250	1	-10
484.421	1	1
484.591	1	4
484.761	1	7
484.932	1	-5
485.102	1	3
485.272	1	8
485.443	1	15
485.613	1	3
485.783	1	0
485.953	1	-11
486.124	1	7
486.294	1	7
486.464	1	20
486.635	1	-1
486.805	1	-2
486.975	1	4
487.146	1	11
487.316	1	17
487.486	1	2
487.656	1	4
487.827	1	2
487.997	1	4
488.167	1	3
488.338	1	0
488.508	1	7
488.678	1	10
488.848	1	6
489.019	1	-7
489.189	1	9
489.359	1	5
489.529	1	2
489.700	1	-2
489.870	1	12
490.040	1	0
490.211	1	-2
490.381	1	4
490.551	1	8
490.721	1	12
490.892	1	-7
491.062	1	-9
491.232	1	10
491.402	1	-2
491.573	1	17
491.743	1	7
491.913	1	9
492.084	1	3
492.254	1	11
492.424	1	-1
492.594	1	-5
492.765	1	9
492.935	1	12
493.105	1	10
493.275	1	-11
493.446	1	-16
493.616	1	1
493.786	1	7
493.956	1	13
494.127	1	-3
494.297	1	-12
494.467	1	-6
494.637	1	3
494.808	1	6
494.978	1	10
495.148	1	4
495.318	1	5
495.489	1	-3
495.659	1	5
495.829	1	3
495.999	1	4
496.170	1	5
496.340	1	0
496.510	1	3
496.680	1	1
496.851	1	13
497.021	1	2
497.191	1	13
497.361	1	-14
497.532	1	6
497.702	1	9
497.872	1	9
498.042	1	1
498.213	1	-8
498.383	1	4
498.553	1	-1
498.723	1	-1
498.894	1	7
499.064	1	7
499.234	1	10
499.404	1	5
499.574	1	17
499.745	1	4
499.915	1	6
500.085	1	-5
500.255	1	-9
500.426	1	-1
500.596	1	3
500.766	1	1
500.936	1	-3
501.106	1	-7
501.277	1	-5
501.447	1	0
501.617	1	4
501.787	1	-1
501.958	1	7
502.128	1	1
502.298	1	-6
502.468	1	1
502.638	1	7
502.809	1	3
502.979	1	1
503.149	1	-3
503.319	1	12
503.489	1	-11
503.660	1	-3
503.830	1	-2
504.000	1	-6
504.170	1	2
504.340	1	-1
504.511	1	-3
504.681	1	-5
504.851	1	-2
505.021	1	0
505.192	1	-5
505.362	1	3
505.532	1	3
505.702	1	4
505.872	1	-5
506.043	1	11
506.213	1	2
506.383	1	3
506.553	1	-1
506.723	1	-7
506.893	1	3
507.064	1	10
507.234	1	-1
507.404	1	-2
507.574	1	-3
507.744	1	7
507.915	1	2
508.085	1	5
508.255	1	0
508.425	1	-4
508.595	1	-22
508.766	1	5
508.936	1	9
509.106	1	-3
509.276	1	4
509.446	1	-8
509.616	1	5
509.787	1	-5
509.957	1	3
510.127	1	-5
510.297	1	-1
510.467	1	-1
510.638	1	2
510.808	1	5
510.978	1	-13
511.148	1	3
511.318	1	6
511.488	1	7
511.659	1	0
511.829	1	-4
511.999	1	3
512.169	1	1
512.339	1	4
512.509	1	-10
512.680	1	-5
512.850	1	3
513.020	1	0
513.190	1	7
513.360	1	16
513.530	1	-1
513.700	1	2
513.871	1	-4
514.041	1	5
514.211	1	5
514.381	1	2
514.551	1	0
514.721	1	3
514.892	1	-2
515.062	1	-6
515.232	1	1
515.402	1	3
515.572	1	1
515.742	1	4
515.912	1	-3
516.083	1	-2
516.253	1	9
516.423	1	6
516.593	1	1
516.763	1	10
516.933	1	0
517.104	1	9
517.274	1	-1
517.444	1	4
517.614	1	-15
517.784	1	3
517.954	1	-5
518.124	1	-3
518.294	1	2
518.465	1	5
518.635	1	22
518.805	1	6
518.975	1	0
519.145	1	-1
519.315	1	-2
519.485	1	-8
519.656	1	-3
519.826	1	-6
519.996	1	3
520.166	1	-7
520.336	1	3
520.506	1	1
520.676	1	8
520.846	1	3
521.017	1	1
521.187	1	1
521.357	1	-10
521.527	1	1
521.697	1	-3
521.867	1	13
522.037	1	8
522.207	1	6
522.377	1	8
522.548	1	-1
522.718	1	-1
522.888	1	1
523.058	1	7
523.228	1	-5
523.398	1	-10
523.568	1	-6
523.738	1	1
523.909	1	9
524.079	1	3
524.249	1	-3
524.419	1	5
524.589	1	1
524.759	1	7
524.929	1	-2
525.099	1	7
525.269	1	-1
525.439	1	0
525.610	1	15
525.780	1	-2
525.950	1	0
526.120	1	-12
526.290	1	-4
526.460	1	-5
526.630	1	1
526.800	1	-2
526.970	1	3
527.140	1	-1
527.311	1	3
527.481	1	5
527.651	1	0
527.821	1	3
527.991	1	-2
528.161	1	8
528.331	1	-5
528.501	1	-4
528.671	1	1
528.841	1	-2
529.011	1	2
529.181	1	-5
529.352	1	3
529.522	1	1
529.692	1	3
529.862	1	-3
530.032	1	2
530.202	1	-1
530.372	1	-1
530.542	1	-4
530.712	1	-4
530.882	1	7
531.052	1	5
531.222	1	10
531.392	1	-2
531.563	1	8
531.733	1	-3
531.903	1	-6
532.073	1	1
532.243	1	1
532.413	1	11
532.583	1	0
532.753	1	-7
532.923	1	-2
533.093	1	-12
533.263	1	4
533.433	1	-2
533.603	1	-3
533.773	1	-5
533.943	1	4
534.113	1	7
534.284	1	-4
534.454	1	-1
534.624	1	-3
534.794	1	1
534.964	1	1
535.134	1	-3
535.304	1	3
535.474	1	7
535.644	1	-1
535.814	1	-3
535.984	1	8
536.154	1	3
536.324	1	-2
536.494	1	4
536.664	1	7
536.834	1	-7
537.004	1	-1
537.174	1	5
537.344	1	2
537.514	1	-5
537.685	1	6
537.855	1	-5
538.025	1	4
538.195	1	2
538.365	1	3
538.535	1	0
538.705	1	-2
538.875	1	0
539.045	1	-4
539.215	1	-9
539.385	1	-1
539.555	1	1
539.725	1	1
539.895	1	9
540.065	1	1
540.235	1	4
540.405	1	-3
540.575	1	1
540.745	1	3
540.915	1	1
541.085	1	-6
541.255	1	4
541.425	1	-1
541.595	1	-6
541.765	1	4
541.935	1	3
542.105	1	7
542.275	1	-6
542.445	1	-10
542.615	1	6
542.785	1	-5
542.955	1	1
543.125	1	-12
543.295	1	-2
543.465	1	12
543.635	1	-8
543.805	1	8
543.975	1	0
544.145	1	2
544.315	1	-3
544.485	1	-7
544.655	1	7
544.825	1	1
544.995	1	0
545.165	1	-1
545.335	1	0
545.505	1	-2
545.675	1	4
545.845	1	8
546.015	1	-7
546.185	1	-9
546.355	1	-4
546.525	1	8
546.695	1	3
546.865	1	3
547.035	1	-7
547.205	1	9
547.375	1	14
547.545	1	19
547.715	1	5
547.885	1	5
548.055	1	-10
548.225	1	2
548.395	1	2
548.565	1	6
548.735	1	2
548.905	1	8
549.075	1	0
549.245	1	9
549.415	1	-1
549.585	1	-4
549.755	1	3
549.925	1	-5
550.095	1	-11
550.265	1	-2
550.435	1	5
550.605	1	6
550.775	1	2
550.945	1	-2
551.115	1	8
551.285	1	2
551.455	1	7
551.625	1	-5
551.795	1	0
551.965	1	-7
552.135	1	-1
552.305	1	2
552.475	1	0
552.645	1	-6
552.815	1	0
552.985	1	-6
553.155	1	-1
553.325	1	6
553.495	1	-2
553.665	1	5
553.835	1	-11
554.004	1	-3
554.174	1	-9
554.344	1	4
554.514	1	-1
554.684	1	12
554.854	1	-9
555.024	1	3
555.194	1	7
555.364	1	2
555.534	1	-10
555.704	1	0
555.874	1	-7
556.044	1	2
556.214	1	2
556.384	1	3
556.554	1	7
556.724	1	6
556.894	1	-8
557.064	1	-7
557.234	1	-3
557.404	1	-2
557.573	1	-1
557.743	1	-5
557.913	1	-9
558.083	1	5
558.253	1	1
558.423	1	0
558.593	1	-1
558.763	1	-8
558.933	1	5
559.103	1	-4
559.273	1	4
559.443	1	1
559.613	1	-3
559.783	1	-5
559.953	1	-2
560.122	1	6
560.292	1	-10
560.462	1	-9
560.632	1	-4
560.802	1	4
560.972	1	-8
561.142	1	-1
561.312	1	-9
561.482	1	5
561.652	1	4
561.822	1	1
561.992	1	-1
562.162	1	-3
562.331	1	-12
562.501	1	6
562.671	1	-11
562.841	1	-15
563.011	1	6
563.181	1	-5
563.351	1	-3
563.521	1	-8
563.691	1	0
563.861	1	-4
564.031	1	-1
564.201	1	3
564.370	1	6
564.540	1	-1
564.710	1	-2
564.880	1	3
565.050	1	11
565.220	1	2
565.390	1	-2
565.560	1	6
565.730	1	1
565.900	1	-8
566.069	1	4
566.239	1	6
566.409	1	7
566.579	1	4
566.749	1	2
566.919	1	-11
567.089	1	5
567.259	1	13
567.429	1	-13
567.599	1	4
567.768	1	-7
567.938	1	7
568.108	1	-3
568.278	1	3
568.448	1	-1
568.618	1	0
568.788	1	-1
568.958	1	-8
569.128	1	-13
569.297	1	-3
569.467	1	4
569.637	1	-7
569.807	1	4
569.977	1	-3
570.147	1	5
570.317	1	8
570.487	1	-4
570.656	1	-2
570.826	1	10
570.996	1	2
571.166	1	2
571.336	1	-15
571.506	1	-1
571.676	1	3
571.846	1	7
572.015	1	2
572.185	1	-2
572.355	1	-2
572.525	1	-6
572.695	1	-5
572.865	1	4
573.035	1	3
573.205	1	-1
573.374	1	-5
573.544	1	0
573.714	1	-5
573.884	1	-1
574.054	1	-9
574.224	1	0
574.394	1	1
574.563	1	6
574.733	1	2
574.903	1	-9
575.073	1	7
575.243	1	3
575.413	1	-2
575.583	1	0
575.752	1	-4
575.922	1	3
576.092	1	-9
576.262	1	-3
576.432	1	-2
576.602	1	-3
576.772	1	0
576.941	1	-1
577.111	1	-3
577.281	1	4
577.451	1	3
577.621	1	3
577.791	1	-2
577.960	1	-11
578.130	1	7
578.300	1	3
578.470	1	-7
578.640	1	-3
578.810	1	2
578.979	1	4
579.149	1	-9
579.319	1	6
579.489	1	4
579.659	1	-4
579.829	1	-6
579.998	1	-9
580.168	1	0
580.338	1	-4
580.508	1	-4
580.678	1	3
580.848	1	14
581.017	1	-6
581.187	1	2
581.357	1	3
581.527	1	0
581.697	1	-9
581.867	1	-11
582.036	1	-9
582.206	1	5
582.376	1	-2
582.546	1	-7
582.716	1	3
582.885	1	-2
583.055	1	-8
583.225	1	-3
583.395	1	-7
583.565	1	6
583.735	1	0
583.904	1	-3
584.074	1	5
584.244	1	-8
584.414	1	-6
584.584	1	5
584.753	1	6
584.923	1	-8
585.093	1	5
585.263	1	-4
585.433	1	0
585.602	1	-2
585.772	1	14
585.942	1	-5
586.112	1	4
586.282	1	4
586.451	1	15
586.621	1	-1
586.791	1	-11
586.961	1	-15
587.131	1	-4
587.300	1	12
587.470	1	-3
587.640	1	0
587.810	1	-7
587.980	1	2
588.149	1	-3
588.319	1	7
588.489	1	-2
588.659	1	-3
588.829	1	5
588.998	1	-9
589.168	1	10
589.338	1	-4
589.508	1	0
589.677	1	4
589.847	1	1
590.017	1	-4
590.187	1	-2
590.357	1	-5
590.526	1	-7
590.696	1	5
590.866	1	-1
591.036	1	-4
591.205	1	11
591.375	1	-3
591.545	1	-2
591.715	1	-1
591.885	1	14
592.054	1	2
592.224	1	-4
592.394	1	-13
592.564	1	1
592.733	1	0
592.903	1	0
593.073	1	-6
593.243	1	8
593.412	1	-5
593.582	1	-1
593.752	1	-6
593.922	1	1
594.091	1	3
594.261	1	-14
594.431	1	1
594.601	1	-9
594.771	1	2
594.940	1	-2
595.110	1	7
595.280	1	0
595.450	1	-7
595.619	1	-1
595.789	1	-3
595.959	1	1
596.129	1	-6
596.298	1	12
596.468	1	-4
596.638	1	5
596.808	1	-11
596.977	1	-9
597.147	1	-10
597.317	1	-3
597.487	1	3
597.656	1	7
597.826	1	6
597.996	1	-4
598.166	1	6
598.335	1	-13
598.505	1	4
598.675	1	-1
598.844	1	10
599.014	1	-11
599.184	1	-1
599.354	1	0
599.523	1	0
599.693	1	0
599.863	1	6
600.033	1	-1
600.202	1	10
600.372	1	-4
600.542	1	0
600.712	1	0
600.881	1	-5
601.051	1	3
601.221	1	-3
601.390	1	-3
601.560	1	14
601.730	1	8
601.900	1	1
602.069	1	1
602.239	1	3
602.409	1	0
602.578	1	1
602.748	1	7
602.918	1	-3
603.088	1	-1
603.257	1	-7
603.427	1	11
603.597	1	8
603.767	1	3
603.936	1	8
604.106	1	-7
604.276	1	-4
604.445	1	-9
604.615	1	8
604.785	1	-3
604.954	1	1
605.124	1	-1
605.294	1	-1
605.464	1	-12
605.633	1	4
605.803	1	2
605.973	1	3
606.142	1	2
606.312	1	7
606.482	1	-13
606.652	1	4
606.821	1	-6
606.991	1	4
607.161	1	1
607.330	1	-4
607.500	1	1
607.670	1	2
607.839	1	-7
608.009	1	-1
608.179	1	5
608.348	1	4
608.518	1	16
608.688	1	-3
608.858	1	-1
609.027	1	-1
609.197	1	2
609.367	1	-5
609.536	1	1
609.706	1	3
609.876	1	6
610.045	1	4
610.215	1	0
610.385	1	-4
610.554	1	0
610.724	1	4
610.894	1	3
611.063	1	1
611.233	1	3
611.403	1	10
611.572	1	2
611.742	1	-9
611.912	1	-3
612.081	1	5
612.251	1	5
612.421	1	4
612.590	1	-4
612.760	1	2
612.930	1	3
613.099	1	-3
613.269	1	0
613.439	1	-7
613.608	1	3
613.778	1	-9
613.948	1	7
614.117	1	-5
614.287	1	-4
614.457	1	6
614.626	1	-6
614.796	1	4
614.966	1	-5
615.135	1	3
615.305	1	-2
615.475	1	1
615.644	1	5
615.814	1	10
615.984	1	1
616.153	1	-1
616.323	1	-1
616.493	1	-5
616.662	1	0
616.832	1	-5
617.002	1	-4
617.171	1	2
617.341	1	1
617.511	1	-8
617.680	1	-12
617.850	1	4
618.019	1	5
618.189	1	20
618.359	1	6
618.528	1	0
618.698	1	2
618.868	1	-5
619.037	1	2
619.207	1	-5
619.377	1	4
619.546	1	1
619.716	1	-2
619.885	1	2
620.055	1	-13
620.225	1	14
620.394	1	-1
620.564	1	3
620.734	1	2
620.903	1	-6
621.073	1	8
621.242	1	4
621.412	1	-9
621.582	1	9
621.751	1	-5
621.921	1	8
622.091	1	-7
622.260	1	7
622.430	1	6
622.599	1	-5
622.769	1	-4
622.939	1	-7
623.108	1	0
623.278	1	-13
623.448	1	6
623.617	1	3
623.787	1	3
623.956	1	6
624.126	1	4
624.296	1	14
624.465	1	2
624.635	1	-3
624.804	1	0
624.974	1	-3
625.144	1	-8
625.313	1	7
625.483	1	-1
625.652	1	-1
625.822	1	1
625.992	1	-4
626.161	1	4
626.331	1	-9
626.501	1	5
626.670	1	-6
626.840	1	5
627.009	1	-4
627.179	1	6
627.348	1	-3
627.518	1	11
627.688	1	-2
627.857	1	8
628.027	1	7
628.196	1	3
628.366	1	-12
628.536	1	-6
628.705	1	2
628.875	1	2
629.044	1	-6
629.214	1	3
629.384	1	2
629.553	1	1
629.723	1	6
629.892	1	3
630.062	1	2
630.232	1	8
630.401	1	1
630.571	1	-3
630.740	1	-3
630.910	1	9
631.079	1	-3
631.249	1	-2
631.419	1	-4
631.588	1	4
631.758	1	-7
631.927	1	13
632.097	1	-13
632.266	1	9
632.436	1	-2
632.606	1	-8
632.775	1	5
632.945	1	-6
633.114	1	-6
633.284	1	-4
633.453	1	6
633.623	1	3
633.793	1	-8
633.962	1	-1
634.132	1	5
634.301	1	3
634.471	1	5
634.640	1	-2
634.810	1	-5
634.979	1	0
635.149	1	-6
635.319	1	-1
635.488	1	0
635.658	1	-5
635.827	1	-3
635.997	1	-1
636.166	1	-3
636.336	1	-14
636.505	1	9
636.675	1	-5
636.845	1	0
637.014	1	-10
637.184	1	11
637.353	1	-6
637.523	1	-6
637.692	1	-3
637.862	1	-10
638.031	1	-13
638.201	1	9
638.370	1	0
638.540	1	-2
638.710	1	-6
638.879	1	-3
639.049	1	-1
639.218	1	7
639.388	1	6
639.557	1	-1
639.727	1	0
639.896	1	5
640.066	1	-2
640.235	1	-5
640.405	1	1
640.574	1	2
640.744	1	0
640.914	1	0
641.083	1	0
641.253	1	-3
641.422	1	-3
641.592	1	1
641.761	1	4
641.931	1	13
642.100	1	2
642.270	1	-7
642.439	1	1
642.609	1	4
642.778	1	-1
642.948	1	6
643.117	1	9
643.287	1	2
643.456	1	-8
643.626	1	-12
643.795	1	3
643.965	1	-3
644.134	1	-2
644.304	1	-8
644.473	1	-1
644.643	1	-5
644.812	1	-8
644.982	1	6
645.151	1	0
645.321	1	0
645.490	1	15
645.660	1	-5
645.829	1	-3
645.999	1	-5
646.168	1	19
646.338	1	-5
646.507	1	-3
646.677	1	5
646.846	1	4
647.016	1	8
647.185	1	7
647.355	1	8
647.524	1	-9
647.694	1	-8
647.863	1	0
648.033	1	5
648.202	1	-1
648.372	1	-16
648.541	1	9
648.711	1	-4
648.880	1	6
649.050	1	-3
649.219	1	6
649.389	1	-7
649.558	1	9
649.728	1	4
649.897	1	9
650.067	1	-3
650.236	1	-7
650.406	1	-3
650.575	1	4
650.745	1	7
650.914	1	7
651.084	1	0
651.253	1	-6
651.423	1	-5
651.592	1	-3
651.762	1	-7
651.931	1	2
652.101	1	-7
652.270	1	1
652.440	1	0
652.609	1	1
652.778	1	9
652.948	1	4
653.117	1	0
653.287	1	-7
653.456	1	0
653.626	1	-11
653.795	1	-3
653.965	1	1
654.134	1	-11
654.304	1	0
654.473	1	-2
654.643	1	1
654.812	1	9
654.982	1	3
655.151	1	10
655.320	1	-4
655.490	1	-10
655.659	1	0
655.829	1	6
655.998	1	5
656.168	1	1
656.337	1	1
656.507	1	-8
656.676	1	0
656.846	1	6
657.015	1	15
657.184	1	-1
657.354	1	-1
657.523	1	-2
657.693	1	11
657.862	1	-10
658.032	1	2
658.201	1	-13
658.371	1	-4
658.540	1	-8
658.709	1	15
658.879	1	6
659.048	1	1
659.218	1	12
659.387	1	12
659.557	1	3
659.726	1	-1
659.895	1	-9
660.065	1	2
660.234	1	-1
660.404	1	3
660.573	1	7
660.743	1	-5
660.912	1	0
661.081	1	-5
661.251	1	-5
661.420	1	3
661.590	1	-4
661.759	1	1
661.929	1	5
662.098	1	8
662.267	1	-6
662.437	1	1
662.606	1	-7
662.776	1	2
662.945	1	5
663.115	1	9
663.284	1	8
663.453	1	-7
663.623	1	8
663.792	1	7
663.962	1	7
664.131	1	0
664.300	1	-2
664.470	1	-11
664.639	1	3
664.809	1	-1
664.978	1	11
665.148	1	0
665.317	1	6
665.486	1	5
665.656	1	1
665.825	1	3
665.995	1	-13
666.164	1	-5
666.333	1	-2
666.503	1	-5
666.672	1	-1
666.842	1	0
667.011	1	0
667.180	1	-4
667.350	1	5
667.519	1	1
667.689	1	3
667.858	1	5
668.027	1	-4
668.197	1	-11
668.366	1	1
668.536	1	-11
668.705	1	-7
668.874	1	14
669.044	1	5
669.213	1	-9
669.382	1	-6
669.552	1	1
669.721	1	-7
669.891	1	-1
670.060	1	1
670.229	1	4
670.399	1	9
670.568	1	5
670.738	1	-1
670.907	1	-1
671.076	1	-5
671.246	1	3
671.415	1	6
671.584	1	5
671.754	1	-6
671.923	1	0
672.093	1	4
672.262	1	-2
672.431	1	4
672.601	1	4
672.770	1	0
672.939	1	4
673.109	1	0
673.278	1	5
673.448	1	4
673.617	1	2
673.786	1	-4
