325.333	1	25
325.504	1	10
325.675	1	32
325.846	1	25
326.017	1	30
326.188	1	23
326.359	1	28
326.531	1	15
326.702	1	22
326.873	1	36
327.044	1	27
327.215	1	23
327.386	1	21
327.557	1	26
327.728	1	29
327.899	1	29
328.070	1	30
328.241	1	36
328.412	1	30
328.583	1	31
328.754	1	42
328.926	1	41
329.097	1	20
329.268	1	35
329.439	1	40
329.610	1	28
329.781	1	29
329.952	1	39
330.123	1	30
330.294	1	34
330.465	1	24
330.636	1	34
330.807	1	34
330.978	1	27
331.149	1	31
331.320	1	31
331.492	1	33
331.663	1	30
331.834	1	33
332.005	1	33
332.176	1	40
332.347	1	25
332.518	1	32
332.689	1	36
332.860	1	32
333.031	1	41
333.202	1	31
333.373	1	42
333.544	1	48
333.715	1	38
333.886	1	37
334.057	1	32
334.228	1	41
334.399	1	43
334.570	1	56
334.741	1	38
334.912	1	37
335.084	1	34
335.255	1	51
335.426	1	44
335.597	1	40
335.768	1	49
335.939	1	45
336.110	1	42
336.281	1	39
336.452	1	59
336.623	1	46
336.794	1	43
336.965	1	38
337.136	1	66
337.307	1	40
337.478	1	44
337.649	1	47
337.820	1	45
337.991	1	42
338.162	1	50
338.333	1	43
338.504	1	49
338.675	1	41
338.846	1	38
339.017	1	53
339.188	1	41
339.359	1	50
339.530	1	43
339.701	1	50
339.872	1	60
340.043	1	56
340.214	1	52
340.385	1	44
340.556	1	67
340.727	1	66
340.898	1	47
341.069	1	41
341.240	1	46
341.411	1	52
341.582	1	45
341.753	1	49
341.924	1	68
342.095	1	49
342.266	1	66
342.437	1	50
342.608	1	53
342.779	1	54
342.950	1	55
343.121	1	59
343.292	1	55
343.463	1	70
343.634	1	64
343.805	1	61
343.976	1	65
344.147	1	67
344.318	1	42
344.489	1	50
344.660	1	63
344.831	1	67
345.002	1	50
345.173	1	66
345.344	1	59
345.515	1	60
345.686	1	58
345.857	1	79
346.028	1	65
346.199	1	67
346.370	1	64
346.541	1	57
346.712	1	60
346.883	1	64
347.054	1	58
347.225	1	62
347.396	1	61
347.567	1	59
347.738	1	63
347.909	1	68
348.080	1	58
348.251	1	72
348.422	1	72
348.593	1	65
348.764	1	71
348.935	1	73
349.106	1	69
349.277	1	60
349.448	1	69
349.619	1	77
349.790	1	79
349.961	1	55
350.132	1	84
350.303	1	80
350.474	1	81
350.645	1	78
350.816	1	75
350.987	1	93
351.157	1	71
351.328	1	70
351.499	1	77
351.670	1	80
351.841	1	86
352.012	1	81
352.183	1	89
352.354	1	69
352.525	1	79
352.696	1	82
352.867	1	88
353.038	1	72
353.209	1	69
353.380	1	74
353.551	1	94
353.722	1	78
353.893	1	95
354.064	1	77
354.235	1	82
354.406	1	78
354.576	1	75
354.747	1	67
354.918	1	80
355.089	1	89
355.260	1	85
355.431	1	77
355.602	1	79
355.773	1	84
355.944	1	81
356.115	1	89
356.286	1	84
356.457	1	87
356.628	1	90
356.799	1	93
356.970	1	111
357.141	1	83
357.311	1	108
357.482	1	91
357.653	1	94
357.824	1	97
357.995	1	112
358.166	1	94
358.337	1	94
358.508	1	103
358.679	1	85
358.850	1	104
359.021	1	94
359.192	1	98
359.363	1	96
359.533	1	95
359.704	1	89
359.875	1	95
360.046	1	106
360.217	1	98
360.388	1	99
360.559	1	98
360.730	1	89
360.901	1	95
361.072	1	97
361.243	1	99
361.414	1	104
361.584	1	93
361.755	1	92
361.926	1	106
362.097	1	95
362.268	1	105
362.439	1	82
362.610	1	101
362.781	1	103
362.952	1	102
363.123	1	89
363.293	1	93
363.464	1	98
363.635	1	99
363.806	1	94
363.977	1	84
364.148	1	94
364.319	1	99
364.490	1	104
364.661	1	102
364.832	1	99
365.002	1	116
365.173	1	101
365.344	1	103
365.515	1	112
365.686	1	104
365.857	1	103
366.028	1	107
366.199	1	100
366.370	1	103
366.540	1	115
366.711	1	107
366.882	1	109
367.053	1	101
367.224	1	107
367.395	1	109
367.566	1	111
367.737	1	104
367.908	1	122
368.078	1	106
368.249	1	105
368.420	1	111
368.591	1	116
368.762	1	103
368.933	1	99
369.104	1	110
369.274	1	112
369.445	1	109
369.616	1	105
369.787	1	103
369.958	1	106
370.129	1	105
370.300	1	99
370.471	1	100
370.641	1	97
370.812	1	107
370.983	1	106
371.154	1	114
371.325	1	110
371.496	1	96
371.667	1	115
371.837	1	112
372.008	1	95
372.179	1	100
372.350	1	96
372.521	1	107
372.692	1	112
372.863	1	108
373.033	1	111
373.204	1	107
373.375	1	119
373.546	1	111
373.717	1	118
373.888	1	113
374.059	1	118
374.229	1	115
374.400	1	107
374.571	1	102
374.742	1	116
374.913	1	105
375.084	1	113
375.254	1	107
375.425	1	109
375.596	1	109
375.767	1	115
375.938	1	103
376.109	1	122
376.279	1	107
376.450	1	118
376.621	1	120
376.792	1	127
376.963	1	121
377.134	1	118
377.304	1	124
377.475	1	117
377.646	1	124
377.817	1	124
377.988	1	126
378.159	1	114
378.329	1	117
378.500	1	123
378.671	1	112
378.842	1	121
379.013	1	125
379.184	1	128
379.354	1	137
379.525	1	129
379.696	1	131
379.867	1	113
380.038	1	123
380.209	1	127
380.379	1	127
380.550	1	110
380.721	1	119
380.892	1	121
381.063	1	119
381.233	1	124
381.404	1	119
381.575	1	126
381.746	1	122
381.917	1	132
382.087	1	136
382.258	1	124
382.429	1	135
382.600	1	131
382.771	1	129
382.941	1	144
383.112	1	116
383.283	1	138
383.454	1	135
383.625	1	127
383.795	1	136
383.966	1	149
384.137	1	135
384.308	1	130
384.479	1	138
384.649	1	122
384.820	1	135
384.991	1	143
385.162	1	141
385.333	1	140
385.503	1	136
385.674	1	125
385.845	1	139
386.016	1	149
386.187	1	133
386.357	1	152
386.528	1	127
386.699	1	147
386.870	1	130
387.041	1	148
387.211	1	149
387.382	1	149
387.553	1	139
387.724	1	139
387.894	1	128
388.065	1	144
388.236	1	144
388.407	1	150
388.578	1	138
388.748	1	152
388.919	1	138
389.090	1	159
389.261	1	157
389.431	1	134
389.602	1	144
389.773	1	145
389.944	1	151
390.114	1	143
390.285	1	146
390.456	1	137
390.627	1	136
390.798	1	146
390.968	1	156
391.139	1	147
391.310	1	148
391.481	1	140
391.651	1	152
391.822	1	158
391.993	1	119
392.164	1	143
392.334	1	119
392.505	1	153
392.676	1	138
392.847	1	147
393.017	1	138
393.188	1	142
393.359	1	146
393.530	1	154
393.700	1	153
393.871	1	146
394.042	1	139
394.213	1	168
394.383	1	164
394.554	1	160
394.725	1	152
394.896	1	165
395.066	1	142
395.237	1	152
395.408	1	152
395.579	1	165
395.749	1	166
395.920	1	168
396.091	1	158
396.262	1	163
396.432	1	159
396.603	1	167
396.774	1	160
396.945	1	162
397.115	1	171
397.286	1	168
397.457	1	153
397.627	1	148
397.798	1	170
397.969	1	182
398.140	1	161
398.310	1	166
398.481	1	151
398.652	1	168
398.823	1	153
398.993	1	160
399.164	1	167
399.335	1	151
399.505	1	148
399.676	1	167
399.847	1	155
400.018	1	149
400.188	1	181
400.359	1	169
400.530	1	169
400.700	1	153
400.871	1	149
401.042	1	147
401.213	1	173
401.383	1	143
401.554	1	167
401.725	1	147
401.895	1	155
402.066	1	172
402.237	1	152
402.408	1	164
402.578	1	176
402.749	1	147
402.920	1	162
403.090	1	157
403.261	1	147
403.432	1	172
403.603	1	155
403.773	1	153
403.944	1	164
404.115	1	167
404.285	1	172
404.456	1	163
404.627	1	167
404.797	1	158
404.968	1	147
405.139	1	164
405.310	1	163
405.480	1	145
405.651	1	171
405.822	1	163
405.992	1	173
406.163	1	151
406.334	1	170
406.504	1	178
406.675	1	167
406.846	1	170
407.016	1	182
407.187	1	172
407.358	1	168
407.528	1	173
407.699	1	179
407.870	1	177
408.041	1	170
408.211	1	192
408.382	1	192
408.553	1	179
408.723	1	177
408.894	1	172
409.065	1	182
409.235	1	186
409.406	1	169
409.577	1	172
409.747	1	177
409.918	1	186
410.089	1	188
410.259	1	177
410.430	1	174
410.601	1	177
410.771	1	185
410.942	1	150
411.113	1	167
411.283	1	170
411.454	1	185
411.625	1	161
411.795	1	183
411.966	1	179
412.137	1	180
412.307	1	180
412.478	1	162
412.649	1	170
412.819	1	170
412.990	1	163
413.161	1	166
413.331	1	161
413.502	1	160
413.672	1	164
413.843	1	165
414.014	1	161
414.184	1	163
414.355	1	169
414.526	1	176
414.696	1	153
414.867	1	154
415.038	1	145
415.208	1	165
415.379	1	154
415.550	1	154
415.720	1	152
415.891	1	175
416.062	1	176
416.232	1	175
416.403	1	166
416.573	1	178
416.744	1	180
416.915	1	171
417.085	1	176
417.256	1	157
417.427	1	160
417.597	1	158
417.768	1	166
417.939	1	163
418.109	1	178
418.280	1	167
418.450	1	178
418.621	1	172
418.792	1	178
418.962	1	176
419.133	1	168
419.304	1	169
419.474	1	158
419.645	1	171
419.815	1	160
419.986	1	174
420.157	1	166
420.327	1	180
420.498	1	162
420.669	1	172
420.839	1	162
421.010	1	155
421.180	1	166
421.351	1	170
421.522	1	167
421.692	1	177
421.863	1	169
422.033	1	174
422.204	1	195
422.375	1	161
422.545	1	166
422.716	1	148
422.886	1	169
423.057	1	150
423.228	1	154
423.398	1	170
423.569	1	145
423.740	1	156
423.910	1	165
424.081	1	150
424.251	1	164
424.422	1	150
424.593	1	146
424.763	1	160
424.934	1	155
425.104	1	169
425.275	1	146
425.445	1	144
425.616	1	148
425.787	1	144
425.957	1	144
426.128	1	147
426.298	1	150
426.469	1	139
426.640	1	146
426.810	1	141
426.981	1	154
427.151	1	145
427.322	1	142
427.493	1	149
427.663	1	160
427.834	1	148
428.004	1	146
428.175	1	159
428.345	1	144
428.516	1	155
428.687	1	164
428.857	1	154
429.028	1	151
429.198	1	142
429.369	1	149
429.540	1	139
429.710	1	146
429.881	1	140
430.051	1	147
430.222	1	164
430.392	1	148
430.563	1	139
430.734	1	153
430.904	1	141
431.075	1	145
431.245	1	151
431.416	1	150
431.586	1	148
431.757	1	157
431.927	1	155
432.098	1	155
432.269	1	143
432.439	1	143
432.610	1	155
432.780	1	141
432.951	1	146
433.121	1	143
433.292	1	160
433.462	1	145
433.633	1	140
433.804	1	150
433.974	1	146
434.145	1	141
434.315	1	149
434.486	1	142
434.656	1	144
434.827	1	146
434.997	1	147
435.168	1	136
435.339	1	154
435.509	1	152
435.680	1	142
435.850	1	133
436.021	1	143
436.191	1	141
436.362	1	150
436.532	1	132
436.703	1	143
436.873	1	134
437.044	1	146
437.214	1	129
437.385	1	131
437.556	1	144
437.726	1	131
437.897	1	139
438.067	1	130
438.238	1	137
438.408	1	130
438.579	1	119
438.749	1	145
438.920	1	146
439.090	1	123
439.261	1	135
439.431	1	124
439.602	1	135
439.772	1	132
439.943	1	121
440.113	1	131
440.284	1	136
440.455	1	130
440.625	1	140
440.796	1	129
440.966	1	133
441.137	1	126
441.307	1	137
441.478	1	110
441.648	1	121
441.819	1	121
441.989	1	138
442.160	1	127
442.330	1	140
442.501	1	136
442.671	1	130
442.842	1	127
443.012	1	125
443.183	1	131
443.353	1	118
443.524	1	117
443.694	1	134
443.865	1	134
444.035	1	139
444.206	1	129
444.376	1	134
444.547	1	135
444.717	1	124
444.888	1	129
445.058	1	130
445.229	1	131
445.399	1	135
445.570	1	115
445.740	1	125
445.911	1	126
446.081	1	129
446.252	1	125
446.422	1	123
446.593	1	127
446.763	1	125
446.934	1	116
447.104	1	127
447.275	1	125
447.445	1	121
447.616	1	126
447.786	1	124
447.957	1	128
448.127	1	111
448.298	1	118
448.468	1	127
448.639	1	114
448.809	1	123
448.979	1	135
449.150	1	115
449.320	1	119
449.491	1	126
449.661	1	112
449.832	1	105
450.002	1	118
450.173	1	112
450.343	1	109
450.514	1	122
450.684	1	113
450.855	1	127
451.025	1	123
451.196	1	118
451.366	1	117
451.537	1	122
451.707	1	119
451.878	1	110
452.048	1	99
452.218	1	106
452.389	1	113
452.559	1	129
452.730	1	116
452.900	1	99
453.071	1	121
453.241	1	116
453.412	1	115
453.582	1	105
453.753	1	114
453.923	1	104
454.093	1	101
454.264	1	118
454.434	1	109
454.605	1	99
454.775	1	110
454.946	1	96
455.116	1	110
455.287	1	105
455.457	1	116
455.628	1	108
455.798	1	110
455.968	1	92
456.139	1	109
456.309	1	108
456.480	1	111
456.650	1	102
456.821	1	97
456.991	1	112
457.161	1	110
457.332	1	107
457.502	1	96
457.673	1	100
457.843	1	94
458.014	1	98
458.184	1	101
458.355	1	112
458.525	1	105
458.695	1	103
458.866	1	91
459.036	1	116
459.207	1	98
459.377	1	102
459.548	1	105
459.718	1	106
459.888	1	95
460.059	1	106
460.229	1	95
460.400	1	91
460.570	1	86
460.740	1	91
460.911	1	111
461.081	1	105
461.252	1	104
461.422	1	102
461.593	1	109
461.763	1	105
461.933	1	102
462.104	1	87
462.274	1	106
462.445	1	84
462.615	1	111
462.785	1	109
462.956	1	84
463.126	1	102
463.297	1	93
463.467	1	108
463.638	1	105
463.808	1	105
463.978	1	93
464.149	1	94
464.319	1	104
464.490	1	94
464.660	1	96
464.830	1	91
465.001	1	91
465.171	1	93
465.342	1	88
465.512	1	95
465.682	1	86
465.853	1	91
466.023	1	94
466.194	1	93
466.364	1	87
466.534	1	77
466.705	1	102
466.875	1	80
467.045	1	71
467.216	1	93
467.386	1	93
467.557	1	93
467.727	1	83
467.897	1	88
468.068	1	78
468.238	1	70
468.409	1	90
468.579	1	79
468.749	1	81
468.920	1	73
469.090	1	90
469.260	1	86
469.431	1	76
469.601	1	83
469.772	1	90
469.942	1	82
470.112	1	69
470.283	1	88
470.453	1	90
470.623	1	79
470.794	1	67
470.964	1	68
471.135	1	90
471.305	1	74
471.475	1	78
471.646	1	77
471.816	1	86
471.986	1	81
472.157	1	80
472.327	1	91
472.497	1	78
472.668	1	76
472.838	1	74
473.009	1	69
473.179	1	70
473.349	1	77
473.520	1	96
473.690	1	86
473.860	1	58
474.031	1	69
474.201	1	76
474.371	1	81
474.542	1	72
474.712	1	77
474.882	1	89
475.053	1	89
475.223	1	79
475.394	1	81
475.564	1	69
475.734	1	78
475.905	1	82
476.075	1	84
476.245	1	75
476.416	1	75
476.586	1	75
476.756	1	74
476.927	1	92
477.097	1	87
477.267	1	81
477.438	1	89
477.608	1	87
477.778	1	69
477.949	1	75
478.119	1	80
478.289	1	69
478.460	1	65
478.630	1	67
478.800	1	72
478.971	1	70
479.141	1	82
479.311	1	75
479.482	1	72
479.652	1	74
479.822	1	62
479.993	1	76
480.163	1	71
480.333	1	67
480.504	1	69
480.674	1	74
480.844	1	83
481.015	1	82
481.185	1	84
481.355	1	77
481.525	1	74
481.696	1	68
481.866	1	88
482.036	1	80
482.207	1	69
482.377	1	59
482.547	1	71
482.718	1	77
482.888	1	73
483.058	1	79
483.229	1	65
483.399	1	74
483.569	1	59
483.740	1	59
483.910	1	52
484.080	1	65
484.250	1	67
484.421	1	59
484.591	1	66
484.761	1	71
484.932	1	66
485.102	1	66
485.272	1	51
485.443	1	60
485.613	1	55
485.783	1	59
485.953	1	64
486.124	1	65
486.294	1	64
486.464	1	76
486.635	1	66
486.805	1	67
486.975	1	53
487.146	1	73
487.316	1	71
487.486	1	61
487.656	1	62
487.827	1	58
487.997	1	59
488.167	1	64
488.338	1	43
488.508	1	58
488.678	1	58
488.848	1	60
489.019	1	51
489.189	1	59
489.359	1	59
489.529	1	58
489.700	1	58
489.870	1	66
490.040	1	63
490.211	1	50
490.381	1	60
490.551	1	62
490.721	1	56
490.892	1	45
491.062	1	53
491.232	1	61
491.402	1	46
491.573	1	68
491.743	1	55
491.913	1	62
492.084	1	61
492.254	1	62
492.424	1	52
492.594	1	64
492.765	1	72
492.935	1	62
493.105	1	50
493.275	1	49
493.446	1	46
493.616	1	48
493.786	1	56
493.956	1	48
494.127	1	59
494.297	1	52
494.467	1	56
494.637	1	64
494.808	1	57
494.978	1	57
495.148	1	57
495.318	1	54
495.489	1	45
495.659	1	64
495.829	1	53
495.999	1	58
496.170	1	56
496.340	1	45
496.510	1	62
496.680	1	44
496.851	1	53
497.021	1	54
497.191	1	63
497.361	1	43
497.532	1	54
497.702	1	52
497.872	1	51
498.042	1	31
498.213	1	49
498.383	1	46
498.553	1	61
498.723	1	41
498.894	1	48
499.064	1	51
499.234	1	54
499.404	1	56
499.574	1	56
499.745	1	37
499.915	1	47
500.085	1	43
500.255	1	39
500.426	1	49
500.596	1	37
500.766	1	44
500.936	1	37
501.106	1	37
501.277	1	43
501.447	1	52
501.617	1	41
501.787	1	41
501.958	1	48
502.128	1	42
502.298	1	48
502.468	1	38
502.638	1	56
502.809	1	42
502.979	1	42
503.149	1	46
503.319	1	54
503.489	1	31
503.660	1	36
503.830	1	52
504.000	1	46
504.170	1	47
504.340	1	37
504.511	1	44
504.681	1	49
504.851	1	37
505.021	1	49
505.192	1	35
505.362	1	40
505.532	1	34
505.702	1	65
505.872	1	52
506.043	1	35
506.213	1	48
506.383	1	41
506.553	1	44
506.723	1	36
506.893	1	43
507.064	1	43
507.234	1	39
507.404	1	45
507.574	1	37
507.744	1	50
507.915	1	46
508.085	1	35
508.255	1	30
508.425	1	32
508.595	1	34
508.766	1	44
508.936	1	51
509.106	1	38
509.276	1	44
509.446	1	38
509.616	1	41
509.787	1	47
509.957	1	44
510.127	1	28
510.297	1	36
510.467	1	44
510.638	1	40
510.808	1	47
510.978	1	31
511.148	1	37
511.318	1	36
511.488	1	50
511.659	1	34
511.829	1	24
511.999	1	39
512.169	1	52
512.339	1	43
512.509	1	35
512.680	1	32
512.850	1	30
513.020	1	47
513.190	1	25
513.360	1	44
513.530	1	35
513.700	1	42
513.871	1	23
514.041	1	43
514.211	1	43
514.381	1	43
514.551	1	37
514.721	1	39
514.892	1	40
515.062	1	33
515.232	1	30
515.402	1	41
515.572	1	44
515.742	1	42
515.912	1	40
516.083	1	40
516.253	1	36
516.423	1	39
516.593	1	43
516.763	1	35
516.933	1	33
517.104	1	36
517.274	1	28
517.444	1	28
517.614	1	34
517.784	1	26
517.954	1	29
518.124	1	32
518.294	1	44
518.465	1	40
518.635	1	30
518.805	1	36
518.975	1	32
519.145	1	31
519.315	1	34
519.485	1	30
519.656	1	30
519.826	1	19
519.996	1	34
520.166	1	41
520.336	1	32
520.506	1	30
520.676	1	41
520.846	1	37
521.017	1	37
521.187	1	27
521.357	1	31
521.527	1	21
521.697	1	26
521.867	1	39
522.037	1	32
522.207	1	39
522.377	1	41
522.548	1	25
522.718	1	33
522.888	1	38
523.058	1	38
523.228	1	27
523.398	1	17
523.568	1	21
523.738	1	29
523.909	1	31
524.079	1	35
524.249	1	23
524.419	1	30
524.589	1	28
524.759	1	25
524.929	1	31
525.099	1	25
525.269	1	29
525.439	1	26
525.610	1	34
525.780	1	35
525.950	1	40
526.120	1	23
526.290	1	21
526.460	1	20
526.630	1	28
526.800	1	22
526.970	1	37
527.140	1	32
527.311	1	37
527.481	1	36
527.651	1	24
527.821	1	20
527.991	1	31
528.161	1	23
528.331	1	9
528.501	1	25
528.671	1	33
528.841	1	29
529.011	1	34
529.181	1	27
529.352	1	30
529.522	1	31
529.692	1	35
529.862	1	19
530.032	1	20
530.202	1	22
530.372	1	27
530.542	1	30
530.712	1	35
530.882	1	30
531.052	1	37
531.222	1	29
531.392	1	23
531.563	1	29
531.733	1	27
531.903	1	27
532.073	1	29
532.243	1	29
532.413	1	48
532.583	1	25
532.753	1	21
532.923	1	41
533.093	1	13
533.263	1	37
533.433	1	17
533.603	1	12
533.773	1	26
533.943	1	22
534.113	1	24
534.284	1	27
534.454	1	19
534.624	1	11
534.794	1	34
534.964	1	22
535.134	1	17
535.304	1	38
535.474	1	18
535.644	1	20
535.814	1	24
535.984	1	30
536.154	1	26
536.324	1	24
536.494	1	25
536.664	1	18
536.834	1	25
537.004	1	21
537.174	1	21
537.344	1	36
537.514	1	11
537.685	1	33
537.855	1	29
538.025	1	29
538.195	1	34
538.365	1	30
538.535	1	11
538.705	1	28
538.875	1	29
539.045	1	28
539.215	1	16
539.385	1	31
539.555	1	19
539.725	1	21
539.895	1	26
540.065	1	17
540.235	1	17
540.405	1	15
540.575	1	21
540.745	1	26
540.915	1	26
541.085	1	10
541.255	1	19
541.425	1	22
541.595	1	13
541.765	1	25
541.935	1	30
542.105	1	20
542.275	1	15
542.445	1	23
542.615	1	22
542.785	1	26
542.955	1	25
543.125	1	19
543.295	1	24
543.465	1	26
543.635	1	11
543.805	1	27
543.975	1	14
544.145	1	17
544.315	1	2
544.485	1	22
544.655	1	19
544.825	1	21
544.995	1	19
545.165	1	18
545.335	1	22
545.505	1	27
545.675	1	30
545.845	1	22
546.015	1	16
546.185	1	30
546.355	1	12
546.525	1	13
546.695	1	17
546.865	1	19
547.035	1	16
547.205	1	27
547.375	1	30
547.545	1	20
547.715	1	21
547.885	1	23
548.055	1	15
548.225	1	19
548.395	1	21
548.565	1	21
548.735	1	11
548.905	1	15
549.075	1	22
549.245	1	23
549.415	1	21
549.585	1	16
549.755	1	24
549.925	1	11
550.095	1	11
550.265	1	20
550.435	1	18
550.605	1	14
550.775	1	12
550.945	1	15
551.115	1	33
551.285	1	17
551.455	1	22
551.625	1	17
551.795	1	11
551.965	1	5
552.135	1	5
552.305	1	29
552.475	1	17
552.645	1	8
552.815	1	17
552.985	1	23
553.155	1	6
553.325	1	14
553.495	1	21
553.665	1	13
553.835	1	-1
554.004	1	11
554.174	1	15
554.344	1	17
554.514	1	17
554.684	1	31
554.854	1	5
555.024	1	20
555.194	1	21
555.364	1	15
555.534	1	7
555.704	1	14
555.874	1	24
556.044	1	17
556.214	1	11
556.384	1	18
556.554	1	15
556.724	1	17
556.894	1	14
557.064	1	12
557.234	1	20
557.404	1	10
557.573	1	17
557.743	1	6
557.913	1	11
558.083	1	15
558.253	1	17
558.423	1	17
558.593	1	11
558.763	1	16
558.933	1	14
559.103	1	17
559.273	1	19
559.443	1	20
559.613	1	11
559.783	1	12
559.953	1	4
560.122	1	11
560.292	1	3
560.462	1	9
560.632	1	13
560.802	1	17
560.972	1	0
561.142	1	15
561.312	1	6
561.482	1	16
561.652	1	13
561.822	1	12
561.992	1	18
562.162	1	5
562.331	1	-1
562.501	1	10
562.671	1	14
562.841	1	10
563.011	1	16
563.181	1	0
563.351	1	11
563.521	1	6
563.691	1	12
563.861	1	26
564.031	1	12
564.201	1	17
564.370	1	24
564.540	1	9
564.710	1	10
564.880	1	19
565.050	1	30
565.220	1	16
565.390	1	9
565.560	1	18
565.730	1	12
565.900	1	14
566.069	1	21
566.239	1	21
566.409	1	15
566.579	1	19
566.749	1	13
566.919	1	5
567.089	1	2
567.259	1	11
567.429	1	7
567.599	1	20
567.768	1	19
567.938	1	17
568.108	1	13
568.278	1	11
568.448	1	15
568.618	1	15
568.788	1	20
568.958	1	3
569.128	1	3
569.297	1	6
569.467	1	21
569.637	1	19
569.807	1	19
569.977	1	10
570.147	1	6
570.317	1	7
570.487	1	-2
570.656	1	22
570.826	1	1
570.996	1	24
571.166	1	11
571.336	1	7
571.506	1	9
571.676	1	18
571.846	1	17
572.015	1	18
572.185	1	9
572.355	1	6
572.525	1	4
572.695	1	13
572.865	1	23
573.035	1	18
573.205	1	13
573.374	1	9
573.544	1	15
573.714	1	-1
573.884	1	5
574.054	1	7
574.224	1	17
574.394	1	14
574.563	1	14
574.733	1	5
574.903	1	7
575.073	1	14
575.243	1	10
575.413	1	-2
575.583	1	9
575.752	1	10
575.922	1	10
576.092	1	7
576.262	1	5
576.432	1	5
576.602	1	15
576.772	1	8
576.941	1	12
577.111	1	11
577.281	1	12
577.451	1	17
577.621	1	17
577.791	1	17
577.960	1	11
578.130	1	8
578.300	1	6
578.470	1	12
578.640	1	1
578.810	1	13
578.979	1	13
579.149	1	3
579.319	1	9
579.489	1	21
579.659	1	12
579.829	1	2
579.998	1	2
580.168	1	-2
580.338	1	9
580.508	1	11
580.678	1	11
580.848	1	10
581.017	1	13
581.187	1	19
581.357	1	9
581.527	1	3
581.697	1	11
581.867	1	13
582.036	1	-1
582.206	1	14
582.376	1	9
582.546	1	7
582.716	1	10
582.885	1	12
583.055	1	-4
583.225	1	21
583.395	1	12
583.565	1	22
583.735	1	9
583.904	1	18
584.074	1	4
584.244	1	10
584.414	1	13
584.584	1	7
584.753	1	13
584.923	1	-4
585.093	1	23
585.263	1	8
585.433	1	5
585.602	1	12
585.772	1	24
585.942	1	3
586.112	1	8
586.282	1	22
586.451	1	19
586.621	1	3
586.791	1	-3
586.961	1	15
587.131	1	-2
587.300	1	15
587.470	1	12
587.640	1	16
587.810	1	5
587.980	1	12
588.149	1	14
588.319	1	21
588.489	1	10
588.659	1	6
588.829	1	19
588.998	1	11
589.168	1	13
589.338	1	6
589.508	1	8
589.677	1	22
589.847	1	13
590.017	1	2
590.187	1	17
590.357	1	5
590.526	1	1
590.696	1	12
590.866	1	8
591.036	1	12
591.205	1	23
591.375	1	10
591.545	1	4
591.715	1	8
591.885	1	19
592.054	1	17
592.224	1	-4
592.394	1	2
592.564	1	3
592.733	1	15
592.903	1	12
593.073	1	7
593.243	1	3
593.412	1	7
593.582	1	16
593.752	1	10
593.922	1	13
594.091	1	13
594.261	1	2
594.431	1	16
594.601	1	4
594.771	1	2
594.940	1	11
595.110	1	11
595.280	1	11
595.450	1	12
595.619	1	4
595.789	1	10
595.959	1	-1
596.129	1	10
596.298	1	13
596.468	1	9
596.638	1	3
596.808	1	-3
596.977	1	4
597.147	1	8
597.317	1	11
597.487	1	19
597.656	1	15
597.826	1	24
597.996	1	8
598.166	1	12
598.335	1	4
598.505	1	19
598.675	1	15
598.844	1	30
599.014	1	6
599.184	1	5
599.354	1	20
599.523	1	2
599.693	1	6
599.863	1	15
600.033	1	18
600.202	1	8
600.372	1	12
600.542	1	10
600.712	1	8
600.881	1	7
601.051	1	15
601.221	1	13
601.390	1	10
601.560	1	21
601.730	1	16
601.900	1	10
602.069	1	7
602.239	1	15
602.409	1	11
602.578	1	13
602.748	1	21
602.918	1	-2
603.088	1	11
603.257	1	5
603.427	1	18
603.597	1	14
603.767	1	9
603.936	1	10
604.106	1	11
604.276	1	11
604.445	1	3
604.615	1	10
604.785	1	13
604.954	1	26
605.124	1	17
605.294	1	14
605.464	1	11
605.633	1	10
605.803	1	15
605.973	1	19
606.142	1	14
606.312	1	16
606.482	1	-5
606.652	1	25
606.821	1	19
606.991	1	14
607.161	1	7
607.330	1	8
607.500	1	15
607.670	1	14
607.839	1	14
608.009	1	5
608.179	1	21
608.348	1	14
608.518	1	19
608.688	1	14
608.858	1	11
609.027	1	29
609.197	1	16
609.367	1	1
609.536	1	4
609.706	1	13
609.876	1	19
610.045	1	12
610.215	1	22
610.385	1	12
610.554	1	11
610.724	1	13
610.894	1	15
611.063	1	12
611.233	1	19
611.403	1	24
611.572	1	10
611.742	1	1
611.912	1	19
612.081	1	26
612.251	1	18
612.421	1	13
612.590	1	14
612.760	1	19
612.930	1	15
613.099	1	10
613.269	1	7
613.439	1	8
613.608	1	15
613.778	1	15
613.948	1	24
614.117	1	8
614.287	1	8
614.457	1	18
614.626	1	11
614.796	1	7
614.966	1	10
615.135	1	21
615.305	1	8
615.475	1	0
615.644	1	25
615.814	1	18
615.984	1	15
616.153	1	8
616.323	1	20
616.493	1	18
616.662	1	4
616.832	1	10
617.002	1	17
617.171	1	7
617.341	1	30
617.511	1	3
617.680	1	14
617.850	1	8
618.019	1	5
618.189	1	25
618.359	1	13
618.528	1	16
618.698	1	17
618.868	1	6
619.037	1	14
619.207	1	5
619.377	1	8
619.546	1	25
619.716	1	10
619.885	1	21
620.055	1	9
620.225	1	26
620.394	1	19
620.564	1	17
620.734	1	18
620.903	1	4
621.073	1	22
621.242	1	16
621.412	1	7
621.582	1	32
621.751	1	11
621.921	1	30
622.091	1	28
622.260	1	22
622.430	1	34
622.599	1	25
622.769	1	11
622.939	1	13
623.108	1	23
623.278	1	14
623.448	1	15
623.617	1	23
623.787	1	14
623.956	1	24
624.126	1	21
624.296	1	22
624.465	1	15
624.635	1	19
624.804	1	12
624.974	1	8
625.144	1	6
625.313	1	27
625.483	1	19
625.652	1	21
625.822	1	16
625.992	1	6
626.161	1	23
626.331	1	18
626.501	1	18
626.670	1	6
626.840	1	15
627.009	1	10
627.179	1	23
627.348	1	4
627.518	1	15
627.688	1	16
627.857	1	20
628.027	1	24
628.196	1	23
628.366	1	14
628.536	1	17
628.705	1	17
628.875	1	7
629.044	1	8
629.214	1	17
629.384	1	28
629.553	1	14
629.723	1	18
629.892	1	23
630.062	1	18
630.232	1	24
630.401	1	18
630.571	1	16
630.740	1	2
630.910	1	23
631.079	1	23
631.249	1	13
631.419	1	18
631.588	1	27
631.758	1	17
631.927	1	25
632.097	1	17
632.266	1	32
632.436	1	20
632.606	1	19
632.775	1	27
632.945	1	15
633.114	1	7
633.284	1	25
633.453	1	25
633.623	1	27
633.793	1	19
633.962	1	20
634.132	1	23
634.301	1	29
634.471	1	19
634.640	1	9
634.810	1	27
634.979	1	22
635.149	1	14
635.319	1	33
635.488	1	18
635.658	1	17
635.827	1	13
635.997	1	17
636.166	1	19
636.336	1	13
636.505	1	28
636.675	1	22
636.845	1	22
637.014	1	20
637.184	1	17
637.353	1	20
637.523	1	25
637.692	1	24
637.862	1	10
638.031	1	23
638.201	1	23
638.370	1	20
638.540	1	20
638.710	1	11
638.879	1	17
639.049	1	25
639.218	1	23
639.388	1	16
639.557	1	26
639.727	1	17
639.896	1	19
640.066	1	12
640.235	1	15
640.405	1	28
640.574	1	17
640.744	1	11
640.914	1	25
641.083	1	24
641.253	1	16
641.422	1	19
641.592	1	28
641.761	1	22
641.931	1	36
642.100	1	9
642.270	1	36
642.439	1	28
642.609	1	22
642.778	1	26
642.948	1	35
643.117	1	23
643.287	1	20
643.456	1	14
643.626	1	13
643.795	1	21
643.965	1	24
644.134	1	20
644.304	1	18
644.473	1	21
644.643	1	19
644.812	1	18
644.982	1	21
645.151	1	25
645.321	1	38
645.490	1	28
645.660	1	24
645.829	1	26
645.999	1	16
646.168	1	38
646.338	1	19
646.507	1	22
646.677	1	29
646.846	1	37
647.016	1	36
647.185	1	32
647.355	1	35
647.524	1	28
647.694	1	18
647.863	1	27
648.033	1	35
648.202	1	41
648.372	1	18
648.541	1	22
648.711	1	26
648.880	1	29
649.050	1	18
649.219	1	21
649.389	1	20
649.558	1	25
649.728	1	15
649.897	1	30
650.067	1	24
650.236	1	12
650.406	1	25
650.575	1	25
650.745	1	28
650.914	1	34
651.084	1	33
651.253	1	27
651.423	1	20
651.592	1	29
651.762	1	27
651.931	1	32
652.101	1	19
652.270	1	23
652.440	1	31
652.609	1	32
652.778	1	26
652.948	1	29
653.117	1	28
653.287	1	16
653.456	1	19
653.626	1	28
653.795	1	22
653.965	1	13
654.134	1	18
654.304	1	21
654.473	1	31
654.643	1	20
654.812	1	36
654.982	1	23
655.151	1	34
655.320	1	23
655.490	1	15
655.659	1	29
655.829	1	26
655.998	1	17
656.168	1	24
656.337	1	22
656.507	1	23
656.676	1	26
656.846	1	14
657.015	1	40
657.184	1	25
657.354	1	25
657.523	1	25
657.693	1	28
657.862	1	16
658.032	1	22
658.201	1	22
658.371	1	25
658.540	1	15
658.709	1	40
658.879	1	37
659.048	1	30
659.218	1	25
659.387	1	21
659.557	1	34
659.726	1	32
659.895	1	29
660.065	1	27
660.234	1	35
660.404	1	33
660.573	1	28
660.743	1	32
660.912	1	32
661.081	1	33
661.251	1	29
661.420	1	31
661.590	1	26
661.759	1	37
661.929	1	26
662.098	1	36
662.267	1	30
662.437	1	35
662.606	1	32
662.776	1	28
662.945	1	40
663.115	1	44
663.284	1	40
663.453	1	18
663.623	1	20
663.792	1	37
663.962	1	34
664.131	1	19
664.300	1	34
664.470	1	24
664.639	1	27
664.809	1	31
664.978	1	46
665.148	1	27
665.317	1	36
665.486	1	27
665.656	1	34
665.825	1	41
665.995	1	23
666.164	1	26
666.333	1	36
666.503	1	23
666.672	1	36
666.842	1	32
667.011	1	34
667.180	1	27
667.350	1	34
667.519	1	38
667.689	1	31
667.858	1	33
668.027	1	18
668.197	1	23
668.366	1	25
668.536	1	26
668.705	1	29
668.874	1	38
669.044	1	31
669.213	1	40
669.382	1	37
669.552	1	34
669.721	1	21
669.891	1	30
670.060	1	26
670.229	1	33
670.399	1	33
670.568	1	39
670.738	1	32
670.907	1	33
671.076	1	32
671.246	1	37
671.415	1	45
671.584	1	31
671.754	1	23
671.923	1	28
672.093	1	26
672.262	1	27
672.431	1	34
672.601	1	27
672.770	1	32
672.939	1	37
673.109	1	31
673.278	1	32
673.448	1	34
673.617	1	41
673.786	1	24
