325.333	1	6
325.504	1	-1
325.675	1	6
325.846	1	0
326.017	1	5
326.188	1	0
326.359	1	6
326.531	1	-12
326.702	1	7
326.873	1	18
327.044	1	1
327.215	1	-3
327.386	1	-4
327.557	1	1
327.728	1	2
327.899	1	8
328.070	1	19
328.241	1	3
328.412	1	-4
328.583	1	-4
328.754	1	17
328.926	1	13
329.097	1	-5
329.268	1	7
329.439	1	5
329.610	1	1
329.781	1	10
329.952	1	10
330.123	1	0
330.294	1	1
330.465	1	-5
330.636	1	6
330.807	1	8
330.978	1	3
331.149	1	6
331.320	1	0
331.492	1	6
331.663	1	5
331.834	1	6
332.005	1	11
332.176	1	6
332.347	1	-13
332.518	1	7
332.689	1	11
332.860	1	13
333.031	1	7
333.202	1	-2
333.373	1	10
333.544	1	6
333.715	1	-1
333.886	1	3
334.057	1	5
334.228	1	14
334.399	1	7
334.570	1	19
334.741	1	10
334.912	1	-1
335.084	1	14
335.255	1	13
335.426	1	6
335.597	1	1
335.768	1	11
335.939	1	6
336.110	1	6
336.281	1	1
336.452	1	3
336.623	1	0
336.794	1	2
336.965	1	6
337.136	1	11
337.307	1	0
337.478	1	6
337.649	1	3
337.820	1	-2
337.991	1	1
338.162	1	8
338.333	1	4
338.504	1	6
338.675	1	6
338.846	1	-10
339.017	1	3
339.188	1	9
339.359	1	2
339.530	1	-5
339.701	1	9
339.872	1	16
340.043	1	10
340.214	1	17
340.385	1	0
340.556	1	10
340.727	1	7
340.898	1	6
341.069	1	6
341.240	1	-2
341.411	1	16
341.582	1	0
341.753	1	4
341.924	1	19
342.095	1	6
342.266	1	19
342.437	1	5
342.608	1	3
342.779	1	-2
342.950	1	10
343.121	1	13
343.292	1	7
343.463	1	16
343.634	1	9
343.805	1	12
343.976	1	16
344.147	1	14
344.318	1	3
344.489	1	-2
344.660	1	3
344.831	1	20
345.002	1	6
345.173	1	3
345.344	1	4
345.515	1	9
345.686	1	8
345.857	1	17
346.028	1	11
346.199	1	5
346.370	1	7
346.541	1	6
346.712	1	9
346.883	1	12
347.054	1	12
347.225	1	16
347.396	1	1
347.567	1	2
347.738	1	8
347.909	1	12
348.080	1	8
348.251	1	-4
348.422	1	21
348.593	1	3
348.764	1	1
348.935	1	2
349.106	1	6
349.277	1	4
349.448	1	7
349.619	1	19
349.790	1	20
349.961	1	-2
350.132	1	18
350.303	1	12
350.474	1	8
350.645	1	8
350.816	1	11
350.987	1	19
351.157	1	-4
351.328	1	3
351.499	1	14
351.670	1	10
351.841	1	14
352.012	1	21
352.183	1	25
352.354	1	7
352.525	1	4
352.696	1	5
352.867	1	11
353.038	1	11
353.209	1	14
353.380	1	17
353.551	1	15
353.722	1	15
353.893	1	19
354.064	1	8
354.235	1	1
354.406	1	6
354.576	1	12
354.747	1	10
354.918	1	18
355.089	1	9
355.260	1	17
355.431	1	3
355.602	1	16
355.773	1	9
355.944	1	20
356.115	1	17
356.286	1	17
356.457	1	15
356.628	1	10
356.799	1	19
356.970	1	25
357.141	1	17
357.311	1	23
357.482	1	8
357.653	1	13
357.824	1	20
357.995	1	17
358.166	1	1
358.337	1	3
358.508	1	33
358.679	1	8
358.850	1	18
359.021	1	23
359.192	1	19
359.363	1	9
359.533	1	5
359.704	1	13
359.875	1	4
360.046	1	24
360.217	1	15
360.388	1	31
360.559	1	16
360.730	1	10
360.901	1	21
361.072	1	10
361.243	1	15
361.414	1	17
361.584	1	18
361.755	1	20
361.926	1	15
362.097	1	13
362.268	1	31
362.439	1	8
362.610	1	19
362.781	1	4
362.952	1	23
363.123	1	5
363.293	1	13
363.464	1	10
363.635	1	19
363.806	1	18
363.977	1	17
364.148	1	19
364.319	1	8
364.490	1	20
364.661	1	22
364.832	1	20
365.002	1	9
365.173	1	15
365.344	1	20
365.515	1	15
365.686	1	16
365.857	1	20
366.028	1	16
366.199	1	23
366.370	1	16
366.540	1	19
366.711	1	11
366.882	1	10
367.053	1	18
367.224	1	20
367.395	1	24
367.566	1	19
367.737	1	1
367.908	1	14
368.078	1	3
368.249	1	17
368.420	1	14
368.591	1	19
368.762	1	19
368.933	1	11
369.104	1	21
369.274	1	23
369.445	1	20
369.616	1	9
369.787	1	20
369.958	1	18
370.129	1	12
370.300	1	8
370.471	1	19
370.641	1	18
370.812	1	16
370.983	1	12
371.154	1	18
371.325	1	12
371.496	1	15
371.667	1	18
371.837	1	10
372.008	1	14
372.179	1	16
372.350	1	18
372.521	1	21
372.692	1	32
372.863	1	18
373.033	1	22
373.204	1	21
373.375	1	12
373.546	1	11
373.717	1	9
373.888	1	10
374.059	1	17
374.229	1	25
374.400	1	18
374.571	1	10
374.742	1	17
374.913	1	9
375.084	1	7
375.254	1	6
375.425	1	18
375.596	1	22
375.767	1	17
375.938	1	9
376.109	1	13
376.279	1	11
376.450	1	10
376.621	1	32
376.792	1	22
376.963	1	23
377.134	1	21
377.304	1	15
377.475	1	10
377.646	1	9
377.817	1	28
377.988	1	23
378.159	1	26
378.329	1	24
378.500	1	21
378.671	1	12
378.842	1	23
379.013	1	18
379.184	1	20
379.354	1	17
379.525	1	26
379.696	1	22
379.867	1	9
380.038	1	12
380.209	1	13
380.379	1	24
380.550	1	17
380.721	1	25
380.892	1	6
381.063	1	26
381.233	1	21
381.404	1	16
381.575	1	19
381.746	1	20
381.917	1	17
382.087	1	29
382.258	1	27
382.429	1	12
382.600	1	23
382.771	1	22
382.941	1	21
383.112	1	23
383.283	1	21
383.454	1	10
383.625	1	26
383.795	1	12
383.966	1	25
384.137	1	31
384.308	1	26
384.479	1	12
384.649	1	22
384.820	1	22
384.991	1	17
385.162	1	36
385.333	1	18
385.503	1	11
385.674	1	23
385.845	1	25
386.016	1	27
386.187	1	21
386.357	1	43
386.528	1	21
386.699	1	20
386.870	1	20
387.041	1	39
387.211	1	28
387.382	1	18
387.553	1	24
387.724	1	18
387.894	1	18
388.065	1	20
388.236	1	12
388.407	1	23
388.578	1	24
388.748	1	34
388.919	1	15
389.090	1	37
389.261	1	31
389.431	1	7
389.602	1	26
389.773	1	28
389.944	1	15
390.114	1	28
390.285	1	24
390.456	1	6
390.627	1	14
390.798	1	16
390.968	1	28
391.139	1	26
391.310	1	12
391.481	1	19
391.651	1	32
391.822	1	28
391.993	1	21
392.164	1	28
392.334	1	19
392.505	1	31
392.676	1	16
392.847	1	27
393.017	1	10
393.188	1	25
393.359	1	37
393.530	1	34
393.700	1	18
393.871	1	36
394.042	1	4
394.213	1	24
394.383	1	25
394.554	1	6
394.725	1	26
394.896	1	34
395.066	1	17
395.237	1	30
395.408	1	21
395.579	1	26
395.749	1	34
395.920	1	24
396.091	1	24
396.262	1	29
396.432	1	14
396.603	1	26
396.774	1	22
396.945	1	25
397.115	1	33
397.286	1	27
397.457	1	24
397.627	1	25
397.798	1	38
397.969	1	30
398.140	1	18
398.310	1	27
398.481	1	28
398.652	1	20
398.823	1	26
398.993	1	18
399.164	1	28
399.335	1	29
399.505	1	16
399.676	1	24
399.847	1	27
400.018	1	24
400.188	1	23
400.359	1	36
400.530	1	26
400.700	1	17
400.871	1	37
401.042	1	24
401.213	1	20
401.383	1	24
401.554	1	26
401.725	1	21
401.895	1	29
402.066	1	35
402.237	1	24
402.408	1	30
402.578	1	40
402.749	1	21
402.920	1	26
403.090	1	22
403.261	1	25
403.432	1	29
403.603	1	30
403.773	1	34
403.944	1	33
404.115	1	35
404.285	1	31
404.456	1	34
404.627	1	32
404.797	1	31
404.968	1	33
405.139	1	30
405.310	1	23
405.480	1	23
405.651	1	27
405.822	1	33
405.992	1	34
406.163	1	22
406.334	1	25
406.504	1	26
406.675	1	23
406.846	1	30
407.016	1	36
407.187	1	32
407.358	1	16
407.528	1	33
407.699	1	30
407.870	1	31
408.041	1	28
408.211	1	34
408.382	1	32
408.553	1	34
408.723	1	43
408.894	1	30
409.065	1	40
409.235	1	25
409.406	1	27
409.577	1	27
409.747	1	35
409.918	1	27
410.089	1	46
410.259	1	25
410.430	1	20
410.601	1	32
410.771	1	34
410.942	1	24
411.113	1	32
411.283	1	26
411.454	1	39
411.625	1	33
411.795	1	37
411.966	1	28
412.137	1	37
412.307	1	36
412.478	1	35
412.649	1	20
412.819	1	36
412.990	1	31
413.161	1	17
413.331	1	25
413.502	1	22
413.672	1	28
413.843	1	40
414.014	1	29
414.184	1	31
414.355	1	38
414.526	1	34
414.696	1	29
414.867	1	19
415.038	1	29
415.208	1	20
415.379	1	24
415.550	1	33
415.720	1	24
415.891	1	30
416.062	1	29
416.232	1	28
416.403	1	30
416.573	1	29
416.744	1	25
416.915	1	33
417.085	1	36
417.256	1	25
417.427	1	30
417.597	1	22
417.768	1	26
417.939	1	29
418.109	1	29
418.280	1	26
418.450	1	34
418.621	1	25
418.792	1	27
418.962	1	35
419.133	1	34
419.304	1	35
419.474	1	26
419.645	1	32
419.815	1	31
419.986	1	39
420.157	1	28
420.327	1	25
420.498	1	32
420.669	1	38
420.839	1	37
421.010	1	31
421.180	1	20
421.351	1	32
421.522	1	31
421.692	1	34
421.863	1	37
422.033	1	28
422.204	1	32
422.375	1	30
422.545	1	38
422.716	1	24
422.886	1	37
423.057	1	32
423.228	1	28
423.398	1	28
423.569	1	29
423.740	1	26
423.910	1	30
424.081	1	23
424.251	1	33
424.422	1	36
424.593	1	30
424.763	1	34
424.934	1	25
425.104	1	35
425.275	1	17
425.445	1	25
425.616	1	36
425.787	1	16
425.957	1	28
426.128	1	23
426.298	1	26
426.469	1	19
426.640	1	16
426.810	1	12
426.981	1	38
427.151	1	22
427.322	1	31
427.493	1	25
427.663	1	35
427.834	1	18
428.004	1	34
428.175	1	22
428.345	1	15
428.516	1	25
428.687	1	33
428.857	1	27
429.028	1	18
429.198	1	34
429.369	1	19
429.540	1	29
429.710	1	30
429.881	1	23
430.051	1	23
430.222	1	29
430.392	1	26
430.563	1	18
430.734	1	31
430.904	1	36
431.075	1	26
431.245	1	33
431.416	1	33
431.586	1	19
431.757	1	21
431.927	1	31
432.098	1	28
432.269	1	14
432.439	1	24
432.610	1	30
432.780	1	20
432.951	1	31
433.121	1	27
433.292	1	28
433.462	1	35
433.633	1	18
433.804	1	29
433.974	1	29
434.145	1	15
434.315	1	26
434.486	1	21
434.656	1	32
434.827	1	33
434.997	1	32
435.168	1	33
435.339	1	39
435.509	1	29
435.680	1	29
435.850	1	17
436.021	1	17
436.191	1	24
436.362	1	30
436.532	1	23
436.703	1	33
436.873	1	27
437.044	1	32
437.214	1	14
437.385	1	15
437.556	1	32
437.726	1	23
437.897	1	17
438.067	1	35
438.238	1	16
438.408	1	18
438.579	1	27
438.749	1	20
438.920	1	30
439.090	1	19
439.261	1	11
439.431	1	14
439.602	1	26
439.772	1	23
439.943	1	18
440.113	1	20
440.284	1	18
440.455	1	21
440.625	1	20
440.796	1	19
440.966	1	34
441.137	1	30
441.307	1	25
441.478	1	29
441.648	1	18
441.819	1	12
441.989	1	40
442.160	1	25
442.330	1	29
442.501	1	19
442.671	1	17
442.842	1	27
443.012	1	11
443.183	1	22
443.353	1	30
443.524	1	17
443.694	1	15
443.865	1	29
444.035	1	17
444.206	1	25
444.376	1	17
444.547	1	22
444.717	1	16
444.888	1	5
445.058	1	9
445.229	1	18
445.399	1	26
445.570	1	16
445.740	1	27
445.911	1	33
446.081	1	27
446.252	1	18
446.422	1	25
446.593	1	23
446.763	1	12
446.934	1	22
447.104	1	15
447.275	1	14
447.445	1	33
447.616	1	12
447.786	1	18
447.957	1	19
448.127	1	10
448.298	1	22
448.468	1	21
448.639	1	9
448.809	1	7
448.979	1	33
449.150	1	22
449.320	1	22
449.491	1	26
449.661	1	7
449.832	1	15
450.002	1	27
450.173	1	29
450.343	1	13
450.514	1	24
450.684	1	22
450.855	1	21
451.025	1	18
451.196	1	10
451.366	1	22
451.537	1	26
451.707	1	30
451.878	1	17
452.048	1	16
452.218	1	23
452.389	1	20
452.559	1	19
452.730	1	12
452.900	1	17
453.071	1	31
453.241	1	22
453.412	1	13
453.582	1	33
453.753	1	20
453.923	1	16
454.093	1	16
454.264	1	28
454.434	1	10
454.605	1	17
454.775	1	19
454.946	1	8
455.116	1	21
455.287	1	4
455.457	1	16
455.628	1	7
455.798	1	24
455.968	1	12
456.139	1	23
456.309	1	17
456.480	1	19
456.650	1	21
456.821	1	17
456.991	1	12
457.161	1	22
457.332	1	8
457.502	1	12
457.673	1	13
457.843	1	13
458.014	1	13
458.184	1	23
458.355	1	20
458.525	1	15
458.695	1	9
458.866	1	3
459.036	1	14
459.207	1	18
459.377	1	5
459.548	1	12
459.718	1	15
459.888	1	13
460.059	1	14
460.229	1	9
460.400	1	17
460.570	1	1
460.740	1	20
460.911	1	7
461.081	1	30
461.252	1	15
461.422	1	13
461.593	1	24
461.763	1	27
461.933	1	15
462.104	1	2
462.274	1	7
462.445	1	12
462.615	1	28
462.785	1	22
462.956	1	6
463.126	1	16
463.297	1	17
463.467	1	25
463.638	1	16
463.808	1	20
463.978	1	7
464.149	1	12
464.319	1	15
464.490	1	13
464.660	1	-1
464.830	1	8
465.001	1	15
465.171	1	12
465.342	1	15
465.512	1	20
465.682	1	4
465.853	1	8
466.023	1	12
466.194	1	20
466.364	1	25
466.534	1	8
466.705	1	22
466.875	1	10
467.045	1	2
467.216	1	12
467.386	1	14
467.557	1	29
467.727	1	9
467.897	1	15
468.068	1	8
468.238	1	10
468.409	1	21
468.579	1	9
468.749	1	9
468.920	1	-6
469.090	1	26
469.260	1	8
469.431	1	3
469.601	1	14
469.772	1	20
469.942	1	20
470.112	1	3
470.283	1	17
470.453	1	22
470.623	1	12
470.794	1	11
470.964	1	2
471.135	1	28
471.305	1	5
471.475	1	13
471.646	1	18
471.816	1	15
471.986	1	16
472.157	1	10
472.327	1	13
472.497	1	11
472.668	1	14
472.838	1	12
473.009	1	22
473.179	1	11
473.349	1	6
473.520	1	21
473.690	1	9
473.860	1	2
474.031	1	-10
474.201	1	11
474.371	1	20
474.542	1	16
474.712	1	13
474.882	1	16
475.053	1	6
475.223	1	14
475.394	1	8
475.564	1	11
475.734	1	0
475.905	1	17
476.075	1	26
476.245	1	8
476.416	1	6
476.586	1	14
476.756	1	8
476.927	1	3
477.097	1	12
477.267	1	21
477.438	1	17
477.608	1	20
477.778	1	6
477.949	1	14
478.119	1	21
478.289	1	11
478.460	1	14
478.630	1	4
478.800	1	6
478.971	1	15
479.141	1	16
479.311	1	16
479.482	1	7
479.652	1	8
479.822	1	0
479.993	1	5
480.163	1	13
480.333	1	11
480.504	1	9
480.674	1	13
480.844	1	12
481.015	1	10
481.185	1	21
481.355	1	8
481.525	1	4
481.696	1	6
481.866	1	5
482.036	1	11
482.207	1	18
482.377	1	11
482.547	1	16
482.718	1	10
482.888	1	17
483.058	1	8
483.229	1	20
483.399	1	17
483.569	1	10
483.740	1	5
483.910	1	0
484.080	1	13
484.250	1	6
484.421	1	2
484.591	1	4
484.761	1	13
484.932	1	2
485.102	1	13
485.272	1	8
485.443	1	4
485.613	1	6
485.783	1	4
485.953	1	6
486.124	1	13
486.294	1	21
486.464	1	18
486.635	1	9
486.805	1	11
486.975	1	9
487.146	1	15
487.316	1	18
487.486	1	13
487.656	1	11
487.827	1	2
487.997	1	2
488.167	1	11
488.338	1	10
488.508	1	14
488.678	1	7
488.848	1	6
489.019	1	5
489.189	1	17
489.359	1	8
489.529	1	13
489.700	1	13
489.870	1	10
490.040	1	-2
490.211	1	-1
490.381	1	15
490.551	1	7
490.721	1	3
490.892	1	1
491.062	1	13
491.232	1	13
491.402	1	2
491.573	1	15
491.743	1	13
491.913	1	14
492.084	1	13
492.254	1	6
492.424	1	8
492.594	1	8
492.765	1	22
492.935	1	11
493.105	1	3
493.275	1	6
493.446	1	-3
493.616	1	3
493.786	1	17
493.956	1	13
494.127	1	10
494.297	1	-1
494.467	1	4
494.637	1	5
494.808	1	17
494.978	1	8
495.148	1	7
495.318	1	5
495.489	1	9
495.659	1	13
495.829	1	15
495.999	1	16
496.170	1	13
496.340	1	3
496.510	1	14
496.680	1	4
496.851	1	17
497.021	1	4
497.191	1	10
497.361	1	3
497.532	1	11
497.702	1	7
497.872	1	3
498.042	1	4
498.213	1	4
498.383	1	5
498.553	1	9
498.723	1	10
498.894	1	17
499.064	1	3
499.234	1	7
499.404	1	14
499.574	1	13
499.745	1	5
499.915	1	11
500.085	1	10
500.255	1	-5
500.426	1	6
500.596	1	4
500.766	1	-2
500.936	1	9
501.106	1	1
501.277	1	0
501.447	1	11
501.617	1	7
501.787	1	-2
501.958	1	13
502.128	1	6
502.298	1	13
502.468	1	-2
502.638	1	7
502.809	1	-6
502.979	1	13
503.149	1	6
503.319	1	12
503.489	1	-8
503.660	1	-12
503.830	1	6
504.000	1	5
504.170	1	9
504.340	1	-5
504.511	1	1
504.681	1	8
504.851	1	4
505.021	1	11
505.192	1	6
505.362	1	10
505.532	1	0
505.702	1	17
505.872	1	5
506.043	1	11
506.213	1	14
506.383	1	2
506.553	1	0
506.723	1	-10
506.893	1	14
507.064	1	21
507.234	1	1
507.404	1	1
507.574	1	2
507.744	1	5
507.915	1	4
508.085	1	2
508.255	1	3
508.425	1	3
508.595	1	7
508.766	1	3
508.936	1	14
509.106	1	5
509.276	1	10
509.446	1	5
509.616	1	5
509.787	1	-11
509.957	1	4
510.127	1	-2
510.297	1	-15
510.467	1	9
510.638	1	2
510.808	1	15
510.978	1	2
511.148	1	7
511.318	1	5
511.488	1	-4
511.659	1	-2
511.829	1	-2
511.999	1	11
512.169	1	11
512.339	1	14
512.509	1	8
512.680	1	9
512.850	1	7
513.020	1	7
513.190	1	-3
513.360	1	4
513.530	1	8
513.700	1	3
513.871	1	7
514.041	1	6
514.211	1	6
514.381	1	14
514.551	1	-1
514.721	1	1
514.892	1	1
515.062	1	2
515.232	1	-1
515.402	1	6
515.572	1	12
515.742	1	7
515.912	1	7
516.083	1	7
516.253	1	15
516.423	1	2
516.593	1	7
516.763	1	1
516.933	1	4
517.104	1	1
517.274	1	10
517.444	1	4
517.614	1	-5
517.784	1	2
517.954	1	2
518.124	1	8
518.294	1	5
518.465	1	4
518.635	1	1
518.805	1	5
518.975	1	5
519.145	1	15
519.315	1	2
519.485	1	-4
519.656	1	1
519.826	1	2
519.996	1	1
520.166	1	1
520.336	1	7
520.506	1	8
520.676	1	9
520.846	1	6
521.017	1	4
521.187	1	4
521.357	1	6
521.527	1	6
521.697	1	-7
521.867	1	3
522.037	1	11
522.207	1	8
522.377	1	11
522.548	1	0
522.718	1	-9
522.888	1	7
523.058	1	-1
523.228	1	-5
523.398	1	-4
523.568	1	-1
523.738	1	2
523.909	1	7
524.079	1	4
524.249	1	-3
524.419	1	2
524.589	1	6
524.759	1	9
524.929	1	2
525.099	1	2
525.269	1	2
525.439	1	4
525.610	1	10
525.780	1	-1
525.950	1	6
526.120	1	1
526.290	1	-2
526.460	1	-8
526.630	1	4
526.800	1	-4
526.970	1	6
527.140	1	6
527.311	1	12
527.481	1	7
527.651	1	10
527.821	1	6
527.991	1	-3
528.161	1	6
528.331	1	-4
528.501	1	7
528.671	1	5
528.841	1	8
529.011	1	9
529.181	1	2
529.352	1	3
529.522	1	-1
529.692	1	4
529.862	1	-2
530.032	1	-5
530.202	1	-2
530.372	1	0
530.542	1	5
530.712	1	7
530.882	1	3
531.052	1	0
531.222	1	5
531.392	1	3
531.563	1	2
531.733	1	2
531.903	1	-4
532.073	1	6
532.243	1	-1
532.413	1	20
532.583	1	1
532.753	1	4
532.923	1	0
533.093	1	-7
533.263	1	7
533.433	1	-2
533.603	1	4
533.773	1	1
533.943	1	5
534.113	1	4
534.284	1	7
534.454	1	5
534.624	1	8
534.794	1	8
534.964	1	-3
535.134	1	4
535.304	1	5
535.474	1	10
535.644	1	6
535.814	1	9
535.984	1	-3
536.154	1	-2
536.324	1	9
536.494	1	8
536.664	1	-3
536.834	1	4
537.004	1	0
537.174	1	7
537.344	1	5
537.514	1	-2
537.685	1	8
537.855	1	7
538.025	1	11
538.195	1	-2
538.365	1	-2
538.535	1	1
538.705	1	2
538.875	1	3
539.045	1	0
539.215	1	-6
539.385	1	6
539.555	1	-1
539.725	1	10
539.895	1	3
540.065	1	9
540.235	1	2
540.405	1	-1
540.575	1	-1
540.745	1	12
540.915	1	6
541.085	1	-5
541.255	1	1
541.425	1	-1
541.595	1	10
541.765	1	5
541.935	1	-5
542.105	1	0
542.275	1	3
542.445	1	5
542.615	1	-6
542.785	1	1
542.955	1	10
543.125	1	-1
543.295	1	-7
543.465	1	17
543.635	1	-8
543.805	1	4
543.975	1	2
544.145	1	-2
544.315	1	-10
544.485	1	-3
544.655	1	0
544.825	1	2
544.995	1	7
545.165	1	4
545.335	1	2
545.505	1	-2
545.675	1	17
545.845	1	0
546.015	1	2
546.185	1	3
546.355	1	0
546.525	1	14
546.695	1	9
546.865	1	4
547.035	1	1
547.205	1	11
547.375	1	11
547.545	1	9
547.715	1	5
547.885	1	-5
548.055	1	-2
548.225	1	10
548.395	1	5
548.565	1	5
548.735	1	-8
548.905	1	3
549.075	1	5
549.245	1	6
549.415	1	3
549.585	1	0
549.755	1	2
549.925	1	0
550.095	1	-5
550.265	1	0
550.435	1	5
550.605	1	4
550.775	1	2
550.945	1	1
551.115	1	6
551.285	1	-3
551.455	1	9
551.625	1	-1
551.795	1	-7
551.965	1	-1
552.135	1	-5
552.305	1	2
552.475	1	10
552.645	1	-5
552.815	1	8
552.985	1	-6
553.155	1	-1
553.325	1	10
553.495	1	9
553.665	1	-10
553.835	1	4
554.004	1	5
554.174	1	-5
554.344	1	10
554.514	1	2
554.684	1	10
554.854	1	-8
555.024	1	9
555.194	1	8
555.364	1	6
555.534	1	-8
555.704	1	-4
555.874	1	-2
556.044	1	9
556.214	1	-3
556.384	1	8
556.554	1	2
556.724	1	-7
556.894	1	-2
557.064	1	-3
557.234	1	5
557.404	1	-4
557.573	1	-4
557.743	1	-6
557.913	1	0
558.083	1	5
558.253	1	-3
558.423	1	-5
558.593	1	4
558.763	1	6
558.933	1	2
559.103	1	-6
559.273	1	-2
559.443	1	0
559.613	1	6
559.783	1	-4
559.953	1	-1
560.122	1	3
560.292	1	-16
560.462	1	-2
560.632	1	-4
560.802	1	5
560.972	1	-12
561.142	1	7
561.312	1	-10
561.482	1	5
561.652	1	10
561.822	1	3
561.992	1	-4
562.162	1	-4
562.331	1	-4
562.501	1	-3
562.671	1	-4
562.841	1	-13
563.011	1	7
563.181	1	0
563.351	1	-3
563.521	1	0
563.691	1	0
563.861	1	4
564.031	1	-5
564.201	1	-1
564.370	1	-3
564.540	1	1
564.710	1	5
564.880	1	-1
565.050	1	-2
565.220	1	14
565.390	1	-2
565.560	1	8
565.730	1	9
565.900	1	3
566.069	1	16
566.239	1	8
566.409	1	8
566.579	1	-1
566.749	1	0
566.919	1	-6
567.089	1	-3
567.259	1	5
567.429	1	-9
567.599	1	9
567.768	1	4
567.938	1	5
568.108	1	2
568.278	1	2
568.448	1	-3
568.618	1	1
568.788	1	-7
568.958	1	-7
569.128	1	-2
569.297	1	1
569.467	1	11
569.637	1	9
569.807	1	-1
569.977	1	6
570.147	1	2
570.317	1	6
570.487	1	-2
570.656	1	1
570.826	1	-2
570.996	1	10
571.166	1	-5
571.336	1	-3
571.506	1	-1
571.676	1	2
571.846	1	-1
572.015	1	6
572.185	1	4
572.355	1	-2
572.525	1	-13
572.695	1	0
572.865	1	1
573.035	1	6
573.205	1	3
573.374	1	6
573.544	1	-3
573.714	1	3
573.884	1	-4
574.054	1	-1
574.224	1	-2
574.394	1	3
574.563	1	0
574.733	1	-5
574.903	1	11
575.073	1	2
575.243	1	5
575.413	1	-7
575.583	1	-5
575.752	1	-2
575.922	1	20
576.092	1	-5
576.262	1	9
576.432	1	1
576.602	1	-1
576.772	1	10
576.941	1	1
577.111	1	6
577.281	1	-1
577.451	1	6
577.621	1	-1
577.791	1	5
577.960	1	1
578.130	1	7
578.300	1	2
578.470	1	-9
578.640	1	-4
578.810	1	2
578.979	1	-10
579.149	1	-3
579.319	1	2
579.489	1	7
579.659	1	-6
579.829	1	0
579.998	1	-8
580.168	1	4
580.338	1	4
580.508	1	6
580.678	1	-1
580.848	1	-2
581.017	1	-3
581.187	1	1
581.357	1	3
581.527	1	-10
581.697	1	-2
581.867	1	3
582.036	1	-3
582.206	1	12
582.376	1	-5
582.546	1	-8
582.716	1	4
582.885	1	3
583.055	1	-8
583.225	1	4
583.395	1	-8
583.565	1	10
583.735	1	3
583.904	1	6
584.074	1	-5
584.244	1	-3
584.414	1	5
584.584	1	5
584.753	1	9
584.923	1	1
585.093	1	-1
585.263	1	2
585.433	1	-8
585.602	1	1
585.772	1	10
585.942	1	-10
586.112	1	6
586.282	1	-1
586.451	1	9
586.621	1	-1
586.791	1	-12
586.961	1	-8
587.131	1	-6
587.300	1	8
587.470	1	1
587.640	1	-3
587.810	1	-6
587.980	1	0
588.149	1	6
588.319	1	11
588.489	1	1
588.659	1	-3
588.829	1	1
588.998	1	-4
589.168	1	3
589.338	1	0
589.508	1	1
589.677	1	2
589.847	1	4
590.017	1	-2
590.187	1	1
590.357	1	3
590.526	1	-3
590.696	1	10
590.866	1	-12
591.036	1	5
591.205	1	0
591.375	1	7
591.545	1	-4
591.715	1	1
591.885	1	6
592.054	1	8
592.224	1	-7
592.394	1	-14
592.564	1	-9
592.733	1	1
592.903	1	2
593.073	1	-7
593.243	1	16
593.412	1	-9
593.582	1	3
593.752	1	0
593.922	1	-1
594.091	1	-2
594.261	1	-3
594.431	1	6
594.601	1	1
594.771	1	-2
594.940	1	-3
595.110	1	-4
595.280	1	-3
595.450	1	-7
595.619	1	3
595.789	1	6
595.959	1	-5
596.129	1	4
596.298	1	10
596.468	1	1
596.638	1	-2
596.808	1	-2
596.977	1	-4
597.147	1	-2
597.317	1	-5
597.487	1	2
597.656	1	5
597.826	1	11
597.996	1	-4
598.166	1	10
598.335	1	-4
598.505	1	-2
598.675	1	0
598.844	1	11
599.014	1	-11
599.184	1	-6
599.354	1	9
599.523	1	-2
599.693	1	4
599.863	1	-1
600.033	1	-7
600.202	1	5
600.372	1	-6
600.542	1	-4
600.712	1	-6
600.881	1	8
601.051	1	5
601.221	1	11
601.390	1	-4
601.560	1	12
601.730	1	-1
601.900	1	0
602.069	1	-5
602.239	1	4
602.409	1	-3
602.578	1	7
602.748	1	14
602.918	1	-5
603.088	1	0
603.257	1	-2
603.427	1	-1
603.597	1	0
603.767	1	6
603.936	1	9
604.106	1	-3
604.276	1	1
604.445	1	-12
604.615	1	2
604.785	1	4
604.954	1	-3
605.124	1	4
605.294	1	-1
605.464	1	0
605.633	1	5
605.803	1	6
605.973	1	-4
606.142	1	7
606.312	1	10
606.482	1	1
606.652	1	-1
606.821	1	-1
606.991	1	-2
607.161	1	2
607.330	1	-2
607.500	1	6
607.670	1	-3
607.839	1	-10
608.009	1	-1
608.179	1	3
608.348	1	11
608.518	1	6
608.688	1	4
608.858	1	-6
609.027	1	13
609.197	1	5
609.367	1	-6
609.536	1	-5
609.706	1	5
609.876	1	13
610.045	1	2
610.215	1	4
610.385	1	0
610.554	1	9
610.724	1	0
610.894	1	3
611.063	1	4
611.233	1	8
611.403	1	11
611.572	1	4
611.742	1	4
611.912	1	-6
612.081	1	7
612.251	1	1
612.421	1	-6
612.590	1	4
612.760	1	6
612.930	1	6
613.099	1	6
613.269	1	5
613.439	1	-7
613.608	1	0
613.778	1	1
613.948	1	8
614.117	1	3
614.287	1	0
614.457	1	-1
614.626	1	-5
614.796	1	6
614.966	1	-6
615.135	1	9
615.305	1	0
615.475	1	-7
615.644	1	14
615.814	1	7
615.984	1	0
616.153	1	3
616.323	1	1
616.493	1	-4
616.662	1	3
616.832	1	-5
617.002	1	4
617.171	1	0
617.341	1	5
617.511	1	-15
617.680	1	-1
617.850	1	-1
618.019	1	7
618.189	1	11
618.359	1	5
618.528	1	0
618.698	1	6
618.868	1	4
619.037	1	5
619.207	1	-5
619.377	1	-4
619.546	1	12
619.716	1	-1
619.885	1	4
620.055	1	0
620.225	1	15
620.394	1	3
620.564	1	4
620.734	1	0
620.903	1	-12
621.073	1	7
621.242	1	7
621.412	1	2
621.582	1	1
621.751	1	-8
621.921	1	0
622.091	1	5
622.260	1	7
622.430	1	8
622.599	1	5
622.769	1	-13
622.939	1	-2
623.108	1	1
623.278	1	-7
623.448	1	-6
623.617	1	-3
623.787	1	5
623.956	1	3
624.126	1	9
624.296	1	4
624.465	1	5
624.635	1	-1
624.804	1	-9
624.974	1	-6
625.144	1	-1
625.313	1	14
625.483	1	8
625.652	1	-7
625.822	1	12
625.992	1	7
626.161	1	-11
626.331	1	-1
626.501	1	3
626.670	1	-2
626.840	1	3
627.009	1	-1
627.179	1	-1
627.348	1	2
627.518	1	14
627.688	1	-1
627.857	1	11
628.027	1	9
628.196	1	5
628.366	1	-7
628.536	1	-5
628.705	1	-2
628.875	1	-6
629.044	1	-6
629.214	1	6
629.384	1	12
629.553	1	-6
629.723	1	0
629.892	1	0
630.062	1	9
630.232	1	6
630.401	1	8
630.571	1	-4
630.740	1	7
630.910	1	12
631.079	1	-4
631.249	1	3
631.419	1	0
631.588	1	1
631.758	1	-5
631.927	1	11
632.097	1	-2
632.266	1	10
632.436	1	6
632.606	1	9
632.775	1	-2
632.945	1	-3
633.114	1	-6
633.284	1	-1
633.453	1	6
633.623	1	9
633.793	1	-1
633.962	1	8
634.132	1	11
634.301	1	16
634.471	1	-1
634.640	1	-10
634.810	1	8
634.979	1	0
635.149	1	3
635.319	1	-2
635.488	1	6
635.658	1	-3
635.827	1	1
635.997	1	4
636.166	1	0
636.336	1	3
636.505	1	11
636.675	1	0
636.845	1	-2
637.014	1	-4
637.184	1	5
637.353	1	3
637.523	1	2
637.692	1	-3
637.862	1	-4
638.031	1	-8
638.201	1	9
638.370	1	2
638.540	1	0
638.710	1	-3
638.879	1	6
639.049	1	-7
639.218	1	12
639.388	1	0
639.557	1	0
639.727	1	8
639.896	1	3
640.066	1	5
640.235	1	0
640.405	1	-5
640.574	1	9
640.744	1	-9
640.914	1	-2
641.083	1	1
641.253	1	-2
641.422	1	-5
641.592	1	11
641.761	1	2
641.931	1	16
642.100	1	1
642.270	1	2
642.439	1	0
642.609	1	8
642.778	1	0
642.948	1	11
643.117	1	4
643.287	1	2
643.456	1	-3
643.626	1	-1
643.795	1	3
643.965	1	-3
644.134	1	-1
644.304	1	-4
644.473	1	-5
644.643	1	7
644.812	1	-6
644.982	1	7
645.151	1	5
645.321	1	12
645.490	1	6
645.660	1	-2
645.829	1	12
645.999	1	-4
646.168	1	14
646.338	1	-3
646.507	1	7
646.677	1	2
646.846	1	0
647.016	1	12
647.185	1	6
647.355	1	8
647.524	1	-5
647.694	1	-6
647.863	1	-2
648.033	1	6
648.202	1	7
648.372	1	1
648.541	1	1
648.711	1	3
648.880	1	3
649.050	1	1
649.219	1	3
649.389	1	2
649.558	1	12
649.728	1	-5
649.897	1	12
650.067	1	9
650.236	1	7
650.406	1	3
650.575	1	-1
650.745	1	1
650.914	1	14
651.084	1	4
651.253	1	5
651.423	1	-7
651.592	1	3
651.762	1	-2
651.931	1	6
652.101	1	4
652.270	1	5
652.440	1	3
652.609	1	6
652.778	1	3
652.948	1	6
653.117	1	-2
653.287	1	-13
653.456	1	-5
653.626	1	4
653.795	1	2
653.965	1	1
654.134	1	-7
654.304	1	8
654.473	1	5
654.643	1	3
654.812	1	20
654.982	1	3
655.151	1	8
655.320	1	11
655.490	1	-3
655.659	1	1
655.829	1	4
655.998	1	2
656.168	1	1
656.337	1	3
656.507	1	-6
656.676	1	1
656.846	1	1
657.015	1	1
657.184	1	-6
657.354	1	3
657.523	1	-8
657.693	1	5
657.862	1	-8
658.032	1	8
658.201	1	-9
658.371	1	0
658.540	1	-6
658.709	1	13
658.879	1	12
659.048	1	15
659.218	1	2
659.387	1	4
659.557	1	8
659.726	1	5
659.895	1	12
660.065	1	-3
660.234	1	-1
660.404	1	-3
660.573	1	7
660.743	1	-2
660.912	1	8
661.081	1	-8
661.251	1	0
661.420	1	2
661.590	1	2
661.759	1	9
661.929	1	2
662.098	1	8
662.267	1	-2
662.437	1	8
662.606	1	-9
662.776	1	7
662.945	1	0
663.115	1	12
663.284	1	0
663.453	1	-3
663.623	1	-4
663.792	1	8
663.962	1	14
664.131	1	-4
664.300	1	-7
664.470	1	-6
664.639	1	7
664.809	1	10
664.978	1	14
665.148	1	3
665.317	1	6
665.486	1	10
665.656	1	-1
665.825	1	9
665.995	1	1
666.164	1	4
666.333	1	2
666.503	1	-4
666.672	1	1
666.842	1	1
667.011	1	-1
667.180	1	0
667.350	1	9
667.519	1	3
667.689	1	6
667.858	1	14
668.027	1	2
668.197	1	-9
668.366	1	0
668.536	1	-2
668.705	1	1
668.874	1	6
669.044	1	9
669.213	1	2
669.382	1	8
669.552	1	4
669.721	1	-1
669.891	1	-7
670.060	1	-7
670.229	1	6
670.399	1	6
670.568	1	7
670.738	1	-3
670.907	1	12
671.076	1	-2
671.246	1	15
671.415	1	10
671.584	1	2
671.754	1	-7
671.923	1	6
672.093	1	2
672.262	1	-4
672.431	1	2
672.601	1	5
672.770	1	-1
672.939	1	6
673.109	1	4
673.278	1	5
673.448	1	3
673.617	1	5
673.786	1	-11
