325.333	1	5
325.504	1	-3
325.675	1	11
325.846	1	9
326.017	1	3
326.188	1	7
326.359	1	9
326.531	1	-5
326.702	1	0
326.873	1	8
327.044	1	4
327.215	1	8
327.386	1	7
327.557	1	0
327.728	1	1
327.899	1	8
328.070	1	7
328.241	1	-7
328.412	1	-3
328.583	1	-7
328.754	1	12
328.926	1	9
329.097	1	-4
329.268	1	9
329.439	1	17
329.610	1	5
329.781	1	17
329.952	1	-6
330.123	1	1
330.294	1	0
330.465	1	-2
330.636	1	-2
330.807	1	5
330.978	1	7
331.149	1	-5
331.320	1	0
331.492	1	3
331.663	1	2
331.834	1	11
332.005	1	5
332.176	1	10
332.347	1	4
332.518	1	6
332.689	1	18
332.860	1	6
333.031	1	8
333.202	1	-4
333.373	1	10
333.544	1	11
333.715	1	4
333.886	1	4
334.057	1	-2
334.228	1	7
334.399	1	8
334.570	1	2
334.741	1	4
334.912	1	11
335.084	1	14
335.255	1	13
335.426	1	2
335.597	1	7
335.768	1	11
335.939	1	3
336.110	1	13
336.281	1	2
336.452	1	11
336.623	1	-1
336.794	1	-1
336.965	1	-2
337.136	1	14
337.307	1	-5
337.478	1	-6
337.649	1	7
337.820	1	6
337.991	1	5
338.162	1	1
338.333	1	8
338.504	1	1
338.675	1	-5
338.846	1	-3
339.017	1	10
339.188	1	6
339.359	1	15
339.530	1	-5
339.701	1	10
339.872	1	9
340.043	1	9
340.214	1	12
340.385	1	4
340.556	1	10
340.727	1	10
340.898	1	10
341.069	1	4
341.240	1	3
341.411	1	12
341.582	1	5
341.753	1	7
341.924	1	14
342.095	1	-3
342.266	1	14
342.437	1	6
342.608	1	13
342.779	1	15
342.950	1	7
343.121	1	2
343.292	1	5
343.463	1	15
343.634	1	11
343.805	1	10
343.976	1	15
344.147	1	11
344.318	1	7
344.489	1	10
344.660	1	11
344.831	1	12
345.002	1	6
345.173	1	14
345.344	1	4
345.515	1	6
345.686	1	16
345.857	1	17
346.028	1	5
346.199	1	6
346.370	1	8
346.541	1	6
346.712	1	0
346.883	1	7
347.054	1	10
347.225	1	5
347.396	1	5
347.567	1	-5
347.738	1	6
347.909	1	16
348.080	1	0
348.251	1	1
348.422	1	4
348.593	1	8
348.764	1	7
348.935	1	6
349.106	1	0
349.277	1	6
349.448	1	8
349.619	1	4
349.790	1	17
349.961	1	6
350.132	1	15
350.303	1	13
350.474	1	7
350.645	1	3
350.816	1	7
350.987	1	16
351.157	1	13
351.328	1	-1
351.499	1	21
351.670	1	4
351.841	1	15
352.012	1	10
352.183	1	13
352.354	1	2
352.525	1	12
352.696	1	-8
352.867	1	14
353.038	1	15
353.209	1	6
353.380	1	15
353.551	1	11
353.722	1	11
353.893	1	18
354.064	1	10
354.235	1	6
354.406	1	-1
354.576	1	13
354.747	1	12
354.918	1	1
355.089	1	20
355.260	1	5
355.431	1	9
355.602	1	9
355.773	1	4
355.944	1	9
356.115	1	19
356.286	1	5
356.457	1	17
356.628	1	8
356.799	1	15
356.970	1	16
357.141	1	9
357.311	1	20
357.482	1	1
357.653	1	1
357.824	1	14
357.995	1	14
358.166	1	5
358.337	1	2
358.508	1	26
358.679	1	8
358.850	1	13
359.021	1	4
359.192	1	28
359.363	1	10
359.533	1	10
359.704	1	0
359.875	1	5
360.046	1	11
360.217	1	13
360.388	1	23
360.559	1	20
360.730	1	15
360.901	1	4
361.072	1	15
361.243	1	14
361.414	1	8
361.584	1	-2
361.755	1	9
361.926	1	23
362.097	1	14
362.268	1	16
362.439	1	12
362.610	1	18
362.781	1	9
362.952	1	6
363.123	1	7
363.293	1	17
363.464	1	14
363.635	1	24
363.806	1	17
363.977	1	11
364.148	1	5
364.319	1	4
364.490	1	13
364.661	1	7
364.832	1	14
365.002	1	17
365.173	1	7
365.344	1	15
365.515	1	21
365.686	1	17
365.857	1	17
366.028	1	17
366.199	1	9
366.370	1	12
366.540	1	17
366.711	1	16
366.882	1	17
367.053	1	16
367.224	1	17
367.395	1	13
367.566	1	15
367.737	1	9
367.908	1	17
368.078	1	3
368.249	1	16
368.420	1	17
368.591	1	24
368.762	1	15
368.933	1	2
369.104	1	11
369.274	1	24
369.445	1	14
369.616	1	12
369.787	1	15
369.958	1	11
370.129	1	8
370.300	1	4
370.471	1	20
370.641	1	7
370.812	1	20
370.983	1	15
371.154	1	17
371.325	1	12
371.496	1	7
371.667	1	16
371.837	1	19
372.008	1	17
372.179	1	7
372.350	1	22
372.521	1	15
372.692	1	21
372.863	1	10
373.033	1	24
373.204	1	8
373.375	1	17
373.546	1	10
373.717	1	11
373.888	1	13
374.059	1	12
374.229	1	29
374.400	1	9
374.571	1	7
374.742	1	22
374.913	1	0
375.084	1	10
375.254	1	11
375.425	1	16
375.596	1	6
375.767	1	26
375.938	1	8
376.109	1	4
376.279	1	21
376.450	1	11
376.621	1	23
376.792	1	12
376.963	1	16
377.134	1	7
377.304	1	19
377.475	1	7
377.646	1	5
377.817	1	20
377.988	1	11
378.159	1	25
378.329	1	10
378.500	1	25
378.671	1	11
378.842	1	23
379.013	1	7
379.184	1	17
379.354	1	21
379.525	1	22
379.696	1	15
379.867	1	17
380.038	1	19
380.209	1	25
380.379	1	25
380.550	1	7
380.721	1	19
380.892	1	7
381.063	1	17
381.233	1	11
381.404	1	21
381.575	1	19
381.746	1	18
381.917	1	11
382.087	1	17
382.258	1	18
382.429	1	13
382.600	1	10
382.771	1	22
382.941	1	25
383.112	1	21
383.283	1	19
383.454	1	8
383.625	1	16
383.795	1	16
383.966	1	30
384.137	1	24
384.308	1	8
384.479	1	14
384.649	1	22
384.820	1	19
384.991	1	23
385.162	1	21
385.333	1	15
385.503	1	17
385.674	1	11
385.845	1	17
386.016	1	24
386.187	1	4
386.357	1	27
386.528	1	11
386.699	1	22
386.870	1	19
387.041	1	12
387.211	1	29
387.382	1	25
387.553	1	22
387.724	1	16
387.894	1	3
388.065	1	21
388.236	1	10
388.407	1	18
388.578	1	21
388.748	1	23
388.919	1	13
389.090	1	27
389.261	1	25
389.431	1	7
389.602	1	18
389.773	1	12
389.944	1	19
390.114	1	18
390.285	1	20
390.456	1	19
390.627	1	16
390.798	1	23
390.968	1	20
391.139	1	15
391.310	1	21
391.481	1	20
391.651	1	21
391.822	1	37
391.993	1	17
392.164	1	21
392.334	1	17
392.505	1	25
392.676	1	12
392.847	1	7
393.017	1	14
393.188	1	19
393.359	1	35
393.530	1	34
393.700	1	19
393.871	1	35
394.042	1	7
394.213	1	17
394.383	1	17
394.554	1	13
394.725	1	11
394.896	1	32
395.066	1	15
395.237	1	17
395.408	1	25
395.579	1	25
395.749	1	34
395.920	1	35
396.091	1	15
396.262	1	20
396.432	1	22
396.603	1	19
396.774	1	20
396.945	1	33
397.115	1	29
397.286	1	35
397.457	1	26
397.627	1	20
397.798	1	23
397.969	1	22
398.140	1	11
398.310	1	30
398.481	1	31
398.652	1	26
398.823	1	21
398.993	1	17
399.164	1	30
399.335	1	21
399.505	1	6
399.676	1	23
399.847	1	27
400.018	1	15
400.188	1	26
400.359	1	27
400.530	1	11
400.700	1	36
400.871	1	24
401.042	1	10
401.213	1	22
401.383	1	22
401.554	1	15
401.725	1	19
401.895	1	8
402.066	1	24
402.237	1	13
402.408	1	25
402.578	1	27
402.749	1	20
402.920	1	35
403.090	1	17
403.261	1	26
403.432	1	28
403.603	1	20
403.773	1	38
403.944	1	28
404.115	1	21
404.285	1	28
404.456	1	35
404.627	1	21
404.797	1	30
404.968	1	26
405.139	1	24
405.310	1	24
405.480	1	31
405.651	1	3
405.822	1	35
405.992	1	23
406.163	1	10
406.334	1	26
406.504	1	27
406.675	1	16
406.846	1	24
407.016	1	30
407.187	1	16
407.358	1	23
407.528	1	27
407.699	1	20
407.870	1	37
408.041	1	28
408.211	1	19
408.382	1	26
408.553	1	28
408.723	1	25
408.894	1	26
409.065	1	26
409.235	1	28
409.406	1	16
409.577	1	22
409.747	1	24
409.918	1	25
410.089	1	38
410.259	1	17
410.430	1	19
410.601	1	30
410.771	1	24
410.942	1	21
411.113	1	28
411.283	1	23
411.454	1	28
411.625	1	29
411.795	1	20
411.966	1	13
412.137	1	28
412.307	1	20
412.478	1	16
412.649	1	13
412.819	1	21
412.990	1	34
413.161	1	20
413.331	1	25
413.502	1	22
413.672	1	15
413.843	1	31
414.014	1	17
414.184	1	25
414.355	1	25
414.526	1	21
414.696	1	16
414.867	1	7
415.038	1	22
415.208	1	15
415.379	1	11
415.550	1	29
415.720	1	13
415.891	1	32
416.062	1	35
416.232	1	22
416.403	1	32
416.573	1	20
416.744	1	26
416.915	1	28
417.085	1	32
417.256	1	18
417.427	1	24
417.597	1	20
417.768	1	19
417.939	1	17
418.109	1	28
418.280	1	15
418.450	1	28
418.621	1	19
418.792	1	22
418.962	1	21
419.133	1	14
419.304	1	29
419.474	1	20
419.645	1	27
419.815	1	27
419.986	1	25
420.157	1	28
420.327	1	13
420.498	1	13
420.669	1	37
420.839	1	29
421.010	1	21
421.180	1	20
421.351	1	26
421.522	1	21
421.692	1	30
421.863	1	30
422.033	1	29
422.204	1	32
422.375	1	28
422.545	1	22
422.716	1	17
422.886	1	31
423.057	1	23
423.228	1	22
423.398	1	24
423.569	1	26
423.740	1	25
423.910	1	22
424.081	1	30
424.251	1	26
424.422	1	21
424.593	1	33
424.763	1	34
424.934	1	16
425.104	1	33
425.275	1	27
425.445	1	35
425.616	1	18
425.787	1	27
425.957	1	20
426.128	1	15
426.298	1	17
426.469	1	11
426.640	1	16
426.810	1	15
426.981	1	26
427.151	1	10
427.322	1	21
427.493	1	20
427.663	1	23
427.834	1	15
428.004	1	26
428.175	1	18
428.345	1	13
428.516	1	20
428.687	1	33
428.857	1	20
429.028	1	17
429.198	1	20
429.369	1	21
429.540	1	15
429.710	1	28
429.881	1	15
430.051	1	12
430.222	1	26
430.392	1	31
430.563	1	12
430.734	1	15
430.904	1	33
431.075	1	22
431.245	1	23
431.416	1	27
431.586	1	19
431.757	1	34
431.927	1	35
432.098	1	19
432.269	1	16
432.439	1	15
432.610	1	25
432.780	1	18
432.951	1	16
433.121	1	13
433.292	1	23
433.462	1	22
433.633	1	23
433.804	1	21
433.974	1	29
434.145	1	20
434.315	1	13
434.486	1	9
434.656	1	34
434.827	1	25
434.997	1	26
435.168	1	23
435.339	1	34
435.509	1	16
435.680	1	28
435.850	1	7
436.021	1	16
436.191	1	24
436.362	1	20
436.532	1	16
436.703	1	30
436.873	1	14
437.044	1	19
437.214	1	16
437.385	1	18
437.556	1	20
437.726	1	14
437.897	1	20
438.067	1	16
438.238	1	14
438.408	1	20
438.579	1	12
438.749	1	16
438.920	1	20
439.090	1	6
439.261	1	19
439.431	1	9
439.602	1	26
439.772	1	17
439.943	1	15
440.113	1	19
440.284	1	22
440.455	1	7
440.625	1	25
440.796	1	16
440.966	1	17
441.137	1	24
441.307	1	20
441.478	1	14
441.648	1	14
441.819	1	10
441.989	1	23
442.160	1	21
442.330	1	25
442.501	1	21
442.671	1	12
442.842	1	18
443.012	1	18
443.183	1	17
443.353	1	24
443.524	1	23
443.694	1	12
443.865	1	24
444.035	1	21
444.206	1	13
444.376	1	11
444.547	1	10
444.717	1	23
444.888	1	12
445.058	1	17
445.229	1	14
445.399	1	19
445.570	1	14
445.740	1	11
445.911	1	18
446.081	1	17
446.252	1	10
446.422	1	22
446.593	1	12
446.763	1	19
446.934	1	11
447.104	1	11
447.275	1	20
447.445	1	17
447.616	1	12
447.786	1	16
447.957	1	23
448.127	1	13
448.298	1	17
448.468	1	33
448.639	1	12
448.809	1	18
448.979	1	33
449.150	1	16
449.320	1	19
449.491	1	20
449.661	1	12
449.832	1	13
450.002	1	17
450.173	1	19
450.343	1	11
450.514	1	26
450.684	1	15
450.855	1	13
451.025	1	19
451.196	1	2
451.366	1	26
451.537	1	38
451.707	1	23
451.878	1	16
452.048	1	19
452.218	1	14
452.389	1	13
452.559	1	36
452.730	1	11
452.900	1	12
453.071	1	19
453.241	1	22
453.412	1	20
453.582	1	15
453.753	1	19
453.923	1	3
454.093	1	5
454.264	1	21
454.434	1	28
454.605	1	8
454.775	1	23
454.946	1	13
455.116	1	17
455.287	1	12
455.457	1	15
455.628	1	10
455.798	1	11
455.968	1	20
456.139	1	14
456.309	1	14
456.480	1	13
456.650	1	24
456.821	1	5
456.991	1	13
457.161	1	17
457.332	1	16
457.502	1	9
457.673	1	9
457.843	1	11
458.014	1	16
458.184	1	23
458.355	1	29
458.525	1	9
458.695	1	15
458.866	1	8
459.036	1	12
459.207	1	13
459.377	1	19
459.548	1	16
459.718	1	11
459.888	1	13
460.059	1	20
460.229	1	11
460.400	1	5
460.570	1	7
460.740	1	14
460.911	1	8
461.081	1	13
461.252	1	17
461.422	1	4
461.593	1	14
461.763	1	23
461.933	1	8
462.104	1	13
462.274	1	9
462.445	1	20
462.615	1	24
462.785	1	22
462.956	1	3
463.126	1	10
463.297	1	8
463.467	1	21
463.638	1	17
463.808	1	12
463.978	1	-2
464.149	1	15
464.319	1	13
464.490	1	9
464.660	1	19
464.830	1	10
465.001	1	14
465.171	1	6
465.342	1	15
465.512	1	17
465.682	1	7
465.853	1	5
466.023	1	17
466.194	1	17
466.364	1	27
466.534	1	-2
466.705	1	17
466.875	1	3
467.045	1	4
467.216	1	14
467.386	1	15
467.557	1	12
467.727	1	5
467.897	1	14
468.068	1	1
468.238	1	13
468.409	1	23
468.579	1	15
468.749	1	13
468.920	1	-1
469.090	1	17
469.260	1	10
469.431	1	6
469.601	1	16
469.772	1	16
469.942	1	11
470.112	1	4
470.283	1	8
470.453	1	18
470.623	1	15
470.794	1	7
470.964	1	5
471.135	1	16
471.305	1	5
471.475	1	14
471.646	1	16
471.816	1	12
471.986	1	14
472.157	1	12
472.327	1	23
472.497	1	4
472.668	1	10
472.838	1	17
473.009	1	7
473.179	1	6
473.349	1	3
473.520	1	17
473.690	1	6
473.860	1	9
474.031	1	4
474.201	1	9
474.371	1	23
474.542	1	2
474.712	1	5
474.882	1	7
475.053	1	18
475.223	1	15
475.394	1	5
475.564	1	11
475.734	1	6
475.905	1	20
476.075	1	19
476.245	1	16
476.416	1	6
476.586	1	1
476.756	1	17
476.927	1	9
477.097	1	14
477.267	1	12
477.438	1	26
477.608	1	22
477.778	1	2
477.949	1	6
478.119	1	17
478.289	1	7
478.460	1	6
478.630	1	3
478.800	1	6
478.971	1	12
479.141	1	10
479.311	1	15
479.482	1	12
479.652	1	4
479.822	1	-3
479.993	1	7
480.163	1	6
480.333	1	14
480.504	1	9
480.674	1	10
480.844	1	7
481.015	1	16
481.185	1	27
481.355	1	13
481.525	1	2
481.696	1	8
481.866	1	15
482.036	1	14
482.207	1	8
482.377	1	10
482.547	1	8
482.718	1	12
482.888	1	22
483.058	1	9
483.229	1	9
483.399	1	10
483.569	1	4
483.740	1	13
483.910	1	8
484.080	1	1
484.250	1	0
484.421	1	5
484.591	1	8
484.761	1	8
484.932	1	4
485.102	1	15
485.272	1	8
485.443	1	14
485.613	1	8
485.783	1	11
485.953	1	16
486.124	1	6
486.294	1	9
486.464	1	10
486.635	1	7
486.805	1	7
486.975	1	11
487.146	1	9
487.316	1	3
487.486	1	17
487.656	1	6
487.827	1	-4
487.997	1	7
488.167	1	10
488.338	1	7
488.508	1	14
488.678	1	4
488.848	1	13
489.019	1	4
489.189	1	13
489.359	1	5
489.529	1	8
489.700	1	5
489.870	1	15
490.040	1	8
490.211	1	6
490.381	1	-2
490.551	1	9
490.721	1	11
490.892	1	-1
491.062	1	-1
491.232	1	5
491.402	1	-1
491.573	1	12
491.743	1	7
491.913	1	9
492.084	1	3
492.254	1	9
492.424	1	4
492.594	1	-3
492.765	1	15
492.935	1	20
493.105	1	8
493.275	1	4
493.446	1	-1
493.616	1	-5
493.786	1	12
493.956	1	8
494.127	1	5
494.297	1	7
494.467	1	4
494.637	1	7
494.808	1	5
494.978	1	-2
495.148	1	0
495.318	1	5
495.489	1	-3
495.659	1	11
495.829	1	10
495.999	1	14
496.170	1	16
496.340	1	6
496.510	1	13
496.680	1	11
496.851	1	12
497.021	1	13
497.191	1	11
497.361	1	-1
497.532	1	2
497.702	1	13
497.872	1	6
498.042	1	6
498.213	1	-1
498.383	1	1
498.553	1	7
498.723	1	4
498.894	1	19
499.064	1	3
499.234	1	12
499.404	1	11
499.574	1	13
499.745	1	8
499.915	1	2
500.085	1	8
500.255	1	-4
500.426	1	10
500.596	1	-5
500.766	1	-5
500.936	1	-2
501.106	1	0
501.277	1	4
501.447	1	9
501.617	1	0
501.787	1	2
501.958	1	9
502.128	1	4
502.298	1	1
502.468	1	1
502.638	1	8
502.809	1	7
502.979	1	22
503.149	1	11
503.319	1	8
503.489	1	-7
503.660	1	4
503.830	1	15
504.000	1	2
504.170	1	-2
504.340	1	-2
504.511	1	8
504.681	1	6
504.851	1	-3
505.021	1	5
505.192	1	-2
505.362	1	2
505.532	1	1
505.702	1	22
505.872	1	5
506.043	1	7
506.213	1	2
506.383	1	4
506.553	1	-2
506.723	1	-9
506.893	1	12
507.064	1	7
507.234	1	8
507.404	1	6
507.574	1	-2
507.744	1	0
507.915	1	3
508.085	1	0
508.255	1	1
508.425	1	8
508.595	1	3
508.766	1	2
508.936	1	15
509.106	1	2
509.276	1	14
509.446	1	-4
509.616	1	2
509.787	1	1
509.957	1	1
510.127	1	0
510.297	1	-4
510.467	1	2
510.638	1	9
510.808	1	21
510.978	1	-1
511.148	1	-1
511.318	1	4
511.488	1	10
511.659	1	1
511.829	1	2
511.999	1	-1
512.169	1	12
512.339	1	13
512.509	1	0
512.680	1	7
512.850	1	7
513.020	1	6
513.190	1	-11
513.360	1	-1
513.530	1	-4
513.700	1	10
513.871	1	-3
514.041	1	3
514.211	1	10
514.381	1	10
514.551	1	-3
514.721	1	6
514.892	1	0
515.062	1	4
515.232	1	4
515.402	1	10
515.572	1	10
515.742	1	15
515.912	1	5
516.083	1	11
516.253	1	13
516.423	1	4
516.593	1	10
516.763	1	8
516.933	1	0
517.104	1	8
517.274	1	-2
517.444	1	12
517.614	1	-7
517.784	1	0
517.954	1	-5
518.124	1	7
518.294	1	0
518.465	1	9
518.635	1	15
518.805	1	10
518.975	1	5
519.145	1	1
519.315	1	8
519.485	1	-8
519.656	1	-5
519.826	1	-5
519.996	1	10
520.166	1	1
520.336	1	-2
520.506	1	3
520.676	1	7
520.846	1	3
521.017	1	-7
521.187	1	6
521.357	1	1
521.527	1	-4
521.697	1	-1
521.867	1	9
522.037	1	0
522.207	1	9
522.377	1	13
522.548	1	-5
522.718	1	1
522.888	1	2
523.058	1	8
523.228	1	-9
523.398	1	0
523.568	1	-5
523.738	1	8
523.909	1	1
524.079	1	1
524.249	1	-5
524.419	1	4
524.589	1	8
524.759	1	11
524.929	1	1
525.099	1	4
525.269	1	7
525.439	1	-1
525.610	1	7
525.780	1	3
525.950	1	8
526.120	1	-3
526.290	1	1
526.460	1	-2
526.630	1	4
526.800	1	-1
526.970	1	4
527.140	1	2
527.311	1	1
527.481	1	7
527.651	1	0
527.821	1	4
527.991	1	5
528.161	1	1
528.331	1	-11
528.501	1	4
528.671	1	6
528.841	1	8
529.011	1	2
529.181	1	4
529.352	1	3
529.522	1	5
529.692	1	8
529.862	1	-1
530.032	1	-6
530.202	1	-4
530.372	1	6
530.542	1	-3
530.712	1	8
530.882	1	-4
531.052	1	13
531.222	1	11
531.392	1	0
531.563	1	-3
531.733	1	6
531.903	1	5
532.073	1	1
532.243	1	11
532.413	1	16
532.583	1	1
532.753	1	-10
532.923	1	-1
533.093	1	-6
533.263	1	3
533.433	1	-5
533.603	1	9
533.773	1	1
533.943	1	3
534.113	1	-1
534.284	1	7
534.454	1	-6
534.624	1	4
534.794	1	7
534.964	1	8
535.134	1	2
535.304	1	3
535.474	1	3
535.644	1	3
535.814	1	3
535.984	1	-2
536.154	1	-2
536.324	1	-2
536.494	1	7
536.664	1	-1
536.834	1	7
537.004	1	3
537.174	1	5
537.344	1	-4
537.514	1	3
537.685	1	7
537.855	1	8
538.025	1	12
538.195	1	-6
538.365	1	8
538.535	1	3
538.705	1	-1
538.875	1	-2
539.045	1	2
539.215	1	-13
539.385	1	6
539.555	1	-3
539.725	1	4
539.895	1	0
540.065	1	3
540.235	1	-2
540.405	1	-1
540.575	1	6
540.745	1	7
540.915	1	4
541.085	1	-4
541.255	1	-4
541.425	1	10
541.595	1	1
541.765	1	4
541.935	1	5
542.105	1	0
542.275	1	7
542.445	1	-2
542.615	1	6
542.785	1	3
542.955	1	3
543.125	1	-8
543.295	1	6
543.465	1	6
543.635	1	-1
543.805	1	6
543.975	1	6
544.145	1	4
544.315	1	-8
544.485	1	-1
544.655	1	2
544.825	1	0
544.995	1	-1
545.165	1	-2
545.335	1	4
545.505	1	-2
545.675	1	4
545.845	1	2
546.015	1	-4
546.185	1	-4
546.355	1	1
546.525	1	7
546.695	1	-6
546.865	1	-2
547.035	1	3
547.205	1	10
547.375	1	14
547.545	1	12
547.715	1	5
547.885	1	-3
548.055	1	2
548.225	1	7
548.395	1	-1
548.565	1	5
548.735	1	4
548.905	1	2
549.075	1	-5
549.245	1	1
549.415	1	6
549.585	1	5
549.755	1	0
549.925	1	3
550.095	1	1
550.265	1	1
550.435	1	5
550.605	1	1
550.775	1	-9
550.945	1	0
551.115	1	10
551.285	1	3
551.455	1	2
551.625	1	0
551.795	1	1
551.965	1	-1
552.135	1	-8
552.305	1	7
552.475	1	1
552.645	1	-3
552.815	1	-4
552.985	1	-8
553.155	1	3
553.325	1	0
553.495	1	7
553.665	1	1
553.835	1	12
554.004	1	5
554.174	1	-7
554.344	1	-2
554.514	1	-10
554.684	1	1
554.854	1	-8
555.024	1	7
555.194	1	3
555.364	1	3
555.534	1	-4
555.704	1	10
555.874	1	1
556.044	1	8
556.214	1	-3
556.384	1	2
556.554	1	6
556.724	1	-3
556.894	1	-2
557.064	1	-11
557.234	1	1
557.404	1	7
557.573	1	3
557.743	1	-8
557.913	1	-1
558.083	1	8
558.253	1	4
558.423	1	-2
558.593	1	7
558.763	1	0
558.933	1	-3
559.103	1	5
559.273	1	8
559.443	1	3
559.613	1	-1
559.783	1	-3
559.953	1	-6
560.122	1	3
560.292	1	0
560.462	1	-4
560.632	1	-1
560.802	1	7
560.972	1	-9
561.142	1	6
561.312	1	-2
561.482	1	11
561.652	1	0
561.822	1	2
561.992	1	1
562.162	1	3
562.331	1	-12
562.501	1	3
562.671	1	-13
562.841	1	-10
563.011	1	2
563.181	1	-1
563.351	1	-5
563.521	1	-5
563.691	1	5
563.861	1	-3
564.031	1	-3
564.201	1	0
564.370	1	2
564.540	1	-8
564.710	1	2
564.880	1	7
565.050	1	2
565.220	1	-2
565.390	1	0
565.560	1	5
565.730	1	4
565.900	1	-3
566.069	1	17
566.239	1	12
566.409	1	1
566.579	1	5
566.749	1	4
566.919	1	-13
567.089	1	-13
567.259	1	1
567.429	1	-7
567.599	1	8
567.768	1	3
567.938	1	11
568.108	1	6
568.278	1	5
568.448	1	-2
568.618	1	6
568.788	1	3
568.958	1	-8
569.128	1	-2
569.297	1	7
569.467	1	9
569.637	1	4
569.807	1	9
569.977	1	-7
570.147	1	4
570.317	1	-3
570.487	1	-6
570.656	1	5
570.826	1	0
570.996	1	11
571.166	1	-3
571.336	1	6
571.506	1	-4
571.676	1	8
571.846	1	0
572.015	1	-1
572.185	1	-4
572.355	1	-1
572.525	1	-11
572.695	1	9
572.865	1	4
573.035	1	14
573.205	1	6
573.374	1	-11
573.544	1	-2
573.714	1	3
573.884	1	-7
574.054	1	3
574.224	1	-4
574.394	1	1
574.563	1	-5
574.733	1	5
574.903	1	4
575.073	1	-6
575.243	1	-10
575.413	1	-5
575.583	1	-5
575.752	1	-3
575.922	1	20
576.092	1	-8
576.262	1	1
576.432	1	-3
576.602	1	3
576.772	1	2
576.941	1	6
577.111	1	2
577.281	1	-5
577.451	1	2
577.621	1	-2
577.791	1	8
577.960	1	3
578.130	1	-5
578.300	1	1
578.470	1	5
578.640	1	4
578.810	1	-15
578.979	1	-4
579.149	1	-2
579.319	1	1
579.489	1	5
579.659	1	5
579.829	1	1
579.998	1	-12
580.168	1	-2
580.338	1	6
580.508	1	-2
580.678	1	-2
580.848	1	2
581.017	1	5
581.187	1	3
581.357	1	5
581.527	1	5
581.697	1	4
581.867	1	0
582.036	1	-10
582.206	1	-3
582.376	1	-1
582.546	1	-1
582.716	1	4
582.885	1	-8
583.055	1	-5
583.225	1	-4
583.395	1	2
583.565	1	9
583.735	1	10
583.904	1	-1
584.074	1	0
584.244	1	3
584.414	1	1
584.584	1	-1
584.753	1	6
584.923	1	-4
585.093	1	8
585.263	1	0
585.433	1	3
585.602	1	6
585.772	1	18
585.942	1	-6
586.112	1	2
586.282	1	5
586.451	1	10
586.621	1	-2
586.791	1	-5
586.961	1	3
587.131	1	-10
587.300	1	9
587.470	1	-5
587.640	1	3
587.810	1	-9
587.980	1	4
588.149	1	2
588.319	1	5
588.489	1	4
588.659	1	-8
588.829	1	-3
588.998	1	-2
589.168	1	0
589.338	1	0
589.508	1	-8
589.677	1	13
589.847	1	2
590.017	1	-6
590.187	1	-1
590.357	1	1
590.526	1	-6
590.696	1	8
590.866	1	1
591.036	1	6
591.205	1	0
591.375	1	2
591.545	1	-4
591.715	1	-4
591.885	1	6
592.054	1	14
592.224	1	-5
592.394	1	-4
592.564	1	11
592.733	1	3
592.903	1	-2
593.073	1	-6
593.243	1	6
593.412	1	-4
593.582	1	2
593.752	1	-12
593.922	1	7
594.091	1	1
594.261	1	1
594.431	1	-2
594.601	1	6
594.771	1	3
594.940	1	-1
595.110	1	0
595.280	1	-8
595.450	1	4
595.619	1	0
595.789	1	1
595.959	1	-1
596.129	1	-2
596.298	1	10
596.468	1	-2
596.638	1	-1
596.808	1	-3
596.977	1	-6
597.147	1	-1
597.317	1	6
597.487	1	5
597.656	1	-3
597.826	1	12
597.996	1	-1
598.166	1	3
598.335	1	-5
598.505	1	3
598.675	1	6
598.844	1	15
599.014	1	-5
599.184	1	2
599.354	1	6
599.523	1	3
599.693	1	5
599.863	1	6
600.033	1	-3
600.202	1	-2
600.372	1	-1
600.542	1	7
600.712	1	-4
600.881	1	0
601.051	1	4
601.221	1	2
601.390	1	2
601.560	1	8
601.730	1	5
601.900	1	3
602.069	1	1
602.239	1	-4
602.409	1	8
602.578	1	8
602.748	1	13
602.918	1	-4
603.088	1	3
603.257	1	-15
603.427	1	6
603.597	1	-3
603.767	1	4
603.936	1	2
604.106	1	1
604.276	1	0
604.445	1	-12
604.615	1	7
604.785	1	-6
604.954	1	5
605.124	1	4
605.294	1	-4
605.464	1	-3
605.633	1	5
605.803	1	3
605.973	1	6
606.142	1	6
606.312	1	8
606.482	1	-6
606.652	1	9
606.821	1	7
606.991	1	5
607.161	1	-7
607.330	1	-5
607.500	1	-2
607.670	1	-3
607.839	1	-3
608.009	1	1
608.179	1	7
608.348	1	3
608.518	1	5
608.688	1	-1
608.858	1	0
609.027	1	12
609.197	1	8
609.367	1	-9
609.536	1	-6
609.706	1	4
609.876	1	6
610.045	1	11
610.215	1	4
610.385	1	1
610.554	1	4
610.724	1	-11
610.894	1	3
611.063	1	9
611.233	1	2
611.403	1	5
611.572	1	-2
611.742	1	-6
611.912	1	-4
612.081	1	11
612.251	1	8
612.421	1	2
612.590	1	4
612.760	1	2
612.930	1	2
613.099	1	0
613.269	1	1
613.439	1	-14
613.608	1	5
613.778	1	4
613.948	1	14
614.117	1	1
614.287	1	-2
614.457	1	1
614.626	1	-2
614.796	1	-3
614.966	1	2
615.135	1	14
615.305	1	2
615.475	1	-2
615.644	1	9
615.814	1	9
615.984	1	4
616.153	1	-7
616.323	1	-1
616.493	1	0
616.662	1	-8
616.832	1	0
617.002	1	-3
617.171	1	-4
617.341	1	10
617.511	1	-2
617.680	1	2
617.850	1	-3
618.019	1	-8
618.189	1	15
618.359	1	3
618.528	1	5
618.698	1	1
618.868	1	2
619.037	1	-2
619.207	1	-4
619.377	1	-1
619.546	1	3
619.716	1	2
619.885	1	7
620.055	1	-3
620.225	1	8
620.394	1	-2
620.564	1	0
620.734	1	-1
620.903	1	-8
621.073	1	8
621.242	1	0
621.412	1	-9
621.582	1	7
621.751	1	0
621.921	1	12
622.091	1	-1
622.260	1	3
622.430	1	5
622.599	1	0
622.769	1	-3
622.939	1	-3
623.108	1	1
623.278	1	6
623.448	1	3
623.617	1	6
623.787	1	-6
623.956	1	-5
624.126	1	3
624.296	1	3
624.465	1	5
624.635	1	9
624.804	1	-3
624.974	1	-4
625.144	1	-4
625.313	1	11
625.483	1	6
625.652	1	-4
625.822	1	0
625.992	1	-2
626.161	1	1
626.331	1	3
626.501	1	-2
626.670	1	3
626.840	1	0
627.009	1	5
627.179	1	-2
627.348	1	2
627.518	1	10
627.688	1	2
627.857	1	4
628.027	1	10
628.196	1	11
628.366	1	-12
628.536	1	2
628.705	1	-8
628.875	1	-1
629.044	1	-1
629.214	1	-3
629.384	1	14
629.553	1	-3
629.723	1	8
629.892	1	0
630.062	1	4
630.232	1	8
630.401	1	5
630.571	1	-5
630.740	1	2
630.910	1	5
631.079	1	1
631.249	1	4
631.419	1	3
631.588	1	3
631.758	1	-4
631.927	1	8
632.097	1	0
632.266	1	9
632.436	1	-3
632.606	1	6
632.775	1	-1
632.945	1	2
633.114	1	-6
633.284	1	-4
633.453	1	1
633.623	1	5
633.793	1	0
633.962	1	7
634.132	1	13
634.301	1	8
634.471	1	-3
634.640	1	-4
634.810	1	5
634.979	1	0
635.149	1	-2
635.319	1	-3
635.488	1	8
635.658	1	-3
635.827	1	-1
635.997	1	-3
636.166	1	-1
636.336	1	-7
636.505	1	12
636.675	1	0
636.845	1	4
637.014	1	-5
637.184	1	5
637.353	1	-5
637.523	1	1
637.692	1	2
637.862	1	-2
638.031	1	-2
638.201	1	10
638.370	1	2
638.540	1	-4
638.710	1	0
638.879	1	1
639.049	1	-1
639.218	1	6
639.388	1	3
639.557	1	2
639.727	1	6
639.896	1	-1
640.066	1	-2
640.235	1	4
640.405	1	1
640.574	1	3
640.744	1	-1
640.914	1	0
641.083	1	8
641.253	1	-6
641.422	1	0
641.592	1	-4
641.761	1	-5
641.931	1	9
642.100	1	5
642.270	1	7
642.439	1	13
642.609	1	6
642.778	1	-11
642.948	1	17
643.117	1	6
643.287	1	0
643.456	1	-5
643.626	1	2
643.795	1	2
643.965	1	2
644.134	1	5
644.304	1	6
644.473	1	5
644.643	1	0
644.812	1	-2
644.982	1	-6
645.151	1	3
645.321	1	1
645.490	1	11
645.660	1	-5
645.829	1	3
645.999	1	-9
646.168	1	20
646.338	1	-9
646.507	1	4
646.677	1	-1
646.846	1	3
647.016	1	3
647.185	1	3
647.355	1	18
647.524	1	-1
647.694	1	-9
647.863	1	-4
648.033	1	4
648.202	1	6
648.372	1	-1
648.541	1	2
648.711	1	8
648.880	1	8
649.050	1	0
649.219	1	0
649.389	1	-5
649.558	1	12
649.728	1	-9
649.897	1	7
650.067	1	5
650.236	1	0
650.406	1	-2
650.575	1	6
650.745	1	2
650.914	1	2
651.084	1	2
651.253	1	2
651.423	1	-4
651.592	1	-4
651.762	1	-1
651.931	1	8
652.101	1	-4
652.270	1	3
652.440	1	3
652.609	1	0
652.778	1	-2
652.948	1	7
653.117	1	0
653.287	1	-5
653.456	1	-7
653.626	1	-7
653.795	1	-5
653.965	1	1
654.134	1	-7
654.304	1	5
654.473	1	-2
654.643	1	5
654.812	1	12
654.982	1	10
655.151	1	8
655.320	1	-1
655.490	1	7
655.659	1	4
655.829	1	3
655.998	1	9
656.168	1	4
656.337	1	-3
656.507	1	-5
656.676	1	2
656.846	1	7
657.015	1	15
657.184	1	-5
657.354	1	6
657.523	1	5
657.693	1	7
657.862	1	-1
658.032	1	-4
658.201	1	-8
658.371	1	-6
658.540	1	-2
658.709	1	9
658.879	1	9
659.048	1	10
659.218	1	4
659.387	1	7
659.557	1	7
659.726	1	3
659.895	1	-5
660.065	1	-11
660.234	1	-5
660.404	1	7
660.573	1	4
660.743	1	-7
660.912	1	1
661.081	1	-1
661.251	1	-5
661.420	1	5
661.590	1	-5
661.759	1	3
661.929	1	-1
662.098	1	-5
662.267	1	-13
662.437	1	-2
662.606	1	-2
662.776	1	-2
662.945	1	6
663.115	1	10
663.284	1	9
663.453	1	3
663.623	1	-1
663.792	1	7
663.962	1	9
664.131	1	-5
664.300	1	-6
664.470	1	4
664.639	1	2
664.809	1	4
664.978	1	17
665.148	1	14
665.317	1	9
665.486	1	-9
665.656	1	2
665.825	1	2
665.995	1	-8
666.164	1	-1
666.333	1	4
666.503	1	-8
666.672	1	5
666.842	1	7
667.011	1	7
667.180	1	-3
667.350	1	6
667.519	1	8
667.689	1	-4
667.858	1	1
668.027	1	-4
668.197	1	-3
668.366	1	2
668.536	1	1
668.705	1	-1
668.874	1	11
669.044	1	10
669.213	1	4
669.382	1	-1
669.552	1	-2
669.721	1	0
669.891	1	-1
670.060	1	8
670.229	1	4
670.399	1	10
670.568	1	19
670.738	1	4
670.907	1	7
671.076	1	-4
671.246	1	7
671.415	1	13
671.584	1	-1
671.754	1	-9
671.923	1	-1
672.093	1	15
672.262	1	-9
672.431	1	8
672.601	1	1
672.770	1	6
672.939	1	5
673.109	1	-4
673.278	1	3
673.448	1	-1
673.617	1	-3
673.786	1	-14
