325.333	1	21
325.504	1	10
325.675	1	23
325.846	1	32
326.017	1	22
326.188	1	23
326.359	1	38
326.531	1	13
326.702	1	23
326.873	1	33
327.044	1	25
327.215	1	12
327.386	1	26
327.557	1	19
327.728	1	17
327.899	1	35
328.070	1	34
328.241	1	27
328.412	1	30
328.583	1	27
328.754	1	41
328.926	1	39
329.097	1	19
329.268	1	35
329.439	1	33
329.610	1	36
329.781	1	31
329.952	1	31
330.123	1	20
330.294	1	32
330.465	1	17
330.636	1	33
330.807	1	22
330.978	1	26
331.149	1	34
331.320	1	27
331.492	1	39
331.663	1	34
331.834	1	33
332.005	1	33
332.176	1	36
332.347	1	30
332.518	1	34
332.689	1	30
332.860	1	19
333.031	1	37
333.202	1	42
333.373	1	43
333.544	1	36
333.715	1	31
333.886	1	29
334.057	1	35
334.228	1	44
334.399	1	46
334.570	1	40
334.741	1	38
334.912	1	35
335.084	1	48
335.255	1	47
335.426	1	55
335.597	1	32
335.768	1	52
335.939	1	56
336.110	1	51
336.281	1	30
336.452	1	42
336.623	1	39
336.794	1	35
336.965	1	45
337.136	1	53
337.307	1	34
337.478	1	42
337.649	1	34
337.820	1	49
337.991	1	42
338.162	1	37
338.333	1	44
338.504	1	52
338.675	1	44
338.846	1	39
339.017	1	49
339.188	1	39
339.359	1	47
339.530	1	43
339.701	1	44
339.872	1	55
340.043	1	50
340.214	1	52
340.385	1	52
340.556	1	56
340.727	1	56
340.898	1	51
341.069	1	42
341.240	1	46
341.411	1	59
341.582	1	43
341.753	1	46
341.924	1	75
342.095	1	45
342.266	1	64
342.437	1	45
342.608	1	56
342.779	1	52
342.950	1	49
343.121	1	57
343.292	1	54
343.463	1	50
343.634	1	54
343.805	1	48
343.976	1	71
344.147	1	63
344.318	1	58
344.489	1	63
344.660	1	64
344.831	1	67
345.002	1	59
345.173	1	65
345.344	1	61
345.515	1	54
345.686	1	59
345.857	1	68
346.028	1	64
346.199	1	63
346.370	1	60
346.541	1	54
346.712	1	62
346.883	1	61
347.054	1	67
347.225	1	56
347.396	1	63
347.567	1	55
347.738	1	71
347.909	1	74
348.080	1	68
348.251	1	64
348.422	1	61
348.593	1	60
348.764	1	61
348.935	1	75
349.106	1	69
349.277	1	67
349.448	1	70
349.619	1	56
349.790	1	70
349.961	1	65
350.132	1	78
350.303	1	76
350.474	1	85
350.645	1	84
350.816	1	64
350.987	1	88
351.157	1	72
351.328	1	75
351.499	1	71
351.670	1	70
351.841	1	66
352.012	1	66
352.183	1	83
352.354	1	84
352.525	1	87
352.696	1	78
352.867	1	89
353.038	1	75
353.209	1	82
353.380	1	72
353.551	1	87
353.722	1	80
353.893	1	73
354.064	1	85
354.235	1	77
354.406	1	75
354.576	1	67
354.747	1	87
354.918	1	76
355.089	1	81
355.260	1	73
355.431	1	77
355.602	1	78
355.773	1	75
355.944	1	87
356.115	1	84
356.286	1	88
356.457	1	82
356.628	1	78
356.799	1	88
356.970	1	93
357.141	1	78
357.311	1	96
357.482	1	72
357.653	1	76
357.824	1	96
357.995	1	99
358.166	1	96
358.337	1	75
358.508	1	99
358.679	1	90
358.850	1	92
359.021	1	82
359.192	1	98
359.363	1	91
359.533	1	81
359.704	1	82
359.875	1	85
360.046	1	92
360.217	1	102
360.388	1	104
360.559	1	108
360.730	1	83
360.901	1	96
361.072	1	92
361.243	1	108
361.414	1	110
361.584	1	94
361.755	1	85
361.926	1	104
362.097	1	85
362.268	1	95
362.439	1	81
362.610	1	99
362.781	1	80
362.952	1	95
363.123	1	87
363.293	1	82
363.464	1	98
363.635	1	94
363.806	1	94
363.977	1	97
364.148	1	95
364.319	1	88
364.490	1	99
364.661	1	98
364.832	1	91
365.002	1	99
365.173	1	93
365.344	1	96
365.515	1	97
365.686	1	107
365.857	1	100
366.028	1	101
366.199	1	94
366.370	1	106
366.540	1	96
366.711	1	104
366.882	1	93
367.053	1	111
367.224	1	101
367.395	1	105
367.566	1	112
367.737	1	109
367.908	1	100
368.078	1	98
368.249	1	100
368.420	1	99
368.591	1	101
368.762	1	117
368.933	1	102
369.104	1	104
369.274	1	108
369.445	1	111
369.616	1	95
369.787	1	105
369.958	1	104
370.129	1	96
370.300	1	95
370.471	1	105
370.641	1	93
370.812	1	106
370.983	1	103
371.154	1	101
371.325	1	99
371.496	1	102
371.667	1	106
371.837	1	96
372.008	1	89
372.179	1	88
372.350	1	104
372.521	1	106
372.692	1	112
372.863	1	96
373.033	1	100
373.204	1	105
373.375	1	108
373.546	1	104
373.717	1	98
373.888	1	96
374.059	1	92
374.229	1	104
374.400	1	101
374.571	1	98
374.742	1	102
374.913	1	99
375.084	1	103
375.254	1	98
375.425	1	118
375.596	1	111
375.767	1	108
375.938	1	94
376.109	1	110
376.279	1	115
376.450	1	112
376.621	1	120
376.792	1	106
376.963	1	118
377.134	1	111
377.304	1	111
377.475	1	108
377.646	1	106
377.817	1	129
377.988	1	113
378.159	1	112
378.329	1	105
378.500	1	121
378.671	1	108
378.842	1	124
379.013	1	122
379.184	1	117
379.354	1	122
379.525	1	122
379.696	1	113
379.867	1	124
380.038	1	120
380.209	1	120
380.379	1	124
380.550	1	109
380.721	1	111
380.892	1	115
381.063	1	123
381.233	1	125
381.404	1	109
381.575	1	112
381.746	1	120
381.917	1	111
382.087	1	122
382.258	1	119
382.429	1	114
382.600	1	114
382.771	1	117
382.941	1	118
383.112	1	131
383.283	1	123
383.454	1	132
383.625	1	118
383.795	1	118
383.966	1	139
384.137	1	127
384.308	1	118
384.479	1	125
384.649	1	143
384.820	1	123
384.991	1	123
385.162	1	136
385.333	1	124
385.503	1	115
385.674	1	127
385.845	1	132
386.016	1	146
386.187	1	125
386.357	1	155
386.528	1	131
386.699	1	132
386.870	1	130
387.041	1	142
387.211	1	130
387.382	1	143
387.553	1	139
387.724	1	135
387.894	1	114
388.065	1	146
388.236	1	121
388.407	1	138
388.578	1	146
388.748	1	138
388.919	1	146
389.090	1	154
389.261	1	146
389.431	1	124
389.602	1	135
389.773	1	135
389.944	1	132
390.114	1	135
390.285	1	141
390.456	1	128
390.627	1	128
390.798	1	125
390.968	1	138
391.139	1	125
391.310	1	129
391.481	1	138
391.651	1	133
391.822	1	146
391.993	1	128
392.164	1	147
392.334	1	132
392.505	1	142
392.676	1	135
392.847	1	141
393.017	1	140
393.188	1	126
393.359	1	147
393.530	1	140
393.700	1	133
393.871	1	154
394.042	1	132
394.213	1	145
394.383	1	142
394.554	1	145
394.725	1	138
394.896	1	153
395.066	1	154
395.237	1	138
395.408	1	144
395.579	1	156
395.749	1	147
395.920	1	156
396.091	1	141
396.262	1	150
396.432	1	151
396.603	1	150
396.774	1	141
396.945	1	156
397.115	1	143
397.286	1	152
397.457	1	147
397.627	1	142
397.798	1	145
397.969	1	153
398.140	1	141
398.310	1	155
398.481	1	156
398.652	1	147
398.823	1	146
398.993	1	147
399.164	1	144
399.335	1	136
399.505	1	130
399.676	1	144
399.847	1	149
400.018	1	161
400.188	1	143
400.359	1	164
400.530	1	161
400.700	1	140
400.871	1	157
401.042	1	143
401.213	1	148
401.383	1	160
401.554	1	148
401.725	1	138
401.895	1	149
402.066	1	152
402.237	1	132
402.408	1	162
402.578	1	157
402.749	1	148
402.920	1	166
403.090	1	143
403.261	1	147
403.432	1	142
403.603	1	152
403.773	1	150
403.944	1	152
404.115	1	151
404.285	1	163
404.456	1	143
404.627	1	175
404.797	1	148
404.968	1	161
405.139	1	156
405.310	1	134
405.480	1	164
405.651	1	152
405.822	1	160
405.992	1	166
406.163	1	167
406.334	1	158
406.504	1	161
406.675	1	165
406.846	1	155
407.016	1	168
407.187	1	153
407.358	1	151
407.528	1	162
407.699	1	172
407.870	1	167
408.041	1	151
408.211	1	170
408.382	1	173
408.553	1	156
408.723	1	171
408.894	1	172
409.065	1	172
409.235	1	165
409.406	1	167
409.577	1	159
409.747	1	177
409.918	1	171
410.089	1	173
410.259	1	156
410.430	1	145
410.601	1	163
410.771	1	172
410.942	1	169
411.113	1	171
411.283	1	175
411.454	1	185
411.625	1	169
411.795	1	151
411.966	1	170
412.137	1	179
412.307	1	164
412.478	1	159
412.649	1	154
412.819	1	162
412.990	1	173
413.161	1	151
413.331	1	167
413.502	1	155
413.672	1	154
413.843	1	153
414.014	1	160
414.184	1	152
414.355	1	164
414.526	1	147
414.696	1	151
414.867	1	162
415.038	1	149
415.208	1	142
415.379	1	150
415.550	1	149
415.720	1	158
415.891	1	178
416.062	1	151
416.232	1	163
416.403	1	151
416.573	1	153
416.744	1	173
416.915	1	151
417.085	1	151
417.256	1	152
417.427	1	156
417.597	1	149
417.768	1	165
417.939	1	163
418.109	1	149
418.280	1	174
418.450	1	160
418.621	1	158
418.792	1	141
418.962	1	151
419.133	1	164
419.304	1	149
419.474	1	159
419.645	1	168
419.815	1	148
419.986	1	159
420.157	1	161
420.327	1	148
420.498	1	162
420.669	1	165
420.839	1	156
421.010	1	153
421.180	1	156
421.351	1	157
421.522	1	170
421.692	1	157
421.863	1	155
422.033	1	158
422.204	1	165
422.375	1	156
422.545	1	152
422.716	1	150
422.886	1	150
423.057	1	142
423.228	1	157
423.398	1	145
423.569	1	133
423.740	1	151
423.910	1	154
424.081	1	140
424.251	1	141
424.422	1	143
424.593	1	142
424.763	1	143
424.934	1	141
425.104	1	157
425.275	1	135
425.445	1	144
425.616	1	136
425.787	1	150
425.957	1	138
426.128	1	136
426.298	1	145
426.469	1	120
426.640	1	145
426.810	1	125
426.981	1	149
427.151	1	130
427.322	1	135
427.493	1	136
427.663	1	141
427.834	1	126
428.004	1	149
428.175	1	139
428.345	1	139
428.516	1	129
428.687	1	139
428.857	1	149
429.028	1	143
429.198	1	132
429.369	1	130
429.540	1	138
429.710	1	148
429.881	1	123
430.051	1	139
430.222	1	139
430.392	1	145
430.563	1	133
430.734	1	142
430.904	1	140
431.075	1	149
431.245	1	139
431.416	1	133
431.586	1	134
431.757	1	135
431.927	1	148
432.098	1	151
432.269	1	124
432.439	1	138
432.610	1	147
432.780	1	136
432.951	1	150
433.121	1	136
433.292	1	142
433.462	1	140
433.633	1	137
433.804	1	140
433.974	1	142
434.145	1	132
434.315	1	139
434.486	1	128
434.656	1	164
434.827	1	145
434.997	1	139
435.168	1	128
435.339	1	145
435.509	1	129
435.680	1	139
435.850	1	131
436.021	1	122
436.191	1	137
436.362	1	131
436.532	1	146
436.703	1	133
436.873	1	126
437.044	1	131
437.214	1	119
437.385	1	135
437.556	1	145
437.726	1	146
437.897	1	133
438.067	1	131
438.238	1	128
438.408	1	134
438.579	1	130
438.749	1	114
438.920	1	134
439.090	1	127
439.261	1	124
439.431	1	123
439.602	1	125
439.772	1	143
439.943	1	123
440.113	1	122
440.284	1	115
440.455	1	128
440.625	1	126
440.796	1	122
440.966	1	110
441.137	1	126
441.307	1	140
441.478	1	124
441.648	1	134
441.819	1	115
441.989	1	132
442.160	1	118
442.330	1	117
442.501	1	127
442.671	1	118
442.842	1	114
443.012	1	131
443.183	1	125
443.353	1	122
443.524	1	112
443.694	1	117
443.865	1	127
444.035	1	124
444.206	1	105
444.376	1	119
444.547	1	116
444.717	1	117
444.888	1	106
445.058	1	122
445.229	1	121
445.399	1	130
445.570	1	120
445.740	1	123
445.911	1	117
446.081	1	120
446.252	1	125
446.422	1	120
446.593	1	123
446.763	1	125
446.934	1	117
447.104	1	121
447.275	1	111
447.445	1	126
447.616	1	116
447.786	1	121
447.957	1	111
448.127	1	111
448.298	1	114
448.468	1	124
448.639	1	111
448.809	1	102
448.979	1	132
449.150	1	110
449.320	1	114
449.491	1	107
449.661	1	106
449.832	1	110
450.002	1	110
450.173	1	118
450.343	1	105
450.514	1	128
450.684	1	109
450.855	1	116
451.025	1	104
451.196	1	97
451.366	1	121
451.537	1	122
451.707	1	113
451.878	1	109
452.048	1	92
452.218	1	109
452.389	1	111
452.559	1	124
452.730	1	97
452.900	1	92
453.071	1	107
453.241	1	103
453.412	1	97
453.582	1	98
453.753	1	98
453.923	1	97
454.093	1	97
454.264	1	103
454.434	1	107
454.605	1	109
454.775	1	120
454.946	1	95
455.116	1	111
455.287	1	97
455.457	1	108
455.628	1	94
455.798	1	105
455.968	1	113
456.139	1	108
456.309	1	94
456.480	1	102
456.650	1	101
456.821	1	93
456.991	1	108
457.161	1	106
457.332	1	96
457.502	1	97
457.673	1	91
457.843	1	107
458.014	1	100
458.184	1	104
458.355	1	103
458.525	1	100
458.695	1	92
458.866	1	87
459.036	1	91
459.207	1	96
459.377	1	96
459.548	1	105
459.718	1	95
459.888	1	94
460.059	1	101
460.229	1	95
460.400	1	93
460.570	1	91
460.740	1	89
460.911	1	89
461.081	1	104
461.252	1	91
461.422	1	93
461.593	1	92
461.763	1	110
461.933	1	95
462.104	1	105
462.274	1	89
462.445	1	103
462.615	1	93
462.785	1	101
462.956	1	93
463.126	1	99
463.297	1	88
463.467	1	104
463.638	1	89
463.808	1	105
463.978	1	86
464.149	1	83
464.319	1	88
464.490	1	78
464.660	1	82
464.830	1	86
465.001	1	76
465.171	1	86
465.342	1	90
465.512	1	83
465.682	1	78
465.853	1	81
466.023	1	86
466.194	1	90
466.364	1	89
466.534	1	80
466.705	1	94
466.875	1	84
467.045	1	77
467.216	1	76
467.386	1	89
467.557	1	79
467.727	1	70
467.897	1	75
468.068	1	72
468.238	1	79
468.409	1	78
468.579	1	83
468.749	1	85
468.920	1	72
469.090	1	80
469.260	1	75
469.431	1	77
469.601	1	86
469.772	1	86
469.942	1	81
470.112	1	73
470.283	1	83
470.453	1	89
470.623	1	82
470.794	1	79
470.964	1	65
471.135	1	87
471.305	1	75
471.475	1	75
471.646	1	80
471.816	1	73
471.986	1	75
472.157	1	73
472.327	1	70
472.497	1	66
472.668	1	73
472.838	1	85
473.009	1	75
473.179	1	77
473.349	1	81
473.520	1	90
473.690	1	78
473.860	1	80
474.031	1	68
474.201	1	70
474.371	1	73
474.542	1	69
474.712	1	75
474.882	1	81
475.053	1	74
475.223	1	77
475.394	1	82
475.564	1	79
475.734	1	72
475.905	1	78
476.075	1	84
476.245	1	67
476.416	1	73
476.586	1	72
476.756	1	67
476.927	1	68
477.097	1	75
477.267	1	66
477.438	1	74
477.608	1	92
477.778	1	60
477.949	1	73
478.119	1	76
478.289	1	65
478.460	1	64
478.630	1	66
478.800	1	73
478.971	1	66
479.141	1	75
479.311	1	77
479.482	1	67
479.652	1	62
479.822	1	61
479.993	1	68
480.163	1	73
480.333	1	65
480.504	1	68
480.674	1	71
480.844	1	58
481.015	1	79
481.185	1	78
481.355	1	67
481.525	1	63
481.696	1	66
481.866	1	64
482.036	1	56
482.207	1	68
482.377	1	63
482.547	1	68
482.718	1	77
482.888	1	76
483.058	1	73
483.229	1	59
483.399	1	80
483.569	1	52
483.740	1	66
483.910	1	60
484.080	1	66
484.250	1	48
484.421	1	64
484.591	1	55
484.761	1	59
484.932	1	49
485.102	1	68
485.272	1	56
485.443	1	62
485.613	1	62
485.783	1	54
485.953	1	57
486.124	1	58
486.294	1	59
486.464	1	70
486.635	1	61
486.805	1	54
486.975	1	59
487.146	1	67
487.316	1	61
487.486	1	67
487.656	1	64
487.827	1	54
487.997	1	49
488.167	1	61
488.338	1	57
488.508	1	57
488.678	1	53
488.848	1	51
489.019	1	53
489.189	1	63
489.359	1	52
489.529	1	58
489.700	1	49
489.870	1	62
490.040	1	54
490.211	1	52
490.381	1	56
490.551	1	68
490.721	1	60
490.892	1	43
491.062	1	48
491.232	1	63
491.402	1	59
491.573	1	66
491.743	1	47
491.913	1	58
492.084	1	48
492.254	1	45
492.424	1	68
492.594	1	50
492.765	1	57
492.935	1	61
493.105	1	44
493.275	1	54
493.446	1	39
493.616	1	55
493.786	1	56
493.956	1	58
494.127	1	48
494.297	1	51
494.467	1	52
494.637	1	50
494.808	1	51
494.978	1	48
495.148	1	55
495.318	1	46
495.489	1	50
495.659	1	53
495.829	1	59
495.999	1	46
496.170	1	49
496.340	1	49
496.510	1	62
496.680	1	52
496.851	1	58
497.021	1	38
497.191	1	54
497.361	1	28
497.532	1	58
497.702	1	47
497.872	1	43
498.042	1	52
498.213	1	57
498.383	1	45
498.553	1	38
498.723	1	51
498.894	1	52
499.064	1	51
499.234	1	54
499.404	1	52
499.574	1	54
499.745	1	48
499.915	1	47
500.085	1	40
500.255	1	38
500.426	1	37
500.596	1	44
500.766	1	40
500.936	1	36
501.106	1	37
501.277	1	43
501.447	1	50
501.617	1	48
501.787	1	43
501.958	1	40
502.128	1	54
502.298	1	39
502.468	1	38
502.638	1	40
502.809	1	37
502.979	1	48
503.149	1	48
503.319	1	54
503.489	1	28
503.660	1	44
503.830	1	44
504.000	1	43
504.170	1	43
504.340	1	38
504.511	1	39
504.681	1	41
504.851	1	45
505.021	1	40
505.192	1	37
505.362	1	37
505.532	1	38
505.702	1	50
505.872	1	39
506.043	1	50
506.213	1	53
506.383	1	49
506.553	1	39
506.723	1	31
506.893	1	47
507.064	1	55
507.234	1	42
507.404	1	28
507.574	1	29
507.744	1	41
507.915	1	41
508.085	1	34
508.255	1	38
508.425	1	29
508.595	1	36
508.766	1	32
508.936	1	45
509.106	1	45
509.276	1	47
509.446	1	28
509.616	1	33
509.787	1	39
509.957	1	43
510.127	1	25
510.297	1	32
510.467	1	46
510.638	1	42
510.808	1	46
510.978	1	24
511.148	1	40
511.318	1	32
511.488	1	32
511.659	1	38
511.829	1	38
511.999	1	47
512.169	1	38
512.339	1	51
512.509	1	31
512.680	1	33
512.850	1	36
513.020	1	36
513.190	1	24
513.360	1	35
513.530	1	35
513.700	1	35
513.871	1	31
514.041	1	37
514.211	1	40
514.381	1	42
514.551	1	30
514.721	1	41
514.892	1	25
515.062	1	42
515.232	1	36
515.402	1	33
515.572	1	32
515.742	1	39
515.912	1	28
516.083	1	38
516.253	1	36
516.423	1	33
516.593	1	34
516.763	1	26
516.933	1	33
517.104	1	39
517.274	1	24
517.444	1	38
517.614	1	36
517.784	1	30
517.954	1	26
518.124	1	34
518.294	1	30
518.465	1	29
518.635	1	44
518.805	1	33
518.975	1	30
519.145	1	27
519.315	1	35
519.485	1	37
519.656	1	31
519.826	1	19
519.996	1	37
520.166	1	25
520.336	1	31
520.506	1	27
520.676	1	25
520.846	1	36
521.017	1	39
521.187	1	28
521.357	1	26
521.527	1	35
521.697	1	26
521.867	1	31
522.037	1	31
522.207	1	33
522.377	1	37
522.548	1	21
522.718	1	28
522.888	1	29
523.058	1	32
523.228	1	14
523.398	1	21
523.568	1	23
523.738	1	26
523.909	1	33
524.079	1	30
524.249	1	24
524.419	1	36
524.589	1	32
524.759	1	29
524.929	1	33
525.099	1	21
525.269	1	29
525.439	1	24
525.610	1	27
525.780	1	33
525.950	1	32
526.120	1	19
526.290	1	24
526.460	1	24
526.630	1	32
526.800	1	18
526.970	1	33
527.140	1	32
527.311	1	23
527.481	1	36
527.651	1	36
527.821	1	17
527.991	1	27
528.161	1	27
528.331	1	13
528.501	1	24
528.671	1	30
528.841	1	20
529.011	1	39
529.181	1	31
529.352	1	25
529.522	1	34
529.692	1	33
529.862	1	14
530.032	1	22
530.202	1	22
530.372	1	20
530.542	1	19
530.712	1	27
530.882	1	19
531.052	1	20
531.222	1	20
531.392	1	25
531.563	1	26
531.733	1	18
531.903	1	27
532.073	1	8
532.243	1	25
532.413	1	44
532.583	1	32
532.753	1	25
532.923	1	27
533.093	1	24
533.263	1	20
533.433	1	23
533.603	1	17
533.773	1	25
533.943	1	33
534.113	1	17
534.284	1	25
534.454	1	24
534.624	1	20
534.794	1	26
534.964	1	26
535.134	1	11
535.304	1	20
535.474	1	30
535.644	1	30
535.814	1	19
535.984	1	26
536.154	1	30
536.324	1	17
536.494	1	32
536.664	1	12
536.834	1	13
537.004	1	27
537.174	1	32
537.344	1	19
537.514	1	26
537.685	1	35
537.855	1	17
538.025	1	33
538.195	1	27
538.365	1	22
538.535	1	18
538.705	1	26
538.875	1	19
539.045	1	27
539.215	1	16
539.385	1	24
539.555	1	23
539.725	1	17
539.895	1	11
540.065	1	26
540.235	1	15
540.405	1	22
540.575	1	29
540.745	1	23
540.915	1	19
541.085	1	18
541.255	1	18
541.425	1	19
541.595	1	18
541.765	1	24
541.935	1	14
542.105	1	23
542.275	1	14
542.445	1	16
542.615	1	32
542.785	1	18
542.955	1	22
543.125	1	23
543.295	1	11
543.465	1	23
543.635	1	15
543.805	1	21
543.975	1	21
544.145	1	21
544.315	1	16
544.485	1	8
544.655	1	25
544.825	1	13
544.995	1	24
545.165	1	16
545.335	1	21
545.505	1	24
545.675	1	29
545.845	1	19
546.015	1	12
546.185	1	13
546.355	1	12
546.525	1	22
546.695	1	15
546.865	1	17
547.035	1	14
547.205	1	29
547.375	1	17
547.545	1	12
547.715	1	18
547.885	1	16
548.055	1	10
548.225	1	19
548.395	1	11
548.565	1	19
548.735	1	10
548.905	1	21
549.075	1	6
549.245	1	20
549.415	1	20
549.585	1	16
549.755	1	22
549.925	1	15
550.095	1	9
550.265	1	18
550.435	1	9
550.605	1	16
550.775	1	10
550.945	1	15
551.115	1	16
551.285	1	12
551.455	1	20
551.625	1	20
551.795	1	20
551.965	1	14
552.135	1	15
552.305	1	15
552.475	1	17
552.645	1	9
552.815	1	7
552.985	1	16
553.155	1	14
553.325	1	24
553.495	1	17
553.665	1	17
553.835	1	15
554.004	1	16
554.174	1	11
554.344	1	17
554.514	1	8
554.684	1	20
554.854	1	6
555.024	1	21
555.194	1	17
555.364	1	11
555.534	1	5
555.704	1	13
555.874	1	16
556.044	1	10
556.214	1	16
556.384	1	12
556.554	1	13
556.724	1	13
556.894	1	14
557.064	1	10
557.234	1	18
557.404	1	10
557.573	1	19
557.743	1	12
557.913	1	10
558.083	1	14
558.253	1	13
558.423	1	12
558.593	1	18
558.763	1	14
558.933	1	9
559.103	1	15
559.273	1	11
559.443	1	29
559.613	1	12
559.783	1	13
559.953	1	7
560.122	1	19
560.292	1	2
560.462	1	16
560.632	1	7
560.802	1	12
560.972	1	3
561.142	1	16
561.312	1	12
561.482	1	20
561.652	1	5
561.822	1	11
561.992	1	19
562.162	1	9
562.331	1	-4
562.501	1	13
562.671	1	5
562.841	1	0
563.011	1	16
563.181	1	9
563.351	1	6
563.521	1	-2
563.691	1	20
563.861	1	12
564.031	1	6
564.201	1	9
564.370	1	22
564.540	1	16
564.710	1	6
564.880	1	12
565.050	1	10
565.220	1	18
565.390	1	5
565.560	1	20
565.730	1	25
565.900	1	11
566.069	1	22
566.239	1	19
566.409	1	20
566.579	1	19
566.749	1	14
566.919	1	6
567.089	1	7
567.259	1	19
567.429	1	6
567.599	1	13
567.768	1	11
567.938	1	11
568.108	1	14
568.278	1	9
568.448	1	22
568.618	1	18
568.788	1	17
568.958	1	1
569.128	1	7
569.297	1	2
569.467	1	16
569.637	1	11
569.807	1	10
569.977	1	6
570.147	1	16
570.317	1	16
570.487	1	9
570.656	1	20
570.826	1	17
570.996	1	27
571.166	1	10
571.336	1	12
571.506	1	0
571.676	1	14
571.846	1	13
572.015	1	11
572.185	1	11
572.355	1	8
572.525	1	-2
572.695	1	9
572.865	1	15
573.035	1	12
573.205	1	5
573.374	1	9
573.544	1	11
573.714	1	6
573.884	1	6
574.054	1	19
574.224	1	12
574.394	1	11
574.563	1	13
574.733	1	18
574.903	1	18
575.073	1	12
575.243	1	16
575.413	1	9
575.583	1	8
575.752	1	8
575.922	1	20
576.092	1	-2
576.262	1	5
576.432	1	7
576.602	1	21
576.772	1	12
576.941	1	12
577.111	1	1
577.281	1	9
577.451	1	21
577.621	1	2
577.791	1	15
577.960	1	6
578.130	1	10
578.300	1	13
578.470	1	13
578.640	1	12
578.810	1	9
578.979	1	12
579.149	1	4
579.319	1	15
579.489	1	22
579.659	1	10
579.829	1	3
579.998	1	1
580.168	1	5
580.338	1	10
580.508	1	6
580.678	1	13
580.848	1	12
581.017	1	11
581.187	1	10
581.357	1	15
581.527	1	7
581.697	1	13
581.867	1	16
582.036	1	2
582.206	1	6
582.376	1	13
582.546	1	7
582.716	1	14
582.885	1	6
583.055	1	11
583.225	1	10
583.395	1	14
583.565	1	10
583.735	1	14
583.904	1	4
584.074	1	5
584.244	1	16
584.414	1	13
584.584	1	5
584.753	1	4
584.923	1	7
585.093	1	11
585.263	1	4
585.433	1	5
585.602	1	3
585.772	1	24
585.942	1	5
586.112	1	20
586.282	1	12
586.451	1	21
586.621	1	5
586.791	1	6
586.961	1	-3
587.131	1	4
587.300	1	17
587.470	1	10
587.640	1	8
587.810	1	0
587.980	1	12
588.149	1	12
588.319	1	20
588.489	1	21
588.659	1	3
588.829	1	10
588.998	1	16
589.168	1	21
589.338	1	4
589.508	1	13
589.677	1	16
589.847	1	15
590.017	1	14
590.187	1	13
590.357	1	3
590.526	1	14
590.696	1	14
590.866	1	-8
591.036	1	15
591.205	1	16
591.375	1	13
591.545	1	5
591.715	1	16
591.885	1	24
592.054	1	11
592.224	1	5
592.394	1	-2
592.564	1	15
592.733	1	11
592.903	1	6
593.073	1	5
593.243	1	19
593.412	1	6
593.582	1	14
593.752	1	9
593.922	1	9
594.091	1	11
594.261	1	-1
594.431	1	13
594.601	1	-6
594.771	1	11
594.940	1	9
595.110	1	6
595.280	1	15
595.450	1	7
595.619	1	14
595.789	1	1
595.959	1	7
596.129	1	15
596.298	1	20
596.468	1	9
596.638	1	5
596.808	1	6
596.977	1	9
597.147	1	9
597.317	1	3
597.487	1	11
597.656	1	11
597.826	1	19
597.996	1	7
598.166	1	16
598.335	1	1
598.505	1	17
598.675	1	14
598.844	1	21
599.014	1	-3
599.184	1	15
599.354	1	27
599.523	1	5
599.693	1	9
599.863	1	17
600.033	1	20
600.202	1	6
600.372	1	6
600.542	1	7
600.712	1	10
600.881	1	14
601.051	1	15
601.221	1	9
601.390	1	11
601.560	1	14
601.730	1	8
601.900	1	10
602.069	1	13
602.239	1	17
602.409	1	9
602.578	1	14
602.748	1	22
602.918	1	11
603.088	1	13
603.257	1	9
603.427	1	20
603.597	1	4
603.767	1	16
603.936	1	11
604.106	1	0
604.276	1	19
604.445	1	7
604.615	1	11
604.785	1	16
604.954	1	11
605.124	1	18
605.294	1	5
605.464	1	9
605.633	1	9
605.803	1	22
605.973	1	6
606.142	1	19
606.312	1	15
606.482	1	0
606.652	1	9
606.821	1	17
606.991	1	13
607.161	1	7
607.330	1	7
607.500	1	14
607.670	1	4
607.839	1	11
608.009	1	17
608.179	1	10
608.348	1	17
608.518	1	24
608.688	1	2
608.858	1	5
609.027	1	23
609.197	1	18
609.367	1	15
609.536	1	3
609.706	1	15
609.876	1	13
610.045	1	21
610.215	1	19
610.385	1	16
610.554	1	12
610.724	1	11
610.894	1	21
611.063	1	20
611.233	1	9
611.403	1	19
611.572	1	10
611.742	1	4
611.912	1	12
612.081	1	24
612.251	1	18
612.421	1	13
612.590	1	13
612.760	1	16
612.930	1	16
613.099	1	20
613.269	1	18
613.439	1	0
613.608	1	16
613.778	1	16
613.948	1	24
614.117	1	18
614.287	1	8
614.457	1	10
614.626	1	12
614.796	1	16
614.966	1	7
615.135	1	9
615.305	1	16
615.475	1	15
615.644	1	23
615.814	1	25
615.984	1	6
616.153	1	10
616.323	1	5
616.493	1	16
616.662	1	7
616.832	1	16
617.002	1	13
617.171	1	23
617.341	1	21
617.511	1	9
617.680	1	9
617.850	1	14
618.019	1	9
618.189	1	18
618.359	1	17
618.528	1	20
618.698	1	20
618.868	1	14
619.037	1	15
619.207	1	18
619.377	1	14
619.546	1	20
619.716	1	13
619.885	1	14
620.055	1	9
620.225	1	22
620.394	1	14
620.564	1	16
620.734	1	15
620.903	1	2
621.073	1	20
621.242	1	10
621.412	1	13
621.582	1	26
621.751	1	16
621.921	1	11
622.091	1	16
622.260	1	12
622.430	1	24
622.599	1	11
622.769	1	11
622.939	1	9
623.108	1	13
623.278	1	12
623.448	1	15
623.617	1	18
623.787	1	13
623.956	1	22
624.126	1	15
624.296	1	14
624.465	1	16
624.635	1	22
624.804	1	6
624.974	1	7
625.144	1	2
625.313	1	23
625.483	1	21
625.652	1	22
625.822	1	14
625.992	1	18
626.161	1	27
626.331	1	18
626.501	1	10
626.670	1	13
626.840	1	11
627.009	1	14
627.179	1	17
627.348	1	10
627.518	1	34
627.688	1	20
627.857	1	26
628.027	1	30
628.196	1	22
628.366	1	-4
628.536	1	17
628.705	1	5
628.875	1	13
629.044	1	4
629.214	1	18
629.384	1	17
629.553	1	21
629.723	1	24
629.892	1	20
630.062	1	9
630.232	1	16
630.401	1	17
630.571	1	4
630.740	1	17
630.910	1	25
631.079	1	19
631.249	1	14
631.419	1	19
631.588	1	20
631.758	1	15
631.927	1	25
632.097	1	10
632.266	1	20
632.436	1	18
632.606	1	25
632.775	1	17
632.945	1	17
633.114	1	20
633.284	1	12
633.453	1	17
633.623	1	32
633.793	1	13
633.962	1	28
634.132	1	11
634.301	1	19
634.471	1	31
634.640	1	19
634.810	1	22
634.979	1	26
635.149	1	16
635.319	1	17
635.488	1	22
635.658	1	18
635.827	1	14
635.997	1	24
636.166	1	16
636.336	1	25
636.505	1	24
636.675	1	16
636.845	1	28
637.014	1	12
637.184	1	24
637.353	1	26
637.523	1	13
637.692	1	22
637.862	1	17
638.031	1	20
638.201	1	21
638.370	1	20
638.540	1	13
638.710	1	14
638.879	1	21
639.049	1	18
639.218	1	20
639.388	1	21
639.557	1	24
639.727	1	22
639.896	1	16
640.066	1	20
640.235	1	17
640.405	1	14
640.574	1	20
640.744	1	11
640.914	1	16
641.083	1	25
641.253	1	9
641.422	1	13
641.592	1	21
641.761	1	18
641.931	1	25
642.100	1	21
642.270	1	19
642.439	1	22
642.609	1	24
642.778	1	22
642.948	1	17
643.117	1	35
643.287	1	18
643.456	1	15
643.626	1	19
643.795	1	19
643.965	1	14
644.134	1	23
644.304	1	17
644.473	1	22
644.643	1	28
644.812	1	11
644.982	1	21
645.151	1	16
645.321	1	19
645.490	1	23
645.660	1	19
645.829	1	20
645.999	1	21
646.168	1	54
646.338	1	14
646.507	1	23
646.677	1	26
646.846	1	11
647.016	1	32
647.185	1	24
647.355	1	30
647.524	1	26
647.694	1	7
647.863	1	17
648.033	1	24
648.202	1	31
648.372	1	16
648.541	1	14
648.711	1	33
648.880	1	33
649.050	1	16
649.219	1	24
649.389	1	23
649.558	1	29
649.728	1	23
649.897	1	30
650.067	1	19
650.236	1	26
650.406	1	19
650.575	1	20
650.745	1	19
650.914	1	33
651.084	1	25
651.253	1	27
651.423	1	23
651.592	1	22
651.762	1	19
651.931	1	32
652.101	1	21
652.270	1	18
652.440	1	29
652.609	1	33
652.778	1	24
652.948	1	35
653.117	1	22
653.287	1	18
653.456	1	27
653.626	1	17
653.795	1	33
653.965	1	21
654.134	1	13
654.304	1	30
654.473	1	14
654.643	1	17
654.812	1	34
654.982	1	19
655.151	1	25
655.320	1	29
655.490	1	13
655.659	1	24
655.829	1	26
655.998	1	22
656.168	1	10
656.337	1	24
656.507	1	14
656.676	1	10
656.846	1	27
657.015	1	30
657.184	1	22
657.354	1	26
657.523	1	27
657.693	1	21
657.862	1	28
658.032	1	16
658.201	1	14
658.371	1	29
658.540	1	23
658.709	1	23
658.879	1	37
659.048	1	26
659.218	1	20
659.387	1	28
659.557	1	15
659.726	1	19
659.895	1	14
660.065	1	24
660.234	1	11
660.404	1	22
660.573	1	21
660.743	1	25
660.912	1	35
661.081	1	18
661.251	1	24
661.420	1	36
661.590	1	8
661.759	1	36
661.929	1	25
662.098	1	30
662.267	1	28
662.437	1	35
662.606	1	25
662.776	1	29
662.945	1	34
663.115	1	37
663.284	1	45
663.453	1	23
663.623	1	38
663.792	1	41
663.962	1	27
664.131	1	29
664.300	1	28
664.470	1	14
664.639	1	27
664.809	1	34
664.978	1	39
665.148	1	34
665.317	1	28
665.486	1	31
665.656	1	26
665.825	1	35
665.995	1	16
666.164	1	31
666.333	1	25
666.503	1	21
666.672	1	26
666.842	1	33
667.011	1	19
667.180	1	32
667.350	1	26
667.519	1	31
667.689	1	26
667.858	1	32
668.027	1	27
668.197	1	17
668.366	1	27
668.536	1	22
668.705	1	26
668.874	1	39
669.044	1	28
669.213	1	27
669.382	1	29
669.552	1	30
669.721	1	9
669.891	1	22
670.060	1	19
670.229	1	26
670.399	1	35
670.568	1	35
670.738	1	16
670.907	1	37
671.076	1	28
671.246	1	33
671.415	1	33
671.584	1	36
671.754	1	17
671.923	1	26
672.093	1	38
672.262	1	22
672.431	1	35
672.601	1	22
672.770	1	26
672.939	1	32
673.109	1	21
673.278	1	32
673.448	1	30
673.617	1	31
673.786	1	21
