325.333	1	0
325.504	1	-7
325.675	1	13
325.846	1	2
326.017	1	7
326.188	1	3
326.359	1	5
326.531	1	-3
326.702	1	-17
326.873	1	8
327.044	1	6
327.215	1	-5
327.386	1	-5
327.557	1	1
327.728	1	-5
327.899	1	-1
328.070	1	4
328.241	1	-5
328.412	1	-3
328.583	1	-1
328.754	1	6
328.926	1	4
329.097	1	-13
329.268	1	5
329.439	1	3
329.610	1	1
329.781	1	3
329.952	1	-4
330.123	1	-4
330.294	1	-7
330.465	1	-10
330.636	1	-2
330.807	1	1
330.978	1	-3
331.149	1	3
331.320	1	0
331.492	1	-2
331.663	1	-2
331.834	1	1
332.005	1	2
332.176	1	7
332.347	1	-5
332.518	1	6
332.689	1	1
332.860	1	-1
333.031	1	-1
333.202	1	-3
333.373	1	-3
333.544	1	-4
333.715	1	-2
333.886	1	-7
334.057	1	-7
334.228	1	5
334.399	1	1
334.570	1	7
334.741	1	-10
334.912	1	-6
335.084	1	10
335.255	1	0
335.426	1	4
335.597	1	-4
335.768	1	-5
335.939	1	2
336.110	1	3
336.281	1	-3
336.452	1	6
336.623	1	-3
336.794	1	1
336.965	1	2
337.136	1	3
337.307	1	-6
337.478	1	-5
337.649	1	4
337.820	1	0
337.991	1	1
338.162	1	-5
338.333	1	5
338.504	1	11
338.675	1	-4
338.846	1	-4
339.017	1	0
339.188	1	1
339.359	1	-2
339.530	1	0
339.701	1	3
339.872	1	7
340.043	1	1
340.214	1	-1
340.385	1	-6
340.556	1	2
340.727	1	0
340.898	1	5
341.069	1	-7
341.240	1	-3
341.411	1	1
341.582	1	0
341.753	1	-3
341.924	1	11
342.095	1	-7
342.266	1	5
342.437	1	-3
342.608	1	0
342.779	1	-2
342.950	1	1
343.121	1	7
343.292	1	6
343.463	1	4
343.634	1	4
343.805	1	7
343.976	1	3
344.147	1	6
344.318	1	1
344.489	1	-1
344.660	1	-2
344.831	1	9
345.002	1	1
345.173	1	0
345.344	1	5
345.515	1	-7
345.686	1	3
345.857	1	8
346.028	1	8
346.199	1	3
346.370	1	5
346.541	1	-6
346.712	1	1
346.883	1	-4
347.054	1	10
347.225	1	-3
347.396	1	0
347.567	1	-6
347.738	1	11
347.909	1	9
348.080	1	-2
348.251	1	-4
348.422	1	7
348.593	1	-1
348.764	1	-2
348.935	1	9
349.106	1	-5
349.277	1	-4
349.448	1	0
349.619	1	-3
349.790	1	4
349.961	1	-8
350.132	1	7
350.303	1	-8
350.474	1	0
350.645	1	-6
350.816	1	-7
350.987	1	8
351.157	1	-6
351.328	1	-2
351.499	1	0
351.670	1	-2
351.841	1	9
352.012	1	1
352.183	1	11
352.354	1	-6
352.525	1	7
352.696	1	-3
352.867	1	8
353.038	1	5
353.209	1	3
353.380	1	-4
353.551	1	7
353.722	1	4
353.893	1	10
354.064	1	2
354.235	1	-4
354.406	1	-12
354.576	1	-2
354.747	1	7
354.918	1	0
355.089	1	8
355.260	1	2
355.431	1	-8
355.602	1	1
355.773	1	1
355.944	1	0
356.115	1	8
356.286	1	11
356.457	1	11
356.628	1	2
356.799	1	-2
356.970	1	10
357.141	1	3
357.311	1	15
357.482	1	-1
357.653	1	-3
357.824	1	9
357.995	1	11
358.166	1	4
358.337	1	-3
358.508	1	8
358.679	1	-2
358.850	1	0
359.021	1	4
359.192	1	5
359.363	1	3
359.533	1	-7
359.704	1	-5
359.875	1	-5
360.046	1	7
360.217	1	7
360.388	1	16
360.559	1	0
360.730	1	0
360.901	1	5
361.072	1	3
361.243	1	-4
361.414	1	4
361.584	1	8
361.755	1	-2
361.926	1	12
362.097	1	-3
362.268	1	15
362.439	1	5
362.610	1	3
362.781	1	-18
362.952	1	6
363.123	1	-6
363.293	1	-1
363.464	1	-2
363.635	1	15
363.806	1	7
363.977	1	2
364.148	1	5
364.319	1	2
364.490	1	7
364.661	1	0
364.832	1	-2
365.002	1	4
365.173	1	0
365.344	1	-6
365.515	1	7
365.686	1	6
365.857	1	6
366.028	1	-1
366.199	1	7
366.370	1	5
366.540	1	-2
366.711	1	10
366.882	1	4
367.053	1	5
367.224	1	4
367.395	1	4
367.566	1	9
367.737	1	-11
367.908	1	5
368.078	1	-3
368.249	1	6
368.420	1	-1
368.591	1	12
368.762	1	8
368.933	1	-6
369.104	1	6
369.274	1	11
369.445	1	6
369.616	1	-1
369.787	1	-4
369.958	1	12
370.129	1	1
370.300	1	5
370.471	1	1
370.641	1	4
370.812	1	13
370.983	1	0
371.154	1	-6
371.325	1	4
371.496	1	4
371.667	1	14
371.837	1	5
372.008	1	-2
372.179	1	3
372.350	1	13
372.521	1	9
372.692	1	7
372.863	1	0
373.033	1	0
373.204	1	-2
373.375	1	-1
373.546	1	10
373.717	1	6
373.888	1	6
374.059	1	3
374.229	1	5
374.400	1	-2
374.571	1	-4
374.742	1	8
374.913	1	-3
375.084	1	4
375.254	1	1
375.425	1	-1
375.596	1	12
375.767	1	9
375.938	1	-6
376.109	1	-2
376.279	1	-2
376.450	1	-4
376.621	1	3
376.792	1	8
376.963	1	-1
377.134	1	7
377.304	1	4
377.475	1	-6
377.646	1	-5
377.817	1	6
377.988	1	9
378.159	1	12
378.329	1	2
378.500	1	16
378.671	1	5
378.842	1	4
379.013	1	2
379.184	1	4
379.354	1	3
379.525	1	18
379.696	1	3
379.867	1	5
380.038	1	4
380.209	1	10
380.379	1	5
380.550	1	-4
380.721	1	1
380.892	1	-2
381.063	1	3
381.233	1	10
381.404	1	1
381.575	1	6
381.746	1	14
381.917	1	-2
382.087	1	10
382.258	1	5
382.429	1	4
382.600	1	-8
382.771	1	-1
382.941	1	12
383.112	1	0
383.283	1	13
383.454	1	1
383.625	1	11
383.795	1	6
383.966	1	3
384.137	1	22
384.308	1	9
384.479	1	-3
384.649	1	0
384.820	1	12
384.991	1	4
385.162	1	7
385.333	1	14
385.503	1	-7
385.674	1	-8
385.845	1	0
386.016	1	20
386.187	1	3
386.357	1	8
386.528	1	-3
386.699	1	3
386.870	1	-5
387.041	1	6
387.211	1	7
387.382	1	11
387.553	1	5
387.724	1	-1
387.894	1	-9
388.065	1	6
388.236	1	-10
388.407	1	10
388.578	1	0
388.748	1	14
388.919	1	10
389.090	1	15
389.261	1	7
389.431	1	3
389.602	1	7
389.773	1	3
389.944	1	6
390.114	1	13
390.285	1	2
390.456	1	2
390.627	1	1
390.798	1	10
390.968	1	2
391.139	1	7
391.310	1	6
391.481	1	9
391.651	1	-1
391.822	1	8
391.993	1	8
392.164	1	7
392.334	1	0
392.505	1	8
392.676	1	-1
392.847	1	3
393.017	1	0
393.188	1	7
393.359	1	11
393.530	1	22
393.700	1	1
393.871	1	12
394.042	1	-1
394.213	1	9
394.383	1	-4
394.554	1	-1
394.725	1	-5
394.896	1	10
395.066	1	5
395.237	1	11
395.408	1	-7
395.579	1	15
395.749	1	20
395.920	1	4
396.091	1	2
396.262	1	5
396.432	1	-1
396.603	1	9
396.774	1	5
396.945	1	8
397.115	1	14
397.286	1	8
397.457	1	5
397.627	1	7
397.798	1	9
397.969	1	-4
398.140	1	1
398.310	1	7
398.481	1	4
398.652	1	10
398.823	1	-2
398.993	1	12
399.164	1	10
399.335	1	2
399.505	1	0
399.676	1	8
399.847	1	9
400.018	1	-1
400.188	1	9
400.359	1	12
400.530	1	7
400.700	1	5
400.871	1	7
401.042	1	-5
401.213	1	13
401.383	1	10
401.554	1	7
401.725	1	3
401.895	1	-3
402.066	1	15
402.237	1	9
402.408	1	2
402.578	1	13
402.749	1	3
402.920	1	4
403.090	1	-1
403.261	1	-3
403.432	1	13
403.603	1	15
403.773	1	20
403.944	1	20
404.115	1	6
404.285	1	15
404.456	1	2
404.627	1	8
404.797	1	8
404.968	1	10
405.139	1	11
405.310	1	11
405.480	1	3
405.651	1	5
405.822	1	8
405.992	1	14
406.163	1	0
406.334	1	3
406.504	1	9
406.675	1	-1
406.846	1	8
407.016	1	11
407.187	1	11
407.358	1	1
407.528	1	3
407.699	1	5
407.870	1	12
408.041	1	0
408.211	1	14
408.382	1	10
408.553	1	7
408.723	1	10
408.894	1	11
409.065	1	7
409.235	1	15
409.406	1	2
409.577	1	2
409.747	1	16
409.918	1	10
410.089	1	14
410.259	1	4
410.430	1	5
410.601	1	1
410.771	1	11
410.942	1	3
411.113	1	5
411.283	1	6
411.454	1	18
411.625	1	12
411.795	1	7
411.966	1	10
412.137	1	13
412.307	1	8
412.478	1	7
412.649	1	-3
412.819	1	4
412.990	1	23
413.161	1	9
413.331	1	11
413.502	1	-5
413.672	1	6
413.843	1	5
414.014	1	8
414.184	1	13
414.355	1	8
414.526	1	7
414.696	1	8
414.867	1	-2
415.038	1	7
415.208	1	1
415.379	1	2
415.550	1	15
415.720	1	3
415.891	1	9
416.062	1	12
416.232	1	21
416.403	1	9
416.573	1	9
416.744	1	9
416.915	1	6
417.085	1	6
417.256	1	10
417.427	1	7
417.597	1	-4
417.768	1	7
417.939	1	0
418.109	1	11
418.280	1	5
418.450	1	14
418.621	1	4
418.792	1	11
418.962	1	-5
419.133	1	5
419.304	1	0
419.474	1	13
419.645	1	14
419.815	1	-1
419.986	1	22
420.157	1	7
420.327	1	-3
420.498	1	-7
420.669	1	9
420.839	1	19
421.010	1	8
421.180	1	-5
421.351	1	14
421.522	1	8
421.692	1	15
421.863	1	2
422.033	1	8
422.204	1	12
422.375	1	4
422.545	1	12
422.716	1	8
422.886	1	14
423.057	1	12
423.228	1	-4
423.398	1	13
423.569	1	6
423.740	1	4
423.910	1	9
424.081	1	15
424.251	1	6
424.422	1	15
424.593	1	6
424.763	1	14
424.934	1	14
425.104	1	16
425.275	1	-3
425.445	1	7
425.616	1	7
425.787	1	1
425.957	1	2
426.128	1	6
426.298	1	4
426.469	1	-3
426.640	1	7
426.810	1	-2
426.981	1	16
427.151	1	2
427.322	1	5
427.493	1	10
427.663	1	3
427.834	1	9
428.004	1	7
428.175	1	8
428.345	1	-2
428.516	1	4
428.687	1	15
428.857	1	13
429.028	1	6
429.198	1	-5
429.369	1	2
429.540	1	13
429.710	1	14
429.881	1	3
430.051	1	2
430.222	1	1
430.392	1	5
430.563	1	2
430.734	1	5
430.904	1	16
431.075	1	3
431.245	1	0
431.416	1	8
431.586	1	1
431.757	1	13
431.927	1	5
432.098	1	8
432.269	1	3
432.439	1	4
432.610	1	16
432.780	1	19
432.951	1	2
433.121	1	7
433.292	1	3
433.462	1	8
433.633	1	7
433.804	1	3
433.974	1	14
434.145	1	2
434.315	1	1
434.486	1	-11
434.656	1	4
434.827	1	5
434.997	1	11
435.168	1	4
435.339	1	14
435.509	1	5
435.680	1	15
435.850	1	-5
436.021	1	-1
436.191	1	-3
436.362	1	11
436.532	1	5
436.703	1	11
436.873	1	4
437.044	1	14
437.214	1	-3
437.385	1	2
437.556	1	3
437.726	1	5
437.897	1	1
438.067	1	5
438.238	1	11
438.408	1	9
438.579	1	-2
438.749	1	8
438.920	1	12
439.090	1	-4
439.261	1	7
439.431	1	-8
439.602	1	4
439.772	1	6
439.943	1	-1
440.113	1	-6
440.284	1	12
440.455	1	-1
440.625	1	12
440.796	1	6
440.966	1	5
441.137	1	10
441.307	1	7
441.478	1	-1
441.648	1	7
441.819	1	8
441.989	1	16
442.160	1	13
442.330	1	11
442.501	1	9
442.671	1	1
442.842	1	10
443.012	1	0
443.183	1	5
443.353	1	7
443.524	1	7
443.694	1	-1
443.865	1	17
444.035	1	12
444.206	1	2
444.376	1	0
444.547	1	2
444.717	1	7
444.888	1	-9
445.058	1	6
445.229	1	0
445.399	1	3
445.570	1	-5
445.740	1	1
445.911	1	14
446.081	1	5
446.252	1	-2
446.422	1	11
446.593	1	0
446.763	1	0
446.934	1	-5
447.104	1	5
447.275	1	0
447.445	1	11
447.616	1	6
447.786	1	11
447.957	1	2
448.127	1	5
448.298	1	12
448.468	1	9
448.639	1	-5
448.809	1	1
448.979	1	10
449.150	1	0
449.320	1	9
449.491	1	-1
449.661	1	4
449.832	1	-1
450.002	1	2
450.173	1	7
450.343	1	-1
450.514	1	5
450.684	1	-1
450.855	1	13
451.025	1	3
451.196	1	3
451.366	1	12
451.537	1	18
451.707	1	11
451.878	1	-8
452.048	1	1
452.218	1	1
452.389	1	13
452.559	1	26
452.730	1	14
452.900	1	-9
453.071	1	14
453.241	1	4
453.412	1	-1
453.582	1	5
453.753	1	5
453.923	1	1
454.093	1	10
454.264	1	7
454.434	1	4
454.605	1	4
454.775	1	7
454.946	1	6
455.116	1	11
455.287	1	-8
455.457	1	0
455.628	1	-6
455.798	1	17
455.968	1	2
456.139	1	11
456.309	1	8
456.480	1	8
456.650	1	0
456.821	1	7
456.991	1	3
457.161	1	7
457.332	1	-4
457.502	1	-1
457.673	1	2
457.843	1	3
458.014	1	5
458.184	1	5
458.355	1	2
458.525	1	-3
458.695	1	3
458.866	1	-6
459.036	1	6
459.207	1	4
459.377	1	7
459.548	1	9
459.718	1	-4
459.888	1	-2
460.059	1	7
460.229	1	-3
460.400	1	-7
460.570	1	-1
460.740	1	2
460.911	1	-1
461.081	1	3
461.252	1	7
461.422	1	-1
461.593	1	4
461.763	1	8
461.933	1	-6
462.104	1	-5
462.274	1	-3
462.445	1	7
462.615	1	6
462.785	1	8
462.956	1	6
463.126	1	0
463.297	1	3
463.467	1	6
463.638	1	17
463.808	1	6
463.978	1	-14
464.149	1	2
464.319	1	2
464.490	1	2
464.660	1	2
464.830	1	0
465.001	1	-2
465.171	1	-7
465.342	1	1
465.512	1	15
465.682	1	-7
465.853	1	-2
466.023	1	9
466.194	1	2
466.364	1	16
466.534	1	-12
466.705	1	14
466.875	1	2
467.045	1	0
467.216	1	-4
467.386	1	6
467.557	1	6
467.727	1	-2
467.897	1	2
468.068	1	-4
468.238	1	4
468.409	1	5
468.579	1	4
468.749	1	3
468.920	1	-9
469.090	1	7
469.260	1	1
469.431	1	-2
469.601	1	3
469.772	1	7
469.942	1	11
470.112	1	-1
470.283	1	4
470.453	1	15
470.623	1	10
470.794	1	1
470.964	1	-7
471.135	1	6
471.305	1	-5
471.475	1	0
471.646	1	12
471.816	1	4
471.986	1	9
472.157	1	11
472.327	1	7
472.497	1	11
472.668	1	-3
472.838	1	-7
473.009	1	6
473.179	1	-4
473.349	1	-1
473.520	1	10
473.690	1	3
473.860	1	-3
474.031	1	-10
474.201	1	-1
474.371	1	-1
474.542	1	-1
474.712	1	2
474.882	1	4
475.053	1	3
475.223	1	-4
475.394	1	-1
475.564	1	10
475.734	1	-2
475.905	1	6
476.075	1	18
476.245	1	1
476.416	1	-4
476.586	1	6
476.756	1	2
476.927	1	3
477.097	1	-2
477.267	1	0
477.438	1	6
477.608	1	1
477.778	1	7
477.949	1	-6
478.119	1	3
478.289	1	-2
478.460	1	12
478.630	1	-1
478.800	1	-2
478.971	1	4
479.141	1	8
479.311	1	-4
479.482	1	-2
479.652	1	-1
479.822	1	-5
479.993	1	2
480.163	1	2
480.333	1	9
480.504	1	4
480.674	1	-4
480.844	1	-5
481.015	1	8
481.185	1	3
481.355	1	-1
481.525	1	-4
481.696	1	2
481.866	1	4
482.036	1	8
482.207	1	13
482.377	1	0
482.547	1	-1
482.718	1	1
482.888	1	6
483.058	1	13
483.229	1	-7
483.399	1	6
483.569	1	-6
483.740	1	-2
483.910	1	-6
484.080	1	2
484.250	1	-17
484.421	1	0
484.591	1	0
484.761	1	8
484.932	1	-7
485.102	1	-2
485.272	1	-1
485.443	1	3
485.613	1	7
485.783	1	3
485.953	1	2
486.124	1	-3
486.294	1	12
486.464	1	6
486.635	1	4
486.805	1	5
486.975	1	-11
487.146	1	8
487.316	1	8
487.486	1	5
487.656	1	-2
487.827	1	8
487.997	1	-3
488.167	1	7
488.338	1	-2
488.508	1	4
488.678	1	7
488.848	1	3
489.019	1	5
489.189	1	8
489.359	1	-2
489.529	1	4
489.700	1	6
489.870	1	9
490.040	1	0
490.211	1	-7
490.381	1	-6
490.551	1	-1
490.721	1	10
490.892	1	-9
491.062	1	-3
491.232	1	10
491.402	1	-2
491.573	1	20
491.743	1	-7
491.913	1	-1
492.084	1	5
492.254	1	2
492.424	1	-3
492.594	1	3
492.765	1	10
492.935	1	7
493.105	1	3
493.275	1	-5
493.446	1	-7
493.616	1	-7
493.786	1	2
493.956	1	11
494.127	1	-1
494.297	1	-6
494.467	1	-5
494.637	1	2
494.808	1	-1
494.978	1	-6
495.148	1	-6
495.318	1	5
495.489	1	-12
495.659	1	4
495.829	1	-2
495.999	1	2
496.170	1	-2
496.340	1	4
496.510	1	3
496.680	1	6
496.851	1	1
497.021	1	0
497.191	1	2
497.361	1	-10
497.532	1	2
497.702	1	4
497.872	1	-1
498.042	1	0
498.213	1	-3
498.383	1	1
498.553	1	6
498.723	1	-5
498.894	1	-3
499.064	1	-8
499.234	1	8
499.404	1	9
499.574	1	5
499.745	1	6
499.915	1	4
500.085	1	-2
500.255	1	-12
500.426	1	-3
500.596	1	-4
500.766	1	-5
500.936	1	-13
501.106	1	-4
501.277	1	3
501.447	1	11
501.617	1	0
501.787	1	-1
501.958	1	2
502.128	1	2
502.298	1	2
502.468	1	-6
502.638	1	-3
502.809	1	-5
502.979	1	12
503.149	1	6
503.319	1	10
503.489	1	-11
503.660	1	-3
503.830	1	-5
504.000	1	-7
504.170	1	9
504.340	1	-12
504.511	1	9
504.681	1	3
504.851	1	-1
505.021	1	0
505.192	1	-7
505.362	1	-4
505.532	1	-9
505.702	1	12
505.872	1	2
506.043	1	7
506.213	1	8
506.383	1	0
506.553	1	-2
506.723	1	-6
506.893	1	3
507.064	1	3
507.234	1	-6
507.404	1	-8
507.574	1	0
507.744	1	8
507.915	1	3
508.085	1	-5
508.255	1	7
508.425	1	2
508.595	1	-3
508.766	1	-5
508.936	1	9
509.106	1	9
509.276	1	2
509.446	1	-7
509.616	1	-5
509.787	1	-7
509.957	1	10
510.127	1	-5
510.297	1	-11
510.467	1	-9
510.638	1	6
510.808	1	7
510.978	1	-10
511.148	1	-2
511.318	1	6
511.488	1	0
511.659	1	9
511.829	1	-16
511.999	1	6
512.169	1	7
512.339	1	-1
512.509	1	0
512.680	1	8
512.850	1	-1
513.020	1	3
513.190	1	-12
513.360	1	5
513.530	1	-4
513.700	1	6
513.871	1	-4
514.041	1	1
514.211	1	9
514.381	1	-3
514.551	1	-2
514.721	1	-5
514.892	1	-9
515.062	1	3
515.232	1	-16
515.402	1	-4
515.572	1	1
515.742	1	-4
515.912	1	7
516.083	1	-3
516.253	1	2
516.423	1	-4
516.593	1	1
516.763	1	6
516.933	1	1
517.104	1	0
517.274	1	-8
517.444	1	9
517.614	1	-6
517.784	1	-6
517.954	1	-6
518.124	1	-4
518.294	1	4
518.465	1	2
518.635	1	3
518.805	1	0
518.975	1	-6
519.145	1	1
519.315	1	3
519.485	1	-6
519.656	1	-5
519.826	1	-9
519.996	1	8
520.166	1	-3
520.336	1	8
520.506	1	-3
520.676	1	-3
520.846	1	-2
521.017	1	-1
521.187	1	5
521.357	1	-4
521.527	1	-7
521.697	1	-11
521.867	1	5
522.037	1	5
522.207	1	3
522.377	1	5
522.548	1	-17
522.718	1	-7
522.888	1	4
523.058	1	8
523.228	1	-9
523.398	1	1
523.568	1	-2
523.738	1	-5
523.909	1	1
524.079	1	-2
524.249	1	-8
524.419	1	-1
524.589	1	-1
524.759	1	-5
524.929	1	-5
525.099	1	1
525.269	1	-1
525.439	1	-1
525.610	1	6
525.780	1	-6
525.950	1	5
526.120	1	-11
526.290	1	-5
526.460	1	-12
526.630	1	0
526.800	1	-1
526.970	1	12
527.140	1	4
527.311	1	7
527.481	1	0
527.651	1	0
527.821	1	-15
527.991	1	-4
528.161	1	3
528.331	1	-4
528.501	1	-3
528.671	1	2
528.841	1	-2
529.011	1	0
529.181	1	0
529.352	1	0
529.522	1	-1
529.692	1	-3
529.862	1	1
530.032	1	-12
530.202	1	-10
530.372	1	3
530.542	1	-2
530.712	1	3
530.882	1	-3
531.052	1	6
531.222	1	1
531.392	1	-8
531.563	1	6
531.733	1	-1
531.903	1	1
532.073	1	-9
532.243	1	11
532.413	1	15
532.583	1	1
532.753	1	-9
532.923	1	2
533.093	1	-8
533.263	1	1
533.433	1	-13
533.603	1	-4
533.773	1	-1
533.943	1	-4
534.113	1	-1
534.284	1	-6
534.454	1	7
534.624	1	0
534.794	1	4
534.964	1	2
535.134	1	-2
535.304	1	-1
535.474	1	-6
535.644	1	1
535.814	1	-2
535.984	1	-7
536.154	1	2
536.324	1	-4
536.494	1	7
536.664	1	-7
536.834	1	0
537.004	1	7
537.174	1	-3
537.344	1	-6
537.514	1	-6
537.685	1	6
537.855	1	-2
538.025	1	4
538.195	1	-1
538.365	1	2
538.535	1	0
538.705	1	1
538.875	1	0
539.045	1	-1
539.215	1	-11
539.385	1	2
539.555	1	-3
539.725	1	4
539.895	1	4
540.065	1	-4
540.235	1	0
540.405	1	-4
540.575	1	-4
540.745	1	-3
540.915	1	-3
541.085	1	-5
541.255	1	-6
541.425	1	-13
541.595	1	-2
541.765	1	8
541.935	1	-8
542.105	1	-9
542.275	1	-7
542.445	1	8
542.615	1	3
542.785	1	1
542.955	1	14
543.125	1	0
543.295	1	-2
543.465	1	-1
543.635	1	-13
543.805	1	9
543.975	1	-2
544.145	1	2
544.315	1	-15
544.485	1	-4
544.655	1	5
544.825	1	6
544.995	1	-9
545.165	1	0
545.335	1	1
545.505	1	-6
545.675	1	-2
545.845	1	-1
546.015	1	-11
546.185	1	-3
546.355	1	4
546.525	1	8
546.695	1	2
546.865	1	-1
547.035	1	1
547.205	1	12
547.375	1	5
547.545	1	10
547.715	1	4
547.885	1	-3
548.055	1	-6
548.225	1	0
548.395	1	-5
548.565	1	9
548.735	1	-8
548.905	1	5
549.075	1	-12
549.245	1	1
549.415	1	-1
549.585	1	-6
549.755	1	5
549.925	1	-5
550.095	1	0
550.265	1	-6
550.435	1	5
550.605	1	-8
550.775	1	-9
550.945	1	-1
551.115	1	8
551.285	1	8
551.455	1	-1
551.625	1	-8
551.795	1	-5
551.965	1	-6
552.135	1	0
552.305	1	2
552.475	1	-8
552.645	1	-7
552.815	1	-3
552.985	1	-9
553.155	1	-4
553.325	1	-2
553.495	1	6
553.665	1	1
553.835	1	0
554.004	1	3
554.174	1	-7
554.344	1	1
554.514	1	-2
554.684	1	-7
554.854	1	-13
555.024	1	12
555.194	1	-3
555.364	1	-3
555.534	1	-11
555.704	1	0
555.874	1	5
556.044	1	0
556.214	1	0
556.384	1	-2
556.554	1	2
556.724	1	-2
556.894	1	-4
557.064	1	-9
557.234	1	-7
557.404	1	-1
557.573	1	1
557.743	1	-3
557.913	1	-8
558.083	1	3
558.253	1	-6
558.423	1	-1
558.593	1	6
558.763	1	2
558.933	1	2
559.103	1	-9
559.273	1	-5
559.443	1	3
559.613	1	-2
559.783	1	-5
559.953	1	-6
560.122	1	0
560.292	1	-11
560.462	1	-6
560.632	1	-5
560.802	1	-3
560.972	1	-5
561.142	1	-4
561.312	1	-2
561.482	1	5
561.652	1	0
561.822	1	0
561.992	1	-4
562.162	1	1
562.331	1	-5
562.501	1	2
562.671	1	-10
562.841	1	-12
563.011	1	1
563.181	1	-6
563.351	1	-5
563.521	1	-6
563.691	1	4
563.861	1	3
564.031	1	-3
564.201	1	-4
564.370	1	-3
564.540	1	-7
564.710	1	-10
564.880	1	-2
565.050	1	1
565.220	1	5
565.390	1	-7
565.560	1	2
565.730	1	3
565.900	1	9
566.069	1	12
566.239	1	6
566.409	1	9
566.579	1	-1
566.749	1	2
566.919	1	-10
567.089	1	-13
567.259	1	4
567.429	1	-12
567.599	1	8
567.768	1	0
567.938	1	1
568.108	1	-8
568.278	1	-2
568.448	1	-2
568.618	1	5
568.788	1	-1
568.958	1	1
569.128	1	-7
569.297	1	-1
569.467	1	10
569.637	1	-3
569.807	1	0
569.977	1	-12
570.147	1	7
570.317	1	-6
570.487	1	-6
570.656	1	-2
570.826	1	-6
570.996	1	2
571.166	1	4
571.336	1	-4
571.506	1	-6
571.676	1	3
571.846	1	-4
572.015	1	-11
572.185	1	-3
572.355	1	-2
572.525	1	-13
572.695	1	-4
572.865	1	3
573.035	1	0
573.205	1	-3
573.374	1	-1
573.544	1	6
573.714	1	-7
573.884	1	-6
574.054	1	-4
574.224	1	3
574.394	1	-7
574.563	1	-5
574.733	1	1
574.903	1	6
575.073	1	2
575.243	1	-9
575.413	1	-8
575.583	1	-12
575.752	1	0
575.922	1	-3
576.092	1	-5
576.262	1	-2
576.432	1	-6
576.602	1	0
576.772	1	-12
576.941	1	-2
577.111	1	0
577.281	1	-3
577.451	1	-5
577.621	1	3
577.791	1	11
577.960	1	-11
578.130	1	5
578.300	1	-2
578.470	1	0
578.640	1	-6
578.810	1	1
578.979	1	3
579.149	1	-5
579.319	1	2
579.489	1	-3
579.659	1	-6
579.829	1	-11
579.998	1	-13
580.168	1	-8
580.338	1	8
580.508	1	-5
580.678	1	-6
580.848	1	2
581.017	1	0
581.187	1	3
581.357	1	-3
581.527	1	-5
581.697	1	-3
581.867	1	5
582.036	1	-13
582.206	1	-1
582.376	1	-7
582.546	1	-3
582.716	1	1
582.885	1	-5
583.055	1	-11
583.225	1	-2
583.395	1	-8
583.565	1	11
583.735	1	-8
583.904	1	-1
584.074	1	-2
584.244	1	-7
584.414	1	-3
584.584	1	-7
584.753	1	-8
584.923	1	-3
585.093	1	6
585.263	1	-6
585.433	1	1
585.602	1	-1
585.772	1	16
585.942	1	-12
586.112	1	8
586.282	1	0
586.451	1	7
586.621	1	-3
586.791	1	-8
586.961	1	-11
587.131	1	-4
587.300	1	8
587.470	1	0
587.640	1	-7
587.810	1	-12
587.980	1	-2
588.149	1	1
588.319	1	8
588.489	1	3
588.659	1	-2
588.829	1	0
588.998	1	-6
589.168	1	-2
589.338	1	-2
589.508	1	1
589.677	1	4
589.847	1	4
590.017	1	-3
590.187	1	0
590.357	1	-2
590.526	1	-4
590.696	1	-3
590.866	1	-7
591.036	1	7
591.205	1	1
591.375	1	0
591.545	1	-12
591.715	1	-6
591.885	1	8
592.054	1	5
592.224	1	-6
592.394	1	-7
592.564	1	1
592.733	1	4
592.903	1	1
593.073	1	-8
593.243	1	-5
593.412	1	-5
593.582	1	1
593.752	1	-10
593.922	1	-6
594.091	1	9
594.261	1	-8
594.431	1	-5
594.601	1	-4
594.771	1	2
594.940	1	5
595.110	1	1
595.280	1	4
595.450	1	-6
595.619	1	-1
595.789	1	-9
595.959	1	6
596.129	1	-2
596.298	1	9
596.468	1	-5
596.638	1	-7
596.808	1	-13
596.977	1	-3
597.147	1	2
597.317	1	5
597.487	1	-2
597.656	1	4
597.826	1	8
597.996	1	-5
598.166	1	0
598.335	1	-2
598.505	1	2
598.675	1	0
598.844	1	12
599.014	1	-6
599.184	1	-1
599.354	1	2
599.523	1	-9
599.693	1	-4
599.863	1	2
600.033	1	-1
600.202	1	-6
600.372	1	-10
600.542	1	0
600.712	1	5
600.881	1	-2
601.051	1	10
601.221	1	-11
601.390	1	-4
601.560	1	3
601.730	1	-8
601.900	1	-4
602.069	1	-3
602.239	1	2
602.409	1	5
602.578	1	7
602.748	1	7
602.918	1	-8
603.088	1	5
603.257	1	0
603.427	1	4
603.597	1	4
603.767	1	-3
603.936	1	2
604.106	1	-1
604.276	1	5
604.445	1	-1
604.615	1	3
604.785	1	4
604.954	1	-1
605.124	1	-2
605.294	1	5
605.464	1	-12
605.633	1	-2
605.803	1	-4
605.973	1	1
606.142	1	4
606.312	1	-1
606.482	1	-10
606.652	1	5
606.821	1	-2
606.991	1	-2
607.161	1	5
607.330	1	-5
607.500	1	-1
607.670	1	-1
607.839	1	-1
608.009	1	-8
608.179	1	-4
608.348	1	5
608.518	1	7
608.688	1	-2
608.858	1	-3
609.027	1	6
609.197	1	9
609.367	1	-3
609.536	1	-5
609.706	1	3
609.876	1	1
610.045	1	4
610.215	1	1
610.385	1	4
610.554	1	-2
610.724	1	-7
610.894	1	-6
611.063	1	4
611.233	1	1
611.403	1	8
611.572	1	2
611.742	1	-10
611.912	1	-7
612.081	1	-2
612.251	1	5
612.421	1	0
612.590	1	-10
612.760	1	-1
612.930	1	8
613.099	1	-3
613.269	1	-8
613.439	1	-9
613.608	1	-1
613.778	1	1
613.948	1	4
614.117	1	3
614.287	1	0
614.457	1	-5
614.626	1	-9
614.796	1	-3
614.966	1	2
615.135	1	6
615.305	1	1
615.475	1	-8
615.644	1	4
615.814	1	6
615.984	1	-6
616.153	1	-1
616.323	1	3
616.493	1	-5
616.662	1	3
616.832	1	3
617.002	1	0
617.171	1	-3
617.341	1	6
617.511	1	-15
617.680	1	-5
617.850	1	-9
618.019	1	-2
618.189	1	7
618.359	1	3
618.528	1	-1
618.698	1	3
618.868	1	-3
619.037	1	-12
619.207	1	0
619.377	1	-2
619.546	1	4
619.716	1	-4
619.885	1	2
620.055	1	-10
620.225	1	2
620.394	1	3
620.564	1	7
620.734	1	-2
620.903	1	-12
621.073	1	3
621.242	1	3
621.412	1	-8
621.582	1	5
621.751	1	0
621.921	1	1
622.091	1	2
622.260	1	5
622.430	1	2
622.599	1	-6
622.769	1	-4
622.939	1	-7
623.108	1	-2
623.278	1	-4
623.448	1	1
623.617	1	-7
623.787	1	-1
623.956	1	2
624.126	1	-2
624.296	1	-1
624.465	1	-3
624.635	1	-4
624.804	1	-6
624.974	1	-4
625.144	1	0
625.313	1	9
625.483	1	4
625.652	1	1
625.822	1	3
625.992	1	-13
626.161	1	-4
626.331	1	-6
626.501	1	1
626.670	1	-5
626.840	1	-11
627.009	1	0
627.179	1	0
627.348	1	-3
627.518	1	7
627.688	1	-4
627.857	1	8
628.027	1	1
628.196	1	9
628.366	1	-2
628.536	1	-5
628.705	1	-1
628.875	1	-9
629.044	1	-10
629.214	1	4
629.384	1	11
629.553	1	-7
629.723	1	8
629.892	1	-1
630.062	1	-2
630.232	1	0
630.401	1	3
630.571	1	2
630.740	1	-5
630.910	1	3
631.079	1	-1
631.249	1	-6
631.419	1	-4
631.588	1	2
631.758	1	-7
631.927	1	1
632.097	1	-9
632.266	1	6
632.436	1	-4
632.606	1	0
632.775	1	-2
632.945	1	-7
633.114	1	-4
633.284	1	-8
633.453	1	0
633.623	1	6
633.793	1	-4
633.962	1	5
634.132	1	7
634.301	1	9
634.471	1	2
634.640	1	-9
634.810	1	4
634.979	1	0
635.149	1	-4
635.319	1	-5
635.488	1	2
635.658	1	0
635.827	1	-7
635.997	1	1
636.166	1	-9
636.336	1	-4
636.505	1	-2
636.675	1	-6
636.845	1	-10
637.014	1	-13
637.184	1	6
637.353	1	5
637.523	1	-15
637.692	1	0
637.862	1	-7
638.031	1	-4
638.201	1	-6
638.370	1	2
638.540	1	0
638.710	1	-13
638.879	1	-12
639.049	1	2
639.218	1	7
639.388	1	-2
639.557	1	10
639.727	1	4
639.896	1	-2
640.066	1	-4
640.235	1	3
640.405	1	-1
640.574	1	4
640.744	1	4
640.914	1	0
641.083	1	6
641.253	1	-8
641.422	1	-8
641.592	1	-4
641.761	1	-2
641.931	1	15
642.100	1	-5
642.270	1	-3
642.439	1	-14
642.609	1	8
642.778	1	-4
642.948	1	11
643.117	1	-1
643.287	1	4
643.456	1	-10
643.626	1	-9
643.795	1	1
643.965	1	3
644.134	1	0
644.304	1	-6
644.473	1	-8
644.643	1	-2
644.812	1	-5
644.982	1	1
645.151	1	-4
645.321	1	-2
645.490	1	11
645.660	1	-8
645.829	1	1
645.999	1	0
646.168	1	12
646.338	1	-14
646.507	1	3
646.677	1	-3
646.846	1	-1
647.016	1	0
647.185	1	2
647.355	1	14
647.524	1	-7
647.694	1	-9
647.863	1	-5
648.033	1	-1
648.202	1	0
648.372	1	-21
648.541	1	3
648.711	1	3
648.880	1	4
649.050	1	-1
649.219	1	0
649.389	1	-2
649.558	1	0
649.728	1	0
649.897	1	0
650.067	1	3
650.236	1	-4
650.406	1	-2
650.575	1	-4
650.745	1	-5
650.914	1	10
651.084	1	-4
651.253	1	5
651.423	1	-4
651.592	1	2
651.762	1	-1
651.931	1	4
652.101	1	-6
652.270	1	-4
652.440	1	7
652.609	1	4
652.778	1	1
652.948	1	3
653.117	1	-1
653.287	1	-12
653.456	1	-7
653.626	1	-1
653.795	1	0
653.965	1	-5
654.134	1	-8
654.304	1	5
654.473	1	-5
654.643	1	-1
654.812	1	17
654.982	1	-6
655.151	1	10
655.320	1	-5
655.490	1	-3
655.659	1	3
655.829	1	4
655.998	1	6
656.168	1	-3
656.337	1	-5
656.507	1	-9
656.676	1	-4
656.846	1	-5
657.015	1	3
657.184	1	-3
657.354	1	-1
657.523	1	-4
657.693	1	2
657.862	1	-3
658.032	1	-6
658.201	1	-13
658.371	1	-1
658.540	1	5
658.709	1	1
658.879	1	8
659.048	1	1
659.218	1	-3
659.387	1	2
659.557	1	0
659.726	1	-5
659.895	1	-4
660.065	1	-3
660.234	1	-2
660.404	1	2
660.573	1	-11
660.743	1	-1
660.912	1	1
661.081	1	-6
661.251	1	-6
661.420	1	5
661.590	1	-11
661.759	1	1
661.929	1	-3
662.098	1	4
662.267	1	-4
662.437	1	5
662.606	1	-10
662.776	1	2
662.945	1	4
663.115	1	16
663.284	1	5
663.453	1	-1
663.623	1	-7
663.792	1	8
663.962	1	-2
664.131	1	-2
664.300	1	-8
664.470	1	-10
664.639	1	-3
664.809	1	4
664.978	1	19
665.148	1	-2
665.317	1	2
665.486	1	5
665.656	1	3
665.825	1	5
665.995	1	-7
666.164	1	-7
666.333	1	-3
666.503	1	-5
666.672	1	3
666.842	1	-5
667.011	1	9
667.180	1	-3
667.350	1	3
667.519	1	0
667.689	1	-2
667.858	1	-10
668.027	1	-2
668.197	1	-5
668.366	1	-1
668.536	1	-5
668.705	1	-3
668.874	1	2
669.044	1	-3
669.213	1	2
669.382	1	4
669.552	1	0
669.721	1	-4
669.891	1	-3
670.060	1	-9
670.229	1	3
670.399	1	3
670.568	1	2
670.738	1	-6
670.907	1	10
671.076	1	1
671.246	1	0
671.415	1	5
671.584	1	5
671.754	1	-14
671.923	1	2
672.093	1	-4
672.262	1	-13
672.431	1	2
672.601	1	0
672.770	1	-9
672.939	1	7
673.109	1	-5
673.278	1	-2
673.448	1	-1
673.617	1	-1
673.786	1	-6
