325.333	1	2
325.504	1	-10
325.675	1	0
325.846	1	0
326.017	1	-4
326.188	1	-7
326.359	1	-3
326.531	1	-2
326.702	1	-1
326.873	1	7
327.044	1	5
327.215	1	-1
327.386	1	-5
327.557	1	-6
327.728	1	-3
327.899	1	-3
328.070	1	-4
328.241	1	-4
328.412	1	3
328.583	1	1
328.754	1	-2
328.926	1	4
329.097	1	-14
329.268	1	2
329.439	1	7
329.610	1	-1
329.781	1	4
329.952	1	3
330.123	1	2
330.294	1	-9
330.465	1	-9
330.636	1	3
330.807	1	-4
330.978	1	2
331.149	1	0
331.320	1	3
331.492	1	0
331.663	1	-3
331.834	1	-3
332.005	1	5
332.176	1	-1
332.347	1	-3
332.518	1	11
332.689	1	7
332.860	1	-3
333.031	1	4
333.202	1	9
333.373	1	8
333.544	1	2
333.715	1	1
333.886	1	2
334.057	1	1
334.228	1	-1
334.399	1	11
334.570	1	-5
334.741	1	-1
334.912	1	-7
335.084	1	1
335.255	1	-3
335.426	1	2
335.597	1	-6
335.768	1	6
335.939	1	2
336.110	1	-4
336.281	1	2
336.452	1	12
336.623	1	-8
336.794	1	-3
336.965	1	-2
337.136	1	15
337.307	1	0
337.478	1	-8
337.649	1	2
337.820	1	-4
337.991	1	-5
338.162	1	-8
338.333	1	4
338.504	1	3
338.675	1	-2
338.846	1	-7
339.017	1	9
339.188	1	-9
339.359	1	-1
339.530	1	-7
339.701	1	6
339.872	1	6
340.043	1	3
340.214	1	6
340.385	1	-6
340.556	1	4
340.727	1	0
340.898	1	11
341.069	1	-3
341.240	1	3
341.411	1	10
341.582	1	-9
341.753	1	-4
341.924	1	8
342.095	1	-2
342.266	1	8
342.437	1	-2
342.608	1	-11
342.779	1	-4
342.950	1	-9
343.121	1	-3
343.292	1	4
343.463	1	15
343.634	1	3
343.805	1	-7
343.976	1	4
344.147	1	5
344.318	1	-6
344.489	1	4
344.660	1	-2
344.831	1	10
345.002	1	7
345.173	1	8
345.344	1	2
345.515	1	2
345.686	1	-4
345.857	1	8
346.028	1	0
346.199	1	2
346.370	1	5
346.541	1	-3
346.712	1	1
346.883	1	-6
347.054	1	17
347.225	1	-2
347.396	1	-2
347.567	1	-10
347.738	1	-5
347.909	1	-4
348.080	1	-1
348.251	1	5
348.422	1	1
348.593	1	2
348.764	1	10
348.935	1	3
349.106	1	-3
349.277	1	-6
349.448	1	-1
349.619	1	6
349.790	1	7
349.961	1	3
350.132	1	11
350.303	1	2
350.474	1	2
350.645	1	5
350.816	1	5
350.987	1	8
351.157	1	-9
351.328	1	8
351.499	1	7
351.670	1	-6
351.841	1	6
352.012	1	5
352.183	1	9
352.354	1	-3
352.525	1	16
352.696	1	-1
352.867	1	10
353.038	1	4
353.209	1	6
353.380	1	2
353.551	1	-3
353.722	1	11
353.893	1	5
354.064	1	6
354.235	1	-1
354.406	1	-1
354.576	1	-2
354.747	1	3
354.918	1	-1
355.089	1	11
355.260	1	-4
355.431	1	-9
355.602	1	-2
355.773	1	6
355.944	1	8
356.115	1	6
356.286	1	7
356.457	1	3
356.628	1	0
356.799	1	0
356.970	1	13
357.141	1	-2
357.311	1	17
357.482	1	-1
357.653	1	2
357.824	1	12
357.995	1	6
358.166	1	11
358.337	1	-5
358.508	1	16
358.679	1	-8
358.850	1	11
359.021	1	3
359.192	1	6
359.363	1	-6
359.533	1	-2
359.704	1	-2
359.875	1	0
360.046	1	7
360.217	1	7
360.388	1	18
360.559	1	5
360.730	1	-5
360.901	1	3
361.072	1	4
361.243	1	-1
361.414	1	7
361.584	1	-3
361.755	1	6
361.926	1	13
362.097	1	0
362.268	1	17
362.439	1	3
362.610	1	11
362.781	1	-14
362.952	1	7
363.123	1	-9
363.293	1	2
363.464	1	3
363.635	1	8
363.806	1	11
363.977	1	4
364.148	1	-2
364.319	1	-4
364.490	1	5
364.661	1	7
364.832	1	5
365.002	1	10
365.173	1	1
365.344	1	-1
365.515	1	0
365.686	1	1
365.857	1	0
366.028	1	4
366.199	1	0
366.370	1	6
366.540	1	5
366.711	1	9
366.882	1	6
367.053	1	7
367.224	1	4
367.395	1	-2
367.566	1	4
367.737	1	1
367.908	1	6
368.078	1	7
368.249	1	9
368.420	1	7
368.591	1	6
368.762	1	7
368.933	1	8
369.104	1	3
369.274	1	13
369.445	1	5
369.616	1	-2
369.787	1	-2
369.958	1	6
370.129	1	5
370.300	1	-1
370.471	1	3
370.641	1	-1
370.812	1	11
370.983	1	1
371.154	1	1
371.325	1	-5
371.496	1	2
371.667	1	9
371.837	1	9
372.008	1	-6
372.179	1	11
372.350	1	-1
372.521	1	7
372.692	1	14
372.863	1	4
373.033	1	4
373.204	1	5
373.375	1	0
373.546	1	9
373.717	1	-1
373.888	1	7
374.059	1	6
374.229	1	7
374.400	1	6
374.571	1	3
374.742	1	5
374.913	1	1
375.084	1	4
375.254	1	-1
375.425	1	-4
375.596	1	6
375.767	1	6
375.938	1	-5
376.109	1	0
376.279	1	3
376.450	1	7
376.621	1	11
376.792	1	5
376.963	1	-3
377.134	1	8
377.304	1	10
377.475	1	4
377.646	1	4
377.817	1	-1
377.988	1	7
378.159	1	11
378.329	1	1
378.500	1	7
378.671	1	4
378.842	1	10
379.013	1	8
379.184	1	3
379.354	1	7
379.525	1	12
379.696	1	0
379.867	1	4
380.038	1	6
380.209	1	14
380.379	1	9
380.550	1	-3
380.721	1	-3
380.892	1	-2
381.063	1	-2
381.233	1	6
381.404	1	0
381.575	1	4
381.746	1	2
381.917	1	8
382.087	1	14
382.258	1	8
382.429	1	8
382.600	1	-2
382.771	1	-2
382.941	1	16
383.112	1	10
383.283	1	1
383.454	1	10
383.625	1	7
383.795	1	7
383.966	1	8
384.137	1	7
384.308	1	-1
384.479	1	3
384.649	1	0
384.820	1	4
384.991	1	5
385.162	1	11
385.333	1	13
385.503	1	5
385.674	1	2
385.845	1	4
386.016	1	6
386.187	1	-8
386.357	1	14
386.528	1	5
386.699	1	8
386.870	1	14
387.041	1	15
387.211	1	8
387.382	1	10
387.553	1	18
387.724	1	5
387.894	1	0
388.065	1	-1
388.236	1	0
388.407	1	8
388.578	1	9
388.748	1	13
388.919	1	-3
389.090	1	16
389.261	1	15
389.431	1	-7
389.602	1	9
389.773	1	5
389.944	1	3
390.114	1	10
390.285	1	12
390.456	1	2
390.627	1	14
390.798	1	7
390.968	1	7
391.139	1	18
391.310	1	2
391.481	1	0
391.651	1	12
391.822	1	10
391.993	1	4
392.164	1	-4
392.334	1	2
392.505	1	9
392.676	1	3
392.847	1	7
393.017	1	3
393.188	1	11
393.359	1	20
393.530	1	27
393.700	1	5
393.871	1	11
394.042	1	5
394.213	1	9
394.383	1	9
394.554	1	-6
394.725	1	-4
394.896	1	13
395.066	1	6
395.237	1	7
395.408	1	4
395.579	1	7
395.749	1	19
395.920	1	14
396.091	1	1
396.262	1	8
396.432	1	3
396.603	1	11
396.774	1	0
396.945	1	12
397.115	1	18
397.286	1	15
397.457	1	0
397.627	1	-6
397.798	1	9
397.969	1	3
398.140	1	3
398.310	1	5
398.481	1	10
398.652	1	13
398.823	1	0
398.993	1	-1
399.164	1	16
399.335	1	2
399.505	1	-9
399.676	1	11
399.847	1	8
400.018	1	3
400.188	1	9
400.359	1	9
400.530	1	8
400.700	1	12
400.871	1	10
401.042	1	7
401.213	1	11
401.383	1	14
401.554	1	6
401.725	1	12
401.895	1	1
402.066	1	12
402.237	1	6
402.408	1	11
402.578	1	9
402.749	1	11
402.920	1	11
403.090	1	-2
403.261	1	-1
403.432	1	10
403.603	1	7
403.773	1	1
403.944	1	8
404.115	1	7
404.285	1	16
404.456	1	12
404.627	1	15
404.797	1	2
404.968	1	18
405.139	1	15
405.310	1	4
405.480	1	4
405.651	1	9
405.822	1	3
405.992	1	12
406.163	1	5
406.334	1	12
406.504	1	17
406.675	1	-7
406.846	1	-3
407.016	1	13
407.187	1	2
407.358	1	5
407.528	1	13
407.699	1	14
407.870	1	9
408.041	1	9
408.211	1	22
408.382	1	4
408.553	1	10
408.723	1	5
408.894	1	2
409.065	1	13
409.235	1	9
409.406	1	7
409.577	1	15
409.747	1	12
409.918	1	12
410.089	1	16
410.259	1	3
410.430	1	3
410.601	1	4
410.771	1	9
410.942	1	-1
411.113	1	12
411.283	1	1
411.454	1	24
411.625	1	7
411.795	1	16
411.966	1	4
412.137	1	13
412.307	1	9
412.478	1	8
412.649	1	8
412.819	1	13
412.990	1	13
413.161	1	10
413.331	1	5
413.502	1	1
413.672	1	6
413.843	1	4
414.014	1	3
414.184	1	21
414.355	1	13
414.526	1	15
414.696	1	2
414.867	1	-5
415.038	1	3
415.208	1	3
415.379	1	5
415.550	1	3
415.720	1	7
415.891	1	18
416.062	1	17
416.232	1	8
416.403	1	9
416.573	1	13
416.744	1	6
416.915	1	9
417.085	1	14
417.256	1	0
417.427	1	5
417.597	1	9
417.768	1	7
417.939	1	4
418.109	1	0
418.280	1	20
418.450	1	13
418.621	1	4
418.792	1	-3
418.962	1	16
419.133	1	7
419.304	1	7
419.474	1	14
419.645	1	8
419.815	1	4
419.986	1	15
420.157	1	9
420.327	1	-9
420.498	1	7
420.669	1	17
420.839	1	14
421.010	1	6
421.180	1	-2
421.351	1	4
421.522	1	9
421.692	1	12
421.863	1	7
422.033	1	16
422.204	1	10
422.375	1	8
422.545	1	13
422.716	1	0
422.886	1	6
423.057	1	17
423.228	1	0
423.398	1	11
423.569	1	3
423.740	1	11
423.910	1	9
424.081	1	11
424.251	1	13
424.422	1	4
424.593	1	17
424.763	1	16
424.934	1	10
425.104	1	14
425.275	1	4
425.445	1	5
425.616	1	8
425.787	1	6
425.957	1	6
426.128	1	8
426.298	1	10
426.469	1	2
426.640	1	3
426.810	1	-14
426.981	1	15
427.151	1	7
427.322	1	7
427.493	1	4
427.663	1	8
427.834	1	12
428.004	1	12
428.175	1	25
428.345	1	-2
428.516	1	12
428.687	1	8
428.857	1	16
429.028	1	14
429.198	1	0
429.369	1	16
429.540	1	10
429.710	1	9
429.881	1	6
430.051	1	2
430.222	1	11
430.392	1	5
430.563	1	7
430.734	1	2
430.904	1	8
431.075	1	12
431.245	1	8
431.416	1	7
431.586	1	5
431.757	1	7
431.927	1	3
432.098	1	11
432.269	1	-4
432.439	1	1
432.610	1	16
432.780	1	13
432.951	1	1
433.121	1	6
433.292	1	16
433.462	1	6
433.633	1	0
433.804	1	13
433.974	1	12
434.145	1	-4
434.315	1	6
434.486	1	0
434.656	1	17
434.827	1	9
434.997	1	12
435.168	1	2
435.339	1	19
435.509	1	4
435.680	1	5
435.850	1	-5
436.021	1	-3
436.191	1	4
436.362	1	4
436.532	1	10
436.703	1	10
436.873	1	6
437.044	1	6
437.214	1	-3
437.385	1	0
437.556	1	-1
437.726	1	8
437.897	1	0
438.067	1	11
438.238	1	4
438.408	1	12
438.579	1	3
438.749	1	8
438.920	1	18
439.090	1	6
439.261	1	1
439.431	1	-3
439.602	1	1
439.772	1	11
439.943	1	10
440.113	1	2
440.284	1	11
440.455	1	8
440.625	1	11
440.796	1	-4
440.966	1	7
441.137	1	9
441.307	1	7
441.478	1	1
441.648	1	2
441.819	1	9
441.989	1	20
442.160	1	10
442.330	1	6
442.501	1	11
442.671	1	13
442.842	1	4
443.012	1	1
443.183	1	3
443.353	1	5
443.524	1	5
443.694	1	7
443.865	1	6
444.035	1	3
444.206	1	-1
444.376	1	13
444.547	1	4
444.717	1	3
444.888	1	-4
445.058	1	3
445.229	1	8
445.399	1	0
445.570	1	2
445.740	1	0
445.911	1	11
446.081	1	7
446.252	1	8
446.422	1	6
446.593	1	-8
446.763	1	15
446.934	1	4
447.104	1	6
447.275	1	3
447.445	1	12
447.616	1	-3
447.786	1	2
447.957	1	11
448.127	1	1
448.298	1	0
448.468	1	1
448.639	1	-3
448.809	1	-4
448.979	1	19
449.150	1	0
449.320	1	8
449.491	1	-2
449.661	1	6
449.832	1	7
450.002	1	4
450.173	1	8
450.343	1	2
450.514	1	7
450.684	1	2
450.855	1	9
451.025	1	4
451.196	1	4
451.366	1	15
451.537	1	16
451.707	1	11
451.878	1	-2
452.048	1	-1
452.218	1	1
452.389	1	12
452.559	1	11
452.730	1	-1
452.900	1	5
453.071	1	5
453.241	1	13
453.412	1	-5
453.582	1	1
453.753	1	7
453.923	1	6
454.093	1	2
454.264	1	9
454.434	1	6
454.605	1	5
454.775	1	17
454.946	1	3
455.116	1	17
455.287	1	-1
455.457	1	6
455.628	1	-4
455.798	1	12
455.968	1	2
456.139	1	6
456.309	1	-3
456.480	1	3
456.650	1	4
456.821	1	-2
456.991	1	5
457.161	1	7
457.332	1	7
457.502	1	2
457.673	1	-1
457.843	1	2
458.014	1	2
458.184	1	5
458.355	1	2
458.525	1	-1
458.695	1	3
458.866	1	2
459.036	1	8
459.207	1	9
459.377	1	9
459.548	1	7
459.718	1	3
459.888	1	4
460.059	1	-1
460.229	1	-4
460.400	1	4
460.570	1	1
460.740	1	3
460.911	1	-6
461.081	1	14
461.252	1	-4
461.422	1	-1
461.593	1	6
461.763	1	12
461.933	1	1
462.104	1	-4
462.274	1	4
462.445	1	6
462.615	1	6
462.785	1	1
462.956	1	3
463.126	1	11
463.297	1	2
463.467	1	3
463.638	1	6
463.808	1	3
463.978	1	1
464.149	1	4
464.319	1	7
464.490	1	-1
464.660	1	-4
464.830	1	3
465.001	1	-3
465.171	1	3
465.342	1	-6
465.512	1	6
465.682	1	-1
465.853	1	2
466.023	1	5
466.194	1	-3
466.364	1	16
466.534	1	-10
466.705	1	15
466.875	1	-9
467.045	1	-6
467.216	1	-1
467.386	1	-6
467.557	1	12
467.727	1	-4
467.897	1	0
468.068	1	2
468.238	1	-1
468.409	1	8
468.579	1	-2
468.749	1	6
468.920	1	-5
469.090	1	3
469.260	1	10
469.431	1	-1
469.601	1	4
469.772	1	13
469.942	1	8
470.112	1	-2
470.283	1	9
470.453	1	9
470.623	1	9
470.794	1	7
470.964	1	6
471.135	1	17
471.305	1	-5
471.475	1	5
471.646	1	11
471.816	1	6
471.986	1	-1
472.157	1	8
472.327	1	8
472.497	1	4
472.668	1	3
472.838	1	-2
473.009	1	5
473.179	1	-3
473.349	1	-7
473.520	1	14
473.690	1	10
473.860	1	-1
474.031	1	-3
474.201	1	5
474.371	1	6
474.542	1	5
474.712	1	-3
474.882	1	1
475.053	1	4
475.223	1	-3
475.394	1	-4
475.564	1	0
475.734	1	-2
475.905	1	11
476.075	1	22
476.245	1	3
476.416	1	-6
476.586	1	2
476.756	1	-3
476.927	1	-3
477.097	1	3
477.267	1	5
477.438	1	15
477.608	1	20
477.778	1	-2
477.949	1	-1
478.119	1	8
478.289	1	-2
478.460	1	-4
478.630	1	-7
478.800	1	-3
478.971	1	4
479.141	1	7
479.311	1	4
479.482	1	-3
479.652	1	6
479.822	1	-5
479.993	1	-1
480.163	1	0
480.333	1	7
480.504	1	8
480.674	1	4
480.844	1	-2
481.015	1	10
481.185	1	10
481.355	1	4
481.525	1	-4
481.696	1	1
481.866	1	-4
482.036	1	4
482.207	1	10
482.377	1	2
482.547	1	0
482.718	1	-4
482.888	1	12
483.058	1	6
483.229	1	-2
483.399	1	7
483.569	1	-5
483.740	1	0
483.910	1	-16
484.080	1	-3
484.250	1	-5
484.421	1	-5
484.591	1	4
484.761	1	4
484.932	1	-6
485.102	1	-2
485.272	1	2
485.443	1	-5
485.613	1	3
485.783	1	-1
485.953	1	-2
486.124	1	4
486.294	1	7
486.464	1	11
486.635	1	-6
486.805	1	1
486.975	1	-4
487.146	1	2
487.316	1	5
487.486	1	12
487.656	1	2
487.827	1	1
487.997	1	8
488.167	1	0
488.338	1	1
488.508	1	14
488.678	1	4
488.848	1	-6
489.019	1	-6
489.189	1	6
489.359	1	3
489.529	1	4
489.700	1	7
489.870	1	12
490.040	1	-2
490.211	1	-3
490.381	1	0
490.551	1	-2
490.721	1	7
490.892	1	-8
491.062	1	-4
491.232	1	2
491.402	1	-4
491.573	1	16
491.743	1	3
491.913	1	5
492.084	1	6
492.254	1	1
492.424	1	1
492.594	1	0
492.765	1	-1
492.935	1	9
493.105	1	1
493.275	1	1
493.446	1	-8
493.616	1	-7
493.786	1	-1
493.956	1	-4
494.127	1	0
494.297	1	-12
494.467	1	6
494.637	1	5
494.808	1	8
494.978	1	-3
495.148	1	2
495.318	1	0
495.489	1	-4
495.659	1	-1
495.829	1	3
495.999	1	11
496.170	1	1
496.340	1	-2
496.510	1	7
496.680	1	1
496.851	1	9
497.021	1	-2
497.191	1	14
497.361	1	-3
497.532	1	10
497.702	1	-1
497.872	1	9
498.042	1	1
498.213	1	-1
498.383	1	-1
498.553	1	0
498.723	1	-1
498.894	1	2
499.064	1	0
499.234	1	3
499.404	1	6
499.574	1	2
499.745	1	4
499.915	1	3
500.085	1	2
500.255	1	-2
500.426	1	4
500.596	1	-12
500.766	1	-3
500.936	1	-4
501.106	1	-6
501.277	1	-6
501.447	1	0
501.617	1	1
501.787	1	-3
501.958	1	0
502.128	1	-5
502.298	1	1
502.468	1	-11
502.638	1	5
502.809	1	-10
502.979	1	5
503.149	1	1
503.319	1	8
503.489	1	-12
503.660	1	2
503.830	1	4
504.000	1	-3
504.170	1	-8
504.340	1	-5
504.511	1	-4
504.681	1	9
504.851	1	-1
505.021	1	-2
505.192	1	-11
505.362	1	0
505.532	1	-5
505.702	1	8
505.872	1	2
506.043	1	10
506.213	1	9
506.383	1	1
506.553	1	0
506.723	1	-10
506.893	1	6
507.064	1	6
507.234	1	-3
507.404	1	-3
507.574	1	-1
507.744	1	-1
507.915	1	2
508.085	1	4
508.255	1	-1
508.425	1	0
508.595	1	-4
508.766	1	-1
508.936	1	4
509.106	1	6
509.276	1	4
509.446	1	-4
509.616	1	-6
509.787	1	-3
509.957	1	8
510.127	1	-8
510.297	1	-12
510.467	1	2
510.638	1	-5
510.808	1	13
510.978	1	-6
511.148	1	5
511.318	1	2
511.488	1	2
511.659	1	-1
511.829	1	0
511.999	1	-3
512.169	1	-1
512.339	1	8
512.509	1	2
512.680	1	-4
512.850	1	6
513.020	1	1
513.190	1	-6
513.360	1	3
513.530	1	-7
513.700	1	4
513.871	1	-8
514.041	1	-2
514.211	1	3
514.381	1	5
514.551	1	2
514.721	1	-2
514.892	1	2
515.062	1	4
515.232	1	-5
515.402	1	2
515.572	1	-1
515.742	1	-3
515.912	1	-4
516.083	1	-1
516.253	1	8
516.423	1	0
516.593	1	1
516.763	1	11
516.933	1	-2
517.104	1	9
517.274	1	-2
517.444	1	-3
517.614	1	-7
517.784	1	7
517.954	1	-1
518.124	1	3
518.294	1	0
518.465	1	-1
518.635	1	10
518.805	1	-5
518.975	1	0
519.145	1	-3
519.315	1	5
519.485	1	-6
519.656	1	2
519.826	1	-3
519.996	1	-3
520.166	1	1
520.336	1	-5
520.506	1	2
520.676	1	-3
520.846	1	2
521.017	1	-8
521.187	1	3
521.357	1	-1
521.527	1	6
521.697	1	2
521.867	1	1
522.037	1	0
522.207	1	-2
522.377	1	7
522.548	1	-3
522.718	1	2
522.888	1	-2
523.058	1	5
523.228	1	4
523.398	1	-9
523.568	1	-17
523.738	1	9
523.909	1	-12
524.079	1	-7
524.249	1	-4
524.419	1	0
524.589	1	4
524.759	1	7
524.929	1	6
525.099	1	-6
525.269	1	3
525.439	1	-10
525.610	1	5
525.780	1	-2
525.950	1	2
526.120	1	-7
526.290	1	-1
526.460	1	-8
526.630	1	-6
526.800	1	1
526.970	1	-6
527.140	1	0
527.311	1	-2
527.481	1	-1
527.651	1	-3
527.821	1	-1
527.991	1	-8
528.161	1	0
528.331	1	-12
528.501	1	2
528.671	1	5
528.841	1	5
529.011	1	-3
529.181	1	-9
529.352	1	-7
529.522	1	-4
529.692	1	2
529.862	1	-10
530.032	1	-7
530.202	1	-9
530.372	1	0
530.542	1	5
530.712	1	7
530.882	1	-8
531.052	1	1
531.222	1	4
531.392	1	-3
531.563	1	2
531.733	1	-8
531.903	1	-7
532.073	1	-3
532.243	1	10
532.413	1	19
532.583	1	5
532.753	1	-6
532.923	1	4
533.093	1	-9
533.263	1	-2
533.433	1	-6
533.603	1	-5
533.773	1	5
533.943	1	-1
534.113	1	-1
534.284	1	-7
534.454	1	7
534.624	1	1
534.794	1	-1
534.964	1	-1
535.134	1	-9
535.304	1	-6
535.474	1	-5
535.644	1	-3
535.814	1	-5
535.984	1	-1
536.154	1	8
536.324	1	-4
536.494	1	11
536.664	1	-3
536.834	1	-11
537.004	1	-4
537.174	1	3
537.344	1	5
537.514	1	-3
537.685	1	3
537.855	1	-3
538.025	1	8
538.195	1	-13
538.365	1	13
538.535	1	-4
538.705	1	-10
538.875	1	5
539.045	1	-2
539.215	1	-19
539.385	1	1
539.555	1	0
539.725	1	-3
539.895	1	7
540.065	1	-7
540.235	1	2
540.405	1	2
540.575	1	4
540.745	1	1
540.915	1	-6
541.085	1	6
541.255	1	-8
541.425	1	-5
541.595	1	-4
541.765	1	6
541.935	1	-1
542.105	1	1
542.275	1	-2
542.445	1	-6
542.615	1	11
542.785	1	3
542.955	1	10
543.125	1	4
543.295	1	-5
543.465	1	8
543.635	1	-9
543.805	1	11
543.975	1	-2
544.145	1	3
544.315	1	-12
544.485	1	-6
544.655	1	5
544.825	1	11
544.995	1	-3
545.165	1	2
545.335	1	0
545.505	1	-6
545.675	1	5
545.845	1	6
546.015	1	-7
546.185	1	0
546.355	1	-2
546.525	1	6
546.695	1	-7
546.865	1	0
547.035	1	1
547.205	1	11
547.375	1	-2
547.545	1	8
547.715	1	0
547.885	1	-7
548.055	1	-9
548.225	1	5
548.395	1	-4
548.565	1	-1
548.735	1	-10
548.905	1	10
549.075	1	4
549.245	1	7
549.415	1	-3
549.585	1	-8
549.755	1	5
549.925	1	3
550.095	1	-5
550.265	1	-5
550.435	1	3
550.605	1	7
550.775	1	-8
550.945	1	-6
551.115	1	11
551.285	1	8
551.455	1	3
551.625	1	-5
551.795	1	4
551.965	1	-7
552.135	1	-4
552.305	1	-1
552.475	1	-3
552.645	1	-1
552.815	1	-9
552.985	1	-7
553.155	1	-2
553.325	1	-5
553.495	1	-2
553.665	1	-8
553.835	1	8
554.004	1	-1
554.174	1	-2
554.344	1	-6
554.514	1	-3
554.684	1	4
554.854	1	-13
555.024	1	6
555.194	1	-6
555.364	1	4
555.534	1	-6
555.704	1	-6
555.874	1	-3
556.044	1	-5
556.214	1	3
556.384	1	4
556.554	1	1
556.724	1	-8
556.894	1	4
557.064	1	-5
557.234	1	-4
557.404	1	0
557.573	1	0
557.743	1	-3
557.913	1	-5
558.083	1	-4
558.253	1	-9
558.423	1	2
558.593	1	5
558.763	1	-12
558.933	1	-2
559.103	1	-5
559.273	1	4
559.443	1	9
559.613	1	-1
559.783	1	2
559.953	1	-13
560.122	1	-11
560.292	1	-11
560.462	1	-8
560.632	1	-2
560.802	1	2
560.972	1	-7
561.142	1	2
561.312	1	-6
561.482	1	4
561.652	1	1
561.822	1	-10
561.992	1	-2
562.162	1	-10
562.331	1	-17
562.501	1	2
562.671	1	-4
562.841	1	-9
563.011	1	5
563.181	1	-9
563.351	1	-8
563.521	1	-11
563.691	1	8
563.861	1	0
564.031	1	4
564.201	1	-11
564.370	1	-6
564.540	1	-2
564.710	1	-4
564.880	1	-2
565.050	1	2
565.220	1	3
565.390	1	-3
565.560	1	7
565.730	1	-2
565.900	1	-3
566.069	1	5
566.239	1	4
566.409	1	-1
566.579	1	0
566.749	1	-10
566.919	1	-5
567.089	1	-12
567.259	1	1
567.429	1	-11
567.599	1	10
567.768	1	-2
567.938	1	-3
568.108	1	-4
568.278	1	1
568.448	1	-8
568.618	1	3
568.788	1	3
568.958	1	3
569.128	1	-3
569.297	1	1
569.467	1	8
569.637	1	8
569.807	1	12
569.977	1	-10
570.147	1	-4
570.317	1	-2
570.487	1	-3
570.656	1	-2
570.826	1	-5
570.996	1	4
571.166	1	-3
571.336	1	-6
571.506	1	-5
571.676	1	2
571.846	1	-2
572.015	1	3
572.185	1	-1
572.355	1	-3
572.525	1	-11
572.695	1	-3
572.865	1	14
573.035	1	-1
573.205	1	-6
573.374	1	-3
573.544	1	-6
573.714	1	2
573.884	1	-6
574.054	1	2
574.224	1	-6
574.394	1	-9
574.563	1	-9
574.733	1	4
574.903	1	5
575.073	1	5
575.243	1	-6
575.413	1	-3
575.583	1	-10
575.752	1	-3
575.922	1	2
576.092	1	-4
576.262	1	5
576.432	1	-5
576.602	1	-2
576.772	1	-5
576.941	1	1
577.111	1	3
577.281	1	2
577.451	1	6
577.621	1	4
577.791	1	0
577.960	1	-2
578.130	1	2
578.300	1	-1
578.470	1	3
578.640	1	-5
578.810	1	-5
578.979	1	0
579.149	1	-6
579.319	1	-1
579.489	1	9
579.659	1	-6
579.829	1	-8
579.998	1	-8
580.168	1	6
580.338	1	-6
580.508	1	-2
580.678	1	1
580.848	1	6
581.017	1	-1
581.187	1	-5
581.357	1	2
581.527	1	2
581.697	1	-2
581.867	1	3
582.036	1	-7
582.206	1	-1
582.376	1	-4
582.546	1	-6
582.716	1	-5
582.885	1	-2
583.055	1	-7
583.225	1	-2
583.395	1	-1
583.565	1	9
583.735	1	5
583.904	1	-4
584.074	1	-9
584.244	1	-2
584.414	1	2
584.584	1	1
584.753	1	4
584.923	1	-5
585.093	1	2
585.263	1	1
585.433	1	4
585.602	1	7
585.772	1	13
585.942	1	-5
586.112	1	-2
586.282	1	-4
586.451	1	3
586.621	1	0
586.791	1	-3
586.961	1	-6
587.131	1	-7
587.300	1	4
587.470	1	-1
587.640	1	-4
587.810	1	-8
587.980	1	1
588.149	1	6
588.319	1	9
588.489	1	3
588.659	1	-5
588.829	1	8
588.998	1	-6
589.168	1	2
589.338	1	-2
589.508	1	-3
589.677	1	-5
589.847	1	4
590.017	1	-6
590.187	1	2
590.357	1	-5
590.526	1	-10
590.696	1	-1
590.866	1	-13
591.036	1	7
591.205	1	2
591.375	1	1
591.545	1	-9
591.715	1	-4
591.885	1	8
592.054	1	5
592.224	1	-4
592.394	1	-5
592.564	1	0
592.733	1	-1
592.903	1	0
593.073	1	-5
593.243	1	5
593.412	1	-18
593.582	1	-3
593.752	1	-3
593.922	1	-3
594.091	1	4
594.261	1	-6
594.431	1	6
594.601	1	-12
594.771	1	-3
594.940	1	-1
595.110	1	4
595.280	1	-6
595.450	1	-4
595.619	1	-4
595.789	1	-11
595.959	1	-9
596.129	1	1
596.298	1	16
596.468	1	-8
596.638	1	3
596.808	1	-9
596.977	1	-6
597.147	1	-5
597.317	1	2
597.487	1	2
597.656	1	2
597.826	1	2
597.996	1	-2
598.166	1	-2
598.335	1	-13
598.505	1	3
598.675	1	1
598.844	1	12
599.014	1	-6
599.184	1	-5
599.354	1	11
599.523	1	-4
599.693	1	0
599.863	1	0
600.033	1	0
600.202	1	-3
600.372	1	-10
600.542	1	-1
600.712	1	-3
600.881	1	-4
601.051	1	5
601.221	1	-4
601.390	1	0
601.560	1	7
601.730	1	0
601.900	1	-6
602.069	1	5
602.239	1	11
602.409	1	1
602.578	1	10
602.748	1	7
602.918	1	-4
603.088	1	3
603.257	1	-9
603.427	1	-8
603.597	1	-6
603.767	1	0
603.936	1	-5
604.106	1	-4
604.276	1	-11
604.445	1	-5
604.615	1	-7
604.785	1	4
604.954	1	-1
605.124	1	2
605.294	1	-9
605.464	1	-5
605.633	1	1
605.803	1	-3
605.973	1	4
606.142	1	7
606.312	1	2
606.482	1	-15
606.652	1	-1
606.821	1	-2
606.991	1	-5
607.161	1	9
607.330	1	-8
607.500	1	13
607.670	1	5
607.839	1	-3
608.009	1	-11
608.179	1	4
608.348	1	1
608.518	1	6
608.688	1	-5
608.858	1	-7
609.027	1	5
609.197	1	2
609.367	1	-5
609.536	1	1
609.706	1	5
609.876	1	5
610.045	1	-1
610.215	1	0
610.385	1	-2
610.554	1	2
610.724	1	-2
610.894	1	7
611.063	1	0
611.233	1	3
611.403	1	-2
611.572	1	-3
611.742	1	-14
611.912	1	-1
612.081	1	6
612.251	1	-4
612.421	1	-7
612.590	1	-3
612.760	1	-4
612.930	1	3
613.099	1	1
613.269	1	-1
613.439	1	-6
613.608	1	3
613.778	1	1
613.948	1	12
614.117	1	-7
614.287	1	-6
614.457	1	-1
614.626	1	6
614.796	1	1
614.966	1	3
615.135	1	4
615.305	1	2
615.475	1	5
615.644	1	10
615.814	1	10
615.984	1	-17
616.153	1	-2
616.323	1	4
616.493	1	-8
616.662	1	-1
616.832	1	-2
617.002	1	3
617.171	1	0
617.341	1	10
617.511	1	-10
617.680	1	-13
617.850	1	-6
618.019	1	-7
618.189	1	17
618.359	1	5
618.528	1	0
618.698	1	3
618.868	1	-8
619.037	1	6
619.207	1	-4
619.377	1	6
619.546	1	0
619.716	1	8
619.885	1	-7
620.055	1	-4
620.225	1	1
620.394	1	4
620.564	1	7
620.734	1	-4
620.903	1	-5
621.073	1	2
621.242	1	4
621.412	1	-5
621.582	1	7
621.751	1	-9
621.921	1	0
622.091	1	0
622.260	1	10
622.430	1	3
622.599	1	-4
622.769	1	-6
622.939	1	-5
623.108	1	2
623.278	1	-1
623.448	1	-7
623.617	1	-4
623.787	1	-3
623.956	1	9
624.126	1	4
624.296	1	2
624.465	1	-8
624.635	1	1
624.804	1	-15
624.974	1	-6
625.144	1	-10
625.313	1	20
625.483	1	6
625.652	1	8
625.822	1	3
625.992	1	1
626.161	1	5
626.331	1	-1
626.501	1	0
626.670	1	-3
626.840	1	3
627.009	1	2
627.179	1	-5
627.348	1	-4
627.518	1	10
627.688	1	3
627.857	1	10
628.027	1	10
628.196	1	1
628.366	1	-10
628.536	1	-4
628.705	1	-6
628.875	1	0
629.044	1	-7
629.214	1	1
629.384	1	2
629.553	1	-1
629.723	1	-1
629.892	1	7
630.062	1	7
630.232	1	1
630.401	1	8
630.571	1	-7
630.740	1	3
630.910	1	2
631.079	1	-5
631.249	1	-3
631.419	1	4
631.588	1	4
631.758	1	-4
631.927	1	10
632.097	1	-1
632.266	1	9
632.436	1	-3
632.606	1	-1
632.775	1	3
632.945	1	0
633.114	1	-13
633.284	1	0
633.453	1	5
633.623	1	6
633.793	1	-4
633.962	1	8
634.132	1	7
634.301	1	6
634.471	1	0
634.640	1	-9
634.810	1	-2
634.979	1	10
635.149	1	-7
635.319	1	-11
635.488	1	4
635.658	1	-12
635.827	1	-5
635.997	1	4
636.166	1	-1
636.336	1	-13
636.505	1	4
636.675	1	3
636.845	1	-3
637.014	1	-7
637.184	1	6
637.353	1	5
637.523	1	1
637.692	1	1
637.862	1	-7
638.031	1	-7
638.201	1	10
638.370	1	-1
638.540	1	2
638.710	1	-8
638.879	1	-20
639.049	1	-2
639.218	1	9
639.388	1	-3
639.557	1	-4
639.727	1	-1
639.896	1	-13
640.066	1	-1
640.235	1	4
640.405	1	1
640.574	1	3
640.744	1	-5
640.914	1	0
641.083	1	5
641.253	1	-3
641.422	1	-12
641.592	1	2
641.761	1	-2
641.931	1	7
642.100	1	6
642.270	1	-1
642.439	1	-11
642.609	1	8
642.778	1	0
642.948	1	3
643.117	1	2
643.287	1	2
643.456	1	-5
643.626	1	-1
643.795	1	-6
643.965	1	-2
644.134	1	-4
644.304	1	-4
644.473	1	-5
644.643	1	4
644.812	1	-9
644.982	1	-1
645.151	1	-9
645.321	1	1
645.490	1	6
645.660	1	-5
645.829	1	-9
645.999	1	-5
646.168	1	15
646.338	1	-5
646.507	1	-6
646.677	1	-7
646.846	1	2
647.016	1	12
647.185	1	12
647.355	1	2
647.524	1	-7
647.694	1	-4
647.863	1	-5
648.033	1	2
648.202	1	1
648.372	1	-7
648.541	1	-4
648.711	1	-5
648.880	1	4
649.050	1	10
649.219	1	3
649.389	1	1
649.558	1	7
649.728	1	1
649.897	1	2
650.067	1	-1
650.236	1	-2
650.406	1	-6
650.575	1	6
650.745	1	4
650.914	1	5
651.084	1	1
651.253	1	3
651.423	1	-1
651.592	1	4
651.762	1	-6
651.931	1	0
652.101	1	-1
652.270	1	2
652.440	1	7
652.609	1	1
652.778	1	4
652.948	1	1
653.117	1	-6
653.287	1	-13
653.456	1	-10
653.626	1	-4
653.795	1	-6
653.965	1	0
654.134	1	-3
654.304	1	5
654.473	1	1
654.643	1	-5
654.812	1	5
654.982	1	-2
655.151	1	5
655.320	1	-7
655.490	1	-4
655.659	1	5
655.829	1	-3
655.998	1	4
656.168	1	-1
656.337	1	1
656.507	1	-15
656.676	1	-10
656.846	1	-8
657.015	1	6
657.184	1	-4
657.354	1	-2
657.523	1	10
657.693	1	4
657.862	1	-11
658.032	1	-4
658.201	1	-7
658.371	1	10
658.540	1	-8
658.709	1	6
658.879	1	-1
659.048	1	6
659.218	1	-1
659.387	1	9
659.557	1	6
659.726	1	-3
659.895	1	5
660.065	1	-11
660.234	1	-9
660.404	1	-1
660.573	1	4
660.743	1	-7
660.912	1	6
661.081	1	-8
661.251	1	-8
661.420	1	1
661.590	1	-6
661.759	1	7
661.929	1	-5
662.098	1	0
662.267	1	-5
662.437	1	0
662.606	1	-8
662.776	1	-3
662.945	1	12
663.115	1	7
663.284	1	-4
663.453	1	-4
663.623	1	-8
663.792	1	8
663.962	1	6
664.131	1	-7
664.300	1	-11
664.470	1	-5
664.639	1	4
664.809	1	-11
664.978	1	11
665.148	1	0
665.317	1	0
665.486	1	5
665.656	1	-5
665.825	1	12
665.995	1	-13
666.164	1	5
666.333	1	2
666.503	1	-5
666.672	1	1
666.842	1	-1
667.011	1	0
667.180	1	-4
667.350	1	7
667.519	1	3
667.689	1	-1
667.858	1	-1
668.027	1	1
668.197	1	-18
668.366	1	-5
668.536	1	-7
668.705	1	-13
668.874	1	11
669.044	1	-5
669.213	1	12
669.382	1	3
669.552	1	4
669.721	1	-3
669.891	1	-6
670.060	1	-2
670.229	1	0
670.399	1	0
670.568	1	6
670.738	1	-5
670.907	1	4
671.076	1	3
671.246	1	4
671.415	1	6
671.584	1	1
671.754	1	-8
671.923	1	-1
672.093	1	9
672.262	1	-1
672.431	1	2
672.601	1	7
672.770	1	2
672.939	1	6
673.109	1	-1
673.278	1	-6
673.448	1	3
673.617	1	-3
673.786	1	-9
