325.333	1	6
325.504	1	-2
325.675	1	6
325.846	1	6
326.017	1	10
326.188	1	0
326.359	1	6
326.531	1	-7
326.702	1	-5
326.873	1	8
327.044	1	2
327.215	1	-6
327.386	1	0
327.557	1	0
327.728	1	1
327.899	1	4
328.070	1	10
328.241	1	-2
328.412	1	3
328.583	1	3
328.754	1	13
328.926	1	5
329.097	1	-4
329.268	1	8
329.439	1	12
329.610	1	1
329.781	1	3
329.952	1	9
330.123	1	2
330.294	1	2
330.465	1	-4
330.636	1	10
330.807	1	7
330.978	1	0
331.149	1	0
331.320	1	11
331.492	1	3
331.663	1	6
331.834	1	2
332.005	1	12
332.176	1	14
332.347	1	2
332.518	1	11
332.689	1	1
332.860	1	1
333.031	1	6
333.202	1	5
333.373	1	10
333.544	1	12
333.715	1	6
333.886	1	4
334.057	1	5
334.228	1	8
334.399	1	12
334.570	1	-1
334.741	1	4
334.912	1	8
335.084	1	15
335.255	1	8
335.426	1	6
335.597	1	8
335.768	1	2
335.939	1	1
336.110	1	6
336.281	1	6
336.452	1	15
336.623	1	7
336.794	1	4
336.965	1	-2
337.136	1	13
337.307	1	3
337.478	1	8
337.649	1	-3
337.820	1	2
337.991	1	9
338.162	1	1
338.333	1	2
338.504	1	12
338.675	1	1
338.846	1	-12
339.017	1	13
339.188	1	-1
339.359	1	11
339.530	1	-4
339.701	1	8
339.872	1	20
340.043	1	7
340.214	1	11
340.385	1	-9
340.556	1	19
340.727	1	2
340.898	1	6
341.069	1	-1
341.240	1	10
341.411	1	9
341.582	1	-3
341.753	1	9
341.924	1	17
342.095	1	5
342.266	1	12
342.437	1	11
342.608	1	9
342.779	1	0
342.950	1	7
343.121	1	13
343.292	1	10
343.463	1	20
343.634	1	14
343.805	1	4
343.976	1	14
344.147	1	12
344.318	1	-2
344.489	1	-4
344.660	1	9
344.831	1	20
345.002	1	3
345.173	1	6
345.344	1	6
345.515	1	14
345.686	1	20
345.857	1	15
346.028	1	7
346.199	1	4
346.370	1	9
346.541	1	5
346.712	1	8
346.883	1	8
347.054	1	14
347.225	1	2
347.396	1	10
347.567	1	-2
347.738	1	7
347.909	1	16
348.080	1	1
348.251	1	7
348.422	1	7
348.593	1	10
348.764	1	17
348.935	1	6
349.106	1	9
349.277	1	1
349.448	1	6
349.619	1	4
349.790	1	16
349.961	1	6
350.132	1	12
350.303	1	13
350.474	1	21
350.645	1	18
350.816	1	6
350.987	1	8
351.157	1	2
351.328	1	9
351.499	1	9
351.670	1	8
351.841	1	10
352.012	1	13
352.183	1	15
352.354	1	6
352.525	1	12
352.696	1	13
352.867	1	22
353.038	1	14
353.209	1	12
353.380	1	12
353.551	1	15
353.722	1	6
353.893	1	22
354.064	1	13
354.235	1	3
354.406	1	1
354.576	1	11
354.747	1	13
354.918	1	11
355.089	1	17
355.260	1	17
355.431	1	5
355.602	1	12
355.773	1	18
355.944	1	9
356.115	1	19
356.286	1	14
356.457	1	7
356.628	1	12
356.799	1	12
356.970	1	14
357.141	1	23
357.311	1	19
357.482	1	9
357.653	1	13
357.824	1	15
357.995	1	14
358.166	1	4
358.337	1	19
358.508	1	21
358.679	1	10
358.850	1	14
359.021	1	20
359.192	1	26
359.363	1	11
359.533	1	9
359.704	1	9
359.875	1	7
360.046	1	13
360.217	1	21
360.388	1	15
360.559	1	19
360.730	1	12
360.901	1	21
361.072	1	15
361.243	1	11
361.414	1	23
361.584	1	13
361.755	1	13
361.926	1	17
362.097	1	12
362.268	1	25
362.439	1	12
362.610	1	17
362.781	1	1
362.952	1	20
363.123	1	7
363.293	1	9
363.464	1	17
363.635	1	16
363.806	1	18
363.977	1	17
364.148	1	7
364.319	1	6
364.490	1	12
364.661	1	10
364.832	1	12
365.002	1	22
365.173	1	18
365.344	1	13
365.515	1	18
365.686	1	20
365.857	1	21
366.028	1	21
366.199	1	16
366.370	1	22
366.540	1	10
366.711	1	6
366.882	1	13
367.053	1	16
367.224	1	21
367.395	1	17
367.566	1	10
367.737	1	14
367.908	1	16
368.078	1	11
368.249	1	12
368.420	1	14
368.591	1	26
368.762	1	27
368.933	1	20
369.104	1	24
369.274	1	27
369.445	1	10
369.616	1	11
369.787	1	10
369.958	1	19
370.129	1	25
370.300	1	12
370.471	1	19
370.641	1	23
370.812	1	20
370.983	1	14
371.154	1	15
371.325	1	7
371.496	1	5
371.667	1	26
371.837	1	20
372.008	1	16
372.179	1	14
372.350	1	20
372.521	1	23
372.692	1	18
372.863	1	15
373.033	1	26
373.204	1	14
373.375	1	4
373.546	1	21
373.717	1	13
373.888	1	11
374.059	1	13
374.229	1	22
374.400	1	13
374.571	1	13
374.742	1	26
374.913	1	9
375.084	1	21
375.254	1	17
375.425	1	24
375.596	1	18
375.767	1	14
375.938	1	18
376.109	1	16
376.279	1	10
376.450	1	17
376.621	1	17
376.792	1	20
376.963	1	3
377.134	1	23
377.304	1	18
377.475	1	13
377.646	1	12
377.817	1	22
377.988	1	25
378.159	1	13
378.329	1	16
378.500	1	30
378.671	1	18
378.842	1	16
379.013	1	21
379.184	1	12
379.354	1	17
379.525	1	19
379.696	1	21
379.867	1	17
380.038	1	24
380.209	1	30
380.379	1	22
380.550	1	8
380.721	1	24
380.892	1	14
381.063	1	20
381.233	1	19
381.404	1	18
381.575	1	27
381.746	1	25
381.917	1	17
382.087	1	24
382.258	1	15
382.429	1	14
382.600	1	21
382.771	1	15
382.941	1	27
383.112	1	21
383.283	1	20
383.454	1	14
383.625	1	20
383.795	1	21
383.966	1	21
384.137	1	25
384.308	1	20
384.479	1	16
384.649	1	21
384.820	1	19
384.991	1	19
385.162	1	36
385.333	1	24
385.503	1	17
385.674	1	13
385.845	1	32
386.016	1	37
386.187	1	12
386.357	1	26
386.528	1	22
386.699	1	19
386.870	1	19
387.041	1	32
387.211	1	28
387.382	1	24
387.553	1	34
387.724	1	19
387.894	1	7
388.065	1	32
388.236	1	12
388.407	1	18
388.578	1	23
388.748	1	31
388.919	1	28
389.090	1	33
389.261	1	25
389.431	1	19
389.602	1	20
389.773	1	20
389.944	1	31
390.114	1	21
390.285	1	25
390.456	1	29
390.627	1	19
390.798	1	23
390.968	1	27
391.139	1	30
391.310	1	28
391.481	1	18
391.651	1	31
391.822	1	26
391.993	1	31
392.164	1	35
392.334	1	13
392.505	1	26
392.676	1	15
392.847	1	24
393.017	1	24
393.188	1	26
393.359	1	33
393.530	1	42
393.700	1	30
393.871	1	28
394.042	1	28
394.213	1	23
394.383	1	16
394.554	1	22
394.725	1	28
394.896	1	22
395.066	1	28
395.237	1	33
395.408	1	20
395.579	1	33
395.749	1	38
395.920	1	18
396.091	1	23
396.262	1	19
396.432	1	17
396.603	1	30
396.774	1	13
396.945	1	31
397.115	1	30
397.286	1	22
397.457	1	35
397.627	1	23
397.798	1	21
397.969	1	27
398.140	1	23
398.310	1	30
398.481	1	26
398.652	1	29
398.823	1	36
398.993	1	26
399.164	1	41
399.335	1	14
399.505	1	15
399.676	1	20
399.847	1	26
400.018	1	7
400.188	1	24
400.359	1	31
400.530	1	19
400.700	1	26
400.871	1	30
401.042	1	22
401.213	1	34
401.383	1	31
401.554	1	19
401.725	1	29
401.895	1	21
402.066	1	27
402.237	1	34
402.408	1	24
402.578	1	31
402.749	1	20
402.920	1	30
403.090	1	30
403.261	1	33
403.432	1	28
403.603	1	24
403.773	1	44
403.944	1	28
404.115	1	25
404.285	1	38
404.456	1	45
404.627	1	42
404.797	1	24
404.968	1	19
405.139	1	25
405.310	1	31
405.480	1	25
405.651	1	23
405.822	1	22
405.992	1	34
406.163	1	22
406.334	1	31
406.504	1	23
406.675	1	22
406.846	1	34
407.016	1	24
407.187	1	32
407.358	1	21
407.528	1	24
407.699	1	29
407.870	1	38
408.041	1	35
408.211	1	26
408.382	1	27
408.553	1	32
408.723	1	30
408.894	1	23
409.065	1	29
409.235	1	35
409.406	1	28
409.577	1	28
409.747	1	31
409.918	1	39
410.089	1	42
410.259	1	30
410.430	1	29
410.601	1	30
410.771	1	34
410.942	1	26
411.113	1	32
411.283	1	40
411.454	1	41
411.625	1	36
411.795	1	38
411.966	1	30
412.137	1	35
412.307	1	21
412.478	1	33
412.649	1	22
412.819	1	27
412.990	1	35
413.161	1	34
413.331	1	35
413.502	1	33
413.672	1	26
413.843	1	28
414.014	1	27
414.184	1	35
414.355	1	35
414.526	1	32
414.696	1	31
414.867	1	18
415.038	1	23
415.208	1	21
415.379	1	31
415.550	1	36
415.720	1	23
415.891	1	35
416.062	1	33
416.232	1	34
416.403	1	36
416.573	1	27
416.744	1	34
416.915	1	23
417.085	1	24
417.256	1	22
417.427	1	29
417.597	1	17
417.768	1	18
417.939	1	29
418.109	1	17
418.280	1	25
418.450	1	40
418.621	1	25
418.792	1	37
418.962	1	29
419.133	1	29
419.304	1	16
419.474	1	41
419.645	1	38
419.815	1	19
419.986	1	46
420.157	1	23
420.327	1	15
420.498	1	30
420.669	1	33
420.839	1	28
421.010	1	31
421.180	1	21
421.351	1	28
421.522	1	27
421.692	1	36
421.863	1	29
422.033	1	32
422.204	1	38
422.375	1	33
422.545	1	35
422.716	1	19
422.886	1	38
423.057	1	30
423.228	1	23
423.398	1	38
423.569	1	22
423.740	1	29
423.910	1	29
424.081	1	40
424.251	1	24
424.422	1	26
424.593	1	32
424.763	1	36
424.934	1	31
425.104	1	34
425.275	1	20
425.445	1	32
425.616	1	34
425.787	1	23
425.957	1	28
426.128	1	23
426.298	1	40
426.469	1	13
426.640	1	19
426.810	1	15
426.981	1	37
427.151	1	27
427.322	1	22
427.493	1	26
427.663	1	21
427.834	1	31
428.004	1	32
428.175	1	28
428.345	1	22
428.516	1	26
428.687	1	44
428.857	1	33
429.028	1	23
429.198	1	20
429.369	1	36
429.540	1	24
429.710	1	36
429.881	1	22
430.051	1	17
430.222	1	28
430.392	1	26
430.563	1	11
430.734	1	30
430.904	1	35
431.075	1	19
431.245	1	22
431.416	1	38
431.586	1	20
431.757	1	32
431.927	1	14
432.098	1	32
432.269	1	26
432.439	1	24
432.610	1	32
432.780	1	33
432.951	1	15
433.121	1	16
433.292	1	34
433.462	1	17
433.633	1	28
433.804	1	28
433.974	1	21
434.145	1	23
434.315	1	31
434.486	1	10
434.656	1	29
434.827	1	26
434.997	1	25
435.168	1	25
435.339	1	28
435.509	1	16
435.680	1	31
435.850	1	18
436.021	1	17
436.191	1	24
436.362	1	30
436.532	1	24
436.703	1	27
436.873	1	26
437.044	1	25
437.214	1	21
437.385	1	23
437.556	1	35
437.726	1	26
437.897	1	18
438.067	1	30
438.238	1	29
438.408	1	16
438.579	1	20
438.749	1	32
438.920	1	24
439.090	1	22
439.261	1	19
439.431	1	14
439.602	1	26
439.772	1	24
439.943	1	25
440.113	1	27
440.284	1	25
440.455	1	24
440.625	1	30
440.796	1	13
440.966	1	31
441.137	1	30
441.307	1	28
441.478	1	13
441.648	1	26
441.819	1	22
441.989	1	31
442.160	1	29
442.330	1	37
442.501	1	11
442.671	1	20
442.842	1	23
443.012	1	21
443.183	1	25
443.353	1	21
443.524	1	23
443.694	1	36
443.865	1	22
444.035	1	32
444.206	1	15
444.376	1	26
444.547	1	22
444.717	1	23
444.888	1	16
445.058	1	18
445.229	1	28
445.399	1	26
445.570	1	19
445.740	1	25
445.911	1	26
446.081	1	13
446.252	1	28
446.422	1	28
446.593	1	27
446.763	1	35
446.934	1	19
447.104	1	24
447.275	1	22
447.445	1	26
447.616	1	26
447.786	1	18
447.957	1	27
448.127	1	20
448.298	1	19
448.468	1	30
448.639	1	9
448.809	1	15
448.979	1	38
449.150	1	12
449.320	1	21
449.491	1	21
449.661	1	16
449.832	1	11
450.002	1	20
450.173	1	20
450.343	1	16
450.514	1	16
450.684	1	19
450.855	1	26
451.025	1	19
451.196	1	15
451.366	1	27
451.537	1	38
451.707	1	22
451.878	1	18
452.048	1	17
452.218	1	21
452.389	1	28
452.559	1	32
452.730	1	22
452.900	1	13
453.071	1	22
453.241	1	18
453.412	1	16
453.582	1	28
453.753	1	30
453.923	1	17
454.093	1	22
454.264	1	36
454.434	1	20
454.605	1	20
454.775	1	22
454.946	1	6
455.116	1	27
455.287	1	7
455.457	1	28
455.628	1	10
455.798	1	19
455.968	1	22
456.139	1	26
456.309	1	9
456.480	1	16
456.650	1	15
456.821	1	7
456.991	1	19
457.161	1	18
457.332	1	19
457.502	1	12
457.673	1	15
457.843	1	21
458.014	1	11
458.184	1	14
458.355	1	29
458.525	1	9
458.695	1	10
458.866	1	9
459.036	1	11
459.207	1	16
459.377	1	14
459.548	1	18
459.718	1	11
459.888	1	20
460.059	1	3
460.229	1	12
460.400	1	19
460.570	1	-3
460.740	1	23
460.911	1	9
461.081	1	28
461.252	1	12
461.422	1	14
461.593	1	22
461.763	1	19
461.933	1	16
462.104	1	1
462.274	1	4
462.445	1	9
462.615	1	22
462.785	1	17
462.956	1	6
463.126	1	14
463.297	1	25
463.467	1	23
463.638	1	17
463.808	1	15
463.978	1	10
464.149	1	2
464.319	1	22
464.490	1	14
464.660	1	12
464.830	1	10
465.001	1	17
465.171	1	14
465.342	1	15
465.512	1	14
465.682	1	8
465.853	1	14
466.023	1	18
466.194	1	19
466.364	1	30
466.534	1	2
466.705	1	26
466.875	1	5
467.045	1	8
467.216	1	17
467.386	1	13
467.557	1	19
467.727	1	13
467.897	1	13
468.068	1	1
468.238	1	20
468.409	1	7
468.579	1	20
468.749	1	11
468.920	1	6
469.090	1	17
469.260	1	17
469.431	1	12
469.601	1	23
469.772	1	21
469.942	1	8
470.112	1	12
470.283	1	18
470.453	1	15
470.623	1	11
470.794	1	9
470.964	1	7
471.135	1	24
471.305	1	14
471.475	1	16
471.646	1	16
471.816	1	16
471.986	1	13
472.157	1	10
472.327	1	13
472.497	1	9
472.668	1	8
472.838	1	7
473.009	1	16
473.179	1	4
473.349	1	18
473.520	1	30
473.690	1	9
473.860	1	3
474.031	1	-6
474.201	1	23
474.371	1	11
474.542	1	14
474.712	1	8
474.882	1	11
475.053	1	23
475.223	1	6
475.394	1	11
475.564	1	11
475.734	1	6
475.905	1	13
476.075	1	27
476.245	1	18
476.416	1	10
476.586	1	18
476.756	1	8
476.927	1	9
477.097	1	6
477.267	1	15
477.438	1	22
477.608	1	26
477.778	1	6
477.949	1	12
478.119	1	17
478.289	1	6
478.460	1	9
478.630	1	11
478.800	1	15
478.971	1	12
479.141	1	11
479.311	1	8
479.482	1	-4
479.652	1	17
479.822	1	8
479.993	1	20
480.163	1	19
480.333	1	10
480.504	1	18
480.674	1	10
480.844	1	10
481.015	1	23
481.185	1	11
481.355	1	15
481.525	1	7
481.696	1	17
481.866	1	13
482.036	1	7
482.207	1	14
482.377	1	9
482.547	1	7
482.718	1	18
482.888	1	7
483.058	1	21
483.229	1	4
483.399	1	21
483.569	1	6
483.740	1	7
483.910	1	5
484.080	1	15
484.250	1	5
484.421	1	6
484.591	1	2
484.761	1	16
484.932	1	3
485.102	1	10
485.272	1	16
485.443	1	12
485.613	1	8
485.783	1	9
485.953	1	0
486.124	1	9
486.294	1	23
486.464	1	12
486.635	1	14
486.805	1	6
486.975	1	0
487.146	1	12
487.316	1	8
487.486	1	5
487.656	1	13
487.827	1	15
487.997	1	-3
488.167	1	14
488.338	1	11
488.508	1	20
488.678	1	1
488.848	1	2
489.019	1	1
489.189	1	15
489.359	1	10
489.529	1	16
489.700	1	9
489.870	1	18
490.040	1	-1
490.211	1	14
490.381	1	10
490.551	1	15
490.721	1	8
490.892	1	-7
491.062	1	12
491.232	1	17
491.402	1	1
491.573	1	17
491.743	1	6
491.913	1	12
492.084	1	14
492.254	1	0
492.424	1	9
492.594	1	4
492.765	1	30
492.935	1	16
493.105	1	6
493.275	1	19
493.446	1	4
493.616	1	2
493.786	1	16
493.956	1	15
494.127	1	9
494.297	1	0
494.467	1	5
494.637	1	10
494.808	1	10
494.978	1	2
495.148	1	14
495.318	1	14
495.489	1	0
495.659	1	0
495.829	1	4
495.999	1	10
496.170	1	11
496.340	1	10
496.510	1	19
496.680	1	10
496.851	1	1
497.021	1	9
497.191	1	7
497.361	1	-7
497.532	1	9
497.702	1	7
497.872	1	6
498.042	1	2
498.213	1	0
498.383	1	12
498.553	1	11
498.723	1	2
498.894	1	8
499.064	1	8
499.234	1	15
499.404	1	7
499.574	1	6
499.745	1	5
499.915	1	10
500.085	1	13
500.255	1	-7
500.426	1	15
500.596	1	-6
500.766	1	7
500.936	1	0
501.106	1	8
501.277	1	4
501.447	1	19
501.617	1	-1
501.787	1	6
501.958	1	7
502.128	1	10
502.298	1	9
502.468	1	10
502.638	1	12
502.809	1	-1
502.979	1	6
503.149	1	-2
503.319	1	18
503.489	1	-2
503.660	1	7
503.830	1	9
504.000	1	9
504.170	1	11
504.340	1	-2
504.511	1	0
504.681	1	2
504.851	1	6
505.021	1	10
505.192	1	0
505.362	1	10
505.532	1	7
505.702	1	23
505.872	1	8
506.043	1	18
506.213	1	11
506.383	1	2
506.553	1	9
506.723	1	-5
506.893	1	12
507.064	1	16
507.234	1	12
507.404	1	6
507.574	1	7
507.744	1	3
507.915	1	3
508.085	1	6
508.255	1	8
508.425	1	5
508.595	1	6
508.766	1	2
508.936	1	8
509.106	1	5
509.276	1	6
509.446	1	-3
509.616	1	8
509.787	1	3
509.957	1	16
510.127	1	0
510.297	1	8
510.467	1	7
510.638	1	3
510.808	1	10
510.978	1	-3
511.148	1	8
511.318	1	9
511.488	1	5
511.659	1	2
511.829	1	2
511.999	1	11
512.169	1	8
512.339	1	12
512.509	1	5
512.680	1	3
512.850	1	8
513.020	1	0
513.190	1	-4
513.360	1	6
513.530	1	8
513.700	1	3
513.871	1	4
514.041	1	7
514.211	1	-1
514.381	1	13
514.551	1	-2
514.721	1	1
514.892	1	-2
515.062	1	12
515.232	1	-1
515.402	1	2
515.572	1	18
515.742	1	15
515.912	1	1
516.083	1	8
516.253	1	7
516.423	1	3
516.593	1	3
516.763	1	2
516.933	1	9
517.104	1	10
517.274	1	-3
517.444	1	13
517.614	1	1
517.784	1	6
517.954	1	-3
518.124	1	3
518.294	1	8
518.465	1	2
518.635	1	18
518.805	1	-1
518.975	1	8
519.145	1	3
519.315	1	7
519.485	1	-7
519.656	1	2
519.826	1	-8
519.996	1	13
520.166	1	-5
520.336	1	5
520.506	1	4
520.676	1	10
520.846	1	2
521.017	1	4
521.187	1	-6
521.357	1	-4
521.527	1	-5
521.697	1	1
521.867	1	11
522.037	1	2
522.207	1	10
522.377	1	12
522.548	1	-11
522.718	1	2
522.888	1	-3
523.058	1	5
523.228	1	-3
523.398	1	-7
523.568	1	0
523.738	1	-2
523.909	1	2
524.079	1	5
524.249	1	-5
524.419	1	1
524.589	1	-1
524.759	1	16
524.929	1	-1
525.099	1	1
525.269	1	3
525.439	1	7
525.610	1	4
525.780	1	1
525.950	1	9
526.120	1	-5
526.290	1	-11
526.460	1	0
526.630	1	1
526.800	1	3
526.970	1	2
527.140	1	6
527.311	1	3
527.481	1	6
527.651	1	4
527.821	1	-1
527.991	1	4
528.161	1	3
528.331	1	-10
528.501	1	-3
528.671	1	12
528.841	1	8
529.011	1	15
529.181	1	-3
529.352	1	4
529.522	1	1
529.692	1	2
529.862	1	-3
530.032	1	-4
530.202	1	-3
530.372	1	7
530.542	1	5
530.712	1	2
530.882	1	0
531.052	1	1
531.222	1	14
531.392	1	1
531.563	1	3
531.733	1	4
531.903	1	6
532.073	1	-5
532.243	1	8
532.413	1	14
532.583	1	5
532.753	1	-2
532.923	1	15
533.093	1	-9
533.263	1	7
533.433	1	-1
533.603	1	0
533.773	1	2
533.943	1	-2
534.113	1	1
534.284	1	5
534.454	1	-1
534.624	1	-1
534.794	1	-4
534.964	1	1
535.134	1	-6
535.304	1	4
535.474	1	9
535.644	1	2
535.814	1	9
535.984	1	1
536.154	1	0
536.324	1	4
536.494	1	9
536.664	1	-2
536.834	1	2
537.004	1	9
537.174	1	9
537.344	1	9
537.514	1	-5
537.685	1	13
537.855	1	1
538.025	1	5
538.195	1	-7
538.365	1	9
538.535	1	7
538.705	1	-1
538.875	1	9
539.045	1	4
539.215	1	0
539.385	1	5
539.555	1	-8
539.725	1	9
539.895	1	7
540.065	1	10
540.235	1	0
540.405	1	-1
540.575	1	5
540.745	1	4
540.915	1	2
541.085	1	1
541.255	1	-3
541.425	1	-2
541.595	1	-2
541.765	1	7
541.935	1	4
542.105	1	3
542.275	1	0
542.445	1	10
542.615	1	4
542.785	1	-4
542.955	1	4
543.125	1	-1
543.295	1	4
543.465	1	4
543.635	1	-3
543.805	1	3
543.975	1	4
544.145	1	5
544.315	1	-7
544.485	1	-5
544.655	1	6
544.825	1	6
544.995	1	6
545.165	1	-2
545.335	1	-1
545.505	1	9
545.675	1	10
545.845	1	8
546.015	1	-4
546.185	1	-5
546.355	1	-5
546.525	1	-1
546.695	1	0
546.865	1	0
547.035	1	-3
547.205	1	10
547.375	1	8
547.545	1	2
547.715	1	1
547.885	1	-2
548.055	1	-5
548.225	1	5
548.395	1	10
548.565	1	7
548.735	1	-5
548.905	1	3
549.075	1	10
549.245	1	10
549.415	1	2
549.585	1	5
549.755	1	5
549.925	1	2
550.095	1	-2
550.265	1	2
550.435	1	0
550.605	1	-2
550.775	1	5
550.945	1	5
551.115	1	7
551.285	1	1
551.455	1	8
551.625	1	-10
551.795	1	7
551.965	1	-2
552.135	1	0
552.305	1	-1
552.475	1	1
552.645	1	-6
552.815	1	3
552.985	1	1
553.155	1	2
553.325	1	0
553.495	1	-3
553.665	1	4
553.835	1	2
554.004	1	4
554.174	1	-9
554.344	1	2
554.514	1	1
554.684	1	10
554.854	1	-8
555.024	1	16
555.194	1	-2
555.364	1	4
555.534	1	-4
555.704	1	5
555.874	1	4
556.044	1	7
556.214	1	8
556.384	1	12
556.554	1	-7
556.724	1	1
556.894	1	-2
557.064	1	2
557.234	1	0
557.404	1	1
557.573	1	4
557.743	1	2
557.913	1	-8
558.083	1	4
558.253	1	4
558.423	1	0
558.593	1	2
558.763	1	-8
558.933	1	-3
559.103	1	-3
559.273	1	13
559.443	1	2
559.613	1	3
559.783	1	-5
559.953	1	-8
560.122	1	7
560.292	1	-4
560.462	1	1
560.632	1	1
560.802	1	-2
560.972	1	-13
561.142	1	11
561.312	1	3
561.482	1	14
561.652	1	9
561.822	1	4
561.992	1	12
562.162	1	6
562.331	1	-7
562.501	1	10
562.671	1	-6
562.841	1	-7
563.011	1	-3
563.181	1	-5
563.351	1	-13
563.521	1	-4
563.691	1	-2
563.861	1	10
564.031	1	-6
564.201	1	8
564.370	1	5
564.540	1	7
564.710	1	-9
564.880	1	3
565.050	1	10
565.220	1	10
565.390	1	-2
565.560	1	6
565.730	1	12
565.900	1	2
566.069	1	4
566.239	1	5
566.409	1	4
566.579	1	3
566.749	1	-1
566.919	1	-9
567.089	1	-5
567.259	1	10
567.429	1	-2
567.599	1	12
567.768	1	-3
567.938	1	10
568.108	1	-6
568.278	1	7
568.448	1	4
568.618	1	5
568.788	1	5
568.958	1	3
569.128	1	-8
569.297	1	-4
569.467	1	-7
569.637	1	5
569.807	1	0
569.977	1	-5
570.147	1	1
570.317	1	1
570.487	1	-6
570.656	1	2
570.826	1	7
570.996	1	13
571.166	1	-6
571.336	1	-3
571.506	1	-7
571.676	1	7
571.846	1	6
572.015	1	8
572.185	1	5
572.355	1	-5
572.525	1	-6
572.695	1	-7
572.865	1	9
573.035	1	1
573.205	1	-3
573.374	1	3
573.544	1	0
573.714	1	-3
573.884	1	0
574.054	1	8
574.224	1	-8
574.394	1	4
574.563	1	-8
574.733	1	-4
574.903	1	1
575.073	1	6
575.243	1	1
575.413	1	-4
575.583	1	-9
575.752	1	0
575.922	1	7
576.092	1	-4
576.262	1	3
576.432	1	2
576.602	1	-1
576.772	1	-1
576.941	1	-4
577.111	1	5
577.281	1	-3
577.451	1	10
577.621	1	1
577.791	1	4
577.960	1	-11
578.130	1	1
578.300	1	0
578.470	1	-6
578.640	1	4
578.810	1	-5
578.979	1	6
579.149	1	-4
579.319	1	-3
579.489	1	9
579.659	1	-1
579.829	1	1
579.998	1	-7
580.168	1	-1
580.338	1	2
580.508	1	-6
580.678	1	2
580.848	1	-1
581.017	1	4
581.187	1	10
581.357	1	1
581.527	1	4
581.697	1	-3
581.867	1	7
582.036	1	0
582.206	1	10
582.376	1	7
582.546	1	2
582.716	1	8
582.885	1	-1
583.055	1	-6
583.225	1	0
583.395	1	-3
583.565	1	5
583.735	1	5
583.904	1	4
584.074	1	1
584.244	1	-5
584.414	1	-1
584.584	1	7
584.753	1	4
584.923	1	-4
585.093	1	3
585.263	1	8
585.433	1	2
585.602	1	3
585.772	1	21
585.942	1	-5
586.112	1	5
586.282	1	0
586.451	1	12
586.621	1	-10
586.791	1	-6
586.961	1	-2
587.131	1	6
587.300	1	5
587.470	1	-1
587.640	1	4
587.810	1	-6
587.980	1	4
588.149	1	2
588.319	1	11
588.489	1	4
588.659	1	-13
588.829	1	-3
588.998	1	-2
589.168	1	7
589.338	1	-2
589.508	1	6
589.677	1	2
589.847	1	2
590.017	1	1
590.187	1	4
590.357	1	-2
590.526	1	5
590.696	1	3
590.866	1	-5
591.036	1	4
591.205	1	5
591.375	1	1
591.545	1	-10
591.715	1	0
591.885	1	14
592.054	1	8
592.224	1	-5
592.394	1	-2
592.564	1	-1
592.733	1	0
592.903	1	1
593.073	1	-1
593.243	1	4
593.412	1	-12
593.582	1	0
593.752	1	2
593.922	1	2
594.091	1	3
594.261	1	-4
594.431	1	0
594.601	1	-7
594.771	1	-1
594.940	1	-2
595.110	1	3
595.280	1	1
595.450	1	6
595.619	1	8
595.789	1	5
595.959	1	-9
596.129	1	2
596.298	1	13
596.468	1	-3
596.638	1	-3
596.808	1	-12
596.977	1	-11
597.147	1	-8
597.317	1	6
597.487	1	1
597.656	1	2
597.826	1	3
597.996	1	-1
598.166	1	4
598.335	1	-4
598.505	1	10
598.675	1	0
598.844	1	13
599.014	1	-10
599.184	1	2
599.354	1	15
599.523	1	-5
599.693	1	1
599.863	1	-5
600.033	1	5
600.202	1	-4
600.372	1	-2
600.542	1	4
600.712	1	5
600.881	1	5
601.051	1	5
601.221	1	5
601.390	1	1
601.560	1	13
601.730	1	-3
601.900	1	8
602.069	1	5
602.239	1	3
602.409	1	-3
602.578	1	3
602.748	1	6
602.918	1	-1
603.088	1	2
603.257	1	-12
603.427	1	3
603.597	1	5
603.767	1	4
603.936	1	4
604.106	1	-2
604.276	1	8
604.445	1	-2
604.615	1	5
604.785	1	5
604.954	1	-3
605.124	1	7
605.294	1	-2
605.464	1	0
605.633	1	2
605.803	1	4
605.973	1	-2
606.142	1	2
606.312	1	-6
606.482	1	-2
606.652	1	-1
606.821	1	5
606.991	1	7
607.161	1	1
607.330	1	-2
607.500	1	2
607.670	1	9
607.839	1	1
608.009	1	2
608.179	1	-1
608.348	1	4
608.518	1	13
608.688	1	1
608.858	1	-1
609.027	1	10
609.197	1	2
609.367	1	-7
609.536	1	-10
609.706	1	2
609.876	1	5
610.045	1	6
610.215	1	2
610.385	1	2
610.554	1	-3
610.724	1	1
610.894	1	-3
611.063	1	2
611.233	1	-3
611.403	1	12
611.572	1	1
611.742	1	-4
611.912	1	6
612.081	1	16
612.251	1	2
612.421	1	-8
612.590	1	1
612.760	1	8
612.930	1	7
613.099	1	3
613.269	1	4
613.439	1	-4
613.608	1	12
613.778	1	-5
613.948	1	9
614.117	1	-5
614.287	1	0
614.457	1	6
614.626	1	-6
614.796	1	2
614.966	1	0
615.135	1	8
615.305	1	-3
615.475	1	0
615.644	1	2
615.814	1	5
615.984	1	-5
616.153	1	13
616.323	1	4
616.493	1	-6
616.662	1	-5
616.832	1	7
617.002	1	3
617.171	1	-2
617.341	1	8
617.511	1	-10
617.680	1	2
617.850	1	2
618.019	1	3
618.189	1	6
618.359	1	3
618.528	1	-2
618.698	1	9
618.868	1	7
619.037	1	5
619.207	1	-7
619.377	1	10
619.546	1	9
619.716	1	0
619.885	1	13
620.055	1	1
620.225	1	8
620.394	1	2
620.564	1	1
620.734	1	3
620.903	1	-10
621.073	1	15
621.242	1	5
621.412	1	1
621.582	1	16
621.751	1	-3
621.921	1	1
622.091	1	-4
622.260	1	7
622.430	1	2
622.599	1	7
622.769	1	-4
622.939	1	1
623.108	1	11
623.278	1	2
623.448	1	3
623.617	1	-2
623.787	1	0
623.956	1	4
624.126	1	6
624.296	1	18
624.465	1	5
624.635	1	6
624.804	1	-1
624.974	1	-5
625.144	1	-5
625.313	1	9
625.483	1	16
625.652	1	9
625.822	1	4
625.992	1	-7
626.161	1	2
626.331	1	-1
626.501	1	-1
626.670	1	-4
626.840	1	15
627.009	1	-1
627.179	1	7
627.348	1	-8
627.518	1	9
627.688	1	-8
627.857	1	19
628.027	1	2
628.196	1	6
628.366	1	-7
628.536	1	2
628.705	1	-3
628.875	1	-4
629.044	1	-1
629.214	1	11
629.384	1	9
629.553	1	4
629.723	1	9
629.892	1	7
630.062	1	15
630.232	1	7
630.401	1	-1
630.571	1	1
630.740	1	-11
630.910	1	10
631.079	1	9
631.249	1	6
631.419	1	2
631.588	1	-2
631.758	1	-8
631.927	1	16
632.097	1	-5
632.266	1	1
632.436	1	10
632.606	1	2
632.775	1	0
632.945	1	-2
633.114	1	-1
633.284	1	-6
633.453	1	4
633.623	1	12
633.793	1	13
633.962	1	9
634.132	1	5
634.301	1	13
634.471	1	0
634.640	1	-1
634.810	1	8
634.979	1	8
635.149	1	-7
635.319	1	-5
635.488	1	4
635.658	1	-3
635.827	1	-4
635.997	1	14
636.166	1	7
636.336	1	-1
636.505	1	3
636.675	1	9
636.845	1	-3
637.014	1	-10
637.184	1	10
637.353	1	3
637.523	1	-10
637.692	1	7
637.862	1	-4
638.031	1	-2
638.201	1	5
638.370	1	10
638.540	1	-10
638.710	1	-1
638.879	1	0
639.049	1	7
639.218	1	5
639.388	1	10
639.557	1	3
639.727	1	5
639.896	1	-7
640.066	1	3
640.235	1	6
640.405	1	4
640.574	1	4
640.744	1	9
640.914	1	-5
641.083	1	15
641.253	1	-6
641.422	1	2
641.592	1	3
641.761	1	-1
641.931	1	8
642.100	1	-5
642.270	1	6
642.439	1	4
642.609	1	14
642.778	1	5
642.948	1	12
643.117	1	6
643.287	1	6
643.456	1	6
643.626	1	-6
643.795	1	6
643.965	1	4
644.134	1	5
644.304	1	4
644.473	1	0
644.643	1	2
644.812	1	-14
644.982	1	0
645.151	1	-6
645.321	1	15
645.490	1	9
645.660	1	6
645.829	1	5
645.999	1	-4
646.168	1	25
646.338	1	-11
646.507	1	3
646.677	1	4
646.846	1	1
647.016	1	15
647.185	1	11
647.355	1	10
647.524	1	-3
647.694	1	-7
647.863	1	-1
648.033	1	-1
648.202	1	11
648.372	1	-6
648.541	1	8
648.711	1	3
648.880	1	10
649.050	1	7
649.219	1	3
649.389	1	-12
649.558	1	2
649.728	1	8
649.897	1	15
650.067	1	8
650.236	1	-2
650.406	1	-7
650.575	1	2
650.745	1	12
650.914	1	9
651.084	1	3
651.253	1	6
651.423	1	-2
651.592	1	3
651.762	1	-3
651.931	1	8
652.101	1	-8
652.270	1	-1
652.440	1	-2
652.609	1	5
652.778	1	9
652.948	1	3
653.117	1	-2
653.287	1	-12
653.456	1	-3
653.626	1	6
653.795	1	9
653.965	1	0
654.134	1	3
654.304	1	4
654.473	1	7
654.643	1	8
654.812	1	4
654.982	1	-2
655.151	1	9
655.320	1	2
655.490	1	2
655.659	1	5
655.829	1	8
655.998	1	6
656.168	1	2
656.337	1	4
656.507	1	-3
656.676	1	-4
656.846	1	0
657.015	1	6
657.184	1	3
657.354	1	4
657.523	1	4
657.693	1	5
657.862	1	2
658.032	1	3
658.201	1	-9
658.371	1	5
658.540	1	-8
658.709	1	7
658.879	1	5
659.048	1	8
659.218	1	-7
659.387	1	5
659.557	1	5
659.726	1	-1
659.895	1	6
660.065	1	0
660.234	1	5
660.404	1	2
660.573	1	3
660.743	1	7
660.912	1	1
661.081	1	1
661.251	1	12
661.420	1	6
661.590	1	-7
661.759	1	12
661.929	1	-1
662.098	1	-2
662.267	1	-3
662.437	1	3
662.606	1	6
662.776	1	7
662.945	1	12
663.115	1	22
663.284	1	7
663.453	1	0
663.623	1	2
663.792	1	3
663.962	1	1
664.131	1	2
664.300	1	-1
664.470	1	-2
664.639	1	2
664.809	1	8
664.978	1	13
665.148	1	8
665.317	1	13
665.486	1	3
665.656	1	6
665.825	1	10
665.995	1	-9
666.164	1	4
666.333	1	3
666.503	1	-2
666.672	1	0
666.842	1	5
667.011	1	16
667.180	1	-2
667.350	1	-1
667.519	1	7
667.689	1	13
667.858	1	-1
668.027	1	1
668.197	1	-10
668.366	1	7
668.536	1	5
668.705	1	-6
668.874	1	9
669.044	1	7
669.213	1	12
669.382	1	1
669.552	1	6
669.721	1	6
669.891	1	4
670.060	1	7
670.229	1	10
670.399	1	10
670.568	1	7
670.738	1	-2
670.907	1	3
671.076	1	-1
671.246	1	14
671.415	1	11
671.584	1	5
671.754	1	-7
671.923	1	5
672.093	1	11
672.262	1	-8
672.431	1	3
672.601	1	2
672.770	1	10
672.939	1	13
673.109	1	2
673.278	1	6
673.448	1	14
673.617	1	1
673.786	1	-6
