325.333	1	16
325.504	1	-7
325.675	1	20
325.846	1	3
326.017	1	13
326.188	1	5
326.359	1	2
326.531	1	3
326.702	1	2
326.873	1	21
327.044	1	7
327.215	1	-2
327.386	1	12
327.557	1	1
327.728	1	-3
327.899	1	4
328.070	1	12
328.241	1	-2
328.412	1	2
328.583	1	3
328.754	1	12
328.926	1	11
329.097	1	-5
329.268	1	6
329.439	1	5
329.610	1	4
329.781	1	3
329.952	1	8
330.123	1	-4
330.294	1	-1
330.465	1	2
330.636	1	6
330.807	1	3
330.978	1	1
331.149	1	5
331.320	1	8
331.492	1	13
331.663	1	-4
331.834	1	3
332.005	1	-3
332.176	1	4
332.347	1	-1
332.518	1	18
332.689	1	4
332.860	1	1
333.031	1	13
333.202	1	5
333.373	1	6
333.544	1	6
333.715	1	2
333.886	1	6
334.057	1	-2
334.228	1	13
334.399	1	18
334.570	1	7
334.741	1	6
334.912	1	-2
335.084	1	11
335.255	1	5
335.426	1	5
335.597	1	8
335.768	1	8
335.939	1	4
336.110	1	12
336.281	1	5
336.452	1	9
336.623	1	2
336.794	1	2
336.965	1	4
337.136	1	24
337.307	1	2
337.478	1	4
337.649	1	4
337.820	1	3
337.991	1	6
338.162	1	9
338.333	1	4
338.504	1	13
338.675	1	-2
338.846	1	-6
339.017	1	1
339.188	1	-2
339.359	1	8
339.530	1	1
339.701	1	6
339.872	1	15
340.043	1	6
340.214	1	9
340.385	1	2
340.556	1	12
340.727	1	17
340.898	1	7
341.069	1	-1
341.240	1	3
341.411	1	9
341.582	1	-3
341.753	1	7
341.924	1	25
342.095	1	8
342.266	1	11
342.437	1	5
342.608	1	8
342.779	1	-6
342.950	1	5
343.121	1	10
343.292	1	4
343.463	1	16
343.634	1	12
343.805	1	14
343.976	1	22
344.147	1	10
344.318	1	-1
344.489	1	4
344.660	1	5
344.831	1	14
345.002	1	8
345.173	1	2
345.344	1	5
345.515	1	8
345.686	1	9
345.857	1	22
346.028	1	5
346.199	1	15
346.370	1	12
346.541	1	1
346.712	1	7
346.883	1	3
347.054	1	6
347.225	1	9
347.396	1	2
347.567	1	-9
347.738	1	1
347.909	1	19
348.080	1	3
348.251	1	7
348.422	1	14
348.593	1	9
348.764	1	3
348.935	1	6
349.106	1	-1
349.277	1	1
349.448	1	13
349.619	1	10
349.790	1	15
349.961	1	8
350.132	1	11
350.303	1	9
350.474	1	13
350.645	1	4
350.816	1	9
350.987	1	14
351.157	1	0
351.328	1	7
351.499	1	11
351.670	1	11
351.841	1	19
352.012	1	19
352.183	1	13
352.354	1	12
352.525	1	19
352.696	1	5
352.867	1	21
353.038	1	15
353.209	1	14
353.380	1	12
353.551	1	13
353.722	1	8
353.893	1	15
354.064	1	13
354.235	1	5
354.406	1	2
354.576	1	16
354.747	1	10
354.918	1	11
355.089	1	12
355.260	1	9
355.431	1	-1
355.602	1	12
355.773	1	11
355.944	1	5
356.115	1	13
356.286	1	18
356.457	1	6
356.628	1	4
356.799	1	5
356.970	1	20
357.141	1	12
357.311	1	20
357.482	1	7
357.653	1	15
357.824	1	14
357.995	1	25
358.166	1	1
358.337	1	7
358.508	1	14
358.679	1	-2
358.850	1	19
359.021	1	16
359.192	1	24
359.363	1	14
359.533	1	6
359.704	1	6
359.875	1	6
360.046	1	18
360.217	1	15
360.388	1	21
360.559	1	13
360.730	1	4
360.901	1	8
361.072	1	20
361.243	1	19
361.414	1	15
361.584	1	13
361.755	1	8
361.926	1	17
362.097	1	10
362.268	1	20
362.439	1	10
362.610	1	21
362.781	1	10
362.952	1	18
363.123	1	7
363.293	1	13
363.464	1	5
363.635	1	15
363.806	1	21
363.977	1	21
364.148	1	9
364.319	1	11
364.490	1	18
364.661	1	13
364.832	1	18
365.002	1	19
365.173	1	24
365.344	1	15
365.515	1	14
365.686	1	11
365.857	1	21
366.028	1	5
366.199	1	13
366.370	1	16
366.540	1	14
366.711	1	17
366.882	1	13
367.053	1	11
367.224	1	18
367.395	1	13
367.566	1	23
367.737	1	10
367.908	1	23
368.078	1	10
368.249	1	18
368.420	1	18
368.591	1	14
368.762	1	18
368.933	1	9
369.104	1	19
369.274	1	16
369.445	1	19
369.616	1	6
369.787	1	14
369.958	1	15
370.129	1	21
370.300	1	13
370.471	1	12
370.641	1	9
370.812	1	19
370.983	1	15
371.154	1	20
371.325	1	9
371.496	1	10
371.667	1	27
371.837	1	19
372.008	1	10
372.179	1	6
372.350	1	24
372.521	1	17
372.692	1	13
372.863	1	18
373.033	1	15
373.204	1	18
373.375	1	6
373.546	1	11
373.717	1	9
373.888	1	18
374.059	1	8
374.229	1	15
374.400	1	12
374.571	1	9
374.742	1	19
374.913	1	5
375.084	1	15
375.254	1	6
375.425	1	19
375.596	1	14
375.767	1	23
375.938	1	8
376.109	1	11
376.279	1	16
376.450	1	13
376.621	1	27
376.792	1	11
376.963	1	8
377.134	1	10
377.304	1	18
377.475	1	12
377.646	1	2
377.817	1	30
377.988	1	15
378.159	1	27
378.329	1	21
378.500	1	26
378.671	1	9
378.842	1	20
379.013	1	22
379.184	1	19
379.354	1	14
379.525	1	24
379.696	1	19
379.867	1	23
380.038	1	20
380.209	1	25
380.379	1	16
380.550	1	6
380.721	1	10
380.892	1	13
381.063	1	19
381.233	1	15
381.404	1	11
381.575	1	12
381.746	1	23
381.917	1	17
382.087	1	15
382.258	1	21
382.429	1	18
382.600	1	16
382.771	1	7
382.941	1	16
383.112	1	23
383.283	1	25
383.454	1	14
383.625	1	23
383.795	1	30
383.966	1	15
384.137	1	21
384.308	1	20
384.479	1	21
384.649	1	15
384.820	1	22
384.991	1	18
385.162	1	24
385.333	1	15
385.503	1	8
385.674	1	16
385.845	1	13
386.016	1	21
386.187	1	10
386.357	1	26
386.528	1	23
386.699	1	19
386.870	1	20
387.041	1	23
387.211	1	23
387.382	1	22
387.553	1	25
387.724	1	21
387.894	1	16
388.065	1	18
388.236	1	18
388.407	1	25
388.578	1	16
388.748	1	23
388.919	1	28
389.090	1	34
389.261	1	17
389.431	1	13
389.602	1	26
389.773	1	16
389.944	1	19
390.114	1	31
390.285	1	33
390.456	1	18
390.627	1	20
390.798	1	23
390.968	1	24
391.139	1	27
391.310	1	27
391.481	1	15
391.651	1	30
391.822	1	31
391.993	1	17
392.164	1	18
392.334	1	11
392.505	1	31
392.676	1	9
392.847	1	23
393.017	1	13
393.188	1	33
393.359	1	42
393.530	1	27
393.700	1	27
393.871	1	39
394.042	1	14
394.213	1	19
394.383	1	28
394.554	1	14
394.725	1	8
394.896	1	38
395.066	1	20
395.237	1	26
395.408	1	27
395.579	1	20
395.749	1	28
395.920	1	31
396.091	1	10
396.262	1	12
396.432	1	27
396.603	1	20
396.774	1	19
396.945	1	34
397.115	1	13
397.286	1	33
397.457	1	29
397.627	1	10
397.798	1	24
397.969	1	25
398.140	1	15
398.310	1	30
398.481	1	31
398.652	1	27
398.823	1	20
398.993	1	25
399.164	1	29
399.335	1	13
399.505	1	23
399.676	1	31
399.847	1	16
400.018	1	15
400.188	1	34
400.359	1	33
400.530	1	24
400.700	1	25
400.871	1	32
401.042	1	19
401.213	1	28
401.383	1	31
401.554	1	23
401.725	1	27
401.895	1	12
402.066	1	32
402.237	1	25
402.408	1	18
402.578	1	30
402.749	1	18
402.920	1	23
403.090	1	21
403.261	1	21
403.432	1	25
403.603	1	31
403.773	1	43
403.944	1	37
404.115	1	27
404.285	1	34
404.456	1	32
404.627	1	31
404.797	1	19
404.968	1	30
405.139	1	32
405.310	1	17
405.480	1	27
405.651	1	29
405.822	1	20
405.992	1	35
406.163	1	25
406.334	1	16
406.504	1	25
406.675	1	15
406.846	1	31
407.016	1	32
407.187	1	28
407.358	1	21
407.528	1	30
407.699	1	38
407.870	1	28
408.041	1	23
408.211	1	31
408.382	1	33
408.553	1	31
408.723	1	33
408.894	1	31
409.065	1	24
409.235	1	26
409.406	1	23
409.577	1	23
409.747	1	26
409.918	1	30
410.089	1	40
410.259	1	25
410.430	1	42
410.601	1	24
410.771	1	35
410.942	1	29
411.113	1	22
411.283	1	31
411.454	1	33
411.625	1	30
411.795	1	19
411.966	1	28
412.137	1	36
412.307	1	32
412.478	1	33
412.649	1	30
412.819	1	26
412.990	1	34
413.161	1	23
413.331	1	30
413.502	1	30
413.672	1	30
413.843	1	27
414.014	1	26
414.184	1	37
414.355	1	32
414.526	1	25
414.696	1	23
414.867	1	20
415.038	1	25
415.208	1	24
415.379	1	26
415.550	1	36
415.720	1	26
415.891	1	34
416.062	1	29
416.232	1	38
416.403	1	23
416.573	1	24
416.744	1	34
416.915	1	25
417.085	1	33
417.256	1	17
417.427	1	26
417.597	1	26
417.768	1	31
417.939	1	24
418.109	1	20
418.280	1	34
418.450	1	39
418.621	1	18
418.792	1	26
418.962	1	28
419.133	1	17
419.304	1	32
419.474	1	31
419.645	1	28
419.815	1	26
419.986	1	35
420.157	1	22
420.327	1	29
420.498	1	32
420.669	1	27
420.839	1	35
421.010	1	26
421.180	1	15
421.351	1	27
421.522	1	23
421.692	1	30
421.863	1	38
422.033	1	26
422.204	1	38
422.375	1	24
422.545	1	23
422.716	1	19
422.886	1	24
423.057	1	19
423.228	1	23
423.398	1	24
423.569	1	32
423.740	1	25
423.910	1	33
424.081	1	33
424.251	1	25
424.422	1	30
424.593	1	30
424.763	1	36
424.934	1	32
425.104	1	34
425.275	1	18
425.445	1	30
425.616	1	28
425.787	1	17
425.957	1	20
426.128	1	26
426.298	1	27
426.469	1	19
426.640	1	28
426.810	1	10
426.981	1	36
427.151	1	28
427.322	1	12
427.493	1	32
427.663	1	33
427.834	1	22
428.004	1	29
428.175	1	28
428.345	1	19
428.516	1	14
428.687	1	31
428.857	1	32
429.028	1	19
429.198	1	16
429.369	1	29
429.540	1	16
429.710	1	23
429.881	1	32
430.051	1	26
430.222	1	27
430.392	1	28
430.563	1	17
430.734	1	31
430.904	1	45
431.075	1	24
431.245	1	33
431.416	1	32
431.586	1	24
431.757	1	34
431.927	1	23
432.098	1	21
432.269	1	17
432.439	1	18
432.610	1	17
432.780	1	23
432.951	1	15
433.121	1	22
433.292	1	22
433.462	1	10
433.633	1	25
433.804	1	16
433.974	1	22
434.145	1	21
434.315	1	21
434.486	1	1
434.656	1	37
434.827	1	23
434.997	1	31
435.168	1	15
435.339	1	30
435.509	1	26
435.680	1	19
435.850	1	2
436.021	1	17
436.191	1	19
436.362	1	22
436.532	1	24
436.703	1	27
436.873	1	17
437.044	1	18
437.214	1	23
437.385	1	19
437.556	1	29
437.726	1	28
437.897	1	18
438.067	1	34
438.238	1	21
438.408	1	26
438.579	1	22
438.749	1	22
438.920	1	34
439.090	1	23
439.261	1	25
439.431	1	2
439.602	1	12
439.772	1	20
439.943	1	13
440.113	1	29
440.284	1	22
440.455	1	20
440.625	1	28
440.796	1	15
440.966	1	27
441.137	1	21
441.307	1	18
441.478	1	15
441.648	1	23
441.819	1	5
441.989	1	28
442.160	1	26
442.330	1	20
442.501	1	21
442.671	1	24
442.842	1	24
443.012	1	7
443.183	1	24
443.353	1	19
443.524	1	21
443.694	1	14
443.865	1	25
444.035	1	18
444.206	1	22
444.376	1	17
444.547	1	18
444.717	1	26
444.888	1	9
445.058	1	15
445.229	1	31
445.399	1	18
445.570	1	11
445.740	1	20
445.911	1	23
446.081	1	13
446.252	1	21
446.422	1	17
446.593	1	20
446.763	1	12
446.934	1	18
447.104	1	15
447.275	1	18
447.445	1	22
447.616	1	15
447.786	1	17
447.957	1	11
448.127	1	12
448.298	1	17
448.468	1	21
448.639	1	18
448.809	1	5
448.979	1	19
449.150	1	8
449.320	1	19
449.491	1	18
449.661	1	12
449.832	1	10
450.002	1	23
450.173	1	11
450.343	1	19
450.514	1	21
450.684	1	19
450.855	1	15
451.025	1	14
451.196	1	20
451.366	1	29
451.537	1	33
451.707	1	32
451.878	1	6
452.048	1	18
452.218	1	14
452.389	1	20
452.559	1	31
452.730	1	23
452.900	1	16
453.071	1	21
453.241	1	17
453.412	1	15
453.582	1	16
453.753	1	17
453.923	1	11
454.093	1	7
454.264	1	23
454.434	1	26
454.605	1	16
454.775	1	21
454.946	1	21
455.116	1	18
455.287	1	5
455.457	1	23
455.628	1	6
455.798	1	26
455.968	1	12
456.139	1	27
456.309	1	8
456.480	1	13
456.650	1	15
456.821	1	10
456.991	1	17
457.161	1	15
457.332	1	20
457.502	1	11
457.673	1	16
457.843	1	24
458.014	1	27
458.184	1	24
458.355	1	23
458.525	1	21
458.695	1	8
458.866	1	0
459.036	1	22
459.207	1	25
459.377	1	18
459.548	1	20
459.718	1	10
459.888	1	7
460.059	1	14
460.229	1	12
460.400	1	15
460.570	1	-5
460.740	1	15
460.911	1	14
461.081	1	29
461.252	1	14
461.422	1	8
461.593	1	25
461.763	1	20
461.933	1	14
462.104	1	9
462.274	1	0
462.445	1	11
462.615	1	22
462.785	1	17
462.956	1	12
463.126	1	13
463.297	1	9
463.467	1	23
463.638	1	17
463.808	1	14
463.978	1	4
464.149	1	6
464.319	1	19
464.490	1	14
464.660	1	17
464.830	1	4
465.001	1	10
465.171	1	11
465.342	1	16
465.512	1	21
465.682	1	8
465.853	1	5
466.023	1	12
466.194	1	18
466.364	1	36
466.534	1	11
466.705	1	23
466.875	1	11
467.045	1	6
467.216	1	12
467.386	1	16
467.557	1	26
467.727	1	10
467.897	1	11
468.068	1	5
468.238	1	17
468.409	1	23
468.579	1	16
468.749	1	14
468.920	1	2
469.090	1	12
469.260	1	15
469.431	1	16
469.601	1	16
469.772	1	19
469.942	1	20
470.112	1	7
470.283	1	12
470.453	1	18
470.623	1	10
470.794	1	7
470.964	1	-6
471.135	1	26
471.305	1	6
471.475	1	19
471.646	1	16
471.816	1	12
471.986	1	16
472.157	1	12
472.327	1	16
472.497	1	11
472.668	1	18
472.838	1	10
473.009	1	13
473.179	1	6
473.349	1	10
473.520	1	33
473.690	1	8
473.860	1	15
474.031	1	0
474.201	1	14
474.371	1	12
474.542	1	11
474.712	1	8
474.882	1	12
475.053	1	14
475.223	1	15
475.394	1	13
475.564	1	13
475.734	1	13
475.905	1	16
476.075	1	19
476.245	1	13
476.416	1	2
476.586	1	4
476.756	1	7
476.927	1	10
477.097	1	-1
477.267	1	6
477.438	1	16
477.608	1	25
477.778	1	-1
477.949	1	6
478.119	1	12
478.289	1	3
478.460	1	6
478.630	1	18
478.800	1	3
478.971	1	11
479.141	1	18
479.311	1	4
479.482	1	10
479.652	1	9
479.822	1	3
479.993	1	11
480.163	1	16
480.333	1	16
480.504	1	13
480.674	1	10
480.844	1	10
481.015	1	19
481.185	1	15
481.355	1	9
481.525	1	9
481.696	1	12
481.866	1	8
482.036	1	9
482.207	1	11
482.377	1	12
482.547	1	14
482.718	1	16
482.888	1	20
483.058	1	21
483.229	1	13
483.399	1	9
483.569	1	-3
483.740	1	5
483.910	1	8
484.080	1	11
484.250	1	11
484.421	1	8
484.591	1	10
484.761	1	14
484.932	1	12
485.102	1	16
485.272	1	9
485.443	1	8
485.613	1	2
485.783	1	9
485.953	1	7
486.124	1	5
486.294	1	21
486.464	1	12
486.635	1	6
486.805	1	5
486.975	1	5
487.146	1	15
487.316	1	7
487.486	1	12
487.656	1	16
487.827	1	6
487.997	1	18
488.167	1	10
488.338	1	13
488.508	1	15
488.678	1	3
488.848	1	11
489.019	1	5
489.189	1	11
489.359	1	7
489.529	1	13
489.700	1	9
489.870	1	19
490.040	1	7
490.211	1	4
490.381	1	1
490.551	1	13
490.721	1	7
490.892	1	-1
491.062	1	5
491.232	1	8
491.402	1	11
491.573	1	24
491.743	1	8
491.913	1	15
492.084	1	10
492.254	1	9
492.424	1	-2
492.594	1	11
492.765	1	9
492.935	1	18
493.105	1	6
493.275	1	8
493.446	1	0
493.616	1	2
493.786	1	19
493.956	1	14
494.127	1	0
494.297	1	-8
494.467	1	1
494.637	1	5
494.808	1	20
494.978	1	3
495.148	1	1
495.318	1	8
495.489	1	0
495.659	1	7
495.829	1	4
495.999	1	9
496.170	1	12
496.340	1	0
496.510	1	9
496.680	1	15
496.851	1	13
497.021	1	6
497.191	1	9
497.361	1	-7
497.532	1	9
497.702	1	5
497.872	1	6
498.042	1	5
498.213	1	10
498.383	1	2
498.553	1	12
498.723	1	6
498.894	1	1
499.064	1	8
499.234	1	12
499.404	1	13
499.574	1	5
499.745	1	13
499.915	1	5
500.085	1	7
500.255	1	3
500.426	1	5
500.596	1	2
500.766	1	-2
500.936	1	-9
501.106	1	4
501.277	1	-3
501.447	1	8
501.617	1	1
501.787	1	-3
501.958	1	9
502.128	1	6
502.298	1	5
502.468	1	-4
502.638	1	4
502.809	1	-6
502.979	1	10
503.149	1	9
503.319	1	10
503.489	1	-7
503.660	1	6
503.830	1	9
504.000	1	2
504.170	1	2
504.340	1	-4
504.511	1	6
504.681	1	9
504.851	1	-7
505.021	1	2
505.192	1	-5
505.362	1	5
505.532	1	-7
505.702	1	15
505.872	1	-4
506.043	1	8
506.213	1	11
506.383	1	4
506.553	1	9
506.723	1	-3
506.893	1	-2
507.064	1	12
507.234	1	2
507.404	1	7
507.574	1	-9
507.744	1	-2
507.915	1	8
508.085	1	10
508.255	1	3
508.425	1	6
508.595	1	-2
508.766	1	4
508.936	1	16
509.106	1	3
509.276	1	2
509.446	1	5
509.616	1	6
509.787	1	10
509.957	1	12
510.127	1	0
510.297	1	-3
510.467	1	11
510.638	1	-1
510.808	1	9
510.978	1	-5
511.148	1	4
511.318	1	14
511.488	1	-1
511.659	1	3
511.829	1	8
511.999	1	4
512.169	1	8
512.339	1	8
512.509	1	-11
512.680	1	-9
512.850	1	7
513.020	1	7
513.190	1	2
513.360	1	9
513.530	1	3
513.700	1	6
513.871	1	-7
514.041	1	1
514.211	1	0
514.381	1	13
514.551	1	0
514.721	1	8
514.892	1	1
515.062	1	1
515.232	1	5
515.402	1	2
515.572	1	10
515.742	1	6
515.912	1	1
516.083	1	10
516.253	1	5
516.423	1	-3
516.593	1	8
516.763	1	5
516.933	1	7
517.104	1	5
517.274	1	4
517.444	1	6
517.614	1	1
517.784	1	12
517.954	1	-2
518.124	1	3
518.294	1	10
518.465	1	2
518.635	1	17
518.805	1	8
518.975	1	13
519.145	1	-1
519.315	1	7
519.485	1	4
519.656	1	8
519.826	1	-10
519.996	1	11
520.166	1	0
520.336	1	6
520.506	1	1
520.676	1	-2
520.846	1	10
521.017	1	3
521.187	1	8
521.357	1	-5
521.527	1	7
521.697	1	-4
521.867	1	13
522.037	1	6
522.207	1	2
522.377	1	14
522.548	1	-8
522.718	1	2
522.888	1	2
523.058	1	4
523.228	1	-1
523.398	1	1
523.568	1	-3
523.738	1	2
523.909	1	-6
524.079	1	-2
524.249	1	-2
524.419	1	5
524.589	1	6
524.759	1	7
524.929	1	4
525.099	1	-3
525.269	1	2
525.439	1	8
525.610	1	12
525.780	1	2
525.950	1	5
526.120	1	-4
526.290	1	-8
526.460	1	-5
526.630	1	1
526.800	1	-2
526.970	1	12
527.140	1	2
527.311	1	1
527.481	1	3
527.651	1	-1
527.821	1	3
527.991	1	-6
528.161	1	9
528.331	1	6
528.501	1	10
528.671	1	2
528.841	1	4
529.011	1	1
529.181	1	0
529.352	1	-2
529.522	1	-2
529.692	1	6
529.862	1	6
530.032	1	-18
530.202	1	-10
530.372	1	7
530.542	1	-2
530.712	1	6
530.882	1	5
531.052	1	14
531.222	1	2
531.392	1	3
531.563	1	-4
531.733	1	-8
531.903	1	0
532.073	1	2
532.243	1	15
532.413	1	10
532.583	1	3
532.753	1	5
532.923	1	7
533.093	1	-13
533.263	1	2
533.433	1	-3
533.603	1	-2
533.773	1	0
533.943	1	5
534.113	1	3
534.284	1	8
534.454	1	0
534.624	1	-8
534.794	1	3
534.964	1	4
535.134	1	3
535.304	1	1
535.474	1	-1
535.644	1	6
535.814	1	0
535.984	1	10
536.154	1	4
536.324	1	1
536.494	1	5
536.664	1	6
536.834	1	-3
537.004	1	4
537.174	1	6
537.344	1	0
537.514	1	2
537.685	1	10
537.855	1	1
538.025	1	7
538.195	1	-2
538.365	1	6
538.535	1	-9
538.705	1	-1
538.875	1	4
539.045	1	5
539.215	1	-9
539.385	1	7
539.555	1	1
539.725	1	1
539.895	1	1
540.065	1	10
540.235	1	6
540.405	1	-11
540.575	1	8
540.745	1	1
540.915	1	6
541.085	1	0
541.255	1	-4
541.425	1	0
541.595	1	-4
541.765	1	6
541.935	1	-3
542.105	1	2
542.275	1	-5
542.445	1	1
542.615	1	1
542.785	1	5
542.955	1	18
543.125	1	-8
543.295	1	0
543.465	1	9
543.635	1	-5
543.805	1	-2
543.975	1	1
544.145	1	6
544.315	1	-2
544.485	1	2
544.655	1	7
544.825	1	10
544.995	1	-3
545.165	1	3
545.335	1	6
545.505	1	1
545.675	1	5
545.845	1	-2
546.015	1	-3
546.185	1	3
546.355	1	-3
546.525	1	3
546.695	1	-4
546.865	1	-4
547.035	1	1
547.205	1	8
547.375	1	4
547.545	1	14
547.715	1	3
547.885	1	-3
548.055	1	-6
548.225	1	17
548.395	1	-2
548.565	1	13
548.735	1	-5
548.905	1	3
549.075	1	5
549.245	1	10
549.415	1	-2
549.585	1	-6
549.755	1	-1
549.925	1	0
550.095	1	-1
550.265	1	5
550.435	1	7
550.605	1	5
550.775	1	-4
550.945	1	-4
551.115	1	15
551.285	1	4
551.455	1	-3
551.625	1	-11
551.795	1	5
551.965	1	2
552.135	1	-2
552.305	1	9
552.475	1	5
552.645	1	-5
552.815	1	-3
552.985	1	7
553.155	1	-4
553.325	1	0
553.495	1	5
553.665	1	2
553.835	1	1
554.004	1	5
554.174	1	-3
554.344	1	14
554.514	1	-11
554.684	1	7
554.854	1	-13
555.024	1	13
555.194	1	9
555.364	1	1
555.534	1	-6
555.704	1	0
555.874	1	1
556.044	1	-4
556.214	1	5
556.384	1	-1
556.554	1	2
556.724	1	-4
556.894	1	0
557.064	1	-1
557.234	1	-7
557.404	1	10
557.573	1	5
557.743	1	-6
557.913	1	2
558.083	1	1
558.253	1	4
558.423	1	1
558.593	1	5
558.763	1	1
558.933	1	2
559.103	1	2
559.273	1	9
559.443	1	3
559.613	1	0
559.783	1	5
559.953	1	-9
560.122	1	5
560.292	1	-12
560.462	1	-5
560.632	1	-2
560.802	1	8
560.972	1	0
561.142	1	3
561.312	1	-1
561.482	1	3
561.652	1	8
561.822	1	-3
561.992	1	11
562.162	1	-1
562.331	1	-6
562.501	1	-3
562.671	1	-5
562.841	1	-9
563.011	1	4
563.181	1	-13
563.351	1	-6
563.521	1	-7
563.691	1	3
563.861	1	0
564.031	1	1
564.201	1	4
564.370	1	-3
564.540	1	-7
564.710	1	-2
564.880	1	-2
565.050	1	10
565.220	1	4
565.390	1	-5
565.560	1	-2
565.730	1	3
565.900	1	8
566.069	1	17
566.239	1	8
566.409	1	11
566.579	1	7
566.749	1	0
566.919	1	0
567.089	1	-4
567.259	1	-1
567.429	1	-1
567.599	1	12
567.768	1	-4
567.938	1	2
568.108	1	-3
568.278	1	4
568.448	1	4
568.618	1	1
568.788	1	1
568.958	1	1
569.128	1	-6
569.297	1	-9
569.467	1	4
569.637	1	8
569.807	1	16
569.977	1	-4
570.147	1	8
570.317	1	5
570.487	1	-3
570.656	1	5
570.826	1	-1
570.996	1	14
571.166	1	0
571.336	1	3
571.506	1	-7
571.676	1	4
571.846	1	9
572.015	1	3
572.185	1	-2
572.355	1	-5
572.525	1	-5
572.695	1	-1
572.865	1	5
573.035	1	14
573.205	1	1
573.374	1	-1
573.544	1	-2
573.714	1	-1
573.884	1	-2
574.054	1	-4
574.224	1	-1
574.394	1	-4
574.563	1	-6
574.733	1	4
574.903	1	2
575.073	1	13
575.243	1	0
575.413	1	-7
575.583	1	-5
575.752	1	-1
575.922	1	9
576.092	1	-9
576.262	1	8
576.432	1	-1
576.602	1	3
576.772	1	-3
576.941	1	3
577.111	1	-3
577.281	1	5
577.451	1	2
577.621	1	3
577.791	1	-7
577.960	1	-1
578.130	1	2
578.300	1	-5
578.470	1	4
578.640	1	-1
578.810	1	-7
578.979	1	5
579.149	1	-5
579.319	1	9
579.489	1	8
579.659	1	-1
579.829	1	6
579.998	1	-16
580.168	1	1
580.338	1	-5
580.508	1	1
580.678	1	1
580.848	1	13
581.017	1	1
581.187	1	5
581.357	1	3
581.527	1	-1
581.697	1	-7
581.867	1	-8
582.036	1	-14
582.206	1	2
582.376	1	11
582.546	1	0
582.716	1	4
582.885	1	2
583.055	1	-5
583.225	1	5
583.395	1	4
583.565	1	8
583.735	1	-8
583.904	1	6
584.074	1	5
584.244	1	-2
584.414	1	0
584.584	1	-7
584.753	1	1
584.923	1	-4
585.093	1	11
585.263	1	3
585.433	1	3
585.602	1	-8
585.772	1	10
585.942	1	-9
586.112	1	0
586.282	1	9
586.451	1	10
586.621	1	-3
586.791	1	-3
586.961	1	-7
587.131	1	-5
587.300	1	16
587.470	1	-6
587.640	1	-4
587.810	1	-15
587.980	1	6
588.149	1	2
588.319	1	11
588.489	1	4
588.659	1	1
588.829	1	-3
588.998	1	10
589.168	1	0
589.338	1	-10
589.508	1	3
589.677	1	-5
589.847	1	4
590.017	1	-8
590.187	1	6
590.357	1	-4
590.526	1	0
590.696	1	1
590.866	1	-2
591.036	1	4
591.205	1	2
591.375	1	1
591.545	1	-1
591.715	1	-8
591.885	1	13
592.054	1	10
592.224	1	-3
592.394	1	-8
592.564	1	3
592.733	1	12
592.903	1	-3
593.073	1	-7
593.243	1	6
593.412	1	-6
593.582	1	-1
593.752	1	-11
593.922	1	8
594.091	1	8
594.261	1	-6
594.431	1	-7
594.601	1	2
594.771	1	-4
594.940	1	-6
595.110	1	4
595.280	1	3
595.450	1	1
595.619	1	0
595.789	1	-3
595.959	1	-3
596.129	1	-8
596.298	1	14
596.468	1	-3
596.638	1	-1
596.808	1	-11
596.977	1	-4
597.147	1	3
597.317	1	6
597.487	1	0
597.656	1	-3
597.826	1	3
597.996	1	-6
598.166	1	6
598.335	1	-7
598.505	1	10
598.675	1	6
598.844	1	9
599.014	1	-5
599.184	1	2
599.354	1	3
599.523	1	-5
599.693	1	4
599.863	1	3
600.033	1	6
600.202	1	-3
600.372	1	-10
600.542	1	-2
600.712	1	-3
600.881	1	3
601.051	1	5
601.221	1	2
601.390	1	0
601.560	1	15
601.730	1	7
601.900	1	1
602.069	1	4
602.239	1	-1
602.409	1	-4
602.578	1	6
602.748	1	13
602.918	1	1
603.088	1	2
603.257	1	-9
603.427	1	1
603.597	1	9
603.767	1	0
603.936	1	3
604.106	1	-15
604.276	1	4
604.445	1	-9
604.615	1	2
604.785	1	3
604.954	1	6
605.124	1	8
605.294	1	-12
605.464	1	-3
605.633	1	3
605.803	1	2
605.973	1	-3
606.142	1	7
606.312	1	12
606.482	1	-4
606.652	1	2
606.821	1	5
606.991	1	2
607.161	1	-3
607.330	1	-8
607.500	1	-3
607.670	1	-3
607.839	1	-2
608.009	1	0
608.179	1	11
608.348	1	7
608.518	1	11
608.688	1	5
608.858	1	-4
609.027	1	12
609.197	1	7
609.367	1	2
609.536	1	-8
609.706	1	13
609.876	1	6
610.045	1	4
610.215	1	-1
610.385	1	5
610.554	1	4
610.724	1	-4
610.894	1	2
611.063	1	2
611.233	1	11
611.403	1	0
611.572	1	3
611.742	1	-10
611.912	1	0
612.081	1	8
612.251	1	3
612.421	1	0
612.590	1	8
612.760	1	1
612.930	1	11
613.099	1	5
613.269	1	7
613.439	1	-5
613.608	1	6
613.778	1	4
613.948	1	5
614.117	1	-5
614.287	1	-6
614.457	1	7
614.626	1	-3
614.796	1	7
614.966	1	1
615.135	1	11
615.305	1	-3
615.475	1	-5
615.644	1	8
615.814	1	7
615.984	1	-1
616.153	1	-4
616.323	1	0
616.493	1	0
616.662	1	-7
616.832	1	3
617.002	1	-2
617.171	1	14
617.341	1	8
617.511	1	-8
617.680	1	-3
617.850	1	5
618.019	1	8
618.189	1	15
618.359	1	5
618.528	1	-5
618.698	1	3
618.868	1	0
619.037	1	3
619.207	1	5
619.377	1	4
619.546	1	21
619.716	1	-4
619.885	1	-3
620.055	1	-7
620.225	1	4
620.394	1	2
620.564	1	1
620.734	1	6
620.903	1	-7
621.073	1	0
621.242	1	2
621.412	1	0
621.582	1	6
621.751	1	0
621.921	1	8
622.091	1	-9
622.260	1	2
622.430	1	7
622.599	1	0
622.769	1	-5
622.939	1	2
623.108	1	-2
623.278	1	7
623.448	1	-6
623.617	1	17
623.787	1	4
623.956	1	-1
624.126	1	6
624.296	1	13
624.465	1	11
624.635	1	2
624.804	1	-6
624.974	1	-8
625.144	1	-2
625.313	1	11
625.483	1	5
625.652	1	6
625.822	1	6
625.992	1	-4
626.161	1	0
626.331	1	0
626.501	1	6
626.670	1	-3
626.840	1	8
627.009	1	-2
627.179	1	11
627.348	1	-4
627.518	1	14
627.688	1	-1
627.857	1	4
628.027	1	4
628.196	1	7
628.366	1	0
628.536	1	-1
628.705	1	-2
628.875	1	-4
629.044	1	-13
629.214	1	0
629.384	1	5
629.553	1	4
629.723	1	6
629.892	1	-2
630.062	1	0
630.232	1	8
630.401	1	2
630.571	1	-4
630.740	1	-3
630.910	1	15
631.079	1	-3
631.249	1	7
631.419	1	5
631.588	1	-3
631.758	1	-7
631.927	1	9
632.097	1	-8
632.266	1	5
632.436	1	-1
632.606	1	-2
632.775	1	1
632.945	1	7
633.114	1	-4
633.284	1	9
633.453	1	12
633.623	1	9
633.793	1	-1
633.962	1	3
634.132	1	4
634.301	1	10
634.471	1	5
634.640	1	-3
634.810	1	-1
634.979	1	-3
635.149	1	-8
635.319	1	4
635.488	1	1
635.658	1	3
635.827	1	2
635.997	1	9
636.166	1	7
636.336	1	0
636.505	1	4
636.675	1	-4
636.845	1	0
637.014	1	-3
637.184	1	9
637.353	1	-10
637.523	1	-3
637.692	1	4
637.862	1	-4
638.031	1	4
638.201	1	7
638.370	1	3
638.540	1	-2
638.710	1	-3
638.879	1	-8
639.049	1	-1
639.218	1	7
639.388	1	5
639.557	1	9
639.727	1	4
639.896	1	3
640.066	1	2
640.235	1	4
640.405	1	6
640.574	1	7
640.744	1	-7
640.914	1	2
641.083	1	4
641.253	1	1
641.422	1	-11
641.592	1	3
641.761	1	-1
641.931	1	18
642.100	1	0
642.270	1	6
642.439	1	4
642.609	1	3
642.778	1	-3
642.948	1	4
643.117	1	14
643.287	1	5
643.456	1	1
643.626	1	3
643.795	1	2
643.965	1	-2
644.134	1	-5
644.304	1	2
644.473	1	1
644.643	1	2
644.812	1	-10
644.982	1	11
645.151	1	1
645.321	1	11
645.490	1	3
645.660	1	0
645.829	1	-3
645.999	1	0
646.168	1	17
646.338	1	-9
646.507	1	-2
646.677	1	11
646.846	1	-1
647.016	1	13
647.185	1	8
647.355	1	14
647.524	1	-3
647.694	1	-1
647.863	1	-2
648.033	1	2
648.202	1	1
648.372	1	-2
648.541	1	4
648.711	1	-2
648.880	1	10
649.050	1	-1
649.219	1	0
649.389	1	-9
649.558	1	2
649.728	1	7
649.897	1	7
650.067	1	7
650.236	1	4
650.406	1	-4
650.575	1	9
650.745	1	3
650.914	1	3
651.084	1	14
651.253	1	2
651.423	1	0
651.592	1	2
651.762	1	2
651.931	1	8
652.101	1	-5
652.270	1	-4
652.440	1	10
652.609	1	8
652.778	1	9
652.948	1	-8
653.117	1	0
653.287	1	-13
653.456	1	1
653.626	1	0
653.795	1	2
653.965	1	-1
654.134	1	0
654.304	1	12
654.473	1	-2
654.643	1	2
654.812	1	10
654.982	1	7
655.151	1	8
655.320	1	1
655.490	1	1
655.659	1	13
655.829	1	1
655.998	1	8
656.168	1	0
656.337	1	12
656.507	1	-6
656.676	1	-5
656.846	1	6
657.015	1	6
657.184	1	0
657.354	1	3
657.523	1	4
657.693	1	12
657.862	1	6
658.032	1	-1
658.201	1	4
658.371	1	8
658.540	1	-6
658.709	1	1
658.879	1	5
659.048	1	12
659.218	1	-2
659.387	1	9
659.557	1	1
659.726	1	3
659.895	1	1
660.065	1	1
660.234	1	6
660.404	1	-3
660.573	1	-3
660.743	1	0
660.912	1	5
661.081	1	-5
661.251	1	0
661.420	1	5
661.590	1	1
661.759	1	7
661.929	1	-1
662.098	1	5
662.267	1	-3
662.437	1	4
662.606	1	-5
662.776	1	1
662.945	1	10
663.115	1	17
663.284	1	3
663.453	1	-3
663.623	1	2
663.792	1	5
663.962	1	11
664.131	1	-2
664.300	1	-6
664.470	1	-2
664.639	1	7
664.809	1	-1
664.978	1	9
665.148	1	-1
665.317	1	2
665.486	1	5
665.656	1	5
665.825	1	9
665.995	1	-10
666.164	1	7
666.333	1	1
666.503	1	-4
666.672	1	10
666.842	1	-1
667.011	1	-2
667.180	1	3
667.350	1	-1
667.519	1	9
667.689	1	-1
667.858	1	9
668.027	1	1
668.197	1	-3
668.366	1	5
668.536	1	4
668.705	1	2
668.874	1	13
669.044	1	14
669.213	1	7
669.382	1	12
669.552	1	2
669.721	1	-5
669.891	1	-6
670.060	1	1
670.229	1	3
670.399	1	14
670.568	1	9
670.738	1	1
670.907	1	2
671.076	1	3
671.246	1	10
671.415	1	10
671.584	1	4
671.754	1	-11
671.923	1	-1
672.093	1	16
672.262	1	0
672.431	1	11
672.601	1	9
672.770	1	-5
672.939	1	8
673.109	1	-6
673.278	1	6
673.448	1	7
673.617	1	5
673.786	1	-8
