325.333	1	26
325.504	1	20
325.675	1	38
325.846	1	18
326.017	1	35
326.188	1	32
326.359	1	34
326.531	1	24
326.702	1	27
326.873	1	40
327.044	1	41
327.215	1	18
327.386	1	32
327.557	1	20
327.728	1	29
327.899	1	34
328.070	1	37
328.241	1	19
328.412	1	37
328.583	1	26
328.754	1	46
328.926	1	36
329.097	1	43
329.268	1	40
329.439	1	32
329.610	1	38
329.781	1	33
329.952	1	48
330.123	1	33
330.294	1	32
330.465	1	31
330.636	1	32
330.807	1	34
330.978	1	35
331.149	1	49
331.320	1	40
331.492	1	38
331.663	1	35
331.834	1	50
332.005	1	38
332.176	1	41
332.347	1	41
332.518	1	48
332.689	1	39
332.860	1	43
333.031	1	40
333.202	1	46
333.373	1	49
333.544	1	49
333.715	1	44
333.886	1	43
334.057	1	31
334.228	1	51
334.399	1	46
334.570	1	44
334.741	1	42
334.912	1	49
335.084	1	60
335.255	1	55
335.426	1	50
335.597	1	51
335.768	1	53
335.939	1	55
336.110	1	49
336.281	1	43
336.452	1	62
336.623	1	46
336.794	1	57
336.965	1	53
337.136	1	71
337.307	1	42
337.478	1	58
337.649	1	51
337.820	1	52
337.991	1	49
338.162	1	56
338.333	1	56
338.504	1	59
338.675	1	53
338.846	1	48
339.017	1	52
339.188	1	56
339.359	1	65
339.530	1	52
339.701	1	49
339.872	1	63
340.043	1	62
340.214	1	65
340.385	1	55
340.556	1	62
340.727	1	58
340.898	1	60
341.069	1	67
341.240	1	56
341.411	1	75
341.582	1	58
341.753	1	68
341.924	1	63
342.095	1	60
342.266	1	68
342.437	1	60
342.608	1	66
342.779	1	67
342.950	1	69
343.121	1	73
343.292	1	70
343.463	1	78
343.634	1	71
343.805	1	65
343.976	1	68
344.147	1	84
344.318	1	64
344.489	1	70
344.660	1	63
344.831	1	81
345.002	1	76
345.173	1	66
345.344	1	72
345.515	1	74
345.686	1	83
345.857	1	79
346.028	1	67
346.199	1	75
346.370	1	78
346.541	1	67
346.712	1	76
346.883	1	68
347.054	1	80
347.225	1	73
347.396	1	79
347.567	1	79
347.738	1	86
347.909	1	78
348.080	1	72
348.251	1	75
348.422	1	79
348.593	1	86
348.764	1	89
348.935	1	98
349.106	1	87
349.277	1	83
349.448	1	82
349.619	1	96
349.790	1	89
349.961	1	88
350.132	1	99
350.303	1	97
350.474	1	96
350.645	1	92
350.816	1	89
350.987	1	114
351.157	1	97
351.328	1	96
351.499	1	97
351.670	1	96
351.841	1	100
352.012	1	93
352.183	1	95
352.354	1	98
352.525	1	102
352.696	1	100
352.867	1	98
353.038	1	106
353.209	1	94
353.380	1	91
353.551	1	102
353.722	1	97
353.893	1	103
354.064	1	98
354.235	1	100
354.406	1	87
354.576	1	97
354.747	1	103
354.918	1	91
355.089	1	103
355.260	1	96
355.431	1	97
355.602	1	91
355.773	1	91
355.944	1	103
356.115	1	103
356.286	1	113
356.457	1	102
356.628	1	100
356.799	1	114
356.970	1	122
357.141	1	110
357.311	1	128
357.482	1	101
357.653	1	103
357.824	1	105
357.995	1	120
358.166	1	108
358.337	1	109
358.508	1	123
358.679	1	111
358.850	1	124
359.021	1	119
359.192	1	117
359.363	1	112
359.533	1	114
359.704	1	102
359.875	1	119
360.046	1	110
360.217	1	116
360.388	1	118
360.559	1	126
360.730	1	104
360.901	1	115
361.072	1	119
361.243	1	106
361.414	1	126
361.584	1	103
361.755	1	118
361.926	1	125
362.097	1	114
362.268	1	124
362.439	1	119
362.610	1	118
362.781	1	98
362.952	1	120
363.123	1	107
363.293	1	128
363.464	1	103
363.635	1	116
363.806	1	121
363.977	1	129
364.148	1	123
364.319	1	127
364.490	1	123
364.661	1	119
364.832	1	114
365.002	1	123
365.173	1	122
365.344	1	115
365.515	1	119
365.686	1	123
365.857	1	131
366.028	1	124
366.199	1	137
366.370	1	130
366.540	1	121
366.711	1	131
366.882	1	140
367.053	1	124
367.224	1	128
367.395	1	130
367.566	1	127
367.737	1	139
367.908	1	139
368.078	1	113
368.249	1	133
368.420	1	129
368.591	1	127
368.762	1	124
368.933	1	131
369.104	1	134
369.274	1	139
369.445	1	131
369.616	1	125
369.787	1	116
369.958	1	131
370.129	1	136
370.300	1	125
370.471	1	132
370.641	1	126
370.812	1	126
370.983	1	111
371.154	1	127
371.325	1	133
371.496	1	124
371.667	1	133
371.837	1	128
372.008	1	122
372.179	1	125
372.350	1	126
372.521	1	131
372.692	1	142
372.863	1	140
373.033	1	122
373.204	1	127
373.375	1	124
373.546	1	146
373.717	1	138
373.888	1	131
374.059	1	129
374.229	1	136
374.400	1	128
374.571	1	143
374.742	1	147
374.913	1	121
375.084	1	122
375.254	1	136
375.425	1	137
375.596	1	146
375.767	1	143
375.938	1	136
376.109	1	144
376.279	1	138
376.450	1	137
376.621	1	143
376.792	1	159
376.963	1	128
377.134	1	150
377.304	1	163
377.475	1	134
377.646	1	132
377.817	1	147
377.988	1	138
378.159	1	150
378.329	1	153
378.500	1	150
378.671	1	140
378.842	1	144
379.013	1	142
379.184	1	148
379.354	1	160
379.525	1	150
379.696	1	144
379.867	1	150
380.038	1	150
380.209	1	147
380.379	1	142
380.550	1	143
380.721	1	131
380.892	1	146
381.063	1	152
381.233	1	150
381.404	1	163
381.575	1	166
381.746	1	152
381.917	1	137
382.087	1	148
382.258	1	151
382.429	1	146
382.600	1	148
382.771	1	154
382.941	1	159
383.112	1	159
383.283	1	164
383.454	1	155
383.625	1	169
383.795	1	150
383.966	1	179
384.137	1	164
384.308	1	163
384.479	1	169
384.649	1	164
384.820	1	165
384.991	1	170
385.162	1	174
385.333	1	167
385.503	1	155
385.674	1	173
385.845	1	179
386.016	1	174
386.187	1	170
386.357	1	186
386.528	1	180
386.699	1	174
386.870	1	173
387.041	1	187
387.211	1	165
387.382	1	177
387.553	1	170
387.724	1	175
387.894	1	173
388.065	1	182
388.236	1	169
388.407	1	180
388.578	1	179
388.748	1	169
388.919	1	175
389.090	1	197
389.261	1	187
389.431	1	185
389.602	1	167
389.773	1	164
389.944	1	174
390.114	1	173
390.285	1	184
390.456	1	182
390.627	1	171
390.798	1	173
390.968	1	173
391.139	1	173
391.310	1	180
391.481	1	174
391.651	1	187
391.822	1	192
391.993	1	180
392.164	1	178
392.334	1	178
392.505	1	179
392.676	1	182
392.847	1	179
393.017	1	179
393.188	1	173
393.359	1	187
393.530	1	197
393.700	1	180
393.871	1	191
394.042	1	183
394.213	1	170
394.383	1	192
394.554	1	187
394.725	1	193
394.896	1	196
395.066	1	183
395.237	1	186
395.408	1	199
395.579	1	180
395.749	1	205
395.920	1	189
396.091	1	179
396.262	1	191
396.432	1	182
396.603	1	184
396.774	1	180
396.945	1	201
397.115	1	198
397.286	1	197
397.457	1	193
397.627	1	192
397.798	1	197
397.969	1	189
398.140	1	190
398.310	1	202
398.481	1	196
398.652	1	185
398.823	1	192
398.993	1	192
399.164	1	200
399.335	1	185
399.505	1	193
399.676	1	187
399.847	1	193
400.018	1	190
400.188	1	182
400.359	1	189
400.530	1	185
400.700	1	185
400.871	1	182
401.042	1	187
401.213	1	191
401.383	1	190
401.554	1	191
401.725	1	192
401.895	1	185
402.066	1	192
402.237	1	182
402.408	1	178
402.578	1	185
402.749	1	190
402.920	1	187
403.090	1	187
403.261	1	190
403.432	1	198
403.603	1	200
403.773	1	204
403.944	1	201
404.115	1	188
404.285	1	194
404.456	1	194
404.627	1	203
404.797	1	201
404.968	1	202
405.139	1	194
405.310	1	194
405.480	1	202
405.651	1	200
405.822	1	200
405.992	1	213
406.163	1	191
406.334	1	199
406.504	1	197
406.675	1	206
406.846	1	198
407.016	1	203
407.187	1	208
407.358	1	196
407.528	1	216
407.699	1	205
407.870	1	216
408.041	1	228
408.211	1	204
408.382	1	217
408.553	1	215
408.723	1	207
408.894	1	208
409.065	1	201
409.235	1	220
409.406	1	196
409.577	1	214
409.747	1	215
409.918	1	208
410.089	1	221
410.259	1	205
410.430	1	209
410.601	1	198
410.771	1	214
410.942	1	197
411.113	1	197
411.283	1	200
411.454	1	213
411.625	1	208
411.795	1	202
411.966	1	186
412.137	1	209
412.307	1	187
412.478	1	203
412.649	1	200
412.819	1	211
412.990	1	205
413.161	1	204
413.331	1	186
413.502	1	198
413.672	1	196
413.843	1	196
414.014	1	192
414.184	1	204
414.355	1	200
414.526	1	198
414.696	1	190
414.867	1	179
415.038	1	193
415.208	1	195
415.379	1	185
415.550	1	191
415.720	1	200
415.891	1	191
416.062	1	208
416.232	1	204
416.403	1	197
416.573	1	194
416.744	1	195
416.915	1	202
417.085	1	198
417.256	1	208
417.427	1	204
417.597	1	198
417.768	1	203
417.939	1	187
418.109	1	196
418.280	1	199
418.450	1	201
418.621	1	198
418.792	1	214
418.962	1	209
419.133	1	214
419.304	1	205
419.474	1	219
419.645	1	209
419.815	1	192
419.986	1	209
420.157	1	186
420.327	1	189
420.498	1	203
420.669	1	211
420.839	1	198
421.010	1	189
421.180	1	209
421.351	1	190
421.522	1	186
421.692	1	196
421.863	1	194
422.033	1	200
422.204	1	190
422.375	1	196
422.545	1	195
422.716	1	181
422.886	1	184
423.057	1	186
423.228	1	196
423.398	1	203
423.569	1	189
423.740	1	180
423.910	1	192
424.081	1	193
424.251	1	184
424.422	1	188
424.593	1	184
424.763	1	194
424.934	1	207
425.104	1	194
425.275	1	176
425.445	1	180
425.616	1	191
425.787	1	179
425.957	1	179
426.128	1	171
426.298	1	191
426.469	1	168
426.640	1	180
426.810	1	160
426.981	1	187
427.151	1	178
427.322	1	180
427.493	1	180
427.663	1	180
427.834	1	181
428.004	1	183
428.175	1	193
428.345	1	173
428.516	1	196
428.687	1	199
428.857	1	187
429.028	1	171
429.198	1	178
429.369	1	178
429.540	1	181
429.710	1	187
429.881	1	184
430.051	1	184
430.222	1	175
430.392	1	189
430.563	1	171
430.734	1	182
430.904	1	185
431.075	1	197
431.245	1	181
431.416	1	185
431.586	1	174
431.757	1	180
431.927	1	180
432.098	1	186
432.269	1	169
432.439	1	171
432.610	1	184
432.780	1	184
432.951	1	186
433.121	1	178
433.292	1	176
433.462	1	178
433.633	1	174
433.804	1	179
433.974	1	173
434.145	1	172
434.315	1	175
434.486	1	181
434.656	1	194
434.827	1	183
434.997	1	180
435.168	1	166
435.339	1	179
435.509	1	173
435.680	1	185
435.850	1	171
436.021	1	178
436.191	1	170
436.362	1	176
436.532	1	176
436.703	1	167
436.873	1	166
437.044	1	165
437.214	1	161
437.385	1	162
437.556	1	172
437.726	1	157
437.897	1	166
438.067	1	174
438.238	1	172
438.408	1	172
438.579	1	155
438.749	1	164
438.920	1	175
439.090	1	149
439.261	1	153
439.431	1	149
439.602	1	153
439.772	1	168
439.943	1	162
440.113	1	154
440.284	1	162
440.455	1	155
440.625	1	169
440.796	1	145
440.966	1	161
441.137	1	170
441.307	1	145
441.478	1	138
441.648	1	158
441.819	1	156
441.989	1	167
442.160	1	159
442.330	1	153
442.501	1	148
442.671	1	149
442.842	1	154
443.012	1	149
443.183	1	158
443.353	1	147
443.524	1	134
443.694	1	149
443.865	1	162
444.035	1	154
444.206	1	155
444.376	1	148
444.547	1	160
444.717	1	148
444.888	1	142
445.058	1	157
445.229	1	154
445.399	1	161
445.570	1	154
445.740	1	161
445.911	1	158
446.081	1	152
446.252	1	148
446.422	1	161
446.593	1	148
446.763	1	139
446.934	1	137
447.104	1	152
447.275	1	156
447.445	1	152
447.616	1	162
447.786	1	148
447.957	1	143
448.127	1	141
448.298	1	149
448.468	1	150
448.639	1	139
448.809	1	137
448.979	1	152
449.150	1	137
449.320	1	154
449.491	1	140
449.661	1	146
449.832	1	142
450.002	1	146
450.173	1	147
450.343	1	133
450.514	1	144
450.684	1	141
450.855	1	150
451.025	1	137
451.196	1	137
451.366	1	148
451.537	1	151
451.707	1	135
451.878	1	125
452.048	1	131
452.218	1	133
452.389	1	133
452.559	1	142
452.730	1	140
452.900	1	128
453.071	1	139
453.241	1	135
453.412	1	122
453.582	1	130
453.753	1	126
453.923	1	128
454.093	1	126
454.264	1	131
454.434	1	131
454.605	1	128
454.775	1	129
454.946	1	126
455.116	1	127
455.287	1	111
455.457	1	126
455.628	1	111
455.798	1	135
455.968	1	126
456.139	1	124
456.309	1	129
456.480	1	130
456.650	1	127
456.821	1	119
456.991	1	128
457.161	1	130
457.332	1	129
457.502	1	128
457.673	1	112
457.843	1	113
458.014	1	124
458.184	1	129
458.355	1	121
458.525	1	129
458.695	1	114
458.866	1	112
459.036	1	122
459.207	1	124
459.377	1	129
459.548	1	115
459.718	1	116
459.888	1	117
460.059	1	122
460.229	1	110
460.400	1	109
460.570	1	111
460.740	1	120
460.911	1	124
461.081	1	117
461.252	1	124
461.422	1	113
461.593	1	125
461.763	1	133
461.933	1	114
462.104	1	106
462.274	1	111
462.445	1	108
462.615	1	122
462.785	1	114
462.956	1	112
463.126	1	111
463.297	1	118
463.467	1	125
463.638	1	120
463.808	1	111
463.978	1	94
464.149	1	102
464.319	1	119
464.490	1	112
464.660	1	103
464.830	1	102
465.001	1	104
465.171	1	117
465.342	1	100
465.512	1	109
465.682	1	105
465.853	1	105
466.023	1	111
466.194	1	112
466.364	1	116
466.534	1	102
466.705	1	113
466.875	1	99
467.045	1	97
467.216	1	105
467.386	1	109
467.557	1	124
467.727	1	98
467.897	1	103
468.068	1	110
468.238	1	99
468.409	1	108
468.579	1	100
468.749	1	98
468.920	1	96
469.090	1	97
469.260	1	94
469.431	1	104
469.601	1	96
469.772	1	107
469.942	1	101
470.112	1	96
470.283	1	97
470.453	1	98
470.623	1	97
470.794	1	94
470.964	1	85
471.135	1	103
471.305	1	94
471.475	1	108
471.646	1	97
471.816	1	102
471.986	1	93
472.157	1	94
472.327	1	105
472.497	1	95
472.668	1	89
472.838	1	83
473.009	1	94
473.179	1	91
473.349	1	89
473.520	1	112
473.690	1	101
473.860	1	100
474.031	1	83
474.201	1	89
474.371	1	97
474.542	1	103
474.712	1	94
474.882	1	95
475.053	1	89
475.223	1	102
475.394	1	98
475.564	1	91
475.734	1	79
475.905	1	99
476.075	1	106
476.245	1	89
476.416	1	82
476.586	1	88
476.756	1	97
476.927	1	89
477.097	1	91
477.267	1	96
477.438	1	111
477.608	1	112
477.778	1	91
477.949	1	80
478.119	1	105
478.289	1	88
478.460	1	82
478.630	1	81
478.800	1	100
478.971	1	85
479.141	1	93
479.311	1	88
479.482	1	75
479.652	1	96
479.822	1	96
479.993	1	85
480.163	1	88
480.333	1	89
480.504	1	96
480.674	1	81
480.844	1	80
481.015	1	101
481.185	1	86
481.355	1	88
481.525	1	73
481.696	1	79
481.866	1	86
482.036	1	83
482.207	1	84
482.377	1	65
482.547	1	88
482.718	1	98
482.888	1	88
483.058	1	76
483.229	1	86
483.399	1	83
483.569	1	62
483.740	1	66
483.910	1	66
484.080	1	79
484.250	1	71
484.421	1	80
484.591	1	66
484.761	1	79
484.932	1	68
485.102	1	79
485.272	1	66
485.443	1	83
485.613	1	58
485.783	1	79
485.953	1	71
486.124	1	63
486.294	1	83
486.464	1	86
486.635	1	70
486.805	1	63
486.975	1	78
487.146	1	75
487.316	1	62
487.486	1	74
487.656	1	83
487.827	1	68
487.997	1	65
488.167	1	70
488.338	1	73
488.508	1	85
488.678	1	68
488.848	1	73
489.019	1	60
489.189	1	77
489.359	1	63
489.529	1	64
489.700	1	64
489.870	1	81
490.040	1	61
490.211	1	66
490.381	1	58
490.551	1	81
490.721	1	78
490.892	1	67
491.062	1	68
491.232	1	70
491.402	1	64
491.573	1	76
491.743	1	63
491.913	1	63
492.084	1	68
492.254	1	64
492.424	1	66
492.594	1	65
492.765	1	72
492.935	1	77
493.105	1	69
493.275	1	72
493.446	1	50
493.616	1	53
493.786	1	81
493.956	1	66
494.127	1	62
494.297	1	54
494.467	1	69
494.637	1	64
494.808	1	63
494.978	1	58
495.148	1	66
495.318	1	59
495.489	1	51
495.659	1	65
495.829	1	70
495.999	1	76
496.170	1	67
496.340	1	55
496.510	1	70
496.680	1	61
496.851	1	67
497.021	1	51
497.191	1	57
497.361	1	48
497.532	1	64
497.702	1	57
497.872	1	63
498.042	1	53
498.213	1	46
498.383	1	55
498.553	1	63
498.723	1	58
498.894	1	52
499.064	1	59
499.234	1	59
499.404	1	63
499.574	1	62
499.745	1	54
499.915	1	65
500.085	1	55
500.255	1	36
500.426	1	49
500.596	1	51
500.766	1	52
500.936	1	42
501.106	1	57
501.277	1	44
501.447	1	60
501.617	1	57
501.787	1	50
501.958	1	61
502.128	1	52
502.298	1	61
502.468	1	44
502.638	1	44
502.809	1	50
502.979	1	46
503.149	1	54
503.319	1	59
503.489	1	39
503.660	1	50
503.830	1	52
504.000	1	51
504.170	1	53
504.340	1	42
504.511	1	49
504.681	1	37
504.851	1	49
505.021	1	50
505.192	1	40
505.362	1	66
505.532	1	55
505.702	1	54
505.872	1	52
506.043	1	55
506.213	1	58
506.383	1	52
506.553	1	55
506.723	1	50
506.893	1	51
507.064	1	68
507.234	1	37
507.404	1	46
507.574	1	44
507.744	1	44
507.915	1	55
508.085	1	43
508.255	1	35
508.425	1	40
508.595	1	50
508.766	1	44
508.936	1	56
509.106	1	52
509.276	1	49
509.446	1	35
509.616	1	55
509.787	1	41
509.957	1	54
510.127	1	41
510.297	1	37
510.467	1	55
510.638	1	52
510.808	1	60
510.978	1	46
511.148	1	51
511.318	1	56
511.488	1	56
511.659	1	42
511.829	1	41
511.999	1	47
512.169	1	51
512.339	1	46
512.509	1	38
512.680	1	44
512.850	1	45
513.020	1	47
513.190	1	40
513.360	1	53
513.530	1	50
513.700	1	39
513.871	1	47
514.041	1	41
514.211	1	48
514.381	1	52
514.551	1	45
514.721	1	44
514.892	1	39
515.062	1	48
515.232	1	45
515.402	1	38
515.572	1	45
515.742	1	43
515.912	1	39
516.083	1	57
516.253	1	53
516.423	1	40
516.593	1	35
516.763	1	42
516.933	1	50
517.104	1	47
517.274	1	43
517.444	1	42
517.614	1	41
517.784	1	50
517.954	1	34
518.124	1	39
518.294	1	39
518.465	1	31
518.635	1	55
518.805	1	33
518.975	1	47
519.145	1	40
519.315	1	44
519.485	1	32
519.656	1	32
519.826	1	32
519.996	1	41
520.166	1	41
520.336	1	32
520.506	1	31
520.676	1	43
520.846	1	42
521.017	1	38
521.187	1	42
521.357	1	31
521.527	1	30
521.697	1	22
521.867	1	44
522.037	1	36
522.207	1	45
522.377	1	41
522.548	1	25
522.718	1	39
522.888	1	36
523.058	1	35
523.228	1	24
523.398	1	33
523.568	1	32
523.738	1	38
523.909	1	31
524.079	1	30
524.249	1	18
524.419	1	35
524.589	1	39
524.759	1	35
524.929	1	34
525.099	1	26
525.269	1	41
525.439	1	37
525.610	1	49
525.780	1	37
525.950	1	35
526.120	1	26
526.290	1	20
526.460	1	33
526.630	1	35
526.800	1	31
526.970	1	37
527.140	1	40
527.311	1	32
527.481	1	37
527.651	1	28
527.821	1	36
527.991	1	26
528.161	1	41
528.331	1	30
528.501	1	40
528.671	1	39
528.841	1	36
529.011	1	42
529.181	1	36
529.352	1	34
529.522	1	40
529.692	1	35
529.862	1	26
530.032	1	28
530.202	1	19
530.372	1	30
530.542	1	27
530.712	1	42
530.882	1	38
531.052	1	36
531.222	1	42
531.392	1	44
531.563	1	32
531.733	1	25
531.903	1	40
532.073	1	34
532.243	1	40
532.413	1	51
532.583	1	35
532.753	1	24
532.923	1	36
533.093	1	34
533.263	1	31
533.433	1	17
533.603	1	34
533.773	1	36
533.943	1	23
534.113	1	27
534.284	1	32
534.454	1	19
534.624	1	33
534.794	1	28
534.964	1	20
535.134	1	28
535.304	1	35
535.474	1	23
535.644	1	37
535.814	1	35
535.984	1	28
536.154	1	25
536.324	1	31
536.494	1	32
536.664	1	28
536.834	1	29
537.004	1	34
537.174	1	29
537.344	1	28
537.514	1	23
537.685	1	47
537.855	1	27
538.025	1	30
538.195	1	28
538.365	1	33
538.535	1	10
538.705	1	26
538.875	1	36
539.045	1	26
539.215	1	19
539.385	1	28
539.555	1	38
539.725	1	24
539.895	1	29
540.065	1	30
540.235	1	20
540.405	1	28
540.575	1	24
540.745	1	23
540.915	1	32
541.085	1	22
541.255	1	26
541.425	1	36
541.595	1	22
541.765	1	26
541.935	1	23
542.105	1	14
542.275	1	16
542.445	1	35
542.615	1	17
542.785	1	21
542.955	1	36
543.125	1	29
543.295	1	19
543.465	1	34
543.635	1	19
543.805	1	26
543.975	1	31
544.145	1	29
544.315	1	21
544.485	1	19
544.655	1	33
544.825	1	32
544.995	1	23
545.165	1	22
545.335	1	24
545.505	1	20
545.675	1	22
545.845	1	22
546.015	1	13
546.185	1	14
546.355	1	20
546.525	1	28
546.695	1	18
546.865	1	27
547.035	1	24
547.205	1	32
547.375	1	32
547.545	1	26
547.715	1	13
547.885	1	28
548.055	1	21
548.225	1	27
548.395	1	26
548.565	1	33
548.735	1	8
548.905	1	32
549.075	1	25
549.245	1	23
549.415	1	27
549.585	1	28
549.755	1	23
549.925	1	33
550.095	1	21
550.265	1	22
550.435	1	23
550.605	1	23
550.775	1	7
550.945	1	25
551.115	1	18
551.285	1	30
551.455	1	32
551.625	1	8
551.795	1	20
551.965	1	15
552.135	1	17
552.305	1	16
552.475	1	20
552.645	1	17
552.815	1	22
552.985	1	16
553.155	1	24
553.325	1	14
553.495	1	20
553.665	1	27
553.835	1	21
554.004	1	19
554.174	1	18
554.344	1	26
554.514	1	21
554.684	1	19
554.854	1	6
555.024	1	39
555.194	1	25
555.364	1	17
555.534	1	7
555.704	1	17
555.874	1	22
556.044	1	22
556.214	1	24
556.384	1	15
556.554	1	18
556.724	1	17
556.894	1	20
557.064	1	20
557.234	1	14
557.404	1	9
557.573	1	21
557.743	1	12
557.913	1	16
558.083	1	28
558.253	1	26
558.423	1	14
558.593	1	18
558.763	1	22
558.933	1	7
559.103	1	9
559.273	1	20
559.443	1	23
559.613	1	16
559.783	1	22
559.953	1	4
560.122	1	20
560.292	1	14
560.462	1	9
560.632	1	13
560.802	1	12
560.972	1	14
561.142	1	18
561.312	1	18
561.482	1	21
561.652	1	15
561.822	1	18
561.992	1	19
562.162	1	15
562.331	1	4
562.501	1	12
562.671	1	14
562.841	1	0
563.011	1	23
563.181	1	7
563.351	1	14
563.521	1	12
563.691	1	18
563.861	1	11
564.031	1	6
564.201	1	15
564.370	1	21
564.540	1	16
564.710	1	12
564.880	1	18
565.050	1	8
565.220	1	27
565.390	1	12
565.560	1	13
565.730	1	21
565.900	1	9
566.069	1	27
566.239	1	27
566.409	1	17
566.579	1	19
566.749	1	5
566.919	1	8
567.089	1	6
567.259	1	15
567.429	1	7
567.599	1	18
567.768	1	13
567.938	1	18
568.108	1	19
568.278	1	18
568.448	1	25
568.618	1	21
568.788	1	24
568.958	1	14
569.128	1	5
569.297	1	6
569.467	1	16
569.637	1	19
569.807	1	18
569.977	1	14
570.147	1	21
570.317	1	14
570.487	1	13
570.656	1	11
570.826	1	13
570.996	1	21
571.166	1	18
571.336	1	13
571.506	1	9
571.676	1	18
571.846	1	16
572.015	1	14
572.185	1	9
572.355	1	10
572.525	1	1
572.695	1	19
572.865	1	23
573.035	1	14
573.205	1	13
573.374	1	3
573.544	1	16
573.714	1	6
573.884	1	10
574.054	1	15
574.224	1	13
574.394	1	7
574.563	1	12
574.733	1	14
574.903	1	14
575.073	1	13
575.243	1	15
575.413	1	12
575.583	1	10
575.752	1	11
575.922	1	16
576.092	1	10
576.262	1	11
576.432	1	9
576.602	1	11
576.772	1	12
576.941	1	16
577.111	1	11
577.281	1	17
577.451	1	12
577.621	1	19
577.791	1	11
577.960	1	19
578.130	1	15
578.300	1	10
578.470	1	18
578.640	1	11
578.810	1	10
578.979	1	12
579.149	1	8
579.319	1	13
579.489	1	20
579.659	1	12
579.829	1	16
579.998	1	3
580.168	1	7
580.338	1	19
580.508	1	5
580.678	1	9
580.848	1	20
581.017	1	12
581.187	1	10
581.357	1	9
581.527	1	16
581.697	1	12
581.867	1	20
582.036	1	-2
582.206	1	18
582.376	1	18
582.546	1	9
582.716	1	21
582.885	1	3
583.055	1	8
583.225	1	15
583.395	1	9
583.565	1	22
583.735	1	17
583.904	1	13
584.074	1	12
584.244	1	7
584.414	1	8
584.584	1	15
584.753	1	21
584.923	1	2
585.093	1	17
585.263	1	16
585.433	1	13
585.602	1	18
585.772	1	30
585.942	1	6
586.112	1	10
586.282	1	17
586.451	1	19
586.621	1	9
586.791	1	4
586.961	1	5
587.131	1	9
587.300	1	19
587.470	1	15
587.640	1	7
587.810	1	-4
587.980	1	13
588.149	1	13
588.319	1	22
588.489	1	16
588.659	1	11
588.829	1	6
588.998	1	13
589.168	1	20
589.338	1	4
589.508	1	12
589.677	1	15
589.847	1	18
590.017	1	12
590.187	1	8
590.357	1	10
590.526	1	6
590.696	1	21
590.866	1	10
591.036	1	23
591.205	1	17
591.375	1	10
591.545	1	13
591.715	1	14
591.885	1	19
592.054	1	12
592.224	1	9
592.394	1	7
592.564	1	16
592.733	1	17
592.903	1	11
593.073	1	13
593.243	1	16
593.412	1	11
593.582	1	17
593.752	1	8
593.922	1	17
594.091	1	22
594.261	1	1
594.431	1	14
594.601	1	5
594.771	1	14
594.940	1	10
595.110	1	11
595.280	1	11
595.450	1	23
595.619	1	14
595.789	1	13
595.959	1	-2
596.129	1	19
596.298	1	19
596.468	1	14
596.638	1	9
596.808	1	5
596.977	1	11
597.147	1	12
597.317	1	10
597.487	1	13
597.656	1	16
597.826	1	20
597.996	1	18
598.166	1	13
598.335	1	1
598.505	1	14
598.675	1	19
598.844	1	26
599.014	1	10
599.184	1	16
599.354	1	17
599.523	1	11
599.693	1	19
599.863	1	19
600.033	1	11
600.202	1	12
600.372	1	12
600.542	1	11
600.712	1	3
600.881	1	14
601.051	1	17
601.221	1	13
601.390	1	15
601.560	1	16
601.730	1	8
601.900	1	16
602.069	1	14
602.239	1	21
602.409	1	18
602.578	1	10
602.748	1	12
602.918	1	9
603.088	1	10
603.257	1	15
603.427	1	15
603.597	1	16
603.767	1	12
603.936	1	17
604.106	1	11
604.276	1	15
604.445	1	3
604.615	1	14
604.785	1	15
604.954	1	21
605.124	1	16
605.294	1	19
605.464	1	10
605.633	1	12
605.803	1	14
605.973	1	8
606.142	1	20
606.312	1	26
606.482	1	10
606.652	1	22
606.821	1	15
606.991	1	25
607.161	1	18
607.330	1	14
607.500	1	13
607.670	1	16
607.839	1	9
608.009	1	11
608.179	1	17
608.348	1	19
608.518	1	23
608.688	1	14
608.858	1	10
609.027	1	32
609.197	1	9
609.367	1	5
609.536	1	8
609.706	1	19
609.876	1	25
610.045	1	23
610.215	1	24
610.385	1	14
610.554	1	20
610.724	1	17
610.894	1	23
611.063	1	10
611.233	1	16
611.403	1	16
611.572	1	18
611.742	1	9
611.912	1	18
612.081	1	17
612.251	1	29
612.421	1	15
612.590	1	15
612.760	1	16
612.930	1	22
613.099	1	18
613.269	1	16
613.439	1	0
613.608	1	14
613.778	1	21
613.948	1	24
614.117	1	20
614.287	1	1
614.457	1	19
614.626	1	13
614.796	1	18
614.966	1	13
615.135	1	16
615.305	1	16
615.475	1	18
615.644	1	25
615.814	1	30
615.984	1	16
616.153	1	13
616.323	1	17
616.493	1	3
616.662	1	17
616.832	1	24
617.002	1	14
617.171	1	17
617.341	1	15
617.511	1	8
617.680	1	12
617.850	1	16
618.019	1	19
618.189	1	29
618.359	1	13
618.528	1	13
618.698	1	28
618.868	1	16
619.037	1	20
619.207	1	21
619.377	1	20
619.546	1	20
619.716	1	17
619.885	1	17
620.055	1	8
620.225	1	16
620.394	1	14
620.564	1	22
620.734	1	22
620.903	1	7
621.073	1	19
621.242	1	8
621.412	1	11
621.582	1	21
621.751	1	20
621.921	1	17
622.091	1	24
622.260	1	19
622.430	1	21
622.599	1	20
622.769	1	11
622.939	1	13
623.108	1	24
623.278	1	18
623.448	1	15
623.617	1	32
623.787	1	24
623.956	1	25
624.126	1	24
624.296	1	35
624.465	1	23
624.635	1	23
624.804	1	16
624.974	1	11
625.144	1	18
625.313	1	29
625.483	1	20
625.652	1	26
625.822	1	24
625.992	1	17
626.161	1	22
626.331	1	12
626.501	1	14
626.670	1	10
626.840	1	28
627.009	1	23
627.179	1	24
627.348	1	22
627.518	1	22
627.688	1	14
627.857	1	34
628.027	1	24
628.196	1	21
628.366	1	20
628.536	1	11
628.705	1	14
628.875	1	17
629.044	1	11
629.214	1	26
629.384	1	24
629.553	1	21
629.723	1	19
629.892	1	21
630.062	1	26
630.232	1	26
630.401	1	13
630.571	1	24
630.740	1	13
630.910	1	26
631.079	1	27
631.249	1	19
631.419	1	21
631.588	1	30
631.758	1	22
631.927	1	30
632.097	1	24
632.266	1	34
632.436	1	23
632.606	1	34
632.775	1	22
632.945	1	28
633.114	1	21
633.284	1	16
633.453	1	33
633.623	1	36
633.793	1	24
633.962	1	22
634.132	1	28
634.301	1	38
634.471	1	21
634.640	1	13
634.810	1	24
634.979	1	27
635.149	1	20
635.319	1	30
635.488	1	31
635.658	1	31
635.827	1	26
635.997	1	24
636.166	1	33
636.336	1	20
636.505	1	17
636.675	1	33
636.845	1	28
637.014	1	16
637.184	1	37
637.353	1	23
637.523	1	23
637.692	1	30
637.862	1	22
638.031	1	26
638.201	1	25
638.370	1	21
638.540	1	16
638.710	1	24
638.879	1	20
639.049	1	25
639.218	1	32
639.388	1	28
639.557	1	35
639.727	1	28
639.896	1	21
640.066	1	30
640.235	1	25
640.405	1	34
640.574	1	38
640.744	1	17
640.914	1	26
641.083	1	29
641.253	1	10
641.422	1	20
641.592	1	30
641.761	1	16
641.931	1	41
642.100	1	28
642.270	1	18
642.439	1	29
642.609	1	40
642.778	1	22
642.948	1	43
643.117	1	32
643.287	1	25
643.456	1	25
643.626	1	27
643.795	1	28
643.965	1	30
644.134	1	26
644.304	1	27
644.473	1	21
644.643	1	29
644.812	1	21
644.982	1	24
645.151	1	26
645.321	1	35
645.490	1	31
645.660	1	31
645.829	1	28
645.999	1	17
646.168	1	45
646.338	1	23
646.507	1	25
646.677	1	33
646.846	1	33
647.016	1	43
647.185	1	27
647.355	1	43
647.524	1	25
647.694	1	29
647.863	1	21
648.033	1	33
648.202	1	31
648.372	1	26
648.541	1	31
648.711	1	30
648.880	1	38
649.050	1	31
649.219	1	26
649.389	1	27
649.558	1	41
649.728	1	32
649.897	1	36
650.067	1	29
650.236	1	25
650.406	1	30
650.575	1	37
650.745	1	32
650.914	1	36
651.084	1	37
651.253	1	32
651.423	1	20
651.592	1	32
651.762	1	28
651.931	1	40
652.101	1	25
652.270	1	23
652.440	1	29
652.609	1	26
652.778	1	30
652.948	1	36
653.117	1	21
653.287	1	27
653.456	1	26
653.626	1	36
653.795	1	18
653.965	1	32
654.134	1	31
654.304	1	31
654.473	1	36
654.643	1	29
654.812	1	44
654.982	1	34
655.151	1	41
655.320	1	21
655.490	1	27
655.659	1	32
655.829	1	28
655.998	1	34
656.168	1	24
656.337	1	21
656.507	1	30
656.676	1	27
656.846	1	22
657.015	1	44
657.184	1	42
657.354	1	17
657.523	1	24
657.693	1	41
657.862	1	18
658.032	1	34
658.201	1	19
658.371	1	41
658.540	1	29
658.709	1	46
658.879	1	38
659.048	1	39
659.218	1	36
659.387	1	45
659.557	1	26
659.726	1	33
659.895	1	36
660.065	1	29
660.234	1	30
660.404	1	41
660.573	1	33
660.743	1	30
660.912	1	38
661.081	1	40
661.251	1	31
661.420	1	46
661.590	1	28
661.759	1	40
661.929	1	37
662.098	1	42
662.267	1	33
662.437	1	38
662.606	1	27
662.776	1	33
662.945	1	34
663.115	1	42
663.284	1	48
663.453	1	32
663.623	1	33
663.792	1	43
663.962	1	46
664.131	1	32
664.300	1	42
664.470	1	30
664.639	1	34
664.809	1	32
664.978	1	44
665.148	1	49
665.317	1	44
665.486	1	43
665.656	1	36
665.825	1	42
665.995	1	23
666.164	1	33
666.333	1	33
666.503	1	34
666.672	1	35
666.842	1	45
667.011	1	33
667.180	1	38
667.350	1	41
667.519	1	44
667.689	1	36
667.858	1	43
668.027	1	29
668.197	1	23
668.366	1	41
668.536	1	33
668.705	1	35
668.874	1	48
669.044	1	35
669.213	1	42
669.382	1	45
669.552	1	38
669.721	1	27
669.891	1	20
670.060	1	34
670.229	1	43
670.399	1	44
670.568	1	39
670.738	1	25
670.907	1	39
671.076	1	32
671.246	1	38
671.415	1	49
671.584	1	31
671.754	1	37
671.923	1	30
672.093	1	42
672.262	1	30
672.431	1	41
672.601	1	34
672.770	1	37
672.939	1	35
673.109	1	34
673.278	1	38
673.448	1	43
673.617	1	42
673.786	1	27
