325.333	1	6
325.504	1	7
325.675	1	15
325.846	1	12
326.017	1	16
326.188	1	18
326.359	1	22
326.531	1	7
326.702	1	16
326.873	1	22
327.044	1	9
327.215	1	12
327.386	1	14
327.557	1	-6
327.728	1	8
327.899	1	0
328.070	1	16
328.241	1	13
328.412	1	17
328.583	1	11
328.754	1	16
328.926	1	7
329.097	1	5
329.268	1	14
329.439	1	15
329.610	1	12
329.781	1	20
329.952	1	18
330.123	1	4
330.294	1	-3
330.465	1	2
330.636	1	16
330.807	1	7
330.978	1	7
331.149	1	15
331.320	1	17
331.492	1	8
331.663	1	8
331.834	1	20
332.005	1	15
332.176	1	15
332.347	1	5
332.518	1	14
332.689	1	18
332.860	1	13
333.031	1	18
333.202	1	11
333.373	1	12
333.544	1	11
333.715	1	17
333.886	1	12
334.057	1	11
334.228	1	17
334.399	1	18
334.570	1	7
334.741	1	18
334.912	1	11
335.084	1	25
335.255	1	18
335.426	1	19
335.597	1	3
335.768	1	13
335.939	1	13
336.110	1	16
336.281	1	1
336.452	1	27
336.623	1	10
336.794	1	15
336.965	1	10
337.136	1	33
337.307	1	13
337.478	1	2
337.649	1	19
337.820	1	12
337.991	1	16
338.162	1	16
338.333	1	9
338.504	1	16
338.675	1	6
338.846	1	7
339.017	1	17
339.188	1	13
339.359	1	26
339.530	1	9
339.701	1	20
339.872	1	32
340.043	1	21
340.214	1	18
340.385	1	10
340.556	1	21
340.727	1	19
340.898	1	20
341.069	1	17
341.240	1	23
341.411	1	11
341.582	1	11
341.753	1	21
341.924	1	27
342.095	1	12
342.266	1	27
342.437	1	24
342.608	1	20
342.779	1	12
342.950	1	26
343.121	1	22
343.292	1	11
343.463	1	34
343.634	1	23
343.805	1	24
343.976	1	32
344.147	1	32
344.318	1	27
344.489	1	26
344.660	1	24
344.831	1	37
345.002	1	20
345.173	1	15
345.344	1	27
345.515	1	18
345.686	1	24
345.857	1	31
346.028	1	29
346.199	1	23
346.370	1	35
346.541	1	24
346.712	1	16
346.883	1	27
347.054	1	32
347.225	1	5
347.396	1	27
347.567	1	23
347.738	1	21
347.909	1	35
348.080	1	26
348.251	1	23
348.422	1	45
348.593	1	29
348.764	1	32
348.935	1	23
349.106	1	12
349.277	1	33
349.448	1	19
349.619	1	31
349.790	1	33
349.961	1	11
350.132	1	38
350.303	1	26
350.474	1	36
350.645	1	39
350.816	1	27
350.987	1	37
351.157	1	28
351.328	1	30
351.499	1	26
351.670	1	37
351.841	1	45
352.012	1	34
352.183	1	38
352.354	1	30
352.525	1	40
352.696	1	22
352.867	1	39
353.038	1	35
353.209	1	34
353.380	1	32
353.551	1	37
353.722	1	36
353.893	1	26
354.064	1	34
354.235	1	32
354.406	1	20
354.576	1	27
354.747	1	34
354.918	1	23
355.089	1	37
355.260	1	36
355.431	1	36
355.602	1	22
355.773	1	32
355.944	1	41
356.115	1	27
356.286	1	30
356.457	1	35
356.628	1	18
356.799	1	41
356.970	1	36
357.141	1	34
357.311	1	52
357.482	1	35
357.653	1	29
357.824	1	32
357.995	1	49
358.166	1	31
358.337	1	33
358.508	1	44
358.679	1	29
358.850	1	36
359.021	1	39
359.192	1	46
359.363	1	47
359.533	1	38
359.704	1	22
359.875	1	37
360.046	1	40
360.217	1	46
360.388	1	47
360.559	1	44
360.730	1	29
360.901	1	45
361.072	1	39
361.243	1	38
361.414	1	49
361.584	1	31
361.755	1	35
361.926	1	44
362.097	1	31
362.268	1	44
362.439	1	41
362.610	1	42
362.781	1	35
362.952	1	40
363.123	1	33
363.293	1	45
363.464	1	37
363.635	1	38
363.806	1	35
363.977	1	33
364.148	1	35
364.319	1	35
364.490	1	50
364.661	1	27
364.832	1	36
365.002	1	45
365.173	1	50
365.344	1	46
365.515	1	38
365.686	1	41
365.857	1	46
366.028	1	43
366.199	1	44
366.370	1	46
366.540	1	37
366.711	1	42
366.882	1	45
367.053	1	37
367.224	1	46
367.395	1	43
367.566	1	40
367.737	1	38
367.908	1	43
368.078	1	44
368.249	1	47
368.420	1	38
368.591	1	51
368.762	1	42
368.933	1	36
369.104	1	40
369.274	1	45
369.445	1	40
369.616	1	35
369.787	1	36
369.958	1	47
370.129	1	42
370.300	1	41
370.471	1	38
370.641	1	40
370.812	1	39
370.983	1	45
371.154	1	34
371.325	1	32
371.496	1	43
371.667	1	52
371.837	1	47
372.008	1	45
372.179	1	42
372.350	1	38
372.521	1	39
372.692	1	47
372.863	1	45
373.033	1	33
373.204	1	36
373.375	1	38
373.546	1	40
373.717	1	39
373.888	1	43
374.059	1	42
374.229	1	52
374.400	1	44
374.571	1	36
374.742	1	44
374.913	1	35
375.084	1	48
375.254	1	41
375.425	1	40
375.596	1	46
375.767	1	41
375.938	1	43
376.109	1	35
376.279	1	37
376.450	1	52
376.621	1	46
376.792	1	51
376.963	1	36
377.134	1	43
377.304	1	56
377.475	1	43
377.646	1	47
377.817	1	47
377.988	1	42
378.159	1	46
378.329	1	48
378.500	1	55
378.671	1	39
378.842	1	51
379.013	1	47
379.184	1	49
379.354	1	42
379.525	1	49
379.696	1	44
379.867	1	56
380.038	1	51
380.209	1	57
380.379	1	46
380.550	1	39
380.721	1	46
380.892	1	41
381.063	1	43
381.233	1	47
381.404	1	49
381.575	1	42
381.746	1	52
381.917	1	40
382.087	1	54
382.258	1	55
382.429	1	42
382.600	1	46
382.771	1	49
382.941	1	50
383.112	1	40
383.283	1	57
383.454	1	51
383.625	1	48
383.795	1	62
383.966	1	51
384.137	1	61
384.308	1	50
384.479	1	52
384.649	1	38
384.820	1	55
384.991	1	43
385.162	1	52
385.333	1	52
385.503	1	50
385.674	1	54
385.845	1	47
386.016	1	51
386.187	1	52
386.357	1	59
386.528	1	51
386.699	1	47
386.870	1	41
387.041	1	54
387.211	1	52
387.382	1	62
387.553	1	70
387.724	1	43
387.894	1	54
388.065	1	57
388.236	1	49
388.407	1	59
388.578	1	63
388.748	1	54
388.919	1	59
389.090	1	65
389.261	1	61
389.431	1	56
389.602	1	46
389.773	1	54
389.944	1	48
390.114	1	52
390.285	1	60
390.456	1	49
390.627	1	38
390.798	1	57
390.968	1	62
391.139	1	65
391.310	1	49
391.481	1	58
391.651	1	65
391.822	1	60
391.993	1	50
392.164	1	47
392.334	1	51
392.505	1	56
392.676	1	49
392.847	1	63
393.017	1	49
393.188	1	68
393.359	1	64
393.530	1	64
393.700	1	51
393.871	1	64
394.042	1	51
394.213	1	58
394.383	1	64
394.554	1	57
394.725	1	52
394.896	1	58
395.066	1	57
395.237	1	57
395.408	1	48
395.579	1	61
395.749	1	68
395.920	1	56
396.091	1	56
396.262	1	66
396.432	1	61
396.603	1	59
396.774	1	56
396.945	1	66
397.115	1	74
397.286	1	62
397.457	1	55
397.627	1	51
397.798	1	59
397.969	1	66
398.140	1	56
398.310	1	64
398.481	1	54
398.652	1	65
398.823	1	60
398.993	1	62
399.164	1	72
399.335	1	51
399.505	1	52
399.676	1	60
399.847	1	61
400.018	1	56
400.188	1	62
400.359	1	74
400.530	1	72
400.700	1	68
400.871	1	64
401.042	1	68
401.213	1	61
401.383	1	60
401.554	1	60
401.725	1	54
401.895	1	48
402.066	1	61
402.237	1	54
402.408	1	59
402.578	1	64
402.749	1	60
402.920	1	66
403.090	1	64
403.261	1	57
403.432	1	62
403.603	1	65
403.773	1	71
403.944	1	70
404.115	1	60
404.285	1	58
404.456	1	63
404.627	1	64
404.797	1	60
404.968	1	61
405.139	1	68
405.310	1	59
405.480	1	61
405.651	1	59
405.822	1	63
405.992	1	70
406.163	1	50
406.334	1	68
406.504	1	55
406.675	1	56
406.846	1	56
407.016	1	73
407.187	1	61
407.358	1	69
407.528	1	66
407.699	1	77
407.870	1	71
408.041	1	50
408.211	1	69
408.382	1	72
408.553	1	67
408.723	1	73
408.894	1	55
409.065	1	64
409.235	1	66
409.406	1	63
409.577	1	78
409.747	1	57
409.918	1	68
410.089	1	87
410.259	1	69
410.430	1	64
410.601	1	68
410.771	1	70
410.942	1	64
411.113	1	77
411.283	1	65
411.454	1	78
411.625	1	67
411.795	1	75
411.966	1	62
412.137	1	69
412.307	1	71
412.478	1	69
412.649	1	61
412.819	1	65
412.990	1	71
413.161	1	69
413.331	1	55
413.502	1	58
413.672	1	64
413.843	1	64
414.014	1	55
414.184	1	57
414.355	1	69
414.526	1	72
414.696	1	53
414.867	1	53
415.038	1	64
415.208	1	62
415.379	1	60
415.550	1	66
415.720	1	59
415.891	1	65
416.062	1	64
416.232	1	67
416.403	1	69
416.573	1	59
416.744	1	78
416.915	1	73
417.085	1	60
417.256	1	62
417.427	1	55
417.597	1	68
417.768	1	57
417.939	1	58
418.109	1	55
418.280	1	65
418.450	1	68
418.621	1	73
418.792	1	54
418.962	1	61
419.133	1	65
419.304	1	67
419.474	1	72
419.645	1	67
419.815	1	61
419.986	1	78
420.157	1	62
420.327	1	58
420.498	1	55
420.669	1	53
420.839	1	68
421.010	1	64
421.180	1	55
421.351	1	66
421.522	1	62
421.692	1	74
421.863	1	59
422.033	1	75
422.204	1	60
422.375	1	65
422.545	1	68
422.716	1	58
422.886	1	63
423.057	1	61
423.228	1	49
423.398	1	63
423.569	1	58
423.740	1	57
423.910	1	60
424.081	1	63
424.251	1	64
424.422	1	64
424.593	1	62
424.763	1	64
424.934	1	65
425.104	1	74
425.275	1	56
425.445	1	57
425.616	1	61
425.787	1	59
425.957	1	58
426.128	1	63
426.298	1	68
426.469	1	45
426.640	1	52
426.810	1	38
426.981	1	70
427.151	1	50
427.322	1	55
427.493	1	62
427.663	1	57
427.834	1	62
428.004	1	69
428.175	1	63
428.345	1	54
428.516	1	62
428.687	1	71
428.857	1	64
429.028	1	44
429.198	1	40
429.369	1	72
429.540	1	69
429.710	1	60
429.881	1	54
430.051	1	62
430.222	1	64
430.392	1	69
430.563	1	54
430.734	1	57
430.904	1	58
431.075	1	52
431.245	1	58
431.416	1	57
431.586	1	48
431.757	1	64
431.927	1	68
432.098	1	63
432.269	1	57
432.439	1	46
432.610	1	68
432.780	1	57
432.951	1	53
433.121	1	55
433.292	1	66
433.462	1	59
433.633	1	69
433.804	1	60
433.974	1	61
434.145	1	56
434.315	1	59
434.486	1	49
434.656	1	58
434.827	1	58
434.997	1	61
435.168	1	57
435.339	1	67
435.509	1	59
435.680	1	63
435.850	1	48
436.021	1	57
436.191	1	57
436.362	1	60
436.532	1	60
436.703	1	62
436.873	1	52
437.044	1	61
437.214	1	47
437.385	1	59
437.556	1	54
437.726	1	52
437.897	1	69
438.067	1	49
438.238	1	53
438.408	1	60
438.579	1	43
438.749	1	49
438.920	1	64
439.090	1	50
439.261	1	59
439.431	1	59
439.602	1	49
439.772	1	53
439.943	1	46
440.113	1	52
440.284	1	55
440.455	1	46
440.625	1	56
440.796	1	45
440.966	1	62
441.137	1	52
441.307	1	55
441.478	1	46
441.648	1	46
441.819	1	47
441.989	1	63
442.160	1	57
442.330	1	57
442.501	1	47
442.671	1	49
442.842	1	50
443.012	1	59
443.183	1	59
443.353	1	54
443.524	1	52
443.694	1	57
443.865	1	46
444.035	1	45
444.206	1	53
444.376	1	53
444.547	1	55
444.717	1	50
444.888	1	36
445.058	1	53
445.229	1	45
445.399	1	42
445.570	1	45
445.740	1	41
445.911	1	61
446.081	1	43
446.252	1	54
446.422	1	60
446.593	1	51
446.763	1	64
446.934	1	44
447.104	1	43
447.275	1	47
447.445	1	51
447.616	1	52
447.786	1	49
447.957	1	44
448.127	1	43
448.298	1	46
448.468	1	54
448.639	1	47
448.809	1	51
448.979	1	55
449.150	1	40
449.320	1	51
449.491	1	48
449.661	1	36
449.832	1	33
450.002	1	40
450.173	1	55
450.343	1	48
450.514	1	54
450.684	1	48
450.855	1	55
451.025	1	46
451.196	1	42
451.366	1	55
451.537	1	56
451.707	1	45
451.878	1	48
452.048	1	32
452.218	1	49
452.389	1	47
452.559	1	49
452.730	1	51
452.900	1	48
453.071	1	48
453.241	1	46
453.412	1	45
453.582	1	66
453.753	1	59
453.923	1	46
454.093	1	50
454.264	1	56
454.434	1	43
454.605	1	44
454.775	1	43
454.946	1	31
455.116	1	56
455.287	1	41
455.457	1	48
455.628	1	37
455.798	1	44
455.968	1	35
456.139	1	57
456.309	1	42
456.480	1	37
456.650	1	46
456.821	1	42
456.991	1	44
457.161	1	43
457.332	1	32
457.502	1	43
457.673	1	42
457.843	1	45
458.014	1	38
458.184	1	42
458.355	1	42
458.525	1	37
458.695	1	32
458.866	1	34
459.036	1	41
459.207	1	51
459.377	1	31
459.548	1	44
459.718	1	29
459.888	1	37
460.059	1	47
460.229	1	34
460.400	1	36
460.570	1	38
460.740	1	44
460.911	1	40
461.081	1	42
461.252	1	45
461.422	1	46
461.593	1	46
461.763	1	57
461.933	1	35
462.104	1	41
462.274	1	34
462.445	1	44
462.615	1	51
462.785	1	43
462.956	1	23
463.126	1	45
463.297	1	48
463.467	1	39
463.638	1	38
463.808	1	40
463.978	1	36
464.149	1	44
464.319	1	38
464.490	1	42
464.660	1	37
464.830	1	39
465.001	1	34
465.171	1	37
465.342	1	30
465.512	1	33
465.682	1	37
465.853	1	33
466.023	1	44
466.194	1	41
466.364	1	43
466.534	1	35
466.705	1	43
466.875	1	29
467.045	1	28
467.216	1	44
467.386	1	40
467.557	1	40
467.727	1	40
467.897	1	38
468.068	1	34
468.238	1	32
468.409	1	30
468.579	1	35
468.749	1	31
468.920	1	25
469.090	1	43
469.260	1	31
469.431	1	25
469.601	1	42
469.772	1	49
469.942	1	46
470.112	1	26
470.283	1	45
470.453	1	35
470.623	1	36
470.794	1	33
470.964	1	23
471.135	1	37
471.305	1	33
471.475	1	38
471.646	1	34
471.816	1	35
471.986	1	30
472.157	1	36
472.327	1	44
472.497	1	38
472.668	1	36
472.838	1	25
473.009	1	32
473.179	1	34
473.349	1	37
473.520	1	43
473.690	1	27
473.860	1	32
474.031	1	25
474.201	1	42
474.371	1	33
474.542	1	34
474.712	1	23
474.882	1	34
475.053	1	35
475.223	1	33
475.394	1	27
475.564	1	35
475.734	1	24
475.905	1	36
476.075	1	49
476.245	1	32
476.416	1	25
476.586	1	30
476.756	1	35
476.927	1	27
477.097	1	28
477.267	1	31
477.438	1	45
477.608	1	37
477.778	1	30
477.949	1	26
478.119	1	35
478.289	1	20
478.460	1	20
478.630	1	22
478.800	1	31
478.971	1	31
479.141	1	46
479.311	1	37
479.482	1	34
479.652	1	32
479.822	1	21
479.993	1	32
480.163	1	34
480.333	1	25
480.504	1	31
480.674	1	34
480.844	1	25
481.015	1	39
481.185	1	46
481.355	1	31
481.525	1	27
481.696	1	35
481.866	1	39
482.036	1	28
482.207	1	40
482.377	1	28
482.547	1	28
482.718	1	31
482.888	1	35
483.058	1	38
483.229	1	28
483.399	1	28
483.569	1	19
483.740	1	20
483.910	1	18
484.080	1	31
484.250	1	17
484.421	1	25
484.591	1	23
484.761	1	36
484.932	1	23
485.102	1	32
485.272	1	27
485.443	1	31
485.613	1	29
485.783	1	28
485.953	1	28
486.124	1	23
486.294	1	32
486.464	1	36
486.635	1	30
486.805	1	23
486.975	1	20
487.146	1	41
487.316	1	22
487.486	1	36
487.656	1	23
487.827	1	14
487.997	1	23
488.167	1	29
488.338	1	16
488.508	1	31
488.678	1	33
488.848	1	17
489.019	1	34
489.189	1	34
489.359	1	23
489.529	1	29
489.700	1	22
489.870	1	33
490.040	1	12
490.211	1	13
490.381	1	7
490.551	1	21
490.721	1	20
490.892	1	11
491.062	1	11
491.232	1	15
491.402	1	15
491.573	1	26
491.743	1	19
491.913	1	27
492.084	1	25
492.254	1	18
492.424	1	25
492.594	1	26
492.765	1	24
492.935	1	28
493.105	1	15
493.275	1	16
493.446	1	5
493.616	1	10
493.786	1	28
493.956	1	19
494.127	1	10
494.297	1	16
494.467	1	18
494.637	1	20
494.808	1	23
494.978	1	14
495.148	1	18
495.318	1	19
495.489	1	10
495.659	1	17
495.829	1	23
495.999	1	23
496.170	1	30
496.340	1	10
496.510	1	15
496.680	1	22
496.851	1	24
497.021	1	25
497.191	1	24
497.361	1	3
497.532	1	19
497.702	1	21
497.872	1	28
498.042	1	15
498.213	1	14
498.383	1	18
498.553	1	20
498.723	1	19
498.894	1	13
499.064	1	17
499.234	1	22
499.404	1	28
499.574	1	23
499.745	1	24
499.915	1	35
500.085	1	11
500.255	1	12
500.426	1	13
500.596	1	10
500.766	1	16
500.936	1	11
501.106	1	13
501.277	1	12
501.447	1	22
501.617	1	12
501.787	1	13
501.958	1	18
502.128	1	22
502.298	1	12
502.468	1	12
502.638	1	16
502.809	1	12
502.979	1	17
503.149	1	16
503.319	1	26
503.489	1	4
503.660	1	14
503.830	1	16
504.000	1	14
504.170	1	18
504.340	1	3
504.511	1	11
504.681	1	12
504.851	1	10
505.021	1	12
505.192	1	8
505.362	1	16
505.532	1	16
505.702	1	24
505.872	1	10
506.043	1	23
506.213	1	23
506.383	1	25
506.553	1	14
506.723	1	5
506.893	1	33
507.064	1	21
507.234	1	14
507.404	1	9
507.574	1	1
507.744	1	22
507.915	1	13
508.085	1	12
508.255	1	12
508.425	1	13
508.595	1	12
508.766	1	7
508.936	1	16
509.106	1	17
509.276	1	18
509.446	1	10
509.616	1	16
509.787	1	4
509.957	1	14
510.127	1	7
510.297	1	10
510.467	1	14
510.638	1	18
510.808	1	26
510.978	1	10
511.148	1	14
511.318	1	11
511.488	1	24
511.659	1	12
511.829	1	13
511.999	1	14
512.169	1	16
512.339	1	15
512.509	1	11
512.680	1	19
512.850	1	15
513.020	1	13
513.190	1	15
513.360	1	16
513.530	1	9
513.700	1	17
513.871	1	6
514.041	1	23
514.211	1	17
514.381	1	14
514.551	1	5
514.721	1	12
514.892	1	-2
515.062	1	25
515.232	1	14
515.402	1	4
515.572	1	18
515.742	1	20
515.912	1	7
516.083	1	23
516.253	1	21
516.423	1	9
516.593	1	9
516.763	1	10
516.933	1	12
517.104	1	20
517.274	1	11
517.444	1	15
517.614	1	15
517.784	1	10
517.954	1	14
518.124	1	14
518.294	1	13
518.465	1	4
518.635	1	18
518.805	1	15
518.975	1	14
519.145	1	14
519.315	1	12
519.485	1	-1
519.656	1	2
519.826	1	8
519.996	1	15
520.166	1	12
520.336	1	16
520.506	1	5
520.676	1	7
520.846	1	8
521.017	1	11
521.187	1	11
521.357	1	6
521.527	1	8
521.697	1	9
521.867	1	17
522.037	1	8
522.207	1	19
522.377	1	14
522.548	1	5
522.718	1	5
522.888	1	12
523.058	1	17
523.228	1	-7
523.398	1	16
523.568	1	6
523.738	1	11
523.909	1	8
524.079	1	15
524.249	1	9
524.419	1	12
524.589	1	5
524.759	1	18
524.929	1	11
525.099	1	9
525.269	1	9
525.439	1	3
525.610	1	21
525.780	1	12
525.950	1	10
526.120	1	7
526.290	1	-1
526.460	1	0
526.630	1	5
526.800	1	2
526.970	1	18
527.140	1	4
527.311	1	11
527.481	1	15
527.651	1	7
527.821	1	8
527.991	1	8
528.161	1	12
528.331	1	7
528.501	1	4
528.671	1	9
528.841	1	13
529.011	1	14
529.181	1	6
529.352	1	3
529.522	1	12
529.692	1	7
529.862	1	8
530.032	1	3
530.202	1	10
530.372	1	11
530.542	1	10
530.712	1	21
530.882	1	14
531.052	1	14
531.222	1	15
531.392	1	8
531.563	1	13
531.733	1	6
531.903	1	11
532.073	1	14
532.243	1	20
532.413	1	21
532.583	1	10
532.753	1	2
532.923	1	16
533.093	1	1
533.263	1	7
533.433	1	1
533.603	1	5
533.773	1	12
533.943	1	7
534.113	1	14
534.284	1	4
534.454	1	-3
534.624	1	-4
534.794	1	-1
534.964	1	11
535.134	1	0
535.304	1	13
535.474	1	15
535.644	1	15
535.814	1	3
535.984	1	4
536.154	1	7
536.324	1	2
536.494	1	13
536.664	1	14
536.834	1	4
537.004	1	10
537.174	1	14
537.344	1	12
537.514	1	13
537.685	1	11
537.855	1	9
538.025	1	21
538.195	1	2
538.365	1	9
538.535	1	1
538.705	1	5
538.875	1	12
539.045	1	15
539.215	1	-2
539.385	1	9
539.555	1	10
539.725	1	15
539.895	1	13
540.065	1	4
540.235	1	11
540.405	1	14
540.575	1	-1
540.745	1	9
540.915	1	11
541.085	1	4
541.255	1	3
541.425	1	10
541.595	1	3
541.765	1	4
541.935	1	-1
542.105	1	11
542.275	1	8
542.445	1	12
542.615	1	14
542.785	1	1
542.955	1	7
543.125	1	5
543.295	1	10
543.465	1	22
543.635	1	-5
543.805	1	5
543.975	1	3
544.145	1	6
544.315	1	-1
544.485	1	4
544.655	1	9
544.825	1	2
544.995	1	2
545.165	1	-2
545.335	1	17
545.505	1	6
545.675	1	6
545.845	1	15
546.015	1	5
546.185	1	1
546.355	1	11
546.525	1	8
546.695	1	3
546.865	1	12
547.035	1	7
547.205	1	7
547.375	1	11
547.545	1	1
547.715	1	15
547.885	1	5
548.055	1	8
548.225	1	15
548.395	1	15
548.565	1	9
548.735	1	3
548.905	1	10
549.075	1	8
549.245	1	8
549.415	1	9
549.585	1	8
549.755	1	4
549.925	1	1
550.095	1	6
550.265	1	9
550.435	1	9
550.605	1	0
550.775	1	5
550.945	1	-1
551.115	1	10
551.285	1	11
551.455	1	9
551.625	1	3
551.795	1	1
551.965	1	-2
552.135	1	4
552.305	1	6
552.475	1	-4
552.645	1	6
552.815	1	1
552.985	1	1
553.155	1	4
553.325	1	1
553.495	1	11
553.665	1	4
553.835	1	7
554.004	1	8
554.174	1	4
554.344	1	10
554.514	1	1
554.684	1	16
554.854	1	-5
555.024	1	18
555.194	1	10
555.364	1	2
555.534	1	7
555.704	1	1
555.874	1	-2
556.044	1	6
556.214	1	4
556.384	1	9
556.554	1	12
556.724	1	6
556.894	1	4
557.064	1	0
557.234	1	3
557.404	1	-1
557.573	1	10
557.743	1	-8
557.913	1	11
558.083	1	11
558.253	1	5
558.423	1	-1
558.593	1	10
558.763	1	11
558.933	1	-2
559.103	1	-1
559.273	1	10
559.443	1	12
559.613	1	-2
559.783	1	1
559.953	1	6
560.122	1	5
560.292	1	-6
560.462	1	4
560.632	1	-2
560.802	1	4
560.972	1	0
561.142	1	9
561.312	1	5
561.482	1	5
561.652	1	0
561.822	1	12
561.992	1	12
562.162	1	1
562.331	1	-9
562.501	1	6
562.671	1	1
562.841	1	-5
563.011	1	8
563.181	1	2
563.351	1	-1
563.521	1	6
563.691	1	12
563.861	1	1
564.031	1	8
564.201	1	5
564.370	1	4
564.540	1	0
564.710	1	-3
564.880	1	7
565.050	1	4
565.220	1	9
565.390	1	-4
565.560	1	9
565.730	1	8
565.900	1	5
566.069	1	17
566.239	1	13
566.409	1	-2
566.579	1	1
566.749	1	4
566.919	1	-8
567.089	1	-8
567.259	1	3
567.429	1	0
567.599	1	13
567.768	1	1
567.938	1	3
568.108	1	10
568.278	1	10
568.448	1	6
568.618	1	13
568.788	1	10
568.958	1	3
569.128	1	3
569.297	1	-2
569.467	1	11
569.637	1	-1
569.807	1	5
569.977	1	-3
570.147	1	8
570.317	1	-1
570.487	1	1
570.656	1	9
570.826	1	-1
570.996	1	10
571.166	1	-3
571.336	1	5
571.506	1	-6
571.676	1	9
571.846	1	3
572.015	1	6
572.185	1	-1
572.355	1	2
572.525	1	-2
572.695	1	3
572.865	1	10
573.035	1	3
573.205	1	0
573.374	1	-12
573.544	1	-2
573.714	1	2
573.884	1	2
574.054	1	7
574.224	1	12
574.394	1	5
574.563	1	0
574.733	1	5
574.903	1	-3
575.073	1	7
575.243	1	-3
575.413	1	3
575.583	1	4
575.752	1	1
575.922	1	14
576.092	1	5
576.262	1	0
576.432	1	4
576.602	1	5
576.772	1	8
576.941	1	6
577.111	1	2
577.281	1	11
577.451	1	14
577.621	1	5
577.791	1	8
577.960	1	-3
578.130	1	7
578.300	1	-3
578.470	1	5
578.640	1	-4
578.810	1	-3
578.979	1	-1
579.149	1	5
579.319	1	6
579.489	1	11
579.659	1	3
579.829	1	0
579.998	1	1
580.168	1	0
580.338	1	3
580.508	1	-1
580.678	1	4
580.848	1	11
581.017	1	2
581.187	1	8
581.357	1	7
581.527	1	-1
581.697	1	3
581.867	1	-2
582.036	1	-1
582.206	1	7
582.376	1	-1
582.546	1	-2
582.716	1	-2
582.885	1	2
583.055	1	-3
583.225	1	2
583.395	1	0
583.565	1	12
583.735	1	9
583.904	1	6
584.074	1	4
584.244	1	4
584.414	1	7
584.584	1	5
584.753	1	0
584.923	1	-2
585.093	1	9
585.263	1	-9
585.433	1	-2
585.602	1	3
585.772	1	19
585.942	1	0
586.112	1	8
586.282	1	4
586.451	1	13
586.621	1	5
586.791	1	-4
586.961	1	-4
587.131	1	3
587.300	1	10
587.470	1	2
587.640	1	-2
587.810	1	-12
587.980	1	14
588.149	1	9
588.319	1	11
588.489	1	7
588.659	1	-9
588.829	1	4
588.998	1	2
589.168	1	8
589.338	1	3
589.508	1	4
589.677	1	-2
589.847	1	17
590.017	1	3
590.187	1	11
590.357	1	-1
590.526	1	4
590.696	1	13
590.866	1	5
591.036	1	14
591.205	1	6
591.375	1	10
591.545	1	-1
591.715	1	0
591.885	1	13
592.054	1	6
592.224	1	6
592.394	1	-6
592.564	1	2
592.733	1	7
592.903	1	6
593.073	1	-4
593.243	1	17
593.412	1	-4
593.582	1	8
593.752	1	-1
593.922	1	-7
594.091	1	6
594.261	1	-11
594.431	1	10
594.601	1	-4
594.771	1	9
594.940	1	0
595.110	1	2
595.280	1	3
595.450	1	2
595.619	1	2
595.789	1	5
595.959	1	-4
596.129	1	15
596.298	1	21
596.468	1	2
596.638	1	0
596.808	1	2
596.977	1	-5
597.147	1	2
597.317	1	3
597.487	1	5
597.656	1	6
597.826	1	16
597.996	1	4
598.166	1	-4
598.335	1	2
598.505	1	3
598.675	1	3
598.844	1	18
599.014	1	-1
599.184	1	0
599.354	1	12
599.523	1	2
599.693	1	8
599.863	1	9
600.033	1	9
600.202	1	3
600.372	1	-1
600.542	1	13
600.712	1	4
600.881	1	-3
601.051	1	7
601.221	1	7
601.390	1	11
601.560	1	4
601.730	1	7
601.900	1	8
602.069	1	13
602.239	1	5
602.409	1	4
602.578	1	11
602.748	1	13
602.918	1	-3
603.088	1	3
603.257	1	-6
603.427	1	9
603.597	1	11
603.767	1	12
603.936	1	10
604.106	1	1
604.276	1	2
604.445	1	-5
604.615	1	-6
604.785	1	5
604.954	1	3
605.124	1	6
605.294	1	7
605.464	1	2
605.633	1	2
605.803	1	6
605.973	1	-1
606.142	1	9
606.312	1	13
606.482	1	-5
606.652	1	7
606.821	1	-3
606.991	1	14
607.161	1	-3
607.330	1	-1
607.500	1	6
607.670	1	2
607.839	1	5
608.009	1	2
608.179	1	7
608.348	1	8
608.518	1	7
608.688	1	6
608.858	1	3
609.027	1	5
609.197	1	18
609.367	1	1
609.536	1	-8
609.706	1	5
609.876	1	7
610.045	1	6
610.215	1	7
610.385	1	3
610.554	1	12
610.724	1	11
610.894	1	3
611.063	1	3
611.233	1	10
611.403	1	17
611.572	1	4
611.742	1	-7
611.912	1	13
612.081	1	7
612.251	1	12
612.421	1	5
612.590	1	9
612.760	1	1
612.930	1	8
613.099	1	12
613.269	1	5
613.439	1	7
613.608	1	5
613.778	1	-1
613.948	1	17
614.117	1	1
614.287	1	7
614.457	1	2
614.626	1	2
614.796	1	11
614.966	1	12
615.135	1	11
615.305	1	5
615.475	1	4
615.644	1	13
615.814	1	16
615.984	1	1
616.153	1	0
616.323	1	7
616.493	1	4
616.662	1	3
616.832	1	9
617.002	1	7
617.171	1	11
617.341	1	16
617.511	1	-10
617.680	1	2
617.850	1	5
618.019	1	8
618.189	1	14
618.359	1	-1
618.528	1	11
618.698	1	5
618.868	1	10
619.037	1	2
619.207	1	1
619.377	1	0
619.546	1	5
619.716	1	1
619.885	1	4
620.055	1	-6
620.225	1	8
620.394	1	13
620.564	1	13
620.734	1	6
620.903	1	-9
621.073	1	10
621.242	1	5
621.412	1	6
621.582	1	0
621.751	1	2
621.921	1	10
622.091	1	6
622.260	1	4
622.430	1	10
622.599	1	-1
622.769	1	9
622.939	1	5
623.108	1	4
623.278	1	13
623.448	1	5
623.617	1	4
623.787	1	5
623.956	1	10
624.126	1	13
624.296	1	8
624.465	1	4
624.635	1	4
624.804	1	-1
624.974	1	6
625.144	1	9
625.313	1	18
625.483	1	14
625.652	1	7
625.822	1	13
625.992	1	8
626.161	1	12
626.331	1	-1
626.501	1	9
626.670	1	8
626.840	1	12
627.009	1	10
627.179	1	-2
627.348	1	4
627.518	1	18
627.688	1	9
627.857	1	6
628.027	1	16
628.196	1	11
628.366	1	4
628.536	1	-1
628.705	1	-2
628.875	1	0
629.044	1	10
629.214	1	11
629.384	1	11
629.553	1	5
629.723	1	18
629.892	1	14
630.062	1	-1
630.232	1	13
630.401	1	17
630.571	1	11
630.740	1	5
630.910	1	4
631.079	1	4
631.249	1	11
631.419	1	6
631.588	1	4
631.758	1	-9
631.927	1	14
632.097	1	2
632.266	1	13
632.436	1	9
632.606	1	4
632.775	1	8
632.945	1	9
633.114	1	-3
633.284	1	6
633.453	1	11
633.623	1	16
633.793	1	11
633.962	1	6
634.132	1	6
634.301	1	14
634.471	1	7
634.640	1	4
634.810	1	7
634.979	1	2
635.149	1	5
635.319	1	2
635.488	1	8
635.658	1	5
635.827	1	6
635.997	1	13
636.166	1	7
636.336	1	3
636.505	1	14
636.675	1	10
636.845	1	1
637.014	1	-10
637.184	1	7
637.353	1	1
637.523	1	12
637.692	1	12
637.862	1	7
638.031	1	1
638.201	1	13
638.370	1	5
638.540	1	1
638.710	1	8
638.879	1	5
639.049	1	8
639.218	1	22
639.388	1	13
639.557	1	16
639.727	1	15
639.896	1	7
640.066	1	-3
640.235	1	4
640.405	1	10
640.574	1	17
640.744	1	-2
640.914	1	3
641.083	1	15
641.253	1	6
641.422	1	4
641.592	1	18
641.761	1	4
641.931	1	16
642.100	1	3
642.270	1	10
642.439	1	14
642.609	1	4
642.778	1	14
642.948	1	19
643.117	1	17
643.287	1	7
643.456	1	10
643.626	1	0
643.795	1	7
643.965	1	3
644.134	1	4
644.304	1	1
644.473	1	8
644.643	1	16
644.812	1	3
644.982	1	15
645.151	1	7
645.321	1	18
645.490	1	10
645.660	1	9
645.829	1	6
645.999	1	2
646.168	1	19
646.338	1	-8
646.507	1	7
646.677	1	10
646.846	1	8
647.016	1	18
647.185	1	8
647.355	1	18
647.524	1	1
647.694	1	-3
647.863	1	-2
648.033	1	4
648.202	1	10
648.372	1	-5
648.541	1	9
648.711	1	9
648.880	1	17
649.050	1	10
649.219	1	6
649.389	1	5
649.558	1	15
649.728	1	-2
649.897	1	13
650.067	1	19
650.236	1	1
650.406	1	4
650.575	1	8
650.745	1	11
650.914	1	17
651.084	1	16
651.253	1	8
651.423	1	0
651.592	1	1
651.762	1	8
651.931	1	8
652.101	1	7
652.270	1	12
652.440	1	16
652.609	1	8
652.778	1	19
652.948	1	2
653.117	1	6
653.287	1	-2
653.456	1	1
653.626	1	17
653.795	1	12
653.965	1	2
654.134	1	0
654.304	1	7
654.473	1	8
654.643	1	2
654.812	1	11
654.982	1	15
655.151	1	12
655.320	1	8
655.490	1	11
655.659	1	15
655.829	1	18
655.998	1	8
656.168	1	1
656.337	1	13
656.507	1	0
656.676	1	0
656.846	1	8
657.015	1	21
657.184	1	11
657.354	1	16
657.523	1	0
657.693	1	13
657.862	1	-3
658.032	1	5
658.201	1	-4
658.371	1	7
658.540	1	7
658.709	1	14
658.879	1	26
659.048	1	11
659.218	1	11
659.387	1	21
659.557	1	0
659.726	1	10
659.895	1	8
660.065	1	4
660.234	1	1
660.404	1	10
660.573	1	7
660.743	1	4
660.912	1	9
661.081	1	6
661.251	1	12
661.420	1	12
661.590	1	7
661.759	1	0
661.929	1	3
662.098	1	8
662.267	1	2
662.437	1	8
662.606	1	4
662.776	1	17
662.945	1	14
663.115	1	23
663.284	1	9
663.453	1	10
663.623	1	5
663.792	1	15
663.962	1	8
664.131	1	-2
664.300	1	1
664.470	1	4
664.639	1	16
664.809	1	15
664.978	1	15
665.148	1	10
665.317	1	2
665.486	1	12
665.656	1	8
665.825	1	24
665.995	1	-3
666.164	1	14
666.333	1	2
666.503	1	11
666.672	1	14
666.842	1	6
667.011	1	8
667.180	1	14
667.350	1	15
667.519	1	17
667.689	1	8
667.858	1	15
668.027	1	8
668.197	1	-2
668.366	1	19
668.536	1	7
668.705	1	-2
668.874	1	22
669.044	1	14
669.213	1	12
669.382	1	11
669.552	1	11
669.721	1	10
669.891	1	-6
670.060	1	17
670.229	1	16
670.399	1	18
670.568	1	9
670.738	1	9
670.907	1	14
671.076	1	11
671.246	1	8
671.415	1	20
671.584	1	17
671.754	1	6
671.923	1	8
672.093	1	10
672.262	1	10
672.431	1	23
672.601	1	11
672.770	1	15
672.939	1	7
673.109	1	7
673.278	1	7
673.448	1	17
673.617	1	9
673.786	1	0
