325.333	1	1
325.504	1	-4
325.675	1	6
325.846	1	4
326.017	1	8
326.188	1	3
326.359	1	3
326.531	1	-2
326.702	1	3
326.873	1	15
327.044	1	3
327.215	1	2
327.386	1	8
327.557	1	-1
327.728	1	7
327.899	1	5
328.070	1	-2
328.241	1	-6
328.412	1	9
328.583	1	-2
328.754	1	19
328.926	1	9
329.097	1	-5
329.268	1	11
329.439	1	8
329.610	1	6
329.781	1	6
329.952	1	2
330.123	1	-12
330.294	1	5
330.465	1	-6
330.636	1	5
330.807	1	-1
330.978	1	7
331.149	1	5
331.320	1	4
331.492	1	4
331.663	1	-5
331.834	1	13
332.005	1	4
332.176	1	0
332.347	1	-6
332.518	1	8
332.689	1	5
332.860	1	9
333.031	1	12
333.202	1	0
333.373	1	14
333.544	1	8
333.715	1	-2
333.886	1	-4
334.057	1	5
334.228	1	9
334.399	1	16
334.570	1	4
334.741	1	2
334.912	1	6
335.084	1	11
335.255	1	10
335.426	1	8
335.597	1	3
335.768	1	0
335.939	1	10
336.110	1	6
336.281	1	6
336.452	1	11
336.623	1	14
336.794	1	2
336.965	1	1
337.136	1	15
337.307	1	-3
337.478	1	3
337.649	1	1
337.820	1	-6
337.991	1	12
338.162	1	3
338.333	1	2
338.504	1	9
338.675	1	3
338.846	1	-7
339.017	1	1
339.188	1	12
339.359	1	5
339.530	1	1
339.701	1	8
339.872	1	14
340.043	1	11
340.214	1	11
340.385	1	-3
340.556	1	14
340.727	1	9
340.898	1	5
341.069	1	2
341.240	1	-1
341.411	1	12
341.582	1	0
341.753	1	4
341.924	1	16
342.095	1	2
342.266	1	10
342.437	1	9
342.608	1	4
342.779	1	1
342.950	1	9
343.121	1	7
343.292	1	5
343.463	1	19
343.634	1	15
343.805	1	13
343.976	1	10
344.147	1	13
344.318	1	-1
344.489	1	0
344.660	1	14
344.831	1	14
345.002	1	5
345.173	1	10
345.344	1	-3
345.515	1	-3
345.686	1	12
345.857	1	10
346.028	1	12
346.199	1	8
346.370	1	6
346.541	1	6
346.712	1	6
346.883	1	0
347.054	1	18
347.225	1	15
347.396	1	1
347.567	1	1
347.738	1	12
347.909	1	7
348.080	1	10
348.251	1	8
348.422	1	11
348.593	1	9
348.764	1	9
348.935	1	8
349.106	1	4
349.277	1	4
349.448	1	10
349.619	1	11
349.790	1	15
349.961	1	9
350.132	1	7
350.303	1	15
350.474	1	10
350.645	1	4
350.816	1	9
350.987	1	22
351.157	1	9
351.328	1	11
351.499	1	16
351.670	1	15
351.841	1	18
352.012	1	14
352.183	1	13
352.354	1	-1
352.525	1	18
352.696	1	0
352.867	1	18
353.038	1	6
353.209	1	12
353.380	1	15
353.551	1	14
353.722	1	21
353.893	1	18
354.064	1	16
354.235	1	1
354.406	1	-6
354.576	1	11
354.747	1	11
354.918	1	9
355.089	1	17
355.260	1	13
355.431	1	7
355.602	1	21
355.773	1	10
355.944	1	22
356.115	1	10
356.286	1	16
356.457	1	12
356.628	1	3
356.799	1	18
356.970	1	20
357.141	1	8
357.311	1	20
357.482	1	18
357.653	1	3
357.824	1	12
357.995	1	13
358.166	1	12
358.337	1	1
358.508	1	24
358.679	1	12
358.850	1	13
359.021	1	20
359.192	1	23
359.363	1	13
359.533	1	8
359.704	1	10
359.875	1	7
360.046	1	12
360.217	1	17
360.388	1	20
360.559	1	20
360.730	1	9
360.901	1	17
361.072	1	21
361.243	1	14
361.414	1	22
361.584	1	6
361.755	1	13
361.926	1	14
362.097	1	13
362.268	1	24
362.439	1	11
362.610	1	12
362.781	1	12
362.952	1	14
363.123	1	9
363.293	1	14
363.464	1	14
363.635	1	16
363.806	1	7
363.977	1	17
364.148	1	14
364.319	1	9
364.490	1	17
364.661	1	24
364.832	1	18
365.002	1	16
365.173	1	4
365.344	1	14
365.515	1	17
365.686	1	18
365.857	1	13
366.028	1	17
366.199	1	16
366.370	1	22
366.540	1	8
366.711	1	23
366.882	1	12
367.053	1	9
367.224	1	19
367.395	1	15
367.566	1	17
367.737	1	4
367.908	1	15
368.078	1	12
368.249	1	11
368.420	1	12
368.591	1	10
368.762	1	22
368.933	1	11
369.104	1	23
369.274	1	22
369.445	1	20
369.616	1	5
369.787	1	19
369.958	1	14
370.129	1	9
370.300	1	3
370.471	1	18
370.641	1	14
370.812	1	19
370.983	1	4
371.154	1	17
371.325	1	14
371.496	1	10
371.667	1	21
371.837	1	15
372.008	1	7
372.179	1	15
372.350	1	26
372.521	1	15
372.692	1	17
372.863	1	27
373.033	1	21
373.204	1	23
373.375	1	20
373.546	1	15
373.717	1	14
373.888	1	7
374.059	1	12
374.229	1	17
374.400	1	12
374.571	1	13
374.742	1	18
374.913	1	-1
375.084	1	15
375.254	1	4
375.425	1	19
375.596	1	22
375.767	1	12
375.938	1	8
376.109	1	8
376.279	1	19
376.450	1	21
376.621	1	21
376.792	1	16
376.963	1	10
377.134	1	30
377.304	1	22
377.475	1	10
377.646	1	9
377.817	1	17
377.988	1	15
378.159	1	24
378.329	1	21
378.500	1	28
378.671	1	14
378.842	1	19
379.013	1	19
379.184	1	19
379.354	1	24
379.525	1	22
379.696	1	17
379.867	1	16
380.038	1	14
380.209	1	33
380.379	1	17
380.550	1	7
380.721	1	29
380.892	1	11
381.063	1	15
381.233	1	27
381.404	1	13
381.575	1	15
381.746	1	28
381.917	1	15
382.087	1	24
382.258	1	31
382.429	1	10
382.600	1	26
382.771	1	20
382.941	1	17
383.112	1	20
383.283	1	23
383.454	1	9
383.625	1	12
383.795	1	15
383.966	1	27
384.137	1	24
384.308	1	12
384.479	1	14
384.649	1	23
384.820	1	27
384.991	1	17
385.162	1	27
385.333	1	20
385.503	1	14
385.674	1	17
385.845	1	17
386.016	1	17
386.187	1	10
386.357	1	23
386.528	1	24
386.699	1	15
386.870	1	14
387.041	1	35
387.211	1	19
387.382	1	25
387.553	1	21
387.724	1	12
387.894	1	9
388.065	1	19
388.236	1	19
388.407	1	22
388.578	1	23
388.748	1	19
388.919	1	21
389.090	1	27
389.261	1	24
389.431	1	8
389.602	1	19
389.773	1	21
389.944	1	28
390.114	1	17
390.285	1	19
390.456	1	30
390.627	1	18
390.798	1	15
390.968	1	25
391.139	1	28
391.310	1	21
391.481	1	11
391.651	1	31
391.822	1	41
391.993	1	25
392.164	1	27
392.334	1	16
392.505	1	29
392.676	1	21
392.847	1	15
393.017	1	26
393.188	1	21
393.359	1	28
393.530	1	43
393.700	1	18
393.871	1	23
394.042	1	28
394.213	1	15
394.383	1	24
394.554	1	22
394.725	1	10
394.896	1	29
395.066	1	26
395.237	1	24
395.408	1	18
395.579	1	29
395.749	1	31
395.920	1	20
396.091	1	27
396.262	1	13
396.432	1	13
396.603	1	27
396.774	1	11
396.945	1	26
397.115	1	31
397.286	1	28
397.457	1	24
397.627	1	25
397.798	1	25
397.969	1	30
398.140	1	26
398.310	1	24
398.481	1	26
398.652	1	33
398.823	1	16
398.993	1	26
399.164	1	32
399.335	1	13
399.505	1	17
399.676	1	23
399.847	1	15
400.018	1	20
400.188	1	32
400.359	1	22
400.530	1	35
400.700	1	27
400.871	1	27
401.042	1	27
401.213	1	33
401.383	1	24
401.554	1	24
401.725	1	25
401.895	1	20
402.066	1	36
402.237	1	29
402.408	1	33
402.578	1	33
402.749	1	21
402.920	1	36
403.090	1	14
403.261	1	23
403.432	1	29
403.603	1	33
403.773	1	38
403.944	1	26
404.115	1	28
404.285	1	31
404.456	1	29
404.627	1	34
404.797	1	21
404.968	1	23
405.139	1	28
405.310	1	27
405.480	1	17
405.651	1	27
405.822	1	24
405.992	1	26
406.163	1	16
406.334	1	31
406.504	1	20
406.675	1	28
406.846	1	27
407.016	1	32
407.187	1	30
407.358	1	19
407.528	1	27
407.699	1	24
407.870	1	37
408.041	1	25
408.211	1	26
408.382	1	38
408.553	1	34
408.723	1	30
408.894	1	26
409.065	1	28
409.235	1	37
409.406	1	27
409.577	1	33
409.747	1	26
409.918	1	37
410.089	1	28
410.259	1	26
410.430	1	24
410.601	1	21
410.771	1	27
410.942	1	27
411.113	1	26
411.283	1	21
411.454	1	55
411.625	1	34
411.795	1	19
411.966	1	26
412.137	1	32
412.307	1	29
412.478	1	38
412.649	1	39
412.819	1	32
412.990	1	32
413.161	1	23
413.331	1	31
413.502	1	31
413.672	1	26
413.843	1	23
414.014	1	28
414.184	1	39
414.355	1	38
414.526	1	20
414.696	1	25
414.867	1	18
415.038	1	26
415.208	1	27
415.379	1	33
415.550	1	30
415.720	1	19
415.891	1	32
416.062	1	35
416.232	1	41
416.403	1	27
416.573	1	21
416.744	1	36
416.915	1	24
417.085	1	37
417.256	1	28
417.427	1	20
417.597	1	27
417.768	1	27
417.939	1	11
418.109	1	22
418.280	1	32
418.450	1	46
418.621	1	31
418.792	1	21
418.962	1	35
419.133	1	31
419.304	1	18
419.474	1	28
419.645	1	31
419.815	1	21
419.986	1	40
420.157	1	26
420.327	1	16
420.498	1	27
420.669	1	27
420.839	1	19
421.010	1	23
421.180	1	17
421.351	1	27
421.522	1	33
421.692	1	31
421.863	1	31
422.033	1	36
422.204	1	37
422.375	1	38
422.545	1	33
422.716	1	21
422.886	1	33
423.057	1	24
423.228	1	27
423.398	1	29
423.569	1	22
423.740	1	26
423.910	1	33
424.081	1	43
424.251	1	23
424.422	1	29
424.593	1	31
424.763	1	22
424.934	1	30
425.104	1	43
425.275	1	19
425.445	1	27
425.616	1	27
425.787	1	35
425.957	1	29
426.128	1	32
426.298	1	21
426.469	1	24
426.640	1	28
426.810	1	8
426.981	1	30
427.151	1	21
427.322	1	16
427.493	1	16
427.663	1	29
427.834	1	15
428.004	1	28
428.175	1	28
428.345	1	15
428.516	1	22
428.687	1	29
428.857	1	29
429.028	1	31
429.198	1	17
429.369	1	15
429.540	1	24
429.710	1	22
429.881	1	22
430.051	1	18
430.222	1	27
430.392	1	39
430.563	1	12
430.734	1	32
430.904	1	22
431.075	1	23
431.245	1	27
431.416	1	22
431.586	1	14
431.757	1	25
431.927	1	24
432.098	1	23
432.269	1	8
432.439	1	14
432.610	1	26
432.780	1	23
432.951	1	24
433.121	1	27
433.292	1	27
433.462	1	23
433.633	1	18
433.804	1	17
433.974	1	34
434.145	1	17
434.315	1	12
434.486	1	21
434.656	1	22
434.827	1	24
434.997	1	31
435.168	1	19
435.339	1	21
435.509	1	24
435.680	1	26
435.850	1	11
436.021	1	26
436.191	1	25
436.362	1	26
436.532	1	32
436.703	1	28
436.873	1	20
437.044	1	28
437.214	1	24
437.385	1	22
437.556	1	20
437.726	1	23
437.897	1	24
438.067	1	23
438.238	1	25
438.408	1	27
438.579	1	16
438.749	1	24
438.920	1	36
439.090	1	8
439.261	1	26
439.431	1	18
439.602	1	17
439.772	1	24
439.943	1	17
440.113	1	21
440.284	1	23
440.455	1	11
440.625	1	35
440.796	1	11
440.966	1	33
441.137	1	26
441.307	1	19
441.478	1	23
441.648	1	27
441.819	1	21
441.989	1	31
442.160	1	23
442.330	1	23
442.501	1	17
442.671	1	18
442.842	1	24
443.012	1	20
443.183	1	25
443.353	1	16
443.524	1	21
443.694	1	30
443.865	1	21
444.035	1	17
444.206	1	30
444.376	1	16
444.547	1	21
444.717	1	27
444.888	1	4
445.058	1	24
445.229	1	26
445.399	1	22
445.570	1	17
445.740	1	17
445.911	1	24
446.081	1	20
446.252	1	17
446.422	1	14
446.593	1	28
446.763	1	13
446.934	1	21
447.104	1	22
447.275	1	20
447.445	1	23
447.616	1	17
447.786	1	12
447.957	1	17
448.127	1	12
448.298	1	12
448.468	1	18
448.639	1	13
448.809	1	18
448.979	1	25
449.150	1	19
449.320	1	14
449.491	1	17
449.661	1	12
449.832	1	15
450.002	1	15
450.173	1	16
450.343	1	12
450.514	1	30
450.684	1	16
450.855	1	24
451.025	1	25
451.196	1	11
451.366	1	25
451.537	1	22
451.707	1	18
451.878	1	22
452.048	1	18
452.218	1	11
452.389	1	29
452.559	1	28
452.730	1	22
452.900	1	16
453.071	1	8
453.241	1	17
453.412	1	11
453.582	1	28
453.753	1	17
453.923	1	8
454.093	1	16
454.264	1	25
454.434	1	20
454.605	1	11
454.775	1	24
454.946	1	14
455.116	1	23
455.287	1	11
455.457	1	20
455.628	1	7
455.798	1	26
455.968	1	25
456.139	1	23
456.309	1	20
456.480	1	16
456.650	1	20
456.821	1	8
456.991	1	19
457.161	1	18
457.332	1	21
457.502	1	14
457.673	1	20
457.843	1	23
458.014	1	19
458.184	1	29
458.355	1	12
458.525	1	9
458.695	1	5
458.866	1	3
459.036	1	25
459.207	1	19
459.377	1	16
459.548	1	24
459.718	1	8
459.888	1	9
460.059	1	19
460.229	1	11
460.400	1	7
460.570	1	6
460.740	1	13
460.911	1	21
461.081	1	20
461.252	1	17
461.422	1	16
461.593	1	25
461.763	1	20
461.933	1	17
462.104	1	2
462.274	1	5
462.445	1	14
462.615	1	24
462.785	1	20
462.956	1	9
463.126	1	29
463.297	1	17
463.467	1	22
463.638	1	19
463.808	1	14
463.978	1	-1
464.149	1	10
464.319	1	19
464.490	1	16
464.660	1	19
464.830	1	15
465.001	1	17
465.171	1	11
465.342	1	12
465.512	1	15
465.682	1	16
465.853	1	14
466.023	1	18
466.194	1	16
466.364	1	19
466.534	1	3
466.705	1	18
466.875	1	6
467.045	1	16
467.216	1	17
467.386	1	19
467.557	1	22
467.727	1	18
467.897	1	10
468.068	1	16
468.238	1	10
468.409	1	9
468.579	1	6
468.749	1	9
468.920	1	6
469.090	1	17
469.260	1	21
469.431	1	8
469.601	1	16
469.772	1	26
469.942	1	13
470.112	1	1
470.283	1	12
470.453	1	7
470.623	1	22
470.794	1	16
470.964	1	0
471.135	1	28
471.305	1	10
471.475	1	18
471.646	1	17
471.816	1	12
471.986	1	12
472.157	1	16
472.327	1	0
472.497	1	18
472.668	1	15
472.838	1	6
473.009	1	7
473.179	1	9
473.349	1	10
473.520	1	26
473.690	1	5
473.860	1	1
474.031	1	4
474.201	1	9
474.371	1	14
474.542	1	0
474.712	1	3
474.882	1	23
475.053	1	19
475.223	1	3
475.394	1	8
475.564	1	8
475.734	1	5
475.905	1	26
476.075	1	27
476.245	1	19
476.416	1	2
476.586	1	5
476.756	1	14
476.927	1	13
477.097	1	17
477.267	1	14
477.438	1	28
477.608	1	26
477.778	1	5
477.949	1	11
478.119	1	17
478.289	1	-3
478.460	1	10
478.630	1	17
478.800	1	8
478.971	1	10
479.141	1	8
479.311	1	16
479.482	1	3
479.652	1	8
479.822	1	3
479.993	1	16
480.163	1	14
480.333	1	13
480.504	1	18
480.674	1	11
480.844	1	18
481.015	1	15
481.185	1	18
481.355	1	4
481.525	1	2
481.696	1	16
481.866	1	15
482.036	1	17
482.207	1	6
482.377	1	7
482.547	1	8
482.718	1	12
482.888	1	15
483.058	1	12
483.229	1	7
483.399	1	11
483.569	1	-1
483.740	1	4
483.910	1	0
484.080	1	16
484.250	1	-2
484.421	1	-1
484.591	1	9
484.761	1	9
484.932	1	5
485.102	1	18
485.272	1	8
485.443	1	22
485.613	1	7
485.783	1	10
485.953	1	4
486.124	1	3
486.294	1	14
486.464	1	8
486.635	1	3
486.805	1	11
486.975	1	-4
487.146	1	16
487.316	1	12
487.486	1	12
487.656	1	8
487.827	1	-2
487.997	1	10
488.167	1	6
488.338	1	4
488.508	1	16
488.678	1	5
488.848	1	14
489.019	1	1
489.189	1	9
489.359	1	6
489.529	1	13
489.700	1	4
489.870	1	13
490.040	1	6
490.211	1	1
490.381	1	5
490.551	1	10
490.721	1	10
490.892	1	-11
491.062	1	6
491.232	1	1
491.402	1	7
491.573	1	14
491.743	1	12
491.913	1	19
492.084	1	9
492.254	1	10
492.424	1	7
492.594	1	17
492.765	1	9
492.935	1	14
493.105	1	4
493.275	1	10
493.446	1	0
493.616	1	0
493.786	1	13
493.956	1	10
494.127	1	15
494.297	1	-3
494.467	1	4
494.637	1	17
494.808	1	10
494.978	1	11
495.148	1	6
495.318	1	5
495.489	1	11
495.659	1	3
495.829	1	6
495.999	1	12
496.170	1	5
496.340	1	2
496.510	1	19
496.680	1	14
496.851	1	13
497.021	1	6
497.191	1	13
497.361	1	-6
497.532	1	7
497.702	1	13
497.872	1	4
498.042	1	0
498.213	1	-3
498.383	1	5
498.553	1	12
498.723	1	7
498.894	1	8
499.064	1	11
499.234	1	7
499.404	1	9
499.574	1	7
499.745	1	7
499.915	1	7
500.085	1	3
500.255	1	-7
500.426	1	0
500.596	1	-8
500.766	1	1
500.936	1	1
501.106	1	3
501.277	1	-4
501.447	1	16
501.617	1	6
501.787	1	-5
501.958	1	13
502.128	1	12
502.298	1	4
502.468	1	4
502.638	1	9
502.809	1	0
502.979	1	10
503.149	1	2
503.319	1	5
503.489	1	-11
503.660	1	4
503.830	1	3
504.000	1	1
504.170	1	2
504.340	1	1
504.511	1	7
504.681	1	-1
504.851	1	-3
505.021	1	9
505.192	1	-3
505.362	1	3
505.532	1	1
505.702	1	12
505.872	1	-3
506.043	1	7
506.213	1	23
506.383	1	2
506.553	1	13
506.723	1	-10
506.893	1	6
507.064	1	9
507.234	1	-4
507.404	1	1
507.574	1	-4
507.744	1	6
507.915	1	-1
508.085	1	12
508.255	1	6
508.425	1	-3
508.595	1	2
508.766	1	-7
508.936	1	10
509.106	1	4
509.276	1	10
509.446	1	-2
509.616	1	1
509.787	1	6
509.957	1	14
510.127	1	-2
510.297	1	2
510.467	1	8
510.638	1	1
510.808	1	19
510.978	1	3
511.148	1	4
511.318	1	8
511.488	1	16
511.659	1	7
511.829	1	-6
511.999	1	7
512.169	1	5
512.339	1	11
512.509	1	-1
512.680	1	4
512.850	1	5
513.020	1	12
513.190	1	4
513.360	1	9
513.530	1	7
513.700	1	2
513.871	1	-2
514.041	1	8
514.211	1	8
514.381	1	9
514.551	1	-4
514.721	1	7
514.892	1	5
515.062	1	8
515.232	1	-8
515.402	1	7
515.572	1	2
515.742	1	13
515.912	1	1
516.083	1	10
516.253	1	8
516.423	1	8
516.593	1	3
516.763	1	4
516.933	1	8
517.104	1	14
517.274	1	0
517.444	1	7
517.614	1	3
517.784	1	5
517.954	1	-1
518.124	1	2
518.294	1	3
518.465	1	-7
518.635	1	14
518.805	1	10
518.975	1	9
519.145	1	-1
519.315	1	6
519.485	1	-2
519.656	1	7
519.826	1	-3
519.996	1	5
520.166	1	-3
520.336	1	8
520.506	1	-1
520.676	1	-2
520.846	1	1
521.017	1	3
521.187	1	9
521.357	1	1
521.527	1	8
521.697	1	5
521.867	1	5
522.037	1	12
522.207	1	8
522.377	1	10
522.548	1	-5
522.718	1	10
522.888	1	4
523.058	1	12
523.228	1	0
523.398	1	5
523.568	1	0
523.738	1	-1
523.909	1	7
524.079	1	-5
524.249	1	-1
524.419	1	6
524.589	1	-2
524.759	1	5
524.929	1	9
525.099	1	1
525.269	1	9
525.439	1	4
525.610	1	9
525.780	1	1
525.950	1	6
526.120	1	-11
526.290	1	-7
526.460	1	-2
526.630	1	11
526.800	1	-4
526.970	1	13
527.140	1	2
527.311	1	2
527.481	1	9
527.651	1	6
527.821	1	0
527.991	1	1
528.161	1	9
528.331	1	-1
528.501	1	2
528.671	1	6
528.841	1	-1
529.011	1	5
529.181	1	-3
529.352	1	4
529.522	1	-2
529.692	1	7
529.862	1	-6
530.032	1	-3
530.202	1	-7
530.372	1	5
530.542	1	-3
530.712	1	1
530.882	1	12
531.052	1	7
531.222	1	6
531.392	1	-7
531.563	1	10
531.733	1	5
531.903	1	2
532.073	1	2
532.243	1	7
532.413	1	8
532.583	1	-1
532.753	1	0
532.923	1	7
533.093	1	2
533.263	1	-1
533.433	1	-1
533.603	1	2
533.773	1	-1
533.943	1	-5
534.113	1	4
534.284	1	4
534.454	1	-3
534.624	1	-9
534.794	1	-5
534.964	1	8
535.134	1	8
535.304	1	5
535.474	1	9
535.644	1	5
535.814	1	-1
535.984	1	-4
536.154	1	1
536.324	1	0
536.494	1	13
536.664	1	-3
536.834	1	1
537.004	1	1
537.174	1	12
537.344	1	8
537.514	1	-2
537.685	1	5
537.855	1	-4
538.025	1	11
538.195	1	-9
538.365	1	1
538.535	1	-4
538.705	1	5
538.875	1	-5
539.045	1	-1
539.215	1	-5
539.385	1	3
539.555	1	0
539.725	1	-3
539.895	1	5
540.065	1	2
540.235	1	9
540.405	1	1
540.575	1	-8
540.745	1	-3
540.915	1	12
541.085	1	-2
541.255	1	-2
541.425	1	5
541.595	1	-5
541.765	1	8
541.935	1	-1
542.105	1	4
542.275	1	8
542.445	1	4
542.615	1	2
542.785	1	10
542.955	1	17
543.125	1	2
543.295	1	15
543.465	1	5
543.635	1	3
543.805	1	7
543.975	1	-1
544.145	1	4
544.315	1	-8
544.485	1	-2
544.655	1	-1
544.825	1	4
544.995	1	-1
545.165	1	5
545.335	1	1
545.505	1	0
545.675	1	8
545.845	1	11
546.015	1	-5
546.185	1	-6
546.355	1	6
546.525	1	5
546.695	1	4
546.865	1	-1
547.035	1	3
547.205	1	9
547.375	1	8
547.545	1	3
547.715	1	2
547.885	1	-7
548.055	1	7
548.225	1	14
548.395	1	-4
548.565	1	6
548.735	1	-8
548.905	1	-1
549.075	1	2
549.245	1	3
549.415	1	-2
549.585	1	7
549.755	1	5
549.925	1	0
550.095	1	-1
550.265	1	5
550.435	1	5
550.605	1	4
550.775	1	3
550.945	1	2
551.115	1	3
551.285	1	-5
551.455	1	8
551.625	1	-6
551.795	1	-7
551.965	1	5
552.135	1	-3
552.305	1	14
552.475	1	6
552.645	1	1
552.815	1	7
552.985	1	-10
553.155	1	-5
553.325	1	4
553.495	1	5
553.665	1	-6
553.835	1	4
554.004	1	-2
554.174	1	2
554.344	1	1
554.514	1	3
554.684	1	3
554.854	1	-7
555.024	1	5
555.194	1	2
555.364	1	-3
555.534	1	-12
555.704	1	3
555.874	1	4
556.044	1	0
556.214	1	2
556.384	1	5
556.554	1	5
556.724	1	2
556.894	1	7
557.064	1	-1
557.234	1	7
557.404	1	-2
557.573	1	4
557.743	1	-1
557.913	1	-4
558.083	1	6
558.253	1	7
558.423	1	-3
558.593	1	0
558.763	1	3
558.933	1	-6
559.103	1	-7
559.273	1	7
559.443	1	-3
559.613	1	5
559.783	1	-4
559.953	1	-2
560.122	1	-5
560.292	1	-4
560.462	1	-8
560.632	1	-6
560.802	1	11
560.972	1	0
561.142	1	9
561.312	1	7
561.482	1	4
561.652	1	-3
561.822	1	-4
561.992	1	8
562.162	1	-5
562.331	1	-5
562.501	1	6
562.671	1	-9
562.841	1	-10
563.011	1	6
563.181	1	-5
563.351	1	-8
563.521	1	4
563.691	1	1
563.861	1	2
564.031	1	-1
564.201	1	2
564.370	1	7
564.540	1	0
564.710	1	2
564.880	1	2
565.050	1	-9
565.220	1	4
565.390	1	0
565.560	1	11
565.730	1	7
565.900	1	7
566.069	1	17
566.239	1	11
566.409	1	8
566.579	1	-6
566.749	1	-5
566.919	1	-17
567.089	1	-13
567.259	1	-2
567.429	1	-8
567.599	1	13
567.768	1	-1
567.938	1	9
568.108	1	0
568.278	1	4
568.448	1	0
568.618	1	7
568.788	1	-3
568.958	1	-4
569.128	1	-5
569.297	1	2
569.467	1	4
569.637	1	4
569.807	1	0
569.977	1	2
570.147	1	-1
570.317	1	-2
570.487	1	-5
570.656	1	9
570.826	1	-1
570.996	1	9
571.166	1	-5
571.336	1	-1
571.506	1	-4
571.676	1	4
571.846	1	8
572.015	1	-2
572.185	1	-1
572.355	1	-9
572.525	1	-12
572.695	1	4
572.865	1	5
573.035	1	8
573.205	1	1
573.374	1	-6
573.544	1	6
573.714	1	-7
573.884	1	-3
574.054	1	-9
574.224	1	0
574.394	1	4
574.563	1	-2
574.733	1	-1
574.903	1	3
575.073	1	1
575.243	1	6
575.413	1	3
575.583	1	0
575.752	1	-1
575.922	1	-1
576.092	1	-5
576.262	1	5
576.432	1	2
576.602	1	0
576.772	1	2
576.941	1	-2
577.111	1	5
577.281	1	-5
577.451	1	-2
577.621	1	6
577.791	1	4
577.960	1	-2
578.130	1	0
578.300	1	0
578.470	1	5
578.640	1	-1
578.810	1	-2
578.979	1	0
579.149	1	-2
579.319	1	1
579.489	1	13
579.659	1	2
579.829	1	-3
579.998	1	-4
580.168	1	-9
580.338	1	3
580.508	1	-1
580.678	1	9
580.848	1	-1
581.017	1	-2
581.187	1	-3
581.357	1	2
581.527	1	-3
581.697	1	0
581.867	1	1
582.036	1	-4
582.206	1	3
582.376	1	-1
582.546	1	1
582.716	1	-2
582.885	1	-10
583.055	1	-14
583.225	1	-4
583.395	1	6
583.565	1	16
583.735	1	2
583.904	1	-5
584.074	1	2
584.244	1	4
584.414	1	-3
584.584	1	-5
584.753	1	-2
584.923	1	-3
585.093	1	7
585.263	1	4
585.433	1	-2
585.602	1	-7
585.772	1	13
585.942	1	-8
586.112	1	-12
586.282	1	-3
586.451	1	1
586.621	1	-3
586.791	1	-6
586.961	1	-7
587.131	1	-5
587.300	1	12
587.470	1	-9
587.640	1	-1
587.810	1	-10
587.980	1	-2
588.149	1	8
588.319	1	12
588.489	1	3
588.659	1	-6
588.829	1	6
588.998	1	-3
589.168	1	14
589.338	1	-3
589.508	1	-3
589.677	1	6
589.847	1	4
590.017	1	5
590.187	1	-5
590.357	1	6
590.526	1	-2
590.696	1	1
590.866	1	-1
591.036	1	-4
591.205	1	5
591.375	1	8
591.545	1	7
591.715	1	-4
591.885	1	3
592.054	1	-1
592.224	1	-5
592.394	1	-3
592.564	1	-1
592.733	1	2
592.903	1	2
593.073	1	-7
593.243	1	6
593.412	1	0
593.582	1	7
593.752	1	-9
593.922	1	1
594.091	1	1
594.261	1	-5
594.431	1	-3
594.601	1	2
594.771	1	-1
594.940	1	-3
595.110	1	1
595.280	1	-2
595.450	1	-4
595.619	1	-1
595.789	1	0
595.959	1	-5
596.129	1	0
596.298	1	10
596.468	1	3
596.638	1	3
596.808	1	-9
596.977	1	-1
597.147	1	1
597.317	1	3
597.487	1	-1
597.656	1	0
597.826	1	4
597.996	1	3
598.166	1	-8
598.335	1	-10
598.505	1	0
598.675	1	10
598.844	1	21
599.014	1	-12
599.184	1	5
599.354	1	9
599.523	1	-4
599.693	1	6
599.863	1	3
600.033	1	1
600.202	1	-3
600.372	1	-6
600.542	1	0
600.712	1	-3
600.881	1	4
601.051	1	3
601.221	1	5
601.390	1	-3
601.560	1	11
601.730	1	0
601.900	1	2
602.069	1	-1
602.239	1	-1
602.409	1	0
602.578	1	3
602.748	1	11
602.918	1	-4
603.088	1	10
603.257	1	-1
603.427	1	0
603.597	1	1
603.767	1	-11
603.936	1	3
604.106	1	-1
604.276	1	-1
604.445	1	-7
604.615	1	12
604.785	1	8
604.954	1	-2
605.124	1	-1
605.294	1	0
605.464	1	-5
605.633	1	0
605.803	1	0
605.973	1	1
606.142	1	-2
606.312	1	6
606.482	1	-5
606.652	1	-1
606.821	1	6
606.991	1	6
607.161	1	0
607.330	1	-9
607.500	1	-1
607.670	1	14
607.839	1	0
608.009	1	1
608.179	1	10
608.348	1	0
608.518	1	14
608.688	1	-14
608.858	1	3
609.027	1	9
609.197	1	-1
609.367	1	-6
609.536	1	-7
609.706	1	2
609.876	1	10
610.045	1	7
610.215	1	9
610.385	1	5
610.554	1	0
610.724	1	5
610.894	1	0
611.063	1	-2
611.233	1	3
611.403	1	4
611.572	1	13
611.742	1	-4
611.912	1	2
612.081	1	10
612.251	1	10
612.421	1	-10
612.590	1	-2
612.760	1	1
612.930	1	2
613.099	1	5
613.269	1	7
613.439	1	-3
613.608	1	5
613.778	1	-5
613.948	1	12
614.117	1	-4
614.287	1	9
614.457	1	-3
614.626	1	-5
614.796	1	2
614.966	1	9
615.135	1	6
615.305	1	5
615.475	1	8
615.644	1	11
615.814	1	4
615.984	1	-3
616.153	1	-4
616.323	1	3
616.493	1	-1
616.662	1	5
616.832	1	7
617.002	1	2
617.171	1	3
617.341	1	4
617.511	1	0
617.680	1	6
617.850	1	10
618.019	1	3
618.189	1	10
618.359	1	3
618.528	1	1
618.698	1	1
618.868	1	-9
619.037	1	4
619.207	1	-6
619.377	1	8
619.546	1	2
619.716	1	0
619.885	1	4
620.055	1	-2
620.225	1	11
620.394	1	0
620.564	1	7
620.734	1	4
620.903	1	-8
621.073	1	4
621.242	1	6
621.412	1	-9
621.582	1	2
621.751	1	-5
621.921	1	12
622.091	1	-2
622.260	1	6
622.430	1	3
622.599	1	-3
622.769	1	-1
622.939	1	-6
623.108	1	-2
623.278	1	1
623.448	1	3
623.617	1	5
623.787	1	-4
623.956	1	3
624.126	1	4
624.296	1	12
624.465	1	2
624.635	1	-3
624.804	1	-10
624.974	1	-5
625.144	1	-4
625.313	1	10
625.483	1	5
625.652	1	1
625.822	1	9
625.992	1	3
626.161	1	-4
626.331	1	-2
626.501	1	1
626.670	1	6
626.840	1	11
627.009	1	1
627.179	1	3
627.348	1	5
627.518	1	10
627.688	1	1
627.857	1	11
628.027	1	6
628.196	1	10
628.366	1	-4
628.536	1	3
628.705	1	2
628.875	1	-8
629.044	1	-6
629.214	1	1
629.384	1	9
629.553	1	-8
629.723	1	8
629.892	1	8
630.062	1	6
630.232	1	5
630.401	1	3
630.571	1	7
630.740	1	-2
630.910	1	0
631.079	1	-2
631.249	1	-4
631.419	1	7
631.588	1	6
631.758	1	-4
631.927	1	7
632.097	1	-7
632.266	1	11
632.436	1	0
632.606	1	1
632.775	1	4
632.945	1	-2
633.114	1	-7
633.284	1	-1
633.453	1	5
633.623	1	14
633.793	1	-6
633.962	1	6
634.132	1	9
634.301	1	8
634.471	1	9
634.640	1	-4
634.810	1	1
634.979	1	-4
635.149	1	0
635.319	1	0
635.488	1	10
635.658	1	-1
635.827	1	-5
635.997	1	1
636.166	1	2
636.336	1	-8
636.505	1	4
636.675	1	1
636.845	1	4
637.014	1	-12
637.184	1	6
637.353	1	-5
637.523	1	-1
637.692	1	6
637.862	1	2
638.031	1	-1
638.201	1	9
638.370	1	-4
638.540	1	-9
638.710	1	-2
638.879	1	-1
639.049	1	0
639.218	1	2
639.388	1	2
639.557	1	8
639.727	1	-2
639.896	1	1
640.066	1	0
640.235	1	7
640.405	1	2
640.574	1	-2
640.744	1	0
640.914	1	-1
641.083	1	17
641.253	1	-5
641.422	1	-2
641.592	1	2
641.761	1	-5
641.931	1	13
642.100	1	-3
642.270	1	-3
642.439	1	4
642.609	1	11
642.778	1	-1
642.948	1	11
643.117	1	2
643.287	1	-7
643.456	1	2
643.626	1	2
643.795	1	0
643.965	1	0
644.134	1	3
644.304	1	-8
644.473	1	6
644.643	1	-1
644.812	1	-1
644.982	1	-3
645.151	1	0
645.321	1	6
645.490	1	12
645.660	1	-14
645.829	1	5
645.999	1	-5
646.168	1	24
646.338	1	-7
646.507	1	-6
646.677	1	0
646.846	1	-6
647.016	1	12
647.185	1	11
647.355	1	4
647.524	1	-3
647.694	1	-8
647.863	1	1
648.033	1	2
648.202	1	1
648.372	1	-10
648.541	1	3
648.711	1	1
648.880	1	13
649.050	1	5
649.219	1	10
649.389	1	-7
649.558	1	9
649.728	1	7
649.897	1	11
650.067	1	5
650.236	1	-7
650.406	1	3
650.575	1	7
650.745	1	4
650.914	1	12
651.084	1	5
651.253	1	8
651.423	1	-5
651.592	1	-1
651.762	1	0
651.931	1	7
652.101	1	1
652.270	1	-1
652.440	1	2
652.609	1	1
652.778	1	1
652.948	1	7
653.117	1	0
653.287	1	-10
653.456	1	-11
653.626	1	8
653.795	1	8
653.965	1	3
654.134	1	-2
654.304	1	9
654.473	1	-1
654.643	1	6
654.812	1	13
654.982	1	-2
655.151	1	2
655.320	1	-4
655.490	1	0
655.659	1	8
655.829	1	2
655.998	1	5
656.168	1	1
656.337	1	4
656.507	1	-8
656.676	1	-3
656.846	1	9
657.015	1	11
657.184	1	0
657.354	1	2
657.523	1	7
657.693	1	-1
657.862	1	-5
658.032	1	-1
658.201	1	-8
658.371	1	-8
658.540	1	-1
658.709	1	10
658.879	1	16
659.048	1	12
659.218	1	-2
659.387	1	3
659.557	1	6
659.726	1	4
659.895	1	8
660.065	1	-5
660.234	1	-4
660.404	1	5
660.573	1	5
660.743	1	2
660.912	1	-3
661.081	1	1
661.251	1	-3
661.420	1	11
661.590	1	3
661.759	1	10
661.929	1	-4
662.098	1	-7
662.267	1	-6
662.437	1	11
662.606	1	-8
662.776	1	2
662.945	1	9
663.115	1	15
663.284	1	0
663.453	1	0
663.623	1	-1
663.792	1	11
663.962	1	9
664.131	1	-4
664.300	1	-3
664.470	1	-2
664.639	1	10
664.809	1	1
664.978	1	14
665.148	1	2
665.317	1	2
665.486	1	1
665.656	1	4
665.825	1	13
665.995	1	-4
666.164	1	5
666.333	1	9
666.503	1	-1
666.672	1	3
666.842	1	6
667.011	1	0
667.180	1	4
667.350	1	3
667.519	1	-7
667.689	1	0
667.858	1	13
668.027	1	2
668.197	1	-7
668.366	1	5
668.536	1	-6
668.705	1	-5
668.874	1	6
669.044	1	1
669.213	1	8
669.382	1	7
669.552	1	1
669.721	1	-2
669.891	1	-4
670.060	1	-2
670.229	1	0
670.399	1	11
670.568	1	10
670.738	1	5
670.907	1	4
671.076	1	6
671.246	1	5
671.415	1	11
671.584	1	6
671.754	1	-7
671.923	1	0
672.093	1	7
672.262	1	-3
672.431	1	4
672.601	1	7
672.770	1	2
672.939	1	7
673.109	1	3
673.278	1	5
673.448	1	6
673.617	1	0
673.786	1	-5
