325.333	1	30
325.504	1	18
325.675	1	34
325.846	1	23
326.017	1	34
326.188	1	33
326.359	1	31
326.531	1	29
326.702	1	35
326.873	1	43
327.044	1	43
327.215	1	36
327.386	1	35
327.557	1	32
327.728	1	34
327.899	1	28
328.070	1	36
328.241	1	42
328.412	1	31
328.583	1	41
328.754	1	51
328.926	1	50
329.097	1	34
329.268	1	48
329.439	1	53
329.610	1	54
329.781	1	40
329.952	1	43
330.123	1	46
330.294	1	45
330.465	1	30
330.636	1	46
330.807	1	38
330.978	1	40
331.149	1	40
331.320	1	49
331.492	1	37
331.663	1	47
331.834	1	45
332.005	1	50
332.176	1	46
332.347	1	31
332.518	1	46
332.689	1	46
332.860	1	44
333.031	1	51
333.202	1	49
333.373	1	53
333.544	1	53
333.715	1	43
333.886	1	39
334.057	1	40
334.228	1	58
334.399	1	52
334.570	1	57
334.741	1	57
334.912	1	49
335.084	1	52
335.255	1	62
335.426	1	58
335.597	1	49
335.768	1	51
335.939	1	59
336.110	1	54
336.281	1	56
336.452	1	65
336.623	1	64
336.794	1	48
336.965	1	55
337.136	1	62
337.307	1	43
337.478	1	62
337.649	1	57
337.820	1	59
337.991	1	57
338.162	1	63
338.333	1	66
338.504	1	61
338.675	1	53
338.846	1	55
339.017	1	62
339.188	1	76
339.359	1	54
339.530	1	55
339.701	1	55
339.872	1	72
340.043	1	74
340.214	1	67
340.385	1	57
340.556	1	74
340.727	1	75
340.898	1	69
341.069	1	59
341.240	1	74
341.411	1	69
341.582	1	70
341.753	1	67
341.924	1	83
342.095	1	72
342.266	1	78
342.437	1	83
342.608	1	80
342.779	1	75
342.950	1	72
343.121	1	78
343.292	1	81
343.463	1	81
343.634	1	78
343.805	1	81
343.976	1	90
344.147	1	79
344.318	1	79
344.489	1	74
344.660	1	86
344.831	1	97
345.002	1	83
345.173	1	84
345.344	1	69
345.515	1	87
345.686	1	80
345.857	1	82
346.028	1	82
346.199	1	78
346.370	1	82
346.541	1	87
346.712	1	90
346.883	1	83
347.054	1	85
347.225	1	85
347.396	1	94
347.567	1	76
347.738	1	87
347.909	1	83
348.080	1	88
348.251	1	86
348.422	1	107
348.593	1	90
348.764	1	97
348.935	1	101
349.106	1	90
349.277	1	97
349.448	1	94
349.619	1	101
349.790	1	103
349.961	1	109
350.132	1	104
350.303	1	107
350.474	1	104
350.645	1	114
350.816	1	102
350.987	1	118
351.157	1	110
351.328	1	99
351.499	1	108
351.670	1	108
351.841	1	112
352.012	1	98
352.183	1	115
352.354	1	102
352.525	1	113
352.696	1	108
352.867	1	111
353.038	1	107
353.209	1	104
353.380	1	112
353.551	1	116
353.722	1	110
353.893	1	100
354.064	1	107
354.235	1	104
354.406	1	92
354.576	1	102
354.747	1	100
354.918	1	104
355.089	1	116
355.260	1	117
355.431	1	114
355.602	1	121
355.773	1	113
355.944	1	103
356.115	1	125
356.286	1	132
356.457	1	123
356.628	1	123
356.799	1	134
356.970	1	132
357.141	1	122
357.311	1	139
357.482	1	123
357.653	1	122
357.824	1	133
357.995	1	137
358.166	1	124
358.337	1	134
358.508	1	129
358.679	1	124
358.850	1	133
359.021	1	133
359.192	1	139
359.363	1	118
359.533	1	127
359.704	1	111
359.875	1	118
360.046	1	134
360.217	1	129
360.388	1	131
360.559	1	138
360.730	1	121
360.901	1	132
361.072	1	134
361.243	1	123
361.414	1	138
361.584	1	119
361.755	1	131
361.926	1	134
362.097	1	129
362.268	1	136
362.439	1	118
362.610	1	127
362.781	1	133
362.952	1	143
363.123	1	126
363.293	1	132
363.464	1	116
363.635	1	133
363.806	1	125
363.977	1	134
364.148	1	130
364.319	1	129
364.490	1	141
364.661	1	138
364.832	1	129
365.002	1	155
365.173	1	144
365.344	1	136
365.515	1	132
365.686	1	158
365.857	1	151
366.028	1	139
366.199	1	147
366.370	1	158
366.540	1	148
366.711	1	147
366.882	1	149
367.053	1	142
367.224	1	152
367.395	1	138
367.566	1	156
367.737	1	146
367.908	1	146
368.078	1	149
368.249	1	149
368.420	1	161
368.591	1	168
368.762	1	149
368.933	1	150
369.104	1	143
369.274	1	155
369.445	1	157
369.616	1	150
369.787	1	149
369.958	1	155
370.129	1	152
370.300	1	142
370.471	1	148
370.641	1	134
370.812	1	141
370.983	1	132
371.154	1	144
371.325	1	150
371.496	1	140
371.667	1	169
371.837	1	160
372.008	1	148
372.179	1	152
372.350	1	147
372.521	1	159
372.692	1	161
372.863	1	136
373.033	1	149
373.204	1	151
373.375	1	132
373.546	1	146
373.717	1	159
373.888	1	148
374.059	1	153
374.229	1	168
374.400	1	159
374.571	1	163
374.742	1	144
374.913	1	142
375.084	1	158
375.254	1	156
375.425	1	149
375.596	1	167
375.767	1	158
375.938	1	154
376.109	1	167
376.279	1	159
376.450	1	172
376.621	1	174
376.792	1	172
376.963	1	169
377.134	1	168
377.304	1	164
377.475	1	171
377.646	1	158
377.817	1	163
377.988	1	167
378.159	1	164
378.329	1	158
378.500	1	173
378.671	1	169
378.842	1	176
379.013	1	183
379.184	1	151
379.354	1	175
379.525	1	173
379.696	1	180
379.867	1	174
380.038	1	177
380.209	1	159
380.379	1	173
380.550	1	176
380.721	1	176
380.892	1	161
381.063	1	178
381.233	1	171
381.404	1	163
381.575	1	166
381.746	1	174
381.917	1	179
382.087	1	180
382.258	1	182
382.429	1	178
382.600	1	163
382.771	1	173
382.941	1	177
383.112	1	172
383.283	1	180
383.454	1	177
383.625	1	196
383.795	1	192
383.966	1	186
384.137	1	185
384.308	1	178
384.479	1	193
384.649	1	179
384.820	1	187
384.991	1	199
385.162	1	191
385.333	1	196
385.503	1	185
385.674	1	199
385.845	1	186
386.016	1	200
386.187	1	193
386.357	1	205
386.528	1	182
386.699	1	205
386.870	1	202
387.041	1	196
387.211	1	199
387.382	1	219
387.553	1	206
387.724	1	190
387.894	1	194
388.065	1	203
388.236	1	197
388.407	1	194
388.578	1	197
388.748	1	200
388.919	1	186
389.090	1	206
389.261	1	185
389.431	1	184
389.602	1	192
389.773	1	186
389.944	1	197
390.114	1	199
390.285	1	213
390.456	1	197
390.627	1	179
390.798	1	187
390.968	1	197
391.139	1	192
391.310	1	183
391.481	1	184
391.651	1	207
391.822	1	213
391.993	1	195
392.164	1	198
392.334	1	186
392.505	1	192
392.676	1	193
392.847	1	191
393.017	1	209
393.188	1	208
393.359	1	215
393.530	1	220
393.700	1	207
393.871	1	208
394.042	1	201
394.213	1	216
394.383	1	206
394.554	1	212
394.725	1	196
394.896	1	213
395.066	1	215
395.237	1	216
395.408	1	209
395.579	1	217
395.749	1	232
395.920	1	220
396.091	1	199
396.262	1	227
396.432	1	214
396.603	1	215
396.774	1	218
396.945	1	233
397.115	1	224
397.286	1	217
397.457	1	219
397.627	1	208
397.798	1	200
397.969	1	230
398.140	1	210
398.310	1	224
398.481	1	217
398.652	1	216
398.823	1	225
398.993	1	210
399.164	1	212
399.335	1	201
399.505	1	203
399.676	1	201
399.847	1	206
400.018	1	208
400.188	1	219
400.359	1	214
400.530	1	205
400.700	1	223
400.871	1	209
401.042	1	203
401.213	1	208
401.383	1	204
401.554	1	215
401.725	1	200
401.895	1	222
402.066	1	223
402.237	1	208
402.408	1	222
402.578	1	223
402.749	1	203
402.920	1	224
403.090	1	209
403.261	1	219
403.432	1	222
403.603	1	218
403.773	1	211
403.944	1	231
404.115	1	217
404.285	1	219
404.456	1	233
404.627	1	229
404.797	1	230
404.968	1	221
405.139	1	236
405.310	1	211
405.480	1	232
405.651	1	223
405.822	1	210
405.992	1	224
406.163	1	215
406.334	1	233
406.504	1	232
406.675	1	216
406.846	1	227
407.016	1	248
407.187	1	242
407.358	1	223
407.528	1	233
407.699	1	233
407.870	1	235
408.041	1	231
408.211	1	232
408.382	1	234
408.553	1	242
408.723	1	226
408.894	1	221
409.065	1	237
409.235	1	224
409.406	1	223
409.577	1	221
409.747	1	228
409.918	1	230
410.089	1	233
410.259	1	229
410.430	1	225
410.601	1	224
410.771	1	229
410.942	1	222
411.113	1	238
411.283	1	218
411.454	1	238
411.625	1	238
411.795	1	238
411.966	1	221
412.137	1	232
412.307	1	231
412.478	1	223
412.649	1	213
412.819	1	225
412.990	1	216
413.161	1	224
413.331	1	209
413.502	1	212
413.672	1	212
413.843	1	220
414.014	1	218
414.184	1	221
414.355	1	224
414.526	1	224
414.696	1	209
414.867	1	209
415.038	1	216
415.208	1	201
415.379	1	215
415.550	1	222
415.720	1	211
415.891	1	222
416.062	1	229
416.232	1	230
416.403	1	229
416.573	1	219
416.744	1	233
416.915	1	213
417.085	1	222
417.256	1	221
417.427	1	216
417.597	1	218
417.768	1	233
417.939	1	224
418.109	1	216
418.280	1	235
418.450	1	232
418.621	1	230
418.792	1	229
418.962	1	219
419.133	1	218
419.304	1	216
419.474	1	220
419.645	1	233
419.815	1	230
419.986	1	242
420.157	1	222
420.327	1	207
420.498	1	212
420.669	1	228
420.839	1	221
421.010	1	209
421.180	1	204
421.351	1	229
421.522	1	219
421.692	1	208
421.863	1	220
422.033	1	227
422.204	1	210
422.375	1	219
422.545	1	227
422.716	1	210
422.886	1	217
423.057	1	215
423.228	1	219
423.398	1	219
423.569	1	204
423.740	1	200
423.910	1	209
424.081	1	216
424.251	1	201
424.422	1	205
424.593	1	194
424.763	1	201
424.934	1	214
425.104	1	215
425.275	1	195
425.445	1	216
425.616	1	197
425.787	1	208
425.957	1	199
426.128	1	195
426.298	1	194
426.469	1	185
426.640	1	175
426.810	1	196
426.981	1	208
427.151	1	208
427.322	1	199
427.493	1	205
427.663	1	192
427.834	1	201
428.004	1	205
428.175	1	192
428.345	1	200
428.516	1	202
428.687	1	200
428.857	1	205
429.028	1	193
429.198	1	190
429.369	1	199
429.540	1	197
429.710	1	194
429.881	1	201
430.051	1	183
430.222	1	212
430.392	1	215
430.563	1	193
430.734	1	195
430.904	1	201
431.075	1	215
431.245	1	188
431.416	1	194
431.586	1	196
431.757	1	205
431.927	1	216
432.098	1	218
432.269	1	202
432.439	1	194
432.610	1	213
432.780	1	206
432.951	1	202
433.121	1	200
433.292	1	211
433.462	1	184
433.633	1	194
433.804	1	202
433.974	1	214
434.145	1	201
434.315	1	204
434.486	1	195
434.656	1	200
434.827	1	202
434.997	1	200
435.168	1	197
435.339	1	210
435.509	1	197
435.680	1	207
435.850	1	200
436.021	1	191
436.191	1	191
436.362	1	193
436.532	1	190
436.703	1	188
436.873	1	191
437.044	1	194
437.214	1	176
437.385	1	181
437.556	1	180
437.726	1	190
437.897	1	186
438.067	1	186
438.238	1	188
438.408	1	187
438.579	1	180
438.749	1	189
438.920	1	186
439.090	1	179
439.261	1	184
439.431	1	169
439.602	1	187
439.772	1	180
439.943	1	170
440.113	1	173
440.284	1	175
440.455	1	188
440.625	1	181
440.796	1	176
440.966	1	183
441.137	1	171
441.307	1	180
441.478	1	162
441.648	1	169
441.819	1	175
441.989	1	191
442.160	1	193
442.330	1	181
442.501	1	175
442.671	1	179
442.842	1	177
443.012	1	182
443.183	1	174
443.353	1	190
443.524	1	175
443.694	1	165
443.865	1	181
444.035	1	186
444.206	1	181
444.376	1	175
444.547	1	188
444.717	1	172
444.888	1	170
445.058	1	177
445.229	1	185
445.399	1	166
445.570	1	184
445.740	1	180
445.911	1	168
446.081	1	176
446.252	1	157
446.422	1	180
446.593	1	167
446.763	1	168
446.934	1	181
447.104	1	162
447.275	1	180
447.445	1	181
447.616	1	160
447.786	1	170
447.957	1	169
448.127	1	168
448.298	1	174
448.468	1	178
448.639	1	168
448.809	1	155
448.979	1	172
449.150	1	157
449.320	1	161
449.491	1	154
449.661	1	148
449.832	1	157
450.002	1	177
450.173	1	172
450.343	1	176
450.514	1	163
450.684	1	168
450.855	1	168
451.025	1	157
451.196	1	161
451.366	1	147
451.537	1	164
451.707	1	163
451.878	1	148
452.048	1	152
452.218	1	147
452.389	1	166
452.559	1	148
452.730	1	156
452.900	1	135
453.071	1	158
453.241	1	140
453.412	1	150
453.582	1	164
453.753	1	145
453.923	1	152
454.093	1	162
454.264	1	158
454.434	1	140
454.605	1	143
454.775	1	136
454.946	1	150
455.116	1	154
455.287	1	140
455.457	1	145
455.628	1	139
455.798	1	151
455.968	1	135
456.139	1	138
456.309	1	142
456.480	1	138
456.650	1	127
456.821	1	142
456.991	1	153
457.161	1	150
457.332	1	136
457.502	1	134
457.673	1	138
457.843	1	133
458.014	1	149
458.184	1	146
458.355	1	154
458.525	1	132
458.695	1	135
458.866	1	125
459.036	1	138
459.207	1	134
459.377	1	131
459.548	1	128
459.718	1	136
459.888	1	135
460.059	1	148
460.229	1	126
460.400	1	133
460.570	1	136
460.740	1	144
460.911	1	135
461.081	1	152
461.252	1	143
461.422	1	123
461.593	1	143
461.763	1	144
461.933	1	139
462.104	1	131
462.274	1	138
462.445	1	131
462.615	1	145
462.785	1	133
462.956	1	124
463.126	1	134
463.297	1	133
463.467	1	132
463.638	1	141
463.808	1	144
463.978	1	122
464.149	1	138
464.319	1	119
464.490	1	129
464.660	1	121
464.830	1	112
465.001	1	111
465.171	1	120
465.342	1	119
465.512	1	118
465.682	1	111
465.853	1	120
466.023	1	110
466.194	1	123
466.364	1	129
466.534	1	113
466.705	1	139
466.875	1	112
467.045	1	101
467.216	1	120
467.386	1	112
467.557	1	118
467.727	1	100
467.897	1	120
468.068	1	111
468.238	1	123
468.409	1	129
468.579	1	118
468.749	1	120
468.920	1	109
469.090	1	122
469.260	1	115
469.431	1	107
469.601	1	113
469.772	1	107
469.942	1	126
470.112	1	95
470.283	1	122
470.453	1	107
470.623	1	107
470.794	1	101
470.964	1	108
471.135	1	114
471.305	1	100
471.475	1	121
471.646	1	114
471.816	1	114
471.986	1	112
472.157	1	110
472.327	1	119
472.497	1	113
472.668	1	106
472.838	1	103
473.009	1	99
473.179	1	102
473.349	1	103
473.520	1	115
473.690	1	106
473.860	1	100
474.031	1	100
474.201	1	107
474.371	1	109
474.542	1	111
474.712	1	102
474.882	1	114
475.053	1	102
475.223	1	104
475.394	1	102
475.564	1	110
475.734	1	99
475.905	1	117
476.075	1	109
476.245	1	116
476.416	1	97
476.586	1	112
476.756	1	106
476.927	1	101
477.097	1	106
477.267	1	116
477.438	1	112
477.608	1	116
477.778	1	92
477.949	1	108
478.119	1	111
478.289	1	104
478.460	1	96
478.630	1	99
478.800	1	96
478.971	1	101
479.141	1	97
479.311	1	93
479.482	1	99
479.652	1	111
479.822	1	101
479.993	1	93
480.163	1	108
480.333	1	102
480.504	1	99
480.674	1	106
480.844	1	101
481.015	1	94
481.185	1	109
481.355	1	102
481.525	1	93
481.696	1	102
481.866	1	95
482.036	1	103
482.207	1	95
482.377	1	95
482.547	1	107
482.718	1	94
482.888	1	103
483.058	1	102
483.229	1	89
483.399	1	95
483.569	1	86
483.740	1	110
483.910	1	88
484.080	1	103
484.250	1	81
484.421	1	88
484.591	1	90
484.761	1	95
484.932	1	82
485.102	1	98
485.272	1	83
485.443	1	78
485.613	1	83
485.783	1	90
485.953	1	83
486.124	1	91
486.294	1	98
486.464	1	93
486.635	1	97
486.805	1	89
486.975	1	76
487.146	1	91
487.316	1	98
487.486	1	87
487.656	1	97
487.827	1	84
487.997	1	69
488.167	1	100
488.338	1	72
488.508	1	97
488.678	1	83
488.848	1	79
489.019	1	85
489.189	1	89
489.359	1	82
489.529	1	91
489.700	1	77
489.870	1	87
490.040	1	79
490.211	1	77
490.381	1	79
490.551	1	83
490.721	1	83
490.892	1	72
491.062	1	83
491.232	1	78
491.402	1	84
491.573	1	83
491.743	1	78
491.913	1	81
492.084	1	74
492.254	1	72
492.424	1	80
492.594	1	78
492.765	1	87
492.935	1	86
493.105	1	76
493.275	1	79
493.446	1	60
493.616	1	69
493.786	1	85
493.956	1	84
494.127	1	75
494.297	1	69
494.467	1	69
494.637	1	83
494.808	1	92
494.978	1	78
495.148	1	68
495.318	1	85
495.489	1	70
495.659	1	78
495.829	1	73
495.999	1	80
496.170	1	77
496.340	1	77
496.510	1	84
496.680	1	64
496.851	1	85
497.021	1	67
497.191	1	74
497.361	1	66
497.532	1	78
497.702	1	79
497.872	1	73
498.042	1	79
498.213	1	71
498.383	1	74
498.553	1	80
498.723	1	70
498.894	1	71
499.064	1	74
499.234	1	76
499.404	1	75
499.574	1	69
499.745	1	70
499.915	1	71
500.085	1	70
500.255	1	63
500.426	1	77
500.596	1	63
500.766	1	61
500.936	1	57
501.106	1	63
501.277	1	58
501.447	1	82
501.617	1	67
501.787	1	70
501.958	1	66
502.128	1	73
502.298	1	65
502.468	1	63
502.638	1	65
502.809	1	54
502.979	1	67
503.149	1	67
503.319	1	70
503.489	1	55
503.660	1	69
503.830	1	64
504.000	1	62
504.170	1	75
504.340	1	64
504.511	1	62
504.681	1	56
504.851	1	64
505.021	1	60
505.192	1	56
505.362	1	55
505.532	1	65
505.702	1	68
505.872	1	69
506.043	1	68
506.213	1	72
506.383	1	60
506.553	1	68
506.723	1	59
506.893	1	70
507.064	1	58
507.234	1	59
507.404	1	57
507.574	1	51
507.744	1	63
507.915	1	61
508.085	1	49
508.255	1	58
508.425	1	59
508.595	1	46
508.766	1	52
508.936	1	63
509.106	1	58
509.276	1	60
509.446	1	56
509.616	1	61
509.787	1	57
509.957	1	57
510.127	1	54
510.297	1	49
510.467	1	54
510.638	1	63
510.808	1	64
510.978	1	63
511.148	1	65
511.318	1	56
511.488	1	64
511.659	1	51
511.829	1	46
511.999	1	57
512.169	1	65
512.339	1	60
512.509	1	57
512.680	1	59
512.850	1	66
513.020	1	57
513.190	1	48
513.360	1	55
513.530	1	55
513.700	1	55
513.871	1	45
514.041	1	60
514.211	1	55
514.381	1	65
514.551	1	59
514.721	1	64
514.892	1	39
515.062	1	52
515.232	1	52
515.402	1	60
515.572	1	52
515.742	1	57
515.912	1	52
516.083	1	58
516.253	1	58
516.423	1	53
516.593	1	47
516.763	1	61
516.933	1	51
517.104	1	56
517.274	1	47
517.444	1	46
517.614	1	42
517.784	1	53
517.954	1	46
518.124	1	63
518.294	1	53
518.465	1	42
518.635	1	62
518.805	1	51
518.975	1	46
519.145	1	42
519.315	1	57
519.485	1	52
519.656	1	39
519.826	1	35
519.996	1	57
520.166	1	54
520.336	1	43
520.506	1	45
520.676	1	56
520.846	1	51
521.017	1	42
521.187	1	53
521.357	1	49
521.527	1	48
521.697	1	40
521.867	1	49
522.037	1	44
522.207	1	50
522.377	1	53
522.548	1	34
522.718	1	46
522.888	1	44
523.058	1	44
523.228	1	41
523.398	1	35
523.568	1	42
523.738	1	40
523.909	1	33
524.079	1	45
524.249	1	41
524.419	1	42
524.589	1	45
524.759	1	50
524.929	1	46
525.099	1	39
525.269	1	31
525.439	1	36
525.610	1	56
525.780	1	45
525.950	1	48
526.120	1	30
526.290	1	35
526.460	1	22
526.630	1	42
526.800	1	40
526.970	1	47
527.140	1	41
527.311	1	47
527.481	1	52
527.651	1	45
527.821	1	33
527.991	1	39
528.161	1	37
528.331	1	38
528.501	1	44
528.671	1	44
528.841	1	43
529.011	1	46
529.181	1	43
529.352	1	48
529.522	1	46
529.692	1	44
529.862	1	42
530.032	1	30
530.202	1	34
530.372	1	45
530.542	1	37
530.712	1	47
530.882	1	44
531.052	1	44
531.222	1	43
531.392	1	43
531.563	1	48
531.733	1	39
531.903	1	38
532.073	1	36
532.243	1	49
532.413	1	55
532.583	1	44
532.753	1	29
532.923	1	39
533.093	1	29
533.263	1	43
533.433	1	34
533.603	1	41
533.773	1	42
533.943	1	34
534.113	1	41
534.284	1	44
534.454	1	40
534.624	1	40
534.794	1	29
534.964	1	52
535.134	1	32
535.304	1	41
535.474	1	44
535.644	1	49
535.814	1	45
535.984	1	46
536.154	1	33
536.324	1	33
536.494	1	44
536.664	1	46
536.834	1	36
537.004	1	42
537.174	1	43
537.344	1	39
537.514	1	39
537.685	1	40
537.855	1	40
538.025	1	54
538.195	1	41
538.365	1	33
538.535	1	40
538.705	1	40
538.875	1	31
539.045	1	37
539.215	1	35
539.385	1	38
539.555	1	35
539.725	1	34
539.895	1	37
540.065	1	38
540.235	1	38
540.405	1	38
540.575	1	34
540.745	1	31
540.915	1	33
541.085	1	28
541.255	1	42
541.425	1	33
541.595	1	23
541.765	1	53
541.935	1	38
542.105	1	40
542.275	1	31
542.445	1	30
542.615	1	35
542.785	1	34
542.955	1	48
543.125	1	38
543.295	1	37
543.465	1	28
543.635	1	27
543.805	1	31
543.975	1	28
544.145	1	34
544.315	1	26
544.485	1	24
544.655	1	38
544.825	1	33
544.995	1	35
545.165	1	29
545.335	1	37
545.505	1	30
545.675	1	39
545.845	1	38
546.015	1	27
546.185	1	33
546.355	1	35
546.525	1	32
546.695	1	30
546.865	1	32
547.035	1	46
547.205	1	46
547.375	1	35
547.545	1	38
547.715	1	31
547.885	1	33
548.055	1	28
548.225	1	37
548.395	1	38
548.565	1	35
548.735	1	24
548.905	1	35
549.075	1	35
549.245	1	28
549.415	1	34
549.585	1	29
549.755	1	39
549.925	1	35
550.095	1	22
550.265	1	29
550.435	1	36
550.605	1	28
550.775	1	34
550.945	1	31
551.115	1	35
551.285	1	33
551.455	1	33
551.625	1	32
551.795	1	24
551.965	1	26
552.135	1	24
552.305	1	31
552.475	1	32
552.645	1	26
552.815	1	23
552.985	1	28
553.155	1	37
553.325	1	38
553.495	1	38
553.665	1	27
553.835	1	25
554.004	1	27
554.174	1	21
554.344	1	44
554.514	1	32
554.684	1	35
554.854	1	24
555.024	1	40
555.194	1	38
555.364	1	29
555.534	1	23
555.704	1	32
555.874	1	30
556.044	1	22
556.214	1	26
556.384	1	38
556.554	1	23
556.724	1	29
556.894	1	32
557.064	1	22
557.234	1	36
557.404	1	30
557.573	1	41
557.743	1	17
557.913	1	22
558.083	1	28
558.253	1	22
558.423	1	29
558.593	1	37
558.763	1	18
558.933	1	28
559.103	1	32
559.273	1	24
559.443	1	28
559.613	1	26
559.783	1	22
559.953	1	16
560.122	1	27
560.292	1	28
560.462	1	29
560.632	1	26
560.802	1	28
560.972	1	15
561.142	1	28
561.312	1	29
561.482	1	25
561.652	1	30
561.822	1	34
561.992	1	19
562.162	1	27
562.331	1	21
562.501	1	27
562.671	1	18
562.841	1	20
563.011	1	34
563.181	1	17
563.351	1	29
563.521	1	18
563.691	1	25
563.861	1	21
564.031	1	21
564.201	1	22
564.370	1	26
564.540	1	16
564.710	1	21
564.880	1	21
565.050	1	19
565.220	1	30
565.390	1	15
565.560	1	24
565.730	1	27
565.900	1	22
566.069	1	34
566.239	1	33
566.409	1	28
566.579	1	27
566.749	1	29
566.919	1	10
567.089	1	12
567.259	1	28
567.429	1	10
567.599	1	29
567.768	1	30
567.938	1	18
568.108	1	31
568.278	1	29
568.448	1	24
568.618	1	25
568.788	1	27
568.958	1	21
569.128	1	9
569.297	1	29
569.467	1	24
569.637	1	23
569.807	1	22
569.977	1	14
570.147	1	20
570.317	1	20
570.487	1	12
570.656	1	21
570.826	1	16
570.996	1	37
571.166	1	20
571.336	1	16
571.506	1	17
571.676	1	19
571.846	1	28
572.015	1	17
572.185	1	17
572.355	1	25
572.525	1	11
572.695	1	19
572.865	1	33
573.035	1	26
573.205	1	17
573.374	1	21
573.544	1	5
573.714	1	17
573.884	1	22
574.054	1	18
574.224	1	20
574.394	1	23
574.563	1	11
574.733	1	21
574.903	1	27
575.073	1	17
575.243	1	14
575.413	1	27
575.583	1	14
575.752	1	17
575.922	1	22
576.092	1	16
576.262	1	11
576.432	1	14
576.602	1	8
576.772	1	25
576.941	1	20
577.111	1	15
577.281	1	30
577.451	1	27
577.621	1	19
577.791	1	22
577.960	1	24
578.130	1	21
578.300	1	19
578.470	1	31
578.640	1	10
578.810	1	8
578.979	1	27
579.149	1	17
579.319	1	25
579.489	1	27
579.659	1	14
579.829	1	25
579.998	1	10
580.168	1	11
580.338	1	23
580.508	1	15
580.678	1	18
580.848	1	21
581.017	1	28
581.187	1	13
581.357	1	21
581.527	1	27
581.697	1	18
581.867	1	17
582.036	1	19
582.206	1	19
582.376	1	21
582.546	1	32
582.716	1	25
582.885	1	9
583.055	1	13
583.225	1	17
583.395	1	17
583.565	1	32
583.735	1	26
583.904	1	17
584.074	1	27
584.244	1	25
584.414	1	22
584.584	1	24
584.753	1	16
584.923	1	10
585.093	1	18
585.263	1	21
585.433	1	21
585.602	1	26
585.772	1	23
585.942	1	22
586.112	1	4
586.282	1	22
586.451	1	22
586.621	1	9
586.791	1	2
586.961	1	9
587.131	1	3
587.300	1	35
587.470	1	20
587.640	1	14
587.810	1	23
587.980	1	22
588.149	1	17
588.319	1	31
588.489	1	18
588.659	1	13
588.829	1	10
588.998	1	17
589.168	1	21
589.338	1	16
589.508	1	19
589.677	1	21
589.847	1	17
590.017	1	14
590.187	1	13
590.357	1	17
590.526	1	8
590.696	1	33
590.866	1	3
591.036	1	22
591.205	1	17
591.375	1	14
591.545	1	12
591.715	1	16
591.885	1	19
592.054	1	18
592.224	1	15
592.394	1	4
592.564	1	11
592.733	1	20
592.903	1	18
593.073	1	17
593.243	1	22
593.412	1	15
593.582	1	11
593.752	1	15
593.922	1	18
594.091	1	31
594.261	1	6
594.431	1	26
594.601	1	20
594.771	1	11
594.940	1	22
595.110	1	33
595.280	1	16
595.450	1	26
595.619	1	21
595.789	1	9
595.959	1	29
596.129	1	18
596.298	1	34
596.468	1	25
596.638	1	20
596.808	1	11
596.977	1	14
597.147	1	15
597.317	1	17
597.487	1	19
597.656	1	15
597.826	1	22
597.996	1	16
598.166	1	23
598.335	1	3
598.505	1	19
598.675	1	17
598.844	1	25
599.014	1	5
599.184	1	15
599.354	1	35
599.523	1	9
599.693	1	20
599.863	1	22
600.033	1	15
600.202	1	28
600.372	1	10
600.542	1	22
600.712	1	23
600.881	1	20
601.051	1	19
601.221	1	36
601.390	1	24
601.560	1	20
601.730	1	27
601.900	1	18
602.069	1	15
602.239	1	19
602.409	1	11
602.578	1	23
602.748	1	29
602.918	1	22
603.088	1	15
603.257	1	12
603.427	1	32
603.597	1	17
603.767	1	24
603.936	1	28
604.106	1	11
604.276	1	33
604.445	1	18
604.615	1	27
604.785	1	30
604.954	1	11
605.124	1	36
605.294	1	26
605.464	1	13
605.633	1	24
605.803	1	34
605.973	1	23
606.142	1	17
606.312	1	31
606.482	1	10
606.652	1	18
606.821	1	28
606.991	1	24
607.161	1	28
607.330	1	26
607.500	1	14
607.670	1	23
607.839	1	21
608.009	1	18
608.179	1	18
608.348	1	29
608.518	1	32
608.688	1	18
608.858	1	19
609.027	1	23
609.197	1	22
609.367	1	11
609.536	1	10
609.706	1	28
609.876	1	27
610.045	1	20
610.215	1	24
610.385	1	25
610.554	1	16
610.724	1	14
610.894	1	35
611.063	1	26
611.233	1	21
611.403	1	27
611.572	1	27
611.742	1	17
611.912	1	13
612.081	1	37
612.251	1	22
612.421	1	23
612.590	1	35
612.760	1	10
612.930	1	28
613.099	1	21
613.269	1	28
613.439	1	23
613.608	1	27
613.778	1	20
613.948	1	41
614.117	1	22
614.287	1	10
614.457	1	30
614.626	1	24
614.796	1	11
614.966	1	15
615.135	1	38
615.305	1	24
615.475	1	28
615.644	1	36
615.814	1	25
615.984	1	24
616.153	1	16
616.323	1	19
616.493	1	18
616.662	1	16
616.832	1	15
617.002	1	25
617.171	1	24
617.341	1	31
617.511	1	25
617.680	1	6
617.850	1	35
618.019	1	22
618.189	1	25
618.359	1	24
618.528	1	30
618.698	1	25
618.868	1	19
619.037	1	26
619.207	1	18
619.377	1	22
619.546	1	31
619.716	1	25
619.885	1	19
620.055	1	25
620.225	1	31
620.394	1	23
620.564	1	33
620.734	1	38
620.903	1	9
621.073	1	32
621.242	1	29
621.412	1	16
621.582	1	43
621.751	1	24
621.921	1	21
622.091	1	28
622.260	1	30
622.430	1	33
622.599	1	27
622.769	1	24
622.939	1	17
623.108	1	30
623.278	1	22
623.448	1	12
623.617	1	20
623.787	1	26
623.956	1	25
624.126	1	22
624.296	1	32
624.465	1	20
624.635	1	22
624.804	1	24
624.974	1	10
625.144	1	14
625.313	1	37
625.483	1	25
625.652	1	18
625.822	1	32
625.992	1	13
626.161	1	22
626.331	1	27
626.501	1	27
626.670	1	16
626.840	1	28
627.009	1	19
627.179	1	23
627.348	1	36
627.518	1	33
627.688	1	20
627.857	1	32
628.027	1	27
628.196	1	34
628.366	1	18
628.536	1	24
628.705	1	29
628.875	1	22
629.044	1	26
629.214	1	36
629.384	1	34
629.553	1	25
629.723	1	32
629.892	1	34
630.062	1	36
630.232	1	32
630.401	1	30
630.571	1	28
630.740	1	25
630.910	1	45
631.079	1	22
631.249	1	32
631.419	1	24
631.588	1	30
631.758	1	19
631.927	1	34
632.097	1	28
632.266	1	48
632.436	1	33
632.606	1	31
632.775	1	28
632.945	1	32
633.114	1	25
633.284	1	28
633.453	1	33
633.623	1	42
633.793	1	33
633.962	1	40
634.132	1	42
634.301	1	33
634.471	1	31
634.640	1	24
634.810	1	40
634.979	1	39
635.149	1	29
635.319	1	27
635.488	1	26
635.658	1	31
635.827	1	26
635.997	1	38
636.166	1	38
636.336	1	35
636.505	1	32
636.675	1	40
636.845	1	28
637.014	1	19
637.184	1	41
637.353	1	39
637.523	1	27
637.692	1	31
637.862	1	20
638.031	1	24
638.201	1	37
638.370	1	34
638.540	1	30
638.710	1	30
638.879	1	27
639.049	1	25
639.218	1	30
639.388	1	30
639.557	1	32
639.727	1	38
639.896	1	30
640.066	1	32
640.235	1	37
640.405	1	33
640.574	1	36
640.744	1	27
640.914	1	23
641.083	1	33
641.253	1	21
641.422	1	32
641.592	1	44
641.761	1	23
641.931	1	39
642.100	1	27
642.270	1	38
642.439	1	39
642.609	1	35
642.778	1	35
642.948	1	41
643.117	1	43
643.287	1	23
643.456	1	34
643.626	1	33
643.795	1	28
643.965	1	35
644.134	1	27
644.304	1	25
644.473	1	27
644.643	1	38
644.812	1	29
644.982	1	34
645.151	1	28
645.321	1	37
645.490	1	50
645.660	1	32
645.829	1	41
645.999	1	28
646.168	1	51
646.338	1	23
646.507	1	26
646.677	1	34
646.846	1	37
647.016	1	49
647.185	1	34
647.355	1	44
647.524	1	38
647.694	1	35
647.863	1	36
648.033	1	37
648.202	1	56
648.372	1	32
648.541	1	37
648.711	1	35
648.880	1	41
649.050	1	39
649.219	1	38
649.389	1	32
649.558	1	41
649.728	1	46
649.897	1	37
650.067	1	42
650.236	1	29
650.406	1	35
650.575	1	37
650.745	1	37
650.914	1	40
651.084	1	42
651.253	1	37
651.423	1	27
651.592	1	37
651.762	1	34
651.931	1	40
652.101	1	31
652.270	1	28
652.440	1	43
652.609	1	45
652.778	1	33
652.948	1	38
653.117	1	21
653.287	1	27
653.456	1	27
653.626	1	39
653.795	1	33
653.965	1	26
654.134	1	33
654.304	1	48
654.473	1	40
654.643	1	34
654.812	1	57
654.982	1	45
655.151	1	51
655.320	1	34
655.490	1	34
655.659	1	33
655.829	1	43
655.998	1	45
656.168	1	35
656.337	1	32
656.507	1	31
656.676	1	28
656.846	1	38
657.015	1	34
657.184	1	37
657.354	1	36
657.523	1	42
657.693	1	41
657.862	1	29
658.032	1	37
658.201	1	35
658.371	1	37
658.540	1	30
658.709	1	56
658.879	1	44
659.048	1	43
659.218	1	39
659.387	1	36
659.557	1	40
659.726	1	33
659.895	1	29
660.065	1	39
660.234	1	34
660.404	1	38
660.573	1	41
660.743	1	38
660.912	1	43
661.081	1	37
661.251	1	42
661.420	1	35
661.590	1	44
661.759	1	44
661.929	1	44
662.098	1	46
662.267	1	39
662.437	1	42
662.606	1	31
662.776	1	35
662.945	1	54
663.115	1	53
663.284	1	48
663.453	1	42
663.623	1	44
663.792	1	46
663.962	1	47
664.131	1	30
664.300	1	41
664.470	1	34
664.639	1	48
664.809	1	39
664.978	1	47
665.148	1	44
665.317	1	36
665.486	1	46
665.656	1	45
665.825	1	48
665.995	1	34
666.164	1	42
666.333	1	44
666.503	1	33
666.672	1	37
666.842	1	34
667.011	1	41
667.180	1	36
667.350	1	40
667.519	1	49
667.689	1	42
667.858	1	49
668.027	1	42
668.197	1	34
668.366	1	48
668.536	1	28
668.705	1	42
668.874	1	43
669.044	1	50
669.213	1	45
669.382	1	48
669.552	1	41
669.721	1	38
669.891	1	36
670.060	1	37
670.229	1	52
670.399	1	47
670.568	1	38
670.738	1	37
670.907	1	39
671.076	1	37
671.246	1	41
671.415	1	53
671.584	1	47
671.754	1	30
671.923	1	44
672.093	1	49
672.262	1	35
672.431	1	38
672.601	1	49
672.770	1	37
672.939	1	45
673.109	1	38
673.278	1	49
673.448	1	46
673.617	1	45
673.786	1	34
