325.333	1	27
325.504	1	30
325.675	1	31
325.846	1	24
326.017	1	29
326.188	1	28
326.359	1	33
326.531	1	19
326.702	1	26
326.873	1	46
327.044	1	40
327.215	1	34
327.386	1	28
327.557	1	36
327.728	1	34
327.899	1	40
328.070	1	60
328.241	1	23
328.412	1	39
328.583	1	34
328.754	1	48
328.926	1	48
329.097	1	29
329.268	1	47
329.439	1	52
329.610	1	49
329.781	1	41
329.952	1	38
330.123	1	38
330.294	1	33
330.465	1	39
330.636	1	46
330.807	1	58
330.978	1	43
331.149	1	50
331.320	1	43
331.492	1	42
331.663	1	47
331.834	1	41
332.005	1	44
332.176	1	49
332.347	1	41
332.518	1	45
332.689	1	42
332.860	1	52
333.031	1	52
333.202	1	50
333.373	1	55
333.544	1	58
333.715	1	49
333.886	1	43
334.057	1	48
334.228	1	48
334.399	1	61
334.570	1	57
334.741	1	59
334.912	1	52
335.084	1	61
335.255	1	70
335.426	1	72
335.597	1	60
335.768	1	66
335.939	1	63
336.110	1	61
336.281	1	63
336.452	1	68
336.623	1	53
336.794	1	59
336.965	1	64
337.136	1	71
337.307	1	64
337.478	1	66
337.649	1	64
337.820	1	65
337.991	1	55
338.162	1	59
338.333	1	64
338.504	1	56
338.675	1	59
338.846	1	59
339.017	1	66
339.188	1	65
339.359	1	67
339.530	1	62
339.701	1	64
339.872	1	71
340.043	1	64
340.214	1	86
340.385	1	59
340.556	1	69
340.727	1	68
340.898	1	77
341.069	1	76
341.240	1	73
341.411	1	73
341.582	1	72
341.753	1	62
341.924	1	75
342.095	1	81
342.266	1	90
342.437	1	80
342.608	1	83
342.779	1	62
342.950	1	70
343.121	1	77
343.292	1	77
343.463	1	90
343.634	1	73
343.805	1	89
343.976	1	93
344.147	1	96
344.318	1	80
344.489	1	72
344.660	1	93
344.831	1	96
345.002	1	90
345.173	1	77
345.344	1	83
345.515	1	85
345.686	1	76
345.857	1	97
346.028	1	91
346.199	1	80
346.370	1	83
346.541	1	84
346.712	1	87
346.883	1	82
347.054	1	98
347.225	1	89
347.396	1	91
347.567	1	85
347.738	1	90
347.909	1	94
348.080	1	87
348.251	1	106
348.422	1	98
348.593	1	107
348.764	1	99
348.935	1	100
349.106	1	100
349.277	1	104
349.448	1	98
349.619	1	110
349.790	1	106
349.961	1	91
350.132	1	117
350.303	1	109
350.474	1	107
350.645	1	103
350.816	1	104
350.987	1	126
351.157	1	115
351.328	1	106
351.499	1	102
351.670	1	99
351.841	1	118
352.012	1	119
352.183	1	117
352.354	1	99
352.525	1	117
352.696	1	98
352.867	1	108
353.038	1	117
353.209	1	117
353.380	1	117
353.551	1	113
353.722	1	118
353.893	1	116
354.064	1	118
354.235	1	115
354.406	1	105
354.576	1	106
354.747	1	119
354.918	1	113
355.089	1	120
355.260	1	122
355.431	1	120
355.602	1	123
355.773	1	114
355.944	1	126
356.115	1	121
356.286	1	121
356.457	1	113
356.628	1	113
356.799	1	117
356.970	1	131
357.141	1	129
357.311	1	133
357.482	1	134
357.653	1	128
357.824	1	131
357.995	1	140
358.166	1	125
358.337	1	130
358.508	1	135
358.679	1	132
358.850	1	134
359.021	1	128
359.192	1	146
359.363	1	147
359.533	1	136
359.704	1	130
359.875	1	133
360.046	1	137
360.217	1	134
360.388	1	142
360.559	1	136
360.730	1	135
360.901	1	138
361.072	1	128
361.243	1	133
361.414	1	139
361.584	1	127
361.755	1	129
361.926	1	138
362.097	1	123
362.268	1	143
362.439	1	125
362.610	1	135
362.781	1	119
362.952	1	136
363.123	1	143
363.293	1	139
363.464	1	134
363.635	1	141
363.806	1	145
363.977	1	141
364.148	1	135
364.319	1	127
364.490	1	157
364.661	1	135
364.832	1	142
365.002	1	157
365.173	1	166
365.344	1	137
365.515	1	159
365.686	1	145
365.857	1	153
366.028	1	148
366.199	1	154
366.370	1	158
366.540	1	155
366.711	1	154
366.882	1	149
367.053	1	159
367.224	1	163
367.395	1	163
367.566	1	150
367.737	1	151
367.908	1	161
368.078	1	163
368.249	1	157
368.420	1	154
368.591	1	153
368.762	1	152
368.933	1	160
369.104	1	151
369.274	1	156
369.445	1	157
369.616	1	152
369.787	1	135
369.958	1	162
370.129	1	146
370.300	1	143
370.471	1	160
370.641	1	137
370.812	1	140
370.983	1	145
371.154	1	157
371.325	1	152
371.496	1	150
371.667	1	160
371.837	1	162
372.008	1	133
372.179	1	148
372.350	1	159
372.521	1	153
372.692	1	165
372.863	1	150
373.033	1	155
373.204	1	155
373.375	1	145
373.546	1	160
373.717	1	148
373.888	1	166
374.059	1	158
374.229	1	150
374.400	1	158
374.571	1	158
374.742	1	159
374.913	1	178
375.084	1	169
375.254	1	156
375.425	1	156
375.596	1	172
375.767	1	168
375.938	1	173
376.109	1	164
376.279	1	168
376.450	1	179
376.621	1	183
376.792	1	184
376.963	1	169
377.134	1	170
377.304	1	182
377.475	1	172
377.646	1	167
377.817	1	182
377.988	1	171
378.159	1	179
378.329	1	174
378.500	1	175
378.671	1	174
378.842	1	174
379.013	1	172
379.184	1	177
379.354	1	185
379.525	1	169
379.696	1	172
379.867	1	168
380.038	1	178
380.209	1	191
380.379	1	171
380.550	1	152
380.721	1	179
380.892	1	184
381.063	1	181
381.233	1	180
381.404	1	168
381.575	1	169
381.746	1	188
381.917	1	179
382.087	1	199
382.258	1	190
382.429	1	182
382.600	1	172
382.771	1	184
382.941	1	183
383.112	1	183
383.283	1	184
383.454	1	186
383.625	1	189
383.795	1	194
383.966	1	199
384.137	1	198
384.308	1	197
384.479	1	187
384.649	1	194
384.820	1	201
384.991	1	224
385.162	1	215
385.333	1	194
385.503	1	209
385.674	1	208
385.845	1	203
386.016	1	200
386.187	1	208
386.357	1	207
386.528	1	186
386.699	1	199
386.870	1	207
387.041	1	213
387.211	1	190
387.382	1	211
387.553	1	228
387.724	1	207
387.894	1	195
388.065	1	210
388.236	1	205
388.407	1	207
388.578	1	205
388.748	1	217
388.919	1	199
389.090	1	211
389.261	1	222
389.431	1	188
389.602	1	201
389.773	1	203
389.944	1	197
390.114	1	203
390.285	1	211
390.456	1	194
390.627	1	194
390.798	1	214
390.968	1	212
391.139	1	197
391.310	1	196
391.481	1	217
391.651	1	203
391.822	1	194
391.993	1	202
392.164	1	202
392.334	1	199
392.505	1	204
392.676	1	199
392.847	1	205
393.017	1	217
393.188	1	199
393.359	1	224
393.530	1	220
393.700	1	218
393.871	1	212
394.042	1	215
394.213	1	220
394.383	1	226
394.554	1	204
394.725	1	201
394.896	1	234
395.066	1	220
395.237	1	210
395.408	1	231
395.579	1	231
395.749	1	229
395.920	1	220
396.091	1	221
396.262	1	221
396.432	1	216
396.603	1	231
396.774	1	214
396.945	1	236
397.115	1	229
397.286	1	236
397.457	1	230
397.627	1	225
397.798	1	220
397.969	1	229
398.140	1	225
398.310	1	226
398.481	1	215
398.652	1	220
398.823	1	222
398.993	1	233
399.164	1	229
399.335	1	206
399.505	1	213
399.676	1	223
399.847	1	221
400.018	1	219
400.188	1	224
400.359	1	222
400.530	1	226
400.700	1	225
400.871	1	214
401.042	1	223
401.213	1	227
401.383	1	222
401.554	1	240
401.725	1	223
401.895	1	224
402.066	1	220
402.237	1	218
402.408	1	211
402.578	1	228
402.749	1	216
402.920	1	237
403.090	1	225
403.261	1	216
403.432	1	244
403.603	1	228
403.773	1	240
403.944	1	223
404.115	1	238
404.285	1	234
404.456	1	231
404.627	1	229
404.797	1	231
404.968	1	239
405.139	1	222
405.310	1	240
405.480	1	217
405.651	1	231
405.822	1	239
405.992	1	249
406.163	1	224
406.334	1	232
406.504	1	236
406.675	1	248
406.846	1	237
407.016	1	250
407.187	1	241
407.358	1	233
407.528	1	241
407.699	1	250
407.870	1	248
408.041	1	240
408.211	1	235
408.382	1	242
408.553	1	242
408.723	1	250
408.894	1	249
409.065	1	263
409.235	1	261
409.406	1	239
409.577	1	230
409.747	1	238
409.918	1	254
410.089	1	244
410.259	1	229
410.430	1	250
410.601	1	245
410.771	1	248
410.942	1	226
411.113	1	236
411.283	1	233
411.454	1	250
411.625	1	240
411.795	1	228
411.966	1	227
412.137	1	253
412.307	1	237
412.478	1	238
412.649	1	221
412.819	1	242
412.990	1	241
413.161	1	246
413.331	1	230
413.502	1	241
413.672	1	218
413.843	1	218
414.014	1	217
414.184	1	235
414.355	1	235
414.526	1	213
414.696	1	228
414.867	1	220
415.038	1	229
415.208	1	223
415.379	1	220
415.550	1	229
415.720	1	231
415.891	1	227
416.062	1	244
416.232	1	231
416.403	1	233
416.573	1	223
416.744	1	237
416.915	1	231
417.085	1	227
417.256	1	252
417.427	1	231
417.597	1	233
417.768	1	228
417.939	1	228
418.109	1	226
418.280	1	226
418.450	1	242
418.621	1	240
418.792	1	232
418.962	1	233
419.133	1	225
419.304	1	220
419.474	1	240
419.645	1	243
419.815	1	239
419.986	1	246
420.157	1	230
420.327	1	225
420.498	1	215
420.669	1	240
420.839	1	223
421.010	1	228
421.180	1	215
421.351	1	230
421.522	1	234
421.692	1	228
421.863	1	230
422.033	1	232
422.204	1	231
422.375	1	233
422.545	1	237
422.716	1	215
422.886	1	230
423.057	1	219
423.228	1	215
423.398	1	226
423.569	1	227
423.740	1	216
423.910	1	220
424.081	1	212
424.251	1	223
424.422	1	229
424.593	1	213
424.763	1	218
424.934	1	210
425.104	1	229
425.275	1	187
425.445	1	218
425.616	1	215
425.787	1	212
425.957	1	217
426.128	1	207
426.298	1	211
426.469	1	215
426.640	1	194
426.810	1	208
426.981	1	214
427.151	1	209
427.322	1	204
427.493	1	201
427.663	1	210
427.834	1	212
428.004	1	218
428.175	1	216
428.345	1	193
428.516	1	211
428.687	1	219
428.857	1	212
429.028	1	207
429.198	1	204
429.369	1	213
429.540	1	222
429.710	1	212
429.881	1	207
430.051	1	204
430.222	1	203
430.392	1	211
430.563	1	203
430.734	1	212
430.904	1	212
431.075	1	204
431.245	1	206
431.416	1	209
431.586	1	211
431.757	1	220
431.927	1	193
432.098	1	212
432.269	1	214
432.439	1	200
432.610	1	214
432.780	1	204
432.951	1	209
433.121	1	205
433.292	1	220
433.462	1	214
433.633	1	199
433.804	1	218
433.974	1	208
434.145	1	215
434.315	1	210
434.486	1	203
434.656	1	216
434.827	1	209
434.997	1	215
435.168	1	213
435.339	1	215
435.509	1	193
435.680	1	202
435.850	1	192
436.021	1	196
436.191	1	198
436.362	1	202
436.532	1	202
436.703	1	204
436.873	1	195
437.044	1	199
437.214	1	192
437.385	1	191
437.556	1	194
437.726	1	199
437.897	1	195
438.067	1	182
438.238	1	190
438.408	1	201
438.579	1	178
438.749	1	186
438.920	1	187
439.090	1	191
439.261	1	192
439.431	1	178
439.602	1	179
439.772	1	185
439.943	1	172
440.113	1	173
440.284	1	196
440.455	1	173
440.625	1	197
440.796	1	176
440.966	1	181
441.137	1	187
441.307	1	182
441.478	1	172
441.648	1	175
441.819	1	179
441.989	1	192
442.160	1	179
442.330	1	190
442.501	1	185
442.671	1	186
442.842	1	193
443.012	1	179
443.183	1	177
443.353	1	175
443.524	1	185
443.694	1	192
443.865	1	190
444.035	1	184
444.206	1	177
444.376	1	191
444.547	1	179
444.717	1	186
444.888	1	161
445.058	1	188
445.229	1	177
445.399	1	183
445.570	1	179
445.740	1	180
445.911	1	181
446.081	1	181
446.252	1	167
446.422	1	174
446.593	1	172
446.763	1	190
446.934	1	177
447.104	1	177
447.275	1	178
447.445	1	172
447.616	1	166
447.786	1	176
447.957	1	181
448.127	1	180
448.298	1	183
448.468	1	194
448.639	1	166
448.809	1	159
448.979	1	179
449.150	1	180
449.320	1	164
449.491	1	168
449.661	1	168
449.832	1	165
450.002	1	163
450.173	1	185
450.343	1	168
450.514	1	160
450.684	1	172
450.855	1	155
451.025	1	153
451.196	1	167
451.366	1	173
451.537	1	178
451.707	1	184
451.878	1	159
452.048	1	146
452.218	1	147
452.389	1	166
452.559	1	168
452.730	1	147
452.900	1	155
453.071	1	162
453.241	1	159
453.412	1	162
453.582	1	159
453.753	1	159
453.923	1	158
454.093	1	140
454.264	1	177
454.434	1	156
454.605	1	142
454.775	1	163
454.946	1	149
455.116	1	160
455.287	1	141
455.457	1	151
455.628	1	141
455.798	1	170
455.968	1	142
456.139	1	143
456.309	1	140
456.480	1	136
456.650	1	137
456.821	1	140
456.991	1	146
457.161	1	143
457.332	1	135
457.502	1	131
457.673	1	145
457.843	1	149
458.014	1	140
458.184	1	157
458.355	1	132
458.525	1	144
458.695	1	140
458.866	1	130
459.036	1	143
459.207	1	148
459.377	1	167
459.548	1	145
459.718	1	139
459.888	1	138
460.059	1	134
460.229	1	133
460.400	1	147
460.570	1	136
460.740	1	152
460.911	1	135
461.081	1	135
461.252	1	144
461.422	1	125
461.593	1	129
461.763	1	138
461.933	1	142
462.104	1	124
462.274	1	138
462.445	1	140
462.615	1	145
462.785	1	146
462.956	1	126
463.126	1	138
463.297	1	127
463.467	1	145
463.638	1	141
463.808	1	137
463.978	1	125
464.149	1	126
464.319	1	144
464.490	1	122
464.660	1	126
464.830	1	115
465.001	1	123
465.171	1	115
465.342	1	118
465.512	1	123
465.682	1	115
465.853	1	115
466.023	1	124
466.194	1	123
466.364	1	124
466.534	1	115
466.705	1	137
466.875	1	107
467.045	1	114
467.216	1	124
467.386	1	111
467.557	1	119
467.727	1	124
467.897	1	122
468.068	1	114
468.238	1	113
468.409	1	119
468.579	1	118
468.749	1	110
468.920	1	103
469.090	1	108
469.260	1	104
469.431	1	112
469.601	1	121
469.772	1	111
469.942	1	112
470.112	1	98
470.283	1	120
470.453	1	112
470.623	1	109
470.794	1	105
470.964	1	109
471.135	1	119
471.305	1	103
471.475	1	105
471.646	1	125
471.816	1	112
471.986	1	100
472.157	1	110
472.327	1	118
472.497	1	102
472.668	1	107
472.838	1	112
473.009	1	104
473.179	1	109
473.349	1	100
473.520	1	117
473.690	1	105
473.860	1	108
474.031	1	106
474.201	1	114
474.371	1	120
474.542	1	104
474.712	1	113
474.882	1	111
475.053	1	108
475.223	1	109
475.394	1	102
475.564	1	115
475.734	1	107
475.905	1	105
476.075	1	119
476.245	1	101
476.416	1	106
476.586	1	104
476.756	1	105
476.927	1	108
477.097	1	108
477.267	1	100
477.438	1	116
477.608	1	107
477.778	1	97
477.949	1	105
478.119	1	100
478.289	1	99
478.460	1	89
478.630	1	107
478.800	1	107
478.971	1	92
479.141	1	107
479.311	1	107
479.482	1	103
479.652	1	98
479.822	1	108
479.993	1	92
480.163	1	106
480.333	1	96
480.504	1	103
480.674	1	105
480.844	1	102
481.015	1	108
481.185	1	102
481.355	1	92
481.525	1	88
481.696	1	83
481.866	1	100
482.036	1	99
482.207	1	99
482.377	1	96
482.547	1	97
482.718	1	91
482.888	1	103
483.058	1	102
483.229	1	88
483.399	1	100
483.569	1	92
483.740	1	91
483.910	1	89
484.080	1	95
484.250	1	89
484.421	1	83
484.591	1	89
484.761	1	99
484.932	1	88
485.102	1	95
485.272	1	82
485.443	1	80
485.613	1	83
485.783	1	92
485.953	1	80
486.124	1	82
486.294	1	89
486.464	1	79
486.635	1	85
486.805	1	73
486.975	1	88
487.146	1	89
487.316	1	96
487.486	1	89
487.656	1	88
487.827	1	89
487.997	1	73
488.167	1	78
488.338	1	81
488.508	1	82
488.678	1	80
488.848	1	77
489.019	1	80
489.189	1	97
489.359	1	77
489.529	1	78
489.700	1	61
489.870	1	82
490.040	1	82
490.211	1	85
490.381	1	70
490.551	1	77
490.721	1	91
490.892	1	74
491.062	1	81
491.232	1	84
491.402	1	75
491.573	1	87
491.743	1	75
491.913	1	77
492.084	1	86
492.254	1	75
492.424	1	71
492.594	1	69
492.765	1	86
492.935	1	80
493.105	1	86
493.275	1	86
493.446	1	80
493.616	1	53
493.786	1	73
493.956	1	76
494.127	1	81
494.297	1	59
494.467	1	69
494.637	1	78
494.808	1	78
494.978	1	75
495.148	1	79
495.318	1	81
495.489	1	81
495.659	1	83
495.829	1	76
495.999	1	75
496.170	1	73
496.340	1	71
496.510	1	77
496.680	1	74
496.851	1	83
497.021	1	67
497.191	1	64
497.361	1	61
497.532	1	61
497.702	1	77
497.872	1	63
498.042	1	59
498.213	1	68
498.383	1	69
498.553	1	80
498.723	1	64
498.894	1	75
499.064	1	73
499.234	1	79
499.404	1	66
499.574	1	72
499.745	1	66
499.915	1	65
500.085	1	70
500.255	1	60
500.426	1	64
500.596	1	58
500.766	1	50
500.936	1	68
501.106	1	55
501.277	1	46
501.447	1	68
501.617	1	68
501.787	1	65
501.958	1	63
502.128	1	66
502.298	1	54
502.468	1	56
502.638	1	60
502.809	1	57
502.979	1	65
503.149	1	61
503.319	1	73
503.489	1	48
503.660	1	66
503.830	1	58
504.000	1	66
504.170	1	49
504.340	1	63
504.511	1	52
504.681	1	59
504.851	1	48
505.021	1	55
505.192	1	45
505.362	1	58
505.532	1	49
505.702	1	64
505.872	1	58
506.043	1	65
506.213	1	64
506.383	1	56
506.553	1	62
506.723	1	53
506.893	1	54
507.064	1	69
507.234	1	53
507.404	1	47
507.574	1	56
507.744	1	62
507.915	1	50
508.085	1	64
508.255	1	65
508.425	1	47
508.595	1	48
508.766	1	49
508.936	1	62
509.106	1	50
509.276	1	56
509.446	1	48
509.616	1	66
509.787	1	49
509.957	1	53
510.127	1	51
510.297	1	48
510.467	1	54
510.638	1	52
510.808	1	53
510.978	1	47
511.148	1	52
511.318	1	52
511.488	1	59
511.659	1	59
511.829	1	52
511.999	1	57
512.169	1	61
512.339	1	60
512.509	1	53
512.680	1	44
512.850	1	55
513.020	1	51
513.190	1	38
513.360	1	52
513.530	1	57
513.700	1	52
513.871	1	47
514.041	1	47
514.211	1	62
514.381	1	49
514.551	1	52
514.721	1	48
514.892	1	52
515.062	1	47
515.232	1	49
515.402	1	59
515.572	1	49
515.742	1	46
515.912	1	58
516.083	1	56
516.253	1	55
516.423	1	50
516.593	1	46
516.763	1	47
516.933	1	53
517.104	1	49
517.274	1	47
517.444	1	52
517.614	1	49
517.784	1	44
517.954	1	41
518.124	1	40
518.294	1	54
518.465	1	46
518.635	1	45
518.805	1	44
518.975	1	57
519.145	1	44
519.315	1	52
519.485	1	47
519.656	1	36
519.826	1	35
519.996	1	46
520.166	1	40
520.336	1	32
520.506	1	35
520.676	1	49
520.846	1	52
521.017	1	44
521.187	1	46
521.357	1	40
521.527	1	34
521.697	1	42
521.867	1	53
522.037	1	40
522.207	1	47
522.377	1	54
522.548	1	35
522.718	1	39
522.888	1	47
523.058	1	40
523.228	1	32
523.398	1	34
523.568	1	33
523.738	1	31
523.909	1	40
524.079	1	49
524.249	1	41
524.419	1	45
524.589	1	43
524.759	1	45
524.929	1	42
525.099	1	35
525.269	1	42
525.439	1	37
525.610	1	37
525.780	1	40
525.950	1	42
526.120	1	30
526.290	1	40
526.460	1	28
526.630	1	45
526.800	1	43
526.970	1	45
527.140	1	36
527.311	1	32
527.481	1	52
527.651	1	36
527.821	1	33
527.991	1	38
528.161	1	44
528.331	1	31
528.501	1	39
528.671	1	41
528.841	1	37
529.011	1	47
529.181	1	31
529.352	1	44
529.522	1	36
529.692	1	42
529.862	1	34
530.032	1	30
530.202	1	27
530.372	1	33
530.542	1	35
530.712	1	36
530.882	1	34
531.052	1	43
531.222	1	39
531.392	1	45
531.563	1	43
531.733	1	35
531.903	1	38
532.073	1	32
532.243	1	37
532.413	1	46
532.583	1	44
532.753	1	23
532.923	1	43
533.093	1	30
533.263	1	42
533.433	1	38
533.603	1	41
533.773	1	40
533.943	1	41
534.113	1	33
534.284	1	36
534.454	1	24
534.624	1	31
534.794	1	39
534.964	1	42
535.134	1	30
535.304	1	40
535.474	1	35
535.644	1	31
535.814	1	36
535.984	1	45
536.154	1	35
536.324	1	35
536.494	1	34
536.664	1	33
536.834	1	27
537.004	1	43
537.174	1	49
537.344	1	33
537.514	1	26
537.685	1	48
537.855	1	41
538.025	1	48
538.195	1	30
538.365	1	35
538.535	1	32
538.705	1	40
538.875	1	32
539.045	1	30
539.215	1	30
539.385	1	33
539.555	1	34
539.725	1	22
539.895	1	44
540.065	1	31
540.235	1	31
540.405	1	29
540.575	1	30
540.745	1	38
540.915	1	33
541.085	1	25
541.255	1	26
541.425	1	31
541.595	1	31
541.765	1	38
541.935	1	25
542.105	1	34
542.275	1	30
542.445	1	34
542.615	1	34
542.785	1	29
542.955	1	48
543.125	1	21
543.295	1	27
543.465	1	34
543.635	1	19
543.805	1	38
543.975	1	24
544.145	1	28
544.315	1	22
544.485	1	34
544.655	1	31
544.825	1	31
544.995	1	22
545.165	1	31
545.335	1	30
545.505	1	32
545.675	1	37
545.845	1	34
546.015	1	17
546.185	1	29
546.355	1	24
546.525	1	27
546.695	1	22
546.865	1	32
547.035	1	25
547.205	1	45
547.375	1	35
547.545	1	41
547.715	1	28
547.885	1	23
548.055	1	21
548.225	1	27
548.395	1	32
548.565	1	33
548.735	1	14
548.905	1	35
549.075	1	31
549.245	1	29
549.415	1	33
549.585	1	30
549.755	1	31
549.925	1	23
550.095	1	20
550.265	1	31
550.435	1	14
550.605	1	33
550.775	1	21
550.945	1	31
551.115	1	35
551.285	1	22
551.455	1	34
551.625	1	24
551.795	1	9
551.965	1	24
552.135	1	20
552.305	1	29
552.475	1	27
552.645	1	28
552.815	1	32
552.985	1	27
553.155	1	13
553.325	1	21
553.495	1	30
553.665	1	20
553.835	1	17
554.004	1	30
554.174	1	19
554.344	1	26
554.514	1	33
554.684	1	35
554.854	1	16
555.024	1	30
555.194	1	21
555.364	1	24
555.534	1	19
555.704	1	26
555.874	1	27
556.044	1	22
556.214	1	28
556.384	1	26
556.554	1	22
556.724	1	21
556.894	1	20
557.064	1	20
557.234	1	21
557.404	1	17
557.573	1	25
557.743	1	16
557.913	1	15
558.083	1	25
558.253	1	14
558.423	1	11
558.593	1	26
558.763	1	15
558.933	1	15
559.103	1	12
559.273	1	31
559.443	1	32
559.613	1	17
559.783	1	23
559.953	1	14
560.122	1	19
560.292	1	18
560.462	1	11
560.632	1	10
560.802	1	28
560.972	1	15
561.142	1	24
561.312	1	24
561.482	1	20
561.652	1	16
561.822	1	18
561.992	1	22
562.162	1	18
562.331	1	7
562.501	1	15
562.671	1	11
562.841	1	5
563.011	1	17
563.181	1	8
563.351	1	16
563.521	1	18
563.691	1	18
563.861	1	17
564.031	1	18
564.201	1	20
564.370	1	31
564.540	1	9
564.710	1	18
564.880	1	26
565.050	1	22
565.220	1	27
565.390	1	22
565.560	1	22
565.730	1	13
565.900	1	25
566.069	1	26
566.239	1	27
566.409	1	22
566.579	1	18
566.749	1	10
566.919	1	10
567.089	1	2
567.259	1	21
567.429	1	3
567.599	1	20
567.768	1	13
567.938	1	24
568.108	1	16
568.278	1	13
568.448	1	10
568.618	1	19
568.788	1	23
568.958	1	16
569.128	1	16
569.297	1	14
569.467	1	24
569.637	1	23
569.807	1	23
569.977	1	22
570.147	1	17
570.317	1	16
570.487	1	16
570.656	1	16
570.826	1	13
570.996	1	22
571.166	1	18
571.336	1	21
571.506	1	19
571.676	1	16
571.846	1	19
572.015	1	23
572.185	1	17
572.355	1	10
572.525	1	8
572.695	1	15
572.865	1	18
573.035	1	19
573.205	1	19
573.374	1	13
573.544	1	15
573.714	1	18
573.884	1	10
574.054	1	14
574.224	1	10
574.394	1	10
574.563	1	12
574.733	1	21
574.903	1	18
575.073	1	21
575.243	1	8
575.413	1	12
575.583	1	7
575.752	1	18
575.922	1	21
576.092	1	11
576.262	1	19
576.432	1	15
576.602	1	20
576.772	1	12
576.941	1	24
577.111	1	14
577.281	1	13
577.451	1	22
577.621	1	15
577.791	1	20
577.960	1	13
578.130	1	23
578.300	1	16
578.470	1	10
578.640	1	15
578.810	1	12
578.979	1	20
579.149	1	13
579.319	1	9
579.489	1	24
579.659	1	10
579.829	1	14
579.998	1	4
580.168	1	8
580.338	1	16
580.508	1	7
580.678	1	12
580.848	1	17
581.017	1	16
581.187	1	24
581.357	1	17
581.527	1	13
581.697	1	13
581.867	1	13
582.036	1	8
582.206	1	14
582.376	1	11
582.546	1	18
582.716	1	23
582.885	1	15
583.055	1	3
583.225	1	8
583.395	1	14
583.565	1	33
583.735	1	16
583.904	1	19
584.074	1	19
584.244	1	8
584.414	1	7
584.584	1	16
584.753	1	17
584.923	1	19
585.093	1	13
585.263	1	15
585.433	1	7
585.602	1	16
585.772	1	25
585.942	1	18
586.112	1	18
586.282	1	16
586.451	1	25
586.621	1	6
586.791	1	15
586.961	1	8
587.131	1	16
587.300	1	19
587.470	1	11
587.640	1	16
587.810	1	3
587.980	1	27
588.149	1	22
588.319	1	26
588.489	1	24
588.659	1	9
588.829	1	18
588.998	1	19
589.168	1	18
589.338	1	10
589.508	1	15
589.677	1	17
589.847	1	15
590.017	1	11
590.187	1	11
590.357	1	7
590.526	1	19
590.696	1	18
590.866	1	13
591.036	1	18
591.205	1	15
591.375	1	16
591.545	1	8
591.715	1	12
591.885	1	16
592.054	1	19
592.224	1	12
592.394	1	3
592.564	1	21
592.733	1	18
592.903	1	8
593.073	1	2
593.243	1	21
593.412	1	18
593.582	1	12
593.752	1	4
593.922	1	19
594.091	1	20
594.261	1	4
594.431	1	20
594.601	1	16
594.771	1	4
594.940	1	24
595.110	1	21
595.280	1	18
595.450	1	19
595.619	1	13
595.789	1	16
595.959	1	15
596.129	1	22
596.298	1	16
596.468	1	12
596.638	1	17
596.808	1	8
596.977	1	10
597.147	1	13
597.317	1	7
597.487	1	18
597.656	1	14
597.826	1	16
597.996	1	10
598.166	1	19
598.335	1	20
598.505	1	14
598.675	1	20
598.844	1	29
599.014	1	10
599.184	1	22
599.354	1	29
599.523	1	9
599.693	1	15
599.863	1	19
600.033	1	20
600.202	1	6
600.372	1	12
600.542	1	16
600.712	1	14
600.881	1	16
601.051	1	12
601.221	1	15
601.390	1	12
601.560	1	18
601.730	1	20
601.900	1	21
602.069	1	23
602.239	1	16
602.409	1	18
602.578	1	20
602.748	1	21
602.918	1	11
603.088	1	18
603.257	1	9
603.427	1	20
603.597	1	23
603.767	1	18
603.936	1	16
604.106	1	21
604.276	1	17
604.445	1	13
604.615	1	17
604.785	1	19
604.954	1	13
605.124	1	25
605.294	1	13
605.464	1	13
605.633	1	29
605.803	1	31
605.973	1	16
606.142	1	36
606.312	1	26
606.482	1	7
606.652	1	22
606.821	1	13
606.991	1	18
607.161	1	17
607.330	1	13
607.500	1	19
607.670	1	16
607.839	1	22
608.009	1	10
608.179	1	23
608.348	1	27
608.518	1	24
608.688	1	6
608.858	1	26
609.027	1	21
609.197	1	27
609.367	1	14
609.536	1	-1
609.706	1	31
609.876	1	22
610.045	1	19
610.215	1	26
610.385	1	21
610.554	1	23
610.724	1	30
610.894	1	23
611.063	1	28
611.233	1	25
611.403	1	13
611.572	1	26
611.742	1	13
611.912	1	22
612.081	1	33
612.251	1	19
612.421	1	16
612.590	1	28
612.760	1	19
612.930	1	19
613.099	1	23
613.269	1	18
613.439	1	13
613.608	1	14
613.778	1	19
613.948	1	27
614.117	1	19
614.287	1	10
614.457	1	21
614.626	1	16
614.796	1	29
614.966	1	18
615.135	1	30
615.305	1	23
615.475	1	13
615.644	1	21
615.814	1	23
615.984	1	10
616.153	1	15
616.323	1	11
616.493	1	21
616.662	1	19
616.832	1	14
617.002	1	24
617.171	1	24
617.341	1	22
617.511	1	16
617.680	1	10
617.850	1	22
618.019	1	25
618.189	1	30
618.359	1	21
618.528	1	27
618.698	1	25
618.868	1	25
619.037	1	20
619.207	1	11
619.377	1	24
619.546	1	29
619.716	1	24
619.885	1	27
620.055	1	17
620.225	1	33
620.394	1	34
620.564	1	17
620.734	1	29
620.903	1	15
621.073	1	26
621.242	1	25
621.412	1	30
621.582	1	20
621.751	1	25
621.921	1	29
622.091	1	18
622.260	1	32
622.430	1	28
622.599	1	12
622.769	1	26
622.939	1	25
623.108	1	27
623.278	1	25
623.448	1	20
623.617	1	19
623.787	1	21
623.956	1	27
624.126	1	25
624.296	1	26
624.465	1	32
624.635	1	23
624.804	1	12
624.974	1	25
625.144	1	27
625.313	1	28
625.483	1	29
625.652	1	28
625.822	1	37
625.992	1	30
626.161	1	22
626.331	1	20
626.501	1	27
626.670	1	15
626.840	1	39
627.009	1	29
627.179	1	17
627.348	1	20
627.518	1	38
627.688	1	12
627.857	1	28
628.027	1	28
628.196	1	21
628.366	1	13
628.536	1	30
628.705	1	24
628.875	1	14
629.044	1	34
629.214	1	33
629.384	1	35
629.553	1	18
629.723	1	22
629.892	1	26
630.062	1	29
630.232	1	27
630.401	1	42
630.571	1	25
630.740	1	20
630.910	1	39
631.079	1	33
631.249	1	18
631.419	1	29
631.588	1	27
631.758	1	18
631.927	1	36
632.097	1	30
632.266	1	36
632.436	1	29
632.606	1	26
632.775	1	35
632.945	1	35
633.114	1	22
633.284	1	32
633.453	1	35
633.623	1	39
633.793	1	28
633.962	1	30
634.132	1	32
634.301	1	37
634.471	1	31
634.640	1	24
634.810	1	40
634.979	1	20
635.149	1	27
635.319	1	22
635.488	1	32
635.658	1	27
635.827	1	28
635.997	1	26
636.166	1	37
636.336	1	26
636.505	1	30
636.675	1	20
636.845	1	30
637.014	1	31
637.184	1	33
637.353	1	31
637.523	1	30
637.692	1	29
637.862	1	26
638.031	1	27
638.201	1	32
638.370	1	24
638.540	1	28
638.710	1	14
638.879	1	16
639.049	1	31
639.218	1	36
639.388	1	24
639.557	1	34
639.727	1	35
639.896	1	33
640.066	1	26
640.235	1	26
640.405	1	32
640.574	1	44
640.744	1	33
640.914	1	34
641.083	1	52
641.253	1	23
641.422	1	25
641.592	1	37
641.761	1	25
641.931	1	33
642.100	1	33
642.270	1	37
642.439	1	31
642.609	1	34
642.778	1	33
642.948	1	41
643.117	1	25
643.287	1	29
643.456	1	24
643.626	1	15
643.795	1	27
643.965	1	35
644.134	1	32
644.304	1	28
644.473	1	28
644.643	1	34
644.812	1	36
644.982	1	38
645.151	1	28
645.321	1	36
645.490	1	43
645.660	1	29
645.829	1	46
645.999	1	27
646.168	1	50
646.338	1	33
646.507	1	39
646.677	1	42
646.846	1	31
647.016	1	46
647.185	1	37
647.355	1	43
647.524	1	26
647.694	1	26
647.863	1	37
648.033	1	38
648.202	1	39
648.372	1	28
648.541	1	35
648.711	1	36
648.880	1	30
649.050	1	35
649.219	1	33
649.389	1	36
649.558	1	39
649.728	1	35
649.897	1	49
650.067	1	40
650.236	1	34
650.406	1	34
650.575	1	44
650.745	1	37
650.914	1	41
651.084	1	33
651.253	1	31
651.423	1	28
651.592	1	43
651.762	1	34
651.931	1	33
652.101	1	22
652.270	1	45
652.440	1	44
652.609	1	35
652.778	1	28
652.948	1	35
653.117	1	32
653.287	1	30
653.456	1	33
653.626	1	35
653.795	1	37
653.965	1	24
654.134	1	25
654.304	1	36
654.473	1	38
654.643	1	33
654.812	1	46
654.982	1	41
655.151	1	41
655.320	1	38
655.490	1	26
655.659	1	40
655.829	1	48
655.998	1	36
656.168	1	38
656.337	1	41
656.507	1	35
656.676	1	25
656.846	1	40
657.015	1	46
657.184	1	43
657.354	1	46
657.523	1	41
657.693	1	47
657.862	1	35
658.032	1	32
658.201	1	30
658.371	1	38
658.540	1	37
658.709	1	41
658.879	1	47
659.048	1	44
659.218	1	27
659.387	1	50
659.557	1	42
659.726	1	44
659.895	1	36
660.065	1	39
660.234	1	39
660.404	1	55
660.573	1	40
660.743	1	40
660.912	1	34
661.081	1	36
661.251	1	34
661.420	1	47
661.590	1	45
661.759	1	43
661.929	1	41
662.098	1	43
662.267	1	30
662.437	1	46
662.606	1	39
662.776	1	34
662.945	1	46
663.115	1	54
663.284	1	46
663.453	1	36
663.623	1	45
663.792	1	48
663.962	1	47
664.131	1	29
664.300	1	30
664.470	1	45
664.639	1	48
664.809	1	45
664.978	1	55
665.148	1	46
665.317	1	37
665.486	1	44
665.656	1	39
665.825	1	53
665.995	1	35
666.164	1	34
666.333	1	45
666.503	1	37
666.672	1	54
666.842	1	41
667.011	1	42
667.180	1	42
667.350	1	35
667.519	1	47
667.689	1	31
667.858	1	48
668.027	1	47
668.197	1	26
668.366	1	39
668.536	1	38
668.705	1	32
668.874	1	50
669.044	1	43
669.213	1	45
669.382	1	36
669.552	1	48
669.721	1	37
669.891	1	42
670.060	1	40
670.229	1	36
670.399	1	49
670.568	1	50
670.738	1	44
670.907	1	38
671.076	1	46
671.246	1	40
671.415	1	48
671.584	1	46
671.754	1	45
671.923	1	42
672.093	1	42
672.262	1	30
672.431	1	51
672.601	1	50
672.770	1	46
672.939	1	49
673.109	1	44
673.278	1	40
673.448	1	48
673.617	1	44
673.786	1	32
