325.333	1	6
325.504	1	-3
325.675	1	7
325.846	1	7
326.017	1	4
326.188	1	-3
326.359	1	2
326.531	1	-9
326.702	1	2
326.873	1	7
327.044	1	-1
327.215	1	-5
327.386	1	5
327.557	1	-6
327.728	1	0
327.899	1	-3
328.070	1	10
328.241	1	0
328.412	1	2
328.583	1	-4
328.754	1	9
328.926	1	5
329.097	1	-4
329.268	1	8
329.439	1	6
329.610	1	-7
329.781	1	3
329.952	1	5
330.123	1	-8
330.294	1	-3
330.465	1	-11
330.636	1	5
330.807	1	1
330.978	1	0
331.149	1	2
331.320	1	-1
331.492	1	-5
331.663	1	0
331.834	1	9
332.005	1	15
332.176	1	4
332.347	1	-2
332.518	1	-1
332.689	1	-4
332.860	1	-1
333.031	1	5
333.202	1	-1
333.373	1	6
333.544	1	10
333.715	1	-5
333.886	1	-1
334.057	1	2
334.228	1	3
334.399	1	-4
334.570	1	-5
334.741	1	2
334.912	1	6
335.084	1	11
335.255	1	4
335.426	1	5
335.597	1	-2
335.768	1	2
335.939	1	-7
336.110	1	3
336.281	1	-8
336.452	1	9
336.623	1	-5
336.794	1	10
336.965	1	-6
337.136	1	11
337.307	1	-7
337.478	1	8
337.649	1	-12
337.820	1	-5
337.991	1	1
338.162	1	1
338.333	1	3
338.504	1	4
338.675	1	1
338.846	1	-17
339.017	1	0
339.188	1	5
339.359	1	2
339.530	1	0
339.701	1	7
339.872	1	11
340.043	1	4
340.214	1	-1
340.385	1	-10
340.556	1	14
340.727	1	9
340.898	1	8
341.069	1	-3
341.240	1	-11
341.411	1	8
341.582	1	-5
341.753	1	0
341.924	1	3
342.095	1	1
342.266	1	10
342.437	1	3
342.608	1	4
342.779	1	2
342.950	1	-3
343.121	1	-7
343.292	1	3
343.463	1	9
343.634	1	1
343.805	1	2
343.976	1	10
344.147	1	-1
344.318	1	-6
344.489	1	0
344.660	1	13
344.831	1	7
345.002	1	3
345.173	1	-3
345.344	1	-3
345.515	1	-3
345.686	1	2
345.857	1	9
346.028	1	2
346.199	1	8
346.370	1	2
346.541	1	6
346.712	1	-1
346.883	1	-9
347.054	1	3
347.225	1	1
347.396	1	-1
347.567	1	-7
347.738	1	5
347.909	1	4
348.080	1	8
348.251	1	1
348.422	1	4
348.593	1	3
348.764	1	4
348.935	1	6
349.106	1	-5
349.277	1	3
349.448	1	8
349.619	1	0
349.790	1	0
349.961	1	-3
350.132	1	10
350.303	1	5
350.474	1	1
350.645	1	-3
350.816	1	5
350.987	1	14
351.157	1	6
351.328	1	-7
351.499	1	9
351.670	1	7
351.841	1	2
352.012	1	4
352.183	1	14
352.354	1	2
352.525	1	0
352.696	1	-2
352.867	1	9
353.038	1	9
353.209	1	-8
353.380	1	9
353.551	1	3
353.722	1	1
353.893	1	2
354.064	1	9
354.235	1	-5
354.406	1	-16
354.576	1	-2
354.747	1	11
354.918	1	5
355.089	1	9
355.260	1	3
355.431	1	-7
355.602	1	4
355.773	1	6
355.944	1	0
356.115	1	10
356.286	1	7
356.457	1	9
356.628	1	9
356.799	1	2
356.970	1	12
357.141	1	14
357.311	1	14
357.482	1	-1
357.653	1	-4
357.824	1	0
357.995	1	12
358.166	1	14
358.337	1	1
358.508	1	5
358.679	1	5
358.850	1	17
359.021	1	21
359.192	1	4
359.363	1	-2
359.533	1	-5
359.704	1	-7
359.875	1	2
360.046	1	3
360.217	1	8
360.388	1	17
360.559	1	13
360.730	1	-4
360.901	1	10
361.072	1	10
361.243	1	7
361.414	1	12
361.584	1	8
361.755	1	3
361.926	1	11
362.097	1	-3
362.268	1	21
362.439	1	-2
362.610	1	3
362.781	1	1
362.952	1	3
363.123	1	-4
363.293	1	4
363.464	1	6
363.635	1	13
363.806	1	3
363.977	1	9
364.148	1	12
364.319	1	4
364.490	1	13
364.661	1	11
364.832	1	11
365.002	1	9
365.173	1	10
365.344	1	-1
365.515	1	9
365.686	1	14
365.857	1	7
366.028	1	15
366.199	1	14
366.370	1	6
366.540	1	0
366.711	1	2
366.882	1	4
367.053	1	7
367.224	1	20
367.395	1	6
367.566	1	5
367.737	1	8
367.908	1	6
368.078	1	7
368.249	1	7
368.420	1	2
368.591	1	7
368.762	1	5
368.933	1	0
369.104	1	0
369.274	1	10
369.445	1	17
369.616	1	9
369.787	1	2
369.958	1	2
370.129	1	3
370.300	1	5
370.471	1	7
370.641	1	11
370.812	1	15
370.983	1	5
371.154	1	5
371.325	1	-4
371.496	1	2
371.667	1	14
371.837	1	4
372.008	1	-2
372.179	1	-1
372.350	1	12
372.521	1	10
372.692	1	10
372.863	1	8
373.033	1	-7
373.204	1	10
373.375	1	5
373.546	1	4
373.717	1	1
373.888	1	10
374.059	1	-1
374.229	1	7
374.400	1	-1
374.571	1	2
374.742	1	10
374.913	1	-1
375.084	1	6
375.254	1	-7
375.425	1	6
375.596	1	3
375.767	1	11
375.938	1	6
376.109	1	4
376.279	1	6
376.450	1	2
376.621	1	12
376.792	1	13
376.963	1	3
377.134	1	-3
377.304	1	15
377.475	1	-5
377.646	1	-1
377.817	1	11
377.988	1	7
378.159	1	4
378.329	1	6
378.500	1	5
378.671	1	11
378.842	1	11
379.013	1	12
379.184	1	2
379.354	1	6
379.525	1	4
379.696	1	8
379.867	1	0
380.038	1	3
380.209	1	10
380.379	1	10
380.550	1	1
380.721	1	8
380.892	1	0
381.063	1	4
381.233	1	3
381.404	1	-3
381.575	1	0
381.746	1	11
381.917	1	0
382.087	1	6
382.258	1	6
382.429	1	11
382.600	1	7
382.771	1	3
382.941	1	9
383.112	1	0
383.283	1	5
383.454	1	11
383.625	1	16
383.795	1	13
383.966	1	17
384.137	1	14
384.308	1	15
384.479	1	9
384.649	1	9
384.820	1	3
384.991	1	4
385.162	1	6
385.333	1	2
385.503	1	6
385.674	1	5
385.845	1	14
386.016	1	14
386.187	1	-8
386.357	1	17
386.528	1	3
386.699	1	9
386.870	1	0
387.041	1	18
387.211	1	1
387.382	1	18
387.553	1	14
387.724	1	5
387.894	1	-5
388.065	1	14
388.236	1	11
388.407	1	6
388.578	1	8
388.748	1	6
388.919	1	2
389.090	1	19
389.261	1	8
389.431	1	-5
389.602	1	8
389.773	1	7
389.944	1	10
390.114	1	8
390.285	1	9
390.456	1	4
390.627	1	3
390.798	1	3
390.968	1	13
391.139	1	9
391.310	1	5
391.481	1	5
391.651	1	6
391.822	1	26
391.993	1	1
392.164	1	5
392.334	1	-8
392.505	1	14
392.676	1	2
392.847	1	11
393.017	1	15
393.188	1	15
393.359	1	25
393.530	1	21
393.700	1	6
393.871	1	17
394.042	1	2
394.213	1	1
394.383	1	6
394.554	1	0
394.725	1	5
394.896	1	15
395.066	1	8
395.237	1	7
395.408	1	14
395.579	1	14
395.749	1	12
395.920	1	12
396.091	1	3
396.262	1	2
396.432	1	0
396.603	1	10
396.774	1	4
396.945	1	13
397.115	1	11
397.286	1	12
397.457	1	6
397.627	1	-3
397.798	1	11
397.969	1	19
398.140	1	7
398.310	1	10
398.481	1	9
398.652	1	18
398.823	1	10
398.993	1	6
399.164	1	9
399.335	1	6
399.505	1	8
399.676	1	5
399.847	1	8
400.018	1	0
400.188	1	12
400.359	1	16
400.530	1	7
400.700	1	13
400.871	1	12
401.042	1	3
401.213	1	15
401.383	1	17
401.554	1	8
401.725	1	-2
401.895	1	-3
402.066	1	15
402.237	1	12
402.408	1	9
402.578	1	20
402.749	1	5
402.920	1	9
403.090	1	-2
403.261	1	1
403.432	1	9
403.603	1	11
403.773	1	9
403.944	1	10
404.115	1	17
404.285	1	20
404.456	1	14
404.627	1	17
404.797	1	6
404.968	1	8
405.139	1	13
405.310	1	6
405.480	1	13
405.651	1	7
405.822	1	8
405.992	1	15
406.163	1	6
406.334	1	8
406.504	1	7
406.675	1	10
406.846	1	10
407.016	1	10
407.187	1	6
407.358	1	-1
407.528	1	5
407.699	1	6
407.870	1	20
408.041	1	11
408.211	1	10
408.382	1	10
408.553	1	16
408.723	1	9
408.894	1	20
409.065	1	15
409.235	1	5
409.406	1	14
409.577	1	10
409.747	1	9
409.918	1	15
410.089	1	14
410.259	1	14
410.430	1	11
410.601	1	12
410.771	1	16
410.942	1	15
411.113	1	16
411.283	1	16
411.454	1	18
411.625	1	9
411.795	1	9
411.966	1	7
412.137	1	16
412.307	1	20
412.478	1	10
412.649	1	5
412.819	1	6
412.990	1	12
413.161	1	8
413.331	1	12
413.502	1	14
413.672	1	11
413.843	1	12
414.014	1	2
414.184	1	12
414.355	1	14
414.526	1	12
414.696	1	5
414.867	1	1
415.038	1	4
415.208	1	-2
415.379	1	6
415.550	1	20
415.720	1	2
415.891	1	19
416.062	1	6
416.232	1	18
416.403	1	22
416.573	1	5
416.744	1	15
416.915	1	18
417.085	1	17
417.256	1	10
417.427	1	6
417.597	1	3
417.768	1	21
417.939	1	2
418.109	1	7
418.280	1	9
418.450	1	18
418.621	1	9
418.792	1	10
418.962	1	6
419.133	1	18
419.304	1	6
419.474	1	8
419.645	1	7
419.815	1	15
419.986	1	7
420.157	1	5
420.327	1	4
420.498	1	5
420.669	1	25
420.839	1	20
421.010	1	5
421.180	1	7
421.351	1	9
421.522	1	9
421.692	1	17
421.863	1	10
422.033	1	7
422.204	1	16
422.375	1	17
422.545	1	11
422.716	1	-2
422.886	1	7
423.057	1	7
423.228	1	9
423.398	1	13
423.569	1	11
423.740	1	4
423.910	1	9
424.081	1	11
424.251	1	6
424.422	1	6
424.593	1	8
424.763	1	12
424.934	1	14
425.104	1	21
425.275	1	4
425.445	1	21
425.616	1	19
425.787	1	10
425.957	1	5
426.128	1	9
426.298	1	14
426.469	1	-1
426.640	1	3
426.810	1	-1
426.981	1	16
427.151	1	1
427.322	1	10
427.493	1	13
427.663	1	5
427.834	1	5
428.004	1	13
428.175	1	6
428.345	1	7
428.516	1	5
428.687	1	20
428.857	1	19
429.028	1	4
429.198	1	7
429.369	1	13
429.540	1	19
429.710	1	12
429.881	1	5
430.051	1	3
430.222	1	20
430.392	1	12
430.563	1	1
430.734	1	5
430.904	1	17
431.075	1	11
431.245	1	17
431.416	1	4
431.586	1	2
431.757	1	11
431.927	1	2
432.098	1	19
432.269	1	1
432.439	1	7
432.610	1	12
432.780	1	1
432.951	1	4
433.121	1	3
433.292	1	11
433.462	1	6
433.633	1	11
433.804	1	7
433.974	1	12
434.145	1	5
434.315	1	6
434.486	1	1
434.656	1	12
434.827	1	5
434.997	1	16
435.168	1	15
435.339	1	25
435.509	1	9
435.680	1	7
435.850	1	2
436.021	1	0
436.191	1	10
436.362	1	12
436.532	1	11
436.703	1	11
436.873	1	2
437.044	1	15
437.214	1	6
437.385	1	2
437.556	1	7
437.726	1	5
437.897	1	5
438.067	1	9
438.238	1	7
438.408	1	9
438.579	1	6
438.749	1	5
438.920	1	19
439.090	1	6
439.261	1	16
439.431	1	3
439.602	1	15
439.772	1	16
439.943	1	-1
440.113	1	8
440.284	1	6
440.455	1	4
440.625	1	5
440.796	1	12
440.966	1	6
441.137	1	9
441.307	1	5
441.478	1	3
441.648	1	6
441.819	1	19
441.989	1	15
442.160	1	16
442.330	1	14
442.501	1	-5
442.671	1	5
442.842	1	12
443.012	1	10
443.183	1	10
443.353	1	6
443.524	1	11
443.694	1	9
443.865	1	14
444.035	1	1
444.206	1	6
444.376	1	11
444.547	1	-2
444.717	1	4
444.888	1	2
445.058	1	3
445.229	1	1
445.399	1	12
445.570	1	11
445.740	1	11
445.911	1	8
446.081	1	1
446.252	1	10
446.422	1	3
446.593	1	0
446.763	1	12
446.934	1	2
447.104	1	4
447.275	1	13
447.445	1	12
447.616	1	12
447.786	1	5
447.957	1	3
448.127	1	4
448.298	1	11
448.468	1	2
448.639	1	1
448.809	1	-3
448.979	1	20
449.150	1	5
449.320	1	13
449.491	1	7
449.661	1	3
449.832	1	2
450.002	1	5
450.173	1	8
450.343	1	6
450.514	1	13
450.684	1	-2
450.855	1	17
451.025	1	10
451.196	1	0
451.366	1	13
451.537	1	16
451.707	1	10
451.878	1	-5
452.048	1	-2
452.218	1	5
452.389	1	20
452.559	1	23
452.730	1	13
452.900	1	6
453.071	1	12
453.241	1	7
453.412	1	4
453.582	1	11
453.753	1	8
453.923	1	-8
454.093	1	9
454.264	1	15
454.434	1	16
454.605	1	5
454.775	1	10
454.946	1	2
455.116	1	18
455.287	1	3
455.457	1	13
455.628	1	-10
455.798	1	14
455.968	1	12
456.139	1	16
456.309	1	5
456.480	1	7
456.650	1	13
456.821	1	-1
456.991	1	17
457.161	1	5
457.332	1	0
457.502	1	5
457.673	1	4
457.843	1	8
458.014	1	11
458.184	1	7
458.355	1	10
458.525	1	-4
458.695	1	6
458.866	1	-2
459.036	1	6
459.207	1	11
459.377	1	3
459.548	1	-4
459.718	1	8
459.888	1	-4
460.059	1	10
460.229	1	-2
460.400	1	4
460.570	1	-7
460.740	1	10
460.911	1	-1
461.081	1	14
461.252	1	9
461.422	1	-1
461.593	1	15
461.763	1	19
461.933	1	8
462.104	1	-3
462.274	1	-3
462.445	1	-1
462.615	1	3
462.785	1	14
462.956	1	5
463.126	1	2
463.297	1	7
463.467	1	18
463.638	1	8
463.808	1	8
463.978	1	-9
464.149	1	2
464.319	1	2
464.490	1	3
464.660	1	-1
464.830	1	5
465.001	1	8
465.171	1	-1
465.342	1	3
465.512	1	9
465.682	1	-1
465.853	1	8
466.023	1	13
466.194	1	15
466.364	1	12
466.534	1	-5
466.705	1	15
466.875	1	-5
467.045	1	-2
467.216	1	2
467.386	1	1
467.557	1	15
467.727	1	2
467.897	1	-1
468.068	1	-9
468.238	1	12
468.409	1	11
468.579	1	8
468.749	1	12
468.920	1	-9
469.090	1	7
469.260	1	5
469.431	1	0
469.601	1	12
469.772	1	18
469.942	1	5
470.112	1	-5
470.283	1	11
470.453	1	14
470.623	1	12
470.794	1	6
470.964	1	-11
471.135	1	4
471.305	1	7
471.475	1	13
471.646	1	8
471.816	1	7
471.986	1	3
472.157	1	8
472.327	1	9
472.497	1	1
472.668	1	-2
472.838	1	0
473.009	1	9
473.179	1	-2
473.349	1	-1
473.520	1	18
473.690	1	14
473.860	1	-8
474.031	1	-5
474.201	1	5
474.371	1	-1
474.542	1	2
474.712	1	0
474.882	1	5
475.053	1	5
475.223	1	5
475.394	1	3
475.564	1	8
475.734	1	4
475.905	1	6
476.075	1	14
476.245	1	10
476.416	1	1
476.586	1	-1
476.756	1	10
476.927	1	-2
477.097	1	-7
477.267	1	8
477.438	1	11
477.608	1	11
477.778	1	-1
477.949	1	-7
478.119	1	11
478.289	1	2
478.460	1	2
478.630	1	-7
478.800	1	5
478.971	1	-2
479.141	1	9
479.311	1	6
479.482	1	1
479.652	1	3
479.822	1	-2
479.993	1	-4
480.163	1	2
480.333	1	1
480.504	1	3
480.674	1	7
480.844	1	8
481.015	1	13
481.185	1	7
481.355	1	9
481.525	1	-9
481.696	1	1
481.866	1	-1
482.036	1	8
482.207	1	17
482.377	1	4
482.547	1	0
482.718	1	5
482.888	1	5
483.058	1	6
483.229	1	2
483.399	1	17
483.569	1	0
483.740	1	-6
483.910	1	-5
484.080	1	10
484.250	1	-3
484.421	1	-7
484.591	1	3
484.761	1	2
484.932	1	2
485.102	1	8
485.272	1	14
485.443	1	1
485.613	1	1
485.783	1	-4
485.953	1	0
486.124	1	-2
486.294	1	7
486.464	1	8
486.635	1	9
486.805	1	3
486.975	1	5
487.146	1	6
487.316	1	13
487.486	1	9
487.656	1	-1
487.827	1	5
487.997	1	-2
488.167	1	13
488.338	1	0
488.508	1	6
488.678	1	2
488.848	1	5
489.019	1	2
489.189	1	9
489.359	1	-3
489.529	1	4
489.700	1	-6
489.870	1	6
490.040	1	-4
490.211	1	-1
490.381	1	-1
490.551	1	6
490.721	1	4
490.892	1	-15
491.062	1	-7
491.232	1	6
491.402	1	-2
491.573	1	8
491.743	1	0
491.913	1	9
492.084	1	1
492.254	1	2
492.424	1	4
492.594	1	-2
492.765	1	4
492.935	1	10
493.105	1	3
493.275	1	-3
493.446	1	-7
493.616	1	-6
493.786	1	6
493.956	1	1
494.127	1	-6
494.297	1	-8
494.467	1	-2
494.637	1	-5
494.808	1	1
494.978	1	3
495.148	1	-1
495.318	1	3
495.489	1	-1
495.659	1	7
495.829	1	-6
495.999	1	7
496.170	1	-2
496.340	1	4
496.510	1	-2
496.680	1	4
496.851	1	6
497.021	1	7
497.191	1	10
497.361	1	-12
497.532	1	10
497.702	1	5
497.872	1	-5
498.042	1	1
498.213	1	-1
498.383	1	4
498.553	1	-1
498.723	1	-7
498.894	1	3
499.064	1	0
499.234	1	2
499.404	1	2
499.574	1	9
499.745	1	0
499.915	1	6
500.085	1	0
500.255	1	-6
500.426	1	-1
500.596	1	-6
500.766	1	-1
500.936	1	4
501.106	1	-7
501.277	1	1
501.447	1	8
501.617	1	0
501.787	1	-1
501.958	1	6
502.128	1	2
502.298	1	3
502.468	1	-9
502.638	1	-4
502.809	1	-1
502.979	1	-4
503.149	1	-2
503.319	1	11
503.489	1	-16
503.660	1	-14
503.830	1	1
504.000	1	2
504.170	1	-4
504.340	1	-7
504.511	1	-2
504.681	1	4
504.851	1	0
505.021	1	4
505.192	1	-12
505.362	1	-4
505.532	1	-2
505.702	1	17
505.872	1	4
506.043	1	3
506.213	1	5
506.383	1	3
506.553	1	1
506.723	1	-11
506.893	1	-1
507.064	1	3
507.234	1	-3
507.404	1	-2
507.574	1	-11
507.744	1	2
507.915	1	-2
508.085	1	-8
508.255	1	-2
508.425	1	-7
508.595	1	-1
508.766	1	-3
508.936	1	11
509.106	1	-3
509.276	1	-1
509.446	1	-3
509.616	1	-3
509.787	1	5
509.957	1	9
510.127	1	-3
510.297	1	-7
510.467	1	-3
510.638	1	5
510.808	1	8
510.978	1	0
511.148	1	2
511.318	1	0
511.488	1	-2
511.659	1	-2
511.829	1	-10
511.999	1	10
512.169	1	1
512.339	1	9
512.509	1	-4
512.680	1	4
512.850	1	-3
513.020	1	14
513.190	1	-13
513.360	1	-1
513.530	1	0
513.700	1	6
513.871	1	-5
514.041	1	5
514.211	1	5
514.381	1	4
514.551	1	-9
514.721	1	3
514.892	1	3
515.062	1	7
515.232	1	-3
515.402	1	-3
515.572	1	1
515.742	1	2
515.912	1	3
516.083	1	6
516.253	1	5
516.423	1	-1
516.593	1	-5
516.763	1	11
516.933	1	-5
517.104	1	1
517.274	1	-8
517.444	1	5
517.614	1	-5
517.784	1	5
517.954	1	1
518.124	1	-3
518.294	1	-2
518.465	1	0
518.635	1	10
518.805	1	6
518.975	1	7
519.145	1	7
519.315	1	1
519.485	1	-5
519.656	1	3
519.826	1	-4
519.996	1	14
520.166	1	-6
520.336	1	9
520.506	1	6
520.676	1	9
520.846	1	5
521.017	1	-2
521.187	1	-1
521.357	1	-9
521.527	1	-4
521.697	1	5
521.867	1	2
522.037	1	-3
522.207	1	5
522.377	1	2
522.548	1	-11
522.718	1	-1
522.888	1	2
523.058	1	1
523.228	1	-2
523.398	1	2
523.568	1	-6
523.738	1	5
523.909	1	0
524.079	1	1
524.249	1	-7
524.419	1	-3
524.589	1	3
524.759	1	10
524.929	1	7
525.099	1	2
525.269	1	1
525.439	1	-7
525.610	1	10
525.780	1	-2
525.950	1	4
526.120	1	-6
526.290	1	-9
526.460	1	-10
526.630	1	4
526.800	1	-7
526.970	1	-2
527.140	1	-4
527.311	1	-2
527.481	1	7
527.651	1	2
527.821	1	-7
527.991	1	-6
528.161	1	5
528.331	1	1
528.501	1	-7
528.671	1	2
528.841	1	2
529.011	1	1
529.181	1	-2
529.352	1	-1
529.522	1	1
529.692	1	-1
529.862	1	6
530.032	1	-6
530.202	1	-7
530.372	1	-3
530.542	1	-8
530.712	1	1
530.882	1	10
531.052	1	3
531.222	1	4
531.392	1	0
531.563	1	3
531.733	1	0
531.903	1	-2
532.073	1	-5
532.243	1	8
532.413	1	11
532.583	1	7
532.753	1	-4
532.923	1	9
533.093	1	-5
533.263	1	0
533.433	1	-3
533.603	1	-3
533.773	1	-9
533.943	1	-4
534.113	1	-1
534.284	1	-1
534.454	1	-4
534.624	1	-2
534.794	1	4
534.964	1	-4
535.134	1	-10
535.304	1	-4
535.474	1	-3
535.644	1	-3
535.814	1	3
535.984	1	-4
536.154	1	-1
536.324	1	3
536.494	1	10
536.664	1	-1
536.834	1	3
537.004	1	2
537.174	1	2
537.344	1	-4
537.514	1	-6
537.685	1	12
537.855	1	4
538.025	1	9
538.195	1	-9
538.365	1	1
538.535	1	-5
538.705	1	-2
538.875	1	0
539.045	1	1
539.215	1	-16
539.385	1	4
539.555	1	0
539.725	1	0
539.895	1	7
540.065	1	-5
540.235	1	7
540.405	1	1
540.575	1	-1
540.745	1	-2
540.915	1	-4
541.085	1	-14
541.255	1	8
541.425	1	3
541.595	1	-5
541.765	1	8
541.935	1	1
542.105	1	5
542.275	1	-5
542.445	1	4
542.615	1	3
542.785	1	-3
542.955	1	14
543.125	1	-1
543.295	1	-2
543.465	1	10
543.635	1	-7
543.805	1	2
543.975	1	1
544.145	1	-1
544.315	1	-12
544.485	1	-8
544.655	1	3
544.825	1	1
544.995	1	-6
545.165	1	3
545.335	1	0
545.505	1	0
545.675	1	-1
545.845	1	2
546.015	1	-6
546.185	1	-2
546.355	1	-6
546.525	1	7
546.695	1	-3
546.865	1	0
547.035	1	-8
547.205	1	6
547.375	1	3
547.545	1	-4
547.715	1	0
547.885	1	-5
548.055	1	1
548.225	1	2
548.395	1	8
548.565	1	4
548.735	1	-6
548.905	1	1
549.075	1	1
549.245	1	9
549.415	1	5
549.585	1	-1
549.755	1	-6
549.925	1	-4
550.095	1	-2
550.265	1	-6
550.435	1	1
550.605	1	-7
550.775	1	-4
550.945	1	-1
551.115	1	9
551.285	1	-9
551.455	1	7
551.625	1	-7
551.795	1	-4
551.965	1	-12
552.135	1	-9
552.305	1	-4
552.475	1	9
552.645	1	-8
552.815	1	-2
552.985	1	-5
553.155	1	-6
553.325	1	-1
553.495	1	-2
553.665	1	2
553.835	1	1
554.004	1	-1
554.174	1	-2
554.344	1	1
554.514	1	-9
554.684	1	0
554.854	1	-12
555.024	1	6
555.194	1	5
555.364	1	3
555.534	1	-11
555.704	1	0
555.874	1	4
556.044	1	-4
556.214	1	4
556.384	1	12
556.554	1	2
556.724	1	-12
556.894	1	1
557.064	1	9
557.234	1	-7
557.404	1	0
557.573	1	3
557.743	1	-7
557.913	1	-4
558.083	1	3
558.253	1	-5
558.423	1	-5
558.593	1	4
558.763	1	3
558.933	1	-3
559.103	1	-5
559.273	1	2
559.443	1	-3
559.613	1	-4
559.783	1	-3
559.953	1	-12
560.122	1	4
560.292	1	-17
560.462	1	-5
560.632	1	-8
560.802	1	6
560.972	1	-9
561.142	1	10
561.312	1	-6
561.482	1	6
561.652	1	-10
561.822	1	-2
561.992	1	8
562.162	1	4
562.331	1	-10
562.501	1	-3
562.671	1	-4
562.841	1	-13
563.011	1	0
563.181	1	-4
563.351	1	-13
563.521	1	-5
563.691	1	8
563.861	1	-2
564.031	1	-3
564.201	1	7
564.370	1	-3
564.540	1	-5
564.710	1	-9
564.880	1	1
565.050	1	3
565.220	1	12
565.390	1	-12
565.560	1	4
565.730	1	1
565.900	1	-2
566.069	1	2
566.239	1	11
566.409	1	-3
566.579	1	3
566.749	1	-3
566.919	1	-16
567.089	1	-12
567.259	1	0
567.429	1	1
567.599	1	12
567.768	1	-1
567.938	1	-7
568.108	1	-3
568.278	1	1
568.448	1	-4
568.618	1	-1
568.788	1	11
568.958	1	-1
569.128	1	-4
569.297	1	-3
569.467	1	8
569.637	1	7
569.807	1	2
569.977	1	-2
570.147	1	-7
570.317	1	6
570.487	1	-3
570.656	1	1
570.826	1	0
570.996	1	6
571.166	1	-2
571.336	1	-5
571.506	1	-10
571.676	1	3
571.846	1	9
572.015	1	3
572.185	1	0
572.355	1	-5
572.525	1	-8
572.695	1	2
572.865	1	9
573.035	1	4
573.205	1	-3
573.374	1	-7
573.544	1	10
573.714	1	-6
573.884	1	-4
574.054	1	2
574.224	1	4
574.394	1	8
574.563	1	-3
574.733	1	2
574.903	1	-1
575.073	1	1
575.243	1	0
575.413	1	-5
575.583	1	-1
575.752	1	-1
575.922	1	3
576.092	1	-3
576.262	1	9
576.432	1	-6
576.602	1	-7
576.772	1	1
576.941	1	-7
577.111	1	-10
577.281	1	-1
577.451	1	-1
577.621	1	-3
577.791	1	4
577.960	1	-3
578.130	1	8
578.300	1	1
578.470	1	2
578.640	1	-10
578.810	1	-10
578.979	1	5
579.149	1	-3
579.319	1	-2
579.489	1	14
579.659	1	-5
579.829	1	-12
579.998	1	-12
580.168	1	6
580.338	1	-7
580.508	1	1
580.678	1	4
580.848	1	-5
581.017	1	-1
581.187	1	-6
581.357	1	-5
581.527	1	-7
581.697	1	7
581.867	1	-3
582.036	1	-11
582.206	1	-2
582.376	1	0
582.546	1	-1
582.716	1	5
582.885	1	-7
583.055	1	-6
583.225	1	1
583.395	1	-2
583.565	1	14
583.735	1	0
583.904	1	-9
584.074	1	-2
584.244	1	-7
584.414	1	-3
584.584	1	2
584.753	1	0
584.923	1	-12
585.093	1	4
585.263	1	-6
585.433	1	0
585.602	1	7
585.772	1	18
585.942	1	-12
586.112	1	-2
586.282	1	-7
586.451	1	12
586.621	1	-8
586.791	1	1
586.961	1	-3
587.131	1	-13
587.300	1	4
587.470	1	-5
587.640	1	-7
587.810	1	-9
587.980	1	6
588.149	1	6
588.319	1	5
588.489	1	9
588.659	1	-12
588.829	1	-2
588.998	1	-3
589.168	1	8
589.338	1	-7
589.508	1	-1
589.677	1	-4
589.847	1	1
590.017	1	-2
590.187	1	3
590.357	1	-11
590.526	1	-8
590.696	1	0
590.866	1	-7
591.036	1	8
591.205	1	2
591.375	1	-5
591.545	1	5
591.715	1	-6
591.885	1	2
592.054	1	6
592.224	1	1
592.394	1	-10
592.564	1	3
592.733	1	-5
592.903	1	-3
593.073	1	-2
593.243	1	10
593.412	1	-9
593.582	1	-3
593.752	1	-4
593.922	1	-2
594.091	1	3
594.261	1	-10
594.431	1	0
594.601	1	-13
594.771	1	-6
594.940	1	-1
595.110	1	-2
595.280	1	-2
595.450	1	-5
595.619	1	-4
595.789	1	-2
595.959	1	-8
596.129	1	3
596.298	1	4
596.468	1	1
596.638	1	1
596.808	1	-7
596.977	1	-6
597.147	1	-9
597.317	1	0
597.487	1	-1
597.656	1	0
597.826	1	1
597.996	1	3
598.166	1	0
598.335	1	-4
598.505	1	10
598.675	1	-2
598.844	1	5
599.014	1	-18
599.184	1	0
599.354	1	15
599.523	1	-15
599.693	1	4
599.863	1	0
600.033	1	-2
600.202	1	4
600.372	1	-3
600.542	1	1
600.712	1	-4
600.881	1	-4
601.051	1	5
601.221	1	-2
601.390	1	-6
601.560	1	7
601.730	1	2
601.900	1	2
602.069	1	1
602.239	1	0
602.409	1	-4
602.578	1	4
602.748	1	-2
602.918	1	-5
603.088	1	4
603.257	1	-4
603.427	1	2
603.597	1	3
603.767	1	-4
603.936	1	4
604.106	1	-7
604.276	1	0
604.445	1	-3
604.615	1	4
604.785	1	1
604.954	1	1
605.124	1	1
605.294	1	-4
605.464	1	0
605.633	1	6
605.803	1	-2
605.973	1	-4
606.142	1	1
606.312	1	3
606.482	1	-2
606.652	1	6
606.821	1	3
606.991	1	-2
607.161	1	5
607.330	1	-4
607.500	1	-2
607.670	1	-8
607.839	1	-11
608.009	1	-4
608.179	1	2
608.348	1	6
608.518	1	7
608.688	1	-5
608.858	1	-16
609.027	1	6
609.197	1	1
609.367	1	1
609.536	1	-7
609.706	1	8
609.876	1	12
610.045	1	0
610.215	1	1
610.385	1	12
610.554	1	-9
610.724	1	-6
610.894	1	1
611.063	1	5
611.233	1	4
611.403	1	2
611.572	1	1
611.742	1	1
611.912	1	-6
612.081	1	10
612.251	1	-5
612.421	1	4
612.590	1	6
612.760	1	-2
612.930	1	3
613.099	1	0
613.269	1	0
613.439	1	-11
613.608	1	-3
613.778	1	-3
613.948	1	19
614.117	1	-2
614.287	1	-10
614.457	1	1
614.626	1	1
614.796	1	1
614.966	1	4
615.135	1	4
615.305	1	5
615.475	1	-1
615.644	1	8
615.814	1	2
615.984	1	-9
616.153	1	2
616.323	1	-3
616.493	1	-5
616.662	1	-1
616.832	1	1
617.002	1	2
617.171	1	7
617.341	1	2
617.511	1	-13
617.680	1	-15
617.850	1	-5
618.019	1	-5
618.189	1	11
618.359	1	1
618.528	1	-2
618.698	1	5
618.868	1	6
619.037	1	-2
619.207	1	-8
619.377	1	0
619.546	1	4
619.716	1	-7
619.885	1	1
620.055	1	-8
620.225	1	4
620.394	1	11
620.564	1	0
620.734	1	-2
620.903	1	-12
621.073	1	3
621.242	1	-10
621.412	1	-2
621.582	1	-4
621.751	1	-1
621.921	1	0
622.091	1	-3
622.260	1	2
622.430	1	-2
622.599	1	-1
622.769	1	-6
622.939	1	1
623.108	1	-2
623.278	1	-2
623.448	1	-9
623.617	1	3
623.787	1	2
623.956	1	6
624.126	1	11
624.296	1	11
624.465	1	-1
624.635	1	-1
624.804	1	-15
624.974	1	-8
625.144	1	-8
625.313	1	12
625.483	1	5
625.652	1	-1
625.822	1	10
625.992	1	1
626.161	1	-1
626.331	1	-10
626.501	1	-4
626.670	1	-4
626.840	1	6
627.009	1	3
627.179	1	4
627.348	1	-4
627.518	1	11
627.688	1	-3
627.857	1	4
628.027	1	7
628.196	1	6
628.366	1	-12
628.536	1	-9
628.705	1	-1
628.875	1	-4
629.044	1	2
629.214	1	7
629.384	1	22
629.553	1	-8
629.723	1	7
629.892	1	4
630.062	1	-1
630.232	1	2
630.401	1	7
630.571	1	-9
630.740	1	-6
630.910	1	6
631.079	1	2
631.249	1	3
631.419	1	-4
631.588	1	-1
631.758	1	-1
631.927	1	6
632.097	1	2
632.266	1	7
632.436	1	3
632.606	1	-8
632.775	1	6
632.945	1	-3
633.114	1	2
633.284	1	-6
633.453	1	-3
633.623	1	8
633.793	1	-7
633.962	1	-2
634.132	1	-1
634.301	1	0
634.471	1	4
634.640	1	-6
634.810	1	1
634.979	1	-4
635.149	1	-4
635.319	1	-4
635.488	1	4
635.658	1	-6
635.827	1	2
635.997	1	1
636.166	1	-5
636.336	1	-9
636.505	1	4
636.675	1	7
636.845	1	-7
637.014	1	-3
637.184	1	10
637.353	1	0
637.523	1	-10
637.692	1	7
637.862	1	-5
638.031	1	1
638.201	1	1
638.370	1	3
638.540	1	-12
638.710	1	-1
638.879	1	-7
639.049	1	0
639.218	1	9
639.388	1	-1
639.557	1	4
639.727	1	4
639.896	1	-3
640.066	1	-5
640.235	1	-4
640.405	1	6
640.574	1	5
640.744	1	-8
640.914	1	-3
641.083	1	10
641.253	1	-3
641.422	1	-2
641.592	1	1
641.761	1	-9
641.931	1	5
642.100	1	-6
642.270	1	6
642.439	1	-1
642.609	1	9
642.778	1	-9
642.948	1	7
643.117	1	3
643.287	1	-4
643.456	1	-4
643.626	1	-8
643.795	1	-9
643.965	1	-2
644.134	1	-4
644.304	1	-5
644.473	1	-7
644.643	1	-4
644.812	1	-10
644.982	1	2
645.151	1	-11
645.321	1	8
645.490	1	5
645.660	1	-6
645.829	1	-1
645.999	1	-7
646.168	1	18
646.338	1	-17
646.507	1	1
646.677	1	3
646.846	1	-1
647.016	1	1
647.185	1	4
647.355	1	15
647.524	1	-2
647.694	1	-8
647.863	1	-10
648.033	1	-2
648.202	1	4
648.372	1	-10
648.541	1	-2
648.711	1	5
648.880	1	5
649.050	1	-2
649.219	1	4
649.389	1	-16
649.558	1	7
649.728	1	-1
649.897	1	0
650.067	1	-1
650.236	1	2
650.406	1	-3
650.575	1	12
650.745	1	2
650.914	1	9
651.084	1	-2
651.253	1	6
651.423	1	-8
651.592	1	-1
651.762	1	-9
651.931	1	-2
652.101	1	-8
652.270	1	-5
652.440	1	1
652.609	1	-6
652.778	1	8
652.948	1	1
653.117	1	1
653.287	1	-11
653.456	1	-5
653.626	1	-4
653.795	1	-13
653.965	1	-7
654.134	1	-1
654.304	1	0
654.473	1	3
654.643	1	1
654.812	1	12
654.982	1	6
655.151	1	3
655.320	1	-8
655.490	1	-13
655.659	1	1
655.829	1	2
655.998	1	5
656.168	1	-12
656.337	1	0
656.507	1	-13
656.676	1	-3
656.846	1	5
657.015	1	12
657.184	1	-2
657.354	1	-6
657.523	1	-9
657.693	1	3
657.862	1	-9
658.032	1	-3
658.201	1	-9
658.371	1	-3
658.540	1	-15
658.709	1	-1
658.879	1	7
659.048	1	8
659.218	1	-3
659.387	1	5
659.557	1	2
659.726	1	-5
659.895	1	1
660.065	1	-12
660.234	1	-6
660.404	1	0
660.573	1	3
660.743	1	-5
660.912	1	5
661.081	1	2
661.251	1	-2
661.420	1	6
661.590	1	-5
661.759	1	4
661.929	1	-10
662.098	1	-1
662.267	1	-8
662.437	1	5
662.606	1	-11
662.776	1	1
662.945	1	6
663.115	1	14
663.284	1	5
663.453	1	-8
663.623	1	-12
663.792	1	6
663.962	1	1
664.131	1	-8
664.300	1	-7
664.470	1	-4
664.639	1	4
664.809	1	0
664.978	1	27
665.148	1	4
665.317	1	4
665.486	1	2
665.656	1	-2
665.825	1	1
665.995	1	-7
666.164	1	-12
666.333	1	-6
666.503	1	-4
666.672	1	-1
666.842	1	5
667.011	1	6
667.180	1	0
667.350	1	0
667.519	1	-7
667.689	1	-2
667.858	1	2
668.027	1	-4
668.197	1	-12
668.366	1	0
668.536	1	-8
668.705	1	-9
668.874	1	9
669.044	1	4
669.213	1	-3
669.382	1	9
669.552	1	-4
669.721	1	-7
669.891	1	-7
670.060	1	4
670.229	1	3
670.399	1	10
670.568	1	-6
670.738	1	-5
670.907	1	2
671.076	1	8
671.246	1	0
671.415	1	7
671.584	1	-4
671.754	1	-10
671.923	1	-2
672.093	1	6
672.262	1	4
672.431	1	5
672.601	1	5
672.770	1	7
672.939	1	5
673.109	1	-8
673.278	1	-8
673.448	1	5
673.617	1	1
673.786	1	-2
