325.333	1	0
325.504	1	-6
325.675	1	12
325.846	1	-3
326.017	1	2
326.188	1	8
326.359	1	-3
326.531	1	-6
326.702	1	-6
326.873	1	5
327.044	1	-3
327.215	1	-1
327.386	1	1
327.557	1	-3
327.728	1	-5
327.899	1	-8
328.070	1	10
328.241	1	-11
328.412	1	1
328.583	1	-4
328.754	1	11
328.926	1	-2
329.097	1	-4
329.268	1	11
329.439	1	7
329.610	1	-3
329.781	1	3
329.952	1	5
330.123	1	5
330.294	1	1
330.465	1	-11
330.636	1	3
330.807	1	14
330.978	1	-6
331.149	1	10
331.320	1	2
331.492	1	2
331.663	1	1
331.834	1	1
332.005	1	3
332.176	1	-1
332.347	1	-4
332.518	1	-1
332.689	1	9
332.860	1	-3
333.031	1	7
333.202	1	-1
333.373	1	7
333.544	1	1
333.715	1	1
333.886	1	3
334.057	1	0
334.228	1	5
334.399	1	15
334.570	1	5
334.741	1	2
334.912	1	7
335.084	1	3
335.255	1	0
335.426	1	4
335.597	1	-1
335.768	1	0
335.939	1	5
336.110	1	0
336.281	1	-2
336.452	1	12
336.623	1	-2
336.794	1	3
336.965	1	-1
337.136	1	10
337.307	1	-1
337.478	1	-1
337.649	1	5
337.820	1	-2
337.991	1	3
338.162	1	0
338.333	1	4
338.504	1	5
338.675	1	1
338.846	1	-6
339.017	1	13
339.188	1	1
339.359	1	4
339.530	1	-8
339.701	1	3
339.872	1	12
340.043	1	2
340.214	1	6
340.385	1	-9
340.556	1	2
340.727	1	11
340.898	1	4
341.069	1	1
341.240	1	0
341.411	1	6
341.582	1	-6
341.753	1	3
341.924	1	11
342.095	1	-7
342.266	1	11
342.437	1	0
342.608	1	4
342.779	1	-11
342.950	1	-4
343.121	1	9
343.292	1	4
343.463	1	11
343.634	1	7
343.805	1	6
343.976	1	14
344.147	1	17
344.318	1	-8
344.489	1	-4
344.660	1	10
344.831	1	6
345.002	1	6
345.173	1	9
345.344	1	2
345.515	1	-2
345.686	1	6
345.857	1	9
346.028	1	-1
346.199	1	-1
346.370	1	1
346.541	1	-1
346.712	1	-4
346.883	1	7
347.054	1	-3
347.225	1	4
347.396	1	8
347.567	1	-2
347.738	1	7
347.909	1	2
348.080	1	7
348.251	1	-2
348.422	1	2
348.593	1	4
348.764	1	3
348.935	1	5
349.106	1	-5
349.277	1	-4
349.448	1	7
349.619	1	4
349.790	1	7
349.961	1	-5
350.132	1	4
350.303	1	4
350.474	1	8
350.645	1	1
350.816	1	5
350.987	1	17
351.157	1	-8
351.328	1	-7
351.499	1	-2
351.670	1	0
351.841	1	3
352.012	1	3
352.183	1	13
352.354	1	-1
352.525	1	17
352.696	1	-8
352.867	1	14
353.038	1	-1
353.209	1	1
353.380	1	0
353.551	1	-2
353.722	1	3
353.893	1	12
354.064	1	3
354.235	1	-3
354.406	1	-8
354.576	1	8
354.747	1	12
354.918	1	4
355.089	1	-2
355.260	1	3
355.431	1	-4
355.602	1	13
355.773	1	-4
355.944	1	10
356.115	1	6
356.286	1	7
356.457	1	9
356.628	1	0
356.799	1	4
356.970	1	18
357.141	1	9
357.311	1	6
357.482	1	2
357.653	1	-7
357.824	1	13
357.995	1	7
358.166	1	8
358.337	1	3
358.508	1	18
358.679	1	8
358.850	1	8
359.021	1	3
359.192	1	10
359.363	1	5
359.533	1	7
359.704	1	-9
359.875	1	5
360.046	1	11
360.217	1	7
360.388	1	19
360.559	1	9
360.730	1	-3
360.901	1	13
361.072	1	9
361.243	1	5
361.414	1	11
361.584	1	1
361.755	1	5
361.926	1	6
362.097	1	1
362.268	1	20
362.439	1	3
362.610	1	6
362.781	1	-4
362.952	1	6
363.123	1	-2
363.293	1	9
363.464	1	5
363.635	1	10
363.806	1	6
363.977	1	18
364.148	1	4
364.319	1	2
364.490	1	9
364.661	1	11
364.832	1	11
365.002	1	6
365.173	1	13
365.344	1	1
365.515	1	8
365.686	1	10
365.857	1	7
366.028	1	-1
366.199	1	6
366.370	1	5
366.540	1	-1
366.711	1	9
366.882	1	3
367.053	1	9
367.224	1	4
367.395	1	8
367.566	1	18
367.737	1	-3
367.908	1	5
368.078	1	-2
368.249	1	13
368.420	1	0
368.591	1	5
368.762	1	12
368.933	1	7
369.104	1	5
369.274	1	23
369.445	1	11
369.616	1	-1
369.787	1	4
369.958	1	13
370.129	1	0
370.300	1	-2
370.471	1	7
370.641	1	8
370.812	1	5
370.983	1	2
371.154	1	15
371.325	1	3
371.496	1	-2
371.667	1	14
371.837	1	6
372.008	1	-4
372.179	1	-4
372.350	1	16
372.521	1	16
372.692	1	9
372.863	1	8
373.033	1	1
373.204	1	7
373.375	1	7
373.546	1	14
373.717	1	9
373.888	1	8
374.059	1	-1
374.229	1	5
374.400	1	-4
374.571	1	3
374.742	1	15
374.913	1	5
375.084	1	2
375.254	1	0
375.425	1	13
375.596	1	11
375.767	1	10
375.938	1	-10
376.109	1	8
376.279	1	-2
376.450	1	9
376.621	1	14
376.792	1	22
376.963	1	-3
377.134	1	11
377.304	1	8
377.475	1	5
377.646	1	5
377.817	1	10
377.988	1	17
378.159	1	13
378.329	1	7
378.500	1	8
378.671	1	4
378.842	1	9
379.013	1	13
379.184	1	0
379.354	1	22
379.525	1	11
379.696	1	20
379.867	1	17
380.038	1	0
380.209	1	11
380.379	1	5
380.550	1	-3
380.721	1	2
380.892	1	8
381.063	1	4
381.233	1	8
381.404	1	5
381.575	1	15
381.746	1	14
381.917	1	7
382.087	1	16
382.258	1	9
382.429	1	5
382.600	1	7
382.771	1	-4
382.941	1	11
383.112	1	15
383.283	1	9
383.454	1	-2
383.625	1	10
383.795	1	21
383.966	1	13
384.137	1	15
384.308	1	10
384.479	1	12
384.649	1	8
384.820	1	8
384.991	1	5
385.162	1	15
385.333	1	15
385.503	1	7
385.674	1	6
385.845	1	7
386.016	1	16
386.187	1	0
386.357	1	13
386.528	1	5
386.699	1	12
386.870	1	13
387.041	1	20
387.211	1	12
387.382	1	11
387.553	1	12
387.724	1	8
387.894	1	1
388.065	1	8
388.236	1	8
388.407	1	16
388.578	1	-1
388.748	1	15
388.919	1	14
389.090	1	22
389.261	1	19
389.431	1	3
389.602	1	7
389.773	1	7
389.944	1	14
390.114	1	11
390.285	1	16
390.456	1	11
390.627	1	4
390.798	1	6
390.968	1	14
391.139	1	21
391.310	1	7
391.481	1	1
391.651	1	14
391.822	1	16
391.993	1	9
392.164	1	6
392.334	1	7
392.505	1	16
392.676	1	7
392.847	1	9
393.017	1	11
393.188	1	18
393.359	1	30
393.530	1	18
393.700	1	7
393.871	1	9
394.042	1	6
394.213	1	9
394.383	1	12
394.554	1	8
394.725	1	1
394.896	1	22
395.066	1	15
395.237	1	20
395.408	1	9
395.579	1	13
395.749	1	11
395.920	1	23
396.091	1	4
396.262	1	5
396.432	1	2
396.603	1	11
396.774	1	6
396.945	1	17
397.115	1	25
397.286	1	19
397.457	1	5
397.627	1	6
397.798	1	12
397.969	1	9
398.140	1	1
398.310	1	9
398.481	1	8
398.652	1	16
398.823	1	5
398.993	1	13
399.164	1	16
399.335	1	15
399.505	1	1
399.676	1	9
399.847	1	6
400.018	1	12
400.188	1	15
400.359	1	9
400.530	1	11
400.700	1	8
400.871	1	19
401.042	1	10
401.213	1	24
401.383	1	17
401.554	1	15
401.725	1	4
401.895	1	1
402.066	1	16
402.237	1	5
402.408	1	10
402.578	1	6
402.749	1	7
402.920	1	11
403.090	1	6
403.261	1	16
403.432	1	3
403.603	1	21
403.773	1	10
403.944	1	14
404.115	1	9
404.285	1	21
404.456	1	17
404.627	1	18
404.797	1	12
404.968	1	6
405.139	1	18
405.310	1	9
405.480	1	18
405.651	1	5
405.822	1	10
405.992	1	20
406.163	1	2
406.334	1	4
406.504	1	16
406.675	1	2
406.846	1	7
407.016	1	5
407.187	1	13
407.358	1	-5
407.528	1	11
407.699	1	18
407.870	1	16
408.041	1	10
408.211	1	11
408.382	1	11
408.553	1	10
408.723	1	15
408.894	1	13
409.065	1	13
409.235	1	15
409.406	1	14
409.577	1	12
409.747	1	17
409.918	1	20
410.089	1	20
410.259	1	8
410.430	1	21
410.601	1	11
410.771	1	11
410.942	1	8
411.113	1	14
411.283	1	5
411.454	1	28
411.625	1	19
411.795	1	8
411.966	1	8
412.137	1	28
412.307	1	11
412.478	1	12
412.649	1	10
412.819	1	9
412.990	1	18
413.161	1	10
413.331	1	12
413.502	1	10
413.672	1	10
413.843	1	18
414.014	1	6
414.184	1	20
414.355	1	16
414.526	1	8
414.696	1	4
414.867	1	-4
415.038	1	15
415.208	1	0
415.379	1	11
415.550	1	-1
415.720	1	5
415.891	1	18
416.062	1	5
416.232	1	20
416.403	1	24
416.573	1	20
416.744	1	10
416.915	1	7
417.085	1	24
417.256	1	3
417.427	1	9
417.597	1	7
417.768	1	13
417.939	1	8
418.109	1	5
418.280	1	10
418.450	1	19
418.621	1	15
418.792	1	15
418.962	1	21
419.133	1	12
419.304	1	18
419.474	1	13
419.645	1	7
419.815	1	9
419.986	1	23
420.157	1	9
420.327	1	1
420.498	1	11
420.669	1	18
420.839	1	24
421.010	1	10
421.180	1	12
421.351	1	6
421.522	1	20
421.692	1	19
421.863	1	13
422.033	1	8
422.204	1	10
422.375	1	18
422.545	1	15
422.716	1	7
422.886	1	18
423.057	1	11
423.228	1	9
423.398	1	21
423.569	1	12
423.740	1	11
423.910	1	17
424.081	1	14
424.251	1	16
424.422	1	17
424.593	1	11
424.763	1	18
424.934	1	15
425.104	1	25
425.275	1	-1
425.445	1	2
425.616	1	6
425.787	1	7
425.957	1	14
426.128	1	7
426.298	1	24
426.469	1	11
426.640	1	11
426.810	1	-3
426.981	1	16
427.151	1	5
427.322	1	9
427.493	1	13
427.663	1	14
427.834	1	13
428.004	1	21
428.175	1	16
428.345	1	11
428.516	1	10
428.687	1	24
428.857	1	13
429.028	1	5
429.198	1	10
429.369	1	17
429.540	1	21
429.710	1	9
429.881	1	11
430.051	1	4
430.222	1	15
430.392	1	17
430.563	1	10
430.734	1	8
430.904	1	13
431.075	1	13
431.245	1	11
431.416	1	14
431.586	1	8
431.757	1	24
431.927	1	11
432.098	1	8
432.269	1	3
432.439	1	9
432.610	1	23
432.780	1	17
432.951	1	13
433.121	1	8
433.292	1	14
433.462	1	5
433.633	1	5
433.804	1	11
433.974	1	3
434.145	1	10
434.315	1	8
434.486	1	6
434.656	1	10
434.827	1	18
434.997	1	19
435.168	1	12
435.339	1	19
435.509	1	16
435.680	1	19
435.850	1	-1
436.021	1	5
436.191	1	2
436.362	1	13
436.532	1	13
436.703	1	10
436.873	1	7
437.044	1	17
437.214	1	4
437.385	1	19
437.556	1	17
437.726	1	14
437.897	1	8
438.067	1	6
438.238	1	9
438.408	1	15
438.579	1	3
438.749	1	8
438.920	1	20
439.090	1	4
439.261	1	18
439.431	1	-1
439.602	1	16
439.772	1	13
439.943	1	-3
440.113	1	5
440.284	1	19
440.455	1	6
440.625	1	21
440.796	1	-1
440.966	1	16
441.137	1	9
441.307	1	13
441.478	1	0
441.648	1	4
441.819	1	14
441.989	1	15
442.160	1	10
442.330	1	17
442.501	1	5
442.671	1	6
442.842	1	15
443.012	1	6
443.183	1	7
443.353	1	7
443.524	1	15
443.694	1	6
443.865	1	17
444.035	1	17
444.206	1	13
444.376	1	6
444.547	1	17
444.717	1	4
444.888	1	-5
445.058	1	18
445.229	1	12
445.399	1	10
445.570	1	7
445.740	1	2
445.911	1	14
446.081	1	8
446.252	1	9
446.422	1	9
446.593	1	8
446.763	1	3
446.934	1	7
447.104	1	11
447.275	1	7
447.445	1	15
447.616	1	6
447.786	1	11
447.957	1	-3
448.127	1	14
448.298	1	8
448.468	1	8
448.639	1	10
448.809	1	4
448.979	1	21
449.150	1	5
449.320	1	14
449.491	1	2
449.661	1	0
449.832	1	2
450.002	1	8
450.173	1	8
450.343	1	6
450.514	1	2
450.684	1	5
450.855	1	7
451.025	1	4
451.196	1	5
451.366	1	25
451.537	1	23
451.707	1	13
451.878	1	8
452.048	1	6
452.218	1	15
452.389	1	11
452.559	1	25
452.730	1	5
452.900	1	5
453.071	1	25
453.241	1	12
453.412	1	10
453.582	1	11
453.753	1	13
453.923	1	4
454.093	1	-2
454.264	1	14
454.434	1	12
454.605	1	8
454.775	1	6
454.946	1	3
455.116	1	11
455.287	1	4
455.457	1	14
455.628	1	0
455.798	1	11
455.968	1	-3
456.139	1	16
456.309	1	12
456.480	1	9
456.650	1	15
456.821	1	4
456.991	1	9
457.161	1	10
457.332	1	14
457.502	1	7
457.673	1	-10
457.843	1	10
458.014	1	12
458.184	1	12
458.355	1	7
458.525	1	9
458.695	1	1
458.866	1	4
459.036	1	14
459.207	1	14
459.377	1	17
459.548	1	10
459.718	1	11
459.888	1	11
460.059	1	2
460.229	1	4
460.400	1	9
460.570	1	5
460.740	1	7
460.911	1	6
461.081	1	17
461.252	1	3
461.422	1	11
461.593	1	10
461.763	1	19
461.933	1	8
462.104	1	4
462.274	1	4
462.445	1	9
462.615	1	14
462.785	1	12
462.956	1	1
463.126	1	7
463.297	1	10
463.467	1	19
463.638	1	6
463.808	1	11
463.978	1	0
464.149	1	1
464.319	1	9
464.490	1	9
464.660	1	4
464.830	1	-5
465.001	1	8
465.171	1	1
465.342	1	10
465.512	1	7
465.682	1	-1
465.853	1	3
466.023	1	8
466.194	1	13
466.364	1	21
466.534	1	-1
466.705	1	23
466.875	1	0
467.045	1	-15
467.216	1	13
467.386	1	5
467.557	1	25
467.727	1	3
467.897	1	6
468.068	1	-5
468.238	1	1
468.409	1	3
468.579	1	13
468.749	1	4
468.920	1	-5
469.090	1	7
469.260	1	-2
469.431	1	-5
469.601	1	10
469.772	1	24
469.942	1	9
470.112	1	-1
470.283	1	11
470.453	1	7
470.623	1	14
470.794	1	10
470.964	1	-5
471.135	1	15
471.305	1	8
471.475	1	2
471.646	1	10
471.816	1	11
471.986	1	9
472.157	1	9
472.327	1	18
472.497	1	20
472.668	1	6
472.838	1	3
473.009	1	10
473.179	1	5
473.349	1	0
473.520	1	13
473.690	1	8
473.860	1	-1
474.031	1	-1
474.201	1	10
474.371	1	9
474.542	1	6
474.712	1	10
474.882	1	9
475.053	1	9
475.223	1	4
475.394	1	3
475.564	1	7
475.734	1	-7
475.905	1	10
476.075	1	14
476.245	1	3
476.416	1	5
476.586	1	-1
476.756	1	8
476.927	1	11
477.097	1	7
477.267	1	8
477.438	1	15
477.608	1	26
477.778	1	3
477.949	1	-3
478.119	1	5
478.289	1	1
478.460	1	5
478.630	1	6
478.800	1	-5
478.971	1	6
479.141	1	10
479.311	1	4
479.482	1	-6
479.652	1	1
479.822	1	-1
479.993	1	7
480.163	1	13
480.333	1	4
480.504	1	13
480.674	1	9
480.844	1	10
481.015	1	16
481.185	1	3
481.355	1	0
481.525	1	-3
481.696	1	7
481.866	1	5
482.036	1	-2
482.207	1	4
482.377	1	2
482.547	1	8
482.718	1	6
482.888	1	12
483.058	1	17
483.229	1	7
483.399	1	4
483.569	1	0
483.740	1	3
483.910	1	4
484.080	1	3
484.250	1	-3
484.421	1	0
484.591	1	6
484.761	1	17
484.932	1	2
485.102	1	13
485.272	1	1
485.443	1	1
485.613	1	6
485.783	1	-6
485.953	1	-7
486.124	1	6
486.294	1	12
486.464	1	13
486.635	1	-4
486.805	1	8
486.975	1	0
487.146	1	6
487.316	1	7
487.486	1	15
487.656	1	3
487.827	1	3
487.997	1	6
488.167	1	10
488.338	1	-2
488.508	1	19
488.678	1	3
488.848	1	4
489.019	1	3
489.189	1	-3
489.359	1	2
489.529	1	1
489.700	1	6
489.870	1	12
490.040	1	0
490.211	1	-3
490.381	1	4
490.551	1	13
490.721	1	3
490.892	1	-4
491.062	1	-4
491.232	1	12
491.402	1	-3
491.573	1	16
491.743	1	5
491.913	1	10
492.084	1	-1
492.254	1	-4
492.424	1	3
492.594	1	-5
492.765	1	5
492.935	1	9
493.105	1	2
493.275	1	7
493.446	1	-6
493.616	1	-8
493.786	1	12
493.956	1	5
494.127	1	6
494.297	1	0
494.467	1	4
494.637	1	5
494.808	1	6
494.978	1	-1
495.148	1	7
495.318	1	4
495.489	1	0
495.659	1	7
495.829	1	0
495.999	1	8
496.170	1	3
496.340	1	-1
496.510	1	4
496.680	1	9
496.851	1	7
497.021	1	-6
497.191	1	10
497.361	1	3
497.532	1	9
497.702	1	7
497.872	1	9
498.042	1	1
498.213	1	-3
498.383	1	4
498.553	1	3
498.723	1	-3
498.894	1	10
499.064	1	-7
499.234	1	1
499.404	1	10
499.574	1	10
499.745	1	-7
499.915	1	5
500.085	1	4
500.255	1	-8
500.426	1	-7
500.596	1	-6
500.766	1	-2
500.936	1	-3
501.106	1	3
501.277	1	-1
501.447	1	3
501.617	1	6
501.787	1	-5
501.958	1	2
502.128	1	5
502.298	1	7
502.468	1	-3
502.638	1	-1
502.809	1	-19
502.979	1	8
503.149	1	-2
503.319	1	2
503.489	1	-12
503.660	1	-6
503.830	1	5
504.000	1	5
504.170	1	1
504.340	1	-8
504.511	1	-7
504.681	1	-5
504.851	1	1
505.021	1	1
505.192	1	-2
505.362	1	2
505.532	1	-3
505.702	1	16
505.872	1	0
506.043	1	12
506.213	1	10
506.383	1	15
506.553	1	-1
506.723	1	-13
506.893	1	3
507.064	1	13
507.234	1	2
507.404	1	-5
507.574	1	0
507.744	1	10
507.915	1	-5
508.085	1	1
508.255	1	7
508.425	1	7
508.595	1	-7
508.766	1	-9
508.936	1	8
509.106	1	10
509.276	1	3
509.446	1	-9
509.616	1	7
509.787	1	2
509.957	1	1
510.127	1	-3
510.297	1	2
510.467	1	-2
510.638	1	6
510.808	1	17
510.978	1	-7
511.148	1	2
511.318	1	-2
511.488	1	11
511.659	1	5
511.829	1	-7
511.999	1	5
512.169	1	10
512.339	1	6
512.509	1	-2
512.680	1	-3
512.850	1	4
513.020	1	5
513.190	1	0
513.360	1	9
513.530	1	5
513.700	1	1
513.871	1	-6
514.041	1	5
514.211	1	6
514.381	1	5
514.551	1	-4
514.721	1	3
514.892	1	-3
515.062	1	0
515.232	1	2
515.402	1	10
515.572	1	5
515.742	1	-2
515.912	1	2
516.083	1	1
516.253	1	4
516.423	1	5
516.593	1	0
516.763	1	1
516.933	1	4
517.104	1	6
517.274	1	0
517.444	1	-5
517.614	1	-13
517.784	1	0
517.954	1	-1
518.124	1	-1
518.294	1	-4
518.465	1	-4
518.635	1	7
518.805	1	10
518.975	1	4
519.145	1	-4
519.315	1	7
519.485	1	5
519.656	1	-4
519.826	1	-10
519.996	1	11
520.166	1	4
520.336	1	3
520.506	1	12
520.676	1	5
520.846	1	12
521.017	1	-10
521.187	1	10
521.357	1	-7
521.527	1	-3
521.697	1	-7
521.867	1	10
522.037	1	-5
522.207	1	4
522.377	1	12
522.548	1	-8
522.718	1	-15
522.888	1	-1
523.058	1	8
523.228	1	-7
523.398	1	3
523.568	1	-7
523.738	1	3
523.909	1	0
524.079	1	5
524.249	1	2
524.419	1	-1
524.589	1	0
524.759	1	0
524.929	1	-3
525.099	1	-8
525.269	1	0
525.439	1	1
525.610	1	5
525.780	1	-9
525.950	1	1
526.120	1	-6
526.290	1	-12
526.460	1	3
526.630	1	5
526.800	1	4
526.970	1	12
527.140	1	-3
527.311	1	4
527.481	1	2
527.651	1	1
527.821	1	-4
527.991	1	-11
528.161	1	-3
528.331	1	-7
528.501	1	-1
528.671	1	4
528.841	1	6
529.011	1	-1
529.181	1	-3
529.352	1	2
529.522	1	1
529.692	1	-6
529.862	1	-4
530.032	1	-10
530.202	1	-9
530.372	1	-4
530.542	1	5
530.712	1	6
530.882	1	6
531.052	1	5
531.222	1	0
531.392	1	3
531.563	1	1
531.733	1	-10
531.903	1	-1
532.073	1	-4
532.243	1	8
532.413	1	10
532.583	1	5
532.753	1	-6
532.923	1	10
533.093	1	-12
533.263	1	-1
533.433	1	-11
533.603	1	-1
533.773	1	9
533.943	1	-2
534.113	1	2
534.284	1	1
534.454	1	-3
534.624	1	1
534.794	1	-5
534.964	1	7
535.134	1	-9
535.304	1	3
535.474	1	-6
535.644	1	5
535.814	1	0
535.984	1	-5
536.154	1	7
536.324	1	0
536.494	1	4
536.664	1	0
536.834	1	1
537.004	1	-2
537.174	1	2
537.344	1	1
537.514	1	0
537.685	1	12
537.855	1	-1
538.025	1	6
538.195	1	-4
538.365	1	3
538.535	1	-6
538.705	1	-2
538.875	1	-1
539.045	1	1
539.215	1	-16
539.385	1	3
539.555	1	-9
539.725	1	-1
539.895	1	2
540.065	1	5
540.235	1	5
540.405	1	-2
540.575	1	2
540.745	1	-1
540.915	1	-5
541.085	1	-4
541.255	1	-3
541.425	1	-1
541.595	1	-1
541.765	1	-2
541.935	1	-6
542.105	1	2
542.275	1	-7
542.445	1	4
542.615	1	-3
542.785	1	-3
542.955	1	16
543.125	1	0
543.295	1	-2
543.465	1	4
543.635	1	-9
543.805	1	11
543.975	1	-6
544.145	1	1
544.315	1	-8
544.485	1	2
544.655	1	6
544.825	1	0
544.995	1	0
545.165	1	-7
545.335	1	2
545.505	1	-2
545.675	1	3
545.845	1	5
546.015	1	-5
546.185	1	5
546.355	1	-5
546.525	1	6
546.695	1	-7
546.865	1	-2
547.035	1	-3
547.205	1	13
547.375	1	6
547.545	1	12
547.715	1	-4
547.885	1	-6
548.055	1	0
548.225	1	11
548.395	1	-4
548.565	1	4
548.735	1	-11
548.905	1	5
549.075	1	5
549.245	1	-4
549.415	1	3
549.585	1	4
549.755	1	10
549.925	1	7
550.095	1	-7
550.265	1	3
550.435	1	4
550.605	1	-1
550.775	1	-3
550.945	1	5
551.115	1	1
551.285	1	0
551.455	1	3
551.625	1	-4
551.795	1	6
551.965	1	-4
552.135	1	-3
552.305	1	8
552.475	1	8
552.645	1	-4
552.815	1	0
552.985	1	-5
553.155	1	-9
553.325	1	3
553.495	1	5
553.665	1	10
553.835	1	-1
554.004	1	3
554.174	1	-10
554.344	1	4
554.514	1	0
554.684	1	-1
554.854	1	0
555.024	1	5
555.194	1	4
555.364	1	6
555.534	1	-16
555.704	1	-1
555.874	1	-10
556.044	1	7
556.214	1	-3
556.384	1	7
556.554	1	-3
556.724	1	-1
556.894	1	-5
557.064	1	-6
557.234	1	-5
557.404	1	-2
557.573	1	6
557.743	1	-9
557.913	1	-10
558.083	1	0
558.253	1	-1
558.423	1	2
558.593	1	0
558.763	1	0
558.933	1	-2
559.103	1	-7
559.273	1	7
559.443	1	1
559.613	1	-1
559.783	1	-7
559.953	1	-15
560.122	1	-1
560.292	1	-11
560.462	1	-5
560.632	1	-6
560.802	1	-2
560.972	1	-4
561.142	1	-2
561.312	1	0
561.482	1	3
561.652	1	3
561.822	1	-1
561.992	1	1
562.162	1	-11
562.331	1	-10
562.501	1	5
562.671	1	-2
562.841	1	-17
563.011	1	3
563.181	1	-10
563.351	1	-11
563.521	1	-4
563.691	1	5
563.861	1	1
564.031	1	-10
564.201	1	8
564.370	1	8
564.540	1	-1
564.710	1	-1
564.880	1	1
565.050	1	4
565.220	1	3
565.390	1	-3
565.560	1	7
565.730	1	7
565.900	1	3
566.069	1	10
566.239	1	9
566.409	1	6
566.579	1	-1
566.749	1	-13
566.919	1	-15
567.089	1	-13
567.259	1	0
567.429	1	-2
567.599	1	8
567.768	1	-3
567.938	1	-4
568.108	1	-1
568.278	1	4
568.448	1	-5
568.618	1	5
568.788	1	0
568.958	1	-3
569.128	1	-8
569.297	1	-5
569.467	1	1
569.637	1	0
569.807	1	8
569.977	1	7
570.147	1	0
570.317	1	-2
570.487	1	-10
570.656	1	6
570.826	1	-3
570.996	1	7
571.166	1	-5
571.336	1	0
571.506	1	-8
571.676	1	7
571.846	1	4
572.015	1	-1
572.185	1	6
572.355	1	3
572.525	1	-9
572.695	1	2
572.865	1	4
573.035	1	7
573.205	1	-6
573.374	1	-9
573.544	1	-3
573.714	1	-4
573.884	1	-2
574.054	1	1
574.224	1	-3
574.394	1	8
574.563	1	5
574.733	1	5
574.903	1	-1
575.073	1	0
575.243	1	-10
575.413	1	-13
575.583	1	-4
575.752	1	2
575.922	1	4
576.092	1	2
576.262	1	2
576.432	1	-2
576.602	1	0
576.772	1	-1
576.941	1	-2
577.111	1	0
577.281	1	3
577.451	1	2
577.621	1	1
577.791	1	6
577.960	1	1
578.130	1	7
578.300	1	-11
578.470	1	-10
578.640	1	-3
578.810	1	-5
578.979	1	2
579.149	1	-3
579.319	1	3
579.489	1	1
579.659	1	1
579.829	1	0
579.998	1	-6
580.168	1	-2
580.338	1	-3
580.508	1	-7
580.678	1	2
580.848	1	2
581.017	1	4
581.187	1	2
581.357	1	-5
581.527	1	-3
581.697	1	-1
581.867	1	7
582.036	1	-10
582.206	1	-3
582.376	1	-7
582.546	1	4
582.716	1	2
582.885	1	5
583.055	1	-5
583.225	1	-1
583.395	1	-7
583.565	1	12
583.735	1	-2
583.904	1	0
584.074	1	-9
584.244	1	8
584.414	1	-5
584.584	1	-3
584.753	1	-4
584.923	1	-6
585.093	1	0
585.263	1	3
585.433	1	-6
585.602	1	-2
585.772	1	11
585.942	1	-8
586.112	1	-4
586.282	1	-1
586.451	1	7
586.621	1	2
586.791	1	-6
586.961	1	-6
587.131	1	-2
587.300	1	6
587.470	1	-1
587.640	1	-7
587.810	1	-16
587.980	1	8
588.149	1	4
588.319	1	5
588.489	1	4
588.659	1	0
588.829	1	2
588.998	1	-1
589.168	1	1
589.338	1	1
589.508	1	-5
589.677	1	4
589.847	1	6
590.017	1	0
590.187	1	-1
590.357	1	-7
590.526	1	-4
590.696	1	16
590.866	1	-14
591.036	1	7
591.205	1	-1
591.375	1	3
591.545	1	-7
591.715	1	-1
591.885	1	3
592.054	1	1
592.224	1	-4
592.394	1	-9
592.564	1	3
592.733	1	-3
592.903	1	-3
593.073	1	-12
593.243	1	10
593.412	1	-19
593.582	1	4
593.752	1	-12
593.922	1	-1
594.091	1	-1
594.261	1	1
594.431	1	0
594.601	1	1
594.771	1	1
594.940	1	-3
595.110	1	-2
595.280	1	-2
595.450	1	-1
595.619	1	-1
595.789	1	-10
595.959	1	-14
596.129	1	4
596.298	1	7
596.468	1	-8
596.638	1	-2
596.808	1	-3
596.977	1	-4
597.147	1	-8
597.317	1	-4
597.487	1	0
597.656	1	6
597.826	1	1
597.996	1	-2
598.166	1	2
598.335	1	-2
598.505	1	-6
598.675	1	-2
598.844	1	14
599.014	1	-16
599.184	1	-3
599.354	1	1
599.523	1	-2
599.693	1	-6
599.863	1	6
600.033	1	0
600.202	1	0
600.372	1	-9
600.542	1	-5
600.712	1	-2
600.881	1	-6
601.051	1	12
601.221	1	-1
601.390	1	1
601.560	1	0
601.730	1	-2
601.900	1	5
602.069	1	-3
602.239	1	-2
602.409	1	-6
602.578	1	5
602.748	1	10
602.918	1	-9
603.088	1	4
603.257	1	-10
603.427	1	-1
603.597	1	7
603.767	1	2
603.936	1	7
604.106	1	-9
604.276	1	7
604.445	1	-4
604.615	1	1
604.785	1	3
604.954	1	-2
605.124	1	4
605.294	1	-4
605.464	1	-9
605.633	1	7
605.803	1	5
605.973	1	1
606.142	1	0
606.312	1	3
606.482	1	-9
606.652	1	2
606.821	1	-1
606.991	1	8
607.161	1	-3
607.330	1	-12
607.500	1	2
607.670	1	-4
607.839	1	-12
608.009	1	0
608.179	1	3
608.348	1	4
608.518	1	7
608.688	1	1
608.858	1	-7
609.027	1	6
609.197	1	2
609.367	1	-7
609.536	1	-2
609.706	1	6
609.876	1	4
610.045	1	-1
610.215	1	-3
610.385	1	8
610.554	1	-5
610.724	1	-2
610.894	1	-6
611.063	1	5
611.233	1	10
611.403	1	7
611.572	1	5
611.742	1	-5
611.912	1	-2
612.081	1	7
612.251	1	-2
612.421	1	1
612.590	1	0
612.760	1	5
612.930	1	1
613.099	1	-1
613.269	1	-5
613.439	1	-13
613.608	1	3
613.778	1	2
613.948	1	4
614.117	1	-2
614.287	1	-12
614.457	1	6
614.626	1	1
614.796	1	-2
614.966	1	-7
615.135	1	16
615.305	1	1
615.475	1	-3
615.644	1	7
615.814	1	4
615.984	1	-2
616.153	1	5
616.323	1	-6
616.493	1	-5
616.662	1	-6
616.832	1	2
617.002	1	2
617.171	1	-10
617.341	1	-1
617.511	1	-11
617.680	1	-9
617.850	1	8
618.019	1	0
618.189	1	12
618.359	1	-1
618.528	1	-6
618.698	1	-8
618.868	1	2
619.037	1	2
619.207	1	-2
619.377	1	-7
619.546	1	16
619.716	1	-6
619.885	1	-2
620.055	1	-2
620.225	1	3
620.394	1	-1
620.564	1	-2
620.734	1	-10
620.903	1	-2
621.073	1	0
621.242	1	-2
621.412	1	-2
621.582	1	15
621.751	1	-5
621.921	1	-2
622.091	1	7
622.260	1	3
622.430	1	4
622.599	1	-5
622.769	1	2
622.939	1	-4
623.108	1	1
623.278	1	-5
623.448	1	1
623.617	1	4
623.787	1	3
623.956	1	-5
624.126	1	4
624.296	1	-1
624.465	1	0
624.635	1	2
624.804	1	0
624.974	1	1
625.144	1	1
625.313	1	8
625.483	1	3
625.652	1	0
625.822	1	-3
625.992	1	-7
626.161	1	-1
626.331	1	-8
626.501	1	1
626.670	1	1
626.840	1	-1
627.009	1	1
627.179	1	2
627.348	1	-4
627.518	1	8
627.688	1	-5
627.857	1	5
628.027	1	-1
628.196	1	5
628.366	1	-8
628.536	1	0
628.705	1	-8
628.875	1	-1
629.044	1	-3
629.214	1	4
629.384	1	4
629.553	1	3
629.723	1	9
629.892	1	-1
630.062	1	2
630.232	1	7
630.401	1	6
630.571	1	-2
630.740	1	1
630.910	1	12
631.079	1	-4
631.249	1	-4
631.419	1	3
631.588	1	3
631.758	1	-1
631.927	1	10
632.097	1	-8
632.266	1	11
632.436	1	1
632.606	1	-4
632.775	1	-2
632.945	1	-4
633.114	1	4
633.284	1	-6
633.453	1	2
633.623	1	13
633.793	1	3
633.962	1	5
634.132	1	2
634.301	1	7
634.471	1	-8
634.640	1	-2
634.810	1	1
634.979	1	5
635.149	1	-5
635.319	1	-6
635.488	1	3
635.658	1	-4
635.827	1	1
635.997	1	0
636.166	1	2
636.336	1	-4
636.505	1	-2
636.675	1	-8
636.845	1	3
637.014	1	-8
637.184	1	11
637.353	1	0
637.523	1	-5
637.692	1	4
637.862	1	-11
638.031	1	-5
638.201	1	7
638.370	1	1
638.540	1	-7
638.710	1	-6
638.879	1	2
639.049	1	4
639.218	1	3
639.388	1	-3
639.557	1	-3
639.727	1	1
639.896	1	-2
640.066	1	1
640.235	1	-3
640.405	1	3
640.574	1	7
640.744	1	-9
640.914	1	-1
641.083	1	-1
641.253	1	-1
641.422	1	-8
641.592	1	5
641.761	1	-6
641.931	1	3
642.100	1	0
642.270	1	-1
642.439	1	-2
642.609	1	9
642.778	1	1
642.948	1	5
643.117	1	-2
643.287	1	3
643.456	1	-5
643.626	1	2
643.795	1	-2
643.965	1	5
644.134	1	-1
644.304	1	5
644.473	1	-2
644.643	1	0
644.812	1	-5
644.982	1	-7
645.151	1	-7
645.321	1	4
645.490	1	12
645.660	1	-1
645.829	1	-4
645.999	1	-5
646.168	1	13
646.338	1	-11
646.507	1	-5
646.677	1	-3
646.846	1	5
647.016	1	1
647.185	1	4
647.355	1	6
647.524	1	-3
647.694	1	-5
647.863	1	-9
648.033	1	-4
648.202	1	2
648.372	1	-10
648.541	1	4
648.711	1	1
648.880	1	3
649.050	1	0
649.219	1	3
649.389	1	-3
649.558	1	-2
649.728	1	1
649.897	1	-2
650.067	1	8
650.236	1	-7
650.406	1	2
650.575	1	-6
650.745	1	8
650.914	1	4
651.084	1	10
651.253	1	-1
651.423	1	-11
651.592	1	-9
651.762	1	0
651.931	1	-3
652.101	1	-6
652.270	1	-1
652.440	1	4
652.609	1	0
652.778	1	8
652.948	1	7
653.117	1	-2
653.287	1	-13
653.456	1	-12
653.626	1	3
653.795	1	-1
653.965	1	-1
654.134	1	-7
654.304	1	17
654.473	1	-3
654.643	1	-3
654.812	1	11
654.982	1	-2
655.151	1	10
655.320	1	-3
655.490	1	-6
655.659	1	-2
655.829	1	-1
655.998	1	5
656.168	1	-2
656.337	1	-3
656.507	1	-5
656.676	1	0
656.846	1	-6
657.015	1	7
657.184	1	-5
657.354	1	2
657.523	1	1
657.693	1	12
657.862	1	-11
658.032	1	-9
658.201	1	0
658.371	1	-2
658.540	1	-3
658.709	1	-4
658.879	1	2
659.048	1	10
659.218	1	-7
659.387	1	8
659.557	1	2
659.726	1	-5
659.895	1	0
660.065	1	-6
660.234	1	-4
660.404	1	-5
660.573	1	4
660.743	1	-8
660.912	1	8
661.081	1	-4
661.251	1	8
661.420	1	5
661.590	1	-8
661.759	1	0
661.929	1	2
662.098	1	-1
662.267	1	-5
662.437	1	9
662.606	1	0
662.776	1	1
662.945	1	9
663.115	1	10
663.284	1	0
663.453	1	1
663.623	1	-9
663.792	1	6
663.962	1	9
664.131	1	-3
664.300	1	-2
664.470	1	3
664.639	1	8
664.809	1	5
664.978	1	16
665.148	1	3
665.317	1	-9
665.486	1	-3
665.656	1	-1
665.825	1	3
665.995	1	-8
666.164	1	-1
666.333	1	-6
666.503	1	-4
666.672	1	-4
666.842	1	-3
667.011	1	-3
667.180	1	2
667.350	1	6
667.519	1	9
667.689	1	-1
667.858	1	2
668.027	1	-4
668.197	1	-8
668.366	1	-4
668.536	1	-2
668.705	1	-7
668.874	1	10
669.044	1	6
669.213	1	7
669.382	1	1
669.552	1	1
669.721	1	-4
669.891	1	-5
670.060	1	-4
670.229	1	1
670.399	1	0
670.568	1	8
670.738	1	-2
670.907	1	-3
671.076	1	-5
671.246	1	6
671.415	1	11
671.584	1	2
671.754	1	-4
671.923	1	-5
672.093	1	1
672.262	1	0
672.431	1	0
672.601	1	4
672.770	1	-1
672.939	1	5
673.109	1	2
673.278	1	-6
673.448	1	-2
673.617	1	-7
673.786	1	-8
