325.333	1	9
325.504	1	-4
325.675	1	14
325.846	1	7
326.017	1	11
326.188	1	13
326.359	1	2
326.531	1	12
326.702	1	6
326.873	1	10
327.044	1	15
327.215	1	2
327.386	1	-1
327.557	1	-8
327.728	1	7
327.899	1	10
328.070	1	3
328.241	1	-2
328.412	1	7
328.583	1	8
328.754	1	18
328.926	1	13
329.097	1	-3
329.268	1	7
329.439	1	13
329.610	1	10
329.781	1	6
329.952	1	7
330.123	1	6
330.294	1	10
330.465	1	4
330.636	1	9
330.807	1	8
330.978	1	3
331.149	1	15
331.320	1	16
331.492	1	8
331.663	1	6
331.834	1	6
332.005	1	12
332.176	1	8
332.347	1	0
332.518	1	20
332.689	1	9
332.860	1	0
333.031	1	8
333.202	1	0
333.373	1	13
333.544	1	13
333.715	1	5
333.886	1	8
334.057	1	0
334.228	1	17
334.399	1	17
334.570	1	10
334.741	1	11
334.912	1	13
335.084	1	8
335.255	1	17
335.426	1	5
335.597	1	5
335.768	1	16
335.939	1	17
336.110	1	7
336.281	1	17
336.452	1	29
336.623	1	8
336.794	1	3
336.965	1	-6
337.136	1	25
337.307	1	2
337.478	1	11
337.649	1	4
337.820	1	12
337.991	1	4
338.162	1	6
338.333	1	9
338.504	1	14
338.675	1	10
338.846	1	-4
339.017	1	9
339.188	1	10
339.359	1	8
339.530	1	17
339.701	1	17
339.872	1	14
340.043	1	8
340.214	1	21
340.385	1	-3
340.556	1	22
340.727	1	8
340.898	1	15
341.069	1	11
341.240	1	7
341.411	1	18
341.582	1	5
341.753	1	9
341.924	1	31
342.095	1	5
342.266	1	10
342.437	1	17
342.608	1	11
342.779	1	4
342.950	1	1
343.121	1	19
343.292	1	19
343.463	1	33
343.634	1	10
343.805	1	14
343.976	1	38
344.147	1	9
344.318	1	5
344.489	1	8
344.660	1	16
344.831	1	18
345.002	1	22
345.173	1	13
345.344	1	4
345.515	1	7
345.686	1	23
345.857	1	17
346.028	1	18
346.199	1	11
346.370	1	4
346.541	1	10
346.712	1	17
346.883	1	13
347.054	1	26
347.225	1	15
347.396	1	19
347.567	1	6
347.738	1	11
347.909	1	17
348.080	1	8
348.251	1	12
348.422	1	11
348.593	1	11
348.764	1	19
348.935	1	20
349.106	1	12
349.277	1	17
349.448	1	22
349.619	1	6
349.790	1	15
349.961	1	21
350.132	1	24
350.303	1	19
350.474	1	26
350.645	1	24
350.816	1	16
350.987	1	26
351.157	1	13
351.328	1	13
351.499	1	18
351.670	1	21
351.841	1	23
352.012	1	26
352.183	1	13
352.354	1	15
352.525	1	21
352.696	1	12
352.867	1	20
353.038	1	27
353.209	1	14
353.380	1	19
353.551	1	36
353.722	1	23
353.893	1	25
354.064	1	25
354.235	1	18
354.406	1	8
354.576	1	29
354.747	1	15
354.918	1	24
355.089	1	32
355.260	1	22
355.431	1	14
355.602	1	24
355.773	1	17
355.944	1	17
356.115	1	34
356.286	1	27
356.457	1	17
356.628	1	23
356.799	1	22
356.970	1	32
357.141	1	25
357.311	1	19
357.482	1	30
357.653	1	9
357.824	1	22
357.995	1	26
358.166	1	14
358.337	1	16
358.508	1	34
358.679	1	21
358.850	1	22
359.021	1	30
359.192	1	34
359.363	1	25
359.533	1	24
359.704	1	17
359.875	1	26
360.046	1	24
360.217	1	19
360.388	1	33
360.559	1	32
360.730	1	12
360.901	1	30
361.072	1	25
361.243	1	19
361.414	1	32
361.584	1	17
361.755	1	28
361.926	1	35
362.097	1	11
362.268	1	32
362.439	1	20
362.610	1	26
362.781	1	24
362.952	1	37
363.123	1	25
363.293	1	17
363.464	1	33
363.635	1	31
363.806	1	18
363.977	1	23
364.148	1	24
364.319	1	18
364.490	1	26
364.661	1	29
364.832	1	23
365.002	1	25
365.173	1	33
365.344	1	19
365.515	1	21
365.686	1	27
365.857	1	26
366.028	1	25
366.199	1	29
366.370	1	18
366.540	1	22
366.711	1	24
366.882	1	19
367.053	1	36
367.224	1	23
367.395	1	20
367.566	1	29
367.737	1	19
367.908	1	29
368.078	1	24
368.249	1	25
368.420	1	33
368.591	1	32
368.762	1	25
368.933	1	25
369.104	1	31
369.274	1	26
369.445	1	39
369.616	1	26
369.787	1	23
369.958	1	33
370.129	1	25
370.300	1	28
370.471	1	30
370.641	1	28
370.812	1	40
370.983	1	33
371.154	1	22
371.325	1	33
371.496	1	18
371.667	1	33
371.837	1	33
372.008	1	15
372.179	1	32
372.350	1	37
372.521	1	22
372.692	1	41
372.863	1	23
373.033	1	32
373.204	1	25
373.375	1	21
373.546	1	36
373.717	1	30
373.888	1	35
374.059	1	29
374.229	1	33
374.400	1	24
374.571	1	14
374.742	1	20
374.913	1	18
375.084	1	28
375.254	1	14
375.425	1	28
375.596	1	32
375.767	1	27
375.938	1	27
376.109	1	34
376.279	1	25
376.450	1	31
376.621	1	39
376.792	1	32
376.963	1	32
377.134	1	30
377.304	1	33
377.475	1	24
377.646	1	27
377.817	1	39
377.988	1	26
378.159	1	40
378.329	1	34
378.500	1	36
378.671	1	29
378.842	1	37
379.013	1	30
379.184	1	31
379.354	1	33
379.525	1	29
379.696	1	39
379.867	1	28
380.038	1	31
380.209	1	37
380.379	1	31
380.550	1	20
380.721	1	34
380.892	1	33
381.063	1	26
381.233	1	26
381.404	1	34
381.575	1	30
381.746	1	28
381.917	1	30
382.087	1	38
382.258	1	40
382.429	1	35
382.600	1	35
382.771	1	35
382.941	1	44
383.112	1	30
383.283	1	35
383.454	1	25
383.625	1	34
383.795	1	40
383.966	1	32
384.137	1	38
384.308	1	30
384.479	1	37
384.649	1	36
384.820	1	26
384.991	1	23
385.162	1	41
385.333	1	36
385.503	1	30
385.674	1	35
385.845	1	34
386.016	1	42
386.187	1	30
386.357	1	38
386.528	1	26
386.699	1	37
386.870	1	38
387.041	1	37
387.211	1	35
387.382	1	46
387.553	1	38
387.724	1	34
387.894	1	30
388.065	1	40
388.236	1	32
388.407	1	40
388.578	1	34
388.748	1	41
388.919	1	41
389.090	1	40
389.261	1	39
389.431	1	34
389.602	1	39
389.773	1	41
389.944	1	40
390.114	1	41
390.285	1	41
390.456	1	38
390.627	1	34
390.798	1	31
390.968	1	41
391.139	1	47
391.310	1	34
391.481	1	31
391.651	1	42
391.822	1	54
391.993	1	28
392.164	1	38
392.334	1	39
392.505	1	35
392.676	1	26
392.847	1	34
393.017	1	41
393.188	1	37
393.359	1	48
393.530	1	51
393.700	1	40
393.871	1	37
394.042	1	39
394.213	1	35
394.383	1	40
394.554	1	35
394.725	1	29
394.896	1	51
395.066	1	40
395.237	1	40
395.408	1	43
395.579	1	44
395.749	1	37
395.920	1	41
396.091	1	37
396.262	1	33
396.432	1	34
396.603	1	43
396.774	1	29
396.945	1	45
397.115	1	47
397.286	1	44
397.457	1	42
397.627	1	34
397.798	1	49
397.969	1	44
398.140	1	37
398.310	1	43
398.481	1	42
398.652	1	40
398.823	1	39
398.993	1	36
399.164	1	37
399.335	1	40
399.505	1	41
399.676	1	39
399.847	1	30
400.018	1	29
400.188	1	43
400.359	1	49
400.530	1	44
400.700	1	46
400.871	1	39
401.042	1	49
401.213	1	38
401.383	1	43
401.554	1	45
401.725	1	41
401.895	1	38
402.066	1	43
402.237	1	43
402.408	1	38
402.578	1	47
402.749	1	33
402.920	1	46
403.090	1	35
403.261	1	36
403.432	1	49
403.603	1	48
403.773	1	53
403.944	1	52
404.115	1	32
404.285	1	39
404.456	1	53
404.627	1	46
404.797	1	42
404.968	1	34
405.139	1	46
405.310	1	37
405.480	1	42
405.651	1	35
405.822	1	38
405.992	1	48
406.163	1	29
406.334	1	32
406.504	1	45
406.675	1	35
406.846	1	46
407.016	1	53
407.187	1	43
407.358	1	33
407.528	1	47
407.699	1	48
407.870	1	52
408.041	1	39
408.211	1	41
408.382	1	53
408.553	1	49
408.723	1	40
408.894	1	49
409.065	1	45
409.235	1	46
409.406	1	44
409.577	1	44
409.747	1	48
409.918	1	48
410.089	1	50
410.259	1	47
410.430	1	41
410.601	1	49
410.771	1	54
410.942	1	49
411.113	1	43
411.283	1	48
411.454	1	51
411.625	1	36
411.795	1	51
411.966	1	50
412.137	1	55
412.307	1	45
412.478	1	46
412.649	1	34
412.819	1	46
412.990	1	51
413.161	1	41
413.331	1	40
413.502	1	37
413.672	1	34
413.843	1	41
414.014	1	41
414.184	1	42
414.355	1	39
414.526	1	40
414.696	1	36
414.867	1	23
415.038	1	36
415.208	1	40
415.379	1	52
415.550	1	42
415.720	1	38
415.891	1	39
416.062	1	53
416.232	1	45
416.403	1	54
416.573	1	40
416.744	1	47
416.915	1	41
417.085	1	47
417.256	1	44
417.427	1	37
417.597	1	52
417.768	1	53
417.939	1	38
418.109	1	43
418.280	1	43
418.450	1	50
418.621	1	42
418.792	1	45
418.962	1	37
419.133	1	43
419.304	1	37
419.474	1	37
419.645	1	39
419.815	1	44
419.986	1	49
420.157	1	36
420.327	1	36
420.498	1	39
420.669	1	43
420.839	1	51
421.010	1	37
421.180	1	22
421.351	1	41
421.522	1	43
421.692	1	50
421.863	1	40
422.033	1	52
422.204	1	45
422.375	1	36
422.545	1	57
422.716	1	41
422.886	1	48
423.057	1	35
423.228	1	39
423.398	1	41
423.569	1	38
423.740	1	33
423.910	1	31
424.081	1	45
424.251	1	37
424.422	1	43
424.593	1	46
424.763	1	47
424.934	1	48
425.104	1	48
425.275	1	38
425.445	1	43
425.616	1	40
425.787	1	36
425.957	1	32
426.128	1	46
426.298	1	44
426.469	1	32
426.640	1	38
426.810	1	28
426.981	1	38
427.151	1	31
427.322	1	41
427.493	1	39
427.663	1	34
427.834	1	30
428.004	1	49
428.175	1	45
428.345	1	25
428.516	1	38
428.687	1	38
428.857	1	48
429.028	1	41
429.198	1	39
429.369	1	41
429.540	1	33
429.710	1	45
429.881	1	38
430.051	1	33
430.222	1	43
430.392	1	40
430.563	1	38
430.734	1	32
430.904	1	42
431.075	1	36
431.245	1	48
431.416	1	34
431.586	1	36
431.757	1	35
431.927	1	51
432.098	1	43
432.269	1	45
432.439	1	31
432.610	1	48
432.780	1	40
432.951	1	34
433.121	1	39
433.292	1	42
433.462	1	43
433.633	1	36
433.804	1	44
433.974	1	42
434.145	1	33
434.315	1	41
434.486	1	24
434.656	1	51
434.827	1	45
434.997	1	45
435.168	1	38
435.339	1	44
435.509	1	39
435.680	1	44
435.850	1	28
436.021	1	30
436.191	1	37
436.362	1	41
436.532	1	51
436.703	1	33
436.873	1	34
437.044	1	44
437.214	1	28
437.385	1	43
437.556	1	39
437.726	1	40
437.897	1	32
438.067	1	33
438.238	1	50
438.408	1	43
438.579	1	30
438.749	1	34
438.920	1	39
439.090	1	25
439.261	1	42
439.431	1	23
439.602	1	33
439.772	1	31
439.943	1	31
440.113	1	24
440.284	1	40
440.455	1	31
440.625	1	47
440.796	1	31
440.966	1	45
441.137	1	50
441.307	1	32
441.478	1	39
441.648	1	35
441.819	1	32
441.989	1	34
442.160	1	37
442.330	1	37
442.501	1	38
442.671	1	40
442.842	1	43
443.012	1	35
443.183	1	35
443.353	1	29
443.524	1	37
443.694	1	40
443.865	1	45
444.035	1	37
444.206	1	35
444.376	1	33
444.547	1	45
444.717	1	35
444.888	1	28
445.058	1	35
445.229	1	30
445.399	1	37
445.570	1	24
445.740	1	29
445.911	1	27
446.081	1	39
446.252	1	30
446.422	1	35
446.593	1	28
446.763	1	42
446.934	1	26
447.104	1	25
447.275	1	35
447.445	1	28
447.616	1	35
447.786	1	24
447.957	1	35
448.127	1	34
448.298	1	42
448.468	1	35
448.639	1	26
448.809	1	35
448.979	1	43
449.150	1	33
449.320	1	35
449.491	1	34
449.661	1	21
449.832	1	21
450.002	1	35
450.173	1	29
450.343	1	36
450.514	1	31
450.684	1	34
450.855	1	39
451.025	1	28
451.196	1	33
451.366	1	38
451.537	1	37
451.707	1	35
451.878	1	25
452.048	1	30
452.218	1	38
452.389	1	31
452.559	1	41
452.730	1	35
452.900	1	33
453.071	1	36
453.241	1	25
453.412	1	29
453.582	1	38
453.753	1	28
453.923	1	29
454.093	1	36
454.264	1	44
454.434	1	29
454.605	1	19
454.775	1	29
454.946	1	15
455.116	1	41
455.287	1	25
455.457	1	32
455.628	1	22
455.798	1	39
455.968	1	27
456.139	1	39
456.309	1	25
456.480	1	31
456.650	1	26
456.821	1	36
456.991	1	42
457.161	1	26
457.332	1	30
457.502	1	27
457.673	1	24
457.843	1	35
458.014	1	25
458.184	1	30
458.355	1	30
458.525	1	31
458.695	1	22
458.866	1	21
459.036	1	29
459.207	1	32
459.377	1	22
459.548	1	38
459.718	1	31
459.888	1	24
460.059	1	30
460.229	1	12
460.400	1	27
460.570	1	25
460.740	1	25
460.911	1	29
461.081	1	35
461.252	1	33
461.422	1	19
461.593	1	35
461.763	1	45
461.933	1	17
462.104	1	23
462.274	1	22
462.445	1	19
462.615	1	30
462.785	1	35
462.956	1	25
463.126	1	28
463.297	1	33
463.467	1	44
463.638	1	40
463.808	1	26
463.978	1	21
464.149	1	21
464.319	1	31
464.490	1	24
464.660	1	28
464.830	1	17
465.001	1	25
465.171	1	22
465.342	1	18
465.512	1	27
465.682	1	22
465.853	1	11
466.023	1	34
466.194	1	25
466.364	1	25
466.534	1	18
466.705	1	19
466.875	1	19
467.045	1	18
467.216	1	24
467.386	1	17
467.557	1	39
467.727	1	13
467.897	1	23
468.068	1	18
468.238	1	20
468.409	1	30
468.579	1	15
468.749	1	19
468.920	1	19
469.090	1	22
469.260	1	22
469.431	1	23
469.601	1	33
469.772	1	28
469.942	1	27
470.112	1	17
470.283	1	18
470.453	1	35
470.623	1	27
470.794	1	21
470.964	1	14
471.135	1	35
471.305	1	16
471.475	1	33
471.646	1	27
471.816	1	20
471.986	1	20
472.157	1	26
472.327	1	25
472.497	1	18
472.668	1	30
472.838	1	19
473.009	1	25
473.179	1	25
473.349	1	12
473.520	1	35
473.690	1	25
473.860	1	6
474.031	1	8
474.201	1	30
474.371	1	18
474.542	1	8
474.712	1	24
474.882	1	18
475.053	1	26
475.223	1	22
475.394	1	17
475.564	1	22
475.734	1	8
475.905	1	27
476.075	1	20
476.245	1	17
476.416	1	12
476.586	1	21
476.756	1	27
476.927	1	18
477.097	1	23
477.267	1	25
477.438	1	31
477.608	1	33
477.778	1	18
477.949	1	9
478.119	1	10
478.289	1	26
478.460	1	20
478.630	1	23
478.800	1	18
478.971	1	24
479.141	1	33
479.311	1	22
479.482	1	20
479.652	1	23
479.822	1	10
479.993	1	28
480.163	1	15
480.333	1	17
480.504	1	29
480.674	1	24
480.844	1	15
481.015	1	32
481.185	1	20
481.355	1	24
481.525	1	16
481.696	1	23
481.866	1	17
482.036	1	31
482.207	1	9
482.377	1	8
482.547	1	20
482.718	1	20
482.888	1	29
483.058	1	16
483.229	1	11
483.399	1	37
483.569	1	17
483.740	1	28
483.910	1	13
484.080	1	25
484.250	1	19
484.421	1	9
484.591	1	14
484.761	1	27
484.932	1	6
485.102	1	16
485.272	1	21
485.443	1	18
485.613	1	14
485.783	1	26
485.953	1	19
486.124	1	12
486.294	1	25
486.464	1	15
486.635	1	15
486.805	1	15
486.975	1	6
487.146	1	17
487.316	1	23
487.486	1	29
487.656	1	20
487.827	1	17
487.997	1	16
488.167	1	9
488.338	1	11
488.508	1	17
488.678	1	9
488.848	1	13
489.019	1	18
489.189	1	30
489.359	1	17
489.529	1	12
489.700	1	9
489.870	1	12
490.040	1	17
490.211	1	9
490.381	1	16
490.551	1	19
490.721	1	21
490.892	1	-3
491.062	1	10
491.232	1	12
491.402	1	0
491.573	1	23
491.743	1	18
491.913	1	9
492.084	1	19
492.254	1	10
492.424	1	15
492.594	1	17
492.765	1	22
492.935	1	19
493.105	1	5
493.275	1	18
493.446	1	1
493.616	1	5
493.786	1	20
493.956	1	12
494.127	1	7
494.297	1	8
494.467	1	13
494.637	1	20
494.808	1	20
494.978	1	7
495.148	1	3
495.318	1	8
495.489	1	5
495.659	1	17
495.829	1	8
495.999	1	18
496.170	1	14
496.340	1	19
496.510	1	18
496.680	1	19
496.851	1	17
497.021	1	9
497.191	1	13
497.361	1	7
497.532	1	19
497.702	1	18
497.872	1	10
498.042	1	3
498.213	1	2
498.383	1	14
498.553	1	25
498.723	1	12
498.894	1	9
499.064	1	10
499.234	1	18
499.404	1	14
499.574	1	16
499.745	1	16
499.915	1	8
500.085	1	-3
500.255	1	-8
500.426	1	6
500.596	1	-1
500.766	1	7
500.936	1	10
501.106	1	6
501.277	1	8
501.447	1	4
501.617	1	11
501.787	1	10
501.958	1	14
502.128	1	9
502.298	1	16
502.468	1	17
502.638	1	8
502.809	1	3
502.979	1	10
503.149	1	5
503.319	1	14
503.489	1	2
503.660	1	1
503.830	1	9
504.000	1	13
504.170	1	5
504.340	1	9
504.511	1	10
504.681	1	7
504.851	1	14
505.021	1	21
505.192	1	8
505.362	1	3
505.532	1	0
505.702	1	20
505.872	1	12
506.043	1	15
506.213	1	23
506.383	1	6
506.553	1	12
506.723	1	3
506.893	1	21
507.064	1	14
507.234	1	6
507.404	1	0
507.574	1	15
507.744	1	3
507.915	1	8
508.085	1	11
508.255	1	8
508.425	1	6
508.595	1	4
508.766	1	4
508.936	1	19
509.106	1	13
509.276	1	7
509.446	1	9
509.616	1	10
509.787	1	8
509.957	1	17
510.127	1	2
510.297	1	12
510.467	1	10
510.638	1	12
510.808	1	18
510.978	1	4
511.148	1	8
511.318	1	7
511.488	1	12
511.659	1	3
511.829	1	-1
511.999	1	14
512.169	1	16
512.339	1	22
512.509	1	7
512.680	1	4
512.850	1	8
513.020	1	8
513.190	1	-2
513.360	1	5
513.530	1	4
513.700	1	9
513.871	1	9
514.041	1	20
514.211	1	12
514.381	1	4
514.551	1	2
514.721	1	6
514.892	1	5
515.062	1	1
515.232	1	0
515.402	1	8
515.572	1	12
515.742	1	9
515.912	1	11
516.083	1	12
516.253	1	12
516.423	1	13
516.593	1	11
516.763	1	15
516.933	1	1
517.104	1	9
517.274	1	-1
517.444	1	14
517.614	1	2
517.784	1	8
517.954	1	-4
518.124	1	12
518.294	1	4
518.465	1	6
518.635	1	15
518.805	1	21
518.975	1	20
519.145	1	3
519.315	1	11
519.485	1	-4
519.656	1	4
519.826	1	-4
519.996	1	14
520.166	1	7
520.336	1	7
520.506	1	7
520.676	1	8
520.846	1	3
521.017	1	20
521.187	1	17
521.357	1	6
521.527	1	-6
521.697	1	11
521.867	1	13
522.037	1	7
522.207	1	4
522.377	1	20
522.548	1	-13
522.718	1	-7
522.888	1	0
523.058	1	12
523.228	1	-6
523.398	1	0
523.568	1	-2
523.738	1	9
523.909	1	-3
524.079	1	10
524.249	1	8
524.419	1	5
524.589	1	10
524.759	1	11
524.929	1	6
525.099	1	5
525.269	1	9
525.439	1	1
525.610	1	14
525.780	1	7
525.950	1	9
526.120	1	3
526.290	1	0
526.460	1	-1
526.630	1	3
526.800	1	3
526.970	1	17
527.140	1	5
527.311	1	8
527.481	1	4
527.651	1	13
527.821	1	5
527.991	1	-1
528.161	1	2
528.331	1	8
528.501	1	13
528.671	1	11
528.841	1	8
529.011	1	8
529.181	1	7
529.352	1	6
529.522	1	0
529.692	1	11
529.862	1	-2
530.032	1	-4
530.202	1	1
530.372	1	13
530.542	1	1
530.712	1	1
530.882	1	2
531.052	1	15
531.222	1	16
531.392	1	5
531.563	1	16
531.733	1	6
531.903	1	3
532.073	1	7
532.243	1	14
532.413	1	14
532.583	1	13
532.753	1	0
532.923	1	9
533.093	1	-2
533.263	1	9
533.433	1	-1
533.603	1	-5
533.773	1	5
533.943	1	1
534.113	1	-2
534.284	1	6
534.454	1	-6
534.624	1	12
534.794	1	2
534.964	1	19
535.134	1	5
535.304	1	10
535.474	1	11
535.644	1	6
535.814	1	3
535.984	1	5
536.154	1	1
536.324	1	1
536.494	1	11
536.664	1	11
536.834	1	0
537.004	1	2
537.174	1	8
537.344	1	17
537.514	1	1
537.685	1	9
537.855	1	7
538.025	1	9
538.195	1	3
538.365	1	1
538.535	1	7
538.705	1	-1
538.875	1	4
539.045	1	7
539.215	1	-3
539.385	1	7
539.555	1	1
539.725	1	4
539.895	1	8
540.065	1	6
540.235	1	2
540.405	1	2
540.575	1	4
540.745	1	13
540.915	1	8
541.085	1	-1
541.255	1	5
541.425	1	-3
541.595	1	6
541.765	1	3
541.935	1	-1
542.105	1	8
542.275	1	-2
542.445	1	6
542.615	1	9
542.785	1	8
542.955	1	9
543.125	1	3
543.295	1	6
543.465	1	8
543.635	1	-4
543.805	1	8
543.975	1	5
544.145	1	1
544.315	1	0
544.485	1	2
544.655	1	14
544.825	1	-1
544.995	1	-3
545.165	1	-1
545.335	1	14
545.505	1	-4
545.675	1	9
545.845	1	4
546.015	1	-7
546.185	1	4
546.355	1	1
546.525	1	15
546.695	1	1
546.865	1	7
547.035	1	7
547.205	1	11
547.375	1	10
547.545	1	15
547.715	1	11
547.885	1	-1
548.055	1	9
548.225	1	21
548.395	1	4
548.565	1	13
548.735	1	-1
548.905	1	9
549.075	1	7
549.245	1	12
549.415	1	4
549.585	1	-4
549.755	1	4
549.925	1	9
550.095	1	-2
550.265	1	2
550.435	1	2
550.605	1	6
550.775	1	-5
550.945	1	5
551.115	1	11
551.285	1	0
551.455	1	6
551.625	1	-6
551.795	1	-2
551.965	1	-3
552.135	1	1
552.305	1	17
552.475	1	11
552.645	1	6
552.815	1	-7
552.985	1	5
553.155	1	-8
553.325	1	8
553.495	1	6
553.665	1	-1
553.835	1	7
554.004	1	4
554.174	1	1
554.344	1	7
554.514	1	-1
554.684	1	7
554.854	1	-3
555.024	1	11
555.194	1	4
555.364	1	1
555.534	1	-7
555.704	1	-1
555.874	1	2
556.044	1	5
556.214	1	7
556.384	1	14
556.554	1	8
556.724	1	-4
556.894	1	2
557.064	1	-10
557.234	1	-3
557.404	1	1
557.573	1	9
557.743	1	4
557.913	1	3
558.083	1	10
558.253	1	4
558.423	1	10
558.593	1	5
558.763	1	-1
558.933	1	6
559.103	1	-1
559.273	1	7
559.443	1	6
559.613	1	7
559.783	1	3
559.953	1	-9
560.122	1	-2
560.292	1	-13
560.462	1	2
560.632	1	10
560.802	1	10
560.972	1	-8
561.142	1	8
561.312	1	0
561.482	1	4
561.652	1	1
561.822	1	-4
561.992	1	9
562.162	1	1
562.331	1	1
562.501	1	-2
562.671	1	-4
562.841	1	-10
563.011	1	9
563.181	1	3
563.351	1	-2
563.521	1	-10
563.691	1	-3
563.861	1	2
564.031	1	-13
564.201	1	10
564.370	1	13
564.540	1	4
564.710	1	3
564.880	1	6
565.050	1	9
565.220	1	5
565.390	1	-4
565.560	1	6
565.730	1	3
565.900	1	12
566.069	1	17
566.239	1	6
566.409	1	12
566.579	1	4
566.749	1	0
566.919	1	-5
567.089	1	-7
567.259	1	4
567.429	1	-6
567.599	1	12
567.768	1	-3
567.938	1	2
568.108	1	3
568.278	1	9
568.448	1	3
568.618	1	6
568.788	1	1
568.958	1	-4
569.128	1	-1
569.297	1	-7
569.467	1	10
569.637	1	5
569.807	1	7
569.977	1	-7
570.147	1	11
570.317	1	-2
570.487	1	-1
570.656	1	6
570.826	1	4
570.996	1	10
571.166	1	2
571.336	1	0
571.506	1	-2
571.676	1	6
571.846	1	8
572.015	1	4
572.185	1	3
572.355	1	4
572.525	1	1
572.695	1	-2
572.865	1	4
573.035	1	13
573.205	1	-6
573.374	1	-3
573.544	1	8
573.714	1	-2
573.884	1	-3
574.054	1	7
574.224	1	9
574.394	1	3
574.563	1	2
574.733	1	11
574.903	1	8
575.073	1	4
575.243	1	1
575.413	1	0
575.583	1	4
575.752	1	0
575.922	1	10
576.092	1	-1
576.262	1	3
576.432	1	2
576.602	1	-8
576.772	1	8
576.941	1	-5
577.111	1	4
577.281	1	-1
577.451	1	3
577.621	1	10
577.791	1	-2
577.960	1	-3
578.130	1	8
578.300	1	-3
578.470	1	0
578.640	1	1
578.810	1	-5
578.979	1	-1
579.149	1	-1
579.319	1	6
579.489	1	11
579.659	1	2
579.829	1	-10
579.998	1	-2
580.168	1	-3
580.338	1	11
580.508	1	-1
580.678	1	1
580.848	1	1
581.017	1	3
581.187	1	10
581.357	1	15
581.527	1	3
581.697	1	-3
581.867	1	2
582.036	1	-12
582.206	1	4
582.376	1	-1
582.546	1	0
582.716	1	0
582.885	1	2
583.055	1	-3
583.225	1	-3
583.395	1	3
583.565	1	12
583.735	1	4
583.904	1	-2
584.074	1	2
584.244	1	1
584.414	1	4
584.584	1	-2
584.753	1	0
584.923	1	-10
585.093	1	8
585.263	1	-4
585.433	1	7
585.602	1	6
585.772	1	19
585.942	1	-2
586.112	1	6
586.282	1	2
586.451	1	11
586.621	1	-3
586.791	1	-2
586.961	1	0
587.131	1	0
587.300	1	7
587.470	1	2
587.640	1	-3
587.810	1	-6
587.980	1	8
588.149	1	7
588.319	1	12
588.489	1	5
588.659	1	-7
588.829	1	11
588.998	1	12
589.168	1	4
589.338	1	-3
589.508	1	-5
589.677	1	2
589.847	1	3
590.017	1	3
590.187	1	4
590.357	1	-3
590.526	1	-10
590.696	1	6
590.866	1	1
591.036	1	10
591.205	1	7
591.375	1	7
591.545	1	-5
591.715	1	-5
591.885	1	9
592.054	1	8
592.224	1	4
592.394	1	-3
592.564	1	-1
592.733	1	7
592.903	1	-2
593.073	1	2
593.243	1	6
593.412	1	-6
593.582	1	4
593.752	1	-9
593.922	1	7
594.091	1	7
594.261	1	-4
594.431	1	9
594.601	1	6
594.771	1	1
594.940	1	-6
595.110	1	4
595.280	1	2
595.450	1	3
595.619	1	1
595.789	1	-3
595.959	1	3
596.129	1	5
596.298	1	17
596.468	1	-9
596.638	1	-6
596.808	1	-4
596.977	1	-1
597.147	1	-5
597.317	1	4
597.487	1	5
597.656	1	6
597.826	1	-3
597.996	1	-4
598.166	1	-2
598.335	1	-3
598.505	1	-3
598.675	1	6
598.844	1	13
599.014	1	-7
599.184	1	9
599.354	1	10
599.523	1	-2
599.693	1	3
599.863	1	10
600.033	1	5
600.202	1	-2
600.372	1	-6
600.542	1	5
600.712	1	0
600.881	1	5
601.051	1	10
601.221	1	4
601.390	1	4
601.560	1	6
601.730	1	-4
601.900	1	-4
602.069	1	-1
602.239	1	5
602.409	1	15
602.578	1	12
602.748	1	16
602.918	1	-9
603.088	1	11
603.257	1	-5
603.427	1	9
603.597	1	3
603.767	1	3
603.936	1	4
604.106	1	-6
604.276	1	0
604.445	1	1
604.615	1	11
604.785	1	7
604.954	1	-2
605.124	1	5
605.294	1	0
605.464	1	-2
605.633	1	-5
605.803	1	3
605.973	1	6
606.142	1	3
606.312	1	11
606.482	1	-4
606.652	1	3
606.821	1	-2
606.991	1	10
607.161	1	4
607.330	1	-7
607.500	1	-1
607.670	1	0
607.839	1	0
608.009	1	-1
608.179	1	9
608.348	1	4
608.518	1	12
608.688	1	-4
608.858	1	-8
609.027	1	11
609.197	1	10
609.367	1	1
609.536	1	-8
609.706	1	6
609.876	1	4
610.045	1	6
610.215	1	6
610.385	1	5
610.554	1	5
610.724	1	-3
610.894	1	4
611.063	1	-3
611.233	1	1
611.403	1	3
611.572	1	6
611.742	1	-2
611.912	1	-1
612.081	1	9
612.251	1	5
612.421	1	-2
612.590	1	12
612.760	1	1
612.930	1	1
613.099	1	5
613.269	1	4
613.439	1	-5
613.608	1	8
613.778	1	8
613.948	1	23
614.117	1	-3
614.287	1	-3
614.457	1	0
614.626	1	-3
614.796	1	-2
614.966	1	1
615.135	1	12
615.305	1	5
615.475	1	6
615.644	1	18
615.814	1	9
615.984	1	-3
616.153	1	4
616.323	1	8
616.493	1	4
616.662	1	-5
616.832	1	7
617.002	1	4
617.171	1	5
617.341	1	6
617.511	1	-10
617.680	1	-7
617.850	1	2
618.019	1	-2
618.189	1	14
618.359	1	8
618.528	1	9
618.698	1	5
618.868	1	-6
619.037	1	3
619.207	1	4
619.377	1	2
619.546	1	12
619.716	1	5
619.885	1	5
620.055	1	-3
620.225	1	4
620.394	1	7
620.564	1	5
620.734	1	2
620.903	1	-9
621.073	1	7
621.242	1	5
621.412	1	5
621.582	1	8
621.751	1	5
621.921	1	12
622.091	1	-6
622.260	1	16
622.430	1	7
622.599	1	-3
622.769	1	2
622.939	1	-1
623.108	1	2
623.278	1	4
623.448	1	5
623.617	1	10
623.787	1	-5
623.956	1	6
624.126	1	12
624.296	1	7
624.465	1	4
624.635	1	11
624.804	1	-12
624.974	1	3
625.144	1	3
625.313	1	23
625.483	1	2
625.652	1	-3
625.822	1	6
625.992	1	3
626.161	1	3
626.331	1	-9
626.501	1	3
626.670	1	1
626.840	1	3
627.009	1	3
627.179	1	12
627.348	1	4
627.518	1	14
627.688	1	0
627.857	1	8
628.027	1	11
628.196	1	8
628.366	1	-3
628.536	1	-3
628.705	1	-3
628.875	1	-6
629.044	1	3
629.214	1	17
629.384	1	13
629.553	1	0
629.723	1	9
629.892	1	4
630.062	1	7
630.232	1	10
630.401	1	5
630.571	1	7
630.740	1	-2
630.910	1	8
631.079	1	8
631.249	1	5
631.419	1	1
631.588	1	2
631.758	1	-1
631.927	1	14
632.097	1	3
632.266	1	16
632.436	1	4
632.606	1	3
632.775	1	12
632.945	1	8
633.114	1	-4
633.284	1	7
633.453	1	6
633.623	1	15
633.793	1	11
633.962	1	8
634.132	1	5
634.301	1	15
634.471	1	2
634.640	1	-2
634.810	1	6
634.979	1	1
635.149	1	0
635.319	1	-6
635.488	1	7
635.658	1	3
635.827	1	4
635.997	1	13
636.166	1	1
636.336	1	8
636.505	1	3
636.675	1	-4
636.845	1	10
637.014	1	-5
637.184	1	18
637.353	1	-2
637.523	1	1
637.692	1	10
637.862	1	1
638.031	1	-6
638.201	1	5
638.370	1	-3
638.540	1	-4
638.710	1	2
638.879	1	1
639.049	1	-1
639.218	1	10
639.388	1	4
639.557	1	8
639.727	1	4
639.896	1	-4
640.066	1	3
640.235	1	-4
640.405	1	9
640.574	1	12
640.744	1	-1
640.914	1	5
641.083	1	11
641.253	1	5
641.422	1	-9
641.592	1	14
641.761	1	10
641.931	1	13
642.100	1	4
642.270	1	7
642.439	1	11
642.609	1	12
642.778	1	-3
642.948	1	14
643.117	1	3
643.287	1	1
643.456	1	-1
643.626	1	-9
643.795	1	5
643.965	1	4
644.134	1	12
644.304	1	1
644.473	1	4
644.643	1	3
644.812	1	2
644.982	1	6
645.151	1	7
645.321	1	21
645.490	1	10
645.660	1	3
645.829	1	13
645.999	1	0
646.168	1	22
646.338	1	-10
646.507	1	-4
646.677	1	8
646.846	1	7
647.016	1	14
647.185	1	2
647.355	1	12
647.524	1	2
647.694	1	-4
647.863	1	5
648.033	1	3
648.202	1	4
648.372	1	-1
648.541	1	3
648.711	1	4
648.880	1	4
649.050	1	11
649.219	1	6
649.389	1	-3
649.558	1	5
649.728	1	7
649.897	1	4
650.067	1	5
650.236	1	-3
650.406	1	6
650.575	1	5
650.745	1	10
650.914	1	20
651.084	1	13
651.253	1	3
651.423	1	-10
651.592	1	6
651.762	1	-2
651.931	1	9
652.101	1	6
652.270	1	-3
652.440	1	7
652.609	1	11
652.778	1	-1
652.948	1	4
653.117	1	-2
653.287	1	-4
653.456	1	5
653.626	1	5
653.795	1	3
653.965	1	3
654.134	1	1
654.304	1	8
654.473	1	11
654.643	1	0
654.812	1	18
654.982	1	4
655.151	1	20
655.320	1	5
655.490	1	-6
655.659	1	10
655.829	1	13
655.998	1	7
656.168	1	-4
656.337	1	10
656.507	1	15
656.676	1	3
656.846	1	2
657.015	1	11
657.184	1	11
657.354	1	3
657.523	1	0
657.693	1	13
657.862	1	-1
658.032	1	4
658.201	1	-1
658.371	1	2
658.540	1	3
658.709	1	2
658.879	1	12
659.048	1	9
659.218	1	6
659.387	1	12
659.557	1	-2
659.726	1	9
659.895	1	2
660.065	1	2
660.234	1	1
660.404	1	8
660.573	1	7
660.743	1	2
660.912	1	4
661.081	1	-8
661.251	1	2
661.420	1	10
661.590	1	0
661.759	1	9
661.929	1	0
662.098	1	9
662.267	1	-1
662.437	1	6
662.606	1	-6
662.776	1	9
662.945	1	16
663.115	1	14
663.284	1	9
663.453	1	1
663.623	1	4
663.792	1	10
663.962	1	12
664.131	1	6
664.300	1	0
664.470	1	-2
664.639	1	0
664.809	1	6
664.978	1	5
665.148	1	3
665.317	1	3
665.486	1	10
665.656	1	9
665.825	1	12
665.995	1	4
666.164	1	0
666.333	1	-3
666.503	1	3
666.672	1	1
666.842	1	5
667.011	1	6
667.180	1	7
667.350	1	9
667.519	1	6
667.689	1	5
667.858	1	15
668.027	1	0
668.197	1	-7
668.366	1	8
668.536	1	8
668.705	1	2
668.874	1	7
669.044	1	15
669.213	1	10
669.382	1	1
669.552	1	4
669.721	1	3
669.891	1	-5
670.060	1	7
670.229	1	18
670.399	1	13
670.568	1	6
670.738	1	1
670.907	1	-2
671.076	1	14
671.246	1	11
671.415	1	17
671.584	1	11
671.754	1	1
671.923	1	2
672.093	1	16
672.262	1	3
672.431	1	2
672.601	1	10
672.770	1	3
672.939	1	9
673.109	1	-3
673.278	1	9
673.448	1	7
673.617	1	16
673.786	1	3
