325.333	1	9
325.504	1	-2
325.675	1	14
325.846	1	2
326.017	1	2
326.188	1	4
326.359	1	3
326.531	1	-1
326.702	1	-7
326.873	1	7
327.044	1	-1
327.215	1	-7
327.386	1	4
327.557	1	1
327.728	1	1
327.899	1	0
328.070	1	3
328.241	1	-2
328.412	1	-4
328.583	1	-9
328.754	1	9
328.926	1	10
329.097	1	-8
329.268	1	3
329.439	1	11
329.610	1	0
329.781	1	8
329.952	1	4
330.123	1	-7
330.294	1	-6
330.465	1	-10
330.636	1	6
330.807	1	-3
330.978	1	-6
331.149	1	-5
331.320	1	4
331.492	1	-1
331.663	1	5
331.834	1	5
332.005	1	-3
332.176	1	6
332.347	1	-12
332.518	1	8
332.689	1	10
332.860	1	4
333.031	1	7
333.202	1	-3
333.373	1	0
333.544	1	-5
333.715	1	-8
333.886	1	-4
334.057	1	-5
334.228	1	14
334.399	1	11
334.570	1	-3
334.741	1	3
334.912	1	-2
335.084	1	7
335.255	1	4
335.426	1	3
335.597	1	10
335.768	1	7
335.939	1	6
336.110	1	4
336.281	1	-7
336.452	1	4
336.623	1	-5
336.794	1	-3
336.965	1	-3
337.136	1	9
337.307	1	-2
337.478	1	0
337.649	1	-2
337.820	1	4
337.991	1	4
338.162	1	0
338.333	1	0
338.504	1	1
338.675	1	-6
338.846	1	-9
339.017	1	6
339.188	1	-6
339.359	1	2
339.530	1	-5
339.701	1	5
339.872	1	11
340.043	1	2
340.214	1	10
340.385	1	-7
340.556	1	0
340.727	1	2
340.898	1	6
341.069	1	-2
341.240	1	4
341.411	1	2
341.582	1	-6
341.753	1	4
341.924	1	13
342.095	1	-7
342.266	1	1
342.437	1	3
342.608	1	6
342.779	1	6
342.950	1	0
343.121	1	4
343.292	1	5
343.463	1	9
343.634	1	-4
343.805	1	-3
343.976	1	9
344.147	1	3
344.318	1	3
344.489	1	-1
344.660	1	6
344.831	1	10
345.002	1	10
345.173	1	2
345.344	1	-4
345.515	1	-6
345.686	1	-7
345.857	1	4
346.028	1	3
346.199	1	-1
346.370	1	1
346.541	1	-6
346.712	1	1
346.883	1	-3
347.054	1	5
347.225	1	-8
347.396	1	-2
347.567	1	-8
347.738	1	3
347.909	1	7
348.080	1	4
348.251	1	-7
348.422	1	2
348.593	1	1
348.764	1	-7
348.935	1	1
349.106	1	-2
349.277	1	9
349.448	1	-3
349.619	1	-1
349.790	1	6
349.961	1	-16
350.132	1	2
350.303	1	-6
350.474	1	-1
350.645	1	-6
350.816	1	1
350.987	1	7
351.157	1	-5
351.328	1	-5
351.499	1	7
351.670	1	-1
351.841	1	12
352.012	1	-4
352.183	1	11
352.354	1	-2
352.525	1	10
352.696	1	-5
352.867	1	6
353.038	1	15
353.209	1	0
353.380	1	4
353.551	1	-6
353.722	1	9
353.893	1	3
354.064	1	9
354.235	1	6
354.406	1	-18
354.576	1	5
354.747	1	4
354.918	1	7
355.089	1	10
355.260	1	-8
355.431	1	-5
355.602	1	2
355.773	1	2
355.944	1	8
356.115	1	8
356.286	1	1
356.457	1	6
356.628	1	-2
356.799	1	7
356.970	1	-1
357.141	1	8
357.311	1	9
357.482	1	-7
357.653	1	-2
357.824	1	11
357.995	1	12
358.166	1	0
358.337	1	3
358.508	1	0
358.679	1	4
358.850	1	-1
359.021	1	10
359.192	1	14
359.363	1	9
359.533	1	7
359.704	1	1
359.875	1	-1
360.046	1	-4
360.217	1	0
360.388	1	9
360.559	1	3
360.730	1	-4
360.901	1	4
361.072	1	3
361.243	1	6
361.414	1	11
361.584	1	4
361.755	1	7
361.926	1	-2
362.097	1	-6
362.268	1	12
362.439	1	0
362.610	1	10
362.781	1	-4
362.952	1	-3
363.123	1	-3
363.293	1	0
363.464	1	-3
363.635	1	9
363.806	1	4
363.977	1	2
364.148	1	8
364.319	1	0
364.490	1	1
364.661	1	5
364.832	1	12
365.002	1	17
365.173	1	9
365.344	1	4
365.515	1	7
365.686	1	10
365.857	1	10
366.028	1	6
366.199	1	9
366.370	1	3
366.540	1	-3
366.711	1	9
366.882	1	6
367.053	1	5
367.224	1	2
367.395	1	0
367.566	1	3
367.737	1	3
367.908	1	9
368.078	1	2
368.249	1	1
368.420	1	2
368.591	1	7
368.762	1	6
368.933	1	-1
369.104	1	8
369.274	1	5
369.445	1	7
369.616	1	5
369.787	1	2
369.958	1	11
370.129	1	6
370.300	1	3
370.471	1	11
370.641	1	3
370.812	1	3
370.983	1	-2
371.154	1	1
371.325	1	1
371.496	1	7
371.667	1	21
371.837	1	0
372.008	1	4
372.179	1	7
372.350	1	5
372.521	1	16
372.692	1	18
372.863	1	7
373.033	1	-3
373.204	1	2
373.375	1	-2
373.546	1	9
373.717	1	-3
373.888	1	4
374.059	1	10
374.229	1	7
374.400	1	5
374.571	1	2
374.742	1	1
374.913	1	-11
375.084	1	8
375.254	1	-1
375.425	1	8
375.596	1	4
375.767	1	5
375.938	1	-3
376.109	1	-1
376.279	1	4
376.450	1	7
376.621	1	15
376.792	1	10
376.963	1	1
377.134	1	9
377.304	1	2
377.475	1	2
377.646	1	-3
377.817	1	8
377.988	1	6
378.159	1	5
378.329	1	-1
378.500	1	10
378.671	1	1
378.842	1	1
379.013	1	5
379.184	1	20
379.354	1	3
379.525	1	5
379.696	1	10
379.867	1	6
380.038	1	-3
380.209	1	4
380.379	1	5
380.550	1	-18
380.721	1	0
380.892	1	4
381.063	1	15
381.233	1	1
381.404	1	8
381.575	1	4
381.746	1	6
381.917	1	-4
382.087	1	9
382.258	1	7
382.429	1	3
382.600	1	5
382.771	1	7
382.941	1	10
383.112	1	7
383.283	1	2
383.454	1	6
383.625	1	2
383.795	1	7
383.966	1	6
384.137	1	16
384.308	1	10
384.479	1	2
384.649	1	7
384.820	1	5
384.991	1	0
385.162	1	7
385.333	1	9
385.503	1	-9
385.674	1	5
385.845	1	9
386.016	1	12
386.187	1	-4
386.357	1	21
386.528	1	5
386.699	1	-3
386.870	1	4
387.041	1	11
387.211	1	0
387.382	1	10
387.553	1	15
387.724	1	6
387.894	1	-1
388.065	1	5
388.236	1	6
388.407	1	6
388.578	1	5
388.748	1	8
388.919	1	4
389.090	1	14
389.261	1	13
389.431	1	-3
389.602	1	10
389.773	1	6
389.944	1	12
390.114	1	10
390.285	1	12
390.456	1	9
390.627	1	3
390.798	1	5
390.968	1	7
391.139	1	9
391.310	1	11
391.481	1	-3
391.651	1	6
391.822	1	19
391.993	1	7
392.164	1	6
392.334	1	4
392.505	1	10
392.676	1	2
392.847	1	7
393.017	1	2
393.188	1	8
393.359	1	17
393.530	1	11
393.700	1	2
393.871	1	3
394.042	1	15
394.213	1	8
394.383	1	7
394.554	1	-2
394.725	1	-3
394.896	1	13
395.066	1	4
395.237	1	13
395.408	1	11
395.579	1	14
395.749	1	15
395.920	1	1
396.091	1	6
396.262	1	3
396.432	1	-3
396.603	1	7
396.774	1	-2
396.945	1	6
397.115	1	23
397.286	1	11
397.457	1	9
397.627	1	-1
397.798	1	5
397.969	1	2
398.140	1	0
398.310	1	3
398.481	1	5
398.652	1	16
398.823	1	3
398.993	1	6
399.164	1	10
399.335	1	-7
399.505	1	7
399.676	1	10
399.847	1	6
400.018	1	2
400.188	1	10
400.359	1	9
400.530	1	5
400.700	1	6
400.871	1	7
401.042	1	10
401.213	1	10
401.383	1	1
401.554	1	6
401.725	1	10
401.895	1	0
402.066	1	3
402.237	1	9
402.408	1	9
402.578	1	10
402.749	1	-1
402.920	1	12
403.090	1	12
403.261	1	0
403.432	1	16
403.603	1	16
403.773	1	8
403.944	1	8
404.115	1	7
404.285	1	18
404.456	1	14
404.627	1	10
404.797	1	1
404.968	1	8
405.139	1	3
405.310	1	4
405.480	1	9
405.651	1	2
405.822	1	4
405.992	1	6
406.163	1	3
406.334	1	7
406.504	1	11
406.675	1	4
406.846	1	13
407.016	1	11
407.187	1	8
407.358	1	-2
407.528	1	6
407.699	1	4
407.870	1	16
408.041	1	-3
408.211	1	11
408.382	1	12
408.553	1	8
408.723	1	20
408.894	1	-1
409.065	1	4
409.235	1	5
409.406	1	4
409.577	1	13
409.747	1	16
409.918	1	19
410.089	1	8
410.259	1	12
410.430	1	16
410.601	1	-2
410.771	1	7
410.942	1	11
411.113	1	11
411.283	1	13
411.454	1	23
411.625	1	14
411.795	1	9
411.966	1	-5
412.137	1	15
412.307	1	13
412.478	1	7
412.649	1	9
412.819	1	21
412.990	1	10
413.161	1	10
413.331	1	7
413.502	1	8
413.672	1	3
413.843	1	6
414.014	1	3
414.184	1	16
414.355	1	19
414.526	1	12
414.696	1	-1
414.867	1	3
415.038	1	9
415.208	1	-5
415.379	1	7
415.550	1	4
415.720	1	-9
415.891	1	15
416.062	1	16
416.232	1	14
416.403	1	17
416.573	1	8
416.744	1	16
416.915	1	1
417.085	1	12
417.256	1	8
417.427	1	5
417.597	1	1
417.768	1	11
417.939	1	4
418.109	1	5
418.280	1	5
418.450	1	17
418.621	1	12
418.792	1	6
418.962	1	9
419.133	1	-2
419.304	1	0
419.474	1	16
419.645	1	6
419.815	1	9
419.986	1	8
420.157	1	2
420.327	1	7
420.498	1	6
420.669	1	8
420.839	1	5
421.010	1	3
421.180	1	2
421.351	1	10
421.522	1	8
421.692	1	17
421.863	1	11
422.033	1	7
422.204	1	22
422.375	1	13
422.545	1	9
422.716	1	0
422.886	1	12
423.057	1	12
423.228	1	10
423.398	1	12
423.569	1	3
423.740	1	12
423.910	1	11
424.081	1	2
424.251	1	8
424.422	1	11
424.593	1	5
424.763	1	16
424.934	1	17
425.104	1	15
425.275	1	7
425.445	1	6
425.616	1	1
425.787	1	8
425.957	1	0
426.128	1	4
426.298	1	12
426.469	1	4
426.640	1	9
426.810	1	-8
426.981	1	11
427.151	1	-2
427.322	1	11
427.493	1	4
427.663	1	6
427.834	1	-3
428.004	1	17
428.175	1	17
428.345	1	1
428.516	1	8
428.687	1	10
428.857	1	18
429.028	1	3
429.198	1	-1
429.369	1	12
429.540	1	11
429.710	1	6
429.881	1	6
430.051	1	5
430.222	1	17
430.392	1	9
430.563	1	0
430.734	1	5
430.904	1	7
431.075	1	13
431.245	1	5
431.416	1	10
431.586	1	2
431.757	1	7
431.927	1	18
432.098	1	15
432.269	1	2
432.439	1	0
432.610	1	10
432.780	1	10
432.951	1	5
433.121	1	-1
433.292	1	10
433.462	1	6
433.633	1	-6
433.804	1	-1
433.974	1	12
434.145	1	1
434.315	1	2
434.486	1	-4
434.656	1	14
434.827	1	2
434.997	1	10
435.168	1	7
435.339	1	12
435.509	1	3
435.680	1	12
435.850	1	-6
436.021	1	-3
436.191	1	0
436.362	1	2
436.532	1	11
436.703	1	12
436.873	1	0
437.044	1	10
437.214	1	5
437.385	1	8
437.556	1	16
437.726	1	6
437.897	1	-5
438.067	1	9
438.238	1	12
438.408	1	14
438.579	1	4
438.749	1	4
438.920	1	14
439.090	1	1
439.261	1	10
439.431	1	-5
439.602	1	12
439.772	1	8
439.943	1	1
440.113	1	7
440.284	1	9
440.455	1	3
440.625	1	9
440.796	1	4
440.966	1	9
441.137	1	8
441.307	1	10
441.478	1	7
441.648	1	13
441.819	1	0
441.989	1	22
442.160	1	5
442.330	1	16
442.501	1	5
442.671	1	7
442.842	1	6
443.012	1	6
443.183	1	17
443.353	1	-1
443.524	1	8
443.694	1	3
443.865	1	15
444.035	1	6
444.206	1	7
444.376	1	11
444.547	1	10
444.717	1	5
444.888	1	-4
445.058	1	5
445.229	1	5
445.399	1	-2
445.570	1	9
445.740	1	-2
445.911	1	11
446.081	1	9
446.252	1	8
446.422	1	2
446.593	1	1
446.763	1	16
446.934	1	-1
447.104	1	5
447.275	1	9
447.445	1	7
447.616	1	5
447.786	1	8
447.957	1	1
448.127	1	10
448.298	1	2
448.468	1	5
448.639	1	-3
448.809	1	-5
448.979	1	14
449.150	1	-2
449.320	1	18
449.491	1	-2
449.661	1	7
449.832	1	0
450.002	1	-2
450.173	1	8
450.343	1	-8
450.514	1	11
450.684	1	11
450.855	1	21
451.025	1	2
451.196	1	1
451.366	1	11
451.537	1	8
451.707	1	3
451.878	1	-10
452.048	1	-1
452.218	1	4
452.389	1	3
452.559	1	10
452.730	1	7
452.900	1	-1
453.071	1	14
453.241	1	7
453.412	1	11
453.582	1	7
453.753	1	-4
453.923	1	4
454.093	1	5
454.264	1	15
454.434	1	12
454.605	1	1
454.775	1	4
454.946	1	5
455.116	1	7
455.287	1	3
455.457	1	4
455.628	1	1
455.798	1	14
455.968	1	9
456.139	1	13
456.309	1	8
456.480	1	12
456.650	1	7
456.821	1	-6
456.991	1	10
457.161	1	-2
457.332	1	-3
457.502	1	7
457.673	1	2
457.843	1	6
458.014	1	11
458.184	1	8
458.355	1	6
458.525	1	-9
458.695	1	1
458.866	1	-6
459.036	1	3
459.207	1	16
459.377	1	6
459.548	1	9
459.718	1	9
459.888	1	-2
460.059	1	5
460.229	1	-8
460.400	1	10
460.570	1	-1
460.740	1	8
460.911	1	-6
461.081	1	4
461.252	1	10
461.422	1	0
461.593	1	7
461.763	1	19
461.933	1	5
462.104	1	1
462.274	1	0
462.445	1	-4
462.615	1	9
462.785	1	13
462.956	1	-1
463.126	1	4
463.297	1	4
463.467	1	7
463.638	1	7
463.808	1	7
463.978	1	-5
464.149	1	1
464.319	1	3
464.490	1	6
464.660	1	1
464.830	1	-1
465.001	1	0
465.171	1	3
465.342	1	-3
465.512	1	2
465.682	1	-10
465.853	1	4
466.023	1	-2
466.194	1	9
466.364	1	9
466.534	1	0
466.705	1	5
466.875	1	-10
467.045	1	-3
467.216	1	6
467.386	1	4
467.557	1	15
467.727	1	1
467.897	1	0
468.068	1	-7
468.238	1	4
468.409	1	10
468.579	1	1
468.749	1	-2
468.920	1	-2
469.090	1	5
469.260	1	-2
469.431	1	-1
469.601	1	13
469.772	1	4
469.942	1	7
470.112	1	-2
470.283	1	15
470.453	1	7
470.623	1	7
470.794	1	6
470.964	1	-6
471.135	1	10
471.305	1	2
471.475	1	8
471.646	1	7
471.816	1	10
471.986	1	7
472.157	1	6
472.327	1	12
472.497	1	4
472.668	1	7
472.838	1	-6
473.009	1	3
473.179	1	7
473.349	1	8
473.520	1	9
473.690	1	1
473.860	1	-4
474.031	1	-6
474.201	1	5
474.371	1	4
474.542	1	4
474.712	1	-8
474.882	1	7
475.053	1	15
475.223	1	8
475.394	1	-3
475.564	1	1
475.734	1	-6
475.905	1	-1
476.075	1	8
476.245	1	2
476.416	1	-2
476.586	1	4
476.756	1	7
476.927	1	5
477.097	1	-6
477.267	1	-3
477.438	1	7
477.608	1	11
477.778	1	5
477.949	1	-6
478.119	1	2
478.289	1	-3
478.460	1	7
478.630	1	2
478.800	1	-2
478.971	1	3
479.141	1	12
479.311	1	-1
479.482	1	-1
479.652	1	8
479.822	1	-6
479.993	1	-2
480.163	1	-4
480.333	1	11
480.504	1	16
480.674	1	6
480.844	1	-3
481.015	1	10
481.185	1	10
481.355	1	4
481.525	1	-9
481.696	1	12
481.866	1	9
482.036	1	10
482.207	1	7
482.377	1	-3
482.547	1	2
482.718	1	4
482.888	1	17
483.058	1	2
483.229	1	6
483.399	1	10
483.569	1	-11
483.740	1	8
483.910	1	-4
484.080	1	1
484.250	1	-1
484.421	1	-4
484.591	1	-11
484.761	1	-2
484.932	1	-1
485.102	1	16
485.272	1	4
485.443	1	4
485.613	1	1
485.783	1	1
485.953	1	-3
486.124	1	6
486.294	1	0
486.464	1	9
486.635	1	-10
486.805	1	-1
486.975	1	2
487.146	1	11
487.316	1	10
487.486	1	8
487.656	1	-1
487.827	1	5
487.997	1	-5
488.167	1	7
488.338	1	-3
488.508	1	5
488.678	1	2
488.848	1	5
489.019	1	-7
489.189	1	11
489.359	1	2
489.529	1	-5
489.700	1	1
489.870	1	4
490.040	1	1
490.211	1	-8
490.381	1	-1
490.551	1	8
490.721	1	10
490.892	1	-5
491.062	1	-1
491.232	1	2
491.402	1	-5
491.573	1	3
491.743	1	-4
491.913	1	6
492.084	1	-1
492.254	1	-1
492.424	1	-5
492.594	1	-2
492.765	1	11
492.935	1	6
493.105	1	-4
493.275	1	-1
493.446	1	-11
493.616	1	-10
493.786	1	8
493.956	1	-1
494.127	1	-5
494.297	1	-10
494.467	1	2
494.637	1	-3
494.808	1	8
494.978	1	4
495.148	1	-5
495.318	1	2
495.489	1	-4
495.659	1	0
495.829	1	-1
495.999	1	7
496.170	1	3
496.340	1	0
496.510	1	10
496.680	1	5
496.851	1	10
497.021	1	-7
497.191	1	2
497.361	1	-13
497.532	1	2
497.702	1	2
497.872	1	6
498.042	1	1
498.213	1	-10
498.383	1	0
498.553	1	2
498.723	1	5
498.894	1	4
499.064	1	1
499.234	1	5
499.404	1	12
499.574	1	6
499.745	1	6
499.915	1	1
500.085	1	-2
500.255	1	-16
500.426	1	3
500.596	1	-9
500.766	1	0
500.936	1	-15
501.106	1	-2
501.277	1	-6
501.447	1	1
501.617	1	-4
501.787	1	-6
501.958	1	5
502.128	1	0
502.298	1	-1
502.468	1	-8
502.638	1	5
502.809	1	-5
502.979	1	7
503.149	1	0
503.319	1	12
503.489	1	-16
503.660	1	1
503.830	1	2
504.000	1	-1
504.170	1	-7
504.340	1	-4
504.511	1	-4
504.681	1	-3
504.851	1	0
505.021	1	6
505.192	1	-5
505.362	1	2
505.532	1	-7
505.702	1	18
505.872	1	-4
506.043	1	3
506.213	1	5
506.383	1	11
506.553	1	-2
506.723	1	-12
506.893	1	2
507.064	1	4
507.234	1	-10
507.404	1	-9
507.574	1	4
507.744	1	8
507.915	1	-2
508.085	1	-8
508.255	1	3
508.425	1	-7
508.595	1	-3
508.766	1	-7
508.936	1	11
509.106	1	0
509.276	1	8
509.446	1	-3
509.616	1	0
509.787	1	-4
509.957	1	8
510.127	1	-7
510.297	1	-9
510.467	1	-1
510.638	1	4
510.808	1	11
510.978	1	-2
511.148	1	0
511.318	1	2
511.488	1	2
511.659	1	-4
511.829	1	-6
511.999	1	-5
512.169	1	2
512.339	1	-5
512.509	1	0
512.680	1	-1
512.850	1	-1
513.020	1	10
513.190	1	-10
513.360	1	-2
513.530	1	-7
513.700	1	-6
513.871	1	1
514.041	1	-4
514.211	1	10
514.381	1	2
514.551	1	8
514.721	1	7
514.892	1	-2
515.062	1	0
515.232	1	-6
515.402	1	-5
515.572	1	6
515.742	1	1
515.912	1	6
516.083	1	6
516.253	1	6
516.423	1	-2
516.593	1	4
516.763	1	8
516.933	1	1
517.104	1	6
517.274	1	-2
517.444	1	1
517.614	1	-7
517.784	1	4
517.954	1	-6
518.124	1	6
518.294	1	-2
518.465	1	-3
518.635	1	3
518.805	1	3
518.975	1	6
519.145	1	0
519.315	1	3
519.485	1	-12
519.656	1	-4
519.826	1	-13
519.996	1	7
520.166	1	0
520.336	1	-2
520.506	1	3
520.676	1	3
520.846	1	6
521.017	1	-4
521.187	1	4
521.357	1	-1
521.527	1	-4
521.697	1	-4
521.867	1	5
522.037	1	-2
522.207	1	8
522.377	1	14
522.548	1	-7
522.718	1	-1
522.888	1	1
523.058	1	-4
523.228	1	-7
523.398	1	-7
523.568	1	-7
523.738	1	1
523.909	1	-4
524.079	1	-9
524.249	1	-5
524.419	1	6
524.589	1	3
524.759	1	-2
524.929	1	2
525.099	1	-3
525.269	1	7
525.439	1	5
525.610	1	9
525.780	1	3
525.950	1	1
526.120	1	-2
526.290	1	-4
526.460	1	-9
526.630	1	-3
526.800	1	-2
526.970	1	3
527.140	1	-4
527.311	1	-2
527.481	1	4
527.651	1	7
527.821	1	-6
527.991	1	3
528.161	1	5
528.331	1	-5
528.501	1	-5
528.671	1	1
528.841	1	0
529.011	1	-7
529.181	1	-9
529.352	1	0
529.522	1	-2
529.692	1	11
529.862	1	-5
530.032	1	-4
530.202	1	-6
530.372	1	2
530.542	1	-4
530.712	1	-1
530.882	1	-1
531.052	1	7
531.222	1	7
531.392	1	0
531.563	1	2
531.733	1	-1
531.903	1	-4
532.073	1	-2
532.243	1	8
532.413	1	9
532.583	1	3
532.753	1	-9
532.923	1	1
533.093	1	-16
533.263	1	5
533.433	1	-5
533.603	1	-11
533.773	1	-5
533.943	1	-2
534.113	1	-2
534.284	1	-6
534.454	1	-11
534.624	1	-2
534.794	1	-4
534.964	1	0
535.134	1	-2
535.304	1	4
535.474	1	2
535.644	1	-6
535.814	1	-6
535.984	1	-1
536.154	1	-4
536.324	1	-10
536.494	1	11
536.664	1	-3
536.834	1	1
537.004	1	1
537.174	1	0
537.344	1	-2
537.514	1	-5
537.685	1	-2
537.855	1	4
538.025	1	13
538.195	1	-6
538.365	1	-7
538.535	1	-6
538.705	1	2
538.875	1	4
539.045	1	-1
539.215	1	-6
539.385	1	-2
539.555	1	2
539.725	1	5
539.895	1	9
540.065	1	-5
540.235	1	-2
540.405	1	2
540.575	1	4
540.745	1	2
540.915	1	-2
541.085	1	-8
541.255	1	8
541.425	1	0
541.595	1	0
541.765	1	-3
541.935	1	-5
542.105	1	-7
542.275	1	-11
542.445	1	9
542.615	1	4
542.785	1	-13
542.955	1	11
543.125	1	3
543.295	1	-3
543.465	1	2
543.635	1	-10
543.805	1	-4
543.975	1	-1
544.145	1	-3
544.315	1	-15
544.485	1	-1
544.655	1	4
544.825	1	1
544.995	1	2
545.165	1	4
545.335	1	3
545.505	1	-3
545.675	1	3
545.845	1	8
546.015	1	-5
546.185	1	5
546.355	1	-8
546.525	1	8
546.695	1	-6
546.865	1	7
547.035	1	2
547.205	1	2
547.375	1	6
547.545	1	-2
547.715	1	-5
547.885	1	-6
548.055	1	-6
548.225	1	7
548.395	1	-5
548.565	1	8
548.735	1	-10
548.905	1	3
549.075	1	5
549.245	1	-5
549.415	1	3
549.585	1	1
549.755	1	2
549.925	1	-1
550.095	1	-6
550.265	1	-9
550.435	1	-2
550.605	1	2
550.775	1	-14
550.945	1	5
551.115	1	9
551.285	1	-10
551.455	1	0
551.625	1	-2
551.795	1	-1
551.965	1	-8
552.135	1	-4
552.305	1	15
552.475	1	-1
552.645	1	-5
552.815	1	-1
552.985	1	-4
553.155	1	-8
553.325	1	-3
553.495	1	6
553.665	1	6
553.835	1	4
554.004	1	3
554.174	1	-7
554.344	1	5
554.514	1	-2
554.684	1	8
554.854	1	-17
555.024	1	2
555.194	1	3
555.364	1	-8
555.534	1	-3
555.704	1	2
555.874	1	0
556.044	1	2
556.214	1	10
556.384	1	7
556.554	1	0
556.724	1	1
556.894	1	-4
557.064	1	-2
557.234	1	-7
557.404	1	-3
557.573	1	-2
557.743	1	-9
557.913	1	-9
558.083	1	2
558.253	1	3
558.423	1	-3
558.593	1	3
558.763	1	-3
558.933	1	-7
559.103	1	-4
559.273	1	7
559.443	1	3
559.613	1	-5
559.783	1	-5
559.953	1	-12
560.122	1	2
560.292	1	-12
560.462	1	-18
560.632	1	-5
560.802	1	5
560.972	1	-12
561.142	1	-9
561.312	1	-2
561.482	1	14
561.652	1	-7
561.822	1	0
561.992	1	3
562.162	1	0
562.331	1	-15
562.501	1	2
562.671	1	-9
562.841	1	-8
563.011	1	2
563.181	1	-4
563.351	1	-15
563.521	1	-6
563.691	1	-4
563.861	1	2
564.031	1	-12
564.201	1	4
564.370	1	6
564.540	1	-9
564.710	1	-5
564.880	1	-4
565.050	1	-1
565.220	1	4
565.390	1	-5
565.560	1	5
565.730	1	4
565.900	1	-1
566.069	1	11
566.239	1	7
566.409	1	4
566.579	1	-2
566.749	1	-12
566.919	1	-11
567.089	1	-6
567.259	1	0
567.429	1	-9
567.599	1	0
567.768	1	1
567.938	1	0
568.108	1	-10
568.278	1	9
568.448	1	-3
568.618	1	1
568.788	1	-6
568.958	1	-1
569.128	1	-9
569.297	1	-11
569.467	1	11
569.637	1	14
569.807	1	1
569.977	1	-4
570.147	1	1
570.317	1	-1
570.487	1	-1
570.656	1	-1
570.826	1	-9
570.996	1	4
571.166	1	3
571.336	1	1
571.506	1	-1
571.676	1	-2
571.846	1	9
572.015	1	-2
572.185	1	-5
572.355	1	-5
572.525	1	-12
572.695	1	0
572.865	1	4
573.035	1	5
573.205	1	-4
573.374	1	-8
573.544	1	2
573.714	1	-3
573.884	1	-10
574.054	1	0
574.224	1	-1
574.394	1	-3
574.563	1	4
574.733	1	1
574.903	1	-4
575.073	1	0
575.243	1	-5
575.413	1	-5
575.583	1	-11
575.752	1	-5
575.922	1	7
576.092	1	-8
576.262	1	2
576.432	1	-11
576.602	1	-2
576.772	1	-6
576.941	1	2
577.111	1	-12
577.281	1	7
577.451	1	4
577.621	1	-5
577.791	1	-11
577.960	1	5
578.130	1	7
578.300	1	2
578.470	1	-6
578.640	1	-16
578.810	1	-10
578.979	1	9
579.149	1	-6
579.319	1	1
579.489	1	6
579.659	1	1
579.829	1	-11
579.998	1	-14
580.168	1	0
580.338	1	-1
580.508	1	-5
580.678	1	2
580.848	1	-3
581.017	1	-3
581.187	1	4
581.357	1	0
581.527	1	-5
581.697	1	0
581.867	1	0
582.036	1	-10
582.206	1	3
582.376	1	-4
582.546	1	-8
582.716	1	-3
582.885	1	-5
583.055	1	-11
583.225	1	-2
583.395	1	8
583.565	1	12
583.735	1	-1
583.904	1	0
584.074	1	-1
584.244	1	-9
584.414	1	-3
584.584	1	0
584.753	1	-5
584.923	1	1
585.093	1	7
585.263	1	-3
585.433	1	-6
585.602	1	-2
585.772	1	11
585.942	1	-9
586.112	1	3
586.282	1	4
586.451	1	2
586.621	1	-3
586.791	1	-12
586.961	1	-2
587.131	1	-4
587.300	1	-1
587.470	1	-1
587.640	1	6
587.810	1	-27
587.980	1	0
588.149	1	-2
588.319	1	14
588.489	1	2
588.659	1	-2
588.829	1	-1
588.998	1	-7
589.168	1	1
589.338	1	-6
589.508	1	1
589.677	1	-4
589.847	1	-2
590.017	1	-1
590.187	1	7
590.357	1	0
590.526	1	-12
590.696	1	-2
590.866	1	-5
591.036	1	11
591.205	1	0
591.375	1	3
591.545	1	-9
591.715	1	-10
591.885	1	2
592.054	1	1
592.224	1	4
592.394	1	-6
592.564	1	-3
592.733	1	9
592.903	1	1
593.073	1	-5
593.243	1	6
593.412	1	-9
593.582	1	-3
593.752	1	-11
593.922	1	6
594.091	1	6
594.261	1	-8
594.431	1	-7
594.601	1	-5
594.771	1	0
594.940	1	-12
595.110	1	-3
595.280	1	2
595.450	1	7
595.619	1	0
595.789	1	-1
595.959	1	-2
596.129	1	-8
596.298	1	9
596.468	1	2
596.638	1	-2
596.808	1	-7
596.977	1	-5
597.147	1	-2
597.317	1	1
597.487	1	0
597.656	1	6
597.826	1	15
597.996	1	-10
598.166	1	-3
598.335	1	-10
598.505	1	1
598.675	1	3
598.844	1	9
599.014	1	-7
599.184	1	1
599.354	1	10
599.523	1	-4
599.693	1	-1
599.863	1	3
600.033	1	3
600.202	1	-6
600.372	1	-3
600.542	1	-2
600.712	1	3
600.881	1	-2
601.051	1	-2
601.221	1	-1
601.390	1	-7
601.560	1	8
601.730	1	1
601.900	1	7
602.069	1	4
602.239	1	1
602.409	1	-4
602.578	1	0
602.748	1	7
602.918	1	-8
603.088	1	4
603.257	1	-9
603.427	1	-5
603.597	1	-2
603.767	1	-1
603.936	1	-1
604.106	1	-4
604.276	1	-2
604.445	1	-2
604.615	1	-5
604.785	1	3
604.954	1	3
605.124	1	3
605.294	1	-3
605.464	1	-3
605.633	1	-1
605.803	1	5
605.973	1	3
606.142	1	-6
606.312	1	1
606.482	1	-6
606.652	1	-10
606.821	1	5
606.991	1	10
607.161	1	-2
607.330	1	2
607.500	1	2
607.670	1	-12
607.839	1	-4
608.009	1	-9
608.179	1	-2
608.348	1	7
608.518	1	8
608.688	1	0
608.858	1	2
609.027	1	6
609.197	1	-8
609.367	1	-15
609.536	1	-4
609.706	1	2
609.876	1	7
610.045	1	3
610.215	1	11
610.385	1	-2
610.554	1	3
610.724	1	0
610.894	1	6
611.063	1	-1
611.233	1	11
611.403	1	-4
611.572	1	-4
611.742	1	-12
611.912	1	1
612.081	1	1
612.251	1	4
612.421	1	3
612.590	1	7
612.760	1	0
612.930	1	2
613.099	1	-5
613.269	1	0
613.439	1	-8
613.608	1	6
613.778	1	-2
613.948	1	-3
614.117	1	4
614.287	1	-5
614.457	1	2
614.626	1	-9
614.796	1	-9
614.966	1	-2
615.135	1	9
615.305	1	0
615.475	1	-2
615.644	1	10
615.814	1	8
615.984	1	-14
616.153	1	3
616.323	1	1
616.493	1	-14
616.662	1	-3
616.832	1	2
617.002	1	3
617.171	1	2
617.341	1	3
617.511	1	-4
617.680	1	-4
617.850	1	4
618.019	1	-10
618.189	1	9
618.359	1	-5
618.528	1	-2
618.698	1	4
618.868	1	-11
619.037	1	1
619.207	1	-7
619.377	1	2
619.546	1	10
619.716	1	-11
619.885	1	3
620.055	1	-9
620.225	1	-1
620.394	1	1
620.564	1	6
620.734	1	-5
620.903	1	-16
621.073	1	3
621.242	1	-4
621.412	1	-2
621.582	1	5
621.751	1	7
621.921	1	5
622.091	1	0
622.260	1	5
622.430	1	-5
622.599	1	-10
622.769	1	-11
622.939	1	-8
623.108	1	-1
623.278	1	-5
623.448	1	0
623.617	1	0
623.787	1	-10
623.956	1	3
624.126	1	8
624.296	1	3
624.465	1	12
624.635	1	2
624.804	1	-5
624.974	1	-8
625.144	1	2
625.313	1	17
625.483	1	5
625.652	1	-4
625.822	1	5
625.992	1	-8
626.161	1	1
626.331	1	-11
626.501	1	-6
626.670	1	-2
626.840	1	2
627.009	1	4
627.179	1	0
627.348	1	3
627.518	1	8
627.688	1	-6
627.857	1	5
628.027	1	1
628.196	1	-1
628.366	1	-11
628.536	1	-3
628.705	1	-1
628.875	1	-3
629.044	1	-7
629.214	1	3
629.384	1	3
629.553	1	-2
629.723	1	3
629.892	1	-2
630.062	1	3
630.232	1	0
630.401	1	3
630.571	1	-7
630.740	1	-3
630.910	1	4
631.079	1	4
631.249	1	-3
631.419	1	0
631.588	1	-1
631.758	1	-8
631.927	1	4
632.097	1	2
632.266	1	10
632.436	1	-6
632.606	1	2
632.775	1	-7
632.945	1	-3
633.114	1	-7
633.284	1	2
633.453	1	0
633.623	1	10
633.793	1	1
633.962	1	3
634.132	1	2
634.301	1	14
634.471	1	-6
634.640	1	-4
634.810	1	0
634.979	1	2
635.149	1	-5
635.319	1	-4
635.488	1	-6
635.658	1	-13
635.827	1	-4
635.997	1	2
636.166	1	0
636.336	1	-4
636.505	1	13
636.675	1	1
636.845	1	1
637.014	1	-8
637.184	1	-1
637.353	1	-3
637.523	1	-6
637.692	1	8
637.862	1	-4
638.031	1	3
638.201	1	1
638.370	1	2
638.540	1	-9
638.710	1	-5
638.879	1	-11
639.049	1	1
639.218	1	1
639.388	1	-8
639.557	1	8
639.727	1	7
639.896	1	7
640.066	1	-3
640.235	1	-9
640.405	1	2
640.574	1	8
640.744	1	-14
640.914	1	-3
641.083	1	9
641.253	1	-7
641.422	1	-2
641.592	1	6
641.761	1	-9
641.931	1	11
642.100	1	-3
642.270	1	-3
642.439	1	-1
642.609	1	9
642.778	1	-4
642.948	1	11
643.117	1	-6
643.287	1	2
643.456	1	-3
643.626	1	-5
643.795	1	-13
643.965	1	-4
644.134	1	2
644.304	1	-7
644.473	1	4
644.643	1	-5
644.812	1	-4
644.982	1	0
645.151	1	1
645.321	1	5
645.490	1	5
645.660	1	-8
645.829	1	-6
645.999	1	-4
646.168	1	14
646.338	1	-11
646.507	1	6
646.677	1	1
646.846	1	-3
647.016	1	9
647.185	1	6
647.355	1	10
647.524	1	-11
647.694	1	-12
647.863	1	-8
648.033	1	-3
648.202	1	4
648.372	1	-13
648.541	1	7
648.711	1	-2
648.880	1	6
649.050	1	1
649.219	1	5
649.389	1	-11
649.558	1	6
649.728	1	4
649.897	1	6
650.067	1	9
650.236	1	-9
650.406	1	-4
650.575	1	1
650.745	1	5
650.914	1	-2
651.084	1	3
651.253	1	-11
651.423	1	-4
651.592	1	4
651.762	1	-9
651.931	1	3
652.101	1	-4
652.270	1	9
652.440	1	2
652.609	1	3
652.778	1	2
652.948	1	-6
653.117	1	-4
653.287	1	-21
653.456	1	-5
653.626	1	-4
653.795	1	6
653.965	1	-4
654.134	1	1
654.304	1	-4
654.473	1	3
654.643	1	1
654.812	1	4
654.982	1	-5
655.151	1	1
655.320	1	-6
655.490	1	-6
655.659	1	3
655.829	1	9
655.998	1	-3
656.168	1	-3
656.337	1	1
656.507	1	-2
656.676	1	-8
656.846	1	-5
657.015	1	1
657.184	1	-1
657.354	1	-4
657.523	1	-8
657.693	1	6
657.862	1	-9
658.032	1	-2
658.201	1	-11
658.371	1	2
658.540	1	-9
658.709	1	-2
658.879	1	-9
659.048	1	8
659.218	1	3
659.387	1	3
659.557	1	4
659.726	1	-6
659.895	1	4
660.065	1	-11
660.234	1	1
660.404	1	-7
660.573	1	5
660.743	1	-4
660.912	1	1
661.081	1	-6
661.251	1	-2
661.420	1	4
661.590	1	4
661.759	1	-1
661.929	1	-5
662.098	1	5
662.267	1	-14
662.437	1	-2
662.606	1	-15
662.776	1	11
662.945	1	11
663.115	1	3
663.284	1	2
663.453	1	-6
663.623	1	-3
663.792	1	-4
663.962	1	2
664.131	1	-4
664.300	1	-13
664.470	1	-4
664.639	1	5
664.809	1	4
664.978	1	13
665.148	1	-3
665.317	1	2
665.486	1	1
665.656	1	4
665.825	1	10
665.995	1	-12
666.164	1	6
666.333	1	-2
666.503	1	-4
666.672	1	0
666.842	1	-4
667.011	1	-5
667.180	1	5
667.350	1	0
667.519	1	7
667.689	1	-8
667.858	1	6
668.027	1	-4
668.197	1	-16
668.366	1	-4
668.536	1	-11
668.705	1	-8
668.874	1	3
669.044	1	0
669.213	1	2
669.382	1	8
669.552	1	-7
669.721	1	-15
669.891	1	-6
670.060	1	-3
670.229	1	-8
670.399	1	3
670.568	1	0
670.738	1	3
670.907	1	6
671.076	1	3
671.246	1	3
671.415	1	1
671.584	1	-2
671.754	1	-8
671.923	1	-7
672.093	1	-1
672.262	1	-4
672.431	1	6
672.601	1	-1
672.770	1	4
672.939	1	5
673.109	1	-13
673.278	1	-7
673.448	1	0
673.617	1	-2
673.786	1	-4
