325.333	1	3
325.504	1	-12
325.675	1	16
325.846	1	-3
326.017	1	-4
326.188	1	0
326.359	1	1
326.531	1	-1
326.702	1	-14
326.873	1	8
327.044	1	8
327.215	1	-6
327.386	1	-2
327.557	1	3
327.728	1	-5
327.899	1	-6
328.070	1	0
328.241	1	-5
328.412	1	6
328.583	1	-5
328.754	1	8
328.926	1	8
329.097	1	-4
329.268	1	-1
329.439	1	6
329.610	1	0
329.781	1	5
329.952	1	6
330.123	1	-1
330.294	1	-2
330.465	1	-6
330.636	1	6
330.807	1	-5
330.978	1	-3
331.149	1	0
331.320	1	5
331.492	1	-6
331.663	1	-1
331.834	1	5
332.005	1	13
332.176	1	-2
332.347	1	-15
332.518	1	17
332.689	1	5
332.860	1	7
333.031	1	-4
333.202	1	1
333.373	1	7
333.544	1	4
333.715	1	1
333.886	1	-12
334.057	1	-2
334.228	1	7
334.399	1	14
334.570	1	5
334.741	1	4
334.912	1	-4
335.084	1	9
335.255	1	7
335.426	1	1
335.597	1	0
335.768	1	0
335.939	1	5
336.110	1	1
336.281	1	8
336.452	1	12
336.623	1	-1
336.794	1	-1
336.965	1	-1
337.136	1	12
337.307	1	-6
337.478	1	9
337.649	1	-10
337.820	1	6
337.991	1	8
338.162	1	0
338.333	1	4
338.504	1	4
338.675	1	2
338.846	1	-2
339.017	1	8
339.188	1	5
339.359	1	9
339.530	1	0
339.701	1	-2
339.872	1	14
340.043	1	1
340.214	1	9
340.385	1	-11
340.556	1	8
340.727	1	6
340.898	1	9
341.069	1	-4
341.240	1	6
341.411	1	8
341.582	1	3
341.753	1	11
341.924	1	9
342.095	1	6
342.266	1	5
342.437	1	1
342.608	1	1
342.779	1	0
342.950	1	3
343.121	1	6
343.292	1	9
343.463	1	9
343.634	1	-3
343.805	1	6
343.976	1	14
344.147	1	3
344.318	1	1
344.489	1	-1
344.660	1	15
344.831	1	18
345.002	1	3
345.173	1	10
345.344	1	1
345.515	1	9
345.686	1	0
345.857	1	10
346.028	1	6
346.199	1	12
346.370	1	2
346.541	1	2
346.712	1	9
346.883	1	-4
347.054	1	13
347.225	1	4
347.396	1	7
347.567	1	-1
347.738	1	13
347.909	1	7
348.080	1	7
348.251	1	9
348.422	1	7
348.593	1	8
348.764	1	8
348.935	1	3
349.106	1	-5
349.277	1	4
349.448	1	0
349.619	1	5
349.790	1	6
349.961	1	-3
350.132	1	7
350.303	1	6
350.474	1	16
350.645	1	6
350.816	1	2
350.987	1	13
351.157	1	-1
351.328	1	9
351.499	1	4
351.670	1	4
351.841	1	10
352.012	1	11
352.183	1	12
352.354	1	1
352.525	1	6
352.696	1	0
352.867	1	11
353.038	1	12
353.209	1	1
353.380	1	8
353.551	1	10
353.722	1	7
353.893	1	17
354.064	1	2
354.235	1	2
354.406	1	-6
354.576	1	8
354.747	1	-3
354.918	1	15
355.089	1	3
355.260	1	6
355.431	1	2
355.602	1	8
355.773	1	7
355.944	1	-1
356.115	1	12
356.286	1	14
356.457	1	4
356.628	1	5
356.799	1	11
356.970	1	19
357.141	1	-1
357.311	1	19
357.482	1	0
357.653	1	6
357.824	1	16
357.995	1	4
358.166	1	12
358.337	1	4
358.508	1	18
358.679	1	-1
358.850	1	16
359.021	1	8
359.192	1	14
359.363	1	4
359.533	1	1
359.704	1	-10
359.875	1	4
360.046	1	8
360.217	1	10
360.388	1	19
360.559	1	8
360.730	1	12
360.901	1	9
361.072	1	18
361.243	1	9
361.414	1	22
361.584	1	6
361.755	1	11
361.926	1	17
362.097	1	-8
362.268	1	13
362.439	1	4
362.610	1	16
362.781	1	2
362.952	1	20
363.123	1	6
363.293	1	3
363.464	1	3
363.635	1	16
363.806	1	17
363.977	1	9
364.148	1	3
364.319	1	4
364.490	1	25
364.661	1	7
364.832	1	18
365.002	1	9
365.173	1	9
365.344	1	3
365.515	1	16
365.686	1	11
365.857	1	7
366.028	1	11
366.199	1	16
366.370	1	18
366.540	1	0
366.711	1	19
366.882	1	7
367.053	1	12
367.224	1	15
367.395	1	8
367.566	1	15
367.737	1	1
367.908	1	4
368.078	1	-2
368.249	1	19
368.420	1	9
368.591	1	13
368.762	1	17
368.933	1	11
369.104	1	10
369.274	1	17
369.445	1	16
369.616	1	18
369.787	1	3
369.958	1	13
370.129	1	8
370.300	1	9
370.471	1	2
370.641	1	11
370.812	1	14
370.983	1	10
371.154	1	17
371.325	1	11
371.496	1	10
371.667	1	14
371.837	1	10
372.008	1	3
372.179	1	5
372.350	1	-1
372.521	1	10
372.692	1	8
372.863	1	7
373.033	1	0
373.204	1	5
373.375	1	8
373.546	1	-1
373.717	1	4
373.888	1	14
374.059	1	7
374.229	1	7
374.400	1	5
374.571	1	-1
374.742	1	11
374.913	1	2
375.084	1	8
375.254	1	6
375.425	1	14
375.596	1	1
375.767	1	10
375.938	1	-5
376.109	1	6
376.279	1	11
376.450	1	17
376.621	1	18
376.792	1	12
376.963	1	2
377.134	1	3
377.304	1	11
377.475	1	3
377.646	1	-2
377.817	1	7
377.988	1	17
378.159	1	5
378.329	1	13
378.500	1	18
378.671	1	6
378.842	1	7
379.013	1	15
379.184	1	12
379.354	1	11
379.525	1	20
379.696	1	17
379.867	1	17
380.038	1	10
380.209	1	20
380.379	1	15
380.550	1	1
380.721	1	0
380.892	1	4
381.063	1	8
381.233	1	8
381.404	1	8
381.575	1	18
381.746	1	9
381.917	1	8
382.087	1	14
382.258	1	11
382.429	1	15
382.600	1	9
382.771	1	4
382.941	1	12
383.112	1	6
383.283	1	6
383.454	1	9
383.625	1	17
383.795	1	11
383.966	1	15
384.137	1	24
384.308	1	9
384.479	1	8
384.649	1	4
384.820	1	7
384.991	1	10
385.162	1	24
385.333	1	9
385.503	1	9
385.674	1	-2
385.845	1	15
386.016	1	22
386.187	1	6
386.357	1	16
386.528	1	14
386.699	1	3
386.870	1	14
387.041	1	21
387.211	1	10
387.382	1	19
387.553	1	16
387.724	1	4
387.894	1	-3
388.065	1	14
388.236	1	15
388.407	1	12
388.578	1	11
388.748	1	6
388.919	1	10
389.090	1	21
389.261	1	16
389.431	1	4
389.602	1	20
389.773	1	15
389.944	1	7
390.114	1	10
390.285	1	21
390.456	1	4
390.627	1	7
390.798	1	13
390.968	1	9
391.139	1	17
391.310	1	13
391.481	1	7
391.651	1	16
391.822	1	26
391.993	1	7
392.164	1	5
392.334	1	15
392.505	1	12
392.676	1	4
392.847	1	8
393.017	1	12
393.188	1	17
393.359	1	28
393.530	1	22
393.700	1	9
393.871	1	20
394.042	1	10
394.213	1	19
394.383	1	6
394.554	1	15
394.725	1	1
394.896	1	18
395.066	1	12
395.237	1	12
395.408	1	11
395.579	1	15
395.749	1	19
395.920	1	14
396.091	1	23
396.262	1	16
396.432	1	8
396.603	1	23
396.774	1	9
396.945	1	15
397.115	1	31
397.286	1	16
397.457	1	10
397.627	1	16
397.798	1	11
397.969	1	16
398.140	1	5
398.310	1	18
398.481	1	11
398.652	1	13
398.823	1	3
398.993	1	13
399.164	1	17
399.335	1	10
399.505	1	8
399.676	1	15
399.847	1	4
400.018	1	6
400.188	1	10
400.359	1	18
400.530	1	13
400.700	1	23
400.871	1	23
401.042	1	10
401.213	1	11
401.383	1	13
401.554	1	12
401.725	1	12
401.895	1	8
402.066	1	7
402.237	1	8
402.408	1	19
402.578	1	19
402.749	1	9
402.920	1	14
403.090	1	8
403.261	1	12
403.432	1	10
403.603	1	17
403.773	1	28
403.944	1	18
404.115	1	10
404.285	1	26
404.456	1	17
404.627	1	14
404.797	1	8
404.968	1	18
405.139	1	12
405.310	1	15
405.480	1	11
405.651	1	16
405.822	1	10
405.992	1	20
406.163	1	4
406.334	1	16
406.504	1	17
406.675	1	20
406.846	1	12
407.016	1	23
407.187	1	26
407.358	1	7
407.528	1	20
407.699	1	25
407.870	1	16
408.041	1	13
408.211	1	27
408.382	1	14
408.553	1	19
408.723	1	26
408.894	1	13
409.065	1	16
409.235	1	23
409.406	1	-1
409.577	1	13
409.747	1	11
409.918	1	22
410.089	1	18
410.259	1	14
410.430	1	11
410.601	1	18
410.771	1	25
410.942	1	17
411.113	1	24
411.283	1	16
411.454	1	37
411.625	1	25
411.795	1	18
411.966	1	22
412.137	1	22
412.307	1	12
412.478	1	29
412.649	1	16
412.819	1	17
412.990	1	21
413.161	1	15
413.331	1	19
413.502	1	14
413.672	1	18
413.843	1	6
414.014	1	9
414.184	1	23
414.355	1	18
414.526	1	15
414.696	1	19
414.867	1	6
415.038	1	-2
415.208	1	6
415.379	1	10
415.550	1	18
415.720	1	10
415.891	1	14
416.062	1	12
416.232	1	16
416.403	1	17
416.573	1	6
416.744	1	14
416.915	1	14
417.085	1	22
417.256	1	9
417.427	1	18
417.597	1	12
417.768	1	7
417.939	1	10
418.109	1	20
418.280	1	20
418.450	1	23
418.621	1	9
418.792	1	12
418.962	1	16
419.133	1	14
419.304	1	7
419.474	1	16
419.645	1	14
419.815	1	20
419.986	1	21
420.157	1	13
420.327	1	4
420.498	1	11
420.669	1	25
420.839	1	22
421.010	1	10
421.180	1	11
421.351	1	18
421.522	1	20
421.692	1	16
421.863	1	21
422.033	1	16
422.204	1	24
422.375	1	18
422.545	1	18
422.716	1	0
422.886	1	24
423.057	1	9
423.228	1	22
423.398	1	15
423.569	1	13
423.740	1	18
423.910	1	12
424.081	1	19
424.251	1	21
424.422	1	23
424.593	1	16
424.763	1	15
424.934	1	24
425.104	1	22
425.275	1	10
425.445	1	11
425.616	1	17
425.787	1	9
425.957	1	11
426.128	1	13
426.298	1	23
426.469	1	4
426.640	1	8
426.810	1	3
426.981	1	26
427.151	1	4
427.322	1	11
427.493	1	11
427.663	1	25
427.834	1	11
428.004	1	18
428.175	1	14
428.345	1	-2
428.516	1	5
428.687	1	28
428.857	1	24
429.028	1	7
429.198	1	7
429.369	1	12
429.540	1	24
429.710	1	14
429.881	1	8
430.051	1	11
430.222	1	12
430.392	1	17
430.563	1	1
430.734	1	14
430.904	1	11
431.075	1	21
431.245	1	13
431.416	1	19
431.586	1	6
431.757	1	13
431.927	1	17
432.098	1	21
432.269	1	1
432.439	1	7
432.610	1	17
432.780	1	13
432.951	1	14
433.121	1	12
433.292	1	22
433.462	1	8
433.633	1	11
433.804	1	20
433.974	1	21
434.145	1	15
434.315	1	9
434.486	1	7
434.656	1	17
434.827	1	6
434.997	1	19
435.168	1	16
435.339	1	21
435.509	1	1
435.680	1	8
435.850	1	1
436.021	1	10
436.191	1	10
436.362	1	17
436.532	1	19
436.703	1	8
436.873	1	9
437.044	1	11
437.214	1	4
437.385	1	17
437.556	1	20
437.726	1	13
437.897	1	10
438.067	1	18
438.238	1	14
438.408	1	12
438.579	1	7
438.749	1	15
438.920	1	27
439.090	1	-3
439.261	1	17
439.431	1	-5
439.602	1	13
439.772	1	11
439.943	1	3
440.113	1	14
440.284	1	12
440.455	1	12
440.625	1	24
440.796	1	11
440.966	1	3
441.137	1	19
441.307	1	19
441.478	1	0
441.648	1	10
441.819	1	22
441.989	1	20
442.160	1	18
442.330	1	26
442.501	1	13
442.671	1	9
442.842	1	22
443.012	1	4
443.183	1	11
443.353	1	3
443.524	1	9
443.694	1	7
443.865	1	19
444.035	1	9
444.206	1	11
444.376	1	14
444.547	1	7
444.717	1	1
444.888	1	-5
445.058	1	18
445.229	1	11
445.399	1	13
445.570	1	7
445.740	1	16
445.911	1	16
446.081	1	9
446.252	1	8
446.422	1	8
446.593	1	16
446.763	1	9
446.934	1	15
447.104	1	8
447.275	1	15
447.445	1	10
447.616	1	8
447.786	1	5
447.957	1	4
448.127	1	15
448.298	1	16
448.468	1	12
448.639	1	14
448.809	1	12
448.979	1	18
449.150	1	12
449.320	1	7
449.491	1	4
449.661	1	4
449.832	1	4
450.002	1	12
450.173	1	20
450.343	1	6
450.514	1	17
450.684	1	14
450.855	1	10
451.025	1	2
451.196	1	8
451.366	1	21
451.537	1	14
451.707	1	7
451.878	1	6
452.048	1	1
452.218	1	14
452.389	1	18
452.559	1	25
452.730	1	14
452.900	1	-2
453.071	1	17
453.241	1	-1
453.412	1	10
453.582	1	11
453.753	1	16
453.923	1	11
454.093	1	7
454.264	1	15
454.434	1	18
454.605	1	1
454.775	1	15
454.946	1	7
455.116	1	12
455.287	1	7
455.457	1	13
455.628	1	2
455.798	1	15
455.968	1	13
456.139	1	19
456.309	1	14
456.480	1	5
456.650	1	4
456.821	1	6
456.991	1	16
457.161	1	12
457.332	1	12
457.502	1	17
457.673	1	3
457.843	1	4
458.014	1	9
458.184	1	20
458.355	1	11
458.525	1	6
458.695	1	5
458.866	1	5
459.036	1	13
459.207	1	14
459.377	1	6
459.548	1	13
459.718	1	10
459.888	1	6
460.059	1	13
460.229	1	9
460.400	1	16
460.570	1	8
460.740	1	5
460.911	1	7
461.081	1	12
461.252	1	7
461.422	1	6
461.593	1	17
461.763	1	15
461.933	1	5
462.104	1	4
462.274	1	-1
462.445	1	5
462.615	1	10
462.785	1	11
462.956	1	14
463.126	1	15
463.297	1	12
463.467	1	13
463.638	1	20
463.808	1	10
463.978	1	-4
464.149	1	9
464.319	1	14
464.490	1	3
464.660	1	8
464.830	1	14
465.001	1	4
465.171	1	-2
465.342	1	4
465.512	1	6
465.682	1	3
465.853	1	9
466.023	1	17
466.194	1	18
466.364	1	16
466.534	1	7
466.705	1	14
466.875	1	-6
467.045	1	-1
467.216	1	6
467.386	1	4
467.557	1	13
467.727	1	0
467.897	1	8
468.068	1	4
468.238	1	-2
468.409	1	10
468.579	1	10
468.749	1	5
468.920	1	-4
469.090	1	15
469.260	1	1
469.431	1	8
469.601	1	8
469.772	1	14
469.942	1	6
470.112	1	-5
470.283	1	9
470.453	1	7
470.623	1	10
470.794	1	12
470.964	1	-5
471.135	1	12
471.305	1	5
471.475	1	5
471.646	1	10
471.816	1	12
471.986	1	-2
472.157	1	7
472.327	1	13
472.497	1	8
472.668	1	12
472.838	1	7
473.009	1	0
473.179	1	4
473.349	1	5
473.520	1	19
473.690	1	7
473.860	1	-2
474.031	1	4
474.201	1	-4
474.371	1	7
474.542	1	7
474.712	1	9
474.882	1	2
475.053	1	17
475.223	1	4
475.394	1	1
475.564	1	2
475.734	1	3
475.905	1	4
476.075	1	14
476.245	1	3
476.416	1	6
476.586	1	4
476.756	1	13
476.927	1	8
477.097	1	0
477.267	1	4
477.438	1	15
477.608	1	13
477.778	1	3
477.949	1	-2
478.119	1	7
478.289	1	8
478.460	1	2
478.630	1	2
478.800	1	5
478.971	1	3
479.141	1	8
479.311	1	6
479.482	1	0
479.652	1	3
479.822	1	-1
479.993	1	7
480.163	1	2
480.333	1	8
480.504	1	8
480.674	1	8
480.844	1	1
481.015	1	15
481.185	1	8
481.355	1	7
481.525	1	2
481.696	1	8
481.866	1	7
482.036	1	10
482.207	1	8
482.377	1	9
482.547	1	16
482.718	1	5
482.888	1	20
483.058	1	2
483.229	1	-6
483.399	1	11
483.569	1	-2
483.740	1	3
483.910	1	-3
484.080	1	15
484.250	1	5
484.421	1	1
484.591	1	2
484.761	1	10
484.932	1	-6
485.102	1	12
485.272	1	3
485.443	1	4
485.613	1	-1
485.783	1	4
485.953	1	5
486.124	1	-4
486.294	1	11
486.464	1	14
486.635	1	6
486.805	1	4
486.975	1	6
487.146	1	2
487.316	1	6
487.486	1	5
487.656	1	14
487.827	1	3
487.997	1	-9
488.167	1	1
488.338	1	-6
488.508	1	16
488.678	1	1
488.848	1	11
489.019	1	12
489.189	1	7
489.359	1	1
489.529	1	9
489.700	1	13
489.870	1	5
490.040	1	-3
490.211	1	11
490.381	1	1
490.551	1	6
490.721	1	9
490.892	1	3
491.062	1	-8
491.232	1	4
491.402	1	6
491.573	1	14
491.743	1	-2
491.913	1	10
492.084	1	6
492.254	1	-4
492.424	1	0
492.594	1	7
492.765	1	7
492.935	1	4
493.105	1	10
493.275	1	6
493.446	1	-10
493.616	1	-5
493.786	1	8
493.956	1	6
494.127	1	-3
494.297	1	-7
494.467	1	2
494.637	1	5
494.808	1	5
494.978	1	-1
495.148	1	8
495.318	1	7
495.489	1	5
495.659	1	5
495.829	1	3
495.999	1	7
496.170	1	3
496.340	1	6
496.510	1	3
496.680	1	6
496.851	1	11
497.021	1	2
497.191	1	8
497.361	1	-6
497.532	1	1
497.702	1	6
497.872	1	-4
498.042	1	-3
498.213	1	-10
498.383	1	-1
498.553	1	8
498.723	1	0
498.894	1	0
499.064	1	8
499.234	1	10
499.404	1	4
499.574	1	7
499.745	1	2
499.915	1	8
500.085	1	-2
500.255	1	-8
500.426	1	-6
500.596	1	-1
500.766	1	6
500.936	1	3
501.106	1	5
501.277	1	-8
501.447	1	1
501.617	1	-4
501.787	1	2
501.958	1	1
502.128	1	4
502.298	1	9
502.468	1	-4
502.638	1	5
502.809	1	-2
502.979	1	9
503.149	1	2
503.319	1	13
503.489	1	-18
503.660	1	-2
503.830	1	10
504.000	1	8
504.170	1	-3
504.340	1	0
504.511	1	4
504.681	1	2
504.851	1	5
505.021	1	1
505.192	1	-8
505.362	1	-1
505.532	1	0
505.702	1	16
505.872	1	1
506.043	1	-2
506.213	1	10
506.383	1	6
506.553	1	1
506.723	1	-4
506.893	1	8
507.064	1	9
507.234	1	2
507.404	1	2
507.574	1	8
507.744	1	4
507.915	1	-2
508.085	1	-7
508.255	1	0
508.425	1	-2
508.595	1	3
508.766	1	-7
508.936	1	11
509.106	1	8
509.276	1	-3
509.446	1	2
509.616	1	1
509.787	1	-1
509.957	1	5
510.127	1	-11
510.297	1	3
510.467	1	6
510.638	1	10
510.808	1	9
510.978	1	2
511.148	1	1
511.318	1	11
511.488	1	-7
511.659	1	-2
511.829	1	-5
511.999	1	-1
512.169	1	4
512.339	1	8
512.509	1	-3
512.680	1	-8
512.850	1	4
513.020	1	3
513.190	1	-6
513.360	1	5
513.530	1	-1
513.700	1	0
513.871	1	0
514.041	1	6
514.211	1	10
514.381	1	5
514.551	1	-5
514.721	1	1
514.892	1	-2
515.062	1	6
515.232	1	-4
515.402	1	-4
515.572	1	2
515.742	1	6
515.912	1	5
516.083	1	12
516.253	1	7
516.423	1	1
516.593	1	-1
516.763	1	10
516.933	1	1
517.104	1	0
517.274	1	1
517.444	1	5
517.614	1	1
517.784	1	6
517.954	1	-1
518.124	1	0
518.294	1	0
518.465	1	1
518.635	1	13
518.805	1	1
518.975	1	1
519.145	1	3
519.315	1	-1
519.485	1	-3
519.656	1	-5
519.826	1	-7
519.996	1	6
520.166	1	-4
520.336	1	0
520.506	1	6
520.676	1	7
520.846	1	2
521.017	1	0
521.187	1	7
521.357	1	-1
521.527	1	5
521.697	1	-1
521.867	1	5
522.037	1	3
522.207	1	7
522.377	1	7
522.548	1	-11
522.718	1	-3
522.888	1	6
523.058	1	0
523.228	1	-11
523.398	1	-4
523.568	1	-9
523.738	1	0
523.909	1	-3
524.079	1	-4
524.249	1	-6
524.419	1	4
524.589	1	2
524.759	1	7
524.929	1	3
525.099	1	4
525.269	1	0
525.439	1	-6
525.610	1	7
525.780	1	-3
525.950	1	5
526.120	1	-2
526.290	1	-10
526.460	1	-5
526.630	1	3
526.800	1	-6
526.970	1	10
527.140	1	0
527.311	1	2
527.481	1	6
527.651	1	13
527.821	1	7
527.991	1	1
528.161	1	0
528.331	1	-6
528.501	1	2
528.671	1	6
528.841	1	-4
529.011	1	2
529.181	1	1
529.352	1	5
529.522	1	7
529.692	1	10
529.862	1	2
530.032	1	-5
530.202	1	-4
530.372	1	5
530.542	1	-8
530.712	1	8
530.882	1	2
531.052	1	-1
531.222	1	-1
531.392	1	9
531.563	1	2
531.733	1	0
531.903	1	-1
532.073	1	-3
532.243	1	3
532.413	1	14
532.583	1	-2
532.753	1	-10
532.923	1	1
533.093	1	-2
533.263	1	2
533.433	1	-1
533.603	1	-8
533.773	1	2
533.943	1	0
534.113	1	3
534.284	1	1
534.454	1	3
534.624	1	-2
534.794	1	-2
534.964	1	0
535.134	1	-9
535.304	1	-2
535.474	1	4
535.644	1	2
535.814	1	5
535.984	1	-5
536.154	1	-5
536.324	1	0
536.494	1	13
536.664	1	9
536.834	1	-5
537.004	1	-2
537.174	1	11
537.344	1	2
537.514	1	0
537.685	1	4
537.855	1	6
538.025	1	16
538.195	1	-9
538.365	1	2
538.535	1	-2
538.705	1	-4
538.875	1	0
539.045	1	-2
539.215	1	-4
539.385	1	-5
539.555	1	-2
539.725	1	8
539.895	1	4
540.065	1	-1
540.235	1	3
540.405	1	1
540.575	1	-3
540.745	1	1
540.915	1	2
541.085	1	-7
541.255	1	-1
541.425	1	-6
541.595	1	2
541.765	1	2
541.935	1	-3
542.105	1	-1
542.275	1	-3
542.445	1	8
542.615	1	7
542.785	1	0
542.955	1	6
543.125	1	-6
543.295	1	1
543.465	1	8
543.635	1	-2
543.805	1	5
543.975	1	1
544.145	1	-4
544.315	1	-6
544.485	1	-4
544.655	1	10
544.825	1	-9
544.995	1	-2
545.165	1	-4
545.335	1	4
545.505	1	4
545.675	1	2
545.845	1	8
546.015	1	-2
546.185	1	1
546.355	1	-6
546.525	1	8
546.695	1	-10
546.865	1	-1
547.035	1	7
547.205	1	19
547.375	1	5
547.545	1	2
547.715	1	0
547.885	1	-1
548.055	1	-6
548.225	1	15
548.395	1	5
548.565	1	-4
548.735	1	-5
548.905	1	3
549.075	1	5
549.245	1	1
549.415	1	2
549.585	1	0
549.755	1	1
549.925	1	1
550.095	1	-6
550.265	1	-1
550.435	1	2
550.605	1	-4
550.775	1	-12
550.945	1	-7
551.115	1	2
551.285	1	-3
551.455	1	14
551.625	1	-2
551.795	1	-5
551.965	1	-2
552.135	1	-1
552.305	1	-3
552.475	1	-6
552.645	1	-10
552.815	1	5
552.985	1	-4
553.155	1	-3
553.325	1	1
553.495	1	2
553.665	1	-7
553.835	1	-2
554.004	1	-5
554.174	1	-2
554.344	1	-4
554.514	1	1
554.684	1	3
554.854	1	-3
555.024	1	9
555.194	1	2
555.364	1	-9
555.534	1	-9
555.704	1	-6
555.874	1	6
556.044	1	-7
556.214	1	8
556.384	1	6
556.554	1	10
556.724	1	-16
556.894	1	5
557.064	1	-4
557.234	1	-2
557.404	1	1
557.573	1	2
557.743	1	-8
557.913	1	-6
558.083	1	5
558.253	1	3
558.423	1	2
558.593	1	4
558.763	1	2
558.933	1	-7
559.103	1	-2
559.273	1	5
559.443	1	5
559.613	1	2
559.783	1	-4
559.953	1	-2
560.122	1	9
560.292	1	-10
560.462	1	-6
560.632	1	-10
560.802	1	4
560.972	1	-4
561.142	1	9
561.312	1	-7
561.482	1	9
561.652	1	-4
561.822	1	3
561.992	1	1
562.162	1	-1
562.331	1	-8
562.501	1	-1
562.671	1	-1
562.841	1	-3
563.011	1	-1
563.181	1	5
563.351	1	-15
563.521	1	-4
563.691	1	6
563.861	1	2
564.031	1	-7
564.201	1	5
564.370	1	9
564.540	1	-6
564.710	1	-11
564.880	1	1
565.050	1	-1
565.220	1	8
565.390	1	-8
565.560	1	12
565.730	1	-2
565.900	1	3
566.069	1	5
566.239	1	11
566.409	1	17
566.579	1	5
566.749	1	-10
566.919	1	-14
567.089	1	-5
567.259	1	7
567.429	1	-12
567.599	1	14
567.768	1	-3
567.938	1	0
568.108	1	-4
568.278	1	2
568.448	1	-1
568.618	1	2
568.788	1	3
568.958	1	0
569.128	1	-3
569.297	1	-2
569.467	1	13
569.637	1	4
569.807	1	2
569.977	1	-10
570.147	1	5
570.317	1	-5
570.487	1	-6
570.656	1	-5
570.826	1	3
570.996	1	4
571.166	1	1
571.336	1	2
571.506	1	-3
571.676	1	0
571.846	1	5
572.015	1	8
572.185	1	1
572.355	1	-10
572.525	1	-3
572.695	1	-3
572.865	1	6
573.035	1	8
573.205	1	0
573.374	1	-1
573.544	1	1
573.714	1	-3
573.884	1	-8
574.054	1	-4
574.224	1	-2
574.394	1	4
574.563	1	-5
574.733	1	2
574.903	1	0
575.073	1	8
575.243	1	-3
575.413	1	-4
575.583	1	-4
575.752	1	-11
575.922	1	6
576.092	1	-3
576.262	1	-9
576.432	1	-4
576.602	1	0
576.772	1	0
576.941	1	-2
577.111	1	-7
577.281	1	-1
577.451	1	6
577.621	1	5
577.791	1	-5
577.960	1	-3
578.130	1	-3
578.300	1	-3
578.470	1	0
578.640	1	-3
578.810	1	-4
578.979	1	9
579.149	1	-7
579.319	1	-3
579.489	1	0
579.659	1	-4
579.829	1	-13
579.998	1	-10
580.168	1	-3
580.338	1	-2
580.508	1	-5
580.678	1	-3
580.848	1	0
581.017	1	-4
581.187	1	2
581.357	1	-2
581.527	1	-6
581.697	1	-4
581.867	1	1
582.036	1	-5
582.206	1	-4
582.376	1	-1
582.546	1	-11
582.716	1	6
582.885	1	0
583.055	1	-7
583.225	1	7
583.395	1	3
583.565	1	15
583.735	1	1
583.904	1	-9
584.074	1	-1
584.244	1	-3
584.414	1	7
584.584	1	9
584.753	1	-2
584.923	1	-2
585.093	1	4
585.263	1	9
585.433	1	-1
585.602	1	7
585.772	1	6
585.942	1	-12
586.112	1	-3
586.282	1	-2
586.451	1	9
586.621	1	-2
586.791	1	-10
586.961	1	-6
587.131	1	0
587.300	1	-5
587.470	1	-11
587.640	1	-7
587.810	1	-8
587.980	1	-1
588.149	1	11
588.319	1	4
588.489	1	4
588.659	1	-9
588.829	1	2
588.998	1	-3
589.168	1	10
589.338	1	-13
589.508	1	2
589.677	1	3
589.847	1	-2
590.017	1	0
590.187	1	1
590.357	1	-9
590.526	1	-8
590.696	1	-1
590.866	1	-6
591.036	1	11
591.205	1	2
591.375	1	-3
591.545	1	-5
591.715	1	1
591.885	1	4
592.054	1	4
592.224	1	-4
592.394	1	-6
592.564	1	-8
592.733	1	-6
592.903	1	-2
593.073	1	2
593.243	1	3
593.412	1	-10
593.582	1	-3
593.752	1	-2
593.922	1	3
594.091	1	9
594.261	1	-9
594.431	1	10
594.601	1	-11
594.771	1	-5
594.940	1	-1
595.110	1	0
595.280	1	-5
595.450	1	0
595.619	1	-1
595.789	1	6
595.959	1	-7
596.129	1	-2
596.298	1	11
596.468	1	1
596.638	1	-3
596.808	1	-8
596.977	1	4
597.147	1	-9
597.317	1	-3
597.487	1	3
597.656	1	1
597.826	1	7
597.996	1	1
598.166	1	2
598.335	1	-7
598.505	1	1
598.675	1	11
598.844	1	8
599.014	1	-13
599.184	1	4
599.354	1	4
599.523	1	-4
599.693	1	1
599.863	1	7
600.033	1	7
600.202	1	1
600.372	1	-3
600.542	1	4
600.712	1	-5
600.881	1	-8
601.051	1	2
601.221	1	5
601.390	1	2
601.560	1	6
601.730	1	5
601.900	1	3
602.069	1	-5
602.239	1	-4
602.409	1	-1
602.578	1	-3
602.748	1	2
602.918	1	1
603.088	1	-1
603.257	1	-2
603.427	1	2
603.597	1	3
603.767	1	2
603.936	1	-3
604.106	1	-9
604.276	1	6
604.445	1	-3
604.615	1	-5
604.785	1	-2
604.954	1	3
605.124	1	3
605.294	1	-8
605.464	1	-10
605.633	1	5
605.803	1	1
605.973	1	-4
606.142	1	7
606.312	1	8
606.482	1	-9
606.652	1	-5
606.821	1	3
606.991	1	-1
607.161	1	3
607.330	1	-5
607.500	1	2
607.670	1	0
607.839	1	1
608.009	1	4
608.179	1	0
608.348	1	3
608.518	1	2
608.688	1	-7
608.858	1	-6
609.027	1	14
609.197	1	1
609.367	1	-3
609.536	1	-1
609.706	1	5
609.876	1	4
610.045	1	-1
610.215	1	-1
610.385	1	1
610.554	1	0
610.724	1	-3
610.894	1	2
611.063	1	1
611.233	1	6
611.403	1	11
611.572	1	3
611.742	1	-4
611.912	1	-8
612.081	1	13
612.251	1	0
612.421	1	2
612.590	1	-1
612.760	1	-1
612.930	1	5
613.099	1	5
613.269	1	-6
613.439	1	-8
613.608	1	3
613.778	1	-1
613.948	1	10
614.117	1	0
614.287	1	-1
614.457	1	0
614.626	1	2
614.796	1	0
614.966	1	11
615.135	1	12
615.305	1	7
615.475	1	1
615.644	1	8
615.814	1	2
615.984	1	-2
616.153	1	-1
616.323	1	7
616.493	1	-2
616.662	1	1
616.832	1	1
617.002	1	-1
617.171	1	5
617.341	1	9
617.511	1	-6
617.680	1	1
617.850	1	3
618.019	1	-1
618.189	1	9
618.359	1	-5
618.528	1	0
618.698	1	8
618.868	1	-6
619.037	1	-9
619.207	1	-11
619.377	1	3
619.546	1	3
619.716	1	-4
619.885	1	-5
620.055	1	-9
620.225	1	-3
620.394	1	4
620.564	1	3
620.734	1	5
620.903	1	-2
621.073	1	13
621.242	1	-2
621.412	1	3
621.582	1	11
621.751	1	1
621.921	1	-3
622.091	1	1
622.260	1	5
622.430	1	-3
622.599	1	-6
622.769	1	-4
622.939	1	0
623.108	1	-5
623.278	1	3
623.448	1	0
623.617	1	5
623.787	1	-3
623.956	1	7
624.126	1	3
624.296	1	3
624.465	1	2
624.635	1	5
624.804	1	-7
624.974	1	-12
625.144	1	1
625.313	1	16
625.483	1	4
625.652	1	-5
625.822	1	8
625.992	1	-4
626.161	1	-4
626.331	1	1
626.501	1	1
626.670	1	-2
626.840	1	7
627.009	1	3
627.179	1	0
627.348	1	8
627.518	1	11
627.688	1	-5
627.857	1	8
628.027	1	3
628.196	1	5
628.366	1	-9
628.536	1	-2
628.705	1	4
628.875	1	-9
629.044	1	-7
629.214	1	2
629.384	1	11
629.553	1	1
629.723	1	-2
629.892	1	3
630.062	1	3
630.232	1	7
630.401	1	4
630.571	1	-6
630.740	1	-3
630.910	1	14
631.079	1	2
631.249	1	-3
631.419	1	2
631.588	1	5
631.758	1	-4
631.927	1	2
632.097	1	-5
632.266	1	10
632.436	1	6
632.606	1	-5
632.775	1	6
632.945	1	-9
633.114	1	2
633.284	1	-6
633.453	1	1
633.623	1	5
633.793	1	0
633.962	1	1
634.132	1	6
634.301	1	9
634.471	1	3
634.640	1	-7
634.810	1	-1
634.979	1	2
635.149	1	-1
635.319	1	-4
635.488	1	1
635.658	1	0
635.827	1	11
635.997	1	3
636.166	1	2
636.336	1	-2
636.505	1	0
636.675	1	2
636.845	1	0
637.014	1	-10
637.184	1	3
637.353	1	-1
637.523	1	5
637.692	1	3
637.862	1	-8
638.031	1	-4
638.201	1	0
638.370	1	2
638.540	1	-8
638.710	1	0
638.879	1	-4
639.049	1	-3
639.218	1	8
639.388	1	3
639.557	1	12
639.727	1	9
639.896	1	0
640.066	1	-5
640.235	1	-3
640.405	1	-1
640.574	1	5
640.744	1	-9
640.914	1	4
641.083	1	9
641.253	1	2
641.422	1	-3
641.592	1	7
641.761	1	-7
641.931	1	4
642.100	1	-6
642.270	1	7
642.439	1	12
642.609	1	1
642.778	1	1
642.948	1	8
643.117	1	1
643.287	1	-7
643.456	1	-4
643.626	1	3
643.795	1	-2
643.965	1	3
644.134	1	0
644.304	1	3
644.473	1	-1
644.643	1	5
644.812	1	-5
644.982	1	-5
645.151	1	-2
645.321	1	3
645.490	1	15
645.660	1	1
645.829	1	-2
645.999	1	-8
646.168	1	13
646.338	1	2
646.507	1	-4
646.677	1	-6
646.846	1	-3
647.016	1	3
647.185	1	4
647.355	1	7
647.524	1	-5
647.694	1	-4
647.863	1	-10
648.033	1	0
648.202	1	5
648.372	1	-9
648.541	1	-5
648.711	1	2
648.880	1	-4
649.050	1	4
649.219	1	2
649.389	1	-4
649.558	1	2
649.728	1	4
649.897	1	3
650.067	1	8
650.236	1	-16
650.406	1	0
650.575	1	6
650.745	1	2
650.914	1	-1
651.084	1	-2
651.253	1	-6
651.423	1	-3
651.592	1	-9
651.762	1	-3
651.931	1	5
652.101	1	-2
652.270	1	-4
652.440	1	2
652.609	1	4
652.778	1	10
652.948	1	-14
653.117	1	3
653.287	1	-12
653.456	1	2
653.626	1	-5
653.795	1	8
653.965	1	0
654.134	1	-7
654.304	1	3
654.473	1	8
654.643	1	-6
654.812	1	7
654.982	1	8
655.151	1	9
655.320	1	5
655.490	1	1
655.659	1	0
655.829	1	10
655.998	1	3
656.168	1	-2
656.337	1	-3
656.507	1	-10
656.676	1	3
656.846	1	-2
657.015	1	1
657.184	1	0
657.354	1	-2
657.523	1	-2
657.693	1	9
657.862	1	-5
658.032	1	2
658.201	1	-4
658.371	1	-1
658.540	1	-2
658.709	1	11
658.879	1	5
659.048	1	11
659.218	1	1
659.387	1	0
659.557	1	-2
659.726	1	2
659.895	1	0
660.065	1	-11
660.234	1	0
660.404	1	7
660.573	1	-5
660.743	1	0
660.912	1	8
661.081	1	-4
661.251	1	-4
661.420	1	-4
661.590	1	-4
661.759	1	9
661.929	1	-12
662.098	1	6
662.267	1	-8
662.437	1	12
662.606	1	-3
662.776	1	-1
662.945	1	12
663.115	1	9
663.284	1	4
663.453	1	-2
663.623	1	-4
663.792	1	4
663.962	1	6
664.131	1	-4
664.300	1	-11
664.470	1	0
664.639	1	7
664.809	1	0
664.978	1	11
665.148	1	4
665.317	1	5
665.486	1	0
665.656	1	2
665.825	1	7
665.995	1	-10
666.164	1	-3
666.333	1	-2
666.503	1	-2
666.672	1	-6
666.842	1	4
667.011	1	0
667.180	1	1
667.350	1	2
667.519	1	0
667.689	1	-4
667.858	1	8
668.027	1	-5
668.197	1	-14
668.366	1	0
668.536	1	-5
668.705	1	0
668.874	1	2
669.044	1	11
669.213	1	7
669.382	1	1
669.552	1	11
669.721	1	-7
669.891	1	-5
670.060	1	2
670.229	1	1
670.399	1	-2
670.568	1	4
670.738	1	0
670.907	1	7
671.076	1	5
671.246	1	7
671.415	1	3
671.584	1	-3
671.754	1	-13
671.923	1	0
672.093	1	0
672.262	1	-10
672.431	1	2
672.601	1	10
672.770	1	-3
672.939	1	11
673.109	1	-14
673.278	1	6
673.448	1	5
673.617	1	-5
673.786	1	-5
