325.333	1	8
325.504	1	-7
325.675	1	8
325.846	1	-2
326.017	1	15
326.188	1	-8
326.359	1	3
326.531	1	-5
326.702	1	-5
326.873	1	9
327.044	1	11
327.215	1	0
327.386	1	-10
327.557	1	4
327.728	1	-5
327.899	1	4
328.070	1	6
328.241	1	2
328.412	1	1
328.583	1	-5
328.754	1	19
328.926	1	9
329.097	1	-5
329.268	1	7
329.439	1	10
329.610	1	5
329.781	1	-1
329.952	1	8
330.123	1	0
330.294	1	1
330.465	1	-7
330.636	1	4
330.807	1	10
330.978	1	-1
331.149	1	-5
331.320	1	6
331.492	1	-4
331.663	1	-4
331.834	1	5
332.005	1	7
332.176	1	2
332.347	1	1
332.518	1	6
332.689	1	4
332.860	1	-6
333.031	1	6
333.202	1	5
333.373	1	3
333.544	1	0
333.715	1	6
333.886	1	-6
334.057	1	-6
334.228	1	9
334.399	1	10
334.570	1	0
334.741	1	-2
334.912	1	1
335.084	1	10
335.255	1	3
335.426	1	4
335.597	1	5
335.768	1	9
335.939	1	3
336.110	1	1
336.281	1	-9
336.452	1	8
336.623	1	-3
336.794	1	-3
336.965	1	1
337.136	1	14
337.307	1	9
337.478	1	7
337.649	1	6
337.820	1	-7
337.991	1	8
338.162	1	0
338.333	1	2
338.504	1	8
338.675	1	-3
338.846	1	-4
339.017	1	5
339.188	1	-1
339.359	1	7
339.530	1	6
339.701	1	3
339.872	1	9
340.043	1	5
340.214	1	2
340.385	1	-7
340.556	1	7
340.727	1	5
340.898	1	5
341.069	1	2
341.240	1	-5
341.411	1	-2
341.582	1	-4
341.753	1	-4
341.924	1	13
342.095	1	4
342.266	1	13
342.437	1	0
342.608	1	5
342.779	1	0
342.950	1	0
343.121	1	11
343.292	1	3
343.463	1	20
343.634	1	9
343.805	1	1
343.976	1	15
344.147	1	16
344.318	1	1
344.489	1	4
344.660	1	9
344.831	1	11
345.002	1	2
345.173	1	-4
345.344	1	1
345.515	1	1
345.686	1	5
345.857	1	15
346.028	1	7
346.199	1	6
346.370	1	3
346.541	1	7
346.712	1	5
346.883	1	0
347.054	1	12
347.225	1	5
347.396	1	2
347.567	1	-2
347.738	1	5
347.909	1	7
348.080	1	-3
348.251	1	-2
348.422	1	10
348.593	1	7
348.764	1	6
348.935	1	-1
349.106	1	7
349.277	1	12
349.448	1	-2
349.619	1	10
349.790	1	7
349.961	1	-7
350.132	1	2
350.303	1	0
350.474	1	8
350.645	1	3
350.816	1	-2
350.987	1	19
351.157	1	12
351.328	1	2
351.499	1	-4
351.670	1	-5
351.841	1	6
352.012	1	11
352.183	1	8
352.354	1	-4
352.525	1	5
352.696	1	5
352.867	1	12
353.038	1	9
353.209	1	3
353.380	1	1
353.551	1	12
353.722	1	1
353.893	1	11
354.064	1	6
354.235	1	5
354.406	1	-8
354.576	1	-2
354.747	1	2
354.918	1	-1
355.089	1	3
355.260	1	3
355.431	1	1
355.602	1	6
355.773	1	10
355.944	1	5
356.115	1	15
356.286	1	17
356.457	1	7
356.628	1	4
356.799	1	4
356.970	1	16
357.141	1	3
357.311	1	13
357.482	1	7
357.653	1	-1
357.824	1	15
357.995	1	8
358.166	1	-2
358.337	1	7
358.508	1	9
358.679	1	-5
358.850	1	15
359.021	1	6
359.192	1	18
359.363	1	4
359.533	1	1
359.704	1	1
359.875	1	-5
360.046	1	9
360.217	1	9
360.388	1	20
360.559	1	8
360.730	1	2
360.901	1	9
361.072	1	14
361.243	1	2
361.414	1	16
361.584	1	-2
361.755	1	10
361.926	1	17
362.097	1	-5
362.268	1	16
362.439	1	-5
362.610	1	13
362.781	1	6
362.952	1	16
363.123	1	0
363.293	1	4
363.464	1	2
363.635	1	18
363.806	1	17
363.977	1	10
364.148	1	7
364.319	1	5
364.490	1	10
364.661	1	8
364.832	1	8
365.002	1	11
365.173	1	11
365.344	1	5
365.515	1	9
365.686	1	13
365.857	1	13
366.028	1	14
366.199	1	9
366.370	1	11
366.540	1	11
366.711	1	19
366.882	1	17
367.053	1	2
367.224	1	10
367.395	1	4
367.566	1	8
367.737	1	2
367.908	1	12
368.078	1	10
368.249	1	11
368.420	1	3
368.591	1	7
368.762	1	15
368.933	1	-4
369.104	1	4
369.274	1	23
369.445	1	16
369.616	1	3
369.787	1	11
369.958	1	10
370.129	1	9
370.300	1	13
370.471	1	9
370.641	1	2
370.812	1	9
370.983	1	6
371.154	1	2
371.325	1	2
371.496	1	6
371.667	1	20
371.837	1	12
372.008	1	-5
372.179	1	3
372.350	1	16
372.521	1	2
372.692	1	11
372.863	1	9
373.033	1	9
373.204	1	7
373.375	1	-3
373.546	1	10
373.717	1	2
373.888	1	13
374.059	1	-2
374.229	1	15
374.400	1	12
374.571	1	13
374.742	1	8
374.913	1	-7
375.084	1	9
375.254	1	0
375.425	1	7
375.596	1	14
375.767	1	12
375.938	1	-4
376.109	1	2
376.279	1	5
376.450	1	9
376.621	1	23
376.792	1	18
376.963	1	6
377.134	1	9
377.304	1	12
377.475	1	-2
377.646	1	-6
377.817	1	7
377.988	1	1
378.159	1	18
378.329	1	9
378.500	1	15
378.671	1	5
378.842	1	13
379.013	1	17
379.184	1	9
379.354	1	9
379.525	1	7
379.696	1	12
379.867	1	16
380.038	1	10
380.209	1	19
380.379	1	11
380.550	1	9
380.721	1	6
380.892	1	8
381.063	1	9
381.233	1	9
381.404	1	3
381.575	1	12
381.746	1	12
381.917	1	14
382.087	1	20
382.258	1	11
382.429	1	6
382.600	1	17
382.771	1	3
382.941	1	23
383.112	1	13
383.283	1	12
383.454	1	8
383.625	1	7
383.795	1	17
383.966	1	16
384.137	1	17
384.308	1	1
384.479	1	10
384.649	1	10
384.820	1	18
384.991	1	8
385.162	1	17
385.333	1	13
385.503	1	3
385.674	1	7
385.845	1	7
386.016	1	13
386.187	1	2
386.357	1	21
386.528	1	9
386.699	1	5
386.870	1	8
387.041	1	12
387.211	1	10
387.382	1	15
387.553	1	16
387.724	1	1
387.894	1	-4
388.065	1	20
388.236	1	7
388.407	1	7
388.578	1	13
388.748	1	15
388.919	1	8
389.090	1	24
389.261	1	15
389.431	1	4
389.602	1	14
389.773	1	11
389.944	1	11
390.114	1	12
390.285	1	18
390.456	1	8
390.627	1	8
390.798	1	9
390.968	1	19
391.139	1	12
391.310	1	17
391.481	1	4
391.651	1	17
391.822	1	11
391.993	1	7
392.164	1	12
392.334	1	5
392.505	1	9
392.676	1	4
392.847	1	16
393.017	1	11
393.188	1	11
393.359	1	19
393.530	1	17
393.700	1	7
393.871	1	15
394.042	1	3
394.213	1	15
394.383	1	20
394.554	1	12
394.725	1	11
394.896	1	21
395.066	1	9
395.237	1	20
395.408	1	15
395.579	1	12
395.749	1	18
395.920	1	20
396.091	1	10
396.262	1	11
396.432	1	14
396.603	1	15
396.774	1	7
396.945	1	7
397.115	1	23
397.286	1	16
397.457	1	7
397.627	1	8
397.798	1	14
397.969	1	25
398.140	1	8
398.310	1	13
398.481	1	14
398.652	1	6
398.823	1	7
398.993	1	17
399.164	1	12
399.335	1	3
399.505	1	5
399.676	1	20
399.847	1	9
400.018	1	7
400.188	1	19
400.359	1	20
400.530	1	10
400.700	1	16
400.871	1	11
401.042	1	13
401.213	1	12
401.383	1	14
401.554	1	12
401.725	1	4
401.895	1	9
402.066	1	21
402.237	1	10
402.408	1	16
402.578	1	15
402.749	1	12
402.920	1	17
403.090	1	3
403.261	1	2
403.432	1	12
403.603	1	10
403.773	1	29
403.944	1	12
404.115	1	14
404.285	1	26
404.456	1	20
404.627	1	11
404.797	1	4
404.968	1	18
405.139	1	13
405.310	1	7
405.480	1	4
405.651	1	7
405.822	1	13
405.992	1	15
406.163	1	3
406.334	1	9
406.504	1	12
406.675	1	5
406.846	1	12
407.016	1	16
407.187	1	10
407.358	1	4
407.528	1	23
407.699	1	12
407.870	1	17
408.041	1	6
408.211	1	21
408.382	1	21
408.553	1	17
408.723	1	10
408.894	1	16
409.065	1	3
409.235	1	22
409.406	1	11
409.577	1	15
409.747	1	8
409.918	1	21
410.089	1	23
410.259	1	15
410.430	1	6
410.601	1	21
410.771	1	21
410.942	1	24
411.113	1	12
411.283	1	18
411.454	1	38
411.625	1	9
411.795	1	14
411.966	1	20
412.137	1	5
412.307	1	17
412.478	1	14
412.649	1	15
412.819	1	20
412.990	1	16
413.161	1	13
413.331	1	15
413.502	1	9
413.672	1	9
413.843	1	15
414.014	1	2
414.184	1	22
414.355	1	12
414.526	1	9
414.696	1	9
414.867	1	7
415.038	1	11
415.208	1	10
415.379	1	12
415.550	1	18
415.720	1	7
415.891	1	13
416.062	1	11
416.232	1	12
416.403	1	16
416.573	1	18
416.744	1	25
416.915	1	8
417.085	1	15
417.256	1	12
417.427	1	10
417.597	1	6
417.768	1	11
417.939	1	1
418.109	1	9
418.280	1	16
418.450	1	31
418.621	1	14
418.792	1	14
418.962	1	10
419.133	1	9
419.304	1	13
419.474	1	16
419.645	1	24
419.815	1	2
419.986	1	17
420.157	1	13
420.327	1	15
420.498	1	12
420.669	1	24
420.839	1	10
421.010	1	15
421.180	1	4
421.351	1	12
421.522	1	17
421.692	1	21
421.863	1	13
422.033	1	17
422.204	1	18
422.375	1	12
422.545	1	19
422.716	1	3
422.886	1	15
423.057	1	19
423.228	1	6
423.398	1	19
423.569	1	9
423.740	1	14
423.910	1	16
424.081	1	12
424.251	1	13
424.422	1	8
424.593	1	14
424.763	1	14
424.934	1	23
425.104	1	25
425.275	1	7
425.445	1	6
425.616	1	5
425.787	1	20
425.957	1	9
426.128	1	9
426.298	1	17
426.469	1	5
426.640	1	16
426.810	1	4
426.981	1	21
427.151	1	4
427.322	1	22
427.493	1	12
427.663	1	11
427.834	1	10
428.004	1	14
428.175	1	18
428.345	1	10
428.516	1	12
428.687	1	29
428.857	1	14
429.028	1	9
429.198	1	9
429.369	1	14
429.540	1	20
429.710	1	15
429.881	1	7
430.051	1	1
430.222	1	18
430.392	1	22
430.563	1	12
430.734	1	11
430.904	1	22
431.075	1	6
431.245	1	23
431.416	1	11
431.586	1	-3
431.757	1	30
431.927	1	13
432.098	1	5
432.269	1	13
432.439	1	2
432.610	1	17
432.780	1	15
432.951	1	6
433.121	1	17
433.292	1	17
433.462	1	6
433.633	1	6
433.804	1	8
433.974	1	10
434.145	1	5
434.315	1	9
434.486	1	5
434.656	1	21
434.827	1	19
434.997	1	28
435.168	1	12
435.339	1	16
435.509	1	20
435.680	1	17
435.850	1	-1
436.021	1	5
436.191	1	5
436.362	1	17
436.532	1	22
436.703	1	20
436.873	1	14
437.044	1	10
437.214	1	11
437.385	1	12
437.556	1	17
437.726	1	6
437.897	1	5
438.067	1	18
438.238	1	17
438.408	1	14
438.579	1	3
438.749	1	16
438.920	1	20
439.090	1	2
439.261	1	12
439.431	1	3
439.602	1	10
439.772	1	17
439.943	1	6
440.113	1	5
440.284	1	14
440.455	1	4
440.625	1	15
440.796	1	8
440.966	1	5
441.137	1	18
441.307	1	24
441.478	1	8
441.648	1	7
441.819	1	12
441.989	1	18
442.160	1	17
442.330	1	10
442.501	1	12
442.671	1	12
442.842	1	9
443.012	1	17
443.183	1	15
443.353	1	18
443.524	1	8
443.694	1	10
443.865	1	13
444.035	1	16
444.206	1	7
444.376	1	5
444.547	1	5
444.717	1	10
444.888	1	0
445.058	1	13
445.229	1	13
445.399	1	4
445.570	1	-2
445.740	1	17
445.911	1	21
446.081	1	14
446.252	1	12
446.422	1	5
446.593	1	8
446.763	1	14
446.934	1	3
447.104	1	8
447.275	1	2
447.445	1	8
447.616	1	7
447.786	1	9
447.957	1	9
448.127	1	7
448.298	1	8
448.468	1	11
448.639	1	7
448.809	1	10
448.979	1	15
449.150	1	15
449.320	1	9
449.491	1	6
449.661	1	8
449.832	1	4
450.002	1	7
450.173	1	9
450.343	1	4
450.514	1	14
450.684	1	13
450.855	1	14
451.025	1	9
451.196	1	16
451.366	1	21
451.537	1	25
451.707	1	7
451.878	1	8
452.048	1	15
452.218	1	14
452.389	1	10
452.559	1	13
452.730	1	17
452.900	1	3
453.071	1	19
453.241	1	6
453.412	1	11
453.582	1	9
453.753	1	18
453.923	1	7
454.093	1	2
454.264	1	23
454.434	1	11
454.605	1	3
454.775	1	13
454.946	1	5
455.116	1	27
455.287	1	8
455.457	1	11
455.628	1	-5
455.798	1	18
455.968	1	8
456.139	1	6
456.309	1	4
456.480	1	10
456.650	1	9
456.821	1	8
456.991	1	17
457.161	1	14
457.332	1	2
457.502	1	3
457.673	1	4
457.843	1	8
458.014	1	9
458.184	1	11
458.355	1	13
458.525	1	10
458.695	1	0
458.866	1	5
459.036	1	13
459.207	1	16
459.377	1	1
459.548	1	3
459.718	1	2
459.888	1	1
460.059	1	5
460.229	1	-4
460.400	1	0
460.570	1	8
460.740	1	10
460.911	1	9
461.081	1	18
461.252	1	7
461.422	1	2
461.593	1	14
461.763	1	12
461.933	1	11
462.104	1	4
462.274	1	4
462.445	1	-2
462.615	1	20
462.785	1	6
462.956	1	2
463.126	1	1
463.297	1	6
463.467	1	24
463.638	1	22
463.808	1	1
463.978	1	-11
464.149	1	3
464.319	1	13
464.490	1	-2
464.660	1	6
464.830	1	4
465.001	1	13
465.171	1	1
465.342	1	8
465.512	1	5
465.682	1	-1
465.853	1	5
466.023	1	6
466.194	1	7
466.364	1	24
466.534	1	-6
466.705	1	19
466.875	1	-10
467.045	1	-5
467.216	1	6
467.386	1	14
467.557	1	20
467.727	1	2
467.897	1	5
468.068	1	3
468.238	1	10
468.409	1	2
468.579	1	20
468.749	1	13
468.920	1	-1
469.090	1	9
469.260	1	13
469.431	1	-7
469.601	1	6
469.772	1	21
469.942	1	12
470.112	1	3
470.283	1	12
470.453	1	13
470.623	1	11
470.794	1	10
470.964	1	2
471.135	1	10
471.305	1	8
471.475	1	18
471.646	1	13
471.816	1	6
471.986	1	9
472.157	1	8
472.327	1	12
472.497	1	10
472.668	1	1
472.838	1	-1
473.009	1	2
473.179	1	6
473.349	1	14
473.520	1	15
473.690	1	6
473.860	1	1
474.031	1	-1
474.201	1	6
474.371	1	13
474.542	1	9
474.712	1	12
474.882	1	4
475.053	1	17
475.223	1	16
475.394	1	6
475.564	1	0
475.734	1	-9
475.905	1	10
476.075	1	7
476.245	1	5
476.416	1	5
476.586	1	12
476.756	1	6
476.927	1	4
477.097	1	1
477.267	1	2
477.438	1	10
477.608	1	14
477.778	1	-2
477.949	1	3
478.119	1	16
478.289	1	3
478.460	1	7
478.630	1	5
478.800	1	-1
478.971	1	6
479.141	1	9
479.311	1	4
479.482	1	-4
479.652	1	6
479.822	1	-2
479.993	1	6
480.163	1	-2
480.333	1	15
480.504	1	13
480.674	1	7
480.844	1	2
481.015	1	11
481.185	1	11
481.355	1	16
481.525	1	-5
481.696	1	5
481.866	1	11
482.036	1	0
482.207	1	5
482.377	1	1
482.547	1	6
482.718	1	8
482.888	1	13
483.058	1	11
483.229	1	6
483.399	1	17
483.569	1	-3
483.740	1	8
483.910	1	0
484.080	1	5
484.250	1	4
484.421	1	3
484.591	1	2
484.761	1	13
484.932	1	-3
485.102	1	13
485.272	1	1
485.443	1	10
485.613	1	3
485.783	1	1
485.953	1	-2
486.124	1	-3
486.294	1	9
486.464	1	18
486.635	1	7
486.805	1	14
486.975	1	3
487.146	1	13
487.316	1	13
487.486	1	9
487.656	1	4
487.827	1	3
487.997	1	1
488.167	1	7
488.338	1	3
488.508	1	7
488.678	1	0
488.848	1	5
489.019	1	1
489.189	1	6
489.359	1	-11
489.529	1	6
489.700	1	-4
489.870	1	6
490.040	1	1
490.211	1	-6
490.381	1	11
490.551	1	4
490.721	1	5
490.892	1	-9
491.062	1	-1
491.232	1	2
491.402	1	7
491.573	1	18
491.743	1	4
491.913	1	11
492.084	1	5
492.254	1	-3
492.424	1	8
492.594	1	3
492.765	1	9
492.935	1	8
493.105	1	2
493.275	1	-1
493.446	1	-2
493.616	1	-10
493.786	1	16
493.956	1	-1
494.127	1	2
494.297	1	-3
494.467	1	-1
494.637	1	-2
494.808	1	2
494.978	1	10
495.148	1	6
495.318	1	0
495.489	1	-9
495.659	1	-6
495.829	1	3
495.999	1	9
496.170	1	-1
496.340	1	1
496.510	1	10
496.680	1	13
496.851	1	11
497.021	1	7
497.191	1	4
497.361	1	-11
497.532	1	-5
497.702	1	5
497.872	1	0
498.042	1	0
498.213	1	5
498.383	1	6
498.553	1	-1
498.723	1	0
498.894	1	7
499.064	1	3
499.234	1	6
499.404	1	-1
499.574	1	7
499.745	1	9
499.915	1	0
500.085	1	1
500.255	1	-5
500.426	1	-4
500.596	1	-15
500.766	1	0
500.936	1	5
501.106	1	0
501.277	1	0
501.447	1	8
501.617	1	-3
501.787	1	-3
501.958	1	10
502.128	1	2
502.298	1	9
502.468	1	-1
502.638	1	5
502.809	1	2
502.979	1	7
503.149	1	-1
503.319	1	23
503.489	1	-7
503.660	1	0
503.830	1	3
504.000	1	-2
504.170	1	2
504.340	1	-3
504.511	1	5
504.681	1	-1
504.851	1	-6
505.021	1	4
505.192	1	-7
505.362	1	2
505.532	1	-7
505.702	1	14
505.872	1	6
506.043	1	6
506.213	1	8
506.383	1	4
506.553	1	1
506.723	1	-4
506.893	1	11
507.064	1	10
507.234	1	0
507.404	1	0
507.574	1	3
507.744	1	1
507.915	1	-9
508.085	1	-2
508.255	1	-1
508.425	1	3
508.595	1	-4
508.766	1	1
508.936	1	5
509.106	1	-1
509.276	1	-5
509.446	1	-5
509.616	1	1
509.787	1	9
509.957	1	7
510.127	1	4
510.297	1	-7
510.467	1	7
510.638	1	6
510.808	1	7
510.978	1	-12
511.148	1	1
511.318	1	1
511.488	1	4
511.659	1	1
511.829	1	-16
511.999	1	4
512.169	1	-3
512.339	1	3
512.509	1	-10
512.680	1	1
512.850	1	-3
513.020	1	1
513.190	1	-15
513.360	1	12
513.530	1	4
513.700	1	-1
513.871	1	-9
514.041	1	-2
514.211	1	0
514.381	1	-4
514.551	1	7
514.721	1	-7
514.892	1	-7
515.062	1	-3
515.232	1	-3
515.402	1	1
515.572	1	6
515.742	1	5
515.912	1	7
516.083	1	6
516.253	1	7
516.423	1	0
516.593	1	-3
516.763	1	8
516.933	1	7
517.104	1	8
517.274	1	0
517.444	1	3
517.614	1	5
517.784	1	2
517.954	1	-5
518.124	1	7
518.294	1	0
518.465	1	0
518.635	1	5
518.805	1	6
518.975	1	10
519.145	1	4
519.315	1	1
519.485	1	-4
519.656	1	-4
519.826	1	-8
519.996	1	5
520.166	1	0
520.336	1	3
520.506	1	5
520.676	1	6
520.846	1	2
521.017	1	-4
521.187	1	1
521.357	1	4
521.527	1	-2
521.697	1	-4
521.867	1	2
522.037	1	1
522.207	1	11
522.377	1	4
522.548	1	-5
522.718	1	0
522.888	1	-1
523.058	1	2
523.228	1	-8
523.398	1	-5
523.568	1	-13
523.738	1	1
523.909	1	4
524.079	1	-2
524.249	1	-8
524.419	1	-4
524.589	1	3
524.759	1	1
524.929	1	1
525.099	1	-1
525.269	1	2
525.439	1	0
525.610	1	8
525.780	1	1
525.950	1	4
526.120	1	0
526.290	1	-4
526.460	1	-3
526.630	1	1
526.800	1	-1
526.970	1	10
527.140	1	1
527.311	1	-2
527.481	1	5
527.651	1	-3
527.821	1	-6
527.991	1	10
528.161	1	2
528.331	1	-9
528.501	1	-6
528.671	1	1
528.841	1	7
529.011	1	-3
529.181	1	-5
529.352	1	4
529.522	1	2
529.692	1	8
529.862	1	-1
530.032	1	-1
530.202	1	-8
530.372	1	8
530.542	1	-4
530.712	1	1
530.882	1	-5
531.052	1	9
531.222	1	7
531.392	1	1
531.563	1	-7
531.733	1	-9
531.903	1	-4
532.073	1	-5
532.243	1	1
532.413	1	22
532.583	1	5
532.753	1	2
532.923	1	8
533.093	1	-14
533.263	1	7
533.433	1	-4
533.603	1	0
533.773	1	0
533.943	1	-1
534.113	1	6
534.284	1	6
534.454	1	-6
534.624	1	-1
534.794	1	-4
534.964	1	10
535.134	1	0
535.304	1	0
535.474	1	2
535.644	1	-1
535.814	1	5
535.984	1	1
536.154	1	4
536.324	1	-6
536.494	1	8
536.664	1	-3
536.834	1	9
537.004	1	6
537.174	1	1
537.344	1	5
537.514	1	-13
537.685	1	6
537.855	1	-1
538.025	1	4
538.195	1	-4
538.365	1	-5
538.535	1	4
538.705	1	0
538.875	1	5
539.045	1	-5
539.215	1	-3
539.385	1	-1
539.555	1	-6
539.725	1	-3
539.895	1	1
540.065	1	2
540.235	1	13
540.405	1	-1
540.575	1	-1
540.745	1	3
540.915	1	-3
541.085	1	-12
541.255	1	-1
541.425	1	-3
541.595	1	-5
541.765	1	-4
541.935	1	2
542.105	1	5
542.275	1	-3
542.445	1	-1
542.615	1	8
542.785	1	-1
542.955	1	7
543.125	1	-5
543.295	1	-4
543.465	1	3
543.635	1	-2
543.805	1	17
543.975	1	-1
544.145	1	-4
544.315	1	-10
544.485	1	0
544.655	1	6
544.825	1	-3
544.995	1	-8
545.165	1	2
545.335	1	7
545.505	1	1
545.675	1	4
545.845	1	4
546.015	1	-7
546.185	1	-6
546.355	1	2
546.525	1	5
546.695	1	0
546.865	1	0
547.035	1	4
547.205	1	10
547.375	1	10
547.545	1	0
547.715	1	6
547.885	1	-12
548.055	1	-3
548.225	1	2
548.395	1	1
548.565	1	4
548.735	1	4
548.905	1	7
549.075	1	0
549.245	1	2
549.415	1	-3
549.585	1	-5
549.755	1	0
549.925	1	2
550.095	1	-9
550.265	1	-1
550.435	1	4
550.605	1	-5
550.775	1	-11
550.945	1	-3
551.115	1	7
551.285	1	0
551.455	1	3
551.625	1	-10
551.795	1	0
551.965	1	-5
552.135	1	2
552.305	1	6
552.475	1	7
552.645	1	-1
552.815	1	7
552.985	1	-8
553.155	1	-2
553.325	1	-5
553.495	1	-1
553.665	1	7
553.835	1	6
554.004	1	-1
554.174	1	-15
554.344	1	3
554.514	1	-4
554.684	1	-2
554.854	1	-11
555.024	1	7
555.194	1	-5
555.364	1	-4
555.534	1	-4
555.704	1	6
555.874	1	0
556.044	1	-5
556.214	1	2
556.384	1	8
556.554	1	3
556.724	1	-6
556.894	1	-8
557.064	1	2
557.234	1	4
557.404	1	1
557.573	1	3
557.743	1	-3
557.913	1	0
558.083	1	-2
558.253	1	8
558.423	1	-6
558.593	1	10
558.763	1	-7
558.933	1	4
559.103	1	-6
559.273	1	3
559.443	1	0
559.613	1	-1
559.783	1	-3
559.953	1	-6
560.122	1	-1
560.292	1	-5
560.462	1	-2
560.632	1	-4
560.802	1	7
560.972	1	-3
561.142	1	-3
561.312	1	-8
561.482	1	6
561.652	1	-3
561.822	1	1
561.992	1	1
562.162	1	-7
562.331	1	-6
562.501	1	0
562.671	1	1
562.841	1	-8
563.011	1	3
563.181	1	-2
563.351	1	-2
563.521	1	-1
563.691	1	4
563.861	1	-6
564.031	1	3
564.201	1	3
564.370	1	3
564.540	1	-10
564.710	1	-3
564.880	1	-8
565.050	1	6
565.220	1	5
565.390	1	6
565.560	1	0
565.730	1	1
565.900	1	-1
566.069	1	5
566.239	1	7
566.409	1	4
566.579	1	3
566.749	1	-5
566.919	1	-3
567.089	1	-10
567.259	1	5
567.429	1	-11
567.599	1	13
567.768	1	-7
567.938	1	-1
568.108	1	-4
568.278	1	2
568.448	1	-2
568.618	1	4
568.788	1	2
568.958	1	-4
569.128	1	0
569.297	1	-5
569.467	1	4
569.637	1	4
569.807	1	4
569.977	1	0
570.147	1	0
570.317	1	3
570.487	1	-1
570.656	1	2
570.826	1	1
570.996	1	3
571.166	1	-5
571.336	1	1
571.506	1	-5
571.676	1	6
571.846	1	-2
572.015	1	3
572.185	1	-2
572.355	1	4
572.525	1	-5
572.695	1	1
572.865	1	-7
573.035	1	4
573.205	1	3
573.374	1	-8
573.544	1	-10
573.714	1	-15
573.884	1	2
574.054	1	0
574.224	1	-4
574.394	1	5
574.563	1	-4
574.733	1	9
574.903	1	0
575.073	1	-4
575.243	1	-7
575.413	1	-4
575.583	1	-8
575.752	1	-3
575.922	1	8
576.092	1	-4
576.262	1	-1
576.432	1	2
576.602	1	-1
576.772	1	-2
576.941	1	-3
577.111	1	0
577.281	1	-2
577.451	1	5
577.621	1	-4
577.791	1	3
577.960	1	4
578.130	1	2
578.300	1	-2
578.470	1	1
578.640	1	1
578.810	1	-2
578.979	1	-6
579.149	1	-10
579.319	1	-4
579.489	1	15
579.659	1	0
579.829	1	-7
579.998	1	-8
580.168	1	-2
580.338	1	0
580.508	1	-5
580.678	1	-1
580.848	1	0
581.017	1	-7
581.187	1	-4
581.357	1	2
581.527	1	7
581.697	1	1
581.867	1	3
582.036	1	-9
582.206	1	2
582.376	1	-9
582.546	1	-11
582.716	1	-2
582.885	1	-5
583.055	1	-12
583.225	1	-1
583.395	1	-3
583.565	1	13
583.735	1	0
583.904	1	1
584.074	1	-1
584.244	1	-11
584.414	1	-6
584.584	1	-4
584.753	1	-13
584.923	1	2
585.093	1	-1
585.263	1	4
585.433	1	-2
585.602	1	2
585.772	1	15
585.942	1	-6
586.112	1	-3
586.282	1	-3
586.451	1	-2
586.621	1	-8
586.791	1	-10
586.961	1	-10
587.131	1	2
587.300	1	4
587.470	1	-1
587.640	1	-8
587.810	1	-9
587.980	1	-2
588.149	1	1
588.319	1	4
588.489	1	7
588.659	1	-1
588.829	1	7
588.998	1	-4
589.168	1	-3
589.338	1	-6
589.508	1	7
589.677	1	4
589.847	1	8
590.017	1	5
590.187	1	9
590.357	1	-11
590.526	1	-1
590.696	1	-4
590.866	1	-1
591.036	1	9
591.205	1	2
591.375	1	-1
591.545	1	-5
591.715	1	-5
591.885	1	5
592.054	1	11
592.224	1	-4
592.394	1	-9
592.564	1	2
592.733	1	10
592.903	1	-7
593.073	1	-3
593.243	1	9
593.412	1	6
593.582	1	-1
593.752	1	-5
593.922	1	-7
594.091	1	4
594.261	1	-13
594.431	1	0
594.601	1	-3
594.771	1	5
594.940	1	5
595.110	1	1
595.280	1	2
595.450	1	-1
595.619	1	-2
595.789	1	-4
595.959	1	-7
596.129	1	-1
596.298	1	0
596.468	1	-14
596.638	1	-14
596.808	1	-5
596.977	1	-7
597.147	1	5
597.317	1	5
597.487	1	0
597.656	1	-6
597.826	1	6
597.996	1	-6
598.166	1	0
598.335	1	-2
598.505	1	0
598.675	1	-7
598.844	1	8
599.014	1	-9
599.184	1	-4
599.354	1	13
599.523	1	1
599.693	1	1
599.863	1	5
600.033	1	-2
600.202	1	-1
600.372	1	4
600.542	1	4
600.712	1	5
600.881	1	1
601.051	1	11
601.221	1	2
601.390	1	-6
601.560	1	6
601.730	1	2
601.900	1	5
602.069	1	6
602.239	1	9
602.409	1	-13
602.578	1	3
602.748	1	6
602.918	1	-12
603.088	1	2
603.257	1	-7
603.427	1	2
603.597	1	-2
603.767	1	8
603.936	1	5
604.106	1	0
604.276	1	4
604.445	1	-1
604.615	1	-3
604.785	1	1
604.954	1	-4
605.124	1	1
605.294	1	-1
605.464	1	0
605.633	1	1
605.803	1	-1
605.973	1	-4
606.142	1	12
606.312	1	12
606.482	1	-3
606.652	1	3
606.821	1	-9
606.991	1	1
607.161	1	0
607.330	1	-9
607.500	1	0
607.670	1	7
607.839	1	-8
608.009	1	7
608.179	1	0
608.348	1	-8
608.518	1	10
608.688	1	-3
608.858	1	0
609.027	1	5
609.197	1	0
609.367	1	-8
609.536	1	-11
609.706	1	1
609.876	1	9
610.045	1	-1
610.215	1	-4
610.385	1	2
610.554	1	1
610.724	1	0
610.894	1	1
611.063	1	-4
611.233	1	8
611.403	1	9
611.572	1	-2
611.742	1	1
611.912	1	4
612.081	1	3
612.251	1	5
612.421	1	1
612.590	1	-4
612.760	1	-3
612.930	1	13
613.099	1	-5
613.269	1	-3
613.439	1	-11
613.608	1	0
613.778	1	-3
613.948	1	9
614.117	1	3
614.287	1	3
614.457	1	3
614.626	1	-1
614.796	1	4
614.966	1	-3
615.135	1	12
615.305	1	-3
615.475	1	-2
615.644	1	10
615.814	1	9
615.984	1	-5
616.153	1	7
616.323	1	1
616.493	1	5
616.662	1	-1
616.832	1	-8
617.002	1	3
617.171	1	0
617.341	1	8
617.511	1	-11
617.680	1	-9
617.850	1	5
618.019	1	1
618.189	1	8
618.359	1	1
618.528	1	-2
618.698	1	0
618.868	1	0
619.037	1	2
619.207	1	0
619.377	1	-3
619.546	1	6
619.716	1	-2
619.885	1	1
620.055	1	-1
620.225	1	4
620.394	1	-4
620.564	1	4
620.734	1	-3
620.903	1	-11
621.073	1	0
621.242	1	3
621.412	1	1
621.582	1	4
621.751	1	-9
621.921	1	-6
622.091	1	-7
622.260	1	10
622.430	1	10
622.599	1	-5
622.769	1	-8
622.939	1	-10
623.108	1	-6
623.278	1	4
623.448	1	-1
623.617	1	0
623.787	1	-12
623.956	1	3
624.126	1	15
624.296	1	0
624.465	1	12
624.635	1	2
624.804	1	-1
624.974	1	-3
625.144	1	0
625.313	1	15
625.483	1	9
625.652	1	-7
625.822	1	3
625.992	1	-9
626.161	1	3
626.331	1	1
626.501	1	1
626.670	1	0
626.840	1	-1
627.009	1	3
627.179	1	5
627.348	1	3
627.518	1	7
627.688	1	-5
627.857	1	0
628.027	1	3
628.196	1	3
628.366	1	-9
628.536	1	-3
628.705	1	-1
628.875	1	-3
629.044	1	-8
629.214	1	3
629.384	1	16
629.553	1	-7
629.723	1	8
629.892	1	7
630.062	1	-4
630.232	1	7
630.401	1	1
630.571	1	0
630.740	1	-6
630.910	1	0
631.079	1	-1
631.249	1	-4
631.419	1	3
631.588	1	6
631.758	1	-5
631.927	1	9
632.097	1	-6
632.266	1	10
632.436	1	0
632.606	1	-3
632.775	1	7
632.945	1	0
633.114	1	-8
633.284	1	-2
633.453	1	8
633.623	1	13
633.793	1	9
633.962	1	2
634.132	1	3
634.301	1	6
634.471	1	5
634.640	1	-7
634.810	1	5
634.979	1	-3
635.149	1	-1
635.319	1	-11
635.488	1	5
635.658	1	4
635.827	1	0
635.997	1	-1
636.166	1	-6
636.336	1	-7
636.505	1	-1
636.675	1	-1
636.845	1	-10
637.014	1	-6
637.184	1	8
637.353	1	5
637.523	1	-7
637.692	1	3
637.862	1	-11
638.031	1	-1
638.201	1	1
638.370	1	2
638.540	1	-4
638.710	1	-1
638.879	1	-8
639.049	1	0
639.218	1	0
639.388	1	1
639.557	1	-5
639.727	1	4
639.896	1	1
640.066	1	-2
640.235	1	-2
640.405	1	11
640.574	1	2
640.744	1	-2
640.914	1	-9
641.083	1	6
641.253	1	0
641.422	1	-1
641.592	1	7
641.761	1	1
641.931	1	5
642.100	1	6
642.270	1	4
642.439	1	-3
642.609	1	7
642.778	1	-6
642.948	1	10
643.117	1	1
643.287	1	6
643.456	1	-6
643.626	1	-4
643.795	1	0
643.965	1	2
644.134	1	0
644.304	1	-3
644.473	1	4
644.643	1	10
644.812	1	-7
644.982	1	-1
645.151	1	1
645.321	1	0
645.490	1	12
645.660	1	-6
645.829	1	1
645.999	1	-5
646.168	1	16
646.338	1	-10
646.507	1	5
646.677	1	1
646.846	1	1
647.016	1	15
647.185	1	5
647.355	1	11
647.524	1	-1
647.694	1	-7
647.863	1	-1
648.033	1	-5
648.202	1	9
648.372	1	-16
648.541	1	4
648.711	1	4
648.880	1	16
649.050	1	3
649.219	1	0
649.389	1	-7
649.558	1	11
649.728	1	0
649.897	1	-4
650.067	1	14
650.236	1	-1
650.406	1	2
650.575	1	5
650.745	1	1
650.914	1	-4
651.084	1	-5
651.253	1	2
651.423	1	-8
651.592	1	3
651.762	1	-2
651.931	1	10
652.101	1	-1
652.270	1	-7
652.440	1	3
652.609	1	-2
652.778	1	-2
652.948	1	-6
653.117	1	-1
653.287	1	-7
653.456	1	-6
653.626	1	-1
653.795	1	-5
653.965	1	6
654.134	1	-10
654.304	1	8
654.473	1	-1
654.643	1	-4
654.812	1	8
654.982	1	4
655.151	1	1
655.320	1	3
655.490	1	-6
655.659	1	6
655.829	1	-3
655.998	1	7
656.168	1	-6
656.337	1	-3
656.507	1	-4
656.676	1	-5
656.846	1	0
657.015	1	3
657.184	1	-2
657.354	1	4
657.523	1	-3
657.693	1	1
657.862	1	-14
658.032	1	-3
658.201	1	-9
658.371	1	2
658.540	1	-4
658.709	1	10
658.879	1	5
659.048	1	5
659.218	1	-2
659.387	1	4
659.557	1	3
659.726	1	-5
659.895	1	-1
660.065	1	-9
660.234	1	-9
660.404	1	-3
660.573	1	10
660.743	1	2
660.912	1	2
661.081	1	-10
661.251	1	-1
661.420	1	4
661.590	1	-5
661.759	1	2
661.929	1	-3
662.098	1	6
662.267	1	-7
662.437	1	4
662.606	1	-3
662.776	1	2
662.945	1	3
663.115	1	12
663.284	1	7
663.453	1	0
663.623	1	2
663.792	1	-5
663.962	1	12
664.131	1	1
664.300	1	-5
664.470	1	-7
664.639	1	-1
664.809	1	1
664.978	1	8
665.148	1	2
665.317	1	2
665.486	1	4
665.656	1	1
665.825	1	14
665.995	1	-5
666.164	1	-2
666.333	1	5
666.503	1	-9
666.672	1	-4
666.842	1	-4
667.011	1	10
667.180	1	-3
667.350	1	9
667.519	1	5
667.689	1	-4
667.858	1	10
668.027	1	0
668.197	1	-2
668.366	1	4
668.536	1	-11
668.705	1	-7
668.874	1	9
669.044	1	8
669.213	1	2
669.382	1	13
669.552	1	-1
669.721	1	-8
669.891	1	-1
670.060	1	-2
670.229	1	8
670.399	1	5
670.568	1	7
670.738	1	1
670.907	1	0
671.076	1	4
671.246	1	15
671.415	1	15
671.584	1	0
671.754	1	-6
671.923	1	-7
672.093	1	6
672.262	1	-1
672.431	1	4
672.601	1	3
672.770	1	0
672.939	1	4
673.109	1	3
673.278	1	0
673.448	1	-3
673.617	1	7
673.786	1	1
