325.333	1	15
325.504	1	9
325.675	1	26
325.846	1	12
326.017	1	26
326.188	1	21
326.359	1	25
326.531	1	10
326.702	1	14
326.873	1	23
327.044	1	32
327.215	1	17
327.386	1	17
327.557	1	16
327.728	1	15
327.899	1	23
328.070	1	28
328.241	1	16
328.412	1	25
328.583	1	18
328.754	1	18
328.926	1	24
329.097	1	13
329.268	1	22
329.439	1	17
329.610	1	23
329.781	1	18
329.952	1	20
330.123	1	21
330.294	1	13
330.465	1	9
330.636	1	26
330.807	1	16
330.978	1	6
331.149	1	30
331.320	1	14
331.492	1	15
331.663	1	19
331.834	1	28
332.005	1	27
332.176	1	23
332.347	1	20
332.518	1	28
332.689	1	27
332.860	1	29
333.031	1	28
333.202	1	23
333.373	1	28
333.544	1	31
333.715	1	28
333.886	1	26
334.057	1	18
334.228	1	38
334.399	1	30
334.570	1	32
334.741	1	20
334.912	1	30
335.084	1	33
335.255	1	26
335.426	1	32
335.597	1	34
335.768	1	29
335.939	1	34
336.110	1	33
336.281	1	29
336.452	1	42
336.623	1	22
336.794	1	34
336.965	1	28
337.136	1	47
337.307	1	23
337.478	1	28
337.649	1	30
337.820	1	26
337.991	1	33
338.162	1	28
338.333	1	26
338.504	1	31
338.675	1	36
338.846	1	19
339.017	1	35
339.188	1	36
339.359	1	32
339.530	1	29
339.701	1	30
339.872	1	43
340.043	1	40
340.214	1	36
340.385	1	16
340.556	1	39
340.727	1	43
340.898	1	40
341.069	1	27
341.240	1	31
341.411	1	30
341.582	1	29
341.753	1	32
341.924	1	49
342.095	1	27
342.266	1	36
342.437	1	38
342.608	1	45
342.779	1	34
342.950	1	34
343.121	1	39
343.292	1	40
343.463	1	48
343.634	1	36
343.805	1	42
343.976	1	41
344.147	1	45
344.318	1	41
344.489	1	28
344.660	1	54
344.831	1	49
345.002	1	41
345.173	1	43
345.344	1	35
345.515	1	37
345.686	1	40
345.857	1	44
346.028	1	43
346.199	1	38
346.370	1	37
346.541	1	43
346.712	1	40
346.883	1	34
347.054	1	38
347.225	1	30
347.396	1	44
347.567	1	38
347.738	1	49
347.909	1	47
348.080	1	47
348.251	1	49
348.422	1	49
348.593	1	39
348.764	1	46
348.935	1	53
349.106	1	44
349.277	1	38
349.448	1	48
349.619	1	45
349.790	1	51
349.961	1	41
350.132	1	52
350.303	1	55
350.474	1	52
350.645	1	52
350.816	1	51
350.987	1	48
351.157	1	50
351.328	1	44
351.499	1	54
351.670	1	51
351.841	1	54
352.012	1	47
352.183	1	56
352.354	1	44
352.525	1	62
352.696	1	44
352.867	1	60
353.038	1	51
353.209	1	61
353.380	1	52
353.551	1	56
353.722	1	50
353.893	1	50
354.064	1	52
354.235	1	49
354.406	1	44
354.576	1	58
354.747	1	51
354.918	1	49
355.089	1	46
355.260	1	53
355.431	1	45
355.602	1	48
355.773	1	44
355.944	1	55
356.115	1	53
356.286	1	53
356.457	1	47
356.628	1	49
356.799	1	56
356.970	1	68
357.141	1	55
357.311	1	59
357.482	1	61
357.653	1	55
357.824	1	64
357.995	1	61
358.166	1	51
358.337	1	57
358.508	1	72
358.679	1	53
358.850	1	64
359.021	1	61
359.192	1	65
359.363	1	71
359.533	1	66
359.704	1	55
359.875	1	56
360.046	1	62
360.217	1	58
360.388	1	66
360.559	1	61
360.730	1	53
360.901	1	67
361.072	1	66
361.243	1	62
361.414	1	71
361.584	1	52
361.755	1	63
361.926	1	73
362.097	1	59
362.268	1	70
362.439	1	65
362.610	1	56
362.781	1	57
362.952	1	58
363.123	1	59
363.293	1	56
363.464	1	62
363.635	1	62
363.806	1	71
363.977	1	65
364.148	1	59
364.319	1	67
364.490	1	67
364.661	1	69
364.832	1	59
365.002	1	66
365.173	1	68
365.344	1	67
365.515	1	59
365.686	1	74
365.857	1	66
366.028	1	62
366.199	1	73
366.370	1	67
366.540	1	65
366.711	1	64
366.882	1	65
367.053	1	61
367.224	1	60
367.395	1	69
367.566	1	70
367.737	1	55
367.908	1	67
368.078	1	61
368.249	1	72
368.420	1	63
368.591	1	61
368.762	1	77
368.933	1	62
369.104	1	74
369.274	1	77
369.445	1	82
369.616	1	67
369.787	1	61
369.958	1	79
370.129	1	72
370.300	1	60
370.471	1	65
370.641	1	70
370.812	1	67
370.983	1	57
371.154	1	64
371.325	1	65
371.496	1	62
371.667	1	64
371.837	1	72
372.008	1	64
372.179	1	65
372.350	1	55
372.521	1	66
372.692	1	70
372.863	1	67
373.033	1	63
373.204	1	62
373.375	1	70
373.546	1	64
373.717	1	61
373.888	1	72
374.059	1	63
374.229	1	80
374.400	1	65
374.571	1	58
374.742	1	66
374.913	1	59
375.084	1	74
375.254	1	64
375.425	1	76
375.596	1	71
375.767	1	72
375.938	1	64
376.109	1	65
376.279	1	79
376.450	1	75
376.621	1	81
376.792	1	87
376.963	1	73
377.134	1	78
377.304	1	64
377.475	1	58
377.646	1	71
377.817	1	74
377.988	1	69
378.159	1	72
378.329	1	61
378.500	1	90
378.671	1	80
378.842	1	78
379.013	1	74
379.184	1	72
379.354	1	85
379.525	1	89
379.696	1	80
379.867	1	77
380.038	1	80
380.209	1	84
380.379	1	82
380.550	1	68
380.721	1	77
380.892	1	75
381.063	1	70
381.233	1	80
381.404	1	79
381.575	1	78
381.746	1	85
381.917	1	77
382.087	1	93
382.258	1	83
382.429	1	84
382.600	1	70
382.771	1	74
382.941	1	81
383.112	1	86
383.283	1	89
383.454	1	78
383.625	1	84
383.795	1	85
383.966	1	85
384.137	1	92
384.308	1	81
384.479	1	85
384.649	1	82
384.820	1	79
384.991	1	82
385.162	1	91
385.333	1	89
385.503	1	85
385.674	1	88
385.845	1	96
386.016	1	85
386.187	1	82
386.357	1	91
386.528	1	90
386.699	1	91
386.870	1	88
387.041	1	96
387.211	1	83
387.382	1	91
387.553	1	97
387.724	1	90
387.894	1	77
388.065	1	99
388.236	1	84
388.407	1	80
388.578	1	89
388.748	1	99
388.919	1	91
389.090	1	105
389.261	1	100
389.431	1	97
389.602	1	86
389.773	1	95
389.944	1	91
390.114	1	101
390.285	1	102
390.456	1	74
390.627	1	79
390.798	1	96
390.968	1	93
391.139	1	95
391.310	1	84
391.481	1	86
391.651	1	107
391.822	1	96
391.993	1	85
392.164	1	83
392.334	1	82
392.505	1	97
392.676	1	83
392.847	1	89
393.017	1	96
393.188	1	96
393.359	1	100
393.530	1	99
393.700	1	101
393.871	1	98
394.042	1	94
394.213	1	97
394.383	1	92
394.554	1	91
394.725	1	93
394.896	1	96
395.066	1	102
395.237	1	100
395.408	1	98
395.579	1	96
395.749	1	100
395.920	1	107
396.091	1	97
396.262	1	98
396.432	1	96
396.603	1	97
396.774	1	90
396.945	1	109
397.115	1	97
397.286	1	99
397.457	1	107
397.627	1	105
397.798	1	103
397.969	1	102
398.140	1	93
398.310	1	99
398.481	1	99
398.652	1	99
398.823	1	101
398.993	1	100
399.164	1	95
399.335	1	100
399.505	1	106
399.676	1	85
399.847	1	90
400.018	1	98
400.188	1	93
400.359	1	113
400.530	1	103
400.700	1	95
400.871	1	110
401.042	1	95
401.213	1	105
401.383	1	103
401.554	1	94
401.725	1	99
401.895	1	91
402.066	1	101
402.237	1	100
402.408	1	101
402.578	1	109
402.749	1	98
402.920	1	103
403.090	1	97
403.261	1	98
403.432	1	97
403.603	1	101
403.773	1	116
403.944	1	113
404.115	1	106
404.285	1	104
404.456	1	99
404.627	1	89
404.797	1	92
404.968	1	101
405.139	1	105
405.310	1	104
405.480	1	107
405.651	1	100
405.822	1	99
405.992	1	113
406.163	1	96
406.334	1	107
406.504	1	100
406.675	1	97
406.846	1	111
407.016	1	104
407.187	1	107
407.358	1	104
407.528	1	108
407.699	1	107
407.870	1	103
408.041	1	112
408.211	1	108
408.382	1	107
408.553	1	116
408.723	1	111
408.894	1	99
409.065	1	114
409.235	1	112
409.406	1	96
409.577	1	103
409.747	1	104
409.918	1	113
410.089	1	119
410.259	1	115
410.430	1	109
410.601	1	118
410.771	1	105
410.942	1	107
411.113	1	107
411.283	1	100
411.454	1	112
411.625	1	108
411.795	1	115
411.966	1	107
412.137	1	117
412.307	1	105
412.478	1	102
412.649	1	105
412.819	1	115
412.990	1	104
413.161	1	104
413.331	1	96
413.502	1	89
413.672	1	95
413.843	1	110
414.014	1	102
414.184	1	108
414.355	1	102
414.526	1	103
414.696	1	98
414.867	1	90
415.038	1	96
415.208	1	94
415.379	1	97
415.550	1	111
415.720	1	98
415.891	1	109
416.062	1	103
416.232	1	112
416.403	1	121
416.573	1	100
416.744	1	109
416.915	1	101
417.085	1	116
417.256	1	105
417.427	1	103
417.597	1	101
417.768	1	106
417.939	1	109
418.109	1	102
418.280	1	112
418.450	1	113
418.621	1	104
418.792	1	113
418.962	1	116
419.133	1	106
419.304	1	96
419.474	1	102
419.645	1	117
419.815	1	109
419.986	1	109
420.157	1	108
420.327	1	97
420.498	1	108
420.669	1	108
420.839	1	111
421.010	1	100
421.180	1	95
421.351	1	107
421.522	1	112
421.692	1	99
421.863	1	104
422.033	1	102
422.204	1	114
422.375	1	105
422.545	1	102
422.716	1	91
422.886	1	106
423.057	1	96
423.228	1	102
423.398	1	103
423.569	1	97
423.740	1	101
423.910	1	100
424.081	1	113
424.251	1	86
424.422	1	107
424.593	1	103
424.763	1	93
424.934	1	104
425.104	1	104
425.275	1	87
425.445	1	88
425.616	1	100
425.787	1	98
425.957	1	97
426.128	1	92
426.298	1	100
426.469	1	88
426.640	1	90
426.810	1	92
426.981	1	108
427.151	1	78
427.322	1	94
427.493	1	96
427.663	1	95
427.834	1	100
428.004	1	91
428.175	1	94
428.345	1	80
428.516	1	92
428.687	1	105
428.857	1	98
429.028	1	90
429.198	1	88
429.369	1	95
429.540	1	95
429.710	1	93
429.881	1	98
430.051	1	87
430.222	1	100
430.392	1	102
430.563	1	94
430.734	1	103
430.904	1	93
431.075	1	98
431.245	1	110
431.416	1	100
431.586	1	92
431.757	1	102
431.927	1	104
432.098	1	99
432.269	1	85
432.439	1	94
432.610	1	99
432.780	1	102
432.951	1	92
433.121	1	93
433.292	1	95
433.462	1	101
433.633	1	94
433.804	1	95
433.974	1	88
434.145	1	103
434.315	1	92
434.486	1	86
434.656	1	97
434.827	1	115
434.997	1	99
435.168	1	94
435.339	1	107
435.509	1	89
435.680	1	97
435.850	1	87
436.021	1	90
436.191	1	98
436.362	1	93
436.532	1	96
436.703	1	93
436.873	1	82
437.044	1	86
437.214	1	90
437.385	1	86
437.556	1	99
437.726	1	84
437.897	1	86
438.067	1	90
438.238	1	91
438.408	1	85
438.579	1	82
438.749	1	82
438.920	1	97
439.090	1	74
439.261	1	91
439.431	1	74
439.602	1	83
439.772	1	91
439.943	1	81
440.113	1	82
440.284	1	93
440.455	1	75
440.625	1	84
440.796	1	90
440.966	1	97
441.137	1	90
441.307	1	89
441.478	1	81
441.648	1	90
441.819	1	74
441.989	1	93
442.160	1	82
442.330	1	80
442.501	1	89
442.671	1	96
442.842	1	83
443.012	1	88
443.183	1	78
443.353	1	77
443.524	1	84
443.694	1	80
443.865	1	90
444.035	1	81
444.206	1	83
444.376	1	84
444.547	1	82
444.717	1	78
444.888	1	61
445.058	1	83
445.229	1	76
445.399	1	85
445.570	1	74
445.740	1	81
445.911	1	82
446.081	1	80
446.252	1	79
446.422	1	85
446.593	1	81
446.763	1	85
446.934	1	69
447.104	1	72
447.275	1	89
447.445	1	85
447.616	1	67
447.786	1	82
447.957	1	76
448.127	1	78
448.298	1	75
448.468	1	75
448.639	1	76
448.809	1	72
448.979	1	93
449.150	1	78
449.320	1	89
449.491	1	83
449.661	1	73
449.832	1	78
450.002	1	80
450.173	1	83
450.343	1	67
450.514	1	77
450.684	1	78
450.855	1	81
451.025	1	63
451.196	1	72
451.366	1	85
451.537	1	86
451.707	1	74
451.878	1	69
452.048	1	61
452.218	1	70
452.389	1	75
452.559	1	85
452.730	1	69
452.900	1	61
453.071	1	83
453.241	1	74
453.412	1	70
453.582	1	69
453.753	1	81
453.923	1	68
454.093	1	67
454.264	1	77
454.434	1	79
454.605	1	59
454.775	1	71
454.946	1	67
455.116	1	80
455.287	1	64
455.457	1	70
455.628	1	68
455.798	1	69
455.968	1	72
456.139	1	75
456.309	1	70
456.480	1	71
456.650	1	66
456.821	1	65
456.991	1	69
457.161	1	72
457.332	1	71
457.502	1	73
457.673	1	63
457.843	1	63
458.014	1	63
458.184	1	67
458.355	1	73
458.525	1	62
458.695	1	67
458.866	1	53
459.036	1	65
459.207	1	70
459.377	1	68
459.548	1	69
459.718	1	64
459.888	1	58
460.059	1	64
460.229	1	60
460.400	1	76
460.570	1	55
460.740	1	64
460.911	1	56
461.081	1	73
461.252	1	76
461.422	1	64
461.593	1	64
461.763	1	71
461.933	1	68
462.104	1	51
462.274	1	61
462.445	1	65
462.615	1	69
462.785	1	60
462.956	1	62
463.126	1	70
463.297	1	67
463.467	1	63
463.638	1	70
463.808	1	63
463.978	1	59
464.149	1	50
464.319	1	62
464.490	1	55
464.660	1	63
464.830	1	67
465.001	1	61
465.171	1	57
465.342	1	58
465.512	1	63
465.682	1	54
465.853	1	62
466.023	1	66
466.194	1	61
466.364	1	64
466.534	1	54
466.705	1	74
466.875	1	50
467.045	1	55
467.216	1	52
467.386	1	57
467.557	1	64
467.727	1	50
467.897	1	67
468.068	1	41
468.238	1	49
468.409	1	62
468.579	1	62
468.749	1	50
468.920	1	48
469.090	1	61
469.260	1	58
469.431	1	48
469.601	1	57
469.772	1	57
469.942	1	53
470.112	1	41
470.283	1	59
470.453	1	56
470.623	1	58
470.794	1	54
470.964	1	44
471.135	1	57
471.305	1	44
471.475	1	54
471.646	1	51
471.816	1	60
471.986	1	54
472.157	1	55
472.327	1	65
472.497	1	50
472.668	1	64
472.838	1	51
473.009	1	48
473.179	1	50
473.349	1	43
473.520	1	73
473.690	1	51
473.860	1	49
474.031	1	40
474.201	1	51
474.371	1	65
474.542	1	57
474.712	1	44
474.882	1	51
475.053	1	60
475.223	1	58
475.394	1	53
475.564	1	54
475.734	1	49
475.905	1	46
476.075	1	56
476.245	1	48
476.416	1	37
476.586	1	46
476.756	1	58
476.927	1	47
477.097	1	49
477.267	1	52
477.438	1	62
477.608	1	62
477.778	1	42
477.949	1	42
478.119	1	52
478.289	1	50
478.460	1	53
478.630	1	42
478.800	1	51
478.971	1	51
479.141	1	64
479.311	1	45
479.482	1	53
479.652	1	47
479.822	1	41
479.993	1	50
480.163	1	50
480.333	1	52
480.504	1	44
480.674	1	46
480.844	1	48
481.015	1	55
481.185	1	54
481.355	1	52
481.525	1	40
481.696	1	43
481.866	1	51
482.036	1	42
482.207	1	59
482.377	1	40
482.547	1	46
482.718	1	51
482.888	1	48
483.058	1	52
483.229	1	49
483.399	1	53
483.569	1	32
483.740	1	44
483.910	1	39
484.080	1	41
484.250	1	44
484.421	1	38
484.591	1	51
484.761	1	47
484.932	1	41
485.102	1	40
485.272	1	42
485.443	1	50
485.613	1	46
485.783	1	35
485.953	1	41
486.124	1	44
486.294	1	47
486.464	1	54
486.635	1	33
486.805	1	46
486.975	1	29
487.146	1	40
487.316	1	47
487.486	1	48
487.656	1	38
487.827	1	32
487.997	1	37
488.167	1	42
488.338	1	32
488.508	1	53
488.678	1	39
488.848	1	41
489.019	1	32
489.189	1	49
489.359	1	37
489.529	1	40
489.700	1	37
489.870	1	40
490.040	1	41
490.211	1	32
490.381	1	31
490.551	1	45
490.721	1	46
490.892	1	30
491.062	1	26
491.232	1	45
491.402	1	30
491.573	1	45
491.743	1	36
491.913	1	37
492.084	1	34
492.254	1	37
492.424	1	30
492.594	1	38
492.765	1	38
492.935	1	49
493.105	1	32
493.275	1	35
493.446	1	22
493.616	1	31
493.786	1	39
493.956	1	41
494.127	1	31
494.297	1	26
494.467	1	38
494.637	1	38
494.808	1	44
494.978	1	38
495.148	1	32
495.318	1	27
495.489	1	27
495.659	1	41
495.829	1	36
495.999	1	41
496.170	1	42
496.340	1	34
496.510	1	41
496.680	1	36
496.851	1	46
497.021	1	34
497.191	1	44
497.361	1	26
497.532	1	37
497.702	1	39
497.872	1	30
498.042	1	35
498.213	1	29
498.383	1	34
498.553	1	38
498.723	1	32
498.894	1	30
499.064	1	28
499.234	1	37
499.404	1	39
499.574	1	43
499.745	1	27
499.915	1	34
500.085	1	30
500.255	1	17
500.426	1	33
500.596	1	18
500.766	1	30
500.936	1	26
501.106	1	23
501.277	1	16
501.447	1	34
501.617	1	37
501.787	1	17
501.958	1	36
502.128	1	29
502.298	1	28
502.468	1	23
502.638	1	39
502.809	1	28
502.979	1	36
503.149	1	28
503.319	1	35
503.489	1	17
503.660	1	21
503.830	1	36
504.000	1	24
504.170	1	28
504.340	1	27
504.511	1	33
504.681	1	31
504.851	1	31
505.021	1	32
505.192	1	23
505.362	1	28
505.532	1	26
505.702	1	37
505.872	1	29
506.043	1	34
506.213	1	37
506.383	1	26
506.553	1	28
506.723	1	22
506.893	1	33
507.064	1	29
507.234	1	26
507.404	1	28
507.574	1	10
507.744	1	38
507.915	1	32
508.085	1	28
508.255	1	22
508.425	1	25
508.595	1	29
508.766	1	17
508.936	1	36
509.106	1	24
509.276	1	23
509.446	1	27
509.616	1	28
509.787	1	21
509.957	1	30
510.127	1	26
510.297	1	8
510.467	1	31
510.638	1	25
510.808	1	35
510.978	1	23
511.148	1	15
511.318	1	47
511.488	1	40
511.659	1	18
511.829	1	12
511.999	1	31
512.169	1	19
512.339	1	21
512.509	1	20
512.680	1	26
512.850	1	27
513.020	1	28
513.190	1	18
513.360	1	33
513.530	1	18
513.700	1	28
513.871	1	20
514.041	1	18
514.211	1	31
514.381	1	38
514.551	1	13
514.721	1	26
514.892	1	25
515.062	1	20
515.232	1	20
515.402	1	24
515.572	1	20
515.742	1	31
515.912	1	21
516.083	1	21
516.253	1	31
516.423	1	17
516.593	1	25
516.763	1	26
516.933	1	18
517.104	1	26
517.274	1	14
517.444	1	17
517.614	1	15
517.784	1	19
517.954	1	15
518.124	1	20
518.294	1	21
518.465	1	8
518.635	1	27
518.805	1	20
518.975	1	23
519.145	1	14
519.315	1	19
519.485	1	20
519.656	1	18
519.826	1	5
519.996	1	26
520.166	1	15
520.336	1	25
520.506	1	23
520.676	1	31
520.846	1	13
521.017	1	23
521.187	1	23
521.357	1	12
521.527	1	23
521.697	1	5
521.867	1	30
522.037	1	23
522.207	1	24
522.377	1	30
522.548	1	1
522.718	1	14
522.888	1	23
523.058	1	18
523.228	1	10
523.398	1	10
523.568	1	10
523.738	1	18
523.909	1	12
524.079	1	10
524.249	1	14
524.419	1	19
524.589	1	18
524.759	1	23
524.929	1	15
525.099	1	17
525.269	1	16
525.439	1	16
525.610	1	20
525.780	1	20
525.950	1	14
526.120	1	9
526.290	1	3
526.460	1	11
526.630	1	23
526.800	1	14
526.970	1	22
527.140	1	8
527.311	1	9
527.481	1	22
527.651	1	21
527.821	1	14
527.991	1	9
528.161	1	12
528.331	1	6
528.501	1	16
528.671	1	15
528.841	1	11
529.011	1	22
529.181	1	11
529.352	1	15
529.522	1	18
529.692	1	23
529.862	1	9
530.032	1	5
530.202	1	10
530.372	1	21
530.542	1	1
530.712	1	20
530.882	1	21
531.052	1	21
531.222	1	15
531.392	1	11
531.563	1	22
531.733	1	15
531.903	1	11
532.073	1	15
532.243	1	22
532.413	1	39
532.583	1	24
532.753	1	14
532.923	1	31
533.093	1	0
533.263	1	11
533.433	1	13
533.603	1	5
533.773	1	13
533.943	1	12
534.113	1	19
534.284	1	14
534.454	1	12
534.624	1	8
534.794	1	11
534.964	1	15
535.134	1	8
535.304	1	18
535.474	1	28
535.644	1	20
535.814	1	14
535.984	1	28
536.154	1	12
536.324	1	6
536.494	1	23
536.664	1	6
536.834	1	13
537.004	1	12
537.174	1	13
537.344	1	19
537.514	1	6
537.685	1	17
537.855	1	11
538.025	1	24
538.195	1	9
538.365	1	19
538.535	1	14
538.705	1	20
538.875	1	11
539.045	1	18
539.215	1	5
539.385	1	21
539.555	1	8
539.725	1	6
539.895	1	11
540.065	1	16
540.235	1	16
540.405	1	20
540.575	1	7
540.745	1	11
540.915	1	17
541.085	1	1
541.255	1	17
541.425	1	13
541.595	1	10
541.765	1	16
541.935	1	13
542.105	1	17
542.275	1	12
542.445	1	14
542.615	1	19
542.785	1	6
542.955	1	19
543.125	1	9
543.295	1	18
543.465	1	19
543.635	1	2
543.805	1	14
543.975	1	8
544.145	1	15
544.315	1	10
544.485	1	9
544.655	1	21
544.825	1	13
544.995	1	10
545.165	1	19
545.335	1	9
545.505	1	23
545.675	1	20
545.845	1	7
546.015	1	11
546.185	1	3
546.355	1	14
546.525	1	13
546.695	1	9
546.865	1	9
547.035	1	9
547.205	1	24
547.375	1	27
547.545	1	17
547.715	1	17
547.885	1	4
548.055	1	7
548.225	1	22
548.395	1	13
548.565	1	13
548.735	1	6
548.905	1	12
549.075	1	17
549.245	1	14
549.415	1	16
549.585	1	14
549.755	1	13
549.925	1	10
550.095	1	7
550.265	1	16
550.435	1	20
550.605	1	16
550.775	1	-4
550.945	1	13
551.115	1	7
551.285	1	7
551.455	1	12
551.625	1	1
551.795	1	8
551.965	1	2
552.135	1	12
552.305	1	11
552.475	1	14
552.645	1	9
552.815	1	2
552.985	1	6
553.155	1	9
553.325	1	1
553.495	1	13
553.665	1	10
553.835	1	21
554.004	1	8
554.174	1	4
554.344	1	7
554.514	1	4
554.684	1	17
554.854	1	4
555.024	1	15
555.194	1	13
555.364	1	4
555.534	1	7
555.704	1	6
555.874	1	12
556.044	1	12
556.214	1	14
556.384	1	12
556.554	1	6
556.724	1	6
556.894	1	14
557.064	1	0
557.234	1	12
557.404	1	13
557.573	1	10
557.743	1	-1
557.913	1	2
558.083	1	12
558.253	1	11
558.423	1	9
558.593	1	16
558.763	1	8
558.933	1	18
559.103	1	0
559.273	1	19
559.443	1	10
559.613	1	5
559.783	1	2
559.953	1	-5
560.122	1	4
560.292	1	0
560.462	1	4
560.632	1	1
560.802	1	14
560.972	1	3
561.142	1	11
561.312	1	6
561.482	1	21
561.652	1	19
561.822	1	3
561.992	1	5
562.162	1	1
562.331	1	-4
562.501	1	13
562.671	1	5
562.841	1	-3
563.011	1	11
563.181	1	-4
563.351	1	-3
563.521	1	4
563.691	1	13
563.861	1	15
564.031	1	3
564.201	1	18
564.370	1	9
564.540	1	2
564.710	1	4
564.880	1	1
565.050	1	10
565.220	1	17
565.390	1	11
565.560	1	8
565.730	1	14
565.900	1	15
566.069	1	23
566.239	1	22
566.409	1	20
566.579	1	5
566.749	1	2
566.919	1	-1
567.089	1	-6
567.259	1	7
567.429	1	3
567.599	1	29
567.768	1	3
567.938	1	7
568.108	1	5
568.278	1	9
568.448	1	3
568.618	1	10
568.788	1	1
568.958	1	7
569.128	1	5
569.297	1	4
569.467	1	22
569.637	1	13
569.807	1	14
569.977	1	3
570.147	1	7
570.317	1	10
570.487	1	2
570.656	1	11
570.826	1	4
570.996	1	12
571.166	1	5
571.336	1	3
571.506	1	3
571.676	1	6
571.846	1	11
572.015	1	13
572.185	1	8
572.355	1	4
572.525	1	-1
572.695	1	5
572.865	1	9
573.035	1	10
573.205	1	5
573.374	1	5
573.544	1	12
573.714	1	0
573.884	1	-1
574.054	1	4
574.224	1	14
574.394	1	0
574.563	1	-2
574.733	1	8
574.903	1	16
575.073	1	14
575.243	1	-6
575.413	1	1
575.583	1	0
575.752	1	8
575.922	1	10
576.092	1	4
576.262	1	10
576.432	1	1
576.602	1	13
576.772	1	2
576.941	1	12
577.111	1	9
577.281	1	11
577.451	1	12
577.621	1	4
577.791	1	6
577.960	1	2
578.130	1	6
578.300	1	1
578.470	1	13
578.640	1	9
578.810	1	-2
578.979	1	22
579.149	1	10
579.319	1	3
579.489	1	13
579.659	1	8
579.829	1	5
579.998	1	-7
580.168	1	3
580.338	1	10
580.508	1	-1
580.678	1	7
580.848	1	10
581.017	1	13
581.187	1	7
581.357	1	11
581.527	1	10
581.697	1	2
581.867	1	8
582.036	1	5
582.206	1	15
582.376	1	6
582.546	1	4
582.716	1	11
582.885	1	3
583.055	1	-9
583.225	1	7
583.395	1	3
583.565	1	13
583.735	1	5
583.904	1	1
584.074	1	-4
584.244	1	11
584.414	1	7
584.584	1	13
584.753	1	-1
584.923	1	1
585.093	1	12
585.263	1	-3
585.433	1	-1
585.602	1	18
585.772	1	10
585.942	1	3
586.112	1	4
586.282	1	9
586.451	1	17
586.621	1	6
586.791	1	2
586.961	1	-1
587.131	1	-1
587.300	1	20
587.470	1	6
587.640	1	0
587.810	1	-4
587.980	1	13
588.149	1	11
588.319	1	6
588.489	1	8
588.659	1	4
588.829	1	7
588.998	1	6
589.168	1	9
589.338	1	-3
589.508	1	-2
589.677	1	12
589.847	1	15
590.017	1	5
590.187	1	9
590.357	1	-1
590.526	1	4
590.696	1	9
590.866	1	1
591.036	1	15
591.205	1	12
591.375	1	6
591.545	1	2
591.715	1	5
591.885	1	9
592.054	1	11
592.224	1	0
592.394	1	-1
592.564	1	13
592.733	1	7
592.903	1	10
593.073	1	5
593.243	1	9
593.412	1	-1
593.582	1	8
593.752	1	0
593.922	1	7
594.091	1	11
594.261	1	-1
594.431	1	2
594.601	1	-3
594.771	1	11
594.940	1	11
595.110	1	11
595.280	1	11
595.450	1	15
595.619	1	7
595.789	1	2
595.959	1	2
596.129	1	4
596.298	1	17
596.468	1	5
596.638	1	8
596.808	1	-1
596.977	1	-5
597.147	1	8
597.317	1	13
597.487	1	13
597.656	1	18
597.826	1	17
597.996	1	0
598.166	1	5
598.335	1	3
598.505	1	8
598.675	1	12
598.844	1	28
599.014	1	-4
599.184	1	7
599.354	1	15
599.523	1	3
599.693	1	0
599.863	1	8
600.033	1	9
600.202	1	1
600.372	1	-3
600.542	1	11
600.712	1	12
600.881	1	11
601.051	1	8
601.221	1	5
601.390	1	19
601.560	1	12
601.730	1	14
601.900	1	14
602.069	1	-2
602.239	1	16
602.409	1	9
602.578	1	17
602.748	1	7
602.918	1	-4
603.088	1	11
603.257	1	0
603.427	1	12
603.597	1	16
603.767	1	2
603.936	1	13
604.106	1	6
604.276	1	11
604.445	1	6
604.615	1	6
604.785	1	16
604.954	1	4
605.124	1	7
605.294	1	3
605.464	1	5
605.633	1	7
605.803	1	6
605.973	1	2
606.142	1	8
606.312	1	15
606.482	1	0
606.652	1	6
606.821	1	9
606.991	1	8
607.161	1	12
607.330	1	7
607.500	1	10
607.670	1	8
607.839	1	6
608.009	1	4
608.179	1	14
608.348	1	13
608.518	1	11
608.688	1	9
608.858	1	5
609.027	1	13
609.197	1	10
609.367	1	5
609.536	1	1
609.706	1	14
609.876	1	18
610.045	1	10
610.215	1	15
610.385	1	13
610.554	1	17
610.724	1	9
610.894	1	8
611.063	1	6
611.233	1	17
611.403	1	17
611.572	1	6
611.742	1	7
611.912	1	5
612.081	1	18
612.251	1	11
612.421	1	11
612.590	1	13
612.760	1	10
612.930	1	6
613.099	1	14
613.269	1	7
613.439	1	-1
613.608	1	13
613.778	1	7
613.948	1	16
614.117	1	8
614.287	1	5
614.457	1	8
614.626	1	7
614.796	1	5
614.966	1	7
615.135	1	18
615.305	1	-3
615.475	1	18
615.644	1	23
615.814	1	19
615.984	1	-2
616.153	1	8
616.323	1	11
616.493	1	5
616.662	1	8
616.832	1	7
617.002	1	12
617.171	1	15
617.341	1	13
617.511	1	8
617.680	1	6
617.850	1	8
618.019	1	5
618.189	1	12
618.359	1	11
618.528	1	13
618.698	1	11
618.868	1	14
619.037	1	6
619.207	1	3
619.377	1	3
619.546	1	21
619.716	1	-1
619.885	1	7
620.055	1	7
620.225	1	13
620.394	1	9
620.564	1	15
620.734	1	14
620.903	1	-4
621.073	1	19
621.242	1	12
621.412	1	5
621.582	1	19
621.751	1	14
621.921	1	13
622.091	1	11
622.260	1	19
622.430	1	14
622.599	1	2
622.769	1	3
622.939	1	15
623.108	1	4
623.278	1	5
623.448	1	17
623.617	1	11
623.787	1	3
623.956	1	19
624.126	1	22
624.296	1	16
624.465	1	8
624.635	1	8
624.804	1	6
624.974	1	4
625.144	1	14
625.313	1	19
625.483	1	10
625.652	1	14
625.822	1	17
625.992	1	7
626.161	1	13
626.331	1	7
626.501	1	16
626.670	1	6
626.840	1	9
627.009	1	15
627.179	1	8
627.348	1	-3
627.518	1	28
627.688	1	-1
627.857	1	20
628.027	1	14
628.196	1	13
628.366	1	1
628.536	1	7
628.705	1	4
628.875	1	-1
629.044	1	8
629.214	1	10
629.384	1	23
629.553	1	9
629.723	1	5
629.892	1	11
630.062	1	11
630.232	1	17
630.401	1	12
630.571	1	8
630.740	1	9
630.910	1	24
631.079	1	19
631.249	1	20
631.419	1	13
631.588	1	17
631.758	1	4
631.927	1	23
632.097	1	6
632.266	1	19
632.436	1	6
632.606	1	12
632.775	1	14
632.945	1	12
633.114	1	6
633.284	1	10
633.453	1	13
633.623	1	23
633.793	1	19
633.962	1	16
634.132	1	11
634.301	1	8
634.471	1	16
634.640	1	11
634.810	1	21
634.979	1	11
635.149	1	13
635.319	1	7
635.488	1	13
635.658	1	13
635.827	1	17
635.997	1	19
636.166	1	10
636.336	1	5
636.505	1	22
636.675	1	17
636.845	1	11
637.014	1	11
637.184	1	17
637.353	1	9
637.523	1	6
637.692	1	13
637.862	1	13
638.031	1	12
638.201	1	17
638.370	1	10
638.540	1	5
638.710	1	9
638.879	1	6
639.049	1	8
639.218	1	22
639.388	1	11
639.557	1	13
639.727	1	25
639.896	1	6
640.066	1	20
640.235	1	7
640.405	1	13
640.574	1	13
640.744	1	21
640.914	1	8
641.083	1	20
641.253	1	15
641.422	1	10
641.592	1	19
641.761	1	-1
641.931	1	17
642.100	1	8
642.270	1	14
642.439	1	14
642.609	1	16
642.778	1	11
642.948	1	24
643.117	1	24
643.287	1	16
643.456	1	12
643.626	1	12
643.795	1	19
643.965	1	17
644.134	1	12
644.304	1	14
644.473	1	21
644.643	1	23
644.812	1	11
644.982	1	12
645.151	1	17
645.321	1	21
645.490	1	20
645.660	1	17
645.829	1	14
645.999	1	8
646.168	1	28
646.338	1	11
646.507	1	2
646.677	1	11
646.846	1	17
647.016	1	17
647.185	1	17
647.355	1	19
647.524	1	8
647.694	1	7
647.863	1	-3
648.033	1	15
648.202	1	15
648.372	1	-1
648.541	1	10
648.711	1	18
648.880	1	14
649.050	1	21
649.219	1	17
649.389	1	10
649.558	1	19
649.728	1	12
649.897	1	27
650.067	1	23
650.236	1	14
650.406	1	6
650.575	1	25
650.745	1	18
650.914	1	26
651.084	1	27
651.253	1	19
651.423	1	6
651.592	1	25
651.762	1	8
651.931	1	14
652.101	1	23
652.270	1	15
652.440	1	24
652.609	1	23
652.778	1	18
652.948	1	16
653.117	1	8
653.287	1	8
653.456	1	12
653.626	1	25
653.795	1	12
653.965	1	9
654.134	1	16
654.304	1	13
654.473	1	18
654.643	1	14
654.812	1	19
654.982	1	22
655.151	1	18
655.320	1	11
655.490	1	4
655.659	1	16
655.829	1	15
655.998	1	14
656.168	1	8
656.337	1	14
656.507	1	1
656.676	1	6
656.846	1	20
657.015	1	21
657.184	1	13
657.354	1	10
657.523	1	6
657.693	1	26
657.862	1	12
658.032	1	20
658.201	1	3
658.371	1	12
658.540	1	4
658.709	1	19
658.879	1	31
659.048	1	27
659.218	1	8
659.387	1	32
659.557	1	7
659.726	1	17
659.895	1	25
660.065	1	19
660.234	1	6
660.404	1	22
660.573	1	20
660.743	1	18
660.912	1	13
661.081	1	7
661.251	1	11
661.420	1	14
661.590	1	13
661.759	1	19
661.929	1	16
662.098	1	22
662.267	1	9
662.437	1	24
662.606	1	16
662.776	1	10
662.945	1	21
663.115	1	31
663.284	1	19
663.453	1	15
663.623	1	13
663.792	1	22
663.962	1	22
664.131	1	3
664.300	1	15
664.470	1	19
664.639	1	26
664.809	1	23
664.978	1	32
665.148	1	19
665.317	1	14
665.486	1	16
665.656	1	20
665.825	1	23
665.995	1	5
666.164	1	23
666.333	1	18
666.503	1	6
666.672	1	30
666.842	1	16
667.011	1	19
667.180	1	20
667.350	1	19
667.519	1	20
667.689	1	11
667.858	1	13
668.027	1	22
668.197	1	11
668.366	1	19
668.536	1	20
668.705	1	8
668.874	1	31
669.044	1	28
669.213	1	14
669.382	1	32
669.552	1	31
669.721	1	11
669.891	1	26
670.060	1	18
670.229	1	19
670.399	1	34
670.568	1	24
670.738	1	14
670.907	1	24
671.076	1	12
671.246	1	21
671.415	1	29
671.584	1	21
671.754	1	17
671.923	1	14
672.093	1	27
672.262	1	17
672.431	1	17
672.601	1	15
672.770	1	9
672.939	1	26
673.109	1	16
673.278	1	24
673.448	1	22
673.617	1	21
673.786	1	12
