325.333	1	16
325.504	1	3
325.675	1	23
325.846	1	6
326.017	1	24
326.188	1	15
326.359	1	12
326.531	1	20
326.702	1	11
326.873	1	15
327.044	1	30
327.215	1	12
327.386	1	4
327.557	1	15
327.728	1	5
327.899	1	7
328.070	1	19
328.241	1	15
328.412	1	15
328.583	1	9
328.754	1	25
328.926	1	18
329.097	1	8
329.268	1	19
329.439	1	20
329.610	1	6
329.781	1	20
329.952	1	20
330.123	1	15
330.294	1	7
330.465	1	17
330.636	1	18
330.807	1	28
330.978	1	14
331.149	1	13
331.320	1	18
331.492	1	12
331.663	1	21
331.834	1	22
332.005	1	17
332.176	1	24
332.347	1	13
332.518	1	26
332.689	1	22
332.860	1	15
333.031	1	30
333.202	1	22
333.373	1	17
333.544	1	30
333.715	1	22
333.886	1	18
334.057	1	17
334.228	1	25
334.399	1	28
334.570	1	22
334.741	1	13
334.912	1	19
335.084	1	38
335.255	1	28
335.426	1	36
335.597	1	24
335.768	1	36
335.939	1	23
336.110	1	27
336.281	1	27
336.452	1	37
336.623	1	28
336.794	1	24
336.965	1	30
337.136	1	35
337.307	1	27
337.478	1	30
337.649	1	26
337.820	1	30
337.991	1	20
338.162	1	25
338.333	1	24
338.504	1	25
338.675	1	23
338.846	1	22
339.017	1	24
339.188	1	30
339.359	1	32
339.530	1	30
339.701	1	38
339.872	1	40
340.043	1	29
340.214	1	32
340.385	1	24
340.556	1	41
340.727	1	38
340.898	1	37
341.069	1	17
341.240	1	28
341.411	1	36
341.582	1	17
341.753	1	36
341.924	1	35
342.095	1	35
342.266	1	41
342.437	1	34
342.608	1	28
342.779	1	35
342.950	1	33
343.121	1	33
343.292	1	42
343.463	1	36
343.634	1	34
343.805	1	33
343.976	1	44
344.147	1	35
344.318	1	31
344.489	1	28
344.660	1	42
344.831	1	42
345.002	1	37
345.173	1	36
345.344	1	37
345.515	1	41
345.686	1	40
345.857	1	44
346.028	1	35
346.199	1	34
346.370	1	34
346.541	1	34
346.712	1	40
346.883	1	22
347.054	1	48
347.225	1	36
347.396	1	36
347.567	1	29
347.738	1	39
347.909	1	43
348.080	1	39
348.251	1	37
348.422	1	48
348.593	1	40
348.764	1	43
348.935	1	40
349.106	1	26
349.277	1	35
349.448	1	48
349.619	1	41
349.790	1	48
349.961	1	32
350.132	1	51
350.303	1	41
350.474	1	44
350.645	1	37
350.816	1	42
350.987	1	55
351.157	1	46
351.328	1	47
351.499	1	42
351.670	1	50
351.841	1	46
352.012	1	45
352.183	1	59
352.354	1	45
352.525	1	50
352.696	1	40
352.867	1	51
353.038	1	56
353.209	1	52
353.380	1	46
353.551	1	47
353.722	1	52
353.893	1	48
354.064	1	43
354.235	1	43
354.406	1	40
354.576	1	42
354.747	1	61
354.918	1	49
355.089	1	46
355.260	1	54
355.431	1	37
355.602	1	55
355.773	1	54
355.944	1	41
356.115	1	45
356.286	1	63
356.457	1	49
356.628	1	49
356.799	1	56
356.970	1	52
357.141	1	57
357.311	1	60
357.482	1	47
357.653	1	42
357.824	1	47
357.995	1	59
358.166	1	41
358.337	1	47
358.508	1	51
358.679	1	47
358.850	1	63
359.021	1	59
359.192	1	58
359.363	1	58
359.533	1	51
359.704	1	40
359.875	1	55
360.046	1	55
360.217	1	66
360.388	1	74
360.559	1	66
360.730	1	45
360.901	1	59
361.072	1	57
361.243	1	50
361.414	1	69
361.584	1	47
361.755	1	55
361.926	1	59
362.097	1	53
362.268	1	68
362.439	1	42
362.610	1	58
362.781	1	54
362.952	1	59
363.123	1	47
363.293	1	57
363.464	1	59
363.635	1	61
363.806	1	53
363.977	1	55
364.148	1	59
364.319	1	57
364.490	1	59
364.661	1	60
364.832	1	55
365.002	1	60
365.173	1	59
365.344	1	49
365.515	1	48
365.686	1	56
365.857	1	53
366.028	1	66
366.199	1	60
366.370	1	59
366.540	1	61
366.711	1	70
366.882	1	58
367.053	1	62
367.224	1	63
367.395	1	62
367.566	1	68
367.737	1	52
367.908	1	60
368.078	1	54
368.249	1	74
368.420	1	66
368.591	1	57
368.762	1	61
368.933	1	70
369.104	1	61
369.274	1	74
369.445	1	61
369.616	1	64
369.787	1	57
369.958	1	67
370.129	1	55
370.300	1	54
370.471	1	51
370.641	1	67
370.812	1	59
370.983	1	59
371.154	1	61
371.325	1	54
371.496	1	62
371.667	1	61
371.837	1	67
372.008	1	47
372.179	1	52
372.350	1	63
372.521	1	57
372.692	1	62
372.863	1	61
373.033	1	63
373.204	1	62
373.375	1	67
373.546	1	63
373.717	1	56
373.888	1	66
374.059	1	54
374.229	1	64
374.400	1	67
374.571	1	58
374.742	1	61
374.913	1	50
375.084	1	57
375.254	1	50
375.425	1	58
375.596	1	62
375.767	1	63
375.938	1	50
376.109	1	60
376.279	1	62
376.450	1	74
376.621	1	76
376.792	1	60
376.963	1	67
377.134	1	64
377.304	1	68
377.475	1	57
377.646	1	64
377.817	1	61
377.988	1	73
378.159	1	70
378.329	1	75
378.500	1	72
378.671	1	63
378.842	1	73
379.013	1	73
379.184	1	68
379.354	1	75
379.525	1	70
379.696	1	73
379.867	1	80
380.038	1	68
380.209	1	70
380.379	1	71
380.550	1	56
380.721	1	65
380.892	1	65
381.063	1	67
381.233	1	76
381.404	1	72
381.575	1	63
381.746	1	77
381.917	1	62
382.087	1	69
382.258	1	79
382.429	1	72
382.600	1	66
382.771	1	67
382.941	1	77
383.112	1	69
383.283	1	71
383.454	1	56
383.625	1	64
383.795	1	77
383.966	1	73
384.137	1	72
384.308	1	72
384.479	1	73
384.649	1	81
384.820	1	68
384.991	1	85
385.162	1	92
385.333	1	75
385.503	1	74
385.674	1	71
385.845	1	73
386.016	1	79
386.187	1	63
386.357	1	90
386.528	1	72
386.699	1	74
386.870	1	81
387.041	1	86
387.211	1	71
387.382	1	90
387.553	1	90
387.724	1	75
387.894	1	68
388.065	1	71
388.236	1	67
388.407	1	79
388.578	1	76
388.748	1	84
388.919	1	89
389.090	1	95
389.261	1	80
389.431	1	78
389.602	1	74
389.773	1	76
389.944	1	79
390.114	1	75
390.285	1	90
390.456	1	79
390.627	1	92
390.798	1	80
390.968	1	79
391.139	1	89
391.310	1	79
391.481	1	82
391.651	1	79
391.822	1	84
391.993	1	71
392.164	1	82
392.334	1	75
392.505	1	76
392.676	1	67
392.847	1	69
393.017	1	84
393.188	1	82
393.359	1	90
393.530	1	98
393.700	1	74
393.871	1	89
394.042	1	82
394.213	1	77
394.383	1	89
394.554	1	84
394.725	1	80
394.896	1	103
395.066	1	91
395.237	1	79
395.408	1	74
395.579	1	85
395.749	1	89
395.920	1	94
396.091	1	78
396.262	1	86
396.432	1	89
396.603	1	95
396.774	1	91
396.945	1	86
397.115	1	103
397.286	1	86
397.457	1	83
397.627	1	88
397.798	1	99
397.969	1	79
398.140	1	77
398.310	1	93
398.481	1	82
398.652	1	95
398.823	1	89
398.993	1	79
399.164	1	90
399.335	1	103
399.505	1	83
399.676	1	100
399.847	1	77
400.018	1	91
400.188	1	99
400.359	1	90
400.530	1	84
400.700	1	97
400.871	1	85
401.042	1	93
401.213	1	93
401.383	1	92
401.554	1	83
401.725	1	82
401.895	1	79
402.066	1	87
402.237	1	85
402.408	1	92
402.578	1	93
402.749	1	83
402.920	1	94
403.090	1	95
403.261	1	84
403.432	1	86
403.603	1	94
403.773	1	97
403.944	1	93
404.115	1	94
404.285	1	94
404.456	1	101
404.627	1	82
404.797	1	93
404.968	1	81
405.139	1	88
405.310	1	87
405.480	1	82
405.651	1	80
405.822	1	97
405.992	1	86
406.163	1	83
406.334	1	96
406.504	1	98
406.675	1	84
406.846	1	94
407.016	1	95
407.187	1	98
407.358	1	86
407.528	1	98
407.699	1	103
407.870	1	107
408.041	1	89
408.211	1	103
408.382	1	95
408.553	1	102
408.723	1	103
408.894	1	96
409.065	1	86
409.235	1	107
409.406	1	93
409.577	1	96
409.747	1	99
409.918	1	114
410.089	1	106
410.259	1	98
410.430	1	87
410.601	1	95
410.771	1	96
410.942	1	93
411.113	1	98
411.283	1	102
411.454	1	103
411.625	1	103
411.795	1	101
411.966	1	101
412.137	1	96
412.307	1	94
412.478	1	84
412.649	1	82
412.819	1	92
412.990	1	89
413.161	1	96
413.331	1	96
413.502	1	83
413.672	1	91
413.843	1	84
414.014	1	81
414.184	1	100
414.355	1	84
414.526	1	90
414.696	1	92
414.867	1	86
415.038	1	97
415.208	1	86
415.379	1	84
415.550	1	107
415.720	1	81
415.891	1	91
416.062	1	93
416.232	1	100
416.403	1	105
416.573	1	86
416.744	1	100
416.915	1	86
417.085	1	104
417.256	1	89
417.427	1	106
417.597	1	91
417.768	1	98
417.939	1	77
418.109	1	92
418.280	1	87
418.450	1	103
418.621	1	89
418.792	1	101
418.962	1	95
419.133	1	97
419.304	1	91
419.474	1	89
419.645	1	100
419.815	1	89
419.986	1	116
420.157	1	101
420.327	1	88
420.498	1	82
420.669	1	103
420.839	1	90
421.010	1	84
421.180	1	89
421.351	1	95
421.522	1	93
421.692	1	104
421.863	1	99
422.033	1	86
422.204	1	98
422.375	1	83
422.545	1	90
422.716	1	89
422.886	1	95
423.057	1	94
423.228	1	90
423.398	1	86
423.569	1	95
423.740	1	100
423.910	1	93
424.081	1	89
424.251	1	85
424.422	1	102
424.593	1	82
424.763	1	87
424.934	1	83
425.104	1	102
425.275	1	86
425.445	1	96
425.616	1	97
425.787	1	85
425.957	1	85
426.128	1	92
426.298	1	86
426.469	1	80
426.640	1	84
426.810	1	74
426.981	1	86
427.151	1	79
427.322	1	70
427.493	1	87
427.663	1	89
427.834	1	76
428.004	1	91
428.175	1	90
428.345	1	83
428.516	1	80
428.687	1	97
428.857	1	96
429.028	1	78
429.198	1	85
429.369	1	85
429.540	1	78
429.710	1	84
429.881	1	84
430.051	1	81
430.222	1	82
430.392	1	87
430.563	1	77
430.734	1	81
430.904	1	81
431.075	1	90
431.245	1	81
431.416	1	80
431.586	1	85
431.757	1	83
431.927	1	79
432.098	1	94
432.269	1	76
432.439	1	71
432.610	1	95
432.780	1	84
432.951	1	77
433.121	1	86
433.292	1	87
433.462	1	77
433.633	1	86
433.804	1	89
433.974	1	91
434.145	1	90
434.315	1	75
434.486	1	79
434.656	1	90
434.827	1	85
434.997	1	94
435.168	1	82
435.339	1	100
435.509	1	83
435.680	1	79
435.850	1	77
436.021	1	78
436.191	1	75
436.362	1	83
436.532	1	77
436.703	1	72
436.873	1	76
437.044	1	85
437.214	1	68
437.385	1	79
437.556	1	81
437.726	1	81
437.897	1	77
438.067	1	76
438.238	1	76
438.408	1	74
438.579	1	75
438.749	1	79
438.920	1	91
439.090	1	66
439.261	1	77
439.431	1	57
439.602	1	76
439.772	1	77
439.943	1	72
440.113	1	66
440.284	1	89
440.455	1	73
440.625	1	86
440.796	1	73
440.966	1	83
441.137	1	87
441.307	1	85
441.478	1	64
441.648	1	72
441.819	1	68
441.989	1	76
442.160	1	87
442.330	1	73
442.501	1	79
442.671	1	72
442.842	1	79
443.012	1	72
443.183	1	82
443.353	1	70
443.524	1	74
443.694	1	65
443.865	1	73
444.035	1	75
444.206	1	66
444.376	1	68
444.547	1	79
444.717	1	69
444.888	1	55
445.058	1	72
445.229	1	83
445.399	1	72
445.570	1	78
445.740	1	76
445.911	1	79
446.081	1	74
446.252	1	74
446.422	1	81
446.593	1	72
446.763	1	72
446.934	1	70
447.104	1	78
447.275	1	64
447.445	1	72
447.616	1	67
447.786	1	69
447.957	1	70
448.127	1	64
448.298	1	69
448.468	1	73
448.639	1	70
448.809	1	66
448.979	1	81
449.150	1	63
449.320	1	72
449.491	1	63
449.661	1	60
449.832	1	70
450.002	1	63
450.173	1	67
450.343	1	68
450.514	1	71
450.684	1	64
450.855	1	68
451.025	1	66
451.196	1	48
451.366	1	89
451.537	1	73
451.707	1	75
451.878	1	62
452.048	1	60
452.218	1	66
452.389	1	69
452.559	1	75
452.730	1	72
452.900	1	65
453.071	1	79
453.241	1	59
453.412	1	63
453.582	1	64
453.753	1	72
453.923	1	66
454.093	1	59
454.264	1	69
454.434	1	67
454.605	1	72
454.775	1	64
454.946	1	64
455.116	1	69
455.287	1	50
455.457	1	48
455.628	1	47
455.798	1	59
455.968	1	65
456.139	1	67
456.309	1	61
456.480	1	67
456.650	1	57
456.821	1	52
456.991	1	66
457.161	1	62
457.332	1	56
457.502	1	57
457.673	1	58
457.843	1	55
458.014	1	71
458.184	1	70
458.355	1	65
458.525	1	59
458.695	1	56
458.866	1	57
459.036	1	56
459.207	1	63
459.377	1	64
459.548	1	65
459.718	1	55
459.888	1	52
460.059	1	60
460.229	1	53
460.400	1	70
460.570	1	57
460.740	1	60
460.911	1	46
461.081	1	56
461.252	1	60
461.422	1	48
461.593	1	63
461.763	1	70
461.933	1	62
462.104	1	55
462.274	1	55
462.445	1	59
462.615	1	58
462.785	1	59
462.956	1	54
463.126	1	46
463.297	1	62
463.467	1	71
463.638	1	63
463.808	1	57
463.978	1	48
464.149	1	61
464.319	1	61
464.490	1	54
464.660	1	57
464.830	1	48
465.001	1	51
465.171	1	56
465.342	1	59
465.512	1	57
465.682	1	47
465.853	1	53
466.023	1	70
466.194	1	60
466.364	1	64
466.534	1	42
466.705	1	64
466.875	1	41
467.045	1	49
467.216	1	57
467.386	1	47
467.557	1	54
467.727	1	54
467.897	1	58
468.068	1	43
468.238	1	53
468.409	1	58
468.579	1	60
468.749	1	51
468.920	1	43
469.090	1	41
469.260	1	47
469.431	1	36
469.601	1	51
469.772	1	57
469.942	1	57
470.112	1	39
470.283	1	49
470.453	1	54
470.623	1	41
470.794	1	47
470.964	1	35
471.135	1	54
471.305	1	43
471.475	1	53
471.646	1	57
471.816	1	56
471.986	1	53
472.157	1	48
472.327	1	55
472.497	1	42
472.668	1	48
472.838	1	39
473.009	1	47
473.179	1	37
473.349	1	51
473.520	1	60
473.690	1	57
473.860	1	35
474.031	1	27
474.201	1	45
474.371	1	48
474.542	1	45
474.712	1	45
474.882	1	39
475.053	1	49
475.223	1	46
475.394	1	42
475.564	1	57
475.734	1	33
475.905	1	61
476.075	1	63
476.245	1	45
476.416	1	49
476.586	1	35
476.756	1	46
476.927	1	45
477.097	1	39
477.267	1	50
477.438	1	49
477.608	1	66
477.778	1	42
477.949	1	52
478.119	1	49
478.289	1	39
478.460	1	39
478.630	1	43
478.800	1	35
478.971	1	42
479.141	1	49
479.311	1	39
479.482	1	34
479.652	1	44
479.822	1	43
479.993	1	51
480.163	1	50
480.333	1	53
480.504	1	42
480.674	1	42
480.844	1	45
481.015	1	55
481.185	1	54
481.355	1	41
481.525	1	45
481.696	1	40
481.866	1	42
482.036	1	46
482.207	1	39
482.377	1	43
482.547	1	43
482.718	1	41
482.888	1	42
483.058	1	40
483.229	1	45
483.399	1	43
483.569	1	28
483.740	1	38
483.910	1	34
484.080	1	36
484.250	1	33
484.421	1	37
484.591	1	38
484.761	1	50
484.932	1	33
485.102	1	47
485.272	1	44
485.443	1	39
485.613	1	39
485.783	1	28
485.953	1	34
486.124	1	42
486.294	1	44
486.464	1	37
486.635	1	39
486.805	1	39
486.975	1	23
487.146	1	37
487.316	1	50
487.486	1	41
487.656	1	40
487.827	1	30
487.997	1	37
488.167	1	40
488.338	1	46
488.508	1	45
488.678	1	42
488.848	1	38
489.019	1	32
489.189	1	42
489.359	1	29
489.529	1	28
489.700	1	34
489.870	1	43
490.040	1	36
490.211	1	30
490.381	1	32
490.551	1	39
490.721	1	31
490.892	1	18
491.062	1	33
491.232	1	33
491.402	1	31
491.573	1	45
491.743	1	37
491.913	1	36
492.084	1	35
492.254	1	20
492.424	1	33
492.594	1	26
492.765	1	34
492.935	1	41
493.105	1	35
493.275	1	41
493.446	1	33
493.616	1	35
493.786	1	28
493.956	1	38
494.127	1	31
494.297	1	29
494.467	1	26
494.637	1	35
494.808	1	30
494.978	1	31
495.148	1	20
495.318	1	26
495.489	1	39
495.659	1	33
495.829	1	31
495.999	1	35
496.170	1	39
496.340	1	25
496.510	1	44
496.680	1	29
496.851	1	50
497.021	1	29
497.191	1	36
497.361	1	22
497.532	1	28
497.702	1	30
497.872	1	35
498.042	1	37
498.213	1	26
498.383	1	27
498.553	1	36
498.723	1	23
498.894	1	33
499.064	1	21
499.234	1	38
499.404	1	31
499.574	1	20
499.745	1	32
499.915	1	30
500.085	1	22
500.255	1	15
500.426	1	29
500.596	1	19
500.766	1	18
500.936	1	15
501.106	1	30
501.277	1	13
501.447	1	33
501.617	1	24
501.787	1	16
501.958	1	37
502.128	1	31
502.298	1	28
502.468	1	34
502.638	1	34
502.809	1	27
502.979	1	31
503.149	1	24
503.319	1	34
503.489	1	3
503.660	1	24
503.830	1	25
504.000	1	23
504.170	1	26
504.340	1	5
504.511	1	21
504.681	1	28
504.851	1	13
505.021	1	22
505.192	1	21
505.362	1	20
505.532	1	22
505.702	1	40
505.872	1	21
506.043	1	36
506.213	1	33
506.383	1	30
506.553	1	34
506.723	1	21
506.893	1	33
507.064	1	30
507.234	1	19
507.404	1	15
507.574	1	17
507.744	1	19
507.915	1	18
508.085	1	21
508.255	1	19
508.425	1	19
508.595	1	11
508.766	1	16
508.936	1	21
509.106	1	17
509.276	1	27
509.446	1	10
509.616	1	23
509.787	1	25
509.957	1	26
510.127	1	12
510.297	1	8
510.467	1	2
510.638	1	23
510.808	1	34
510.978	1	12
511.148	1	13
511.318	1	21
511.488	1	25
511.659	1	19
511.829	1	11
511.999	1	22
512.169	1	19
512.339	1	26
512.509	1	10
512.680	1	22
512.850	1	29
513.020	1	31
513.190	1	19
513.360	1	23
513.530	1	23
513.700	1	21
513.871	1	9
514.041	1	19
514.211	1	26
514.381	1	20
514.551	1	13
514.721	1	30
514.892	1	17
515.062	1	14
515.232	1	19
515.402	1	16
515.572	1	30
515.742	1	14
515.912	1	17
516.083	1	30
516.253	1	17
516.423	1	14
516.593	1	20
516.763	1	27
516.933	1	22
517.104	1	19
517.274	1	18
517.444	1	13
517.614	1	-2
517.784	1	21
517.954	1	21
518.124	1	26
518.294	1	19
518.465	1	17
518.635	1	35
518.805	1	16
518.975	1	11
519.145	1	24
519.315	1	25
519.485	1	15
519.656	1	12
519.826	1	15
519.996	1	21
520.166	1	19
520.336	1	18
520.506	1	18
520.676	1	10
520.846	1	23
521.017	1	8
521.187	1	10
521.357	1	17
521.527	1	15
521.697	1	14
521.867	1	23
522.037	1	4
522.207	1	21
522.377	1	26
522.548	1	8
522.718	1	18
522.888	1	14
523.058	1	19
523.228	1	5
523.398	1	8
523.568	1	13
523.738	1	20
523.909	1	18
524.079	1	20
524.249	1	8
524.419	1	4
524.589	1	15
524.759	1	22
524.929	1	16
525.099	1	14
525.269	1	19
525.439	1	20
525.610	1	24
525.780	1	12
525.950	1	14
526.120	1	11
526.290	1	6
526.460	1	6
526.630	1	11
526.800	1	17
526.970	1	14
527.140	1	15
527.311	1	19
527.481	1	16
527.651	1	16
527.821	1	9
527.991	1	21
528.161	1	13
528.331	1	14
528.501	1	20
528.671	1	16
528.841	1	13
529.011	1	6
529.181	1	15
529.352	1	12
529.522	1	10
529.692	1	15
529.862	1	12
530.032	1	9
530.202	1	3
530.372	1	5
530.542	1	6
530.712	1	9
530.882	1	13
531.052	1	17
531.222	1	13
531.392	1	7
531.563	1	16
531.733	1	7
531.903	1	12
532.073	1	12
532.243	1	18
532.413	1	30
532.583	1	15
532.753	1	8
532.923	1	15
533.093	1	10
533.263	1	9
533.433	1	9
533.603	1	4
533.773	1	16
533.943	1	16
534.113	1	21
534.284	1	21
534.454	1	27
534.624	1	12
534.794	1	8
534.964	1	12
535.134	1	8
535.304	1	18
535.474	1	12
535.644	1	17
535.814	1	18
535.984	1	19
536.154	1	4
536.324	1	12
536.494	1	18
536.664	1	7
536.834	1	10
537.004	1	20
537.174	1	26
537.344	1	18
537.514	1	5
537.685	1	20
537.855	1	20
538.025	1	13
538.195	1	6
538.365	1	16
538.535	1	4
538.705	1	7
538.875	1	10
539.045	1	8
539.215	1	3
539.385	1	16
539.555	1	8
539.725	1	17
539.895	1	2
540.065	1	5
540.235	1	13
540.405	1	9
540.575	1	12
540.745	1	10
540.915	1	6
541.085	1	1
541.255	1	15
541.425	1	5
541.595	1	10
541.765	1	12
541.935	1	13
542.105	1	18
542.275	1	8
542.445	1	5
542.615	1	7
542.785	1	9
542.955	1	22
543.125	1	8
543.295	1	11
543.465	1	18
543.635	1	6
543.805	1	10
543.975	1	11
544.145	1	4
544.315	1	-4
544.485	1	8
544.655	1	15
544.825	1	9
544.995	1	8
545.165	1	15
545.335	1	11
545.505	1	7
545.675	1	11
545.845	1	12
546.015	1	5
546.185	1	5
546.355	1	2
546.525	1	15
546.695	1	10
546.865	1	10
547.035	1	22
547.205	1	15
547.375	1	14
547.545	1	4
547.715	1	11
547.885	1	9
548.055	1	6
548.225	1	23
548.395	1	10
548.565	1	12
548.735	1	1
548.905	1	15
549.075	1	17
549.245	1	10
549.415	1	8
549.585	1	11
549.755	1	18
549.925	1	14
550.095	1	8
550.265	1	17
550.435	1	17
550.605	1	9
550.775	1	3
550.945	1	4
551.115	1	13
551.285	1	1
551.455	1	9
551.625	1	2
551.795	1	11
551.965	1	-6
552.135	1	13
552.305	1	20
552.475	1	9
552.645	1	3
552.815	1	15
552.985	1	7
553.155	1	1
553.325	1	9
553.495	1	12
553.665	1	11
553.835	1	7
554.004	1	13
554.174	1	8
554.344	1	2
554.514	1	5
554.684	1	18
554.854	1	-1
555.024	1	23
555.194	1	11
555.364	1	-1
555.534	1	-2
555.704	1	16
555.874	1	10
556.044	1	13
556.214	1	-2
556.384	1	11
556.554	1	13
556.724	1	5
556.894	1	12
557.064	1	6
557.234	1	12
557.404	1	12
557.573	1	15
557.743	1	3
557.913	1	7
558.083	1	6
558.253	1	4
558.423	1	0
558.593	1	15
558.763	1	8
558.933	1	6
559.103	1	7
559.273	1	17
559.443	1	9
559.613	1	5
559.783	1	2
559.953	1	0
560.122	1	7
560.292	1	0
560.462	1	3
560.632	1	1
560.802	1	11
560.972	1	-6
561.142	1	7
561.312	1	12
561.482	1	18
561.652	1	8
561.822	1	9
561.992	1	14
562.162	1	-1
562.331	1	0
562.501	1	13
562.671	1	-1
562.841	1	5
563.011	1	15
563.181	1	-7
563.351	1	-4
563.521	1	5
563.691	1	9
563.861	1	6
564.031	1	8
564.201	1	7
564.370	1	7
564.540	1	4
564.710	1	6
564.880	1	5
565.050	1	5
565.220	1	16
565.390	1	-2
565.560	1	10
565.730	1	17
565.900	1	11
566.069	1	17
566.239	1	21
566.409	1	17
566.579	1	7
566.749	1	5
566.919	1	-5
567.089	1	-1
567.259	1	1
567.429	1	9
567.599	1	18
567.768	1	4
567.938	1	9
568.108	1	6
568.278	1	0
568.448	1	-1
568.618	1	8
568.788	1	10
568.958	1	1
569.128	1	2
569.297	1	-1
569.467	1	12
569.637	1	8
569.807	1	21
569.977	1	9
570.147	1	12
570.317	1	6
570.487	1	2
570.656	1	6
570.826	1	1
570.996	1	15
571.166	1	9
571.336	1	7
571.506	1	-5
571.676	1	12
571.846	1	14
572.015	1	1
572.185	1	8
572.355	1	3
572.525	1	3
572.695	1	13
572.865	1	17
573.035	1	15
573.205	1	3
573.374	1	4
573.544	1	8
573.714	1	-1
573.884	1	-4
574.054	1	9
574.224	1	6
574.394	1	6
574.563	1	5
574.733	1	-2
574.903	1	2
575.073	1	5
575.243	1	4
575.413	1	-1
575.583	1	4
575.752	1	0
575.922	1	14
576.092	1	1
576.262	1	10
576.432	1	11
576.602	1	11
576.772	1	1
576.941	1	0
577.111	1	12
577.281	1	1
577.451	1	8
577.621	1	5
577.791	1	8
577.960	1	10
578.130	1	2
578.300	1	-2
578.470	1	10
578.640	1	2
578.810	1	5
578.979	1	4
579.149	1	8
579.319	1	13
579.489	1	16
579.659	1	15
579.829	1	3
579.998	1	4
580.168	1	-3
580.338	1	7
580.508	1	4
580.678	1	7
580.848	1	1
581.017	1	6
581.187	1	11
581.357	1	12
581.527	1	2
581.697	1	6
581.867	1	8
582.036	1	14
582.206	1	8
582.376	1	4
582.546	1	6
582.716	1	3
582.885	1	5
583.055	1	2
583.225	1	0
583.395	1	-4
583.565	1	16
583.735	1	5
583.904	1	4
584.074	1	5
584.244	1	4
584.414	1	5
584.584	1	-1
584.753	1	11
584.923	1	4
585.093	1	15
585.263	1	13
585.433	1	0
585.602	1	0
585.772	1	18
585.942	1	5
586.112	1	7
586.282	1	2
586.451	1	12
586.621	1	-1
586.791	1	1
586.961	1	3
587.131	1	2
587.300	1	13
587.470	1	2
587.640	1	9
587.810	1	2
587.980	1	0
588.149	1	6
588.319	1	14
588.489	1	8
588.659	1	-2
588.829	1	5
588.998	1	7
589.168	1	8
589.338	1	0
589.508	1	18
589.677	1	7
589.847	1	5
590.017	1	3
590.187	1	0
590.357	1	3
590.526	1	-3
590.696	1	8
590.866	1	-2
591.036	1	22
591.205	1	8
591.375	1	4
591.545	1	-1
591.715	1	0
591.885	1	14
592.054	1	8
592.224	1	10
592.394	1	4
592.564	1	3
592.733	1	4
592.903	1	11
593.073	1	4
593.243	1	7
593.412	1	-12
593.582	1	17
593.752	1	3
593.922	1	4
594.091	1	6
594.261	1	-2
594.431	1	11
594.601	1	6
594.771	1	3
594.940	1	2
595.110	1	10
595.280	1	0
595.450	1	5
595.619	1	3
595.789	1	-2
595.959	1	0
596.129	1	2
596.298	1	9
596.468	1	4
596.638	1	4
596.808	1	-6
596.977	1	-3
597.147	1	-5
597.317	1	3
597.487	1	3
597.656	1	14
597.826	1	13
597.996	1	9
598.166	1	6
598.335	1	-5
598.505	1	12
598.675	1	2
598.844	1	15
599.014	1	-5
599.184	1	8
599.354	1	11
599.523	1	9
599.693	1	6
599.863	1	10
600.033	1	1
600.202	1	6
600.372	1	-5
600.542	1	7
600.712	1	6
600.881	1	10
601.051	1	12
601.221	1	1
601.390	1	7
601.560	1	15
601.730	1	2
601.900	1	7
602.069	1	7
602.239	1	12
602.409	1	7
602.578	1	7
602.748	1	22
602.918	1	-2
603.088	1	9
603.257	1	-1
603.427	1	14
603.597	1	-3
603.767	1	8
603.936	1	6
604.106	1	2
604.276	1	4
604.445	1	8
604.615	1	12
604.785	1	6
604.954	1	10
605.124	1	2
605.294	1	-2
605.464	1	0
605.633	1	9
605.803	1	8
605.973	1	11
606.142	1	14
606.312	1	14
606.482	1	-2
606.652	1	6
606.821	1	15
606.991	1	9
607.161	1	12
607.330	1	5
607.500	1	6
607.670	1	4
607.839	1	5
608.009	1	-2
608.179	1	7
608.348	1	16
608.518	1	19
608.688	1	4
608.858	1	4
609.027	1	17
609.197	1	2
609.367	1	6
609.536	1	4
609.706	1	11
609.876	1	13
610.045	1	8
610.215	1	8
610.385	1	11
610.554	1	11
610.724	1	4
610.894	1	13
611.063	1	3
611.233	1	3
611.403	1	9
611.572	1	14
611.742	1	-6
611.912	1	10
612.081	1	15
612.251	1	14
612.421	1	2
612.590	1	7
612.760	1	6
612.930	1	15
613.099	1	11
613.269	1	7
613.439	1	4
613.608	1	10
613.778	1	10
613.948	1	15
614.117	1	14
614.287	1	3
614.457	1	3
614.626	1	3
614.796	1	9
614.966	1	3
615.135	1	18
615.305	1	9
615.475	1	10
615.644	1	18
615.814	1	12
615.984	1	9
616.153	1	8
616.323	1	4
616.493	1	-3
616.662	1	6
616.832	1	12
617.002	1	4
617.171	1	19
617.341	1	13
617.511	1	3
617.680	1	1
617.850	1	4
618.019	1	4
618.189	1	25
618.359	1	6
618.528	1	18
618.698	1	12
618.868	1	12
619.037	1	16
619.207	1	7
619.377	1	15
619.546	1	11
619.716	1	9
619.885	1	4
620.055	1	2
620.225	1	14
620.394	1	23
620.564	1	15
620.734	1	11
620.903	1	-2
621.073	1	20
621.242	1	14
621.412	1	9
621.582	1	16
621.751	1	3
621.921	1	16
622.091	1	5
622.260	1	14
622.430	1	12
622.599	1	10
622.769	1	5
622.939	1	5
623.108	1	14
623.278	1	9
623.448	1	3
623.617	1	7
623.787	1	10
623.956	1	15
624.126	1	16
624.296	1	9
624.465	1	15
624.635	1	9
624.804	1	3
624.974	1	-4
625.144	1	13
625.313	1	22
625.483	1	19
625.652	1	3
625.822	1	12
625.992	1	6
626.161	1	11
626.331	1	8
626.501	1	7
626.670	1	3
626.840	1	12
627.009	1	8
627.179	1	11
627.348	1	5
627.518	1	21
627.688	1	10
627.857	1	29
628.027	1	8
628.196	1	13
628.366	1	-3
628.536	1	4
628.705	1	6
628.875	1	1
629.044	1	-2
629.214	1	17
629.384	1	16
629.553	1	3
629.723	1	12
629.892	1	15
630.062	1	11
630.232	1	12
630.401	1	15
630.571	1	16
630.740	1	2
630.910	1	20
631.079	1	6
631.249	1	-1
631.419	1	21
631.588	1	4
631.758	1	1
631.927	1	21
632.097	1	9
632.266	1	11
632.436	1	5
632.606	1	10
632.775	1	11
632.945	1	8
633.114	1	6
633.284	1	10
633.453	1	19
633.623	1	17
633.793	1	6
633.962	1	12
634.132	1	15
634.301	1	9
634.471	1	12
634.640	1	10
634.810	1	20
634.979	1	17
635.149	1	6
635.319	1	12
635.488	1	13
635.658	1	6
635.827	1	16
635.997	1	14
636.166	1	11
636.336	1	11
636.505	1	14
636.675	1	11
636.845	1	5
637.014	1	8
637.184	1	19
637.353	1	11
637.523	1	10
637.692	1	15
637.862	1	7
638.031	1	0
638.201	1	17
638.370	1	14
638.540	1	7
638.710	1	7
638.879	1	8
639.049	1	18
639.218	1	13
639.388	1	16
639.557	1	15
639.727	1	11
639.896	1	1
640.066	1	15
640.235	1	-1
640.405	1	11
640.574	1	14
640.744	1	15
640.914	1	7
641.083	1	18
641.253	1	8
641.422	1	14
641.592	1	13
641.761	1	8
641.931	1	21
642.100	1	17
642.270	1	13
642.439	1	19
642.609	1	17
642.778	1	10
642.948	1	16
643.117	1	18
643.287	1	16
643.456	1	10
643.626	1	9
643.795	1	18
643.965	1	7
644.134	1	9
644.304	1	11
644.473	1	7
644.643	1	19
644.812	1	8
644.982	1	15
645.151	1	7
645.321	1	11
645.490	1	18
645.660	1	5
645.829	1	2
645.999	1	14
646.168	1	33
646.338	1	4
646.507	1	1
646.677	1	8
646.846	1	17
647.016	1	21
647.185	1	8
647.355	1	22
647.524	1	5
647.694	1	4
647.863	1	7
648.033	1	20
648.202	1	14
648.372	1	7
648.541	1	12
648.711	1	18
648.880	1	16
649.050	1	9
649.219	1	11
649.389	1	1
649.558	1	29
649.728	1	15
649.897	1	14
650.067	1	13
650.236	1	4
650.406	1	10
650.575	1	21
650.745	1	13
650.914	1	22
651.084	1	16
651.253	1	17
651.423	1	1
651.592	1	9
651.762	1	17
651.931	1	15
652.101	1	17
652.270	1	12
652.440	1	17
652.609	1	8
652.778	1	20
652.948	1	21
653.117	1	18
653.287	1	9
653.456	1	10
653.626	1	11
653.795	1	2
653.965	1	6
654.134	1	18
654.304	1	15
654.473	1	5
654.643	1	19
654.812	1	21
654.982	1	17
655.151	1	21
655.320	1	6
655.490	1	6
655.659	1	15
655.829	1	16
655.998	1	18
656.168	1	20
656.337	1	12
656.507	1	8
656.676	1	10
656.846	1	12
657.015	1	11
657.184	1	4
657.354	1	14
657.523	1	5
657.693	1	17
657.862	1	-5
658.032	1	11
658.201	1	8
658.371	1	9
658.540	1	8
658.709	1	16
658.879	1	25
659.048	1	13
659.218	1	5
659.387	1	16
659.557	1	17
659.726	1	9
659.895	1	16
660.065	1	10
660.234	1	13
660.404	1	21
660.573	1	15
660.743	1	11
660.912	1	7
661.081	1	2
661.251	1	15
661.420	1	20
661.590	1	5
661.759	1	17
661.929	1	13
662.098	1	20
662.267	1	6
662.437	1	14
662.606	1	8
662.776	1	10
662.945	1	21
663.115	1	29
663.284	1	16
663.453	1	16
663.623	1	11
663.792	1	14
663.962	1	16
664.131	1	19
664.300	1	17
664.470	1	19
664.639	1	10
664.809	1	16
664.978	1	28
665.148	1	17
665.317	1	21
665.486	1	13
665.656	1	11
665.825	1	18
665.995	1	3
666.164	1	10
666.333	1	15
666.503	1	5
666.672	1	18
666.842	1	20
667.011	1	13
667.180	1	13
667.350	1	20
667.519	1	12
667.689	1	15
667.858	1	19
668.027	1	9
668.197	1	9
668.366	1	22
668.536	1	7
668.705	1	19
668.874	1	29
669.044	1	22
669.213	1	24
669.382	1	20
669.552	1	12
669.721	1	4
669.891	1	11
670.060	1	16
670.229	1	20
670.399	1	18
670.568	1	19
670.738	1	14
670.907	1	17
671.076	1	6
671.246	1	23
671.415	1	15
671.584	1	22
671.754	1	5
671.923	1	11
672.093	1	24
672.262	1	12
672.431	1	13
672.601	1	12
672.770	1	18
672.939	1	16
673.109	1	13
673.278	1	12
673.448	1	14
673.617	1	20
673.786	1	5
