325.333	1	15
325.504	1	-5
325.675	1	10
325.846	1	-9
326.017	1	7
326.188	1	8
326.359	1	9
326.531	1	2
326.702	1	-5
326.873	1	14
327.044	1	8
327.215	1	-3
327.386	1	-6
327.557	1	1
327.728	1	9
327.899	1	4
328.070	1	12
328.241	1	-1
328.412	1	10
328.583	1	4
328.754	1	9
328.926	1	10
329.097	1	1
329.268	1	7
329.439	1	21
329.610	1	9
329.781	1	20
329.952	1	6
330.123	1	-1
330.294	1	1
330.465	1	-11
330.636	1	7
330.807	1	9
330.978	1	5
331.149	1	10
331.320	1	4
331.492	1	5
331.663	1	0
331.834	1	7
332.005	1	3
332.176	1	-2
332.347	1	-2
332.518	1	5
332.689	1	7
332.860	1	4
333.031	1	5
333.202	1	-1
333.373	1	13
333.544	1	5
333.715	1	2
333.886	1	4
334.057	1	2
334.228	1	10
334.399	1	6
334.570	1	2
334.741	1	10
334.912	1	6
335.084	1	12
335.255	1	15
335.426	1	12
335.597	1	2
335.768	1	3
335.939	1	0
336.110	1	7
336.281	1	-1
336.452	1	20
336.623	1	9
336.794	1	5
336.965	1	2
337.136	1	9
337.307	1	2
337.478	1	2
337.649	1	13
337.820	1	-2
337.991	1	7
338.162	1	13
338.333	1	-2
338.504	1	18
338.675	1	4
338.846	1	-2
339.017	1	7
339.188	1	6
339.359	1	8
339.530	1	-6
339.701	1	10
339.872	1	9
340.043	1	13
340.214	1	16
340.385	1	6
340.556	1	16
340.727	1	14
340.898	1	10
341.069	1	8
341.240	1	-1
341.411	1	15
341.582	1	-6
341.753	1	7
341.924	1	16
342.095	1	10
342.266	1	10
342.437	1	8
342.608	1	2
342.779	1	-3
342.950	1	4
343.121	1	7
343.292	1	10
343.463	1	15
343.634	1	8
343.805	1	15
343.976	1	19
344.147	1	18
344.318	1	-2
344.489	1	-4
344.660	1	4
344.831	1	11
345.002	1	13
345.173	1	5
345.344	1	7
345.515	1	3
345.686	1	8
345.857	1	13
346.028	1	14
346.199	1	8
346.370	1	6
346.541	1	0
346.712	1	10
346.883	1	4
347.054	1	13
347.225	1	6
347.396	1	1
347.567	1	-2
347.738	1	5
347.909	1	14
348.080	1	8
348.251	1	7
348.422	1	20
348.593	1	13
348.764	1	12
348.935	1	6
349.106	1	1
349.277	1	12
349.448	1	8
349.619	1	6
349.790	1	20
349.961	1	9
350.132	1	18
350.303	1	6
350.474	1	11
350.645	1	-1
350.816	1	8
350.987	1	19
351.157	1	19
351.328	1	4
351.499	1	15
351.670	1	-2
351.841	1	9
352.012	1	7
352.183	1	19
352.354	1	8
352.525	1	7
352.696	1	4
352.867	1	24
353.038	1	18
353.209	1	4
353.380	1	9
353.551	1	14
353.722	1	6
353.893	1	13
354.064	1	12
354.235	1	8
354.406	1	1
354.576	1	13
354.747	1	14
354.918	1	6
355.089	1	8
355.260	1	9
355.431	1	15
355.602	1	10
355.773	1	4
355.944	1	5
356.115	1	8
356.286	1	18
356.457	1	17
356.628	1	7
356.799	1	8
356.970	1	17
357.141	1	16
357.311	1	16
357.482	1	13
357.653	1	6
357.824	1	4
357.995	1	23
358.166	1	8
358.337	1	13
358.508	1	19
358.679	1	10
358.850	1	26
359.021	1	18
359.192	1	27
359.363	1	12
359.533	1	13
359.704	1	3
359.875	1	15
360.046	1	19
360.217	1	21
360.388	1	24
360.559	1	17
360.730	1	13
360.901	1	14
361.072	1	19
361.243	1	14
361.414	1	23
361.584	1	8
361.755	1	15
361.926	1	15
362.097	1	-1
362.268	1	18
362.439	1	3
362.610	1	7
362.781	1	4
362.952	1	20
363.123	1	14
363.293	1	11
363.464	1	12
363.635	1	20
363.806	1	16
363.977	1	15
364.148	1	5
364.319	1	6
364.490	1	17
364.661	1	15
364.832	1	15
365.002	1	21
365.173	1	17
365.344	1	3
365.515	1	8
365.686	1	20
365.857	1	21
366.028	1	20
366.199	1	25
366.370	1	20
366.540	1	7
366.711	1	20
366.882	1	15
367.053	1	14
367.224	1	15
367.395	1	13
367.566	1	30
367.737	1	16
367.908	1	21
368.078	1	16
368.249	1	18
368.420	1	14
368.591	1	9
368.762	1	21
368.933	1	9
369.104	1	12
369.274	1	21
369.445	1	20
369.616	1	16
369.787	1	12
369.958	1	18
370.129	1	22
370.300	1	12
370.471	1	15
370.641	1	24
370.812	1	21
370.983	1	3
371.154	1	22
371.325	1	8
371.496	1	12
371.667	1	25
371.837	1	15
372.008	1	15
372.179	1	10
372.350	1	17
372.521	1	16
372.692	1	21
372.863	1	7
373.033	1	17
373.204	1	14
373.375	1	16
373.546	1	18
373.717	1	9
373.888	1	24
374.059	1	12
374.229	1	32
374.400	1	14
374.571	1	5
374.742	1	14
374.913	1	2
375.084	1	18
375.254	1	9
375.425	1	11
375.596	1	14
375.767	1	25
375.938	1	8
376.109	1	6
376.279	1	8
376.450	1	17
376.621	1	25
376.792	1	15
376.963	1	15
377.134	1	13
377.304	1	28
377.475	1	6
377.646	1	14
377.817	1	19
377.988	1	15
378.159	1	18
378.329	1	11
378.500	1	23
378.671	1	22
378.842	1	26
379.013	1	12
379.184	1	28
379.354	1	22
379.525	1	20
379.696	1	25
379.867	1	13
380.038	1	17
380.209	1	16
380.379	1	28
380.550	1	0
380.721	1	10
380.892	1	21
381.063	1	23
381.233	1	16
381.404	1	16
381.575	1	11
381.746	1	14
381.917	1	24
382.087	1	21
382.258	1	24
382.429	1	25
382.600	1	12
382.771	1	7
382.941	1	33
383.112	1	7
383.283	1	22
383.454	1	19
383.625	1	24
383.795	1	16
383.966	1	28
384.137	1	18
384.308	1	20
384.479	1	25
384.649	1	14
384.820	1	18
384.991	1	20
385.162	1	15
385.333	1	18
385.503	1	5
385.674	1	24
385.845	1	25
386.016	1	33
386.187	1	22
386.357	1	33
386.528	1	20
386.699	1	20
386.870	1	22
387.041	1	29
387.211	1	17
387.382	1	28
387.553	1	34
387.724	1	12
387.894	1	12
388.065	1	22
388.236	1	23
388.407	1	23
388.578	1	26
388.748	1	23
388.919	1	25
389.090	1	33
389.261	1	27
389.431	1	15
389.602	1	17
389.773	1	17
389.944	1	25
390.114	1	22
390.285	1	22
390.456	1	25
390.627	1	13
390.798	1	19
390.968	1	23
391.139	1	24
391.310	1	19
391.481	1	10
391.651	1	23
391.822	1	28
391.993	1	21
392.164	1	18
392.334	1	15
392.505	1	35
392.676	1	2
392.847	1	14
393.017	1	26
393.188	1	25
393.359	1	25
393.530	1	35
393.700	1	16
393.871	1	29
394.042	1	21
394.213	1	14
394.383	1	35
394.554	1	21
394.725	1	4
394.896	1	36
395.066	1	33
395.237	1	17
395.408	1	23
395.579	1	31
395.749	1	34
395.920	1	17
396.091	1	24
396.262	1	27
396.432	1	13
396.603	1	17
396.774	1	9
396.945	1	19
397.115	1	31
397.286	1	25
397.457	1	19
397.627	1	22
397.798	1	20
397.969	1	21
398.140	1	27
398.310	1	21
398.481	1	19
398.652	1	26
398.823	1	16
398.993	1	13
399.164	1	27
399.335	1	16
399.505	1	16
399.676	1	37
399.847	1	15
400.018	1	24
400.188	1	20
400.359	1	27
400.530	1	25
400.700	1	20
400.871	1	29
401.042	1	24
401.213	1	31
401.383	1	30
401.554	1	22
401.725	1	32
401.895	1	24
402.066	1	22
402.237	1	24
402.408	1	18
402.578	1	25
402.749	1	30
402.920	1	29
403.090	1	23
403.261	1	32
403.432	1	26
403.603	1	28
403.773	1	30
403.944	1	30
404.115	1	33
404.285	1	23
404.456	1	39
404.627	1	29
404.797	1	29
404.968	1	28
405.139	1	23
405.310	1	26
405.480	1	28
405.651	1	15
405.822	1	24
405.992	1	35
406.163	1	18
406.334	1	34
406.504	1	35
406.675	1	23
406.846	1	23
407.016	1	24
407.187	1	39
407.358	1	19
407.528	1	28
407.699	1	24
407.870	1	31
408.041	1	27
408.211	1	21
408.382	1	31
408.553	1	35
408.723	1	34
408.894	1	30
409.065	1	36
409.235	1	35
409.406	1	23
409.577	1	21
409.747	1	30
409.918	1	35
410.089	1	25
410.259	1	24
410.430	1	33
410.601	1	22
410.771	1	39
410.942	1	21
411.113	1	22
411.283	1	23
411.454	1	35
411.625	1	25
411.795	1	26
411.966	1	31
412.137	1	26
412.307	1	22
412.478	1	37
412.649	1	11
412.819	1	20
412.990	1	29
413.161	1	27
413.331	1	20
413.502	1	23
413.672	1	21
413.843	1	22
414.014	1	24
414.184	1	31
414.355	1	35
414.526	1	15
414.696	1	24
414.867	1	11
415.038	1	15
415.208	1	27
415.379	1	23
415.550	1	30
415.720	1	15
415.891	1	26
416.062	1	27
416.232	1	30
416.403	1	11
416.573	1	25
416.744	1	32
416.915	1	17
417.085	1	31
417.256	1	23
417.427	1	22
417.597	1	30
417.768	1	37
417.939	1	16
418.109	1	18
418.280	1	24
418.450	1	33
418.621	1	21
418.792	1	24
418.962	1	34
419.133	1	16
419.304	1	23
419.474	1	28
419.645	1	18
419.815	1	31
419.986	1	38
420.157	1	12
420.327	1	32
420.498	1	18
420.669	1	18
420.839	1	36
421.010	1	25
421.180	1	15
421.351	1	27
421.522	1	28
421.692	1	29
421.863	1	39
422.033	1	31
422.204	1	39
422.375	1	33
422.545	1	33
422.716	1	21
422.886	1	27
423.057	1	27
423.228	1	13
423.398	1	31
423.569	1	27
423.740	1	22
423.910	1	27
424.081	1	29
424.251	1	31
424.422	1	36
424.593	1	30
424.763	1	31
424.934	1	26
425.104	1	38
425.275	1	28
425.445	1	16
425.616	1	27
425.787	1	22
425.957	1	22
426.128	1	25
426.298	1	38
426.469	1	16
426.640	1	21
426.810	1	15
426.981	1	30
427.151	1	17
427.322	1	25
427.493	1	21
427.663	1	27
427.834	1	25
428.004	1	21
428.175	1	23
428.345	1	17
428.516	1	22
428.687	1	30
428.857	1	32
429.028	1	17
429.198	1	10
429.369	1	26
429.540	1	17
429.710	1	14
429.881	1	31
430.051	1	13
430.222	1	26
430.392	1	28
430.563	1	22
430.734	1	14
430.904	1	40
431.075	1	23
431.245	1	12
431.416	1	32
431.586	1	14
431.757	1	21
431.927	1	25
432.098	1	24
432.269	1	18
432.439	1	10
432.610	1	26
432.780	1	22
432.951	1	18
433.121	1	17
433.292	1	30
433.462	1	32
433.633	1	25
433.804	1	20
433.974	1	31
434.145	1	25
434.315	1	25
434.486	1	19
434.656	1	27
434.827	1	24
434.997	1	28
435.168	1	22
435.339	1	34
435.509	1	24
435.680	1	28
435.850	1	14
436.021	1	23
436.191	1	27
436.362	1	12
436.532	1	38
436.703	1	29
436.873	1	23
437.044	1	26
437.214	1	26
437.385	1	28
437.556	1	25
437.726	1	23
437.897	1	26
438.067	1	11
438.238	1	13
438.408	1	20
438.579	1	15
438.749	1	22
438.920	1	26
439.090	1	7
439.261	1	23
439.431	1	12
439.602	1	22
439.772	1	23
439.943	1	12
440.113	1	19
440.284	1	29
440.455	1	19
440.625	1	32
440.796	1	18
440.966	1	19
441.137	1	33
441.307	1	26
441.478	1	11
441.648	1	20
441.819	1	19
441.989	1	27
442.160	1	16
442.330	1	21
442.501	1	20
442.671	1	20
442.842	1	25
443.012	1	22
443.183	1	18
443.353	1	25
443.524	1	22
443.694	1	19
443.865	1	33
444.035	1	15
444.206	1	10
444.376	1	20
444.547	1	10
444.717	1	19
444.888	1	18
445.058	1	20
445.229	1	12
445.399	1	28
445.570	1	13
445.740	1	20
445.911	1	23
446.081	1	14
446.252	1	18
446.422	1	10
446.593	1	12
446.763	1	20
446.934	1	13
447.104	1	16
447.275	1	20
447.445	1	18
447.616	1	19
447.786	1	13
447.957	1	19
448.127	1	7
448.298	1	25
448.468	1	15
448.639	1	21
448.809	1	14
448.979	1	30
449.150	1	17
449.320	1	19
449.491	1	13
449.661	1	9
449.832	1	11
450.002	1	10
450.173	1	16
450.343	1	14
450.514	1	16
450.684	1	13
450.855	1	25
451.025	1	8
451.196	1	19
451.366	1	16
451.537	1	19
451.707	1	34
451.878	1	16
452.048	1	15
452.218	1	29
452.389	1	22
452.559	1	26
452.730	1	18
452.900	1	13
453.071	1	25
453.241	1	19
453.412	1	7
453.582	1	21
453.753	1	18
453.923	1	15
454.093	1	17
454.264	1	28
454.434	1	24
454.605	1	14
454.775	1	17
454.946	1	9
455.116	1	15
455.287	1	10
455.457	1	21
455.628	1	3
455.798	1	22
455.968	1	9
456.139	1	17
456.309	1	19
456.480	1	18
456.650	1	13
456.821	1	3
456.991	1	22
457.161	1	13
457.332	1	6
457.502	1	17
457.673	1	16
457.843	1	13
458.014	1	9
458.184	1	14
458.355	1	15
458.525	1	15
458.695	1	13
458.866	1	15
459.036	1	20
459.207	1	23
459.377	1	21
459.548	1	28
459.718	1	17
459.888	1	10
460.059	1	20
460.229	1	13
460.400	1	15
460.570	1	9
460.740	1	19
460.911	1	17
461.081	1	26
461.252	1	12
461.422	1	10
461.593	1	32
461.763	1	24
461.933	1	11
462.104	1	13
462.274	1	5
462.445	1	12
462.615	1	23
462.785	1	29
462.956	1	6
463.126	1	14
463.297	1	22
463.467	1	15
463.638	1	17
463.808	1	14
463.978	1	8
464.149	1	19
464.319	1	14
464.490	1	9
464.660	1	6
464.830	1	10
465.001	1	0
465.171	1	22
465.342	1	8
465.512	1	5
465.682	1	11
465.853	1	16
466.023	1	17
466.194	1	13
466.364	1	24
466.534	1	11
466.705	1	22
466.875	1	2
467.045	1	8
467.216	1	15
467.386	1	16
467.557	1	13
467.727	1	10
467.897	1	10
468.068	1	9
468.238	1	18
468.409	1	23
468.579	1	13
468.749	1	12
468.920	1	2
469.090	1	21
469.260	1	9
469.431	1	3
469.601	1	18
469.772	1	26
469.942	1	28
470.112	1	3
470.283	1	22
470.453	1	26
470.623	1	12
470.794	1	13
470.964	1	-3
471.135	1	17
471.305	1	14
471.475	1	4
471.646	1	17
471.816	1	15
471.986	1	4
472.157	1	23
472.327	1	11
472.497	1	11
472.668	1	8
472.838	1	15
473.009	1	19
473.179	1	5
473.349	1	6
473.520	1	19
473.690	1	6
473.860	1	3
474.031	1	1
474.201	1	10
474.371	1	16
474.542	1	-2
474.712	1	9
474.882	1	7
475.053	1	26
475.223	1	13
475.394	1	1
475.564	1	16
475.734	1	5
475.905	1	19
476.075	1	20
476.245	1	6
476.416	1	3
476.586	1	12
476.756	1	14
476.927	1	7
477.097	1	6
477.267	1	7
477.438	1	25
477.608	1	19
477.778	1	1
477.949	1	4
478.119	1	19
478.289	1	-6
478.460	1	17
478.630	1	4
478.800	1	10
478.971	1	10
479.141	1	13
479.311	1	12
479.482	1	1
479.652	1	17
479.822	1	2
479.993	1	6
480.163	1	5
480.333	1	21
480.504	1	11
480.674	1	12
480.844	1	5
481.015	1	26
481.185	1	23
481.355	1	4
481.525	1	-3
481.696	1	16
481.866	1	9
482.036	1	8
482.207	1	20
482.377	1	10
482.547	1	12
482.718	1	13
482.888	1	12
483.058	1	7
483.229	1	5
483.399	1	11
483.569	1	3
483.740	1	10
483.910	1	-2
484.080	1	16
484.250	1	-1
484.421	1	9
484.591	1	6
484.761	1	7
484.932	1	3
485.102	1	14
485.272	1	3
485.443	1	16
485.613	1	2
485.783	1	14
485.953	1	7
486.124	1	12
486.294	1	6
486.464	1	18
486.635	1	4
486.805	1	4
486.975	1	4
487.146	1	13
487.316	1	11
487.486	1	7
487.656	1	17
487.827	1	0
487.997	1	-6
488.167	1	6
488.338	1	6
488.508	1	16
488.678	1	-3
488.848	1	6
489.019	1	8
489.189	1	10
489.359	1	6
489.529	1	21
489.700	1	5
489.870	1	16
490.040	1	-6
490.211	1	-8
490.381	1	9
490.551	1	11
490.721	1	7
490.892	1	-2
491.062	1	7
491.232	1	11
491.402	1	9
491.573	1	10
491.743	1	7
491.913	1	2
492.084	1	9
492.254	1	7
492.424	1	5
492.594	1	11
492.765	1	19
492.935	1	7
493.105	1	8
493.275	1	-2
493.446	1	-5
493.616	1	-8
493.786	1	8
493.956	1	3
494.127	1	10
494.297	1	-3
494.467	1	0
494.637	1	4
494.808	1	9
494.978	1	12
495.148	1	1
495.318	1	10
495.489	1	4
495.659	1	9
495.829	1	12
495.999	1	13
496.170	1	5
496.340	1	6
496.510	1	15
496.680	1	1
496.851	1	10
497.021	1	15
497.191	1	9
497.361	1	-7
497.532	1	4
497.702	1	4
497.872	1	9
498.042	1	10
498.213	1	3
498.383	1	8
498.553	1	11
498.723	1	2
498.894	1	5
499.064	1	-1
499.234	1	11
499.404	1	4
499.574	1	7
499.745	1	2
499.915	1	10
500.085	1	-1
500.255	1	1
500.426	1	3
500.596	1	-3
500.766	1	4
500.936	1	-5
501.106	1	7
501.277	1	1
501.447	1	8
501.617	1	6
501.787	1	7
501.958	1	9
502.128	1	16
502.298	1	8
502.468	1	10
502.638	1	4
502.809	1	-1
502.979	1	6
503.149	1	0
503.319	1	22
503.489	1	-5
503.660	1	1
503.830	1	3
504.000	1	13
504.170	1	3
504.340	1	2
504.511	1	2
504.681	1	2
504.851	1	11
505.021	1	1
505.192	1	9
505.362	1	8
505.532	1	1
505.702	1	12
505.872	1	13
506.043	1	11
506.213	1	16
506.383	1	5
506.553	1	0
506.723	1	2
506.893	1	8
507.064	1	14
507.234	1	2
507.404	1	-4
507.574	1	13
507.744	1	13
507.915	1	12
508.085	1	2
508.255	1	6
508.425	1	5
508.595	1	6
508.766	1	-1
508.936	1	10
509.106	1	3
509.276	1	9
509.446	1	4
509.616	1	5
509.787	1	6
509.957	1	2
510.127	1	-5
510.297	1	6
510.467	1	1
510.638	1	1
510.808	1	14
510.978	1	-3
511.148	1	5
511.318	1	8
511.488	1	9
511.659	1	-4
511.829	1	3
511.999	1	-1
512.169	1	17
512.339	1	2
512.509	1	-4
512.680	1	11
512.850	1	7
513.020	1	9
513.190	1	0
513.360	1	11
513.530	1	-1
513.700	1	13
513.871	1	-4
514.041	1	0
514.211	1	3
514.381	1	11
514.551	1	6
514.721	1	3
514.892	1	2
515.062	1	9
515.232	1	4
515.402	1	-1
515.572	1	6
515.742	1	5
515.912	1	10
516.083	1	8
516.253	1	8
516.423	1	7
516.593	1	6
516.763	1	12
516.933	1	-5
517.104	1	4
517.274	1	6
517.444	1	9
517.614	1	3
517.784	1	10
517.954	1	1
518.124	1	-1
518.294	1	2
518.465	1	2
518.635	1	11
518.805	1	7
518.975	1	4
519.145	1	7
519.315	1	7
519.485	1	2
519.656	1	8
519.826	1	-10
519.996	1	8
520.166	1	0
520.336	1	-1
520.506	1	-1
520.676	1	5
520.846	1	0
521.017	1	9
521.187	1	8
521.357	1	0
521.527	1	-2
521.697	1	-5
521.867	1	6
522.037	1	2
522.207	1	8
522.377	1	13
522.548	1	-8
522.718	1	1
522.888	1	10
523.058	1	6
523.228	1	-7
523.398	1	-2
523.568	1	-9
523.738	1	4
523.909	1	-2
524.079	1	13
524.249	1	-9
524.419	1	3
524.589	1	3
524.759	1	11
524.929	1	7
525.099	1	2
525.269	1	8
525.439	1	-3
525.610	1	9
525.780	1	-3
525.950	1	6
526.120	1	2
526.290	1	-3
526.460	1	-3
526.630	1	10
526.800	1	0
526.970	1	18
527.140	1	3
527.311	1	5
527.481	1	3
527.651	1	6
527.821	1	1
527.991	1	-2
528.161	1	11
528.331	1	1
528.501	1	6
528.671	1	8
528.841	1	8
529.011	1	-1
529.181	1	-5
529.352	1	-1
529.522	1	2
529.692	1	13
529.862	1	6
530.032	1	-2
530.202	1	-12
530.372	1	3
530.542	1	-3
530.712	1	10
530.882	1	8
531.052	1	0
531.222	1	7
531.392	1	0
531.563	1	-3
531.733	1	2
531.903	1	8
532.073	1	0
532.243	1	7
532.413	1	15
532.583	1	8
532.753	1	-6
532.923	1	10
533.093	1	-2
533.263	1	8
533.433	1	-8
533.603	1	2
533.773	1	-3
533.943	1	5
534.113	1	1
534.284	1	6
534.454	1	0
534.624	1	0
534.794	1	-6
534.964	1	1
535.134	1	-3
535.304	1	6
535.474	1	6
535.644	1	3
535.814	1	-6
535.984	1	2
536.154	1	5
536.324	1	9
536.494	1	12
536.664	1	0
536.834	1	3
537.004	1	5
537.174	1	9
537.344	1	7
537.514	1	-7
537.685	1	6
537.855	1	-5
538.025	1	17
538.195	1	3
538.365	1	6
538.535	1	-6
538.705	1	-3
538.875	1	-2
539.045	1	2
539.215	1	-10
539.385	1	14
539.555	1	-1
539.725	1	1
539.895	1	9
540.065	1	4
540.235	1	1
540.405	1	12
540.575	1	1
540.745	1	1
540.915	1	0
541.085	1	0
541.255	1	-1
541.425	1	-6
541.595	1	-3
541.765	1	0
541.935	1	-1
542.105	1	-3
542.275	1	-5
542.445	1	5
542.615	1	4
542.785	1	3
542.955	1	11
543.125	1	6
543.295	1	2
543.465	1	9
543.635	1	1
543.805	1	10
543.975	1	-5
544.145	1	7
544.315	1	-10
544.485	1	-2
544.655	1	7
544.825	1	2
544.995	1	4
545.165	1	3
545.335	1	6
545.505	1	2
545.675	1	7
545.845	1	-1
546.015	1	-5
546.185	1	0
546.355	1	0
546.525	1	5
546.695	1	-8
546.865	1	-1
547.035	1	-3
547.205	1	4
547.375	1	8
547.545	1	9
547.715	1	5
547.885	1	-3
548.055	1	-5
548.225	1	11
548.395	1	3
548.565	1	3
548.735	1	-5
548.905	1	-4
549.075	1	11
549.245	1	7
549.415	1	11
549.585	1	-5
549.755	1	6
549.925	1	5
550.095	1	1
550.265	1	-5
550.435	1	4
550.605	1	-3
550.775	1	-1
550.945	1	6
551.115	1	14
551.285	1	6
551.455	1	-3
551.625	1	-4
551.795	1	-8
551.965	1	-2
552.135	1	-5
552.305	1	7
552.475	1	6
552.645	1	-1
552.815	1	-2
552.985	1	-1
553.155	1	3
553.325	1	-2
553.495	1	5
553.665	1	0
553.835	1	1
554.004	1	2
554.174	1	2
554.344	1	9
554.514	1	0
554.684	1	3
554.854	1	-2
555.024	1	4
555.194	1	-6
555.364	1	-5
555.534	1	-7
555.704	1	6
555.874	1	-7
556.044	1	7
556.214	1	0
556.384	1	13
556.554	1	0
556.724	1	7
556.894	1	-1
557.064	1	-3
557.234	1	-2
557.404	1	0
557.573	1	1
557.743	1	0
557.913	1	1
558.083	1	3
558.253	1	4
558.423	1	6
558.593	1	10
558.763	1	1
558.933	1	-1
559.103	1	-2
559.273	1	3
559.443	1	0
559.613	1	-1
559.783	1	-10
559.953	1	-4
560.122	1	-2
560.292	1	-7
560.462	1	-12
560.632	1	3
560.802	1	-1
560.972	1	4
561.142	1	0
561.312	1	1
561.482	1	-2
561.652	1	2
561.822	1	0
561.992	1	11
562.162	1	-3
562.331	1	-7
562.501	1	9
562.671	1	-7
562.841	1	-12
563.011	1	6
563.181	1	-3
563.351	1	-3
563.521	1	1
563.691	1	4
563.861	1	-3
564.031	1	2
564.201	1	9
564.370	1	14
564.540	1	-9
564.710	1	-4
564.880	1	4
565.050	1	8
565.220	1	5
565.390	1	4
565.560	1	5
565.730	1	-2
565.900	1	0
566.069	1	18
566.239	1	2
566.409	1	11
566.579	1	0
566.749	1	-3
566.919	1	-12
567.089	1	-8
567.259	1	2
567.429	1	8
567.599	1	18
567.768	1	-5
567.938	1	-3
568.108	1	0
568.278	1	4
568.448	1	-1
568.618	1	9
568.788	1	5
568.958	1	3
569.128	1	-2
569.297	1	-9
569.467	1	9
569.637	1	4
569.807	1	10
569.977	1	-5
570.147	1	7
570.317	1	7
570.487	1	-9
570.656	1	12
570.826	1	-5
570.996	1	12
571.166	1	-5
571.336	1	2
571.506	1	2
571.676	1	6
571.846	1	7
572.015	1	1
572.185	1	6
572.355	1	-12
572.525	1	-2
572.695	1	-6
572.865	1	-5
573.035	1	5
573.205	1	-5
573.374	1	-8
573.544	1	3
573.714	1	-2
573.884	1	3
574.054	1	-1
574.224	1	7
574.394	1	-8
574.563	1	1
574.733	1	-1
574.903	1	2
575.073	1	2
575.243	1	-4
575.413	1	-3
575.583	1	-8
575.752	1	0
575.922	1	12
576.092	1	-4
576.262	1	3
576.432	1	-6
576.602	1	0
576.772	1	-1
576.941	1	2
577.111	1	1
577.281	1	-7
577.451	1	11
577.621	1	6
577.791	1	8
577.960	1	-2
578.130	1	1
578.300	1	3
578.470	1	5
578.640	1	-3
578.810	1	-6
578.979	1	2
579.149	1	-5
579.319	1	0
579.489	1	7
579.659	1	-2
579.829	1	-2
579.998	1	-7
580.168	1	-7
580.338	1	3
580.508	1	-6
580.678	1	-2
580.848	1	2
581.017	1	1
581.187	1	3
581.357	1	-4
581.527	1	2
581.697	1	1
581.867	1	0
582.036	1	-6
582.206	1	1
582.376	1	-2
582.546	1	-4
582.716	1	1
582.885	1	-1
583.055	1	-11
583.225	1	-6
583.395	1	-3
583.565	1	9
583.735	1	6
583.904	1	2
584.074	1	-1
584.244	1	5
584.414	1	-5
584.584	1	4
584.753	1	-5
584.923	1	-6
585.093	1	2
585.263	1	4
585.433	1	-3
585.602	1	8
585.772	1	8
585.942	1	-8
586.112	1	3
586.282	1	5
586.451	1	5
586.621	1	-6
586.791	1	-4
586.961	1	-5
587.131	1	-3
587.300	1	10
587.470	1	-11
587.640	1	-6
587.810	1	-13
587.980	1	1
588.149	1	2
588.319	1	13
588.489	1	1
588.659	1	4
588.829	1	0
588.998	1	-11
589.168	1	-3
589.338	1	2
589.508	1	-5
589.677	1	5
589.847	1	-4
590.017	1	2
590.187	1	-1
590.357	1	0
590.526	1	-3
590.696	1	1
590.866	1	0
591.036	1	10
591.205	1	3
591.375	1	5
591.545	1	-8
591.715	1	-2
591.885	1	8
592.054	1	1
592.224	1	6
592.394	1	-8
592.564	1	-5
592.733	1	10
592.903	1	9
593.073	1	-8
593.243	1	12
593.412	1	-7
593.582	1	-4
593.752	1	-7
593.922	1	-4
594.091	1	2
594.261	1	-13
594.431	1	9
594.601	1	-1
594.771	1	5
594.940	1	-5
595.110	1	2
595.280	1	5
595.450	1	1
595.619	1	-2
595.789	1	-2
595.959	1	3
596.129	1	10
596.298	1	15
596.468	1	-5
596.638	1	-2
596.808	1	-16
596.977	1	2
597.147	1	1
597.317	1	5
597.487	1	2
597.656	1	10
597.826	1	10
597.996	1	4
598.166	1	-5
598.335	1	-8
598.505	1	-3
598.675	1	7
598.844	1	14
599.014	1	-5
599.184	1	7
599.354	1	7
599.523	1	-2
599.693	1	-4
599.863	1	8
600.033	1	9
600.202	1	3
600.372	1	-4
600.542	1	-3
600.712	1	-3
600.881	1	5
601.051	1	14
601.221	1	3
601.390	1	1
601.560	1	-1
601.730	1	7
601.900	1	0
602.069	1	9
602.239	1	3
602.409	1	3
602.578	1	10
602.748	1	8
602.918	1	-16
603.088	1	7
603.257	1	-9
603.427	1	5
603.597	1	3
603.767	1	4
603.936	1	7
604.106	1	-7
604.276	1	6
604.445	1	-3
604.615	1	1
604.785	1	6
604.954	1	-2
605.124	1	1
605.294	1	-1
605.464	1	-1
605.633	1	8
605.803	1	4
605.973	1	1
606.142	1	1
606.312	1	12
606.482	1	-3
606.652	1	6
606.821	1	-2
606.991	1	4
607.161	1	-2
607.330	1	-3
607.500	1	-1
607.670	1	3
607.839	1	6
608.009	1	-6
608.179	1	7
608.348	1	-3
608.518	1	5
608.688	1	-2
608.858	1	-6
609.027	1	3
609.197	1	11
609.367	1	-7
609.536	1	0
609.706	1	3
609.876	1	5
610.045	1	-2
610.215	1	9
610.385	1	-2
610.554	1	3
610.724	1	-6
610.894	1	2
611.063	1	2
611.233	1	10
611.403	1	12
611.572	1	2
611.742	1	-3
611.912	1	9
612.081	1	5
612.251	1	3
612.421	1	-5
612.590	1	5
612.760	1	-6
612.930	1	3
613.099	1	6
613.269	1	4
613.439	1	-5
613.608	1	-1
613.778	1	2
613.948	1	20
614.117	1	-11
614.287	1	-4
614.457	1	9
614.626	1	-3
614.796	1	-2
614.966	1	-2
615.135	1	16
615.305	1	8
615.475	1	-3
615.644	1	16
615.814	1	9
615.984	1	-2
616.153	1	0
616.323	1	0
616.493	1	-9
616.662	1	0
616.832	1	6
617.002	1	6
617.171	1	7
617.341	1	17
617.511	1	-5
617.680	1	-3
617.850	1	4
618.019	1	-14
618.189	1	8
618.359	1	4
618.528	1	2
618.698	1	-3
618.868	1	-6
619.037	1	-3
619.207	1	5
619.377	1	3
619.546	1	7
619.716	1	5
619.885	1	-4
620.055	1	-1
620.225	1	1
620.394	1	0
620.564	1	3
620.734	1	4
620.903	1	-9
621.073	1	7
621.242	1	-2
621.412	1	-5
621.582	1	11
621.751	1	1
621.921	1	2
622.091	1	0
622.260	1	0
622.430	1	-3
622.599	1	4
622.769	1	5
622.939	1	-1
623.108	1	-5
623.278	1	4
623.448	1	0
623.617	1	11
623.787	1	-4
623.956	1	6
624.126	1	4
624.296	1	5
624.465	1	-2
624.635	1	0
624.804	1	-3
624.974	1	-3
625.144	1	4
625.313	1	6
625.483	1	9
625.652	1	1
625.822	1	0
625.992	1	-5
626.161	1	4
626.331	1	0
626.501	1	-1
626.670	1	-1
626.840	1	14
627.009	1	4
627.179	1	1
627.348	1	2
627.518	1	4
627.688	1	-8
627.857	1	4
628.027	1	4
628.196	1	10
628.366	1	-5
628.536	1	10
628.705	1	-2
628.875	1	-2
629.044	1	1
629.214	1	11
629.384	1	12
629.553	1	-1
629.723	1	10
629.892	1	7
630.062	1	-1
630.232	1	5
630.401	1	12
630.571	1	0
630.740	1	1
630.910	1	10
631.079	1	-8
631.249	1	1
631.419	1	7
631.588	1	6
631.758	1	-3
631.927	1	5
632.097	1	-1
632.266	1	12
632.436	1	2
632.606	1	1
632.775	1	4
632.945	1	-3
633.114	1	0
633.284	1	-4
633.453	1	-1
633.623	1	6
633.793	1	2
633.962	1	4
634.132	1	2
634.301	1	6
634.471	1	6
634.640	1	1
634.810	1	9
634.979	1	6
635.149	1	-5
635.319	1	-9
635.488	1	2
635.658	1	0
635.827	1	2
635.997	1	-3
636.166	1	5
636.336	1	-2
636.505	1	12
636.675	1	2
636.845	1	0
637.014	1	-15
637.184	1	3
637.353	1	-3
637.523	1	2
637.692	1	9
637.862	1	2
638.031	1	1
638.201	1	7
638.370	1	-2
638.540	1	-8
638.710	1	0
638.879	1	0
639.049	1	-1
639.218	1	-3
639.388	1	-3
639.557	1	-2
639.727	1	3
639.896	1	-2
640.066	1	7
640.235	1	2
640.405	1	7
640.574	1	12
640.744	1	4
640.914	1	-3
641.083	1	-1
641.253	1	1
641.422	1	-10
641.592	1	7
641.761	1	7
641.931	1	19
642.100	1	0
642.270	1	1
642.439	1	3
642.609	1	-1
642.778	1	1
642.948	1	7
643.117	1	0
643.287	1	4
643.456	1	-7
643.626	1	-5
643.795	1	6
643.965	1	6
644.134	1	8
644.304	1	0
644.473	1	-5
644.643	1	9
644.812	1	-1
644.982	1	0
645.151	1	-1
645.321	1	0
645.490	1	16
645.660	1	3
645.829	1	3
645.999	1	5
646.168	1	17
646.338	1	-14
646.507	1	-4
646.677	1	0
646.846	1	12
647.016	1	6
647.185	1	0
647.355	1	13
647.524	1	-8
647.694	1	-2
647.863	1	-1
648.033	1	0
648.202	1	9
648.372	1	-5
648.541	1	0
648.711	1	0
648.880	1	2
649.050	1	7
649.219	1	2
649.389	1	-2
649.558	1	15
649.728	1	9
649.897	1	-1
650.067	1	3
650.236	1	-2
650.406	1	0
650.575	1	1
650.745	1	5
650.914	1	8
651.084	1	6
651.253	1	6
651.423	1	-2
651.592	1	-3
651.762	1	-10
651.931	1	4
652.101	1	1
652.270	1	3
652.440	1	8
652.609	1	4
652.778	1	6
652.948	1	-3
653.117	1	2
653.287	1	-5
653.456	1	-5
653.626	1	-2
653.795	1	3
653.965	1	1
654.134	1	-1
654.304	1	12
654.473	1	5
654.643	1	0
654.812	1	12
654.982	1	0
655.151	1	10
655.320	1	-9
655.490	1	-2
655.659	1	5
655.829	1	8
655.998	1	9
656.168	1	9
656.337	1	7
656.507	1	-2
656.676	1	-2
656.846	1	-8
657.015	1	4
657.184	1	-8
657.354	1	8
657.523	1	1
657.693	1	7
657.862	1	0
658.032	1	6
658.201	1	-6
658.371	1	4
658.540	1	3
658.709	1	9
658.879	1	8
659.048	1	5
659.218	1	7
659.387	1	6
659.557	1	9
659.726	1	6
659.895	1	5
660.065	1	-1
660.234	1	-5
660.404	1	9
660.573	1	5
660.743	1	0
660.912	1	5
661.081	1	2
661.251	1	5
661.420	1	11
661.590	1	-5
661.759	1	14
661.929	1	-7
662.098	1	-5
662.267	1	-11
662.437	1	5
662.606	1	3
662.776	1	0
662.945	1	9
663.115	1	15
663.284	1	3
663.453	1	3
663.623	1	-2
663.792	1	7
663.962	1	11
664.131	1	-1
664.300	1	1
664.470	1	-4
664.639	1	1
664.809	1	7
664.978	1	18
665.148	1	9
665.317	1	4
665.486	1	8
665.656	1	-4
665.825	1	6
665.995	1	-2
666.164	1	3
666.333	1	1
666.503	1	-7
666.672	1	-1
666.842	1	2
667.011	1	9
667.180	1	-2
667.350	1	5
667.519	1	15
667.689	1	11
667.858	1	5
668.027	1	-2
668.197	1	0
668.366	1	5
668.536	1	-8
668.705	1	-6
668.874	1	1
669.044	1	12
669.213	1	12
669.382	1	6
669.552	1	3
669.721	1	-3
669.891	1	-8
670.060	1	5
670.229	1	4
670.399	1	8
670.568	1	9
670.738	1	-3
670.907	1	-1
671.076	1	3
671.246	1	9
671.415	1	7
671.584	1	3
671.754	1	-10
671.923	1	-5
672.093	1	9
672.262	1	0
672.431	1	2
672.601	1	-3
672.770	1	4
672.939	1	12
673.109	1	6
673.278	1	0
673.448	1	12
673.617	1	5
673.786	1	-9
