325.333	1	2
325.504	1	-6
325.675	1	5
325.846	1	2
326.017	1	-3
326.188	1	-8
326.359	1	-5
326.531	1	-9
326.702	1	0
326.873	1	3
327.044	1	5
327.215	1	1
327.386	1	-10
327.557	1	-8
327.728	1	2
327.899	1	-14
328.070	1	9
328.241	1	-4
328.412	1	2
328.583	1	-5
328.754	1	1
328.926	1	10
329.097	1	-10
329.268	1	11
329.439	1	5
329.610	1	17
329.781	1	5
329.952	1	9
330.123	1	-8
330.294	1	-10
330.465	1	-13
330.636	1	1
330.807	1	-7
330.978	1	-3
331.149	1	10
331.320	1	0
331.492	1	-3
331.663	1	5
331.834	1	1
332.005	1	2
332.176	1	-7
332.347	1	-4
332.518	1	8
332.689	1	2
332.860	1	-3
333.031	1	4
333.202	1	-9
333.373	1	6
333.544	1	9
333.715	1	-7
333.886	1	-6
334.057	1	0
334.228	1	3
334.399	1	3
334.570	1	7
334.741	1	-8
334.912	1	3
335.084	1	8
335.255	1	9
335.426	1	6
335.597	1	-2
335.768	1	12
335.939	1	-3
336.110	1	3
336.281	1	-6
336.452	1	17
336.623	1	-4
336.794	1	-5
336.965	1	3
337.136	1	7
337.307	1	-1
337.478	1	2
337.649	1	-4
337.820	1	-6
337.991	1	-4
338.162	1	-3
338.333	1	0
338.504	1	13
338.675	1	2
338.846	1	-7
339.017	1	2
339.188	1	-3
339.359	1	6
339.530	1	-5
339.701	1	5
339.872	1	13
340.043	1	-1
340.214	1	3
340.385	1	-8
340.556	1	7
340.727	1	-3
340.898	1	6
341.069	1	5
341.240	1	-6
341.411	1	4
341.582	1	-5
341.753	1	4
341.924	1	11
342.095	1	-4
342.266	1	1
342.437	1	-6
342.608	1	-5
342.779	1	2
342.950	1	-4
343.121	1	8
343.292	1	3
343.463	1	15
343.634	1	3
343.805	1	2
343.976	1	-2
344.147	1	8
344.318	1	-3
344.489	1	-10
344.660	1	4
344.831	1	6
345.002	1	-2
345.173	1	8
345.344	1	-5
345.515	1	-4
345.686	1	10
345.857	1	5
346.028	1	6
346.199	1	6
346.370	1	0
346.541	1	4
346.712	1	-2
346.883	1	7
347.054	1	6
347.225	1	2
347.396	1	-1
347.567	1	-8
347.738	1	-7
347.909	1	-1
348.080	1	-2
348.251	1	3
348.422	1	15
348.593	1	5
348.764	1	0
348.935	1	2
349.106	1	-9
349.277	1	-1
349.448	1	-1
349.619	1	7
349.790	1	6
349.961	1	-1
350.132	1	10
350.303	1	1
350.474	1	1
350.645	1	9
350.816	1	5
350.987	1	5
351.157	1	-2
351.328	1	-5
351.499	1	7
351.670	1	8
351.841	1	0
352.012	1	-3
352.183	1	11
352.354	1	5
352.525	1	11
352.696	1	-5
352.867	1	9
353.038	1	3
353.209	1	-6
353.380	1	8
353.551	1	4
353.722	1	3
353.893	1	9
354.064	1	8
354.235	1	-10
354.406	1	-6
354.576	1	2
354.747	1	7
354.918	1	-5
355.089	1	10
355.260	1	0
355.431	1	2
355.602	1	6
355.773	1	1
355.944	1	8
356.115	1	10
356.286	1	5
356.457	1	7
356.628	1	0
356.799	1	0
356.970	1	11
357.141	1	-1
357.311	1	11
357.482	1	-3
357.653	1	-2
357.824	1	1
357.995	1	11
358.166	1	-5
358.337	1	-1
358.508	1	8
358.679	1	2
358.850	1	10
359.021	1	10
359.192	1	14
359.363	1	-4
359.533	1	8
359.704	1	-4
359.875	1	1
360.046	1	-6
360.217	1	4
360.388	1	4
360.559	1	1
360.730	1	1
360.901	1	4
361.072	1	9
361.243	1	-1
361.414	1	12
361.584	1	-6
361.755	1	-2
361.926	1	6
362.097	1	-7
362.268	1	10
362.439	1	-4
362.610	1	4
362.781	1	-8
362.952	1	9
363.123	1	4
363.293	1	-8
363.464	1	0
363.635	1	12
363.806	1	2
363.977	1	2
364.148	1	7
364.319	1	9
364.490	1	13
364.661	1	-1
364.832	1	3
365.002	1	7
365.173	1	-5
365.344	1	-2
365.515	1	7
365.686	1	1
365.857	1	11
366.028	1	3
366.199	1	10
366.370	1	5
366.540	1	5
366.711	1	7
366.882	1	4
367.053	1	-2
367.224	1	0
367.395	1	0
367.566	1	6
367.737	1	0
367.908	1	8
368.078	1	0
368.249	1	4
368.420	1	4
368.591	1	7
368.762	1	-2
368.933	1	3
369.104	1	1
369.274	1	12
369.445	1	12
369.616	1	0
369.787	1	2
369.958	1	1
370.129	1	5
370.300	1	-3
370.471	1	3
370.641	1	-6
370.812	1	11
370.983	1	-6
371.154	1	6
371.325	1	5
371.496	1	2
371.667	1	13
371.837	1	3
372.008	1	-4
372.179	1	6
372.350	1	5
372.521	1	15
372.692	1	11
372.863	1	0
373.033	1	9
373.204	1	4
373.375	1	-3
373.546	1	14
373.717	1	2
373.888	1	11
374.059	1	-4
374.229	1	8
374.400	1	5
374.571	1	4
374.742	1	3
374.913	1	-13
375.084	1	7
375.254	1	-11
375.425	1	5
375.596	1	0
375.767	1	4
375.938	1	-8
376.109	1	-1
376.279	1	0
376.450	1	3
376.621	1	8
376.792	1	2
376.963	1	8
377.134	1	1
377.304	1	8
377.475	1	-4
377.646	1	7
377.817	1	7
377.988	1	7
378.159	1	7
378.329	1	1
378.500	1	3
378.671	1	6
378.842	1	8
379.013	1	8
379.184	1	8
379.354	1	1
379.525	1	7
379.696	1	4
379.867	1	-4
380.038	1	6
380.209	1	15
380.379	1	7
380.550	1	2
380.721	1	5
380.892	1	-2
381.063	1	3
381.233	1	3
381.404	1	-5
381.575	1	-3
381.746	1	1
381.917	1	8
382.087	1	7
382.258	1	6
382.429	1	-2
382.600	1	2
382.771	1	-1
382.941	1	11
383.112	1	-2
383.283	1	2
383.454	1	-10
383.625	1	4
383.795	1	8
383.966	1	7
384.137	1	17
384.308	1	-4
384.479	1	9
384.649	1	10
384.820	1	3
384.991	1	1
385.162	1	7
385.333	1	9
385.503	1	2
385.674	1	9
385.845	1	2
386.016	1	8
386.187	1	-11
386.357	1	6
386.528	1	7
386.699	1	3
386.870	1	9
387.041	1	12
387.211	1	6
387.382	1	11
387.553	1	16
387.724	1	1
387.894	1	-1
388.065	1	8
388.236	1	-2
388.407	1	14
388.578	1	-3
388.748	1	11
388.919	1	8
389.090	1	8
389.261	1	13
389.431	1	-11
389.602	1	1
389.773	1	0
389.944	1	3
390.114	1	8
390.285	1	6
390.456	1	3
390.627	1	13
390.798	1	4
390.968	1	3
391.139	1	11
391.310	1	6
391.481	1	7
391.651	1	15
391.822	1	15
391.993	1	5
392.164	1	0
392.334	1	1
392.505	1	20
392.676	1	0
392.847	1	1
393.017	1	1
393.188	1	11
393.359	1	22
393.530	1	18
393.700	1	7
393.871	1	13
394.042	1	-4
394.213	1	2
394.383	1	9
394.554	1	0
394.725	1	-8
394.896	1	22
395.066	1	1
395.237	1	8
395.408	1	7
395.579	1	11
395.749	1	11
395.920	1	2
396.091	1	13
396.262	1	-2
396.432	1	2
396.603	1	8
396.774	1	-7
396.945	1	11
397.115	1	17
397.286	1	8
397.457	1	3
397.627	1	-6
397.798	1	0
397.969	1	5
398.140	1	4
398.310	1	13
398.481	1	0
398.652	1	11
398.823	1	4
398.993	1	-3
399.164	1	15
399.335	1	7
399.505	1	-6
399.676	1	2
399.847	1	3
400.018	1	1
400.188	1	8
400.359	1	11
400.530	1	10
400.700	1	7
400.871	1	9
401.042	1	3
401.213	1	0
401.383	1	4
401.554	1	10
401.725	1	4
401.895	1	-4
402.066	1	6
402.237	1	10
402.408	1	5
402.578	1	13
402.749	1	3
402.920	1	7
403.090	1	0
403.261	1	3
403.432	1	8
403.603	1	2
403.773	1	12
403.944	1	12
404.115	1	10
404.285	1	14
404.456	1	12
404.627	1	9
404.797	1	-1
404.968	1	1
405.139	1	12
405.310	1	3
405.480	1	9
405.651	1	5
405.822	1	1
405.992	1	12
406.163	1	0
406.334	1	11
406.504	1	3
406.675	1	5
406.846	1	9
407.016	1	10
407.187	1	5
407.358	1	-12
407.528	1	-2
407.699	1	13
407.870	1	14
408.041	1	1
408.211	1	8
408.382	1	3
408.553	1	7
408.723	1	2
408.894	1	2
409.065	1	2
409.235	1	5
409.406	1	-1
409.577	1	6
409.747	1	10
409.918	1	14
410.089	1	21
410.259	1	9
410.430	1	7
410.601	1	3
410.771	1	15
410.942	1	12
411.113	1	12
411.283	1	3
411.454	1	14
411.625	1	13
411.795	1	12
411.966	1	-6
412.137	1	20
412.307	1	0
412.478	1	6
412.649	1	8
412.819	1	6
412.990	1	16
413.161	1	0
413.331	1	15
413.502	1	5
413.672	1	6
413.843	1	7
414.014	1	-2
414.184	1	11
414.355	1	9
414.526	1	6
414.696	1	8
414.867	1	-1
415.038	1	9
415.208	1	4
415.379	1	13
415.550	1	4
415.720	1	9
415.891	1	19
416.062	1	4
416.232	1	8
416.403	1	18
416.573	1	2
416.744	1	13
416.915	1	7
417.085	1	5
417.256	1	6
417.427	1	4
417.597	1	0
417.768	1	8
417.939	1	-5
418.109	1	4
418.280	1	9
418.450	1	13
418.621	1	4
418.792	1	3
418.962	1	1
419.133	1	-1
419.304	1	-1
419.474	1	16
419.645	1	6
419.815	1	9
419.986	1	16
420.157	1	4
420.327	1	-2
420.498	1	9
420.669	1	14
420.839	1	9
421.010	1	1
421.180	1	-1
421.351	1	11
421.522	1	8
421.692	1	12
421.863	1	7
422.033	1	10
422.204	1	15
422.375	1	3
422.545	1	12
422.716	1	-1
422.886	1	13
423.057	1	14
423.228	1	-3
423.398	1	6
423.569	1	4
423.740	1	2
423.910	1	4
424.081	1	6
424.251	1	-3
424.422	1	4
424.593	1	13
424.763	1	15
424.934	1	9
425.104	1	6
425.275	1	5
425.445	1	-4
425.616	1	12
425.787	1	4
425.957	1	-1
426.128	1	5
426.298	1	13
426.469	1	4
426.640	1	4
426.810	1	-4
426.981	1	9
427.151	1	-1
427.322	1	7
427.493	1	3
427.663	1	5
427.834	1	2
428.004	1	16
428.175	1	3
428.345	1	1
428.516	1	5
428.687	1	17
428.857	1	26
429.028	1	-1
429.198	1	5
429.369	1	8
429.540	1	2
429.710	1	3
429.881	1	5
430.051	1	6
430.222	1	6
430.392	1	3
430.563	1	12
430.734	1	8
430.904	1	8
431.075	1	3
431.245	1	5
431.416	1	-1
431.586	1	-6
431.757	1	6
431.927	1	7
432.098	1	7
432.269	1	4
432.439	1	-3
432.610	1	6
432.780	1	10
432.951	1	-1
433.121	1	-1
433.292	1	16
433.462	1	2
433.633	1	8
433.804	1	8
433.974	1	7
434.145	1	7
434.315	1	1
434.486	1	-10
434.656	1	6
434.827	1	5
434.997	1	8
435.168	1	-3
435.339	1	18
435.509	1	1
435.680	1	12
435.850	1	-3
436.021	1	-4
436.191	1	-1
436.362	1	10
436.532	1	9
436.703	1	13
436.873	1	5
437.044	1	6
437.214	1	-4
437.385	1	11
437.556	1	9
437.726	1	4
437.897	1	-2
438.067	1	10
438.238	1	12
438.408	1	0
438.579	1	6
438.749	1	6
438.920	1	6
439.090	1	-1
439.261	1	15
439.431	1	2
439.602	1	-1
439.772	1	9
439.943	1	6
440.113	1	-5
440.284	1	4
440.455	1	5
440.625	1	10
440.796	1	-2
440.966	1	11
441.137	1	6
441.307	1	11
441.478	1	-4
441.648	1	0
441.819	1	5
441.989	1	11
442.160	1	8
442.330	1	14
442.501	1	8
442.671	1	9
442.842	1	7
443.012	1	7
443.183	1	9
443.353	1	3
443.524	1	-3
443.694	1	4
443.865	1	10
444.035	1	9
444.206	1	4
444.376	1	4
444.547	1	6
444.717	1	0
444.888	1	-4
445.058	1	6
445.229	1	9
445.399	1	6
445.570	1	-2
445.740	1	-1
445.911	1	8
446.081	1	7
446.252	1	3
446.422	1	3
446.593	1	0
446.763	1	8
446.934	1	0
447.104	1	1
447.275	1	3
447.445	1	4
447.616	1	2
447.786	1	0
447.957	1	5
448.127	1	3
448.298	1	8
448.468	1	11
448.639	1	4
448.809	1	3
448.979	1	16
449.150	1	4
449.320	1	12
449.491	1	0
449.661	1	0
449.832	1	1
450.002	1	0
450.173	1	-2
450.343	1	6
450.514	1	-2
450.684	1	4
450.855	1	13
451.025	1	4
451.196	1	5
451.366	1	14
451.537	1	17
451.707	1	12
451.878	1	3
452.048	1	-2
452.218	1	1
452.389	1	14
452.559	1	5
452.730	1	11
452.900	1	4
453.071	1	22
453.241	1	9
453.412	1	6
453.582	1	13
453.753	1	13
453.923	1	10
454.093	1	3
454.264	1	15
454.434	1	-1
454.605	1	-3
454.775	1	6
454.946	1	-7
455.116	1	10
455.287	1	-8
455.457	1	12
455.628	1	3
455.798	1	4
455.968	1	5
456.139	1	8
456.309	1	3
456.480	1	-1
456.650	1	5
456.821	1	2
456.991	1	11
457.161	1	10
457.332	1	-4
457.502	1	-1
457.673	1	1
457.843	1	6
458.014	1	4
458.184	1	11
458.355	1	-1
458.525	1	4
458.695	1	-1
458.866	1	-8
459.036	1	2
459.207	1	3
459.377	1	6
459.548	1	1
459.718	1	0
459.888	1	1
460.059	1	7
460.229	1	-1
460.400	1	9
460.570	1	6
460.740	1	11
460.911	1	-8
461.081	1	4
461.252	1	3
461.422	1	-9
461.593	1	5
461.763	1	3
461.933	1	4
462.104	1	1
462.274	1	-8
462.445	1	3
462.615	1	5
462.785	1	0
462.956	1	-15
463.126	1	7
463.297	1	7
463.467	1	17
463.638	1	1
463.808	1	9
463.978	1	0
464.149	1	0
464.319	1	9
464.490	1	-3
464.660	1	-3
464.830	1	-2
465.001	1	3
465.171	1	5
465.342	1	1
465.512	1	5
465.682	1	-2
465.853	1	2
466.023	1	8
466.194	1	6
466.364	1	2
466.534	1	-3
466.705	1	6
466.875	1	-5
467.045	1	-2
467.216	1	7
467.386	1	5
467.557	1	11
467.727	1	0
467.897	1	6
468.068	1	1
468.238	1	0
468.409	1	5
468.579	1	4
468.749	1	4
468.920	1	2
469.090	1	10
469.260	1	8
469.431	1	-4
469.601	1	-1
469.772	1	6
469.942	1	-1
470.112	1	-9
470.283	1	1
470.453	1	3
470.623	1	9
470.794	1	11
470.964	1	1
471.135	1	2
471.305	1	-3
471.475	1	-3
471.646	1	0
471.816	1	-1
471.986	1	1
472.157	1	6
472.327	1	17
472.497	1	2
472.668	1	2
472.838	1	-4
473.009	1	-2
473.179	1	-15
473.349	1	-1
473.520	1	11
473.690	1	5
473.860	1	-7
474.031	1	-4
474.201	1	3
474.371	1	5
474.542	1	-3
474.712	1	-9
474.882	1	-1
475.053	1	5
475.223	1	-3
475.394	1	0
475.564	1	2
475.734	1	1
475.905	1	4
476.075	1	10
476.245	1	1
476.416	1	5
476.586	1	-4
476.756	1	-1
476.927	1	-1
477.097	1	0
477.267	1	-6
477.438	1	6
477.608	1	9
477.778	1	-1
477.949	1	-5
478.119	1	8
478.289	1	2
478.460	1	-3
478.630	1	-7
478.800	1	-1
478.971	1	4
479.141	1	7
479.311	1	4
479.482	1	-3
479.652	1	4
479.822	1	-15
479.993	1	-2
480.163	1	-6
480.333	1	-6
480.504	1	12
480.674	1	3
480.844	1	10
481.015	1	9
481.185	1	5
481.355	1	2
481.525	1	-8
481.696	1	1
481.866	1	-3
482.036	1	10
482.207	1	7
482.377	1	1
482.547	1	4
482.718	1	6
482.888	1	1
483.058	1	5
483.229	1	7
483.399	1	5
483.569	1	-4
483.740	1	-5
483.910	1	-4
484.080	1	2
484.250	1	-3
484.421	1	-3
484.591	1	0
484.761	1	3
484.932	1	1
485.102	1	5
485.272	1	-1
485.443	1	2
485.613	1	-6
485.783	1	-7
485.953	1	-1
486.124	1	-2
486.294	1	11
486.464	1	4
486.635	1	2
486.805	1	4
486.975	1	2
487.146	1	11
487.316	1	1
487.486	1	4
487.656	1	10
487.827	1	-1
487.997	1	-2
488.167	1	1
488.338	1	-1
488.508	1	1
488.678	1	-2
488.848	1	-2
489.019	1	-3
489.189	1	12
489.359	1	-2
489.529	1	4
489.700	1	0
489.870	1	9
490.040	1	-5
490.211	1	-5
490.381	1	2
490.551	1	-3
490.721	1	4
490.892	1	-12
491.062	1	0
491.232	1	4
491.402	1	-4
491.573	1	11
491.743	1	-3
491.913	1	3
492.084	1	4
492.254	1	2
492.424	1	-3
492.594	1	-9
492.765	1	1
492.935	1	3
493.105	1	0
493.275	1	-3
493.446	1	-3
493.616	1	-7
493.786	1	15
493.956	1	0
494.127	1	3
494.297	1	-12
494.467	1	-5
494.637	1	-1
494.808	1	-3
494.978	1	9
495.148	1	4
495.318	1	8
495.489	1	3
495.659	1	8
495.829	1	1
495.999	1	9
496.170	1	2
496.340	1	-2
496.510	1	0
496.680	1	-5
496.851	1	12
497.021	1	0
497.191	1	2
497.361	1	-9
497.532	1	-7
497.702	1	-6
497.872	1	-6
498.042	1	-4
498.213	1	-9
498.383	1	0
498.553	1	-4
498.723	1	1
498.894	1	5
499.064	1	0
499.234	1	5
499.404	1	-4
499.574	1	6
499.745	1	1
499.915	1	4
500.085	1	-4
500.255	1	-9
500.426	1	2
500.596	1	-9
500.766	1	-4
500.936	1	0
501.106	1	-1
501.277	1	-2
501.447	1	10
501.617	1	-1
501.787	1	-5
501.958	1	6
502.128	1	-3
502.298	1	10
502.468	1	-4
502.638	1	7
502.809	1	1
502.979	1	6
503.149	1	2
503.319	1	7
503.489	1	-13
503.660	1	-1
503.830	1	5
504.000	1	0
504.170	1	2
504.340	1	-1
504.511	1	3
504.681	1	-6
504.851	1	-4
505.021	1	-5
505.192	1	-4
505.362	1	7
505.532	1	-8
505.702	1	11
505.872	1	-3
506.043	1	8
506.213	1	15
506.383	1	5
506.553	1	1
506.723	1	-13
506.893	1	5
507.064	1	11
507.234	1	3
507.404	1	1
507.574	1	0
507.744	1	-1
507.915	1	-1
508.085	1	2
508.255	1	-7
508.425	1	5
508.595	1	-3
508.766	1	-7
508.936	1	5
509.106	1	3
509.276	1	8
509.446	1	-13
509.616	1	8
509.787	1	-3
509.957	1	10
510.127	1	-7
510.297	1	-2
510.467	1	0
510.638	1	2
510.808	1	5
510.978	1	-5
511.148	1	2
511.318	1	4
511.488	1	3
511.659	1	-1
511.829	1	-8
511.999	1	-2
512.169	1	-7
512.339	1	13
512.509	1	-4
512.680	1	-6
512.850	1	2
513.020	1	5
513.190	1	-8
513.360	1	3
513.530	1	-4
513.700	1	-3
513.871	1	-3
514.041	1	-1
514.211	1	5
514.381	1	-2
514.551	1	-8
514.721	1	3
514.892	1	-3
515.062	1	6
515.232	1	-10
515.402	1	4
515.572	1	-6
515.742	1	2
515.912	1	-1
516.083	1	10
516.253	1	8
516.423	1	-2
516.593	1	-4
516.763	1	6
516.933	1	0
517.104	1	4
517.274	1	-1
517.444	1	-2
517.614	1	-2
517.784	1	-1
517.954	1	-6
518.124	1	-3
518.294	1	4
518.465	1	5
518.635	1	9
518.805	1	-2
518.975	1	7
519.145	1	3
519.315	1	2
519.485	1	-2
519.656	1	-5
519.826	1	-12
519.996	1	-1
520.166	1	-3
520.336	1	7
520.506	1	-3
520.676	1	-4
520.846	1	5
521.017	1	6
521.187	1	2
521.357	1	-8
521.527	1	0
521.697	1	-5
521.867	1	10
522.037	1	8
522.207	1	2
522.377	1	-1
522.548	1	-8
522.718	1	-1
522.888	1	-1
523.058	1	4
523.228	1	-12
523.398	1	6
523.568	1	-4
523.738	1	-2
523.909	1	1
524.079	1	-1
524.249	1	-7
524.419	1	-2
524.589	1	-6
524.759	1	11
524.929	1	-4
525.099	1	5
525.269	1	1
525.439	1	-2
525.610	1	2
525.780	1	1
525.950	1	-2
526.120	1	-1
526.290	1	-8
526.460	1	-7
526.630	1	-1
526.800	1	-7
526.970	1	8
527.140	1	-1
527.311	1	-6
527.481	1	5
527.651	1	8
527.821	1	-5
527.991	1	-8
528.161	1	-3
528.331	1	-6
528.501	1	-1
528.671	1	2
528.841	1	6
529.011	1	4
529.181	1	2
529.352	1	-9
529.522	1	3
529.692	1	3
529.862	1	-8
530.032	1	-8
530.202	1	-8
530.372	1	4
530.542	1	-3
530.712	1	-1
530.882	1	6
531.052	1	5
531.222	1	0
531.392	1	-1
531.563	1	8
531.733	1	-5
531.903	1	-1
532.073	1	5
532.243	1	0
532.413	1	15
532.583	1	-3
532.753	1	-10
532.923	1	2
533.093	1	-3
533.263	1	9
533.433	1	-14
533.603	1	-9
533.773	1	2
533.943	1	3
534.113	1	4
534.284	1	1
534.454	1	3
534.624	1	1
534.794	1	1
534.964	1	-1
535.134	1	-9
535.304	1	-9
535.474	1	2
535.644	1	4
535.814	1	-2
535.984	1	1
536.154	1	0
536.324	1	-1
536.494	1	-2
536.664	1	4
536.834	1	-2
537.004	1	5
537.174	1	3
537.344	1	-9
537.514	1	-8
537.685	1	8
537.855	1	7
538.025	1	4
538.195	1	-9
538.365	1	4
538.535	1	1
538.705	1	-10
538.875	1	-4
539.045	1	11
539.215	1	-21
539.385	1	2
539.555	1	-5
539.725	1	0
539.895	1	2
540.065	1	-3
540.235	1	2
540.405	1	0
540.575	1	1
540.745	1	9
540.915	1	5
541.085	1	-8
541.255	1	-4
541.425	1	-4
541.595	1	-2
541.765	1	-7
541.935	1	-5
542.105	1	-9
542.275	1	-4
542.445	1	0
542.615	1	4
542.785	1	-7
542.955	1	10
543.125	1	-11
543.295	1	1
543.465	1	3
543.635	1	-10
543.805	1	3
543.975	1	1
544.145	1	0
544.315	1	-14
544.485	1	-1
544.655	1	-5
544.825	1	13
544.995	1	-4
545.165	1	1
545.335	1	0
545.505	1	0
545.675	1	0
545.845	1	1
546.015	1	-10
546.185	1	-4
546.355	1	-12
546.525	1	7
546.695	1	0
546.865	1	-2
547.035	1	2
547.205	1	-2
547.375	1	7
547.545	1	5
547.715	1	-2
547.885	1	-6
548.055	1	-9
548.225	1	1
548.395	1	7
548.565	1	5
548.735	1	-8
548.905	1	2
549.075	1	-1
549.245	1	-2
549.415	1	-2
549.585	1	-3
549.755	1	7
549.925	1	2
550.095	1	-7
550.265	1	0
550.435	1	1
550.605	1	4
550.775	1	-11
550.945	1	-2
551.115	1	5
551.285	1	-3
551.455	1	6
551.625	1	-12
551.795	1	-8
551.965	1	-5
552.135	1	-10
552.305	1	9
552.475	1	-1
552.645	1	-6
552.815	1	-3
552.985	1	-3
553.155	1	-2
553.325	1	1
553.495	1	-3
553.665	1	4
553.835	1	4
554.004	1	0
554.174	1	1
554.344	1	4
554.514	1	-1
554.684	1	-1
554.854	1	-4
555.024	1	8
555.194	1	-4
555.364	1	-2
555.534	1	-10
555.704	1	12
555.874	1	-2
556.044	1	-2
556.214	1	-3
556.384	1	8
556.554	1	3
556.724	1	-2
556.894	1	-4
557.064	1	-3
557.234	1	-5
557.404	1	-6
557.573	1	5
557.743	1	-8
557.913	1	-3
558.083	1	1
558.253	1	3
558.423	1	-3
558.593	1	5
558.763	1	-5
558.933	1	-4
559.103	1	-3
559.273	1	6
559.443	1	10
559.613	1	0
559.783	1	-5
559.953	1	-24
560.122	1	-4
560.292	1	-11
560.462	1	-9
560.632	1	-4
560.802	1	-3
560.972	1	-7
561.142	1	10
561.312	1	-7
561.482	1	2
561.652	1	-3
561.822	1	-3
561.992	1	-6
562.162	1	-4
562.331	1	-9
562.501	1	-10
562.671	1	-1
562.841	1	-13
563.011	1	0
563.181	1	-10
563.351	1	-8
563.521	1	-4
563.691	1	1
563.861	1	-7
564.031	1	-6
564.201	1	-2
564.370	1	7
564.540	1	0
564.710	1	0
564.880	1	-4
565.050	1	3
565.220	1	14
565.390	1	-4
565.560	1	0
565.730	1	2
565.900	1	-1
566.069	1	2
566.239	1	11
566.409	1	5
566.579	1	5
566.749	1	-8
566.919	1	-14
567.089	1	1
567.259	1	-2
567.429	1	-13
567.599	1	3
567.768	1	-4
567.938	1	9
568.108	1	2
568.278	1	-3
568.448	1	-4
568.618	1	0
568.788	1	0
568.958	1	-5
569.128	1	-6
569.297	1	-4
569.467	1	12
569.637	1	4
569.807	1	5
569.977	1	1
570.147	1	-2
570.317	1	-2
570.487	1	-10
570.656	1	3
570.826	1	-13
570.996	1	13
571.166	1	-5
571.336	1	-6
571.506	1	-10
571.676	1	4
571.846	1	-2
572.015	1	2
572.185	1	-3
572.355	1	-6
572.525	1	-12
572.695	1	-5
572.865	1	4
573.035	1	13
573.205	1	0
573.374	1	-12
573.544	1	-4
573.714	1	1
573.884	1	7
574.054	1	0
574.224	1	-5
574.394	1	-3
574.563	1	-3
574.733	1	-6
574.903	1	2
575.073	1	2
575.243	1	3
575.413	1	-5
575.583	1	-3
575.752	1	-6
575.922	1	5
576.092	1	-6
576.262	1	4
576.432	1	-8
576.602	1	-7
576.772	1	9
576.941	1	7
577.111	1	-4
577.281	1	-8
577.451	1	-4
577.621	1	-4
577.791	1	10
577.960	1	-2
578.130	1	-1
578.300	1	6
578.470	1	7
578.640	1	1
578.810	1	-1
578.979	1	-2
579.149	1	-2
579.319	1	-5
579.489	1	-2
579.659	1	-1
579.829	1	-7
579.998	1	-15
580.168	1	-8
580.338	1	2
580.508	1	-1
580.678	1	2
580.848	1	-1
581.017	1	-3
581.187	1	6
581.357	1	-1
581.527	1	-2
581.697	1	4
581.867	1	-7
582.036	1	-2
582.206	1	2
582.376	1	-6
582.546	1	-11
582.716	1	1
582.885	1	0
583.055	1	-11
583.225	1	-1
583.395	1	-6
583.565	1	8
583.735	1	-1
583.904	1	0
584.074	1	0
584.244	1	-2
584.414	1	-7
584.584	1	0
584.753	1	10
584.923	1	-8
585.093	1	1
585.263	1	4
585.433	1	-2
585.602	1	-6
585.772	1	14
585.942	1	-3
586.112	1	-8
586.282	1	3
586.451	1	4
586.621	1	-2
586.791	1	-12
586.961	1	0
587.131	1	-7
587.300	1	0
587.470	1	4
587.640	1	-4
587.810	1	-13
587.980	1	-6
588.149	1	-3
588.319	1	1
588.489	1	9
588.659	1	2
588.829	1	1
588.998	1	-7
589.168	1	-3
589.338	1	-3
589.508	1	1
589.677	1	0
589.847	1	5
590.017	1	-1
590.187	1	-3
590.357	1	-1
590.526	1	-6
590.696	1	6
590.866	1	-13
591.036	1	-2
591.205	1	-8
591.375	1	4
591.545	1	-7
591.715	1	-7
591.885	1	3
592.054	1	2
592.224	1	-2
592.394	1	-13
592.564	1	-1
592.733	1	0
592.903	1	-2
593.073	1	-8
593.243	1	6
593.412	1	-6
593.582	1	-1
593.752	1	-9
593.922	1	-2
594.091	1	2
594.261	1	-12
594.431	1	9
594.601	1	-9
594.771	1	-7
594.940	1	-7
595.110	1	1
595.280	1	4
595.450	1	-4
595.619	1	1
595.789	1	-6
595.959	1	-3
596.129	1	-3
596.298	1	15
596.468	1	-12
596.638	1	-4
596.808	1	-14
596.977	1	-15
597.147	1	-3
597.317	1	6
597.487	1	0
597.656	1	8
597.826	1	5
597.996	1	-11
598.166	1	-6
598.335	1	0
598.505	1	8
598.675	1	4
598.844	1	10
599.014	1	-3
599.184	1	-6
599.354	1	9
599.523	1	-4
599.693	1	-6
599.863	1	3
600.033	1	-11
600.202	1	9
600.372	1	-12
600.542	1	1
600.712	1	-4
600.881	1	1
601.051	1	7
601.221	1	5
601.390	1	3
601.560	1	6
601.730	1	-9
601.900	1	1
602.069	1	-10
602.239	1	-8
602.409	1	-1
602.578	1	6
602.748	1	4
602.918	1	-1
603.088	1	1
603.257	1	-15
603.427	1	0
603.597	1	-8
603.767	1	0
603.936	1	-8
604.106	1	-1
604.276	1	-3
604.445	1	-6
604.615	1	-2
604.785	1	6
604.954	1	-6
605.124	1	4
605.294	1	-8
605.464	1	-4
605.633	1	-4
605.803	1	-2
605.973	1	-5
606.142	1	4
606.312	1	13
606.482	1	-9
606.652	1	-1
606.821	1	-9
606.991	1	4
607.161	1	-2
607.330	1	-15
607.500	1	-1
607.670	1	6
607.839	1	0
608.009	1	-7
608.179	1	4
608.348	1	5
608.518	1	12
608.688	1	-2
608.858	1	-4
609.027	1	4
609.197	1	7
609.367	1	-13
609.536	1	-1
609.706	1	7
609.876	1	6
610.045	1	3
610.215	1	5
610.385	1	-1
610.554	1	-5
610.724	1	-7
610.894	1	3
611.063	1	-8
611.233	1	2
611.403	1	6
611.572	1	3
611.742	1	-7
611.912	1	-4
612.081	1	5
612.251	1	5
612.421	1	-2
612.590	1	1
612.760	1	-6
612.930	1	3
613.099	1	0
613.269	1	1
613.439	1	-3
613.608	1	2
613.778	1	8
613.948	1	6
614.117	1	-5
614.287	1	1
614.457	1	-2
614.626	1	0
614.796	1	-5
614.966	1	2
615.135	1	5
615.305	1	-5
615.475	1	2
615.644	1	11
615.814	1	7
615.984	1	-8
616.153	1	-4
616.323	1	-7
616.493	1	-7
616.662	1	-6
616.832	1	7
617.002	1	3
617.171	1	3
617.341	1	3
617.511	1	-14
617.680	1	-5
617.850	1	1
618.019	1	0
618.189	1	9
618.359	1	-1
618.528	1	4
618.698	1	8
618.868	1	-6
619.037	1	1
619.207	1	1
619.377	1	5
619.546	1	11
619.716	1	0
619.885	1	-1
620.055	1	-9
620.225	1	-1
620.394	1	-5
620.564	1	-1
620.734	1	-1
620.903	1	-18
621.073	1	3
621.242	1	2
621.412	1	-2
621.582	1	-3
621.751	1	-6
621.921	1	5
622.091	1	-6
622.260	1	7
622.430	1	2
622.599	1	0
622.769	1	-7
622.939	1	-6
623.108	1	-2
623.278	1	-8
623.448	1	-4
623.617	1	1
623.787	1	4
623.956	1	6
624.126	1	7
624.296	1	4
624.465	1	2
624.635	1	-4
624.804	1	-15
624.974	1	-11
625.144	1	-6
625.313	1	12
625.483	1	3
625.652	1	1
625.822	1	9
625.992	1	-9
626.161	1	-6
626.331	1	-8
626.501	1	-1
626.670	1	-2
626.840	1	-4
627.009	1	-7
627.179	1	-8
627.348	1	1
627.518	1	9
627.688	1	-9
627.857	1	5
628.027	1	-3
628.196	1	2
628.366	1	-6
628.536	1	3
628.705	1	-3
628.875	1	-7
629.044	1	-8
629.214	1	4
629.384	1	14
629.553	1	-1
629.723	1	7
629.892	1	0
630.062	1	4
630.232	1	-4
630.401	1	0
630.571	1	2
630.740	1	-6
630.910	1	12
631.079	1	5
631.249	1	-1
631.419	1	-4
631.588	1	-2
631.758	1	-10
631.927	1	7
632.097	1	-5
632.266	1	11
632.436	1	-6
632.606	1	-4
632.775	1	5
632.945	1	-4
633.114	1	-15
633.284	1	0
633.453	1	3
633.623	1	14
633.793	1	1
633.962	1	1
634.132	1	-5
634.301	1	10
634.471	1	-5
634.640	1	-5
634.810	1	5
634.979	1	3
635.149	1	3
635.319	1	-7
635.488	1	-5
635.658	1	-7
635.827	1	1
635.997	1	2
636.166	1	5
636.336	1	-9
636.505	1	6
636.675	1	-8
636.845	1	-4
637.014	1	-14
637.184	1	6
637.353	1	-1
637.523	1	-1
637.692	1	-7
637.862	1	-4
638.031	1	-10
638.201	1	11
638.370	1	-9
638.540	1	-9
638.710	1	-8
638.879	1	-7
639.049	1	-1
639.218	1	6
639.388	1	0
639.557	1	-3
639.727	1	7
639.896	1	-1
640.066	1	-3
640.235	1	-4
640.405	1	-4
640.574	1	6
640.744	1	-4
640.914	1	-2
641.083	1	1
641.253	1	-9
641.422	1	-10
641.592	1	13
641.761	1	-2
641.931	1	6
642.100	1	2
642.270	1	4
642.439	1	-9
642.609	1	5
642.778	1	6
642.948	1	4
643.117	1	0
643.287	1	-7
643.456	1	-2
643.626	1	3
643.795	1	-8
643.965	1	6
644.134	1	-3
644.304	1	-5
644.473	1	-5
644.643	1	-1
644.812	1	-7
644.982	1	1
645.151	1	-4
645.321	1	5
645.490	1	8
645.660	1	-20
645.829	1	-1
645.999	1	-3
646.168	1	11
646.338	1	-3
646.507	1	-2
646.677	1	5
646.846	1	-5
647.016	1	7
647.185	1	3
647.355	1	11
647.524	1	-9
647.694	1	-5
647.863	1	-5
648.033	1	0
648.202	1	9
648.372	1	-3
648.541	1	3
648.711	1	-8
648.880	1	-7
649.050	1	-4
649.219	1	-5
649.389	1	-9
649.558	1	-5
649.728	1	-3
649.897	1	0
650.067	1	4
650.236	1	-7
650.406	1	6
650.575	1	-5
650.745	1	-2
650.914	1	9
651.084	1	-1
651.253	1	-4
651.423	1	-20
651.592	1	-3
651.762	1	3
651.931	1	1
652.101	1	-11
652.270	1	-2
652.440	1	0
652.609	1	0
652.778	1	7
652.948	1	-3
653.117	1	-1
653.287	1	-9
653.456	1	-9
653.626	1	8
653.795	1	-3
653.965	1	-4
654.134	1	-5
654.304	1	2
654.473	1	0
654.643	1	-5
654.812	1	-2
654.982	1	6
655.151	1	7
655.320	1	-12
655.490	1	-8
655.659	1	5
655.829	1	5
655.998	1	0
656.168	1	-2
656.337	1	-1
656.507	1	-8
656.676	1	-5
656.846	1	-1
657.015	1	4
657.184	1	-7
657.354	1	-2
657.523	1	-1
657.693	1	1
657.862	1	-9
658.032	1	-2
658.201	1	-10
658.371	1	-5
658.540	1	-10
658.709	1	1
658.879	1	6
659.048	1	4
659.218	1	2
659.387	1	4
659.557	1	4
659.726	1	-10
659.895	1	-3
660.065	1	-7
660.234	1	-6
660.404	1	4
660.573	1	-5
660.743	1	-11
660.912	1	-3
661.081	1	1
661.251	1	-10
661.420	1	-3
661.590	1	-5
661.759	1	10
661.929	1	1
662.098	1	-1
662.267	1	-11
662.437	1	-9
662.606	1	-10
662.776	1	-1
662.945	1	5
663.115	1	13
663.284	1	6
663.453	1	-2
663.623	1	-11
663.792	1	4
663.962	1	7
664.131	1	-16
664.300	1	-6
664.470	1	-7
664.639	1	0
664.809	1	-5
664.978	1	7
665.148	1	2
665.317	1	7
665.486	1	-3
665.656	1	-1
665.825	1	12
665.995	1	-9
666.164	1	-12
666.333	1	-1
666.503	1	-5
666.672	1	3
666.842	1	2
667.011	1	1
667.180	1	-2
667.350	1	-4
667.519	1	-3
667.689	1	0
667.858	1	-2
668.027	1	-6
668.197	1	-6
668.366	1	1
668.536	1	0
668.705	1	-9
668.874	1	6
669.044	1	5
669.213	1	5
669.382	1	0
669.552	1	1
669.721	1	-7
669.891	1	-2
670.060	1	-6
670.229	1	-5
670.399	1	5
670.568	1	8
670.738	1	-10
670.907	1	4
671.076	1	0
671.246	1	15
671.415	1	4
671.584	1	2
671.754	1	-10
671.923	1	2
672.093	1	2
672.262	1	-14
672.431	1	2
672.601	1	0
672.770	1	-4
672.939	1	2
673.109	1	-5
673.278	1	4
673.448	1	13
673.617	1	2
673.786	1	-9
