325.333	1	13
325.504	1	6
325.675	1	24
325.846	1	10
326.017	1	10
326.188	1	20
326.359	1	26
326.531	1	3
326.702	1	24
326.873	1	25
327.044	1	17
327.215	1	12
327.386	1	12
327.557	1	4
327.728	1	7
327.899	1	6
328.070	1	20
328.241	1	13
328.412	1	12
328.583	1	18
328.754	1	21
328.926	1	16
329.097	1	12
329.268	1	21
329.439	1	25
329.610	1	17
329.781	1	26
329.952	1	14
330.123	1	13
330.294	1	14
330.465	1	19
330.636	1	10
330.807	1	13
330.978	1	15
331.149	1	15
331.320	1	25
331.492	1	17
331.663	1	21
331.834	1	31
332.005	1	10
332.176	1	21
332.347	1	12
332.518	1	15
332.689	1	15
332.860	1	16
333.031	1	23
333.202	1	23
333.373	1	17
333.544	1	19
333.715	1	32
333.886	1	9
334.057	1	11
334.228	1	24
334.399	1	15
334.570	1	30
334.741	1	14
334.912	1	20
335.084	1	36
335.255	1	15
335.426	1	22
335.597	1	14
335.768	1	15
335.939	1	21
336.110	1	27
336.281	1	26
336.452	1	28
336.623	1	26
336.794	1	23
336.965	1	22
337.136	1	37
337.307	1	24
337.478	1	25
337.649	1	22
337.820	1	17
337.991	1	28
338.162	1	22
338.333	1	21
338.504	1	22
338.675	1	28
338.846	1	14
339.017	1	17
339.188	1	24
339.359	1	35
339.530	1	21
339.701	1	28
339.872	1	38
340.043	1	35
340.214	1	34
340.385	1	15
340.556	1	31
340.727	1	28
340.898	1	28
341.069	1	19
341.240	1	28
341.411	1	41
341.582	1	12
341.753	1	28
341.924	1	44
342.095	1	26
342.266	1	35
342.437	1	29
342.608	1	35
342.779	1	30
342.950	1	28
343.121	1	46
343.292	1	32
343.463	1	49
343.634	1	39
343.805	1	26
343.976	1	42
344.147	1	36
344.318	1	29
344.489	1	26
344.660	1	35
344.831	1	45
345.002	1	35
345.173	1	33
345.344	1	30
345.515	1	36
345.686	1	34
345.857	1	38
346.028	1	36
346.199	1	35
346.370	1	33
346.541	1	30
346.712	1	35
346.883	1	32
347.054	1	36
347.225	1	27
347.396	1	48
347.567	1	32
347.738	1	44
347.909	1	30
348.080	1	36
348.251	1	33
348.422	1	46
348.593	1	32
348.764	1	35
348.935	1	46
349.106	1	40
349.277	1	37
349.448	1	36
349.619	1	38
349.790	1	48
349.961	1	37
350.132	1	53
350.303	1	40
350.474	1	41
350.645	1	47
350.816	1	38
350.987	1	49
351.157	1	44
351.328	1	27
351.499	1	51
351.670	1	45
351.841	1	41
352.012	1	42
352.183	1	48
352.354	1	40
352.525	1	51
352.696	1	41
352.867	1	50
353.038	1	52
353.209	1	45
353.380	1	42
353.551	1	44
353.722	1	48
353.893	1	52
354.064	1	52
354.235	1	33
354.406	1	37
354.576	1	49
354.747	1	46
354.918	1	37
355.089	1	48
355.260	1	37
355.431	1	42
355.602	1	40
355.773	1	41
355.944	1	43
356.115	1	63
356.286	1	51
356.457	1	44
356.628	1	47
356.799	1	44
356.970	1	53
357.141	1	50
357.311	1	66
357.482	1	40
357.653	1	38
357.824	1	55
357.995	1	63
358.166	1	33
358.337	1	48
358.508	1	63
358.679	1	45
358.850	1	58
359.021	1	58
359.192	1	57
359.363	1	61
359.533	1	54
359.704	1	54
359.875	1	46
360.046	1	54
360.217	1	61
360.388	1	65
360.559	1	57
360.730	1	40
360.901	1	54
361.072	1	57
361.243	1	45
361.414	1	58
361.584	1	49
361.755	1	47
361.926	1	56
362.097	1	43
362.268	1	49
362.439	1	52
362.610	1	51
362.781	1	50
362.952	1	48
363.123	1	38
363.293	1	46
363.464	1	48
363.635	1	59
363.806	1	50
363.977	1	58
364.148	1	40
364.319	1	61
364.490	1	70
364.661	1	61
364.832	1	55
365.002	1	59
365.173	1	61
365.344	1	54
365.515	1	48
365.686	1	60
365.857	1	53
366.028	1	58
366.199	1	60
366.370	1	56
366.540	1	57
366.711	1	64
366.882	1	50
367.053	1	53
367.224	1	64
367.395	1	51
367.566	1	59
367.737	1	55
367.908	1	57
368.078	1	46
368.249	1	68
368.420	1	50
368.591	1	62
368.762	1	56
368.933	1	53
369.104	1	59
369.274	1	62
369.445	1	69
369.616	1	48
369.787	1	49
369.958	1	57
370.129	1	55
370.300	1	55
370.471	1	52
370.641	1	58
370.812	1	57
370.983	1	45
371.154	1	58
371.325	1	50
371.496	1	53
371.667	1	66
371.837	1	53
372.008	1	53
372.179	1	53
372.350	1	56
372.521	1	54
372.692	1	56
372.863	1	56
373.033	1	61
373.204	1	59
373.375	1	68
373.546	1	65
373.717	1	51
373.888	1	56
374.059	1	52
374.229	1	62
374.400	1	49
374.571	1	60
374.742	1	64
374.913	1	60
375.084	1	57
375.254	1	47
375.425	1	60
375.596	1	68
375.767	1	56
375.938	1	53
376.109	1	62
376.279	1	68
376.450	1	56
376.621	1	77
376.792	1	59
376.963	1	61
377.134	1	60
377.304	1	69
377.475	1	55
377.646	1	56
377.817	1	78
377.988	1	68
378.159	1	82
378.329	1	63
378.500	1	71
378.671	1	56
378.842	1	70
379.013	1	67
379.184	1	65
379.354	1	73
379.525	1	66
379.696	1	72
379.867	1	62
380.038	1	67
380.209	1	67
380.379	1	73
380.550	1	49
380.721	1	63
380.892	1	64
381.063	1	74
381.233	1	61
381.404	1	69
381.575	1	69
381.746	1	74
381.917	1	68
382.087	1	75
382.258	1	68
382.429	1	65
382.600	1	71
382.771	1	66
382.941	1	73
383.112	1	70
383.283	1	69
383.454	1	68
383.625	1	80
383.795	1	73
383.966	1	77
384.137	1	75
384.308	1	73
384.479	1	68
384.649	1	68
384.820	1	75
384.991	1	71
385.162	1	83
385.333	1	69
385.503	1	67
385.674	1	68
385.845	1	74
386.016	1	86
386.187	1	65
386.357	1	85
386.528	1	74
386.699	1	78
386.870	1	80
387.041	1	76
387.211	1	78
387.382	1	80
387.553	1	88
387.724	1	66
387.894	1	73
388.065	1	76
388.236	1	68
388.407	1	77
388.578	1	69
388.748	1	94
388.919	1	77
389.090	1	81
389.261	1	84
389.431	1	72
389.602	1	75
389.773	1	84
389.944	1	80
390.114	1	87
390.285	1	80
390.456	1	70
390.627	1	72
390.798	1	80
390.968	1	90
391.139	1	78
391.310	1	79
391.481	1	72
391.651	1	81
391.822	1	78
391.993	1	80
392.164	1	77
392.334	1	70
392.505	1	79
392.676	1	72
392.847	1	73
393.017	1	73
393.188	1	71
393.359	1	93
393.530	1	92
393.700	1	84
393.871	1	83
394.042	1	76
394.213	1	79
394.383	1	76
394.554	1	74
394.725	1	78
394.896	1	84
395.066	1	80
395.237	1	86
395.408	1	86
395.579	1	89
395.749	1	102
395.920	1	88
396.091	1	73
396.262	1	81
396.432	1	78
396.603	1	83
396.774	1	78
396.945	1	84
397.115	1	94
397.286	1	93
397.457	1	87
397.627	1	88
397.798	1	86
397.969	1	83
398.140	1	79
398.310	1	89
398.481	1	84
398.652	1	90
398.823	1	82
398.993	1	79
399.164	1	96
399.335	1	85
399.505	1	75
399.676	1	87
399.847	1	76
400.018	1	82
400.188	1	91
400.359	1	87
400.530	1	100
400.700	1	86
400.871	1	87
401.042	1	89
401.213	1	79
401.383	1	87
401.554	1	86
401.725	1	79
401.895	1	74
402.066	1	79
402.237	1	70
402.408	1	90
402.578	1	91
402.749	1	77
402.920	1	79
403.090	1	73
403.261	1	89
403.432	1	83
403.603	1	94
403.773	1	102
403.944	1	81
404.115	1	90
404.285	1	86
404.456	1	79
404.627	1	87
404.797	1	86
404.968	1	91
405.139	1	92
405.310	1	97
405.480	1	90
405.651	1	88
405.822	1	96
405.992	1	95
406.163	1	83
406.334	1	92
406.504	1	94
406.675	1	84
406.846	1	96
407.016	1	94
407.187	1	94
407.358	1	83
407.528	1	87
407.699	1	79
407.870	1	103
408.041	1	90
408.211	1	103
408.382	1	94
408.553	1	96
408.723	1	97
408.894	1	96
409.065	1	90
409.235	1	85
409.406	1	92
409.577	1	99
409.747	1	93
409.918	1	109
410.089	1	106
410.259	1	87
410.430	1	89
410.601	1	93
410.771	1	96
410.942	1	85
411.113	1	94
411.283	1	95
411.454	1	105
411.625	1	95
411.795	1	100
411.966	1	75
412.137	1	99
412.307	1	95
412.478	1	95
412.649	1	86
412.819	1	94
412.990	1	102
413.161	1	92
413.331	1	97
413.502	1	96
413.672	1	88
413.843	1	84
414.014	1	91
414.184	1	93
414.355	1	94
414.526	1	92
414.696	1	81
414.867	1	78
415.038	1	76
415.208	1	79
415.379	1	81
415.550	1	84
415.720	1	75
415.891	1	104
416.062	1	89
416.232	1	89
416.403	1	82
416.573	1	85
416.744	1	92
416.915	1	94
417.085	1	91
417.256	1	92
417.427	1	97
417.597	1	88
417.768	1	91
417.939	1	82
418.109	1	85
418.280	1	91
418.450	1	104
418.621	1	82
418.792	1	90
418.962	1	90
419.133	1	84
419.304	1	93
419.474	1	95
419.645	1	80
419.815	1	87
419.986	1	98
420.157	1	86
420.327	1	79
420.498	1	83
420.669	1	83
420.839	1	98
421.010	1	81
421.180	1	83
421.351	1	86
421.522	1	86
421.692	1	99
421.863	1	93
422.033	1	89
422.204	1	94
422.375	1	82
422.545	1	78
422.716	1	78
422.886	1	92
423.057	1	101
423.228	1	77
423.398	1	90
423.569	1	83
423.740	1	88
423.910	1	94
424.081	1	90
424.251	1	85
424.422	1	86
424.593	1	85
424.763	1	91
424.934	1	82
425.104	1	100
425.275	1	83
425.445	1	79
425.616	1	82
425.787	1	84
425.957	1	68
426.128	1	82
426.298	1	88
426.469	1	70
426.640	1	88
426.810	1	68
426.981	1	90
427.151	1	73
427.322	1	92
427.493	1	82
427.663	1	85
427.834	1	77
428.004	1	85
428.175	1	82
428.345	1	73
428.516	1	81
428.687	1	91
428.857	1	82
429.028	1	79
429.198	1	76
429.369	1	90
429.540	1	78
429.710	1	93
429.881	1	86
430.051	1	75
430.222	1	87
430.392	1	92
430.563	1	73
430.734	1	82
430.904	1	78
431.075	1	77
431.245	1	79
431.416	1	92
431.586	1	76
431.757	1	80
431.927	1	87
432.098	1	73
432.269	1	79
432.439	1	72
432.610	1	86
432.780	1	81
432.951	1	82
433.121	1	82
433.292	1	80
433.462	1	84
433.633	1	78
433.804	1	81
433.974	1	85
434.145	1	78
434.315	1	85
434.486	1	73
434.656	1	79
434.827	1	84
434.997	1	81
435.168	1	70
435.339	1	89
435.509	1	71
435.680	1	90
435.850	1	74
436.021	1	84
436.191	1	86
436.362	1	79
436.532	1	76
436.703	1	78
436.873	1	69
437.044	1	77
437.214	1	80
437.385	1	77
437.556	1	93
437.726	1	74
437.897	1	84
438.067	1	85
438.238	1	83
438.408	1	75
438.579	1	67
438.749	1	69
438.920	1	84
439.090	1	71
439.261	1	74
439.431	1	59
439.602	1	69
439.772	1	79
439.943	1	70
440.113	1	63
440.284	1	83
440.455	1	88
440.625	1	72
440.796	1	59
440.966	1	85
441.137	1	77
441.307	1	68
441.478	1	70
441.648	1	65
441.819	1	65
441.989	1	73
442.160	1	78
442.330	1	69
442.501	1	73
442.671	1	75
442.842	1	69
443.012	1	68
443.183	1	76
443.353	1	71
443.524	1	66
443.694	1	73
443.865	1	80
444.035	1	79
444.206	1	76
444.376	1	78
444.547	1	68
444.717	1	65
444.888	1	59
445.058	1	68
445.229	1	77
445.399	1	68
445.570	1	72
445.740	1	67
445.911	1	76
446.081	1	79
446.252	1	76
446.422	1	66
446.593	1	58
446.763	1	69
446.934	1	65
447.104	1	67
447.275	1	72
447.445	1	61
447.616	1	64
447.786	1	65
447.957	1	59
448.127	1	67
448.298	1	67
448.468	1	71
448.639	1	62
448.809	1	64
448.979	1	74
449.150	1	66
449.320	1	70
449.491	1	63
449.661	1	57
449.832	1	63
450.002	1	72
450.173	1	63
450.343	1	64
450.514	1	66
450.684	1	68
450.855	1	73
451.025	1	74
451.196	1	61
451.366	1	72
451.537	1	71
451.707	1	66
451.878	1	55
452.048	1	55
452.218	1	71
452.389	1	73
452.559	1	76
452.730	1	56
452.900	1	56
453.071	1	71
453.241	1	68
453.412	1	53
453.582	1	65
453.753	1	70
453.923	1	67
454.093	1	63
454.264	1	78
454.434	1	69
454.605	1	57
454.775	1	61
454.946	1	50
455.116	1	58
455.287	1	54
455.457	1	65
455.628	1	45
455.798	1	70
455.968	1	63
456.139	1	70
456.309	1	56
456.480	1	55
456.650	1	61
456.821	1	64
456.991	1	65
457.161	1	63
457.332	1	60
457.502	1	60
457.673	1	59
457.843	1	55
458.014	1	58
458.184	1	65
458.355	1	69
458.525	1	53
458.695	1	63
458.866	1	47
459.036	1	71
459.207	1	65
459.377	1	55
459.548	1	54
459.718	1	56
459.888	1	45
460.059	1	53
460.229	1	42
460.400	1	54
460.570	1	53
460.740	1	56
460.911	1	61
461.081	1	66
461.252	1	61
461.422	1	46
461.593	1	54
461.763	1	60
461.933	1	57
462.104	1	55
462.274	1	53
462.445	1	51
462.615	1	67
462.785	1	55
462.956	1	42
463.126	1	55
463.297	1	47
463.467	1	67
463.638	1	55
463.808	1	54
463.978	1	48
464.149	1	51
464.319	1	57
464.490	1	55
464.660	1	53
464.830	1	49
465.001	1	59
465.171	1	53
465.342	1	49
465.512	1	55
465.682	1	48
465.853	1	50
466.023	1	54
466.194	1	51
466.364	1	65
466.534	1	46
466.705	1	69
466.875	1	40
467.045	1	40
467.216	1	61
467.386	1	47
467.557	1	60
467.727	1	43
467.897	1	51
468.068	1	43
468.238	1	45
468.409	1	48
468.579	1	48
468.749	1	42
468.920	1	39
469.090	1	52
469.260	1	44
469.431	1	40
469.601	1	57
469.772	1	49
469.942	1	40
470.112	1	34
470.283	1	59
470.453	1	47
470.623	1	51
470.794	1	50
470.964	1	35
471.135	1	61
471.305	1	45
471.475	1	48
471.646	1	44
471.816	1	39
471.986	1	56
472.157	1	48
472.327	1	55
472.497	1	44
472.668	1	48
472.838	1	38
473.009	1	41
473.179	1	40
473.349	1	39
473.520	1	60
473.690	1	43
473.860	1	45
474.031	1	39
474.201	1	46
474.371	1	50
474.542	1	48
474.712	1	43
474.882	1	51
475.053	1	44
475.223	1	47
475.394	1	48
475.564	1	44
475.734	1	34
475.905	1	45
476.075	1	53
476.245	1	54
476.416	1	38
476.586	1	41
476.756	1	47
476.927	1	36
477.097	1	53
477.267	1	46
477.438	1	57
477.608	1	60
477.778	1	30
477.949	1	37
478.119	1	53
478.289	1	43
478.460	1	35
478.630	1	41
478.800	1	40
478.971	1	50
479.141	1	45
479.311	1	40
479.482	1	30
479.652	1	48
479.822	1	46
479.993	1	38
480.163	1	41
480.333	1	38
480.504	1	46
480.674	1	40
480.844	1	48
481.015	1	61
481.185	1	55
481.355	1	41
481.525	1	26
481.696	1	47
481.866	1	38
482.036	1	43
482.207	1	44
482.377	1	27
482.547	1	31
482.718	1	51
482.888	1	49
483.058	1	47
483.229	1	37
483.399	1	41
483.569	1	31
483.740	1	35
483.910	1	29
484.080	1	43
484.250	1	38
484.421	1	38
484.591	1	32
484.761	1	33
484.932	1	38
485.102	1	34
485.272	1	34
485.443	1	42
485.613	1	34
485.783	1	31
485.953	1	35
486.124	1	42
486.294	1	32
486.464	1	43
486.635	1	31
486.805	1	40
486.975	1	33
487.146	1	30
487.316	1	33
487.486	1	45
487.656	1	35
487.827	1	34
487.997	1	28
488.167	1	45
488.338	1	30
488.508	1	40
488.678	1	30
488.848	1	35
489.019	1	27
489.189	1	47
489.359	1	36
489.529	1	29
489.700	1	35
489.870	1	43
490.040	1	30
490.211	1	32
490.381	1	22
490.551	1	35
490.721	1	39
490.892	1	36
491.062	1	29
491.232	1	32
491.402	1	28
491.573	1	35
491.743	1	25
491.913	1	35
492.084	1	32
492.254	1	33
492.424	1	29
492.594	1	32
492.765	1	43
492.935	1	38
493.105	1	31
493.275	1	36
493.446	1	24
493.616	1	32
493.786	1	33
493.956	1	41
494.127	1	37
494.297	1	23
494.467	1	31
494.637	1	31
494.808	1	39
494.978	1	33
495.148	1	36
495.318	1	30
495.489	1	35
495.659	1	25
495.829	1	29
495.999	1	41
496.170	1	35
496.340	1	28
496.510	1	38
496.680	1	29
496.851	1	40
497.021	1	30
497.191	1	30
497.361	1	21
497.532	1	38
497.702	1	24
497.872	1	31
498.042	1	31
498.213	1	22
498.383	1	28
498.553	1	38
498.723	1	26
498.894	1	33
499.064	1	23
499.234	1	35
499.404	1	35
499.574	1	37
499.745	1	38
499.915	1	24
500.085	1	27
500.255	1	16
500.426	1	13
500.596	1	14
500.766	1	21
500.936	1	15
501.106	1	9
501.277	1	20
501.447	1	36
501.617	1	30
501.787	1	25
501.958	1	37
502.128	1	27
502.298	1	27
502.468	1	20
502.638	1	20
502.809	1	22
502.979	1	18
503.149	1	26
503.319	1	48
503.489	1	7
503.660	1	28
503.830	1	32
504.000	1	22
504.170	1	31
504.340	1	16
504.511	1	12
504.681	1	19
504.851	1	29
505.021	1	23
505.192	1	10
505.362	1	26
505.532	1	9
505.702	1	34
505.872	1	27
506.043	1	32
506.213	1	24
506.383	1	26
506.553	1	39
506.723	1	12
506.893	1	21
507.064	1	28
507.234	1	15
507.404	1	15
507.574	1	19
507.744	1	20
507.915	1	19
508.085	1	22
508.255	1	21
508.425	1	19
508.595	1	27
508.766	1	13
508.936	1	27
509.106	1	31
509.276	1	18
509.446	1	15
509.616	1	20
509.787	1	12
509.957	1	19
510.127	1	13
510.297	1	15
510.467	1	26
510.638	1	14
510.808	1	28
510.978	1	25
511.148	1	20
511.318	1	22
511.488	1	34
511.659	1	15
511.829	1	16
511.999	1	27
512.169	1	24
512.339	1	25
512.509	1	17
512.680	1	9
512.850	1	22
513.020	1	16
513.190	1	11
513.360	1	19
513.530	1	17
513.700	1	23
513.871	1	9
514.041	1	20
514.211	1	17
514.381	1	30
514.551	1	15
514.721	1	19
514.892	1	13
515.062	1	12
515.232	1	14
515.402	1	18
515.572	1	25
515.742	1	25
515.912	1	17
516.083	1	19
516.253	1	25
516.423	1	25
516.593	1	11
516.763	1	19
516.933	1	14
517.104	1	17
517.274	1	6
517.444	1	15
517.614	1	9
517.784	1	19
517.954	1	8
518.124	1	28
518.294	1	19
518.465	1	13
518.635	1	34
518.805	1	18
518.975	1	16
519.145	1	20
519.315	1	15
519.485	1	16
519.656	1	7
519.826	1	15
519.996	1	19
520.166	1	12
520.336	1	13
520.506	1	26
520.676	1	15
520.846	1	16
521.017	1	19
521.187	1	17
521.357	1	14
521.527	1	12
521.697	1	4
521.867	1	11
522.037	1	12
522.207	1	29
522.377	1	20
522.548	1	8
522.718	1	21
522.888	1	16
523.058	1	19
523.228	1	3
523.398	1	7
523.568	1	4
523.738	1	15
523.909	1	14
524.079	1	18
524.249	1	2
524.419	1	5
524.589	1	14
524.759	1	18
524.929	1	14
525.099	1	8
525.269	1	22
525.439	1	19
525.610	1	27
525.780	1	12
525.950	1	13
526.120	1	7
526.290	1	7
526.460	1	6
526.630	1	19
526.800	1	0
526.970	1	26
527.140	1	6
527.311	1	13
527.481	1	19
527.651	1	12
527.821	1	11
527.991	1	4
528.161	1	16
528.331	1	7
528.501	1	0
528.671	1	14
528.841	1	6
529.011	1	12
529.181	1	13
529.352	1	12
529.522	1	18
529.692	1	16
529.862	1	8
530.032	1	2
530.202	1	8
530.372	1	14
530.542	1	14
530.712	1	12
530.882	1	14
531.052	1	18
531.222	1	17
531.392	1	10
531.563	1	17
531.733	1	12
531.903	1	13
532.073	1	9
532.243	1	18
532.413	1	24
532.583	1	13
532.753	1	10
532.923	1	14
533.093	1	12
533.263	1	16
533.433	1	3
533.603	1	6
533.773	1	15
533.943	1	13
534.113	1	19
534.284	1	14
534.454	1	10
534.624	1	5
534.794	1	12
534.964	1	14
535.134	1	3
535.304	1	7
535.474	1	14
535.644	1	12
535.814	1	10
535.984	1	16
536.154	1	9
536.324	1	12
536.494	1	19
536.664	1	7
536.834	1	16
537.004	1	13
537.174	1	16
537.344	1	8
537.514	1	15
537.685	1	26
537.855	1	14
538.025	1	12
538.195	1	13
538.365	1	11
538.535	1	0
538.705	1	8
538.875	1	20
539.045	1	5
539.215	1	4
539.385	1	16
539.555	1	9
539.725	1	13
539.895	1	9
540.065	1	13
540.235	1	14
540.405	1	12
540.575	1	8
540.745	1	10
540.915	1	7
541.085	1	7
541.255	1	7
541.425	1	7
541.595	1	20
541.765	1	16
541.935	1	16
542.105	1	8
542.275	1	8
542.445	1	11
542.615	1	19
542.785	1	11
542.955	1	18
543.125	1	19
543.295	1	8
543.465	1	15
543.635	1	-1
543.805	1	16
543.975	1	13
544.145	1	9
544.315	1	-5
544.485	1	-9
544.655	1	17
544.825	1	11
544.995	1	12
545.165	1	2
545.335	1	13
545.505	1	2
545.675	1	14
545.845	1	14
546.015	1	0
546.185	1	7
546.355	1	6
546.525	1	16
546.695	1	8
546.865	1	6
547.035	1	6
547.205	1	12
547.375	1	17
547.545	1	14
547.715	1	15
547.885	1	9
548.055	1	7
548.225	1	16
548.395	1	17
548.565	1	21
548.735	1	5
548.905	1	18
549.075	1	8
549.245	1	14
549.415	1	11
549.585	1	-1
549.755	1	12
549.925	1	13
550.095	1	8
550.265	1	13
550.435	1	10
550.605	1	4
550.775	1	4
550.945	1	13
551.115	1	8
551.285	1	10
551.455	1	14
551.625	1	3
551.795	1	3
551.965	1	5
552.135	1	12
552.305	1	9
552.475	1	14
552.645	1	6
552.815	1	7
552.985	1	6
553.155	1	4
553.325	1	4
553.495	1	18
553.665	1	10
553.835	1	11
554.004	1	15
554.174	1	0
554.344	1	7
554.514	1	11
554.684	1	13
554.854	1	-1
555.024	1	12
555.194	1	5
555.364	1	12
555.534	1	-1
555.704	1	5
555.874	1	18
556.044	1	-1
556.214	1	13
556.384	1	13
556.554	1	16
556.724	1	11
556.894	1	9
557.064	1	5
557.234	1	-3
557.404	1	7
557.573	1	7
557.743	1	7
557.913	1	9
558.083	1	15
558.253	1	2
558.423	1	11
558.593	1	13
558.763	1	2
558.933	1	7
559.103	1	5
559.273	1	15
559.443	1	12
559.613	1	4
559.783	1	10
559.953	1	2
560.122	1	-1
560.292	1	-2
560.462	1	4
560.632	1	-1
560.802	1	6
560.972	1	-6
561.142	1	8
561.312	1	6
561.482	1	16
561.652	1	7
561.822	1	14
561.992	1	11
562.162	1	-1
562.331	1	0
562.501	1	12
562.671	1	-3
562.841	1	-2
563.011	1	12
563.181	1	3
563.351	1	9
563.521	1	6
563.691	1	12
563.861	1	19
564.031	1	7
564.201	1	5
564.370	1	1
564.540	1	2
564.710	1	1
564.880	1	10
565.050	1	6
565.220	1	20
565.390	1	4
565.560	1	13
565.730	1	13
565.900	1	4
566.069	1	20
566.239	1	13
566.409	1	11
566.579	1	10
566.749	1	0
566.919	1	-1
567.089	1	-3
567.259	1	13
567.429	1	0
567.599	1	17
567.768	1	3
567.938	1	5
568.108	1	9
568.278	1	4
568.448	1	9
568.618	1	3
568.788	1	8
568.958	1	-1
569.128	1	1
569.297	1	2
569.467	1	18
569.637	1	12
569.807	1	8
569.977	1	4
570.147	1	5
570.317	1	3
570.487	1	-5
570.656	1	7
570.826	1	-3
570.996	1	18
571.166	1	14
571.336	1	-2
571.506	1	-4
571.676	1	8
571.846	1	8
572.015	1	7
572.185	1	4
572.355	1	-2
572.525	1	-8
572.695	1	9
572.865	1	8
573.035	1	14
573.205	1	7
573.374	1	-5
573.544	1	17
573.714	1	-4
573.884	1	1
574.054	1	8
574.224	1	13
574.394	1	1
574.563	1	11
574.733	1	15
574.903	1	8
575.073	1	11
575.243	1	3
575.413	1	4
575.583	1	6
575.752	1	0
575.922	1	18
576.092	1	5
576.262	1	5
576.432	1	9
576.602	1	2
576.772	1	-1
576.941	1	3
577.111	1	4
577.281	1	3
577.451	1	11
577.621	1	8
577.791	1	11
577.960	1	-6
578.130	1	4
578.300	1	6
578.470	1	4
578.640	1	3
578.810	1	9
578.979	1	8
579.149	1	5
579.319	1	9
579.489	1	9
579.659	1	-4
579.829	1	-3
579.998	1	0
580.168	1	6
580.338	1	14
580.508	1	0
580.678	1	10
580.848	1	15
581.017	1	8
581.187	1	9
581.357	1	4
581.527	1	8
581.697	1	1
581.867	1	2
582.036	1	-7
582.206	1	4
582.376	1	9
582.546	1	6
582.716	1	12
582.885	1	6
583.055	1	6
583.225	1	3
583.395	1	7
583.565	1	12
583.735	1	13
583.904	1	-1
584.074	1	4
584.244	1	8
584.414	1	9
584.584	1	9
584.753	1	6
584.923	1	3
585.093	1	14
585.263	1	7
585.433	1	-4
585.602	1	10
585.772	1	22
585.942	1	-2
586.112	1	6
586.282	1	11
586.451	1	8
586.621	1	-2
586.791	1	-4
586.961	1	5
587.131	1	2
587.300	1	15
587.470	1	5
587.640	1	1
587.810	1	-5
587.980	1	8
588.149	1	10
588.319	1	16
588.489	1	7
588.659	1	-7
588.829	1	10
588.998	1	2
589.168	1	14
589.338	1	4
589.508	1	8
589.677	1	1
589.847	1	9
590.017	1	7
590.187	1	0
590.357	1	-2
590.526	1	2
590.696	1	9
590.866	1	6
591.036	1	9
591.205	1	14
591.375	1	1
591.545	1	-1
591.715	1	4
591.885	1	12
592.054	1	9
592.224	1	1
592.394	1	-2
592.564	1	0
592.733	1	7
592.903	1	6
593.073	1	11
593.243	1	13
593.412	1	-1
593.582	1	2
593.752	1	-1
593.922	1	8
594.091	1	15
594.261	1	-7
594.431	1	10
594.601	1	12
594.771	1	13
594.940	1	-4
595.110	1	12
595.280	1	4
595.450	1	3
595.619	1	8
595.789	1	-4
595.959	1	5
596.129	1	7
596.298	1	18
596.468	1	5
596.638	1	2
596.808	1	-2
596.977	1	-3
597.147	1	12
597.317	1	10
597.487	1	6
597.656	1	10
597.826	1	15
597.996	1	4
598.166	1	8
598.335	1	1
598.505	1	15
598.675	1	11
598.844	1	15
599.014	1	1
599.184	1	6
599.354	1	12
599.523	1	11
599.693	1	12
599.863	1	13
600.033	1	3
600.202	1	3
600.372	1	1
600.542	1	15
600.712	1	3
600.881	1	5
601.051	1	10
601.221	1	8
601.390	1	14
601.560	1	13
601.730	1	6
601.900	1	7
602.069	1	8
602.239	1	10
602.409	1	1
602.578	1	10
602.748	1	10
602.918	1	-3
603.088	1	13
603.257	1	3
603.427	1	-1
603.597	1	11
603.767	1	10
603.936	1	9
604.106	1	-1
604.276	1	16
604.445	1	1
604.615	1	5
604.785	1	13
604.954	1	3
605.124	1	8
605.294	1	1
605.464	1	1
605.633	1	7
605.803	1	8
605.973	1	5
606.142	1	14
606.312	1	11
606.482	1	-8
606.652	1	11
606.821	1	-2
606.991	1	13
607.161	1	9
607.330	1	5
607.500	1	7
607.670	1	11
607.839	1	4
608.009	1	-2
608.179	1	5
608.348	1	5
608.518	1	18
608.688	1	13
608.858	1	2
609.027	1	16
609.197	1	11
609.367	1	3
609.536	1	4
609.706	1	10
609.876	1	15
610.045	1	3
610.215	1	9
610.385	1	-4
610.554	1	6
610.724	1	5
610.894	1	11
611.063	1	20
611.233	1	13
611.403	1	6
611.572	1	4
611.742	1	13
611.912	1	7
612.081	1	8
612.251	1	7
612.421	1	9
612.590	1	11
612.760	1	11
612.930	1	14
613.099	1	11
613.269	1	0
613.439	1	3
613.608	1	13
613.778	1	3
613.948	1	12
614.117	1	5
614.287	1	9
614.457	1	12
614.626	1	12
614.796	1	12
614.966	1	7
615.135	1	13
615.305	1	28
615.475	1	6
615.644	1	11
615.814	1	17
615.984	1	0
616.153	1	2
616.323	1	9
616.493	1	7
616.662	1	11
616.832	1	9
617.002	1	-1
617.171	1	19
617.341	1	12
617.511	1	-4
617.680	1	9
617.850	1	7
618.019	1	4
618.189	1	22
618.359	1	5
618.528	1	15
618.698	1	6
618.868	1	13
619.037	1	6
619.207	1	-2
619.377	1	13
619.546	1	15
619.716	1	9
619.885	1	8
620.055	1	3
620.225	1	13
620.394	1	20
620.564	1	10
620.734	1	10
620.903	1	4
621.073	1	9
621.242	1	8
621.412	1	2
621.582	1	11
621.751	1	8
621.921	1	12
622.091	1	14
622.260	1	21
622.430	1	14
622.599	1	8
622.769	1	5
622.939	1	8
623.108	1	2
623.278	1	13
623.448	1	11
623.617	1	17
623.787	1	10
623.956	1	13
624.126	1	10
624.296	1	16
624.465	1	17
624.635	1	6
624.804	1	2
624.974	1	1
625.144	1	3
625.313	1	22
625.483	1	11
625.652	1	3
625.822	1	16
625.992	1	3
626.161	1	12
626.331	1	14
626.501	1	8
626.670	1	8
626.840	1	11
627.009	1	16
627.179	1	11
627.348	1	10
627.518	1	17
627.688	1	-3
627.857	1	7
628.027	1	7
628.196	1	22
628.366	1	2
628.536	1	2
628.705	1	7
628.875	1	9
629.044	1	5
629.214	1	10
629.384	1	13
629.553	1	2
629.723	1	8
629.892	1	-2
630.062	1	6
630.232	1	14
630.401	1	9
630.571	1	8
630.740	1	6
630.910	1	8
631.079	1	11
631.249	1	9
631.419	1	11
631.588	1	17
631.758	1	5
631.927	1	12
632.097	1	9
632.266	1	17
632.436	1	12
632.606	1	7
632.775	1	16
632.945	1	7
633.114	1	-6
633.284	1	19
633.453	1	13
633.623	1	16
633.793	1	13
633.962	1	12
634.132	1	20
634.301	1	14
634.471	1	17
634.640	1	-4
634.810	1	22
634.979	1	5
635.149	1	14
635.319	1	8
635.488	1	8
635.658	1	9
635.827	1	6
635.997	1	12
636.166	1	10
636.336	1	6
636.505	1	15
636.675	1	14
636.845	1	12
637.014	1	4
637.184	1	17
637.353	1	8
637.523	1	2
637.692	1	21
637.862	1	14
638.031	1	4
638.201	1	10
638.370	1	11
638.540	1	1
638.710	1	7
638.879	1	15
639.049	1	16
639.218	1	24
639.388	1	12
639.557	1	20
639.727	1	18
639.896	1	12
640.066	1	1
640.235	1	15
640.405	1	5
640.574	1	12
640.744	1	6
640.914	1	9
641.083	1	22
641.253	1	9
641.422	1	9
641.592	1	18
641.761	1	6
641.931	1	21
642.100	1	10
642.270	1	9
642.439	1	11
642.609	1	24
642.778	1	11
642.948	1	19
643.117	1	14
643.287	1	11
643.456	1	9
643.626	1	14
643.795	1	14
643.965	1	12
644.134	1	9
644.304	1	12
644.473	1	7
644.643	1	7
644.812	1	3
644.982	1	15
645.151	1	13
645.321	1	15
645.490	1	24
645.660	1	5
645.829	1	8
645.999	1	16
646.168	1	24
646.338	1	1
646.507	1	8
646.677	1	10
646.846	1	12
647.016	1	26
647.185	1	12
647.355	1	17
647.524	1	11
647.694	1	0
647.863	1	11
648.033	1	20
648.202	1	6
648.372	1	7
648.541	1	14
648.711	1	15
648.880	1	21
649.050	1	17
649.219	1	12
649.389	1	8
649.558	1	14
649.728	1	6
649.897	1	10
650.067	1	21
650.236	1	-2
650.406	1	3
650.575	1	29
650.745	1	13
650.914	1	20
651.084	1	25
651.253	1	8
651.423	1	7
651.592	1	8
651.762	1	7
651.931	1	22
652.101	1	9
652.270	1	18
652.440	1	16
652.609	1	15
652.778	1	18
652.948	1	14
653.117	1	6
653.287	1	4
653.456	1	3
653.626	1	15
653.795	1	16
653.965	1	10
654.134	1	3
654.304	1	17
654.473	1	12
654.643	1	18
654.812	1	9
654.982	1	13
655.151	1	16
655.320	1	14
655.490	1	1
655.659	1	20
655.829	1	13
655.998	1	13
656.168	1	3
656.337	1	19
656.507	1	16
656.676	1	0
656.846	1	9
657.015	1	18
657.184	1	14
657.354	1	13
657.523	1	11
657.693	1	14
657.862	1	12
658.032	1	16
658.201	1	3
658.371	1	6
658.540	1	3
658.709	1	18
658.879	1	24
659.048	1	19
659.218	1	12
659.387	1	21
659.557	1	17
659.726	1	9
659.895	1	18
660.065	1	8
660.234	1	2
660.404	1	7
660.573	1	20
660.743	1	11
660.912	1	10
661.081	1	6
661.251	1	2
661.420	1	22
661.590	1	17
661.759	1	16
661.929	1	9
662.098	1	13
662.267	1	5
662.437	1	15
662.606	1	10
662.776	1	19
662.945	1	16
663.115	1	27
663.284	1	24
663.453	1	11
663.623	1	6
663.792	1	16
663.962	1	13
664.131	1	17
664.300	1	8
664.470	1	3
664.639	1	7
664.809	1	21
664.978	1	32
665.148	1	16
665.317	1	14
665.486	1	16
665.656	1	15
665.825	1	19
665.995	1	6
666.164	1	8
666.333	1	14
666.503	1	9
666.672	1	16
666.842	1	14
667.011	1	8
667.180	1	13
667.350	1	22
667.519	1	15
667.689	1	19
667.858	1	20
668.027	1	15
668.197	1	2
668.366	1	21
668.536	1	9
668.705	1	15
668.874	1	23
669.044	1	20
669.213	1	12
669.382	1	17
669.552	1	14
669.721	1	10
669.891	1	14
670.060	1	14
670.229	1	26
670.399	1	20
670.568	1	20
670.738	1	11
670.907	1	22
671.076	1	16
671.246	1	18
671.415	1	20
671.584	1	20
671.754	1	9
671.923	1	8
672.093	1	15
672.262	1	1
672.431	1	18
672.601	1	20
672.770	1	19
672.939	1	19
673.109	1	8
673.278	1	13
673.448	1	20
673.617	1	16
673.786	1	6
