325.333	1	6
325.504	1	-9
325.675	1	7
325.846	1	-5
326.017	1	1
326.188	1	3
326.359	1	4
326.531	1	-9
326.702	1	8
326.873	1	8
327.044	1	5
327.215	1	5
327.386	1	-2
327.557	1	-7
327.728	1	5
327.899	1	-3
328.070	1	9
328.241	1	-8
328.412	1	0
328.583	1	-3
328.754	1	1
328.926	1	4
329.097	1	-2
329.268	1	8
329.439	1	10
329.610	1	-6
329.781	1	-2
329.952	1	5
330.123	1	-5
330.294	1	-1
330.465	1	-13
330.636	1	11
330.807	1	4
330.978	1	-8
331.149	1	1
331.320	1	3
331.492	1	-3
331.663	1	-1
331.834	1	8
332.005	1	11
332.176	1	0
332.347	1	-1
332.518	1	4
332.689	1	6
332.860	1	7
333.031	1	0
333.202	1	8
333.373	1	6
333.544	1	1
333.715	1	-2
333.886	1	0
334.057	1	-5
334.228	1	6
334.399	1	9
334.570	1	4
334.741	1	-7
334.912	1	2
335.084	1	5
335.255	1	14
335.426	1	6
335.597	1	5
335.768	1	1
335.939	1	5
336.110	1	2
336.281	1	8
336.452	1	3
336.623	1	-1
336.794	1	4
336.965	1	1
337.136	1	9
337.307	1	3
337.478	1	-2
337.649	1	-5
337.820	1	-1
337.991	1	-2
338.162	1	-5
338.333	1	-2
338.504	1	14
338.675	1	-2
338.846	1	-9
339.017	1	2
339.188	1	-1
339.359	1	6
339.530	1	-7
339.701	1	13
339.872	1	5
340.043	1	2
340.214	1	7
340.385	1	-8
340.556	1	8
340.727	1	5
340.898	1	3
341.069	1	-1
341.240	1	-2
341.411	1	8
341.582	1	-8
341.753	1	7
341.924	1	16
342.095	1	2
342.266	1	12
342.437	1	6
342.608	1	-1
342.779	1	-4
342.950	1	-3
343.121	1	3
343.292	1	7
343.463	1	8
343.634	1	3
343.805	1	0
343.976	1	14
344.147	1	1
344.318	1	-3
344.489	1	-8
344.660	1	10
344.831	1	9
345.002	1	-2
345.173	1	9
345.344	1	-3
345.515	1	3
345.686	1	-2
345.857	1	15
346.028	1	9
346.199	1	7
346.370	1	6
346.541	1	4
346.712	1	0
346.883	1	-12
347.054	1	3
347.225	1	-7
347.396	1	6
347.567	1	-13
347.738	1	3
347.909	1	11
348.080	1	-5
348.251	1	0
348.422	1	9
348.593	1	6
348.764	1	-8
348.935	1	1
349.106	1	-6
349.277	1	-6
349.448	1	11
349.619	1	5
349.790	1	5
349.961	1	-3
350.132	1	7
350.303	1	1
350.474	1	6
350.645	1	-2
350.816	1	8
350.987	1	9
351.157	1	2
351.328	1	3
351.499	1	11
351.670	1	0
351.841	1	14
352.012	1	10
352.183	1	7
352.354	1	9
352.525	1	8
352.696	1	6
352.867	1	12
353.038	1	2
353.209	1	-1
353.380	1	7
353.551	1	8
353.722	1	5
353.893	1	17
354.064	1	5
354.235	1	0
354.406	1	-2
354.576	1	-1
354.747	1	-1
354.918	1	5
355.089	1	5
355.260	1	3
355.431	1	0
355.602	1	4
355.773	1	-4
355.944	1	5
356.115	1	8
356.286	1	12
356.457	1	-4
356.628	1	2
356.799	1	14
356.970	1	17
357.141	1	5
357.311	1	12
357.482	1	-1
357.653	1	7
357.824	1	4
357.995	1	10
358.166	1	2
358.337	1	2
358.508	1	4
358.679	1	2
358.850	1	15
359.021	1	6
359.192	1	18
359.363	1	7
359.533	1	-3
359.704	1	4
359.875	1	-1
360.046	1	9
360.217	1	15
360.388	1	18
360.559	1	12
360.730	1	6
360.901	1	13
361.072	1	17
361.243	1	4
361.414	1	6
361.584	1	-6
361.755	1	3
361.926	1	12
362.097	1	5
362.268	1	14
362.439	1	11
362.610	1	16
362.781	1	-1
362.952	1	0
363.123	1	-2
363.293	1	2
363.464	1	3
363.635	1	19
363.806	1	6
363.977	1	4
364.148	1	4
364.319	1	-1
364.490	1	7
364.661	1	3
364.832	1	-2
365.002	1	14
365.173	1	14
365.344	1	4
365.515	1	3
365.686	1	12
365.857	1	9
366.028	1	9
366.199	1	10
366.370	1	2
366.540	1	5
366.711	1	8
366.882	1	10
367.053	1	3
367.224	1	4
367.395	1	1
367.566	1	15
367.737	1	13
367.908	1	11
368.078	1	3
368.249	1	10
368.420	1	8
368.591	1	16
368.762	1	13
368.933	1	2
369.104	1	7
369.274	1	17
369.445	1	10
369.616	1	6
369.787	1	5
369.958	1	7
370.129	1	11
370.300	1	-4
370.471	1	5
370.641	1	8
370.812	1	10
370.983	1	2
371.154	1	7
371.325	1	5
371.496	1	2
371.667	1	10
371.837	1	6
372.008	1	3
372.179	1	4
372.350	1	5
372.521	1	7
372.692	1	8
372.863	1	15
373.033	1	6
373.204	1	9
373.375	1	4
373.546	1	15
373.717	1	6
373.888	1	8
374.059	1	6
374.229	1	16
374.400	1	1
374.571	1	-1
374.742	1	8
374.913	1	-1
375.084	1	7
375.254	1	7
375.425	1	18
375.596	1	3
375.767	1	11
375.938	1	1
376.109	1	-2
376.279	1	10
376.450	1	9
376.621	1	12
376.792	1	9
376.963	1	10
377.134	1	4
377.304	1	13
377.475	1	8
377.646	1	2
377.817	1	8
377.988	1	9
378.159	1	15
378.329	1	8
378.500	1	11
378.671	1	10
378.842	1	19
379.013	1	-1
379.184	1	5
379.354	1	13
379.525	1	18
379.696	1	12
379.867	1	5
380.038	1	5
380.209	1	17
380.379	1	9
380.550	1	-7
380.721	1	10
380.892	1	1
381.063	1	9
381.233	1	14
381.404	1	10
381.575	1	6
381.746	1	13
381.917	1	8
382.087	1	13
382.258	1	21
382.429	1	7
382.600	1	7
382.771	1	-4
382.941	1	14
383.112	1	8
383.283	1	-1
383.454	1	6
383.625	1	8
383.795	1	15
383.966	1	16
384.137	1	13
384.308	1	1
384.479	1	17
384.649	1	1
384.820	1	9
384.991	1	6
385.162	1	9
385.333	1	8
385.503	1	10
385.674	1	10
385.845	1	20
386.016	1	7
386.187	1	10
386.357	1	14
386.528	1	2
386.699	1	4
386.870	1	4
387.041	1	10
387.211	1	12
387.382	1	11
387.553	1	5
387.724	1	3
387.894	1	2
388.065	1	9
388.236	1	6
388.407	1	16
388.578	1	7
388.748	1	6
388.919	1	15
389.090	1	13
389.261	1	7
389.431	1	-8
389.602	1	12
389.773	1	5
389.944	1	8
390.114	1	11
390.285	1	11
390.456	1	11
390.627	1	-4
390.798	1	11
390.968	1	14
391.139	1	11
391.310	1	11
391.481	1	10
391.651	1	7
391.822	1	22
391.993	1	0
392.164	1	10
392.334	1	11
392.505	1	8
392.676	1	-2
392.847	1	8
393.017	1	0
393.188	1	11
393.359	1	22
393.530	1	30
393.700	1	12
393.871	1	19
394.042	1	4
394.213	1	7
394.383	1	7
394.554	1	3
394.725	1	-2
394.896	1	16
395.066	1	5
395.237	1	10
395.408	1	11
395.579	1	15
395.749	1	22
395.920	1	17
396.091	1	5
396.262	1	6
396.432	1	2
396.603	1	5
396.774	1	-4
396.945	1	16
397.115	1	5
397.286	1	21
397.457	1	15
397.627	1	11
397.798	1	11
397.969	1	10
398.140	1	4
398.310	1	4
398.481	1	19
398.652	1	22
398.823	1	12
398.993	1	3
399.164	1	10
399.335	1	9
399.505	1	3
399.676	1	10
399.847	1	7
400.018	1	2
400.188	1	17
400.359	1	23
400.530	1	12
400.700	1	5
400.871	1	12
401.042	1	16
401.213	1	13
401.383	1	13
401.554	1	20
401.725	1	9
401.895	1	4
402.066	1	13
402.237	1	11
402.408	1	9
402.578	1	16
402.749	1	8
402.920	1	23
403.090	1	11
403.261	1	9
403.432	1	11
403.603	1	11
403.773	1	17
403.944	1	13
404.115	1	14
404.285	1	14
404.456	1	19
404.627	1	15
404.797	1	13
404.968	1	18
405.139	1	10
405.310	1	10
405.480	1	11
405.651	1	10
405.822	1	6
405.992	1	13
406.163	1	5
406.334	1	17
406.504	1	9
406.675	1	6
406.846	1	15
407.016	1	21
407.187	1	9
407.358	1	7
407.528	1	13
407.699	1	21
407.870	1	18
408.041	1	10
408.211	1	6
408.382	1	22
408.553	1	16
408.723	1	18
408.894	1	12
409.065	1	12
409.235	1	14
409.406	1	6
409.577	1	11
409.747	1	12
409.918	1	23
410.089	1	20
410.259	1	12
410.430	1	6
410.601	1	14
410.771	1	19
410.942	1	9
411.113	1	16
411.283	1	6
411.454	1	36
411.625	1	14
411.795	1	21
411.966	1	10
412.137	1	18
412.307	1	18
412.478	1	14
412.649	1	11
412.819	1	8
412.990	1	16
413.161	1	17
413.331	1	12
413.502	1	12
413.672	1	13
413.843	1	17
414.014	1	6
414.184	1	25
414.355	1	16
414.526	1	15
414.696	1	13
414.867	1	10
415.038	1	6
415.208	1	3
415.379	1	6
415.550	1	17
415.720	1	3
415.891	1	18
416.062	1	19
416.232	1	18
416.403	1	11
416.573	1	5
416.744	1	20
416.915	1	-3
417.085	1	24
417.256	1	9
417.427	1	16
417.597	1	10
417.768	1	12
417.939	1	2
418.109	1	12
418.280	1	12
418.450	1	18
418.621	1	9
418.792	1	13
418.962	1	23
419.133	1	18
419.304	1	5
419.474	1	13
419.645	1	14
419.815	1	10
419.986	1	15
420.157	1	7
420.327	1	5
420.498	1	12
420.669	1	19
420.839	1	14
421.010	1	17
421.180	1	10
421.351	1	11
421.522	1	16
421.692	1	25
421.863	1	20
422.033	1	6
422.204	1	14
422.375	1	11
422.545	1	15
422.716	1	8
422.886	1	20
423.057	1	13
423.228	1	0
423.398	1	11
423.569	1	10
423.740	1	6
423.910	1	11
424.081	1	19
424.251	1	8
424.422	1	12
424.593	1	11
424.763	1	13
424.934	1	20
425.104	1	24
425.275	1	7
425.445	1	7
425.616	1	9
425.787	1	9
425.957	1	1
426.128	1	13
426.298	1	29
426.469	1	-2
426.640	1	6
426.810	1	-1
426.981	1	13
427.151	1	9
427.322	1	11
427.493	1	10
427.663	1	11
427.834	1	8
428.004	1	12
428.175	1	18
428.345	1	7
428.516	1	7
428.687	1	20
428.857	1	23
429.028	1	9
429.198	1	-1
429.369	1	14
429.540	1	16
429.710	1	23
429.881	1	13
430.051	1	7
430.222	1	10
430.392	1	15
430.563	1	2
430.734	1	3
430.904	1	14
431.075	1	2
431.245	1	10
431.416	1	9
431.586	1	3
431.757	1	19
431.927	1	28
432.098	1	11
432.269	1	-1
432.439	1	14
432.610	1	19
432.780	1	12
432.951	1	-2
433.121	1	13
433.292	1	13
433.462	1	12
433.633	1	10
433.804	1	13
433.974	1	10
434.145	1	4
434.315	1	8
434.486	1	4
434.656	1	14
434.827	1	9
434.997	1	11
435.168	1	8
435.339	1	15
435.509	1	11
435.680	1	17
435.850	1	5
436.021	1	-1
436.191	1	13
436.362	1	6
436.532	1	14
436.703	1	10
436.873	1	18
437.044	1	13
437.214	1	8
437.385	1	4
437.556	1	20
437.726	1	17
437.897	1	7
438.067	1	14
438.238	1	5
438.408	1	10
438.579	1	6
438.749	1	10
438.920	1	22
439.090	1	14
439.261	1	17
439.431	1	-3
439.602	1	9
439.772	1	15
439.943	1	11
440.113	1	4
440.284	1	14
440.455	1	15
440.625	1	12
440.796	1	6
440.966	1	11
441.137	1	2
441.307	1	18
441.478	1	1
441.648	1	6
441.819	1	8
441.989	1	14
442.160	1	12
442.330	1	10
442.501	1	5
442.671	1	10
442.842	1	9
443.012	1	13
443.183	1	10
443.353	1	17
443.524	1	11
443.694	1	3
443.865	1	17
444.035	1	11
444.206	1	5
444.376	1	5
444.547	1	5
444.717	1	12
444.888	1	1
445.058	1	8
445.229	1	13
445.399	1	6
445.570	1	6
445.740	1	9
445.911	1	10
446.081	1	12
446.252	1	8
446.422	1	17
446.593	1	7
446.763	1	5
446.934	1	-2
447.104	1	13
447.275	1	6
447.445	1	8
447.616	1	4
447.786	1	7
447.957	1	8
448.127	1	4
448.298	1	22
448.468	1	14
448.639	1	-6
448.809	1	0
448.979	1	15
449.150	1	3
449.320	1	11
449.491	1	6
449.661	1	5
449.832	1	-2
450.002	1	6
450.173	1	4
450.343	1	1
450.514	1	20
450.684	1	13
450.855	1	11
451.025	1	3
451.196	1	2
451.366	1	14
451.537	1	16
451.707	1	11
451.878	1	0
452.048	1	2
452.218	1	3
452.389	1	8
452.559	1	25
452.730	1	6
452.900	1	8
453.071	1	23
453.241	1	3
453.412	1	4
453.582	1	13
453.753	1	1
453.923	1	8
454.093	1	8
454.264	1	21
454.434	1	13
454.605	1	0
454.775	1	17
454.946	1	-2
455.116	1	13
455.287	1	0
455.457	1	14
455.628	1	-1
455.798	1	10
455.968	1	14
456.139	1	11
456.309	1	6
456.480	1	5
456.650	1	10
456.821	1	-3
456.991	1	9
457.161	1	16
457.332	1	8
457.502	1	11
457.673	1	1
457.843	1	17
458.014	1	6
458.184	1	11
458.355	1	5
458.525	1	8
458.695	1	7
458.866	1	-1
459.036	1	10
459.207	1	4
459.377	1	1
459.548	1	9
459.718	1	7
459.888	1	-3
460.059	1	7
460.229	1	-3
460.400	1	7
460.570	1	5
460.740	1	9
460.911	1	6
461.081	1	10
461.252	1	4
461.422	1	4
461.593	1	9
461.763	1	15
461.933	1	7
462.104	1	4
462.274	1	8
462.445	1	11
462.615	1	10
462.785	1	1
462.956	1	0
463.126	1	9
463.297	1	12
463.467	1	21
463.638	1	17
463.808	1	7
463.978	1	-1
464.149	1	6
464.319	1	11
464.490	1	-1
464.660	1	0
464.830	1	0
465.001	1	1
465.171	1	12
465.342	1	5
465.512	1	3
465.682	1	6
465.853	1	3
466.023	1	5
466.194	1	11
466.364	1	6
466.534	1	0
466.705	1	18
466.875	1	-6
467.045	1	3
467.216	1	14
467.386	1	-3
467.557	1	22
467.727	1	1
467.897	1	-1
468.068	1	0
468.238	1	10
468.409	1	16
468.579	1	5
468.749	1	11
468.920	1	-3
469.090	1	4
469.260	1	7
469.431	1	-13
469.601	1	4
469.772	1	17
469.942	1	13
470.112	1	1
470.283	1	17
470.453	1	10
470.623	1	9
470.794	1	0
470.964	1	-2
471.135	1	4
471.305	1	11
471.475	1	5
471.646	1	3
471.816	1	8
471.986	1	-3
472.157	1	6
472.327	1	12
472.497	1	-2
472.668	1	10
472.838	1	-4
473.009	1	6
473.179	1	4
473.349	1	2
473.520	1	8
473.690	1	4
473.860	1	0
474.031	1	-10
474.201	1	13
474.371	1	17
474.542	1	3
474.712	1	1
474.882	1	1
475.053	1	8
475.223	1	0
475.394	1	9
475.564	1	12
475.734	1	6
475.905	1	13
476.075	1	9
476.245	1	7
476.416	1	3
476.586	1	4
476.756	1	-6
476.927	1	4
477.097	1	3
477.267	1	12
477.438	1	18
477.608	1	25
477.778	1	2
477.949	1	1
478.119	1	9
478.289	1	0
478.460	1	-2
478.630	1	8
478.800	1	4
478.971	1	0
479.141	1	12
479.311	1	7
479.482	1	0
479.652	1	11
479.822	1	3
479.993	1	4
480.163	1	6
480.333	1	8
480.504	1	6
480.674	1	11
480.844	1	1
481.015	1	14
481.185	1	12
481.355	1	4
481.525	1	-10
481.696	1	10
481.866	1	5
482.036	1	-2
482.207	1	14
482.377	1	1
482.547	1	2
482.718	1	10
482.888	1	13
483.058	1	7
483.229	1	0
483.399	1	11
483.569	1	-5
483.740	1	5
483.910	1	-8
484.080	1	9
484.250	1	-3
484.421	1	-3
484.591	1	7
484.761	1	16
484.932	1	-2
485.102	1	13
485.272	1	5
485.443	1	2
485.613	1	13
485.783	1	5
485.953	1	10
486.124	1	3
486.294	1	1
486.464	1	12
486.635	1	-1
486.805	1	2
486.975	1	-1
487.146	1	4
487.316	1	2
487.486	1	1
487.656	1	7
487.827	1	6
487.997	1	4
488.167	1	5
488.338	1	9
488.508	1	13
488.678	1	1
488.848	1	2
489.019	1	-10
489.189	1	3
489.359	1	-4
489.529	1	10
489.700	1	11
489.870	1	10
490.040	1	-1
490.211	1	-2
490.381	1	0
490.551	1	9
490.721	1	12
490.892	1	-8
491.062	1	-4
491.232	1	2
491.402	1	-1
491.573	1	21
491.743	1	1
491.913	1	-1
492.084	1	5
492.254	1	3
492.424	1	4
492.594	1	-1
492.765	1	10
492.935	1	6
493.105	1	-5
493.275	1	2
493.446	1	-6
493.616	1	1
493.786	1	6
493.956	1	3
494.127	1	-3
494.297	1	-3
494.467	1	4
494.637	1	5
494.808	1	6
494.978	1	3
495.148	1	2
495.318	1	3
495.489	1	4
495.659	1	5
495.829	1	1
495.999	1	11
496.170	1	2
496.340	1	7
496.510	1	8
496.680	1	2
496.851	1	16
497.021	1	-2
497.191	1	15
497.361	1	-16
497.532	1	-1
497.702	1	7
497.872	1	4
498.042	1	4
498.213	1	3
498.383	1	0
498.553	1	8
498.723	1	5
498.894	1	2
499.064	1	-4
499.234	1	5
499.404	1	11
499.574	1	2
499.745	1	8
499.915	1	2
500.085	1	3
500.255	1	-15
500.426	1	3
500.596	1	-7
500.766	1	-9
500.936	1	-5
501.106	1	-3
501.277	1	-3
501.447	1	1
501.617	1	8
501.787	1	0
501.958	1	5
502.128	1	6
502.298	1	6
502.468	1	-6
502.638	1	7
502.809	1	-3
502.979	1	4
503.149	1	4
503.319	1	7
503.489	1	-7
503.660	1	-6
503.830	1	-9
504.000	1	-2
504.170	1	6
504.340	1	-6
504.511	1	3
504.681	1	-1
504.851	1	-2
505.021	1	-3
505.192	1	-4
505.362	1	-1
505.532	1	-7
505.702	1	11
505.872	1	0
506.043	1	1
506.213	1	10
506.383	1	10
506.553	1	-2
506.723	1	-6
506.893	1	4
507.064	1	11
507.234	1	-6
507.404	1	-13
507.574	1	-2
507.744	1	2
507.915	1	1
508.085	1	3
508.255	1	3
508.425	1	2
508.595	1	0
508.766	1	-13
508.936	1	8
509.106	1	5
509.276	1	8
509.446	1	0
509.616	1	-2
509.787	1	-1
509.957	1	-3
510.127	1	-10
510.297	1	-3
510.467	1	12
510.638	1	-3
510.808	1	11
510.978	1	4
511.148	1	4
511.318	1	1
511.488	1	5
511.659	1	-1
511.829	1	-7
511.999	1	4
512.169	1	8
512.339	1	9
512.509	1	-4
512.680	1	-1
512.850	1	0
513.020	1	2
513.190	1	-3
513.360	1	3
513.530	1	1
513.700	1	-2
513.871	1	0
514.041	1	4
514.211	1	2
514.381	1	4
514.551	1	-5
514.721	1	5
514.892	1	0
515.062	1	4
515.232	1	-8
515.402	1	5
515.572	1	2
515.742	1	7
515.912	1	5
516.083	1	5
516.253	1	9
516.423	1	-4
516.593	1	-7
516.763	1	4
516.933	1	1
517.104	1	6
517.274	1	-6
517.444	1	3
517.614	1	-4
517.784	1	15
517.954	1	-9
518.124	1	1
518.294	1	-1
518.465	1	-2
518.635	1	4
518.805	1	3
518.975	1	4
519.145	1	4
519.315	1	4
519.485	1	-2
519.656	1	-6
519.826	1	-3
519.996	1	1
520.166	1	-10
520.336	1	6
520.506	1	3
520.676	1	4
520.846	1	4
521.017	1	-3
521.187	1	7
521.357	1	-2
521.527	1	-3
521.697	1	-1
521.867	1	5
522.037	1	4
522.207	1	-3
522.377	1	5
522.548	1	-11
522.718	1	6
522.888	1	8
523.058	1	5
523.228	1	-1
523.398	1	1
523.568	1	-12
523.738	1	-9
523.909	1	-2
524.079	1	-4
524.249	1	4
524.419	1	-3
524.589	1	7
524.759	1	2
524.929	1	-3
525.099	1	-5
525.269	1	-2
525.439	1	2
525.610	1	18
525.780	1	-4
525.950	1	4
526.120	1	-6
526.290	1	-7
526.460	1	-6
526.630	1	6
526.800	1	-9
526.970	1	3
527.140	1	-2
527.311	1	-5
527.481	1	11
527.651	1	0
527.821	1	-7
527.991	1	-5
528.161	1	15
528.331	1	-3
528.501	1	0
528.671	1	2
528.841	1	-1
529.011	1	-2
529.181	1	9
529.352	1	5
529.522	1	9
529.692	1	13
529.862	1	-13
530.032	1	-3
530.202	1	-7
530.372	1	0
530.542	1	4
530.712	1	2
530.882	1	0
531.052	1	1
531.222	1	7
531.392	1	-8
531.563	1	4
531.733	1	-8
531.903	1	-4
532.073	1	-2
532.243	1	9
532.413	1	19
532.583	1	6
532.753	1	2
532.923	1	3
533.093	1	-3
533.263	1	-7
533.433	1	-6
533.603	1	-3
533.773	1	1
533.943	1	-3
534.113	1	7
534.284	1	1
534.454	1	-5
534.624	1	2
534.794	1	0
534.964	1	4
535.134	1	-13
535.304	1	6
535.474	1	0
535.644	1	6
535.814	1	-1
535.984	1	3
536.154	1	1
536.324	1	4
536.494	1	9
536.664	1	2
536.834	1	-3
537.004	1	8
537.174	1	10
537.344	1	3
537.514	1	-8
537.685	1	12
537.855	1	-4
538.025	1	15
538.195	1	-10
538.365	1	5
538.535	1	-6
538.705	1	7
538.875	1	-2
539.045	1	8
539.215	1	-8
539.385	1	9
539.555	1	-6
539.725	1	3
539.895	1	4
540.065	1	3
540.235	1	-2
540.405	1	6
540.575	1	0
540.745	1	12
540.915	1	4
541.085	1	-8
541.255	1	4
541.425	1	2
541.595	1	-2
541.765	1	2
541.935	1	1
542.105	1	-4
542.275	1	-4
542.445	1	3
542.615	1	2
542.785	1	1
542.955	1	6
543.125	1	4
543.295	1	-4
543.465	1	8
543.635	1	-5
543.805	1	2
543.975	1	-3
544.145	1	1
544.315	1	-6
544.485	1	0
544.655	1	7
544.825	1	4
544.995	1	-7
545.165	1	3
545.335	1	4
545.505	1	2
545.675	1	10
545.845	1	-1
546.015	1	-3
546.185	1	-5
546.355	1	5
546.525	1	0
546.695	1	-5
546.865	1	-2
547.035	1	-2
547.205	1	7
547.375	1	8
547.545	1	2
547.715	1	-4
547.885	1	-7
548.055	1	-7
548.225	1	-4
548.395	1	1
548.565	1	5
548.735	1	-10
548.905	1	3
549.075	1	-2
549.245	1	3
549.415	1	1
549.585	1	0
549.755	1	4
549.925	1	2
550.095	1	-4
550.265	1	3
550.435	1	-2
550.605	1	2
550.775	1	-9
550.945	1	-2
551.115	1	3
551.285	1	-3
551.455	1	5
551.625	1	-2
551.795	1	-2
551.965	1	0
552.135	1	-1
552.305	1	-1
552.475	1	3
552.645	1	-4
552.815	1	-3
552.985	1	-1
553.155	1	-9
553.325	1	-5
553.495	1	-5
553.665	1	3
553.835	1	2
554.004	1	5
554.174	1	-9
554.344	1	10
554.514	1	-6
554.684	1	3
554.854	1	-17
555.024	1	4
555.194	1	-4
555.364	1	-8
555.534	1	-11
555.704	1	7
555.874	1	-1
556.044	1	-2
556.214	1	-2
556.384	1	1
556.554	1	-1
556.724	1	-1
556.894	1	-2
557.064	1	-4
557.234	1	-10
557.404	1	2
557.573	1	3
557.743	1	-4
557.913	1	1
558.083	1	5
558.253	1	2
558.423	1	10
558.593	1	8
558.763	1	-5
558.933	1	-7
559.103	1	-7
559.273	1	9
559.443	1	1
559.613	1	0
559.783	1	4
559.953	1	-13
560.122	1	7
560.292	1	-12
560.462	1	-2
560.632	1	-6
560.802	1	-2
560.972	1	-7
561.142	1	3
561.312	1	-7
561.482	1	6
561.652	1	-1
561.822	1	0
561.992	1	2
562.162	1	2
562.331	1	-5
562.501	1	-2
562.671	1	-4
562.841	1	-14
563.011	1	9
563.181	1	-9
563.351	1	-3
563.521	1	-11
563.691	1	5
563.861	1	-2
564.031	1	-2
564.201	1	2
564.370	1	11
564.540	1	-6
564.710	1	-2
564.880	1	-9
565.050	1	-8
565.220	1	6
565.390	1	-1
565.560	1	-2
565.730	1	6
565.900	1	1
566.069	1	18
566.239	1	6
566.409	1	10
566.579	1	4
566.749	1	0
566.919	1	-7
567.089	1	-12
567.259	1	-4
567.429	1	-7
567.599	1	3
567.768	1	-8
567.938	1	-2
568.108	1	0
568.278	1	2
568.448	1	3
568.618	1	1
568.788	1	0
568.958	1	1
569.128	1	-2
569.297	1	-5
569.467	1	6
569.637	1	2
569.807	1	4
569.977	1	-7
570.147	1	1
570.317	1	-1
570.487	1	-3
570.656	1	-6
570.826	1	-4
570.996	1	16
571.166	1	-1
571.336	1	-8
571.506	1	-7
571.676	1	2
571.846	1	7
572.015	1	0
572.185	1	-2
572.355	1	-8
572.525	1	-19
572.695	1	0
572.865	1	-2
573.035	1	-6
573.205	1	-5
573.374	1	2
573.544	1	-1
573.714	1	-3
573.884	1	-8
574.054	1	-6
574.224	1	2
574.394	1	5
574.563	1	-8
574.733	1	-4
574.903	1	-7
575.073	1	-1
575.243	1	3
575.413	1	-8
575.583	1	2
575.752	1	-2
575.922	1	6
576.092	1	-17
576.262	1	3
576.432	1	-7
576.602	1	-2
576.772	1	-4
576.941	1	4
577.111	1	-6
577.281	1	-2
577.451	1	2
577.621	1	3
577.791	1	2
577.960	1	-9
578.130	1	0
578.300	1	0
578.470	1	-2
578.640	1	0
578.810	1	2
578.979	1	3
579.149	1	1
579.319	1	-3
579.489	1	9
579.659	1	-2
579.829	1	-9
579.998	1	-8
580.168	1	-3
580.338	1	-2
580.508	1	-4
580.678	1	2
580.848	1	-4
581.017	1	0
581.187	1	4
581.357	1	0
581.527	1	-5
581.697	1	1
581.867	1	-4
582.036	1	-10
582.206	1	-5
582.376	1	-5
582.546	1	0
582.716	1	0
582.885	1	1
583.055	1	-6
583.225	1	0
583.395	1	3
583.565	1	11
583.735	1	9
583.904	1	-7
584.074	1	-5
584.244	1	-3
584.414	1	-10
584.584	1	1
584.753	1	1
584.923	1	-3
585.093	1	-3
585.263	1	-1
585.433	1	-7
585.602	1	8
585.772	1	3
585.942	1	-2
586.112	1	5
586.282	1	-6
586.451	1	11
586.621	1	-5
586.791	1	-11
586.961	1	-20
587.131	1	-8
587.300	1	8
587.470	1	-1
587.640	1	-3
587.810	1	-11
587.980	1	6
588.149	1	7
588.319	1	12
588.489	1	1
588.659	1	1
588.829	1	-1
588.998	1	-7
589.168	1	-3
589.338	1	-3
589.508	1	5
589.677	1	-1
589.847	1	4
590.017	1	-7
590.187	1	3
590.357	1	5
590.526	1	-6
590.696	1	2
590.866	1	-12
591.036	1	6
591.205	1	-2
591.375	1	6
591.545	1	-7
591.715	1	-9
591.885	1	2
592.054	1	10
592.224	1	-10
592.394	1	-6
592.564	1	-5
592.733	1	6
592.903	1	6
593.073	1	-8
593.243	1	14
593.412	1	-14
593.582	1	0
593.752	1	-11
593.922	1	2
594.091	1	5
594.261	1	-3
594.431	1	-1
594.601	1	-5
594.771	1	-3
594.940	1	-6
595.110	1	7
595.280	1	2
595.450	1	0
595.619	1	6
595.789	1	-4
595.959	1	-4
596.129	1	-5
596.298	1	16
596.468	1	6
596.638	1	-11
596.808	1	-16
596.977	1	7
597.147	1	0
597.317	1	0
597.487	1	0
597.656	1	3
597.826	1	2
597.996	1	-4
598.166	1	9
598.335	1	-14
598.505	1	3
598.675	1	1
598.844	1	14
599.014	1	-11
599.184	1	-1
599.354	1	3
599.523	1	-10
599.693	1	-2
599.863	1	2
600.033	1	3
600.202	1	2
600.372	1	-7
600.542	1	-5
600.712	1	0
600.881	1	4
601.051	1	4
601.221	1	2
601.390	1	-5
601.560	1	-2
601.730	1	3
601.900	1	1
602.069	1	-3
602.239	1	-7
602.409	1	6
602.578	1	6
602.748	1	11
602.918	1	-10
603.088	1	6
603.257	1	-15
603.427	1	-2
603.597	1	-2
603.767	1	11
603.936	1	1
604.106	1	0
604.276	1	0
604.445	1	-6
604.615	1	3
604.785	1	2
604.954	1	2
605.124	1	-6
605.294	1	-11
605.464	1	-9
605.633	1	1
605.803	1	2
605.973	1	-3
606.142	1	9
606.312	1	7
606.482	1	-11
606.652	1	3
606.821	1	2
606.991	1	-5
607.161	1	-3
607.330	1	-8
607.500	1	5
607.670	1	-1
607.839	1	-4
608.009	1	-2
608.179	1	-2
608.348	1	-3
608.518	1	8
608.688	1	-6
608.858	1	2
609.027	1	5
609.197	1	-1
609.367	1	-14
609.536	1	-6
609.706	1	6
609.876	1	3
610.045	1	-5
610.215	1	6
610.385	1	0
610.554	1	1
610.724	1	0
610.894	1	12
611.063	1	-1
611.233	1	3
611.403	1	3
611.572	1	0
611.742	1	-9
611.912	1	-1
612.081	1	6
612.251	1	-1
612.421	1	0
612.590	1	-2
612.760	1	4
612.930	1	2
613.099	1	5
613.269	1	2
613.439	1	-18
613.608	1	-5
613.778	1	-1
613.948	1	11
614.117	1	-4
614.287	1	2
614.457	1	-3
614.626	1	-1
614.796	1	-2
614.966	1	-6
615.135	1	12
615.305	1	4
615.475	1	-7
615.644	1	15
615.814	1	6
615.984	1	-1
616.153	1	-6
616.323	1	1
616.493	1	-5
616.662	1	-8
616.832	1	1
617.002	1	-7
617.171	1	-3
617.341	1	8
617.511	1	-7
617.680	1	-4
617.850	1	-4
618.019	1	-6
618.189	1	5
618.359	1	-1
618.528	1	0
618.698	1	3
618.868	1	-2
619.037	1	3
619.207	1	-4
619.377	1	-3
619.546	1	3
619.716	1	4
619.885	1	-3
620.055	1	-2
620.225	1	-3
620.394	1	4
620.564	1	2
620.734	1	2
620.903	1	-17
621.073	1	-2
621.242	1	-4
621.412	1	-2
621.582	1	3
621.751	1	-1
621.921	1	3
622.091	1	-4
622.260	1	9
622.430	1	6
622.599	1	-4
622.769	1	-11
622.939	1	-7
623.108	1	1
623.278	1	-5
623.448	1	-9
623.617	1	-2
623.787	1	7
623.956	1	6
624.126	1	4
624.296	1	-1
624.465	1	9
624.635	1	0
624.804	1	-10
624.974	1	-1
625.144	1	5
625.313	1	10
625.483	1	7
625.652	1	1
625.822	1	12
625.992	1	-7
626.161	1	1
626.331	1	-4
626.501	1	-2
626.670	1	-8
626.840	1	9
627.009	1	-1
627.179	1	-4
627.348	1	0
627.518	1	15
627.688	1	0
627.857	1	6
628.027	1	7
628.196	1	2
628.366	1	-10
628.536	1	-1
628.705	1	-3
628.875	1	2
629.044	1	-1
629.214	1	4
629.384	1	6
629.553	1	5
629.723	1	4
629.892	1	-3
630.062	1	0
630.232	1	-2
630.401	1	3
630.571	1	-6
630.740	1	7
630.910	1	3
631.079	1	1
631.249	1	-4
631.419	1	3
631.588	1	0
631.758	1	-7
631.927	1	14
632.097	1	1
632.266	1	9
632.436	1	-6
632.606	1	5
632.775	1	7
632.945	1	-5
633.114	1	-6
633.284	1	-1
633.453	1	4
633.623	1	14
633.793	1	3
633.962	1	2
634.132	1	4
634.301	1	14
634.471	1	-1
634.640	1	-8
634.810	1	-3
634.979	1	-3
635.149	1	-3
635.319	1	-2
635.488	1	1
635.658	1	0
635.827	1	4
635.997	1	9
636.166	1	0
636.336	1	-7
636.505	1	-4
636.675	1	2
636.845	1	-6
637.014	1	-5
637.184	1	4
637.353	1	-4
637.523	1	-9
637.692	1	-4
637.862	1	-5
638.031	1	-10
638.201	1	-3
638.370	1	5
638.540	1	-8
638.710	1	-1
638.879	1	-8
639.049	1	-4
639.218	1	7
639.388	1	1
639.557	1	8
639.727	1	1
639.896	1	-1
640.066	1	-1
640.235	1	-2
640.405	1	-3
640.574	1	3
640.744	1	-3
640.914	1	3
641.083	1	3
641.253	1	-3
641.422	1	-7
641.592	1	8
641.761	1	0
641.931	1	7
642.100	1	2
642.270	1	-5
642.439	1	-5
642.609	1	10
642.778	1	2
642.948	1	11
643.117	1	11
643.287	1	1
643.456	1	-7
643.626	1	1
643.795	1	2
643.965	1	-6
644.134	1	-7
644.304	1	5
644.473	1	2
644.643	1	6
644.812	1	-4
644.982	1	-7
645.151	1	-9
645.321	1	10
645.490	1	17
645.660	1	-6
645.829	1	1
645.999	1	-5
646.168	1	12
646.338	1	-13
646.507	1	-11
646.677	1	5
646.846	1	1
647.016	1	10
647.185	1	0
647.355	1	7
647.524	1	-5
647.694	1	-4
647.863	1	-5
648.033	1	0
648.202	1	-6
648.372	1	-3
648.541	1	-2
648.711	1	-6
648.880	1	-3
649.050	1	0
649.219	1	-2
649.389	1	-5
649.558	1	2
649.728	1	7
649.897	1	7
650.067	1	2
650.236	1	-3
650.406	1	-12
650.575	1	4
650.745	1	7
650.914	1	10
651.084	1	1
651.253	1	-2
651.423	1	-8
651.592	1	-2
651.762	1	-4
651.931	1	6
652.101	1	-7
652.270	1	-1
652.440	1	5
652.609	1	0
652.778	1	-2
652.948	1	3
653.117	1	-5
653.287	1	-3
653.456	1	-6
653.626	1	2
653.795	1	-5
653.965	1	-3
654.134	1	-10
654.304	1	1
654.473	1	-2
654.643	1	1
654.812	1	8
654.982	1	-2
655.151	1	2
655.320	1	-1
655.490	1	-9
655.659	1	13
655.829	1	2
655.998	1	6
656.168	1	-8
656.337	1	1
656.507	1	-4
656.676	1	0
656.846	1	-2
657.015	1	11
657.184	1	4
657.354	1	1
657.523	1	0
657.693	1	-1
657.862	1	-3
658.032	1	3
658.201	1	-9
658.371	1	5
658.540	1	-1
658.709	1	1
658.879	1	7
659.048	1	10
659.218	1	-6
659.387	1	8
659.557	1	1
659.726	1	-3
659.895	1	-8
660.065	1	-1
660.234	1	-5
660.404	1	4
660.573	1	-1
660.743	1	0
660.912	1	11
661.081	1	-4
661.251	1	-6
661.420	1	2
661.590	1	-10
661.759	1	7
661.929	1	-2
662.098	1	3
662.267	1	-10
662.437	1	6
662.606	1	1
662.776	1	1
662.945	1	12
663.115	1	3
663.284	1	8
663.453	1	-7
663.623	1	1
663.792	1	4
663.962	1	6
664.131	1	-6
664.300	1	-4
664.470	1	-8
664.639	1	0
664.809	1	-1
664.978	1	12
665.148	1	5
665.317	1	-10
665.486	1	-2
665.656	1	3
665.825	1	-4
665.995	1	-6
666.164	1	-2
666.333	1	6
666.503	1	-8
666.672	1	2
666.842	1	3
667.011	1	4
667.180	1	-9
667.350	1	-2
667.519	1	9
667.689	1	6
667.858	1	10
668.027	1	-7
668.197	1	-2
668.366	1	-3
668.536	1	-8
668.705	1	-6
668.874	1	4
669.044	1	9
669.213	1	-4
669.382	1	12
669.552	1	2
669.721	1	2
669.891	1	1
670.060	1	1
670.229	1	13
670.399	1	4
670.568	1	1
670.738	1	-5
670.907	1	5
671.076	1	1
671.246	1	5
671.415	1	6
671.584	1	10
671.754	1	-5
671.923	1	-5
672.093	1	8
672.262	1	-2
672.431	1	-18
672.601	1	0
672.770	1	8
672.939	1	5
673.109	1	-2
673.278	1	9
673.448	1	2
673.617	1	-5
673.786	1	-11
