325.333	1	14
325.504	1	-5
325.675	1	19
325.846	1	1
326.017	1	8
326.188	1	6
326.359	1	4
326.531	1	-1
326.702	1	3
326.873	1	13
327.044	1	10
327.215	1	6
327.386	1	9
327.557	1	6
327.728	1	6
327.899	1	7
328.070	1	8
328.241	1	-1
328.412	1	-2
328.583	1	0
328.754	1	5
328.926	1	14
329.097	1	3
329.268	1	4
329.439	1	13
329.610	1	9
329.781	1	2
329.952	1	9
330.123	1	4
330.294	1	4
330.465	1	-7
330.636	1	8
330.807	1	5
330.978	1	-2
331.149	1	7
331.320	1	3
331.492	1	13
331.663	1	11
331.834	1	5
332.005	1	6
332.176	1	14
332.347	1	-4
332.518	1	14
332.689	1	13
332.860	1	4
333.031	1	9
333.202	1	-2
333.373	1	8
333.544	1	9
333.715	1	2
333.886	1	8
334.057	1	0
334.228	1	15
334.399	1	20
334.570	1	16
334.741	1	11
334.912	1	16
335.084	1	16
335.255	1	11
335.426	1	13
335.597	1	18
335.768	1	7
335.939	1	16
336.110	1	15
336.281	1	-1
336.452	1	26
336.623	1	10
336.794	1	12
336.965	1	11
337.136	1	16
337.307	1	5
337.478	1	9
337.649	1	-2
337.820	1	1
337.991	1	8
338.162	1	3
338.333	1	13
338.504	1	18
338.675	1	0
338.846	1	-4
339.017	1	19
339.188	1	13
339.359	1	10
339.530	1	-1
339.701	1	15
339.872	1	16
340.043	1	12
340.214	1	6
340.385	1	1
340.556	1	9
340.727	1	17
340.898	1	11
341.069	1	8
341.240	1	6
341.411	1	16
341.582	1	7
341.753	1	8
341.924	1	18
342.095	1	5
342.266	1	19
342.437	1	7
342.608	1	15
342.779	1	12
342.950	1	9
343.121	1	17
343.292	1	16
343.463	1	13
343.634	1	3
343.805	1	12
343.976	1	29
344.147	1	9
344.318	1	10
344.489	1	3
344.660	1	12
344.831	1	17
345.002	1	16
345.173	1	10
345.344	1	12
345.515	1	9
345.686	1	17
345.857	1	17
346.028	1	24
346.199	1	22
346.370	1	20
346.541	1	11
346.712	1	7
346.883	1	12
347.054	1	14
347.225	1	9
347.396	1	13
347.567	1	9
347.738	1	16
347.909	1	13
348.080	1	10
348.251	1	11
348.422	1	17
348.593	1	8
348.764	1	13
348.935	1	12
349.106	1	10
349.277	1	8
349.448	1	6
349.619	1	18
349.790	1	10
349.961	1	13
350.132	1	20
350.303	1	16
350.474	1	14
350.645	1	13
350.816	1	18
350.987	1	24
351.157	1	7
351.328	1	10
351.499	1	24
351.670	1	11
351.841	1	19
352.012	1	28
352.183	1	21
352.354	1	11
352.525	1	22
352.696	1	4
352.867	1	17
353.038	1	15
353.209	1	6
353.380	1	23
353.551	1	16
353.722	1	24
353.893	1	20
354.064	1	18
354.235	1	21
354.406	1	6
354.576	1	6
354.747	1	28
354.918	1	14
355.089	1	18
355.260	1	17
355.431	1	11
355.602	1	24
355.773	1	8
355.944	1	16
356.115	1	28
356.286	1	25
356.457	1	22
356.628	1	21
356.799	1	14
356.970	1	18
357.141	1	13
357.311	1	26
357.482	1	12
357.653	1	14
357.824	1	27
357.995	1	23
358.166	1	17
358.337	1	20
358.508	1	29
358.679	1	14
358.850	1	36
359.021	1	14
359.192	1	24
359.363	1	22
359.533	1	20
359.704	1	16
359.875	1	18
360.046	1	19
360.217	1	22
360.388	1	23
360.559	1	31
360.730	1	17
360.901	1	26
361.072	1	25
361.243	1	14
361.414	1	33
361.584	1	8
361.755	1	18
361.926	1	29
362.097	1	14
362.268	1	27
362.439	1	24
362.610	1	16
362.781	1	11
362.952	1	26
363.123	1	18
363.293	1	20
363.464	1	13
363.635	1	31
363.806	1	16
363.977	1	22
364.148	1	21
364.319	1	13
364.490	1	25
364.661	1	23
364.832	1	22
365.002	1	29
365.173	1	14
365.344	1	20
365.515	1	27
365.686	1	22
365.857	1	21
366.028	1	29
366.199	1	22
366.370	1	31
366.540	1	16
366.711	1	21
366.882	1	27
367.053	1	18
367.224	1	24
367.395	1	22
367.566	1	20
367.737	1	18
367.908	1	26
368.078	1	23
368.249	1	25
368.420	1	28
368.591	1	27
368.762	1	28
368.933	1	29
369.104	1	22
369.274	1	32
369.445	1	29
369.616	1	13
369.787	1	22
369.958	1	39
370.129	1	15
370.300	1	23
370.471	1	22
370.641	1	18
370.812	1	31
370.983	1	14
371.154	1	24
371.325	1	21
371.496	1	17
371.667	1	30
371.837	1	16
372.008	1	13
372.179	1	10
372.350	1	28
372.521	1	21
372.692	1	24
372.863	1	26
373.033	1	18
373.204	1	20
373.375	1	26
373.546	1	29
373.717	1	20
373.888	1	26
374.059	1	23
374.229	1	24
374.400	1	21
374.571	1	35
374.742	1	19
374.913	1	7
375.084	1	31
375.254	1	9
375.425	1	18
375.596	1	29
375.767	1	19
375.938	1	10
376.109	1	24
376.279	1	23
376.450	1	33
376.621	1	38
376.792	1	23
376.963	1	17
377.134	1	30
377.304	1	20
377.475	1	9
377.646	1	19
377.817	1	28
377.988	1	25
378.159	1	27
378.329	1	31
378.500	1	36
378.671	1	15
378.842	1	29
379.013	1	29
379.184	1	18
379.354	1	38
379.525	1	29
379.696	1	35
379.867	1	28
380.038	1	29
380.209	1	39
380.379	1	27
380.550	1	13
380.721	1	26
380.892	1	23
381.063	1	24
381.233	1	30
381.404	1	28
381.575	1	26
381.746	1	26
381.917	1	25
382.087	1	32
382.258	1	26
382.429	1	30
382.600	1	36
382.771	1	28
382.941	1	35
383.112	1	25
383.283	1	33
383.454	1	21
383.625	1	26
383.795	1	36
383.966	1	41
384.137	1	38
384.308	1	30
384.479	1	33
384.649	1	31
384.820	1	38
384.991	1	30
385.162	1	29
385.333	1	27
385.503	1	28
385.674	1	34
385.845	1	32
386.016	1	38
386.187	1	25
386.357	1	31
386.528	1	37
386.699	1	24
386.870	1	23
387.041	1	40
387.211	1	29
387.382	1	50
387.553	1	26
387.724	1	35
387.894	1	24
388.065	1	36
388.236	1	23
388.407	1	30
388.578	1	37
388.748	1	34
388.919	1	27
389.090	1	39
389.261	1	40
389.431	1	23
389.602	1	33
389.773	1	40
389.944	1	36
390.114	1	31
390.285	1	41
390.456	1	32
390.627	1	30
390.798	1	36
390.968	1	44
391.139	1	39
391.310	1	32
391.481	1	39
391.651	1	39
391.822	1	43
391.993	1	28
392.164	1	29
392.334	1	27
392.505	1	40
392.676	1	28
392.847	1	36
393.017	1	29
393.188	1	30
393.359	1	40
393.530	1	46
393.700	1	41
393.871	1	50
394.042	1	36
394.213	1	37
394.383	1	34
394.554	1	31
394.725	1	25
394.896	1	36
395.066	1	36
395.237	1	43
395.408	1	40
395.579	1	33
395.749	1	45
395.920	1	46
396.091	1	30
396.262	1	29
396.432	1	26
396.603	1	27
396.774	1	35
396.945	1	40
397.115	1	50
397.286	1	46
397.457	1	40
397.627	1	33
397.798	1	41
397.969	1	39
398.140	1	38
398.310	1	34
398.481	1	34
398.652	1	31
398.823	1	35
398.993	1	41
399.164	1	42
399.335	1	28
399.505	1	35
399.676	1	40
399.847	1	35
400.018	1	32
400.188	1	40
400.359	1	40
400.530	1	32
400.700	1	31
400.871	1	44
401.042	1	37
401.213	1	40
401.383	1	48
401.554	1	31
401.725	1	30
401.895	1	26
402.066	1	35
402.237	1	36
402.408	1	36
402.578	1	52
402.749	1	37
402.920	1	34
403.090	1	31
403.261	1	40
403.432	1	34
403.603	1	42
403.773	1	45
403.944	1	49
404.115	1	40
404.285	1	35
404.456	1	40
404.627	1	48
404.797	1	41
404.968	1	32
405.139	1	36
405.310	1	36
405.480	1	48
405.651	1	36
405.822	1	37
405.992	1	38
406.163	1	33
406.334	1	38
406.504	1	33
406.675	1	32
406.846	1	38
407.016	1	40
407.187	1	50
407.358	1	31
407.528	1	46
407.699	1	43
407.870	1	35
408.041	1	39
408.211	1	46
408.382	1	33
408.553	1	41
408.723	1	42
408.894	1	40
409.065	1	40
409.235	1	48
409.406	1	42
409.577	1	38
409.747	1	37
409.918	1	53
410.089	1	44
410.259	1	37
410.430	1	40
410.601	1	40
410.771	1	44
410.942	1	48
411.113	1	40
411.283	1	40
411.454	1	45
411.625	1	40
411.795	1	39
411.966	1	36
412.137	1	45
412.307	1	46
412.478	1	44
412.649	1	38
412.819	1	42
412.990	1	52
413.161	1	44
413.331	1	42
413.502	1	34
413.672	1	40
413.843	1	35
414.014	1	33
414.184	1	38
414.355	1	38
414.526	1	41
414.696	1	37
414.867	1	32
415.038	1	31
415.208	1	27
415.379	1	39
415.550	1	38
415.720	1	29
415.891	1	43
416.062	1	33
416.232	1	43
416.403	1	43
416.573	1	39
416.744	1	41
416.915	1	36
417.085	1	42
417.256	1	38
417.427	1	38
417.597	1	30
417.768	1	40
417.939	1	37
418.109	1	35
418.280	1	36
418.450	1	49
418.621	1	33
418.792	1	34
418.962	1	42
419.133	1	34
419.304	1	29
419.474	1	36
419.645	1	41
419.815	1	39
419.986	1	38
420.157	1	40
420.327	1	34
420.498	1	31
420.669	1	40
420.839	1	48
421.010	1	30
421.180	1	39
421.351	1	37
421.522	1	40
421.692	1	46
421.863	1	35
422.033	1	42
422.204	1	43
422.375	1	33
422.545	1	37
422.716	1	30
422.886	1	42
423.057	1	39
423.228	1	36
423.398	1	49
423.569	1	44
423.740	1	42
423.910	1	34
424.081	1	37
424.251	1	45
424.422	1	35
424.593	1	45
424.763	1	54
424.934	1	43
425.104	1	50
425.275	1	32
425.445	1	35
425.616	1	42
425.787	1	37
425.957	1	30
426.128	1	40
426.298	1	44
426.469	1	34
426.640	1	34
426.810	1	22
426.981	1	47
427.151	1	37
427.322	1	30
427.493	1	27
427.663	1	40
427.834	1	38
428.004	1	49
428.175	1	44
428.345	1	34
428.516	1	35
428.687	1	51
428.857	1	39
429.028	1	44
429.198	1	32
429.369	1	31
429.540	1	40
429.710	1	33
429.881	1	40
430.051	1	42
430.222	1	51
430.392	1	44
430.563	1	24
430.734	1	41
430.904	1	39
431.075	1	37
431.245	1	44
431.416	1	33
431.586	1	26
431.757	1	38
431.927	1	34
432.098	1	42
432.269	1	34
432.439	1	38
432.610	1	40
432.780	1	29
432.951	1	34
433.121	1	35
433.292	1	35
433.462	1	38
433.633	1	36
433.804	1	37
433.974	1	41
434.145	1	30
434.315	1	39
434.486	1	24
434.656	1	45
434.827	1	37
434.997	1	45
435.168	1	38
435.339	1	40
435.509	1	36
435.680	1	41
435.850	1	25
436.021	1	28
436.191	1	30
436.362	1	38
436.532	1	37
436.703	1	49
436.873	1	39
437.044	1	36
437.214	1	30
437.385	1	36
437.556	1	40
437.726	1	35
437.897	1	34
438.067	1	36
438.238	1	38
438.408	1	28
438.579	1	35
438.749	1	31
438.920	1	40
439.090	1	23
439.261	1	41
439.431	1	30
439.602	1	32
439.772	1	35
439.943	1	39
440.113	1	40
440.284	1	36
440.455	1	25
440.625	1	39
440.796	1	32
440.966	1	33
441.137	1	37
441.307	1	35
441.478	1	20
441.648	1	20
441.819	1	37
441.989	1	41
442.160	1	19
442.330	1	45
442.501	1	29
442.671	1	33
442.842	1	30
443.012	1	33
443.183	1	34
443.353	1	39
443.524	1	24
443.694	1	31
443.865	1	31
444.035	1	36
444.206	1	29
444.376	1	37
444.547	1	33
444.717	1	28
444.888	1	21
445.058	1	37
445.229	1	36
445.399	1	32
445.570	1	33
445.740	1	32
445.911	1	34
446.081	1	31
446.252	1	35
446.422	1	29
446.593	1	29
446.763	1	32
446.934	1	27
447.104	1	24
447.275	1	34
447.445	1	36
447.616	1	29
447.786	1	21
447.957	1	24
448.127	1	24
448.298	1	32
448.468	1	31
448.639	1	24
448.809	1	28
448.979	1	29
449.150	1	29
449.320	1	27
449.491	1	24
449.661	1	23
449.832	1	22
450.002	1	26
450.173	1	21
450.343	1	22
450.514	1	36
450.684	1	29
450.855	1	36
451.025	1	24
451.196	1	23
451.366	1	38
451.537	1	37
451.707	1	31
451.878	1	28
452.048	1	24
452.218	1	31
452.389	1	33
452.559	1	32
452.730	1	32
452.900	1	30
453.071	1	33
453.241	1	30
453.412	1	21
453.582	1	29
453.753	1	42
453.923	1	23
454.093	1	23
454.264	1	33
454.434	1	40
454.605	1	23
454.775	1	36
454.946	1	22
455.116	1	36
455.287	1	18
455.457	1	29
455.628	1	27
455.798	1	33
455.968	1	31
456.139	1	24
456.309	1	26
456.480	1	24
456.650	1	26
456.821	1	22
456.991	1	33
457.161	1	37
457.332	1	19
457.502	1	18
457.673	1	22
457.843	1	30
458.014	1	31
458.184	1	30
458.355	1	27
458.525	1	28
458.695	1	28
458.866	1	23
459.036	1	29
459.207	1	34
459.377	1	21
459.548	1	22
459.718	1	26
459.888	1	14
460.059	1	23
460.229	1	25
460.400	1	19
460.570	1	18
460.740	1	29
460.911	1	17
461.081	1	33
461.252	1	21
461.422	1	17
461.593	1	30
461.763	1	26
461.933	1	19
462.104	1	18
462.274	1	8
462.445	1	16
462.615	1	33
462.785	1	18
462.956	1	11
463.126	1	32
463.297	1	20
463.467	1	28
463.638	1	35
463.808	1	19
463.978	1	17
464.149	1	25
464.319	1	26
464.490	1	23
464.660	1	18
464.830	1	19
465.001	1	18
465.171	1	17
465.342	1	14
465.512	1	29
465.682	1	15
465.853	1	20
466.023	1	24
466.194	1	24
466.364	1	27
466.534	1	8
466.705	1	29
466.875	1	2
467.045	1	13
467.216	1	19
467.386	1	18
467.557	1	28
467.727	1	23
467.897	1	16
468.068	1	17
468.238	1	27
468.409	1	18
468.579	1	18
468.749	1	28
468.920	1	10
469.090	1	27
469.260	1	18
469.431	1	19
469.601	1	21
469.772	1	30
469.942	1	27
470.112	1	14
470.283	1	21
470.453	1	29
470.623	1	16
470.794	1	33
470.964	1	19
471.135	1	21
471.305	1	21
471.475	1	27
471.646	1	16
471.816	1	18
471.986	1	18
472.157	1	21
472.327	1	20
472.497	1	13
472.668	1	23
472.838	1	16
473.009	1	21
473.179	1	11
473.349	1	17
473.520	1	28
473.690	1	19
473.860	1	8
474.031	1	6
474.201	1	20
474.371	1	13
474.542	1	22
474.712	1	9
474.882	1	19
475.053	1	22
475.223	1	12
475.394	1	15
475.564	1	10
475.734	1	14
475.905	1	24
476.075	1	29
476.245	1	20
476.416	1	12
476.586	1	9
476.756	1	13
476.927	1	11
477.097	1	17
477.267	1	11
477.438	1	28
477.608	1	22
477.778	1	16
477.949	1	9
478.119	1	15
478.289	1	5
478.460	1	8
478.630	1	15
478.800	1	19
478.971	1	17
479.141	1	20
479.311	1	17
479.482	1	16
479.652	1	16
479.822	1	8
479.993	1	17
480.163	1	13
480.333	1	19
480.504	1	20
480.674	1	21
480.844	1	8
481.015	1	17
481.185	1	18
481.355	1	15
481.525	1	6
481.696	1	15
481.866	1	23
482.036	1	26
482.207	1	15
482.377	1	10
482.547	1	23
482.718	1	14
482.888	1	18
483.058	1	17
483.229	1	11
483.399	1	15
483.569	1	17
483.740	1	16
483.910	1	8
484.080	1	20
484.250	1	2
484.421	1	6
484.591	1	9
484.761	1	8
484.932	1	11
485.102	1	17
485.272	1	13
485.443	1	14
485.613	1	16
485.783	1	13
485.953	1	10
486.124	1	11
486.294	1	19
486.464	1	20
486.635	1	4
486.805	1	8
486.975	1	11
487.146	1	16
487.316	1	15
487.486	1	18
487.656	1	14
487.827	1	7
487.997	1	9
488.167	1	18
488.338	1	12
488.508	1	15
488.678	1	9
488.848	1	17
489.019	1	15
489.189	1	16
489.359	1	19
489.529	1	11
489.700	1	17
489.870	1	14
490.040	1	6
490.211	1	5
490.381	1	16
490.551	1	7
490.721	1	15
490.892	1	3
491.062	1	4
491.232	1	14
491.402	1	15
491.573	1	20
491.743	1	11
491.913	1	13
492.084	1	16
492.254	1	8
492.424	1	11
492.594	1	2
492.765	1	14
492.935	1	22
493.105	1	9
493.275	1	13
493.446	1	-1
493.616	1	7
493.786	1	18
493.956	1	5
494.127	1	2
494.297	1	-1
494.467	1	4
494.637	1	11
494.808	1	19
494.978	1	9
495.148	1	8
495.318	1	9
495.489	1	6
495.659	1	12
495.829	1	12
495.999	1	7
496.170	1	7
496.340	1	9
496.510	1	7
496.680	1	13
496.851	1	20
497.021	1	11
497.191	1	18
497.361	1	0
497.532	1	13
497.702	1	11
497.872	1	16
498.042	1	8
498.213	1	2
498.383	1	12
498.553	1	12
498.723	1	18
498.894	1	10
499.064	1	14
499.234	1	4
499.404	1	10
499.574	1	4
499.745	1	13
499.915	1	14
500.085	1	20
500.255	1	-6
500.426	1	15
500.596	1	2
500.766	1	6
500.936	1	1
501.106	1	3
501.277	1	2
501.447	1	11
501.617	1	11
501.787	1	9
501.958	1	6
502.128	1	14
502.298	1	18
502.468	1	3
502.638	1	14
502.809	1	-2
502.979	1	11
503.149	1	6
503.319	1	17
503.489	1	-6
503.660	1	8
503.830	1	21
504.000	1	10
504.170	1	6
504.340	1	-12
504.511	1	6
504.681	1	14
504.851	1	13
505.021	1	17
505.192	1	1
505.362	1	8
505.532	1	7
505.702	1	14
505.872	1	10
506.043	1	7
506.213	1	13
506.383	1	8
506.553	1	14
506.723	1	-8
506.893	1	4
507.064	1	15
507.234	1	-1
507.404	1	2
507.574	1	9
507.744	1	9
507.915	1	15
508.085	1	6
508.255	1	6
508.425	1	10
508.595	1	6
508.766	1	-3
508.936	1	20
509.106	1	14
509.276	1	6
509.446	1	-5
509.616	1	9
509.787	1	1
509.957	1	4
510.127	1	-1
510.297	1	8
510.467	1	10
510.638	1	7
510.808	1	27
510.978	1	8
511.148	1	3
511.318	1	13
511.488	1	8
511.659	1	18
511.829	1	7
511.999	1	14
512.169	1	7
512.339	1	15
512.509	1	-3
512.680	1	-6
512.850	1	5
513.020	1	3
513.190	1	-1
513.360	1	13
513.530	1	6
513.700	1	12
513.871	1	5
514.041	1	14
514.211	1	15
514.381	1	14
514.551	1	12
514.721	1	8
514.892	1	1
515.062	1	4
515.232	1	7
515.402	1	8
515.572	1	13
515.742	1	21
515.912	1	-2
516.083	1	15
516.253	1	14
516.423	1	11
516.593	1	10
516.763	1	8
516.933	1	-6
517.104	1	11
517.274	1	7
517.444	1	11
517.614	1	-2
517.784	1	7
517.954	1	-1
518.124	1	13
518.294	1	11
518.465	1	4
518.635	1	18
518.805	1	8
518.975	1	3
519.145	1	1
519.315	1	3
519.485	1	3
519.656	1	-2
519.826	1	-5
519.996	1	15
520.166	1	2
520.336	1	7
520.506	1	15
520.676	1	6
520.846	1	5
521.017	1	6
521.187	1	12
521.357	1	-1
521.527	1	9
521.697	1	7
521.867	1	8
522.037	1	1
522.207	1	8
522.377	1	13
522.548	1	2
522.718	1	-7
522.888	1	14
523.058	1	11
523.228	1	-6
523.398	1	-1
523.568	1	4
523.738	1	-3
523.909	1	6
524.079	1	8
524.249	1	3
524.419	1	-1
524.589	1	5
524.759	1	10
524.929	1	3
525.099	1	4
525.269	1	13
525.439	1	6
525.610	1	14
525.780	1	9
525.950	1	8
526.120	1	-4
526.290	1	3
526.460	1	0
526.630	1	8
526.800	1	-2
526.970	1	3
527.140	1	16
527.311	1	1
527.481	1	16
527.651	1	6
527.821	1	4
527.991	1	-1
528.161	1	6
528.331	1	-7
528.501	1	1
528.671	1	5
528.841	1	8
529.011	1	8
529.181	1	-1
529.352	1	3
529.522	1	5
529.692	1	12
529.862	1	4
530.032	1	-5
530.202	1	2
530.372	1	-1
530.542	1	2
530.712	1	7
530.882	1	8
531.052	1	7
531.222	1	6
531.392	1	3
531.563	1	11
531.733	1	2
531.903	1	8
532.073	1	4
532.243	1	12
532.413	1	20
532.583	1	5
532.753	1	-3
532.923	1	5
533.093	1	-3
533.263	1	7
533.433	1	-1
533.603	1	0
533.773	1	3
533.943	1	5
534.113	1	7
534.284	1	6
534.454	1	8
534.624	1	5
534.794	1	2
534.964	1	7
535.134	1	1
535.304	1	0
535.474	1	-4
535.644	1	5
535.814	1	7
535.984	1	14
536.154	1	4
536.324	1	8
536.494	1	4
536.664	1	9
536.834	1	8
537.004	1	12
537.174	1	16
537.344	1	11
537.514	1	-2
537.685	1	11
537.855	1	4
538.025	1	13
538.195	1	1
538.365	1	6
538.535	1	3
538.705	1	4
538.875	1	8
539.045	1	10
539.215	1	-3
539.385	1	1
539.555	1	8
539.725	1	-2
539.895	1	7
540.065	1	5
540.235	1	11
540.405	1	0
540.575	1	2
540.745	1	-2
540.915	1	7
541.085	1	-6
541.255	1	2
541.425	1	-2
541.595	1	8
541.765	1	6
541.935	1	3
542.105	1	-2
542.275	1	-2
542.445	1	4
542.615	1	7
542.785	1	7
542.955	1	18
543.125	1	2
543.295	1	8
543.465	1	10
543.635	1	-5
543.805	1	9
543.975	1	7
544.145	1	9
544.315	1	-6
544.485	1	3
544.655	1	11
544.825	1	0
544.995	1	-3
545.165	1	7
545.335	1	7
545.505	1	4
545.675	1	2
545.845	1	11
546.015	1	-5
546.185	1	-6
546.355	1	2
546.525	1	16
546.695	1	0
546.865	1	2
547.035	1	-1
547.205	1	17
547.375	1	12
547.545	1	2
547.715	1	5
547.885	1	-1
548.055	1	-13
548.225	1	12
548.395	1	7
548.565	1	1
548.735	1	-11
548.905	1	14
549.075	1	3
549.245	1	4
549.415	1	12
549.585	1	-1
549.755	1	7
549.925	1	8
550.095	1	0
550.265	1	2
550.435	1	3
550.605	1	-1
550.775	1	-4
550.945	1	2
551.115	1	12
551.285	1	1
551.455	1	10
551.625	1	-4
551.795	1	1
551.965	1	1
552.135	1	0
552.305	1	9
552.475	1	9
552.645	1	0
552.815	1	-3
552.985	1	5
553.155	1	3
553.325	1	0
553.495	1	0
553.665	1	3
553.835	1	0
554.004	1	3
554.174	1	-5
554.344	1	-1
554.514	1	4
554.684	1	7
554.854	1	-4
555.024	1	3
555.194	1	12
555.364	1	5
555.534	1	-10
555.704	1	1
555.874	1	-1
556.044	1	-1
556.214	1	6
556.384	1	10
556.554	1	2
556.724	1	-5
556.894	1	-3
557.064	1	3
557.234	1	-2
557.404	1	-4
557.573	1	4
557.743	1	-9
557.913	1	-4
558.083	1	1
558.253	1	4
558.423	1	9
558.593	1	10
558.763	1	-1
558.933	1	2
559.103	1	-11
559.273	1	18
559.443	1	9
559.613	1	1
559.783	1	6
559.953	1	4
560.122	1	12
560.292	1	-11
560.462	1	4
560.632	1	1
560.802	1	6
560.972	1	-1
561.142	1	5
561.312	1	0
561.482	1	11
561.652	1	9
561.822	1	-4
561.992	1	7
562.162	1	6
562.331	1	-4
562.501	1	8
562.671	1	-1
562.841	1	-11
563.011	1	5
563.181	1	-2
563.351	1	-9
563.521	1	3
563.691	1	-1
563.861	1	2
564.031	1	-1
564.201	1	2
564.370	1	0
564.540	1	-5
564.710	1	6
564.880	1	9
565.050	1	8
565.220	1	8
565.390	1	4
565.560	1	6
565.730	1	11
565.900	1	-8
566.069	1	5
566.239	1	15
566.409	1	5
566.579	1	10
566.749	1	-7
566.919	1	-11
567.089	1	-12
567.259	1	10
567.429	1	0
567.599	1	12
567.768	1	-4
567.938	1	-3
568.108	1	0
568.278	1	9
568.448	1	2
568.618	1	4
568.788	1	2
568.958	1	1
569.128	1	-5
569.297	1	-4
569.467	1	5
569.637	1	8
569.807	1	7
569.977	1	2
570.147	1	8
570.317	1	6
570.487	1	-2
570.656	1	4
570.826	1	0
570.996	1	6
571.166	1	-4
571.336	1	-1
571.506	1	-6
571.676	1	13
571.846	1	13
572.015	1	7
572.185	1	5
572.355	1	-1
572.525	1	-10
572.695	1	-2
572.865	1	15
573.035	1	11
573.205	1	-4
573.374	1	3
573.544	1	0
573.714	1	-6
573.884	1	0
574.054	1	9
574.224	1	6
574.394	1	0
574.563	1	-11
574.733	1	6
574.903	1	1
575.073	1	18
575.243	1	-2
575.413	1	2
575.583	1	-5
575.752	1	-4
575.922	1	4
576.092	1	-8
576.262	1	-3
576.432	1	3
576.602	1	2
576.772	1	5
576.941	1	1
577.111	1	7
577.281	1	1
577.451	1	3
577.621	1	4
577.791	1	4
577.960	1	0
578.130	1	-3
578.300	1	4
578.470	1	8
578.640	1	-6
578.810	1	-3
578.979	1	9
579.149	1	6
579.319	1	11
579.489	1	9
579.659	1	11
579.829	1	-4
579.998	1	-5
580.168	1	-1
580.338	1	8
580.508	1	-2
580.678	1	4
580.848	1	-3
581.017	1	1
581.187	1	6
581.357	1	3
581.527	1	5
581.697	1	-3
581.867	1	2
582.036	1	-15
582.206	1	13
582.376	1	-3
582.546	1	5
582.716	1	1
582.885	1	2
583.055	1	-13
583.225	1	6
583.395	1	8
583.565	1	7
583.735	1	8
583.904	1	8
584.074	1	2
584.244	1	-9
584.414	1	3
584.584	1	-2
584.753	1	6
584.923	1	-5
585.093	1	2
585.263	1	-1
585.433	1	-3
585.602	1	6
585.772	1	13
585.942	1	-2
586.112	1	-3
586.282	1	2
586.451	1	14
586.621	1	-4
586.791	1	-5
586.961	1	-5
587.131	1	-5
587.300	1	16
587.470	1	1
587.640	1	2
587.810	1	-11
587.980	1	-5
588.149	1	-1
588.319	1	9
588.489	1	0
588.659	1	-3
588.829	1	-3
588.998	1	-2
589.168	1	3
589.338	1	0
589.508	1	-7
589.677	1	3
589.847	1	5
590.017	1	0
590.187	1	1
590.357	1	-2
590.526	1	-5
590.696	1	7
590.866	1	-3
591.036	1	3
591.205	1	14
591.375	1	5
591.545	1	-9
591.715	1	-7
591.885	1	13
592.054	1	4
592.224	1	3
592.394	1	-8
592.564	1	3
592.733	1	-2
592.903	1	4
593.073	1	5
593.243	1	11
593.412	1	-7
593.582	1	-1
593.752	1	2
593.922	1	0
594.091	1	8
594.261	1	-7
594.431	1	4
594.601	1	2
594.771	1	-2
594.940	1	-3
595.110	1	3
595.280	1	4
595.450	1	-2
595.619	1	-4
595.789	1	1
595.959	1	-3
596.129	1	-1
596.298	1	10
596.468	1	-3
596.638	1	-1
596.808	1	-9
596.977	1	-10
597.147	1	-8
597.317	1	2
597.487	1	1
597.656	1	10
597.826	1	13
597.996	1	4
598.166	1	8
598.335	1	-1
598.505	1	7
598.675	1	-1
598.844	1	15
599.014	1	-13
599.184	1	3
599.354	1	11
599.523	1	-5
599.693	1	4
599.863	1	4
600.033	1	-2
600.202	1	1
600.372	1	-2
600.542	1	5
600.712	1	-1
600.881	1	5
601.051	1	4
601.221	1	3
601.390	1	9
601.560	1	14
601.730	1	7
601.900	1	7
602.069	1	6
602.239	1	-2
602.409	1	0
602.578	1	9
602.748	1	12
602.918	1	2
603.088	1	4
603.257	1	1
603.427	1	8
603.597	1	2
603.767	1	5
603.936	1	3
604.106	1	1
604.276	1	3
604.445	1	-6
604.615	1	1
604.785	1	7
604.954	1	8
605.124	1	12
605.294	1	-4
605.464	1	-1
605.633	1	4
605.803	1	11
605.973	1	8
606.142	1	4
606.312	1	13
606.482	1	-1
606.652	1	7
606.821	1	-2
606.991	1	3
607.161	1	3
607.330	1	1
607.500	1	8
607.670	1	3
607.839	1	1
608.009	1	-2
608.179	1	8
608.348	1	5
608.518	1	17
608.688	1	2
608.858	1	-6
609.027	1	9
609.197	1	6
609.367	1	1
609.536	1	-10
609.706	1	15
609.876	1	15
610.045	1	8
610.215	1	1
610.385	1	5
610.554	1	-1
610.724	1	5
610.894	1	6
611.063	1	1
611.233	1	2
611.403	1	6
611.572	1	9
611.742	1	-4
611.912	1	7
612.081	1	14
612.251	1	5
612.421	1	2
612.590	1	-3
612.760	1	0
612.930	1	5
613.099	1	1
613.269	1	9
613.439	1	-5
613.608	1	15
613.778	1	0
613.948	1	17
614.117	1	10
614.287	1	4
614.457	1	5
614.626	1	5
614.796	1	2
614.966	1	-1
615.135	1	14
615.305	1	5
615.475	1	5
615.644	1	11
615.814	1	8
615.984	1	0
616.153	1	4
616.323	1	4
616.493	1	-1
616.662	1	-4
616.832	1	-3
617.002	1	3
617.171	1	4
617.341	1	15
617.511	1	-6
617.680	1	1
617.850	1	1
618.019	1	-10
618.189	1	9
618.359	1	3
618.528	1	6
618.698	1	3
618.868	1	4
619.037	1	4
619.207	1	2
619.377	1	4
619.546	1	10
619.716	1	2
619.885	1	1
620.055	1	2
620.225	1	15
620.394	1	4
620.564	1	13
620.734	1	3
620.903	1	-2
621.073	1	6
621.242	1	0
621.412	1	-5
621.582	1	8
621.751	1	3
621.921	1	4
622.091	1	4
622.260	1	16
622.430	1	9
622.599	1	4
622.769	1	-3
622.939	1	7
623.108	1	1
623.278	1	6
623.448	1	4
623.617	1	5
623.787	1	4
623.956	1	0
624.126	1	1
624.296	1	3
624.465	1	11
624.635	1	5
624.804	1	-3
624.974	1	-10
625.144	1	4
625.313	1	18
625.483	1	3
625.652	1	2
625.822	1	4
625.992	1	3
626.161	1	5
626.331	1	5
626.501	1	1
626.670	1	-2
626.840	1	7
627.009	1	0
627.179	1	5
627.348	1	-3
627.518	1	16
627.688	1	10
627.857	1	17
628.027	1	5
628.196	1	5
628.366	1	-3
628.536	1	-3
628.705	1	-5
628.875	1	-3
629.044	1	2
629.214	1	7
629.384	1	12
629.553	1	2
629.723	1	19
629.892	1	-1
630.062	1	10
630.232	1	8
630.401	1	8
630.571	1	6
630.740	1	-3
630.910	1	15
631.079	1	7
631.249	1	4
631.419	1	-1
631.588	1	12
631.758	1	-2
631.927	1	12
632.097	1	2
632.266	1	11
632.436	1	4
632.606	1	8
632.775	1	5
632.945	1	4
633.114	1	-1
633.284	1	-4
633.453	1	3
633.623	1	8
633.793	1	-5
633.962	1	5
634.132	1	1
634.301	1	12
634.471	1	1
634.640	1	-3
634.810	1	3
634.979	1	11
635.149	1	-8
635.319	1	8
635.488	1	11
635.658	1	3
635.827	1	0
635.997	1	7
636.166	1	-5
636.336	1	-4
636.505	1	5
636.675	1	7
636.845	1	7
637.014	1	-3
637.184	1	14
637.353	1	2
637.523	1	-1
637.692	1	18
637.862	1	4
638.031	1	0
638.201	1	2
638.370	1	6
638.540	1	-9
638.710	1	-2
638.879	1	5
639.049	1	11
639.218	1	1
639.388	1	9
639.557	1	11
639.727	1	7
639.896	1	1
640.066	1	6
640.235	1	2
640.405	1	6
640.574	1	14
640.744	1	-6
640.914	1	4
641.083	1	10
641.253	1	-2
641.422	1	0
641.592	1	6
641.761	1	7
641.931	1	11
642.100	1	-2
642.270	1	4
642.439	1	0
642.609	1	7
642.778	1	-2
642.948	1	8
643.117	1	4
643.287	1	7
643.456	1	1
643.626	1	3
643.795	1	2
643.965	1	1
644.134	1	3
644.304	1	5
644.473	1	9
644.643	1	-2
644.812	1	-1
644.982	1	10
645.151	1	1
645.321	1	3
645.490	1	15
645.660	1	-4
645.829	1	-1
645.999	1	-3
646.168	1	25
646.338	1	3
646.507	1	1
646.677	1	3
646.846	1	6
647.016	1	7
647.185	1	10
647.355	1	14
647.524	1	2
647.694	1	-8
647.863	1	-5
648.033	1	2
648.202	1	13
648.372	1	-5
648.541	1	2
648.711	1	15
648.880	1	3
649.050	1	3
649.219	1	0
649.389	1	0
649.558	1	8
649.728	1	3
649.897	1	6
650.067	1	15
650.236	1	3
650.406	1	7
650.575	1	9
650.745	1	16
650.914	1	21
651.084	1	17
651.253	1	4
651.423	1	-2
651.592	1	-1
651.762	1	4
651.931	1	6
652.101	1	-4
652.270	1	1
652.440	1	7
652.609	1	10
652.778	1	6
652.948	1	-4
653.117	1	-2
653.287	1	3
653.456	1	2
653.626	1	5
653.795	1	5
653.965	1	1
654.134	1	0
654.304	1	11
654.473	1	11
654.643	1	6
654.812	1	15
654.982	1	8
655.151	1	6
655.320	1	2
655.490	1	0
655.659	1	11
655.829	1	2
655.998	1	6
656.168	1	8
656.337	1	4
656.507	1	3
656.676	1	5
656.846	1	16
657.015	1	10
657.184	1	4
657.354	1	8
657.523	1	11
657.693	1	11
657.862	1	-2
658.032	1	-2
658.201	1	-6
658.371	1	2
658.540	1	-10
658.709	1	14
658.879	1	7
659.048	1	14
659.218	1	5
659.387	1	6
659.557	1	3
659.726	1	0
659.895	1	3
660.065	1	6
660.234	1	1
660.404	1	4
660.573	1	6
660.743	1	-5
660.912	1	14
661.081	1	-1
661.251	1	3
661.420	1	11
661.590	1	0
661.759	1	6
661.929	1	-5
662.098	1	17
662.267	1	-2
662.437	1	10
662.606	1	-6
662.776	1	7
662.945	1	7
663.115	1	19
663.284	1	4
663.453	1	-2
663.623	1	-4
663.792	1	8
663.962	1	7
664.131	1	2
664.300	1	-4
664.470	1	4
664.639	1	1
664.809	1	4
664.978	1	22
665.148	1	9
665.317	1	6
665.486	1	11
665.656	1	7
665.825	1	6
665.995	1	-2
666.164	1	-1
666.333	1	-2
666.503	1	-5
666.672	1	6
666.842	1	8
667.011	1	9
667.180	1	-7
667.350	1	3
667.519	1	18
667.689	1	-1
667.858	1	10
668.027	1	6
668.197	1	0
668.366	1	14
668.536	1	-2
668.705	1	2
668.874	1	12
669.044	1	1
669.213	1	16
669.382	1	9
669.552	1	7
669.721	1	7
669.891	1	-1
670.060	1	6
670.229	1	12
670.399	1	12
670.568	1	-1
670.738	1	6
670.907	1	16
671.076	1	1
671.246	1	11
671.415	1	15
671.584	1	9
671.754	1	-4
671.923	1	-1
672.093	1	6
672.262	1	15
672.431	1	11
672.601	1	2
672.770	1	5
672.939	1	12
673.109	1	0
673.278	1	2
673.448	1	13
673.617	1	6
673.786	1	5
