325.333	1	-1
325.504	1	-3
325.675	1	6
325.846	1	-13
326.017	1	6
326.188	1	1
326.359	1	-5
326.531	1	-13
326.702	1	-4
326.873	1	8
327.044	1	7
327.215	1	-4
327.386	1	-1
327.557	1	-6
327.728	1	1
327.899	1	8
328.070	1	11
328.241	1	1
328.412	1	-3
328.583	1	-11
328.754	1	12
328.926	1	-3
329.097	1	-13
329.268	1	9
329.439	1	8
329.610	1	1
329.781	1	3
329.952	1	-2
330.123	1	2
330.294	1	3
330.465	1	-5
330.636	1	3
330.807	1	4
330.978	1	-4
331.149	1	3
331.320	1	1
331.492	1	-3
331.663	1	-8
331.834	1	-2
332.005	1	13
332.176	1	-1
332.347	1	-3
332.518	1	4
332.689	1	4
332.860	1	-2
333.031	1	6
333.202	1	-6
333.373	1	-3
333.544	1	3
333.715	1	1
333.886	1	-3
334.057	1	-8
334.228	1	4
334.399	1	7
334.570	1	0
334.741	1	2
334.912	1	0
335.084	1	11
335.255	1	0
335.426	1	6
335.597	1	-5
335.768	1	3
335.939	1	2
336.110	1	9
336.281	1	-5
336.452	1	9
336.623	1	-3
336.794	1	8
336.965	1	6
337.136	1	14
337.307	1	-5
337.478	1	-7
337.649	1	-5
337.820	1	-2
337.991	1	-1
338.162	1	-6
338.333	1	2
338.504	1	6
338.675	1	1
338.846	1	-13
339.017	1	0
339.188	1	-3
339.359	1	10
339.530	1	6
339.701	1	9
339.872	1	12
340.043	1	9
340.214	1	14
340.385	1	-8
340.556	1	8
340.727	1	7
340.898	1	0
341.069	1	-10
341.240	1	1
341.411	1	1
341.582	1	0
341.753	1	-1
341.924	1	14
342.095	1	7
342.266	1	8
342.437	1	-5
342.608	1	-3
342.779	1	-11
342.950	1	-5
343.121	1	5
343.292	1	10
343.463	1	10
343.634	1	2
343.805	1	1
343.976	1	3
344.147	1	6
344.318	1	-5
344.489	1	6
344.660	1	11
344.831	1	12
345.002	1	-1
345.173	1	0
345.344	1	-9
345.515	1	6
345.686	1	4
345.857	1	2
346.028	1	-7
346.199	1	3
346.370	1	-2
346.541	1	-6
346.712	1	-8
346.883	1	-8
347.054	1	5
347.225	1	3
347.396	1	1
347.567	1	-8
347.738	1	-4
347.909	1	8
348.080	1	4
348.251	1	-2
348.422	1	7
348.593	1	-4
348.764	1	-2
348.935	1	9
349.106	1	-2
349.277	1	-2
349.448	1	5
349.619	1	2
349.790	1	4
349.961	1	-5
350.132	1	5
350.303	1	4
350.474	1	5
350.645	1	3
350.816	1	-2
350.987	1	11
351.157	1	-3
351.328	1	-1
351.499	1	-1
351.670	1	14
351.841	1	10
352.012	1	13
352.183	1	4
352.354	1	-7
352.525	1	6
352.696	1	0
352.867	1	6
353.038	1	11
353.209	1	4
353.380	1	3
353.551	1	9
353.722	1	5
353.893	1	13
354.064	1	3
354.235	1	-6
354.406	1	-6
354.576	1	-5
354.747	1	1
354.918	1	-1
355.089	1	-4
355.260	1	10
355.431	1	-1
355.602	1	4
355.773	1	-1
355.944	1	8
356.115	1	9
356.286	1	8
356.457	1	9
356.628	1	6
356.799	1	3
356.970	1	11
357.141	1	7
357.311	1	11
357.482	1	-5
357.653	1	-1
357.824	1	10
357.995	1	12
358.166	1	-6
358.337	1	4
358.508	1	7
358.679	1	-2
358.850	1	9
359.021	1	2
359.192	1	11
359.363	1	3
359.533	1	-2
359.704	1	-6
359.875	1	-9
360.046	1	11
360.217	1	11
360.388	1	16
360.559	1	11
360.730	1	-5
360.901	1	11
361.072	1	5
361.243	1	-6
361.414	1	10
361.584	1	-1
361.755	1	-2
361.926	1	9
362.097	1	0
362.268	1	6
362.439	1	-6
362.610	1	12
362.781	1	-6
362.952	1	8
363.123	1	7
363.293	1	0
363.464	1	3
363.635	1	5
363.806	1	10
363.977	1	2
364.148	1	3
364.319	1	6
364.490	1	6
364.661	1	9
364.832	1	4
365.002	1	-2
365.173	1	5
365.344	1	4
365.515	1	2
365.686	1	-3
365.857	1	6
366.028	1	2
366.199	1	14
366.370	1	9
366.540	1	7
366.711	1	10
366.882	1	7
367.053	1	6
367.224	1	12
367.395	1	2
367.566	1	4
367.737	1	-8
367.908	1	7
368.078	1	-3
368.249	1	11
368.420	1	6
368.591	1	2
368.762	1	17
368.933	1	-2
369.104	1	5
369.274	1	6
369.445	1	10
369.616	1	6
369.787	1	-2
369.958	1	-3
370.129	1	7
370.300	1	-4
370.471	1	9
370.641	1	1
370.812	1	9
370.983	1	1
371.154	1	-1
371.325	1	7
371.496	1	1
371.667	1	14
371.837	1	-7
372.008	1	2
372.179	1	1
372.350	1	-3
372.521	1	5
372.692	1	7
372.863	1	10
373.033	1	4
373.204	1	6
373.375	1	-2
373.546	1	-1
373.717	1	-1
373.888	1	6
374.059	1	8
374.229	1	11
374.400	1	2
374.571	1	7
374.742	1	10
374.913	1	-9
375.084	1	2
375.254	1	-7
375.425	1	7
375.596	1	7
375.767	1	18
375.938	1	-10
376.109	1	0
376.279	1	8
376.450	1	8
376.621	1	13
376.792	1	14
376.963	1	-7
377.134	1	6
377.304	1	9
377.475	1	0
377.646	1	-3
377.817	1	11
377.988	1	4
378.159	1	8
378.329	1	8
378.500	1	11
378.671	1	5
378.842	1	5
379.013	1	7
379.184	1	3
379.354	1	6
379.525	1	11
379.696	1	5
379.867	1	1
380.038	1	0
380.209	1	10
380.379	1	11
380.550	1	-7
380.721	1	6
380.892	1	-1
381.063	1	5
381.233	1	5
381.404	1	-1
381.575	1	2
381.746	1	11
381.917	1	10
382.087	1	16
382.258	1	8
382.429	1	1
382.600	1	7
382.771	1	1
382.941	1	16
383.112	1	11
383.283	1	7
383.454	1	9
383.625	1	4
383.795	1	9
383.966	1	13
384.137	1	14
384.308	1	1
384.479	1	8
384.649	1	7
384.820	1	5
384.991	1	0
385.162	1	5
385.333	1	4
385.503	1	6
385.674	1	7
385.845	1	1
386.016	1	15
386.187	1	-3
386.357	1	7
386.528	1	0
386.699	1	6
386.870	1	3
387.041	1	8
387.211	1	2
387.382	1	15
387.553	1	8
387.724	1	3
387.894	1	-1
388.065	1	6
388.236	1	-1
388.407	1	4
388.578	1	7
388.748	1	5
388.919	1	10
389.090	1	15
389.261	1	10
389.431	1	-5
389.602	1	7
389.773	1	5
389.944	1	10
390.114	1	6
390.285	1	4
390.456	1	4
390.627	1	4
390.798	1	12
390.968	1	9
391.139	1	9
391.310	1	9
391.481	1	8
391.651	1	17
391.822	1	7
391.993	1	2
392.164	1	10
392.334	1	6
392.505	1	7
392.676	1	5
392.847	1	8
393.017	1	-4
393.188	1	16
393.359	1	15
393.530	1	18
393.700	1	6
393.871	1	15
394.042	1	3
394.213	1	4
394.383	1	7
394.554	1	-6
394.725	1	-3
394.896	1	21
395.066	1	10
395.237	1	5
395.408	1	8
395.579	1	4
395.749	1	16
395.920	1	15
396.091	1	11
396.262	1	6
396.432	1	-1
396.603	1	9
396.774	1	3
396.945	1	9
397.115	1	14
397.286	1	20
397.457	1	-1
397.627	1	7
397.798	1	4
397.969	1	12
398.140	1	0
398.310	1	4
398.481	1	7
398.652	1	4
398.823	1	6
398.993	1	7
399.164	1	10
399.335	1	6
399.505	1	3
399.676	1	12
399.847	1	2
400.018	1	0
400.188	1	12
400.359	1	15
400.530	1	10
400.700	1	7
400.871	1	8
401.042	1	10
401.213	1	13
401.383	1	6
401.554	1	10
401.725	1	3
401.895	1	-3
402.066	1	12
402.237	1	8
402.408	1	12
402.578	1	8
402.749	1	1
402.920	1	14
403.090	1	4
403.261	1	0
403.432	1	12
403.603	1	9
403.773	1	20
403.944	1	14
404.115	1	7
404.285	1	12
404.456	1	11
404.627	1	16
404.797	1	11
404.968	1	9
405.139	1	13
405.310	1	3
405.480	1	4
405.651	1	0
405.822	1	6
405.992	1	13
406.163	1	-5
406.334	1	7
406.504	1	15
406.675	1	2
406.846	1	9
407.016	1	0
407.187	1	19
407.358	1	8
407.528	1	8
407.699	1	10
407.870	1	14
408.041	1	0
408.211	1	18
408.382	1	8
408.553	1	12
408.723	1	12
408.894	1	-3
409.065	1	19
409.235	1	2
409.406	1	1
409.577	1	1
409.747	1	14
409.918	1	4
410.089	1	17
410.259	1	4
410.430	1	12
410.601	1	14
410.771	1	11
410.942	1	6
411.113	1	20
411.283	1	5
411.454	1	19
411.625	1	10
411.795	1	11
411.966	1	2
412.137	1	10
412.307	1	12
412.478	1	12
412.649	1	10
412.819	1	9
412.990	1	14
413.161	1	-3
413.331	1	10
413.502	1	13
413.672	1	4
413.843	1	11
414.014	1	5
414.184	1	10
414.355	1	8
414.526	1	11
414.696	1	5
414.867	1	-4
415.038	1	5
415.208	1	2
415.379	1	9
415.550	1	4
415.720	1	-6
415.891	1	15
416.062	1	5
416.232	1	16
416.403	1	19
416.573	1	5
416.744	1	14
416.915	1	12
417.085	1	9
417.256	1	15
417.427	1	3
417.597	1	-5
417.768	1	7
417.939	1	2
418.109	1	2
418.280	1	4
418.450	1	21
418.621	1	0
418.792	1	8
418.962	1	14
419.133	1	12
419.304	1	6
419.474	1	14
419.645	1	8
419.815	1	5
419.986	1	19
420.157	1	-2
420.327	1	0
420.498	1	2
420.669	1	13
420.839	1	8
421.010	1	13
421.180	1	5
421.351	1	11
421.522	1	8
421.692	1	16
421.863	1	11
422.033	1	10
422.204	1	11
422.375	1	12
422.545	1	11
422.716	1	-2
422.886	1	15
423.057	1	14
423.228	1	1
423.398	1	8
423.569	1	1
423.740	1	11
423.910	1	10
424.081	1	5
424.251	1	9
424.422	1	10
424.593	1	15
424.763	1	16
424.934	1	16
425.104	1	16
425.275	1	-6
425.445	1	7
425.616	1	7
425.787	1	6
425.957	1	-3
426.128	1	-3
426.298	1	27
426.469	1	4
426.640	1	12
426.810	1	-11
426.981	1	9
427.151	1	-2
427.322	1	10
427.493	1	9
427.663	1	6
427.834	1	9
428.004	1	21
428.175	1	12
428.345	1	2
428.516	1	2
428.687	1	16
428.857	1	19
429.028	1	2
429.198	1	4
429.369	1	4
429.540	1	7
429.710	1	9
429.881	1	8
430.051	1	-3
430.222	1	20
430.392	1	7
430.563	1	5
430.734	1	9
430.904	1	17
431.075	1	9
431.245	1	6
431.416	1	6
431.586	1	6
431.757	1	18
431.927	1	5
432.098	1	14
432.269	1	-4
432.439	1	8
432.610	1	18
432.780	1	9
432.951	1	1
433.121	1	3
433.292	1	20
433.462	1	8
433.633	1	5
433.804	1	5
433.974	1	10
434.145	1	-2
434.315	1	6
434.486	1	1
434.656	1	12
434.827	1	14
434.997	1	14
435.168	1	3
435.339	1	19
435.509	1	5
435.680	1	7
435.850	1	-4
436.021	1	5
436.191	1	7
436.362	1	1
436.532	1	4
436.703	1	12
436.873	1	4
437.044	1	5
437.214	1	-6
437.385	1	9
437.556	1	12
437.726	1	15
437.897	1	8
438.067	1	6
438.238	1	9
438.408	1	8
438.579	1	1
438.749	1	7
438.920	1	10
439.090	1	-10
439.261	1	22
439.431	1	-10
439.602	1	6
439.772	1	5
439.943	1	-1
440.113	1	2
440.284	1	17
440.455	1	1
440.625	1	17
440.796	1	3
440.966	1	7
441.137	1	17
441.307	1	13
441.478	1	-3
441.648	1	6
441.819	1	4
441.989	1	14
442.160	1	7
442.330	1	8
442.501	1	1
442.671	1	3
442.842	1	10
443.012	1	6
443.183	1	10
443.353	1	6
443.524	1	9
443.694	1	6
443.865	1	14
444.035	1	7
444.206	1	0
444.376	1	9
444.547	1	12
444.717	1	3
444.888	1	-1
445.058	1	-3
445.229	1	3
445.399	1	12
445.570	1	4
445.740	1	10
445.911	1	4
446.081	1	3
446.252	1	6
446.422	1	2
446.593	1	6
446.763	1	0
446.934	1	0
447.104	1	4
447.275	1	12
447.445	1	7
447.616	1	3
447.786	1	5
447.957	1	0
448.127	1	1
448.298	1	9
448.468	1	14
448.639	1	0
448.809	1	9
448.979	1	17
449.150	1	0
449.320	1	6
449.491	1	-1
449.661	1	3
449.832	1	-4
450.002	1	4
450.173	1	7
450.343	1	5
450.514	1	8
450.684	1	5
450.855	1	13
451.025	1	3
451.196	1	4
451.366	1	10
451.537	1	14
451.707	1	15
451.878	1	0
452.048	1	-7
452.218	1	4
452.389	1	2
452.559	1	12
452.730	1	10
452.900	1	-4
453.071	1	11
453.241	1	9
453.412	1	-3
453.582	1	5
453.753	1	7
453.923	1	6
454.093	1	0
454.264	1	20
454.434	1	8
454.605	1	-8
454.775	1	5
454.946	1	-6
455.116	1	18
455.287	1	1
455.457	1	5
455.628	1	4
455.798	1	13
455.968	1	11
456.139	1	15
456.309	1	-1
456.480	1	0
456.650	1	8
456.821	1	-12
456.991	1	9
457.161	1	8
457.332	1	11
457.502	1	7
457.673	1	8
457.843	1	5
458.014	1	5
458.184	1	6
458.355	1	5
458.525	1	7
458.695	1	3
458.866	1	-5
459.036	1	10
459.207	1	5
459.377	1	5
459.548	1	6
459.718	1	0
459.888	1	6
460.059	1	3
460.229	1	-2
460.400	1	10
460.570	1	-2
460.740	1	5
460.911	1	2
461.081	1	14
461.252	1	10
461.422	1	2
461.593	1	12
461.763	1	14
461.933	1	-6
462.104	1	-1
462.274	1	-6
462.445	1	4
462.615	1	2
462.785	1	11
462.956	1	-6
463.126	1	7
463.297	1	4
463.467	1	8
463.638	1	6
463.808	1	4
463.978	1	-3
464.149	1	-2
464.319	1	-2
464.490	1	-2
464.660	1	2
464.830	1	6
465.001	1	4
465.171	1	-2
465.342	1	2
465.512	1	8
465.682	1	6
465.853	1	-5
466.023	1	10
466.194	1	11
466.364	1	6
466.534	1	-12
466.705	1	16
466.875	1	-13
467.045	1	-4
467.216	1	-2
467.386	1	7
467.557	1	11
467.727	1	-2
467.897	1	6
468.068	1	-4
468.238	1	7
468.409	1	8
468.579	1	7
468.749	1	6
468.920	1	-7
469.090	1	7
469.260	1	2
469.431	1	-9
469.601	1	9
469.772	1	12
469.942	1	12
470.112	1	-5
470.283	1	6
470.453	1	8
470.623	1	8
470.794	1	3
470.964	1	-5
471.135	1	5
471.305	1	2
471.475	1	-3
471.646	1	9
471.816	1	-5
471.986	1	5
472.157	1	0
472.327	1	12
472.497	1	4
472.668	1	5
472.838	1	0
473.009	1	3
473.179	1	-2
473.349	1	-2
473.520	1	11
473.690	1	0
473.860	1	-2
474.031	1	-6
474.201	1	5
474.371	1	3
474.542	1	-1
474.712	1	0
474.882	1	2
475.053	1	9
475.223	1	7
475.394	1	6
475.564	1	0
475.734	1	3
475.905	1	4
476.075	1	9
476.245	1	-7
476.416	1	2
476.586	1	-2
476.756	1	5
476.927	1	3
477.097	1	0
477.267	1	1
477.438	1	11
477.608	1	10
477.778	1	-3
477.949	1	-10
478.119	1	8
478.289	1	0
478.460	1	11
478.630	1	2
478.800	1	7
478.971	1	3
479.141	1	6
479.311	1	6
479.482	1	1
479.652	1	1
479.822	1	-4
479.993	1	1
480.163	1	3
480.333	1	9
480.504	1	6
480.674	1	7
480.844	1	-8
481.015	1	16
481.185	1	9
481.355	1	-2
481.525	1	-6
481.696	1	10
481.866	1	4
482.036	1	-3
482.207	1	5
482.377	1	0
482.547	1	6
482.718	1	6
482.888	1	0
483.058	1	9
483.229	1	3
483.399	1	6
483.569	1	-3
483.740	1	3
483.910	1	-6
484.080	1	0
484.250	1	0
484.421	1	-2
484.591	1	0
484.761	1	5
484.932	1	-3
485.102	1	5
485.272	1	-8
485.443	1	6
485.613	1	-3
485.783	1	2
485.953	1	0
486.124	1	5
486.294	1	6
486.464	1	15
486.635	1	0
486.805	1	6
486.975	1	-4
487.146	1	6
487.316	1	13
487.486	1	2
487.656	1	4
487.827	1	1
487.997	1	-3
488.167	1	5
488.338	1	-2
488.508	1	7
488.678	1	-1
488.848	1	12
489.019	1	-3
489.189	1	8
489.359	1	4
489.529	1	3
489.700	1	2
489.870	1	4
490.040	1	-2
490.211	1	-7
490.381	1	1
490.551	1	5
490.721	1	8
490.892	1	-3
491.062	1	-7
491.232	1	0
491.402	1	-4
491.573	1	11
491.743	1	-2
491.913	1	6
492.084	1	8
492.254	1	0
492.424	1	0
492.594	1	3
492.765	1	8
492.935	1	6
493.105	1	-4
493.275	1	2
493.446	1	-3
493.616	1	-7
493.786	1	6
493.956	1	-3
494.127	1	-5
494.297	1	-11
494.467	1	-1
494.637	1	9
494.808	1	1
494.978	1	1
495.148	1	-6
495.318	1	3
495.489	1	-5
495.659	1	-4
495.829	1	1
495.999	1	10
496.170	1	-2
496.340	1	4
496.510	1	2
496.680	1	-1
496.851	1	5
497.021	1	-1
497.191	1	1
497.361	1	-11
497.532	1	1
497.702	1	-5
497.872	1	1
498.042	1	0
498.213	1	-1
498.383	1	0
498.553	1	5
498.723	1	-5
498.894	1	-1
499.064	1	1
499.234	1	5
499.404	1	4
499.574	1	5
499.745	1	6
499.915	1	1
500.085	1	5
500.255	1	-10
500.426	1	-5
500.596	1	-7
500.766	1	-11
500.936	1	1
501.106	1	-2
501.277	1	-4
501.447	1	3
501.617	1	4
501.787	1	-3
501.958	1	-1
502.128	1	-2
502.298	1	4
502.468	1	4
502.638	1	8
502.809	1	-10
502.979	1	5
503.149	1	1
503.319	1	8
503.489	1	-11
503.660	1	-5
503.830	1	4
504.000	1	3
504.170	1	-5
504.340	1	-11
504.511	1	-7
504.681	1	-4
504.851	1	1
505.021	1	-2
505.192	1	-10
505.362	1	1
505.532	1	-6
505.702	1	15
505.872	1	0
506.043	1	6
506.213	1	10
506.383	1	1
506.553	1	0
506.723	1	-4
506.893	1	1
507.064	1	7
507.234	1	-3
507.404	1	-6
507.574	1	-8
507.744	1	-4
507.915	1	3
508.085	1	1
508.255	1	-1
508.425	1	1
508.595	1	-13
508.766	1	-1
508.936	1	1
509.106	1	1
509.276	1	-1
509.446	1	-10
509.616	1	-11
509.787	1	3
509.957	1	9
510.127	1	-8
510.297	1	-11
510.467	1	4
510.638	1	12
510.808	1	17
510.978	1	0
511.148	1	-1
511.318	1	-5
511.488	1	1
511.659	1	-3
511.829	1	-2
511.999	1	5
512.169	1	-2
512.339	1	8
512.509	1	-3
512.680	1	-1
512.850	1	6
513.020	1	-2
513.190	1	-4
513.360	1	4
513.530	1	0
513.700	1	3
513.871	1	6
514.041	1	4
514.211	1	-1
514.381	1	8
514.551	1	3
514.721	1	1
514.892	1	-7
515.062	1	-2
515.232	1	-7
515.402	1	4
515.572	1	-1
515.742	1	3
515.912	1	-1
516.083	1	0
516.253	1	-2
516.423	1	3
516.593	1	-1
516.763	1	14
516.933	1	-6
517.104	1	2
517.274	1	-4
517.444	1	5
517.614	1	1
517.784	1	2
517.954	1	2
518.124	1	-9
518.294	1	1
518.465	1	5
518.635	1	9
518.805	1	0
518.975	1	-1
519.145	1	5
519.315	1	-1
519.485	1	-3
519.656	1	-3
519.826	1	-5
519.996	1	4
520.166	1	-4
520.336	1	0
520.506	1	7
520.676	1	2
520.846	1	0
521.017	1	1
521.187	1	10
521.357	1	-3
521.527	1	-4
521.697	1	-10
521.867	1	4
522.037	1	-1
522.207	1	9
522.377	1	-3
522.548	1	-10
522.718	1	-4
522.888	1	4
523.058	1	3
523.228	1	-7
523.398	1	-8
523.568	1	-12
523.738	1	-1
523.909	1	3
524.079	1	-7
524.249	1	-3
524.419	1	3
524.589	1	9
524.759	1	-2
524.929	1	-7
525.099	1	2
525.269	1	3
525.439	1	3
525.610	1	4
525.780	1	-2
525.950	1	-4
526.120	1	-12
526.290	1	-7
526.460	1	-5
526.630	1	5
526.800	1	2
526.970	1	7
527.140	1	-3
527.311	1	0
527.481	1	2
527.651	1	2
527.821	1	5
527.991	1	-5
528.161	1	5
528.331	1	-1
528.501	1	-3
528.671	1	2
528.841	1	0
529.011	1	-4
529.181	1	1
529.352	1	-3
529.522	1	7
529.692	1	6
529.862	1	-3
530.032	1	-10
530.202	1	-6
530.372	1	-1
530.542	1	-1
530.712	1	5
530.882	1	0
531.052	1	4
531.222	1	1
531.392	1	1
531.563	1	4
531.733	1	1
531.903	1	1
532.073	1	3
532.243	1	1
532.413	1	17
532.583	1	9
532.753	1	-2
532.923	1	-5
533.093	1	-7
533.263	1	-1
533.433	1	-5
533.603	1	-13
533.773	1	2
533.943	1	-10
534.113	1	-8
534.284	1	1
534.454	1	-5
534.624	1	-8
534.794	1	-2
534.964	1	-1
535.134	1	-3
535.304	1	-3
535.474	1	0
535.644	1	4
535.814	1	7
535.984	1	-2
536.154	1	-1
536.324	1	1
536.494	1	6
536.664	1	1
536.834	1	-5
537.004	1	-3
537.174	1	9
537.344	1	0
537.514	1	-7
537.685	1	8
537.855	1	0
538.025	1	5
538.195	1	-4
538.365	1	-1
538.535	1	0
538.705	1	11
538.875	1	1
539.045	1	-3
539.215	1	-6
539.385	1	1
539.555	1	-2
539.725	1	3
539.895	1	2
540.065	1	5
540.235	1	6
540.405	1	3
540.575	1	-3
540.745	1	5
540.915	1	-9
541.085	1	-11
541.255	1	-4
541.425	1	-7
541.595	1	3
541.765	1	1
541.935	1	5
542.105	1	-1
542.275	1	-12
542.445	1	-4
542.615	1	4
542.785	1	1
542.955	1	4
543.125	1	-2
543.295	1	6
543.465	1	6
543.635	1	-8
543.805	1	3
543.975	1	-2
544.145	1	-1
544.315	1	-10
544.485	1	-4
544.655	1	5
544.825	1	-4
544.995	1	-1
545.165	1	-1
545.335	1	0
545.505	1	2
545.675	1	6
545.845	1	5
546.015	1	-3
546.185	1	-9
546.355	1	-2
546.525	1	4
546.695	1	0
546.865	1	-4
547.035	1	6
547.205	1	13
547.375	1	10
547.545	1	0
547.715	1	-2
547.885	1	-4
548.055	1	-9
548.225	1	7
548.395	1	-3
548.565	1	2
548.735	1	-7
548.905	1	5
549.075	1	0
549.245	1	-3
549.415	1	3
549.585	1	-4
549.755	1	9
549.925	1	1
550.095	1	-4
550.265	1	-3
550.435	1	4
550.605	1	7
550.775	1	0
550.945	1	1
551.115	1	7
551.285	1	2
551.455	1	6
551.625	1	-12
551.795	1	1
551.965	1	-1
552.135	1	-2
552.305	1	5
552.475	1	4
552.645	1	-4
552.815	1	-2
552.985	1	4
553.155	1	-5
553.325	1	0
553.495	1	3
553.665	1	-1
553.835	1	8
554.004	1	1
554.174	1	-9
554.344	1	1
554.514	1	-2
554.684	1	3
554.854	1	-11
555.024	1	4
555.194	1	1
555.364	1	7
555.534	1	-18
555.704	1	-1
555.874	1	3
556.044	1	0
556.214	1	-2
556.384	1	8
556.554	1	0
556.724	1	-1
556.894	1	-8
557.064	1	-7
557.234	1	4
557.404	1	1
557.573	1	1
557.743	1	-7
557.913	1	-5
558.083	1	4
558.253	1	-2
558.423	1	2
558.593	1	-1
558.763	1	-4
558.933	1	-8
559.103	1	1
559.273	1	6
559.443	1	3
559.613	1	-8
559.783	1	-2
559.953	1	-6
560.122	1	5
560.292	1	-11
560.462	1	-4
560.632	1	-6
560.802	1	8
560.972	1	-8
561.142	1	-4
561.312	1	-2
561.482	1	6
561.652	1	-3
561.822	1	-4
561.992	1	4
562.162	1	-2
562.331	1	-8
562.501	1	1
562.671	1	-6
562.841	1	-12
563.011	1	-3
563.181	1	4
563.351	1	-4
563.521	1	-1
563.691	1	11
563.861	1	1
564.031	1	-2
564.201	1	-1
564.370	1	8
564.540	1	-4
564.710	1	1
564.880	1	0
565.050	1	5
565.220	1	9
565.390	1	1
565.560	1	2
565.730	1	-2
565.900	1	-1
566.069	1	5
566.239	1	10
566.409	1	11
566.579	1	-2
566.749	1	-6
566.919	1	-7
567.089	1	-7
567.259	1	1
567.429	1	-6
567.599	1	13
567.768	1	-4
567.938	1	-2
568.108	1	-5
568.278	1	-6
568.448	1	2
568.618	1	-5
568.788	1	-2
568.958	1	-5
569.128	1	-3
569.297	1	-10
569.467	1	6
569.637	1	4
569.807	1	6
569.977	1	-3
570.147	1	0
570.317	1	-3
570.487	1	-5
570.656	1	12
570.826	1	-2
570.996	1	8
571.166	1	11
571.336	1	4
571.506	1	-7
571.676	1	-5
571.846	1	4
572.015	1	-3
572.185	1	-1
572.355	1	-2
572.525	1	-5
572.695	1	-4
572.865	1	1
573.035	1	1
573.205	1	-4
573.374	1	-1
573.544	1	-1
573.714	1	-7
573.884	1	-13
574.054	1	2
574.224	1	-6
574.394	1	-3
574.563	1	-5
574.733	1	5
574.903	1	3
575.073	1	1
575.243	1	-8
575.413	1	4
575.583	1	-7
575.752	1	-1
575.922	1	3
576.092	1	-7
576.262	1	0
576.432	1	-6
576.602	1	-1
576.772	1	-2
576.941	1	-6
577.111	1	-1
577.281	1	-9
577.451	1	2
577.621	1	5
577.791	1	3
577.960	1	-2
578.130	1	3
578.300	1	-6
578.470	1	2
578.640	1	-2
578.810	1	-2
578.979	1	-5
579.149	1	-4
579.319	1	-6
579.489	1	2
579.659	1	-7
579.829	1	4
579.998	1	-11
580.168	1	-1
580.338	1	0
580.508	1	-5
580.678	1	2
580.848	1	0
581.017	1	0
581.187	1	6
581.357	1	2
581.527	1	4
581.697	1	-6
581.867	1	-1
582.036	1	-12
582.206	1	0
582.376	1	-7
582.546	1	6
582.716	1	-1
582.885	1	-4
583.055	1	0
583.225	1	5
583.395	1	-7
583.565	1	-5
583.735	1	-4
583.904	1	3
584.074	1	0
584.244	1	-7
584.414	1	1
584.584	1	-4
584.753	1	-1
584.923	1	0
585.093	1	6
585.263	1	0
585.433	1	-6
585.602	1	1
585.772	1	12
585.942	1	-4
586.112	1	-5
586.282	1	-1
586.451	1	5
586.621	1	-11
586.791	1	-2
586.961	1	0
587.131	1	-8
587.300	1	5
587.470	1	-6
587.640	1	-4
587.810	1	-16
587.980	1	2
588.149	1	7
588.319	1	4
588.489	1	4
588.659	1	-13
588.829	1	4
588.998	1	-4
589.168	1	2
589.338	1	-10
589.508	1	0
589.677	1	1
589.847	1	3
590.017	1	-10
590.187	1	0
590.357	1	-5
590.526	1	-8
590.696	1	3
590.866	1	-8
591.036	1	-2
591.205	1	2
591.375	1	-7
591.545	1	-4
591.715	1	-6
591.885	1	11
592.054	1	9
592.224	1	1
592.394	1	-6
592.564	1	0
592.733	1	-6
592.903	1	-6
593.073	1	-11
593.243	1	6
593.412	1	-6
593.582	1	0
593.752	1	-4
593.922	1	-6
594.091	1	0
594.261	1	-7
594.431	1	-1
594.601	1	-1
594.771	1	4
594.940	1	-2
595.110	1	6
595.280	1	-1
595.450	1	4
595.619	1	-7
595.789	1	4
595.959	1	-4
596.129	1	7
596.298	1	-1
596.468	1	-1
596.638	1	-7
596.808	1	-6
596.977	1	0
597.147	1	4
597.317	1	-2
597.487	1	7
597.656	1	2
597.826	1	6
597.996	1	-10
598.166	1	-4
598.335	1	-7
598.505	1	7
598.675	1	-2
598.844	1	8
599.014	1	-13
599.184	1	3
599.354	1	9
599.523	1	-4
599.693	1	3
599.863	1	4
600.033	1	-3
600.202	1	-7
600.372	1	-10
600.542	1	0
600.712	1	-8
600.881	1	1
601.051	1	-2
601.221	1	-2
601.390	1	6
601.560	1	9
601.730	1	11
601.900	1	-6
602.069	1	3
602.239	1	1
602.409	1	1
602.578	1	6
602.748	1	4
602.918	1	-14
603.088	1	7
603.257	1	1
603.427	1	2
603.597	1	-2
603.767	1	-2
603.936	1	13
604.106	1	-4
604.276	1	-3
604.445	1	-2
604.615	1	-1
604.785	1	2
604.954	1	3
605.124	1	12
605.294	1	-16
605.464	1	-13
605.633	1	2
605.803	1	2
605.973	1	-6
606.142	1	-5
606.312	1	10
606.482	1	-9
606.652	1	-6
606.821	1	1
606.991	1	5
607.161	1	-2
607.330	1	-8
607.500	1	-1
607.670	1	-2
607.839	1	-7
608.009	1	-6
608.179	1	-1
608.348	1	9
608.518	1	3
608.688	1	5
608.858	1	-2
609.027	1	1
609.197	1	-4
609.367	1	-4
609.536	1	-11
609.706	1	11
609.876	1	2
610.045	1	3
610.215	1	1
610.385	1	11
610.554	1	-3
610.724	1	-6
610.894	1	-5
611.063	1	-4
611.233	1	3
611.403	1	7
611.572	1	0
611.742	1	1
611.912	1	-6
612.081	1	7
612.251	1	1
612.421	1	-3
612.590	1	11
612.760	1	-3
612.930	1	-5
613.099	1	1
613.269	1	1
613.439	1	-11
613.608	1	0
613.778	1	-1
613.948	1	16
614.117	1	-6
614.287	1	-4
614.457	1	-1
614.626	1	-2
614.796	1	-3
614.966	1	-8
615.135	1	7
615.305	1	3
615.475	1	1
615.644	1	6
615.814	1	10
615.984	1	-7
616.153	1	0
616.323	1	2
616.493	1	-4
616.662	1	-3
616.832	1	-6
617.002	1	4
617.171	1	11
617.341	1	1
617.511	1	-13
617.680	1	-15
617.850	1	6
618.019	1	-10
618.189	1	9
618.359	1	6
618.528	1	5
618.698	1	1
618.868	1	-5
619.037	1	5
619.207	1	-4
619.377	1	-3
619.546	1	8
619.716	1	2
619.885	1	-3
620.055	1	-9
620.225	1	-1
620.394	1	-1
620.564	1	7
620.734	1	-6
620.903	1	-9
621.073	1	10
621.242	1	5
621.412	1	-2
621.582	1	-1
621.751	1	-5
621.921	1	-1
622.091	1	-2
622.260	1	5
622.430	1	0
622.599	1	-2
622.769	1	-8
622.939	1	-7
623.108	1	-5
623.278	1	5
623.448	1	1
623.617	1	6
623.787	1	-5
623.956	1	0
624.126	1	4
624.296	1	2
624.465	1	4
624.635	1	-4
624.804	1	-12
624.974	1	-3
625.144	1	-4
625.313	1	12
625.483	1	8
625.652	1	-5
625.822	1	6
625.992	1	-10
626.161	1	-1
626.331	1	-14
626.501	1	-3
626.670	1	-7
626.840	1	5
627.009	1	0
627.179	1	5
627.348	1	-5
627.518	1	9
627.688	1	-11
627.857	1	3
628.027	1	-7
628.196	1	3
628.366	1	-10
628.536	1	-7
628.705	1	-8
628.875	1	-6
629.044	1	-9
629.214	1	7
629.384	1	7
629.553	1	4
629.723	1	4
629.892	1	-3
630.062	1	-3
630.232	1	8
630.401	1	3
630.571	1	-2
630.740	1	-2
630.910	1	3
631.079	1	4
631.249	1	4
631.419	1	1
631.588	1	8
631.758	1	-10
631.927	1	5
632.097	1	-11
632.266	1	14
632.436	1	0
632.606	1	-9
632.775	1	7
632.945	1	6
633.114	1	-13
633.284	1	1
633.453	1	5
633.623	1	8
633.793	1	1
633.962	1	5
634.132	1	-2
634.301	1	5
634.471	1	-2
634.640	1	-2
634.810	1	4
634.979	1	-4
635.149	1	-4
635.319	1	-7
635.488	1	6
635.658	1	-1
635.827	1	-2
635.997	1	-5
636.166	1	-8
636.336	1	1
636.505	1	4
636.675	1	0
636.845	1	-8
637.014	1	-6
637.184	1	7
637.353	1	0
637.523	1	-4
637.692	1	-1
637.862	1	-8
638.031	1	-3
638.201	1	9
638.370	1	5
638.540	1	-7
638.710	1	-5
638.879	1	0
639.049	1	10
639.218	1	8
639.388	1	-5
639.557	1	-2
639.727	1	0
639.896	1	3
640.066	1	-2
640.235	1	3
640.405	1	1
640.574	1	-3
640.744	1	0
640.914	1	2
641.083	1	7
641.253	1	1
641.422	1	-11
641.592	1	10
641.761	1	-7
641.931	1	8
642.100	1	-12
642.270	1	-1
642.439	1	2
642.609	1	2
642.778	1	-11
642.948	1	-4
643.117	1	2
643.287	1	-2
643.456	1	-9
643.626	1	0
643.795	1	-6
643.965	1	2
644.134	1	-1
644.304	1	1
644.473	1	2
644.643	1	2
644.812	1	-8
644.982	1	0
645.151	1	-2
645.321	1	9
645.490	1	5
645.660	1	-9
645.829	1	1
645.999	1	1
646.168	1	15
646.338	1	-2
646.507	1	-5
646.677	1	-2
646.846	1	0
647.016	1	7
647.185	1	7
647.355	1	4
647.524	1	-8
647.694	1	-13
647.863	1	-4
648.033	1	0
648.202	1	10
648.372	1	-9
648.541	1	-1
648.711	1	7
648.880	1	-1
649.050	1	0
649.219	1	1
649.389	1	-6
649.558	1	4
649.728	1	-1
649.897	1	0
650.067	1	8
650.236	1	-6
650.406	1	0
650.575	1	-3
650.745	1	2
650.914	1	5
651.084	1	4
651.253	1	3
651.423	1	-5
651.592	1	1
651.762	1	-6
651.931	1	3
652.101	1	1
652.270	1	-4
652.440	1	4
652.609	1	-1
652.778	1	-1
652.948	1	-5
653.117	1	-7
653.287	1	-15
653.456	1	-8
653.626	1	5
653.795	1	-5
653.965	1	4
654.134	1	-1
654.304	1	3
654.473	1	-4
654.643	1	2
654.812	1	10
654.982	1	2
655.151	1	-6
655.320	1	-1
655.490	1	-9
655.659	1	3
655.829	1	0
655.998	1	10
656.168	1	-5
656.337	1	-6
656.507	1	-8
656.676	1	-2
656.846	1	-2
657.015	1	2
657.184	1	-1
657.354	1	0
657.523	1	-2
657.693	1	4
657.862	1	-10
658.032	1	-1
658.201	1	-6
658.371	1	1
658.540	1	-11
658.709	1	0
658.879	1	8
659.048	1	7
659.218	1	2
659.387	1	1
659.557	1	-1
659.726	1	-1
659.895	1	-1
660.065	1	-12
660.234	1	-3
660.404	1	-2
660.573	1	-3
660.743	1	-7
660.912	1	-4
661.081	1	0
661.251	1	0
661.420	1	9
661.590	1	-10
661.759	1	7
661.929	1	-3
662.098	1	5
662.267	1	-8
662.437	1	4
662.606	1	-6
662.776	1	2
662.945	1	6
663.115	1	13
663.284	1	3
663.453	1	-10
663.623	1	-5
663.792	1	4
663.962	1	7
664.131	1	-9
664.300	1	-9
664.470	1	-7
664.639	1	-1
664.809	1	-4
664.978	1	13
665.148	1	-2
665.317	1	2
665.486	1	2
665.656	1	5
665.825	1	7
665.995	1	-8
666.164	1	-1
666.333	1	-5
666.503	1	-9
666.672	1	4
666.842	1	7
667.011	1	-4
667.180	1	-3
667.350	1	2
667.519	1	-4
667.689	1	0
667.858	1	5
668.027	1	-1
668.197	1	-7
668.366	1	6
668.536	1	-3
668.705	1	-9
668.874	1	0
669.044	1	2
669.213	1	8
669.382	1	8
669.552	1	-2
669.721	1	-7
669.891	1	-6
670.060	1	-2
670.229	1	6
670.399	1	8
670.568	1	8
670.738	1	-5
670.907	1	-3
671.076	1	4
671.246	1	4
671.415	1	5
671.584	1	-5
671.754	1	-11
671.923	1	-10
672.093	1	2
672.262	1	-4
672.431	1	4
672.601	1	-2
672.770	1	-3
672.939	1	6
673.109	1	0
673.278	1	-6
673.448	1	-7
673.617	1	2
673.786	1	-3
