325.333	1	9
325.504	1	-7
325.675	1	10
325.846	1	2
326.017	1	1
326.188	1	17
326.359	1	9
326.531	1	-7
326.702	1	9
326.873	1	10
327.044	1	5
327.215	1	-9
327.386	1	6
327.557	1	-7
327.728	1	3
327.899	1	-9
328.070	1	10
328.241	1	2
328.412	1	5
328.583	1	4
328.754	1	10
328.926	1	9
329.097	1	-4
329.268	1	5
329.439	1	8
329.610	1	3
329.781	1	5
329.952	1	10
330.123	1	5
330.294	1	-1
330.465	1	2
330.636	1	3
330.807	1	-1
330.978	1	4
331.149	1	14
331.320	1	-1
331.492	1	-3
331.663	1	1
331.834	1	14
332.005	1	5
332.176	1	5
332.347	1	-1
332.518	1	20
332.689	1	6
332.860	1	-1
333.031	1	8
333.202	1	3
333.373	1	8
333.544	1	12
333.715	1	13
333.886	1	5
334.057	1	-3
334.228	1	14
334.399	1	7
334.570	1	6
334.741	1	13
334.912	1	8
335.084	1	10
335.255	1	9
335.426	1	10
335.597	1	4
335.768	1	7
335.939	1	7
336.110	1	13
336.281	1	-1
336.452	1	22
336.623	1	-2
336.794	1	13
336.965	1	3
337.136	1	17
337.307	1	-2
337.478	1	5
337.649	1	1
337.820	1	9
337.991	1	7
338.162	1	2
338.333	1	1
338.504	1	6
338.675	1	-3
338.846	1	-2
339.017	1	9
339.188	1	6
339.359	1	12
339.530	1	9
339.701	1	17
339.872	1	15
340.043	1	8
340.214	1	12
340.385	1	-5
340.556	1	15
340.727	1	13
340.898	1	12
341.069	1	1
341.240	1	6
341.411	1	5
341.582	1	-3
341.753	1	15
341.924	1	14
342.095	1	5
342.266	1	20
342.437	1	6
342.608	1	15
342.779	1	-3
342.950	1	8
343.121	1	9
343.292	1	10
343.463	1	15
343.634	1	10
343.805	1	15
343.976	1	18
344.147	1	15
344.318	1	5
344.489	1	0
344.660	1	13
344.831	1	17
345.002	1	3
345.173	1	1
345.344	1	1
345.515	1	5
345.686	1	-1
345.857	1	14
346.028	1	16
346.199	1	15
346.370	1	9
346.541	1	3
346.712	1	3
346.883	1	5
347.054	1	15
347.225	1	2
347.396	1	8
347.567	1	2
347.738	1	11
347.909	1	13
348.080	1	0
348.251	1	4
348.422	1	12
348.593	1	14
348.764	1	11
348.935	1	5
349.106	1	9
349.277	1	3
349.448	1	19
349.619	1	7
349.790	1	15
349.961	1	6
350.132	1	20
350.303	1	14
350.474	1	15
350.645	1	17
350.816	1	7
350.987	1	14
351.157	1	4
351.328	1	10
351.499	1	12
351.670	1	18
351.841	1	16
352.012	1	19
352.183	1	17
352.354	1	11
352.525	1	13
352.696	1	1
352.867	1	13
353.038	1	15
353.209	1	9
353.380	1	16
353.551	1	12
353.722	1	13
353.893	1	13
354.064	1	14
354.235	1	-1
354.406	1	-3
354.576	1	10
354.747	1	16
354.918	1	2
355.089	1	23
355.260	1	10
355.431	1	8
355.602	1	11
355.773	1	15
355.944	1	7
356.115	1	15
356.286	1	22
356.457	1	9
356.628	1	17
356.799	1	14
356.970	1	14
357.141	1	13
357.311	1	23
357.482	1	8
357.653	1	4
357.824	1	18
357.995	1	17
358.166	1	8
358.337	1	8
358.508	1	23
358.679	1	10
358.850	1	28
359.021	1	22
359.192	1	23
359.363	1	13
359.533	1	5
359.704	1	17
359.875	1	6
360.046	1	17
360.217	1	15
360.388	1	20
360.559	1	13
360.730	1	12
360.901	1	14
361.072	1	11
361.243	1	13
361.414	1	16
361.584	1	9
361.755	1	17
361.926	1	18
362.097	1	10
362.268	1	22
362.439	1	10
362.610	1	17
362.781	1	18
362.952	1	16
363.123	1	7
363.293	1	17
363.464	1	6
363.635	1	21
363.806	1	17
363.977	1	22
364.148	1	19
364.319	1	9
364.490	1	19
364.661	1	13
364.832	1	14
365.002	1	19
365.173	1	16
365.344	1	17
365.515	1	16
365.686	1	20
365.857	1	21
366.028	1	17
366.199	1	21
366.370	1	2
366.540	1	7
366.711	1	19
366.882	1	23
367.053	1	16
367.224	1	25
367.395	1	6
367.566	1	18
367.737	1	11
367.908	1	12
368.078	1	9
368.249	1	24
368.420	1	18
368.591	1	18
368.762	1	13
368.933	1	14
369.104	1	21
369.274	1	18
369.445	1	20
369.616	1	14
369.787	1	12
369.958	1	18
370.129	1	20
370.300	1	4
370.471	1	17
370.641	1	19
370.812	1	19
370.983	1	15
371.154	1	14
371.325	1	12
371.496	1	15
371.667	1	23
371.837	1	14
372.008	1	8
372.179	1	10
372.350	1	17
372.521	1	22
372.692	1	16
372.863	1	21
373.033	1	14
373.204	1	19
373.375	1	18
373.546	1	13
373.717	1	10
373.888	1	13
374.059	1	11
374.229	1	22
374.400	1	16
374.571	1	1
374.742	1	20
374.913	1	14
375.084	1	15
375.254	1	10
375.425	1	17
375.596	1	23
375.767	1	24
375.938	1	11
376.109	1	5
376.279	1	8
376.450	1	20
376.621	1	28
376.792	1	23
376.963	1	10
377.134	1	10
377.304	1	24
377.475	1	13
377.646	1	22
377.817	1	16
377.988	1	20
378.159	1	29
378.329	1	18
378.500	1	25
378.671	1	17
378.842	1	14
379.013	1	26
379.184	1	16
379.354	1	17
379.525	1	20
379.696	1	18
379.867	1	10
380.038	1	18
380.209	1	20
380.379	1	26
380.550	1	4
380.721	1	13
380.892	1	19
381.063	1	16
381.233	1	16
381.404	1	20
381.575	1	15
381.746	1	18
381.917	1	18
382.087	1	25
382.258	1	26
382.429	1	15
382.600	1	15
382.771	1	17
382.941	1	26
383.112	1	17
383.283	1	14
383.454	1	16
383.625	1	18
383.795	1	29
383.966	1	26
384.137	1	23
384.308	1	16
384.479	1	21
384.649	1	20
384.820	1	23
384.991	1	8
385.162	1	40
385.333	1	11
385.503	1	14
385.674	1	17
385.845	1	19
386.016	1	29
386.187	1	9
386.357	1	30
386.528	1	19
386.699	1	10
386.870	1	28
387.041	1	17
387.211	1	20
387.382	1	32
387.553	1	25
387.724	1	11
387.894	1	14
388.065	1	25
388.236	1	14
388.407	1	28
388.578	1	24
388.748	1	26
388.919	1	21
389.090	1	34
389.261	1	30
389.431	1	9
389.602	1	25
389.773	1	26
389.944	1	21
390.114	1	28
390.285	1	33
390.456	1	20
390.627	1	27
390.798	1	20
390.968	1	30
391.139	1	28
391.310	1	11
391.481	1	33
391.651	1	41
391.822	1	32
391.993	1	22
392.164	1	30
392.334	1	22
392.505	1	37
392.676	1	18
392.847	1	25
393.017	1	19
393.188	1	32
393.359	1	40
393.530	1	27
393.700	1	23
393.871	1	27
394.042	1	18
394.213	1	30
394.383	1	26
394.554	1	25
394.725	1	14
394.896	1	38
395.066	1	20
395.237	1	16
395.408	1	26
395.579	1	19
395.749	1	32
395.920	1	39
396.091	1	21
396.262	1	29
396.432	1	17
396.603	1	40
396.774	1	28
396.945	1	27
397.115	1	37
397.286	1	31
397.457	1	35
397.627	1	19
397.798	1	25
397.969	1	32
398.140	1	22
398.310	1	29
398.481	1	31
398.652	1	32
398.823	1	23
398.993	1	23
399.164	1	31
399.335	1	26
399.505	1	16
399.676	1	33
399.847	1	26
400.018	1	28
400.188	1	29
400.359	1	34
400.530	1	30
400.700	1	24
400.871	1	27
401.042	1	24
401.213	1	35
401.383	1	29
401.554	1	26
401.725	1	21
401.895	1	19
402.066	1	32
402.237	1	30
402.408	1	32
402.578	1	25
402.749	1	19
402.920	1	30
403.090	1	20
403.261	1	19
403.432	1	33
403.603	1	30
403.773	1	26
403.944	1	33
404.115	1	26
404.285	1	25
404.456	1	34
404.627	1	39
404.797	1	18
404.968	1	28
405.139	1	35
405.310	1	20
405.480	1	28
405.651	1	19
405.822	1	26
405.992	1	30
406.163	1	15
406.334	1	33
406.504	1	30
406.675	1	22
406.846	1	29
407.016	1	33
407.187	1	34
407.358	1	18
407.528	1	33
407.699	1	39
407.870	1	39
408.041	1	35
408.211	1	33
408.382	1	19
408.553	1	38
408.723	1	33
408.894	1	14
409.065	1	24
409.235	1	27
409.406	1	22
409.577	1	29
409.747	1	28
409.918	1	37
410.089	1	42
410.259	1	35
410.430	1	33
410.601	1	40
410.771	1	34
410.942	1	25
411.113	1	28
411.283	1	29
411.454	1	46
411.625	1	36
411.795	1	34
411.966	1	37
412.137	1	43
412.307	1	27
412.478	1	26
412.649	1	27
412.819	1	34
412.990	1	29
413.161	1	32
413.331	1	39
413.502	1	23
413.672	1	30
413.843	1	25
414.014	1	30
414.184	1	38
414.355	1	36
414.526	1	31
414.696	1	32
414.867	1	24
415.038	1	29
415.208	1	26
415.379	1	28
415.550	1	33
415.720	1	37
415.891	1	35
416.062	1	41
416.232	1	33
416.403	1	28
416.573	1	24
416.744	1	34
416.915	1	34
417.085	1	36
417.256	1	16
417.427	1	25
417.597	1	23
417.768	1	28
417.939	1	27
418.109	1	24
418.280	1	27
418.450	1	36
418.621	1	28
418.792	1	33
418.962	1	31
419.133	1	29
419.304	1	29
419.474	1	36
419.645	1	33
419.815	1	33
419.986	1	29
420.157	1	24
420.327	1	25
420.498	1	20
420.669	1	35
420.839	1	36
421.010	1	25
421.180	1	22
421.351	1	28
421.522	1	34
421.692	1	33
421.863	1	34
422.033	1	37
422.204	1	36
422.375	1	28
422.545	1	36
422.716	1	27
422.886	1	32
423.057	1	24
423.228	1	30
423.398	1	39
423.569	1	29
423.740	1	24
423.910	1	30
424.081	1	36
424.251	1	36
424.422	1	29
424.593	1	30
424.763	1	31
424.934	1	28
425.104	1	36
425.275	1	31
425.445	1	34
425.616	1	30
425.787	1	19
425.957	1	32
426.128	1	29
426.298	1	27
426.469	1	24
426.640	1	31
426.810	1	13
426.981	1	41
427.151	1	23
427.322	1	27
427.493	1	29
427.663	1	27
427.834	1	24
428.004	1	32
428.175	1	31
428.345	1	15
428.516	1	25
428.687	1	37
428.857	1	24
429.028	1	27
429.198	1	25
429.369	1	24
429.540	1	34
429.710	1	31
429.881	1	15
430.051	1	28
430.222	1	34
430.392	1	21
430.563	1	26
430.734	1	22
430.904	1	20
431.075	1	29
431.245	1	25
431.416	1	27
431.586	1	26
431.757	1	28
431.927	1	24
432.098	1	36
432.269	1	21
432.439	1	11
432.610	1	34
432.780	1	38
432.951	1	13
433.121	1	24
433.292	1	31
433.462	1	24
433.633	1	32
433.804	1	25
433.974	1	27
434.145	1	23
434.315	1	23
434.486	1	25
434.656	1	32
434.827	1	30
434.997	1	37
435.168	1	34
435.339	1	41
435.509	1	30
435.680	1	27
435.850	1	17
436.021	1	17
436.191	1	28
436.362	1	29
436.532	1	24
436.703	1	26
436.873	1	23
437.044	1	22
437.214	1	23
437.385	1	29
437.556	1	23
437.726	1	33
437.897	1	25
438.067	1	24
438.238	1	28
438.408	1	36
438.579	1	14
438.749	1	23
438.920	1	29
439.090	1	3
439.261	1	29
439.431	1	13
439.602	1	18
439.772	1	30
439.943	1	28
440.113	1	10
440.284	1	23
440.455	1	22
440.625	1	27
440.796	1	28
440.966	1	33
441.137	1	22
441.307	1	31
441.478	1	27
441.648	1	20
441.819	1	26
441.989	1	39
442.160	1	21
442.330	1	30
442.501	1	23
442.671	1	20
442.842	1	32
443.012	1	21
443.183	1	30
443.353	1	16
443.524	1	10
443.694	1	17
443.865	1	34
444.035	1	16
444.206	1	19
444.376	1	36
444.547	1	17
444.717	1	17
444.888	1	15
445.058	1	24
445.229	1	19
445.399	1	23
445.570	1	22
445.740	1	12
445.911	1	31
446.081	1	25
446.252	1	20
446.422	1	22
446.593	1	26
446.763	1	10
446.934	1	27
447.104	1	24
447.275	1	18
447.445	1	26
447.616	1	17
447.786	1	17
447.957	1	23
448.127	1	18
448.298	1	18
448.468	1	28
448.639	1	18
448.809	1	12
448.979	1	29
449.150	1	15
449.320	1	17
449.491	1	11
449.661	1	15
449.832	1	15
450.002	1	13
450.173	1	27
450.343	1	19
450.514	1	17
450.684	1	26
450.855	1	18
451.025	1	14
451.196	1	22
451.366	1	25
451.537	1	20
451.707	1	20
451.878	1	17
452.048	1	10
452.218	1	20
452.389	1	19
452.559	1	30
452.730	1	22
452.900	1	18
453.071	1	29
453.241	1	27
453.412	1	12
453.582	1	20
453.753	1	26
453.923	1	4
454.093	1	15
454.264	1	34
454.434	1	23
454.605	1	17
454.775	1	31
454.946	1	8
455.116	1	24
455.287	1	14
455.457	1	15
455.628	1	12
455.798	1	16
455.968	1	13
456.139	1	30
456.309	1	16
456.480	1	15
456.650	1	27
456.821	1	18
456.991	1	23
457.161	1	27
457.332	1	11
457.502	1	12
457.673	1	20
457.843	1	18
458.014	1	16
458.184	1	26
458.355	1	21
458.525	1	14
458.695	1	11
458.866	1	18
459.036	1	18
459.207	1	15
459.377	1	28
459.548	1	16
459.718	1	15
459.888	1	17
460.059	1	23
460.229	1	13
460.400	1	11
460.570	1	16
460.740	1	7
460.911	1	18
461.081	1	14
461.252	1	17
461.422	1	17
461.593	1	26
461.763	1	29
461.933	1	8
462.104	1	8
462.274	1	6
462.445	1	13
462.615	1	18
462.785	1	16
462.956	1	3
463.126	1	18
463.297	1	13
463.467	1	22
463.638	1	17
463.808	1	15
463.978	1	-3
464.149	1	10
464.319	1	14
464.490	1	9
464.660	1	10
464.830	1	23
465.001	1	10
465.171	1	12
465.342	1	14
465.512	1	20
465.682	1	6
465.853	1	8
466.023	1	20
466.194	1	12
466.364	1	17
466.534	1	11
466.705	1	17
466.875	1	12
467.045	1	3
467.216	1	21
467.386	1	6
467.557	1	31
467.727	1	23
467.897	1	11
468.068	1	2
468.238	1	24
468.409	1	12
468.579	1	11
468.749	1	23
468.920	1	7
469.090	1	22
469.260	1	13
469.431	1	2
469.601	1	27
469.772	1	22
469.942	1	13
470.112	1	4
470.283	1	15
470.453	1	16
470.623	1	15
470.794	1	10
470.964	1	4
471.135	1	23
471.305	1	13
471.475	1	11
471.646	1	12
471.816	1	17
471.986	1	8
472.157	1	12
472.327	1	14
472.497	1	19
472.668	1	14
472.838	1	10
473.009	1	13
473.179	1	13
473.349	1	8
473.520	1	27
473.690	1	17
473.860	1	4
474.031	1	0
474.201	1	8
474.371	1	17
474.542	1	11
474.712	1	12
474.882	1	19
475.053	1	18
475.223	1	20
475.394	1	5
475.564	1	8
475.734	1	2
475.905	1	20
476.075	1	26
476.245	1	22
476.416	1	11
476.586	1	12
476.756	1	18
476.927	1	18
477.097	1	1
477.267	1	15
477.438	1	14
477.608	1	28
477.778	1	14
477.949	1	10
478.119	1	17
478.289	1	2
478.460	1	9
478.630	1	4
478.800	1	10
478.971	1	12
479.141	1	15
479.311	1	8
479.482	1	10
479.652	1	19
479.822	1	9
479.993	1	2
480.163	1	8
480.333	1	13
480.504	1	15
480.674	1	10
480.844	1	4
481.015	1	23
481.185	1	21
481.355	1	17
481.525	1	6
481.696	1	7
481.866	1	8
482.036	1	16
482.207	1	8
482.377	1	7
482.547	1	4
482.718	1	18
482.888	1	16
483.058	1	8
483.229	1	16
483.399	1	11
483.569	1	5
483.740	1	9
483.910	1	4
484.080	1	8
484.250	1	-5
484.421	1	10
484.591	1	5
484.761	1	16
484.932	1	-2
485.102	1	18
485.272	1	14
485.443	1	18
485.613	1	-7
485.783	1	13
485.953	1	9
486.124	1	11
486.294	1	12
486.464	1	15
486.635	1	5
486.805	1	12
486.975	1	9
487.146	1	9
487.316	1	16
487.486	1	15
487.656	1	7
487.827	1	9
487.997	1	4
488.167	1	8
488.338	1	0
488.508	1	21
488.678	1	6
488.848	1	15
489.019	1	4
489.189	1	19
489.359	1	8
489.529	1	11
489.700	1	10
489.870	1	16
490.040	1	10
490.211	1	3
490.381	1	8
490.551	1	7
490.721	1	14
490.892	1	-4
491.062	1	5
491.232	1	9
491.402	1	6
491.573	1	14
491.743	1	10
491.913	1	14
492.084	1	7
492.254	1	9
492.424	1	12
492.594	1	-3
492.765	1	26
492.935	1	8
493.105	1	10
493.275	1	8
493.446	1	0
493.616	1	2
493.786	1	11
493.956	1	14
494.127	1	5
494.297	1	-4
494.467	1	0
494.637	1	12
494.808	1	11
494.978	1	8
495.148	1	7
495.318	1	3
495.489	1	4
495.659	1	4
495.829	1	5
495.999	1	13
496.170	1	3
496.340	1	-3
496.510	1	20
496.680	1	2
496.851	1	22
497.021	1	-4
497.191	1	10
497.361	1	-8
497.532	1	18
497.702	1	10
497.872	1	0
498.042	1	5
498.213	1	-5
498.383	1	13
498.553	1	10
498.723	1	-2
498.894	1	9
499.064	1	-2
499.234	1	4
499.404	1	16
499.574	1	3
499.745	1	8
499.915	1	9
500.085	1	9
500.255	1	-4
500.426	1	1
500.596	1	0
500.766	1	2
500.936	1	0
501.106	1	3
501.277	1	-7
501.447	1	16
501.617	1	2
501.787	1	-6
501.958	1	16
502.128	1	7
502.298	1	14
502.468	1	0
502.638	1	9
502.809	1	9
502.979	1	12
503.149	1	11
503.319	1	3
503.489	1	-7
503.660	1	2
503.830	1	10
504.000	1	4
504.170	1	5
504.340	1	-1
504.511	1	7
504.681	1	-10
504.851	1	3
505.021	1	11
505.192	1	7
505.362	1	1
505.532	1	7
505.702	1	12
505.872	1	8
506.043	1	13
506.213	1	13
506.383	1	13
506.553	1	2
506.723	1	-4
506.893	1	18
507.064	1	17
507.234	1	0
507.404	1	7
507.574	1	-3
507.744	1	10
507.915	1	-3
508.085	1	4
508.255	1	2
508.425	1	4
508.595	1	2
508.766	1	-4
508.936	1	14
509.106	1	0
509.276	1	11
509.446	1	2
509.616	1	1
509.787	1	-1
509.957	1	9
510.127	1	-1
510.297	1	-7
510.467	1	10
510.638	1	6
510.808	1	21
510.978	1	5
511.148	1	6
511.318	1	9
511.488	1	10
511.659	1	9
511.829	1	0
511.999	1	-1
512.169	1	4
512.339	1	5
512.509	1	0
512.680	1	5
512.850	1	6
513.020	1	5
513.190	1	-12
513.360	1	14
513.530	1	3
513.700	1	10
513.871	1	1
514.041	1	8
514.211	1	5
514.381	1	6
514.551	1	6
514.721	1	3
514.892	1	0
515.062	1	7
515.232	1	-2
515.402	1	2
515.572	1	5
515.742	1	9
515.912	1	3
516.083	1	6
516.253	1	18
516.423	1	1
516.593	1	-1
516.763	1	15
516.933	1	13
517.104	1	3
517.274	1	-3
517.444	1	8
517.614	1	-7
517.784	1	8
517.954	1	0
518.124	1	6
518.294	1	6
518.465	1	4
518.635	1	10
518.805	1	4
518.975	1	5
519.145	1	1
519.315	1	6
519.485	1	-1
519.656	1	3
519.826	1	-4
519.996	1	9
520.166	1	-5
520.336	1	5
520.506	1	2
520.676	1	10
520.846	1	8
521.017	1	3
521.187	1	7
521.357	1	-6
521.527	1	-3
521.697	1	0
521.867	1	13
522.037	1	8
522.207	1	7
522.377	1	14
522.548	1	-6
522.718	1	-3
522.888	1	9
523.058	1	5
523.228	1	-10
523.398	1	-13
523.568	1	-4
523.738	1	2
523.909	1	-2
524.079	1	1
524.249	1	-2
524.419	1	8
524.589	1	5
524.759	1	13
524.929	1	-1
525.099	1	-4
525.269	1	7
525.439	1	4
525.610	1	12
525.780	1	5
525.950	1	2
526.120	1	-3
526.290	1	0
526.460	1	1
526.630	1	8
526.800	1	2
526.970	1	9
527.140	1	-2
527.311	1	1
527.481	1	9
527.651	1	4
527.821	1	1
527.991	1	5
528.161	1	6
528.331	1	1
528.501	1	-2
528.671	1	4
528.841	1	12
529.011	1	6
529.181	1	11
529.352	1	4
529.522	1	5
529.692	1	5
529.862	1	3
530.032	1	-4
530.202	1	-7
530.372	1	-2
530.542	1	-3
530.712	1	3
530.882	1	8
531.052	1	0
531.222	1	5
531.392	1	-3
531.563	1	8
531.733	1	4
531.903	1	2
532.073	1	9
532.243	1	2
532.413	1	16
532.583	1	11
532.753	1	-1
532.923	1	5
533.093	1	-4
533.263	1	6
533.433	1	-1
533.603	1	-1
533.773	1	-1
533.943	1	-4
534.113	1	1
534.284	1	3
534.454	1	8
534.624	1	11
534.794	1	-2
534.964	1	2
535.134	1	9
535.304	1	8
535.474	1	9
535.644	1	9
535.814	1	7
535.984	1	5
536.154	1	1
536.324	1	3
536.494	1	6
536.664	1	-8
536.834	1	6
537.004	1	19
537.174	1	12
537.344	1	10
537.514	1	4
537.685	1	9
537.855	1	8
538.025	1	11
538.195	1	-9
538.365	1	-6
538.535	1	-3
538.705	1	1
538.875	1	10
539.045	1	4
539.215	1	-5
539.385	1	7
539.555	1	4
539.725	1	3
539.895	1	5
540.065	1	-4
540.235	1	8
540.405	1	-1
540.575	1	7
540.745	1	-2
540.915	1	-5
541.085	1	-4
541.255	1	5
541.425	1	3
541.595	1	6
541.765	1	6
541.935	1	2
542.105	1	-1
542.275	1	-1
542.445	1	0
542.615	1	6
542.785	1	0
542.955	1	12
543.125	1	-1
543.295	1	4
543.465	1	1
543.635	1	-5
543.805	1	12
543.975	1	-2
544.145	1	-3
544.315	1	-14
544.485	1	-6
544.655	1	3
544.825	1	4
544.995	1	5
545.165	1	0
545.335	1	10
545.505	1	2
545.675	1	12
545.845	1	1
546.015	1	-5
546.185	1	1
546.355	1	4
546.525	1	9
546.695	1	-2
546.865	1	5
547.035	1	-3
547.205	1	10
547.375	1	7
547.545	1	6
547.715	1	2
547.885	1	2
548.055	1	-10
548.225	1	6
548.395	1	-1
548.565	1	5
548.735	1	-4
548.905	1	6
549.075	1	0
549.245	1	3
549.415	1	5
549.585	1	3
549.755	1	7
549.925	1	-6
550.095	1	-5
550.265	1	-7
550.435	1	7
550.605	1	5
550.775	1	1
550.945	1	-1
551.115	1	11
551.285	1	-1
551.455	1	14
551.625	1	-6
551.795	1	-8
551.965	1	2
552.135	1	1
552.305	1	1
552.475	1	1
552.645	1	-4
552.815	1	0
552.985	1	5
553.155	1	-4
553.325	1	2
553.495	1	4
553.665	1	1
553.835	1	-3
554.004	1	0
554.174	1	-12
554.344	1	6
554.514	1	0
554.684	1	12
554.854	1	-2
555.024	1	6
555.194	1	8
555.364	1	1
555.534	1	-9
555.704	1	6
555.874	1	2
556.044	1	1
556.214	1	-5
556.384	1	8
556.554	1	11
556.724	1	2
556.894	1	2
557.064	1	4
557.234	1	2
557.404	1	2
557.573	1	-3
557.743	1	-4
557.913	1	-2
558.083	1	3
558.253	1	1
558.423	1	2
558.593	1	6
558.763	1	6
558.933	1	1
559.103	1	-5
559.273	1	10
559.443	1	3
559.613	1	8
559.783	1	2
559.953	1	-10
560.122	1	7
560.292	1	-6
560.462	1	-8
560.632	1	-1
560.802	1	2
560.972	1	6
561.142	1	4
561.312	1	-4
561.482	1	10
561.652	1	2
561.822	1	-9
561.992	1	-4
562.162	1	0
562.331	1	-5
562.501	1	2
562.671	1	-2
562.841	1	-10
563.011	1	4
563.181	1	3
563.351	1	-2
563.521	1	0
563.691	1	6
563.861	1	-2
564.031	1	-3
564.201	1	-1
564.370	1	3
564.540	1	-4
564.710	1	-1
564.880	1	-6
565.050	1	8
565.220	1	12
565.390	1	-1
565.560	1	0
565.730	1	1
565.900	1	2
566.069	1	17
566.239	1	5
566.409	1	14
566.579	1	0
566.749	1	0
566.919	1	2
567.089	1	-10
567.259	1	-2
567.429	1	-5
567.599	1	8
567.768	1	-3
567.938	1	9
568.108	1	-1
568.278	1	5
568.448	1	-5
568.618	1	3
568.788	1	7
568.958	1	-6
569.128	1	-9
569.297	1	-10
569.467	1	8
569.637	1	-1
569.807	1	8
569.977	1	-3
570.147	1	1
570.317	1	3
570.487	1	3
570.656	1	1
570.826	1	4
570.996	1	10
571.166	1	2
571.336	1	1
571.506	1	-12
571.676	1	10
571.846	1	3
572.015	1	7
572.185	1	5
572.355	1	-9
572.525	1	-11
572.695	1	2
572.865	1	6
573.035	1	13
573.205	1	-8
573.374	1	3
573.544	1	7
573.714	1	-2
573.884	1	-7
574.054	1	4
574.224	1	8
574.394	1	4
574.563	1	-4
574.733	1	-9
574.903	1	5
575.073	1	4
575.243	1	-6
575.413	1	-3
575.583	1	5
575.752	1	-5
575.922	1	8
576.092	1	-6
576.262	1	6
576.432	1	0
576.602	1	-2
576.772	1	0
576.941	1	-3
577.111	1	0
577.281	1	2
577.451	1	8
577.621	1	2
577.791	1	3
577.960	1	5
578.130	1	6
578.300	1	1
578.470	1	-6
578.640	1	4
578.810	1	3
578.979	1	4
579.149	1	0
579.319	1	5
579.489	1	2
579.659	1	2
579.829	1	-3
579.998	1	-11
580.168	1	-5
580.338	1	0
580.508	1	-5
580.678	1	2
580.848	1	-4
581.017	1	-4
581.187	1	10
581.357	1	-2
581.527	1	11
581.697	1	-2
581.867	1	-3
582.036	1	-11
582.206	1	2
582.376	1	-3
582.546	1	-4
582.716	1	2
582.885	1	5
583.055	1	-1
583.225	1	11
583.395	1	-1
583.565	1	2
583.735	1	0
583.904	1	-2
584.074	1	1
584.244	1	-2
584.414	1	-7
584.584	1	0
584.753	1	-4
584.923	1	-5
585.093	1	10
585.263	1	8
585.433	1	-1
585.602	1	5
585.772	1	17
585.942	1	-8
586.112	1	-3
586.282	1	4
586.451	1	1
586.621	1	-7
586.791	1	-5
586.961	1	5
587.131	1	-4
587.300	1	3
587.470	1	1
587.640	1	1
587.810	1	-12
587.980	1	5
588.149	1	8
588.319	1	6
588.489	1	-3
588.659	1	0
588.829	1	-9
588.998	1	2
589.168	1	0
589.338	1	-6
589.508	1	-3
589.677	1	0
589.847	1	10
590.017	1	-6
590.187	1	2
590.357	1	-8
590.526	1	-9
590.696	1	5
590.866	1	-7
591.036	1	-4
591.205	1	-1
591.375	1	2
591.545	1	-1
591.715	1	-1
591.885	1	10
592.054	1	-2
592.224	1	0
592.394	1	-5
592.564	1	1
592.733	1	-2
592.903	1	1
593.073	1	-7
593.243	1	13
593.412	1	-4
593.582	1	6
593.752	1	-5
593.922	1	4
594.091	1	6
594.261	1	-15
594.431	1	0
594.601	1	-2
594.771	1	2
594.940	1	-3
595.110	1	6
595.280	1	4
595.450	1	7
595.619	1	2
595.789	1	1
595.959	1	-3
596.129	1	-3
596.298	1	9
596.468	1	1
596.638	1	-3
596.808	1	-11
596.977	1	-11
597.147	1	-3
597.317	1	1
597.487	1	8
597.656	1	-2
597.826	1	13
597.996	1	-3
598.166	1	3
598.335	1	-8
598.505	1	-1
598.675	1	9
598.844	1	12
599.014	1	-5
599.184	1	4
599.354	1	5
599.523	1	5
599.693	1	-1
599.863	1	2
600.033	1	0
600.202	1	-4
600.372	1	-7
600.542	1	-3
600.712	1	4
600.881	1	-2
601.051	1	10
601.221	1	5
601.390	1	3
601.560	1	11
601.730	1	3
601.900	1	1
602.069	1	3
602.239	1	2
602.409	1	-1
602.578	1	7
602.748	1	-4
602.918	1	-9
603.088	1	6
603.257	1	-3
603.427	1	4
603.597	1	-6
603.767	1	7
603.936	1	14
604.106	1	9
604.276	1	-1
604.445	1	-11
604.615	1	5
604.785	1	8
604.954	1	-2
605.124	1	6
605.294	1	-2
605.464	1	-5
605.633	1	0
605.803	1	9
605.973	1	4
606.142	1	-3
606.312	1	0
606.482	1	-4
606.652	1	4
606.821	1	2
606.991	1	9
607.161	1	4
607.330	1	-5
607.500	1	5
607.670	1	-7
607.839	1	4
608.009	1	0
608.179	1	8
608.348	1	-2
608.518	1	6
608.688	1	-4
608.858	1	-6
609.027	1	7
609.197	1	4
609.367	1	-1
609.536	1	-5
609.706	1	2
609.876	1	1
610.045	1	5
610.215	1	-2
610.385	1	11
610.554	1	-9
610.724	1	-2
610.894	1	-5
611.063	1	2
611.233	1	9
611.403	1	8
611.572	1	-6
611.742	1	-3
611.912	1	1
612.081	1	8
612.251	1	11
612.421	1	-2
612.590	1	5
612.760	1	10
612.930	1	13
613.099	1	0
613.269	1	2
613.439	1	-10
613.608	1	2
613.778	1	-1
613.948	1	7
614.117	1	5
614.287	1	-3
614.457	1	7
614.626	1	0
614.796	1	4
614.966	1	-8
615.135	1	6
615.305	1	1
615.475	1	2
615.644	1	18
615.814	1	9
615.984	1	-2
616.153	1	9
616.323	1	-4
616.493	1	-3
616.662	1	1
616.832	1	6
617.002	1	0
617.171	1	9
617.341	1	8
617.511	1	-5
617.680	1	1
617.850	1	-4
618.019	1	6
618.189	1	4
618.359	1	6
618.528	1	3
618.698	1	6
618.868	1	1
619.037	1	6
619.207	1	-6
619.377	1	9
619.546	1	5
619.716	1	5
619.885	1	6
620.055	1	-5
620.225	1	3
620.394	1	-2
620.564	1	7
620.734	1	3
620.903	1	-8
621.073	1	7
621.242	1	5
621.412	1	-6
621.582	1	18
621.751	1	0
621.921	1	9
622.091	1	-5
622.260	1	1
622.430	1	3
622.599	1	2
622.769	1	2
622.939	1	1
623.108	1	5
623.278	1	-7
623.448	1	3
623.617	1	4
623.787	1	3
623.956	1	2
624.126	1	11
624.296	1	1
624.465	1	10
624.635	1	7
624.804	1	-6
624.974	1	-8
625.144	1	-1
625.313	1	11
625.483	1	14
625.652	1	-1
625.822	1	3
625.992	1	0
626.161	1	4
626.331	1	3
626.501	1	0
626.670	1	-2
626.840	1	-6
627.009	1	4
627.179	1	3
627.348	1	4
627.518	1	15
627.688	1	1
627.857	1	8
628.027	1	6
628.196	1	8
628.366	1	-7
628.536	1	4
628.705	1	-1
628.875	1	-3
629.044	1	2
629.214	1	1
629.384	1	7
629.553	1	5
629.723	1	10
629.892	1	0
630.062	1	1
630.232	1	15
630.401	1	1
630.571	1	-2
630.740	1	-2
630.910	1	11
631.079	1	-5
631.249	1	5
631.419	1	1
631.588	1	7
631.758	1	-8
631.927	1	10
632.097	1	-6
632.266	1	5
632.436	1	3
632.606	1	-3
632.775	1	6
632.945	1	-6
633.114	1	5
633.284	1	-9
633.453	1	6
633.623	1	11
633.793	1	4
633.962	1	4
634.132	1	4
634.301	1	5
634.471	1	10
634.640	1	-3
634.810	1	14
634.979	1	0
635.149	1	-3
635.319	1	-8
635.488	1	13
635.658	1	1
635.827	1	4
635.997	1	7
636.166	1	7
636.336	1	4
636.505	1	2
636.675	1	3
636.845	1	0
637.014	1	-10
637.184	1	20
637.353	1	5
637.523	1	-7
637.692	1	2
637.862	1	-7
638.031	1	3
638.201	1	5
638.370	1	0
638.540	1	-4
638.710	1	-5
638.879	1	-5
639.049	1	4
639.218	1	12
639.388	1	9
639.557	1	-3
639.727	1	10
639.896	1	-3
640.066	1	2
640.235	1	3
640.405	1	2
640.574	1	5
640.744	1	-6
640.914	1	4
641.083	1	6
641.253	1	0
641.422	1	-1
641.592	1	7
641.761	1	2
641.931	1	12
642.100	1	-5
642.270	1	2
642.439	1	4
642.609	1	5
642.778	1	0
642.948	1	11
643.117	1	10
643.287	1	2
643.456	1	0
643.626	1	5
643.795	1	7
643.965	1	1
644.134	1	7
644.304	1	-4
644.473	1	4
644.643	1	9
644.812	1	-10
644.982	1	-1
645.151	1	3
645.321	1	20
645.490	1	16
645.660	1	-3
645.829	1	6
645.999	1	5
646.168	1	15
646.338	1	-8
646.507	1	-6
646.677	1	6
646.846	1	3
647.016	1	17
647.185	1	6
647.355	1	13
647.524	1	-7
647.694	1	-2
647.863	1	-3
648.033	1	9
648.202	1	9
648.372	1	-4
648.541	1	2
648.711	1	4
648.880	1	1
649.050	1	10
649.219	1	11
649.389	1	-9
649.558	1	8
649.728	1	-7
649.897	1	-3
650.067	1	7
650.236	1	-1
650.406	1	12
650.575	1	4
650.745	1	4
650.914	1	2
651.084	1	6
651.253	1	-6
651.423	1	-6
651.592	1	-5
651.762	1	-2
651.931	1	13
652.101	1	-4
652.270	1	-2
652.440	1	7
652.609	1	8
652.778	1	10
652.948	1	-2
653.117	1	9
653.287	1	-10
653.456	1	0
653.626	1	-1
653.795	1	6
653.965	1	5
654.134	1	-3
654.304	1	4
654.473	1	-4
654.643	1	-4
654.812	1	12
654.982	1	5
655.151	1	7
655.320	1	-3
655.490	1	4
655.659	1	6
655.829	1	8
655.998	1	16
656.168	1	-3
656.337	1	5
656.507	1	-4
656.676	1	-5
656.846	1	6
657.015	1	11
657.184	1	0
657.354	1	3
657.523	1	-4
657.693	1	1
657.862	1	-4
658.032	1	2
658.201	1	-5
658.371	1	9
658.540	1	-7
658.709	1	17
658.879	1	8
659.048	1	-2
659.218	1	-9
659.387	1	6
659.557	1	1
659.726	1	2
659.895	1	-1
660.065	1	-5
660.234	1	-8
660.404	1	3
660.573	1	6
660.743	1	-1
660.912	1	2
661.081	1	-3
661.251	1	-8
661.420	1	11
661.590	1	0
661.759	1	6
661.929	1	7
662.098	1	9
662.267	1	-9
662.437	1	5
662.606	1	-4
662.776	1	7
662.945	1	7
663.115	1	11
663.284	1	1
663.453	1	-8
663.623	1	0
663.792	1	12
663.962	1	8
664.131	1	0
664.300	1	-7
664.470	1	0
664.639	1	7
664.809	1	-1
664.978	1	2
665.148	1	7
665.317	1	2
665.486	1	12
665.656	1	-1
665.825	1	8
665.995	1	-7
666.164	1	-2
666.333	1	3
666.503	1	-10
666.672	1	4
666.842	1	-3
667.011	1	1
667.180	1	1
667.350	1	9
667.519	1	11
667.689	1	0
667.858	1	5
668.027	1	-2
668.197	1	-11
668.366	1	0
668.536	1	1
668.705	1	2
668.874	1	13
669.044	1	4
669.213	1	14
669.382	1	11
669.552	1	9
669.721	1	-2
669.891	1	-9
670.060	1	5
670.229	1	-1
670.399	1	10
670.568	1	-4
670.738	1	0
670.907	1	3
671.076	1	11
671.246	1	11
671.415	1	13
671.584	1	7
671.754	1	1
671.923	1	0
672.093	1	4
672.262	1	1
672.431	1	14
672.601	1	13
672.770	1	-6
672.939	1	3
673.109	1	-2
673.278	1	1
673.448	1	7
673.617	1	8
673.786	1	-3
