325.333	1	13
325.504	1	4
325.675	1	15
325.846	1	2
326.017	1	-1
326.188	1	3
326.359	1	6
326.531	1	3
326.702	1	-3
326.873	1	9
327.044	1	7
327.215	1	-1
327.386	1	10
327.557	1	4
327.728	1	3
327.899	1	1
328.070	1	15
328.241	1	2
328.412	1	3
328.583	1	3
328.754	1	12
328.926	1	9
329.097	1	0
329.268	1	13
329.439	1	14
329.610	1	7
329.781	1	10
329.952	1	18
330.123	1	-1
330.294	1	9
330.465	1	-2
330.636	1	10
330.807	1	6
330.978	1	7
331.149	1	3
331.320	1	8
331.492	1	0
331.663	1	5
331.834	1	7
332.005	1	9
332.176	1	10
332.347	1	1
332.518	1	11
332.689	1	9
332.860	1	8
333.031	1	4
333.202	1	3
333.373	1	19
333.544	1	3
333.715	1	9
333.886	1	-3
334.057	1	1
334.228	1	16
334.399	1	9
334.570	1	8
334.741	1	1
334.912	1	2
335.084	1	13
335.255	1	9
335.426	1	9
335.597	1	3
335.768	1	14
335.939	1	6
336.110	1	3
336.281	1	7
336.452	1	18
336.623	1	2
336.794	1	6
336.965	1	4
337.136	1	18
337.307	1	7
337.478	1	7
337.649	1	5
337.820	1	6
337.991	1	9
338.162	1	10
338.333	1	5
338.504	1	4
338.675	1	5
338.846	1	3
339.017	1	7
339.188	1	12
339.359	1	7
339.530	1	7
339.701	1	13
339.872	1	15
340.043	1	9
340.214	1	12
340.385	1	-3
340.556	1	16
340.727	1	12
340.898	1	3
341.069	1	9
341.240	1	6
341.411	1	11
341.582	1	1
341.753	1	4
341.924	1	21
342.095	1	10
342.266	1	18
342.437	1	10
342.608	1	6
342.779	1	6
342.950	1	11
343.121	1	9
343.292	1	16
343.463	1	20
343.634	1	8
343.805	1	5
343.976	1	18
344.147	1	19
344.318	1	1
344.489	1	7
344.660	1	10
344.831	1	25
345.002	1	14
345.173	1	12
345.344	1	9
345.515	1	13
345.686	1	14
345.857	1	13
346.028	1	8
346.199	1	19
346.370	1	21
346.541	1	1
346.712	1	10
346.883	1	1
347.054	1	17
347.225	1	11
347.396	1	10
347.567	1	1
347.738	1	8
347.909	1	19
348.080	1	10
348.251	1	11
348.422	1	20
348.593	1	12
348.764	1	14
348.935	1	17
349.106	1	9
349.277	1	10
349.448	1	13
349.619	1	8
349.790	1	17
349.961	1	3
350.132	1	14
350.303	1	22
350.474	1	18
350.645	1	16
350.816	1	16
350.987	1	26
351.157	1	8
351.328	1	14
351.499	1	10
351.670	1	16
351.841	1	18
352.012	1	16
352.183	1	23
352.354	1	6
352.525	1	11
352.696	1	10
352.867	1	25
353.038	1	25
353.209	1	9
353.380	1	17
353.551	1	28
353.722	1	19
353.893	1	20
354.064	1	18
354.235	1	9
354.406	1	7
354.576	1	11
354.747	1	24
354.918	1	13
355.089	1	25
355.260	1	15
355.431	1	12
355.602	1	9
355.773	1	13
355.944	1	13
356.115	1	21
356.286	1	17
356.457	1	20
356.628	1	16
356.799	1	20
356.970	1	28
357.141	1	17
357.311	1	18
357.482	1	15
357.653	1	8
357.824	1	17
357.995	1	17
358.166	1	11
358.337	1	15
358.508	1	28
358.679	1	12
358.850	1	31
359.021	1	14
359.192	1	26
359.363	1	24
359.533	1	9
359.704	1	11
359.875	1	20
360.046	1	17
360.217	1	23
360.388	1	32
360.559	1	21
360.730	1	7
360.901	1	19
361.072	1	22
361.243	1	22
361.414	1	25
361.584	1	9
361.755	1	14
361.926	1	27
362.097	1	11
362.268	1	26
362.439	1	17
362.610	1	22
362.781	1	11
362.952	1	21
363.123	1	9
363.293	1	16
363.464	1	22
363.635	1	23
363.806	1	12
363.977	1	30
364.148	1	14
364.319	1	15
364.490	1	26
364.661	1	18
364.832	1	22
365.002	1	25
365.173	1	20
365.344	1	15
365.515	1	21
365.686	1	18
365.857	1	29
366.028	1	22
366.199	1	27
366.370	1	30
366.540	1	14
366.711	1	32
366.882	1	21
367.053	1	16
367.224	1	31
367.395	1	13
367.566	1	19
367.737	1	12
367.908	1	24
368.078	1	9
368.249	1	22
368.420	1	24
368.591	1	19
368.762	1	24
368.933	1	18
369.104	1	22
369.274	1	22
369.445	1	24
369.616	1	13
369.787	1	19
369.958	1	17
370.129	1	17
370.300	1	14
370.471	1	19
370.641	1	13
370.812	1	30
370.983	1	19
371.154	1	26
371.325	1	19
371.496	1	23
371.667	1	29
371.837	1	16
372.008	1	22
372.179	1	22
372.350	1	19
372.521	1	20
372.692	1	23
372.863	1	25
373.033	1	19
373.204	1	28
373.375	1	26
373.546	1	25
373.717	1	21
373.888	1	35
374.059	1	17
374.229	1	45
374.400	1	19
374.571	1	18
374.742	1	31
374.913	1	6
375.084	1	16
375.254	1	13
375.425	1	23
375.596	1	25
375.767	1	19
375.938	1	11
376.109	1	23
376.279	1	10
376.450	1	25
376.621	1	28
376.792	1	23
376.963	1	7
377.134	1	18
377.304	1	30
377.475	1	16
377.646	1	14
377.817	1	22
377.988	1	16
378.159	1	29
378.329	1	21
378.500	1	14
378.671	1	27
378.842	1	26
379.013	1	29
379.184	1	21
379.354	1	31
379.525	1	26
379.696	1	27
379.867	1	29
380.038	1	18
380.209	1	36
380.379	1	25
380.550	1	12
380.721	1	29
380.892	1	20
381.063	1	22
381.233	1	26
381.404	1	24
381.575	1	16
381.746	1	28
381.917	1	29
382.087	1	31
382.258	1	33
382.429	1	16
382.600	1	25
382.771	1	17
382.941	1	31
383.112	1	25
383.283	1	23
383.454	1	34
383.625	1	34
383.795	1	25
383.966	1	30
384.137	1	31
384.308	1	24
384.479	1	23
384.649	1	20
384.820	1	26
384.991	1	28
385.162	1	32
385.333	1	34
385.503	1	19
385.674	1	33
385.845	1	34
386.016	1	29
386.187	1	21
386.357	1	47
386.528	1	33
386.699	1	23
386.870	1	22
387.041	1	32
387.211	1	24
387.382	1	42
387.553	1	34
387.724	1	34
387.894	1	21
388.065	1	31
388.236	1	24
388.407	1	30
388.578	1	32
388.748	1	32
388.919	1	40
389.090	1	47
389.261	1	31
389.431	1	15
389.602	1	24
389.773	1	33
389.944	1	34
390.114	1	32
390.285	1	30
390.456	1	29
390.627	1	32
390.798	1	29
390.968	1	32
391.139	1	36
391.310	1	30
391.481	1	16
391.651	1	32
391.822	1	31
391.993	1	16
392.164	1	36
392.334	1	20
392.505	1	28
392.676	1	24
392.847	1	28
393.017	1	33
393.188	1	28
393.359	1	36
393.530	1	39
393.700	1	32
393.871	1	39
394.042	1	19
394.213	1	25
394.383	1	29
394.554	1	29
394.725	1	21
394.896	1	39
395.066	1	37
395.237	1	38
395.408	1	24
395.579	1	30
395.749	1	37
395.920	1	41
396.091	1	25
396.262	1	40
396.432	1	29
396.603	1	28
396.774	1	20
396.945	1	33
397.115	1	33
397.286	1	34
397.457	1	36
397.627	1	31
397.798	1	34
397.969	1	32
398.140	1	34
398.310	1	25
398.481	1	44
398.652	1	42
398.823	1	34
398.993	1	28
399.164	1	42
399.335	1	26
399.505	1	19
399.676	1	43
399.847	1	37
400.018	1	29
400.188	1	29
400.359	1	30
400.530	1	35
400.700	1	36
400.871	1	37
401.042	1	37
401.213	1	34
401.383	1	32
401.554	1	33
401.725	1	29
401.895	1	18
402.066	1	34
402.237	1	33
402.408	1	42
402.578	1	38
402.749	1	32
402.920	1	36
403.090	1	28
403.261	1	28
403.432	1	35
403.603	1	36
403.773	1	34
403.944	1	42
404.115	1	29
404.285	1	41
404.456	1	36
404.627	1	36
404.797	1	31
404.968	1	49
405.139	1	43
405.310	1	36
405.480	1	23
405.651	1	34
405.822	1	35
405.992	1	34
406.163	1	43
406.334	1	27
406.504	1	36
406.675	1	29
406.846	1	30
407.016	1	45
407.187	1	36
407.358	1	31
407.528	1	37
407.699	1	35
407.870	1	34
408.041	1	45
408.211	1	42
408.382	1	41
408.553	1	37
408.723	1	46
408.894	1	27
409.065	1	40
409.235	1	41
409.406	1	26
409.577	1	31
409.747	1	39
409.918	1	35
410.089	1	46
410.259	1	37
410.430	1	38
410.601	1	35
410.771	1	52
410.942	1	38
411.113	1	45
411.283	1	38
411.454	1	43
411.625	1	40
411.795	1	41
411.966	1	30
412.137	1	49
412.307	1	40
412.478	1	40
412.649	1	40
412.819	1	32
412.990	1	38
413.161	1	27
413.331	1	35
413.502	1	34
413.672	1	35
413.843	1	32
414.014	1	40
414.184	1	42
414.355	1	37
414.526	1	38
414.696	1	33
414.867	1	31
415.038	1	35
415.208	1	33
415.379	1	30
415.550	1	26
415.720	1	43
415.891	1	44
416.062	1	34
416.232	1	39
416.403	1	41
416.573	1	32
416.744	1	39
416.915	1	35
417.085	1	38
417.256	1	38
417.427	1	34
417.597	1	30
417.768	1	33
417.939	1	26
418.109	1	28
418.280	1	32
418.450	1	40
418.621	1	35
418.792	1	38
418.962	1	28
419.133	1	31
419.304	1	36
419.474	1	40
419.645	1	37
419.815	1	38
419.986	1	46
420.157	1	36
420.327	1	30
420.498	1	32
420.669	1	37
420.839	1	42
421.010	1	48
421.180	1	37
421.351	1	38
421.522	1	29
421.692	1	40
421.863	1	34
422.033	1	38
422.204	1	41
422.375	1	41
422.545	1	39
422.716	1	16
422.886	1	27
423.057	1	29
423.228	1	33
423.398	1	36
423.569	1	44
423.740	1	40
423.910	1	41
424.081	1	37
424.251	1	26
424.422	1	41
424.593	1	32
424.763	1	43
424.934	1	35
425.104	1	57
425.275	1	27
425.445	1	28
425.616	1	40
425.787	1	37
425.957	1	38
426.128	1	37
426.298	1	39
426.469	1	26
426.640	1	32
426.810	1	21
426.981	1	38
427.151	1	31
427.322	1	34
427.493	1	43
427.663	1	34
427.834	1	30
428.004	1	32
428.175	1	32
428.345	1	30
428.516	1	27
428.687	1	41
428.857	1	38
429.028	1	31
429.198	1	26
429.369	1	37
429.540	1	33
429.710	1	34
429.881	1	31
430.051	1	19
430.222	1	34
430.392	1	32
430.563	1	24
430.734	1	31
430.904	1	38
431.075	1	45
431.245	1	29
431.416	1	33
431.586	1	30
431.757	1	33
431.927	1	34
432.098	1	36
432.269	1	26
432.439	1	32
432.610	1	39
432.780	1	35
432.951	1	23
433.121	1	22
433.292	1	32
433.462	1	31
433.633	1	40
433.804	1	34
433.974	1	37
434.145	1	30
434.315	1	33
434.486	1	30
434.656	1	27
434.827	1	38
434.997	1	28
435.168	1	37
435.339	1	40
435.509	1	38
435.680	1	32
435.850	1	26
436.021	1	27
436.191	1	31
436.362	1	30
436.532	1	26
436.703	1	32
436.873	1	34
437.044	1	18
437.214	1	24
437.385	1	34
437.556	1	25
437.726	1	30
437.897	1	34
438.067	1	23
438.238	1	30
438.408	1	33
438.579	1	18
438.749	1	29
438.920	1	45
439.090	1	32
439.261	1	40
439.431	1	19
439.602	1	37
439.772	1	31
439.943	1	23
440.113	1	36
440.284	1	37
440.455	1	30
440.625	1	34
440.796	1	29
440.966	1	33
441.137	1	45
441.307	1	29
441.478	1	19
441.648	1	22
441.819	1	33
441.989	1	35
442.160	1	32
442.330	1	26
442.501	1	32
442.671	1	31
442.842	1	29
443.012	1	24
443.183	1	30
443.353	1	32
443.524	1	31
443.694	1	28
443.865	1	34
444.035	1	31
444.206	1	28
444.376	1	25
444.547	1	36
444.717	1	21
444.888	1	12
445.058	1	31
445.229	1	13
445.399	1	24
445.570	1	25
445.740	1	31
445.911	1	19
446.081	1	34
446.252	1	32
446.422	1	18
446.593	1	36
446.763	1	24
446.934	1	19
447.104	1	22
447.275	1	34
447.445	1	23
447.616	1	31
447.786	1	18
447.957	1	17
448.127	1	28
448.298	1	15
448.468	1	21
448.639	1	25
448.809	1	19
448.979	1	35
449.150	1	23
449.320	1	31
449.491	1	29
449.661	1	20
449.832	1	17
450.002	1	19
450.173	1	29
450.343	1	27
450.514	1	24
450.684	1	32
450.855	1	23
451.025	1	18
451.196	1	35
451.366	1	33
451.537	1	22
451.707	1	32
451.878	1	30
452.048	1	22
452.218	1	34
452.389	1	34
452.559	1	44
452.730	1	31
452.900	1	24
453.071	1	36
453.241	1	33
453.412	1	25
453.582	1	28
453.753	1	22
453.923	1	23
454.093	1	34
454.264	1	25
454.434	1	26
454.605	1	17
454.775	1	27
454.946	1	21
455.116	1	28
455.287	1	16
455.457	1	26
455.628	1	18
455.798	1	22
455.968	1	33
456.139	1	24
456.309	1	19
456.480	1	19
456.650	1	23
456.821	1	12
456.991	1	32
457.161	1	19
457.332	1	28
457.502	1	27
457.673	1	12
457.843	1	26
458.014	1	26
458.184	1	24
458.355	1	29
458.525	1	20
458.695	1	13
458.866	1	28
459.036	1	14
459.207	1	14
459.377	1	33
459.548	1	24
459.718	1	22
459.888	1	24
460.059	1	27
460.229	1	23
460.400	1	24
460.570	1	24
460.740	1	28
460.911	1	17
461.081	1	31
461.252	1	29
461.422	1	15
461.593	1	23
461.763	1	25
461.933	1	17
462.104	1	19
462.274	1	14
462.445	1	16
462.615	1	36
462.785	1	15
462.956	1	13
463.126	1	24
463.297	1	21
463.467	1	23
463.638	1	38
463.808	1	22
463.978	1	6
464.149	1	19
464.319	1	21
464.490	1	11
464.660	1	16
464.830	1	21
465.001	1	12
465.171	1	23
465.342	1	23
465.512	1	17
465.682	1	15
465.853	1	17
466.023	1	27
466.194	1	26
466.364	1	28
466.534	1	23
466.705	1	20
466.875	1	7
467.045	1	13
467.216	1	17
467.386	1	22
467.557	1	29
467.727	1	13
467.897	1	19
468.068	1	17
468.238	1	23
468.409	1	12
468.579	1	7
468.749	1	19
468.920	1	9
469.090	1	26
469.260	1	18
469.431	1	5
469.601	1	19
469.772	1	30
469.942	1	25
470.112	1	8
470.283	1	19
470.453	1	21
470.623	1	18
470.794	1	17
470.964	1	9
471.135	1	24
471.305	1	12
471.475	1	18
471.646	1	24
471.816	1	14
471.986	1	11
472.157	1	15
472.327	1	17
472.497	1	13
472.668	1	25
472.838	1	19
473.009	1	12
473.179	1	16
473.349	1	10
473.520	1	28
473.690	1	13
473.860	1	13
474.031	1	9
474.201	1	18
474.371	1	17
474.542	1	5
474.712	1	9
474.882	1	11
475.053	1	19
475.223	1	7
475.394	1	14
475.564	1	13
475.734	1	17
475.905	1	20
476.075	1	25
476.245	1	11
476.416	1	12
476.586	1	11
476.756	1	22
476.927	1	11
477.097	1	14
477.267	1	14
477.438	1	18
477.608	1	23
477.778	1	8
477.949	1	3
478.119	1	22
478.289	1	10
478.460	1	17
478.630	1	12
478.800	1	6
478.971	1	13
479.141	1	14
479.311	1	5
479.482	1	7
479.652	1	17
479.822	1	14
479.993	1	11
480.163	1	19
480.333	1	14
480.504	1	14
480.674	1	14
480.844	1	12
481.015	1	23
481.185	1	27
481.355	1	16
481.525	1	6
481.696	1	11
481.866	1	8
482.036	1	17
482.207	1	24
482.377	1	1
482.547	1	8
482.718	1	16
482.888	1	18
483.058	1	20
483.229	1	9
483.399	1	15
483.569	1	5
483.740	1	15
483.910	1	13
484.080	1	15
484.250	1	4
484.421	1	-2
484.591	1	11
484.761	1	20
484.932	1	7
485.102	1	20
485.272	1	15
485.443	1	13
485.613	1	-9
485.783	1	13
485.953	1	8
486.124	1	12
486.294	1	15
486.464	1	18
486.635	1	10
486.805	1	13
486.975	1	4
487.146	1	11
487.316	1	19
487.486	1	17
487.656	1	16
487.827	1	4
487.997	1	12
488.167	1	17
488.338	1	9
488.508	1	22
488.678	1	13
488.848	1	3
489.019	1	2
489.189	1	16
489.359	1	16
489.529	1	9
489.700	1	11
489.870	1	16
490.040	1	2
490.211	1	3
490.381	1	14
490.551	1	15
490.721	1	18
490.892	1	8
491.062	1	5
491.232	1	11
491.402	1	5
491.573	1	14
491.743	1	13
491.913	1	20
492.084	1	8
492.254	1	9
492.424	1	9
492.594	1	3
492.765	1	17
492.935	1	19
493.105	1	6
493.275	1	2
493.446	1	4
493.616	1	2
493.786	1	10
493.956	1	22
494.127	1	2
494.297	1	-3
494.467	1	5
494.637	1	8
494.808	1	18
494.978	1	5
495.148	1	14
495.318	1	16
495.489	1	6
495.659	1	10
495.829	1	13
495.999	1	18
496.170	1	6
496.340	1	1
496.510	1	10
496.680	1	14
496.851	1	10
497.021	1	8
497.191	1	8
497.361	1	-3
497.532	1	12
497.702	1	4
497.872	1	20
498.042	1	8
498.213	1	10
498.383	1	14
498.553	1	12
498.723	1	6
498.894	1	13
499.064	1	16
499.234	1	8
499.404	1	16
499.574	1	10
499.745	1	8
499.915	1	7
500.085	1	4
500.255	1	7
500.426	1	5
500.596	1	1
500.766	1	12
500.936	1	1
501.106	1	14
501.277	1	8
501.447	1	10
501.617	1	2
501.787	1	-3
501.958	1	6
502.128	1	16
502.298	1	12
502.468	1	6
502.638	1	7
502.809	1	1
502.979	1	10
503.149	1	11
503.319	1	16
503.489	1	-6
503.660	1	2
503.830	1	13
504.000	1	12
504.170	1	5
504.340	1	6
504.511	1	6
504.681	1	-2
504.851	1	2
505.021	1	14
505.192	1	5
505.362	1	-2
505.532	1	-3
505.702	1	24
505.872	1	8
506.043	1	20
506.213	1	10
506.383	1	14
506.553	1	12
506.723	1	2
506.893	1	9
507.064	1	18
507.234	1	10
507.404	1	-2
507.574	1	10
507.744	1	6
507.915	1	1
508.085	1	7
508.255	1	10
508.425	1	1
508.595	1	6
508.766	1	13
508.936	1	19
509.106	1	8
509.276	1	4
509.446	1	6
509.616	1	-2
509.787	1	10
509.957	1	23
510.127	1	5
510.297	1	-1
510.467	1	10
510.638	1	14
510.808	1	22
510.978	1	4
511.148	1	5
511.318	1	14
511.488	1	14
511.659	1	0
511.829	1	9
511.999	1	10
512.169	1	10
512.339	1	18
512.509	1	-8
512.680	1	-4
512.850	1	10
513.020	1	6
513.190	1	1
513.360	1	14
513.530	1	6
513.700	1	9
513.871	1	-4
514.041	1	15
514.211	1	16
514.381	1	9
514.551	1	-1
514.721	1	8
514.892	1	6
515.062	1	5
515.232	1	9
515.402	1	10
515.572	1	5
515.742	1	10
515.912	1	12
516.083	1	7
516.253	1	10
516.423	1	10
516.593	1	4
516.763	1	10
516.933	1	5
517.104	1	8
517.274	1	-3
517.444	1	9
517.614	1	-2
517.784	1	8
517.954	1	2
518.124	1	5
518.294	1	8
518.465	1	6
518.635	1	16
518.805	1	6
518.975	1	11
519.145	1	9
519.315	1	12
519.485	1	-3
519.656	1	3
519.826	1	-5
519.996	1	6
520.166	1	-2
520.336	1	10
520.506	1	11
520.676	1	14
520.846	1	12
521.017	1	8
521.187	1	12
521.357	1	2
521.527	1	9
521.697	1	3
521.867	1	10
522.037	1	7
522.207	1	15
522.377	1	9
522.548	1	-8
522.718	1	4
522.888	1	8
523.058	1	6
523.228	1	-3
523.398	1	9
523.568	1	0
523.738	1	8
523.909	1	4
524.079	1	-4
524.249	1	7
524.419	1	6
524.589	1	10
524.759	1	15
524.929	1	-10
525.099	1	5
525.269	1	8
525.439	1	-5
525.610	1	12
525.780	1	-1
525.950	1	5
526.120	1	3
526.290	1	-2
526.460	1	-5
526.630	1	5
526.800	1	-3
526.970	1	15
527.140	1	4
527.311	1	5
527.481	1	11
527.651	1	9
527.821	1	-1
527.991	1	-8
528.161	1	9
528.331	1	-2
528.501	1	-3
528.671	1	8
528.841	1	7
529.011	1	4
529.181	1	6
529.352	1	-2
529.522	1	5
529.692	1	6
529.862	1	-4
530.032	1	-10
530.202	1	-3
530.372	1	4
530.542	1	7
530.712	1	7
530.882	1	8
531.052	1	5
531.222	1	5
531.392	1	-4
531.563	1	0
531.733	1	2
531.903	1	10
532.073	1	5
532.243	1	8
532.413	1	15
532.583	1	11
532.753	1	9
532.923	1	9
533.093	1	-4
533.263	1	4
533.433	1	-7
533.603	1	-2
533.773	1	3
533.943	1	2
534.113	1	4
534.284	1	10
534.454	1	-1
534.624	1	0
534.794	1	15
534.964	1	1
535.134	1	-8
535.304	1	4
535.474	1	13
535.644	1	15
535.814	1	6
535.984	1	4
536.154	1	6
536.324	1	-2
536.494	1	13
536.664	1	-2
536.834	1	3
537.004	1	7
537.174	1	5
537.344	1	-3
537.514	1	-6
537.685	1	17
537.855	1	4
538.025	1	13
538.195	1	0
538.365	1	5
538.535	1	4
538.705	1	3
538.875	1	3
539.045	1	4
539.215	1	-7
539.385	1	3
539.555	1	8
539.725	1	9
539.895	1	9
540.065	1	4
540.235	1	7
540.405	1	4
540.575	1	5
540.745	1	-1
540.915	1	-1
541.085	1	-9
541.255	1	-2
541.425	1	-7
541.595	1	6
541.765	1	13
541.935	1	3
542.105	1	2
542.275	1	1
542.445	1	8
542.615	1	12
542.785	1	3
542.955	1	7
543.125	1	1
543.295	1	12
543.465	1	5
543.635	1	-9
543.805	1	16
543.975	1	1
544.145	1	11
544.315	1	-7
544.485	1	-7
544.655	1	18
544.825	1	2
544.995	1	11
545.165	1	1
545.335	1	13
545.505	1	4
545.675	1	10
545.845	1	10
546.015	1	-9
546.185	1	-1
546.355	1	2
546.525	1	5
546.695	1	2
546.865	1	5
547.035	1	4
547.205	1	8
547.375	1	13
547.545	1	14
547.715	1	8
547.885	1	-1
548.055	1	2
548.225	1	16
548.395	1	5
548.565	1	2
548.735	1	1
548.905	1	5
549.075	1	6
549.245	1	6
549.415	1	5
549.585	1	5
549.755	1	7
549.925	1	5
550.095	1	-4
550.265	1	6
550.435	1	1
550.605	1	3
550.775	1	3
550.945	1	5
551.115	1	3
551.285	1	11
551.455	1	11
551.625	1	-7
551.795	1	-5
551.965	1	-2
552.135	1	4
552.305	1	4
552.475	1	3
552.645	1	6
552.815	1	2
552.985	1	0
553.155	1	3
553.325	1	2
553.495	1	15
553.665	1	5
553.835	1	2
554.004	1	0
554.174	1	-5
554.344	1	5
554.514	1	-4
554.684	1	6
554.854	1	-7
555.024	1	8
555.194	1	13
555.364	1	0
555.534	1	-8
555.704	1	0
555.874	1	6
556.044	1	11
556.214	1	8
556.384	1	9
556.554	1	10
556.724	1	-5
556.894	1	7
557.064	1	4
557.234	1	1
557.404	1	1
557.573	1	0
557.743	1	-4
557.913	1	4
558.083	1	0
558.253	1	2
558.423	1	-1
558.593	1	7
558.763	1	5
558.933	1	-8
559.103	1	0
559.273	1	6
559.443	1	10
559.613	1	3
559.783	1	4
559.953	1	-6
560.122	1	-4
560.292	1	-1
560.462	1	-5
560.632	1	3
560.802	1	10
560.972	1	-13
561.142	1	2
561.312	1	-12
561.482	1	7
561.652	1	-1
561.822	1	-3
561.992	1	3
562.162	1	-2
562.331	1	-13
562.501	1	9
562.671	1	4
562.841	1	-8
563.011	1	7
563.181	1	-3
563.351	1	-6
563.521	1	1
563.691	1	2
563.861	1	3
564.031	1	-5
564.201	1	-2
564.370	1	12
564.540	1	0
564.710	1	3
564.880	1	3
565.050	1	6
565.220	1	8
565.390	1	-5
565.560	1	5
565.730	1	8
565.900	1	2
566.069	1	14
566.239	1	10
566.409	1	15
566.579	1	2
566.749	1	4
566.919	1	-1
567.089	1	-13
567.259	1	-1
567.429	1	-3
567.599	1	17
567.768	1	1
567.938	1	6
568.108	1	-2
568.278	1	5
568.448	1	5
568.618	1	8
568.788	1	0
568.958	1	3
569.128	1	-4
569.297	1	-10
569.467	1	-5
569.637	1	3
569.807	1	10
569.977	1	-4
570.147	1	8
570.317	1	4
570.487	1	-4
570.656	1	8
570.826	1	-1
570.996	1	6
571.166	1	-3
571.336	1	-3
571.506	1	0
571.676	1	4
571.846	1	-3
572.015	1	5
572.185	1	7
572.355	1	-2
572.525	1	-5
572.695	1	-2
572.865	1	0
573.035	1	0
573.205	1	6
573.374	1	0
573.544	1	5
573.714	1	9
573.884	1	-6
574.054	1	4
574.224	1	-3
574.394	1	5
574.563	1	-10
574.733	1	0
574.903	1	-2
575.073	1	1
575.243	1	-5
575.413	1	-12
575.583	1	-3
575.752	1	5
575.922	1	2
576.092	1	1
576.262	1	2
576.432	1	2
576.602	1	-6
576.772	1	9
576.941	1	-3
577.111	1	3
577.281	1	2
577.451	1	6
577.621	1	0
577.791	1	5
577.960	1	0
578.130	1	4
578.300	1	4
578.470	1	3
578.640	1	2
578.810	1	-10
578.979	1	11
579.149	1	0
579.319	1	8
579.489	1	11
579.659	1	5
579.829	1	1
579.998	1	-13
580.168	1	5
580.338	1	-6
580.508	1	1
580.678	1	12
580.848	1	4
581.017	1	1
581.187	1	-3
581.357	1	-2
581.527	1	-6
581.697	1	6
581.867	1	4
582.036	1	-9
582.206	1	2
582.376	1	-4
582.546	1	-3
582.716	1	7
582.885	1	-3
583.055	1	-4
583.225	1	3
583.395	1	2
583.565	1	8
583.735	1	6
583.904	1	-1
584.074	1	-2
584.244	1	0
584.414	1	-2
584.584	1	-2
584.753	1	1
584.923	1	-9
585.093	1	4
585.263	1	7
585.433	1	3
585.602	1	6
585.772	1	13
585.942	1	1
586.112	1	8
586.282	1	-4
586.451	1	11
586.621	1	3
586.791	1	-3
586.961	1	-8
587.131	1	-5
587.300	1	0
587.470	1	8
587.640	1	-8
587.810	1	-4
587.980	1	6
588.149	1	-1
588.319	1	2
588.489	1	7
588.659	1	-6
588.829	1	1
588.998	1	-4
589.168	1	-1
589.338	1	-3
589.508	1	-2
589.677	1	4
589.847	1	12
590.017	1	-6
590.187	1	2
590.357	1	-1
590.526	1	-5
590.696	1	6
590.866	1	-4
591.036	1	4
591.205	1	-5
591.375	1	3
591.545	1	-2
591.715	1	7
591.885	1	5
592.054	1	2
592.224	1	0
592.394	1	-19
592.564	1	3
592.733	1	-6
592.903	1	-5
593.073	1	-3
593.243	1	13
593.412	1	-9
593.582	1	-6
593.752	1	-3
593.922	1	7
594.091	1	7
594.261	1	-6
594.431	1	3
594.601	1	-9
594.771	1	1
594.940	1	3
595.110	1	2
595.280	1	3
595.450	1	-4
595.619	1	-7
595.789	1	-3
595.959	1	0
596.129	1	9
596.298	1	11
596.468	1	2
596.638	1	1
596.808	1	-7
596.977	1	3
597.147	1	-2
597.317	1	3
597.487	1	2
597.656	1	-1
597.826	1	9
597.996	1	-1
598.166	1	2
598.335	1	-5
598.505	1	0
598.675	1	0
598.844	1	18
599.014	1	-7
599.184	1	-4
599.354	1	6
599.523	1	-4
599.693	1	7
599.863	1	4
600.033	1	2
600.202	1	-3
600.372	1	-1
600.542	1	9
600.712	1	-5
600.881	1	1
601.051	1	13
601.221	1	8
601.390	1	9
601.560	1	6
601.730	1	5
601.900	1	6
602.069	1	9
602.239	1	3
602.409	1	-1
602.578	1	9
602.748	1	6
602.918	1	-4
603.088	1	0
603.257	1	-15
603.427	1	5
603.597	1	-4
603.767	1	7
603.936	1	3
604.106	1	5
604.276	1	5
604.445	1	-1
604.615	1	4
604.785	1	0
604.954	1	-3
605.124	1	6
605.294	1	5
605.464	1	2
605.633	1	8
605.803	1	5
605.973	1	-2
606.142	1	7
606.312	1	7
606.482	1	-2
606.652	1	7
606.821	1	-4
606.991	1	13
607.161	1	3
607.330	1	-1
607.500	1	2
607.670	1	1
607.839	1	4
608.009	1	4
608.179	1	12
608.348	1	-4
608.518	1	9
608.688	1	4
608.858	1	0
609.027	1	17
609.197	1	-4
609.367	1	-6
609.536	1	-7
609.706	1	4
609.876	1	3
610.045	1	4
610.215	1	-3
610.385	1	-1
610.554	1	4
610.724	1	1
610.894	1	6
611.063	1	0
611.233	1	0
611.403	1	5
611.572	1	3
611.742	1	-2
611.912	1	1
612.081	1	7
612.251	1	4
612.421	1	2
612.590	1	8
612.760	1	4
612.930	1	8
613.099	1	2
613.269	1	-3
613.439	1	-3
613.608	1	14
613.778	1	3
613.948	1	7
614.117	1	3
614.287	1	-1
614.457	1	3
614.626	1	-9
614.796	1	-3
614.966	1	1
615.135	1	15
615.305	1	7
615.475	1	1
615.644	1	18
615.814	1	13
615.984	1	-15
616.153	1	5
616.323	1	7
616.493	1	-7
616.662	1	-2
616.832	1	-1
617.002	1	7
617.171	1	11
617.341	1	11
617.511	1	-9
617.680	1	3
617.850	1	11
618.019	1	-3
618.189	1	11
618.359	1	8
618.528	1	4
618.698	1	12
618.868	1	-15
619.037	1	5
619.207	1	1
619.377	1	2
619.546	1	0
619.716	1	3
619.885	1	0
620.055	1	-1
620.225	1	7
620.394	1	9
620.564	1	4
620.734	1	-5
620.903	1	-8
621.073	1	3
621.242	1	6
621.412	1	0
621.582	1	10
621.751	1	-1
621.921	1	9
622.091	1	7
622.260	1	7
622.430	1	-2
622.599	1	6
622.769	1	4
622.939	1	-3
623.108	1	3
623.278	1	3
623.448	1	4
623.617	1	3
623.787	1	-3
623.956	1	10
624.126	1	3
624.296	1	4
624.465	1	7
624.635	1	1
624.804	1	-9
624.974	1	-8
625.144	1	5
625.313	1	8
625.483	1	7
625.652	1	-7
625.822	1	12
625.992	1	-11
626.161	1	6
626.331	1	-1
626.501	1	7
626.670	1	-5
626.840	1	-2
627.009	1	-3
627.179	1	3
627.348	1	6
627.518	1	13
627.688	1	2
627.857	1	12
628.027	1	8
628.196	1	8
628.366	1	1
628.536	1	3
628.705	1	-5
628.875	1	-2
629.044	1	-1
629.214	1	1
629.384	1	12
629.553	1	2
629.723	1	12
629.892	1	6
630.062	1	5
630.232	1	15
630.401	1	3
630.571	1	2
630.740	1	4
630.910	1	7
631.079	1	2
631.249	1	0
631.419	1	9
631.588	1	1
631.758	1	2
631.927	1	15
632.097	1	-6
632.266	1	14
632.436	1	2
632.606	1	0
632.775	1	-1
632.945	1	-1
633.114	1	2
633.284	1	0
633.453	1	9
633.623	1	1
633.793	1	7
633.962	1	-3
634.132	1	16
634.301	1	11
634.471	1	10
634.640	1	0
634.810	1	9
634.979	1	6
635.149	1	-4
635.319	1	3
635.488	1	8
635.658	1	2
635.827	1	0
635.997	1	-5
636.166	1	3
636.336	1	-4
636.505	1	8
636.675	1	1
636.845	1	7
637.014	1	-3
637.184	1	17
637.353	1	1
637.523	1	0
637.692	1	4
637.862	1	2
638.031	1	2
638.201	1	5
638.370	1	9
638.540	1	-3
638.710	1	-8
638.879	1	6
639.049	1	-1
639.218	1	6
639.388	1	4
639.557	1	10
639.727	1	6
639.896	1	-2
640.066	1	-6
640.235	1	7
640.405	1	7
640.574	1	-3
640.744	1	-5
640.914	1	-2
641.083	1	10
641.253	1	-7
641.422	1	-6
641.592	1	12
641.761	1	-3
641.931	1	15
642.100	1	0
642.270	1	8
642.439	1	-3
642.609	1	14
642.778	1	7
642.948	1	16
643.117	1	8
643.287	1	5
643.456	1	4
643.626	1	0
643.795	1	-2
643.965	1	7
644.134	1	-3
644.304	1	2
644.473	1	-6
644.643	1	6
644.812	1	-6
644.982	1	5
645.151	1	0
645.321	1	9
645.490	1	17
645.660	1	2
645.829	1	-1
645.999	1	8
646.168	1	24
646.338	1	2
646.507	1	-2
646.677	1	5
646.846	1	-2
647.016	1	21
647.185	1	10
647.355	1	15
647.524	1	-5
647.694	1	-11
647.863	1	-2
648.033	1	7
648.202	1	8
648.372	1	-7
648.541	1	5
648.711	1	12
648.880	1	5
649.050	1	2
649.219	1	9
649.389	1	-8
649.558	1	17
649.728	1	1
649.897	1	9
650.067	1	9
650.236	1	-4
650.406	1	1
650.575	1	13
650.745	1	7
650.914	1	2
651.084	1	11
651.253	1	2
651.423	1	4
651.592	1	10
651.762	1	-1
651.931	1	10
652.101	1	0
652.270	1	0
652.440	1	2
652.609	1	4
652.778	1	4
652.948	1	3
653.117	1	6
653.287	1	-7
653.456	1	1
653.626	1	11
653.795	1	-2
653.965	1	1
654.134	1	-6
654.304	1	11
654.473	1	2
654.643	1	4
654.812	1	13
654.982	1	10
655.151	1	12
655.320	1	-3
655.490	1	-4
655.659	1	10
655.829	1	9
655.998	1	14
656.168	1	0
656.337	1	5
656.507	1	-3
656.676	1	0
656.846	1	3
657.015	1	8
657.184	1	-3
657.354	1	-4
657.523	1	-2
657.693	1	3
657.862	1	-3
658.032	1	-1
658.201	1	-6
658.371	1	3
658.540	1	-2
658.709	1	6
658.879	1	7
659.048	1	4
659.218	1	6
659.387	1	12
659.557	1	4
659.726	1	5
659.895	1	4
660.065	1	3
660.234	1	-6
660.404	1	3
660.573	1	9
660.743	1	-3
660.912	1	1
661.081	1	-6
661.251	1	2
661.420	1	3
661.590	1	-2
661.759	1	14
661.929	1	6
662.098	1	6
662.267	1	-7
662.437	1	15
662.606	1	8
662.776	1	-1
662.945	1	9
663.115	1	13
663.284	1	9
663.453	1	-1
663.623	1	7
663.792	1	10
663.962	1	7
664.131	1	6
664.300	1	7
664.470	1	-2
664.639	1	-2
664.809	1	-4
664.978	1	12
665.148	1	8
665.317	1	9
665.486	1	7
665.656	1	7
665.825	1	3
665.995	1	-9
666.164	1	2
666.333	1	0
666.503	1	3
666.672	1	-1
666.842	1	11
667.011	1	10
667.180	1	5
667.350	1	8
667.519	1	2
667.689	1	-4
667.858	1	3
668.027	1	4
668.197	1	0
668.366	1	4
668.536	1	2
668.705	1	1
668.874	1	2
669.044	1	0
669.213	1	7
669.382	1	9
669.552	1	-1
669.721	1	-2
669.891	1	2
670.060	1	9
670.229	1	7
670.399	1	6
670.568	1	12
670.738	1	-6
670.907	1	6
671.076	1	8
671.246	1	18
671.415	1	7
671.584	1	8
671.754	1	6
671.923	1	5
672.093	1	9
672.262	1	1
672.431	1	9
672.601	1	6
672.770	1	9
672.939	1	11
673.109	1	5
673.278	1	2
673.448	1	4
673.617	1	12
673.786	1	-4
