325.333	1	6
325.504	1	-3
325.675	1	14
325.846	1	-1
326.017	1	0
326.188	1	3
326.359	1	-2
326.531	1	3
326.702	1	-5
326.873	1	5
327.044	1	5
327.215	1	-6
327.386	1	2
327.557	1	-11
327.728	1	-4
327.899	1	-2
328.070	1	11
328.241	1	-2
328.412	1	3
328.583	1	-10
328.754	1	4
328.926	1	10
329.097	1	-1
329.268	1	14
329.439	1	8
329.610	1	-3
329.781	1	1
329.952	1	7
330.123	1	3
330.294	1	-7
330.465	1	-6
330.636	1	10
330.807	1	6
330.978	1	-1
331.149	1	0
331.320	1	7
331.492	1	-2
331.663	1	-3
331.834	1	8
332.005	1	4
332.176	1	-2
332.347	1	6
332.518	1	1
332.689	1	12
332.860	1	-2
333.031	1	1
333.202	1	2
333.373	1	2
333.544	1	1
333.715	1	-10
333.886	1	4
334.057	1	-5
334.228	1	8
334.399	1	4
334.570	1	0
334.741	1	-3
334.912	1	1
335.084	1	1
335.255	1	6
335.426	1	5
335.597	1	-7
335.768	1	-5
335.939	1	1
336.110	1	7
336.281	1	0
336.452	1	9
336.623	1	1
336.794	1	-1
336.965	1	-11
337.136	1	4
337.307	1	-3
337.478	1	6
337.649	1	-2
337.820	1	-1
337.991	1	5
338.162	1	-5
338.333	1	4
338.504	1	12
338.675	1	1
338.846	1	-13
339.017	1	17
339.188	1	4
339.359	1	9
339.530	1	-3
339.701	1	9
339.872	1	8
340.043	1	0
340.214	1	10
340.385	1	-7
340.556	1	9
340.727	1	6
340.898	1	-3
341.069	1	3
341.240	1	-6
341.411	1	14
341.582	1	-10
341.753	1	7
341.924	1	3
342.095	1	2
342.266	1	5
342.437	1	-1
342.608	1	-1
342.779	1	-2
342.950	1	4
343.121	1	14
343.292	1	10
343.463	1	15
343.634	1	3
343.805	1	0
343.976	1	10
344.147	1	7
344.318	1	-6
344.489	1	-7
344.660	1	12
344.831	1	13
345.002	1	6
345.173	1	2
345.344	1	1
345.515	1	-5
345.686	1	2
345.857	1	16
346.028	1	7
346.199	1	1
346.370	1	12
346.541	1	3
346.712	1	2
346.883	1	4
347.054	1	3
347.225	1	4
347.396	1	-2
347.567	1	-10
347.738	1	13
347.909	1	12
348.080	1	6
348.251	1	6
348.422	1	14
348.593	1	4
348.764	1	7
348.935	1	12
349.106	1	3
349.277	1	4
349.448	1	0
349.619	1	4
349.790	1	-2
349.961	1	-14
350.132	1	11
350.303	1	2
350.474	1	8
350.645	1	0
350.816	1	5
350.987	1	18
351.157	1	3
351.328	1	-2
351.499	1	12
351.670	1	5
351.841	1	14
352.012	1	13
352.183	1	8
352.354	1	5
352.525	1	2
352.696	1	3
352.867	1	8
353.038	1	10
353.209	1	13
353.380	1	10
353.551	1	12
353.722	1	3
353.893	1	15
354.064	1	7
354.235	1	-1
354.406	1	-4
354.576	1	2
354.747	1	12
354.918	1	6
355.089	1	5
355.260	1	7
355.431	1	6
355.602	1	0
355.773	1	-7
355.944	1	6
356.115	1	19
356.286	1	14
356.457	1	3
356.628	1	4
356.799	1	8
356.970	1	19
357.141	1	8
357.311	1	14
357.482	1	-2
357.653	1	-3
357.824	1	3
357.995	1	6
358.166	1	3
358.337	1	1
358.508	1	15
358.679	1	2
358.850	1	12
359.021	1	9
359.192	1	18
359.363	1	2
359.533	1	9
359.704	1	-4
359.875	1	1
360.046	1	8
360.217	1	14
360.388	1	10
360.559	1	9
360.730	1	7
360.901	1	5
361.072	1	8
361.243	1	9
361.414	1	16
361.584	1	3
361.755	1	8
361.926	1	14
362.097	1	6
362.268	1	8
362.439	1	0
362.610	1	15
362.781	1	3
362.952	1	13
363.123	1	-6
363.293	1	9
363.464	1	13
363.635	1	7
363.806	1	16
363.977	1	5
364.148	1	3
364.319	1	-1
364.490	1	13
364.661	1	14
364.832	1	4
365.002	1	16
365.173	1	15
365.344	1	4
365.515	1	6
365.686	1	10
365.857	1	7
366.028	1	4
366.199	1	13
366.370	1	2
366.540	1	9
366.711	1	16
366.882	1	11
367.053	1	16
367.224	1	8
367.395	1	9
367.566	1	6
367.737	1	7
367.908	1	14
368.078	1	-6
368.249	1	10
368.420	1	11
368.591	1	-1
368.762	1	13
368.933	1	3
369.104	1	8
369.274	1	19
369.445	1	17
369.616	1	0
369.787	1	10
369.958	1	15
370.129	1	9
370.300	1	3
370.471	1	8
370.641	1	7
370.812	1	15
370.983	1	11
371.154	1	8
371.325	1	2
371.496	1	9
371.667	1	15
371.837	1	13
372.008	1	8
372.179	1	2
372.350	1	12
372.521	1	12
372.692	1	8
372.863	1	11
373.033	1	7
373.204	1	17
373.375	1	6
373.546	1	19
373.717	1	-1
373.888	1	14
374.059	1	1
374.229	1	16
374.400	1	-1
374.571	1	7
374.742	1	4
374.913	1	1
375.084	1	18
375.254	1	3
375.425	1	8
375.596	1	6
375.767	1	2
375.938	1	-2
376.109	1	7
376.279	1	6
376.450	1	5
376.621	1	9
376.792	1	8
376.963	1	11
377.134	1	16
377.304	1	12
377.475	1	4
377.646	1	-1
377.817	1	7
377.988	1	4
378.159	1	10
378.329	1	13
378.500	1	8
378.671	1	4
378.842	1	12
379.013	1	16
379.184	1	0
379.354	1	6
379.525	1	8
379.696	1	12
379.867	1	6
380.038	1	8
380.209	1	21
380.379	1	17
380.550	1	5
380.721	1	10
380.892	1	9
381.063	1	5
381.233	1	7
381.404	1	1
381.575	1	6
381.746	1	15
381.917	1	5
382.087	1	16
382.258	1	12
382.429	1	8
382.600	1	16
382.771	1	3
382.941	1	19
383.112	1	4
383.283	1	5
383.454	1	3
383.625	1	7
383.795	1	17
383.966	1	10
384.137	1	20
384.308	1	7
384.479	1	13
384.649	1	9
384.820	1	10
384.991	1	7
385.162	1	16
385.333	1	6
385.503	1	8
385.674	1	8
385.845	1	21
386.016	1	17
386.187	1	-4
386.357	1	30
386.528	1	13
386.699	1	3
386.870	1	14
387.041	1	17
387.211	1	10
387.382	1	11
387.553	1	10
387.724	1	3
387.894	1	-1
388.065	1	18
388.236	1	7
388.407	1	23
388.578	1	11
388.748	1	13
388.919	1	3
389.090	1	20
389.261	1	18
389.431	1	0
389.602	1	8
389.773	1	18
389.944	1	13
390.114	1	9
390.285	1	20
390.456	1	6
390.627	1	16
390.798	1	6
390.968	1	17
391.139	1	19
391.310	1	11
391.481	1	12
391.651	1	16
391.822	1	25
391.993	1	7
392.164	1	12
392.334	1	6
392.505	1	21
392.676	1	1
392.847	1	5
393.017	1	9
393.188	1	26
393.359	1	24
393.530	1	15
393.700	1	9
393.871	1	15
394.042	1	10
394.213	1	17
394.383	1	14
394.554	1	11
394.725	1	8
394.896	1	25
395.066	1	6
395.237	1	14
395.408	1	18
395.579	1	9
395.749	1	17
395.920	1	17
396.091	1	8
396.262	1	15
396.432	1	10
396.603	1	12
396.774	1	8
396.945	1	13
397.115	1	10
397.286	1	18
397.457	1	12
397.627	1	7
397.798	1	9
397.969	1	11
398.140	1	13
398.310	1	8
398.481	1	14
398.652	1	20
398.823	1	25
398.993	1	9
399.164	1	7
399.335	1	21
399.505	1	9
399.676	1	11
399.847	1	17
400.018	1	5
400.188	1	11
400.359	1	10
400.530	1	9
400.700	1	19
400.871	1	18
401.042	1	17
401.213	1	9
401.383	1	14
401.554	1	10
401.725	1	16
401.895	1	7
402.066	1	18
402.237	1	0
402.408	1	14
402.578	1	9
402.749	1	17
402.920	1	15
403.090	1	10
403.261	1	12
403.432	1	24
403.603	1	12
403.773	1	19
403.944	1	11
404.115	1	8
404.285	1	9
404.456	1	30
404.627	1	16
404.797	1	10
404.968	1	20
405.139	1	17
405.310	1	6
405.480	1	9
405.651	1	12
405.822	1	14
405.992	1	12
406.163	1	9
406.334	1	5
406.504	1	28
406.675	1	10
406.846	1	15
407.016	1	16
407.187	1	16
407.358	1	4
407.528	1	26
407.699	1	7
407.870	1	16
408.041	1	20
408.211	1	12
408.382	1	22
408.553	1	27
408.723	1	22
408.894	1	11
409.065	1	21
409.235	1	11
409.406	1	8
409.577	1	10
409.747	1	21
409.918	1	23
410.089	1	26
410.259	1	18
410.430	1	18
410.601	1	14
410.771	1	19
410.942	1	10
411.113	1	20
411.283	1	8
411.454	1	24
411.625	1	20
411.795	1	23
411.966	1	3
412.137	1	22
412.307	1	18
412.478	1	20
412.649	1	6
412.819	1	13
412.990	1	20
413.161	1	8
413.331	1	18
413.502	1	11
413.672	1	10
413.843	1	13
414.014	1	8
414.184	1	28
414.355	1	11
414.526	1	17
414.696	1	11
414.867	1	8
415.038	1	6
415.208	1	7
415.379	1	6
415.550	1	15
415.720	1	11
415.891	1	19
416.062	1	4
416.232	1	20
416.403	1	15
416.573	1	14
416.744	1	20
416.915	1	4
417.085	1	17
417.256	1	13
417.427	1	9
417.597	1	6
417.768	1	11
417.939	1	19
418.109	1	19
418.280	1	17
418.450	1	27
418.621	1	12
418.792	1	11
418.962	1	18
419.133	1	12
419.304	1	13
419.474	1	15
419.645	1	16
419.815	1	6
419.986	1	14
420.157	1	16
420.327	1	7
420.498	1	6
420.669	1	23
420.839	1	18
421.010	1	14
421.180	1	3
421.351	1	11
421.522	1	15
421.692	1	20
421.863	1	18
422.033	1	19
422.204	1	19
422.375	1	13
422.545	1	21
422.716	1	4
422.886	1	21
423.057	1	8
423.228	1	13
423.398	1	10
423.569	1	20
423.740	1	8
423.910	1	18
424.081	1	10
424.251	1	15
424.422	1	22
424.593	1	9
424.763	1	14
424.934	1	15
425.104	1	33
425.275	1	10
425.445	1	7
425.616	1	20
425.787	1	14
425.957	1	5
426.128	1	20
426.298	1	23
426.469	1	8
426.640	1	10
426.810	1	-4
426.981	1	26
427.151	1	4
427.322	1	14
427.493	1	12
427.663	1	14
427.834	1	9
428.004	1	21
428.175	1	12
428.345	1	11
428.516	1	2
428.687	1	21
428.857	1	21
429.028	1	1
429.198	1	3
429.369	1	17
429.540	1	15
429.710	1	17
429.881	1	12
430.051	1	9
430.222	1	21
430.392	1	7
430.563	1	17
430.734	1	13
430.904	1	13
431.075	1	4
431.245	1	13
431.416	1	14
431.586	1	9
431.757	1	13
431.927	1	13
432.098	1	21
432.269	1	12
432.439	1	8
432.610	1	11
432.780	1	10
432.951	1	5
433.121	1	7
433.292	1	21
433.462	1	8
433.633	1	15
433.804	1	13
433.974	1	15
434.145	1	5
434.315	1	7
434.486	1	6
434.656	1	11
434.827	1	24
434.997	1	16
435.168	1	9
435.339	1	20
435.509	1	12
435.680	1	9
435.850	1	10
436.021	1	9
436.191	1	3
436.362	1	8
436.532	1	15
436.703	1	20
436.873	1	8
437.044	1	8
437.214	1	5
437.385	1	20
437.556	1	19
437.726	1	10
437.897	1	12
438.067	1	20
438.238	1	8
438.408	1	20
438.579	1	7
438.749	1	10
438.920	1	19
439.090	1	1
439.261	1	28
439.431	1	-1
439.602	1	17
439.772	1	11
439.943	1	4
440.113	1	9
440.284	1	14
440.455	1	5
440.625	1	23
440.796	1	15
440.966	1	17
441.137	1	9
441.307	1	10
441.478	1	1
441.648	1	3
441.819	1	7
441.989	1	30
442.160	1	8
442.330	1	13
442.501	1	14
442.671	1	9
442.842	1	16
443.012	1	4
443.183	1	18
443.353	1	9
443.524	1	6
443.694	1	9
443.865	1	19
444.035	1	8
444.206	1	10
444.376	1	11
444.547	1	11
444.717	1	8
444.888	1	0
445.058	1	13
445.229	1	10
445.399	1	11
445.570	1	3
445.740	1	8
445.911	1	22
446.081	1	15
446.252	1	7
446.422	1	6
446.593	1	7
446.763	1	10
446.934	1	-1
447.104	1	4
447.275	1	12
447.445	1	21
447.616	1	6
447.786	1	10
447.957	1	7
448.127	1	12
448.298	1	10
448.468	1	12
448.639	1	11
448.809	1	8
448.979	1	21
449.150	1	4
449.320	1	11
449.491	1	7
449.661	1	9
449.832	1	6
450.002	1	16
450.173	1	9
450.343	1	5
450.514	1	12
450.684	1	13
450.855	1	9
451.025	1	4
451.196	1	11
451.366	1	12
451.537	1	16
451.707	1	16
451.878	1	-2
452.048	1	3
452.218	1	15
452.389	1	21
452.559	1	33
452.730	1	13
452.900	1	6
453.071	1	21
453.241	1	5
453.412	1	3
453.582	1	13
453.753	1	13
453.923	1	4
454.093	1	11
454.264	1	17
454.434	1	10
454.605	1	10
454.775	1	14
454.946	1	11
455.116	1	6
455.287	1	14
455.457	1	13
455.628	1	-1
455.798	1	11
455.968	1	12
456.139	1	15
456.309	1	2
456.480	1	10
456.650	1	12
456.821	1	6
456.991	1	12
457.161	1	14
457.332	1	10
457.502	1	3
457.673	1	4
457.843	1	11
458.014	1	4
458.184	1	15
458.355	1	8
458.525	1	8
458.695	1	11
458.866	1	-1
459.036	1	6
459.207	1	2
459.377	1	12
459.548	1	3
459.718	1	-1
459.888	1	-2
460.059	1	2
460.229	1	4
460.400	1	3
460.570	1	5
460.740	1	14
460.911	1	-3
461.081	1	4
461.252	1	8
461.422	1	7
461.593	1	16
461.763	1	12
461.933	1	3
462.104	1	0
462.274	1	3
462.445	1	10
462.615	1	9
462.785	1	12
462.956	1	-1
463.126	1	0
463.297	1	3
463.467	1	15
463.638	1	18
463.808	1	11
463.978	1	4
464.149	1	7
464.319	1	13
464.490	1	-1
464.660	1	-2
464.830	1	-5
465.001	1	5
465.171	1	5
465.342	1	5
465.512	1	4
465.682	1	5
465.853	1	10
466.023	1	19
466.194	1	13
466.364	1	12
466.534	1	3
466.705	1	29
466.875	1	-7
467.045	1	-1
467.216	1	10
467.386	1	8
467.557	1	12
467.727	1	13
467.897	1	5
468.068	1	-2
468.238	1	0
468.409	1	11
468.579	1	7
468.749	1	2
468.920	1	4
469.090	1	7
469.260	1	1
469.431	1	4
469.601	1	12
469.772	1	26
469.942	1	13
470.112	1	11
470.283	1	11
470.453	1	11
470.623	1	7
470.794	1	10
470.964	1	-3
471.135	1	16
471.305	1	13
471.475	1	10
471.646	1	8
471.816	1	7
471.986	1	10
472.157	1	10
472.327	1	13
472.497	1	1
472.668	1	13
472.838	1	12
473.009	1	13
473.179	1	4
473.349	1	4
473.520	1	23
473.690	1	5
473.860	1	-5
474.031	1	5
474.201	1	14
474.371	1	5
474.542	1	7
474.712	1	1
474.882	1	12
475.053	1	10
475.223	1	-1
475.394	1	1
475.564	1	-2
475.734	1	7
475.905	1	13
476.075	1	14
476.245	1	18
476.416	1	9
476.586	1	5
476.756	1	7
476.927	1	5
477.097	1	5
477.267	1	-4
477.438	1	8
477.608	1	14
477.778	1	0
477.949	1	1
478.119	1	9
478.289	1	6
478.460	1	0
478.630	1	1
478.800	1	9
478.971	1	10
479.141	1	13
479.311	1	3
479.482	1	11
479.652	1	16
479.822	1	-6
479.993	1	3
480.163	1	11
480.333	1	11
480.504	1	0
480.674	1	5
480.844	1	9
481.015	1	16
481.185	1	7
481.355	1	16
481.525	1	-6
481.696	1	1
481.866	1	10
482.036	1	5
482.207	1	10
482.377	1	4
482.547	1	13
482.718	1	5
482.888	1	8
483.058	1	16
483.229	1	11
483.399	1	8
483.569	1	-11
483.740	1	-2
483.910	1	0
484.080	1	11
484.250	1	2
484.421	1	2
484.591	1	1
484.761	1	19
484.932	1	6
485.102	1	9
485.272	1	7
485.443	1	10
485.613	1	-6
485.783	1	3
485.953	1	5
486.124	1	0
486.294	1	12
486.464	1	14
486.635	1	6
486.805	1	7
486.975	1	-2
487.146	1	10
487.316	1	9
487.486	1	2
487.656	1	8
487.827	1	7
487.997	1	5
488.167	1	8
488.338	1	-4
488.508	1	4
488.678	1	1
488.848	1	9
489.019	1	0
489.189	1	13
489.359	1	-3
489.529	1	6
489.700	1	9
489.870	1	17
490.040	1	2
490.211	1	-1
490.381	1	-2
490.551	1	3
490.721	1	7
490.892	1	-7
491.062	1	0
491.232	1	7
491.402	1	0
491.573	1	17
491.743	1	0
491.913	1	-1
492.084	1	10
492.254	1	-1
492.424	1	-8
492.594	1	9
492.765	1	8
492.935	1	13
493.105	1	10
493.275	1	3
493.446	1	-6
493.616	1	1
493.786	1	9
493.956	1	4
494.127	1	-8
494.297	1	-17
494.467	1	4
494.637	1	0
494.808	1	4
494.978	1	3
495.148	1	6
495.318	1	8
495.489	1	4
495.659	1	4
495.829	1	4
495.999	1	12
496.170	1	2
496.340	1	1
496.510	1	11
496.680	1	5
496.851	1	8
497.021	1	-2
497.191	1	8
497.361	1	-3
497.532	1	-1
497.702	1	8
497.872	1	8
498.042	1	-2
498.213	1	-4
498.383	1	7
498.553	1	10
498.723	1	3
498.894	1	2
499.064	1	3
499.234	1	1
499.404	1	5
499.574	1	10
499.745	1	0
499.915	1	5
500.085	1	-2
500.255	1	-2
500.426	1	-6
500.596	1	-4
500.766	1	2
500.936	1	3
501.106	1	-5
501.277	1	-13
501.447	1	10
501.617	1	6
501.787	1	-1
501.958	1	-1
502.128	1	3
502.298	1	4
502.468	1	5
502.638	1	1
502.809	1	-3
502.979	1	0
503.149	1	5
503.319	1	6
503.489	1	-13
503.660	1	-2
503.830	1	-4
504.000	1	7
504.170	1	2
504.340	1	-6
504.511	1	-5
504.681	1	1
504.851	1	3
505.021	1	-2
505.192	1	-3
505.362	1	-2
505.532	1	0
505.702	1	20
505.872	1	-2
506.043	1	16
506.213	1	17
506.383	1	4
506.553	1	-2
506.723	1	-11
506.893	1	1
507.064	1	11
507.234	1	0
507.404	1	-1
507.574	1	4
507.744	1	-1
507.915	1	-3
508.085	1	-3
508.255	1	-7
508.425	1	4
508.595	1	-14
508.766	1	-8
508.936	1	11
509.106	1	10
509.276	1	8
509.446	1	-1
509.616	1	4
509.787	1	-1
509.957	1	-1
510.127	1	-5
510.297	1	-9
510.467	1	4
510.638	1	0
510.808	1	7
510.978	1	4
511.148	1	1
511.318	1	7
511.488	1	4
511.659	1	-2
511.829	1	1
511.999	1	3
512.169	1	9
512.339	1	-2
512.509	1	-1
512.680	1	-1
512.850	1	3
513.020	1	8
513.190	1	-7
513.360	1	4
513.530	1	-1
513.700	1	1
513.871	1	-4
514.041	1	-3
514.211	1	0
514.381	1	-1
514.551	1	0
514.721	1	3
514.892	1	6
515.062	1	5
515.232	1	-2
515.402	1	3
515.572	1	4
515.742	1	0
515.912	1	3
516.083	1	10
516.253	1	8
516.423	1	1
516.593	1	-6
516.763	1	4
516.933	1	4
517.104	1	7
517.274	1	-4
517.444	1	0
517.614	1	-8
517.784	1	-2
517.954	1	-1
518.124	1	3
518.294	1	-3
518.465	1	-1
518.635	1	4
518.805	1	4
518.975	1	8
519.145	1	4
519.315	1	6
519.485	1	0
519.656	1	-4
519.826	1	-11
519.996	1	3
520.166	1	1
520.336	1	-5
520.506	1	4
520.676	1	-9
520.846	1	3
521.017	1	0
521.187	1	10
521.357	1	-5
521.527	1	1
521.697	1	2
521.867	1	5
522.037	1	10
522.207	1	6
522.377	1	3
522.548	1	-8
522.718	1	6
522.888	1	6
523.058	1	7
523.228	1	-4
523.398	1	1
523.568	1	1
523.738	1	2
523.909	1	5
524.079	1	0
524.249	1	-6
524.419	1	0
524.589	1	3
524.759	1	6
524.929	1	-1
525.099	1	-3
525.269	1	7
525.439	1	0
525.610	1	5
525.780	1	2
525.950	1	5
526.120	1	-3
526.290	1	-6
526.460	1	-7
526.630	1	-4
526.800	1	2
526.970	1	6
527.140	1	5
527.311	1	-3
527.481	1	10
527.651	1	0
527.821	1	-7
527.991	1	-4
528.161	1	6
528.331	1	-4
528.501	1	-8
528.671	1	-2
528.841	1	5
529.011	1	0
529.181	1	-1
529.352	1	-9
529.522	1	-2
529.692	1	3
529.862	1	-9
530.032	1	-15
530.202	1	-4
530.372	1	-4
530.542	1	0
530.712	1	12
530.882	1	-2
531.052	1	6
531.222	1	6
531.392	1	4
531.563	1	4
531.733	1	-4
531.903	1	-3
532.073	1	-2
532.243	1	6
532.413	1	12
532.583	1	8
532.753	1	-11
532.923	1	1
533.093	1	-10
533.263	1	0
533.433	1	2
533.603	1	-2
533.773	1	-2
533.943	1	0
534.113	1	5
534.284	1	1
534.454	1	-5
534.624	1	-1
534.794	1	-9
534.964	1	-4
535.134	1	-1
535.304	1	-2
535.474	1	-1
535.644	1	9
535.814	1	0
535.984	1	6
536.154	1	-5
536.324	1	-8
536.494	1	12
536.664	1	2
536.834	1	11
537.004	1	-4
537.174	1	2
537.344	1	-3
537.514	1	0
537.685	1	2
537.855	1	14
538.025	1	9
538.195	1	-1
538.365	1	-1
538.535	1	-3
538.705	1	-5
538.875	1	5
539.045	1	9
539.215	1	-7
539.385	1	-3
539.555	1	-6
539.725	1	4
539.895	1	4
540.065	1	0
540.235	1	3
540.405	1	-5
540.575	1	-4
540.745	1	6
540.915	1	3
541.085	1	-3
541.255	1	-5
541.425	1	1
541.595	1	-2
541.765	1	0
541.935	1	2
542.105	1	1
542.275	1	4
542.445	1	-2
542.615	1	7
542.785	1	3
542.955	1	14
543.125	1	-5
543.295	1	2
543.465	1	4
543.635	1	-8
543.805	1	3
543.975	1	-5
544.145	1	-3
544.315	1	-2
544.485	1	-2
544.655	1	12
544.825	1	6
544.995	1	-4
545.165	1	-6
545.335	1	-2
545.505	1	-7
545.675	1	6
545.845	1	5
546.015	1	-9
546.185	1	-9
546.355	1	-5
546.525	1	13
546.695	1	-6
546.865	1	7
547.035	1	-9
547.205	1	10
547.375	1	3
547.545	1	4
547.715	1	-1
547.885	1	-3
548.055	1	-8
548.225	1	4
548.395	1	0
548.565	1	9
548.735	1	0
548.905	1	-10
549.075	1	0
549.245	1	-2
549.415	1	0
549.585	1	-6
549.755	1	0
549.925	1	5
550.095	1	-3
550.265	1	-9
550.435	1	-2
550.605	1	-1
550.775	1	-6
550.945	1	4
551.115	1	20
551.285	1	0
551.455	1	8
551.625	1	-7
551.795	1	1
551.965	1	-6
552.135	1	-10
552.305	1	5
552.475	1	0
552.645	1	-2
552.815	1	7
552.985	1	-3
553.155	1	-4
553.325	1	1
553.495	1	2
553.665	1	-4
553.835	1	-5
554.004	1	3
554.174	1	-4
554.344	1	6
554.514	1	-6
554.684	1	0
554.854	1	-8
555.024	1	8
555.194	1	7
555.364	1	-2
555.534	1	-11
555.704	1	-4
555.874	1	1
556.044	1	3
556.214	1	-4
556.384	1	6
556.554	1	2
556.724	1	-7
556.894	1	5
557.064	1	-2
557.234	1	2
557.404	1	-3
557.573	1	10
557.743	1	-13
557.913	1	-5
558.083	1	5
558.253	1	6
558.423	1	0
558.593	1	5
558.763	1	1
558.933	1	2
559.103	1	5
559.273	1	9
559.443	1	6
559.613	1	6
559.783	1	-8
559.953	1	-12
560.122	1	6
560.292	1	-3
560.462	1	-3
560.632	1	-3
560.802	1	3
560.972	1	-10
561.142	1	5
561.312	1	1
561.482	1	3
561.652	1	4
561.822	1	-3
561.992	1	-3
562.162	1	4
562.331	1	-11
562.501	1	8
562.671	1	-5
562.841	1	-16
563.011	1	0
563.181	1	-7
563.351	1	-3
563.521	1	-7
563.691	1	1
563.861	1	2
564.031	1	3
564.201	1	6
564.370	1	5
564.540	1	-5
564.710	1	-2
564.880	1	0
565.050	1	5
565.220	1	7
565.390	1	-2
565.560	1	8
565.730	1	-1
565.900	1	-4
566.069	1	4
566.239	1	7
566.409	1	12
566.579	1	1
566.749	1	-7
566.919	1	-8
567.089	1	-11
567.259	1	1
567.429	1	-2
567.599	1	8
567.768	1	2
567.938	1	3
568.108	1	2
568.278	1	8
568.448	1	-2
568.618	1	4
568.788	1	-1
568.958	1	-2
569.128	1	-8
569.297	1	4
569.467	1	4
569.637	1	3
569.807	1	4
569.977	1	-7
570.147	1	1
570.317	1	-6
570.487	1	-2
570.656	1	-2
570.826	1	-6
570.996	1	3
571.166	1	6
571.336	1	-2
571.506	1	-2
571.676	1	-3
571.846	1	2
572.015	1	-1
572.185	1	4
572.355	1	-5
572.525	1	-8
572.695	1	2
572.865	1	14
573.035	1	-3
573.205	1	4
573.374	1	-10
573.544	1	-5
573.714	1	-10
573.884	1	-2
574.054	1	1
574.224	1	1
574.394	1	-5
574.563	1	-1
574.733	1	2
574.903	1	5
575.073	1	1
575.243	1	2
575.413	1	-8
575.583	1	-3
575.752	1	-7
575.922	1	10
576.092	1	-2
576.262	1	-5
576.432	1	-7
576.602	1	0
576.772	1	2
576.941	1	-3
577.111	1	-1
577.281	1	1
577.451	1	3
577.621	1	0
577.791	1	3
577.960	1	-2
578.130	1	-6
578.300	1	-3
578.470	1	0
578.640	1	-4
578.810	1	-2
578.979	1	0
579.149	1	-2
579.319	1	-2
579.489	1	6
579.659	1	1
579.829	1	-7
579.998	1	-9
580.168	1	-3
580.338	1	-1
580.508	1	-2
580.678	1	0
580.848	1	4
581.017	1	3
581.187	1	0
581.357	1	-5
581.527	1	-3
581.697	1	-3
581.867	1	1
582.036	1	-14
582.206	1	3
582.376	1	-1
582.546	1	2
582.716	1	-2
582.885	1	1
583.055	1	-9
583.225	1	3
583.395	1	-11
583.565	1	9
583.735	1	3
583.904	1	-6
584.074	1	2
584.244	1	-2
584.414	1	1
584.584	1	2
584.753	1	5
584.923	1	-4
585.093	1	2
585.263	1	-2
585.433	1	3
585.602	1	1
585.772	1	12
585.942	1	-14
586.112	1	0
586.282	1	5
586.451	1	-3
586.621	1	-7
586.791	1	-1
586.961	1	1
587.131	1	-3
587.300	1	10
587.470	1	-10
587.640	1	-10
587.810	1	-14
587.980	1	6
588.149	1	0
588.319	1	11
588.489	1	7
588.659	1	2
588.829	1	1
588.998	1	-1
589.168	1	-4
589.338	1	-1
589.508	1	1
589.677	1	-4
589.847	1	-3
590.017	1	7
590.187	1	-1
590.357	1	-4
590.526	1	-7
590.696	1	-8
590.866	1	-11
591.036	1	1
591.205	1	3
591.375	1	4
591.545	1	-4
591.715	1	-4
591.885	1	5
592.054	1	7
592.224	1	4
592.394	1	-13
592.564	1	0
592.733	1	4
592.903	1	-1
593.073	1	-5
593.243	1	8
593.412	1	-10
593.582	1	-5
593.752	1	-11
593.922	1	2
594.091	1	8
594.261	1	-9
594.431	1	0
594.601	1	-1
594.771	1	4
594.940	1	2
595.110	1	-8
595.280	1	-2
595.450	1	3
595.619	1	1
595.789	1	-5
595.959	1	-4
596.129	1	-2
596.298	1	3
596.468	1	2
596.638	1	-8
596.808	1	-11
596.977	1	-3
597.147	1	-5
597.317	1	6
597.487	1	1
597.656	1	4
597.826	1	9
597.996	1	-8
598.166	1	-5
598.335	1	-5
598.505	1	4
598.675	1	7
598.844	1	9
599.014	1	-12
599.184	1	-11
599.354	1	3
599.523	1	1
599.693	1	1
599.863	1	-4
600.033	1	4
600.202	1	5
600.372	1	-5
600.542	1	2
600.712	1	-4
600.881	1	3
601.051	1	1
601.221	1	2
601.390	1	0
601.560	1	13
601.730	1	0
601.900	1	2
602.069	1	0
602.239	1	2
602.409	1	9
602.578	1	4
602.748	1	5
602.918	1	-5
603.088	1	0
603.257	1	-8
603.427	1	4
603.597	1	-4
603.767	1	5
603.936	1	12
604.106	1	4
604.276	1	-6
604.445	1	-4
604.615	1	-3
604.785	1	2
604.954	1	1
605.124	1	1
605.294	1	0
605.464	1	-6
605.633	1	-2
605.803	1	3
605.973	1	6
606.142	1	7
606.312	1	7
606.482	1	-8
606.652	1	1
606.821	1	-1
606.991	1	1
607.161	1	-5
607.330	1	-2
607.500	1	0
607.670	1	-3
607.839	1	-4
608.009	1	-6
608.179	1	8
608.348	1	2
608.518	1	7
608.688	1	-7
608.858	1	-6
609.027	1	0
609.197	1	1
609.367	1	-4
609.536	1	-6
609.706	1	5
609.876	1	-1
610.045	1	6
610.215	1	-4
610.385	1	1
610.554	1	-4
610.724	1	-5
610.894	1	-1
611.063	1	1
611.233	1	8
611.403	1	3
611.572	1	8
611.742	1	-2
611.912	1	-6
612.081	1	3
612.251	1	1
612.421	1	7
612.590	1	1
612.760	1	-4
612.930	1	10
613.099	1	4
613.269	1	-6
613.439	1	-9
613.608	1	-4
613.778	1	0
613.948	1	7
614.117	1	-3
614.287	1	-11
614.457	1	-5
614.626	1	-6
614.796	1	-3
614.966	1	1
615.135	1	7
615.305	1	2
615.475	1	-1
615.644	1	8
615.814	1	8
615.984	1	-12
616.153	1	1
616.323	1	-6
616.493	1	7
616.662	1	-11
616.832	1	3
617.002	1	2
617.171	1	0
617.341	1	6
617.511	1	-2
617.680	1	-5
617.850	1	-5
618.019	1	-7
618.189	1	12
618.359	1	4
618.528	1	-6
618.698	1	-3
618.868	1	-4
619.037	1	11
619.207	1	2
619.377	1	-5
619.546	1	6
619.716	1	2
619.885	1	0
620.055	1	-8
620.225	1	6
620.394	1	-1
620.564	1	6
620.734	1	0
620.903	1	-8
621.073	1	1
621.242	1	9
621.412	1	-11
621.582	1	17
621.751	1	-12
621.921	1	-6
622.091	1	6
622.260	1	-3
622.430	1	3
622.599	1	0
622.769	1	-2
622.939	1	-3
623.108	1	-1
623.278	1	4
623.448	1	1
623.617	1	-2
623.787	1	-8
623.956	1	5
624.126	1	9
624.296	1	9
624.465	1	1
624.635	1	-6
624.804	1	-6
624.974	1	-9
625.144	1	6
625.313	1	8
625.483	1	3
625.652	1	3
625.822	1	5
625.992	1	-3
626.161	1	2
626.331	1	2
626.501	1	2
626.670	1	-9
626.840	1	-2
627.009	1	-2
627.179	1	3
627.348	1	10
627.518	1	11
627.688	1	5
627.857	1	16
628.027	1	4
628.196	1	2
628.366	1	-10
628.536	1	-4
628.705	1	-1
628.875	1	-5
629.044	1	-5
629.214	1	4
629.384	1	5
629.553	1	6
629.723	1	-4
629.892	1	8
630.062	1	1
630.232	1	9
630.401	1	3
630.571	1	4
630.740	1	3
630.910	1	12
631.079	1	-3
631.249	1	-1
631.419	1	-10
631.588	1	0
631.758	1	-3
631.927	1	8
632.097	1	-1
632.266	1	8
632.436	1	-4
632.606	1	-1
632.775	1	5
632.945	1	2
633.114	1	0
633.284	1	1
633.453	1	7
633.623	1	3
633.793	1	-8
633.962	1	-2
634.132	1	7
634.301	1	11
634.471	1	7
634.640	1	-11
634.810	1	4
634.979	1	4
635.149	1	4
635.319	1	-6
635.488	1	2
635.658	1	0
635.827	1	0
635.997	1	2
636.166	1	2
636.336	1	-9
636.505	1	4
636.675	1	4
636.845	1	-4
637.014	1	-7
637.184	1	0
637.353	1	-5
637.523	1	1
637.692	1	7
637.862	1	-4
638.031	1	0
638.201	1	-7
638.370	1	6
638.540	1	-5
638.710	1	-9
638.879	1	-4
639.049	1	1
639.218	1	5
639.388	1	-5
639.557	1	3
639.727	1	1
639.896	1	-2
640.066	1	-1
640.235	1	-1
640.405	1	8
640.574	1	10
640.744	1	-5
640.914	1	-4
641.083	1	-4
641.253	1	-2
641.422	1	-6
641.592	1	3
641.761	1	3
641.931	1	4
642.100	1	10
642.270	1	-7
642.439	1	5
642.609	1	9
642.778	1	6
642.948	1	0
643.117	1	-5
643.287	1	-4
643.456	1	0
643.626	1	5
643.795	1	4
643.965	1	0
644.134	1	4
644.304	1	-3
644.473	1	2
644.643	1	-3
644.812	1	-6
644.982	1	-5
645.151	1	-5
645.321	1	10
645.490	1	5
645.660	1	-1
645.829	1	-5
645.999	1	-4
646.168	1	15
646.338	1	-4
646.507	1	-3
646.677	1	2
646.846	1	1
647.016	1	10
647.185	1	2
647.355	1	12
647.524	1	-6
647.694	1	-5
647.863	1	-4
648.033	1	2
648.202	1	6
648.372	1	-15
648.541	1	4
648.711	1	4
648.880	1	0
649.050	1	7
649.219	1	3
649.389	1	-2
649.558	1	-1
649.728	1	-2
649.897	1	6
650.067	1	9
650.236	1	-4
650.406	1	0
650.575	1	6
650.745	1	0
650.914	1	5
651.084	1	-5
651.253	1	-1
651.423	1	-3
651.592	1	-6
651.762	1	-8
651.931	1	6
652.101	1	-6
652.270	1	1
652.440	1	2
652.609	1	12
652.778	1	-4
652.948	1	-1
653.117	1	2
653.287	1	-6
653.456	1	-20
653.626	1	2
653.795	1	7
653.965	1	-1
654.134	1	1
654.304	1	2
654.473	1	0
654.643	1	-6
654.812	1	5
654.982	1	-5
655.151	1	9
655.320	1	1
655.490	1	-11
655.659	1	-2
655.829	1	9
655.998	1	9
656.168	1	-8
656.337	1	3
656.507	1	-9
656.676	1	-4
656.846	1	-3
657.015	1	20
657.184	1	4
657.354	1	5
657.523	1	0
657.693	1	5
657.862	1	-14
658.032	1	-2
658.201	1	-8
658.371	1	-4
658.540	1	-5
658.709	1	6
658.879	1	14
659.048	1	8
659.218	1	0
659.387	1	4
659.557	1	2
659.726	1	-4
659.895	1	-3
660.065	1	-6
660.234	1	0
660.404	1	-6
660.573	1	3
660.743	1	-3
660.912	1	11
661.081	1	-8
661.251	1	1
661.420	1	8
661.590	1	-6
661.759	1	6
661.929	1	-1
662.098	1	0
662.267	1	-4
662.437	1	0
662.606	1	-5
662.776	1	-1
662.945	1	0
663.115	1	8
663.284	1	-3
663.453	1	1
663.623	1	-5
663.792	1	12
663.962	1	3
664.131	1	5
664.300	1	-6
664.470	1	-10
664.639	1	-1
664.809	1	-8
664.978	1	14
665.148	1	-5
665.317	1	0
665.486	1	8
665.656	1	-1
665.825	1	8
665.995	1	-8
666.164	1	-4
666.333	1	-5
666.503	1	4
666.672	1	2
666.842	1	7
667.011	1	-1
667.180	1	-8
667.350	1	4
667.519	1	4
667.689	1	4
667.858	1	3
668.027	1	-1
668.197	1	-12
668.366	1	3
668.536	1	-8
668.705	1	1
668.874	1	2
669.044	1	5
669.213	1	1
669.382	1	3
669.552	1	-2
669.721	1	-2
669.891	1	1
670.060	1	4
670.229	1	8
670.399	1	-6
670.568	1	5
670.738	1	-2
670.907	1	0
671.076	1	-1
671.246	1	9
671.415	1	8
671.584	1	1
671.754	1	-7
671.923	1	-1
672.093	1	7
672.262	1	-8
672.431	1	6
672.601	1	6
672.770	1	12
672.939	1	1
673.109	1	-5
673.278	1	0
673.448	1	-2
673.617	1	6
673.786	1	-10
