325.333	1	24
325.504	1	18
325.675	1	29
325.846	1	18
326.017	1	25
326.188	1	17
326.359	1	23
326.531	1	14
326.702	1	18
326.873	1	27
327.044	1	35
327.215	1	21
327.386	1	26
327.557	1	15
327.728	1	23
327.899	1	17
328.070	1	35
328.241	1	24
328.412	1	28
328.583	1	20
328.754	1	29
328.926	1	38
329.097	1	25
329.268	1	34
329.439	1	45
329.610	1	35
329.781	1	35
329.952	1	20
330.123	1	32
330.294	1	26
330.465	1	11
330.636	1	36
330.807	1	31
330.978	1	20
331.149	1	38
331.320	1	22
331.492	1	29
331.663	1	31
331.834	1	38
332.005	1	33
332.176	1	26
332.347	1	22
332.518	1	37
332.689	1	35
332.860	1	34
333.031	1	42
333.202	1	38
333.373	1	32
333.544	1	39
333.715	1	32
333.886	1	30
334.057	1	32
334.228	1	39
334.399	1	42
334.570	1	37
334.741	1	31
334.912	1	32
335.084	1	45
335.255	1	40
335.426	1	44
335.597	1	39
335.768	1	37
335.939	1	42
336.110	1	35
336.281	1	46
336.452	1	49
336.623	1	37
336.794	1	30
336.965	1	37
337.136	1	53
337.307	1	36
337.478	1	40
337.649	1	35
337.820	1	39
337.991	1	44
338.162	1	32
338.333	1	45
338.504	1	49
338.675	1	37
338.846	1	31
339.017	1	51
339.188	1	47
339.359	1	42
339.530	1	40
339.701	1	43
339.872	1	53
340.043	1	45
340.214	1	53
340.385	1	43
340.556	1	50
340.727	1	50
340.898	1	47
341.069	1	49
341.240	1	42
341.411	1	49
341.582	1	47
341.753	1	47
341.924	1	62
342.095	1	42
342.266	1	66
342.437	1	51
342.608	1	57
342.779	1	58
342.950	1	48
343.121	1	55
343.292	1	53
343.463	1	59
343.634	1	48
343.805	1	55
343.976	1	65
344.147	1	51
344.318	1	41
344.489	1	53
344.660	1	60
344.831	1	61
345.002	1	63
345.173	1	60
345.344	1	48
345.515	1	56
345.686	1	58
345.857	1	61
346.028	1	66
346.199	1	56
346.370	1	57
346.541	1	54
346.712	1	56
346.883	1	47
347.054	1	71
347.225	1	41
347.396	1	63
347.567	1	54
347.738	1	62
347.909	1	60
348.080	1	60
348.251	1	53
348.422	1	69
348.593	1	66
348.764	1	66
348.935	1	72
349.106	1	65
349.277	1	61
349.448	1	74
349.619	1	61
349.790	1	76
349.961	1	71
350.132	1	81
350.303	1	68
350.474	1	66
350.645	1	72
350.816	1	73
350.987	1	79
351.157	1	77
351.328	1	72
351.499	1	69
351.670	1	72
351.841	1	78
352.012	1	66
352.183	1	74
352.354	1	65
352.525	1	76
352.696	1	71
352.867	1	83
353.038	1	80
353.209	1	80
353.380	1	68
353.551	1	74
353.722	1	74
353.893	1	79
354.064	1	68
354.235	1	78
354.406	1	56
354.576	1	72
354.747	1	70
354.918	1	79
355.089	1	76
355.260	1	75
355.431	1	68
355.602	1	79
355.773	1	83
355.944	1	78
356.115	1	71
356.286	1	85
356.457	1	79
356.628	1	65
356.799	1	76
356.970	1	93
357.141	1	88
357.311	1	87
357.482	1	74
357.653	1	65
357.824	1	91
357.995	1	77
358.166	1	86
358.337	1	85
358.508	1	97
358.679	1	90
358.850	1	91
359.021	1	97
359.192	1	93
359.363	1	86
359.533	1	87
359.704	1	77
359.875	1	86
360.046	1	95
360.217	1	90
360.388	1	93
360.559	1	95
360.730	1	70
360.901	1	80
361.072	1	85
361.243	1	88
361.414	1	90
361.584	1	80
361.755	1	93
361.926	1	93
362.097	1	72
362.268	1	99
362.439	1	79
362.610	1	95
362.781	1	84
362.952	1	90
363.123	1	73
363.293	1	90
363.464	1	83
363.635	1	93
363.806	1	79
363.977	1	87
364.148	1	92
364.319	1	86
364.490	1	95
364.661	1	79
364.832	1	96
365.002	1	96
365.173	1	92
365.344	1	104
365.515	1	95
365.686	1	105
365.857	1	91
366.028	1	87
366.199	1	96
366.370	1	92
366.540	1	95
366.711	1	102
366.882	1	91
367.053	1	92
367.224	1	98
367.395	1	90
367.566	1	93
367.737	1	92
367.908	1	102
368.078	1	100
368.249	1	111
368.420	1	103
368.591	1	99
368.762	1	95
368.933	1	97
369.104	1	104
369.274	1	105
369.445	1	95
369.616	1	93
369.787	1	96
369.958	1	100
370.129	1	88
370.300	1	94
370.471	1	102
370.641	1	94
370.812	1	109
370.983	1	85
371.154	1	94
371.325	1	96
371.496	1	92
371.667	1	109
371.837	1	90
372.008	1	94
372.179	1	86
372.350	1	100
372.521	1	102
372.692	1	92
372.863	1	91
373.033	1	87
373.204	1	90
373.375	1	94
373.546	1	99
373.717	1	90
373.888	1	105
374.059	1	91
374.229	1	109
374.400	1	96
374.571	1	92
374.742	1	100
374.913	1	94
375.084	1	108
375.254	1	100
375.425	1	98
375.596	1	109
375.767	1	109
375.938	1	98
376.109	1	102
376.279	1	111
376.450	1	113
376.621	1	101
376.792	1	112
376.963	1	107
377.134	1	111
377.304	1	106
377.475	1	94
377.646	1	103
377.817	1	118
377.988	1	113
378.159	1	111
378.329	1	107
378.500	1	117
378.671	1	113
378.842	1	103
379.013	1	117
379.184	1	105
379.354	1	106
379.525	1	110
379.696	1	110
379.867	1	112
380.038	1	111
380.209	1	114
380.379	1	112
380.550	1	113
380.721	1	109
380.892	1	105
381.063	1	126
381.233	1	116
381.404	1	103
381.575	1	112
381.746	1	122
381.917	1	107
382.087	1	115
382.258	1	113
382.429	1	113
382.600	1	99
382.771	1	109
382.941	1	131
383.112	1	116
383.283	1	116
383.454	1	112
383.625	1	125
383.795	1	121
383.966	1	121
384.137	1	117
384.308	1	112
384.479	1	124
384.649	1	115
384.820	1	130
384.991	1	121
385.162	1	122
385.333	1	114
385.503	1	126
385.674	1	122
385.845	1	122
386.016	1	132
386.187	1	121
386.357	1	141
386.528	1	113
386.699	1	124
386.870	1	116
387.041	1	131
387.211	1	136
387.382	1	122
387.553	1	138
387.724	1	118
387.894	1	115
388.065	1	127
388.236	1	134
388.407	1	122
388.578	1	130
388.748	1	128
388.919	1	133
389.090	1	141
389.261	1	132
389.431	1	118
389.602	1	133
389.773	1	121
389.944	1	136
390.114	1	116
390.285	1	131
390.456	1	129
390.627	1	117
390.798	1	121
390.968	1	131
391.139	1	135
391.310	1	132
391.481	1	138
391.651	1	137
391.822	1	134
391.993	1	117
392.164	1	141
392.334	1	113
392.505	1	142
392.676	1	121
392.847	1	125
393.017	1	128
393.188	1	142
393.359	1	146
393.530	1	136
393.700	1	122
393.871	1	135
394.042	1	129
394.213	1	140
394.383	1	133
394.554	1	124
394.725	1	135
394.896	1	126
395.066	1	140
395.237	1	142
395.408	1	136
395.579	1	133
395.749	1	152
395.920	1	153
396.091	1	126
396.262	1	136
396.432	1	134
396.603	1	148
396.774	1	130
396.945	1	143
397.115	1	148
397.286	1	154
397.457	1	153
397.627	1	142
397.798	1	150
397.969	1	144
398.140	1	138
398.310	1	160
398.481	1	139
398.652	1	151
398.823	1	160
398.993	1	144
399.164	1	142
399.335	1	137
399.505	1	138
399.676	1	135
399.847	1	137
400.018	1	135
400.188	1	141
400.359	1	145
400.530	1	146
400.700	1	137
400.871	1	144
401.042	1	141
401.213	1	144
401.383	1	129
401.554	1	142
401.725	1	140
401.895	1	134
402.066	1	139
402.237	1	127
402.408	1	145
402.578	1	145
402.749	1	131
402.920	1	144
403.090	1	154
403.261	1	146
403.432	1	143
403.603	1	148
403.773	1	153
403.944	1	133
404.115	1	132
404.285	1	154
404.456	1	150
404.627	1	143
404.797	1	153
404.968	1	147
405.139	1	144
405.310	1	153
405.480	1	139
405.651	1	139
405.822	1	136
405.992	1	141
406.163	1	136
406.334	1	149
406.504	1	166
406.675	1	136
406.846	1	155
407.016	1	144
407.187	1	161
407.358	1	150
407.528	1	150
407.699	1	154
407.870	1	160
408.041	1	145
408.211	1	162
408.382	1	163
408.553	1	166
408.723	1	166
408.894	1	142
409.065	1	152
409.235	1	164
409.406	1	145
409.577	1	157
409.747	1	148
409.918	1	162
410.089	1	156
410.259	1	151
410.430	1	137
410.601	1	157
410.771	1	157
410.942	1	143
411.113	1	169
411.283	1	149
411.454	1	175
411.625	1	161
411.795	1	146
411.966	1	165
412.137	1	157
412.307	1	151
412.478	1	140
412.649	1	143
412.819	1	142
412.990	1	146
413.161	1	146
413.331	1	149
413.502	1	136
413.672	1	152
413.843	1	147
414.014	1	155
414.184	1	156
414.355	1	147
414.526	1	145
414.696	1	126
414.867	1	131
415.038	1	136
415.208	1	136
415.379	1	131
415.550	1	142
415.720	1	152
415.891	1	158
416.062	1	161
416.232	1	145
416.403	1	154
416.573	1	159
416.744	1	155
416.915	1	145
417.085	1	151
417.256	1	159
417.427	1	142
417.597	1	135
417.768	1	171
417.939	1	134
418.109	1	143
418.280	1	151
418.450	1	168
418.621	1	140
418.792	1	149
418.962	1	157
419.133	1	146
419.304	1	139
419.474	1	157
419.645	1	139
419.815	1	144
419.986	1	170
420.157	1	157
420.327	1	137
420.498	1	145
420.669	1	148
420.839	1	151
421.010	1	143
421.180	1	133
421.351	1	144
421.522	1	154
421.692	1	155
421.863	1	154
422.033	1	154
422.204	1	145
422.375	1	148
422.545	1	126
422.716	1	134
422.886	1	141
423.057	1	136
423.228	1	132
423.398	1	148
423.569	1	141
423.740	1	130
423.910	1	139
424.081	1	134
424.251	1	137
424.422	1	140
424.593	1	122
424.763	1	144
424.934	1	143
425.104	1	142
425.275	1	124
425.445	1	139
425.616	1	124
425.787	1	130
425.957	1	127
426.128	1	144
426.298	1	141
426.469	1	122
426.640	1	131
426.810	1	131
426.981	1	143
427.151	1	119
427.322	1	130
427.493	1	127
427.663	1	137
427.834	1	128
428.004	1	150
428.175	1	142
428.345	1	120
428.516	1	120
428.687	1	149
428.857	1	135
429.028	1	129
429.198	1	113
429.369	1	127
429.540	1	129
429.710	1	136
429.881	1	130
430.051	1	130
430.222	1	137
430.392	1	142
430.563	1	131
430.734	1	134
430.904	1	143
431.075	1	142
431.245	1	138
431.416	1	134
431.586	1	124
431.757	1	143
431.927	1	126
432.098	1	145
432.269	1	117
432.439	1	128
432.610	1	129
432.780	1	146
432.951	1	124
433.121	1	126
433.292	1	145
433.462	1	127
433.633	1	134
433.804	1	130
433.974	1	139
434.145	1	124
434.315	1	130
434.486	1	120
434.656	1	128
434.827	1	138
434.997	1	128
435.168	1	136
435.339	1	134
435.509	1	130
435.680	1	124
435.850	1	121
436.021	1	131
436.191	1	128
436.362	1	130
436.532	1	130
436.703	1	135
436.873	1	122
437.044	1	124
437.214	1	121
437.385	1	126
437.556	1	122
437.726	1	107
437.897	1	119
438.067	1	118
438.238	1	124
438.408	1	121
438.579	1	117
438.749	1	116
438.920	1	128
439.090	1	113
439.261	1	125
439.431	1	115
439.602	1	110
439.772	1	127
439.943	1	117
440.113	1	103
440.284	1	125
440.455	1	116
440.625	1	118
440.796	1	115
440.966	1	116
441.137	1	110
441.307	1	120
441.478	1	122
441.648	1	120
441.819	1	105
441.989	1	129
442.160	1	115
442.330	1	118
442.501	1	108
442.671	1	118
442.842	1	110
443.012	1	114
443.183	1	122
443.353	1	112
443.524	1	121
443.694	1	120
443.865	1	116
444.035	1	117
444.206	1	111
444.376	1	124
444.547	1	117
444.717	1	128
444.888	1	105
445.058	1	117
445.229	1	117
445.399	1	105
445.570	1	111
445.740	1	118
445.911	1	114
446.081	1	115
446.252	1	119
446.422	1	115
446.593	1	113
446.763	1	123
446.934	1	107
447.104	1	106
447.275	1	109
447.445	1	114
447.616	1	102
447.786	1	114
447.957	1	112
448.127	1	114
448.298	1	117
448.468	1	117
448.639	1	112
448.809	1	112
448.979	1	117
449.150	1	108
449.320	1	116
449.491	1	106
449.661	1	106
449.832	1	92
450.002	1	100
450.173	1	107
450.343	1	100
450.514	1	112
450.684	1	107
450.855	1	100
451.025	1	96
451.196	1	104
451.366	1	110
451.537	1	111
451.707	1	115
451.878	1	87
452.048	1	99
452.218	1	105
452.389	1	108
452.559	1	116
452.730	1	98
452.900	1	97
453.071	1	107
453.241	1	111
453.412	1	107
453.582	1	93
453.753	1	103
453.923	1	97
454.093	1	96
454.264	1	115
454.434	1	97
454.605	1	103
454.775	1	111
454.946	1	87
455.116	1	88
455.287	1	91
455.457	1	96
455.628	1	83
455.798	1	104
455.968	1	99
456.139	1	106
456.309	1	93
456.480	1	94
456.650	1	101
456.821	1	86
456.991	1	99
457.161	1	97
457.332	1	95
457.502	1	88
457.673	1	90
457.843	1	92
458.014	1	94
458.184	1	96
458.355	1	104
458.525	1	91
458.695	1	89
458.866	1	93
459.036	1	104
459.207	1	91
459.377	1	90
459.548	1	94
459.718	1	86
459.888	1	91
460.059	1	89
460.229	1	92
460.400	1	88
460.570	1	88
460.740	1	80
460.911	1	91
461.081	1	86
461.252	1	106
461.422	1	84
461.593	1	92
461.763	1	101
461.933	1	96
462.104	1	87
462.274	1	81
462.445	1	88
462.615	1	91
462.785	1	94
462.956	1	87
463.126	1	70
463.297	1	86
463.467	1	95
463.638	1	82
463.808	1	84
463.978	1	77
464.149	1	82
464.319	1	89
464.490	1	83
464.660	1	73
464.830	1	79
465.001	1	82
465.171	1	89
465.342	1	74
465.512	1	88
465.682	1	75
465.853	1	80
466.023	1	83
466.194	1	87
466.364	1	86
466.534	1	76
466.705	1	92
466.875	1	63
467.045	1	78
467.216	1	84
467.386	1	75
467.557	1	85
467.727	1	71
467.897	1	81
468.068	1	51
468.238	1	75
468.409	1	78
468.579	1	78
468.749	1	80
468.920	1	77
469.090	1	83
469.260	1	73
469.431	1	74
469.601	1	78
469.772	1	87
469.942	1	67
470.112	1	58
470.283	1	80
470.453	1	78
470.623	1	69
470.794	1	70
470.964	1	66
471.135	1	79
471.305	1	67
471.475	1	72
471.646	1	80
471.816	1	75
471.986	1	71
472.157	1	74
472.327	1	79
472.497	1	78
472.668	1	75
472.838	1	74
473.009	1	68
473.179	1	63
473.349	1	68
473.520	1	84
473.690	1	68
473.860	1	64
474.031	1	61
474.201	1	72
474.371	1	70
474.542	1	66
474.712	1	59
474.882	1	73
475.053	1	62
475.223	1	66
475.394	1	74
475.564	1	67
475.734	1	57
475.905	1	77
476.075	1	78
476.245	1	67
476.416	1	73
476.586	1	64
476.756	1	74
476.927	1	76
477.097	1	61
477.267	1	67
477.438	1	73
477.608	1	83
477.778	1	63
477.949	1	64
478.119	1	71
478.289	1	65
478.460	1	66
478.630	1	64
478.800	1	59
478.971	1	65
479.141	1	69
479.311	1	62
479.482	1	67
479.652	1	69
479.822	1	63
479.993	1	60
480.163	1	69
480.333	1	69
480.504	1	60
480.674	1	73
480.844	1	67
481.015	1	66
481.185	1	60
481.355	1	68
481.525	1	57
481.696	1	61
481.866	1	65
482.036	1	69
482.207	1	75
482.377	1	63
482.547	1	64
482.718	1	57
482.888	1	67
483.058	1	53
483.229	1	54
483.399	1	65
483.569	1	53
483.740	1	55
483.910	1	57
484.080	1	57
484.250	1	54
484.421	1	47
484.591	1	55
484.761	1	66
484.932	1	53
485.102	1	61
485.272	1	54
485.443	1	54
485.613	1	68
485.783	1	53
485.953	1	51
486.124	1	52
486.294	1	63
486.464	1	67
486.635	1	53
486.805	1	51
486.975	1	59
487.146	1	63
487.316	1	55
487.486	1	52
487.656	1	53
487.827	1	47
487.997	1	47
488.167	1	56
488.338	1	58
488.508	1	61
488.678	1	49
488.848	1	56
489.019	1	51
489.189	1	60
489.359	1	45
489.529	1	52
489.700	1	49
489.870	1	61
490.040	1	49
490.211	1	42
490.381	1	40
490.551	1	52
490.721	1	47
490.892	1	39
491.062	1	52
491.232	1	59
491.402	1	45
491.573	1	64
491.743	1	54
491.913	1	56
492.084	1	58
492.254	1	43
492.424	1	45
492.594	1	51
492.765	1	52
492.935	1	55
493.105	1	52
493.275	1	59
493.446	1	40
493.616	1	40
493.786	1	55
493.956	1	56
494.127	1	49
494.297	1	29
494.467	1	54
494.637	1	49
494.808	1	50
494.978	1	60
495.148	1	50
495.318	1	50
495.489	1	51
495.659	1	56
495.829	1	41
495.999	1	53
496.170	1	44
496.340	1	42
496.510	1	47
496.680	1	49
496.851	1	54
497.021	1	55
497.191	1	46
497.361	1	39
497.532	1	50
497.702	1	49
497.872	1	45
498.042	1	36
498.213	1	40
498.383	1	37
498.553	1	48
498.723	1	46
498.894	1	46
499.064	1	40
499.234	1	46
499.404	1	43
499.574	1	48
499.745	1	45
499.915	1	49
500.085	1	42
500.255	1	24
500.426	1	47
500.596	1	34
500.766	1	38
500.936	1	48
501.106	1	46
501.277	1	31
501.447	1	45
501.617	1	37
501.787	1	37
501.958	1	46
502.128	1	42
502.298	1	53
502.468	1	37
502.638	1	44
502.809	1	32
502.979	1	44
503.149	1	43
503.319	1	43
503.489	1	30
503.660	1	48
503.830	1	49
504.000	1	39
504.170	1	37
504.340	1	31
504.511	1	34
504.681	1	31
504.851	1	33
505.021	1	43
505.192	1	32
505.362	1	39
505.532	1	38
505.702	1	59
505.872	1	29
506.043	1	47
506.213	1	49
506.383	1	41
506.553	1	40
506.723	1	30
506.893	1	56
507.064	1	45
507.234	1	32
507.404	1	34
507.574	1	27
507.744	1	41
507.915	1	36
508.085	1	32
508.255	1	44
508.425	1	40
508.595	1	40
508.766	1	35
508.936	1	46
509.106	1	40
509.276	1	36
509.446	1	30
509.616	1	44
509.787	1	38
509.957	1	38
510.127	1	28
510.297	1	40
510.467	1	36
510.638	1	43
510.808	1	44
510.978	1	28
511.148	1	32
511.318	1	37
511.488	1	44
511.659	1	41
511.829	1	23
511.999	1	42
512.169	1	37
512.339	1	48
512.509	1	26
512.680	1	41
512.850	1	34
513.020	1	47
513.190	1	30
513.360	1	36
513.530	1	36
513.700	1	34
513.871	1	41
514.041	1	34
514.211	1	39
514.381	1	34
514.551	1	33
514.721	1	35
514.892	1	32
515.062	1	38
515.232	1	30
515.402	1	32
515.572	1	38
515.742	1	46
515.912	1	27
516.083	1	25
516.253	1	38
516.423	1	32
516.593	1	25
516.763	1	43
516.933	1	41
517.104	1	45
517.274	1	25
517.444	1	37
517.614	1	26
517.784	1	26
517.954	1	29
518.124	1	31
518.294	1	37
518.465	1	34
518.635	1	35
518.805	1	24
518.975	1	26
519.145	1	32
519.315	1	23
519.485	1	16
519.656	1	32
519.826	1	18
519.996	1	26
520.166	1	30
520.336	1	32
520.506	1	13
520.676	1	35
520.846	1	24
521.017	1	28
521.187	1	28
521.357	1	12
521.527	1	25
521.697	1	24
521.867	1	31
522.037	1	32
522.207	1	37
522.377	1	30
522.548	1	14
522.718	1	32
522.888	1	36
523.058	1	20
523.228	1	28
523.398	1	25
523.568	1	20
523.738	1	32
523.909	1	21
524.079	1	36
524.249	1	23
524.419	1	18
524.589	1	28
524.759	1	35
524.929	1	27
525.099	1	20
525.269	1	30
525.439	1	21
525.610	1	28
525.780	1	28
525.950	1	18
526.120	1	13
526.290	1	19
526.460	1	11
526.630	1	20
526.800	1	21
526.970	1	24
527.140	1	21
527.311	1	31
527.481	1	25
527.651	1	29
527.821	1	28
527.991	1	12
528.161	1	32
528.331	1	25
528.501	1	18
528.671	1	26
528.841	1	25
529.011	1	14
529.181	1	30
529.352	1	18
529.522	1	31
529.692	1	29
529.862	1	16
530.032	1	16
530.202	1	22
530.372	1	17
530.542	1	24
530.712	1	24
530.882	1	28
531.052	1	30
531.222	1	19
531.392	1	27
531.563	1	37
531.733	1	16
531.903	1	26
532.073	1	30
532.243	1	26
532.413	1	42
532.583	1	16
532.753	1	8
532.923	1	30
533.093	1	13
533.263	1	12
533.433	1	27
533.603	1	23
533.773	1	18
533.943	1	23
534.113	1	18
534.284	1	17
534.454	1	18
534.624	1	22
534.794	1	22
534.964	1	21
535.134	1	17
535.304	1	23
535.474	1	24
535.644	1	26
535.814	1	12
535.984	1	21
536.154	1	21
536.324	1	15
536.494	1	26
536.664	1	17
536.834	1	26
537.004	1	14
537.174	1	23
537.344	1	35
537.514	1	12
537.685	1	25
537.855	1	24
538.025	1	26
538.195	1	10
538.365	1	24
538.535	1	20
538.705	1	23
538.875	1	37
539.045	1	19
539.215	1	7
539.385	1	25
539.555	1	12
539.725	1	12
539.895	1	30
540.065	1	13
540.235	1	27
540.405	1	24
540.575	1	16
540.745	1	25
540.915	1	18
541.085	1	13
541.255	1	10
541.425	1	14
541.595	1	17
541.765	1	26
541.935	1	22
542.105	1	26
542.275	1	9
542.445	1	17
542.615	1	26
542.785	1	8
542.955	1	24
543.125	1	12
543.295	1	20
543.465	1	16
543.635	1	10
543.805	1	24
543.975	1	20
544.145	1	17
544.315	1	13
544.485	1	8
544.655	1	19
544.825	1	20
544.995	1	12
545.165	1	17
545.335	1	18
545.505	1	15
545.675	1	18
545.845	1	27
546.015	1	3
546.185	1	11
546.355	1	19
546.525	1	25
546.695	1	23
546.865	1	14
547.035	1	23
547.205	1	34
547.375	1	15
547.545	1	16
547.715	1	22
547.885	1	2
548.055	1	16
548.225	1	14
548.395	1	19
548.565	1	19
548.735	1	9
548.905	1	22
549.075	1	11
549.245	1	10
549.415	1	23
549.585	1	15
549.755	1	13
549.925	1	13
550.095	1	11
550.265	1	14
550.435	1	17
550.605	1	14
550.775	1	7
550.945	1	8
551.115	1	25
551.285	1	11
551.455	1	9
551.625	1	8
551.795	1	13
551.965	1	13
552.135	1	9
552.305	1	17
552.475	1	5
552.645	1	14
552.815	1	20
552.985	1	10
553.155	1	6
553.325	1	18
553.495	1	20
553.665	1	15
553.835	1	1
554.004	1	20
554.174	1	1
554.344	1	21
554.514	1	9
554.684	1	18
554.854	1	5
555.024	1	27
555.194	1	13
555.364	1	14
555.534	1	9
555.704	1	18
555.874	1	16
556.044	1	11
556.214	1	16
556.384	1	14
556.554	1	18
556.724	1	13
556.894	1	14
557.064	1	15
557.234	1	18
557.404	1	17
557.573	1	14
557.743	1	14
557.913	1	6
558.083	1	8
558.253	1	8
558.423	1	18
558.593	1	15
558.763	1	11
558.933	1	13
559.103	1	9
559.273	1	23
559.443	1	15
559.613	1	18
559.783	1	9
559.953	1	0
560.122	1	6
560.292	1	0
560.462	1	14
560.632	1	21
560.802	1	11
560.972	1	5
561.142	1	12
561.312	1	15
561.482	1	15
561.652	1	13
561.822	1	5
561.992	1	16
562.162	1	7
562.331	1	-3
562.501	1	14
562.671	1	4
562.841	1	0
563.011	1	6
563.181	1	14
563.351	1	1
563.521	1	5
563.691	1	10
563.861	1	18
564.031	1	9
564.201	1	15
564.370	1	17
564.540	1	12
564.710	1	0
564.880	1	25
565.050	1	3
565.220	1	11
565.390	1	10
565.560	1	25
565.730	1	10
565.900	1	5
566.069	1	20
566.239	1	25
566.409	1	20
566.579	1	18
566.749	1	2
566.919	1	6
567.089	1	-3
567.259	1	9
567.429	1	4
567.599	1	16
567.768	1	4
567.938	1	11
568.108	1	10
568.278	1	12
568.448	1	10
568.618	1	13
568.788	1	8
568.958	1	16
569.128	1	6
569.297	1	9
569.467	1	21
569.637	1	15
569.807	1	11
569.977	1	7
570.147	1	12
570.317	1	11
570.487	1	11
570.656	1	12
570.826	1	11
570.996	1	16
571.166	1	15
571.336	1	5
571.506	1	11
571.676	1	13
571.846	1	16
572.015	1	15
572.185	1	10
572.355	1	11
572.525	1	3
572.695	1	11
572.865	1	12
573.035	1	7
573.205	1	3
573.374	1	4
573.544	1	7
573.714	1	6
573.884	1	9
574.054	1	11
574.224	1	17
574.394	1	11
574.563	1	4
574.733	1	8
574.903	1	9
575.073	1	15
575.243	1	6
575.413	1	7
575.583	1	3
575.752	1	12
575.922	1	20
576.092	1	-2
576.262	1	3
576.432	1	14
576.602	1	10
576.772	1	10
576.941	1	17
577.111	1	15
577.281	1	19
577.451	1	6
577.621	1	15
577.791	1	8
577.960	1	15
578.130	1	9
578.300	1	5
578.470	1	13
578.640	1	6
578.810	1	8
578.979	1	19
579.149	1	12
579.319	1	6
579.489	1	7
579.659	1	2
579.829	1	1
579.998	1	1
580.168	1	2
580.338	1	13
580.508	1	4
580.678	1	10
580.848	1	12
581.017	1	0
581.187	1	18
581.357	1	6
581.527	1	11
581.697	1	9
581.867	1	10
582.036	1	3
582.206	1	10
582.376	1	11
582.546	1	-2
582.716	1	9
582.885	1	10
583.055	1	3
583.225	1	12
583.395	1	16
583.565	1	17
583.735	1	16
583.904	1	11
584.074	1	12
584.244	1	-1
584.414	1	15
584.584	1	6
584.753	1	8
584.923	1	10
585.093	1	9
585.263	1	-1
585.433	1	6
585.602	1	16
585.772	1	33
585.942	1	4
586.112	1	12
586.282	1	11
586.451	1	16
586.621	1	5
586.791	1	6
586.961	1	9
587.131	1	12
587.300	1	26
587.470	1	8
587.640	1	4
587.810	1	4
587.980	1	17
588.149	1	13
588.319	1	22
588.489	1	17
588.659	1	13
588.829	1	7
588.998	1	11
589.168	1	11
589.338	1	-1
589.508	1	6
589.677	1	15
589.847	1	20
590.017	1	2
590.187	1	11
590.357	1	15
590.526	1	5
590.696	1	17
590.866	1	0
591.036	1	9
591.205	1	4
591.375	1	13
591.545	1	3
591.715	1	4
591.885	1	18
592.054	1	3
592.224	1	3
592.394	1	11
592.564	1	4
592.733	1	6
592.903	1	7
593.073	1	3
593.243	1	10
593.412	1	10
593.582	1	7
593.752	1	8
593.922	1	9
594.091	1	18
594.261	1	8
594.431	1	7
594.601	1	0
594.771	1	11
594.940	1	8
595.110	1	11
595.280	1	14
595.450	1	12
595.619	1	15
595.789	1	12
595.959	1	9
596.129	1	4
596.298	1	12
596.468	1	8
596.638	1	12
596.808	1	4
596.977	1	9
597.147	1	6
597.317	1	12
597.487	1	9
597.656	1	14
597.826	1	20
597.996	1	20
598.166	1	8
598.335	1	2
598.505	1	14
598.675	1	15
598.844	1	27
599.014	1	8
599.184	1	10
599.354	1	19
599.523	1	0
599.693	1	4
599.863	1	28
600.033	1	5
600.202	1	5
600.372	1	2
600.542	1	4
600.712	1	15
600.881	1	18
601.051	1	19
601.221	1	12
601.390	1	9
601.560	1	15
601.730	1	8
601.900	1	15
602.069	1	17
602.239	1	18
602.409	1	8
602.578	1	8
602.748	1	21
602.918	1	4
603.088	1	12
603.257	1	5
603.427	1	18
603.597	1	14
603.767	1	10
603.936	1	20
604.106	1	6
604.276	1	9
604.445	1	-4
604.615	1	9
604.785	1	15
604.954	1	10
605.124	1	14
605.294	1	14
605.464	1	2
605.633	1	17
605.803	1	16
605.973	1	4
606.142	1	12
606.312	1	15
606.482	1	10
606.652	1	15
606.821	1	4
606.991	1	18
607.161	1	14
607.330	1	8
607.500	1	9
607.670	1	12
607.839	1	7
608.009	1	9
608.179	1	15
608.348	1	14
608.518	1	20
608.688	1	14
608.858	1	1
609.027	1	15
609.197	1	13
609.367	1	4
609.536	1	13
609.706	1	22
609.876	1	9
610.045	1	11
610.215	1	19
610.385	1	18
610.554	1	8
610.724	1	7
610.894	1	8
611.063	1	11
611.233	1	22
611.403	1	20
611.572	1	18
611.742	1	17
611.912	1	11
612.081	1	10
612.251	1	20
612.421	1	14
612.590	1	15
612.760	1	14
612.930	1	12
613.099	1	11
613.269	1	2
613.439	1	8
613.608	1	10
613.778	1	14
613.948	1	16
614.117	1	10
614.287	1	8
614.457	1	11
614.626	1	12
614.796	1	17
614.966	1	11
615.135	1	33
615.305	1	12
615.475	1	16
615.644	1	21
615.814	1	14
615.984	1	12
616.153	1	15
616.323	1	18
616.493	1	14
616.662	1	4
616.832	1	15
617.002	1	11
617.171	1	15
617.341	1	20
617.511	1	-2
617.680	1	9
617.850	1	14
618.019	1	4
618.189	1	20
618.359	1	26
618.528	1	20
618.698	1	20
618.868	1	22
619.037	1	9
619.207	1	-1
619.377	1	5
619.546	1	29
619.716	1	7
619.885	1	12
620.055	1	9
620.225	1	21
620.394	1	25
620.564	1	20
620.734	1	12
620.903	1	2
621.073	1	18
621.242	1	16
621.412	1	14
621.582	1	27
621.751	1	16
621.921	1	16
622.091	1	18
622.260	1	12
622.430	1	16
622.599	1	15
622.769	1	15
622.939	1	7
623.108	1	10
623.278	1	18
623.448	1	10
623.617	1	13
623.787	1	14
623.956	1	20
624.126	1	14
624.296	1	23
624.465	1	17
624.635	1	20
624.804	1	5
624.974	1	4
625.144	1	12
625.313	1	29
625.483	1	13
625.652	1	19
625.822	1	19
625.992	1	13
626.161	1	13
626.331	1	12
626.501	1	10
626.670	1	11
626.840	1	19
627.009	1	26
627.179	1	18
627.348	1	10
627.518	1	33
627.688	1	12
627.857	1	21
628.027	1	14
628.196	1	23
628.366	1	6
628.536	1	17
628.705	1	4
628.875	1	18
629.044	1	8
629.214	1	17
629.384	1	20
629.553	1	11
629.723	1	26
629.892	1	16
630.062	1	23
630.232	1	22
630.401	1	28
630.571	1	9
630.740	1	10
630.910	1	28
631.079	1	14
631.249	1	16
631.419	1	10
631.588	1	18
631.758	1	8
631.927	1	25
632.097	1	9
632.266	1	22
632.436	1	12
632.606	1	14
632.775	1	10
632.945	1	11
633.114	1	17
633.284	1	16
633.453	1	14
633.623	1	19
633.793	1	19
633.962	1	19
634.132	1	21
634.301	1	29
634.471	1	12
634.640	1	15
634.810	1	34
634.979	1	9
635.149	1	15
635.319	1	19
635.488	1	18
635.658	1	15
635.827	1	14
635.997	1	22
636.166	1	16
636.336	1	15
636.505	1	25
636.675	1	20
636.845	1	13
637.014	1	8
637.184	1	19
637.353	1	27
637.523	1	9
637.692	1	10
637.862	1	18
638.031	1	13
638.201	1	25
638.370	1	19
638.540	1	10
638.710	1	17
638.879	1	16
639.049	1	20
639.218	1	23
639.388	1	9
639.557	1	23
639.727	1	13
639.896	1	15
640.066	1	9
640.235	1	20
640.405	1	22
640.574	1	29
640.744	1	12
640.914	1	15
641.083	1	39
641.253	1	20
641.422	1	14
641.592	1	33
641.761	1	22
641.931	1	22
642.100	1	12
642.270	1	28
642.439	1	18
642.609	1	26
642.778	1	19
642.948	1	26
643.117	1	20
643.287	1	18
643.456	1	16
643.626	1	25
643.795	1	22
643.965	1	24
644.134	1	15
644.304	1	21
644.473	1	25
644.643	1	21
644.812	1	16
644.982	1	26
645.151	1	18
645.321	1	28
645.490	1	36
645.660	1	4
645.829	1	27
645.999	1	23
646.168	1	35
646.338	1	23
646.507	1	26
646.677	1	17
646.846	1	29
647.016	1	31
647.185	1	35
647.355	1	33
647.524	1	15
647.694	1	18
647.863	1	17
648.033	1	12
648.202	1	32
648.372	1	9
648.541	1	22
648.711	1	31
648.880	1	13
649.050	1	24
649.219	1	25
649.389	1	10
649.558	1	27
649.728	1	16
649.897	1	30
650.067	1	26
650.236	1	16
650.406	1	24
650.575	1	26
650.745	1	19
650.914	1	38
651.084	1	28
651.253	1	14
651.423	1	20
651.592	1	27
651.762	1	12
651.931	1	27
652.101	1	29
652.270	1	27
652.440	1	29
652.609	1	25
652.778	1	27
652.948	1	29
653.117	1	20
653.287	1	14
653.456	1	18
653.626	1	16
653.795	1	26
653.965	1	17
654.134	1	15
654.304	1	27
654.473	1	16
654.643	1	19
654.812	1	29
654.982	1	21
655.151	1	34
655.320	1	15
655.490	1	16
655.659	1	32
655.829	1	22
655.998	1	29
656.168	1	24
656.337	1	13
656.507	1	21
656.676	1	26
656.846	1	25
657.015	1	44
657.184	1	35
657.354	1	20
657.523	1	25
657.693	1	26
657.862	1	17
658.032	1	31
658.201	1	11
658.371	1	23
658.540	1	18
658.709	1	35
658.879	1	38
659.048	1	40
659.218	1	29
659.387	1	29
659.557	1	20
659.726	1	21
659.895	1	28
660.065	1	16
660.234	1	23
660.404	1	28
660.573	1	18
660.743	1	29
660.912	1	24
661.081	1	17
661.251	1	19
661.420	1	28
661.590	1	26
661.759	1	31
661.929	1	24
662.098	1	38
662.267	1	24
662.437	1	42
662.606	1	10
662.776	1	32
662.945	1	35
663.115	1	36
663.284	1	28
663.453	1	24
663.623	1	26
663.792	1	36
663.962	1	34
664.131	1	25
664.300	1	24
664.470	1	24
664.639	1	30
664.809	1	36
664.978	1	39
665.148	1	34
665.317	1	30
665.486	1	32
665.656	1	29
665.825	1	27
665.995	1	15
666.164	1	26
666.333	1	17
666.503	1	28
666.672	1	24
666.842	1	31
667.011	1	30
667.180	1	37
667.350	1	17
667.519	1	28
667.689	1	21
667.858	1	22
668.027	1	24
668.197	1	6
668.366	1	27
668.536	1	28
668.705	1	14
668.874	1	39
669.044	1	33
669.213	1	31
669.382	1	31
669.552	1	23
669.721	1	15
669.891	1	25
670.060	1	20
670.229	1	33
670.399	1	28
670.568	1	28
670.738	1	37
670.907	1	33
671.076	1	30
671.246	1	40
671.415	1	44
671.584	1	30
671.754	1	23
671.923	1	34
672.093	1	34
672.262	1	26
672.431	1	27
672.601	1	36
672.770	1	32
672.939	1	27
673.109	1	26
673.278	1	38
673.448	1	28
673.617	1	28
673.786	1	15
