325.333	1	15
325.504	1	2
325.675	1	10
325.846	1	5
326.017	1	15
326.188	1	17
326.359	1	16
326.531	1	16
326.702	1	7
326.873	1	1
327.044	1	28
327.215	1	-3
327.386	1	7
327.557	1	10
327.728	1	3
327.899	1	5
328.070	1	2
328.241	1	7
328.412	1	3
328.583	1	1
328.754	1	17
328.926	1	9
329.097	1	-2
329.268	1	23
329.439	1	19
329.610	1	15
329.781	1	9
329.952	1	12
330.123	1	8
330.294	1	6
330.465	1	2
330.636	1	14
330.807	1	5
330.978	1	4
331.149	1	7
331.320	1	7
331.492	1	4
331.663	1	10
331.834	1	11
332.005	1	11
332.176	1	19
332.347	1	10
332.518	1	23
332.689	1	11
332.860	1	8
333.031	1	13
333.202	1	8
333.373	1	12
333.544	1	9
333.715	1	13
333.886	1	19
334.057	1	1
334.228	1	16
334.399	1	23
334.570	1	14
334.741	1	3
334.912	1	5
335.084	1	12
335.255	1	20
335.426	1	14
335.597	1	14
335.768	1	18
335.939	1	18
336.110	1	10
336.281	1	16
336.452	1	17
336.623	1	15
336.794	1	14
336.965	1	14
337.136	1	20
337.307	1	9
337.478	1	9
337.649	1	15
337.820	1	7
337.991	1	23
338.162	1	16
338.333	1	17
338.504	1	23
338.675	1	9
338.846	1	5
339.017	1	5
339.188	1	11
339.359	1	16
339.530	1	9
339.701	1	14
339.872	1	24
340.043	1	10
340.214	1	17
340.385	1	5
340.556	1	24
340.727	1	20
340.898	1	18
341.069	1	13
341.240	1	7
341.411	1	15
341.582	1	10
341.753	1	13
341.924	1	30
342.095	1	22
342.266	1	22
342.437	1	12
342.608	1	25
342.779	1	15
342.950	1	5
343.121	1	27
343.292	1	24
343.463	1	27
343.634	1	23
343.805	1	17
343.976	1	27
344.147	1	27
344.318	1	15
344.489	1	7
344.660	1	24
344.831	1	23
345.002	1	12
345.173	1	12
345.344	1	19
345.515	1	24
345.686	1	20
345.857	1	29
346.028	1	33
346.199	1	12
346.370	1	23
346.541	1	19
346.712	1	20
346.883	1	20
347.054	1	21
347.225	1	11
347.396	1	20
347.567	1	5
347.738	1	11
347.909	1	20
348.080	1	12
348.251	1	15
348.422	1	29
348.593	1	24
348.764	1	17
348.935	1	34
349.106	1	24
349.277	1	16
349.448	1	19
349.619	1	21
349.790	1	30
349.961	1	18
350.132	1	22
350.303	1	18
350.474	1	20
350.645	1	21
350.816	1	23
350.987	1	27
351.157	1	11
351.328	1	15
351.499	1	23
351.670	1	19
351.841	1	14
352.012	1	17
352.183	1	21
352.354	1	24
352.525	1	28
352.696	1	17
352.867	1	41
353.038	1	29
353.209	1	18
353.380	1	30
353.551	1	37
353.722	1	21
353.893	1	32
354.064	1	32
354.235	1	19
354.406	1	26
354.576	1	26
354.747	1	26
354.918	1	24
355.089	1	30
355.260	1	32
355.431	1	22
355.602	1	24
355.773	1	20
355.944	1	26
356.115	1	35
356.286	1	24
356.457	1	28
356.628	1	19
356.799	1	27
356.970	1	45
357.141	1	26
357.311	1	47
357.482	1	27
357.653	1	29
357.824	1	33
357.995	1	29
358.166	1	25
358.337	1	32
358.508	1	39
358.679	1	30
358.850	1	41
359.021	1	43
359.192	1	37
359.363	1	41
359.533	1	30
359.704	1	27
359.875	1	24
360.046	1	32
360.217	1	30
360.388	1	41
360.559	1	37
360.730	1	27
360.901	1	37
361.072	1	39
361.243	1	28
361.414	1	39
361.584	1	23
361.755	1	30
361.926	1	35
362.097	1	34
362.268	1	32
362.439	1	32
362.610	1	37
362.781	1	22
362.952	1	35
363.123	1	36
363.293	1	38
363.464	1	32
363.635	1	31
363.806	1	28
363.977	1	32
364.148	1	22
364.319	1	37
364.490	1	33
364.661	1	37
364.832	1	30
365.002	1	41
365.173	1	31
365.344	1	25
365.515	1	33
365.686	1	38
365.857	1	42
366.028	1	41
366.199	1	39
366.370	1	32
366.540	1	17
366.711	1	41
366.882	1	40
367.053	1	35
367.224	1	47
367.395	1	36
367.566	1	40
367.737	1	39
367.908	1	43
368.078	1	28
368.249	1	43
368.420	1	41
368.591	1	35
368.762	1	40
368.933	1	37
369.104	1	36
369.274	1	39
369.445	1	46
369.616	1	30
369.787	1	41
369.958	1	44
370.129	1	39
370.300	1	33
370.471	1	41
370.641	1	36
370.812	1	34
370.983	1	36
371.154	1	32
371.325	1	39
371.496	1	41
371.667	1	43
371.837	1	38
372.008	1	31
372.179	1	33
372.350	1	36
372.521	1	38
372.692	1	49
372.863	1	28
373.033	1	33
373.204	1	28
373.375	1	31
373.546	1	36
373.717	1	32
373.888	1	43
374.059	1	38
374.229	1	44
374.400	1	29
374.571	1	35
374.742	1	35
374.913	1	30
375.084	1	33
375.254	1	20
375.425	1	26
375.596	1	38
375.767	1	41
375.938	1	19
376.109	1	32
376.279	1	34
376.450	1	37
376.621	1	35
376.792	1	45
376.963	1	33
377.134	1	40
377.304	1	39
377.475	1	34
377.646	1	31
377.817	1	38
377.988	1	42
378.159	1	38
378.329	1	43
378.500	1	55
378.671	1	40
378.842	1	38
379.013	1	38
379.184	1	38
379.354	1	37
379.525	1	45
379.696	1	53
379.867	1	39
380.038	1	39
380.209	1	44
380.379	1	36
380.550	1	33
380.721	1	33
380.892	1	40
381.063	1	37
381.233	1	44
381.404	1	40
381.575	1	40
381.746	1	39
381.917	1	48
382.087	1	43
382.258	1	49
382.429	1	37
382.600	1	36
382.771	1	35
382.941	1	46
383.112	1	29
383.283	1	47
383.454	1	35
383.625	1	43
383.795	1	44
383.966	1	48
384.137	1	54
384.308	1	46
384.479	1	39
384.649	1	53
384.820	1	43
384.991	1	36
385.162	1	50
385.333	1	34
385.503	1	40
385.674	1	37
385.845	1	52
386.016	1	51
386.187	1	36
386.357	1	48
386.528	1	43
386.699	1	39
386.870	1	46
387.041	1	52
387.211	1	47
387.382	1	54
387.553	1	50
387.724	1	40
387.894	1	45
388.065	1	48
388.236	1	42
388.407	1	53
388.578	1	50
388.748	1	51
388.919	1	42
389.090	1	55
389.261	1	56
389.431	1	47
389.602	1	49
389.773	1	48
389.944	1	41
390.114	1	44
390.285	1	45
390.456	1	45
390.627	1	46
390.798	1	44
390.968	1	45
391.139	1	48
391.310	1	40
391.481	1	48
391.651	1	55
391.822	1	58
391.993	1	43
392.164	1	47
392.334	1	47
392.505	1	49
392.676	1	34
392.847	1	45
393.017	1	47
393.188	1	56
393.359	1	58
393.530	1	65
393.700	1	50
393.871	1	61
394.042	1	38
394.213	1	33
394.383	1	57
394.554	1	49
394.725	1	38
394.896	1	59
395.066	1	47
395.237	1	51
395.408	1	44
395.579	1	47
395.749	1	67
395.920	1	51
396.091	1	49
396.262	1	47
396.432	1	52
396.603	1	43
396.774	1	44
396.945	1	62
397.115	1	58
397.286	1	57
397.457	1	44
397.627	1	55
397.798	1	54
397.969	1	53
398.140	1	55
398.310	1	61
398.481	1	51
398.652	1	59
398.823	1	48
398.993	1	45
399.164	1	55
399.335	1	45
399.505	1	52
399.676	1	48
399.847	1	45
400.018	1	60
400.188	1	51
400.359	1	63
400.530	1	53
400.700	1	57
400.871	1	47
401.042	1	53
401.213	1	48
401.383	1	49
401.554	1	52
401.725	1	47
401.895	1	42
402.066	1	58
402.237	1	57
402.408	1	51
402.578	1	54
402.749	1	54
402.920	1	58
403.090	1	47
403.261	1	49
403.432	1	58
403.603	1	60
403.773	1	70
403.944	1	60
404.115	1	57
404.285	1	57
404.456	1	65
404.627	1	51
404.797	1	48
404.968	1	52
405.139	1	59
405.310	1	53
405.480	1	54
405.651	1	49
405.822	1	54
405.992	1	63
406.163	1	44
406.334	1	49
406.504	1	54
406.675	1	45
406.846	1	56
407.016	1	61
407.187	1	55
407.358	1	51
407.528	1	55
407.699	1	64
407.870	1	66
408.041	1	49
408.211	1	58
408.382	1	68
408.553	1	66
408.723	1	64
408.894	1	49
409.065	1	53
409.235	1	58
409.406	1	53
409.577	1	62
409.747	1	61
409.918	1	67
410.089	1	61
410.259	1	58
410.430	1	50
410.601	1	54
410.771	1	64
410.942	1	61
411.113	1	52
411.283	1	51
411.454	1	66
411.625	1	57
411.795	1	60
411.966	1	56
412.137	1	56
412.307	1	66
412.478	1	54
412.649	1	54
412.819	1	64
412.990	1	52
413.161	1	57
413.331	1	58
413.502	1	52
413.672	1	57
413.843	1	51
414.014	1	51
414.184	1	60
414.355	1	65
414.526	1	56
414.696	1	52
414.867	1	45
415.038	1	45
415.208	1	51
415.379	1	49
415.550	1	64
415.720	1	59
415.891	1	51
416.062	1	66
416.232	1	62
416.403	1	60
416.573	1	47
416.744	1	62
416.915	1	54
417.085	1	67
417.256	1	58
417.427	1	54
417.597	1	55
417.768	1	58
417.939	1	52
418.109	1	51
418.280	1	58
418.450	1	69
418.621	1	44
418.792	1	51
418.962	1	64
419.133	1	56
419.304	1	53
419.474	1	52
419.645	1	45
419.815	1	52
419.986	1	54
420.157	1	52
420.327	1	43
420.498	1	44
420.669	1	60
420.839	1	60
421.010	1	51
421.180	1	56
421.351	1	59
421.522	1	52
421.692	1	66
421.863	1	49
422.033	1	56
422.204	1	58
422.375	1	48
422.545	1	48
422.716	1	42
422.886	1	57
423.057	1	49
423.228	1	56
423.398	1	48
423.569	1	60
423.740	1	51
423.910	1	55
424.081	1	56
424.251	1	52
424.422	1	59
424.593	1	60
424.763	1	46
424.934	1	51
425.104	1	59
425.275	1	45
425.445	1	51
425.616	1	59
425.787	1	53
425.957	1	50
426.128	1	52
426.298	1	62
426.469	1	49
426.640	1	50
426.810	1	37
426.981	1	60
427.151	1	45
427.322	1	52
427.493	1	49
427.663	1	47
427.834	1	35
428.004	1	56
428.175	1	52
428.345	1	43
428.516	1	51
428.687	1	49
428.857	1	58
429.028	1	48
429.198	1	51
429.369	1	45
429.540	1	50
429.710	1	53
429.881	1	53
430.051	1	46
430.222	1	41
430.392	1	56
430.563	1	44
430.734	1	49
430.904	1	54
431.075	1	55
431.245	1	49
431.416	1	51
431.586	1	53
431.757	1	41
431.927	1	56
432.098	1	61
432.269	1	47
432.439	1	44
432.610	1	61
432.780	1	51
432.951	1	53
433.121	1	41
433.292	1	50
433.462	1	47
433.633	1	54
433.804	1	53
433.974	1	59
434.145	1	48
434.315	1	52
434.486	1	35
434.656	1	58
434.827	1	54
434.997	1	49
435.168	1	55
435.339	1	54
435.509	1	45
435.680	1	55
435.850	1	35
436.021	1	43
436.191	1	44
436.362	1	49
436.532	1	62
436.703	1	59
436.873	1	45
437.044	1	57
437.214	1	38
437.385	1	46
437.556	1	52
437.726	1	51
437.897	1	45
438.067	1	54
438.238	1	56
438.408	1	52
438.579	1	42
438.749	1	32
438.920	1	45
439.090	1	41
439.261	1	49
439.431	1	39
439.602	1	44
439.772	1	49
439.943	1	42
440.113	1	47
440.284	1	52
440.455	1	46
440.625	1	52
440.796	1	37
440.966	1	46
441.137	1	38
441.307	1	59
441.478	1	38
441.648	1	46
441.819	1	44
441.989	1	50
442.160	1	45
442.330	1	52
442.501	1	40
442.671	1	40
442.842	1	48
443.012	1	40
443.183	1	44
443.353	1	44
443.524	1	50
443.694	1	41
443.865	1	54
444.035	1	42
444.206	1	41
444.376	1	49
444.547	1	50
444.717	1	46
444.888	1	36
445.058	1	44
445.229	1	41
445.399	1	46
445.570	1	48
445.740	1	42
445.911	1	51
446.081	1	37
446.252	1	49
446.422	1	42
446.593	1	35
446.763	1	42
446.934	1	43
447.104	1	35
447.275	1	41
447.445	1	50
447.616	1	36
447.786	1	48
447.957	1	48
448.127	1	45
448.298	1	50
448.468	1	40
448.639	1	37
448.809	1	46
448.979	1	47
449.150	1	43
449.320	1	52
449.491	1	41
449.661	1	36
449.832	1	31
450.002	1	39
450.173	1	43
450.343	1	34
450.514	1	49
450.684	1	46
450.855	1	43
451.025	1	43
451.196	1	31
451.366	1	49
451.537	1	46
451.707	1	49
451.878	1	38
452.048	1	23
452.218	1	42
452.389	1	43
452.559	1	46
452.730	1	48
452.900	1	30
453.071	1	48
453.241	1	34
453.412	1	37
453.582	1	46
453.753	1	44
453.923	1	28
454.093	1	29
454.264	1	51
454.434	1	41
454.605	1	39
454.775	1	37
454.946	1	31
455.116	1	40
455.287	1	31
455.457	1	40
455.628	1	31
455.798	1	44
455.968	1	40
456.139	1	50
456.309	1	35
456.480	1	33
456.650	1	38
456.821	1	32
456.991	1	49
457.161	1	38
457.332	1	30
457.502	1	28
457.673	1	33
457.843	1	34
458.014	1	40
458.184	1	42
458.355	1	43
458.525	1	40
458.695	1	26
458.866	1	35
459.036	1	32
459.207	1	32
459.377	1	34
459.548	1	41
459.718	1	30
459.888	1	35
460.059	1	41
460.229	1	26
460.400	1	39
460.570	1	33
460.740	1	35
460.911	1	32
461.081	1	42
461.252	1	37
461.422	1	28
461.593	1	34
461.763	1	41
461.933	1	21
462.104	1	38
462.274	1	21
462.445	1	25
462.615	1	40
462.785	1	39
462.956	1	32
463.126	1	34
463.297	1	27
463.467	1	38
463.638	1	36
463.808	1	29
463.978	1	26
464.149	1	38
464.319	1	33
464.490	1	28
464.660	1	25
464.830	1	23
465.001	1	28
465.171	1	30
465.342	1	34
465.512	1	37
465.682	1	35
465.853	1	28
466.023	1	32
466.194	1	41
466.364	1	39
466.534	1	27
466.705	1	40
466.875	1	23
467.045	1	20
467.216	1	35
467.386	1	28
467.557	1	41
467.727	1	36
467.897	1	27
468.068	1	21
468.238	1	28
468.409	1	28
468.579	1	34
468.749	1	27
468.920	1	26
469.090	1	34
469.260	1	28
469.431	1	32
469.601	1	35
469.772	1	35
469.942	1	25
470.112	1	24
470.283	1	38
470.453	1	22
470.623	1	38
470.794	1	21
470.964	1	20
471.135	1	45
471.305	1	22
471.475	1	35
471.646	1	31
471.816	1	23
471.986	1	30
472.157	1	36
472.327	1	35
472.497	1	26
472.668	1	30
472.838	1	38
473.009	1	27
473.179	1	32
473.349	1	18
473.520	1	47
473.690	1	22
473.860	1	22
474.031	1	21
474.201	1	19
474.371	1	34
474.542	1	21
474.712	1	29
474.882	1	30
475.053	1	36
475.223	1	34
475.394	1	30
475.564	1	32
475.734	1	20
475.905	1	38
476.075	1	37
476.245	1	33
476.416	1	19
476.586	1	31
476.756	1	31
476.927	1	31
477.097	1	22
477.267	1	31
477.438	1	40
477.608	1	43
477.778	1	27
477.949	1	19
478.119	1	28
478.289	1	28
478.460	1	28
478.630	1	35
478.800	1	30
478.971	1	28
479.141	1	32
479.311	1	26
479.482	1	23
479.652	1	31
479.822	1	27
479.993	1	27
480.163	1	28
480.333	1	29
480.504	1	28
480.674	1	24
480.844	1	21
481.015	1	40
481.185	1	27
481.355	1	19
481.525	1	26
481.696	1	23
481.866	1	32
482.036	1	24
482.207	1	25
482.377	1	27
482.547	1	16
482.718	1	26
482.888	1	27
483.058	1	25
483.229	1	33
483.399	1	32
483.569	1	17
483.740	1	24
483.910	1	25
484.080	1	30
484.250	1	10
484.421	1	12
484.591	1	16
484.761	1	28
484.932	1	17
485.102	1	27
485.272	1	33
485.443	1	23
485.613	1	16
485.783	1	22
485.953	1	14
486.124	1	14
486.294	1	27
486.464	1	27
486.635	1	16
486.805	1	15
486.975	1	19
487.146	1	25
487.316	1	23
487.486	1	27
487.656	1	25
487.827	1	18
487.997	1	16
488.167	1	27
488.338	1	20
488.508	1	31
488.678	1	17
488.848	1	19
489.019	1	18
489.189	1	13
489.359	1	19
489.529	1	23
489.700	1	13
489.870	1	18
490.040	1	3
490.211	1	4
490.381	1	18
490.551	1	28
490.721	1	25
490.892	1	12
491.062	1	19
491.232	1	18
491.402	1	12
491.573	1	20
491.743	1	7
491.913	1	20
492.084	1	22
492.254	1	18
492.424	1	16
492.594	1	15
492.765	1	25
492.935	1	24
493.105	1	24
493.275	1	10
493.446	1	13
493.616	1	18
493.786	1	9
493.956	1	21
494.127	1	10
494.297	1	8
494.467	1	12
494.637	1	15
494.808	1	20
494.978	1	23
495.148	1	10
495.318	1	19
495.489	1	22
495.659	1	10
495.829	1	21
495.999	1	24
496.170	1	17
496.340	1	9
496.510	1	21
496.680	1	30
496.851	1	22
497.021	1	7
497.191	1	25
497.361	1	5
497.532	1	23
497.702	1	14
497.872	1	20
498.042	1	8
498.213	1	6
498.383	1	10
498.553	1	18
498.723	1	18
498.894	1	14
499.064	1	9
499.234	1	18
499.404	1	29
499.574	1	16
499.745	1	20
499.915	1	15
500.085	1	8
500.255	1	-1
500.426	1	7
500.596	1	-6
500.766	1	8
500.936	1	12
501.106	1	10
501.277	1	9
501.447	1	23
501.617	1	18
501.787	1	0
501.958	1	20
502.128	1	10
502.298	1	16
502.468	1	7
502.638	1	19
502.809	1	13
502.979	1	8
503.149	1	15
503.319	1	22
503.489	1	-12
503.660	1	13
503.830	1	14
504.000	1	16
504.170	1	10
504.340	1	5
504.511	1	8
504.681	1	10
504.851	1	11
505.021	1	15
505.192	1	15
505.362	1	5
505.532	1	8
505.702	1	20
505.872	1	6
506.043	1	15
506.213	1	19
506.383	1	11
506.553	1	15
506.723	1	11
506.893	1	18
507.064	1	28
507.234	1	11
507.404	1	19
507.574	1	12
507.744	1	12
507.915	1	8
508.085	1	15
508.255	1	15
508.425	1	10
508.595	1	12
508.766	1	3
508.936	1	22
509.106	1	11
509.276	1	17
509.446	1	7
509.616	1	10
509.787	1	6
509.957	1	12
510.127	1	11
510.297	1	6
510.467	1	14
510.638	1	8
510.808	1	22
510.978	1	0
511.148	1	6
511.318	1	10
511.488	1	14
511.659	1	12
511.829	1	14
511.999	1	15
512.169	1	14
512.339	1	14
512.509	1	12
512.680	1	18
512.850	1	6
513.020	1	13
513.190	1	3
513.360	1	13
513.530	1	13
513.700	1	17
513.871	1	13
514.041	1	13
514.211	1	11
514.381	1	11
514.551	1	11
514.721	1	3
514.892	1	15
515.062	1	9
515.232	1	7
515.402	1	6
515.572	1	20
515.742	1	16
515.912	1	11
516.083	1	10
516.253	1	16
516.423	1	21
516.593	1	7
516.763	1	19
516.933	1	4
517.104	1	7
517.274	1	3
517.444	1	13
517.614	1	10
517.784	1	11
517.954	1	13
518.124	1	14
518.294	1	15
518.465	1	9
518.635	1	14
518.805	1	17
518.975	1	6
519.145	1	10
519.315	1	8
519.485	1	0
519.656	1	5
519.826	1	3
519.996	1	12
520.166	1	5
520.336	1	12
520.506	1	15
520.676	1	8
520.846	1	9
521.017	1	17
521.187	1	10
521.357	1	7
521.527	1	6
521.697	1	5
521.867	1	11
522.037	1	12
522.207	1	22
522.377	1	15
522.548	1	-1
522.718	1	12
522.888	1	9
523.058	1	13
523.228	1	-2
523.398	1	9
523.568	1	3
523.738	1	12
523.909	1	3
524.079	1	11
524.249	1	-1
524.419	1	8
524.589	1	13
524.759	1	7
524.929	1	12
525.099	1	9
525.269	1	10
525.439	1	11
525.610	1	10
525.780	1	11
525.950	1	17
526.120	1	11
526.290	1	8
526.460	1	-1
526.630	1	7
526.800	1	4
526.970	1	12
527.140	1	9
527.311	1	19
527.481	1	14
527.651	1	13
527.821	1	3
527.991	1	7
528.161	1	14
528.331	1	5
528.501	1	7
528.671	1	14
528.841	1	10
529.011	1	18
529.181	1	3
529.352	1	10
529.522	1	14
529.692	1	10
529.862	1	6
530.032	1	5
530.202	1	5
530.372	1	13
530.542	1	7
530.712	1	10
530.882	1	10
531.052	1	10
531.222	1	16
531.392	1	17
531.563	1	14
531.733	1	7
531.903	1	2
532.073	1	5
532.243	1	7
532.413	1	16
532.583	1	8
532.753	1	3
532.923	1	6
533.093	1	1
533.263	1	14
533.433	1	1
533.603	1	6
533.773	1	1
533.943	1	7
534.113	1	8
534.284	1	10
534.454	1	-3
534.624	1	14
534.794	1	3
534.964	1	6
535.134	1	-6
535.304	1	6
535.474	1	17
535.644	1	8
535.814	1	4
535.984	1	9
536.154	1	17
536.324	1	0
536.494	1	17
536.664	1	3
536.834	1	9
537.004	1	8
537.174	1	9
537.344	1	0
537.514	1	-2
537.685	1	17
537.855	1	4
538.025	1	18
538.195	1	1
538.365	1	8
538.535	1	15
538.705	1	-1
538.875	1	6
539.045	1	10
539.215	1	-3
539.385	1	5
539.555	1	0
539.725	1	9
539.895	1	9
540.065	1	5
540.235	1	15
540.405	1	9
540.575	1	7
540.745	1	12
540.915	1	9
541.085	1	-7
541.255	1	6
541.425	1	3
541.595	1	7
541.765	1	8
541.935	1	0
542.105	1	11
542.275	1	0
542.445	1	7
542.615	1	11
542.785	1	9
542.955	1	16
543.125	1	0
543.295	1	8
543.465	1	10
543.635	1	1
543.805	1	13
543.975	1	2
544.145	1	9
544.315	1	2
544.485	1	4
544.655	1	13
544.825	1	11
544.995	1	9
545.165	1	9
545.335	1	11
545.505	1	5
545.675	1	16
545.845	1	6
546.015	1	-8
546.185	1	-1
546.355	1	2
546.525	1	14
546.695	1	2
546.865	1	11
547.035	1	12
547.205	1	13
547.375	1	13
547.545	1	13
547.715	1	8
547.885	1	2
548.055	1	1
548.225	1	10
548.395	1	7
548.565	1	7
548.735	1	-1
548.905	1	14
549.075	1	4
549.245	1	6
549.415	1	7
549.585	1	7
549.755	1	4
549.925	1	7
550.095	1	5
550.265	1	11
550.435	1	5
550.605	1	7
550.775	1	-3
550.945	1	9
551.115	1	18
551.285	1	9
551.455	1	8
551.625	1	-6
551.795	1	7
551.965	1	6
552.135	1	15
552.305	1	9
552.475	1	3
552.645	1	-10
552.815	1	2
552.985	1	0
553.155	1	-2
553.325	1	1
553.495	1	10
553.665	1	6
553.835	1	3
554.004	1	9
554.174	1	-1
554.344	1	10
554.514	1	-4
554.684	1	11
554.854	1	-6
555.024	1	12
555.194	1	4
555.364	1	2
555.534	1	-4
555.704	1	10
555.874	1	1
556.044	1	7
556.214	1	8
556.384	1	17
556.554	1	6
556.724	1	-3
556.894	1	5
557.064	1	5
557.234	1	6
557.404	1	3
557.573	1	12
557.743	1	-6
557.913	1	-7
558.083	1	8
558.253	1	5
558.423	1	1
558.593	1	7
558.763	1	4
558.933	1	-3
559.103	1	5
559.273	1	19
559.443	1	11
559.613	1	10
559.783	1	4
559.953	1	-5
560.122	1	6
560.292	1	-10
560.462	1	1
560.632	1	-4
560.802	1	14
560.972	1	-2
561.142	1	12
561.312	1	4
561.482	1	10
561.652	1	13
561.822	1	5
561.992	1	14
562.162	1	1
562.331	1	7
562.501	1	-2
562.671	1	-6
562.841	1	-9
563.011	1	9
563.181	1	2
563.351	1	-1
563.521	1	-4
563.691	1	2
563.861	1	-3
564.031	1	3
564.201	1	0
564.370	1	8
564.540	1	4
564.710	1	0
564.880	1	-2
565.050	1	8
565.220	1	8
565.390	1	3
565.560	1	2
565.730	1	8
565.900	1	7
566.069	1	13
566.239	1	12
566.409	1	11
566.579	1	2
566.749	1	2
566.919	1	-11
567.089	1	-7
567.259	1	6
567.429	1	2
567.599	1	20
567.768	1	1
567.938	1	15
568.108	1	1
568.278	1	13
568.448	1	4
568.618	1	7
568.788	1	5
568.958	1	2
569.128	1	-3
569.297	1	-1
569.467	1	7
569.637	1	3
569.807	1	5
569.977	1	1
570.147	1	6
570.317	1	3
570.487	1	-7
570.656	1	7
570.826	1	-1
570.996	1	11
571.166	1	-2
571.336	1	-1
571.506	1	5
571.676	1	8
571.846	1	11
572.015	1	-2
572.185	1	6
572.355	1	12
572.525	1	2
572.695	1	3
572.865	1	0
573.035	1	2
573.205	1	0
573.374	1	-2
573.544	1	10
573.714	1	11
573.884	1	4
574.054	1	6
574.224	1	6
574.394	1	11
574.563	1	-6
574.733	1	4
574.903	1	5
575.073	1	2
575.243	1	-2
575.413	1	-2
575.583	1	2
575.752	1	0
575.922	1	14
576.092	1	-2
576.262	1	0
576.432	1	-9
576.602	1	-3
576.772	1	-4
576.941	1	1
577.111	1	-2
577.281	1	14
577.451	1	5
577.621	1	9
577.791	1	4
577.960	1	0
578.130	1	10
578.300	1	3
578.470	1	4
578.640	1	8
578.810	1	-9
578.979	1	8
579.149	1	6
579.319	1	8
579.489	1	8
579.659	1	11
579.829	1	6
579.998	1	-9
580.168	1	12
580.338	1	-2
580.508	1	1
580.678	1	-2
580.848	1	6
581.017	1	-1
581.187	1	11
581.357	1	4
581.527	1	-2
581.697	1	-2
581.867	1	1
582.036	1	-8
582.206	1	3
582.376	1	6
582.546	1	2
582.716	1	6
582.885	1	-6
583.055	1	-5
583.225	1	3
583.395	1	8
583.565	1	11
583.735	1	6
583.904	1	7
584.074	1	-7
584.244	1	3
584.414	1	-1
584.584	1	3
584.753	1	-1
584.923	1	3
585.093	1	16
585.263	1	4
585.433	1	-6
585.602	1	9
585.772	1	15
585.942	1	1
586.112	1	4
586.282	1	5
586.451	1	6
586.621	1	1
586.791	1	-8
586.961	1	-4
587.131	1	-1
587.300	1	3
587.470	1	9
587.640	1	1
587.810	1	-7
587.980	1	11
588.149	1	13
588.319	1	7
588.489	1	8
588.659	1	-2
588.829	1	6
588.998	1	2
589.168	1	5
589.338	1	-8
589.508	1	-3
589.677	1	-1
589.847	1	1
590.017	1	2
590.187	1	7
590.357	1	1
590.526	1	-1
590.696	1	-2
590.866	1	-4
591.036	1	12
591.205	1	15
591.375	1	6
591.545	1	-1
591.715	1	-5
591.885	1	12
592.054	1	10
592.224	1	2
592.394	1	-4
592.564	1	2
592.733	1	7
592.903	1	-8
593.073	1	2
593.243	1	11
593.412	1	3
593.582	1	9
593.752	1	-3
593.922	1	5
594.091	1	9
594.261	1	-8
594.431	1	5
594.601	1	-5
594.771	1	3
594.940	1	-7
595.110	1	10
595.280	1	5
595.450	1	-1
595.619	1	6
595.789	1	-4
595.959	1	-6
596.129	1	5
596.298	1	13
596.468	1	0
596.638	1	-3
596.808	1	0
596.977	1	6
597.147	1	1
597.317	1	3
597.487	1	4
597.656	1	4
597.826	1	10
597.996	1	2
598.166	1	2
598.335	1	-6
598.505	1	8
598.675	1	-3
598.844	1	13
599.014	1	-7
599.184	1	-5
599.354	1	15
599.523	1	-3
599.693	1	6
599.863	1	7
600.033	1	10
600.202	1	0
600.372	1	-4
600.542	1	11
600.712	1	0
600.881	1	6
601.051	1	5
601.221	1	-2
601.390	1	-3
601.560	1	15
601.730	1	2
601.900	1	5
602.069	1	-7
602.239	1	2
602.409	1	5
602.578	1	14
602.748	1	17
602.918	1	-1
603.088	1	7
603.257	1	-7
603.427	1	3
603.597	1	6
603.767	1	7
603.936	1	11
604.106	1	3
604.276	1	8
604.445	1	-7
604.615	1	5
604.785	1	6
604.954	1	1
605.124	1	9
605.294	1	5
605.464	1	4
605.633	1	5
605.803	1	8
605.973	1	7
606.142	1	6
606.312	1	15
606.482	1	2
606.652	1	13
606.821	1	1
606.991	1	8
607.161	1	1
607.330	1	-3
607.500	1	4
607.670	1	8
607.839	1	3
608.009	1	-2
608.179	1	14
608.348	1	7
608.518	1	14
608.688	1	-1
608.858	1	4
609.027	1	10
609.197	1	15
609.367	1	2
609.536	1	-2
609.706	1	10
609.876	1	18
610.045	1	8
610.215	1	10
610.385	1	15
610.554	1	0
610.724	1	5
610.894	1	7
611.063	1	3
611.233	1	4
611.403	1	10
611.572	1	5
611.742	1	4
611.912	1	2
612.081	1	7
612.251	1	11
612.421	1	6
612.590	1	3
612.760	1	0
612.930	1	2
613.099	1	7
613.269	1	12
613.439	1	2
613.608	1	4
613.778	1	7
613.948	1	15
614.117	1	3
614.287	1	-5
614.457	1	4
614.626	1	1
614.796	1	2
614.966	1	6
615.135	1	13
615.305	1	1
615.475	1	1
615.644	1	20
615.814	1	7
615.984	1	2
616.153	1	3
616.323	1	8
616.493	1	-8
616.662	1	6
616.832	1	4
617.002	1	10
617.171	1	7
617.341	1	8
617.511	1	4
617.680	1	3
617.850	1	6
618.019	1	7
618.189	1	24
618.359	1	10
618.528	1	6
618.698	1	4
618.868	1	2
619.037	1	-1
619.207	1	1
619.377	1	5
619.546	1	12
619.716	1	13
619.885	1	3
620.055	1	-9
620.225	1	4
620.394	1	8
620.564	1	4
620.734	1	2
620.903	1	-9
621.073	1	14
621.242	1	4
621.412	1	5
621.582	1	10
621.751	1	7
621.921	1	11
622.091	1	-1
622.260	1	15
622.430	1	7
622.599	1	9
622.769	1	0
622.939	1	-1
623.108	1	13
623.278	1	2
623.448	1	4
623.617	1	-2
623.787	1	7
623.956	1	4
624.126	1	11
624.296	1	0
624.465	1	7
624.635	1	8
624.804	1	-1
624.974	1	-2
625.144	1	6
625.313	1	12
625.483	1	13
625.652	1	7
625.822	1	10
625.992	1	-2
626.161	1	9
626.331	1	7
626.501	1	11
626.670	1	12
626.840	1	15
627.009	1	3
627.179	1	10
627.348	1	-3
627.518	1	19
627.688	1	-1
627.857	1	14
628.027	1	16
628.196	1	12
628.366	1	0
628.536	1	2
628.705	1	0
628.875	1	1
629.044	1	-2
629.214	1	8
629.384	1	13
629.553	1	-1
629.723	1	9
629.892	1	5
630.062	1	10
630.232	1	16
630.401	1	14
630.571	1	-3
630.740	1	4
630.910	1	12
631.079	1	4
631.249	1	1
631.419	1	3
631.588	1	7
631.758	1	-5
631.927	1	15
632.097	1	9
632.266	1	18
632.436	1	-3
632.606	1	4
632.775	1	0
632.945	1	8
633.114	1	8
633.284	1	1
633.453	1	14
633.623	1	11
633.793	1	4
633.962	1	11
634.132	1	9
634.301	1	16
634.471	1	10
634.640	1	-2
634.810	1	14
634.979	1	17
635.149	1	-5
635.319	1	-6
635.488	1	3
635.658	1	14
635.827	1	3
635.997	1	9
636.166	1	7
636.336	1	-8
636.505	1	9
636.675	1	2
636.845	1	7
637.014	1	-1
637.184	1	14
637.353	1	-5
637.523	1	0
637.692	1	9
637.862	1	4
638.031	1	-2
638.201	1	13
638.370	1	8
638.540	1	-3
638.710	1	-1
638.879	1	-5
639.049	1	9
639.218	1	5
639.388	1	9
639.557	1	9
639.727	1	11
639.896	1	8
640.066	1	1
640.235	1	-3
640.405	1	10
640.574	1	7
640.744	1	7
640.914	1	6
641.083	1	13
641.253	1	3
641.422	1	-1
641.592	1	9
641.761	1	2
641.931	1	7
642.100	1	6
642.270	1	8
642.439	1	7
642.609	1	20
642.778	1	12
642.948	1	6
643.117	1	10
643.287	1	10
643.456	1	-1
643.626	1	14
643.795	1	-3
643.965	1	5
644.134	1	4
644.304	1	1
644.473	1	9
644.643	1	9
644.812	1	3
644.982	1	10
645.151	1	5
645.321	1	9
645.490	1	14
645.660	1	8
645.829	1	6
645.999	1	4
646.168	1	29
646.338	1	3
646.507	1	8
646.677	1	2
646.846	1	6
647.016	1	13
647.185	1	16
647.355	1	19
647.524	1	-3
647.694	1	8
647.863	1	6
648.033	1	8
648.202	1	15
648.372	1	-3
648.541	1	10
648.711	1	9
648.880	1	8
649.050	1	12
649.219	1	18
649.389	1	1
649.558	1	11
649.728	1	9
649.897	1	13
650.067	1	15
650.236	1	1
650.406	1	4
650.575	1	1
650.745	1	10
650.914	1	12
651.084	1	15
651.253	1	9
651.423	1	-5
651.592	1	11
651.762	1	7
651.931	1	8
652.101	1	-1
652.270	1	2
652.440	1	7
652.609	1	4
652.778	1	17
652.948	1	7
653.117	1	9
653.287	1	2
653.456	1	7
653.626	1	10
653.795	1	9
653.965	1	5
654.134	1	-2
654.304	1	19
654.473	1	8
654.643	1	10
654.812	1	15
654.982	1	8
655.151	1	19
655.320	1	2
655.490	1	0
655.659	1	7
655.829	1	7
655.998	1	7
656.168	1	11
656.337	1	9
656.507	1	-2
656.676	1	4
656.846	1	9
657.015	1	16
657.184	1	4
657.354	1	9
657.523	1	2
657.693	1	12
657.862	1	7
658.032	1	6
658.201	1	5
658.371	1	8
658.540	1	-2
658.709	1	19
658.879	1	9
659.048	1	14
659.218	1	1
659.387	1	9
659.557	1	4
659.726	1	3
659.895	1	9
660.065	1	5
660.234	1	6
660.404	1	10
660.573	1	11
660.743	1	14
660.912	1	8
661.081	1	1
661.251	1	3
661.420	1	14
661.590	1	13
661.759	1	11
661.929	1	9
662.098	1	16
662.267	1	7
662.437	1	11
662.606	1	5
662.776	1	2
662.945	1	20
663.115	1	27
663.284	1	12
663.453	1	-2
663.623	1	1
663.792	1	18
663.962	1	7
664.131	1	9
664.300	1	5
664.470	1	6
664.639	1	3
664.809	1	13
664.978	1	13
665.148	1	4
665.317	1	5
665.486	1	15
665.656	1	13
665.825	1	5
665.995	1	-1
666.164	1	5
666.333	1	9
666.503	1	6
666.672	1	3
666.842	1	10
667.011	1	5
667.180	1	4
667.350	1	10
667.519	1	6
667.689	1	9
667.858	1	15
668.027	1	12
668.197	1	-3
668.366	1	11
668.536	1	6
668.705	1	-3
668.874	1	19
669.044	1	14
669.213	1	14
669.382	1	10
669.552	1	8
669.721	1	12
669.891	1	1
670.060	1	8
670.229	1	16
670.399	1	15
670.568	1	13
670.738	1	16
670.907	1	8
671.076	1	1
671.246	1	18
671.415	1	13
671.584	1	16
671.754	1	-5
671.923	1	6
672.093	1	17
672.262	1	-1
672.431	1	17
672.601	1	12
672.770	1	11
672.939	1	6
673.109	1	12
673.278	1	7
673.448	1	9
673.617	1	10
673.786	1	-12
