325.333	1	17
325.504	1	10
325.675	1	12
325.846	1	7
326.017	1	20
326.188	1	19
326.359	1	3
326.531	1	6
326.702	1	17
326.873	1	18
327.044	1	4
327.215	1	8
327.386	1	6
327.557	1	0
327.728	1	6
327.899	1	9
328.070	1	27
328.241	1	10
328.412	1	11
328.583	1	19
328.754	1	17
328.926	1	16
329.097	1	18
329.268	1	25
329.439	1	15
329.610	1	20
329.781	1	22
329.952	1	19
330.123	1	8
330.294	1	17
330.465	1	2
330.636	1	15
330.807	1	20
330.978	1	12
331.149	1	22
331.320	1	12
331.492	1	10
331.663	1	23
331.834	1	22
332.005	1	21
332.176	1	16
332.347	1	0
332.518	1	22
332.689	1	9
332.860	1	10
333.031	1	19
333.202	1	16
333.373	1	23
333.544	1	20
333.715	1	11
333.886	1	9
334.057	1	20
334.228	1	20
334.399	1	20
334.570	1	24
334.741	1	9
334.912	1	17
335.084	1	33
335.255	1	24
335.426	1	17
335.597	1	24
335.768	1	18
335.939	1	14
336.110	1	24
336.281	1	14
336.452	1	28
336.623	1	20
336.794	1	17
336.965	1	15
337.136	1	35
337.307	1	15
337.478	1	19
337.649	1	22
337.820	1	8
337.991	1	22
338.162	1	23
338.333	1	14
338.504	1	28
338.675	1	13
338.846	1	8
339.017	1	24
339.188	1	12
339.359	1	18
339.530	1	20
339.701	1	22
339.872	1	30
340.043	1	25
340.214	1	20
340.385	1	4
340.556	1	30
340.727	1	11
340.898	1	28
341.069	1	14
341.240	1	31
341.411	1	32
341.582	1	5
341.753	1	21
341.924	1	36
342.095	1	23
342.266	1	24
342.437	1	21
342.608	1	28
342.779	1	21
342.950	1	25
343.121	1	25
343.292	1	27
343.463	1	38
343.634	1	23
343.805	1	38
343.976	1	38
344.147	1	36
344.318	1	22
344.489	1	24
344.660	1	36
344.831	1	42
345.002	1	24
345.173	1	26
345.344	1	37
345.515	1	32
345.686	1	34
345.857	1	39
346.028	1	46
346.199	1	39
346.370	1	26
346.541	1	28
346.712	1	27
346.883	1	26
347.054	1	39
347.225	1	27
347.396	1	33
347.567	1	25
347.738	1	34
347.909	1	39
348.080	1	25
348.251	1	32
348.422	1	41
348.593	1	31
348.764	1	37
348.935	1	35
349.106	1	30
349.277	1	24
349.448	1	35
349.619	1	39
349.790	1	50
349.961	1	29
350.132	1	46
350.303	1	46
350.474	1	35
350.645	1	37
350.816	1	36
350.987	1	44
351.157	1	38
351.328	1	35
351.499	1	34
351.670	1	48
351.841	1	44
352.012	1	47
352.183	1	54
352.354	1	44
352.525	1	40
352.696	1	43
352.867	1	40
353.038	1	39
353.209	1	36
353.380	1	33
353.551	1	43
353.722	1	42
353.893	1	47
354.064	1	42
354.235	1	37
354.406	1	33
354.576	1	44
354.747	1	43
354.918	1	36
355.089	1	42
355.260	1	41
355.431	1	36
355.602	1	45
355.773	1	31
355.944	1	42
356.115	1	37
356.286	1	46
356.457	1	44
356.628	1	34
356.799	1	44
356.970	1	44
357.141	1	47
357.311	1	53
357.482	1	40
357.653	1	35
357.824	1	45
357.995	1	52
358.166	1	48
358.337	1	40
358.508	1	49
358.679	1	43
358.850	1	58
359.021	1	44
359.192	1	52
359.363	1	53
359.533	1	45
359.704	1	41
359.875	1	49
360.046	1	46
360.217	1	55
360.388	1	53
360.559	1	52
360.730	1	43
360.901	1	46
361.072	1	46
361.243	1	46
361.414	1	53
361.584	1	37
361.755	1	43
361.926	1	47
362.097	1	38
362.268	1	59
362.439	1	40
362.610	1	48
362.781	1	40
362.952	1	54
363.123	1	39
363.293	1	47
363.464	1	43
363.635	1	54
363.806	1	54
363.977	1	55
364.148	1	40
364.319	1	50
364.490	1	49
364.661	1	54
364.832	1	46
365.002	1	54
365.173	1	46
365.344	1	50
365.515	1	53
365.686	1	61
365.857	1	47
366.028	1	49
366.199	1	52
366.370	1	57
366.540	1	45
366.711	1	51
366.882	1	51
367.053	1	43
367.224	1	57
367.395	1	56
367.566	1	59
367.737	1	58
367.908	1	46
368.078	1	41
368.249	1	55
368.420	1	51
368.591	1	46
368.762	1	50
368.933	1	55
369.104	1	47
369.274	1	59
369.445	1	60
369.616	1	53
369.787	1	45
369.958	1	47
370.129	1	44
370.300	1	43
370.471	1	52
370.641	1	50
370.812	1	63
370.983	1	56
371.154	1	50
371.325	1	55
371.496	1	50
371.667	1	57
371.837	1	50
372.008	1	51
372.179	1	52
372.350	1	53
372.521	1	52
372.692	1	61
372.863	1	50
373.033	1	53
373.204	1	47
373.375	1	51
373.546	1	59
373.717	1	44
373.888	1	48
374.059	1	50
374.229	1	52
374.400	1	49
374.571	1	50
374.742	1	51
374.913	1	41
375.084	1	63
375.254	1	40
375.425	1	58
375.596	1	58
375.767	1	56
375.938	1	43
376.109	1	44
376.279	1	57
376.450	1	65
376.621	1	67
376.792	1	59
376.963	1	57
377.134	1	62
377.304	1	72
377.475	1	50
377.646	1	58
377.817	1	56
377.988	1	56
378.159	1	62
378.329	1	56
378.500	1	54
378.671	1	56
378.842	1	62
379.013	1	56
379.184	1	63
379.354	1	55
379.525	1	71
379.696	1	66
379.867	1	58
380.038	1	47
380.209	1	63
380.379	1	56
380.550	1	39
380.721	1	59
380.892	1	61
381.063	1	58
381.233	1	64
381.404	1	53
381.575	1	56
381.746	1	62
381.917	1	56
382.087	1	59
382.258	1	68
382.429	1	71
382.600	1	51
382.771	1	57
382.941	1	74
383.112	1	61
383.283	1	67
383.454	1	57
383.625	1	68
383.795	1	70
383.966	1	65
384.137	1	63
384.308	1	68
384.479	1	69
384.649	1	68
384.820	1	61
384.991	1	57
385.162	1	76
385.333	1	69
385.503	1	56
385.674	1	63
385.845	1	62
386.016	1	75
386.187	1	65
386.357	1	81
386.528	1	67
386.699	1	65
386.870	1	58
387.041	1	64
387.211	1	65
387.382	1	77
387.553	1	68
387.724	1	69
387.894	1	55
388.065	1	81
388.236	1	72
388.407	1	68
388.578	1	73
388.748	1	71
388.919	1	69
389.090	1	81
389.261	1	68
389.431	1	58
389.602	1	66
389.773	1	75
389.944	1	65
390.114	1	75
390.285	1	81
390.456	1	76
390.627	1	70
390.798	1	67
390.968	1	62
391.139	1	71
391.310	1	59
391.481	1	69
391.651	1	79
391.822	1	80
391.993	1	78
392.164	1	77
392.334	1	64
392.505	1	70
392.676	1	70
392.847	1	54
393.017	1	63
393.188	1	67
393.359	1	88
393.530	1	78
393.700	1	72
393.871	1	79
394.042	1	71
394.213	1	66
394.383	1	75
394.554	1	65
394.725	1	63
394.896	1	87
395.066	1	75
395.237	1	78
395.408	1	75
395.579	1	75
395.749	1	86
395.920	1	71
396.091	1	70
396.262	1	69
396.432	1	68
396.603	1	76
396.774	1	73
396.945	1	82
397.115	1	88
397.286	1	74
397.457	1	78
397.627	1	65
397.798	1	68
397.969	1	75
398.140	1	67
398.310	1	73
398.481	1	72
398.652	1	79
398.823	1	66
398.993	1	66
399.164	1	74
399.335	1	75
399.505	1	60
399.676	1	86
399.847	1	74
400.018	1	69
400.188	1	80
400.359	1	75
400.530	1	89
400.700	1	80
400.871	1	79
401.042	1	77
401.213	1	78
401.383	1	75
401.554	1	65
401.725	1	62
401.895	1	64
402.066	1	80
402.237	1	76
402.408	1	71
402.578	1	71
402.749	1	71
402.920	1	91
403.090	1	69
403.261	1	67
403.432	1	70
403.603	1	73
403.773	1	85
403.944	1	87
404.115	1	76
404.285	1	82
404.456	1	90
404.627	1	81
404.797	1	61
404.968	1	82
405.139	1	80
405.310	1	88
405.480	1	70
405.651	1	75
405.822	1	77
405.992	1	88
406.163	1	83
406.334	1	87
406.504	1	75
406.675	1	84
406.846	1	91
407.016	1	81
407.187	1	81
407.358	1	72
407.528	1	82
407.699	1	88
407.870	1	87
408.041	1	80
408.211	1	76
408.382	1	83
408.553	1	89
408.723	1	90
408.894	1	76
409.065	1	76
409.235	1	91
409.406	1	90
409.577	1	80
409.747	1	89
409.918	1	81
410.089	1	91
410.259	1	81
410.430	1	81
410.601	1	82
410.771	1	80
410.942	1	71
411.113	1	83
411.283	1	80
411.454	1	96
411.625	1	95
411.795	1	95
411.966	1	79
412.137	1	87
412.307	1	79
412.478	1	86
412.649	1	73
412.819	1	87
412.990	1	75
413.161	1	88
413.331	1	73
413.502	1	59
413.672	1	78
413.843	1	78
414.014	1	75
414.184	1	89
414.355	1	75
414.526	1	75
414.696	1	73
414.867	1	65
415.038	1	74
415.208	1	70
415.379	1	79
415.550	1	80
415.720	1	69
415.891	1	88
416.062	1	83
416.232	1	89
416.403	1	87
416.573	1	87
416.744	1	72
416.915	1	81
417.085	1	86
417.256	1	77
417.427	1	72
417.597	1	78
417.768	1	77
417.939	1	66
418.109	1	78
418.280	1	76
418.450	1	100
418.621	1	86
418.792	1	84
418.962	1	83
419.133	1	76
419.304	1	78
419.474	1	80
419.645	1	80
419.815	1	79
419.986	1	91
420.157	1	73
420.327	1	86
420.498	1	78
420.669	1	90
420.839	1	84
421.010	1	77
421.180	1	67
421.351	1	77
421.522	1	84
421.692	1	87
421.863	1	83
422.033	1	81
422.204	1	79
422.375	1	84
422.545	1	83
422.716	1	70
422.886	1	80
423.057	1	76
423.228	1	79
423.398	1	71
423.569	1	66
423.740	1	69
423.910	1	79
424.081	1	83
424.251	1	79
424.422	1	75
424.593	1	83
424.763	1	75
424.934	1	80
425.104	1	82
425.275	1	82
425.445	1	76
425.616	1	76
425.787	1	63
425.957	1	69
426.128	1	60
426.298	1	76
426.469	1	81
426.640	1	81
426.810	1	56
426.981	1	86
427.151	1	63
427.322	1	73
427.493	1	67
427.663	1	77
427.834	1	83
428.004	1	81
428.175	1	75
428.345	1	59
428.516	1	77
428.687	1	81
428.857	1	84
429.028	1	62
429.198	1	69
429.369	1	72
429.540	1	71
429.710	1	74
429.881	1	70
430.051	1	57
430.222	1	73
430.392	1	74
430.563	1	66
430.734	1	84
430.904	1	88
431.075	1	67
431.245	1	77
431.416	1	81
431.586	1	67
431.757	1	73
431.927	1	85
432.098	1	74
432.269	1	71
432.439	1	70
432.610	1	85
432.780	1	68
432.951	1	70
433.121	1	61
433.292	1	76
433.462	1	72
433.633	1	75
433.804	1	77
433.974	1	75
434.145	1	74
434.315	1	71
434.486	1	58
434.656	1	73
434.827	1	70
434.997	1	75
435.168	1	74
435.339	1	84
435.509	1	76
435.680	1	75
435.850	1	60
436.021	1	65
436.191	1	66
436.362	1	70
436.532	1	64
436.703	1	76
436.873	1	73
437.044	1	72
437.214	1	55
437.385	1	64
437.556	1	72
437.726	1	72
437.897	1	62
438.067	1	71
438.238	1	64
438.408	1	72
438.579	1	62
438.749	1	72
438.920	1	67
439.090	1	55
439.261	1	84
439.431	1	51
439.602	1	71
439.772	1	68
439.943	1	61
440.113	1	65
440.284	1	66
440.455	1	62
440.625	1	69
440.796	1	54
440.966	1	70
441.137	1	67
441.307	1	71
441.478	1	68
441.648	1	68
441.819	1	69
441.989	1	73
442.160	1	65
442.330	1	66
442.501	1	65
442.671	1	65
442.842	1	70
443.012	1	64
443.183	1	67
443.353	1	74
443.524	1	66
443.694	1	55
443.865	1	70
444.035	1	56
444.206	1	61
444.376	1	70
444.547	1	72
444.717	1	62
444.888	1	58
445.058	1	67
445.229	1	65
445.399	1	65
445.570	1	60
445.740	1	67
445.911	1	71
446.081	1	60
446.252	1	63
446.422	1	59
446.593	1	57
446.763	1	58
446.934	1	51
447.104	1	69
447.275	1	72
447.445	1	65
447.616	1	75
447.786	1	61
447.957	1	65
448.127	1	60
448.298	1	64
448.468	1	66
448.639	1	63
448.809	1	62
448.979	1	72
449.150	1	68
449.320	1	54
449.491	1	59
449.661	1	52
449.832	1	53
450.002	1	61
450.173	1	62
450.343	1	50
450.514	1	64
450.684	1	52
450.855	1	55
451.025	1	58
451.196	1	54
451.366	1	60
451.537	1	60
451.707	1	66
451.878	1	44
452.048	1	58
452.218	1	52
452.389	1	63
452.559	1	64
452.730	1	64
452.900	1	51
453.071	1	56
453.241	1	54
453.412	1	56
453.582	1	64
453.753	1	63
453.923	1	52
454.093	1	59
454.264	1	66
454.434	1	59
454.605	1	55
454.775	1	53
454.946	1	50
455.116	1	59
455.287	1	52
455.457	1	56
455.628	1	45
455.798	1	66
455.968	1	59
456.139	1	58
456.309	1	54
456.480	1	42
456.650	1	59
456.821	1	43
456.991	1	64
457.161	1	61
457.332	1	62
457.502	1	60
457.673	1	50
457.843	1	57
458.014	1	51
458.184	1	57
458.355	1	56
458.525	1	49
458.695	1	47
458.866	1	43
459.036	1	45
459.207	1	50
459.377	1	52
459.548	1	51
459.718	1	58
459.888	1	45
460.059	1	53
460.229	1	50
460.400	1	46
460.570	1	42
460.740	1	58
460.911	1	46
461.081	1	51
461.252	1	53
461.422	1	50
461.593	1	55
461.763	1	59
461.933	1	52
462.104	1	47
462.274	1	49
462.445	1	48
462.615	1	54
462.785	1	72
462.956	1	36
463.126	1	48
463.297	1	55
463.467	1	60
463.638	1	56
463.808	1	51
463.978	1	45
464.149	1	51
464.319	1	60
464.490	1	48
464.660	1	52
464.830	1	46
465.001	1	38
465.171	1	44
465.342	1	50
465.512	1	53
465.682	1	41
465.853	1	34
466.023	1	55
466.194	1	44
466.364	1	53
466.534	1	37
466.705	1	61
466.875	1	48
467.045	1	43
467.216	1	53
467.386	1	48
467.557	1	48
467.727	1	44
467.897	1	45
468.068	1	47
468.238	1	44
468.409	1	51
468.579	1	40
468.749	1	35
468.920	1	31
469.090	1	42
469.260	1	48
469.431	1	33
469.601	1	38
469.772	1	48
469.942	1	44
470.112	1	39
470.283	1	42
470.453	1	58
470.623	1	42
470.794	1	37
470.964	1	38
471.135	1	47
471.305	1	45
471.475	1	40
471.646	1	47
471.816	1	41
471.986	1	36
472.157	1	48
472.327	1	36
472.497	1	35
472.668	1	41
472.838	1	37
473.009	1	38
473.179	1	34
473.349	1	50
473.520	1	55
473.690	1	47
473.860	1	31
474.031	1	32
474.201	1	49
474.371	1	41
474.542	1	40
474.712	1	39
474.882	1	35
475.053	1	49
475.223	1	47
475.394	1	35
475.564	1	44
475.734	1	39
475.905	1	41
476.075	1	55
476.245	1	39
476.416	1	27
476.586	1	29
476.756	1	47
476.927	1	38
477.097	1	40
477.267	1	37
477.438	1	52
477.608	1	51
477.778	1	29
477.949	1	35
478.119	1	39
478.289	1	38
478.460	1	26
478.630	1	34
478.800	1	39
478.971	1	40
479.141	1	43
479.311	1	37
479.482	1	35
479.652	1	47
479.822	1	34
479.993	1	25
480.163	1	41
480.333	1	37
480.504	1	34
480.674	1	45
480.844	1	42
481.015	1	55
481.185	1	50
481.355	1	37
481.525	1	31
481.696	1	35
481.866	1	28
482.036	1	33
482.207	1	36
482.377	1	41
482.547	1	43
482.718	1	48
482.888	1	42
483.058	1	47
483.229	1	33
483.399	1	35
483.569	1	27
483.740	1	38
483.910	1	22
484.080	1	38
484.250	1	18
484.421	1	32
484.591	1	33
484.761	1	42
484.932	1	36
485.102	1	36
485.272	1	40
485.443	1	41
485.613	1	34
485.783	1	35
485.953	1	31
486.124	1	26
486.294	1	27
486.464	1	45
486.635	1	34
486.805	1	28
486.975	1	26
487.146	1	39
487.316	1	32
487.486	1	39
487.656	1	36
487.827	1	33
487.997	1	21
488.167	1	35
488.338	1	28
488.508	1	39
488.678	1	28
488.848	1	28
489.019	1	35
489.189	1	38
489.359	1	29
489.529	1	30
489.700	1	29
489.870	1	34
490.040	1	21
490.211	1	27
490.381	1	32
490.551	1	29
490.721	1	29
490.892	1	21
491.062	1	28
491.232	1	37
491.402	1	26
491.573	1	36
491.743	1	36
491.913	1	26
492.084	1	33
492.254	1	26
492.424	1	30
492.594	1	34
492.765	1	32
492.935	1	43
493.105	1	33
493.275	1	27
493.446	1	22
493.616	1	20
493.786	1	28
493.956	1	30
494.127	1	26
494.297	1	17
494.467	1	23
494.637	1	31
494.808	1	40
494.978	1	29
495.148	1	29
495.318	1	31
495.489	1	31
495.659	1	21
495.829	1	26
495.999	1	32
496.170	1	22
496.340	1	32
496.510	1	41
496.680	1	24
496.851	1	29
497.021	1	24
497.191	1	32
497.361	1	2
497.532	1	26
497.702	1	31
497.872	1	22
498.042	1	30
498.213	1	25
498.383	1	14
498.553	1	31
498.723	1	18
498.894	1	28
499.064	1	24
499.234	1	20
499.404	1	33
499.574	1	27
499.745	1	17
499.915	1	29
500.085	1	27
500.255	1	10
500.426	1	21
500.596	1	13
500.766	1	15
500.936	1	17
501.106	1	25
501.277	1	22
501.447	1	28
501.617	1	27
501.787	1	20
501.958	1	26
502.128	1	27
502.298	1	31
502.468	1	13
502.638	1	26
502.809	1	22
502.979	1	24
503.149	1	21
503.319	1	33
503.489	1	9
503.660	1	14
503.830	1	23
504.000	1	15
504.170	1	26
504.340	1	11
504.511	1	17
504.681	1	27
504.851	1	16
505.021	1	19
505.192	1	23
505.362	1	15
505.532	1	8
505.702	1	34
505.872	1	19
506.043	1	30
506.213	1	27
506.383	1	17
506.553	1	25
506.723	1	4
506.893	1	26
507.064	1	28
507.234	1	15
507.404	1	25
507.574	1	16
507.744	1	24
507.915	1	26
508.085	1	20
508.255	1	15
508.425	1	16
508.595	1	8
508.766	1	17
508.936	1	24
509.106	1	23
509.276	1	20
509.446	1	13
509.616	1	18
509.787	1	15
509.957	1	18
510.127	1	13
510.297	1	14
510.467	1	17
510.638	1	23
510.808	1	25
510.978	1	11
511.148	1	14
511.318	1	11
511.488	1	29
511.659	1	22
511.829	1	9
511.999	1	25
512.169	1	21
512.339	1	17
512.509	1	17
512.680	1	7
512.850	1	14
513.020	1	10
513.190	1	7
513.360	1	17
513.530	1	9
513.700	1	20
513.871	1	12
514.041	1	20
514.211	1	18
514.381	1	23
514.551	1	9
514.721	1	17
514.892	1	14
515.062	1	11
515.232	1	10
515.402	1	14
515.572	1	23
515.742	1	23
515.912	1	13
516.083	1	21
516.253	1	25
516.423	1	13
516.593	1	20
516.763	1	9
516.933	1	16
517.104	1	15
517.274	1	6
517.444	1	16
517.614	1	13
517.784	1	23
517.954	1	16
518.124	1	20
518.294	1	22
518.465	1	13
518.635	1	16
518.805	1	13
518.975	1	17
519.145	1	8
519.315	1	20
519.485	1	10
519.656	1	8
519.826	1	8
519.996	1	14
520.166	1	18
520.336	1	15
520.506	1	11
520.676	1	20
520.846	1	14
521.017	1	10
521.187	1	18
521.357	1	13
521.527	1	16
521.697	1	2
521.867	1	7
522.037	1	10
522.207	1	14
522.377	1	31
522.548	1	-1
522.718	1	19
522.888	1	21
523.058	1	15
523.228	1	6
523.398	1	12
523.568	1	3
523.738	1	14
523.909	1	20
524.079	1	13
524.249	1	4
524.419	1	14
524.589	1	13
524.759	1	22
524.929	1	8
525.099	1	16
525.269	1	10
525.439	1	18
525.610	1	18
525.780	1	23
525.950	1	15
526.120	1	2
526.290	1	10
526.460	1	8
526.630	1	13
526.800	1	12
526.970	1	15
527.140	1	11
527.311	1	19
527.481	1	16
527.651	1	20
527.821	1	8
527.991	1	17
528.161	1	13
528.331	1	7
528.501	1	13
528.671	1	17
528.841	1	15
529.011	1	18
529.181	1	14
529.352	1	16
529.522	1	3
529.692	1	7
529.862	1	9
530.032	1	1
530.202	1	1
530.372	1	8
530.542	1	9
530.712	1	11
530.882	1	11
531.052	1	16
531.222	1	10
531.392	1	12
531.563	1	17
531.733	1	10
531.903	1	6
532.073	1	12
532.243	1	25
532.413	1	20
532.583	1	10
532.753	1	8
532.923	1	18
533.093	1	5
533.263	1	11
533.433	1	-5
533.603	1	4
533.773	1	13
533.943	1	6
534.113	1	17
534.284	1	10
534.454	1	15
534.624	1	6
534.794	1	4
534.964	1	10
535.134	1	6
535.304	1	11
535.474	1	16
535.644	1	20
535.814	1	12
535.984	1	13
536.154	1	14
536.324	1	13
536.494	1	17
536.664	1	4
536.834	1	8
537.004	1	14
537.174	1	16
537.344	1	12
537.514	1	2
537.685	1	19
537.855	1	9
538.025	1	16
538.195	1	3
538.365	1	10
538.535	1	5
538.705	1	7
538.875	1	19
539.045	1	13
539.215	1	0
539.385	1	14
539.555	1	4
539.725	1	12
539.895	1	7
540.065	1	12
540.235	1	8
540.405	1	10
540.575	1	17
540.745	1	9
540.915	1	6
541.085	1	2
541.255	1	4
541.425	1	8
541.595	1	8
541.765	1	10
541.935	1	3
542.105	1	12
542.275	1	2
542.445	1	10
542.615	1	8
542.785	1	9
542.955	1	26
543.125	1	10
543.295	1	16
543.465	1	18
543.635	1	2
543.805	1	5
543.975	1	4
544.145	1	11
544.315	1	11
544.485	1	4
544.655	1	14
544.825	1	5
544.995	1	5
545.165	1	11
545.335	1	12
545.505	1	3
545.675	1	14
545.845	1	19
546.015	1	7
546.185	1	4
546.355	1	0
546.525	1	15
546.695	1	-2
546.865	1	13
547.035	1	13
547.205	1	21
547.375	1	14
547.545	1	11
547.715	1	6
547.885	1	11
548.055	1	13
548.225	1	7
548.395	1	8
548.565	1	19
548.735	1	8
548.905	1	16
549.075	1	6
549.245	1	12
549.415	1	19
549.585	1	4
549.755	1	12
549.925	1	9
550.095	1	4
550.265	1	5
550.435	1	6
550.605	1	6
550.775	1	2
550.945	1	12
551.115	1	10
551.285	1	5
551.455	1	19
551.625	1	6
551.795	1	2
551.965	1	1
552.135	1	0
552.305	1	18
552.475	1	11
552.645	1	6
552.815	1	4
552.985	1	5
553.155	1	5
553.325	1	12
553.495	1	9
553.665	1	2
553.835	1	8
554.004	1	11
554.174	1	6
554.344	1	7
554.514	1	6
554.684	1	12
554.854	1	-5
555.024	1	11
555.194	1	14
555.364	1	9
555.534	1	4
555.704	1	8
555.874	1	2
556.044	1	6
556.214	1	7
556.384	1	14
556.554	1	5
556.724	1	9
556.894	1	6
557.064	1	3
557.234	1	7
557.404	1	9
557.573	1	0
557.743	1	10
557.913	1	1
558.083	1	11
558.253	1	4
558.423	1	7
558.593	1	13
558.763	1	3
558.933	1	1
559.103	1	1
559.273	1	16
559.443	1	4
559.613	1	9
559.783	1	10
559.953	1	-3
560.122	1	13
560.292	1	5
560.462	1	5
560.632	1	8
560.802	1	13
560.972	1	3
561.142	1	3
561.312	1	2
561.482	1	13
561.652	1	14
561.822	1	9
561.992	1	8
562.162	1	3
562.331	1	0
562.501	1	4
562.671	1	8
562.841	1	6
563.011	1	4
563.181	1	2
563.351	1	3
563.521	1	1
563.691	1	6
563.861	1	10
564.031	1	6
564.201	1	6
564.370	1	6
564.540	1	4
564.710	1	6
564.880	1	7
565.050	1	3
565.220	1	18
565.390	1	2
565.560	1	11
565.730	1	7
565.900	1	9
566.069	1	11
566.239	1	6
566.409	1	7
566.579	1	7
566.749	1	-1
566.919	1	-3
567.089	1	-5
567.259	1	19
567.429	1	-8
567.599	1	11
567.768	1	3
567.938	1	0
568.108	1	-3
568.278	1	7
568.448	1	9
568.618	1	11
568.788	1	13
568.958	1	15
569.128	1	9
569.297	1	4
569.467	1	5
569.637	1	9
569.807	1	13
569.977	1	4
570.147	1	4
570.317	1	14
570.487	1	1
570.656	1	12
570.826	1	6
570.996	1	15
571.166	1	14
571.336	1	6
571.506	1	-1
571.676	1	7
571.846	1	4
572.015	1	11
572.185	1	2
572.355	1	2
572.525	1	-1
572.695	1	9
572.865	1	14
573.035	1	10
573.205	1	1
573.374	1	-2
573.544	1	10
573.714	1	-4
573.884	1	-6
574.054	1	6
574.224	1	3
574.394	1	5
574.563	1	-11
574.733	1	8
574.903	1	7
575.073	1	7
575.243	1	5
575.413	1	-6
575.583	1	0
575.752	1	-3
575.922	1	16
576.092	1	13
576.262	1	6
576.432	1	2
576.602	1	4
576.772	1	5
576.941	1	0
577.111	1	0
577.281	1	1
577.451	1	13
577.621	1	9
577.791	1	17
577.960	1	9
578.130	1	9
578.300	1	-3
578.470	1	6
578.640	1	2
578.810	1	6
578.979	1	7
579.149	1	1
579.319	1	11
579.489	1	10
579.659	1	6
579.829	1	-3
579.998	1	-7
580.168	1	11
580.338	1	11
580.508	1	1
580.678	1	7
580.848	1	9
581.017	1	11
581.187	1	7
581.357	1	11
581.527	1	6
581.697	1	3
581.867	1	0
582.036	1	-7
582.206	1	9
582.376	1	3
582.546	1	0
582.716	1	7
582.885	1	14
583.055	1	4
583.225	1	0
583.395	1	9
583.565	1	7
583.735	1	10
583.904	1	1
584.074	1	3
584.244	1	10
584.414	1	10
584.584	1	11
584.753	1	13
584.923	1	-5
585.093	1	4
585.263	1	6
585.433	1	-3
585.602	1	7
585.772	1	10
585.942	1	3
586.112	1	10
586.282	1	7
586.451	1	13
586.621	1	4
586.791	1	-10
586.961	1	0
587.131	1	-1
587.300	1	13
587.470	1	9
587.640	1	-4
587.810	1	-5
587.980	1	5
588.149	1	6
588.319	1	11
588.489	1	11
588.659	1	6
588.829	1	-9
588.998	1	2
589.168	1	8
589.338	1	6
589.508	1	10
589.677	1	-2
589.847	1	13
590.017	1	-2
590.187	1	5
590.357	1	-1
590.526	1	3
590.696	1	3
590.866	1	-3
591.036	1	5
591.205	1	0
591.375	1	1
591.545	1	4
591.715	1	0
591.885	1	16
592.054	1	8
592.224	1	7
592.394	1	-1
592.564	1	-1
592.733	1	5
592.903	1	4
593.073	1	-3
593.243	1	11
593.412	1	-2
593.582	1	9
593.752	1	3
593.922	1	11
594.091	1	16
594.261	1	-3
594.431	1	9
594.601	1	3
594.771	1	6
594.940	1	-2
595.110	1	5
595.280	1	12
595.450	1	3
595.619	1	7
595.789	1	1
595.959	1	-4
596.129	1	2
596.298	1	4
596.468	1	7
596.638	1	13
596.808	1	-6
596.977	1	-5
597.147	1	5
597.317	1	4
597.487	1	3
597.656	1	3
597.826	1	6
597.996	1	9
598.166	1	12
598.335	1	-4
598.505	1	11
598.675	1	7
598.844	1	16
599.014	1	3
599.184	1	9
599.354	1	11
599.523	1	0
599.693	1	9
599.863	1	21
600.033	1	11
600.202	1	6
600.372	1	5
600.542	1	6
600.712	1	13
600.881	1	5
601.051	1	8
601.221	1	11
601.390	1	9
601.560	1	0
601.730	1	3
601.900	1	9
602.069	1	4
602.239	1	6
602.409	1	10
602.578	1	8
602.748	1	10
602.918	1	1
603.088	1	13
603.257	1	-6
603.427	1	14
603.597	1	7
603.767	1	6
603.936	1	5
604.106	1	3
604.276	1	4
604.445	1	3
604.615	1	3
604.785	1	6
604.954	1	7
605.124	1	6
605.294	1	1
605.464	1	1
605.633	1	-1
605.803	1	5
605.973	1	0
606.142	1	6
606.312	1	15
606.482	1	3
606.652	1	13
606.821	1	5
606.991	1	7
607.161	1	4
607.330	1	1
607.500	1	4
607.670	1	11
607.839	1	7
608.009	1	3
608.179	1	16
608.348	1	5
608.518	1	20
608.688	1	-4
608.858	1	-9
609.027	1	5
609.197	1	9
609.367	1	1
609.536	1	-6
609.706	1	13
609.876	1	16
610.045	1	16
610.215	1	14
610.385	1	9
610.554	1	-3
610.724	1	5
610.894	1	9
611.063	1	7
611.233	1	13
611.403	1	9
611.572	1	4
611.742	1	6
611.912	1	2
612.081	1	7
612.251	1	14
612.421	1	6
612.590	1	13
612.760	1	6
612.930	1	8
613.099	1	12
613.269	1	3
613.439	1	3
613.608	1	12
613.778	1	10
613.948	1	16
614.117	1	6
614.287	1	-5
614.457	1	10
614.626	1	6
614.796	1	4
614.966	1	10
615.135	1	20
615.305	1	6
615.475	1	10
615.644	1	18
615.814	1	5
615.984	1	4
616.153	1	-3
616.323	1	11
616.493	1	11
616.662	1	7
616.832	1	14
617.002	1	5
617.171	1	16
617.341	1	10
617.511	1	-5
617.680	1	0
617.850	1	6
618.019	1	7
618.189	1	20
618.359	1	6
618.528	1	13
618.698	1	5
618.868	1	1
619.037	1	3
619.207	1	2
619.377	1	4
619.546	1	12
619.716	1	3
619.885	1	13
620.055	1	0
620.225	1	7
620.394	1	8
620.564	1	5
620.734	1	7
620.903	1	-3
621.073	1	6
621.242	1	1
621.412	1	4
621.582	1	11
621.751	1	4
621.921	1	9
622.091	1	8
622.260	1	14
622.430	1	16
622.599	1	9
622.769	1	10
622.939	1	2
623.108	1	13
623.278	1	10
623.448	1	6
623.617	1	8
623.787	1	12
623.956	1	7
624.126	1	3
624.296	1	17
624.465	1	16
624.635	1	12
624.804	1	-3
624.974	1	2
625.144	1	10
625.313	1	13
625.483	1	18
625.652	1	1
625.822	1	12
625.992	1	5
626.161	1	12
626.331	1	7
626.501	1	16
626.670	1	-3
626.840	1	9
627.009	1	14
627.179	1	9
627.348	1	7
627.518	1	17
627.688	1	14
627.857	1	13
628.027	1	11
628.196	1	13
628.366	1	-4
628.536	1	5
628.705	1	12
628.875	1	0
629.044	1	2
629.214	1	13
629.384	1	7
629.553	1	-1
629.723	1	14
629.892	1	14
630.062	1	12
630.232	1	16
630.401	1	8
630.571	1	8
630.740	1	8
630.910	1	14
631.079	1	10
631.249	1	5
631.419	1	14
631.588	1	13
631.758	1	7
631.927	1	23
632.097	1	3
632.266	1	17
632.436	1	8
632.606	1	10
632.775	1	12
632.945	1	2
633.114	1	11
633.284	1	5
633.453	1	13
633.623	1	17
633.793	1	10
633.962	1	15
634.132	1	12
634.301	1	4
634.471	1	16
634.640	1	1
634.810	1	15
634.979	1	9
635.149	1	8
635.319	1	9
635.488	1	8
635.658	1	13
635.827	1	12
635.997	1	13
636.166	1	-1
636.336	1	4
636.505	1	10
636.675	1	1
636.845	1	13
637.014	1	0
637.184	1	16
637.353	1	8
637.523	1	6
637.692	1	8
637.862	1	3
638.031	1	-2
638.201	1	6
638.370	1	12
638.540	1	-4
638.710	1	-5
638.879	1	3
639.049	1	7
639.218	1	23
639.388	1	14
639.557	1	14
639.727	1	19
639.896	1	14
640.066	1	13
640.235	1	5
640.405	1	10
640.574	1	15
640.744	1	2
640.914	1	19
641.083	1	22
641.253	1	13
641.422	1	-1
641.592	1	11
641.761	1	6
641.931	1	11
642.100	1	-1
642.270	1	11
642.439	1	10
642.609	1	19
642.778	1	13
642.948	1	21
643.117	1	12
643.287	1	10
643.456	1	1
643.626	1	8
643.795	1	5
643.965	1	7
644.134	1	10
644.304	1	5
644.473	1	8
644.643	1	17
644.812	1	14
644.982	1	14
645.151	1	3
645.321	1	18
645.490	1	22
645.660	1	-1
645.829	1	0
645.999	1	4
646.168	1	22
646.338	1	3
646.507	1	16
646.677	1	10
646.846	1	15
647.016	1	9
647.185	1	13
647.355	1	20
647.524	1	-3
647.694	1	4
647.863	1	5
648.033	1	12
648.202	1	17
648.372	1	6
648.541	1	20
648.711	1	6
648.880	1	13
649.050	1	9
649.219	1	12
649.389	1	10
649.558	1	15
649.728	1	8
649.897	1	18
650.067	1	14
650.236	1	10
650.406	1	12
650.575	1	14
650.745	1	13
650.914	1	14
651.084	1	20
651.253	1	6
651.423	1	1
651.592	1	-1
651.762	1	7
651.931	1	13
652.101	1	8
652.270	1	8
652.440	1	15
652.609	1	9
652.778	1	19
652.948	1	9
653.117	1	8
653.287	1	3
653.456	1	6
653.626	1	18
653.795	1	2
653.965	1	11
654.134	1	7
654.304	1	16
654.473	1	17
654.643	1	11
654.812	1	19
654.982	1	12
655.151	1	22
655.320	1	0
655.490	1	12
655.659	1	9
655.829	1	21
655.998	1	19
656.168	1	7
656.337	1	10
656.507	1	9
656.676	1	4
656.846	1	18
657.015	1	20
657.184	1	16
657.354	1	12
657.523	1	13
657.693	1	13
657.862	1	10
658.032	1	9
658.201	1	11
658.371	1	12
658.540	1	-3
658.709	1	10
658.879	1	16
659.048	1	23
659.218	1	5
659.387	1	17
659.557	1	10
659.726	1	16
659.895	1	5
660.065	1	3
660.234	1	9
660.404	1	20
660.573	1	8
660.743	1	10
660.912	1	17
661.081	1	6
661.251	1	7
661.420	1	19
661.590	1	8
661.759	1	15
661.929	1	14
662.098	1	16
662.267	1	3
662.437	1	14
662.606	1	3
662.776	1	15
662.945	1	15
663.115	1	23
663.284	1	15
663.453	1	3
663.623	1	13
663.792	1	22
663.962	1	14
664.131	1	11
664.300	1	12
664.470	1	13
664.639	1	10
664.809	1	15
664.978	1	21
665.148	1	13
665.317	1	6
665.486	1	16
665.656	1	17
665.825	1	25
665.995	1	8
666.164	1	14
666.333	1	8
666.503	1	-1
666.672	1	9
666.842	1	11
667.011	1	22
667.180	1	5
667.350	1	14
667.519	1	13
667.689	1	16
667.858	1	10
668.027	1	10
668.197	1	0
668.366	1	16
668.536	1	6
668.705	1	6
668.874	1	17
669.044	1	23
669.213	1	11
669.382	1	14
669.552	1	21
669.721	1	3
669.891	1	3
670.060	1	17
670.229	1	17
670.399	1	13
670.568	1	21
670.738	1	14
670.907	1	23
671.076	1	6
671.246	1	19
671.415	1	21
671.584	1	11
671.754	1	6
671.923	1	10
672.093	1	19
672.262	1	8
672.431	1	16
672.601	1	9
672.770	1	18
672.939	1	13
673.109	1	14
673.278	1	10
673.448	1	13
673.617	1	21
673.786	1	5
