325.333	1	13
325.504	1	-3
325.675	1	13
325.846	1	1
326.017	1	10
326.188	1	5
326.359	1	8
326.531	1	5
326.702	1	4
326.873	1	4
327.044	1	8
327.215	1	-1
327.386	1	2
327.557	1	0
327.728	1	0
327.899	1	9
328.070	1	8
328.241	1	2
328.412	1	5
328.583	1	1
328.754	1	18
328.926	1	9
329.097	1	7
329.268	1	12
329.439	1	20
329.610	1	10
329.781	1	14
329.952	1	11
330.123	1	1
330.294	1	6
330.465	1	0
330.636	1	4
330.807	1	14
330.978	1	-2
331.149	1	8
331.320	1	14
331.492	1	0
331.663	1	12
331.834	1	12
332.005	1	13
332.176	1	13
332.347	1	-1
332.518	1	17
332.689	1	13
332.860	1	2
333.031	1	16
333.202	1	6
333.373	1	1
333.544	1	6
333.715	1	18
333.886	1	1
334.057	1	0
334.228	1	7
334.399	1	22
334.570	1	14
334.741	1	9
334.912	1	4
335.084	1	20
335.255	1	15
335.426	1	10
335.597	1	2
335.768	1	10
335.939	1	6
336.110	1	8
336.281	1	7
336.452	1	16
336.623	1	12
336.794	1	19
336.965	1	9
337.136	1	15
337.307	1	2
337.478	1	15
337.649	1	11
337.820	1	5
337.991	1	7
338.162	1	12
338.333	1	12
338.504	1	17
338.675	1	14
338.846	1	1
339.017	1	10
339.188	1	3
339.359	1	14
339.530	1	8
339.701	1	10
339.872	1	26
340.043	1	12
340.214	1	16
340.385	1	4
340.556	1	24
340.727	1	19
340.898	1	11
341.069	1	1
341.240	1	12
341.411	1	12
341.582	1	3
341.753	1	14
341.924	1	19
342.095	1	10
342.266	1	13
342.437	1	7
342.608	1	9
342.779	1	6
342.950	1	4
343.121	1	21
343.292	1	21
343.463	1	31
343.634	1	5
343.805	1	15
343.976	1	23
344.147	1	22
344.318	1	7
344.489	1	9
344.660	1	12
344.831	1	20
345.002	1	7
345.173	1	14
345.344	1	13
345.515	1	20
345.686	1	14
345.857	1	21
346.028	1	21
346.199	1	4
346.370	1	17
346.541	1	9
346.712	1	11
346.883	1	6
347.054	1	20
347.225	1	10
347.396	1	9
347.567	1	8
347.738	1	16
347.909	1	12
348.080	1	13
348.251	1	9
348.422	1	13
348.593	1	16
348.764	1	17
348.935	1	19
349.106	1	6
349.277	1	17
349.448	1	18
349.619	1	14
349.790	1	19
349.961	1	1
350.132	1	28
350.303	1	19
350.474	1	15
350.645	1	27
350.816	1	14
350.987	1	26
351.157	1	15
351.328	1	11
351.499	1	22
351.670	1	23
351.841	1	9
352.012	1	19
352.183	1	25
352.354	1	13
352.525	1	27
352.696	1	18
352.867	1	28
353.038	1	19
353.209	1	11
353.380	1	20
353.551	1	25
353.722	1	19
353.893	1	25
354.064	1	17
354.235	1	12
354.406	1	10
354.576	1	18
354.747	1	21
354.918	1	18
355.089	1	21
355.260	1	16
355.431	1	12
355.602	1	16
355.773	1	20
355.944	1	12
356.115	1	25
356.286	1	18
356.457	1	19
356.628	1	13
356.799	1	21
356.970	1	30
357.141	1	19
357.311	1	24
357.482	1	10
357.653	1	13
357.824	1	27
357.995	1	28
358.166	1	17
358.337	1	25
358.508	1	28
358.679	1	15
358.850	1	31
359.021	1	21
359.192	1	21
359.363	1	28
359.533	1	18
359.704	1	11
359.875	1	24
360.046	1	25
360.217	1	32
360.388	1	31
360.559	1	17
360.730	1	16
360.901	1	35
361.072	1	33
361.243	1	26
361.414	1	37
361.584	1	20
361.755	1	27
361.926	1	35
362.097	1	24
362.268	1	33
362.439	1	9
362.610	1	22
362.781	1	19
362.952	1	29
363.123	1	15
363.293	1	25
363.464	1	24
363.635	1	21
363.806	1	32
363.977	1	23
364.148	1	25
364.319	1	21
364.490	1	29
364.661	1	27
364.832	1	26
365.002	1	36
365.173	1	31
365.344	1	20
365.515	1	27
365.686	1	25
365.857	1	18
366.028	1	32
366.199	1	13
366.370	1	29
366.540	1	24
366.711	1	27
366.882	1	26
367.053	1	34
367.224	1	32
367.395	1	36
367.566	1	40
367.737	1	28
367.908	1	26
368.078	1	25
368.249	1	33
368.420	1	25
368.591	1	33
368.762	1	32
368.933	1	22
369.104	1	29
369.274	1	29
369.445	1	33
369.616	1	31
369.787	1	18
369.958	1	33
370.129	1	22
370.300	1	23
370.471	1	27
370.641	1	32
370.812	1	33
370.983	1	26
371.154	1	31
371.325	1	19
371.496	1	33
371.667	1	31
371.837	1	32
372.008	1	35
372.179	1	22
372.350	1	30
372.521	1	28
372.692	1	31
372.863	1	29
373.033	1	37
373.204	1	20
373.375	1	23
373.546	1	36
373.717	1	22
373.888	1	32
374.059	1	30
374.229	1	25
374.400	1	25
374.571	1	31
374.742	1	17
374.913	1	21
375.084	1	20
375.254	1	17
375.425	1	31
375.596	1	21
375.767	1	36
375.938	1	16
376.109	1	19
376.279	1	25
376.450	1	28
376.621	1	28
376.792	1	29
376.963	1	28
377.134	1	23
377.304	1	36
377.475	1	27
377.646	1	15
377.817	1	34
377.988	1	39
378.159	1	29
378.329	1	28
378.500	1	31
378.671	1	37
378.842	1	38
379.013	1	39
379.184	1	32
379.354	1	33
379.525	1	27
379.696	1	34
379.867	1	31
380.038	1	24
380.209	1	42
380.379	1	39
380.550	1	25
380.721	1	22
380.892	1	30
381.063	1	24
381.233	1	37
381.404	1	26
381.575	1	30
381.746	1	35
381.917	1	31
382.087	1	41
382.258	1	28
382.429	1	29
382.600	1	26
382.771	1	26
382.941	1	29
383.112	1	26
383.283	1	35
383.454	1	13
383.625	1	33
383.795	1	34
383.966	1	29
384.137	1	44
384.308	1	28
384.479	1	27
384.649	1	23
384.820	1	28
384.991	1	38
385.162	1	41
385.333	1	36
385.503	1	38
385.674	1	34
385.845	1	41
386.016	1	42
386.187	1	31
386.357	1	43
386.528	1	13
386.699	1	26
386.870	1	32
387.041	1	37
387.211	1	37
387.382	1	47
387.553	1	41
387.724	1	43
387.894	1	19
388.065	1	39
388.236	1	37
388.407	1	34
388.578	1	38
388.748	1	42
388.919	1	42
389.090	1	49
389.261	1	41
389.431	1	19
389.602	1	34
389.773	1	32
389.944	1	36
390.114	1	40
390.285	1	37
390.456	1	37
390.627	1	24
390.798	1	41
390.968	1	40
391.139	1	29
391.310	1	29
391.481	1	28
391.651	1	43
391.822	1	35
391.993	1	39
392.164	1	39
392.334	1	39
392.505	1	38
392.676	1	24
392.847	1	36
393.017	1	37
393.188	1	44
393.359	1	50
393.530	1	48
393.700	1	37
393.871	1	49
394.042	1	30
394.213	1	50
394.383	1	31
394.554	1	35
394.725	1	24
394.896	1	38
395.066	1	35
395.237	1	44
395.408	1	40
395.579	1	28
395.749	1	52
395.920	1	48
396.091	1	36
396.262	1	31
396.432	1	27
396.603	1	31
396.774	1	35
396.945	1	45
397.115	1	46
397.286	1	43
397.457	1	38
397.627	1	32
397.798	1	41
397.969	1	38
398.140	1	38
398.310	1	33
398.481	1	40
398.652	1	45
398.823	1	31
398.993	1	41
399.164	1	52
399.335	1	37
399.505	1	31
399.676	1	32
399.847	1	36
400.018	1	30
400.188	1	45
400.359	1	41
400.530	1	41
400.700	1	37
400.871	1	43
401.042	1	41
401.213	1	44
401.383	1	43
401.554	1	40
401.725	1	32
401.895	1	29
402.066	1	48
402.237	1	32
402.408	1	36
402.578	1	46
402.749	1	32
402.920	1	47
403.090	1	42
403.261	1	40
403.432	1	40
403.603	1	51
403.773	1	43
403.944	1	27
404.115	1	38
404.285	1	43
404.456	1	55
404.627	1	41
404.797	1	39
404.968	1	51
405.139	1	35
405.310	1	35
405.480	1	40
405.651	1	41
405.822	1	42
405.992	1	50
406.163	1	36
406.334	1	44
406.504	1	34
406.675	1	33
406.846	1	44
407.016	1	53
407.187	1	44
407.358	1	27
407.528	1	44
407.699	1	46
407.870	1	47
408.041	1	34
408.211	1	48
408.382	1	44
408.553	1	49
408.723	1	40
408.894	1	46
409.065	1	50
409.235	1	41
409.406	1	43
409.577	1	47
409.747	1	39
409.918	1	50
410.089	1	40
410.259	1	43
410.430	1	39
410.601	1	52
410.771	1	49
410.942	1	44
411.113	1	52
411.283	1	46
411.454	1	55
411.625	1	42
411.795	1	50
411.966	1	39
412.137	1	50
412.307	1	41
412.478	1	45
412.649	1	45
412.819	1	38
412.990	1	35
413.161	1	41
413.331	1	46
413.502	1	40
413.672	1	40
413.843	1	44
414.014	1	51
414.184	1	48
414.355	1	39
414.526	1	34
414.696	1	42
414.867	1	29
415.038	1	32
415.208	1	27
415.379	1	35
415.550	1	46
415.720	1	38
415.891	1	50
416.062	1	52
416.232	1	55
416.403	1	40
416.573	1	38
416.744	1	50
416.915	1	36
417.085	1	41
417.256	1	40
417.427	1	40
417.597	1	36
417.768	1	44
417.939	1	36
418.109	1	40
418.280	1	45
418.450	1	46
418.621	1	47
418.792	1	38
418.962	1	43
419.133	1	39
419.304	1	40
419.474	1	47
419.645	1	44
419.815	1	52
419.986	1	51
420.157	1	37
420.327	1	31
420.498	1	46
420.669	1	50
420.839	1	39
421.010	1	46
421.180	1	34
421.351	1	50
421.522	1	47
421.692	1	48
421.863	1	38
422.033	1	52
422.204	1	51
422.375	1	51
422.545	1	41
422.716	1	28
422.886	1	46
423.057	1	49
423.228	1	30
423.398	1	51
423.569	1	42
423.740	1	41
423.910	1	41
424.081	1	52
424.251	1	42
424.422	1	45
424.593	1	42
424.763	1	45
424.934	1	46
425.104	1	55
425.275	1	44
425.445	1	45
425.616	1	39
425.787	1	45
425.957	1	35
426.128	1	32
426.298	1	39
426.469	1	28
426.640	1	35
426.810	1	21
426.981	1	48
427.151	1	34
427.322	1	32
427.493	1	46
427.663	1	38
427.834	1	34
428.004	1	42
428.175	1	37
428.345	1	33
428.516	1	35
428.687	1	46
428.857	1	50
429.028	1	41
429.198	1	39
429.369	1	45
429.540	1	41
429.710	1	34
429.881	1	36
430.051	1	31
430.222	1	38
430.392	1	39
430.563	1	38
430.734	1	42
430.904	1	32
431.075	1	35
431.245	1	36
431.416	1	46
431.586	1	32
431.757	1	44
431.927	1	42
432.098	1	44
432.269	1	40
432.439	1	32
432.610	1	40
432.780	1	39
432.951	1	44
433.121	1	35
433.292	1	46
433.462	1	40
433.633	1	38
433.804	1	37
433.974	1	37
434.145	1	44
434.315	1	40
434.486	1	32
434.656	1	43
434.827	1	42
434.997	1	40
435.168	1	40
435.339	1	45
435.509	1	32
435.680	1	46
435.850	1	34
436.021	1	34
436.191	1	33
436.362	1	43
436.532	1	45
436.703	1	44
436.873	1	40
437.044	1	43
437.214	1	31
437.385	1	38
437.556	1	39
437.726	1	39
437.897	1	33
438.067	1	38
438.238	1	38
438.408	1	43
438.579	1	34
438.749	1	32
438.920	1	53
439.090	1	32
439.261	1	32
439.431	1	12
439.602	1	43
439.772	1	32
439.943	1	27
440.113	1	35
440.284	1	38
440.455	1	34
440.625	1	40
440.796	1	35
440.966	1	39
441.137	1	46
441.307	1	39
441.478	1	33
441.648	1	28
441.819	1	36
441.989	1	54
442.160	1	36
442.330	1	36
442.501	1	37
442.671	1	31
442.842	1	33
443.012	1	29
443.183	1	32
443.353	1	36
443.524	1	26
443.694	1	33
443.865	1	39
444.035	1	37
444.206	1	32
444.376	1	48
444.547	1	37
444.717	1	27
444.888	1	18
445.058	1	34
445.229	1	33
445.399	1	39
445.570	1	33
445.740	1	37
445.911	1	42
446.081	1	33
446.252	1	26
446.422	1	40
446.593	1	29
446.763	1	36
446.934	1	32
447.104	1	35
447.275	1	39
447.445	1	27
447.616	1	26
447.786	1	29
447.957	1	29
448.127	1	34
448.298	1	41
448.468	1	34
448.639	1	26
448.809	1	38
448.979	1	40
449.150	1	23
449.320	1	42
449.491	1	28
449.661	1	20
449.832	1	23
450.002	1	29
450.173	1	37
450.343	1	31
450.514	1	26
450.684	1	28
450.855	1	42
451.025	1	33
451.196	1	30
451.366	1	44
451.537	1	40
451.707	1	35
451.878	1	22
452.048	1	18
452.218	1	26
452.389	1	31
452.559	1	47
452.730	1	37
452.900	1	25
453.071	1	31
453.241	1	26
453.412	1	30
453.582	1	35
453.753	1	38
453.923	1	30
454.093	1	37
454.264	1	41
454.434	1	38
454.605	1	24
454.775	1	36
454.946	1	31
455.116	1	36
455.287	1	25
455.457	1	31
455.628	1	26
455.798	1	35
455.968	1	26
456.139	1	36
456.309	1	27
456.480	1	32
456.650	1	25
456.821	1	34
456.991	1	32
457.161	1	37
457.332	1	38
457.502	1	31
457.673	1	25
457.843	1	30
458.014	1	20
458.184	1	40
458.355	1	29
458.525	1	23
458.695	1	27
458.866	1	28
459.036	1	26
459.207	1	30
459.377	1	31
459.548	1	29
459.718	1	31
459.888	1	18
460.059	1	41
460.229	1	21
460.400	1	28
460.570	1	20
460.740	1	38
460.911	1	25
461.081	1	29
461.252	1	32
461.422	1	32
461.593	1	30
461.763	1	23
461.933	1	28
462.104	1	14
462.274	1	18
462.445	1	25
462.615	1	23
462.785	1	27
462.956	1	32
463.126	1	22
463.297	1	26
463.467	1	30
463.638	1	28
463.808	1	31
463.978	1	7
464.149	1	26
464.319	1	38
464.490	1	19
464.660	1	23
464.830	1	29
465.001	1	20
465.171	1	19
465.342	1	24
465.512	1	24
465.682	1	18
465.853	1	21
466.023	1	25
466.194	1	32
466.364	1	27
466.534	1	9
466.705	1	32
466.875	1	5
467.045	1	21
467.216	1	18
467.386	1	12
467.557	1	30
467.727	1	14
467.897	1	14
468.068	1	13
468.238	1	18
468.409	1	16
468.579	1	21
468.749	1	15
468.920	1	9
469.090	1	27
469.260	1	23
469.431	1	14
469.601	1	29
469.772	1	31
469.942	1	18
470.112	1	21
470.283	1	14
470.453	1	20
470.623	1	29
470.794	1	9
470.964	1	17
471.135	1	27
471.305	1	20
471.475	1	35
471.646	1	22
471.816	1	22
471.986	1	20
472.157	1	16
472.327	1	22
472.497	1	12
472.668	1	18
472.838	1	19
473.009	1	25
473.179	1	7
473.349	1	16
473.520	1	33
473.690	1	15
473.860	1	11
474.031	1	9
474.201	1	17
474.371	1	26
474.542	1	6
474.712	1	17
474.882	1	22
475.053	1	29
475.223	1	24
475.394	1	18
475.564	1	28
475.734	1	13
475.905	1	23
476.075	1	33
476.245	1	14
476.416	1	20
476.586	1	29
476.756	1	16
476.927	1	20
477.097	1	18
477.267	1	21
477.438	1	22
477.608	1	29
477.778	1	12
477.949	1	9
478.119	1	24
478.289	1	9
478.460	1	20
478.630	1	19
478.800	1	20
478.971	1	25
479.141	1	16
479.311	1	20
479.482	1	18
479.652	1	18
479.822	1	4
479.993	1	13
480.163	1	25
480.333	1	22
480.504	1	22
480.674	1	26
480.844	1	15
481.015	1	23
481.185	1	29
481.355	1	24
481.525	1	11
481.696	1	10
481.866	1	19
482.036	1	24
482.207	1	28
482.377	1	11
482.547	1	19
482.718	1	29
482.888	1	24
483.058	1	17
483.229	1	21
483.399	1	16
483.569	1	18
483.740	1	8
483.910	1	10
484.080	1	22
484.250	1	7
484.421	1	14
484.591	1	17
484.761	1	24
484.932	1	3
485.102	1	20
485.272	1	8
485.443	1	21
485.613	1	10
485.783	1	20
485.953	1	5
486.124	1	17
486.294	1	19
486.464	1	27
486.635	1	12
486.805	1	16
486.975	1	4
487.146	1	25
487.316	1	23
487.486	1	37
487.656	1	17
487.827	1	24
487.997	1	17
488.167	1	14
488.338	1	19
488.508	1	17
488.678	1	9
488.848	1	16
489.019	1	17
489.189	1	22
489.359	1	6
489.529	1	12
489.700	1	9
489.870	1	21
490.040	1	9
490.211	1	10
490.381	1	10
490.551	1	18
490.721	1	19
490.892	1	12
491.062	1	19
491.232	1	13
491.402	1	6
491.573	1	20
491.743	1	12
491.913	1	14
492.084	1	14
492.254	1	15
492.424	1	5
492.594	1	17
492.765	1	20
492.935	1	15
493.105	1	7
493.275	1	15
493.446	1	-1
493.616	1	10
493.786	1	14
493.956	1	9
494.127	1	9
494.297	1	8
494.467	1	16
494.637	1	18
494.808	1	17
494.978	1	22
495.148	1	12
495.318	1	14
495.489	1	6
495.659	1	6
495.829	1	9
495.999	1	6
496.170	1	19
496.340	1	17
496.510	1	18
496.680	1	8
496.851	1	18
497.021	1	16
497.191	1	6
497.361	1	2
497.532	1	19
497.702	1	20
497.872	1	10
498.042	1	10
498.213	1	7
498.383	1	11
498.553	1	7
498.723	1	5
498.894	1	8
499.064	1	7
499.234	1	9
499.404	1	16
499.574	1	24
499.745	1	7
499.915	1	15
500.085	1	9
500.255	1	-2
500.426	1	7
500.596	1	5
500.766	1	6
500.936	1	7
501.106	1	3
501.277	1	0
501.447	1	16
501.617	1	15
501.787	1	2
501.958	1	25
502.128	1	6
502.298	1	8
502.468	1	7
502.638	1	15
502.809	1	1
502.979	1	13
503.149	1	6
503.319	1	13
503.489	1	-3
503.660	1	3
503.830	1	17
504.000	1	17
504.170	1	3
504.340	1	7
504.511	1	6
504.681	1	5
504.851	1	10
505.021	1	14
505.192	1	4
505.362	1	11
505.532	1	8
505.702	1	18
505.872	1	13
506.043	1	19
506.213	1	20
506.383	1	14
506.553	1	12
506.723	1	1
506.893	1	7
507.064	1	11
507.234	1	3
507.404	1	6
507.574	1	-1
507.744	1	9
507.915	1	11
508.085	1	0
508.255	1	14
508.425	1	19
508.595	1	3
508.766	1	5
508.936	1	16
509.106	1	2
509.276	1	10
509.446	1	7
509.616	1	6
509.787	1	5
509.957	1	13
510.127	1	-2
510.297	1	-3
510.467	1	5
510.638	1	14
510.808	1	15
510.978	1	-1
511.148	1	10
511.318	1	13
511.488	1	8
511.659	1	11
511.829	1	3
511.999	1	17
512.169	1	17
512.339	1	14
512.509	1	0
512.680	1	4
512.850	1	19
513.020	1	12
513.190	1	-1
513.360	1	11
513.530	1	13
513.700	1	12
513.871	1	-4
514.041	1	7
514.211	1	9
514.381	1	19
514.551	1	2
514.721	1	3
514.892	1	2
515.062	1	3
515.232	1	-2
515.402	1	9
515.572	1	13
515.742	1	10
515.912	1	7
516.083	1	17
516.253	1	0
516.423	1	-2
516.593	1	6
516.763	1	6
516.933	1	3
517.104	1	10
517.274	1	0
517.444	1	12
517.614	1	4
517.784	1	6
517.954	1	3
518.124	1	9
518.294	1	12
518.465	1	-3
518.635	1	15
518.805	1	8
518.975	1	7
519.145	1	14
519.315	1	5
519.485	1	1
519.656	1	3
519.826	1	2
519.996	1	11
520.166	1	6
520.336	1	5
520.506	1	13
520.676	1	11
520.846	1	3
521.017	1	5
521.187	1	9
521.357	1	6
521.527	1	3
521.697	1	-2
521.867	1	11
522.037	1	3
522.207	1	16
522.377	1	14
522.548	1	-9
522.718	1	8
522.888	1	8
523.058	1	11
523.228	1	-4
523.398	1	-1
523.568	1	3
523.738	1	3
523.909	1	2
524.079	1	1
524.249	1	5
524.419	1	6
524.589	1	11
524.759	1	18
524.929	1	10
525.099	1	5
525.269	1	10
525.439	1	1
525.610	1	8
525.780	1	13
525.950	1	3
526.120	1	3
526.290	1	-1
526.460	1	6
526.630	1	6
526.800	1	5
526.970	1	16
527.140	1	-2
527.311	1	6
527.481	1	11
527.651	1	4
527.821	1	-1
527.991	1	-7
528.161	1	14
528.331	1	-3
528.501	1	5
528.671	1	12
528.841	1	9
529.011	1	11
529.181	1	5
529.352	1	5
529.522	1	9
529.692	1	8
529.862	1	1
530.032	1	-5
530.202	1	6
530.372	1	5
530.542	1	4
530.712	1	0
530.882	1	12
531.052	1	10
531.222	1	5
531.392	1	6
531.563	1	1
531.733	1	7
531.903	1	6
532.073	1	3
532.243	1	17
532.413	1	12
532.583	1	11
532.753	1	-6
532.923	1	10
533.093	1	-4
533.263	1	5
533.433	1	-5
533.603	1	1
533.773	1	2
533.943	1	7
534.113	1	4
534.284	1	7
534.454	1	-1
534.624	1	4
534.794	1	3
534.964	1	5
535.134	1	-7
535.304	1	0
535.474	1	4
535.644	1	1
535.814	1	9
535.984	1	-3
536.154	1	9
536.324	1	9
536.494	1	12
536.664	1	4
536.834	1	0
537.004	1	-2
537.174	1	11
537.344	1	15
537.514	1	-4
537.685	1	6
537.855	1	7
538.025	1	15
538.195	1	7
538.365	1	10
538.535	1	-4
538.705	1	2
538.875	1	9
539.045	1	5
539.215	1	-7
539.385	1	-2
539.555	1	2
539.725	1	3
539.895	1	7
540.065	1	5
540.235	1	9
540.405	1	5
540.575	1	-1
540.745	1	0
540.915	1	10
541.085	1	-9
541.255	1	0
541.425	1	10
541.595	1	2
541.765	1	9
541.935	1	7
542.105	1	3
542.275	1	3
542.445	1	5
542.615	1	-1
542.785	1	-4
542.955	1	6
543.125	1	4
543.295	1	5
543.465	1	19
543.635	1	-7
543.805	1	13
543.975	1	-8
544.145	1	10
544.315	1	-5
544.485	1	5
544.655	1	9
544.825	1	1
544.995	1	1
545.165	1	2
545.335	1	2
545.505	1	2
545.675	1	3
545.845	1	6
546.015	1	4
546.185	1	0
546.355	1	1
546.525	1	17
546.695	1	2
546.865	1	4
547.035	1	2
547.205	1	11
547.375	1	13
547.545	1	7
547.715	1	2
547.885	1	-4
548.055	1	8
548.225	1	5
548.395	1	4
548.565	1	13
548.735	1	0
548.905	1	10
549.075	1	8
549.245	1	-1
549.415	1	6
549.585	1	0
549.755	1	12
549.925	1	5
550.095	1	7
550.265	1	1
550.435	1	5
550.605	1	8
550.775	1	-8
550.945	1	2
551.115	1	8
551.285	1	4
551.455	1	3
551.625	1	7
551.795	1	12
551.965	1	-2
552.135	1	-4
552.305	1	5
552.475	1	4
552.645	1	7
552.815	1	4
552.985	1	-5
553.155	1	1
553.325	1	5
553.495	1	8
553.665	1	1
553.835	1	2
554.004	1	-2
554.174	1	3
554.344	1	4
554.514	1	4
554.684	1	14
554.854	1	-8
555.024	1	8
555.194	1	0
555.364	1	11
555.534	1	0
555.704	1	0
555.874	1	10
556.044	1	5
556.214	1	-4
556.384	1	17
556.554	1	7
556.724	1	4
556.894	1	-4
557.064	1	-1
557.234	1	-1
557.404	1	6
557.573	1	4
557.743	1	1
557.913	1	4
558.083	1	-5
558.253	1	-2
558.423	1	0
558.593	1	8
558.763	1	0
558.933	1	5
559.103	1	0
559.273	1	13
559.443	1	0
559.613	1	3
559.783	1	-4
559.953	1	-4
560.122	1	-3
560.292	1	-2
560.462	1	4
560.632	1	-3
560.802	1	6
560.972	1	-1
561.142	1	7
561.312	1	-3
561.482	1	0
561.652	1	9
561.822	1	0
561.992	1	6
562.162	1	0
562.331	1	-2
562.501	1	2
562.671	1	1
562.841	1	-10
563.011	1	8
563.181	1	-9
563.351	1	-1
563.521	1	-1
563.691	1	9
563.861	1	0
564.031	1	0
564.201	1	3
564.370	1	1
564.540	1	6
564.710	1	1
564.880	1	0
565.050	1	7
565.220	1	16
565.390	1	-2
565.560	1	6
565.730	1	7
565.900	1	9
566.069	1	14
566.239	1	14
566.409	1	5
566.579	1	5
566.749	1	0
566.919	1	-3
567.089	1	-3
567.259	1	10
567.429	1	-4
567.599	1	14
567.768	1	-1
567.938	1	3
568.108	1	3
568.278	1	1
568.448	1	-7
568.618	1	2
568.788	1	3
568.958	1	3
569.128	1	4
569.297	1	-1
569.467	1	5
569.637	1	4
569.807	1	7
569.977	1	-2
570.147	1	6
570.317	1	0
570.487	1	0
570.656	1	10
570.826	1	1
570.996	1	12
571.166	1	2
571.336	1	0
571.506	1	-9
571.676	1	5
571.846	1	9
572.015	1	5
572.185	1	15
572.355	1	-6
572.525	1	-1
572.695	1	1
572.865	1	13
573.035	1	2
573.205	1	-5
573.374	1	2
573.544	1	7
573.714	1	4
573.884	1	-3
574.054	1	5
574.224	1	11
574.394	1	3
574.563	1	-6
574.733	1	15
574.903	1	-2
575.073	1	4
575.243	1	1
575.413	1	-1
575.583	1	0
575.752	1	-1
575.922	1	10
576.092	1	-3
576.262	1	2
576.432	1	1
576.602	1	2
576.772	1	-2
576.941	1	0
577.111	1	3
577.281	1	2
577.451	1	3
577.621	1	10
577.791	1	9
577.960	1	-1
578.130	1	1
578.300	1	-3
578.470	1	5
578.640	1	0
578.810	1	3
578.979	1	5
579.149	1	5
579.319	1	0
579.489	1	5
579.659	1	-3
579.829	1	4
579.998	1	-5
580.168	1	-5
580.338	1	0
580.508	1	0
580.678	1	8
580.848	1	1
581.017	1	-5
581.187	1	4
581.357	1	7
581.527	1	0
581.697	1	2
581.867	1	6
582.036	1	-6
582.206	1	6
582.376	1	-3
582.546	1	3
582.716	1	1
582.885	1	-2
583.055	1	-9
583.225	1	4
583.395	1	10
583.565	1	-1
583.735	1	0
583.904	1	-4
584.074	1	10
584.244	1	-5
584.414	1	-4
584.584	1	0
584.753	1	3
584.923	1	5
585.093	1	2
585.263	1	3
585.433	1	-2
585.602	1	6
585.772	1	12
585.942	1	-4
586.112	1	-1
586.282	1	1
586.451	1	11
586.621	1	2
586.791	1	-7
586.961	1	-4
587.131	1	-7
587.300	1	7
587.470	1	-5
587.640	1	-4
587.810	1	-10
587.980	1	7
588.149	1	3
588.319	1	16
588.489	1	4
588.659	1	-12
588.829	1	8
588.998	1	2
589.168	1	0
589.338	1	3
589.508	1	5
589.677	1	4
589.847	1	12
590.017	1	1
590.187	1	2
590.357	1	-2
590.526	1	-11
590.696	1	1
590.866	1	-8
591.036	1	7
591.205	1	6
591.375	1	4
591.545	1	3
591.715	1	8
591.885	1	9
592.054	1	8
592.224	1	4
592.394	1	-9
592.564	1	9
592.733	1	2
592.903	1	2
593.073	1	-4
593.243	1	18
593.412	1	-4
593.582	1	11
593.752	1	2
593.922	1	2
594.091	1	2
594.261	1	-9
594.431	1	7
594.601	1	-2
594.771	1	8
594.940	1	1
595.110	1	0
595.280	1	5
595.450	1	1
595.619	1	12
595.789	1	-9
595.959	1	-5
596.129	1	-7
596.298	1	15
596.468	1	0
596.638	1	5
596.808	1	-13
596.977	1	7
597.147	1	-7
597.317	1	15
597.487	1	6
597.656	1	1
597.826	1	4
597.996	1	-3
598.166	1	7
598.335	1	-4
598.505	1	7
598.675	1	4
598.844	1	14
599.014	1	-7
599.184	1	3
599.354	1	9
599.523	1	-2
599.693	1	-5
599.863	1	11
600.033	1	4
600.202	1	7
600.372	1	-11
600.542	1	6
600.712	1	-1
600.881	1	3
601.051	1	-2
601.221	1	1
601.390	1	2
601.560	1	8
601.730	1	-6
601.900	1	6
602.069	1	0
602.239	1	7
602.409	1	0
602.578	1	8
602.748	1	10
602.918	1	-5
603.088	1	11
603.257	1	0
603.427	1	13
603.597	1	4
603.767	1	7
603.936	1	8
604.106	1	-2
604.276	1	3
604.445	1	-6
604.615	1	2
604.785	1	7
604.954	1	8
605.124	1	0
605.294	1	4
605.464	1	-1
605.633	1	3
605.803	1	0
605.973	1	4
606.142	1	11
606.312	1	13
606.482	1	-4
606.652	1	2
606.821	1	-3
606.991	1	5
607.161	1	2
607.330	1	-1
607.500	1	7
607.670	1	1
607.839	1	4
608.009	1	0
608.179	1	5
608.348	1	7
608.518	1	5
608.688	1	-5
608.858	1	5
609.027	1	8
609.197	1	13
609.367	1	-1
609.536	1	-2
609.706	1	13
609.876	1	5
610.045	1	0
610.215	1	1
610.385	1	-1
610.554	1	-1
610.724	1	-3
610.894	1	8
611.063	1	13
611.233	1	9
611.403	1	6
611.572	1	4
611.742	1	2
611.912	1	7
612.081	1	10
612.251	1	-2
612.421	1	4
612.590	1	-5
612.760	1	6
612.930	1	8
613.099	1	5
613.269	1	-9
613.439	1	-9
613.608	1	5
613.778	1	9
613.948	1	12
614.117	1	-5
614.287	1	-2
614.457	1	7
614.626	1	4
614.796	1	11
614.966	1	-1
615.135	1	4
615.305	1	4
615.475	1	3
615.644	1	11
615.814	1	11
615.984	1	-2
616.153	1	6
616.323	1	1
616.493	1	5
616.662	1	-1
616.832	1	2
617.002	1	2
617.171	1	19
617.341	1	6
617.511	1	0
617.680	1	-3
617.850	1	4
618.019	1	7
618.189	1	7
618.359	1	4
618.528	1	0
618.698	1	2
618.868	1	1
619.037	1	10
619.207	1	-4
619.377	1	6
619.546	1	9
619.716	1	8
619.885	1	7
620.055	1	-4
620.225	1	3
620.394	1	6
620.564	1	8
620.734	1	-2
620.903	1	-4
621.073	1	6
621.242	1	-1
621.412	1	10
621.582	1	15
621.751	1	-4
621.921	1	1
622.091	1	6
622.260	1	6
622.430	1	5
622.599	1	-2
622.769	1	5
622.939	1	4
623.108	1	3
623.278	1	4
623.448	1	10
623.617	1	8
623.787	1	0
623.956	1	4
624.126	1	3
624.296	1	11
624.465	1	6
624.635	1	5
624.804	1	-7
624.974	1	-6
625.144	1	8
625.313	1	21
625.483	1	16
625.652	1	-4
625.822	1	8
625.992	1	1
626.161	1	7
626.331	1	1
626.501	1	4
626.670	1	-4
626.840	1	9
627.009	1	3
627.179	1	6
627.348	1	-2
627.518	1	15
627.688	1	0
627.857	1	10
628.027	1	6
628.196	1	7
628.366	1	-7
628.536	1	6
628.705	1	-3
628.875	1	3
629.044	1	2
629.214	1	8
629.384	1	12
629.553	1	-10
629.723	1	7
629.892	1	10
630.062	1	8
630.232	1	8
630.401	1	9
630.571	1	-7
630.740	1	-1
630.910	1	2
631.079	1	2
631.249	1	6
631.419	1	3
631.588	1	2
631.758	1	-10
631.927	1	12
632.097	1	-5
632.266	1	17
632.436	1	2
632.606	1	4
632.775	1	10
632.945	1	0
633.114	1	-5
633.284	1	3
633.453	1	4
633.623	1	18
633.793	1	1
633.962	1	5
634.132	1	8
634.301	1	4
634.471	1	-1
634.640	1	0
634.810	1	14
634.979	1	8
635.149	1	-1
635.319	1	-3
635.488	1	8
635.658	1	-5
635.827	1	4
635.997	1	1
636.166	1	6
636.336	1	0
636.505	1	7
636.675	1	10
636.845	1	5
637.014	1	-4
637.184	1	11
637.353	1	6
637.523	1	8
637.692	1	6
637.862	1	1
638.031	1	-2
638.201	1	10
638.370	1	10
638.540	1	-10
638.710	1	-5
638.879	1	-4
639.049	1	4
639.218	1	6
639.388	1	5
639.557	1	5
639.727	1	11
639.896	1	-4
640.066	1	3
640.235	1	10
640.405	1	5
640.574	1	8
640.744	1	6
640.914	1	3
641.083	1	3
641.253	1	4
641.422	1	-1
641.592	1	12
641.761	1	8
641.931	1	10
642.100	1	8
642.270	1	5
642.439	1	2
642.609	1	11
642.778	1	10
642.948	1	11
643.117	1	2
643.287	1	11
643.456	1	12
643.626	1	6
643.795	1	-2
643.965	1	2
644.134	1	-2
644.304	1	-4
644.473	1	-4
644.643	1	3
644.812	1	4
644.982	1	8
645.151	1	-1
645.321	1	11
645.490	1	9
645.660	1	1
645.829	1	2
645.999	1	8
646.168	1	14
646.338	1	-6
646.507	1	-4
646.677	1	16
646.846	1	-3
647.016	1	5
647.185	1	5
647.355	1	11
647.524	1	0
647.694	1	3
647.863	1	-3
648.033	1	-2
648.202	1	12
648.372	1	-3
648.541	1	13
648.711	1	16
648.880	1	9
649.050	1	8
649.219	1	12
649.389	1	-3
649.558	1	2
649.728	1	2
649.897	1	6
650.067	1	14
650.236	1	0
650.406	1	2
650.575	1	13
650.745	1	4
650.914	1	3
651.084	1	8
651.253	1	-3
651.423	1	-7
651.592	1	2
651.762	1	13
651.931	1	12
652.101	1	9
652.270	1	1
652.440	1	12
652.609	1	14
652.778	1	10
652.948	1	1
653.117	1	7
653.287	1	-3
653.456	1	7
653.626	1	3
653.795	1	-5
653.965	1	7
654.134	1	8
654.304	1	9
654.473	1	10
654.643	1	-1
654.812	1	9
654.982	1	8
655.151	1	15
655.320	1	8
655.490	1	0
655.659	1	13
655.829	1	13
655.998	1	8
656.168	1	5
656.337	1	9
656.507	1	-6
656.676	1	0
656.846	1	4
657.015	1	13
657.184	1	4
657.354	1	10
657.523	1	0
657.693	1	11
657.862	1	-4
658.032	1	2
658.201	1	-5
658.371	1	0
658.540	1	3
658.709	1	15
658.879	1	12
659.048	1	8
659.218	1	9
659.387	1	6
659.557	1	3
659.726	1	4
659.895	1	8
660.065	1	-4
660.234	1	3
660.404	1	5
660.573	1	1
660.743	1	12
660.912	1	4
661.081	1	4
661.251	1	-9
661.420	1	11
661.590	1	3
661.759	1	14
661.929	1	7
662.098	1	2
662.267	1	0
662.437	1	8
662.606	1	1
662.776	1	10
662.945	1	2
663.115	1	9
663.284	1	9
663.453	1	0
663.623	1	5
663.792	1	7
663.962	1	14
664.131	1	3
664.300	1	7
664.470	1	1
664.639	1	-2
664.809	1	3
664.978	1	15
665.148	1	7
665.317	1	4
665.486	1	9
665.656	1	11
665.825	1	4
665.995	1	-6
666.164	1	11
666.333	1	4
666.503	1	-5
666.672	1	4
666.842	1	12
667.011	1	6
667.180	1	2
667.350	1	11
667.519	1	10
667.689	1	4
667.858	1	5
668.027	1	-4
668.197	1	-1
668.366	1	9
668.536	1	-1
668.705	1	4
668.874	1	9
669.044	1	6
669.213	1	15
669.382	1	14
669.552	1	9
669.721	1	4
669.891	1	-1
670.060	1	9
670.229	1	14
670.399	1	9
670.568	1	10
670.738	1	6
670.907	1	8
671.076	1	13
671.246	1	9
671.415	1	14
671.584	1	2
671.754	1	-6
671.923	1	4
672.093	1	11
672.262	1	8
672.431	1	10
672.601	1	11
672.770	1	9
672.939	1	9
673.109	1	7
673.278	1	4
673.448	1	3
673.617	1	18
673.786	1	-4
