325.333	1	8
325.504	1	-5
325.675	1	5
325.846	1	-1
326.017	1	0
326.188	1	-4
326.359	1	6
326.531	1	-5
326.702	1	-3
326.873	1	4
327.044	1	0
327.215	1	-1
327.386	1	-9
327.557	1	-1
327.728	1	-5
327.899	1	1
328.070	1	10
328.241	1	1
328.412	1	2
328.583	1	-1
328.754	1	2
328.926	1	6
329.097	1	-9
329.268	1	-2
329.439	1	6
329.610	1	6
329.781	1	-2
329.952	1	8
330.123	1	-4
330.294	1	10
330.465	1	3
330.636	1	3
330.807	1	3
330.978	1	-5
331.149	1	-2
331.320	1	2
331.492	1	-1
331.663	1	6
331.834	1	1
332.005	1	11
332.176	1	1
332.347	1	-6
332.518	1	3
332.689	1	2
332.860	1	0
333.031	1	-3
333.202	1	-2
333.373	1	7
333.544	1	3
333.715	1	0
333.886	1	-4
334.057	1	-10
334.228	1	12
334.399	1	4
334.570	1	7
334.741	1	2
334.912	1	5
335.084	1	13
335.255	1	7
335.426	1	15
335.597	1	3
335.768	1	6
335.939	1	2
336.110	1	2
336.281	1	-7
336.452	1	-2
336.623	1	-3
336.794	1	-1
336.965	1	6
337.136	1	6
337.307	1	9
337.478	1	-9
337.649	1	-10
337.820	1	-2
337.991	1	-3
338.162	1	6
338.333	1	2
338.504	1	2
338.675	1	5
338.846	1	-4
339.017	1	10
339.188	1	-1
339.359	1	-2
339.530	1	-3
339.701	1	4
339.872	1	7
340.043	1	7
340.214	1	1
340.385	1	2
340.556	1	10
340.727	1	1
340.898	1	4
341.069	1	-6
341.240	1	3
341.411	1	7
341.582	1	3
341.753	1	-1
341.924	1	8
342.095	1	8
342.266	1	9
342.437	1	1
342.608	1	4
342.779	1	1
342.950	1	-3
343.121	1	8
343.292	1	3
343.463	1	9
343.634	1	-4
343.805	1	9
343.976	1	17
344.147	1	4
344.318	1	-3
344.489	1	-3
344.660	1	3
344.831	1	8
345.002	1	8
345.173	1	5
345.344	1	7
345.515	1	4
345.686	1	4
345.857	1	14
346.028	1	-4
346.199	1	9
346.370	1	-2
346.541	1	1
346.712	1	-4
346.883	1	-1
347.054	1	4
347.225	1	1
347.396	1	-1
347.567	1	-4
347.738	1	4
347.909	1	10
348.080	1	1
348.251	1	4
348.422	1	11
348.593	1	-4
348.764	1	3
348.935	1	4
349.106	1	-8
349.277	1	1
349.448	1	3
349.619	1	4
349.790	1	3
349.961	1	5
350.132	1	12
350.303	1	6
350.474	1	10
350.645	1	0
350.816	1	-1
350.987	1	10
351.157	1	-3
351.328	1	3
351.499	1	6
351.670	1	4
351.841	1	13
352.012	1	8
352.183	1	5
352.354	1	-2
352.525	1	4
352.696	1	-4
352.867	1	6
353.038	1	6
353.209	1	9
353.380	1	5
353.551	1	7
353.722	1	0
353.893	1	8
354.064	1	14
354.235	1	5
354.406	1	-5
354.576	1	3
354.747	1	12
354.918	1	7
355.089	1	9
355.260	1	4
355.431	1	0
355.602	1	-1
355.773	1	-5
355.944	1	7
356.115	1	7
356.286	1	5
356.457	1	0
356.628	1	6
356.799	1	8
356.970	1	9
357.141	1	15
357.311	1	6
357.482	1	-3
357.653	1	0
357.824	1	8
357.995	1	5
358.166	1	3
358.337	1	6
358.508	1	15
358.679	1	-2
358.850	1	13
359.021	1	15
359.192	1	13
359.363	1	-1
359.533	1	0
359.704	1	-4
359.875	1	4
360.046	1	12
360.217	1	13
360.388	1	19
360.559	1	7
360.730	1	-3
360.901	1	5
361.072	1	9
361.243	1	-1
361.414	1	15
361.584	1	4
361.755	1	7
361.926	1	13
362.097	1	6
362.268	1	15
362.439	1	7
362.610	1	10
362.781	1	-3
362.952	1	3
363.123	1	-10
363.293	1	3
363.464	1	11
363.635	1	11
363.806	1	2
363.977	1	8
364.148	1	5
364.319	1	0
364.490	1	10
364.661	1	5
364.832	1	4
365.002	1	4
365.173	1	12
365.344	1	1
365.515	1	10
365.686	1	11
365.857	1	16
366.028	1	3
366.199	1	12
366.370	1	7
366.540	1	2
366.711	1	10
366.882	1	1
367.053	1	9
367.224	1	15
367.395	1	4
367.566	1	8
367.737	1	6
367.908	1	6
368.078	1	2
368.249	1	9
368.420	1	14
368.591	1	7
368.762	1	-1
368.933	1	2
369.104	1	3
369.274	1	8
369.445	1	7
369.616	1	1
369.787	1	8
369.958	1	8
370.129	1	5
370.300	1	2
370.471	1	11
370.641	1	3
370.812	1	11
370.983	1	0
371.154	1	9
371.325	1	1
371.496	1	4
371.667	1	17
371.837	1	13
372.008	1	3
372.179	1	11
372.350	1	9
372.521	1	3
372.692	1	10
372.863	1	0
373.033	1	5
373.204	1	0
373.375	1	8
373.546	1	10
373.717	1	-2
373.888	1	2
374.059	1	3
374.229	1	13
374.400	1	3
374.571	1	4
374.742	1	14
374.913	1	-4
375.084	1	11
375.254	1	-1
375.425	1	8
375.596	1	2
375.767	1	7
375.938	1	2
376.109	1	2
376.279	1	1
376.450	1	12
376.621	1	9
376.792	1	12
376.963	1	9
377.134	1	6
377.304	1	15
377.475	1	-2
377.646	1	-5
377.817	1	18
377.988	1	6
378.159	1	12
378.329	1	0
378.500	1	14
378.671	1	8
378.842	1	17
379.013	1	10
379.184	1	7
379.354	1	2
379.525	1	19
379.696	1	16
379.867	1	14
380.038	1	0
380.209	1	7
380.379	1	8
380.550	1	-8
380.721	1	7
380.892	1	-2
381.063	1	5
381.233	1	10
381.404	1	1
381.575	1	10
381.746	1	8
381.917	1	3
382.087	1	19
382.258	1	8
382.429	1	6
382.600	1	4
382.771	1	4
382.941	1	9
383.112	1	4
383.283	1	15
383.454	1	0
383.625	1	16
383.795	1	7
383.966	1	13
384.137	1	10
384.308	1	4
384.479	1	7
384.649	1	5
384.820	1	2
384.991	1	6
385.162	1	8
385.333	1	12
385.503	1	10
385.674	1	4
385.845	1	16
386.016	1	15
386.187	1	1
386.357	1	19
386.528	1	5
386.699	1	4
386.870	1	3
387.041	1	20
387.211	1	7
387.382	1	8
387.553	1	15
387.724	1	5
387.894	1	2
388.065	1	2
388.236	1	4
388.407	1	5
388.578	1	8
388.748	1	19
388.919	1	6
389.090	1	25
389.261	1	8
389.431	1	-2
389.602	1	14
389.773	1	0
389.944	1	19
390.114	1	5
390.285	1	12
390.456	1	2
390.627	1	7
390.798	1	15
390.968	1	11
391.139	1	6
391.310	1	7
391.481	1	8
391.651	1	17
391.822	1	22
391.993	1	7
392.164	1	4
392.334	1	5
392.505	1	16
392.676	1	2
392.847	1	11
393.017	1	13
393.188	1	21
393.359	1	16
393.530	1	10
393.700	1	3
393.871	1	13
394.042	1	0
394.213	1	7
394.383	1	13
394.554	1	11
394.725	1	9
394.896	1	13
395.066	1	15
395.237	1	4
395.408	1	10
395.579	1	5
395.749	1	21
395.920	1	13
396.091	1	1
396.262	1	13
396.432	1	10
396.603	1	15
396.774	1	0
396.945	1	13
397.115	1	18
397.286	1	9
397.457	1	6
397.627	1	6
397.798	1	4
397.969	1	10
398.140	1	7
398.310	1	21
398.481	1	6
398.652	1	7
398.823	1	5
398.993	1	18
399.164	1	7
399.335	1	12
399.505	1	3
399.676	1	8
399.847	1	7
400.018	1	6
400.188	1	11
400.359	1	15
400.530	1	14
400.700	1	13
400.871	1	13
401.042	1	11
401.213	1	7
401.383	1	15
401.554	1	7
401.725	1	-1
401.895	1	4
402.066	1	23
402.237	1	5
402.408	1	4
402.578	1	12
402.749	1	1
402.920	1	20
403.090	1	13
403.261	1	10
403.432	1	11
403.603	1	14
403.773	1	27
403.944	1	21
404.115	1	2
404.285	1	8
404.456	1	18
404.627	1	18
404.797	1	6
404.968	1	18
405.139	1	12
405.310	1	3
405.480	1	9
405.651	1	6
405.822	1	6
405.992	1	16
406.163	1	4
406.334	1	6
406.504	1	16
406.675	1	10
406.846	1	5
407.016	1	25
407.187	1	13
407.358	1	6
407.528	1	8
407.699	1	14
407.870	1	10
408.041	1	16
408.211	1	12
408.382	1	17
408.553	1	6
408.723	1	17
408.894	1	6
409.065	1	19
409.235	1	12
409.406	1	8
409.577	1	3
409.747	1	22
409.918	1	15
410.089	1	28
410.259	1	4
410.430	1	5
410.601	1	15
410.771	1	23
410.942	1	11
411.113	1	11
411.283	1	14
411.454	1	25
411.625	1	4
411.795	1	14
411.966	1	13
412.137	1	19
412.307	1	12
412.478	1	10
412.649	1	13
412.819	1	14
412.990	1	18
413.161	1	11
413.331	1	15
413.502	1	1
413.672	1	10
413.843	1	11
414.014	1	14
414.184	1	26
414.355	1	12
414.526	1	12
414.696	1	9
414.867	1	-3
415.038	1	9
415.208	1	-2
415.379	1	2
415.550	1	16
415.720	1	5
415.891	1	12
416.062	1	9
416.232	1	18
416.403	1	9
416.573	1	9
416.744	1	12
416.915	1	17
417.085	1	16
417.256	1	13
417.427	1	9
417.597	1	9
417.768	1	5
417.939	1	13
418.109	1	14
418.280	1	-3
418.450	1	13
418.621	1	3
418.792	1	12
418.962	1	12
419.133	1	6
419.304	1	7
419.474	1	14
419.645	1	13
419.815	1	7
419.986	1	14
420.157	1	13
420.327	1	7
420.498	1	1
420.669	1	10
420.839	1	8
421.010	1	13
421.180	1	7
421.351	1	16
421.522	1	5
421.692	1	15
421.863	1	17
422.033	1	16
422.204	1	13
422.375	1	10
422.545	1	18
422.716	1	6
422.886	1	15
423.057	1	17
423.228	1	5
423.398	1	8
423.569	1	6
423.740	1	12
423.910	1	11
424.081	1	18
424.251	1	2
424.422	1	16
424.593	1	17
424.763	1	14
424.934	1	26
425.104	1	19
425.275	1	6
425.445	1	13
425.616	1	20
425.787	1	9
425.957	1	6
426.128	1	11
426.298	1	16
426.469	1	-1
426.640	1	13
426.810	1	0
426.981	1	14
427.151	1	13
427.322	1	17
427.493	1	4
427.663	1	10
427.834	1	7
428.004	1	13
428.175	1	18
428.345	1	-3
428.516	1	4
428.687	1	16
428.857	1	8
429.028	1	4
429.198	1	9
429.369	1	11
429.540	1	14
429.710	1	12
429.881	1	13
430.051	1	11
430.222	1	12
430.392	1	17
430.563	1	7
430.734	1	12
430.904	1	12
431.075	1	4
431.245	1	8
431.416	1	13
431.586	1	0
431.757	1	20
431.927	1	8
432.098	1	7
432.269	1	18
432.439	1	-4
432.610	1	15
432.780	1	13
432.951	1	11
433.121	1	4
433.292	1	11
433.462	1	10
433.633	1	10
433.804	1	9
433.974	1	16
434.145	1	7
434.315	1	7
434.486	1	6
434.656	1	17
434.827	1	16
434.997	1	18
435.168	1	8
435.339	1	12
435.509	1	10
435.680	1	14
435.850	1	4
436.021	1	9
436.191	1	4
436.362	1	10
436.532	1	9
436.703	1	10
436.873	1	17
437.044	1	7
437.214	1	-5
437.385	1	3
437.556	1	12
437.726	1	13
437.897	1	10
438.067	1	13
438.238	1	7
438.408	1	7
438.579	1	11
438.749	1	5
438.920	1	20
439.090	1	4
439.261	1	12
439.431	1	1
439.602	1	9
439.772	1	14
439.943	1	2
440.113	1	9
440.284	1	11
440.455	1	18
440.625	1	21
440.796	1	6
440.966	1	12
441.137	1	13
441.307	1	15
441.478	1	3
441.648	1	4
441.819	1	8
441.989	1	20
442.160	1	6
442.330	1	16
442.501	1	10
442.671	1	8
442.842	1	12
443.012	1	7
443.183	1	13
443.353	1	3
443.524	1	0
443.694	1	5
443.865	1	12
444.035	1	6
444.206	1	6
444.376	1	15
444.547	1	10
444.717	1	14
444.888	1	-4
445.058	1	10
445.229	1	9
445.399	1	5
445.570	1	10
445.740	1	7
445.911	1	15
446.081	1	14
446.252	1	5
446.422	1	2
446.593	1	13
446.763	1	4
446.934	1	10
447.104	1	0
447.275	1	16
447.445	1	7
447.616	1	6
447.786	1	8
447.957	1	0
448.127	1	10
448.298	1	8
448.468	1	8
448.639	1	6
448.809	1	7
448.979	1	10
449.150	1	7
449.320	1	11
449.491	1	1
449.661	1	1
449.832	1	6
450.002	1	6
450.173	1	11
450.343	1	4
450.514	1	21
450.684	1	9
450.855	1	13
451.025	1	8
451.196	1	1
451.366	1	19
451.537	1	20
451.707	1	20
451.878	1	-2
452.048	1	-1
452.218	1	12
452.389	1	10
452.559	1	16
452.730	1	8
452.900	1	2
453.071	1	13
453.241	1	20
453.412	1	7
453.582	1	14
453.753	1	18
453.923	1	2
454.093	1	10
454.264	1	17
454.434	1	8
454.605	1	7
454.775	1	12
454.946	1	5
455.116	1	16
455.287	1	3
455.457	1	16
455.628	1	-2
455.798	1	17
455.968	1	12
456.139	1	11
456.309	1	10
456.480	1	10
456.650	1	10
456.821	1	5
456.991	1	11
457.161	1	15
457.332	1	16
457.502	1	8
457.673	1	9
457.843	1	2
458.014	1	5
458.184	1	12
458.355	1	8
458.525	1	0
458.695	1	-2
458.866	1	-7
459.036	1	11
459.207	1	14
459.377	1	14
459.548	1	16
459.718	1	5
459.888	1	2
460.059	1	4
460.229	1	6
460.400	1	6
460.570	1	3
460.740	1	4
460.911	1	2
461.081	1	1
461.252	1	14
461.422	1	8
461.593	1	9
461.763	1	10
461.933	1	11
462.104	1	2
462.274	1	8
462.445	1	5
462.615	1	13
462.785	1	15
462.956	1	7
463.126	1	5
463.297	1	5
463.467	1	21
463.638	1	13
463.808	1	2
463.978	1	-13
464.149	1	5
464.319	1	10
464.490	1	4
464.660	1	10
464.830	1	7
465.001	1	6
465.171	1	8
465.342	1	4
465.512	1	11
465.682	1	-5
465.853	1	-1
466.023	1	7
466.194	1	12
466.364	1	14
466.534	1	-4
466.705	1	21
466.875	1	-4
467.045	1	2
467.216	1	7
467.386	1	14
467.557	1	16
467.727	1	3
467.897	1	2
468.068	1	1
468.238	1	8
468.409	1	1
468.579	1	-3
468.749	1	10
468.920	1	-5
469.090	1	9
469.260	1	7
469.431	1	-2
469.601	1	10
469.772	1	14
469.942	1	4
470.112	1	3
470.283	1	12
470.453	1	14
470.623	1	12
470.794	1	12
470.964	1	-2
471.135	1	11
471.305	1	6
471.475	1	5
471.646	1	9
471.816	1	6
471.986	1	6
472.157	1	-5
472.327	1	2
472.497	1	7
472.668	1	10
472.838	1	1
473.009	1	-2
473.179	1	-2
473.349	1	2
473.520	1	16
473.690	1	5
473.860	1	-3
474.031	1	-6
474.201	1	8
474.371	1	10
474.542	1	3
474.712	1	-4
474.882	1	11
475.053	1	7
475.223	1	7
475.394	1	-1
475.564	1	10
475.734	1	-2
475.905	1	13
476.075	1	7
476.245	1	-4
476.416	1	1
476.586	1	4
476.756	1	0
476.927	1	7
477.097	1	6
477.267	1	-1
477.438	1	19
477.608	1	11
477.778	1	5
477.949	1	-8
478.119	1	5
478.289	1	-2
478.460	1	5
478.630	1	-3
478.800	1	-2
478.971	1	2
479.141	1	13
479.311	1	6
479.482	1	6
479.652	1	5
479.822	1	-4
479.993	1	8
480.163	1	10
480.333	1	13
480.504	1	8
480.674	1	9
480.844	1	3
481.015	1	14
481.185	1	8
481.355	1	5
481.525	1	-13
481.696	1	8
481.866	1	3
482.036	1	6
482.207	1	10
482.377	1	6
482.547	1	6
482.718	1	9
482.888	1	13
483.058	1	-1
483.229	1	3
483.399	1	12
483.569	1	7
483.740	1	4
483.910	1	-4
484.080	1	9
484.250	1	-2
484.421	1	-3
484.591	1	4
484.761	1	7
484.932	1	-3
485.102	1	6
485.272	1	0
485.443	1	1
485.613	1	1
485.783	1	-4
485.953	1	1
486.124	1	10
486.294	1	6
486.464	1	9
486.635	1	-8
486.805	1	3
486.975	1	-11
487.146	1	7
487.316	1	9
487.486	1	11
487.656	1	12
487.827	1	-6
487.997	1	-1
488.167	1	8
488.338	1	7
488.508	1	7
488.678	1	0
488.848	1	5
489.019	1	5
489.189	1	12
489.359	1	-4
489.529	1	11
489.700	1	-1
489.870	1	6
490.040	1	-4
490.211	1	-7
490.381	1	4
490.551	1	4
490.721	1	5
490.892	1	-12
491.062	1	2
491.232	1	5
491.402	1	1
491.573	1	11
491.743	1	3
491.913	1	3
492.084	1	-1
492.254	1	12
492.424	1	0
492.594	1	8
492.765	1	11
492.935	1	15
493.105	1	1
493.275	1	-2
493.446	1	-10
493.616	1	-9
493.786	1	5
493.956	1	11
494.127	1	-9
494.297	1	-7
494.467	1	6
494.637	1	8
494.808	1	5
494.978	1	6
495.148	1	-2
495.318	1	11
495.489	1	-6
495.659	1	0
495.829	1	4
495.999	1	8
496.170	1	2
496.340	1	-3
496.510	1	11
496.680	1	3
496.851	1	7
497.021	1	-6
497.191	1	13
497.361	1	-9
497.532	1	5
497.702	1	14
497.872	1	4
498.042	1	0
498.213	1	-6
498.383	1	2
498.553	1	10
498.723	1	-3
498.894	1	-1
499.064	1	0
499.234	1	5
499.404	1	1
499.574	1	13
499.745	1	2
499.915	1	11
500.085	1	2
500.255	1	-13
500.426	1	10
500.596	1	-5
500.766	1	-4
500.936	1	4
501.106	1	-6
501.277	1	0
501.447	1	8
501.617	1	-8
501.787	1	1
501.958	1	8
502.128	1	9
502.298	1	3
502.468	1	1
502.638	1	12
502.809	1	-7
502.979	1	-1
503.149	1	-2
503.319	1	3
503.489	1	-12
503.660	1	-6
503.830	1	4
504.000	1	9
504.170	1	-2
504.340	1	-2
504.511	1	-3
504.681	1	2
504.851	1	1
505.021	1	4
505.192	1	-7
505.362	1	7
505.532	1	-3
505.702	1	18
505.872	1	5
506.043	1	8
506.213	1	11
506.383	1	-3
506.553	1	4
506.723	1	-9
506.893	1	2
507.064	1	7
507.234	1	0
507.404	1	-3
507.574	1	-1
507.744	1	-2
507.915	1	5
508.085	1	0
508.255	1	-3
508.425	1	-9
508.595	1	2
508.766	1	0
508.936	1	16
509.106	1	-5
509.276	1	4
509.446	1	-2
509.616	1	5
509.787	1	3
509.957	1	4
510.127	1	-3
510.297	1	-5
510.467	1	5
510.638	1	7
510.808	1	5
510.978	1	-10
511.148	1	-2
511.318	1	9
511.488	1	4
511.659	1	-3
511.829	1	1
511.999	1	1
512.169	1	7
512.339	1	6
512.509	1	-3
512.680	1	0
512.850	1	7
513.020	1	-2
513.190	1	-10
513.360	1	1
513.530	1	0
513.700	1	1
513.871	1	-12
514.041	1	11
514.211	1	-3
514.381	1	13
514.551	1	4
514.721	1	-1
514.892	1	-5
515.062	1	1
515.232	1	-4
515.402	1	0
515.572	1	3
515.742	1	4
515.912	1	9
516.083	1	6
516.253	1	0
516.423	1	10
516.593	1	5
516.763	1	9
516.933	1	2
517.104	1	0
517.274	1	-4
517.444	1	-3
517.614	1	1
517.784	1	3
517.954	1	-1
518.124	1	2
518.294	1	12
518.465	1	-4
518.635	1	11
518.805	1	3
518.975	1	8
519.145	1	5
519.315	1	4
519.485	1	-8
519.656	1	-5
519.826	1	-8
519.996	1	9
520.166	1	-6
520.336	1	-6
520.506	1	-6
520.676	1	8
520.846	1	7
521.017	1	-5
521.187	1	3
521.357	1	-10
521.527	1	-3
521.697	1	2
521.867	1	6
522.037	1	1
522.207	1	-1
522.377	1	3
522.548	1	-13
522.718	1	-2
522.888	1	-4
523.058	1	-5
523.228	1	-6
523.398	1	2
523.568	1	-14
523.738	1	-1
523.909	1	-2
524.079	1	-4
524.249	1	-3
524.419	1	-5
524.589	1	-4
524.759	1	3
524.929	1	2
525.099	1	0
525.269	1	6
525.439	1	1
525.610	1	10
525.780	1	-2
525.950	1	-5
526.120	1	-1
526.290	1	-12
526.460	1	1
526.630	1	-3
526.800	1	4
526.970	1	4
527.140	1	-1
527.311	1	5
527.481	1	-5
527.651	1	3
527.821	1	-7
527.991	1	-6
528.161	1	2
528.331	1	-5
528.501	1	4
528.671	1	2
528.841	1	7
529.011	1	3
529.181	1	6
529.352	1	-5
529.522	1	0
529.692	1	-5
529.862	1	3
530.032	1	-11
530.202	1	-4
530.372	1	2
530.542	1	2
530.712	1	2
530.882	1	-6
531.052	1	3
531.222	1	-7
531.392	1	-4
531.563	1	5
531.733	1	-4
531.903	1	-5
532.073	1	-2
532.243	1	14
532.413	1	20
532.583	1	5
532.753	1	-4
532.923	1	-1
533.093	1	-11
533.263	1	7
533.433	1	-8
533.603	1	4
533.773	1	2
533.943	1	1
534.113	1	6
534.284	1	4
534.454	1	4
534.624	1	-9
534.794	1	-7
534.964	1	-7
535.134	1	1
535.304	1	2
535.474	1	5
535.644	1	5
535.814	1	1
535.984	1	-3
536.154	1	2
536.324	1	-1
536.494	1	9
536.664	1	-9
536.834	1	3
537.004	1	2
537.174	1	7
537.344	1	2
537.514	1	4
537.685	1	11
537.855	1	-2
538.025	1	18
538.195	1	4
538.365	1	-3
538.535	1	-17
538.705	1	-4
538.875	1	3
539.045	1	-3
539.215	1	-4
539.385	1	0
539.555	1	-9
539.725	1	6
539.895	1	1
540.065	1	-1
540.235	1	0
540.405	1	2
540.575	1	-3
540.745	1	1
540.915	1	3
541.085	1	1
541.255	1	-1
541.425	1	-9
541.595	1	5
541.765	1	1
541.935	1	-6
542.105	1	-3
542.275	1	-1
542.445	1	4
542.615	1	8
542.785	1	2
542.955	1	18
543.125	1	-2
543.295	1	5
543.465	1	18
543.635	1	-3
543.805	1	-3
543.975	1	-2
544.145	1	1
544.315	1	-6
544.485	1	-2
544.655	1	10
544.825	1	-3
544.995	1	-4
545.165	1	-3
545.335	1	4
545.505	1	2
545.675	1	8
545.845	1	3
546.015	1	1
546.185	1	-9
546.355	1	-3
546.525	1	-4
546.695	1	3
546.865	1	6
547.035	1	-4
547.205	1	9
547.375	1	2
547.545	1	2
547.715	1	8
547.885	1	-7
548.055	1	-1
548.225	1	9
548.395	1	1
548.565	1	0
548.735	1	-17
548.905	1	7
549.075	1	4
549.245	1	5
549.415	1	-2
549.585	1	-8
549.755	1	4
549.925	1	7
550.095	1	-8
550.265	1	-1
550.435	1	2
550.605	1	1
550.775	1	-18
550.945	1	2
551.115	1	10
551.285	1	-3
551.455	1	2
551.625	1	1
551.795	1	3
551.965	1	-10
552.135	1	-5
552.305	1	6
552.475	1	0
552.645	1	-8
552.815	1	-2
552.985	1	-3
553.155	1	-6
553.325	1	-8
553.495	1	-5
553.665	1	6
553.835	1	0
554.004	1	8
554.174	1	-14
554.344	1	5
554.514	1	-2
554.684	1	-1
554.854	1	-5
555.024	1	4
555.194	1	6
555.364	1	-4
555.534	1	-9
555.704	1	1
555.874	1	-7
556.044	1	-4
556.214	1	6
556.384	1	7
556.554	1	8
556.724	1	-3
556.894	1	3
557.064	1	-1
557.234	1	-6
557.404	1	-3
557.573	1	1
557.743	1	-4
557.913	1	-1
558.083	1	-2
558.253	1	2
558.423	1	6
558.593	1	-3
558.763	1	-1
558.933	1	-6
559.103	1	-1
559.273	1	-1
559.443	1	3
559.613	1	-1
559.783	1	-4
559.953	1	-14
560.122	1	-2
560.292	1	-11
560.462	1	-6
560.632	1	-5
560.802	1	4
560.972	1	-13
561.142	1	-4
561.312	1	3
561.482	1	10
561.652	1	4
561.822	1	-7
561.992	1	0
562.162	1	2
562.331	1	-5
562.501	1	-5
562.671	1	-3
562.841	1	-14
563.011	1	7
563.181	1	-5
563.351	1	-10
563.521	1	-10
563.691	1	3
563.861	1	3
564.031	1	1
564.201	1	0
564.370	1	2
564.540	1	-4
564.710	1	-1
564.880	1	6
565.050	1	-4
565.220	1	4
565.390	1	-6
565.560	1	0
565.730	1	5
565.900	1	-4
566.069	1	4
566.239	1	14
566.409	1	2
566.579	1	4
566.749	1	-2
566.919	1	-9
567.089	1	-15
567.259	1	7
567.429	1	-8
567.599	1	12
567.768	1	8
567.938	1	2
568.108	1	6
568.278	1	-1
568.448	1	-2
568.618	1	5
568.788	1	9
568.958	1	6
569.128	1	-5
569.297	1	-10
569.467	1	10
569.637	1	3
569.807	1	-2
569.977	1	-8
570.147	1	2
570.317	1	8
570.487	1	-3
570.656	1	7
570.826	1	3
570.996	1	10
571.166	1	0
571.336	1	-6
571.506	1	-4
571.676	1	5
571.846	1	0
572.015	1	-3
572.185	1	0
572.355	1	-2
572.525	1	-13
572.695	1	7
572.865	1	8
573.035	1	5
573.205	1	-9
573.374	1	-10
573.544	1	3
573.714	1	1
573.884	1	-1
574.054	1	0
574.224	1	1
574.394	1	-4
574.563	1	-10
574.733	1	3
574.903	1	-3
575.073	1	5
575.243	1	1
575.413	1	-2
575.583	1	-11
575.752	1	-7
575.922	1	7
576.092	1	-6
576.262	1	4
576.432	1	-3
576.602	1	-5
576.772	1	-4
576.941	1	0
577.111	1	3
577.281	1	2
577.451	1	2
577.621	1	-3
577.791	1	2
577.960	1	-3
578.130	1	0
578.300	1	-8
578.470	1	-2
578.640	1	5
578.810	1	-5
578.979	1	12
579.149	1	-10
579.319	1	-1
579.489	1	10
579.659	1	2
579.829	1	0
579.998	1	-16
580.168	1	0
580.338	1	2
580.508	1	-4
580.678	1	-1
580.848	1	-1
581.017	1	3
581.187	1	-1
581.357	1	2
581.527	1	1
581.697	1	-2
581.867	1	5
582.036	1	-2
582.206	1	-1
582.376	1	-4
582.546	1	-6
582.716	1	4
582.885	1	-1
583.055	1	-14
583.225	1	0
583.395	1	-5
583.565	1	9
583.735	1	-1
583.904	1	-7
584.074	1	-3
584.244	1	-5
584.414	1	-9
584.584	1	1
584.753	1	-2
584.923	1	-4
585.093	1	4
585.263	1	2
585.433	1	8
585.602	1	10
585.772	1	15
585.942	1	-13
586.112	1	-9
586.282	1	-4
586.451	1	10
586.621	1	-10
586.791	1	-4
586.961	1	-6
587.131	1	2
587.300	1	5
587.470	1	-12
587.640	1	-5
587.810	1	-10
587.980	1	-2
588.149	1	8
588.319	1	-2
588.489	1	14
588.659	1	-8
588.829	1	-1
588.998	1	1
589.168	1	-4
589.338	1	-7
589.508	1	-7
589.677	1	-7
589.847	1	6
590.017	1	0
590.187	1	-3
590.357	1	3
590.526	1	-8
590.696	1	1
590.866	1	-11
591.036	1	5
591.205	1	2
591.375	1	3
591.545	1	-4
591.715	1	-7
591.885	1	5
592.054	1	4
592.224	1	-7
592.394	1	-6
592.564	1	4
592.733	1	-5
592.903	1	-1
593.073	1	-9
593.243	1	6
593.412	1	-1
593.582	1	-5
593.752	1	-11
593.922	1	-3
594.091	1	7
594.261	1	-11
594.431	1	-1
594.601	1	-11
594.771	1	3
594.940	1	-4
595.110	1	3
595.280	1	-6
595.450	1	1
595.619	1	9
595.789	1	-5
595.959	1	3
596.129	1	2
596.298	1	9
596.468	1	-6
596.638	1	-4
596.808	1	-14
596.977	1	1
597.147	1	-4
597.317	1	3
597.487	1	3
597.656	1	0
597.826	1	-6
597.996	1	-6
598.166	1	5
598.335	1	-13
598.505	1	2
598.675	1	-2
598.844	1	21
599.014	1	-10
599.184	1	4
599.354	1	3
599.523	1	-7
599.693	1	-2
599.863	1	4
600.033	1	1
600.202	1	4
600.372	1	-5
600.542	1	0
600.712	1	-9
600.881	1	-3
601.051	1	0
601.221	1	5
601.390	1	1
601.560	1	3
601.730	1	-1
601.900	1	9
602.069	1	-1
602.239	1	-4
602.409	1	-5
602.578	1	4
602.748	1	-4
602.918	1	-2
603.088	1	4
603.257	1	-9
603.427	1	-6
603.597	1	-7
603.767	1	3
603.936	1	3
604.106	1	-4
604.276	1	-1
604.445	1	-4
604.615	1	6
604.785	1	7
604.954	1	5
605.124	1	-1
605.294	1	3
605.464	1	-8
605.633	1	-1
605.803	1	-5
605.973	1	-1
606.142	1	5
606.312	1	8
606.482	1	-13
606.652	1	-2
606.821	1	2
606.991	1	0
607.161	1	-6
607.330	1	-7
607.500	1	0
607.670	1	-2
607.839	1	1
608.009	1	-4
608.179	1	0
608.348	1	1
608.518	1	10
608.688	1	-8
608.858	1	6
609.027	1	-4
609.197	1	4
609.367	1	-13
609.536	1	-10
609.706	1	6
609.876	1	-9
610.045	1	0
610.215	1	5
610.385	1	4
610.554	1	4
610.724	1	-3
610.894	1	10
611.063	1	4
611.233	1	-2
611.403	1	4
611.572	1	-2
611.742	1	0
611.912	1	-2
612.081	1	10
612.251	1	1
612.421	1	-1
612.590	1	-3
612.760	1	-5
612.930	1	0
613.099	1	-1
613.269	1	-2
613.439	1	-5
613.608	1	2
613.778	1	1
613.948	1	3
614.117	1	3
614.287	1	-8
614.457	1	-3
614.626	1	-4
614.796	1	0
614.966	1	-4
615.135	1	13
615.305	1	2
615.475	1	9
615.644	1	15
615.814	1	4
615.984	1	-9
616.153	1	-5
616.323	1	2
616.493	1	1
616.662	1	-8
616.832	1	5
617.002	1	-7
617.171	1	-1
617.341	1	-1
617.511	1	-1
617.680	1	-4
617.850	1	10
618.019	1	-16
618.189	1	9
618.359	1	3
618.528	1	-8
618.698	1	3
618.868	1	-1
619.037	1	-2
619.207	1	0
619.377	1	1
619.546	1	8
619.716	1	-9
619.885	1	0
620.055	1	-4
620.225	1	4
620.394	1	6
620.564	1	0
620.734	1	2
620.903	1	-4
621.073	1	4
621.242	1	2
621.412	1	-7
621.582	1	5
621.751	1	-7
621.921	1	10
622.091	1	-1
622.260	1	3
622.430	1	4
622.599	1	-4
622.769	1	-3
622.939	1	-5
623.108	1	-2
623.278	1	-1
623.448	1	1
623.617	1	3
623.787	1	-4
623.956	1	-3
624.126	1	-2
624.296	1	9
624.465	1	8
624.635	1	8
624.804	1	-13
624.974	1	-11
625.144	1	4
625.313	1	13
625.483	1	2
625.652	1	0
625.822	1	15
625.992	1	-6
626.161	1	-3
626.331	1	-4
626.501	1	-5
626.670	1	1
626.840	1	-2
627.009	1	-6
627.179	1	0
627.348	1	-3
627.518	1	11
627.688	1	-5
627.857	1	11
628.027	1	8
628.196	1	1
628.366	1	-7
628.536	1	1
628.705	1	-5
628.875	1	-8
629.044	1	-7
629.214	1	3
629.384	1	4
629.553	1	-3
629.723	1	9
629.892	1	11
630.062	1	-2
630.232	1	6
630.401	1	5
630.571	1	-3
630.740	1	-4
630.910	1	6
631.079	1	-2
631.249	1	0
631.419	1	7
631.588	1	2
631.758	1	-5
631.927	1	4
632.097	1	-6
632.266	1	6
632.436	1	2
632.606	1	1
632.775	1	0
632.945	1	-6
633.114	1	-3
633.284	1	-9
633.453	1	7
633.623	1	12
633.793	1	1
633.962	1	2
634.132	1	0
634.301	1	7
634.471	1	6
634.640	1	-1
634.810	1	9
634.979	1	1
635.149	1	-6
635.319	1	-1
635.488	1	1
635.658	1	0
635.827	1	-14
635.997	1	6
636.166	1	6
636.336	1	-9
636.505	1	-2
636.675	1	-10
636.845	1	-5
637.014	1	-9
637.184	1	5
637.353	1	-2
637.523	1	0
637.692	1	-5
637.862	1	-4
638.031	1	-3
638.201	1	8
638.370	1	2
638.540	1	-6
638.710	1	-2
638.879	1	4
639.049	1	0
639.218	1	5
639.388	1	1
639.557	1	7
639.727	1	-5
639.896	1	-3
640.066	1	0
640.235	1	-3
640.405	1	-5
640.574	1	-6
640.744	1	-1
640.914	1	-2
641.083	1	8
641.253	1	-7
641.422	1	2
641.592	1	1
641.761	1	1
641.931	1	18
642.100	1	-4
642.270	1	-4
642.439	1	3
642.609	1	15
642.778	1	3
642.948	1	6
643.117	1	1
643.287	1	4
643.456	1	-7
643.626	1	-1
643.795	1	4
643.965	1	2
644.134	1	-7
644.304	1	-4
644.473	1	-1
644.643	1	-7
644.812	1	-9
644.982	1	-3
645.151	1	-4
645.321	1	-1
645.490	1	4
645.660	1	-10
645.829	1	4
645.999	1	-4
646.168	1	18
646.338	1	-7
646.507	1	-3
646.677	1	-1
646.846	1	8
647.016	1	11
647.185	1	-1
647.355	1	7
647.524	1	-12
647.694	1	-5
647.863	1	-5
648.033	1	3
648.202	1	7
648.372	1	-3
648.541	1	2
648.711	1	2
648.880	1	-8
649.050	1	-3
649.219	1	-3
649.389	1	-13
649.558	1	8
649.728	1	-1
649.897	1	16
650.067	1	2
650.236	1	-5
650.406	1	-1
650.575	1	-8
650.745	1	4
650.914	1	3
651.084	1	1
651.253	1	-3
651.423	1	1
651.592	1	4
651.762	1	3
651.931	1	2
652.101	1	-7
652.270	1	-6
652.440	1	8
652.609	1	-5
652.778	1	10
652.948	1	0
653.117	1	-11
653.287	1	-16
653.456	1	-6
653.626	1	0
653.795	1	-4
653.965	1	-8
654.134	1	-8
654.304	1	-1
654.473	1	-4
654.643	1	-10
654.812	1	10
654.982	1	5
655.151	1	9
655.320	1	-3
655.490	1	-6
655.659	1	1
655.829	1	8
655.998	1	-2
656.168	1	0
656.337	1	4
656.507	1	-7
656.676	1	-4
656.846	1	4
657.015	1	2
657.184	1	1
657.354	1	0
657.523	1	4
657.693	1	-1
657.862	1	-7
658.032	1	4
658.201	1	-6
658.371	1	-5
658.540	1	-6
658.709	1	10
658.879	1	16
659.048	1	6
659.218	1	0
659.387	1	4
659.557	1	-3
659.726	1	-3
659.895	1	-2
660.065	1	-4
660.234	1	-1
660.404	1	0
660.573	1	-1
660.743	1	3
660.912	1	-10
661.081	1	6
661.251	1	-5
661.420	1	7
661.590	1	1
661.759	1	6
661.929	1	5
662.098	1	3
662.267	1	-7
662.437	1	6
662.606	1	-12
662.776	1	-1
662.945	1	1
663.115	1	15
663.284	1	7
663.453	1	-7
663.623	1	-9
663.792	1	1
663.962	1	1
664.131	1	-10
664.300	1	-5
664.470	1	-2
664.639	1	2
664.809	1	-9
664.978	1	15
665.148	1	5
665.317	1	-9
665.486	1	1
665.656	1	5
665.825	1	2
665.995	1	1
666.164	1	-5
666.333	1	8
666.503	1	-4
666.672	1	-3
666.842	1	4
667.011	1	3
667.180	1	0
667.350	1	0
667.519	1	5
667.689	1	-3
667.858	1	10
668.027	1	-7
668.197	1	-10
668.366	1	-5
668.536	1	0
668.705	1	-6
668.874	1	4
669.044	1	6
669.213	1	3
669.382	1	6
669.552	1	4
669.721	1	-6
669.891	1	-3
670.060	1	1
670.229	1	3
670.399	1	6
670.568	1	-3
670.738	1	-4
670.907	1	-4
671.076	1	-3
671.246	1	5
671.415	1	4
671.584	1	1
671.754	1	-5
671.923	1	1
672.093	1	12
672.262	1	-3
672.431	1	2
672.601	1	-3
672.770	1	1
672.939	1	11
673.109	1	-1
673.278	1	-1
673.448	1	8
673.617	1	3
673.786	1	-10
