325.333	1	21
325.504	1	9
325.675	1	5
325.846	1	-2
326.017	1	8
326.188	1	14
326.359	1	-8
326.531	1	-2
326.702	1	11
326.873	1	3
327.044	1	11
327.215	1	0
327.386	1	18
327.557	1	2
327.728	1	11
327.899	1	11
328.070	1	13
328.241	1	3
328.412	1	4
328.583	1	15
328.754	1	5
328.926	1	3
329.097	1	-1
329.268	1	9
329.439	1	0
329.610	1	11
329.781	1	7
329.952	1	7
330.123	1	-6
330.294	1	15
330.465	1	13
330.636	1	21
330.807	1	15
330.978	1	6
331.149	1	2
331.320	1	8
331.492	1	9
331.663	1	6
331.834	1	9
332.005	1	8
332.176	1	4
332.347	1	15
332.518	1	5
332.689	1	17
332.860	1	2
333.031	1	9
333.202	1	4
333.373	1	5
333.544	1	3
333.715	1	-3
333.886	1	12
334.057	1	18
334.228	1	4
334.399	1	4
334.570	1	7
334.741	1	9
334.912	1	5
335.084	1	5
335.255	1	19
335.426	1	9
335.597	1	8
335.768	1	4
335.939	1	9
336.110	1	9
336.281	1	7
336.452	1	1
336.623	1	9
336.794	1	12
336.965	1	10
337.136	1	7
337.307	1	2
337.478	1	6
337.649	1	13
337.820	1	-2
337.991	1	9
338.162	1	14
338.333	1	4
338.504	1	5
338.675	1	4
338.846	1	14
339.017	1	-4
339.188	1	18
339.359	1	11
339.530	1	13
339.701	1	20
339.872	1	11
340.043	1	20
340.214	1	-1
340.385	1	-3
340.556	1	11
340.727	1	14
340.898	1	15
341.069	1	0
341.240	1	8
341.411	1	19
341.582	1	1
341.753	1	14
341.924	1	9
342.095	1	-10
342.266	1	6
342.437	1	8
342.608	1	15
342.779	1	0
342.950	1	7
343.121	1	14
343.292	1	5
343.463	1	-1
343.634	1	3
343.805	1	6
343.976	1	9
344.147	1	3
344.318	1	13
344.489	1	7
344.660	1	21
344.831	1	8
345.002	1	13
345.173	1	5
345.344	1	1
345.515	1	3
345.686	1	1
345.857	1	3
346.028	1	7
346.199	1	11
346.370	1	8
346.541	1	16
346.712	1	5
346.883	1	10
347.054	1	1
347.225	1	8
347.396	1	-3
347.567	1	15
347.738	1	3
347.909	1	1
348.080	1	1
348.251	1	16
348.422	1	-4
348.593	1	-1
348.764	1	6
348.935	1	7
349.106	1	5
349.277	1	17
349.448	1	19
349.619	1	12
349.790	1	22
349.961	1	13
350.132	1	-1
350.303	1	2
350.474	1	6
350.645	1	4
350.816	1	6
350.987	1	-2
351.157	1	14
351.328	1	0
351.499	1	9
351.670	1	7
351.841	1	6
352.012	1	20
352.183	1	-5
352.354	1	10
352.525	1	8
352.696	1	7
352.867	1	9
353.038	1	6
353.209	1	14
353.380	1	5
353.551	1	-4
353.722	1	0
353.893	1	2
354.064	1	5
354.235	1	6
354.406	1	3
354.576	1	2
354.747	1	-1
354.918	1	15
355.089	1	15
355.260	1	12
355.431	1	-6
355.602	1	4
355.773	1	2
355.944	1	5
356.115	1	3
356.286	1	5
356.457	1	6
356.628	1	-5
356.799	1	2
356.970	1	1
357.141	1	15
357.311	1	1
357.482	1	1
357.653	1	1
357.824	1	-1
357.995	1	5
358.166	1	5
358.337	1	14
358.508	1	8
358.679	1	5
358.850	1	7
359.021	1	10
359.192	1	9
359.363	1	2
359.533	1	-2
359.704	1	10
359.875	1	3
360.046	1	14
360.217	1	5
360.388	1	4
360.559	1	7
360.730	1	0
360.901	1	2
361.072	1	-1
361.243	1	12
361.414	1	-3
361.584	1	10
361.755	1	5
361.926	1	1
362.097	1	5
362.268	1	1
362.439	1	0
362.610	1	12
362.781	1	2
362.952	1	7
363.123	1	2
363.293	1	8
363.464	1	8
363.635	1	14
363.806	1	4
363.977	1	11
364.148	1	6
364.319	1	-1
364.490	1	10
364.661	1	3
364.832	1	3
365.002	1	-4
365.173	1	6
365.344	1	-1
365.515	1	10
365.686	1	1
365.857	1	5
366.028	1	3
366.199	1	-7
366.370	1	-5
366.540	1	8
366.711	1	4
366.882	1	7
367.053	1	6
367.224	1	-2
367.395	1	-4
367.566	1	2
367.737	1	5
367.908	1	7
368.078	1	13
368.249	1	8
368.420	1	4
368.591	1	6
368.762	1	9
368.933	1	10
369.104	1	-7
369.274	1	1
369.445	1	6
369.616	1	10
369.787	1	8
369.958	1	5
370.129	1	5
370.300	1	-7
370.471	1	6
370.641	1	14
370.812	1	1
370.983	1	4
371.154	1	15
371.325	1	12
371.496	1	2
371.667	1	-2
371.837	1	5
372.008	1	-3
372.179	1	7
372.350	1	1
372.521	1	-6
372.692	1	-3
372.863	1	6
373.033	1	9
373.204	1	13
373.375	1	-1
373.546	1	-6
373.717	1	12
373.888	1	-1
374.059	1	9
374.229	1	-2
374.400	1	8
374.571	1	11
374.742	1	14
374.913	1	-4
375.084	1	1
375.254	1	15
375.425	1	13
375.596	1	8
375.767	1	6
375.938	1	-4
376.109	1	1
376.279	1	2
376.450	1	4
376.621	1	5
376.792	1	7
376.963	1	6
377.134	1	10
377.304	1	-7
377.475	1	11
377.646	1	4
377.817	1	5
377.988	1	10
378.159	1	7
378.329	1	6
378.500	1	-2
378.671	1	2
378.842	1	12
379.013	1	14
379.184	1	8
379.354	1	3
379.525	1	8
379.696	1	1
379.867	1	13
380.038	1	15
380.209	1	5
380.379	1	7
380.550	1	-1
380.721	1	12
380.892	1	7
381.063	1	6
381.233	1	10
381.404	1	6
381.575	1	1
381.746	1	-5
381.917	1	5
382.087	1	7
382.258	1	3
382.429	1	-1
382.600	1	9
382.771	1	9
382.941	1	7
383.112	1	3
383.283	1	6
383.454	1	2
383.625	1	10
383.795	1	17
383.966	1	14
384.137	1	7
384.308	1	7
384.479	1	17
384.649	1	9
384.820	1	7
384.991	1	15
385.162	1	11
385.333	1	3
385.503	1	-3
385.674	1	13
385.845	1	4
386.016	1	16
386.187	1	2
386.357	1	-1
386.528	1	14
386.699	1	2
386.870	1	7
387.041	1	15
387.211	1	9
387.382	1	6
387.553	1	-1
387.724	1	-5
387.894	1	-2
388.065	1	12
388.236	1	16
388.407	1	13
388.578	1	13
388.748	1	7
388.919	1	4
389.090	1	18
389.261	1	-1
389.431	1	20
389.602	1	11
389.773	1	3
389.944	1	1
390.114	1	6
390.285	1	18
390.456	1	13
390.627	1	19
390.798	1	14
390.968	1	7
391.139	1	0
391.310	1	5
391.481	1	6
391.651	1	15
391.822	1	4
391.993	1	5
392.164	1	1
392.334	1	10
392.505	1	6
392.676	1	9
392.847	1	4
393.017	1	3
393.188	1	8
393.359	1	15
393.530	1	13
393.700	1	14
393.871	1	5
394.042	1	9
394.213	1	5
394.383	1	9
394.554	1	10
394.725	1	20
394.896	1	13
395.066	1	8
395.237	1	8
395.408	1	13
395.579	1	13
395.749	1	13
395.920	1	3
396.091	1	-2
396.262	1	6
396.432	1	10
396.603	1	12
396.774	1	6
396.945	1	4
397.115	1	11
397.286	1	4
397.457	1	16
397.627	1	12
397.798	1	19
397.969	1	17
398.140	1	14
398.310	1	14
398.481	1	7
398.652	1	14
398.823	1	14
398.993	1	4
399.164	1	4
399.335	1	9
399.505	1	8
399.676	1	11
399.847	1	11
400.018	1	23
400.188	1	7
400.359	1	0
400.530	1	25
400.700	1	10
400.871	1	14
401.042	1	18
401.213	1	17
401.383	1	21
401.554	1	14
401.725	1	7
401.895	1	9
402.066	1	9
402.237	1	23
402.408	1	15
402.578	1	10
402.749	1	17
402.920	1	9
403.090	1	5
403.261	1	3
403.432	1	9
403.603	1	19
403.773	1	15
403.944	1	8
404.115	1	7
404.285	1	11
404.456	1	20
404.627	1	19
404.797	1	10
404.968	1	17
405.139	1	12
405.310	1	14
405.480	1	11
405.651	1	9
405.822	1	8
405.992	1	19
406.163	1	5
406.334	1	15
406.504	1	16
406.675	1	8
406.846	1	12
407.016	1	13
407.187	1	24
407.358	1	21
407.528	1	6
407.699	1	5
407.870	1	10
408.041	1	17
408.211	1	19
408.382	1	11
408.553	1	20
408.723	1	23
408.894	1	16
409.065	1	17
409.235	1	9
409.406	1	22
409.577	1	17
409.747	1	16
409.918	1	17
410.089	1	6
410.259	1	18
410.430	1	9
410.601	1	21
410.771	1	24
410.942	1	11
411.113	1	26
411.283	1	16
411.454	1	18
411.625	1	21
411.795	1	17
411.966	1	16
412.137	1	29
412.307	1	1
412.478	1	15
412.649	1	16
412.819	1	14
412.990	1	18
413.161	1	18
413.331	1	21
413.502	1	25
413.672	1	10
413.843	1	18
414.014	1	14
414.184	1	16
414.355	1	25
414.526	1	14
414.696	1	19
414.867	1	22
415.038	1	18
415.208	1	0
415.379	1	14
415.550	1	12
415.720	1	11
415.891	1	15
416.062	1	9
416.232	1	22
416.403	1	14
416.573	1	17
416.744	1	22
416.915	1	3
417.085	1	18
417.256	1	12
417.427	1	22
417.597	1	15
417.768	1	16
417.939	1	16
418.109	1	30
418.280	1	19
418.450	1	17
418.621	1	24
418.792	1	10
418.962	1	13
419.133	1	23
419.304	1	11
419.474	1	18
419.645	1	15
419.815	1	21
419.986	1	14
420.157	1	14
420.327	1	11
420.498	1	0
420.669	1	17
420.839	1	15
421.010	1	22
421.180	1	12
421.351	1	4
421.522	1	10
421.692	1	25
421.863	1	21
422.033	1	15
422.204	1	20
422.375	1	22
422.545	1	22
422.716	1	15
422.886	1	23
423.057	1	22
423.228	1	14
423.398	1	33
423.569	1	14
423.740	1	21
423.910	1	24
424.081	1	20
424.251	1	18
424.422	1	7
424.593	1	18
424.763	1	13
424.934	1	21
425.104	1	23
425.275	1	20
425.445	1	14
425.616	1	20
425.787	1	21
425.957	1	20
426.128	1	21
426.298	1	11
426.469	1	25
426.640	1	8
426.810	1	28
426.981	1	19
427.151	1	16
427.322	1	20
427.493	1	22
427.663	1	12
427.834	1	6
428.004	1	29
428.175	1	12
428.345	1	17
428.516	1	28
428.687	1	20
428.857	1	-4
429.028	1	11
429.198	1	17
429.369	1	8
429.540	1	27
429.710	1	13
429.881	1	13
430.051	1	16
430.222	1	28
430.392	1	17
430.563	1	11
430.734	1	12
430.904	1	13
431.075	1	18
431.245	1	11
431.416	1	8
431.586	1	15
431.757	1	21
431.927	1	13
432.098	1	8
432.269	1	19
432.439	1	14
432.610	1	19
432.780	1	6
432.951	1	14
433.121	1	11
433.292	1	18
433.462	1	19
433.633	1	20
433.804	1	12
433.974	1	26
434.145	1	22
434.315	1	14
434.486	1	13
434.656	1	19
434.827	1	11
434.997	1	15
435.168	1	10
435.339	1	13
435.509	1	25
435.680	1	16
435.850	1	13
436.021	1	17
436.191	1	22
436.362	1	22
436.532	1	21
436.703	1	24
436.873	1	8
437.044	1	22
437.214	1	16
437.385	1	19
437.556	1	14
437.726	1	11
437.897	1	18
438.067	1	16
438.238	1	16
438.408	1	19
438.579	1	11
438.749	1	14
438.920	1	18
439.090	1	22
439.261	1	11
439.431	1	19
439.602	1	24
439.772	1	9
439.943	1	19
440.113	1	11
440.284	1	16
440.455	1	8
440.625	1	24
440.796	1	22
440.966	1	15
441.137	1	10
441.307	1	24
441.478	1	7
441.648	1	25
441.819	1	7
441.989	1	15
442.160	1	12
442.330	1	18
442.501	1	13
442.671	1	19
442.842	1	10
443.012	1	25
443.183	1	12
443.353	1	16
443.524	1	7
443.694	1	14
443.865	1	1
444.035	1	24
444.206	1	12
444.376	1	13
444.547	1	11
444.717	1	10
444.888	1	19
445.058	1	20
445.229	1	12
445.399	1	6
445.570	1	9
445.740	1	12
445.911	1	6
446.081	1	6
446.252	1	10
446.422	1	1
446.593	1	11
446.763	1	19
446.934	1	10
447.104	1	20
447.275	1	8
447.445	1	27
447.616	1	12
447.786	1	8
447.957	1	7
448.127	1	12
448.298	1	14
448.468	1	10
448.639	1	26
448.809	1	27
448.979	1	12
449.150	1	14
449.320	1	15
449.491	1	25
449.661	1	12
449.832	1	10
450.002	1	15
450.173	1	21
450.343	1	4
450.514	1	17
450.684	1	20
450.855	1	19
451.025	1	9
451.196	1	24
451.366	1	7
451.537	1	9
451.707	1	24
451.878	1	18
452.048	1	6
452.218	1	10
452.389	1	17
452.559	1	22
452.730	1	7
452.900	1	14
453.071	1	6
453.241	1	14
453.412	1	18
453.582	1	4
453.753	1	21
453.923	1	7
454.093	1	-2
454.264	1	11
454.434	1	8
454.605	1	11
454.775	1	10
454.946	1	21
455.116	1	4
455.287	1	19
455.457	1	6
455.628	1	-3
455.798	1	2
455.968	1	12
456.139	1	7
456.309	1	17
456.480	1	5
456.650	1	10
456.821	1	11
456.991	1	18
457.161	1	15
457.332	1	17
457.502	1	26
457.673	1	11
457.843	1	10
458.014	1	11
458.184	1	17
458.355	1	13
458.525	1	17
458.695	1	5
458.866	1	6
459.036	1	-1
459.207	1	14
459.377	1	11
459.548	1	6
459.718	1	0
459.888	1	12
460.059	1	10
460.229	1	18
460.400	1	27
460.570	1	0
460.740	1	1
460.911	1	28
461.081	1	8
461.252	1	4
461.422	1	12
461.593	1	22
461.763	1	11
461.933	1	13
462.104	1	5
462.274	1	10
462.445	1	13
462.615	1	16
462.785	1	-2
462.956	1	8
463.126	1	15
463.297	1	18
463.467	1	12
463.638	1	15
463.808	1	16
463.978	1	5
464.149	1	10
464.319	1	-4
464.490	1	0
464.660	1	6
464.830	1	6
465.001	1	15
465.171	1	5
465.342	1	5
465.512	1	14
465.682	1	3
465.853	1	0
466.023	1	12
466.194	1	16
466.364	1	22
466.534	1	2
466.705	1	3
466.875	1	15
467.045	1	22
467.216	1	20
467.386	1	4
467.557	1	11
467.727	1	11
467.897	1	20
468.068	1	-2
468.238	1	-2
468.409	1	4
468.579	1	6
468.749	1	19
468.920	1	10
469.090	1	14
469.260	1	15
469.431	1	4
469.601	1	17
469.772	1	3
469.942	1	4
470.112	1	-1
470.283	1	6
470.453	1	11
470.623	1	10
470.794	1	-8
470.964	1	8
471.135	1	17
471.305	1	5
471.475	1	8
471.646	1	5
471.816	1	7
471.986	1	17
472.157	1	7
472.327	1	-1
472.497	1	12
472.668	1	-3
472.838	1	10
473.009	1	11
473.179	1	3
473.349	1	3
473.520	1	4
473.690	1	4
473.860	1	3
474.031	1	21
474.201	1	9
474.371	1	18
474.542	1	15
474.712	1	9
474.882	1	4
475.053	1	3
475.223	1	17
475.394	1	-3
475.564	1	6
475.734	1	10
475.905	1	4
476.075	1	6
476.245	1	9
476.416	1	-2
476.586	1	16
476.756	1	4
476.927	1	1
477.097	1	10
477.267	1	1
477.438	1	-2
477.608	1	11
477.778	1	6
477.949	1	16
478.119	1	8
478.289	1	-1
478.460	1	-2
478.630	1	13
478.800	1	11
478.971	1	-3
479.141	1	6
479.311	1	13
479.482	1	3
479.652	1	12
479.822	1	3
479.993	1	12
480.163	1	11
480.333	1	2
480.504	1	3
480.674	1	3
480.844	1	7
481.015	1	17
481.185	1	9
481.355	1	13
481.525	1	0
481.696	1	15
481.866	1	6
482.036	1	11
482.207	1	6
482.377	1	-2
482.547	1	1
482.718	1	13
482.888	1	4
483.058	1	8
483.229	1	7
483.399	1	6
483.569	1	3
483.740	1	5
483.910	1	3
484.080	1	11
484.250	1	8
484.421	1	3
484.591	1	14
484.761	1	1
484.932	1	-7
485.102	1	6
485.272	1	6
485.443	1	15
485.613	1	4
485.783	1	10
485.953	1	9
486.124	1	3
486.294	1	6
486.464	1	9
486.635	1	1
486.805	1	7
486.975	1	-1
487.146	1	3
487.316	1	10
487.486	1	8
487.656	1	11
487.827	1	6
487.997	1	-11
488.167	1	9
488.338	1	4
488.508	1	7
488.678	1	7
488.848	1	12
489.019	1	12
489.189	1	6
489.359	1	-3
489.529	1	1
489.700	1	-4
489.870	1	7
490.040	1	5
490.211	1	24
490.381	1	11
490.551	1	9
490.721	1	3
490.892	1	-2
491.062	1	4
491.232	1	16
491.402	1	12
491.573	1	4
491.743	1	13
491.913	1	16
492.084	1	6
492.254	1	13
492.424	1	11
492.594	1	2
492.765	1	-5
492.935	1	9
493.105	1	9
493.275	1	8
493.446	1	1
493.616	1	9
493.786	1	3
493.956	1	15
494.127	1	17
494.297	1	8
494.467	1	6
494.637	1	7
494.808	1	6
494.978	1	3
495.148	1	-12
495.318	1	17
495.489	1	8
495.659	1	0
495.829	1	16
495.999	1	6
496.170	1	0
496.340	1	2
496.510	1	-1
496.680	1	8
496.851	1	10
497.021	1	15
497.191	1	13
497.361	1	13
497.532	1	-2
497.702	1	8
497.872	1	2
498.042	1	9
498.213	1	12
498.383	1	10
498.553	1	9
498.723	1	-4
498.894	1	8
499.064	1	0
499.234	1	16
499.404	1	-2
499.574	1	0
499.745	1	7
499.915	1	11
500.085	1	1
500.255	1	0
500.426	1	-4
500.596	1	9
500.766	1	11
500.936	1	17
501.106	1	-1
501.277	1	-1
501.447	1	-7
501.617	1	5
501.787	1	14
501.958	1	-4
502.128	1	3
502.298	1	1
502.468	1	9
502.638	1	0
502.809	1	6
502.979	1	15
503.149	1	5
503.319	1	1
503.489	1	-1
503.660	1	-3
503.830	1	-8
504.000	1	8
504.170	1	3
504.340	1	4
504.511	1	3
504.681	1	7
504.851	1	11
505.021	1	4
505.192	1	7
505.362	1	4
505.532	1	-3
505.702	1	8
505.872	1	11
506.043	1	11
506.213	1	4
506.383	1	4
506.553	1	7
506.723	1	2
506.893	1	8
507.064	1	2
507.234	1	9
507.404	1	7
507.574	1	-8
507.744	1	9
507.915	1	-2
508.085	1	15
508.255	1	-5
508.425	1	7
508.595	1	8
508.766	1	6
508.936	1	-4
509.106	1	5
509.276	1	9
509.446	1	0
509.616	1	14
509.787	1	1
509.957	1	3
510.127	1	-1
510.297	1	6
510.467	1	2
510.638	1	9
510.808	1	-2
510.978	1	11
511.148	1	2
511.318	1	2
511.488	1	5
511.659	1	0
511.829	1	-5
511.999	1	13
512.169	1	6
512.339	1	2
512.509	1	5
512.680	1	6
512.850	1	6
513.020	1	-2
513.190	1	3
513.360	1	4
513.530	1	1
513.700	1	12
513.871	1	8
514.041	1	14
514.211	1	5
514.381	1	0
514.551	1	8
514.721	1	9
514.892	1	-7
515.062	1	-1
515.232	1	3
515.402	1	6
515.572	1	13
515.742	1	6
515.912	1	4
516.083	1	10
516.253	1	-1
516.423	1	9
516.593	1	1
516.763	1	-2
516.933	1	-3
517.104	1	-3
517.274	1	6
517.444	1	-1
517.614	1	-10
517.784	1	3
517.954	1	7
518.124	1	17
518.294	1	4
518.465	1	-8
518.635	1	6
518.805	1	6
518.975	1	5
519.145	1	4
519.315	1	-2
519.485	1	8
519.656	1	4
519.826	1	5
519.996	1	8
520.166	1	2
520.336	1	-5
520.506	1	-5
520.676	1	-5
520.846	1	13
521.017	1	10
521.187	1	3
521.357	1	-1
521.527	1	-2
521.697	1	8
521.867	1	-3
522.037	1	12
522.207	1	-2
522.377	1	3
522.548	1	4
522.718	1	8
522.888	1	12
523.058	1	-2
523.228	1	3
523.398	1	12
523.568	1	-2
523.738	1	2
523.909	1	6
524.079	1	14
524.249	1	14
524.419	1	0
524.589	1	5
524.759	1	8
524.929	1	-3
525.099	1	2
525.269	1	-11
525.439	1	-2
525.610	1	1
525.780	1	7
525.950	1	-1
526.120	1	9
526.290	1	10
526.460	1	1
526.630	1	-3
526.800	1	-5
526.970	1	-5
527.140	1	14
527.311	1	12
527.481	1	16
527.651	1	7
527.821	1	-4
527.991	1	4
528.161	1	2
528.331	1	-7
528.501	1	-5
528.671	1	2
528.841	1	8
529.011	1	-4
529.181	1	4
529.352	1	5
529.522	1	2
529.692	1	-2
529.862	1	-7
530.032	1	3
530.202	1	-2
530.372	1	4
530.542	1	-3
530.712	1	8
530.882	1	-9
531.052	1	1
531.222	1	3
531.392	1	3
531.563	1	0
531.733	1	10
531.903	1	2
532.073	1	-1
532.243	1	7
532.413	1	1
532.583	1	6
532.753	1	4
532.923	1	3
533.093	1	13
533.263	1	7
533.433	1	6
533.603	1	14
533.773	1	11
533.943	1	0
534.113	1	2
534.284	1	-3
534.454	1	6
534.624	1	-6
534.794	1	3
534.964	1	4
535.134	1	10
535.304	1	17
535.474	1	-1
535.644	1	1
535.814	1	-4
535.984	1	9
536.154	1	-1
536.324	1	-2
536.494	1	-6
536.664	1	9
536.834	1	8
537.004	1	8
537.174	1	4
537.344	1	7
537.514	1	3
537.685	1	6
537.855	1	1
538.025	1	-2
538.195	1	2
538.365	1	5
538.535	1	4
538.705	1	-5
538.875	1	1
539.045	1	2
539.215	1	16
539.385	1	-1
539.555	1	-8
539.725	1	1
539.895	1	10
540.065	1	-8
540.235	1	-5
540.405	1	3
540.575	1	10
540.745	1	2
540.915	1	8
541.085	1	-3
541.255	1	10
541.425	1	-7
541.595	1	-3
541.765	1	0
541.935	1	5
542.105	1	2
542.275	1	2
542.445	1	-3
542.615	1	-1
542.785	1	1
542.955	1	6
543.125	1	0
543.295	1	3
543.465	1	11
543.635	1	6
543.805	1	-3
543.975	1	4
544.145	1	-7
544.315	1	5
544.485	1	0
544.655	1	6
544.825	1	8
544.995	1	-3
545.165	1	9
545.335	1	-1
545.505	1	1
545.675	1	5
545.845	1	12
546.015	1	-5
546.185	1	13
546.355	1	5
546.525	1	-3
546.695	1	2
546.865	1	-5
547.035	1	4
547.205	1	4
547.375	1	7
547.545	1	5
547.715	1	-5
547.885	1	-3
548.055	1	12
548.225	1	6
548.395	1	-3
548.565	1	6
548.735	1	4
548.905	1	14
549.075	1	0
549.245	1	3
549.415	1	5
549.585	1	3
549.755	1	-1
549.925	1	11
550.095	1	-4
550.265	1	5
550.435	1	0
550.605	1	0
550.775	1	2
550.945	1	-3
551.115	1	5
551.285	1	5
551.455	1	4
551.625	1	15
551.795	1	4
551.965	1	-4
552.135	1	6
552.305	1	6
552.475	1	8
552.645	1	2
552.815	1	3
552.985	1	-10
553.155	1	1
553.325	1	4
553.495	1	2
553.665	1	7
553.835	1	3
554.004	1	4
554.174	1	-4
554.344	1	15
554.514	1	-2
554.684	1	-11
554.854	1	1
555.024	1	-17
555.194	1	4
555.364	1	11
555.534	1	-4
555.704	1	2
555.874	1	6
556.044	1	3
556.214	1	-1
556.384	1	3
556.554	1	-2
556.724	1	-9
556.894	1	3
557.064	1	2
557.234	1	7
557.404	1	5
557.573	1	11
557.743	1	-9
557.913	1	7
558.083	1	8
558.253	1	-3
558.423	1	-4
558.593	1	11
558.763	1	13
558.933	1	11
559.103	1	-3
559.273	1	1
559.443	1	5
559.613	1	-9
559.783	1	3
559.953	1	-11
560.122	1	-2
560.292	1	1
560.462	1	-13
560.632	1	9
560.802	1	-5
560.972	1	1
561.142	1	-7
561.312	1	-1
561.482	1	2
561.652	1	10
561.822	1	15
561.992	1	4
562.162	1	1
562.331	1	-4
562.501	1	-3
562.671	1	5
562.841	1	3
563.011	1	4
563.181	1	-6
563.351	1	1
563.521	1	-1
563.691	1	4
563.861	1	3
564.031	1	7
564.201	1	8
564.370	1	-2
564.540	1	-7
564.710	1	0
564.880	1	5
565.050	1	16
565.220	1	1
565.390	1	2
565.560	1	4
565.730	1	-1
565.900	1	6
566.069	1	8
566.239	1	6
566.409	1	9
566.579	1	9
566.749	1	2
566.919	1	-4
567.089	1	-8
567.259	1	7
567.429	1	1
567.599	1	3
567.768	1	-1
567.938	1	8
568.108	1	-1
568.278	1	7
568.448	1	-4
568.618	1	13
568.788	1	3
568.958	1	-5
569.128	1	-4
569.297	1	6
569.467	1	-9
569.637	1	11
569.807	1	1
569.977	1	15
570.147	1	-2
570.317	1	3
570.487	1	-5
570.656	1	3
570.826	1	4
570.996	1	4
571.166	1	9
571.336	1	6
571.506	1	0
571.676	1	2
571.846	1	6
572.015	1	-2
572.185	1	8
572.355	1	1
572.525	1	7
572.695	1	-1
572.865	1	4
573.035	1	10
573.205	1	14
573.374	1	9
573.544	1	-3
573.714	1	12
573.884	1	4
574.054	1	12
574.224	1	5
574.394	1	-5
574.563	1	2
574.733	1	4
574.903	1	4
575.073	1	6
575.243	1	6
575.413	1	2
575.583	1	9
575.752	1	5
575.922	1	9
576.092	1	1
576.262	1	3
576.432	1	7
576.602	1	-4
576.772	1	4
576.941	1	6
577.111	1	10
577.281	1	-1
577.451	1	5
577.621	1	3
577.791	1	7
577.960	1	7
578.130	1	6
578.300	1	-5
578.470	1	5
578.640	1	-1
578.810	1	2
578.979	1	2
579.149	1	8
579.319	1	5
579.489	1	-1
579.659	1	-2
579.829	1	8
579.998	1	9
580.168	1	0
580.338	1	-4
580.508	1	4
580.678	1	-8
580.848	1	-11
581.017	1	-1
581.187	1	4
581.357	1	6
581.527	1	-4
581.697	1	-6
581.867	1	11
582.036	1	6
582.206	1	6
582.376	1	2
582.546	1	-1
582.716	1	-5
582.885	1	5
583.055	1	3
583.225	1	10
583.395	1	-2
583.565	1	7
583.735	1	1
583.904	1	6
584.074	1	3
584.244	1	4
584.414	1	1
584.584	1	7
584.753	1	5
584.923	1	10
585.093	1	-9
585.263	1	3
585.433	1	-5
585.602	1	3
585.772	1	0
585.942	1	-4
586.112	1	4
586.282	1	-9
586.451	1	2
586.621	1	3
586.791	1	3
586.961	1	1
587.131	1	2
587.300	1	1
587.470	1	3
587.640	1	3
587.810	1	9
587.980	1	-3
588.149	1	-4
588.319	1	1
588.489	1	1
588.659	1	15
588.829	1	8
588.998	1	-2
589.168	1	6
589.338	1	0
589.508	1	1
589.677	1	-7
589.847	1	15
590.017	1	14
590.187	1	6
590.357	1	2
590.526	1	2
590.696	1	9
590.866	1	11
591.036	1	7
591.205	1	5
591.375	1	-5
591.545	1	13
591.715	1	-8
591.885	1	4
592.054	1	2
592.224	1	6
592.394	1	-6
592.564	1	-5
592.733	1	23
592.903	1	7
593.073	1	1
593.243	1	12
593.412	1	14
593.582	1	-3
593.752	1	6
593.922	1	-2
594.091	1	9
594.261	1	0
594.431	1	15
594.601	1	1
594.771	1	5
594.940	1	-13
595.110	1	5
595.280	1	7
595.450	1	13
595.619	1	-7
595.789	1	-8
595.959	1	13
596.129	1	8
596.298	1	14
596.468	1	4
596.638	1	-11
596.808	1	-5
596.977	1	9
597.147	1	4
597.317	1	-4
597.487	1	1
597.656	1	-6
597.826	1	4
597.996	1	-6
598.166	1	-1
598.335	1	0
598.505	1	8
598.675	1	4
598.844	1	0
599.014	1	-4
599.184	1	9
599.354	1	3
599.523	1	0
599.693	1	2
599.863	1	7
600.033	1	-5
600.202	1	11
600.372	1	3
600.542	1	1
600.712	1	-3
600.881	1	-5
601.051	1	2
601.221	1	4
601.390	1	0
601.560	1	-1
601.730	1	12
601.900	1	7
602.069	1	6
602.239	1	19
602.409	1	-1
602.578	1	-3
602.748	1	1
602.918	1	7
603.088	1	11
603.257	1	3
603.427	1	-2
603.597	1	10
603.767	1	-3
603.936	1	-7
604.106	1	0
604.276	1	6
604.445	1	-4
604.615	1	-4
604.785	1	20
604.954	1	4
605.124	1	8
605.294	1	-3
605.464	1	3
605.633	1	-2
605.803	1	6
605.973	1	11
606.142	1	11
606.312	1	-1
606.482	1	2
606.652	1	3
606.821	1	7
606.991	1	8
607.161	1	1
607.330	1	-4
607.500	1	2
607.670	1	-5
607.839	1	-2
608.009	1	2
608.179	1	7
608.348	1	15
608.518	1	-12
608.688	1	13
608.858	1	12
609.027	1	13
609.197	1	-5
609.367	1	-2
609.536	1	6
609.706	1	2
609.876	1	8
610.045	1	1
610.215	1	6
610.385	1	6
610.554	1	5
610.724	1	5
610.894	1	9
611.063	1	4
611.233	1	-3
611.403	1	13
611.572	1	5
611.742	1	0
611.912	1	4
612.081	1	15
612.251	1	5
612.421	1	0
612.590	1	-7
612.760	1	11
612.930	1	0
613.099	1	13
613.269	1	3
613.439	1	-2
613.608	1	9
613.778	1	-4
613.948	1	9
614.117	1	2
614.287	1	18
614.457	1	3
614.626	1	9
614.796	1	9
614.966	1	12
615.135	1	3
615.305	1	7
615.475	1	6
615.644	1	1
615.814	1	-1
615.984	1	8
616.153	1	1
616.323	1	7
616.493	1	-3
616.662	1	-3
616.832	1	6
617.002	1	0
617.171	1	-9
617.341	1	10
617.511	1	-11
617.680	1	11
617.850	1	7
618.019	1	6
618.189	1	-5
618.359	1	-4
618.528	1	5
618.698	1	-5
618.868	1	7
619.037	1	3
619.207	1	13
619.377	1	-10
619.546	1	7
619.716	1	10
619.885	1	11
620.055	1	0
620.225	1	13
620.394	1	8
620.564	1	7
620.734	1	5
620.903	1	4
621.073	1	6
621.242	1	12
621.412	1	-2
621.582	1	8
621.751	1	0
621.921	1	3
622.091	1	4
622.260	1	-1
622.430	1	3
622.599	1	7
622.769	1	-3
622.939	1	3
623.108	1	12
623.278	1	2
623.448	1	3
623.617	1	7
623.787	1	-5
623.956	1	11
624.126	1	-5
624.296	1	0
624.465	1	-4
624.635	1	10
624.804	1	9
624.974	1	7
625.144	1	1
625.313	1	12
625.483	1	13
625.652	1	2
625.822	1	6
625.992	1	5
626.161	1	20
626.331	1	11
626.501	1	21
626.670	1	-8
626.840	1	2
627.009	1	20
627.179	1	7
627.348	1	3
627.518	1	5
627.688	1	-2
627.857	1	11
628.027	1	2
628.196	1	-4
628.366	1	5
628.536	1	10
628.705	1	6
628.875	1	11
629.044	1	6
629.214	1	12
629.384	1	1
629.553	1	9
629.723	1	5
629.892	1	14
630.062	1	4
630.232	1	-3
630.401	1	10
630.571	1	6
630.740	1	9
630.910	1	18
631.079	1	14
631.249	1	9
631.419	1	0
631.588	1	0
631.758	1	-1
631.927	1	1
632.097	1	7
632.266	1	14
632.436	1	5
632.606	1	13
632.775	1	14
632.945	1	8
633.114	1	4
633.284	1	10
633.453	1	-9
633.623	1	13
633.793	1	10
633.962	1	9
634.132	1	5
634.301	1	7
634.471	1	-4
634.640	1	0
634.810	1	18
634.979	1	9
635.149	1	7
635.319	1	14
635.488	1	3
635.658	1	17
635.827	1	8
635.997	1	3
636.166	1	8
636.336	1	13
636.505	1	12
636.675	1	-1
636.845	1	6
637.014	1	18
637.184	1	9
637.353	1	6
637.523	1	14
637.692	1	3
637.862	1	2
638.031	1	3
638.201	1	16
638.370	1	12
638.540	1	6
638.710	1	2
638.879	1	3
639.049	1	16
639.218	1	1
639.388	1	1
639.557	1	8
639.727	1	4
639.896	1	13
640.066	1	17
640.235	1	16
640.405	1	10
640.574	1	21
640.744	1	10
640.914	1	-3
641.083	1	-1
641.253	1	-3
641.422	1	-6
641.592	1	0
641.761	1	1
641.931	1	11
642.100	1	1
642.270	1	0
642.439	1	10
642.609	1	1
642.778	1	-11
642.948	1	15
643.117	1	0
643.287	1	7
643.456	1	-2
643.626	1	12
643.795	1	-2
643.965	1	13
644.134	1	14
644.304	1	8
644.473	1	8
644.643	1	7
644.812	1	9
644.982	1	4
645.151	1	3
645.321	1	3
645.490	1	12
645.660	1	3
645.829	1	13
645.999	1	13
646.168	1	9
646.338	1	-5
646.507	1	3
646.677	1	6
646.846	1	5
647.016	1	7
647.185	1	-2
647.355	1	2
647.524	1	11
647.694	1	3
647.863	1	11
648.033	1	3
648.202	1	2
648.372	1	0
648.541	1	7
648.711	1	5
648.880	1	7
649.050	1	-5
649.219	1	3
649.389	1	4
649.558	1	3
649.728	1	6
649.897	1	4
650.067	1	-1
650.236	1	1
650.406	1	5
650.575	1	8
650.745	1	2
650.914	1	17
651.084	1	-1
651.253	1	2
651.423	1	18
651.592	1	10
651.762	1	7
651.931	1	12
652.101	1	-2
652.270	1	11
652.440	1	-1
652.609	1	18
652.778	1	0
652.948	1	8
653.117	1	5
653.287	1	11
653.456	1	3
653.626	1	10
653.795	1	7
653.965	1	7
654.134	1	-3
654.304	1	0
654.473	1	6
654.643	1	-6
654.812	1	3
654.982	1	-1
655.151	1	5
655.320	1	3
655.490	1	3
655.659	1	3
655.829	1	6
655.998	1	13
656.168	1	9
656.337	1	8
656.507	1	1
656.676	1	1
656.846	1	8
657.015	1	14
657.184	1	5
657.354	1	8
657.523	1	2
657.693	1	2
657.862	1	6
658.032	1	11
658.201	1	12
658.371	1	7
658.540	1	1
658.709	1	0
658.879	1	12
659.048	1	4
659.218	1	9
659.387	1	-1
659.557	1	2
659.726	1	8
659.895	1	-5
660.065	1	8
660.234	1	-9
660.404	1	8
660.573	1	-8
660.743	1	8
660.912	1	0
661.081	1	-1
661.251	1	8
661.420	1	0
661.590	1	9
661.759	1	11
661.929	1	10
662.098	1	-2
662.267	1	9
662.437	1	0
662.606	1	5
662.776	1	2
662.945	1	10
663.115	1	0
663.284	1	1
663.453	1	11
663.623	1	-2
663.792	1	4
663.962	1	3
664.131	1	0
664.300	1	-6
664.470	1	6
664.639	1	20
664.809	1	7
664.978	1	-4
665.148	1	13
665.317	1	18
665.486	1	-4
665.656	1	6
665.825	1	11
665.995	1	-3
666.164	1	11
666.333	1	0
666.503	1	9
666.672	1	16
666.842	1	12
667.011	1	4
667.180	1	-5
667.350	1	0
667.519	1	-5
667.689	1	6
667.858	1	4
668.027	1	5
668.197	1	5
668.366	1	14
668.536	1	-1
668.705	1	6
668.874	1	4
669.044	1	-1
669.213	1	5
669.382	1	6
669.552	1	4
669.721	1	-3
669.891	1	-3
670.060	1	10
670.229	1	11
670.399	1	6
670.568	1	-7
670.738	1	9
670.907	1	9
671.076	1	-4
671.246	1	0
671.415	1	-4
671.584	1	-1
671.754	1	0
671.923	1	-5
672.093	1	-6
672.262	1	-1
672.431	1	1
672.601	1	3
672.770	1	3
672.939	1	-8
673.109	1	3
673.278	1	2
673.448	1	15
673.617	1	4
673.786	1	-1
