325.333	1	17
325.504	1	0
325.675	1	5
325.846	1	-4
326.017	1	6
326.188	1	16
326.359	1	-3
326.531	1	16
326.702	1	21
326.873	1	10
327.044	1	12
327.215	1	1
327.386	1	8
327.557	1	5
327.728	1	7
327.899	1	15
328.070	1	10
328.241	1	4
328.412	1	4
328.583	1	14
328.754	1	7
328.926	1	4
329.097	1	9
329.268	1	15
329.439	1	3
329.610	1	6
329.781	1	-4
329.952	1	-1
330.123	1	12
330.294	1	16
330.465	1	10
330.636	1	13
330.807	1	9
330.978	1	4
331.149	1	12
331.320	1	12
331.492	1	11
331.663	1	11
331.834	1	14
332.005	1	6
332.176	1	6
332.347	1	8
332.518	1	0
332.689	1	14
332.860	1	6
333.031	1	-4
333.202	1	1
333.373	1	18
333.544	1	8
333.715	1	7
333.886	1	11
334.057	1	20
334.228	1	6
334.399	1	-1
334.570	1	11
334.741	1	3
334.912	1	12
335.084	1	15
335.255	1	12
335.426	1	2
335.597	1	8
335.768	1	2
335.939	1	13
336.110	1	13
336.281	1	13
336.452	1	9
336.623	1	3
336.794	1	5
336.965	1	19
337.136	1	7
337.307	1	11
337.478	1	3
337.649	1	15
337.820	1	-1
337.991	1	12
338.162	1	18
338.333	1	12
338.504	1	10
338.675	1	10
338.846	1	16
339.017	1	11
339.188	1	6
339.359	1	3
339.530	1	14
339.701	1	13
339.872	1	12
340.043	1	12
340.214	1	4
340.385	1	0
340.556	1	15
340.727	1	16
340.898	1	16
341.069	1	-1
341.240	1	13
341.411	1	19
341.582	1	10
341.753	1	17
341.924	1	15
342.095	1	9
342.266	1	10
342.437	1	11
342.608	1	15
342.779	1	2
342.950	1	7
343.121	1	9
343.292	1	10
343.463	1	5
343.634	1	6
343.805	1	9
343.976	1	2
344.147	1	0
344.318	1	9
344.489	1	10
344.660	1	23
344.831	1	3
345.002	1	8
345.173	1	3
345.344	1	5
345.515	1	9
345.686	1	5
345.857	1	1
346.028	1	10
346.199	1	-3
346.370	1	17
346.541	1	6
346.712	1	16
346.883	1	15
347.054	1	11
347.225	1	1
347.396	1	3
347.567	1	15
347.738	1	12
347.909	1	8
348.080	1	2
348.251	1	10
348.422	1	4
348.593	1	-1
348.764	1	11
348.935	1	7
349.106	1	2
349.277	1	17
349.448	1	8
349.619	1	-3
349.790	1	12
349.961	1	11
350.132	1	7
350.303	1	4
350.474	1	0
350.645	1	10
350.816	1	5
350.987	1	1
351.157	1	11
351.328	1	-3
351.499	1	23
351.670	1	7
351.841	1	15
352.012	1	12
352.183	1	-2
352.354	1	11
352.525	1	4
352.696	1	20
352.867	1	13
353.038	1	14
353.209	1	19
353.380	1	10
353.551	1	4
353.722	1	0
353.893	1	0
354.064	1	6
354.235	1	6
354.406	1	13
354.576	1	4
354.747	1	10
354.918	1	15
355.089	1	11
355.260	1	11
355.431	1	-4
355.602	1	4
355.773	1	13
355.944	1	8
356.115	1	8
356.286	1	12
356.457	1	12
356.628	1	8
356.799	1	1
356.970	1	-4
357.141	1	13
357.311	1	8
357.482	1	5
357.653	1	-4
357.824	1	-1
357.995	1	10
358.166	1	11
358.337	1	11
358.508	1	6
358.679	1	8
358.850	1	5
359.021	1	0
359.192	1	6
359.363	1	1
359.533	1	5
359.704	1	7
359.875	1	8
360.046	1	-1
360.217	1	17
360.388	1	2
360.559	1	0
360.730	1	6
360.901	1	16
361.072	1	9
361.243	1	8
361.414	1	10
361.584	1	6
361.755	1	10
361.926	1	6
362.097	1	7
362.268	1	9
362.439	1	7
362.610	1	17
362.781	1	1
362.952	1	0
363.123	1	4
363.293	1	16
363.464	1	1
363.635	1	15
363.806	1	8
363.977	1	25
364.148	1	2
364.319	1	7
364.490	1	13
364.661	1	-1
364.832	1	3
365.002	1	-1
365.173	1	-7
365.344	1	4
365.515	1	4
365.686	1	8
365.857	1	2
366.028	1	0
366.199	1	-8
366.370	1	-3
366.540	1	4
366.711	1	6
366.882	1	10
367.053	1	14
367.224	1	0
367.395	1	7
367.566	1	10
367.737	1	15
367.908	1	7
368.078	1	10
368.249	1	6
368.420	1	8
368.591	1	11
368.762	1	14
368.933	1	15
369.104	1	4
369.274	1	11
369.445	1	14
369.616	1	7
369.787	1	3
369.958	1	11
370.129	1	15
370.300	1	15
370.471	1	6
370.641	1	17
370.812	1	-3
370.983	1	10
371.154	1	15
371.325	1	17
371.496	1	5
371.667	1	0
371.837	1	14
372.008	1	8
372.179	1	11
372.350	1	3
372.521	1	3
372.692	1	6
372.863	1	19
373.033	1	10
373.204	1	13
373.375	1	12
373.546	1	-2
373.717	1	1
373.888	1	4
374.059	1	3
374.229	1	5
374.400	1	9
374.571	1	8
374.742	1	10
374.913	1	-14
375.084	1	9
375.254	1	9
375.425	1	17
375.596	1	8
375.767	1	11
375.938	1	1
376.109	1	-2
376.279	1	4
376.450	1	4
376.621	1	10
376.792	1	4
376.963	1	3
377.134	1	7
377.304	1	3
377.475	1	6
377.646	1	8
377.817	1	16
377.988	1	-1
378.159	1	10
378.329	1	5
378.500	1	4
378.671	1	11
378.842	1	14
379.013	1	18
379.184	1	6
379.354	1	10
379.525	1	12
379.696	1	6
379.867	1	10
380.038	1	12
380.209	1	3
380.379	1	10
380.550	1	4
380.721	1	11
380.892	1	3
381.063	1	15
381.233	1	24
381.404	1	14
381.575	1	14
381.746	1	1
381.917	1	5
382.087	1	11
382.258	1	7
382.429	1	14
382.600	1	9
382.771	1	11
382.941	1	4
383.112	1	9
383.283	1	3
383.454	1	10
383.625	1	7
383.795	1	17
383.966	1	15
384.137	1	4
384.308	1	15
384.479	1	17
384.649	1	18
384.820	1	13
384.991	1	20
385.162	1	10
385.333	1	6
385.503	1	10
385.674	1	9
385.845	1	16
386.016	1	14
386.187	1	7
386.357	1	2
386.528	1	20
386.699	1	-3
386.870	1	8
387.041	1	3
387.211	1	9
387.382	1	16
387.553	1	17
387.724	1	-12
387.894	1	4
388.065	1	15
388.236	1	10
388.407	1	14
388.578	1	12
388.748	1	9
388.919	1	13
389.090	1	10
389.261	1	8
389.431	1	10
389.602	1	21
389.773	1	7
389.944	1	12
390.114	1	3
390.285	1	19
390.456	1	16
390.627	1	20
390.798	1	13
390.968	1	12
391.139	1	0
391.310	1	12
391.481	1	15
391.651	1	11
391.822	1	11
391.993	1	0
392.164	1	19
392.334	1	9
392.505	1	5
392.676	1	13
392.847	1	11
393.017	1	8
393.188	1	10
393.359	1	16
393.530	1	17
393.700	1	14
393.871	1	9
394.042	1	23
394.213	1	10
394.383	1	15
394.554	1	7
394.725	1	15
394.896	1	14
395.066	1	12
395.237	1	17
395.408	1	12
395.579	1	13
395.749	1	13
395.920	1	4
396.091	1	13
396.262	1	5
396.432	1	18
396.603	1	13
396.774	1	17
396.945	1	8
397.115	1	18
397.286	1	3
397.457	1	20
397.627	1	13
397.798	1	18
397.969	1	17
398.140	1	8
398.310	1	20
398.481	1	16
398.652	1	15
398.823	1	13
398.993	1	11
399.164	1	1
399.335	1	23
399.505	1	13
399.676	1	11
399.847	1	5
400.018	1	13
400.188	1	14
400.359	1	2
400.530	1	24
400.700	1	13
400.871	1	26
401.042	1	18
401.213	1	19
401.383	1	24
401.554	1	16
401.725	1	10
401.895	1	11
402.066	1	9
402.237	1	26
402.408	1	11
402.578	1	22
402.749	1	28
402.920	1	11
403.090	1	6
403.261	1	28
403.432	1	15
403.603	1	16
403.773	1	19
403.944	1	14
404.115	1	19
404.285	1	8
404.456	1	25
404.627	1	17
404.797	1	22
404.968	1	21
405.139	1	20
405.310	1	29
405.480	1	9
405.651	1	16
405.822	1	17
405.992	1	20
406.163	1	16
406.334	1	23
406.504	1	19
406.675	1	22
406.846	1	15
407.016	1	27
407.187	1	24
407.358	1	17
407.528	1	14
407.699	1	16
407.870	1	26
408.041	1	27
408.211	1	17
408.382	1	21
408.553	1	27
408.723	1	22
408.894	1	22
409.065	1	10
409.235	1	13
409.406	1	26
409.577	1	23
409.747	1	27
409.918	1	12
410.089	1	19
410.259	1	27
410.430	1	19
410.601	1	28
410.771	1	39
410.942	1	22
411.113	1	24
411.283	1	25
411.454	1	31
411.625	1	14
411.795	1	24
411.966	1	26
412.137	1	23
412.307	1	17
412.478	1	16
412.649	1	22
412.819	1	33
412.990	1	16
413.161	1	20
413.331	1	35
413.502	1	24
413.672	1	8
413.843	1	31
414.014	1	13
414.184	1	28
414.355	1	29
414.526	1	13
414.696	1	29
414.867	1	33
415.038	1	15
415.208	1	17
415.379	1	24
415.550	1	15
415.720	1	27
415.891	1	21
416.062	1	20
416.232	1	25
416.403	1	7
416.573	1	27
416.744	1	16
416.915	1	17
417.085	1	33
417.256	1	21
417.427	1	23
417.597	1	29
417.768	1	22
417.939	1	20
418.109	1	39
418.280	1	23
418.450	1	16
418.621	1	22
418.792	1	16
418.962	1	29
419.133	1	41
419.304	1	23
419.474	1	20
419.645	1	23
419.815	1	24
419.986	1	32
420.157	1	14
420.327	1	12
420.498	1	16
420.669	1	21
420.839	1	19
421.010	1	19
421.180	1	26
421.351	1	12
421.522	1	15
421.692	1	23
421.863	1	18
422.033	1	12
422.204	1	16
422.375	1	35
422.545	1	29
422.716	1	20
422.886	1	34
423.057	1	29
423.228	1	20
423.398	1	33
423.569	1	36
423.740	1	26
423.910	1	21
424.081	1	21
424.251	1	24
424.422	1	28
424.593	1	21
424.763	1	37
424.934	1	33
425.104	1	29
425.275	1	30
425.445	1	21
425.616	1	22
425.787	1	37
425.957	1	30
426.128	1	22
426.298	1	14
426.469	1	29
426.640	1	14
426.810	1	34
426.981	1	19
427.151	1	25
427.322	1	35
427.493	1	26
427.663	1	27
427.834	1	19
428.004	1	24
428.175	1	9
428.345	1	31
428.516	1	33
428.687	1	20
428.857	1	15
429.028	1	18
429.198	1	10
429.369	1	26
429.540	1	18
429.710	1	26
429.881	1	17
430.051	1	19
430.222	1	19
430.392	1	27
430.563	1	23
430.734	1	24
430.904	1	19
431.075	1	34
431.245	1	9
431.416	1	17
431.586	1	16
431.757	1	22
431.927	1	20
432.098	1	23
432.269	1	25
432.439	1	17
432.610	1	27
432.780	1	14
432.951	1	26
433.121	1	20
433.292	1	23
433.462	1	32
433.633	1	46
433.804	1	28
433.974	1	25
434.145	1	25
434.315	1	23
434.486	1	28
434.656	1	27
434.827	1	15
434.997	1	23
435.168	1	31
435.339	1	21
435.509	1	31
435.680	1	20
435.850	1	12
436.021	1	33
436.191	1	19
436.362	1	22
436.532	1	26
436.703	1	28
436.873	1	17
437.044	1	36
437.214	1	18
437.385	1	34
437.556	1	15
437.726	1	18
437.897	1	23
438.067	1	21
438.238	1	15
438.408	1	27
438.579	1	13
438.749	1	10
438.920	1	18
439.090	1	22
439.261	1	14
439.431	1	25
439.602	1	15
439.772	1	23
439.943	1	15
440.113	1	23
440.284	1	18
440.455	1	17
440.625	1	24
440.796	1	15
440.966	1	25
441.137	1	7
441.307	1	36
441.478	1	5
441.648	1	24
441.819	1	26
441.989	1	16
442.160	1	23
442.330	1	30
442.501	1	18
442.671	1	19
442.842	1	25
443.012	1	16
443.183	1	13
443.353	1	23
443.524	1	18
443.694	1	13
443.865	1	10
444.035	1	36
444.206	1	17
444.376	1	23
444.547	1	16
444.717	1	22
444.888	1	21
445.058	1	21
445.229	1	15
445.399	1	13
445.570	1	19
445.740	1	14
445.911	1	14
446.081	1	8
446.252	1	5
446.422	1	13
446.593	1	20
446.763	1	18
446.934	1	5
447.104	1	19
447.275	1	13
447.445	1	24
447.616	1	22
447.786	1	22
447.957	1	11
448.127	1	5
448.298	1	12
448.468	1	19
448.639	1	19
448.809	1	21
448.979	1	7
449.150	1	27
449.320	1	22
449.491	1	13
449.661	1	18
449.832	1	9
450.002	1	10
450.173	1	19
450.343	1	13
450.514	1	19
450.684	1	27
450.855	1	17
451.025	1	18
451.196	1	21
451.366	1	24
451.537	1	10
451.707	1	29
451.878	1	14
452.048	1	7
452.218	1	25
452.389	1	27
452.559	1	28
452.730	1	16
452.900	1	15
453.071	1	19
453.241	1	25
453.412	1	21
453.582	1	15
453.753	1	19
453.923	1	12
454.093	1	6
454.264	1	23
454.434	1	16
454.605	1	7
454.775	1	13
454.946	1	13
455.116	1	12
455.287	1	26
455.457	1	15
455.628	1	3
455.798	1	11
455.968	1	13
456.139	1	7
456.309	1	17
456.480	1	14
456.650	1	22
456.821	1	5
456.991	1	16
457.161	1	19
457.332	1	24
457.502	1	27
457.673	1	12
457.843	1	12
458.014	1	15
458.184	1	14
458.355	1	21
458.525	1	13
458.695	1	2
458.866	1	6
459.036	1	9
459.207	1	16
459.377	1	22
459.548	1	13
459.718	1	16
459.888	1	20
460.059	1	5
460.229	1	20
460.400	1	29
460.570	1	19
460.740	1	11
460.911	1	30
461.081	1	7
461.252	1	9
461.422	1	6
461.593	1	12
461.763	1	21
461.933	1	11
462.104	1	8
462.274	1	12
462.445	1	22
462.615	1	17
462.785	1	14
462.956	1	9
463.126	1	15
463.297	1	16
463.467	1	1
463.638	1	11
463.808	1	13
463.978	1	5
464.149	1	22
464.319	1	3
464.490	1	2
464.660	1	8
464.830	1	14
465.001	1	19
465.171	1	13
465.342	1	4
465.512	1	8
465.682	1	13
465.853	1	4
466.023	1	16
466.194	1	12
466.364	1	16
466.534	1	4
466.705	1	12
466.875	1	17
467.045	1	16
467.216	1	20
467.386	1	13
467.557	1	9
467.727	1	8
467.897	1	18
468.068	1	5
468.238	1	4
468.409	1	8
468.579	1	14
468.749	1	20
468.920	1	21
469.090	1	22
469.260	1	12
469.431	1	8
469.601	1	7
469.772	1	10
469.942	1	10
470.112	1	10
470.283	1	16
470.453	1	3
470.623	1	14
470.794	1	2
470.964	1	18
471.135	1	9
471.305	1	10
471.475	1	11
471.646	1	18
471.816	1	12
471.986	1	12
472.157	1	3
472.327	1	6
472.497	1	5
472.668	1	1
472.838	1	12
473.009	1	22
473.179	1	10
473.349	1	22
473.520	1	1
473.690	1	21
473.860	1	7
474.031	1	13
474.201	1	15
474.371	1	22
474.542	1	10
474.712	1	15
474.882	1	1
475.053	1	7
475.223	1	18
475.394	1	5
475.564	1	17
475.734	1	12
475.905	1	13
476.075	1	14
476.245	1	8
476.416	1	6
476.586	1	18
476.756	1	9
476.927	1	-2
477.097	1	8
477.267	1	13
477.438	1	17
477.608	1	11
477.778	1	11
477.949	1	7
478.119	1	14
478.289	1	6
478.460	1	9
478.630	1	6
478.800	1	7
478.971	1	-3
479.141	1	12
479.311	1	7
479.482	1	6
479.652	1	9
479.822	1	16
479.993	1	1
480.163	1	5
480.333	1	19
480.504	1	8
480.674	1	1
480.844	1	14
481.015	1	6
481.185	1	8
481.355	1	10
481.525	1	13
481.696	1	12
481.866	1	13
482.036	1	11
482.207	1	22
482.377	1	10
482.547	1	13
482.718	1	8
482.888	1	6
483.058	1	10
483.229	1	9
483.399	1	3
483.569	1	8
483.740	1	-3
483.910	1	4
484.080	1	21
484.250	1	14
484.421	1	12
484.591	1	13
484.761	1	5
484.932	1	-8
485.102	1	5
485.272	1	10
485.443	1	12
485.613	1	6
485.783	1	7
485.953	1	8
486.124	1	8
486.294	1	12
486.464	1	3
486.635	1	6
486.805	1	5
486.975	1	8
487.146	1	0
487.316	1	19
487.486	1	7
487.656	1	16
487.827	1	2
487.997	1	-1
488.167	1	11
488.338	1	13
488.508	1	15
488.678	1	5
488.848	1	20
489.019	1	2
489.189	1	3
489.359	1	8
489.529	1	13
489.700	1	-1
489.870	1	11
490.040	1	13
490.211	1	31
490.381	1	14
490.551	1	12
490.721	1	4
490.892	1	-5
491.062	1	10
491.232	1	14
491.402	1	9
491.573	1	13
491.743	1	11
491.913	1	13
492.084	1	-1
492.254	1	13
492.424	1	14
492.594	1	0
492.765	1	6
492.935	1	11
493.105	1	15
493.275	1	5
493.446	1	5
493.616	1	2
493.786	1	1
493.956	1	24
494.127	1	8
494.297	1	5
494.467	1	7
494.637	1	11
494.808	1	8
494.978	1	2
495.148	1	1
495.318	1	5
495.489	1	0
495.659	1	3
495.829	1	14
495.999	1	18
496.170	1	4
496.340	1	11
496.510	1	7
496.680	1	6
496.851	1	5
497.021	1	12
497.191	1	5
497.361	1	1
497.532	1	2
497.702	1	14
497.872	1	9
498.042	1	17
498.213	1	9
498.383	1	17
498.553	1	14
498.723	1	1
498.894	1	13
499.064	1	9
499.234	1	10
499.404	1	8
499.574	1	3
499.745	1	-1
499.915	1	20
500.085	1	3
500.255	1	6
500.426	1	-5
500.596	1	11
500.766	1	8
500.936	1	12
501.106	1	4
501.277	1	6
501.447	1	-2
501.617	1	6
501.787	1	5
501.958	1	-3
502.128	1	6
502.298	1	10
502.468	1	8
502.638	1	4
502.809	1	4
502.979	1	11
503.149	1	4
503.319	1	6
503.489	1	4
503.660	1	11
503.830	1	-2
504.000	1	0
504.170	1	3
504.340	1	9
504.511	1	0
504.681	1	16
504.851	1	4
505.021	1	13
505.192	1	12
505.362	1	9
505.532	1	2
505.702	1	9
505.872	1	5
506.043	1	-4
506.213	1	0
506.383	1	6
506.553	1	12
506.723	1	11
506.893	1	4
507.064	1	14
507.234	1	7
507.404	1	2
507.574	1	-1
507.744	1	-1
507.915	1	0
508.085	1	13
508.255	1	-1
508.425	1	7
508.595	1	9
508.766	1	4
508.936	1	2
509.106	1	2
509.276	1	12
509.446	1	5
509.616	1	-2
509.787	1	9
509.957	1	5
510.127	1	-3
510.297	1	10
510.467	1	2
510.638	1	5
510.808	1	4
510.978	1	7
511.148	1	8
511.318	1	9
511.488	1	13
511.659	1	4
511.829	1	1
511.999	1	13
512.169	1	16
512.339	1	9
512.509	1	10
512.680	1	0
512.850	1	-6
513.020	1	1
513.190	1	14
513.360	1	1
513.530	1	9
513.700	1	11
513.871	1	9
514.041	1	14
514.211	1	8
514.381	1	1
514.551	1	5
514.721	1	7
514.892	1	-2
515.062	1	4
515.232	1	-5
515.402	1	5
515.572	1	11
515.742	1	7
515.912	1	-3
516.083	1	10
516.253	1	-2
516.423	1	7
516.593	1	1
516.763	1	-5
516.933	1	3
517.104	1	-11
517.274	1	11
517.444	1	3
517.614	1	1
517.784	1	4
517.954	1	9
518.124	1	17
518.294	1	2
518.465	1	-7
518.635	1	15
518.805	1	5
518.975	1	9
519.145	1	7
519.315	1	2
519.485	1	11
519.656	1	0
519.826	1	9
519.996	1	6
520.166	1	-4
520.336	1	-12
520.506	1	6
520.676	1	10
520.846	1	12
521.017	1	15
521.187	1	12
521.357	1	3
521.527	1	-3
521.697	1	4
521.867	1	6
522.037	1	14
522.207	1	-9
522.377	1	4
522.548	1	2
522.718	1	11
522.888	1	16
523.058	1	8
523.228	1	5
523.398	1	9
523.568	1	-7
523.738	1	1
523.909	1	12
524.079	1	7
524.249	1	-8
524.419	1	7
524.589	1	1
524.759	1	8
524.929	1	3
525.099	1	5
525.269	1	-3
525.439	1	0
525.610	1	-3
525.780	1	5
525.950	1	4
526.120	1	11
526.290	1	22
526.460	1	3
526.630	1	5
526.800	1	-5
526.970	1	2
527.140	1	0
527.311	1	11
527.481	1	16
527.651	1	8
527.821	1	-8
527.991	1	6
528.161	1	3
528.331	1	-1
528.501	1	7
528.671	1	-6
528.841	1	9
529.011	1	3
529.181	1	1
529.352	1	2
529.522	1	7
529.692	1	15
529.862	1	11
530.032	1	8
530.202	1	0
530.372	1	1
530.542	1	-5
530.712	1	4
530.882	1	-1
531.052	1	7
531.222	1	3
531.392	1	2
531.563	1	3
531.733	1	3
531.903	1	7
532.073	1	-2
532.243	1	4
532.413	1	13
532.583	1	0
532.753	1	-2
532.923	1	4
533.093	1	5
533.263	1	16
533.433	1	6
533.603	1	16
533.773	1	11
533.943	1	-6
534.113	1	1
534.284	1	2
534.454	1	7
534.624	1	5
534.794	1	2
534.964	1	8
535.134	1	-2
535.304	1	8
535.474	1	7
535.644	1	2
535.814	1	4
535.984	1	12
536.154	1	5
536.324	1	2
536.494	1	-4
536.664	1	2
536.834	1	5
537.004	1	6
537.174	1	-6
537.344	1	10
537.514	1	8
537.685	1	16
537.855	1	4
538.025	1	-4
538.195	1	1
538.365	1	3
538.535	1	7
538.705	1	0
538.875	1	5
539.045	1	-4
539.215	1	8
539.385	1	1
539.555	1	6
539.725	1	-5
539.895	1	13
540.065	1	-4
540.235	1	0
540.405	1	-5
540.575	1	3
540.745	1	-2
540.915	1	9
541.085	1	-6
541.255	1	1
541.425	1	0
541.595	1	-16
541.765	1	1
541.935	1	10
542.105	1	8
542.275	1	2
542.445	1	-5
542.615	1	7
542.785	1	5
542.955	1	18
543.125	1	6
543.295	1	-1
543.465	1	12
543.635	1	3
543.805	1	-5
543.975	1	7
544.145	1	1
544.315	1	11
544.485	1	-3
544.655	1	2
544.825	1	7
544.995	1	4
545.165	1	14
545.335	1	-2
545.505	1	11
545.675	1	8
545.845	1	9
546.015	1	7
546.185	1	14
546.355	1	-3
546.525	1	-3
546.695	1	12
546.865	1	-6
547.035	1	3
547.205	1	4
547.375	1	11
547.545	1	5
547.715	1	2
547.885	1	-4
548.055	1	18
548.225	1	3
548.395	1	8
548.565	1	1
548.735	1	-9
548.905	1	12
549.075	1	-1
549.245	1	8
549.415	1	16
549.585	1	2
549.755	1	-3
549.925	1	12
550.095	1	6
550.265	1	1
550.435	1	-2
550.605	1	-2
550.775	1	6
550.945	1	2
551.115	1	9
551.285	1	-2
551.455	1	11
551.625	1	6
551.795	1	9
551.965	1	-1
552.135	1	1
552.305	1	5
552.475	1	3
552.645	1	7
552.815	1	5
552.985	1	-6
553.155	1	13
553.325	1	-1
553.495	1	-1
553.665	1	9
553.835	1	9
554.004	1	10
554.174	1	-1
554.344	1	13
554.514	1	-8
554.684	1	-6
554.854	1	5
555.024	1	-2
555.194	1	5
555.364	1	2
555.534	1	11
555.704	1	-7
555.874	1	11
556.044	1	6
556.214	1	-2
556.384	1	-3
556.554	1	-6
556.724	1	3
556.894	1	5
557.064	1	11
557.234	1	7
557.404	1	-5
557.573	1	4
557.743	1	-6
557.913	1	2
558.083	1	9
558.253	1	3
558.423	1	12
558.593	1	17
558.763	1	3
558.933	1	1
559.103	1	-1
559.273	1	8
559.443	1	4
559.613	1	-11
559.783	1	9
559.953	1	-2
560.122	1	-4
560.292	1	10
560.462	1	-8
560.632	1	10
560.802	1	4
560.972	1	-6
561.142	1	-4
561.312	1	2
561.482	1	10
561.652	1	6
561.822	1	6
561.992	1	5
562.162	1	11
562.331	1	2
562.501	1	-7
562.671	1	4
562.841	1	8
563.011	1	-7
563.181	1	7
563.351	1	1
563.521	1	10
563.691	1	6
563.861	1	1
564.031	1	5
564.201	1	1
564.370	1	9
564.540	1	-1
564.710	1	-2
564.880	1	2
565.050	1	10
565.220	1	4
565.390	1	13
565.560	1	8
565.730	1	-3
565.900	1	0
566.069	1	5
566.239	1	6
566.409	1	7
566.579	1	4
566.749	1	7
566.919	1	-6
567.089	1	0
567.259	1	6
567.429	1	-2
567.599	1	5
567.768	1	0
567.938	1	8
568.108	1	-6
568.278	1	10
568.448	1	1
568.618	1	20
568.788	1	4
568.958	1	5
569.128	1	-2
569.297	1	3
569.467	1	-1
569.637	1	4
569.807	1	9
569.977	1	8
570.147	1	7
570.317	1	-2
570.487	1	-7
570.656	1	10
570.826	1	5
570.996	1	4
571.166	1	3
571.336	1	15
571.506	1	-1
571.676	1	2
571.846	1	3
572.015	1	-2
572.185	1	12
572.355	1	3
572.525	1	5
572.695	1	2
572.865	1	3
573.035	1	13
573.205	1	-1
573.374	1	9
573.544	1	6
573.714	1	12
573.884	1	-8
574.054	1	5
574.224	1	7
574.394	1	-2
574.563	1	-5
574.733	1	1
574.903	1	-3
575.073	1	7
575.243	1	11
575.413	1	0
575.583	1	0
575.752	1	4
575.922	1	4
576.092	1	1
576.262	1	2
576.432	1	6
576.602	1	2
576.772	1	-2
576.941	1	-1
577.111	1	7
577.281	1	-2
577.451	1	9
577.621	1	3
577.791	1	1
577.960	1	2
578.130	1	5
578.300	1	2
578.470	1	6
578.640	1	-7
578.810	1	-5
578.979	1	-1
579.149	1	6
579.319	1	5
579.489	1	4
579.659	1	8
579.829	1	12
579.998	1	10
580.168	1	4
580.338	1	-9
580.508	1	13
580.678	1	4
580.848	1	-2
581.017	1	4
581.187	1	7
581.357	1	3
581.527	1	0
581.697	1	3
581.867	1	13
582.036	1	8
582.206	1	4
582.376	1	1
582.546	1	-6
582.716	1	-2
582.885	1	2
583.055	1	4
583.225	1	13
583.395	1	-3
583.565	1	-3
583.735	1	9
583.904	1	-1
584.074	1	6
584.244	1	8
584.414	1	8
584.584	1	2
584.753	1	7
584.923	1	14
585.093	1	1
585.263	1	4
585.433	1	-1
585.602	1	8
585.772	1	-5
585.942	1	-3
586.112	1	-5
586.282	1	2
586.451	1	2
586.621	1	9
586.791	1	9
586.961	1	-7
587.131	1	9
587.300	1	-1
587.470	1	4
587.640	1	1
587.810	1	4
587.980	1	7
588.149	1	-8
588.319	1	5
588.489	1	3
588.659	1	14
588.829	1	3
588.998	1	-3
589.168	1	2
589.338	1	8
589.508	1	2
589.677	1	-8
589.847	1	13
590.017	1	14
590.187	1	-1
590.357	1	2
590.526	1	-4
590.696	1	5
590.866	1	11
591.036	1	21
591.205	1	1
591.375	1	-5
591.545	1	13
591.715	1	-4
591.885	1	1
592.054	1	5
592.224	1	11
592.394	1	5
592.564	1	-2
592.733	1	13
592.903	1	4
593.073	1	6
593.243	1	14
593.412	1	15
593.582	1	4
593.752	1	0
593.922	1	-2
594.091	1	-5
594.261	1	17
594.431	1	10
594.601	1	8
594.771	1	-3
594.940	1	2
595.110	1	0
595.280	1	4
595.450	1	2
595.619	1	0
595.789	1	-2
595.959	1	10
596.129	1	8
596.298	1	6
596.468	1	11
596.638	1	-1
596.808	1	5
596.977	1	5
597.147	1	-5
597.317	1	-3
597.487	1	5
597.656	1	-3
597.826	1	-6
597.996	1	3
598.166	1	2
598.335	1	6
598.505	1	2
598.675	1	2
598.844	1	4
599.014	1	1
599.184	1	4
599.354	1	8
599.523	1	7
599.693	1	8
599.863	1	-2
600.033	1	-10
600.202	1	-2
600.372	1	2
600.542	1	4
600.712	1	2
600.881	1	-9
601.051	1	3
601.221	1	15
601.390	1	-7
601.560	1	2
601.730	1	9
601.900	1	1
602.069	1	2
602.239	1	20
602.409	1	-1
602.578	1	10
602.748	1	8
602.918	1	10
603.088	1	8
603.257	1	5
603.427	1	8
603.597	1	3
603.767	1	3
603.936	1	-2
604.106	1	7
604.276	1	18
604.445	1	0
604.615	1	0
604.785	1	6
604.954	1	2
605.124	1	5
605.294	1	9
605.464	1	14
605.633	1	6
605.803	1	-4
605.973	1	15
606.142	1	11
606.312	1	2
606.482	1	3
606.652	1	4
606.821	1	-4
606.991	1	7
607.161	1	7
607.330	1	1
607.500	1	5
607.670	1	0
607.839	1	1
608.009	1	6
608.179	1	0
608.348	1	19
608.518	1	-7
608.688	1	17
608.858	1	5
609.027	1	13
609.197	1	-12
609.367	1	4
609.536	1	10
609.706	1	0
609.876	1	9
610.045	1	-5
610.215	1	16
610.385	1	0
610.554	1	3
610.724	1	9
610.894	1	6
611.063	1	-5
611.233	1	7
611.403	1	7
611.572	1	3
611.742	1	6
611.912	1	-11
612.081	1	4
612.251	1	10
612.421	1	8
612.590	1	4
612.760	1	14
612.930	1	2
613.099	1	14
613.269	1	-1
613.439	1	13
613.608	1	7
613.778	1	5
613.948	1	8
614.117	1	4
614.287	1	7
614.457	1	-7
614.626	1	12
614.796	1	9
614.966	1	8
615.135	1	12
615.305	1	1
615.475	1	4
615.644	1	-1
615.814	1	6
615.984	1	6
616.153	1	7
616.323	1	10
616.493	1	4
616.662	1	5
616.832	1	14
617.002	1	-2
617.171	1	-8
617.341	1	8
617.511	1	0
617.680	1	15
617.850	1	6
618.019	1	12
618.189	1	-4
618.359	1	-5
618.528	1	9
618.698	1	-6
618.868	1	5
619.037	1	10
619.207	1	11
619.377	1	-5
619.546	1	-3
619.716	1	7
619.885	1	0
620.055	1	1
620.225	1	6
620.394	1	6
620.564	1	2
620.734	1	1
620.903	1	8
621.073	1	6
621.242	1	20
621.412	1	1
621.582	1	6
621.751	1	3
621.921	1	12
622.091	1	0
622.260	1	-1
622.430	1	9
622.599	1	11
622.769	1	-2
622.939	1	11
623.108	1	-1
623.278	1	6
623.448	1	11
623.617	1	-2
623.787	1	10
623.956	1	5
624.126	1	-4
624.296	1	6
624.465	1	-2
624.635	1	9
624.804	1	-1
624.974	1	7
625.144	1	-3
625.313	1	17
625.483	1	9
625.652	1	-1
625.822	1	14
625.992	1	8
626.161	1	5
626.331	1	11
626.501	1	14
626.670	1	1
626.840	1	-8
627.009	1	16
627.179	1	15
627.348	1	2
627.518	1	9
627.688	1	-1
627.857	1	6
628.027	1	1
628.196	1	-6
628.366	1	12
628.536	1	9
628.705	1	7
628.875	1	12
629.044	1	10
629.214	1	10
629.384	1	-6
629.553	1	4
629.723	1	5
629.892	1	17
630.062	1	0
630.232	1	-5
630.401	1	9
630.571	1	7
630.740	1	6
630.910	1	10
631.079	1	12
631.249	1	2
631.419	1	-2
631.588	1	6
631.758	1	10
631.927	1	1
632.097	1	2
632.266	1	5
632.436	1	9
632.606	1	7
632.775	1	13
632.945	1	10
633.114	1	0
633.284	1	7
633.453	1	0
633.623	1	6
633.793	1	4
633.962	1	4
634.132	1	3
634.301	1	8
634.471	1	11
634.640	1	7
634.810	1	8
634.979	1	6
635.149	1	16
635.319	1	15
635.488	1	5
635.658	1	11
635.827	1	11
635.997	1	3
636.166	1	15
636.336	1	16
636.505	1	9
636.675	1	-4
636.845	1	3
637.014	1	18
637.184	1	13
637.353	1	9
637.523	1	16
637.692	1	5
637.862	1	4
638.031	1	11
638.201	1	9
638.370	1	15
638.540	1	2
638.710	1	4
638.879	1	7
639.049	1	15
639.218	1	11
639.388	1	-1
639.557	1	13
639.727	1	9
639.896	1	10
640.066	1	17
640.235	1	12
640.405	1	11
640.574	1	20
640.744	1	9
640.914	1	2
641.083	1	-2
641.253	1	15
641.422	1	2
641.592	1	6
641.761	1	12
641.931	1	18
642.100	1	7
642.270	1	-1
642.439	1	4
642.609	1	16
642.778	1	-14
642.948	1	17
643.117	1	3
643.287	1	9
643.456	1	7
643.626	1	17
643.795	1	-3
643.965	1	3
644.134	1	0
644.304	1	13
644.473	1	12
644.643	1	13
644.812	1	-3
644.982	1	16
645.151	1	2
645.321	1	9
645.490	1	17
645.660	1	-3
645.829	1	10
645.999	1	10
646.168	1	14
646.338	1	2
646.507	1	0
646.677	1	10
646.846	1	2
647.016	1	9
647.185	1	8
647.355	1	11
647.524	1	3
647.694	1	6
647.863	1	-1
648.033	1	12
648.202	1	5
648.372	1	12
648.541	1	9
648.711	1	15
648.880	1	-3
649.050	1	5
649.219	1	9
649.389	1	11
649.558	1	5
649.728	1	-2
649.897	1	9
650.067	1	0
650.236	1	4
650.406	1	8
650.575	1	10
650.745	1	6
650.914	1	17
651.084	1	8
651.253	1	6
651.423	1	14
651.592	1	10
651.762	1	6
651.931	1	12
652.101	1	9
652.270	1	7
652.440	1	-1
652.609	1	10
652.778	1	0
652.948	1	3
653.117	1	4
653.287	1	9
653.456	1	6
653.626	1	5
653.795	1	-7
653.965	1	5
654.134	1	7
654.304	1	9
654.473	1	4
654.643	1	-9
654.812	1	3
654.982	1	4
655.151	1	8
655.320	1	18
655.490	1	-3
655.659	1	3
655.829	1	1
655.998	1	13
656.168	1	5
656.337	1	11
656.507	1	1
656.676	1	-1
656.846	1	18
657.015	1	10
657.184	1	3
657.354	1	4
657.523	1	2
657.693	1	12
657.862	1	3
658.032	1	13
658.201	1	13
658.371	1	8
658.540	1	3
658.709	1	5
658.879	1	2
659.048	1	11
659.218	1	17
659.387	1	4
659.557	1	-2
659.726	1	2
659.895	1	5
660.065	1	14
660.234	1	-3
660.404	1	8
660.573	1	6
660.743	1	4
660.912	1	5
661.081	1	6
661.251	1	15
661.420	1	8
661.590	1	6
661.759	1	8
661.929	1	2
662.098	1	5
662.267	1	13
662.437	1	0
662.606	1	8
662.776	1	4
662.945	1	8
663.115	1	1
663.284	1	1
663.453	1	3
663.623	1	-6
663.792	1	0
663.962	1	4
664.131	1	-2
664.300	1	2
664.470	1	4
664.639	1	15
664.809	1	3
664.978	1	-3
665.148	1	2
665.317	1	12
665.486	1	1
665.656	1	11
665.825	1	10
665.995	1	3
666.164	1	9
666.333	1	-2
666.503	1	-1
666.672	1	10
666.842	1	2
667.011	1	4
667.180	1	-6
667.350	1	9
667.519	1	2
667.689	1	6
667.858	1	6
668.027	1	6
668.197	1	7
668.366	1	15
668.536	1	-1
668.705	1	13
668.874	1	9
669.044	1	4
669.213	1	5
669.382	1	0
669.552	1	1
669.721	1	6
669.891	1	12
670.060	1	14
670.229	1	8
670.399	1	5
670.568	1	-11
670.738	1	6
670.907	1	5
671.076	1	7
671.246	1	1
671.415	1	-1
671.584	1	10
671.754	1	13
671.923	1	6
672.093	1	-2
672.262	1	2
672.431	1	0
672.601	1	-2
672.770	1	8
672.939	1	-3
673.109	1	9
673.278	1	9
673.448	1	16
673.617	1	3
673.786	1	1
