325.333	1	11
325.504	1	-2
325.675	1	4
325.846	1	5
326.017	1	8
326.188	1	8
326.359	1	5
326.531	1	9
326.702	1	5
326.873	1	-3
327.044	1	0
327.215	1	6
327.386	1	15
327.557	1	7
327.728	1	11
327.899	1	4
328.070	1	13
328.241	1	3
328.412	1	0
328.583	1	12
328.754	1	-1
328.926	1	5
329.097	1	7
329.268	1	15
329.439	1	0
329.610	1	17
329.781	1	6
329.952	1	0
330.123	1	4
330.294	1	13
330.465	1	2
330.636	1	13
330.807	1	20
330.978	1	10
331.149	1	11
331.320	1	9
331.492	1	7
331.663	1	3
331.834	1	0
332.005	1	9
332.176	1	-3
332.347	1	17
332.518	1	4
332.689	1	11
332.860	1	5
333.031	1	-3
333.202	1	7
333.373	1	2
333.544	1	2
333.715	1	0
333.886	1	14
334.057	1	13
334.228	1	4
334.399	1	5
334.570	1	10
334.741	1	1
334.912	1	10
335.084	1	7
335.255	1	13
335.426	1	6
335.597	1	10
335.768	1	2
335.939	1	18
336.110	1	10
336.281	1	9
336.452	1	12
336.623	1	8
336.794	1	13
336.965	1	8
337.136	1	6
337.307	1	8
337.478	1	0
337.649	1	19
337.820	1	10
337.991	1	14
338.162	1	9
338.333	1	6
338.504	1	14
338.675	1	4
338.846	1	6
339.017	1	-5
339.188	1	17
339.359	1	4
339.530	1	8
339.701	1	13
339.872	1	7
340.043	1	20
340.214	1	4
340.385	1	-6
340.556	1	12
340.727	1	10
340.898	1	12
341.069	1	10
341.240	1	6
341.411	1	18
341.582	1	14
341.753	1	12
341.924	1	12
342.095	1	6
342.266	1	12
342.437	1	6
342.608	1	17
342.779	1	5
342.950	1	1
343.121	1	7
343.292	1	9
343.463	1	7
343.634	1	1
343.805	1	11
343.976	1	9
344.147	1	1
344.318	1	16
344.489	1	13
344.660	1	17
344.831	1	5
345.002	1	2
345.173	1	-1
345.344	1	1
345.515	1	2
345.686	1	4
345.857	1	2
346.028	1	4
346.199	1	8
346.370	1	21
346.541	1	11
346.712	1	7
346.883	1	-2
347.054	1	6
347.225	1	11
347.396	1	1
347.567	1	17
347.738	1	6
347.909	1	5
348.080	1	2
348.251	1	11
348.422	1	-2
348.593	1	-12
348.764	1	4
348.935	1	10
349.106	1	6
349.277	1	12
349.448	1	14
349.619	1	4
349.790	1	17
349.961	1	12
350.132	1	3
350.303	1	-1
350.474	1	-3
350.645	1	4
350.816	1	9
350.987	1	-2
351.157	1	9
351.328	1	-2
351.499	1	20
351.670	1	2
351.841	1	15
352.012	1	7
352.183	1	1
352.354	1	4
352.525	1	2
352.696	1	7
352.867	1	12
353.038	1	8
353.209	1	13
353.380	1	16
353.551	1	-12
353.722	1	-3
353.893	1	2
354.064	1	12
354.235	1	-1
354.406	1	12
354.576	1	-7
354.747	1	6
354.918	1	11
355.089	1	5
355.260	1	5
355.431	1	-5
355.602	1	9
355.773	1	-7
355.944	1	2
356.115	1	2
356.286	1	6
356.457	1	10
356.628	1	3
356.799	1	3
356.970	1	-1
357.141	1	2
357.311	1	-6
357.482	1	7
357.653	1	2
357.824	1	5
357.995	1	2
358.166	1	9
358.337	1	5
358.508	1	7
358.679	1	4
358.850	1	9
359.021	1	4
359.192	1	5
359.363	1	-6
359.533	1	2
359.704	1	4
359.875	1	7
360.046	1	9
360.217	1	7
360.388	1	3
360.559	1	9
360.730	1	6
360.901	1	5
361.072	1	6
361.243	1	5
361.414	1	0
361.584	1	6
361.755	1	13
361.926	1	3
362.097	1	10
362.268	1	17
362.439	1	7
362.610	1	9
362.781	1	0
362.952	1	9
363.123	1	-4
363.293	1	10
363.464	1	11
363.635	1	19
363.806	1	0
363.977	1	20
364.148	1	-1
364.319	1	8
364.490	1	7
364.661	1	-5
364.832	1	9
365.002	1	-7
365.173	1	0
365.344	1	-7
365.515	1	3
365.686	1	10
365.857	1	-2
366.028	1	-3
366.199	1	-4
366.370	1	5
366.540	1	0
366.711	1	6
366.882	1	4
367.053	1	5
367.224	1	3
367.395	1	0
367.566	1	5
367.737	1	11
367.908	1	-2
368.078	1	-6
368.249	1	6
368.420	1	14
368.591	1	9
368.762	1	10
368.933	1	12
369.104	1	7
369.274	1	-2
369.445	1	4
369.616	1	15
369.787	1	5
369.958	1	4
370.129	1	5
370.300	1	-2
370.471	1	2
370.641	1	10
370.812	1	0
370.983	1	-4
371.154	1	11
371.325	1	14
371.496	1	6
371.667	1	1
371.837	1	9
372.008	1	4
372.179	1	6
372.350	1	3
372.521	1	0
372.692	1	8
372.863	1	0
373.033	1	6
373.204	1	5
373.375	1	-1
373.546	1	8
373.717	1	4
373.888	1	7
374.059	1	9
374.229	1	-2
374.400	1	6
374.571	1	2
374.742	1	14
374.913	1	3
375.084	1	6
375.254	1	12
375.425	1	17
375.596	1	8
375.767	1	15
375.938	1	-1
376.109	1	-8
376.279	1	5
376.450	1	2
376.621	1	7
376.792	1	-1
376.963	1	14
377.134	1	-3
377.304	1	0
377.475	1	8
377.646	1	4
377.817	1	8
377.988	1	-1
378.159	1	10
378.329	1	4
378.500	1	1
378.671	1	1
378.842	1	15
379.013	1	8
379.184	1	10
379.354	1	6
379.525	1	17
379.696	1	12
379.867	1	4
380.038	1	14
380.209	1	1
380.379	1	8
380.550	1	0
380.721	1	15
380.892	1	10
381.063	1	-1
381.233	1	15
381.404	1	16
381.575	1	9
381.746	1	-1
381.917	1	13
382.087	1	6
382.258	1	0
382.429	1	16
382.600	1	6
382.771	1	15
382.941	1	12
383.112	1	0
383.283	1	-12
383.454	1	20
383.625	1	8
383.795	1	6
383.966	1	17
384.137	1	14
384.308	1	12
384.479	1	9
384.649	1	9
384.820	1	9
384.991	1	21
385.162	1	4
385.333	1	7
385.503	1	6
385.674	1	10
385.845	1	12
386.016	1	19
386.187	1	9
386.357	1	2
386.528	1	16
386.699	1	0
386.870	1	0
387.041	1	6
387.211	1	7
387.382	1	5
387.553	1	-1
387.724	1	-13
387.894	1	2
388.065	1	10
388.236	1	13
388.407	1	11
388.578	1	7
388.748	1	15
388.919	1	1
389.090	1	1
389.261	1	-1
389.431	1	19
389.602	1	11
389.773	1	2
389.944	1	7
390.114	1	16
390.285	1	13
390.456	1	15
390.627	1	21
390.798	1	7
390.968	1	6
391.139	1	1
391.310	1	11
391.481	1	9
391.651	1	11
391.822	1	9
391.993	1	8
392.164	1	7
392.334	1	2
392.505	1	2
392.676	1	6
392.847	1	-6
393.017	1	8
393.188	1	18
393.359	1	11
393.530	1	14
393.700	1	18
393.871	1	8
394.042	1	7
394.213	1	7
394.383	1	10
394.554	1	4
394.725	1	7
394.896	1	11
395.066	1	13
395.237	1	11
395.408	1	11
395.579	1	14
395.749	1	15
395.920	1	7
396.091	1	5
396.262	1	6
396.432	1	10
396.603	1	11
396.774	1	15
396.945	1	0
397.115	1	8
397.286	1	-9
397.457	1	13
397.627	1	4
397.798	1	18
397.969	1	10
398.140	1	1
398.310	1	11
398.481	1	11
398.652	1	17
398.823	1	9
398.993	1	16
399.164	1	7
399.335	1	16
399.505	1	6
399.676	1	12
399.847	1	11
400.018	1	8
400.188	1	12
400.359	1	9
400.530	1	23
400.700	1	7
400.871	1	10
401.042	1	7
401.213	1	16
401.383	1	12
401.554	1	14
401.725	1	1
401.895	1	-2
402.066	1	14
402.237	1	15
402.408	1	21
402.578	1	21
402.749	1	15
402.920	1	6
403.090	1	1
403.261	1	10
403.432	1	14
403.603	1	16
403.773	1	20
403.944	1	20
404.115	1	9
404.285	1	2
404.456	1	20
404.627	1	21
404.797	1	10
404.968	1	19
405.139	1	16
405.310	1	12
405.480	1	10
405.651	1	14
405.822	1	4
405.992	1	17
406.163	1	8
406.334	1	25
406.504	1	10
406.675	1	17
406.846	1	15
407.016	1	17
407.187	1	19
407.358	1	7
407.528	1	13
407.699	1	4
407.870	1	10
408.041	1	18
408.211	1	20
408.382	1	1
408.553	1	11
408.723	1	25
408.894	1	-1
409.065	1	15
409.235	1	13
409.406	1	9
409.577	1	11
409.747	1	11
409.918	1	13
410.089	1	11
410.259	1	20
410.430	1	12
410.601	1	23
410.771	1	14
410.942	1	7
411.113	1	13
411.283	1	15
411.454	1	19
411.625	1	17
411.795	1	21
411.966	1	19
412.137	1	29
412.307	1	6
412.478	1	13
412.649	1	13
412.819	1	18
412.990	1	13
413.161	1	21
413.331	1	26
413.502	1	29
413.672	1	8
413.843	1	29
414.014	1	20
414.184	1	21
414.355	1	22
414.526	1	15
414.696	1	17
414.867	1	20
415.038	1	6
415.208	1	7
415.379	1	12
415.550	1	21
415.720	1	7
415.891	1	19
416.062	1	7
416.232	1	19
416.403	1	2
416.573	1	16
416.744	1	17
416.915	1	11
417.085	1	25
417.256	1	15
417.427	1	18
417.597	1	17
417.768	1	11
417.939	1	21
418.109	1	18
418.280	1	21
418.450	1	16
418.621	1	15
418.792	1	7
418.962	1	12
419.133	1	21
419.304	1	21
419.474	1	6
419.645	1	21
419.815	1	27
419.986	1	15
420.157	1	20
420.327	1	10
420.498	1	4
420.669	1	18
420.839	1	6
421.010	1	15
421.180	1	19
421.351	1	6
421.522	1	16
421.692	1	17
421.863	1	20
422.033	1	15
422.204	1	9
422.375	1	19
422.545	1	25
422.716	1	22
422.886	1	17
423.057	1	20
423.228	1	16
423.398	1	23
423.569	1	20
423.740	1	16
423.910	1	19
424.081	1	15
424.251	1	19
424.422	1	13
424.593	1	18
424.763	1	23
424.934	1	21
425.104	1	22
425.275	1	19
425.445	1	14
425.616	1	15
425.787	1	20
425.957	1	22
426.128	1	25
426.298	1	20
426.469	1	20
426.640	1	5
426.810	1	14
426.981	1	20
427.151	1	13
427.322	1	21
427.493	1	13
427.663	1	17
427.834	1	3
428.004	1	21
428.175	1	10
428.345	1	16
428.516	1	21
428.687	1	15
428.857	1	-1
429.028	1	12
429.198	1	4
429.369	1	18
429.540	1	11
429.710	1	21
429.881	1	14
430.051	1	23
430.222	1	20
430.392	1	16
430.563	1	24
430.734	1	16
430.904	1	18
431.075	1	19
431.245	1	14
431.416	1	6
431.586	1	16
431.757	1	20
431.927	1	33
432.098	1	18
432.269	1	17
432.439	1	12
432.610	1	17
432.780	1	4
432.951	1	14
433.121	1	5
433.292	1	11
433.462	1	31
433.633	1	26
433.804	1	19
433.974	1	22
434.145	1	15
434.315	1	11
434.486	1	11
434.656	1	16
434.827	1	6
434.997	1	25
435.168	1	10
435.339	1	18
435.509	1	17
435.680	1	20
435.850	1	1
436.021	1	27
436.191	1	3
436.362	1	20
436.532	1	8
436.703	1	21
436.873	1	23
437.044	1	20
437.214	1	11
437.385	1	21
437.556	1	5
437.726	1	7
437.897	1	7
438.067	1	7
438.238	1	18
438.408	1	30
438.579	1	16
438.749	1	16
438.920	1	17
439.090	1	28
439.261	1	12
439.431	1	7
439.602	1	20
439.772	1	13
439.943	1	11
440.113	1	18
440.284	1	11
440.455	1	17
440.625	1	16
440.796	1	21
440.966	1	8
441.137	1	4
441.307	1	23
441.478	1	11
441.648	1	13
441.819	1	13
441.989	1	9
442.160	1	17
442.330	1	26
442.501	1	13
442.671	1	27
442.842	1	17
443.012	1	11
443.183	1	9
443.353	1	13
443.524	1	5
443.694	1	9
443.865	1	8
444.035	1	23
444.206	1	23
444.376	1	11
444.547	1	5
444.717	1	17
444.888	1	14
445.058	1	16
445.229	1	11
445.399	1	7
445.570	1	14
445.740	1	9
445.911	1	16
446.081	1	8
446.252	1	6
446.422	1	10
446.593	1	12
446.763	1	6
446.934	1	6
447.104	1	13
447.275	1	15
447.445	1	15
447.616	1	17
447.786	1	25
447.957	1	14
448.127	1	8
448.298	1	17
448.468	1	9
448.639	1	19
448.809	1	19
448.979	1	10
449.150	1	15
449.320	1	12
449.491	1	25
449.661	1	10
449.832	1	12
450.002	1	-1
450.173	1	18
450.343	1	-4
450.514	1	13
450.684	1	26
450.855	1	12
451.025	1	23
451.196	1	10
451.366	1	18
451.537	1	-3
451.707	1	20
451.878	1	14
452.048	1	8
452.218	1	13
452.389	1	9
452.559	1	23
452.730	1	10
452.900	1	11
453.071	1	7
453.241	1	19
453.412	1	10
453.582	1	4
453.753	1	17
453.923	1	13
454.093	1	5
454.264	1	18
454.434	1	15
454.605	1	8
454.775	1	10
454.946	1	7
455.116	1	8
455.287	1	19
455.457	1	10
455.628	1	5
455.798	1	-2
455.968	1	12
456.139	1	7
456.309	1	16
456.480	1	11
456.650	1	16
456.821	1	10
456.991	1	8
457.161	1	19
457.332	1	18
457.502	1	21
457.673	1	12
457.843	1	14
458.014	1	12
458.184	1	11
458.355	1	12
458.525	1	20
458.695	1	14
458.866	1	5
459.036	1	7
459.207	1	21
459.377	1	15
459.548	1	12
459.718	1	-1
459.888	1	8
460.059	1	-1
460.229	1	20
460.400	1	18
460.570	1	10
460.740	1	6
460.911	1	18
461.081	1	7
461.252	1	13
461.422	1	13
461.593	1	10
461.763	1	19
461.933	1	15
462.104	1	3
462.274	1	-4
462.445	1	9
462.615	1	14
462.785	1	2
462.956	1	5
463.126	1	10
463.297	1	24
463.467	1	9
463.638	1	5
463.808	1	7
463.978	1	10
464.149	1	16
464.319	1	5
464.490	1	10
464.660	1	4
464.830	1	3
465.001	1	12
465.171	1	1
465.342	1	0
465.512	1	4
465.682	1	6
465.853	1	9
466.023	1	11
466.194	1	15
466.364	1	15
466.534	1	-3
466.705	1	15
466.875	1	18
467.045	1	12
467.216	1	24
467.386	1	5
467.557	1	7
467.727	1	9
467.897	1	9
468.068	1	4
468.238	1	-4
468.409	1	-3
468.579	1	6
468.749	1	18
468.920	1	8
469.090	1	7
469.260	1	7
469.431	1	0
469.601	1	16
469.772	1	-4
469.942	1	1
470.112	1	12
470.283	1	8
470.453	1	8
470.623	1	6
470.794	1	5
470.964	1	6
471.135	1	8
471.305	1	6
471.475	1	4
471.646	1	3
471.816	1	10
471.986	1	7
472.157	1	15
472.327	1	0
472.497	1	7
472.668	1	6
472.838	1	7
473.009	1	21
473.179	1	10
473.349	1	4
473.520	1	7
473.690	1	17
473.860	1	3
474.031	1	15
474.201	1	3
474.371	1	9
474.542	1	9
474.712	1	10
474.882	1	-2
475.053	1	11
475.223	1	11
475.394	1	-2
475.564	1	12
475.734	1	18
475.905	1	2
476.075	1	2
476.245	1	-1
476.416	1	7
476.586	1	9
476.756	1	1
476.927	1	12
477.097	1	-4
477.267	1	12
477.438	1	-3
477.608	1	17
477.778	1	15
477.949	1	8
478.119	1	13
478.289	1	3
478.460	1	-4
478.630	1	9
478.800	1	13
478.971	1	-6
479.141	1	2
479.311	1	16
479.482	1	3
479.652	1	11
479.822	1	5
479.993	1	3
480.163	1	3
480.333	1	4
480.504	1	4
480.674	1	6
480.844	1	12
481.015	1	13
481.185	1	10
481.355	1	6
481.525	1	7
481.696	1	13
481.866	1	2
482.036	1	7
482.207	1	16
482.377	1	1
482.547	1	7
482.718	1	14
482.888	1	7
483.058	1	5
483.229	1	5
483.399	1	5
483.569	1	9
483.740	1	-6
483.910	1	19
484.080	1	9
484.250	1	11
484.421	1	-4
484.591	1	8
484.761	1	7
484.932	1	0
485.102	1	13
485.272	1	1
485.443	1	16
485.613	1	9
485.783	1	0
485.953	1	15
486.124	1	1
486.294	1	11
486.464	1	13
486.635	1	2
486.805	1	-3
486.975	1	5
487.146	1	-2
487.316	1	11
487.486	1	7
487.656	1	16
487.827	1	4
487.997	1	8
488.167	1	2
488.338	1	4
488.508	1	9
488.678	1	9
488.848	1	13
489.019	1	0
489.189	1	-5
489.359	1	2
489.529	1	18
489.700	1	0
489.870	1	16
490.040	1	10
490.211	1	23
490.381	1	12
490.551	1	-6
490.721	1	14
490.892	1	-7
491.062	1	10
491.232	1	12
491.402	1	2
491.573	1	16
491.743	1	8
491.913	1	14
492.084	1	9
492.254	1	3
492.424	1	5
492.594	1	8
492.765	1	-7
492.935	1	4
493.105	1	3
493.275	1	10
493.446	1	-1
493.616	1	1
493.786	1	11
493.956	1	20
494.127	1	11
494.297	1	3
494.467	1	10
494.637	1	1
494.808	1	5
494.978	1	10
495.148	1	-2
495.318	1	7
495.489	1	0
495.659	1	0
495.829	1	17
495.999	1	10
496.170	1	3
496.340	1	12
496.510	1	10
496.680	1	7
496.851	1	4
497.021	1	12
497.191	1	3
497.361	1	3
497.532	1	11
497.702	1	-6
497.872	1	8
498.042	1	5
498.213	1	19
498.383	1	7
498.553	1	9
498.723	1	0
498.894	1	13
499.064	1	-2
499.234	1	5
499.404	1	2
499.574	1	-7
499.745	1	8
499.915	1	14
500.085	1	2
500.255	1	0
500.426	1	12
500.596	1	12
500.766	1	10
500.936	1	7
501.106	1	-1
501.277	1	-2
501.447	1	2
501.617	1	6
501.787	1	5
501.958	1	-7
502.128	1	1
502.298	1	0
502.468	1	-1
502.638	1	3
502.809	1	9
502.979	1	4
503.149	1	7
503.319	1	7
503.489	1	6
503.660	1	7
503.830	1	-6
504.000	1	0
504.170	1	2
504.340	1	4
504.511	1	-6
504.681	1	8
504.851	1	14
505.021	1	13
505.192	1	1
505.362	1	8
505.532	1	3
505.702	1	5
505.872	1	7
506.043	1	9
506.213	1	0
506.383	1	7
506.553	1	4
506.723	1	1
506.893	1	-1
507.064	1	2
507.234	1	2
507.404	1	1
507.574	1	-7
507.744	1	3
507.915	1	7
508.085	1	14
508.255	1	0
508.425	1	4
508.595	1	5
508.766	1	7
508.936	1	4
509.106	1	8
509.276	1	8
509.446	1	5
509.616	1	5
509.787	1	-4
509.957	1	12
510.127	1	2
510.297	1	9
510.467	1	-5
510.638	1	0
510.808	1	2
510.978	1	10
511.148	1	12
511.318	1	9
511.488	1	5
511.659	1	4
511.829	1	3
511.999	1	16
512.169	1	6
512.339	1	-4
512.509	1	0
512.680	1	3
512.850	1	-4
513.020	1	6
513.190	1	11
513.360	1	8
513.530	1	-3
513.700	1	17
513.871	1	11
514.041	1	2
514.211	1	11
514.381	1	0
514.551	1	5
514.721	1	6
514.892	1	-1
515.062	1	3
515.232	1	-13
515.402	1	12
515.572	1	6
515.742	1	4
515.912	1	1
516.083	1	4
516.253	1	-5
516.423	1	4
516.593	1	3
516.763	1	3
516.933	1	1
517.104	1	-10
517.274	1	11
517.444	1	-3
517.614	1	2
517.784	1	11
517.954	1	8
518.124	1	7
518.294	1	11
518.465	1	-3
518.635	1	13
518.805	1	1
518.975	1	5
519.145	1	4
519.315	1	2
519.485	1	10
519.656	1	5
519.826	1	8
519.996	1	0
520.166	1	5
520.336	1	-1
520.506	1	2
520.676	1	-3
520.846	1	2
521.017	1	-4
521.187	1	4
521.357	1	-2
521.527	1	-4
521.697	1	0
521.867	1	-2
522.037	1	5
522.207	1	-8
522.377	1	0
522.548	1	-1
522.718	1	8
522.888	1	9
523.058	1	8
523.228	1	-4
523.398	1	10
523.568	1	-3
523.738	1	6
523.909	1	14
524.079	1	3
524.249	1	10
524.419	1	7
524.589	1	-5
524.759	1	8
524.929	1	3
525.099	1	8
525.269	1	-4
525.439	1	-8
525.610	1	3
525.780	1	1
525.950	1	7
526.120	1	6
526.290	1	11
526.460	1	1
526.630	1	5
526.800	1	-6
526.970	1	0
527.140	1	11
527.311	1	6
527.481	1	7
527.651	1	15
527.821	1	-12
527.991	1	6
528.161	1	2
528.331	1	-2
528.501	1	-1
528.671	1	10
528.841	1	13
529.011	1	-1
529.181	1	4
529.352	1	8
529.522	1	-1
529.692	1	9
529.862	1	6
530.032	1	3
530.202	1	-2
530.372	1	9
530.542	1	2
530.712	1	6
530.882	1	-5
531.052	1	11
531.222	1	6
531.392	1	2
531.563	1	9
531.733	1	14
531.903	1	2
532.073	1	0
532.243	1	8
532.413	1	9
532.583	1	2
532.753	1	15
532.923	1	6
533.093	1	10
533.263	1	2
533.433	1	-5
533.603	1	11
533.773	1	0
533.943	1	8
534.113	1	13
534.284	1	5
534.454	1	0
534.624	1	4
534.794	1	10
534.964	1	6
535.134	1	8
535.304	1	7
535.474	1	-1
535.644	1	5
535.814	1	-7
535.984	1	9
536.154	1	10
536.324	1	-5
536.494	1	-3
536.664	1	8
536.834	1	6
537.004	1	6
537.174	1	-4
537.344	1	8
537.514	1	2
537.685	1	6
537.855	1	10
538.025	1	-2
538.195	1	4
538.365	1	0
538.535	1	3
538.705	1	-2
538.875	1	1
539.045	1	-7
539.215	1	13
539.385	1	8
539.555	1	3
539.725	1	2
539.895	1	5
540.065	1	-3
540.235	1	-1
540.405	1	-1
540.575	1	3
540.745	1	-1
540.915	1	4
541.085	1	6
541.255	1	8
541.425	1	-7
541.595	1	-11
541.765	1	-1
541.935	1	6
542.105	1	0
542.275	1	-2
542.445	1	-5
542.615	1	-2
542.785	1	3
542.955	1	12
543.125	1	7
543.295	1	-6
543.465	1	1
543.635	1	-4
543.805	1	-4
543.975	1	5
544.145	1	-2
544.315	1	9
544.485	1	-9
544.655	1	1
544.825	1	-6
544.995	1	4
545.165	1	5
545.335	1	-5
545.505	1	-2
545.675	1	4
545.845	1	21
546.015	1	-2
546.185	1	23
546.355	1	-1
546.525	1	5
546.695	1	7
546.865	1	3
547.035	1	-1
547.205	1	8
547.375	1	1
547.545	1	12
547.715	1	-7
547.885	1	3
548.055	1	12
548.225	1	-1
548.395	1	-2
548.565	1	13
548.735	1	-6
548.905	1	0
549.075	1	6
549.245	1	13
549.415	1	2
549.585	1	-2
549.755	1	0
549.925	1	15
550.095	1	-1
550.265	1	8
550.435	1	6
550.605	1	8
550.775	1	1
550.945	1	-1
551.115	1	-1
551.285	1	4
551.455	1	9
551.625	1	7
551.795	1	7
551.965	1	4
552.135	1	-1
552.305	1	8
552.475	1	8
552.645	1	8
552.815	1	-1
552.985	1	-14
553.155	1	1
553.325	1	1
553.495	1	3
553.665	1	13
553.835	1	16
554.004	1	13
554.174	1	-5
554.344	1	15
554.514	1	1
554.684	1	-11
554.854	1	1
555.024	1	-5
555.194	1	12
555.364	1	-6
555.534	1	0
555.704	1	7
555.874	1	7
556.044	1	-2
556.214	1	3
556.384	1	2
556.554	1	9
556.724	1	-10
556.894	1	2
557.064	1	9
557.234	1	2
557.404	1	-9
557.573	1	10
557.743	1	-2
557.913	1	10
558.083	1	3
558.253	1	0
558.423	1	13
558.593	1	8
558.763	1	6
558.933	1	13
559.103	1	-4
559.273	1	1
559.443	1	3
559.613	1	-2
559.783	1	1
559.953	1	-13
560.122	1	-3
560.292	1	-7
560.462	1	2
560.632	1	13
560.802	1	0
560.972	1	-10
561.142	1	-11
561.312	1	-4
561.482	1	4
561.652	1	-3
561.822	1	0
561.992	1	2
562.162	1	10
562.331	1	3
562.501	1	-3
562.671	1	2
562.841	1	8
563.011	1	3
563.181	1	0
563.351	1	-4
563.521	1	7
563.691	1	3
563.861	1	1
564.031	1	1
564.201	1	13
564.370	1	3
564.540	1	-1
564.710	1	-3
564.880	1	-4
565.050	1	9
565.220	1	1
565.390	1	0
565.560	1	6
565.730	1	-3
565.900	1	-2
566.069	1	17
566.239	1	5
566.409	1	7
566.579	1	-2
566.749	1	0
566.919	1	-2
567.089	1	1
567.259	1	6
567.429	1	0
567.599	1	6
567.768	1	3
567.938	1	-4
568.108	1	-2
568.278	1	3
568.448	1	-1
568.618	1	9
568.788	1	7
568.958	1	3
569.128	1	-8
569.297	1	-2
569.467	1	-4
569.637	1	9
569.807	1	10
569.977	1	4
570.147	1	6
570.317	1	-4
570.487	1	2
570.656	1	-3
570.826	1	-1
570.996	1	7
571.166	1	5
571.336	1	0
571.506	1	-1
571.676	1	7
571.846	1	8
572.015	1	1
572.185	1	-5
572.355	1	9
572.525	1	-3
572.695	1	9
572.865	1	5
573.035	1	19
573.205	1	-5
573.374	1	-1
573.544	1	6
573.714	1	-1
573.884	1	1
574.054	1	2
574.224	1	10
574.394	1	-10
574.563	1	6
574.733	1	4
574.903	1	9
575.073	1	4
575.243	1	10
575.413	1	7
575.583	1	-3
575.752	1	3
575.922	1	7
576.092	1	-5
576.262	1	-5
576.432	1	5
576.602	1	3
576.772	1	6
576.941	1	1
577.111	1	11
577.281	1	3
577.451	1	0
577.621	1	-4
577.791	1	1
577.960	1	8
578.130	1	-2
578.300	1	6
578.470	1	3
578.640	1	-3
578.810	1	-9
578.979	1	5
579.149	1	3
579.319	1	2
579.489	1	8
579.659	1	11
579.829	1	9
579.998	1	2
580.168	1	5
580.338	1	-10
580.508	1	5
580.678	1	-1
580.848	1	4
581.017	1	1
581.187	1	1
581.357	1	6
581.527	1	-1
581.697	1	-4
581.867	1	10
582.036	1	8
582.206	1	7
582.376	1	-4
582.546	1	-3
582.716	1	-2
582.885	1	2
583.055	1	-8
583.225	1	13
583.395	1	1
583.565	1	-2
583.735	1	3
583.904	1	5
584.074	1	2
584.244	1	14
584.414	1	6
584.584	1	5
584.753	1	-2
584.923	1	5
585.093	1	3
585.263	1	2
585.433	1	-3
585.602	1	-4
585.772	1	3
585.942	1	-6
586.112	1	0
586.282	1	4
586.451	1	-3
586.621	1	4
586.791	1	3
586.961	1	1
587.131	1	0
587.300	1	0
587.470	1	10
587.640	1	2
587.810	1	8
587.980	1	-2
588.149	1	0
588.319	1	3
588.489	1	0
588.659	1	12
588.829	1	1
588.998	1	9
589.168	1	4
589.338	1	10
589.508	1	7
589.677	1	-8
589.847	1	8
590.017	1	9
590.187	1	1
590.357	1	-4
590.526	1	-5
590.696	1	5
590.866	1	10
591.036	1	3
591.205	1	7
591.375	1	-11
591.545	1	5
591.715	1	-10
591.885	1	-4
592.054	1	5
592.224	1	6
592.394	1	-1
592.564	1	6
592.733	1	16
592.903	1	0
593.073	1	-4
593.243	1	4
593.412	1	12
593.582	1	-8
593.752	1	4
593.922	1	-7
594.091	1	3
594.261	1	8
594.431	1	12
594.601	1	-1
594.771	1	-4
594.940	1	-8
595.110	1	-5
595.280	1	2
595.450	1	8
595.619	1	1
595.789	1	-5
595.959	1	7
596.129	1	4
596.298	1	19
596.468	1	3
596.638	1	-2
596.808	1	2
596.977	1	8
597.147	1	0
597.317	1	-1
597.487	1	-4
597.656	1	5
597.826	1	-5
597.996	1	0
598.166	1	2
598.335	1	-7
598.505	1	6
598.675	1	-1
598.844	1	8
599.014	1	0
599.184	1	5
599.354	1	6
599.523	1	1
599.693	1	-4
599.863	1	6
600.033	1	0
600.202	1	-5
600.372	1	-10
600.542	1	0
600.712	1	1
600.881	1	8
601.051	1	2
601.221	1	10
601.390	1	-3
601.560	1	5
601.730	1	6
601.900	1	1
602.069	1	-1
602.239	1	20
602.409	1	2
602.578	1	-9
602.748	1	7
602.918	1	3
603.088	1	7
603.257	1	11
603.427	1	7
603.597	1	7
603.767	1	-8
603.936	1	-19
604.106	1	0
604.276	1	3
604.445	1	4
604.615	1	3
604.785	1	6
604.954	1	3
605.124	1	8
605.294	1	-1
605.464	1	10
605.633	1	1
605.803	1	3
605.973	1	10
606.142	1	9
606.312	1	-2
606.482	1	-2
606.652	1	-9
606.821	1	4
606.991	1	7
607.161	1	6
607.330	1	-7
607.500	1	-5
607.670	1	-5
607.839	1	-4
608.009	1	8
608.179	1	6
608.348	1	17
608.518	1	0
608.688	1	6
608.858	1	8
609.027	1	9
609.197	1	-5
609.367	1	0
609.536	1	5
609.706	1	-2
609.876	1	6
610.045	1	7
610.215	1	11
610.385	1	6
610.554	1	6
610.724	1	-8
610.894	1	-4
611.063	1	-1
611.233	1	4
611.403	1	6
611.572	1	0
611.742	1	1
611.912	1	0
612.081	1	4
612.251	1	4
612.421	1	7
612.590	1	-10
612.760	1	3
612.930	1	-3
613.099	1	8
613.269	1	0
613.439	1	7
613.608	1	-3
613.778	1	1
613.948	1	6
614.117	1	4
614.287	1	7
614.457	1	13
614.626	1	5
614.796	1	14
614.966	1	19
615.135	1	10
615.305	1	6
615.475	1	2
615.644	1	-5
615.814	1	-4
615.984	1	14
616.153	1	2
616.323	1	10
616.493	1	2
616.662	1	4
616.832	1	10
617.002	1	-7
617.171	1	-6
617.341	1	8
617.511	1	-1
617.680	1	10
617.850	1	3
618.019	1	8
618.189	1	-1
618.359	1	1
618.528	1	7
618.698	1	7
618.868	1	1
619.037	1	0
619.207	1	2
619.377	1	-7
619.546	1	-1
619.716	1	-8
619.885	1	6
620.055	1	-1
620.225	1	8
620.394	1	8
620.564	1	-5
620.734	1	7
620.903	1	5
621.073	1	3
621.242	1	18
621.412	1	3
621.582	1	9
621.751	1	0
621.921	1	3
622.091	1	4
622.260	1	10
622.430	1	4
622.599	1	-1
622.769	1	11
622.939	1	6
623.108	1	7
623.278	1	4
623.448	1	5
623.617	1	8
623.787	1	4
623.956	1	8
624.126	1	-4
624.296	1	-3
624.465	1	1
624.635	1	10
624.804	1	4
624.974	1	2
625.144	1	4
625.313	1	10
625.483	1	7
625.652	1	6
625.822	1	11
625.992	1	1
626.161	1	6
626.331	1	11
626.501	1	11
626.670	1	-8
626.840	1	-9
627.009	1	15
627.179	1	12
627.348	1	10
627.518	1	13
627.688	1	3
627.857	1	10
628.027	1	1
628.196	1	2
628.366	1	-9
628.536	1	5
628.705	1	4
628.875	1	22
629.044	1	2
629.214	1	10
629.384	1	1
629.553	1	2
629.723	1	7
629.892	1	14
630.062	1	6
630.232	1	2
630.401	1	10
630.571	1	8
630.740	1	11
630.910	1	15
631.079	1	8
631.249	1	9
631.419	1	3
631.588	1	1
631.758	1	4
631.927	1	-3
632.097	1	6
632.266	1	11
632.436	1	9
632.606	1	16
632.775	1	11
632.945	1	7
633.114	1	11
633.284	1	7
633.453	1	4
633.623	1	6
633.793	1	17
633.962	1	11
634.132	1	1
634.301	1	0
634.471	1	-4
634.640	1	12
634.810	1	12
634.979	1	7
635.149	1	7
635.319	1	-4
635.488	1	3
635.658	1	11
635.827	1	-1
635.997	1	1
636.166	1	11
636.336	1	13
636.505	1	17
636.675	1	-6
636.845	1	5
637.014	1	7
637.184	1	19
637.353	1	3
637.523	1	14
637.692	1	3
637.862	1	9
638.031	1	7
638.201	1	8
638.370	1	24
638.540	1	6
638.710	1	2
638.879	1	8
639.049	1	9
639.218	1	5
639.388	1	3
639.557	1	18
639.727	1	3
639.896	1	9
640.066	1	15
640.235	1	10
640.405	1	9
640.574	1	10
640.744	1	8
640.914	1	1
641.083	1	11
641.253	1	3
641.422	1	-9
641.592	1	3
641.761	1	14
641.931	1	19
642.100	1	6
642.270	1	3
642.439	1	10
642.609	1	11
642.778	1	-7
642.948	1	20
643.117	1	8
643.287	1	11
643.456	1	11
643.626	1	0
643.795	1	-5
643.965	1	4
644.134	1	5
644.304	1	10
644.473	1	21
644.643	1	5
644.812	1	3
644.982	1	0
645.151	1	0
645.321	1	5
645.490	1	5
645.660	1	9
645.829	1	2
645.999	1	13
646.168	1	8
646.338	1	15
646.507	1	8
646.677	1	-1
646.846	1	3
647.016	1	13
647.185	1	5
647.355	1	12
647.524	1	13
647.694	1	2
647.863	1	3
648.033	1	11
648.202	1	3
648.372	1	2
648.541	1	-1
648.711	1	6
648.880	1	0
649.050	1	2
649.219	1	11
649.389	1	0
649.558	1	5
649.728	1	2
649.897	1	7
650.067	1	-4
650.236	1	3
650.406	1	9
650.575	1	11
650.745	1	0
650.914	1	16
651.084	1	-2
651.253	1	10
651.423	1	27
651.592	1	4
651.762	1	-3
651.931	1	3
652.101	1	1
652.270	1	0
652.440	1	-6
652.609	1	-5
652.778	1	5
652.948	1	10
653.117	1	5
653.287	1	8
653.456	1	6
653.626	1	-3
653.795	1	-7
653.965	1	15
654.134	1	3
654.304	1	-3
654.473	1	7
654.643	1	-3
654.812	1	0
654.982	1	5
655.151	1	-1
655.320	1	7
655.490	1	7
655.659	1	-3
655.829	1	5
655.998	1	14
656.168	1	1
656.337	1	9
656.507	1	6
656.676	1	-1
656.846	1	11
657.015	1	11
657.184	1	0
657.354	1	-6
657.523	1	8
657.693	1	5
657.862	1	8
658.032	1	4
658.201	1	11
658.371	1	8
658.540	1	3
658.709	1	3
658.879	1	2
659.048	1	9
659.218	1	3
659.387	1	-2
659.557	1	4
659.726	1	10
659.895	1	2
660.065	1	16
660.234	1	-6
660.404	1	9
660.573	1	10
660.743	1	-3
660.912	1	-1
661.081	1	6
661.251	1	10
661.420	1	3
661.590	1	6
661.759	1	0
661.929	1	3
662.098	1	2
662.267	1	5
662.437	1	9
662.606	1	4
662.776	1	2
662.945	1	9
663.115	1	-2
663.284	1	-4
663.453	1	1
663.623	1	3
663.792	1	6
663.962	1	-3
664.131	1	1
664.300	1	0
664.470	1	4
664.639	1	8
664.809	1	-1
664.978	1	-11
665.148	1	7
665.317	1	14
665.486	1	4
665.656	1	4
665.825	1	2
665.995	1	1
666.164	1	16
666.333	1	-4
666.503	1	2
666.672	1	0
666.842	1	1
667.011	1	3
667.180	1	3
667.350	1	10
667.519	1	1
667.689	1	2
667.858	1	4
668.027	1	-4
668.197	1	3
668.366	1	13
668.536	1	2
668.705	1	4
668.874	1	7
669.044	1	-6
669.213	1	1
669.382	1	-9
669.552	1	2
669.721	1	1
669.891	1	3
670.060	1	9
670.229	1	9
670.399	1	7
670.568	1	-12
670.738	1	13
670.907	1	13
671.076	1	9
671.246	1	0
671.415	1	-9
671.584	1	5
671.754	1	5
671.923	1	0
672.093	1	-1
672.262	1	-2
672.431	1	-1
672.601	1	6
672.770	1	4
672.939	1	-1
673.109	1	1
673.278	1	8
673.448	1	2
673.617	1	-5
673.786	1	-10
