325.333	1	10
325.504	1	7
325.675	1	10
325.846	1	-4
326.017	1	9
326.188	1	8
326.359	1	2
326.531	1	10
326.702	1	13
326.873	1	-3
327.044	1	7
327.215	1	-2
327.386	1	18
327.557	1	3
327.728	1	4
327.899	1	6
328.070	1	3
328.241	1	9
328.412	1	4
328.583	1	8
328.754	1	2
328.926	1	7
329.097	1	9
329.268	1	12
329.439	1	3
329.610	1	2
329.781	1	4
329.952	1	-5
330.123	1	2
330.294	1	14
330.465	1	6
330.636	1	18
330.807	1	15
330.978	1	2
331.149	1	-2
331.320	1	20
331.492	1	6
331.663	1	4
331.834	1	5
332.005	1	-2
332.176	1	7
332.347	1	15
332.518	1	4
332.689	1	12
332.860	1	6
333.031	1	6
333.202	1	2
333.373	1	12
333.544	1	12
333.715	1	-2
333.886	1	9
334.057	1	10
334.228	1	-3
334.399	1	7
334.570	1	14
334.741	1	-1
334.912	1	15
335.084	1	-1
335.255	1	3
335.426	1	4
335.597	1	6
335.768	1	2
335.939	1	10
336.110	1	10
336.281	1	11
336.452	1	7
336.623	1	7
336.794	1	18
336.965	1	12
337.136	1	4
337.307	1	8
337.478	1	5
337.649	1	9
337.820	1	7
337.991	1	14
338.162	1	16
338.333	1	7
338.504	1	4
338.675	1	10
338.846	1	1
339.017	1	-3
339.188	1	8
339.359	1	11
339.530	1	6
339.701	1	16
339.872	1	9
340.043	1	9
340.214	1	2
340.385	1	-5
340.556	1	8
340.727	1	17
340.898	1	7
341.069	1	10
341.240	1	13
341.411	1	17
341.582	1	1
341.753	1	17
341.924	1	11
342.095	1	2
342.266	1	0
342.437	1	3
342.608	1	4
342.779	1	-1
342.950	1	6
343.121	1	8
343.292	1	11
343.463	1	12
343.634	1	0
343.805	1	16
343.976	1	0
344.147	1	5
344.318	1	10
344.489	1	-2
344.660	1	13
344.831	1	-2
345.002	1	9
345.173	1	2
345.344	1	12
345.515	1	4
345.686	1	4
345.857	1	0
346.028	1	14
346.199	1	6
346.370	1	6
346.541	1	13
346.712	1	2
346.883	1	10
347.054	1	2
347.225	1	0
347.396	1	-3
347.567	1	14
347.738	1	6
347.909	1	13
348.080	1	-4
348.251	1	11
348.422	1	-9
348.593	1	-5
348.764	1	11
348.935	1	-1
349.106	1	-4
349.277	1	13
349.448	1	3
349.619	1	0
349.790	1	27
349.961	1	9
350.132	1	1
350.303	1	6
350.474	1	9
350.645	1	8
350.816	1	4
350.987	1	6
351.157	1	9
351.328	1	-2
351.499	1	19
351.670	1	0
351.841	1	13
352.012	1	10
352.183	1	3
352.354	1	17
352.525	1	-4
352.696	1	7
352.867	1	3
353.038	1	4
353.209	1	14
353.380	1	8
353.551	1	0
353.722	1	-4
353.893	1	3
354.064	1	12
354.235	1	10
354.406	1	4
354.576	1	-9
354.747	1	1
354.918	1	14
355.089	1	6
355.260	1	4
355.431	1	-1
355.602	1	5
355.773	1	3
355.944	1	8
356.115	1	4
356.286	1	-1
356.457	1	10
356.628	1	4
356.799	1	9
356.970	1	-11
357.141	1	14
357.311	1	6
357.482	1	8
357.653	1	-2
357.824	1	-4
357.995	1	2
358.166	1	4
358.337	1	11
358.508	1	9
358.679	1	1
358.850	1	6
359.021	1	14
359.192	1	5
359.363	1	3
359.533	1	-2
359.704	1	2
359.875	1	2
360.046	1	8
360.217	1	7
360.388	1	-2
360.559	1	7
360.730	1	-2
360.901	1	12
361.072	1	-2
361.243	1	16
361.414	1	-5
361.584	1	7
361.755	1	3
361.926	1	0
362.097	1	4
362.268	1	3
362.439	1	1
362.610	1	10
362.781	1	7
362.952	1	3
363.123	1	0
363.293	1	1
363.464	1	4
363.635	1	7
363.806	1	-4
363.977	1	9
364.148	1	3
364.319	1	9
364.490	1	8
364.661	1	1
364.832	1	1
365.002	1	4
365.173	1	-1
365.344	1	-3
365.515	1	9
365.686	1	7
365.857	1	-5
366.028	1	14
366.199	1	-7
366.370	1	-5
366.540	1	1
366.711	1	1
366.882	1	11
367.053	1	7
367.224	1	-3
367.395	1	-2
367.566	1	5
367.737	1	9
367.908	1	6
368.078	1	-1
368.249	1	2
368.420	1	9
368.591	1	2
368.762	1	3
368.933	1	15
369.104	1	8
369.274	1	3
369.445	1	4
369.616	1	11
369.787	1	-1
369.958	1	7
370.129	1	5
370.300	1	7
370.471	1	6
370.641	1	5
370.812	1	4
370.983	1	3
371.154	1	14
371.325	1	7
371.496	1	0
371.667	1	5
371.837	1	4
372.008	1	6
372.179	1	1
372.350	1	-4
372.521	1	-3
372.692	1	-2
372.863	1	-1
373.033	1	4
373.204	1	8
373.375	1	5
373.546	1	1
373.717	1	8
373.888	1	4
374.059	1	3
374.229	1	4
374.400	1	7
374.571	1	0
374.742	1	6
374.913	1	1
375.084	1	5
375.254	1	9
375.425	1	11
375.596	1	21
375.767	1	4
375.938	1	-1
376.109	1	3
376.279	1	-9
376.450	1	3
376.621	1	2
376.792	1	1
376.963	1	11
377.134	1	5
377.304	1	-2
377.475	1	9
377.646	1	6
377.817	1	11
377.988	1	5
378.159	1	-5
378.329	1	13
378.500	1	-7
378.671	1	13
378.842	1	14
379.013	1	15
379.184	1	2
379.354	1	-8
379.525	1	7
379.696	1	7
379.867	1	0
380.038	1	8
380.209	1	1
380.379	1	13
380.550	1	3
380.721	1	12
380.892	1	4
381.063	1	1
381.233	1	-2
381.404	1	5
381.575	1	7
381.746	1	3
381.917	1	13
382.087	1	4
382.258	1	12
382.429	1	12
382.600	1	5
382.771	1	11
382.941	1	11
383.112	1	-1
383.283	1	-3
383.454	1	9
383.625	1	-1
383.795	1	22
383.966	1	12
384.137	1	-3
384.308	1	11
384.479	1	16
384.649	1	14
384.820	1	11
384.991	1	18
385.162	1	4
385.333	1	2
385.503	1	-3
385.674	1	8
385.845	1	9
386.016	1	15
386.187	1	4
386.357	1	1
386.528	1	7
386.699	1	5
386.870	1	-1
387.041	1	14
387.211	1	5
387.382	1	18
387.553	1	5
387.724	1	-5
387.894	1	4
388.065	1	10
388.236	1	18
388.407	1	11
388.578	1	12
388.748	1	7
388.919	1	-1
389.090	1	7
389.261	1	1
389.431	1	20
389.602	1	5
389.773	1	-3
389.944	1	12
390.114	1	6
390.285	1	12
390.456	1	13
390.627	1	24
390.798	1	3
390.968	1	14
391.139	1	2
391.310	1	0
391.481	1	1
391.651	1	8
391.822	1	9
391.993	1	1
392.164	1	11
392.334	1	5
392.505	1	15
392.676	1	11
392.847	1	8
393.017	1	4
393.188	1	9
393.359	1	8
393.530	1	14
393.700	1	9
393.871	1	7
394.042	1	8
394.213	1	10
394.383	1	10
394.554	1	2
394.725	1	18
394.896	1	16
395.066	1	9
395.237	1	6
395.408	1	7
395.579	1	10
395.749	1	13
395.920	1	1
396.091	1	3
396.262	1	-6
396.432	1	10
396.603	1	13
396.774	1	8
396.945	1	8
397.115	1	15
397.286	1	2
397.457	1	12
397.627	1	11
397.798	1	11
397.969	1	15
398.140	1	0
398.310	1	18
398.481	1	0
398.652	1	11
398.823	1	15
398.993	1	11
399.164	1	2
399.335	1	10
399.505	1	10
399.676	1	-2
399.847	1	10
400.018	1	10
400.188	1	12
400.359	1	6
400.530	1	11
400.700	1	10
400.871	1	18
401.042	1	7
401.213	1	12
401.383	1	9
401.554	1	18
401.725	1	0
401.895	1	1
402.066	1	9
402.237	1	18
402.408	1	16
402.578	1	8
402.749	1	18
402.920	1	7
403.090	1	7
403.261	1	7
403.432	1	18
403.603	1	11
403.773	1	17
403.944	1	15
404.115	1	21
404.285	1	13
404.456	1	14
404.627	1	14
404.797	1	7
404.968	1	18
405.139	1	14
405.310	1	11
405.480	1	8
405.651	1	11
405.822	1	4
405.992	1	27
406.163	1	7
406.334	1	23
406.504	1	11
406.675	1	17
406.846	1	10
407.016	1	22
407.187	1	6
407.358	1	16
407.528	1	11
407.699	1	20
407.870	1	13
408.041	1	13
408.211	1	10
408.382	1	7
408.553	1	19
408.723	1	30
408.894	1	4
409.065	1	11
409.235	1	-3
409.406	1	23
409.577	1	16
409.747	1	13
409.918	1	17
410.089	1	10
410.259	1	19
410.430	1	12
410.601	1	17
410.771	1	18
410.942	1	19
411.113	1	22
411.283	1	14
411.454	1	10
411.625	1	9
411.795	1	15
411.966	1	16
412.137	1	22
412.307	1	-1
412.478	1	8
412.649	1	17
412.819	1	17
412.990	1	18
413.161	1	17
413.331	1	25
413.502	1	21
413.672	1	7
413.843	1	17
414.014	1	8
414.184	1	20
414.355	1	17
414.526	1	15
414.696	1	19
414.867	1	17
415.038	1	15
415.208	1	3
415.379	1	11
415.550	1	11
415.720	1	10
415.891	1	14
416.062	1	0
416.232	1	17
416.403	1	6
416.573	1	18
416.744	1	19
416.915	1	14
417.085	1	13
417.256	1	11
417.427	1	19
417.597	1	23
417.768	1	7
417.939	1	13
418.109	1	16
418.280	1	20
418.450	1	20
418.621	1	11
418.792	1	11
418.962	1	10
419.133	1	25
419.304	1	14
419.474	1	10
419.645	1	17
419.815	1	22
419.986	1	18
420.157	1	21
420.327	1	10
420.498	1	12
420.669	1	9
420.839	1	16
421.010	1	20
421.180	1	14
421.351	1	6
421.522	1	8
421.692	1	10
421.863	1	12
422.033	1	23
422.204	1	13
422.375	1	29
422.545	1	24
422.716	1	9
422.886	1	15
423.057	1	19
423.228	1	18
423.398	1	15
423.569	1	11
423.740	1	19
423.910	1	23
424.081	1	19
424.251	1	14
424.422	1	13
424.593	1	2
424.763	1	19
424.934	1	17
425.104	1	24
425.275	1	18
425.445	1	14
425.616	1	17
425.787	1	15
425.957	1	34
426.128	1	21
426.298	1	1
426.469	1	22
426.640	1	-1
426.810	1	20
426.981	1	17
427.151	1	13
427.322	1	26
427.493	1	12
427.663	1	16
427.834	1	4
428.004	1	20
428.175	1	2
428.345	1	13
428.516	1	23
428.687	1	10
428.857	1	6
429.028	1	20
429.198	1	14
429.369	1	23
429.540	1	17
429.710	1	27
429.881	1	16
430.051	1	4
430.222	1	19
430.392	1	20
430.563	1	23
430.734	1	19
430.904	1	12
431.075	1	13
431.245	1	7
431.416	1	-1
431.586	1	22
431.757	1	21
431.927	1	11
432.098	1	11
432.269	1	19
432.439	1	12
432.610	1	17
432.780	1	1
432.951	1	9
433.121	1	7
433.292	1	10
433.462	1	16
433.633	1	18
433.804	1	18
433.974	1	27
434.145	1	15
434.315	1	10
434.486	1	9
434.656	1	15
434.827	1	12
434.997	1	13
435.168	1	13
435.339	1	16
435.509	1	27
435.680	1	12
435.850	1	12
436.021	1	22
436.191	1	16
436.362	1	17
436.532	1	17
436.703	1	20
436.873	1	10
437.044	1	13
437.214	1	11
437.385	1	19
437.556	1	14
437.726	1	-3
437.897	1	11
438.067	1	2
438.238	1	14
438.408	1	17
438.579	1	14
438.749	1	16
438.920	1	22
439.090	1	16
439.261	1	6
439.431	1	20
439.602	1	16
439.772	1	14
439.943	1	8
440.113	1	11
440.284	1	17
440.455	1	11
440.625	1	24
440.796	1	13
440.966	1	18
441.137	1	12
441.307	1	29
441.478	1	5
441.648	1	10
441.819	1	9
441.989	1	11
442.160	1	21
442.330	1	19
442.501	1	9
442.671	1	17
442.842	1	13
443.012	1	18
443.183	1	20
443.353	1	12
443.524	1	6
443.694	1	14
443.865	1	1
444.035	1	23
444.206	1	15
444.376	1	10
444.547	1	5
444.717	1	7
444.888	1	18
445.058	1	14
445.229	1	9
445.399	1	16
445.570	1	14
445.740	1	14
445.911	1	11
446.081	1	19
446.252	1	7
446.422	1	6
446.593	1	7
446.763	1	11
446.934	1	16
447.104	1	18
447.275	1	19
447.445	1	16
447.616	1	18
447.786	1	18
447.957	1	3
448.127	1	11
448.298	1	4
448.468	1	12
448.639	1	24
448.809	1	19
448.979	1	7
449.150	1	14
449.320	1	10
449.491	1	14
449.661	1	15
449.832	1	2
450.002	1	14
450.173	1	12
450.343	1	8
450.514	1	21
450.684	1	24
450.855	1	15
451.025	1	9
451.196	1	18
451.366	1	16
451.537	1	9
451.707	1	19
451.878	1	7
452.048	1	10
452.218	1	15
452.389	1	23
452.559	1	19
452.730	1	4
452.900	1	13
453.071	1	14
453.241	1	10
453.412	1	14
453.582	1	17
453.753	1	14
453.923	1	13
454.093	1	-7
454.264	1	12
454.434	1	10
454.605	1	8
454.775	1	8
454.946	1	5
455.116	1	13
455.287	1	15
455.457	1	5
455.628	1	5
455.798	1	8
455.968	1	1
456.139	1	0
456.309	1	4
456.480	1	10
456.650	1	16
456.821	1	21
456.991	1	11
457.161	1	7
457.332	1	16
457.502	1	27
457.673	1	8
457.843	1	2
458.014	1	13
458.184	1	21
458.355	1	17
458.525	1	10
458.695	1	5
458.866	1	3
459.036	1	4
459.207	1	15
459.377	1	9
459.548	1	1
459.718	1	9
459.888	1	8
460.059	1	9
460.229	1	22
460.400	1	24
460.570	1	12
460.740	1	-7
460.911	1	25
461.081	1	15
461.252	1	13
461.422	1	6
461.593	1	12
461.763	1	14
461.933	1	15
462.104	1	2
462.274	1	2
462.445	1	14
462.615	1	10
462.785	1	0
462.956	1	12
463.126	1	7
463.297	1	13
463.467	1	7
463.638	1	7
463.808	1	9
463.978	1	2
464.149	1	14
464.319	1	1
464.490	1	1
464.660	1	12
464.830	1	11
465.001	1	21
465.171	1	3
465.342	1	2
465.512	1	5
465.682	1	3
465.853	1	6
466.023	1	5
466.194	1	10
466.364	1	7
466.534	1	7
466.705	1	10
466.875	1	6
467.045	1	0
467.216	1	16
467.386	1	1
467.557	1	-1
467.727	1	14
467.897	1	6
468.068	1	-4
468.238	1	-6
468.409	1	6
468.579	1	10
468.749	1	17
468.920	1	11
469.090	1	2
469.260	1	5
469.431	1	-2
469.601	1	9
469.772	1	5
469.942	1	15
470.112	1	5
470.283	1	18
470.453	1	3
470.623	1	8
470.794	1	-7
470.964	1	10
471.135	1	2
471.305	1	11
471.475	1	17
471.646	1	6
471.816	1	17
471.986	1	9
472.157	1	-3
472.327	1	-6
472.497	1	9
472.668	1	5
472.838	1	5
473.009	1	17
473.179	1	7
473.349	1	8
473.520	1	6
473.690	1	10
473.860	1	9
474.031	1	14
474.201	1	3
474.371	1	20
474.542	1	14
474.712	1	12
474.882	1	10
475.053	1	0
475.223	1	7
475.394	1	0
475.564	1	4
475.734	1	16
475.905	1	1
476.075	1	6
476.245	1	9
476.416	1	4
476.586	1	12
476.756	1	5
476.927	1	-4
477.097	1	3
477.267	1	13
477.438	1	6
477.608	1	-4
477.778	1	7
477.949	1	4
478.119	1	3
478.289	1	3
478.460	1	8
478.630	1	7
478.800	1	5
478.971	1	-6
479.141	1	11
479.311	1	-2
479.482	1	2
479.652	1	8
479.822	1	6
479.993	1	0
480.163	1	-5
480.333	1	5
480.504	1	0
480.674	1	3
480.844	1	4
481.015	1	11
481.185	1	3
481.355	1	4
481.525	1	10
481.696	1	12
481.866	1	-2
482.036	1	5
482.207	1	8
482.377	1	2
482.547	1	3
482.718	1	7
482.888	1	8
483.058	1	5
483.229	1	15
483.399	1	2
483.569	1	0
483.740	1	4
483.910	1	1
484.080	1	18
484.250	1	11
484.421	1	5
484.591	1	8
484.761	1	4
484.932	1	-6
485.102	1	9
485.272	1	6
485.443	1	11
485.613	1	-2
485.783	1	3
485.953	1	4
486.124	1	-6
486.294	1	15
486.464	1	12
486.635	1	7
486.805	1	-1
486.975	1	8
487.146	1	5
487.316	1	11
487.486	1	10
487.656	1	24
487.827	1	5
487.997	1	9
488.167	1	11
488.338	1	10
488.508	1	5
488.678	1	14
488.848	1	7
489.019	1	6
489.189	1	15
489.359	1	-3
489.529	1	6
489.700	1	-1
489.870	1	13
490.040	1	4
490.211	1	22
490.381	1	10
490.551	1	4
490.721	1	5
490.892	1	1
491.062	1	-2
491.232	1	8
491.402	1	3
491.573	1	4
491.743	1	10
491.913	1	10
492.084	1	-4
492.254	1	0
492.424	1	4
492.594	1	4
492.765	1	1
492.935	1	5
493.105	1	7
493.275	1	14
493.446	1	3
493.616	1	3
493.786	1	4
493.956	1	16
494.127	1	9
494.297	1	4
494.467	1	8
494.637	1	4
494.808	1	11
494.978	1	8
495.148	1	-4
495.318	1	11
495.489	1	-2
495.659	1	-3
495.829	1	2
495.999	1	-1
496.170	1	3
496.340	1	14
496.510	1	-3
496.680	1	9
496.851	1	12
497.021	1	3
497.191	1	11
497.361	1	6
497.532	1	-5
497.702	1	4
497.872	1	10
498.042	1	3
498.213	1	12
498.383	1	7
498.553	1	9
498.723	1	1
498.894	1	22
499.064	1	-4
499.234	1	11
499.404	1	0
499.574	1	2
499.745	1	-1
499.915	1	7
500.085	1	2
500.255	1	10
500.426	1	1
500.596	1	6
500.766	1	8
500.936	1	1
501.106	1	0
501.277	1	3
501.447	1	0
501.617	1	3
501.787	1	9
501.958	1	-6
502.128	1	7
502.298	1	4
502.468	1	2
502.638	1	2
502.809	1	4
502.979	1	14
503.149	1	-3
503.319	1	8
503.489	1	4
503.660	1	-1
503.830	1	2
504.000	1	-5
504.170	1	4
504.340	1	6
504.511	1	1
504.681	1	5
504.851	1	11
505.021	1	6
505.192	1	5
505.362	1	9
505.532	1	-3
505.702	1	10
505.872	1	8
506.043	1	2
506.213	1	-3
506.383	1	9
506.553	1	13
506.723	1	-3
506.893	1	2
507.064	1	13
507.234	1	11
507.404	1	7
507.574	1	5
507.744	1	15
507.915	1	6
508.085	1	16
508.255	1	-1
508.425	1	4
508.595	1	1
508.766	1	2
508.936	1	1
509.106	1	3
509.276	1	10
509.446	1	2
509.616	1	5
509.787	1	8
509.957	1	5
510.127	1	5
510.297	1	1
510.467	1	-1
510.638	1	2
510.808	1	6
510.978	1	0
511.148	1	9
511.318	1	7
511.488	1	4
511.659	1	1
511.829	1	-5
511.999	1	13
512.169	1	16
512.339	1	2
512.509	1	3
512.680	1	6
512.850	1	8
513.020	1	6
513.190	1	0
513.360	1	1
513.530	1	2
513.700	1	9
513.871	1	8
514.041	1	10
514.211	1	12
514.381	1	5
514.551	1	4
514.721	1	10
514.892	1	-5
515.062	1	3
515.232	1	-4
515.402	1	3
515.572	1	7
515.742	1	-2
515.912	1	-2
516.083	1	12
516.253	1	-2
516.423	1	2
516.593	1	-5
516.763	1	-8
516.933	1	2
517.104	1	-4
517.274	1	8
517.444	1	-3
517.614	1	-2
517.784	1	0
517.954	1	10
518.124	1	4
518.294	1	3
518.465	1	-4
518.635	1	15
518.805	1	3
518.975	1	7
519.145	1	2
519.315	1	7
519.485	1	10
519.656	1	3
519.826	1	5
519.996	1	3
520.166	1	4
520.336	1	-6
520.506	1	3
520.676	1	0
520.846	1	7
521.017	1	1
521.187	1	8
521.357	1	-3
521.527	1	6
521.697	1	2
521.867	1	-1
522.037	1	12
522.207	1	4
522.377	1	3
522.548	1	2
522.718	1	17
522.888	1	-3
523.058	1	10
523.228	1	-1
523.398	1	8
523.568	1	3
523.738	1	9
523.909	1	5
524.079	1	6
524.249	1	5
524.419	1	6
524.589	1	1
524.759	1	3
524.929	1	-9
525.099	1	12
525.269	1	-10
525.439	1	0
525.610	1	5
525.780	1	-1
525.950	1	6
526.120	1	4
526.290	1	8
526.460	1	5
526.630	1	0
526.800	1	-18
526.970	1	-4
527.140	1	12
527.311	1	9
527.481	1	7
527.651	1	3
527.821	1	-10
527.991	1	7
528.161	1	10
528.331	1	-11
528.501	1	0
528.671	1	3
528.841	1	8
529.011	1	0
529.181	1	1
529.352	1	2
529.522	1	5
529.692	1	7
529.862	1	-1
530.032	1	5
530.202	1	-5
530.372	1	6
530.542	1	0
530.712	1	-1
530.882	1	-9
531.052	1	13
531.222	1	2
531.392	1	3
531.563	1	2
531.733	1	3
531.903	1	2
532.073	1	-6
532.243	1	8
532.413	1	-1
532.583	1	-8
532.753	1	3
532.923	1	5
533.093	1	4
533.263	1	2
533.433	1	6
533.603	1	17
533.773	1	6
533.943	1	-1
534.113	1	2
534.284	1	1
534.454	1	-1
534.624	1	6
534.794	1	7
534.964	1	6
535.134	1	2
535.304	1	9
535.474	1	1
535.644	1	2
535.814	1	-4
535.984	1	5
536.154	1	-2
536.324	1	-1
536.494	1	0
536.664	1	10
536.834	1	0
537.004	1	5
537.174	1	-4
537.344	1	10
537.514	1	3
537.685	1	6
537.855	1	4
538.025	1	-5
538.195	1	1
538.365	1	10
538.535	1	-2
538.705	1	-6
538.875	1	5
539.045	1	-7
539.215	1	16
539.385	1	6
539.555	1	1
539.725	1	-1
539.895	1	15
540.065	1	-3
540.235	1	-7
540.405	1	-6
540.575	1	7
540.745	1	5
540.915	1	2
541.085	1	0
541.255	1	-1
541.425	1	2
541.595	1	-8
541.765	1	-6
541.935	1	3
542.105	1	0
542.275	1	-6
542.445	1	0
542.615	1	4
542.785	1	1
542.955	1	9
543.125	1	13
543.295	1	2
543.465	1	6
543.635	1	7
543.805	1	-2
543.975	1	0
544.145	1	-8
544.315	1	10
544.485	1	3
544.655	1	0
544.825	1	-1
544.995	1	3
545.165	1	5
545.335	1	5
545.505	1	-4
545.675	1	4
545.845	1	7
546.015	1	2
546.185	1	14
546.355	1	8
546.525	1	0
546.695	1	8
546.865	1	9
547.035	1	3
547.205	1	0
547.375	1	-2
547.545	1	3
547.715	1	-4
547.885	1	4
548.055	1	7
548.225	1	1
548.395	1	-1
548.565	1	7
548.735	1	-3
548.905	1	10
549.075	1	-3
549.245	1	7
549.415	1	1
549.585	1	6
549.755	1	2
549.925	1	13
550.095	1	-2
550.265	1	8
550.435	1	5
550.605	1	1
550.775	1	12
550.945	1	1
551.115	1	2
551.285	1	0
551.455	1	5
551.625	1	7
551.795	1	6
551.965	1	-4
552.135	1	4
552.305	1	3
552.475	1	6
552.645	1	1
552.815	1	-2
552.985	1	-7
553.155	1	2
553.325	1	-5
553.495	1	3
553.665	1	4
553.835	1	8
554.004	1	8
554.174	1	-8
554.344	1	10
554.514	1	-5
554.684	1	-12
554.854	1	-1
555.024	1	-16
555.194	1	6
555.364	1	-5
555.534	1	5
555.704	1	1
555.874	1	4
556.044	1	2
556.214	1	-5
556.384	1	2
556.554	1	0
556.724	1	-4
556.894	1	-4
557.064	1	5
557.234	1	7
557.404	1	4
557.573	1	10
557.743	1	-12
557.913	1	1
558.083	1	1
558.253	1	-3
558.423	1	10
558.593	1	16
558.763	1	3
558.933	1	0
559.103	1	-3
559.273	1	9
559.443	1	3
559.613	1	-11
559.783	1	10
559.953	1	-12
560.122	1	-1
560.292	1	0
560.462	1	-3
560.632	1	2
560.802	1	-6
560.972	1	2
561.142	1	-2
561.312	1	3
561.482	1	3
561.652	1	5
561.822	1	7
561.992	1	2
562.162	1	3
562.331	1	6
562.501	1	-4
562.671	1	-7
562.841	1	-1
563.011	1	-6
563.181	1	7
563.351	1	4
563.521	1	5
563.691	1	-3
563.861	1	3
564.031	1	8
564.201	1	3
564.370	1	-5
564.540	1	-5
564.710	1	-11
564.880	1	2
565.050	1	8
565.220	1	8
565.390	1	8
565.560	1	8
565.730	1	3
565.900	1	7
566.069	1	9
566.239	1	2
566.409	1	4
566.579	1	-4
566.749	1	9
566.919	1	-1
567.089	1	0
567.259	1	3
567.429	1	-3
567.599	1	6
567.768	1	-4
567.938	1	3
568.108	1	2
568.278	1	0
568.448	1	-7
568.618	1	7
568.788	1	13
568.958	1	3
569.128	1	-8
569.297	1	3
569.467	1	5
569.637	1	10
569.807	1	5
569.977	1	7
570.147	1	9
570.317	1	-2
570.487	1	2
570.656	1	-2
570.826	1	8
570.996	1	8
571.166	1	5
571.336	1	15
571.506	1	4
571.676	1	11
571.846	1	5
572.015	1	2
572.185	1	-2
572.355	1	7
572.525	1	4
572.695	1	11
572.865	1	3
573.035	1	5
573.205	1	4
573.374	1	5
573.544	1	-1
573.714	1	-3
573.884	1	0
574.054	1	5
574.224	1	10
574.394	1	-8
574.563	1	2
574.733	1	7
574.903	1	7
575.073	1	5
575.243	1	7
575.413	1	-3
575.583	1	6
575.752	1	2
575.922	1	8
576.092	1	4
576.262	1	-2
576.432	1	8
576.602	1	0
576.772	1	5
576.941	1	-6
577.111	1	11
577.281	1	-8
577.451	1	6
577.621	1	0
577.791	1	2
577.960	1	7
578.130	1	-6
578.300	1	-9
578.470	1	4
578.640	1	-4
578.810	1	3
578.979	1	0
579.149	1	12
579.319	1	1
579.489	1	-1
579.659	1	5
579.829	1	7
579.998	1	5
580.168	1	7
580.338	1	-2
580.508	1	2
580.678	1	-5
580.848	1	-8
581.017	1	6
581.187	1	13
581.357	1	9
581.527	1	1
581.697	1	-10
581.867	1	10
582.036	1	10
582.206	1	-6
582.376	1	5
582.546	1	-6
582.716	1	-5
582.885	1	-1
583.055	1	3
583.225	1	14
583.395	1	12
583.565	1	-4
583.735	1	6
583.904	1	2
584.074	1	6
584.244	1	8
584.414	1	-3
584.584	1	2
584.753	1	-7
584.923	1	15
585.093	1	-3
585.263	1	-9
585.433	1	-4
585.602	1	5
585.772	1	0
585.942	1	-3
586.112	1	-1
586.282	1	0
586.451	1	-5
586.621	1	6
586.791	1	2
586.961	1	5
587.131	1	3
587.300	1	5
587.470	1	8
587.640	1	3
587.810	1	7
587.980	1	0
588.149	1	-3
588.319	1	5
588.489	1	3
588.659	1	16
588.829	1	6
588.998	1	4
589.168	1	5
589.338	1	0
589.508	1	-1
589.677	1	-6
589.847	1	15
590.017	1	3
590.187	1	0
590.357	1	2
590.526	1	5
590.696	1	10
590.866	1	4
591.036	1	13
591.205	1	5
591.375	1	-9
591.545	1	10
591.715	1	-5
591.885	1	5
592.054	1	6
592.224	1	6
592.394	1	-12
592.564	1	7
592.733	1	23
592.903	1	10
593.073	1	-1
593.243	1	9
593.412	1	4
593.582	1	1
593.752	1	0
593.922	1	4
594.091	1	6
594.261	1	8
594.431	1	9
594.601	1	6
594.771	1	2
594.940	1	1
595.110	1	5
595.280	1	12
595.450	1	7
595.619	1	-5
595.789	1	2
595.959	1	4
596.129	1	5
596.298	1	8
596.468	1	10
596.638	1	-6
596.808	1	2
596.977	1	13
597.147	1	3
597.317	1	-3
597.487	1	-10
597.656	1	-2
597.826	1	-7
597.996	1	5
598.166	1	0
598.335	1	6
598.505	1	3
598.675	1	1
598.844	1	1
599.014	1	-7
599.184	1	7
599.354	1	-1
599.523	1	1
599.693	1	3
599.863	1	7
600.033	1	-2
600.202	1	0
600.372	1	-8
600.542	1	-4
600.712	1	0
600.881	1	1
601.051	1	8
601.221	1	8
601.390	1	-2
601.560	1	4
601.730	1	6
601.900	1	7
602.069	1	7
602.239	1	11
602.409	1	-3
602.578	1	3
602.748	1	0
602.918	1	4
603.088	1	1
603.257	1	6
603.427	1	3
603.597	1	-1
603.767	1	1
603.936	1	-10
604.106	1	3
604.276	1	4
604.445	1	-1
604.615	1	-6
604.785	1	10
604.954	1	-5
605.124	1	8
605.294	1	11
605.464	1	10
605.633	1	3
605.803	1	4
605.973	1	10
606.142	1	1
606.312	1	4
606.482	1	7
606.652	1	-2
606.821	1	2
606.991	1	8
607.161	1	11
607.330	1	-5
607.500	1	-2
607.670	1	0
607.839	1	7
608.009	1	-3
608.179	1	3
608.348	1	6
608.518	1	10
608.688	1	7
608.858	1	3
609.027	1	14
609.197	1	-12
609.367	1	-8
609.536	1	6
609.706	1	3
609.876	1	0
610.045	1	-3
610.215	1	13
610.385	1	3
610.554	1	3
610.724	1	2
610.894	1	6
611.063	1	4
611.233	1	4
611.403	1	12
611.572	1	3
611.742	1	-3
611.912	1	11
612.081	1	5
612.251	1	1
612.421	1	2
612.590	1	0
612.760	1	9
612.930	1	-3
613.099	1	9
613.269	1	8
613.439	1	2
613.608	1	-6
613.778	1	-1
613.948	1	4
614.117	1	4
614.287	1	12
614.457	1	4
614.626	1	12
614.796	1	3
614.966	1	6
615.135	1	12
615.305	1	6
615.475	1	7
615.644	1	-4
615.814	1	3
615.984	1	5
616.153	1	2
616.323	1	5
616.493	1	-6
616.662	1	1
616.832	1	5
617.002	1	10
617.171	1	-2
617.341	1	6
617.511	1	-7
617.680	1	18
617.850	1	1
618.019	1	14
618.189	1	2
618.359	1	5
618.528	1	3
618.698	1	-6
618.868	1	-7
619.037	1	12
619.207	1	3
619.377	1	1
619.546	1	3
619.716	1	-6
619.885	1	-3
620.055	1	-5
620.225	1	10
620.394	1	7
620.564	1	6
620.734	1	-2
620.903	1	10
621.073	1	3
621.242	1	13
621.412	1	5
621.582	1	5
621.751	1	-7
621.921	1	3
622.091	1	4
622.260	1	9
622.430	1	11
622.599	1	6
622.769	1	9
622.939	1	8
623.108	1	9
623.278	1	7
623.448	1	5
623.617	1	7
623.787	1	2
623.956	1	7
624.126	1	0
624.296	1	-4
624.465	1	0
624.635	1	18
624.804	1	1
624.974	1	0
625.144	1	-2
625.313	1	7
625.483	1	12
625.652	1	4
625.822	1	6
625.992	1	4
626.161	1	9
626.331	1	6
626.501	1	18
626.670	1	-9
626.840	1	6
627.009	1	9
627.179	1	-3
627.348	1	5
627.518	1	6
627.688	1	-1
627.857	1	8
628.027	1	-3
628.196	1	-6
628.366	1	-1
628.536	1	4
628.705	1	1
628.875	1	16
629.044	1	6
629.214	1	3
629.384	1	1
629.553	1	-4
629.723	1	11
629.892	1	10
630.062	1	5
630.232	1	2
630.401	1	10
630.571	1	5
630.740	1	1
630.910	1	20
631.079	1	9
631.249	1	7
631.419	1	5
631.588	1	7
631.758	1	6
631.927	1	-4
632.097	1	-3
632.266	1	2
632.436	1	11
632.606	1	11
632.775	1	17
632.945	1	9
633.114	1	4
633.284	1	8
633.453	1	2
633.623	1	-2
633.793	1	18
633.962	1	11
634.132	1	4
634.301	1	8
634.471	1	2
634.640	1	4
634.810	1	16
634.979	1	12
635.149	1	8
635.319	1	-1
635.488	1	3
635.658	1	9
635.827	1	5
635.997	1	2
636.166	1	18
636.336	1	7
636.505	1	12
636.675	1	4
636.845	1	3
637.014	1	20
637.184	1	10
637.353	1	9
637.523	1	11
637.692	1	2
637.862	1	6
638.031	1	15
638.201	1	7
638.370	1	17
638.540	1	5
638.710	1	-8
638.879	1	10
639.049	1	10
639.218	1	10
639.388	1	9
639.557	1	23
639.727	1	7
639.896	1	6
640.066	1	19
640.235	1	4
640.405	1	12
640.574	1	10
640.744	1	19
640.914	1	-9
641.083	1	0
641.253	1	7
641.422	1	1
641.592	1	4
641.761	1	8
641.931	1	16
642.100	1	-3
642.270	1	-3
642.439	1	3
642.609	1	12
642.778	1	-5
642.948	1	19
643.117	1	10
643.287	1	4
643.456	1	4
643.626	1	4
643.795	1	4
643.965	1	11
644.134	1	-1
644.304	1	5
644.473	1	6
644.643	1	5
644.812	1	1
644.982	1	4
645.151	1	0
645.321	1	2
645.490	1	5
645.660	1	2
645.829	1	5
645.999	1	6
646.168	1	11
646.338	1	0
646.507	1	-1
646.677	1	1
646.846	1	2
647.016	1	-3
647.185	1	5
647.355	1	8
647.524	1	10
647.694	1	7
647.863	1	7
648.033	1	1
648.202	1	-4
648.372	1	6
648.541	1	14
648.711	1	2
648.880	1	2
649.050	1	5
649.219	1	10
649.389	1	-3
649.558	1	1
649.728	1	-4
649.897	1	2
650.067	1	-3
650.236	1	-7
650.406	1	8
650.575	1	8
650.745	1	2
650.914	1	3
651.084	1	-4
651.253	1	5
651.423	1	19
651.592	1	0
651.762	1	-1
651.931	1	7
652.101	1	-2
652.270	1	3
652.440	1	-7
652.609	1	7
652.778	1	2
652.948	1	6
653.117	1	17
653.287	1	5
653.456	1	12
653.626	1	8
653.795	1	2
653.965	1	15
654.134	1	-3
654.304	1	-4
654.473	1	10
654.643	1	-11
654.812	1	-2
654.982	1	4
655.151	1	9
655.320	1	14
655.490	1	-4
655.659	1	7
655.829	1	-1
655.998	1	2
656.168	1	2
656.337	1	5
656.507	1	-7
656.676	1	-7
656.846	1	5
657.015	1	5
657.184	1	-6
657.354	1	4
657.523	1	3
657.693	1	6
657.862	1	4
658.032	1	8
658.201	1	9
658.371	1	3
658.540	1	7
658.709	1	-3
658.879	1	5
659.048	1	12
659.218	1	11
659.387	1	-2
659.557	1	-5
659.726	1	-3
659.895	1	-5
660.065	1	5
660.234	1	4
660.404	1	7
660.573	1	4
660.743	1	10
660.912	1	2
661.081	1	0
661.251	1	12
661.420	1	-1
661.590	1	4
661.759	1	3
661.929	1	9
662.098	1	5
662.267	1	7
662.437	1	-1
662.606	1	10
662.776	1	-10
662.945	1	2
663.115	1	-2
663.284	1	9
663.453	1	0
663.623	1	0
663.792	1	1
663.962	1	-2
664.131	1	0
664.300	1	-7
664.470	1	-1
664.639	1	13
664.809	1	-5
664.978	1	-5
665.148	1	8
665.317	1	9
665.486	1	7
665.656	1	5
665.825	1	10
665.995	1	6
666.164	1	2
666.333	1	2
666.503	1	-3
666.672	1	3
666.842	1	2
667.011	1	1
667.180	1	3
667.350	1	7
667.519	1	0
667.689	1	3
667.858	1	-1
668.027	1	-1
668.197	1	-1
668.366	1	12
668.536	1	-1
668.705	1	8
668.874	1	9
669.044	1	-3
669.213	1	-3
669.382	1	2
669.552	1	-1
669.721	1	1
669.891	1	13
670.060	1	12
670.229	1	-1
670.399	1	3
670.568	1	-1
670.738	1	8
670.907	1	12
671.076	1	9
671.246	1	8
671.415	1	4
671.584	1	4
671.754	1	-1
671.923	1	1
672.093	1	-2
672.262	1	-9
672.431	1	6
672.601	1	-6
672.770	1	6
672.939	1	-5
673.109	1	13
673.278	1	1
673.448	1	14
673.617	1	-7
673.786	1	3
