325.333	1	12
325.504	1	5
325.675	1	9
325.846	1	0
326.017	1	10
326.188	1	11
326.359	1	6
326.531	1	14
326.702	1	11
326.873	1	8
327.044	1	1
327.215	1	3
327.386	1	9
327.557	1	2
327.728	1	14
327.899	1	7
328.070	1	3
328.241	1	4
328.412	1	-3
328.583	1	12
328.754	1	1
328.926	1	14
329.097	1	12
329.268	1	12
329.439	1	8
329.610	1	12
329.781	1	13
329.952	1	2
330.123	1	5
330.294	1	18
330.465	1	1
330.636	1	11
330.807	1	6
330.978	1	6
331.149	1	4
331.320	1	15
331.492	1	5
331.663	1	2
331.834	1	8
332.005	1	7
332.176	1	10
332.347	1	9
332.518	1	8
332.689	1	7
332.860	1	7
333.031	1	5
333.202	1	6
333.373	1	15
333.544	1	10
333.715	1	3
333.886	1	11
334.057	1	19
334.228	1	1
334.399	1	0
334.570	1	4
334.741	1	-1
334.912	1	16
335.084	1	-2
335.255	1	3
335.426	1	5
335.597	1	7
335.768	1	14
335.939	1	28
336.110	1	13
336.281	1	2
336.452	1	15
336.623	1	8
336.794	1	17
336.965	1	11
337.136	1	12
337.307	1	10
337.478	1	5
337.649	1	14
337.820	1	8
337.991	1	19
338.162	1	20
338.333	1	12
338.504	1	9
338.675	1	11
338.846	1	8
339.017	1	5
339.188	1	11
339.359	1	12
339.530	1	9
339.701	1	13
339.872	1	9
340.043	1	13
340.214	1	2
340.385	1	-7
340.556	1	9
340.727	1	22
340.898	1	19
341.069	1	5
341.240	1	3
341.411	1	14
341.582	1	15
341.753	1	24
341.924	1	11
342.095	1	12
342.266	1	9
342.437	1	10
342.608	1	-1
342.779	1	14
342.950	1	6
343.121	1	11
343.292	1	13
343.463	1	10
343.634	1	-1
343.805	1	8
343.976	1	11
344.147	1	6
344.318	1	5
344.489	1	7
344.660	1	26
344.831	1	7
345.002	1	14
345.173	1	10
345.344	1	9
345.515	1	5
345.686	1	8
345.857	1	12
346.028	1	6
346.199	1	10
346.370	1	11
346.541	1	13
346.712	1	7
346.883	1	9
347.054	1	4
347.225	1	15
347.396	1	0
347.567	1	6
347.738	1	4
347.909	1	4
348.080	1	5
348.251	1	11
348.422	1	-6
348.593	1	-4
348.764	1	14
348.935	1	10
349.106	1	3
349.277	1	16
349.448	1	10
349.619	1	-5
349.790	1	11
349.961	1	5
350.132	1	3
350.303	1	9
350.474	1	7
350.645	1	12
350.816	1	6
350.987	1	10
351.157	1	9
351.328	1	3
351.499	1	22
351.670	1	-1
351.841	1	16
352.012	1	22
352.183	1	4
352.354	1	14
352.525	1	9
352.696	1	14
352.867	1	14
353.038	1	18
353.209	1	18
353.380	1	12
353.551	1	-1
353.722	1	-2
353.893	1	10
354.064	1	15
354.235	1	18
354.406	1	10
354.576	1	-5
354.747	1	3
354.918	1	7
355.089	1	11
355.260	1	7
355.431	1	1
355.602	1	3
355.773	1	-1
355.944	1	12
356.115	1	9
356.286	1	2
356.457	1	15
356.628	1	7
356.799	1	0
356.970	1	3
357.141	1	14
357.311	1	2
357.482	1	8
357.653	1	0
357.824	1	9
357.995	1	6
358.166	1	2
358.337	1	15
358.508	1	8
358.679	1	7
358.850	1	8
359.021	1	3
359.192	1	13
359.363	1	8
359.533	1	-3
359.704	1	12
359.875	1	6
360.046	1	12
360.217	1	14
360.388	1	5
360.559	1	13
360.730	1	7
360.901	1	13
361.072	1	10
361.243	1	11
361.414	1	8
361.584	1	0
361.755	1	4
361.926	1	9
362.097	1	8
362.268	1	8
362.439	1	10
362.610	1	11
362.781	1	-1
362.952	1	-3
363.123	1	5
363.293	1	6
363.464	1	16
363.635	1	18
363.806	1	10
363.977	1	13
364.148	1	9
364.319	1	13
364.490	1	4
364.661	1	5
364.832	1	10
365.002	1	-8
365.173	1	12
365.344	1	-7
365.515	1	11
365.686	1	10
365.857	1	10
366.028	1	10
366.199	1	9
366.370	1	1
366.540	1	12
366.711	1	4
366.882	1	11
367.053	1	9
367.224	1	5
367.395	1	5
367.566	1	10
367.737	1	5
367.908	1	3
368.078	1	8
368.249	1	3
368.420	1	10
368.591	1	8
368.762	1	3
368.933	1	6
369.104	1	9
369.274	1	-4
369.445	1	1
369.616	1	10
369.787	1	8
369.958	1	13
370.129	1	2
370.300	1	3
370.471	1	8
370.641	1	10
370.812	1	0
370.983	1	3
371.154	1	11
371.325	1	10
371.496	1	-3
371.667	1	6
371.837	1	9
372.008	1	6
372.179	1	12
372.350	1	-9
372.521	1	-4
372.692	1	0
372.863	1	14
373.033	1	12
373.204	1	7
373.375	1	8
373.546	1	-2
373.717	1	5
373.888	1	11
374.059	1	3
374.229	1	4
374.400	1	7
374.571	1	5
374.742	1	8
374.913	1	3
375.084	1	9
375.254	1	6
375.425	1	16
375.596	1	17
375.767	1	15
375.938	1	3
376.109	1	2
376.279	1	-3
376.450	1	8
376.621	1	3
376.792	1	8
376.963	1	13
377.134	1	6
377.304	1	6
377.475	1	8
377.646	1	11
377.817	1	11
377.988	1	-1
378.159	1	13
378.329	1	8
378.500	1	7
378.671	1	16
378.842	1	14
379.013	1	14
379.184	1	11
379.354	1	9
379.525	1	9
379.696	1	7
379.867	1	16
380.038	1	16
380.209	1	14
380.379	1	3
380.550	1	1
380.721	1	8
380.892	1	3
381.063	1	11
381.233	1	12
381.404	1	17
381.575	1	20
381.746	1	-3
381.917	1	11
382.087	1	8
382.258	1	5
382.429	1	11
382.600	1	9
382.771	1	13
382.941	1	2
383.112	1	2
383.283	1	6
383.454	1	16
383.625	1	10
383.795	1	19
383.966	1	22
384.137	1	15
384.308	1	15
384.479	1	26
384.649	1	7
384.820	1	15
384.991	1	23
385.162	1	13
385.333	1	3
385.503	1	2
385.674	1	21
385.845	1	6
386.016	1	21
386.187	1	3
386.357	1	6
386.528	1	9
386.699	1	5
386.870	1	7
387.041	1	18
387.211	1	5
387.382	1	18
387.553	1	9
387.724	1	5
387.894	1	0
388.065	1	10
388.236	1	17
388.407	1	15
388.578	1	19
388.748	1	9
388.919	1	9
389.090	1	18
389.261	1	1
389.431	1	15
389.602	1	7
389.773	1	6
389.944	1	10
390.114	1	4
390.285	1	12
390.456	1	9
390.627	1	24
390.798	1	11
390.968	1	17
391.139	1	7
391.310	1	19
391.481	1	15
391.651	1	13
391.822	1	8
391.993	1	10
392.164	1	13
392.334	1	4
392.505	1	16
392.676	1	6
392.847	1	6
393.017	1	-1
393.188	1	16
393.359	1	17
393.530	1	16
393.700	1	22
393.871	1	14
394.042	1	17
394.213	1	-3
394.383	1	6
394.554	1	5
394.725	1	28
394.896	1	15
395.066	1	13
395.237	1	1
395.408	1	14
395.579	1	14
395.749	1	13
395.920	1	10
396.091	1	6
396.262	1	5
396.432	1	15
396.603	1	19
396.774	1	12
396.945	1	13
397.115	1	15
397.286	1	16
397.457	1	23
397.627	1	17
397.798	1	17
397.969	1	15
398.140	1	5
398.310	1	29
398.481	1	11
398.652	1	15
398.823	1	10
398.993	1	16
399.164	1	7
399.335	1	19
399.505	1	12
399.676	1	7
399.847	1	11
400.018	1	17
400.188	1	16
400.359	1	6
400.530	1	22
400.700	1	15
400.871	1	18
401.042	1	21
401.213	1	12
401.383	1	25
401.554	1	20
401.725	1	9
401.895	1	12
402.066	1	17
402.237	1	33
402.408	1	26
402.578	1	9
402.749	1	21
402.920	1	9
403.090	1	12
403.261	1	10
403.432	1	13
403.603	1	11
403.773	1	20
403.944	1	13
404.115	1	20
404.285	1	12
404.456	1	25
404.627	1	27
404.797	1	13
404.968	1	8
405.139	1	7
405.310	1	16
405.480	1	17
405.651	1	12
405.822	1	12
405.992	1	21
406.163	1	11
406.334	1	19
406.504	1	23
406.675	1	23
406.846	1	22
407.016	1	23
407.187	1	14
407.358	1	19
407.528	1	19
407.699	1	12
407.870	1	12
408.041	1	18
408.211	1	23
408.382	1	22
408.553	1	21
408.723	1	23
408.894	1	12
409.065	1	15
409.235	1	17
409.406	1	30
409.577	1	15
409.747	1	19
409.918	1	30
410.089	1	21
410.259	1	19
410.430	1	8
410.601	1	22
410.771	1	22
410.942	1	11
411.113	1	32
411.283	1	21
411.454	1	30
411.625	1	29
411.795	1	18
411.966	1	34
412.137	1	32
412.307	1	8
412.478	1	18
412.649	1	26
412.819	1	20
412.990	1	22
413.161	1	26
413.331	1	23
413.502	1	27
413.672	1	6
413.843	1	22
414.014	1	10
414.184	1	24
414.355	1	25
414.526	1	16
414.696	1	22
414.867	1	27
415.038	1	15
415.208	1	8
415.379	1	22
415.550	1	15
415.720	1	10
415.891	1	28
416.062	1	16
416.232	1	26
416.403	1	12
416.573	1	23
416.744	1	17
416.915	1	22
417.085	1	21
417.256	1	18
417.427	1	29
417.597	1	29
417.768	1	23
417.939	1	25
418.109	1	30
418.280	1	30
418.450	1	26
418.621	1	22
418.792	1	21
418.962	1	25
419.133	1	29
419.304	1	22
419.474	1	17
419.645	1	32
419.815	1	16
419.986	1	31
420.157	1	27
420.327	1	23
420.498	1	21
420.669	1	29
420.839	1	18
421.010	1	30
421.180	1	26
421.351	1	15
421.522	1	23
421.692	1	19
421.863	1	27
422.033	1	34
422.204	1	11
422.375	1	32
422.545	1	26
422.716	1	17
422.886	1	20
423.057	1	16
423.228	1	23
423.398	1	25
423.569	1	24
423.740	1	20
423.910	1	16
424.081	1	27
424.251	1	18
424.422	1	26
424.593	1	24
424.763	1	26
424.934	1	26
425.104	1	35
425.275	1	18
425.445	1	9
425.616	1	32
425.787	1	21
425.957	1	27
426.128	1	29
426.298	1	4
426.469	1	34
426.640	1	19
426.810	1	12
426.981	1	22
427.151	1	20
427.322	1	33
427.493	1	31
427.663	1	31
427.834	1	11
428.004	1	26
428.175	1	20
428.345	1	17
428.516	1	25
428.687	1	27
428.857	1	9
429.028	1	24
429.198	1	14
429.369	1	23
429.540	1	18
429.710	1	19
429.881	1	23
430.051	1	23
430.222	1	34
430.392	1	25
430.563	1	29
430.734	1	22
430.904	1	19
431.075	1	27
431.245	1	15
431.416	1	14
431.586	1	19
431.757	1	14
431.927	1	29
432.098	1	17
432.269	1	23
432.439	1	22
432.610	1	36
432.780	1	13
432.951	1	15
433.121	1	18
433.292	1	11
433.462	1	28
433.633	1	33
433.804	1	30
433.974	1	25
434.145	1	23
434.315	1	29
434.486	1	25
434.656	1	20
434.827	1	21
434.997	1	19
435.168	1	24
435.339	1	29
435.509	1	28
435.680	1	17
435.850	1	16
436.021	1	18
436.191	1	29
436.362	1	19
436.532	1	23
436.703	1	27
436.873	1	13
437.044	1	26
437.214	1	15
437.385	1	23
437.556	1	20
437.726	1	15
437.897	1	13
438.067	1	14
438.238	1	19
438.408	1	27
438.579	1	17
438.749	1	25
438.920	1	18
439.090	1	16
439.261	1	22
439.431	1	29
439.602	1	26
439.772	1	19
439.943	1	22
440.113	1	23
440.284	1	20
440.455	1	11
440.625	1	34
440.796	1	24
440.966	1	22
441.137	1	14
441.307	1	28
441.478	1	19
441.648	1	22
441.819	1	11
441.989	1	28
442.160	1	23
442.330	1	26
442.501	1	15
442.671	1	14
442.842	1	14
443.012	1	23
443.183	1	25
443.353	1	14
443.524	1	8
443.694	1	16
443.865	1	10
444.035	1	18
444.206	1	13
444.376	1	18
444.547	1	15
444.717	1	17
444.888	1	24
445.058	1	12
445.229	1	23
445.399	1	21
445.570	1	22
445.740	1	6
445.911	1	5
446.081	1	18
446.252	1	7
446.422	1	12
446.593	1	14
446.763	1	15
446.934	1	13
447.104	1	15
447.275	1	6
447.445	1	12
447.616	1	22
447.786	1	17
447.957	1	12
448.127	1	12
448.298	1	13
448.468	1	18
448.639	1	19
448.809	1	17
448.979	1	20
449.150	1	19
449.320	1	20
449.491	1	24
449.661	1	9
449.832	1	19
450.002	1	13
450.173	1	13
450.343	1	12
450.514	1	13
450.684	1	21
450.855	1	19
451.025	1	31
451.196	1	23
451.366	1	20
451.537	1	9
451.707	1	21
451.878	1	19
452.048	1	5
452.218	1	17
452.389	1	25
452.559	1	20
452.730	1	5
452.900	1	9
453.071	1	5
453.241	1	22
453.412	1	20
453.582	1	12
453.753	1	21
453.923	1	10
454.093	1	18
454.264	1	20
454.434	1	17
454.605	1	15
454.775	1	13
454.946	1	13
455.116	1	11
455.287	1	26
455.457	1	8
455.628	1	12
455.798	1	12
455.968	1	12
456.139	1	13
456.309	1	12
456.480	1	19
456.650	1	12
456.821	1	18
456.991	1	24
457.161	1	25
457.332	1	16
457.502	1	24
457.673	1	19
457.843	1	16
458.014	1	15
458.184	1	6
458.355	1	31
458.525	1	17
458.695	1	7
458.866	1	5
459.036	1	8
459.207	1	17
459.377	1	7
459.548	1	5
459.718	1	1
459.888	1	17
460.059	1	19
460.229	1	21
460.400	1	36
460.570	1	14
460.740	1	4
460.911	1	27
461.081	1	16
461.252	1	14
461.422	1	6
461.593	1	14
461.763	1	15
461.933	1	8
462.104	1	11
462.274	1	13
462.445	1	8
462.615	1	8
462.785	1	1
462.956	1	15
463.126	1	15
463.297	1	7
463.467	1	9
463.638	1	13
463.808	1	14
463.978	1	18
464.149	1	16
464.319	1	4
464.490	1	11
464.660	1	5
464.830	1	12
465.001	1	21
465.171	1	17
465.342	1	10
465.512	1	14
465.682	1	7
465.853	1	8
466.023	1	18
466.194	1	14
466.364	1	11
466.534	1	13
466.705	1	8
466.875	1	7
467.045	1	13
467.216	1	13
467.386	1	4
467.557	1	12
467.727	1	15
467.897	1	8
468.068	1	2
468.238	1	8
468.409	1	12
468.579	1	10
468.749	1	22
468.920	1	17
469.090	1	17
469.260	1	13
469.431	1	14
469.601	1	15
469.772	1	-5
469.942	1	5
470.112	1	9
470.283	1	15
470.453	1	10
470.623	1	9
470.794	1	-7
470.964	1	12
471.135	1	5
471.305	1	5
471.475	1	8
471.646	1	18
471.816	1	11
471.986	1	8
472.157	1	13
472.327	1	2
472.497	1	-5
472.668	1	-2
472.838	1	14
473.009	1	20
473.179	1	0
473.349	1	4
473.520	1	18
473.690	1	14
473.860	1	2
474.031	1	12
474.201	1	8
474.371	1	10
474.542	1	9
474.712	1	11
474.882	1	13
475.053	1	5
475.223	1	22
475.394	1	2
475.564	1	11
475.734	1	17
475.905	1	6
476.075	1	11
476.245	1	1
476.416	1	8
476.586	1	15
476.756	1	2
476.927	1	2
477.097	1	-5
477.267	1	12
477.438	1	-1
477.608	1	7
477.778	1	11
477.949	1	10
478.119	1	15
478.289	1	8
478.460	1	3
478.630	1	16
478.800	1	7
478.971	1	-2
479.141	1	11
479.311	1	17
479.482	1	8
479.652	1	9
479.822	1	4
479.993	1	7
480.163	1	9
480.333	1	8
480.504	1	7
480.674	1	-5
480.844	1	6
481.015	1	5
481.185	1	16
481.355	1	3
481.525	1	5
481.696	1	19
481.866	1	11
482.036	1	3
482.207	1	14
482.377	1	11
482.547	1	7
482.718	1	9
482.888	1	5
483.058	1	16
483.229	1	14
483.399	1	7
483.569	1	7
483.740	1	7
483.910	1	8
484.080	1	12
484.250	1	10
484.421	1	11
484.591	1	7
484.761	1	5
484.932	1	0
485.102	1	10
485.272	1	-1
485.443	1	14
485.613	1	5
485.783	1	-5
485.953	1	10
486.124	1	-1
486.294	1	16
486.464	1	8
486.635	1	16
486.805	1	7
486.975	1	5
487.146	1	10
487.316	1	7
487.486	1	13
487.656	1	18
487.827	1	13
487.997	1	1
488.167	1	11
488.338	1	15
488.508	1	12
488.678	1	4
488.848	1	20
489.019	1	3
489.189	1	11
489.359	1	5
489.529	1	12
489.700	1	-6
489.870	1	6
490.040	1	16
490.211	1	17
490.381	1	20
490.551	1	6
490.721	1	12
490.892	1	-3
491.062	1	5
491.232	1	6
491.402	1	6
491.573	1	7
491.743	1	12
491.913	1	12
492.084	1	1
492.254	1	4
492.424	1	11
492.594	1	5
492.765	1	-3
492.935	1	13
493.105	1	13
493.275	1	8
493.446	1	4
493.616	1	9
493.786	1	-2
493.956	1	2
494.127	1	16
494.297	1	3
494.467	1	5
494.637	1	5
494.808	1	16
494.978	1	8
495.148	1	1
495.318	1	17
495.489	1	-3
495.659	1	-3
495.829	1	11
495.999	1	12
496.170	1	4
496.340	1	11
496.510	1	2
496.680	1	9
496.851	1	15
497.021	1	8
497.191	1	20
497.361	1	11
497.532	1	6
497.702	1	7
497.872	1	14
498.042	1	14
498.213	1	3
498.383	1	13
498.553	1	15
498.723	1	-2
498.894	1	12
499.064	1	3
499.234	1	8
499.404	1	7
499.574	1	-2
499.745	1	11
499.915	1	14
500.085	1	8
500.255	1	16
500.426	1	-4
500.596	1	9
500.766	1	10
500.936	1	4
501.106	1	-4
501.277	1	6
501.447	1	5
501.617	1	6
501.787	1	8
501.958	1	-10
502.128	1	5
502.298	1	3
502.468	1	8
502.638	1	6
502.809	1	10
502.979	1	12
503.149	1	10
503.319	1	-1
503.489	1	10
503.660	1	7
503.830	1	-3
504.000	1	5
504.170	1	8
504.340	1	10
504.511	1	-7
504.681	1	8
504.851	1	9
505.021	1	7
505.192	1	9
505.362	1	20
505.532	1	15
505.702	1	5
505.872	1	4
506.043	1	0
506.213	1	-2
506.383	1	8
506.553	1	7
506.723	1	3
506.893	1	6
507.064	1	9
507.234	1	14
507.404	1	2
507.574	1	-6
507.744	1	5
507.915	1	9
508.085	1	17
508.255	1	-2
508.425	1	6
508.595	1	6
508.766	1	7
508.936	1	2
509.106	1	-6
509.276	1	10
509.446	1	-1
509.616	1	12
509.787	1	-7
509.957	1	14
510.127	1	5
510.297	1	0
510.467	1	4
510.638	1	3
510.808	1	2
510.978	1	11
511.148	1	12
511.318	1	8
511.488	1	11
511.659	1	-2
511.829	1	9
511.999	1	14
512.169	1	17
512.339	1	6
512.509	1	4
512.680	1	5
512.850	1	-3
513.020	1	6
513.190	1	9
513.360	1	13
513.530	1	13
513.700	1	6
513.871	1	4
514.041	1	12
514.211	1	9
514.381	1	3
514.551	1	4
514.721	1	0
514.892	1	-5
515.062	1	1
515.232	1	-1
515.402	1	13
515.572	1	16
515.742	1	3
515.912	1	10
516.083	1	2
516.253	1	5
516.423	1	1
516.593	1	6
516.763	1	2
516.933	1	-2
517.104	1	0
517.274	1	16
517.444	1	3
517.614	1	2
517.784	1	9
517.954	1	9
518.124	1	6
518.294	1	2
518.465	1	-6
518.635	1	11
518.805	1	6
518.975	1	3
519.145	1	1
519.315	1	0
519.485	1	9
519.656	1	1
519.826	1	3
519.996	1	13
520.166	1	0
520.336	1	2
520.506	1	0
520.676	1	12
520.846	1	13
521.017	1	-3
521.187	1	6
521.357	1	5
521.527	1	2
521.697	1	0
521.867	1	0
522.037	1	4
522.207	1	5
522.377	1	2
522.548	1	6
522.718	1	8
522.888	1	11
523.058	1	8
523.228	1	5
523.398	1	9
523.568	1	-5
523.738	1	1
523.909	1	8
524.079	1	13
524.249	1	6
524.419	1	-1
524.589	1	4
524.759	1	9
524.929	1	-1
525.099	1	0
525.269	1	-3
525.439	1	-2
525.610	1	0
525.780	1	3
525.950	1	5
526.120	1	12
526.290	1	8
526.460	1	13
526.630	1	9
526.800	1	0
526.970	1	-1
527.140	1	8
527.311	1	5
527.481	1	4
527.651	1	9
527.821	1	-1
527.991	1	7
528.161	1	3
528.331	1	-6
528.501	1	2
528.671	1	7
528.841	1	7
529.011	1	-6
529.181	1	6
529.352	1	-5
529.522	1	1
529.692	1	0
529.862	1	1
530.032	1	18
530.202	1	2
530.372	1	1
530.542	1	3
530.712	1	3
530.882	1	0
531.052	1	5
531.222	1	4
531.392	1	-1
531.563	1	-7
531.733	1	16
531.903	1	4
532.073	1	0
532.243	1	14
532.413	1	10
532.583	1	-8
532.753	1	11
532.923	1	5
533.093	1	2
533.263	1	4
533.433	1	-4
533.603	1	14
533.773	1	12
533.943	1	9
534.113	1	3
534.284	1	-4
534.454	1	0
534.624	1	8
534.794	1	18
534.964	1	3
535.134	1	6
535.304	1	12
535.474	1	-5
535.644	1	-1
535.814	1	-1
535.984	1	22
536.154	1	9
536.324	1	5
536.494	1	9
536.664	1	9
536.834	1	1
537.004	1	9
537.174	1	-2
537.344	1	5
537.514	1	-4
537.685	1	1
537.855	1	3
538.025	1	1
538.195	1	2
538.365	1	0
538.535	1	7
538.705	1	1
538.875	1	-1
539.045	1	-6
539.215	1	6
539.385	1	9
539.555	1	7
539.725	1	2
539.895	1	10
540.065	1	5
540.235	1	1
540.405	1	7
540.575	1	11
540.745	1	-7
540.915	1	8
541.085	1	-3
541.255	1	6
541.425	1	1
541.595	1	-2
541.765	1	-7
541.935	1	2
542.105	1	-2
542.275	1	2
542.445	1	-7
542.615	1	10
542.785	1	2
542.955	1	9
543.125	1	7
543.295	1	4
543.465	1	1
543.635	1	0
543.805	1	-1
543.975	1	1
544.145	1	-5
544.315	1	9
544.485	1	-5
544.655	1	0
544.825	1	6
544.995	1	6
545.165	1	12
545.335	1	7
545.505	1	6
545.675	1	3
545.845	1	14
546.015	1	0
546.185	1	8
546.355	1	6
546.525	1	8
546.695	1	8
546.865	1	4
547.035	1	-6
547.205	1	10
547.375	1	14
547.545	1	6
547.715	1	1
547.885	1	6
548.055	1	17
548.225	1	3
548.395	1	9
548.565	1	-1
548.735	1	-1
548.905	1	14
549.075	1	2
549.245	1	3
549.415	1	3
549.585	1	-1
549.755	1	-6
549.925	1	16
550.095	1	-2
550.265	1	9
550.435	1	0
550.605	1	8
550.775	1	7
550.945	1	3
551.115	1	0
551.285	1	-3
551.455	1	6
551.625	1	6
551.795	1	11
551.965	1	1
552.135	1	-6
552.305	1	3
552.475	1	4
552.645	1	7
552.815	1	5
552.985	1	-11
553.155	1	0
553.325	1	-4
553.495	1	10
553.665	1	5
553.835	1	14
554.004	1	3
554.174	1	-8
554.344	1	7
554.514	1	5
554.684	1	-5
554.854	1	-1
555.024	1	-6
555.194	1	9
555.364	1	-5
555.534	1	4
555.704	1	14
555.874	1	6
556.044	1	0
556.214	1	-2
556.384	1	-6
556.554	1	0
556.724	1	2
556.894	1	5
557.064	1	5
557.234	1	8
557.404	1	0
557.573	1	9
557.743	1	-9
557.913	1	2
558.083	1	-1
558.253	1	-2
558.423	1	17
558.593	1	9
558.763	1	13
558.933	1	2
559.103	1	5
559.273	1	4
559.443	1	-4
559.613	1	-8
559.783	1	11
559.953	1	-4
560.122	1	-1
560.292	1	-1
560.462	1	0
560.632	1	9
560.802	1	-6
560.972	1	0
561.142	1	-3
561.312	1	4
561.482	1	9
561.652	1	6
561.822	1	3
561.992	1	5
562.162	1	4
562.331	1	4
562.501	1	-10
562.671	1	-3
562.841	1	7
563.011	1	5
563.181	1	-1
563.351	1	-3
563.521	1	7
563.691	1	4
563.861	1	4
564.031	1	9
564.201	1	-2
564.370	1	-3
564.540	1	-4
564.710	1	3
564.880	1	-1
565.050	1	5
565.220	1	-1
565.390	1	7
565.560	1	7
565.730	1	-2
565.900	1	5
566.069	1	6
566.239	1	12
566.409	1	6
566.579	1	-3
566.749	1	-1
566.919	1	3
567.089	1	2
567.259	1	8
567.429	1	3
567.599	1	0
567.768	1	0
567.938	1	7
568.108	1	1
568.278	1	6
568.448	1	-3
568.618	1	9
568.788	1	9
568.958	1	-4
569.128	1	-6
569.297	1	8
569.467	1	-4
569.637	1	9
569.807	1	3
569.977	1	2
570.147	1	9
570.317	1	0
570.487	1	-6
570.656	1	4
570.826	1	-5
570.996	1	5
571.166	1	7
571.336	1	5
571.506	1	5
571.676	1	11
571.846	1	-1
572.015	1	-2
572.185	1	4
572.355	1	6
572.525	1	1
572.695	1	3
572.865	1	15
573.035	1	14
573.205	1	1
573.374	1	9
573.544	1	-4
573.714	1	7
573.884	1	-3
574.054	1	9
574.224	1	9
574.394	1	5
574.563	1	-3
574.733	1	5
574.903	1	5
575.073	1	2
575.243	1	4
575.413	1	2
575.583	1	7
575.752	1	5
575.922	1	6
576.092	1	2
576.262	1	-1
576.432	1	8
576.602	1	5
576.772	1	6
576.941	1	0
577.111	1	12
577.281	1	-5
577.451	1	1
577.621	1	-6
577.791	1	7
577.960	1	2
578.130	1	-5
578.300	1	-3
578.470	1	7
578.640	1	-2
578.810	1	-2
578.979	1	5
579.149	1	9
579.319	1	-1
579.489	1	0
579.659	1	10
579.829	1	7
579.998	1	4
580.168	1	3
580.338	1	-5
580.508	1	2
580.678	1	1
580.848	1	-2
581.017	1	-1
581.187	1	1
581.357	1	0
581.527	1	-2
581.697	1	6
581.867	1	-1
582.036	1	12
582.206	1	1
582.376	1	13
582.546	1	-1
582.716	1	-6
582.885	1	0
583.055	1	3
583.225	1	15
583.395	1	-1
583.565	1	7
583.735	1	9
583.904	1	4
584.074	1	3
584.244	1	7
584.414	1	-1
584.584	1	4
584.753	1	-4
584.923	1	11
585.093	1	-8
585.263	1	7
585.433	1	-3
585.602	1	3
585.772	1	-1
585.942	1	6
586.112	1	1
586.282	1	8
586.451	1	2
586.621	1	18
586.791	1	1
586.961	1	-11
587.131	1	7
587.300	1	8
587.470	1	11
587.640	1	3
587.810	1	16
587.980	1	1
588.149	1	-3
588.319	1	11
588.489	1	6
588.659	1	15
588.829	1	6
588.998	1	-2
589.168	1	5
589.338	1	6
589.508	1	4
589.677	1	-6
589.847	1	6
590.017	1	6
590.187	1	1
590.357	1	-5
590.526	1	3
590.696	1	3
590.866	1	8
591.036	1	15
591.205	1	-3
591.375	1	-4
591.545	1	17
591.715	1	-8
591.885	1	-1
592.054	1	1
592.224	1	9
592.394	1	-8
592.564	1	6
592.733	1	8
592.903	1	5
593.073	1	1
593.243	1	11
593.412	1	9
593.582	1	-2
593.752	1	0
593.922	1	-6
594.091	1	6
594.261	1	11
594.431	1	3
594.601	1	5
594.771	1	-7
594.940	1	8
595.110	1	-2
595.280	1	0
595.450	1	3
595.619	1	-5
595.789	1	1
595.959	1	6
596.129	1	7
596.298	1	13
596.468	1	15
596.638	1	1
596.808	1	0
596.977	1	3
597.147	1	1
597.317	1	4
597.487	1	-1
597.656	1	-5
597.826	1	1
597.996	1	5
598.166	1	6
598.335	1	-4
598.505	1	8
598.675	1	-1
598.844	1	2
599.014	1	-5
599.184	1	-1
599.354	1	-6
599.523	1	2
599.693	1	-1
599.863	1	9
600.033	1	1
600.202	1	7
600.372	1	-4
600.542	1	-3
600.712	1	2
600.881	1	1
601.051	1	9
601.221	1	8
601.390	1	6
601.560	1	4
601.730	1	4
601.900	1	2
602.069	1	8
602.239	1	16
602.409	1	-1
602.578	1	-1
602.748	1	0
602.918	1	11
603.088	1	10
603.257	1	18
603.427	1	5
603.597	1	10
603.767	1	-1
603.936	1	-5
604.106	1	2
604.276	1	3
604.445	1	2
604.615	1	5
604.785	1	13
604.954	1	3
605.124	1	-3
605.294	1	1
605.464	1	14
605.633	1	11
605.803	1	1
605.973	1	9
606.142	1	11
606.312	1	4
606.482	1	7
606.652	1	3
606.821	1	-2
606.991	1	8
607.161	1	0
607.330	1	-5
607.500	1	0
607.670	1	0
607.839	1	6
608.009	1	5
608.179	1	-10
608.348	1	12
608.518	1	6
608.688	1	5
608.858	1	9
609.027	1	8
609.197	1	-7
609.367	1	-3
609.536	1	7
609.706	1	-3
609.876	1	13
610.045	1	-3
610.215	1	15
610.385	1	9
610.554	1	8
610.724	1	9
610.894	1	5
611.063	1	4
611.233	1	-3
611.403	1	8
611.572	1	4
611.742	1	-2
611.912	1	6
612.081	1	7
612.251	1	3
612.421	1	3
612.590	1	0
612.760	1	17
612.930	1	-1
613.099	1	9
613.269	1	4
613.439	1	-7
613.608	1	7
613.778	1	-15
613.948	1	11
614.117	1	2
614.287	1	-2
614.457	1	6
614.626	1	6
614.796	1	9
614.966	1	9
615.135	1	5
615.305	1	8
615.475	1	10
615.644	1	4
615.814	1	0
615.984	1	12
616.153	1	3
616.323	1	10
616.493	1	0
616.662	1	1
616.832	1	4
617.002	1	-6
617.171	1	0
617.341	1	15
617.511	1	0
617.680	1	8
617.850	1	3
618.019	1	14
618.189	1	9
618.359	1	8
618.528	1	4
618.698	1	1
618.868	1	-6
619.037	1	7
619.207	1	-4
619.377	1	3
619.546	1	2
619.716	1	3
619.885	1	1
620.055	1	-1
620.225	1	11
620.394	1	9
620.564	1	2
620.734	1	5
620.903	1	1
621.073	1	2
621.242	1	22
621.412	1	2
621.582	1	10
621.751	1	12
621.921	1	8
622.091	1	10
622.260	1	-3
622.430	1	-1
622.599	1	5
622.769	1	6
622.939	1	0
623.108	1	5
623.278	1	8
623.448	1	11
623.617	1	3
623.787	1	3
623.956	1	4
624.126	1	-10
624.296	1	5
624.465	1	-7
624.635	1	5
624.804	1	3
624.974	1	8
625.144	1	-4
625.313	1	7
625.483	1	11
625.652	1	5
625.822	1	13
625.992	1	12
626.161	1	8
626.331	1	6
626.501	1	21
626.670	1	-2
626.840	1	12
627.009	1	17
627.179	1	10
627.348	1	6
627.518	1	7
627.688	1	2
627.857	1	4
628.027	1	8
628.196	1	-4
628.366	1	1
628.536	1	11
628.705	1	4
628.875	1	6
629.044	1	9
629.214	1	7
629.384	1	-4
629.553	1	7
629.723	1	15
629.892	1	17
630.062	1	14
630.232	1	-8
630.401	1	8
630.571	1	7
630.740	1	8
630.910	1	12
631.079	1	7
631.249	1	12
631.419	1	-3
631.588	1	15
631.758	1	12
631.927	1	-4
632.097	1	2
632.266	1	7
632.436	1	12
632.606	1	10
632.775	1	4
632.945	1	15
633.114	1	2
633.284	1	5
633.453	1	1
633.623	1	3
633.793	1	13
633.962	1	5
634.132	1	5
634.301	1	5
634.471	1	-3
634.640	1	10
634.810	1	20
634.979	1	9
635.149	1	17
635.319	1	-4
635.488	1	9
635.658	1	12
635.827	1	12
635.997	1	2
636.166	1	7
636.336	1	15
636.505	1	12
636.675	1	4
636.845	1	2
637.014	1	22
637.184	1	14
637.353	1	15
637.523	1	8
637.692	1	6
637.862	1	13
638.031	1	7
638.201	1	9
638.370	1	14
638.540	1	5
638.710	1	4
638.879	1	3
639.049	1	15
639.218	1	13
639.388	1	4
639.557	1	20
639.727	1	5
639.896	1	5
640.066	1	12
640.235	1	8
640.405	1	14
640.574	1	8
640.744	1	6
640.914	1	4
641.083	1	11
641.253	1	-1
641.422	1	-1
641.592	1	2
641.761	1	11
641.931	1	16
642.100	1	2
642.270	1	3
642.439	1	-3
642.609	1	4
642.778	1	-3
642.948	1	13
643.117	1	0
643.287	1	3
643.456	1	14
643.626	1	9
643.795	1	-9
643.965	1	11
644.134	1	1
644.304	1	12
644.473	1	7
644.643	1	11
644.812	1	4
644.982	1	-3
645.151	1	6
645.321	1	-1
645.490	1	9
645.660	1	-5
645.829	1	10
645.999	1	6
646.168	1	9
646.338	1	12
646.507	1	14
646.677	1	7
646.846	1	3
647.016	1	11
647.185	1	4
647.355	1	10
647.524	1	6
647.694	1	1
647.863	1	13
648.033	1	11
648.202	1	3
648.372	1	11
648.541	1	8
648.711	1	7
648.880	1	5
649.050	1	14
649.219	1	7
649.389	1	9
649.558	1	9
649.728	1	10
649.897	1	7
650.067	1	2
650.236	1	1
650.406	1	12
650.575	1	6
650.745	1	6
650.914	1	13
651.084	1	6
651.253	1	1
651.423	1	10
651.592	1	15
651.762	1	8
651.931	1	11
652.101	1	5
652.270	1	6
652.440	1	-1
652.609	1	-2
652.778	1	3
652.948	1	8
653.117	1	18
653.287	1	3
653.456	1	12
653.626	1	13
653.795	1	2
653.965	1	6
654.134	1	9
654.304	1	8
654.473	1	9
654.643	1	-5
654.812	1	7
654.982	1	4
655.151	1	3
655.320	1	9
655.490	1	-5
655.659	1	3
655.829	1	2
655.998	1	18
656.168	1	8
656.337	1	7
656.507	1	-2
656.676	1	4
656.846	1	4
657.015	1	8
657.184	1	6
657.354	1	9
657.523	1	-1
657.693	1	3
657.862	1	8
658.032	1	7
658.201	1	4
658.371	1	11
658.540	1	3
658.709	1	-2
658.879	1	6
659.048	1	5
659.218	1	11
659.387	1	1
659.557	1	2
659.726	1	3
659.895	1	2
660.065	1	8
660.234	1	-2
660.404	1	7
660.573	1	0
660.743	1	3
660.912	1	12
661.081	1	-1
661.251	1	7
661.420	1	6
661.590	1	3
661.759	1	1
661.929	1	6
662.098	1	5
662.267	1	6
662.437	1	4
662.606	1	4
662.776	1	3
662.945	1	9
663.115	1	-5
663.284	1	2
663.453	1	8
663.623	1	0
663.792	1	-4
663.962	1	0
664.131	1	3
664.300	1	5
664.470	1	3
664.639	1	12
664.809	1	4
664.978	1	-1
665.148	1	10
665.317	1	11
665.486	1	3
665.656	1	12
665.825	1	6
665.995	1	3
666.164	1	7
666.333	1	4
666.503	1	-5
666.672	1	4
666.842	1	2
667.011	1	9
667.180	1	5
667.350	1	3
667.519	1	3
667.689	1	1
667.858	1	8
668.027	1	0
668.197	1	-3
668.366	1	13
668.536	1	1
668.705	1	0
668.874	1	9
669.044	1	7
669.213	1	-5
669.382	1	5
669.552	1	4
669.721	1	4
669.891	1	-3
670.060	1	16
670.229	1	11
670.399	1	8
670.568	1	-7
670.738	1	5
670.907	1	10
671.076	1	11
671.246	1	18
671.415	1	-1
671.584	1	2
671.754	1	1
671.923	1	5
672.093	1	1
672.262	1	-1
672.431	1	12
672.601	1	0
672.770	1	-1
672.939	1	0
673.109	1	2
673.278	1	0
673.448	1	10
673.617	1	-2
673.786	1	-8
