325.333	1	8
325.504	1	11
325.675	1	8
325.846	1	8
326.017	1	13
326.188	1	25
326.359	1	15
326.531	1	19
326.702	1	18
326.873	1	3
327.044	1	17
327.215	1	0
327.386	1	16
327.557	1	15
327.728	1	7
327.899	1	8
328.070	1	10
328.241	1	9
328.412	1	3
328.583	1	20
328.754	1	10
328.926	1	15
329.097	1	13
329.268	1	8
329.439	1	8
329.610	1	18
329.781	1	12
329.952	1	10
330.123	1	7
330.294	1	17
330.465	1	9
330.636	1	26
330.807	1	30
330.978	1	13
331.149	1	1
331.320	1	21
331.492	1	21
331.663	1	9
331.834	1	7
332.005	1	6
332.176	1	17
332.347	1	19
332.518	1	20
332.689	1	16
332.860	1	17
333.031	1	16
333.202	1	6
333.373	1	19
333.544	1	22
333.715	1	11
333.886	1	9
334.057	1	28
334.228	1	5
334.399	1	9
334.570	1	11
334.741	1	9
334.912	1	19
335.084	1	8
335.255	1	17
335.426	1	16
335.597	1	12
335.768	1	9
335.939	1	14
336.110	1	19
336.281	1	12
336.452	1	9
336.623	1	9
336.794	1	22
336.965	1	19
337.136	1	14
337.307	1	19
337.478	1	2
337.649	1	27
337.820	1	9
337.991	1	19
338.162	1	19
338.333	1	8
338.504	1	12
338.675	1	17
338.846	1	17
339.017	1	7
339.188	1	17
339.359	1	5
339.530	1	15
339.701	1	28
339.872	1	17
340.043	1	18
340.214	1	6
340.385	1	10
340.556	1	21
340.727	1	19
340.898	1	21
341.069	1	10
341.240	1	21
341.411	1	19
341.582	1	14
341.753	1	14
341.924	1	14
342.095	1	14
342.266	1	12
342.437	1	14
342.608	1	24
342.779	1	13
342.950	1	12
343.121	1	24
343.292	1	16
343.463	1	20
343.634	1	6
343.805	1	19
343.976	1	12
344.147	1	9
344.318	1	22
344.489	1	7
344.660	1	32
344.831	1	20
345.002	1	22
345.173	1	12
345.344	1	26
345.515	1	14
345.686	1	16
345.857	1	24
346.028	1	19
346.199	1	21
346.370	1	19
346.541	1	28
346.712	1	7
346.883	1	13
347.054	1	22
347.225	1	19
347.396	1	12
347.567	1	36
347.738	1	11
347.909	1	21
348.080	1	13
348.251	1	20
348.422	1	0
348.593	1	10
348.764	1	22
348.935	1	15
349.106	1	9
349.277	1	21
349.448	1	23
349.619	1	9
349.790	1	21
349.961	1	13
350.132	1	19
350.303	1	14
350.474	1	20
350.645	1	17
350.816	1	22
350.987	1	5
351.157	1	19
351.328	1	21
351.499	1	36
351.670	1	18
351.841	1	31
352.012	1	18
352.183	1	23
352.354	1	27
352.525	1	12
352.696	1	30
352.867	1	9
353.038	1	20
353.209	1	34
353.380	1	28
353.551	1	10
353.722	1	17
353.893	1	21
354.064	1	17
354.235	1	10
354.406	1	22
354.576	1	5
354.747	1	17
354.918	1	18
355.089	1	22
355.260	1	21
355.431	1	13
355.602	1	14
355.773	1	17
355.944	1	18
356.115	1	12
356.286	1	10
356.457	1	19
356.628	1	7
356.799	1	23
356.970	1	22
357.141	1	25
357.311	1	22
357.482	1	27
357.653	1	14
357.824	1	21
357.995	1	27
358.166	1	26
358.337	1	22
358.508	1	22
358.679	1	25
358.850	1	27
359.021	1	17
359.192	1	22
359.363	1	24
359.533	1	11
359.704	1	16
359.875	1	21
360.046	1	21
360.217	1	28
360.388	1	16
360.559	1	18
360.730	1	33
360.901	1	33
361.072	1	13
361.243	1	30
361.414	1	25
361.584	1	10
361.755	1	27
361.926	1	35
362.097	1	16
362.268	1	31
362.439	1	18
362.610	1	26
362.781	1	21
362.952	1	14
363.123	1	16
363.293	1	21
363.464	1	21
363.635	1	25
363.806	1	24
363.977	1	35
364.148	1	23
364.319	1	13
364.490	1	18
364.661	1	13
364.832	1	20
365.002	1	12
365.173	1	17
365.344	1	19
365.515	1	26
365.686	1	23
365.857	1	18
366.028	1	24
366.199	1	19
366.370	1	21
366.540	1	14
366.711	1	6
366.882	1	25
367.053	1	23
367.224	1	17
367.395	1	21
367.566	1	25
367.737	1	23
367.908	1	15
368.078	1	9
368.249	1	25
368.420	1	23
368.591	1	24
368.762	1	37
368.933	1	26
369.104	1	24
369.274	1	22
369.445	1	23
369.616	1	21
369.787	1	26
369.958	1	26
370.129	1	19
370.300	1	30
370.471	1	15
370.641	1	23
370.812	1	25
370.983	1	20
371.154	1	25
371.325	1	33
371.496	1	16
371.667	1	16
371.837	1	32
372.008	1	19
372.179	1	25
372.350	1	23
372.521	1	24
372.692	1	22
372.863	1	35
373.033	1	30
373.204	1	25
373.375	1	27
373.546	1	17
373.717	1	15
373.888	1	22
374.059	1	32
374.229	1	22
374.400	1	27
374.571	1	26
374.742	1	23
374.913	1	20
375.084	1	25
375.254	1	23
375.425	1	30
375.596	1	20
375.767	1	34
375.938	1	9
376.109	1	21
376.279	1	27
376.450	1	18
376.621	1	36
376.792	1	27
376.963	1	29
377.134	1	24
377.304	1	16
377.475	1	31
377.646	1	16
377.817	1	29
377.988	1	29
378.159	1	26
378.329	1	24
378.500	1	25
378.671	1	36
378.842	1	21
379.013	1	37
379.184	1	26
379.354	1	21
379.525	1	33
379.696	1	27
379.867	1	31
380.038	1	27
380.209	1	30
380.379	1	30
380.550	1	10
380.721	1	29
380.892	1	30
381.063	1	23
381.233	1	32
381.404	1	38
381.575	1	34
381.746	1	29
381.917	1	33
382.087	1	31
382.258	1	31
382.429	1	27
382.600	1	25
382.771	1	36
382.941	1	12
383.112	1	20
383.283	1	21
383.454	1	24
383.625	1	29
383.795	1	40
383.966	1	32
384.137	1	26
384.308	1	34
384.479	1	32
384.649	1	36
384.820	1	31
384.991	1	31
385.162	1	26
385.333	1	28
385.503	1	22
385.674	1	37
385.845	1	39
386.016	1	44
386.187	1	20
386.357	1	21
386.528	1	38
386.699	1	21
386.870	1	34
387.041	1	31
387.211	1	34
387.382	1	37
387.553	1	38
387.724	1	25
387.894	1	29
388.065	1	28
388.236	1	30
388.407	1	37
388.578	1	25
388.748	1	41
388.919	1	28
389.090	1	36
389.261	1	28
389.431	1	43
389.602	1	39
389.773	1	35
389.944	1	30
390.114	1	28
390.285	1	39
390.456	1	51
390.627	1	42
390.798	1	54
390.968	1	48
391.139	1	36
391.310	1	25
391.481	1	35
391.651	1	33
391.822	1	33
391.993	1	23
392.164	1	30
392.334	1	32
392.505	1	32
392.676	1	32
392.847	1	36
393.017	1	37
393.188	1	31
393.359	1	40
393.530	1	30
393.700	1	42
393.871	1	31
394.042	1	32
394.213	1	39
394.383	1	45
394.554	1	33
394.725	1	42
394.896	1	38
395.066	1	34
395.237	1	30
395.408	1	34
395.579	1	31
395.749	1	35
395.920	1	28
396.091	1	33
396.262	1	33
396.432	1	36
396.603	1	31
396.774	1	33
396.945	1	31
397.115	1	37
397.286	1	32
397.457	1	47
397.627	1	37
397.798	1	36
397.969	1	48
398.140	1	33
398.310	1	52
398.481	1	27
398.652	1	44
398.823	1	35
398.993	1	35
399.164	1	37
399.335	1	37
399.505	1	35
399.676	1	38
399.847	1	50
400.018	1	49
400.188	1	47
400.359	1	31
400.530	1	50
400.700	1	34
400.871	1	39
401.042	1	37
401.213	1	40
401.383	1	37
401.554	1	46
401.725	1	51
401.895	1	32
402.066	1	35
402.237	1	41
402.408	1	41
402.578	1	39
402.749	1	54
402.920	1	32
403.090	1	37
403.261	1	38
403.432	1	40
403.603	1	43
403.773	1	40
403.944	1	48
404.115	1	41
404.285	1	38
404.456	1	47
404.627	1	53
404.797	1	42
404.968	1	32
405.139	1	37
405.310	1	38
405.480	1	29
405.651	1	32
405.822	1	33
405.992	1	53
406.163	1	38
406.334	1	49
406.504	1	38
406.675	1	47
406.846	1	47
407.016	1	46
407.187	1	44
407.358	1	38
407.528	1	40
407.699	1	39
407.870	1	38
408.041	1	46
408.211	1	43
408.382	1	42
408.553	1	39
408.723	1	43
408.894	1	40
409.065	1	34
409.235	1	32
409.406	1	45
409.577	1	51
409.747	1	45
409.918	1	52
410.089	1	42
410.259	1	44
410.430	1	37
410.601	1	50
410.771	1	50
410.942	1	44
411.113	1	48
411.283	1	39
411.454	1	57
411.625	1	38
411.795	1	44
411.966	1	45
412.137	1	50
412.307	1	39
412.478	1	39
412.649	1	43
412.819	1	52
412.990	1	51
413.161	1	49
413.331	1	56
413.502	1	47
413.672	1	32
413.843	1	40
414.014	1	40
414.184	1	48
414.355	1	47
414.526	1	52
414.696	1	50
414.867	1	52
415.038	1	45
415.208	1	44
415.379	1	41
415.550	1	46
415.720	1	50
415.891	1	44
416.062	1	39
416.232	1	36
416.403	1	32
416.573	1	36
416.744	1	55
416.915	1	49
417.085	1	56
417.256	1	44
417.427	1	46
417.597	1	42
417.768	1	41
417.939	1	56
418.109	1	48
418.280	1	47
418.450	1	52
418.621	1	44
418.792	1	48
418.962	1	44
419.133	1	45
419.304	1	49
419.474	1	45
419.645	1	43
419.815	1	49
419.986	1	48
420.157	1	47
420.327	1	38
420.498	1	41
420.669	1	40
420.839	1	45
421.010	1	49
421.180	1	36
421.351	1	43
421.522	1	46
421.692	1	39
421.863	1	50
422.033	1	40
422.204	1	40
422.375	1	56
422.545	1	50
422.716	1	41
422.886	1	50
423.057	1	56
423.228	1	42
423.398	1	49
423.569	1	39
423.740	1	51
423.910	1	49
424.081	1	46
424.251	1	41
424.422	1	51
424.593	1	44
424.763	1	48
424.934	1	62
425.104	1	54
425.275	1	48
425.445	1	42
425.616	1	45
425.787	1	45
425.957	1	47
426.128	1	54
426.298	1	33
426.469	1	59
426.640	1	53
426.810	1	49
426.981	1	47
427.151	1	43
427.322	1	33
427.493	1	42
427.663	1	39
427.834	1	43
428.004	1	58
428.175	1	39
428.345	1	50
428.516	1	57
428.687	1	45
428.857	1	25
429.028	1	42
429.198	1	32
429.369	1	44
429.540	1	48
429.710	1	49
429.881	1	52
430.051	1	35
430.222	1	45
430.392	1	41
430.563	1	50
430.734	1	44
430.904	1	38
431.075	1	48
431.245	1	38
431.416	1	32
431.586	1	46
431.757	1	51
431.927	1	50
432.098	1	40
432.269	1	46
432.439	1	43
432.610	1	48
432.780	1	33
432.951	1	54
433.121	1	41
433.292	1	48
433.462	1	55
433.633	1	50
433.804	1	50
433.974	1	42
434.145	1	47
434.315	1	44
434.486	1	43
434.656	1	47
434.827	1	43
434.997	1	54
435.168	1	39
435.339	1	49
435.509	1	44
435.680	1	45
435.850	1	44
436.021	1	44
436.191	1	47
436.362	1	47
436.532	1	57
436.703	1	54
436.873	1	47
437.044	1	52
437.214	1	43
437.385	1	44
437.556	1	37
437.726	1	38
437.897	1	36
438.067	1	40
438.238	1	41
438.408	1	46
438.579	1	44
438.749	1	44
438.920	1	52
439.090	1	49
439.261	1	43
439.431	1	51
439.602	1	48
439.772	1	51
439.943	1	41
440.113	1	45
440.284	1	42
440.455	1	41
440.625	1	50
440.796	1	49
440.966	1	53
441.137	1	33
441.307	1	49
441.478	1	30
441.648	1	41
441.819	1	40
441.989	1	40
442.160	1	40
442.330	1	54
442.501	1	40
442.671	1	45
442.842	1	39
443.012	1	49
443.183	1	43
443.353	1	38
443.524	1	31
443.694	1	33
443.865	1	33
444.035	1	42
444.206	1	38
444.376	1	43
444.547	1	36
444.717	1	55
444.888	1	46
445.058	1	45
445.229	1	25
445.399	1	38
445.570	1	41
445.740	1	36
445.911	1	28
446.081	1	44
446.252	1	35
446.422	1	35
446.593	1	46
446.763	1	40
446.934	1	33
447.104	1	44
447.275	1	49
447.445	1	43
447.616	1	43
447.786	1	44
447.957	1	43
448.127	1	34
448.298	1	30
448.468	1	44
448.639	1	52
448.809	1	42
448.979	1	40
449.150	1	37
449.320	1	41
449.491	1	43
449.661	1	29
449.832	1	40
450.002	1	32
450.173	1	43
450.343	1	34
450.514	1	45
450.684	1	56
450.855	1	46
451.025	1	39
451.196	1	47
451.366	1	53
451.537	1	40
451.707	1	48
451.878	1	45
452.048	1	31
452.218	1	46
452.389	1	51
452.559	1	47
452.730	1	30
452.900	1	34
453.071	1	48
453.241	1	47
453.412	1	51
453.582	1	46
453.753	1	44
453.923	1	40
454.093	1	34
454.264	1	42
454.434	1	34
454.605	1	31
454.775	1	41
454.946	1	41
455.116	1	37
455.287	1	48
455.457	1	43
455.628	1	26
455.798	1	33
455.968	1	27
456.139	1	31
456.309	1	49
456.480	1	35
456.650	1	39
456.821	1	36
456.991	1	38
457.161	1	46
457.332	1	43
457.502	1	53
457.673	1	38
457.843	1	37
458.014	1	37
458.184	1	45
458.355	1	41
458.525	1	40
458.695	1	31
458.866	1	34
459.036	1	32
459.207	1	35
459.377	1	37
459.548	1	29
459.718	1	26
459.888	1	26
460.059	1	30
460.229	1	38
460.400	1	47
460.570	1	37
460.740	1	27
460.911	1	43
461.081	1	39
461.252	1	34
461.422	1	30
461.593	1	26
461.763	1	35
461.933	1	41
462.104	1	27
462.274	1	35
462.445	1	32
462.615	1	33
462.785	1	21
462.956	1	38
463.126	1	35
463.297	1	34
463.467	1	34
463.638	1	35
463.808	1	34
463.978	1	25
464.149	1	40
464.319	1	33
464.490	1	29
464.660	1	24
464.830	1	31
465.001	1	34
465.171	1	32
465.342	1	33
465.512	1	39
465.682	1	35
465.853	1	25
466.023	1	38
466.194	1	41
466.364	1	38
466.534	1	28
466.705	1	28
466.875	1	30
467.045	1	40
467.216	1	43
467.386	1	28
467.557	1	30
467.727	1	29
467.897	1	31
468.068	1	25
468.238	1	27
468.409	1	34
468.579	1	36
468.749	1	47
468.920	1	34
469.090	1	33
469.260	1	28
469.431	1	28
469.601	1	36
469.772	1	29
469.942	1	29
470.112	1	33
470.283	1	35
470.453	1	36
470.623	1	26
470.794	1	23
470.964	1	20
471.135	1	27
471.305	1	21
471.475	1	19
471.646	1	42
471.816	1	29
471.986	1	22
472.157	1	28
472.327	1	36
472.497	1	13
472.668	1	33
472.838	1	26
473.009	1	28
473.179	1	21
473.349	1	36
473.520	1	24
473.690	1	29
473.860	1	23
474.031	1	43
474.201	1	31
474.371	1	36
474.542	1	29
474.712	1	34
474.882	1	31
475.053	1	26
475.223	1	26
475.394	1	13
475.564	1	30
475.734	1	29
475.905	1	17
476.075	1	23
476.245	1	18
476.416	1	28
476.586	1	37
476.756	1	18
476.927	1	18
477.097	1	23
477.267	1	28
477.438	1	13
477.608	1	36
477.778	1	26
477.949	1	26
478.119	1	30
478.289	1	28
478.460	1	32
478.630	1	30
478.800	1	32
478.971	1	16
479.141	1	33
479.311	1	26
479.482	1	33
479.652	1	34
479.822	1	22
479.993	1	24
480.163	1	35
480.333	1	24
480.504	1	22
480.674	1	23
480.844	1	25
481.015	1	24
481.185	1	22
481.355	1	20
481.525	1	30
481.696	1	36
481.866	1	26
482.036	1	24
482.207	1	30
482.377	1	22
482.547	1	34
482.718	1	19
482.888	1	31
483.058	1	27
483.229	1	24
483.399	1	19
483.569	1	30
483.740	1	23
483.910	1	14
484.080	1	38
484.250	1	28
484.421	1	22
484.591	1	30
484.761	1	29
484.932	1	16
485.102	1	26
485.272	1	15
485.443	1	32
485.613	1	32
485.783	1	9
485.953	1	29
486.124	1	22
486.294	1	23
486.464	1	30
486.635	1	22
486.805	1	28
486.975	1	28
487.146	1	11
487.316	1	36
487.486	1	100
487.656	1	226
487.827	1	53
487.997	1	16
488.167	1	32
488.338	1	25
488.508	1	19
488.678	1	29
488.848	1	24
489.019	1	25
489.189	1	17
489.359	1	20
489.529	1	21
489.700	1	13
489.870	1	23
490.040	1	28
490.211	1	32
490.381	1	30
490.551	1	24
490.721	1	13
490.892	1	7
491.062	1	26
491.232	1	24
491.402	1	19
491.573	1	38
491.743	1	28
491.913	1	23
492.084	1	16
492.254	1	31
492.424	1	19
492.594	1	13
492.765	1	17
492.935	1	24
493.105	1	24
493.275	1	29
493.446	1	17
493.616	1	17
493.786	1	20
493.956	1	31
494.127	1	26
494.297	1	7
494.467	1	14
494.637	1	21
494.808	1	21
494.978	1	18
495.148	1	12
495.318	1	24
495.489	1	11
495.659	1	14
495.829	1	23
495.999	1	19
496.170	1	10
496.340	1	26
496.510	1	18
496.680	1	22
496.851	1	14
497.021	1	25
497.191	1	32
497.361	1	13
497.532	1	6
497.702	1	23
497.872	1	26
498.042	1	26
498.213	1	15
498.383	1	37
498.553	1	18
498.723	1	8
498.894	1	22
499.064	1	9
499.234	1	16
499.404	1	12
499.574	1	17
499.745	1	19
499.915	1	32
500.085	1	12
500.255	1	23
500.426	1	27
500.596	1	21
500.766	1	18
500.936	1	19
501.106	1	9
501.277	1	18
501.447	1	10
501.617	1	16
501.787	1	12
501.958	1	9
502.128	1	26
502.298	1	7
502.468	1	21
502.638	1	18
502.809	1	20
502.979	1	11
503.149	1	14
503.319	1	18
503.489	1	21
503.660	1	11
503.830	1	1
504.000	1	12
504.170	1	8
504.340	1	11
504.511	1	13
504.681	1	24
504.851	1	28
505.021	1	13
505.192	1	8
505.362	1	11
505.532	1	12
505.702	1	12
505.872	1	17
506.043	1	9
506.213	1	18
506.383	1	13
506.553	1	15
506.723	1	20
506.893	1	15
507.064	1	18
507.234	1	17
507.404	1	19
507.574	1	6
507.744	1	15
507.915	1	16
508.085	1	18
508.255	1	10
508.425	1	25
508.595	1	21
508.766	1	8
508.936	1	24
509.106	1	11
509.276	1	15
509.446	1	11
509.616	1	18
509.787	1	13
509.957	1	26
510.127	1	13
510.297	1	13
510.467	1	22
510.638	1	12
510.808	1	19
510.978	1	17
511.148	1	19
511.318	1	5
511.488	1	10
511.659	1	19
511.829	1	12
511.999	1	25
512.169	1	25
512.339	1	15
512.509	1	4
512.680	1	4
512.850	1	11
513.020	1	17
513.190	1	13
513.360	1	18
513.530	1	10
513.700	1	18
513.871	1	16
514.041	1	13
514.211	1	11
514.381	1	13
514.551	1	20
514.721	1	17
514.892	1	8
515.062	1	19
515.232	1	3
515.402	1	19
515.572	1	17
515.742	1	16
515.912	1	16
516.083	1	22
516.253	1	11
516.423	1	14
516.593	1	13
516.763	1	9
516.933	1	6
517.104	1	0
517.274	1	21
517.444	1	7
517.614	1	5
517.784	1	12
517.954	1	22
518.124	1	26
518.294	1	18
518.465	1	-4
518.635	1	17
518.805	1	11
518.975	1	13
519.145	1	10
519.315	1	16
519.485	1	25
519.656	1	22
519.826	1	13
519.996	1	17
520.166	1	15
520.336	1	6
520.506	1	10
520.676	1	0
520.846	1	30
521.017	1	17
521.187	1	19
521.357	1	7
521.527	1	15
521.697	1	14
521.867	1	3
522.037	1	20
522.207	1	10
522.377	1	5
522.548	1	7
522.718	1	18
522.888	1	14
523.058	1	9
523.228	1	8
523.398	1	11
523.568	1	19
523.738	1	6
523.909	1	13
524.079	1	18
524.249	1	23
524.419	1	15
524.589	1	5
524.759	1	3
524.929	1	12
525.099	1	8
525.269	1	7
525.439	1	3
525.610	1	6
525.780	1	12
525.950	1	10
526.120	1	10
526.290	1	23
526.460	1	11
526.630	1	14
526.800	1	-4
526.970	1	6
527.140	1	10
527.311	1	13
527.481	1	14
527.651	1	14
527.821	1	-2
527.991	1	10
528.161	1	13
528.331	1	10
528.501	1	9
528.671	1	10
528.841	1	22
529.011	1	12
529.181	1	7
529.352	1	14
529.522	1	16
529.692	1	18
529.862	1	5
530.032	1	19
530.202	1	12
530.372	1	5
530.542	1	5
530.712	1	15
530.882	1	-1
531.052	1	18
531.222	1	9
531.392	1	9
531.563	1	-2
531.733	1	11
531.903	1	5
532.073	1	-1
532.243	1	10
532.413	1	7
532.583	1	7
532.753	1	15
532.923	1	14
533.093	1	10
533.263	1	14
533.433	1	10
533.603	1	20
533.773	1	11
533.943	1	6
534.113	1	13
534.284	1	5
534.454	1	11
534.624	1	15
534.794	1	14
534.964	1	9
535.134	1	13
535.304	1	9
535.474	1	14
535.644	1	4
535.814	1	5
535.984	1	17
536.154	1	6
536.324	1	11
536.494	1	5
536.664	1	24
536.834	1	11
537.004	1	10
537.174	1	2
537.344	1	19
537.514	1	12
537.685	1	10
537.855	1	9
538.025	1	-1
538.195	1	8
538.365	1	15
538.535	1	10
538.705	1	9
538.875	1	13
539.045	1	4
539.215	1	14
539.385	1	10
539.555	1	7
539.725	1	0
539.895	1	9
540.065	1	5
540.235	1	6
540.405	1	8
540.575	1	18
540.745	1	18
540.915	1	2
541.085	1	4
541.255	1	16
541.425	1	-3
541.595	1	-1
541.765	1	10
541.935	1	14
542.105	1	10
542.275	1	6
542.445	1	-1
542.615	1	18
542.785	1	4
542.955	1	10
543.125	1	10
543.295	1	6
543.465	1	10
543.635	1	8
543.805	1	4
543.975	1	2
544.145	1	10
544.315	1	17
544.485	1	6
544.655	1	9
544.825	1	9
544.995	1	3
545.165	1	16
545.335	1	5
545.505	1	7
545.675	1	17
545.845	1	12
546.015	1	9
546.185	1	10
546.355	1	7
546.525	1	14
546.695	1	13
546.865	1	13
547.035	1	5
547.205	1	14
547.375	1	21
547.545	1	6
547.715	1	5
547.885	1	3
548.055	1	21
548.225	1	15
548.395	1	5
548.565	1	12
548.735	1	-1
548.905	1	15
549.075	1	7
549.245	1	14
549.415	1	11
549.585	1	5
549.755	1	8
549.925	1	15
550.095	1	4
550.265	1	12
550.435	1	12
550.605	1	6
550.775	1	11
550.945	1	1
551.115	1	17
551.285	1	8
551.455	1	16
551.625	1	13
551.795	1	16
551.965	1	14
552.135	1	6
552.305	1	18
552.475	1	5
552.645	1	6
552.815	1	6
552.985	1	-5
553.155	1	10
553.325	1	2
553.495	1	13
553.665	1	14
553.835	1	12
554.004	1	14
554.174	1	-1
554.344	1	14
554.514	1	4
554.684	1	-10
554.854	1	21
555.024	1	-7
555.194	1	20
555.364	1	-1
555.534	1	10
555.704	1	7
555.874	1	5
556.044	1	10
556.214	1	1
556.384	1	4
556.554	1	1
556.724	1	9
556.894	1	2
557.064	1	7
557.234	1	13
557.404	1	11
557.573	1	7
557.743	1	-8
557.913	1	11
558.083	1	9
558.253	1	12
558.423	1	3
558.593	1	14
558.763	1	7
558.933	1	2
559.103	1	5
559.273	1	4
559.443	1	0
559.613	1	-3
559.783	1	12
559.953	1	3
560.122	1	7
560.292	1	1
560.462	1	0
560.632	1	26
560.802	1	8
560.972	1	9
561.142	1	2
561.312	1	4
561.482	1	8
561.652	1	17
561.822	1	14
561.992	1	-1
562.162	1	11
562.331	1	3
562.501	1	0
562.671	1	15
562.841	1	11
563.011	1	9
563.181	1	12
563.351	1	10
563.521	1	4
563.691	1	13
563.861	1	5
564.031	1	9
564.201	1	8
564.370	1	7
564.540	1	2
564.710	1	5
564.880	1	8
565.050	1	11
565.220	1	14
565.390	1	19
565.560	1	16
565.730	1	-5
565.900	1	5
566.069	1	11
566.239	1	6
566.409	1	7
566.579	1	6
566.749	1	9
566.919	1	3
567.089	1	7
567.259	1	9
567.429	1	0
567.599	1	11
567.768	1	1
567.938	1	6
568.108	1	11
568.278	1	10
568.448	1	1
568.618	1	15
568.788	1	16
568.958	1	1
569.128	1	-8
569.297	1	5
569.467	1	5
569.637	1	16
569.807	1	8
569.977	1	24
570.147	1	10
570.317	1	3
570.487	1	-1
570.656	1	11
570.826	1	9
570.996	1	0
571.166	1	8
571.336	1	19
571.506	1	6
571.676	1	1
571.846	1	14
572.015	1	6
572.185	1	7
572.355	1	9
572.525	1	10
572.695	1	9
572.865	1	-1
573.035	1	18
573.205	1	7
573.374	1	7
573.544	1	-5
573.714	1	19
573.884	1	11
574.054	1	15
574.224	1	8
574.394	1	1
574.563	1	6
574.733	1	0
574.903	1	7
575.073	1	6
575.243	1	11
575.413	1	11
575.583	1	16
575.752	1	4
575.922	1	12
576.092	1	17
576.262	1	4
576.432	1	14
576.602	1	0
576.772	1	-3
576.941	1	7
577.111	1	6
577.281	1	6
577.451	1	12
577.621	1	3
577.791	1	5
577.960	1	10
578.130	1	6
578.300	1	0
578.470	1	11
578.640	1	-3
578.810	1	4
578.979	1	2
579.149	1	15
579.319	1	5
579.489	1	-2
579.659	1	6
579.829	1	13
579.998	1	6
580.168	1	2
580.338	1	0
580.508	1	11
580.678	1	4
580.848	1	1
581.017	1	5
581.187	1	5
581.357	1	10
581.527	1	3
581.697	1	6
581.867	1	7
582.036	1	7
582.206	1	-1
582.376	1	9
582.546	1	-1
582.716	1	-4
582.885	1	12
583.055	1	9
583.225	1	14
583.395	1	3
583.565	1	-5
583.735	1	11
583.904	1	7
584.074	1	19
584.244	1	6
584.414	1	0
584.584	1	8
584.753	1	11
584.923	1	9
585.093	1	0
585.263	1	12
585.433	1	0
585.602	1	4
585.772	1	2
585.942	1	4
586.112	1	-3
586.282	1	3
586.451	1	15
586.621	1	7
586.791	1	5
586.961	1	0
587.131	1	8
587.300	1	8
587.470	1	6
587.640	1	4
587.810	1	17
587.980	1	5
588.149	1	1
588.319	1	6
588.489	1	0
588.659	1	24
588.829	1	12
588.998	1	14
589.168	1	14
589.338	1	12
589.508	1	7
589.677	1	3
589.847	1	23
590.017	1	11
590.187	1	10
590.357	1	-5
590.526	1	11
590.696	1	16
590.866	1	13
591.036	1	7
591.205	1	4
591.375	1	-3
591.545	1	14
591.715	1	-4
591.885	1	5
592.054	1	3
592.224	1	17
592.394	1	-1
592.564	1	15
592.733	1	23
592.903	1	2
593.073	1	4
593.243	1	13
593.412	1	8
593.582	1	5
593.752	1	8
593.922	1	5
594.091	1	5
594.261	1	7
594.431	1	16
594.601	1	6
594.771	1	5
594.940	1	10
595.110	1	8
595.280	1	3
595.450	1	15
595.619	1	13
595.789	1	2
595.959	1	7
596.129	1	13
596.298	1	16
596.468	1	5
596.638	1	-2
596.808	1	5
596.977	1	11
597.147	1	0
597.317	1	1
597.487	1	3
597.656	1	2
597.826	1	5
597.996	1	12
598.166	1	4
598.335	1	3
598.505	1	7
598.675	1	6
598.844	1	0
599.014	1	9
599.184	1	15
599.354	1	12
599.523	1	8
599.693	1	4
599.863	1	12
600.033	1	-4
600.202	1	3
600.372	1	-3
600.542	1	7
600.712	1	15
600.881	1	3
601.051	1	-2
601.221	1	8
601.390	1	5
601.560	1	9
601.730	1	6
601.900	1	6
602.069	1	7
602.239	1	16
602.409	1	8
602.578	1	6
602.748	1	11
602.918	1	10
603.088	1	8
603.257	1	20
603.427	1	4
603.597	1	4
603.767	1	0
603.936	1	-12
604.106	1	10
604.276	1	5
604.445	1	-2
604.615	1	3
604.785	1	15
604.954	1	13
605.124	1	15
605.294	1	7
605.464	1	14
605.633	1	12
605.803	1	10
605.973	1	16
606.142	1	15
606.312	1	7
606.482	1	16
606.652	1	5
606.821	1	5
606.991	1	20
607.161	1	4
607.330	1	-5
607.500	1	5
607.670	1	2
607.839	1	11
608.009	1	3
608.179	1	0
608.348	1	16
608.518	1	7
608.688	1	17
608.858	1	7
609.027	1	21
609.197	1	-6
609.367	1	6
609.536	1	19
609.706	1	10
609.876	1	18
610.045	1	12
610.215	1	12
610.385	1	5
610.554	1	11
610.724	1	5
610.894	1	8
611.063	1	0
611.233	1	7
611.403	1	10
611.572	1	8
611.742	1	5
611.912	1	0
612.081	1	13
612.251	1	10
612.421	1	-2
612.590	1	4
612.760	1	20
612.930	1	6
613.099	1	12
613.269	1	9
613.439	1	4
613.608	1	4
613.778	1	5
613.948	1	5
614.117	1	-2
614.287	1	24
614.457	1	3
614.626	1	14
614.796	1	15
614.966	1	9
615.135	1	10
615.305	1	9
615.475	1	14
615.644	1	0
615.814	1	2
615.984	1	9
616.153	1	9
616.323	1	9
616.493	1	8
616.662	1	9
616.832	1	7
617.002	1	0
617.171	1	7
617.341	1	9
617.511	1	-2
617.680	1	17
617.850	1	11
618.019	1	11
618.189	1	4
618.359	1	17
618.528	1	11
618.698	1	7
618.868	1	3
619.037	1	9
619.207	1	15
619.377	1	2
619.546	1	3
619.716	1	4
619.885	1	4
620.055	1	7
620.225	1	20
620.394	1	11
620.564	1	8
620.734	1	8
620.903	1	21
621.073	1	4
621.242	1	15
621.412	1	9
621.582	1	17
621.751	1	0
621.921	1	20
622.091	1	2
622.260	1	17
622.430	1	10
622.599	1	15
622.769	1	9
622.939	1	5
623.108	1	8
623.278	1	10
623.448	1	11
623.617	1	13
623.787	1	2
623.956	1	12
624.126	1	-7
624.296	1	9
624.465	1	3
624.635	1	20
624.804	1	12
624.974	1	17
625.144	1	5
625.313	1	15
625.483	1	11
625.652	1	7
625.822	1	14
625.992	1	5
626.161	1	18
626.331	1	16
626.501	1	25
626.670	1	6
626.840	1	9
627.009	1	20
627.179	1	8
627.348	1	15
627.518	1	14
627.688	1	2
627.857	1	21
628.027	1	5
628.196	1	-1
628.366	1	6
628.536	1	16
628.705	1	10
628.875	1	10
629.044	1	15
629.214	1	17
629.384	1	10
629.553	1	4
629.723	1	2
629.892	1	16
630.062	1	11
630.232	1	5
630.401	1	15
630.571	1	16
630.740	1	18
630.910	1	11
631.079	1	15
631.249	1	20
631.419	1	5
631.588	1	14
631.758	1	19
631.927	1	6
632.097	1	1
632.266	1	14
632.436	1	12
632.606	1	20
632.775	1	20
632.945	1	12
633.114	1	-2
633.284	1	10
633.453	1	8
633.623	1	10
633.793	1	19
633.962	1	16
634.132	1	6
634.301	1	6
634.471	1	4
634.640	1	7
634.810	1	20
634.979	1	25
635.149	1	9
635.319	1	1
635.488	1	7
635.658	1	14
635.827	1	13
635.997	1	1
636.166	1	17
636.336	1	18
636.505	1	17
636.675	1	12
636.845	1	6
637.014	1	17
637.184	1	3
637.353	1	14
637.523	1	25
637.692	1	3
637.862	1	2
638.031	1	14
638.201	1	13
638.370	1	19
638.540	1	13
638.710	1	8
638.879	1	10
639.049	1	10
639.218	1	12
639.388	1	15
639.557	1	21
639.727	1	14
639.896	1	16
640.066	1	18
640.235	1	18
640.405	1	16
640.574	1	16
640.744	1	14
640.914	1	10
641.083	1	8
641.253	1	19
641.422	1	1
641.592	1	7
641.761	1	12
641.931	1	19
642.100	1	13
642.270	1	9
642.439	1	14
642.609	1	16
642.778	1	6
642.948	1	21
643.117	1	2
643.287	1	6
643.456	1	21
643.626	1	7
643.795	1	1
643.965	1	13
644.134	1	12
644.304	1	10
644.473	1	11
644.643	1	16
644.812	1	10
644.982	1	9
645.151	1	13
645.321	1	12
645.490	1	7
645.660	1	-2
645.829	1	12
645.999	1	10
646.168	1	15
646.338	1	0
646.507	1	15
646.677	1	10
646.846	1	4
647.016	1	13
647.185	1	17
647.355	1	14
647.524	1	16
647.694	1	19
647.863	1	16
648.033	1	18
648.202	1	9
648.372	1	11
648.541	1	6
648.711	1	8
648.880	1	11
649.050	1	4
649.219	1	10
649.389	1	3
649.558	1	11
649.728	1	1
649.897	1	8
650.067	1	5
650.236	1	7
650.406	1	10
650.575	1	12
650.745	1	10
650.914	1	20
651.084	1	4
651.253	1	13
651.423	1	27
651.592	1	9
651.762	1	17
651.931	1	12
652.101	1	17
652.270	1	15
652.440	1	6
652.609	1	8
652.778	1	-6
652.948	1	11
653.117	1	15
653.287	1	14
653.456	1	11
653.626	1	17
653.795	1	3
653.965	1	17
654.134	1	5
654.304	1	6
654.473	1	20
654.643	1	5
654.812	1	11
654.982	1	3
655.151	1	12
655.320	1	7
655.490	1	10
655.659	1	13
655.829	1	11
655.998	1	9
656.168	1	8
656.337	1	11
656.507	1	8
656.676	1	1
656.846	1	15
657.015	1	14
657.184	1	6
657.354	1	5
657.523	1	11
657.693	1	7
657.862	1	15
658.032	1	20
658.201	1	17
658.371	1	20
658.540	1	6
658.709	1	11
658.879	1	8
659.048	1	23
659.218	1	19
659.387	1	8
659.557	1	2
659.726	1	7
659.895	1	-2
660.065	1	13
660.234	1	7
660.404	1	15
660.573	1	16
660.743	1	8
660.912	1	15
661.081	1	13
661.251	1	14
661.420	1	11
661.590	1	9
661.759	1	8
661.929	1	6
662.098	1	1
662.267	1	20
662.437	1	4
662.606	1	10
662.776	1	6
662.945	1	11
663.115	1	7
663.284	1	4
663.453	1	6
663.623	1	4
663.792	1	4
663.962	1	6
664.131	1	8
664.300	1	10
664.470	1	2
664.639	1	17
664.809	1	4
664.978	1	-4
665.148	1	15
665.317	1	19
665.486	1	9
665.656	1	24
665.825	1	13
665.995	1	9
666.164	1	18
666.333	1	3
666.503	1	9
666.672	1	10
666.842	1	6
667.011	1	4
667.180	1	9
667.350	1	9
667.519	1	3
667.689	1	10
667.858	1	12
668.027	1	8
668.197	1	13
668.366	1	21
668.536	1	8
668.705	1	5
668.874	1	19
669.044	1	9
669.213	1	5
669.382	1	13
669.552	1	9
669.721	1	15
669.891	1	4
670.060	1	14
670.229	1	14
670.399	1	8
670.568	1	-6
670.738	1	14
670.907	1	4
671.076	1	16
671.246	1	9
671.415	1	16
671.584	1	3
671.754	1	12
671.923	1	11
672.093	1	5
672.262	1	5
672.431	1	10
672.601	1	4
672.770	1	12
672.939	1	9
673.109	1	10
673.278	1	8
673.448	1	17
673.617	1	9
673.786	1	13
