325.333	1	8
325.504	1	4
325.675	1	-2
325.846	1	0
326.017	1	8
326.188	1	5
326.359	1	-3
326.531	1	3
326.702	1	11
326.873	1	1
327.044	1	1
327.215	1	1
327.386	1	4
327.557	1	5
327.728	1	7
327.899	1	9
328.070	1	8
328.241	1	6
328.412	1	-9
328.583	1	9
328.754	1	-1
328.926	1	3
329.097	1	1
329.268	1	15
329.439	1	6
329.610	1	9
329.781	1	10
329.952	1	-2
330.123	1	-9
330.294	1	12
330.465	1	2
330.636	1	13
330.807	1	10
330.978	1	2
331.149	1	8
331.320	1	5
331.492	1	2
331.663	1	7
331.834	1	6
332.005	1	-6
332.176	1	-1
332.347	1	4
332.518	1	3
332.689	1	16
332.860	1	6
333.031	1	-5
333.202	1	-9
333.373	1	13
333.544	1	5
333.715	1	3
333.886	1	-4
334.057	1	19
334.228	1	6
334.399	1	0
334.570	1	12
334.741	1	-1
334.912	1	11
335.084	1	7
335.255	1	4
335.426	1	5
335.597	1	3
335.768	1	5
335.939	1	3
336.110	1	-3
336.281	1	5
336.452	1	6
336.623	1	2
336.794	1	8
336.965	1	12
337.136	1	-4
337.307	1	7
337.478	1	2
337.649	1	14
337.820	1	7
337.991	1	18
338.162	1	12
338.333	1	7
338.504	1	8
338.675	1	8
338.846	1	7
339.017	1	6
339.188	1	0
339.359	1	9
339.530	1	1
339.701	1	9
339.872	1	3
340.043	1	6
340.214	1	9
340.385	1	-4
340.556	1	4
340.727	1	12
340.898	1	19
341.069	1	1
341.240	1	3
341.411	1	18
341.582	1	0
341.753	1	8
341.924	1	0
342.095	1	12
342.266	1	9
342.437	1	12
342.608	1	3
342.779	1	12
342.950	1	-2
343.121	1	17
343.292	1	13
343.463	1	3
343.634	1	3
343.805	1	6
343.976	1	7
344.147	1	-8
344.318	1	7
344.489	1	3
344.660	1	12
344.831	1	3
345.002	1	1
345.173	1	-4
345.344	1	1
345.515	1	-5
345.686	1	-1
345.857	1	-3
346.028	1	12
346.199	1	7
346.370	1	11
346.541	1	6
346.712	1	5
346.883	1	13
347.054	1	4
347.225	1	8
347.396	1	-2
347.567	1	6
347.738	1	11
347.909	1	-2
348.080	1	-2
348.251	1	2
348.422	1	-1
348.593	1	-9
348.764	1	15
348.935	1	1
349.106	1	-7
349.277	1	14
349.448	1	-1
349.619	1	2
349.790	1	8
349.961	1	7
350.132	1	8
350.303	1	9
350.474	1	5
350.645	1	4
350.816	1	9
350.987	1	-7
351.157	1	8
351.328	1	-1
351.499	1	21
351.670	1	0
351.841	1	13
352.012	1	19
352.183	1	-5
352.354	1	12
352.525	1	-9
352.696	1	7
352.867	1	1
353.038	1	8
353.209	1	9
353.380	1	2
353.551	1	-4
353.722	1	-1
353.893	1	12
354.064	1	12
354.235	1	-1
354.406	1	8
354.576	1	-6
354.747	1	4
354.918	1	8
355.089	1	6
355.260	1	6
355.431	1	-2
355.602	1	3
355.773	1	-6
355.944	1	1
356.115	1	-1
356.286	1	8
356.457	1	14
356.628	1	-4
356.799	1	1
356.970	1	-1
357.141	1	9
357.311	1	-1
357.482	1	9
357.653	1	-2
357.824	1	-1
357.995	1	4
358.166	1	1
358.337	1	11
358.508	1	-5
358.679	1	6
358.850	1	3
359.021	1	-4
359.192	1	-3
359.363	1	3
359.533	1	-1
359.704	1	-2
359.875	1	6
360.046	1	1
360.217	1	5
360.388	1	3
360.559	1	3
360.730	1	5
360.901	1	10
361.072	1	-10
361.243	1	7
361.414	1	-1
361.584	1	0
361.755	1	-3
361.926	1	1
362.097	1	-5
362.268	1	14
362.439	1	0
362.610	1	5
362.781	1	-2
362.952	1	-9
363.123	1	-8
363.293	1	1
363.464	1	1
363.635	1	11
363.806	1	5
363.977	1	9
364.148	1	7
364.319	1	0
364.490	1	-2
364.661	1	-12
364.832	1	4
365.002	1	-7
365.173	1	-5
365.344	1	-3
365.515	1	-5
365.686	1	4
365.857	1	1
366.028	1	2
366.199	1	-2
366.370	1	-4
366.540	1	2
366.711	1	7
366.882	1	9
367.053	1	7
367.224	1	-3
367.395	1	0
367.566	1	7
367.737	1	4
367.908	1	0
368.078	1	-5
368.249	1	8
368.420	1	10
368.591	1	5
368.762	1	15
368.933	1	13
369.104	1	1
369.274	1	0
369.445	1	3
369.616	1	1
369.787	1	8
369.958	1	-2
370.129	1	7
370.300	1	-5
370.471	1	8
370.641	1	3
370.812	1	-4
370.983	1	-4
371.154	1	9
371.325	1	10
371.496	1	-1
371.667	1	-4
371.837	1	12
372.008	1	-2
372.179	1	4
372.350	1	-11
372.521	1	-9
372.692	1	1
372.863	1	2
373.033	1	6
373.204	1	8
373.375	1	4
373.546	1	6
373.717	1	3
373.888	1	5
374.059	1	10
374.229	1	-2
374.400	1	1
374.571	1	5
374.742	1	5
374.913	1	1
375.084	1	-1
375.254	1	7
375.425	1	11
375.596	1	8
375.767	1	-1
375.938	1	-1
376.109	1	-5
376.279	1	-4
376.450	1	2
376.621	1	-1
376.792	1	10
376.963	1	5
377.134	1	4
377.304	1	-3
377.475	1	0
377.646	1	-6
377.817	1	4
377.988	1	2
378.159	1	7
378.329	1	11
378.500	1	-6
378.671	1	15
378.842	1	8
379.013	1	8
379.184	1	2
379.354	1	1
379.525	1	6
379.696	1	3
379.867	1	5
380.038	1	14
380.209	1	6
380.379	1	1
380.550	1	-4
380.721	1	9
380.892	1	6
381.063	1	2
381.233	1	11
381.404	1	4
381.575	1	4
381.746	1	3
381.917	1	6
382.087	1	9
382.258	1	6
382.429	1	4
382.600	1	1
382.771	1	5
382.941	1	0
383.112	1	0
383.283	1	2
383.454	1	8
383.625	1	4
383.795	1	4
383.966	1	10
384.137	1	1
384.308	1	6
384.479	1	14
384.649	1	5
384.820	1	6
384.991	1	12
385.162	1	6
385.333	1	2
385.503	1	2
385.674	1	4
385.845	1	4
386.016	1	12
386.187	1	1
386.357	1	-6
386.528	1	12
386.699	1	-2
386.870	1	1
387.041	1	2
387.211	1	7
387.382	1	1
387.553	1	2
387.724	1	-11
387.894	1	-11
388.065	1	12
388.236	1	9
388.407	1	16
388.578	1	14
388.748	1	3
388.919	1	-2
389.090	1	10
389.261	1	-2
389.431	1	9
389.602	1	6
389.773	1	3
389.944	1	3
390.114	1	6
390.285	1	12
390.456	1	4
390.627	1	9
390.798	1	2
390.968	1	11
391.139	1	-6
391.310	1	-1
391.481	1	-5
391.651	1	5
391.822	1	11
391.993	1	-5
392.164	1	7
392.334	1	-4
392.505	1	3
392.676	1	8
392.847	1	0
393.017	1	5
393.188	1	9
393.359	1	8
393.530	1	10
393.700	1	11
393.871	1	-1
394.042	1	10
394.213	1	5
394.383	1	8
394.554	1	11
394.725	1	7
394.896	1	0
395.066	1	7
395.237	1	3
395.408	1	10
395.579	1	8
395.749	1	7
395.920	1	3
396.091	1	4
396.262	1	-2
396.432	1	-4
396.603	1	3
396.774	1	16
396.945	1	3
397.115	1	9
397.286	1	-4
397.457	1	11
397.627	1	2
397.798	1	4
397.969	1	10
398.140	1	3
398.310	1	13
398.481	1	8
398.652	1	4
398.823	1	0
398.993	1	12
399.164	1	6
399.335	1	7
399.505	1	7
399.676	1	4
399.847	1	6
400.018	1	16
400.188	1	9
400.359	1	-3
400.530	1	17
400.700	1	11
400.871	1	11
401.042	1	-2
401.213	1	6
401.383	1	17
401.554	1	16
401.725	1	-5
401.895	1	2
402.066	1	4
402.237	1	17
402.408	1	19
402.578	1	4
402.749	1	13
402.920	1	5
403.090	1	5
403.261	1	7
403.432	1	8
403.603	1	6
403.773	1	14
403.944	1	6
404.115	1	11
404.285	1	7
404.456	1	14
404.627	1	16
404.797	1	10
404.968	1	12
405.139	1	-1
405.310	1	16
405.480	1	-3
405.651	1	5
405.822	1	7
405.992	1	19
406.163	1	1
406.334	1	13
406.504	1	11
406.675	1	9
406.846	1	0
407.016	1	18
407.187	1	7
407.358	1	17
407.528	1	2
407.699	1	7
407.870	1	12
408.041	1	15
408.211	1	11
408.382	1	10
408.553	1	15
408.723	1	20
408.894	1	1
409.065	1	10
409.235	1	0
409.406	1	19
409.577	1	10
409.747	1	15
409.918	1	13
410.089	1	9
410.259	1	20
410.430	1	2
410.601	1	18
410.771	1	7
410.942	1	5
411.113	1	4
411.283	1	9
411.454	1	12
411.625	1	9
411.795	1	13
411.966	1	7
412.137	1	25
412.307	1	-6
412.478	1	16
412.649	1	7
412.819	1	7
412.990	1	11
413.161	1	12
413.331	1	20
413.502	1	13
413.672	1	5
413.843	1	13
414.014	1	9
414.184	1	17
414.355	1	8
414.526	1	7
414.696	1	7
414.867	1	24
415.038	1	13
415.208	1	-2
415.379	1	-2
415.550	1	4
415.720	1	10
415.891	1	16
416.062	1	-3
416.232	1	18
416.403	1	0
416.573	1	14
416.744	1	14
416.915	1	20
417.085	1	18
417.256	1	4
417.427	1	7
417.597	1	7
417.768	1	7
417.939	1	3
418.109	1	19
418.280	1	15
418.450	1	21
418.621	1	19
418.792	1	15
418.962	1	6
419.133	1	8
419.304	1	13
419.474	1	3
419.645	1	12
419.815	1	14
419.986	1	20
420.157	1	14
420.327	1	6
420.498	1	4
420.669	1	9
420.839	1	13
421.010	1	14
421.180	1	12
421.351	1	8
421.522	1	2
421.692	1	6
421.863	1	10
422.033	1	12
422.204	1	14
422.375	1	19
422.545	1	18
422.716	1	12
422.886	1	15
423.057	1	7
423.228	1	16
423.398	1	24
423.569	1	1
423.740	1	9
423.910	1	16
424.081	1	12
424.251	1	18
424.422	1	20
424.593	1	12
424.763	1	13
424.934	1	19
425.104	1	21
425.275	1	6
425.445	1	2
425.616	1	3
425.787	1	7
425.957	1	15
426.128	1	21
426.298	1	4
426.469	1	18
426.640	1	7
426.810	1	8
426.981	1	6
427.151	1	12
427.322	1	17
427.493	1	18
427.663	1	14
427.834	1	5
428.004	1	20
428.175	1	6
428.345	1	13
428.516	1	22
428.687	1	7
428.857	1	9
429.028	1	6
429.198	1	7
429.369	1	21
429.540	1	11
429.710	1	20
429.881	1	2
430.051	1	4
430.222	1	27
430.392	1	7
430.563	1	10
430.734	1	7
430.904	1	9
431.075	1	14
431.245	1	8
431.416	1	-1
431.586	1	14
431.757	1	10
431.927	1	7
432.098	1	7
432.269	1	6
432.439	1	13
432.610	1	14
432.780	1	6
432.951	1	11
433.121	1	2
433.292	1	12
433.462	1	12
433.633	1	16
433.804	1	11
433.974	1	10
434.145	1	15
434.315	1	11
434.486	1	11
434.656	1	10
434.827	1	11
434.997	1	21
435.168	1	3
435.339	1	11
435.509	1	16
435.680	1	4
435.850	1	12
436.021	1	13
436.191	1	4
436.362	1	20
436.532	1	11
436.703	1	20
436.873	1	16
437.044	1	16
437.214	1	13
437.385	1	14
437.556	1	11
437.726	1	4
437.897	1	-7
438.067	1	10
438.238	1	15
438.408	1	17
438.579	1	8
438.749	1	1
438.920	1	10
439.090	1	14
439.261	1	7
439.431	1	15
439.602	1	10
439.772	1	14
439.943	1	11
440.113	1	3
440.284	1	18
440.455	1	10
440.625	1	19
440.796	1	17
440.966	1	12
441.137	1	-4
441.307	1	13
441.478	1	12
441.648	1	9
441.819	1	4
441.989	1	9
442.160	1	13
442.330	1	17
442.501	1	6
442.671	1	18
442.842	1	0
443.012	1	19
443.183	1	12
443.353	1	16
443.524	1	-2
443.694	1	1
443.865	1	5
444.035	1	18
444.206	1	7
444.376	1	5
444.547	1	1
444.717	1	2
444.888	1	5
445.058	1	7
445.229	1	7
445.399	1	8
445.570	1	11
445.740	1	8
445.911	1	2
446.081	1	10
446.252	1	5
446.422	1	-4
446.593	1	8
446.763	1	6
446.934	1	4
447.104	1	-4
447.275	1	5
447.445	1	12
447.616	1	11
447.786	1	13
447.957	1	0
448.127	1	-1
448.298	1	8
448.468	1	7
448.639	1	21
448.809	1	7
448.979	1	10
449.150	1	9
449.320	1	16
449.491	1	12
449.661	1	13
449.832	1	9
450.002	1	6
450.173	1	2
450.343	1	15
450.514	1	20
450.684	1	11
450.855	1	15
451.025	1	11
451.196	1	21
451.366	1	10
451.537	1	3
451.707	1	13
451.878	1	2
452.048	1	-3
452.218	1	15
452.389	1	12
452.559	1	17
452.730	1	4
452.900	1	-2
453.071	1	12
453.241	1	7
453.412	1	8
453.582	1	13
453.753	1	8
453.923	1	3
454.093	1	4
454.264	1	7
454.434	1	4
454.605	1	4
454.775	1	10
454.946	1	10
455.116	1	4
455.287	1	13
455.457	1	-5
455.628	1	-10
455.798	1	-6
455.968	1	3
456.139	1	16
456.309	1	6
456.480	1	-2
456.650	1	10
456.821	1	10
456.991	1	12
457.161	1	7
457.332	1	6
457.502	1	25
457.673	1	10
457.843	1	-6
458.014	1	8
458.184	1	7
458.355	1	13
458.525	1	16
458.695	1	3
458.866	1	-3
459.036	1	1
459.207	1	4
459.377	1	0
459.548	1	7
459.718	1	-2
459.888	1	10
460.059	1	6
460.229	1	11
460.400	1	21
460.570	1	7
460.740	1	3
460.911	1	16
461.081	1	6
461.252	1	5
461.422	1	6
461.593	1	13
461.763	1	18
461.933	1	10
462.104	1	5
462.274	1	-2
462.445	1	13
462.615	1	11
462.785	1	4
462.956	1	-1
463.126	1	1
463.297	1	6
463.467	1	9
463.638	1	-1
463.808	1	5
463.978	1	4
464.149	1	10
464.319	1	2
464.490	1	-3
464.660	1	-6
464.830	1	7
465.001	1	14
465.171	1	1
465.342	1	7
465.512	1	11
465.682	1	4
465.853	1	1
466.023	1	0
466.194	1	11
466.364	1	9
466.534	1	1
466.705	1	7
466.875	1	3
467.045	1	3
467.216	1	14
467.386	1	4
467.557	1	0
467.727	1	-1
467.897	1	6
468.068	1	-1
468.238	1	-5
468.409	1	2
468.579	1	3
468.749	1	18
468.920	1	19
469.090	1	3
469.260	1	14
469.431	1	7
469.601	1	11
469.772	1	1
469.942	1	5
470.112	1	0
470.283	1	13
470.453	1	6
470.623	1	14
470.794	1	-2
470.964	1	2
471.135	1	13
471.305	1	8
471.475	1	3
471.646	1	8
471.816	1	10
471.986	1	6
472.157	1	0
472.327	1	2
472.497	1	-5
472.668	1	0
472.838	1	1
473.009	1	12
473.179	1	11
473.349	1	-1
473.520	1	4
473.690	1	6
473.860	1	2
474.031	1	19
474.201	1	1
474.371	1	13
474.542	1	15
474.712	1	12
474.882	1	4
475.053	1	-3
475.223	1	6
475.394	1	0
475.564	1	5
475.734	1	15
475.905	1	5
476.075	1	2
476.245	1	0
476.416	1	-3
476.586	1	14
476.756	1	2
476.927	1	-3
477.097	1	-1
477.267	1	9
477.438	1	6
477.608	1	2
477.778	1	-1
477.949	1	6
478.119	1	9
478.289	1	0
478.460	1	4
478.630	1	9
478.800	1	4
478.971	1	-2
479.141	1	5
479.311	1	11
479.482	1	2
479.652	1	5
479.822	1	9
479.993	1	-1
480.163	1	1
480.333	1	-3
480.504	1	2
480.674	1	-2
480.844	1	14
481.015	1	8
481.185	1	6
481.355	1	11
481.525	1	8
481.696	1	17
481.866	1	-5
482.036	1	9
482.207	1	19
482.377	1	4
482.547	1	3
482.718	1	21
482.888	1	1
483.058	1	7
483.229	1	5
483.399	1	-1
483.569	1	-8
483.740	1	2
483.910	1	10
484.080	1	5
484.250	1	12
484.421	1	1
484.591	1	5
484.761	1	-2
484.932	1	-6
485.102	1	7
485.272	1	0
485.443	1	5
485.613	1	-4
485.783	1	3
485.953	1	6
486.124	1	-4
486.294	1	10
486.464	1	2
486.635	1	4
486.805	1	-2
486.975	1	5
487.146	1	5
487.316	1	8
487.486	1	7
487.656	1	6
487.827	1	4
487.997	1	-4
488.167	1	8
488.338	1	17
488.508	1	8
488.678	1	12
488.848	1	4
489.019	1	4
489.189	1	4
489.359	1	-1
489.529	1	10
489.700	1	-2
489.870	1	4
490.040	1	4
490.211	1	13
490.381	1	13
490.551	1	-1
490.721	1	-5
490.892	1	-13
491.062	1	7
491.232	1	9
491.402	1	6
491.573	1	5
491.743	1	11
491.913	1	7
492.084	1	-2
492.254	1	-5
492.424	1	10
492.594	1	0
492.765	1	1
492.935	1	11
493.105	1	10
493.275	1	10
493.446	1	4
493.616	1	5
493.786	1	0
493.956	1	11
494.127	1	6
494.297	1	13
494.467	1	2
494.637	1	1
494.808	1	10
494.978	1	8
495.148	1	-9
495.318	1	8
495.489	1	-1
495.659	1	4
495.829	1	10
495.999	1	11
496.170	1	-3
496.340	1	3
496.510	1	3
496.680	1	7
496.851	1	-3
497.021	1	6
497.191	1	7
497.361	1	-3
497.532	1	-4
497.702	1	5
497.872	1	9
498.042	1	8
498.213	1	2
498.383	1	15
498.553	1	6
498.723	1	1
498.894	1	2
499.064	1	-6
499.234	1	4
499.404	1	-7
499.574	1	-1
499.745	1	-2
499.915	1	10
500.085	1	-2
500.255	1	11
500.426	1	2
500.596	1	8
500.766	1	5
500.936	1	2
501.106	1	-4
501.277	1	-12
501.447	1	-4
501.617	1	0
501.787	1	3
501.958	1	-10
502.128	1	0
502.298	1	-1
502.468	1	-4
502.638	1	-3
502.809	1	1
502.979	1	-2
503.149	1	3
503.319	1	-2
503.489	1	0
503.660	1	9
503.830	1	-4
504.000	1	6
504.170	1	-1
504.340	1	-1
504.511	1	1
504.681	1	12
504.851	1	8
505.021	1	1
505.192	1	9
505.362	1	2
505.532	1	-4
505.702	1	-1
505.872	1	11
506.043	1	5
506.213	1	-1
506.383	1	0
506.553	1	7
506.723	1	4
506.893	1	-2
507.064	1	-2
507.234	1	7
507.404	1	2
507.574	1	-10
507.744	1	-9
507.915	1	0
508.085	1	11
508.255	1	-6
508.425	1	-1
508.595	1	0
508.766	1	2
508.936	1	9
509.106	1	-1
509.276	1	4
509.446	1	-2
509.616	1	5
509.787	1	-9
509.957	1	7
510.127	1	1
510.297	1	7
510.467	1	-1
510.638	1	5
510.808	1	4
510.978	1	7
511.148	1	5
511.318	1	-2
511.488	1	8
511.659	1	-5
511.829	1	6
511.999	1	9
512.169	1	13
512.339	1	1
512.509	1	0
512.680	1	-5
512.850	1	-2
513.020	1	0
513.190	1	8
513.360	1	-1
513.530	1	1
513.700	1	4
513.871	1	4
514.041	1	4
514.211	1	6
514.381	1	3
514.551	1	7
514.721	1	5
514.892	1	0
515.062	1	-3
515.232	1	-5
515.402	1	9
515.572	1	8
515.742	1	6
515.912	1	1
516.083	1	3
516.253	1	1
516.423	1	-4
516.593	1	-12
516.763	1	1
516.933	1	-4
517.104	1	-7
517.274	1	9
517.444	1	2
517.614	1	-2
517.784	1	-1
517.954	1	4
518.124	1	7
518.294	1	5
518.465	1	-4
518.635	1	9
518.805	1	-3
518.975	1	8
519.145	1	0
519.315	1	-5
519.485	1	6
519.656	1	6
519.826	1	7
519.996	1	-2
520.166	1	-4
520.336	1	-4
520.506	1	-1
520.676	1	2
520.846	1	8
521.017	1	8
521.187	1	6
521.357	1	-4
521.527	1	0
521.697	1	2
521.867	1	4
522.037	1	8
522.207	1	-2
522.377	1	-7
522.548	1	10
522.718	1	8
522.888	1	6
523.058	1	11
523.228	1	-6
523.398	1	13
523.568	1	-2
523.738	1	0
523.909	1	6
524.079	1	16
524.249	1	9
524.419	1	-3
524.589	1	-13
524.759	1	-8
524.929	1	-3
525.099	1	-6
525.269	1	-6
525.439	1	-10
525.610	1	-1
525.780	1	-5
525.950	1	1
526.120	1	7
526.290	1	9
526.460	1	-6
526.630	1	0
526.800	1	-1
526.970	1	-4
527.140	1	-1
527.311	1	10
527.481	1	11
527.651	1	9
527.821	1	-10
527.991	1	-5
528.161	1	4
528.331	1	-8
528.501	1	0
528.671	1	-2
528.841	1	4
529.011	1	-7
529.181	1	6
529.352	1	-1
529.522	1	-2
529.692	1	-1
529.862	1	-4
530.032	1	14
530.202	1	-6
530.372	1	5
530.542	1	5
530.712	1	4
530.882	1	-13
531.052	1	-8
531.222	1	4
531.392	1	1
531.563	1	5
531.733	1	5
531.903	1	3
532.073	1	-3
532.243	1	3
532.413	1	10
532.583	1	-2
532.753	1	-6
532.923	1	-7
533.093	1	4
533.263	1	8
533.433	1	1
533.603	1	10
533.773	1	5
533.943	1	-4
534.113	1	-2
534.284	1	-1
534.454	1	5
534.624	1	-1
534.794	1	5
534.964	1	-2
535.134	1	-3
535.304	1	3
535.474	1	2
535.644	1	0
535.814	1	-10
535.984	1	0
536.154	1	4
536.324	1	-8
536.494	1	-5
536.664	1	4
536.834	1	9
537.004	1	6
537.174	1	-5
537.344	1	6
537.514	1	-6
537.685	1	7
537.855	1	-4
538.025	1	0
538.195	1	3
538.365	1	2
538.535	1	-2
538.705	1	11
538.875	1	4
539.045	1	2
539.215	1	9
539.385	1	1
539.555	1	-9
539.725	1	0
539.895	1	7
540.065	1	6
540.235	1	-5
540.405	1	-5
540.575	1	5
540.745	1	-2
540.915	1	5
541.085	1	-1
541.255	1	9
541.425	1	-9
541.595	1	-2
541.765	1	3
541.935	1	18
542.105	1	5
542.275	1	-5
542.445	1	-8
542.615	1	8
542.785	1	1
542.955	1	8
543.125	1	4
543.295	1	2
543.465	1	6
543.635	1	0
543.805	1	-7
543.975	1	-8
544.145	1	-1
544.315	1	2
544.485	1	-3
544.655	1	1
544.825	1	-3
544.995	1	6
545.165	1	12
545.335	1	4
545.505	1	3
545.675	1	6
545.845	1	1
546.015	1	6
546.185	1	8
546.355	1	5
546.525	1	-8
546.695	1	4
546.865	1	9
547.035	1	3
547.205	1	-2
547.375	1	12
547.545	1	9
547.715	1	-6
547.885	1	-1
548.055	1	9
548.225	1	-1
548.395	1	-3
548.565	1	15
548.735	1	-4
548.905	1	12
549.075	1	-6
549.245	1	5
549.415	1	1
549.585	1	7
549.755	1	-1
549.925	1	13
550.095	1	-7
550.265	1	3
550.435	1	0
550.605	1	4
550.775	1	-1
550.945	1	-1
551.115	1	3
551.285	1	-4
551.455	1	9
551.625	1	2
551.795	1	9
551.965	1	4
552.135	1	2
552.305	1	3
552.475	1	4
552.645	1	-5
552.815	1	-5
552.985	1	-3
553.155	1	-8
553.325	1	-2
553.495	1	-3
553.665	1	7
553.835	1	7
554.004	1	0
554.174	1	-11
554.344	1	14
554.514	1	0
554.684	1	-11
554.854	1	-2
555.024	1	-8
555.194	1	-2
555.364	1	-1
555.534	1	4
555.704	1	1
555.874	1	-3
556.044	1	0
556.214	1	5
556.384	1	-3
556.554	1	-3
556.724	1	0
556.894	1	-4
557.064	1	7
557.234	1	2
557.404	1	-2
557.573	1	3
557.743	1	-9
557.913	1	4
558.083	1	-1
558.253	1	2
558.423	1	-1
558.593	1	0
558.763	1	13
558.933	1	3
559.103	1	-2
559.273	1	2
559.443	1	-6
559.613	1	-14
559.783	1	-1
559.953	1	-7
560.122	1	-3
560.292	1	-7
560.462	1	-1
560.632	1	16
560.802	1	-3
560.972	1	-5
561.142	1	-8
561.312	1	-6
561.482	1	5
561.652	1	4
561.822	1	9
561.992	1	11
562.162	1	3
562.331	1	-2
562.501	1	-8
562.671	1	-2
562.841	1	6
563.011	1	-12
563.181	1	-3
563.351	1	-6
563.521	1	1
563.691	1	-1
563.861	1	-1
564.031	1	10
564.201	1	6
564.370	1	0
564.540	1	-12
564.710	1	-3
564.880	1	-3
565.050	1	5
565.220	1	8
565.390	1	-1
565.560	1	6
565.730	1	-6
565.900	1	-1
566.069	1	7
566.239	1	7
566.409	1	4
566.579	1	1
566.749	1	-2
566.919	1	5
567.089	1	-5
567.259	1	5
567.429	1	-5
567.599	1	-3
567.768	1	-8
567.938	1	3
568.108	1	-4
568.278	1	9
568.448	1	-5
568.618	1	12
568.788	1	5
568.958	1	-3
569.128	1	-2
569.297	1	-4
569.467	1	5
569.637	1	6
569.807	1	8
569.977	1	6
570.147	1	0
570.317	1	2
570.487	1	1
570.656	1	2
570.826	1	-3
570.996	1	2
571.166	1	9
571.336	1	11
571.506	1	1
571.676	1	7
571.846	1	2
572.015	1	-4
572.185	1	4
572.355	1	0
572.525	1	8
572.695	1	7
572.865	1	5
573.035	1	7
573.205	1	-3
573.374	1	-2
573.544	1	1
573.714	1	11
573.884	1	-3
574.054	1	12
574.224	1	4
574.394	1	-4
574.563	1	0
574.733	1	-10
574.903	1	11
575.073	1	4
575.243	1	-5
575.413	1	7
575.583	1	11
575.752	1	-4
575.922	1	8
576.092	1	5
576.262	1	-4
576.432	1	7
576.602	1	-8
576.772	1	3
576.941	1	-1
577.111	1	8
577.281	1	2
577.451	1	3
577.621	1	4
577.791	1	7
577.960	1	2
578.130	1	-3
578.300	1	-7
578.470	1	0
578.640	1	5
578.810	1	-2
578.979	1	4
579.149	1	9
579.319	1	-6
579.489	1	4
579.659	1	9
579.829	1	9
579.998	1	9
580.168	1	-8
580.338	1	-4
580.508	1	-7
580.678	1	-9
580.848	1	1
581.017	1	-1
581.187	1	3
581.357	1	3
581.527	1	-2
581.697	1	1
581.867	1	8
582.036	1	1
582.206	1	-8
582.376	1	-3
582.546	1	-6
582.716	1	3
582.885	1	0
583.055	1	2
583.225	1	14
583.395	1	-2
583.565	1	-5
583.735	1	2
583.904	1	3
584.074	1	1
584.244	1	-7
584.414	1	1
584.584	1	-4
584.753	1	8
584.923	1	3
585.093	1	-1
585.263	1	-1
585.433	1	-1
585.602	1	-2
585.772	1	5
585.942	1	-1
586.112	1	-4
586.282	1	0
586.451	1	8
586.621	1	3
586.791	1	5
586.961	1	4
587.131	1	0
587.300	1	-4
587.470	1	4
587.640	1	5
587.810	1	12
587.980	1	-3
588.149	1	-5
588.319	1	7
588.489	1	-4
588.659	1	17
588.829	1	5
588.998	1	2
589.168	1	5
589.338	1	8
589.508	1	-10
589.677	1	-9
589.847	1	11
590.017	1	3
590.187	1	-1
590.357	1	4
590.526	1	-8
590.696	1	1
590.866	1	7
591.036	1	6
591.205	1	3
591.375	1	-10
591.545	1	7
591.715	1	-12
591.885	1	3
592.054	1	2
592.224	1	0
592.394	1	-6
592.564	1	8
592.733	1	7
592.903	1	4
593.073	1	-4
593.243	1	3
593.412	1	3
593.582	1	-1
593.752	1	2
593.922	1	1
594.091	1	1
594.261	1	4
594.431	1	0
594.601	1	-4
594.771	1	-14
594.940	1	-2
595.110	1	0
595.280	1	2
595.450	1	10
595.619	1	-7
595.789	1	-7
595.959	1	4
596.129	1	6
596.298	1	9
596.468	1	-2
596.638	1	-12
596.808	1	-3
596.977	1	12
597.147	1	-7
597.317	1	-1
597.487	1	-8
597.656	1	2
597.826	1	3
597.996	1	0
598.166	1	-11
598.335	1	-2
598.505	1	-12
598.675	1	4
598.844	1	2
599.014	1	-3
599.184	1	12
599.354	1	3
599.523	1	6
599.693	1	-2
599.863	1	-3
600.033	1	-1
600.202	1	-3
600.372	1	-2
600.542	1	7
600.712	1	3
600.881	1	5
601.051	1	-4
601.221	1	10
601.390	1	0
601.560	1	2
601.730	1	4
601.900	1	3
602.069	1	2
602.239	1	8
602.409	1	-2
602.578	1	-6
602.748	1	4
602.918	1	1
603.088	1	11
603.257	1	4
603.427	1	5
603.597	1	8
603.767	1	0
603.936	1	-10
604.106	1	3
604.276	1	5
604.445	1	-2
604.615	1	-2
604.785	1	0
604.954	1	9
605.124	1	5
605.294	1	7
605.464	1	4
605.633	1	0
605.803	1	5
605.973	1	9
606.142	1	1
606.312	1	7
606.482	1	1
606.652	1	-4
606.821	1	-9
606.991	1	2
607.161	1	7
607.330	1	-10
607.500	1	1
607.670	1	0
607.839	1	7
608.009	1	5
608.179	1	-3
608.348	1	1
608.518	1	-6
608.688	1	12
608.858	1	13
609.027	1	17
609.197	1	-8
609.367	1	-7
609.536	1	6
609.706	1	7
609.876	1	4
610.045	1	-6
610.215	1	9
610.385	1	-2
610.554	1	-1
610.724	1	4
610.894	1	-1
611.063	1	3
611.233	1	4
611.403	1	3
611.572	1	-1
611.742	1	-9
611.912	1	1
612.081	1	10
612.251	1	10
612.421	1	-4
612.590	1	-7
612.760	1	14
612.930	1	-2
613.099	1	16
613.269	1	2
613.439	1	0
613.608	1	-8
613.778	1	-3
613.948	1	0
614.117	1	6
614.287	1	3
614.457	1	-1
614.626	1	-1
614.796	1	7
614.966	1	13
615.135	1	3
615.305	1	0
615.475	1	8
615.644	1	-4
615.814	1	0
615.984	1	0
616.153	1	1
616.323	1	8
616.493	1	3
616.662	1	5
616.832	1	4
617.002	1	-1
617.171	1	-9
617.341	1	12
617.511	1	-12
617.680	1	5
617.850	1	6
618.019	1	2
618.189	1	-10
618.359	1	10
618.528	1	5
618.698	1	-8
618.868	1	-3
619.037	1	1
619.207	1	0
619.377	1	-1
619.546	1	-6
619.716	1	2
619.885	1	8
620.055	1	-8
620.225	1	5
620.394	1	15
620.564	1	2
620.734	1	3
620.903	1	-1
621.073	1	7
621.242	1	9
621.412	1	0
621.582	1	4
621.751	1	6
621.921	1	9
622.091	1	0
622.260	1	8
622.430	1	4
622.599	1	5
622.769	1	1
622.939	1	-6
623.108	1	-1
623.278	1	0
623.448	1	6
623.617	1	-1
623.787	1	-3
623.956	1	-1
624.126	1	-7
624.296	1	2
624.465	1	-1
624.635	1	10
624.804	1	4
624.974	1	3
625.144	1	-1
625.313	1	8
625.483	1	9
625.652	1	-3
625.822	1	13
625.992	1	3
626.161	1	7
626.331	1	5
626.501	1	14
626.670	1	-12
626.840	1	2
627.009	1	5
627.179	1	7
627.348	1	-2
627.518	1	4
627.688	1	-1
627.857	1	10
628.027	1	5
628.196	1	2
628.366	1	-5
628.536	1	5
628.705	1	2
628.875	1	13
629.044	1	6
629.214	1	3
629.384	1	7
629.553	1	-6
629.723	1	0
629.892	1	10
630.062	1	-2
630.232	1	-4
630.401	1	8
630.571	1	3
630.740	1	-3
630.910	1	13
631.079	1	4
631.249	1	4
631.419	1	0
631.588	1	9
631.758	1	11
631.927	1	-2
632.097	1	0
632.266	1	9
632.436	1	7
632.606	1	5
632.775	1	5
632.945	1	-2
633.114	1	6
633.284	1	3
633.453	1	-7
633.623	1	-1
633.793	1	15
633.962	1	-1
634.132	1	8
634.301	1	-7
634.471	1	-1
634.640	1	7
634.810	1	8
634.979	1	-1
635.149	1	10
635.319	1	-5
635.488	1	9
635.658	1	13
635.827	1	10
635.997	1	3
636.166	1	14
636.336	1	4
636.505	1	14
636.675	1	2
636.845	1	6
637.014	1	8
637.184	1	13
637.353	1	3
637.523	1	11
637.692	1	-3
637.862	1	3
638.031	1	11
638.201	1	7
638.370	1	11
638.540	1	7
638.710	1	5
638.879	1	4
639.049	1	2
639.218	1	6
639.388	1	-3
639.557	1	19
639.727	1	5
639.896	1	9
640.066	1	15
640.235	1	1
640.405	1	1
640.574	1	-1
640.744	1	12
640.914	1	0
641.083	1	6
641.253	1	4
641.422	1	2
641.592	1	2
641.761	1	10
641.931	1	12
642.100	1	2
642.270	1	-12
642.439	1	1
642.609	1	5
642.778	1	1
642.948	1	10
643.117	1	-5
643.287	1	7
643.456	1	3
643.626	1	3
643.795	1	-4
643.965	1	9
644.134	1	3
644.304	1	10
644.473	1	3
644.643	1	17
644.812	1	2
644.982	1	0
645.151	1	-2
645.321	1	2
645.490	1	4
645.660	1	3
645.829	1	7
645.999	1	14
646.168	1	9
646.338	1	0
646.507	1	5
646.677	1	-2
646.846	1	0
647.016	1	6
647.185	1	1
647.355	1	2
647.524	1	8
647.694	1	10
647.863	1	5
648.033	1	2
648.202	1	-1
648.372	1	9
648.541	1	-1
648.711	1	4
648.880	1	6
649.050	1	1
649.219	1	1
649.389	1	-2
649.558	1	5
649.728	1	2
649.897	1	12
650.067	1	1
650.236	1	4
650.406	1	7
650.575	1	7
650.745	1	-4
650.914	1	14
651.084	1	5
651.253	1	3
651.423	1	16
651.592	1	6
651.762	1	-3
651.931	1	2
652.101	1	-1
652.270	1	0
652.440	1	-3
652.609	1	5
652.778	1	-5
652.948	1	-2
653.117	1	18
653.287	1	7
653.456	1	7
653.626	1	7
653.795	1	1
653.965	1	-2
654.134	1	-6
654.304	1	3
654.473	1	13
654.643	1	-2
654.812	1	-2
654.982	1	9
655.151	1	4
655.320	1	8
655.490	1	2
655.659	1	5
655.829	1	5
655.998	1	-2
656.168	1	-2
656.337	1	9
656.507	1	13
656.676	1	0
656.846	1	1
657.015	1	0
657.184	1	0
657.354	1	6
657.523	1	8
657.693	1	7
657.862	1	0
658.032	1	3
658.201	1	4
658.371	1	2
658.540	1	2
658.709	1	-7
658.879	1	3
659.048	1	8
659.218	1	11
659.387	1	6
659.557	1	-6
659.726	1	0
659.895	1	-4
660.065	1	2
660.234	1	-11
660.404	1	11
660.573	1	4
660.743	1	1
660.912	1	0
661.081	1	8
661.251	1	13
661.420	1	5
661.590	1	11
661.759	1	3
661.929	1	-7
662.098	1	3
662.267	1	9
662.437	1	5
662.606	1	4
662.776	1	-4
662.945	1	3
663.115	1	-3
663.284	1	-1
663.453	1	1
663.623	1	0
663.792	1	6
663.962	1	0
664.131	1	-2
664.300	1	-3
664.470	1	1
664.639	1	13
664.809	1	4
664.978	1	-13
665.148	1	7
665.317	1	6
665.486	1	-3
665.656	1	13
665.825	1	9
665.995	1	-4
666.164	1	15
666.333	1	-4
666.503	1	-5
666.672	1	-4
666.842	1	-2
667.011	1	8
667.180	1	-2
667.350	1	3
667.519	1	2
667.689	1	3
667.858	1	14
668.027	1	-5
668.197	1	12
668.366	1	11
668.536	1	3
668.705	1	5
668.874	1	4
669.044	1	2
669.213	1	-1
669.382	1	7
669.552	1	2
669.721	1	5
669.891	1	2
670.060	1	0
670.229	1	11
670.399	1	2
670.568	1	1
670.738	1	-2
670.907	1	7
671.076	1	4
671.246	1	5
671.415	1	0
671.584	1	6
671.754	1	6
671.923	1	6
672.093	1	0
672.262	1	-10
672.431	1	0
672.601	1	-5
672.770	1	4
672.939	1	-3
673.109	1	2
673.278	1	14
673.448	1	8
673.617	1	-2
673.786	1	-2
