325.333	1	16
325.504	1	8
325.675	1	17
325.846	1	6
326.017	1	6
326.188	1	19
326.359	1	4
326.531	1	12
326.702	1	23
326.873	1	5
327.044	1	10
327.215	1	15
327.386	1	18
327.557	1	13
327.728	1	23
327.899	1	14
328.070	1	11
328.241	1	22
328.412	1	0
328.583	1	14
328.754	1	16
328.926	1	16
329.097	1	16
329.268	1	21
329.439	1	2
329.610	1	13
329.781	1	6
329.952	1	3
330.123	1	6
330.294	1	29
330.465	1	12
330.636	1	26
330.807	1	23
330.978	1	8
331.149	1	2
331.320	1	16
331.492	1	19
331.663	1	14
331.834	1	16
332.005	1	8
332.176	1	14
332.347	1	11
332.518	1	14
332.689	1	18
332.860	1	20
333.031	1	6
333.202	1	12
333.373	1	16
333.544	1	26
333.715	1	6
333.886	1	12
334.057	1	28
334.228	1	9
334.399	1	7
334.570	1	17
334.741	1	12
334.912	1	18
335.084	1	12
335.255	1	11
335.426	1	11
335.597	1	11
335.768	1	0
335.939	1	14
336.110	1	8
336.281	1	19
336.452	1	19
336.623	1	18
336.794	1	12
336.965	1	20
337.136	1	18
337.307	1	23
337.478	1	3
337.649	1	21
337.820	1	21
337.991	1	20
338.162	1	24
338.333	1	17
338.504	1	15
338.675	1	14
338.846	1	13
339.017	1	11
339.188	1	15
339.359	1	14
339.530	1	10
339.701	1	22
339.872	1	13
340.043	1	17
340.214	1	15
340.385	1	7
340.556	1	11
340.727	1	27
340.898	1	21
341.069	1	13
341.240	1	11
341.411	1	25
341.582	1	19
341.753	1	26
341.924	1	18
342.095	1	16
342.266	1	15
342.437	1	11
342.608	1	15
342.779	1	17
342.950	1	12
343.121	1	25
343.292	1	26
343.463	1	18
343.634	1	16
343.805	1	7
343.976	1	11
344.147	1	10
344.318	1	20
344.489	1	13
344.660	1	26
344.831	1	11
345.002	1	18
345.173	1	19
345.344	1	15
345.515	1	18
345.686	1	21
345.857	1	21
346.028	1	23
346.199	1	16
346.370	1	30
346.541	1	19
346.712	1	22
346.883	1	29
347.054	1	12
347.225	1	19
347.396	1	20
347.567	1	20
347.738	1	19
347.909	1	25
348.080	1	18
348.251	1	30
348.422	1	19
348.593	1	9
348.764	1	30
348.935	1	21
349.106	1	19
349.277	1	29
349.448	1	13
349.619	1	10
349.790	1	27
349.961	1	17
350.132	1	16
350.303	1	10
350.474	1	19
350.645	1	19
350.816	1	13
350.987	1	7
351.157	1	19
351.328	1	18
351.499	1	31
351.670	1	21
351.841	1	17
352.012	1	28
352.183	1	29
352.354	1	23
352.525	1	22
352.696	1	30
352.867	1	20
353.038	1	26
353.209	1	25
353.380	1	29
353.551	1	23
353.722	1	13
353.893	1	26
354.064	1	26
354.235	1	20
354.406	1	26
354.576	1	9
354.747	1	25
354.918	1	18
355.089	1	23
355.260	1	26
355.431	1	19
355.602	1	20
355.773	1	5
355.944	1	20
356.115	1	14
356.286	1	27
356.457	1	20
356.628	1	7
356.799	1	18
356.970	1	10
357.141	1	42
357.311	1	18
357.482	1	19
357.653	1	19
357.824	1	29
357.995	1	20
358.166	1	13
358.337	1	30
358.508	1	17
358.679	1	19
358.850	1	27
359.021	1	14
359.192	1	24
359.363	1	25
359.533	1	16
359.704	1	35
359.875	1	17
360.046	1	17
360.217	1	25
360.388	1	12
360.559	1	23
360.730	1	18
360.901	1	30
361.072	1	21
361.243	1	28
361.414	1	14
361.584	1	20
361.755	1	21
361.926	1	28
362.097	1	13
362.268	1	23
362.439	1	27
362.610	1	26
362.781	1	18
362.952	1	31
363.123	1	21
363.293	1	29
363.464	1	28
363.635	1	40
363.806	1	24
363.977	1	33
364.148	1	26
364.319	1	29
364.490	1	32
364.661	1	19
364.832	1	32
365.002	1	21
365.173	1	20
365.344	1	12
365.515	1	13
365.686	1	19
365.857	1	18
366.028	1	31
366.199	1	23
366.370	1	19
366.540	1	32
366.711	1	24
366.882	1	32
367.053	1	24
367.224	1	24
367.395	1	19
367.566	1	20
367.737	1	33
367.908	1	21
368.078	1	24
368.249	1	27
368.420	1	27
368.591	1	19
368.762	1	35
368.933	1	23
369.104	1	26
369.274	1	29
369.445	1	23
369.616	1	40
369.787	1	28
369.958	1	21
370.129	1	24
370.300	1	23
370.471	1	24
370.641	1	28
370.812	1	26
370.983	1	18
371.154	1	41
371.325	1	44
371.496	1	17
371.667	1	18
371.837	1	33
372.008	1	25
372.179	1	30
372.350	1	28
372.521	1	32
372.692	1	26
372.863	1	27
373.033	1	28
373.204	1	30
373.375	1	29
373.546	1	24
373.717	1	26
373.888	1	34
374.059	1	34
374.229	1	23
374.400	1	30
374.571	1	33
374.742	1	17
374.913	1	22
375.084	1	28
375.254	1	24
375.425	1	40
375.596	1	33
375.767	1	31
375.938	1	14
376.109	1	31
376.279	1	24
376.450	1	24
376.621	1	33
376.792	1	28
376.963	1	23
377.134	1	36
377.304	1	36
377.475	1	22
377.646	1	22
377.817	1	27
377.988	1	25
378.159	1	32
378.329	1	27
378.500	1	34
378.671	1	35
378.842	1	23
379.013	1	34
379.184	1	34
379.354	1	29
379.525	1	32
379.696	1	35
379.867	1	29
380.038	1	36
380.209	1	21
380.379	1	34
380.550	1	19
380.721	1	28
380.892	1	35
381.063	1	37
381.233	1	28
381.404	1	38
381.575	1	36
381.746	1	13
381.917	1	38
382.087	1	29
382.258	1	30
382.429	1	41
382.600	1	32
382.771	1	36
382.941	1	30
383.112	1	32
383.283	1	30
383.454	1	34
383.625	1	31
383.795	1	41
383.966	1	48
384.137	1	32
384.308	1	42
384.479	1	42
384.649	1	38
384.820	1	26
384.991	1	49
385.162	1	38
385.333	1	20
385.503	1	19
385.674	1	41
385.845	1	29
386.016	1	37
386.187	1	39
386.357	1	24
386.528	1	35
386.699	1	23
386.870	1	36
387.041	1	30
387.211	1	36
387.382	1	35
387.553	1	39
387.724	1	22
387.894	1	31
388.065	1	38
388.236	1	41
388.407	1	38
388.578	1	47
388.748	1	39
388.919	1	29
389.090	1	35
389.261	1	30
389.431	1	42
389.602	1	42
389.773	1	41
389.944	1	29
390.114	1	34
390.285	1	43
390.456	1	50
390.627	1	46
390.798	1	44
390.968	1	43
391.139	1	44
391.310	1	44
391.481	1	37
391.651	1	33
391.822	1	40
391.993	1	31
392.164	1	36
392.334	1	25
392.505	1	36
392.676	1	32
392.847	1	44
393.017	1	32
393.188	1	40
393.359	1	35
393.530	1	43
393.700	1	45
393.871	1	28
394.042	1	42
394.213	1	41
394.383	1	34
394.554	1	43
394.725	1	43
394.896	1	43
395.066	1	34
395.237	1	33
395.408	1	38
395.579	1	40
395.749	1	34
395.920	1	33
396.091	1	35
396.262	1	38
396.432	1	29
396.603	1	50
396.774	1	39
396.945	1	32
397.115	1	34
397.286	1	35
397.457	1	49
397.627	1	37
397.798	1	53
397.969	1	46
398.140	1	39
398.310	1	49
398.481	1	29
398.652	1	46
398.823	1	48
398.993	1	40
399.164	1	36
399.335	1	47
399.505	1	36
399.676	1	33
399.847	1	53
400.018	1	43
400.188	1	37
400.359	1	32
400.530	1	52
400.700	1	37
400.871	1	40
401.042	1	44
401.213	1	42
401.383	1	48
401.554	1	47
401.725	1	33
401.895	1	41
402.066	1	35
402.237	1	47
402.408	1	51
402.578	1	31
402.749	1	49
402.920	1	51
403.090	1	37
403.261	1	31
403.432	1	50
403.603	1	45
403.773	1	57
403.944	1	46
404.115	1	47
404.285	1	28
404.456	1	47
404.627	1	56
404.797	1	38
404.968	1	45
405.139	1	41
405.310	1	39
405.480	1	38
405.651	1	40
405.822	1	27
405.992	1	49
406.163	1	45
406.334	1	59
406.504	1	47
406.675	1	41
406.846	1	41
407.016	1	45
407.187	1	43
407.358	1	48
407.528	1	46
407.699	1	29
407.870	1	38
408.041	1	49
408.211	1	34
408.382	1	32
408.553	1	48
408.723	1	58
408.894	1	46
409.065	1	51
409.235	1	40
409.406	1	52
409.577	1	41
409.747	1	39
409.918	1	56
410.089	1	41
410.259	1	49
410.430	1	41
410.601	1	52
410.771	1	48
410.942	1	46
411.113	1	44
411.283	1	39
411.454	1	48
411.625	1	45
411.795	1	61
411.966	1	54
412.137	1	55
412.307	1	39
412.478	1	43
412.649	1	59
412.819	1	46
412.990	1	48
413.161	1	55
413.331	1	60
413.502	1	41
413.672	1	30
413.843	1	52
414.014	1	43
414.184	1	50
414.355	1	53
414.526	1	42
414.696	1	47
414.867	1	54
415.038	1	55
415.208	1	36
415.379	1	40
415.550	1	67
415.720	1	36
415.891	1	41
416.062	1	39
416.232	1	50
416.403	1	31
416.573	1	45
416.744	1	49
416.915	1	43
417.085	1	43
417.256	1	44
417.427	1	52
417.597	1	47
417.768	1	48
417.939	1	51
418.109	1	53
418.280	1	43
418.450	1	51
418.621	1	46
418.792	1	48
418.962	1	46
419.133	1	59
419.304	1	53
419.474	1	47
419.645	1	40
419.815	1	50
419.986	1	58
420.157	1	41
420.327	1	39
420.498	1	39
420.669	1	39
420.839	1	45
421.010	1	49
421.180	1	39
421.351	1	43
421.522	1	45
421.692	1	51
421.863	1	45
422.033	1	56
422.204	1	42
422.375	1	60
422.545	1	55
422.716	1	49
422.886	1	49
423.057	1	42
423.228	1	44
423.398	1	57
423.569	1	52
423.740	1	50
423.910	1	55
424.081	1	47
424.251	1	39
424.422	1	51
424.593	1	42
424.763	1	63
424.934	1	48
425.104	1	57
425.275	1	58
425.445	1	50
425.616	1	53
425.787	1	51
425.957	1	58
426.128	1	61
426.298	1	37
426.469	1	50
426.640	1	42
426.810	1	47
426.981	1	49
427.151	1	53
427.322	1	39
427.493	1	48
427.663	1	54
427.834	1	33
428.004	1	57
428.175	1	43
428.345	1	56
428.516	1	50
428.687	1	50
428.857	1	29
429.028	1	47
429.198	1	45
429.369	1	51
429.540	1	47
429.710	1	49
429.881	1	40
430.051	1	45
430.222	1	54
430.392	1	60
430.563	1	57
430.734	1	40
430.904	1	51
431.075	1	45
431.245	1	40
431.416	1	29
431.586	1	50
431.757	1	44
431.927	1	50
432.098	1	49
432.269	1	50
432.439	1	60
432.610	1	42
432.780	1	38
432.951	1	48
433.121	1	37
433.292	1	50
433.462	1	49
433.633	1	54
433.804	1	48
433.974	1	50
434.145	1	42
434.315	1	43
434.486	1	49
434.656	1	52
434.827	1	38
434.997	1	53
435.168	1	48
435.339	1	53
435.509	1	68
435.680	1	51
435.850	1	40
436.021	1	51
436.191	1	53
436.362	1	46
436.532	1	41
436.703	1	53
436.873	1	50
437.044	1	54
437.214	1	47
437.385	1	58
437.556	1	51
437.726	1	41
437.897	1	37
438.067	1	38
438.238	1	49
438.408	1	55
438.579	1	49
438.749	1	42
438.920	1	53
439.090	1	47
439.261	1	46
439.431	1	42
439.602	1	50
439.772	1	38
439.943	1	42
440.113	1	43
440.284	1	42
440.455	1	41
440.625	1	56
440.796	1	53
440.966	1	41
441.137	1	43
441.307	1	51
441.478	1	37
441.648	1	44
441.819	1	37
441.989	1	45
442.160	1	58
442.330	1	41
442.501	1	43
442.671	1	45
442.842	1	54
443.012	1	50
443.183	1	47
443.353	1	42
443.524	1	37
443.694	1	35
443.865	1	34
444.035	1	49
444.206	1	23
444.376	1	44
444.547	1	37
444.717	1	46
444.888	1	41
445.058	1	49
445.229	1	40
445.399	1	37
445.570	1	40
445.740	1	54
445.911	1	37
446.081	1	36
446.252	1	39
446.422	1	36
446.593	1	40
446.763	1	48
446.934	1	40
447.104	1	37
447.275	1	40
447.445	1	49
447.616	1	53
447.786	1	48
447.957	1	46
448.127	1	42
448.298	1	42
448.468	1	41
448.639	1	54
448.809	1	53
448.979	1	41
449.150	1	39
449.320	1	48
449.491	1	54
449.661	1	28
449.832	1	46
450.002	1	46
450.173	1	42
450.343	1	40
450.514	1	52
450.684	1	47
450.855	1	43
451.025	1	39
451.196	1	52
451.366	1	45
451.537	1	51
451.707	1	51
451.878	1	46
452.048	1	38
452.218	1	48
452.389	1	53
452.559	1	52
452.730	1	38
452.900	1	42
453.071	1	43
453.241	1	51
453.412	1	41
453.582	1	47
453.753	1	46
453.923	1	33
454.093	1	30
454.264	1	47
454.434	1	33
454.605	1	47
454.775	1	45
454.946	1	33
455.116	1	38
455.287	1	48
455.457	1	40
455.628	1	38
455.798	1	33
455.968	1	38
456.139	1	43
456.309	1	50
456.480	1	42
456.650	1	48
456.821	1	32
456.991	1	48
457.161	1	48
457.332	1	43
457.502	1	60
457.673	1	33
457.843	1	38
458.014	1	41
458.184	1	42
458.355	1	42
458.525	1	46
458.695	1	37
458.866	1	37
459.036	1	30
459.207	1	48
459.377	1	39
459.548	1	35
459.718	1	36
459.888	1	42
460.059	1	33
460.229	1	43
460.400	1	50
460.570	1	37
460.740	1	39
460.911	1	52
461.081	1	36
461.252	1	41
461.422	1	39
461.593	1	36
461.763	1	37
461.933	1	34
462.104	1	36
462.274	1	33
462.445	1	44
462.615	1	41
462.785	1	30
462.956	1	39
463.126	1	42
463.297	1	42
463.467	1	36
463.638	1	33
463.808	1	36
463.978	1	41
464.149	1	49
464.319	1	28
464.490	1	30
464.660	1	35
464.830	1	38
465.001	1	40
465.171	1	33
465.342	1	23
465.512	1	38
465.682	1	35
465.853	1	38
466.023	1	37
466.194	1	34
466.364	1	41
466.534	1	27
466.705	1	42
466.875	1	28
467.045	1	32
467.216	1	45
467.386	1	30
467.557	1	35
467.727	1	44
467.897	1	40
468.068	1	36
468.238	1	23
468.409	1	30
468.579	1	47
468.749	1	39
468.920	1	44
469.090	1	29
469.260	1	34
469.431	1	26
469.601	1	39
469.772	1	30
469.942	1	36
470.112	1	28
470.283	1	40
470.453	1	42
470.623	1	38
470.794	1	18
470.964	1	35
471.135	1	27
471.305	1	31
471.475	1	27
471.646	1	42
471.816	1	31
471.986	1	28
472.157	1	35
472.327	1	32
472.497	1	33
472.668	1	29
472.838	1	26
473.009	1	36
473.179	1	31
473.349	1	32
473.520	1	32
473.690	1	25
473.860	1	30
474.031	1	34
474.201	1	21
474.371	1	42
474.542	1	28
474.712	1	35
474.882	1	32
475.053	1	24
475.223	1	43
475.394	1	31
475.564	1	43
475.734	1	27
475.905	1	31
476.075	1	33
476.245	1	15
476.416	1	41
476.586	1	43
476.756	1	22
476.927	1	30
477.097	1	30
477.267	1	34
477.438	1	32
477.608	1	25
477.778	1	27
477.949	1	29
478.119	1	48
478.289	1	29
478.460	1	35
478.630	1	21
478.800	1	39
478.971	1	29
479.141	1	32
479.311	1	32
479.482	1	33
479.652	1	30
479.822	1	36
479.993	1	27
480.163	1	30
480.333	1	34
480.504	1	33
480.674	1	17
480.844	1	37
481.015	1	36
481.185	1	35
481.355	1	26
481.525	1	31
481.696	1	42
481.866	1	37
482.036	1	28
482.207	1	34
482.377	1	28
482.547	1	30
482.718	1	34
482.888	1	36
483.058	1	28
483.229	1	33
483.399	1	36
483.569	1	26
483.740	1	30
483.910	1	26
484.080	1	34
484.250	1	33
484.421	1	29
484.591	1	45
484.761	1	25
484.932	1	27
485.102	1	32
485.272	1	30
485.443	1	33
485.613	1	33
485.783	1	23
485.953	1	36
486.124	1	22
486.294	1	30
486.464	1	28
486.635	1	25
486.805	1	29
486.975	1	29
487.146	1	35
487.316	1	33
487.486	1	31
487.656	1	34
487.827	1	27
487.997	1	30
488.167	1	27
488.338	1	37
488.508	1	32
488.678	1	24
488.848	1	35
489.019	1	33
489.189	1	22
489.359	1	26
489.529	1	30
489.700	1	10
489.870	1	29
490.040	1	28
490.211	1	34
490.381	1	34
490.551	1	27
490.721	1	29
490.892	1	13
491.062	1	30
491.232	1	32
491.402	1	26
491.573	1	26
491.743	1	35
491.913	1	29
492.084	1	19
492.254	1	25
492.424	1	37
492.594	1	23
492.765	1	16
492.935	1	27
493.105	1	36
493.275	1	22
493.446	1	29
493.616	1	29
493.786	1	17
493.956	1	38
494.127	1	30
494.297	1	18
494.467	1	31
494.637	1	30
494.808	1	29
494.978	1	27
495.148	1	21
495.318	1	27
495.489	1	21
495.659	1	25
495.829	1	25
495.999	1	35
496.170	1	21
496.340	1	19
496.510	1	26
496.680	1	31
496.851	1	21
497.021	1	32
497.191	1	30
497.361	1	23
497.532	1	29
497.702	1	18
497.872	1	11
498.042	1	26
498.213	1	28
498.383	1	31
498.553	1	22
498.723	1	17
498.894	1	24
499.064	1	10
499.234	1	27
499.404	1	9
499.574	1	17
499.745	1	24
499.915	1	35
500.085	1	19
500.255	1	22
500.426	1	16
500.596	1	19
500.766	1	26
500.936	1	29
501.106	1	20
501.277	1	23
501.447	1	25
501.617	1	25
501.787	1	31
501.958	1	8
502.128	1	22
502.298	1	21
502.468	1	20
502.638	1	14
502.809	1	24
502.979	1	23
503.149	1	22
503.319	1	23
503.489	1	18
503.660	1	15
503.830	1	8
504.000	1	15
504.170	1	18
504.340	1	27
504.511	1	16
504.681	1	22
504.851	1	29
505.021	1	18
505.192	1	11
505.362	1	33
505.532	1	16
505.702	1	21
505.872	1	28
506.043	1	22
506.213	1	19
506.383	1	22
506.553	1	22
506.723	1	22
506.893	1	17
507.064	1	7
507.234	1	21
507.404	1	21
507.574	1	15
507.744	1	21
507.915	1	28
508.085	1	18
508.255	1	2
508.425	1	23
508.595	1	17
508.766	1	16
508.936	1	24
509.106	1	17
509.276	1	19
509.446	1	23
509.616	1	20
509.787	1	14
509.957	1	25
510.127	1	21
510.297	1	23
510.467	1	16
510.638	1	23
510.808	1	16
510.978	1	15
511.148	1	20
511.318	1	17
511.488	1	22
511.659	1	7
511.829	1	12
511.999	1	31
512.169	1	24
512.339	1	10
512.509	1	16
512.680	1	13
512.850	1	12
513.020	1	15
513.190	1	17
513.360	1	20
513.530	1	13
513.700	1	21
513.871	1	25
514.041	1	15
514.211	1	30
514.381	1	12
514.551	1	17
514.721	1	19
514.892	1	15
515.062	1	23
515.232	1	13
515.402	1	17
515.572	1	23
515.742	1	12
515.912	1	13
516.083	1	14
516.253	1	8
516.423	1	13
516.593	1	15
516.763	1	4
516.933	1	14
517.104	1	7
517.274	1	20
517.444	1	11
517.614	1	5
517.784	1	23
517.954	1	15
518.124	1	19
518.294	1	7
518.465	1	11
518.635	1	18
518.805	1	9
518.975	1	15
519.145	1	16
519.315	1	18
519.485	1	21
519.656	1	13
519.826	1	24
519.996	1	19
520.166	1	11
520.336	1	4
520.506	1	14
520.676	1	10
520.846	1	22
521.017	1	10
521.187	1	18
521.357	1	13
521.527	1	9
521.697	1	14
521.867	1	9
522.037	1	25
522.207	1	19
522.377	1	13
522.548	1	20
522.718	1	13
522.888	1	14
523.058	1	23
523.228	1	20
523.398	1	20
523.568	1	11
523.738	1	18
523.909	1	14
524.079	1	18
524.249	1	17
524.419	1	12
524.589	1	10
524.759	1	10
524.929	1	4
525.099	1	21
525.269	1	9
525.439	1	3
525.610	1	2
525.780	1	7
525.950	1	18
526.120	1	11
526.290	1	16
526.460	1	17
526.630	1	7
526.800	1	0
526.970	1	13
527.140	1	8
527.311	1	16
527.481	1	15
527.651	1	15
527.821	1	4
527.991	1	15
528.161	1	10
528.331	1	8
528.501	1	16
528.671	1	10
528.841	1	11
529.011	1	6
529.181	1	12
529.352	1	7
529.522	1	9
529.692	1	10
529.862	1	16
530.032	1	20
530.202	1	4
530.372	1	9
530.542	1	9
530.712	1	9
530.882	1	8
531.052	1	19
531.222	1	13
531.392	1	13
531.563	1	10
531.733	1	24
531.903	1	8
532.073	1	15
532.243	1	15
532.413	1	14
532.583	1	5
532.753	1	18
532.923	1	11
533.093	1	7
533.263	1	17
533.433	1	15
533.603	1	16
533.773	1	6
533.943	1	3
534.113	1	10
534.284	1	6
534.454	1	12
534.624	1	11
534.794	1	10
534.964	1	12
535.134	1	18
535.304	1	4
535.474	1	12
535.644	1	12
535.814	1	3
535.984	1	24
536.154	1	16
536.324	1	11
536.494	1	17
536.664	1	25
536.834	1	8
537.004	1	16
537.174	1	4
537.344	1	21
537.514	1	5
537.685	1	18
537.855	1	11
538.025	1	3
538.195	1	13
538.365	1	13
538.535	1	10
538.705	1	7
538.875	1	8
539.045	1	10
539.215	1	21
539.385	1	21
539.555	1	6
539.725	1	5
539.895	1	16
540.065	1	6
540.235	1	14
540.405	1	13
540.575	1	10
540.745	1	17
540.915	1	2
541.085	1	10
541.255	1	19
541.425	1	3
541.595	1	1
541.765	1	7
541.935	1	20
542.105	1	4
542.275	1	8
542.445	1	2
542.615	1	13
542.785	1	13
542.955	1	21
543.125	1	18
543.295	1	12
543.465	1	8
543.635	1	12
543.805	1	3
543.975	1	6
544.145	1	7
544.315	1	22
544.485	1	2
544.655	1	13
544.825	1	13
544.995	1	6
545.165	1	17
545.335	1	6
545.505	1	7
545.675	1	13
545.845	1	17
546.015	1	11
546.185	1	16
546.355	1	15
546.525	1	14
546.695	1	27
546.865	1	13
547.035	1	6
547.205	1	8
547.375	1	22
547.545	1	5
547.715	1	10
547.885	1	13
548.055	1	15
548.225	1	15
548.395	1	14
548.565	1	17
548.735	1	-1
548.905	1	14
549.075	1	8
549.245	1	20
549.415	1	4
549.585	1	12
549.755	1	9
549.925	1	15
550.095	1	13
550.265	1	20
550.435	1	12
550.605	1	13
550.775	1	10
550.945	1	12
551.115	1	16
551.285	1	7
551.455	1	12
551.625	1	21
551.795	1	17
551.965	1	9
552.135	1	11
552.305	1	13
552.475	1	18
552.645	1	8
552.815	1	12
552.985	1	-10
553.155	1	3
553.325	1	4
553.495	1	7
553.665	1	21
553.835	1	13
554.004	1	13
554.174	1	6
554.344	1	8
554.514	1	4
554.684	1	-2
554.854	1	6
555.024	1	0
555.194	1	9
555.364	1	6
555.534	1	11
555.704	1	7
555.874	1	14
556.044	1	17
556.214	1	23
556.384	1	4
556.554	1	-3
556.724	1	7
556.894	1	7
557.064	1	15
557.234	1	17
557.404	1	5
557.573	1	16
557.743	1	-3
557.913	1	10
558.083	1	12
558.253	1	1
558.423	1	20
558.593	1	23
558.763	1	19
558.933	1	17
559.103	1	4
559.273	1	8
559.443	1	7
559.613	1	3
559.783	1	7
559.953	1	-4
560.122	1	2
560.292	1	6
560.462	1	0
560.632	1	14
560.802	1	7
560.972	1	10
561.142	1	-1
561.312	1	10
561.482	1	20
561.652	1	7
561.822	1	17
561.992	1	6
562.162	1	13
562.331	1	15
562.501	1	0
562.671	1	13
562.841	1	14
563.011	1	9
563.181	1	4
563.351	1	11
563.521	1	9
563.691	1	8
563.861	1	9
564.031	1	11
564.201	1	13
564.370	1	14
564.540	1	-2
564.710	1	10
564.880	1	13
565.050	1	11
565.220	1	13
565.390	1	12
565.560	1	16
565.730	1	-2
565.900	1	16
566.069	1	20
566.239	1	13
566.409	1	10
566.579	1	15
566.749	1	8
566.919	1	9
567.089	1	7
567.259	1	17
567.429	1	0
567.599	1	10
567.768	1	4
567.938	1	3
568.108	1	7
568.278	1	8
568.448	1	4
568.618	1	20
568.788	1	12
568.958	1	4
569.128	1	3
569.297	1	11
569.467	1	11
569.637	1	19
569.807	1	12
569.977	1	13
570.147	1	8
570.317	1	10
570.487	1	1
570.656	1	11
570.826	1	12
570.996	1	8
571.166	1	13
571.336	1	18
571.506	1	13
571.676	1	9
571.846	1	5
572.015	1	1
572.185	1	4
572.355	1	19
572.525	1	3
572.695	1	14
572.865	1	6
573.035	1	18
573.205	1	7
573.374	1	10
573.544	1	12
573.714	1	12
573.884	1	-4
574.054	1	7
574.224	1	13
574.394	1	4
574.563	1	9
574.733	1	14
574.903	1	9
575.073	1	3
575.243	1	8
575.413	1	13
575.583	1	15
575.752	1	8
575.922	1	9
576.092	1	-1
576.262	1	1
576.432	1	11
576.602	1	5
576.772	1	8
576.941	1	3
577.111	1	17
577.281	1	3
577.451	1	6
577.621	1	-1
577.791	1	13
577.960	1	8
578.130	1	2
578.300	1	14
578.470	1	12
578.640	1	-1
578.810	1	1
578.979	1	14
579.149	1	8
579.319	1	10
579.489	1	8
579.659	1	10
579.829	1	14
579.998	1	14
580.168	1	4
580.338	1	9
580.508	1	11
580.678	1	6
580.848	1	2
581.017	1	3
581.187	1	4
581.357	1	8
581.527	1	6
581.697	1	2
581.867	1	14
582.036	1	17
582.206	1	2
582.376	1	14
582.546	1	3
582.716	1	0
582.885	1	10
583.055	1	7
583.225	1	14
583.395	1	1
583.565	1	9
583.735	1	15
583.904	1	15
584.074	1	14
584.244	1	18
584.414	1	14
584.584	1	9
584.753	1	1
584.923	1	12
585.093	1	3
585.263	1	5
585.433	1	5
585.602	1	3
585.772	1	7
585.942	1	9
586.112	1	8
586.282	1	4
586.451	1	1
586.621	1	3
586.791	1	19
586.961	1	5
587.131	1	11
587.300	1	5
587.470	1	14
587.640	1	15
587.810	1	7
587.980	1	9
588.149	1	0
588.319	1	16
588.489	1	2
588.659	1	20
588.829	1	7
588.998	1	13
589.168	1	17
589.338	1	8
589.508	1	6
589.677	1	0
589.847	1	11
590.017	1	16
590.187	1	8
590.357	1	5
590.526	1	5
590.696	1	2
590.866	1	12
591.036	1	13
591.205	1	12
591.375	1	-1
591.545	1	16
591.715	1	-1
591.885	1	13
592.054	1	-7
592.224	1	23
592.394	1	0
592.564	1	15
592.733	1	25
592.903	1	4
593.073	1	-3
593.243	1	9
593.412	1	15
593.582	1	2
593.752	1	-5
593.922	1	-4
594.091	1	7
594.261	1	17
594.431	1	17
594.601	1	4
594.771	1	1
594.940	1	-1
595.110	1	2
595.280	1	11
595.450	1	7
595.619	1	10
595.789	1	3
595.959	1	9
596.129	1	13
596.298	1	30
596.468	1	13
596.638	1	1
596.808	1	1
596.977	1	16
597.147	1	4
597.317	1	4
597.487	1	5
597.656	1	11
597.826	1	3
597.996	1	12
598.166	1	11
598.335	1	4
598.505	1	6
598.675	1	2
598.844	1	0
599.014	1	4
599.184	1	12
599.354	1	15
599.523	1	-7
599.693	1	2
599.863	1	12
600.033	1	6
600.202	1	9
600.372	1	8
600.542	1	0
600.712	1	8
600.881	1	9
601.051	1	7
601.221	1	10
601.390	1	7
601.560	1	11
601.730	1	4
601.900	1	10
602.069	1	14
602.239	1	23
602.409	1	12
602.578	1	10
602.748	1	12
602.918	1	3
603.088	1	6
603.257	1	19
603.427	1	9
603.597	1	13
603.767	1	5
603.936	1	-13
604.106	1	7
604.276	1	16
604.445	1	11
604.615	1	5
604.785	1	13
604.954	1	4
605.124	1	10
605.294	1	10
605.464	1	10
605.633	1	8
605.803	1	14
605.973	1	9
606.142	1	12
606.312	1	10
606.482	1	10
606.652	1	5
606.821	1	6
606.991	1	20
607.161	1	11
607.330	1	4
607.500	1	4
607.670	1	10
607.839	1	20
608.009	1	7
608.179	1	4
608.348	1	4
608.518	1	4
608.688	1	18
608.858	1	9
609.027	1	18
609.197	1	6
609.367	1	-3
609.536	1	16
609.706	1	3
609.876	1	10
610.045	1	12
610.215	1	14
610.385	1	11
610.554	1	3
610.724	1	14
610.894	1	12
611.063	1	10
611.233	1	14
611.403	1	14
611.572	1	10
611.742	1	3
611.912	1	13
612.081	1	5
612.251	1	14
612.421	1	4
612.590	1	8
612.760	1	13
612.930	1	6
613.099	1	16
613.269	1	10
613.439	1	16
613.608	1	7
613.778	1	6
613.948	1	10
614.117	1	11
614.287	1	19
614.457	1	9
614.626	1	10
614.796	1	8
614.966	1	10
615.135	1	14
615.305	1	13
615.475	1	14
615.644	1	15
615.814	1	8
615.984	1	21
616.153	1	4
616.323	1	20
616.493	1	13
616.662	1	6
616.832	1	13
617.002	1	11
617.171	1	16
617.341	1	5
617.511	1	0
617.680	1	20
617.850	1	7
618.019	1	15
618.189	1	7
618.359	1	8
618.528	1	14
618.698	1	7
618.868	1	7
619.037	1	13
619.207	1	11
619.377	1	11
619.546	1	3
619.716	1	2
619.885	1	7
620.055	1	5
620.225	1	18
620.394	1	12
620.564	1	8
620.734	1	11
620.903	1	8
621.073	1	9
621.242	1	16
621.412	1	4
621.582	1	15
621.751	1	18
621.921	1	9
622.091	1	7
622.260	1	11
622.430	1	4
622.599	1	18
622.769	1	13
622.939	1	8
623.108	1	7
623.278	1	6
623.448	1	9
623.617	1	2
623.787	1	9
623.956	1	13
624.126	1	7
624.296	1	5
624.465	1	4
624.635	1	14
624.804	1	11
624.974	1	16
625.144	1	4
625.313	1	9
625.483	1	13
625.652	1	6
625.822	1	22
625.992	1	14
626.161	1	15
626.331	1	14
626.501	1	28
626.670	1	0
626.840	1	8
627.009	1	17
627.179	1	15
627.348	1	13
627.518	1	13
627.688	1	3
627.857	1	11
628.027	1	6
628.196	1	10
628.366	1	4
628.536	1	12
628.705	1	10
628.875	1	10
629.044	1	9
629.214	1	9
629.384	1	14
629.553	1	16
629.723	1	7
629.892	1	22
630.062	1	7
630.232	1	9
630.401	1	12
630.571	1	12
630.740	1	6
630.910	1	23
631.079	1	12
631.249	1	13
631.419	1	2
631.588	1	13
631.758	1	10
631.927	1	7
632.097	1	5
632.266	1	18
632.436	1	15
632.606	1	16
632.775	1	18
632.945	1	12
633.114	1	6
633.284	1	15
633.453	1	6
633.623	1	11
633.793	1	21
633.962	1	15
634.132	1	16
634.301	1	7
634.471	1	7
634.640	1	10
634.810	1	13
634.979	1	27
635.149	1	23
635.319	1	3
635.488	1	9
635.658	1	16
635.827	1	5
635.997	1	5
636.166	1	14
636.336	1	11
636.505	1	15
636.675	1	-1
636.845	1	1
637.014	1	19
637.184	1	18
637.353	1	12
637.523	1	13
637.692	1	14
637.862	1	13
638.031	1	18
638.201	1	17
638.370	1	18
638.540	1	19
638.710	1	9
638.879	1	17
639.049	1	16
639.218	1	9
639.388	1	8
639.557	1	23
639.727	1	8
639.896	1	17
640.066	1	18
640.235	1	14
640.405	1	17
640.574	1	15
640.744	1	14
640.914	1	10
641.083	1	9
641.253	1	8
641.422	1	3
641.592	1	15
641.761	1	17
641.931	1	25
642.100	1	16
642.270	1	8
642.439	1	13
642.609	1	13
642.778	1	5
642.948	1	20
643.117	1	7
643.287	1	9
643.456	1	22
643.626	1	8
643.795	1	6
643.965	1	14
644.134	1	6
644.304	1	14
644.473	1	12
644.643	1	2
644.812	1	11
644.982	1	12
645.151	1	2
645.321	1	11
645.490	1	23
645.660	1	4
645.829	1	2
645.999	1	9
646.168	1	14
646.338	1	8
646.507	1	4
646.677	1	9
646.846	1	8
647.016	1	5
647.185	1	5
647.355	1	7
647.524	1	15
647.694	1	19
647.863	1	13
648.033	1	13
648.202	1	11
648.372	1	9
648.541	1	11
648.711	1	15
648.880	1	11
649.050	1	9
649.219	1	18
649.389	1	4
649.558	1	20
649.728	1	8
649.897	1	12
650.067	1	4
650.236	1	12
650.406	1	14
650.575	1	9
650.745	1	10
650.914	1	23
651.084	1	12
651.253	1	11
651.423	1	27
651.592	1	11
651.762	1	16
651.931	1	9
652.101	1	-2
652.270	1	13
652.440	1	2
652.609	1	16
652.778	1	9
652.948	1	13
653.117	1	15
653.287	1	12
653.456	1	12
653.626	1	18
653.795	1	8
653.965	1	15
654.134	1	4
654.304	1	14
654.473	1	20
654.643	1	10
654.812	1	10
654.982	1	8
655.151	1	2
655.320	1	15
655.490	1	-1
655.659	1	13
655.829	1	15
655.998	1	18
656.168	1	9
656.337	1	5
656.507	1	7
656.676	1	10
656.846	1	11
657.015	1	16
657.184	1	15
657.354	1	9
657.523	1	2
657.693	1	11
657.862	1	9
658.032	1	15
658.201	1	13
658.371	1	10
658.540	1	2
658.709	1	13
658.879	1	4
659.048	1	15
659.218	1	14
659.387	1	13
659.557	1	-3
659.726	1	23
659.895	1	1
660.065	1	20
660.234	1	4
660.404	1	10
660.573	1	11
660.743	1	3
660.912	1	13
661.081	1	13
661.251	1	23
661.420	1	14
661.590	1	13
661.759	1	11
661.929	1	4
662.098	1	11
662.267	1	9
662.437	1	6
662.606	1	13
662.776	1	10
662.945	1	15
663.115	1	6
663.284	1	9
663.453	1	10
663.623	1	4
663.792	1	9
663.962	1	13
664.131	1	14
664.300	1	3
664.470	1	11
664.639	1	27
664.809	1	12
664.978	1	-4
665.148	1	22
665.317	1	15
665.486	1	4
665.656	1	21
665.825	1	14
665.995	1	11
666.164	1	14
666.333	1	9
666.503	1	10
666.672	1	8
666.842	1	4
667.011	1	14
667.180	1	9
667.350	1	16
667.519	1	9
667.689	1	11
667.858	1	7
668.027	1	9
668.197	1	9
668.366	1	13
668.536	1	8
668.705	1	13
668.874	1	7
669.044	1	4
669.213	1	7
669.382	1	14
669.552	1	7
669.721	1	6
669.891	1	15
670.060	1	10
670.229	1	14
670.399	1	14
670.568	1	-2
670.738	1	12
670.907	1	17
671.076	1	18
671.246	1	7
671.415	1	19
671.584	1	17
671.754	1	14
671.923	1	15
672.093	1	11
672.262	1	0
672.431	1	19
672.601	1	12
672.770	1	13
672.939	1	3
673.109	1	8
673.278	1	6
673.448	1	13
673.617	1	11
673.786	1	10
