325.333	1	14
325.504	1	-4
325.675	1	11
325.846	1	1
326.017	1	8
326.188	1	10
326.359	1	11
326.531	1	9
326.702	1	8
326.873	1	9
327.044	1	5
327.215	1	6
327.386	1	3
327.557	1	12
327.728	1	8
327.899	1	7
328.070	1	10
328.241	1	-3
328.412	1	3
328.583	1	10
328.754	1	1
328.926	1	6
329.097	1	6
329.268	1	19
329.439	1	7
329.610	1	12
329.781	1	13
329.952	1	-1
330.123	1	11
330.294	1	13
330.465	1	7
330.636	1	16
330.807	1	16
330.978	1	14
331.149	1	-4
331.320	1	18
331.492	1	11
331.663	1	7
331.834	1	7
332.005	1	3
332.176	1	13
332.347	1	11
332.518	1	4
332.689	1	11
332.860	1	8
333.031	1	-2
333.202	1	-1
333.373	1	10
333.544	1	13
333.715	1	6
333.886	1	8
334.057	1	25
334.228	1	5
334.399	1	-2
334.570	1	7
334.741	1	7
334.912	1	1
335.084	1	9
335.255	1	0
335.426	1	12
335.597	1	12
335.768	1	8
335.939	1	5
336.110	1	14
336.281	1	11
336.452	1	9
336.623	1	6
336.794	1	9
336.965	1	9
337.136	1	5
337.307	1	11
337.478	1	-2
337.649	1	17
337.820	1	8
337.991	1	9
338.162	1	13
338.333	1	16
338.504	1	11
338.675	1	15
338.846	1	9
339.017	1	1
339.188	1	11
339.359	1	18
339.530	1	10
339.701	1	21
339.872	1	5
340.043	1	18
340.214	1	9
340.385	1	2
340.556	1	22
340.727	1	25
340.898	1	22
341.069	1	4
341.240	1	7
341.411	1	18
341.582	1	9
341.753	1	24
341.924	1	11
342.095	1	9
342.266	1	9
342.437	1	20
342.608	1	8
342.779	1	10
342.950	1	7
343.121	1	11
343.292	1	15
343.463	1	5
343.634	1	-3
343.805	1	9
343.976	1	11
344.147	1	9
344.318	1	15
344.489	1	9
344.660	1	13
344.831	1	6
345.002	1	22
345.173	1	10
345.344	1	4
345.515	1	1
345.686	1	9
345.857	1	9
346.028	1	12
346.199	1	16
346.370	1	28
346.541	1	15
346.712	1	-2
346.883	1	12
347.054	1	12
347.225	1	15
347.396	1	6
347.567	1	12
347.738	1	14
347.909	1	8
348.080	1	1
348.251	1	15
348.422	1	13
348.593	1	-2
348.764	1	21
348.935	1	9
349.106	1	5
349.277	1	20
349.448	1	13
349.619	1	12
349.790	1	22
349.961	1	11
350.132	1	10
350.303	1	14
350.474	1	14
350.645	1	14
350.816	1	11
350.987	1	-4
351.157	1	14
351.328	1	12
351.499	1	23
351.670	1	11
351.841	1	13
352.012	1	16
352.183	1	4
352.354	1	21
352.525	1	10
352.696	1	14
352.867	1	12
353.038	1	15
353.209	1	14
353.380	1	11
353.551	1	3
353.722	1	-6
353.893	1	3
354.064	1	17
354.235	1	23
354.406	1	14
354.576	1	6
354.747	1	8
354.918	1	23
355.089	1	13
355.260	1	16
355.431	1	6
355.602	1	15
355.773	1	6
355.944	1	20
356.115	1	12
356.286	1	8
356.457	1	22
356.628	1	10
356.799	1	15
356.970	1	5
357.141	1	15
357.311	1	8
357.482	1	11
357.653	1	15
357.824	1	14
357.995	1	12
358.166	1	15
358.337	1	25
358.508	1	7
358.679	1	5
358.850	1	16
359.021	1	8
359.192	1	8
359.363	1	8
359.533	1	8
359.704	1	12
359.875	1	3
360.046	1	10
360.217	1	20
360.388	1	5
360.559	1	28
360.730	1	17
360.901	1	7
361.072	1	25
361.243	1	22
361.414	1	16
361.584	1	14
361.755	1	16
361.926	1	8
362.097	1	10
362.268	1	16
362.439	1	19
362.610	1	15
362.781	1	16
362.952	1	8
363.123	1	13
363.293	1	15
363.464	1	17
363.635	1	16
363.806	1	25
363.977	1	29
364.148	1	16
364.319	1	6
364.490	1	15
364.661	1	5
364.832	1	19
365.002	1	15
365.173	1	14
365.344	1	9
365.515	1	11
365.686	1	13
365.857	1	12
366.028	1	19
366.199	1	18
366.370	1	6
366.540	1	11
366.711	1	14
366.882	1	24
367.053	1	17
367.224	1	13
367.395	1	15
367.566	1	15
367.737	1	17
367.908	1	16
368.078	1	12
368.249	1	4
368.420	1	19
368.591	1	15
368.762	1	24
368.933	1	15
369.104	1	16
369.274	1	9
369.445	1	20
369.616	1	22
369.787	1	18
369.958	1	21
370.129	1	23
370.300	1	19
370.471	1	14
370.641	1	19
370.812	1	11
370.983	1	16
371.154	1	18
371.325	1	20
371.496	1	20
371.667	1	15
371.837	1	17
372.008	1	14
372.179	1	16
372.350	1	6
372.521	1	3
372.692	1	15
372.863	1	27
373.033	1	18
373.204	1	14
373.375	1	25
373.546	1	4
373.717	1	15
373.888	1	24
374.059	1	23
374.229	1	10
374.400	1	15
374.571	1	20
374.742	1	24
374.913	1	4
375.084	1	11
375.254	1	16
375.425	1	25
375.596	1	19
375.767	1	27
375.938	1	4
376.109	1	10
376.279	1	4
376.450	1	17
376.621	1	12
376.792	1	24
376.963	1	20
377.134	1	13
377.304	1	18
377.475	1	25
377.646	1	19
377.817	1	23
377.988	1	14
378.159	1	16
378.329	1	20
378.500	1	11
378.671	1	23
378.842	1	21
379.013	1	25
379.184	1	19
379.354	1	22
379.525	1	22
379.696	1	12
379.867	1	16
380.038	1	27
380.209	1	13
380.379	1	16
380.550	1	16
380.721	1	22
380.892	1	20
381.063	1	17
381.233	1	17
381.404	1	21
381.575	1	25
381.746	1	14
381.917	1	21
382.087	1	22
382.258	1	23
382.429	1	29
382.600	1	16
382.771	1	16
382.941	1	30
383.112	1	14
383.283	1	11
383.454	1	22
383.625	1	17
383.795	1	32
383.966	1	23
384.137	1	20
384.308	1	31
384.479	1	17
384.649	1	11
384.820	1	17
384.991	1	34
385.162	1	20
385.333	1	11
385.503	1	12
385.674	1	14
385.845	1	16
386.016	1	34
386.187	1	19
386.357	1	11
386.528	1	29
386.699	1	21
386.870	1	19
387.041	1	28
387.211	1	25
387.382	1	11
387.553	1	14
387.724	1	11
387.894	1	14
388.065	1	27
388.236	1	24
388.407	1	21
388.578	1	23
388.748	1	19
388.919	1	18
389.090	1	26
389.261	1	24
389.431	1	23
389.602	1	33
389.773	1	23
389.944	1	18
390.114	1	23
390.285	1	35
390.456	1	23
390.627	1	31
390.798	1	27
390.968	1	28
391.139	1	11
391.310	1	19
391.481	1	12
391.651	1	22
391.822	1	15
391.993	1	8
392.164	1	18
392.334	1	18
392.505	1	16
392.676	1	18
392.847	1	19
393.017	1	20
393.188	1	19
393.359	1	24
393.530	1	19
393.700	1	24
393.871	1	18
394.042	1	33
394.213	1	19
394.383	1	20
394.554	1	14
394.725	1	22
394.896	1	9
395.066	1	26
395.237	1	20
395.408	1	20
395.579	1	19
395.749	1	31
395.920	1	16
396.091	1	14
396.262	1	23
396.432	1	18
396.603	1	21
396.774	1	23
396.945	1	20
397.115	1	24
397.286	1	9
397.457	1	31
397.627	1	18
397.798	1	22
397.969	1	25
398.140	1	20
398.310	1	26
398.481	1	18
398.652	1	9
398.823	1	19
398.993	1	26
399.164	1	25
399.335	1	30
399.505	1	26
399.676	1	21
399.847	1	24
400.018	1	25
400.188	1	30
400.359	1	16
400.530	1	39
400.700	1	33
400.871	1	21
401.042	1	23
401.213	1	29
401.383	1	20
401.554	1	30
401.725	1	30
401.895	1	20
402.066	1	30
402.237	1	41
402.408	1	33
402.578	1	19
402.749	1	28
402.920	1	21
403.090	1	17
403.261	1	26
403.432	1	27
403.603	1	19
403.773	1	28
403.944	1	29
404.115	1	27
404.285	1	21
404.456	1	28
404.627	1	28
404.797	1	14
404.968	1	31
405.139	1	19
405.310	1	20
405.480	1	26
405.651	1	16
405.822	1	20
405.992	1	39
406.163	1	21
406.334	1	31
406.504	1	31
406.675	1	24
406.846	1	35
407.016	1	33
407.187	1	30
407.358	1	25
407.528	1	31
407.699	1	30
407.870	1	29
408.041	1	37
408.211	1	39
408.382	1	23
408.553	1	29
408.723	1	37
408.894	1	25
409.065	1	33
409.235	1	17
409.406	1	28
409.577	1	24
409.747	1	25
409.918	1	35
410.089	1	30
410.259	1	28
410.430	1	29
410.601	1	34
410.771	1	33
410.942	1	23
411.113	1	28
411.283	1	23
411.454	1	42
411.625	1	31
411.795	1	35
411.966	1	27
412.137	1	38
412.307	1	11
412.478	1	38
412.649	1	45
412.819	1	16
412.990	1	32
413.161	1	33
413.331	1	26
413.502	1	33
413.672	1	24
413.843	1	31
414.014	1	26
414.184	1	42
414.355	1	32
414.526	1	39
414.696	1	22
414.867	1	35
415.038	1	21
415.208	1	6
415.379	1	24
415.550	1	24
415.720	1	20
415.891	1	25
416.062	1	26
416.232	1	27
416.403	1	21
416.573	1	25
416.744	1	22
416.915	1	29
417.085	1	17
417.256	1	20
417.427	1	34
417.597	1	39
417.768	1	32
417.939	1	26
418.109	1	36
418.280	1	27
418.450	1	37
418.621	1	27
418.792	1	33
418.962	1	32
419.133	1	35
419.304	1	35
419.474	1	20
419.645	1	30
419.815	1	37
419.986	1	24
420.157	1	33
420.327	1	32
420.498	1	25
420.669	1	27
420.839	1	18
421.010	1	29
421.180	1	27
421.351	1	16
421.522	1	31
421.692	1	27
421.863	1	17
422.033	1	34
422.204	1	36
422.375	1	36
422.545	1	45
422.716	1	31
422.886	1	31
423.057	1	41
423.228	1	28
423.398	1	37
423.569	1	29
423.740	1	29
423.910	1	37
424.081	1	19
424.251	1	30
424.422	1	30
424.593	1	21
424.763	1	40
424.934	1	41
425.104	1	35
425.275	1	32
425.445	1	29
425.616	1	16
425.787	1	34
425.957	1	36
426.128	1	30
426.298	1	24
426.469	1	35
426.640	1	20
426.810	1	34
426.981	1	26
427.151	1	39
427.322	1	34
427.493	1	40
427.663	1	35
427.834	1	22
428.004	1	36
428.175	1	19
428.345	1	29
428.516	1	42
428.687	1	33
428.857	1	27
429.028	1	29
429.198	1	26
429.369	1	26
429.540	1	23
429.710	1	33
429.881	1	32
430.051	1	19
430.222	1	35
430.392	1	31
430.563	1	21
430.734	1	38
430.904	1	30
431.075	1	27
431.245	1	22
431.416	1	24
431.586	1	30
431.757	1	22
431.927	1	30
432.098	1	26
432.269	1	23
432.439	1	32
432.610	1	31
432.780	1	20
432.951	1	23
433.121	1	23
433.292	1	26
433.462	1	38
433.633	1	31
433.804	1	38
433.974	1	37
434.145	1	34
434.315	1	29
434.486	1	39
434.656	1	32
434.827	1	33
434.997	1	32
435.168	1	31
435.339	1	35
435.509	1	40
435.680	1	28
435.850	1	24
436.021	1	33
436.191	1	34
436.362	1	45
436.532	1	27
436.703	1	39
436.873	1	44
437.044	1	33
437.214	1	32
437.385	1	35
437.556	1	35
437.726	1	21
437.897	1	22
438.067	1	21
438.238	1	42
438.408	1	36
438.579	1	22
438.749	1	30
438.920	1	42
439.090	1	39
439.261	1	24
439.431	1	41
439.602	1	27
439.772	1	26
439.943	1	31
440.113	1	38
440.284	1	35
440.455	1	24
440.625	1	30
440.796	1	37
440.966	1	39
441.137	1	29
441.307	1	40
441.478	1	31
441.648	1	26
441.819	1	21
441.989	1	27
442.160	1	31
442.330	1	28
442.501	1	28
442.671	1	36
442.842	1	29
443.012	1	37
443.183	1	36
443.353	1	34
443.524	1	25
443.694	1	20
443.865	1	25
444.035	1	33
444.206	1	30
444.376	1	31
444.547	1	27
444.717	1	32
444.888	1	32
445.058	1	35
445.229	1	33
445.399	1	32
445.570	1	27
445.740	1	42
445.911	1	33
446.081	1	22
446.252	1	20
446.422	1	27
446.593	1	31
446.763	1	28
446.934	1	23
447.104	1	32
447.275	1	37
447.445	1	37
447.616	1	40
447.786	1	28
447.957	1	34
448.127	1	26
448.298	1	28
448.468	1	32
448.639	1	47
448.809	1	30
448.979	1	19
449.150	1	33
449.320	1	55
449.491	1	25
449.661	1	34
449.832	1	29
450.002	1	24
450.173	1	37
450.343	1	31
450.514	1	38
450.684	1	34
450.855	1	41
451.025	1	39
451.196	1	43
451.366	1	39
451.537	1	27
451.707	1	44
451.878	1	24
452.048	1	28
452.218	1	32
452.389	1	43
452.559	1	52
452.730	1	38
452.900	1	39
453.071	1	38
453.241	1	43
453.412	1	35
453.582	1	22
453.753	1	39
453.923	1	30
454.093	1	20
454.264	1	52
454.434	1	37
454.605	1	32
454.775	1	31
454.946	1	36
455.116	1	29
455.287	1	42
455.457	1	25
455.628	1	22
455.798	1	28
455.968	1	30
456.139	1	37
456.309	1	39
456.480	1	34
456.650	1	38
456.821	1	29
456.991	1	29
457.161	1	34
457.332	1	32
457.502	1	53
457.673	1	30
457.843	1	30
458.014	1	29
458.184	1	39
458.355	1	34
458.525	1	47
458.695	1	28
458.866	1	32
459.036	1	28
459.207	1	37
459.377	1	28
459.548	1	33
459.718	1	38
459.888	1	26
460.059	1	27
460.229	1	43
460.400	1	44
460.570	1	30
460.740	1	33
460.911	1	47
461.081	1	42
461.252	1	32
461.422	1	34
461.593	1	43
461.763	1	34
461.933	1	37
462.104	1	26
462.274	1	25
462.445	1	40
462.615	1	37
462.785	1	35
462.956	1	31
463.126	1	34
463.297	1	45
463.467	1	38
463.638	1	37
463.808	1	49
463.978	1	31
464.149	1	45
464.319	1	35
464.490	1	31
464.660	1	18
464.830	1	29
465.001	1	32
465.171	1	41
465.342	1	29
465.512	1	36
465.682	1	32
465.853	1	33
466.023	1	44
466.194	1	31
466.364	1	40
466.534	1	32
466.705	1	42
466.875	1	29
467.045	1	49
467.216	1	48
467.386	1	32
467.557	1	28
467.727	1	38
467.897	1	38
468.068	1	34
468.238	1	23
468.409	1	33
468.579	1	38
468.749	1	43
468.920	1	46
469.090	1	41
469.260	1	35
469.431	1	30
469.601	1	37
469.772	1	18
469.942	1	33
470.112	1	31
470.283	1	47
470.453	1	35
470.623	1	37
470.794	1	23
470.964	1	39
471.135	1	33
471.305	1	34
471.475	1	34
471.646	1	33
471.816	1	42
471.986	1	35
472.157	1	31
472.327	1	27
472.497	1	34
472.668	1	21
472.838	1	26
473.009	1	45
473.179	1	32
473.349	1	36
473.520	1	35
473.690	1	38
473.860	1	33
474.031	1	45
474.201	1	34
474.371	1	47
474.542	1	41
474.712	1	36
474.882	1	34
475.053	1	38
475.223	1	41
475.394	1	31
475.564	1	38
475.734	1	45
475.905	1	30
476.075	1	31
476.245	1	29
476.416	1	43
476.586	1	45
476.756	1	32
476.927	1	35
477.097	1	26
477.267	1	33
477.438	1	35
477.608	1	31
477.778	1	36
477.949	1	37
478.119	1	50
478.289	1	38
478.460	1	35
478.630	1	30
478.800	1	33
478.971	1	23
479.141	1	30
479.311	1	38
479.482	1	41
479.652	1	28
479.822	1	34
479.993	1	25
480.163	1	35
480.333	1	44
480.504	1	40
480.674	1	35
480.844	1	42
481.015	1	47
481.185	1	40
481.355	1	36
481.525	1	37
481.696	1	44
481.866	1	41
482.036	1	33
482.207	1	37
482.377	1	38
482.547	1	41
482.718	1	45
482.888	1	38
483.058	1	37
483.229	1	49
483.399	1	42
483.569	1	45
483.740	1	24
483.910	1	33
484.080	1	42
484.250	1	37
484.421	1	31
484.591	1	40
484.761	1	37
484.932	1	30
485.102	1	34
485.272	1	37
485.443	1	41
485.613	1	35
485.783	1	28
485.953	1	41
486.124	1	32
486.294	1	43
486.464	1	33
486.635	1	33
486.805	1	25
486.975	1	46
487.146	1	36
487.316	1	49
487.486	1	29
487.656	1	38
487.827	1	33
487.997	1	22
488.167	1	41
488.338	1	42
488.508	1	37
488.678	1	30
488.848	1	41
489.019	1	33
489.189	1	31
489.359	1	33
489.529	1	37
489.700	1	24
489.870	1	41
490.040	1	46
490.211	1	46
490.381	1	36
490.551	1	33
490.721	1	33
490.892	1	26
491.062	1	29
491.232	1	30
491.402	1	24
491.573	1	44
491.743	1	32
491.913	1	31
492.084	1	25
492.254	1	32
492.424	1	34
492.594	1	29
492.765	1	28
492.935	1	31
493.105	1	32
493.275	1	35
493.446	1	28
493.616	1	26
493.786	1	31
493.956	1	44
494.127	1	43
494.297	1	39
494.467	1	24
494.637	1	35
494.808	1	30
494.978	1	39
495.148	1	9
495.318	1	34
495.489	1	33
495.659	1	27
495.829	1	31
495.999	1	28
496.170	1	28
496.340	1	39
496.510	1	26
496.680	1	28
496.851	1	29
497.021	1	40
497.191	1	28
497.361	1	37
497.532	1	30
497.702	1	23
497.872	1	34
498.042	1	33
498.213	1	29
498.383	1	34
498.553	1	29
498.723	1	23
498.894	1	25
499.064	1	41
499.234	1	33
499.404	1	19
499.574	1	20
499.745	1	32
499.915	1	19
500.085	1	25
500.255	1	25
500.426	1	25
500.596	1	34
500.766	1	35
500.936	1	34
501.106	1	18
501.277	1	27
501.447	1	27
501.617	1	22
501.787	1	28
501.958	1	10
502.128	1	20
502.298	1	26
502.468	1	27
502.638	1	28
502.809	1	28
502.979	1	25
503.149	1	27
503.319	1	24
503.489	1	38
503.660	1	23
503.830	1	23
504.000	1	25
504.170	1	27
504.340	1	42
504.511	1	24
504.681	1	31
504.851	1	34
505.021	1	29
505.192	1	29
505.362	1	32
505.532	1	22
505.702	1	32
505.872	1	27
506.043	1	29
506.213	1	27
506.383	1	28
506.553	1	29
506.723	1	21
506.893	1	32
507.064	1	24
507.234	1	25
507.404	1	34
507.574	1	16
507.744	1	26
507.915	1	23
508.085	1	27
508.255	1	24
508.425	1	25
508.595	1	21
508.766	1	28
508.936	1	34
509.106	1	11
509.276	1	28
509.446	1	20
509.616	1	22
509.787	1	15
509.957	1	33
510.127	1	14
510.297	1	29
510.467	1	29
510.638	1	25
510.808	1	30
510.978	1	27
511.148	1	24
511.318	1	22
511.488	1	25
511.659	1	21
511.829	1	16
511.999	1	29
512.169	1	27
512.339	1	15
512.509	1	18
512.680	1	21
512.850	1	19
513.020	1	23
513.190	1	14
513.360	1	32
513.530	1	16
513.700	1	30
513.871	1	28
514.041	1	24
514.211	1	42
514.381	1	16
514.551	1	25
514.721	1	31
514.892	1	10
515.062	1	27
515.232	1	17
515.402	1	19
515.572	1	36
515.742	1	6
515.912	1	28
516.083	1	26
516.253	1	19
516.423	1	19
516.593	1	18
516.763	1	25
516.933	1	16
517.104	1	13
517.274	1	33
517.444	1	9
517.614	1	14
517.784	1	24
517.954	1	19
518.124	1	24
518.294	1	22
518.465	1	5
518.635	1	26
518.805	1	17
518.975	1	31
519.145	1	24
519.315	1	14
519.485	1	25
519.656	1	21
519.826	1	21
519.996	1	24
520.166	1	18
520.336	1	12
520.506	1	22
520.676	1	5
520.846	1	26
521.017	1	25
521.187	1	18
521.357	1	15
521.527	1	22
521.697	1	20
521.867	1	11
522.037	1	31
522.207	1	11
522.377	1	11
522.548	1	18
522.718	1	12
522.888	1	9
523.058	1	22
523.228	1	16
523.398	1	23
523.568	1	8
523.738	1	17
523.909	1	17
524.079	1	29
524.249	1	23
524.419	1	18
524.589	1	7
524.759	1	20
524.929	1	9
525.099	1	25
525.269	1	8
525.439	1	15
525.610	1	13
525.780	1	8
525.950	1	18
526.120	1	21
526.290	1	22
526.460	1	22
526.630	1	20
526.800	1	14
526.970	1	10
527.140	1	16
527.311	1	18
527.481	1	11
527.651	1	12
527.821	1	3
527.991	1	16
528.161	1	15
528.331	1	9
528.501	1	12
528.671	1	10
528.841	1	24
529.011	1	14
529.181	1	13
529.352	1	12
529.522	1	21
529.692	1	22
529.862	1	10
530.032	1	16
530.202	1	6
530.372	1	18
530.542	1	22
530.712	1	19
530.882	1	4
531.052	1	26
531.222	1	10
531.392	1	12
531.563	1	20
531.733	1	15
531.903	1	15
532.073	1	16
532.243	1	23
532.413	1	25
532.583	1	12
532.753	1	13
532.923	1	8
533.093	1	13
533.263	1	20
533.433	1	13
533.603	1	30
533.773	1	22
533.943	1	10
534.113	1	11
534.284	1	18
534.454	1	17
534.624	1	24
534.794	1	18
534.964	1	6
535.134	1	1
535.304	1	10
535.474	1	14
535.644	1	11
535.814	1	8
535.984	1	18
536.154	1	8
536.324	1	16
536.494	1	15
536.664	1	20
536.834	1	13
537.004	1	12
537.174	1	-2
537.344	1	19
537.514	1	12
537.685	1	21
537.855	1	16
538.025	1	-1
538.195	1	13
538.365	1	18
538.535	1	7
538.705	1	22
538.875	1	7
539.045	1	5
539.215	1	24
539.385	1	25
539.555	1	16
539.725	1	6
539.895	1	20
540.065	1	17
540.235	1	19
540.405	1	12
540.575	1	13
540.745	1	10
540.915	1	9
541.085	1	4
541.255	1	15
541.425	1	6
541.595	1	2
541.765	1	8
541.935	1	16
542.105	1	8
542.275	1	12
542.445	1	5
542.615	1	18
542.785	1	16
542.955	1	22
543.125	1	25
543.295	1	20
543.465	1	15
543.635	1	7
543.805	1	9
543.975	1	12
544.145	1	4
544.315	1	13
544.485	1	6
544.655	1	12
544.825	1	14
544.995	1	13
545.165	1	15
545.335	1	16
545.505	1	11
545.675	1	18
545.845	1	20
546.015	1	11
546.185	1	15
546.355	1	15
546.525	1	4
546.695	1	18
546.865	1	17
547.035	1	15
547.205	1	10
547.375	1	12
547.545	1	19
547.715	1	10
547.885	1	7
548.055	1	26
548.225	1	13
548.395	1	14
548.565	1	16
548.735	1	0
548.905	1	20
549.075	1	14
549.245	1	10
549.415	1	17
549.585	1	12
549.755	1	2
549.925	1	17
550.095	1	11
550.265	1	22
550.435	1	13
550.605	1	11
550.775	1	7
550.945	1	20
551.115	1	22
551.285	1	11
551.455	1	25
551.625	1	24
551.795	1	11
551.965	1	5
552.135	1	17
552.305	1	10
552.475	1	14
552.645	1	13
552.815	1	8
552.985	1	-4
553.155	1	18
553.325	1	8
553.495	1	9
553.665	1	12
553.835	1	21
554.004	1	14
554.174	1	2
554.344	1	16
554.514	1	12
554.684	1	1
554.854	1	6
555.024	1	-3
555.194	1	26
555.364	1	14
555.534	1	8
555.704	1	8
555.874	1	22
556.044	1	12
556.214	1	9
556.384	1	-1
556.554	1	6
556.724	1	-1
556.894	1	4
557.064	1	20
557.234	1	13
557.404	1	4
557.573	1	11
557.743	1	-1
557.913	1	5
558.083	1	16
558.253	1	12
558.423	1	7
558.593	1	22
558.763	1	25
558.933	1	14
559.103	1	6
559.273	1	12
559.443	1	11
559.613	1	0
559.783	1	16
559.953	1	0
560.122	1	4
560.292	1	4
560.462	1	8
560.632	1	13
560.802	1	4
560.972	1	7
561.142	1	4
561.312	1	17
561.482	1	13
561.652	1	11
561.822	1	14
561.992	1	18
562.162	1	16
562.331	1	9
562.501	1	6
562.671	1	9
562.841	1	10
563.011	1	-2
563.181	1	13
563.351	1	7
563.521	1	9
563.691	1	11
563.861	1	15
564.031	1	15
564.201	1	14
564.370	1	6
564.540	1	4
564.710	1	9
564.880	1	14
565.050	1	19
565.220	1	13
565.390	1	18
565.560	1	15
565.730	1	4
565.900	1	13
566.069	1	15
566.239	1	10
566.409	1	14
566.579	1	6
566.749	1	17
566.919	1	2
567.089	1	10
567.259	1	17
567.429	1	6
567.599	1	18
567.768	1	9
567.938	1	9
568.108	1	9
568.278	1	18
568.448	1	7
568.618	1	16
568.788	1	13
568.958	1	14
569.128	1	9
569.297	1	5
569.467	1	5
569.637	1	14
569.807	1	17
569.977	1	11
570.147	1	7
570.317	1	12
570.487	1	7
570.656	1	5
570.826	1	13
570.996	1	6
571.166	1	13
571.336	1	13
571.506	1	2
571.676	1	14
571.846	1	16
572.015	1	6
572.185	1	10
572.355	1	22
572.525	1	15
572.695	1	13
572.865	1	9
573.035	1	22
573.205	1	9
573.374	1	12
573.544	1	13
573.714	1	18
573.884	1	8
574.054	1	11
574.224	1	10
574.394	1	1
574.563	1	9
574.733	1	7
574.903	1	16
575.073	1	10
575.243	1	18
575.413	1	6
575.583	1	12
575.752	1	7
575.922	1	17
576.092	1	13
576.262	1	8
576.432	1	14
576.602	1	7
576.772	1	15
576.941	1	-3
577.111	1	17
577.281	1	4
577.451	1	12
577.621	1	7
577.791	1	15
577.960	1	19
578.130	1	11
578.300	1	5
578.470	1	11
578.640	1	4
578.810	1	-4
578.979	1	9
579.149	1	7
579.319	1	11
579.489	1	10
579.659	1	15
579.829	1	22
579.998	1	11
580.168	1	13
580.338	1	-2
580.508	1	13
580.678	1	8
580.848	1	1
581.017	1	13
581.187	1	9
581.357	1	1
581.527	1	0
581.697	1	7
581.867	1	14
582.036	1	13
582.206	1	8
582.376	1	11
582.546	1	3
582.716	1	7
582.885	1	13
583.055	1	11
583.225	1	26
583.395	1	12
583.565	1	5
583.735	1	8
583.904	1	10
584.074	1	15
584.244	1	14
584.414	1	0
584.584	1	14
584.753	1	10
584.923	1	14
585.093	1	2
585.263	1	23
585.433	1	2
585.602	1	14
585.772	1	5
585.942	1	9
586.112	1	9
586.282	1	5
586.451	1	7
586.621	1	16
586.791	1	11
586.961	1	4
587.131	1	20
587.300	1	1
587.470	1	14
587.640	1	3
587.810	1	13
587.980	1	13
588.149	1	6
588.319	1	2
588.489	1	12
588.659	1	26
588.829	1	12
588.998	1	12
589.168	1	13
589.338	1	15
589.508	1	8
589.677	1	3
589.847	1	20
590.017	1	11
590.187	1	21
590.357	1	2
590.526	1	5
590.696	1	7
590.866	1	15
591.036	1	23
591.205	1	2
591.375	1	0
591.545	1	21
591.715	1	2
591.885	1	9
592.054	1	15
592.224	1	26
592.394	1	6
592.564	1	15
592.733	1	21
592.903	1	18
593.073	1	10
593.243	1	15
593.412	1	15
593.582	1	9
593.752	1	5
593.922	1	5
594.091	1	11
594.261	1	12
594.431	1	17
594.601	1	7
594.771	1	7
594.940	1	-4
595.110	1	16
595.280	1	10
595.450	1	17
595.619	1	9
595.789	1	0
595.959	1	17
596.129	1	20
596.298	1	17
596.468	1	11
596.638	1	-4
596.808	1	2
596.977	1	20
597.147	1	10
597.317	1	4
597.487	1	-9
597.656	1	13
597.826	1	6
597.996	1	17
598.166	1	8
598.335	1	6
598.505	1	16
598.675	1	5
598.844	1	6
599.014	1	-3
599.184	1	13
599.354	1	1
599.523	1	17
599.693	1	3
599.863	1	19
600.033	1	4
600.202	1	11
600.372	1	10
600.542	1	11
600.712	1	15
600.881	1	6
601.051	1	4
601.221	1	12
601.390	1	5
601.560	1	-3
601.730	1	16
601.900	1	13
602.069	1	15
602.239	1	23
602.409	1	5
602.578	1	7
602.748	1	5
602.918	1	8
603.088	1	19
603.257	1	12
603.427	1	22
603.597	1	11
603.767	1	9
603.936	1	-4
604.106	1	9
604.276	1	14
604.445	1	10
604.615	1	-3
604.785	1	18
604.954	1	11
605.124	1	8
605.294	1	7
605.464	1	15
605.633	1	17
605.803	1	14
605.973	1	4
606.142	1	12
606.312	1	8
606.482	1	7
606.652	1	3
606.821	1	2
606.991	1	12
607.161	1	13
607.330	1	1
607.500	1	5
607.670	1	6
607.839	1	5
608.009	1	15
608.179	1	1
608.348	1	15
608.518	1	-2
608.688	1	10
608.858	1	13
609.027	1	13
609.197	1	-14
609.367	1	9
609.536	1	9
609.706	1	8
609.876	1	11
610.045	1	-3
610.215	1	14
610.385	1	2
610.554	1	4
610.724	1	12
610.894	1	2
611.063	1	9
611.233	1	11
611.403	1	11
611.572	1	3
611.742	1	5
611.912	1	5
612.081	1	8
612.251	1	12
612.421	1	9
612.590	1	-5
612.760	1	20
612.930	1	7
613.099	1	11
613.269	1	8
613.439	1	13
613.608	1	4
613.778	1	7
613.948	1	16
614.117	1	10
614.287	1	17
614.457	1	3
614.626	1	14
614.796	1	14
614.966	1	12
615.135	1	13
615.305	1	9
615.475	1	11
615.644	1	9
615.814	1	5
615.984	1	25
616.153	1	4
616.323	1	11
616.493	1	0
616.662	1	7
616.832	1	15
617.002	1	6
617.171	1	2
617.341	1	2
617.511	1	-4
617.680	1	12
617.850	1	12
618.019	1	10
618.189	1	-1
618.359	1	6
618.528	1	12
618.698	1	16
618.868	1	7
619.037	1	12
619.207	1	4
619.377	1	6
619.546	1	8
619.716	1	1
619.885	1	7
620.055	1	4
620.225	1	6
620.394	1	2
620.564	1	13
620.734	1	1
620.903	1	13
621.073	1	9
621.242	1	12
621.412	1	5
621.582	1	14
621.751	1	9
621.921	1	11
622.091	1	3
622.260	1	7
622.430	1	8
622.599	1	0
622.769	1	0
622.939	1	12
623.108	1	12
623.278	1	15
623.448	1	-2
623.617	1	3
623.787	1	13
623.956	1	5
624.126	1	-4
624.296	1	1
624.465	1	8
624.635	1	14
624.804	1	10
624.974	1	13
625.144	1	5
625.313	1	10
625.483	1	18
625.652	1	7
625.822	1	13
625.992	1	12
626.161	1	12
626.331	1	13
626.501	1	20
626.670	1	2
626.840	1	8
627.009	1	-3
627.179	1	10
627.348	1	13
627.518	1	6
627.688	1	2
627.857	1	19
628.027	1	5
628.196	1	5
628.366	1	3
628.536	1	2
628.705	1	7
628.875	1	5
629.044	1	10
629.214	1	11
629.384	1	13
629.553	1	3
629.723	1	6
629.892	1	8
630.062	1	11
630.232	1	-8
630.401	1	10
630.571	1	15
630.740	1	8
630.910	1	14
631.079	1	14
631.249	1	10
631.419	1	9
631.588	1	18
631.758	1	10
631.927	1	10
632.097	1	5
632.266	1	8
632.436	1	14
632.606	1	11
632.775	1	10
632.945	1	12
633.114	1	10
633.284	1	11
633.453	1	6
633.623	1	9
633.793	1	13
633.962	1	4
634.132	1	3
634.301	1	5
634.471	1	4
634.640	1	12
634.810	1	19
634.979	1	18
635.149	1	18
635.319	1	8
635.488	1	11
635.658	1	20
635.827	1	2
635.997	1	11
636.166	1	15
636.336	1	13
636.505	1	23
636.675	1	6
636.845	1	6
637.014	1	18
637.184	1	13
637.353	1	3
637.523	1	20
637.692	1	2
637.862	1	11
638.031	1	14
638.201	1	16
638.370	1	20
638.540	1	7
638.710	1	9
638.879	1	10
639.049	1	15
639.218	1	6
639.388	1	12
639.557	1	21
639.727	1	12
639.896	1	12
640.066	1	21
640.235	1	16
640.405	1	16
640.574	1	20
640.744	1	16
640.914	1	6
641.083	1	3
641.253	1	11
641.422	1	-4
641.592	1	6
641.761	1	3
641.931	1	16
642.100	1	15
642.270	1	11
642.439	1	5
642.609	1	6
642.778	1	-8
642.948	1	14
643.117	1	-5
643.287	1	15
643.456	1	7
643.626	1	1
643.795	1	-1
643.965	1	13
644.134	1	5
644.304	1	21
644.473	1	10
644.643	1	12
644.812	1	5
644.982	1	9
645.151	1	5
645.321	1	-1
645.490	1	13
645.660	1	5
645.829	1	16
645.999	1	12
646.168	1	11
646.338	1	1
646.507	1	9
646.677	1	6
646.846	1	11
647.016	1	19
647.185	1	10
647.355	1	11
647.524	1	23
647.694	1	19
647.863	1	13
648.033	1	6
648.202	1	1
648.372	1	10
648.541	1	3
648.711	1	13
648.880	1	8
649.050	1	4
649.219	1	15
649.389	1	8
649.558	1	9
649.728	1	9
649.897	1	14
650.067	1	10
650.236	1	-6
650.406	1	9
650.575	1	13
650.745	1	2
650.914	1	16
651.084	1	4
651.253	1	15
651.423	1	9
651.592	1	7
651.762	1	2
651.931	1	7
652.101	1	5
652.270	1	15
652.440	1	2
652.609	1	6
652.778	1	12
652.948	1	15
653.117	1	26
653.287	1	20
653.456	1	19
653.626	1	9
653.795	1	5
653.965	1	6
654.134	1	3
654.304	1	9
654.473	1	4
654.643	1	3
654.812	1	6
654.982	1	17
655.151	1	4
655.320	1	25
655.490	1	8
655.659	1	11
655.829	1	6
655.998	1	15
656.168	1	5
656.337	1	1
656.507	1	7
656.676	1	12
656.846	1	7
657.015	1	9
657.184	1	6
657.354	1	11
657.523	1	3
657.693	1	1
657.862	1	11
658.032	1	16
658.201	1	11
658.371	1	14
658.540	1	8
658.709	1	0
658.879	1	1
659.048	1	16
659.218	1	14
659.387	1	4
659.557	1	4
659.726	1	10
659.895	1	5
660.065	1	11
660.234	1	1
660.404	1	12
660.573	1	12
660.743	1	7
660.912	1	19
661.081	1	14
661.251	1	20
661.420	1	2
661.590	1	6
661.759	1	10
661.929	1	13
662.098	1	11
662.267	1	16
662.437	1	8
662.606	1	9
662.776	1	6
662.945	1	11
663.115	1	0
663.284	1	7
663.453	1	3
663.623	1	0
663.792	1	13
663.962	1	10
664.131	1	14
664.300	1	3
664.470	1	6
664.639	1	17
664.809	1	11
664.978	1	-3
665.148	1	17
665.317	1	15
665.486	1	6
665.656	1	14
665.825	1	16
665.995	1	7
666.164	1	18
666.333	1	0
666.503	1	4
666.672	1	8
666.842	1	-3
667.011	1	12
667.180	1	10
667.350	1	17
667.519	1	6
667.689	1	9
667.858	1	16
668.027	1	11
668.197	1	3
668.366	1	23
668.536	1	11
668.705	1	8
668.874	1	6
669.044	1	9
669.213	1	12
669.382	1	10
669.552	1	7
669.721	1	0
669.891	1	9
670.060	1	14
670.229	1	11
670.399	1	15
670.568	1	-5
670.738	1	10
670.907	1	17
671.076	1	14
671.246	1	6
671.415	1	6
671.584	1	8
671.754	1	12
671.923	1	3
672.093	1	8
672.262	1	-1
672.431	1	13
672.601	1	0
672.770	1	5
672.939	1	-6
673.109	1	6
673.278	1	7
673.448	1	13
673.617	1	8
673.786	1	-1
