325.333	1	12
325.504	1	8
325.675	1	12
325.846	1	-5
326.017	1	2
326.188	1	15
326.359	1	-6
326.531	1	-2
326.702	1	15
326.873	1	1
327.044	1	3
327.215	1	0
327.386	1	7
327.557	1	10
327.728	1	10
327.899	1	7
328.070	1	11
328.241	1	13
328.412	1	3
328.583	1	10
328.754	1	0
328.926	1	10
329.097	1	13
329.268	1	15
329.439	1	1
329.610	1	11
329.781	1	0
329.952	1	-5
330.123	1	-1
330.294	1	10
330.465	1	1
330.636	1	19
330.807	1	10
330.978	1	21
331.149	1	4
331.320	1	21
331.492	1	5
331.663	1	-5
331.834	1	2
332.005	1	-2
332.176	1	-1
332.347	1	13
332.518	1	3
332.689	1	14
332.860	1	1
333.031	1	-3
333.202	1	3
333.373	1	8
333.544	1	8
333.715	1	-4
333.886	1	5
334.057	1	10
334.228	1	4
334.399	1	-5
334.570	1	11
334.741	1	-1
334.912	1	8
335.084	1	6
335.255	1	5
335.426	1	8
335.597	1	-5
335.768	1	6
335.939	1	4
336.110	1	9
336.281	1	11
336.452	1	4
336.623	1	10
336.794	1	6
336.965	1	14
337.136	1	10
337.307	1	9
337.478	1	3
337.649	1	20
337.820	1	9
337.991	1	12
338.162	1	9
338.333	1	13
338.504	1	12
338.675	1	5
338.846	1	6
339.017	1	11
339.188	1	8
339.359	1	2
339.530	1	10
339.701	1	17
339.872	1	3
340.043	1	17
340.214	1	-1
340.385	1	0
340.556	1	5
340.727	1	16
340.898	1	13
341.069	1	2
341.240	1	12
341.411	1	20
341.582	1	0
341.753	1	12
341.924	1	10
342.095	1	16
342.266	1	10
342.437	1	5
342.608	1	4
342.779	1	10
342.950	1	5
343.121	1	10
343.292	1	11
343.463	1	0
343.634	1	1
343.805	1	11
343.976	1	10
344.147	1	-1
344.318	1	16
344.489	1	0
344.660	1	18
344.831	1	3
345.002	1	7
345.173	1	-3
345.344	1	-2
345.515	1	-5
345.686	1	1
345.857	1	8
346.028	1	10
346.199	1	2
346.370	1	8
346.541	1	4
346.712	1	8
346.883	1	6
347.054	1	2
347.225	1	5
347.396	1	-2
347.567	1	11
347.738	1	3
347.909	1	7
348.080	1	-11
348.251	1	6
348.422	1	-2
348.593	1	2
348.764	1	11
348.935	1	5
349.106	1	2
349.277	1	20
349.448	1	11
349.619	1	6
349.790	1	14
349.961	1	18
350.132	1	0
350.303	1	9
350.474	1	2
350.645	1	8
350.816	1	10
350.987	1	-9
351.157	1	14
351.328	1	11
351.499	1	21
351.670	1	6
351.841	1	16
352.012	1	10
352.183	1	0
352.354	1	12
352.525	1	4
352.696	1	5
352.867	1	2
353.038	1	7
353.209	1	18
353.380	1	10
353.551	1	-10
353.722	1	-6
353.893	1	7
354.064	1	14
354.235	1	12
354.406	1	5
354.576	1	-1
354.747	1	5
354.918	1	9
355.089	1	9
355.260	1	11
355.431	1	1
355.602	1	6
355.773	1	-3
355.944	1	4
356.115	1	-8
356.286	1	1
356.457	1	5
356.628	1	4
356.799	1	-7
356.970	1	-3
357.141	1	10
357.311	1	-1
357.482	1	6
357.653	1	0
357.824	1	5
357.995	1	9
358.166	1	7
358.337	1	13
358.508	1	5
358.679	1	-3
358.850	1	8
359.021	1	1
359.192	1	2
359.363	1	-9
359.533	1	2
359.704	1	0
359.875	1	-2
360.046	1	7
360.217	1	6
360.388	1	-7
360.559	1	7
360.730	1	4
360.901	1	11
361.072	1	2
361.243	1	10
361.414	1	7
361.584	1	6
361.755	1	9
361.926	1	1
362.097	1	8
362.268	1	-2
362.439	1	3
362.610	1	2
362.781	1	-7
362.952	1	-1
363.123	1	-1
363.293	1	9
363.464	1	2
363.635	1	2
363.806	1	7
363.977	1	15
364.148	1	12
364.319	1	16
364.490	1	5
364.661	1	-2
364.832	1	4
365.002	1	-1
365.173	1	10
365.344	1	-8
365.515	1	6
365.686	1	5
365.857	1	3
366.028	1	6
366.199	1	3
366.370	1	-4
366.540	1	-1
366.711	1	2
366.882	1	17
367.053	1	3
367.224	1	0
367.395	1	-1
367.566	1	12
367.737	1	5
367.908	1	6
368.078	1	2
368.249	1	-5
368.420	1	5
368.591	1	1
368.762	1	7
368.933	1	7
369.104	1	2
369.274	1	-2
369.445	1	3
369.616	1	12
369.787	1	-4
369.958	1	-1
370.129	1	5
370.300	1	2
370.471	1	10
370.641	1	4
370.812	1	-3
370.983	1	4
371.154	1	10
371.325	1	4
371.496	1	-5
371.667	1	-3
371.837	1	9
372.008	1	8
372.179	1	6
372.350	1	-2
372.521	1	-4
372.692	1	3
372.863	1	13
373.033	1	9
373.204	1	8
373.375	1	1
373.546	1	2
373.717	1	-1
373.888	1	0
374.059	1	0
374.229	1	2
374.400	1	6
374.571	1	-6
374.742	1	3
374.913	1	-8
375.084	1	4
375.254	1	8
375.425	1	8
375.596	1	4
375.767	1	10
375.938	1	7
376.109	1	-9
376.279	1	-5
376.450	1	1
376.621	1	6
376.792	1	1
376.963	1	11
377.134	1	8
377.304	1	-6
377.475	1	0
377.646	1	0
377.817	1	0
377.988	1	3
378.159	1	13
378.329	1	5
378.500	1	-10
378.671	1	2
378.842	1	10
379.013	1	10
379.184	1	11
379.354	1	5
379.525	1	15
379.696	1	3
379.867	1	9
380.038	1	18
380.209	1	5
380.379	1	14
380.550	1	-3
380.721	1	3
380.892	1	-1
381.063	1	-1
381.233	1	14
381.404	1	16
381.575	1	13
381.746	1	-4
381.917	1	11
382.087	1	16
382.258	1	4
382.429	1	15
382.600	1	5
382.771	1	12
382.941	1	-1
383.112	1	8
383.283	1	-3
383.454	1	-2
383.625	1	-12
383.795	1	12
383.966	1	14
384.137	1	6
384.308	1	8
384.479	1	14
384.649	1	12
384.820	1	4
384.991	1	13
385.162	1	8
385.333	1	-3
385.503	1	5
385.674	1	11
385.845	1	6
386.016	1	29
386.187	1	-2
386.357	1	2
386.528	1	7
386.699	1	0
386.870	1	1
387.041	1	11
387.211	1	7
387.382	1	8
387.553	1	3
387.724	1	-13
387.894	1	12
388.065	1	17
388.236	1	8
388.407	1	4
388.578	1	14
388.748	1	2
388.919	1	0
389.090	1	21
389.261	1	3
389.431	1	3
389.602	1	10
389.773	1	-1
389.944	1	8
390.114	1	-1
390.285	1	13
390.456	1	13
390.627	1	19
390.798	1	15
390.968	1	14
391.139	1	7
391.310	1	-2
391.481	1	-2
391.651	1	11
391.822	1	0
391.993	1	5
392.164	1	6
392.334	1	3
392.505	1	6
392.676	1	4
392.847	1	7
393.017	1	11
393.188	1	7
393.359	1	11
393.530	1	11
393.700	1	15
393.871	1	-1
394.042	1	14
394.213	1	15
394.383	1	7
394.554	1	8
394.725	1	14
394.896	1	2
395.066	1	21
395.237	1	4
395.408	1	7
395.579	1	2
395.749	1	3
395.920	1	3
396.091	1	10
396.262	1	1
396.432	1	-2
396.603	1	6
396.774	1	3
396.945	1	10
397.115	1	6
397.286	1	5
397.457	1	19
397.627	1	10
397.798	1	16
397.969	1	14
398.140	1	-1
398.310	1	13
398.481	1	10
398.652	1	8
398.823	1	3
398.993	1	12
399.164	1	5
399.335	1	6
399.505	1	7
399.676	1	2
399.847	1	11
400.018	1	5
400.188	1	10
400.359	1	9
400.530	1	25
400.700	1	4
400.871	1	19
401.042	1	5
401.213	1	13
401.383	1	10
401.554	1	17
401.725	1	3
401.895	1	2
402.066	1	6
402.237	1	12
402.408	1	14
402.578	1	10
402.749	1	10
402.920	1	8
403.090	1	5
403.261	1	2
403.432	1	10
403.603	1	10
403.773	1	8
403.944	1	18
404.115	1	16
404.285	1	9
404.456	1	8
404.627	1	13
404.797	1	7
404.968	1	13
405.139	1	2
405.310	1	16
405.480	1	2
405.651	1	14
405.822	1	-3
405.992	1	15
406.163	1	-7
406.334	1	11
406.504	1	4
406.675	1	14
406.846	1	7
407.016	1	18
407.187	1	19
407.358	1	6
407.528	1	10
407.699	1	3
407.870	1	12
408.041	1	13
408.211	1	13
408.382	1	1
408.553	1	15
408.723	1	23
408.894	1	3
409.065	1	12
409.235	1	8
409.406	1	15
409.577	1	13
409.747	1	7
409.918	1	14
410.089	1	13
410.259	1	17
410.430	1	5
410.601	1	25
410.771	1	9
410.942	1	-3
411.113	1	12
411.283	1	17
411.454	1	12
411.625	1	15
411.795	1	9
411.966	1	11
412.137	1	23
412.307	1	1
412.478	1	17
412.649	1	19
412.819	1	7
412.990	1	15
413.161	1	23
413.331	1	21
413.502	1	19
413.672	1	9
413.843	1	12
414.014	1	11
414.184	1	13
414.355	1	16
414.526	1	17
414.696	1	22
414.867	1	16
415.038	1	6
415.208	1	-4
415.379	1	12
415.550	1	8
415.720	1	8
415.891	1	16
416.062	1	9
416.232	1	20
416.403	1	11
416.573	1	9
416.744	1	13
416.915	1	8
417.085	1	12
417.256	1	10
417.427	1	17
417.597	1	12
417.768	1	8
417.939	1	17
418.109	1	22
418.280	1	13
418.450	1	17
418.621	1	15
418.792	1	5
418.962	1	16
419.133	1	21
419.304	1	28
419.474	1	7
419.645	1	15
419.815	1	29
419.986	1	22
420.157	1	16
420.327	1	9
420.498	1	3
420.669	1	8
420.839	1	13
421.010	1	11
421.180	1	13
421.351	1	5
421.522	1	8
421.692	1	26
421.863	1	13
422.033	1	15
422.204	1	10
422.375	1	29
422.545	1	16
422.716	1	21
422.886	1	11
423.057	1	24
423.228	1	9
423.398	1	23
423.569	1	10
423.740	1	20
423.910	1	18
424.081	1	12
424.251	1	21
424.422	1	12
424.593	1	19
424.763	1	13
424.934	1	15
425.104	1	30
425.275	1	18
425.445	1	15
425.616	1	9
425.787	1	11
425.957	1	15
426.128	1	16
426.298	1	0
426.469	1	22
426.640	1	2
426.810	1	15
426.981	1	19
427.151	1	20
427.322	1	20
427.493	1	13
427.663	1	17
427.834	1	3
428.004	1	16
428.175	1	3
428.345	1	16
428.516	1	26
428.687	1	10
428.857	1	-4
429.028	1	13
429.198	1	9
429.369	1	9
429.540	1	15
429.710	1	16
429.881	1	9
430.051	1	6
430.222	1	17
430.392	1	19
430.563	1	19
430.734	1	10
430.904	1	7
431.075	1	9
431.245	1	3
431.416	1	-6
431.586	1	10
431.757	1	13
431.927	1	14
432.098	1	13
432.269	1	19
432.439	1	23
432.610	1	19
432.780	1	-1
432.951	1	9
433.121	1	10
433.292	1	8
433.462	1	16
433.633	1	22
433.804	1	24
433.974	1	23
434.145	1	14
434.315	1	15
434.486	1	13
434.656	1	17
434.827	1	5
434.997	1	16
435.168	1	16
435.339	1	10
435.509	1	25
435.680	1	11
435.850	1	8
436.021	1	9
436.191	1	15
436.362	1	17
436.532	1	12
436.703	1	14
436.873	1	16
437.044	1	14
437.214	1	10
437.385	1	16
437.556	1	14
437.726	1	8
437.897	1	9
438.067	1	4
438.238	1	21
438.408	1	13
438.579	1	11
438.749	1	14
438.920	1	21
439.090	1	19
439.261	1	6
439.431	1	18
439.602	1	8
439.772	1	16
439.943	1	11
440.113	1	13
440.284	1	16
440.455	1	1
440.625	1	19
440.796	1	17
440.966	1	13
441.137	1	5
441.307	1	18
441.478	1	-2
441.648	1	14
441.819	1	1
441.989	1	7
442.160	1	16
442.330	1	14
442.501	1	6
442.671	1	13
442.842	1	20
443.012	1	18
443.183	1	27
443.353	1	13
443.524	1	12
443.694	1	-2
443.865	1	3
444.035	1	21
444.206	1	10
444.376	1	14
444.547	1	9
444.717	1	10
444.888	1	13
445.058	1	9
445.229	1	14
445.399	1	7
445.570	1	2
445.740	1	10
445.911	1	11
446.081	1	13
446.252	1	9
446.422	1	8
446.593	1	12
446.763	1	2
446.934	1	3
447.104	1	5
447.275	1	13
447.445	1	15
447.616	1	15
447.786	1	9
447.957	1	11
448.127	1	11
448.298	1	7
448.468	1	9
448.639	1	20
448.809	1	14
448.979	1	11
449.150	1	18
449.320	1	16
449.491	1	15
449.661	1	11
449.832	1	11
450.002	1	7
450.173	1	8
450.343	1	-2
450.514	1	10
450.684	1	17
450.855	1	4
451.025	1	9
451.196	1	22
451.366	1	15
451.537	1	6
451.707	1	12
451.878	1	12
452.048	1	9
452.218	1	1
452.389	1	17
452.559	1	18
452.730	1	4
452.900	1	6
453.071	1	9
453.241	1	12
453.412	1	19
453.582	1	7
453.753	1	6
453.923	1	1
454.093	1	-3
454.264	1	22
454.434	1	10
454.605	1	10
454.775	1	12
454.946	1	9
455.116	1	2
455.287	1	11
455.457	1	4
455.628	1	2
455.798	1	6
455.968	1	7
456.139	1	11
456.309	1	13
456.480	1	14
456.650	1	7
456.821	1	6
456.991	1	16
457.161	1	23
457.332	1	9
457.502	1	17
457.673	1	16
457.843	1	1
458.014	1	14
458.184	1	15
458.355	1	20
458.525	1	13
458.695	1	-1
458.866	1	-1
459.036	1	-4
459.207	1	17
459.377	1	18
459.548	1	1
459.718	1	1
459.888	1	5
460.059	1	3
460.229	1	4
460.400	1	28
460.570	1	11
460.740	1	4
460.911	1	16
461.081	1	14
461.252	1	10
461.422	1	1
461.593	1	13
461.763	1	5
461.933	1	8
462.104	1	3
462.274	1	5
462.445	1	12
462.615	1	2
462.785	1	4
462.956	1	10
463.126	1	9
463.297	1	5
463.467	1	10
463.638	1	4
463.808	1	12
463.978	1	-1
464.149	1	14
464.319	1	8
464.490	1	-1
464.660	1	-1
464.830	1	6
465.001	1	14
465.171	1	6
465.342	1	5
465.512	1	3
465.682	1	8
465.853	1	3
466.023	1	10
466.194	1	8
466.364	1	8
466.534	1	-1
466.705	1	5
466.875	1	8
467.045	1	6
467.216	1	12
467.386	1	5
467.557	1	1
467.727	1	11
467.897	1	6
468.068	1	5
468.238	1	-4
468.409	1	4
468.579	1	15
468.749	1	13
468.920	1	12
469.090	1	6
469.260	1	3
469.431	1	1
469.601	1	8
469.772	1	-11
469.942	1	-2
470.112	1	-4
470.283	1	2
470.453	1	3
470.623	1	3
470.794	1	-3
470.964	1	11
471.135	1	-2
471.305	1	-1
471.475	1	7
471.646	1	3
471.816	1	7
471.986	1	2
472.157	1	6
472.327	1	-3
472.497	1	4
472.668	1	-4
472.838	1	3
473.009	1	-1
473.179	1	12
473.349	1	7
473.520	1	9
473.690	1	12
473.860	1	6
474.031	1	26
474.201	1	6
474.371	1	18
474.542	1	11
474.712	1	5
474.882	1	7
475.053	1	3
475.223	1	14
475.394	1	-6
475.564	1	13
475.734	1	9
475.905	1	-1
476.075	1	-8
476.245	1	2
476.416	1	-1
476.586	1	13
476.756	1	-5
476.927	1	2
477.097	1	-5
477.267	1	14
477.438	1	2
477.608	1	3
477.778	1	5
477.949	1	6
478.119	1	7
478.289	1	5
478.460	1	5
478.630	1	14
478.800	1	1
478.971	1	-5
479.141	1	20
479.311	1	9
479.482	1	3
479.652	1	5
479.822	1	8
479.993	1	-1
480.163	1	4
480.333	1	6
480.504	1	10
480.674	1	-3
480.844	1	6
481.015	1	8
481.185	1	5
481.355	1	8
481.525	1	5
481.696	1	21
481.866	1	6
482.036	1	-3
482.207	1	19
482.377	1	4
482.547	1	4
482.718	1	8
482.888	1	4
483.058	1	9
483.229	1	5
483.399	1	9
483.569	1	12
483.740	1	1
483.910	1	-4
484.080	1	4
484.250	1	12
484.421	1	5
484.591	1	5
484.761	1	0
484.932	1	-3
485.102	1	5
485.272	1	-3
485.443	1	10
485.613	1	5
485.783	1	2
485.953	1	7
486.124	1	3
486.294	1	8
486.464	1	3
486.635	1	6
486.805	1	3
486.975	1	4
487.146	1	0
487.316	1	11
487.486	1	13
487.656	1	14
487.827	1	7
487.997	1	1
488.167	1	13
488.338	1	14
488.508	1	8
488.678	1	4
488.848	1	8
489.019	1	9
489.189	1	3
489.359	1	7
489.529	1	7
489.700	1	-1
489.870	1	12
490.040	1	11
490.211	1	14
490.381	1	12
490.551	1	-2
490.721	1	-3
490.892	1	-12
491.062	1	11
491.232	1	17
491.402	1	-2
491.573	1	10
491.743	1	5
491.913	1	8
492.084	1	1
492.254	1	6
492.424	1	9
492.594	1	-2
492.765	1	-2
492.935	1	2
493.105	1	12
493.275	1	4
493.446	1	5
493.616	1	4
493.786	1	3
493.956	1	22
494.127	1	9
494.297	1	0
494.467	1	4
494.637	1	5
494.808	1	8
494.978	1	4
495.148	1	4
495.318	1	12
495.489	1	-6
495.659	1	1
495.829	1	7
495.999	1	16
496.170	1	-2
496.340	1	2
496.510	1	-2
496.680	1	9
496.851	1	6
497.021	1	9
497.191	1	10
497.361	1	2
497.532	1	-5
497.702	1	1
497.872	1	2
498.042	1	11
498.213	1	11
498.383	1	14
498.553	1	5
498.723	1	2
498.894	1	15
499.064	1	2
499.234	1	2
499.404	1	1
499.574	1	-8
499.745	1	3
499.915	1	6
500.085	1	5
500.255	1	4
500.426	1	-5
500.596	1	3
500.766	1	15
500.936	1	0
501.106	1	8
501.277	1	9
501.447	1	-1
501.617	1	9
501.787	1	4
501.958	1	-13
502.128	1	3
502.298	1	-2
502.468	1	3
502.638	1	-8
502.809	1	5
502.979	1	6
503.149	1	16
503.319	1	0
503.489	1	3
503.660	1	-1
503.830	1	5
504.000	1	5
504.170	1	6
504.340	1	11
504.511	1	3
504.681	1	3
504.851	1	11
505.021	1	9
505.192	1	5
505.362	1	7
505.532	1	5
505.702	1	11
505.872	1	1
506.043	1	2
506.213	1	-2
506.383	1	0
506.553	1	4
506.723	1	3
506.893	1	1
507.064	1	-2
507.234	1	8
507.404	1	8
507.574	1	-4
507.744	1	12
507.915	1	6
508.085	1	10
508.255	1	-8
508.425	1	0
508.595	1	6
508.766	1	-7
508.936	1	-3
509.106	1	-7
509.276	1	8
509.446	1	-2
509.616	1	6
509.787	1	-4
509.957	1	10
510.127	1	5
510.297	1	7
510.467	1	9
510.638	1	8
510.808	1	5
510.978	1	-3
511.148	1	3
511.318	1	7
511.488	1	7
511.659	1	4
511.829	1	-2
511.999	1	16
512.169	1	12
512.339	1	-2
512.509	1	5
512.680	1	-6
512.850	1	-1
513.020	1	-7
513.190	1	-5
513.360	1	4
513.530	1	4
513.700	1	14
513.871	1	12
514.041	1	3
514.211	1	11
514.381	1	1
514.551	1	-5
514.721	1	0
514.892	1	-7
515.062	1	6
515.232	1	-5
515.402	1	11
515.572	1	14
515.742	1	1
515.912	1	2
516.083	1	9
516.253	1	-14
516.423	1	-1
516.593	1	5
516.763	1	-5
516.933	1	-19
517.104	1	-10
517.274	1	7
517.444	1	1
517.614	1	-2
517.784	1	7
517.954	1	6
518.124	1	12
518.294	1	-3
518.465	1	-8
518.635	1	-2
518.805	1	-8
518.975	1	5
519.145	1	8
519.315	1	8
519.485	1	10
519.656	1	2
519.826	1	4
519.996	1	2
520.166	1	5
520.336	1	-1
520.506	1	1
520.676	1	-4
520.846	1	14
521.017	1	16
521.187	1	6
521.357	1	12
521.527	1	4
521.697	1	-5
521.867	1	1
522.037	1	11
522.207	1	2
522.377	1	0
522.548	1	1
522.718	1	6
522.888	1	8
523.058	1	3
523.228	1	2
523.398	1	-2
523.568	1	2
523.738	1	-7
523.909	1	15
524.079	1	3
524.249	1	11
524.419	1	-1
524.589	1	-2
524.759	1	9
524.929	1	-2
525.099	1	-10
525.269	1	-2
525.439	1	-1
525.610	1	-2
525.780	1	4
525.950	1	8
526.120	1	4
526.290	1	0
526.460	1	4
526.630	1	-5
526.800	1	-8
526.970	1	2
527.140	1	3
527.311	1	8
527.481	1	2
527.651	1	12
527.821	1	-13
527.991	1	5
528.161	1	0
528.331	1	-3
528.501	1	-6
528.671	1	-1
528.841	1	7
529.011	1	-7
529.181	1	12
529.352	1	0
529.522	1	0
529.692	1	4
529.862	1	4
530.032	1	11
530.202	1	2
530.372	1	5
530.542	1	0
530.712	1	6
530.882	1	-5
531.052	1	17
531.222	1	0
531.392	1	4
531.563	1	-1
531.733	1	9
531.903	1	-3
532.073	1	-4
532.243	1	9
532.413	1	1
532.583	1	0
532.753	1	1
532.923	1	6
533.093	1	4
533.263	1	3
533.433	1	-5
533.603	1	4
533.773	1	9
533.943	1	-3
534.113	1	8
534.284	1	3
534.454	1	-6
534.624	1	2
534.794	1	5
534.964	1	5
535.134	1	8
535.304	1	9
535.474	1	-2
535.644	1	2
535.814	1	-7
535.984	1	11
536.154	1	9
536.324	1	-5
536.494	1	-2
536.664	1	11
536.834	1	0
537.004	1	-3
537.174	1	-6
537.344	1	10
537.514	1	3
537.685	1	9
537.855	1	-2
538.025	1	-5
538.195	1	-2
538.365	1	1
538.535	1	-1
538.705	1	-9
538.875	1	-10
539.045	1	-2
539.215	1	10
539.385	1	5
539.555	1	4
539.725	1	7
539.895	1	16
540.065	1	0
540.235	1	-2
540.405	1	-8
540.575	1	5
540.745	1	1
540.915	1	12
541.085	1	-4
541.255	1	-1
541.425	1	-2
541.595	1	-11
541.765	1	-5
541.935	1	14
542.105	1	5
542.275	1	-5
542.445	1	-11
542.615	1	4
542.785	1	-4
542.955	1	9
543.125	1	7
543.295	1	5
543.465	1	3
543.635	1	6
543.805	1	-6
543.975	1	6
544.145	1	-2
544.315	1	4
544.485	1	-4
544.655	1	-4
544.825	1	7
544.995	1	-6
545.165	1	4
545.335	1	0
545.505	1	-2
545.675	1	8
545.845	1	10
546.015	1	11
546.185	1	6
546.355	1	7
546.525	1	2
546.695	1	18
546.865	1	-3
547.035	1	-4
547.205	1	-4
547.375	1	3
547.545	1	-3
547.715	1	6
547.885	1	-1
548.055	1	12
548.225	1	10
548.395	1	9
548.565	1	3
548.735	1	6
548.905	1	13
549.075	1	8
549.245	1	4
549.415	1	1
549.585	1	7
549.755	1	-3
549.925	1	12
550.095	1	-8
550.265	1	3
550.435	1	5
550.605	1	5
550.775	1	0
550.945	1	3
551.115	1	7
551.285	1	6
551.455	1	7
551.625	1	5
551.795	1	2
551.965	1	8
552.135	1	3
552.305	1	17
552.475	1	-1
552.645	1	1
552.815	1	4
552.985	1	-10
553.155	1	-7
553.325	1	-10
553.495	1	0
553.665	1	6
553.835	1	8
554.004	1	7
554.174	1	-7
554.344	1	15
554.514	1	4
554.684	1	-15
554.854	1	2
555.024	1	-11
555.194	1	9
555.364	1	-4
555.534	1	4
555.704	1	6
555.874	1	12
556.044	1	-1
556.214	1	-2
556.384	1	0
556.554	1	-11
556.724	1	-5
556.894	1	6
557.064	1	2
557.234	1	11
557.404	1	-13
557.573	1	2
557.743	1	-3
557.913	1	-1
558.083	1	8
558.253	1	-9
558.423	1	11
558.593	1	4
558.763	1	10
558.933	1	5
559.103	1	8
559.273	1	-8
559.443	1	-4
559.613	1	-1
559.783	1	-4
559.953	1	-6
560.122	1	-11
560.292	1	-3
560.462	1	-8
560.632	1	18
560.802	1	0
560.972	1	1
561.142	1	-11
561.312	1	4
561.482	1	-1
561.652	1	8
561.822	1	0
561.992	1	1
562.162	1	6
562.331	1	3
562.501	1	-3
562.671	1	3
562.841	1	3
563.011	1	-1
563.181	1	-4
563.351	1	-2
563.521	1	1
563.691	1	-6
563.861	1	6
564.031	1	4
564.201	1	9
564.370	1	3
564.540	1	-2
564.710	1	4
564.880	1	0
565.050	1	8
565.220	1	-1
565.390	1	-1
565.560	1	9
565.730	1	3
565.900	1	4
566.069	1	1
566.239	1	8
566.409	1	-5
566.579	1	6
566.749	1	4
566.919	1	-7
567.089	1	4
567.259	1	5
567.429	1	-6
567.599	1	7
567.768	1	-5
567.938	1	9
568.108	1	-2
568.278	1	8
568.448	1	2
568.618	1	7
568.788	1	4
568.958	1	1
569.128	1	-8
569.297	1	3
569.467	1	-1
569.637	1	8
569.807	1	5
569.977	1	8
570.147	1	6
570.317	1	3
570.487	1	0
570.656	1	6
570.826	1	3
570.996	1	0
571.166	1	1
571.336	1	6
571.506	1	3
571.676	1	15
571.846	1	0
572.015	1	-6
572.185	1	1
572.355	1	6
572.525	1	9
572.695	1	3
572.865	1	-1
573.035	1	16
573.205	1	-3
573.374	1	1
573.544	1	0
573.714	1	10
573.884	1	1
574.054	1	3
574.224	1	4
574.394	1	0
574.563	1	1
574.733	1	-1
574.903	1	7
575.073	1	1
575.243	1	4
575.413	1	-1
575.583	1	8
575.752	1	0
575.922	1	2
576.092	1	10
576.262	1	2
576.432	1	11
576.602	1	-3
576.772	1	-1
576.941	1	1
577.111	1	7
577.281	1	-5
577.451	1	7
577.621	1	-1
577.791	1	9
577.960	1	1
578.130	1	4
578.300	1	-2
578.470	1	5
578.640	1	-2
578.810	1	-2
578.979	1	-4
579.149	1	0
579.319	1	3
579.489	1	-6
579.659	1	1
579.829	1	9
579.998	1	2
580.168	1	4
580.338	1	-7
580.508	1	7
580.678	1	-1
580.848	1	-2
581.017	1	-1
581.187	1	15
581.357	1	-6
581.527	1	-3
581.697	1	3
581.867	1	3
582.036	1	0
582.206	1	0
582.376	1	6
582.546	1	-7
582.716	1	-9
582.885	1	2
583.055	1	3
583.225	1	17
583.395	1	1
583.565	1	1
583.735	1	-4
583.904	1	2
584.074	1	0
584.244	1	13
584.414	1	0
584.584	1	11
584.753	1	8
584.923	1	3
585.093	1	2
585.263	1	-2
585.433	1	-4
585.602	1	-1
585.772	1	-2
585.942	1	-5
586.112	1	2
586.282	1	2
586.451	1	2
586.621	1	1
586.791	1	10
586.961	1	-12
587.131	1	3
587.300	1	-4
587.470	1	10
587.640	1	4
587.810	1	15
587.980	1	2
588.149	1	-2
588.319	1	3
588.489	1	-1
588.659	1	10
588.829	1	1
588.998	1	-3
589.168	1	5
589.338	1	10
589.508	1	-1
589.677	1	-6
589.847	1	11
590.017	1	7
590.187	1	-1
590.357	1	-11
590.526	1	-5
590.696	1	10
590.866	1	15
591.036	1	9
591.205	1	1
591.375	1	-5
591.545	1	12
591.715	1	-5
591.885	1	4
592.054	1	-3
592.224	1	10
592.394	1	-6
592.564	1	8
592.733	1	11
592.903	1	2
593.073	1	3
593.243	1	11
593.412	1	7
593.582	1	-6
593.752	1	9
593.922	1	-7
594.091	1	2
594.261	1	10
594.431	1	8
594.601	1	-4
594.771	1	2
594.940	1	-8
595.110	1	3
595.280	1	-1
595.450	1	16
595.619	1	-17
595.789	1	-5
595.959	1	8
596.129	1	6
596.298	1	9
596.468	1	-1
596.638	1	-4
596.808	1	-5
596.977	1	13
597.147	1	0
597.317	1	-6
597.487	1	-5
597.656	1	-6
597.826	1	6
597.996	1	4
598.166	1	-2
598.335	1	7
598.505	1	4
598.675	1	-6
598.844	1	0
599.014	1	-2
599.184	1	6
599.354	1	7
599.523	1	8
599.693	1	5
599.863	1	0
600.033	1	-11
600.202	1	0
600.372	1	-6
600.542	1	4
600.712	1	3
600.881	1	-1
601.051	1	-5
601.221	1	11
601.390	1	-1
601.560	1	0
601.730	1	-1
601.900	1	-3
602.069	1	9
602.239	1	10
602.409	1	4
602.578	1	6
602.748	1	10
602.918	1	-2
603.088	1	-2
603.257	1	10
603.427	1	-6
603.597	1	10
603.767	1	-1
603.936	1	-14
604.106	1	-6
604.276	1	4
604.445	1	5
604.615	1	-1
604.785	1	1
604.954	1	-12
605.124	1	4
605.294	1	5
605.464	1	2
605.633	1	0
605.803	1	0
605.973	1	9
606.142	1	2
606.312	1	11
606.482	1	0
606.652	1	-6
606.821	1	2
606.991	1	4
607.161	1	2
607.330	1	-3
607.500	1	-8
607.670	1	3
607.839	1	1
608.009	1	-3
608.179	1	1
608.348	1	12
608.518	1	-6
608.688	1	13
608.858	1	4
609.027	1	20
609.197	1	-4
609.367	1	0
609.536	1	2
609.706	1	3
609.876	1	-5
610.045	1	-5
610.215	1	9
610.385	1	0
610.554	1	-4
610.724	1	3
610.894	1	4
611.063	1	-5
611.233	1	0
611.403	1	7
611.572	1	-9
611.742	1	0
611.912	1	3
612.081	1	9
612.251	1	6
612.421	1	6
612.590	1	-9
612.760	1	9
612.930	1	2
613.099	1	8
613.269	1	3
613.439	1	2
613.608	1	7
613.778	1	-7
613.948	1	6
614.117	1	7
614.287	1	21
614.457	1	-9
614.626	1	3
614.796	1	3
614.966	1	9
615.135	1	5
615.305	1	9
615.475	1	3
615.644	1	2
615.814	1	-2
615.984	1	8
616.153	1	0
616.323	1	9
616.493	1	6
616.662	1	-3
616.832	1	2
617.002	1	2
617.171	1	-6
617.341	1	2
617.511	1	-4
617.680	1	18
617.850	1	5
618.019	1	7
618.189	1	-6
618.359	1	4
618.528	1	4
618.698	1	-6
618.868	1	-6
619.037	1	7
619.207	1	5
619.377	1	0
619.546	1	-6
619.716	1	0
619.885	1	8
620.055	1	1
620.225	1	7
620.394	1	8
620.564	1	11
620.734	1	5
620.903	1	5
621.073	1	7
621.242	1	13
621.412	1	3
621.582	1	2
621.751	1	-1
621.921	1	16
622.091	1	-2
622.260	1	8
622.430	1	8
622.599	1	8
622.769	1	5
622.939	1	5
623.108	1	6
623.278	1	8
623.448	1	6
623.617	1	1
623.787	1	3
623.956	1	4
624.126	1	0
624.296	1	1
624.465	1	3
624.635	1	21
624.804	1	-2
624.974	1	4
625.144	1	1
625.313	1	15
625.483	1	10
625.652	1	-4
625.822	1	6
625.992	1	9
626.161	1	5
626.331	1	14
626.501	1	17
626.670	1	-12
626.840	1	2
627.009	1	14
627.179	1	5
627.348	1	-5
627.518	1	10
627.688	1	-3
627.857	1	11
628.027	1	11
628.196	1	5
628.366	1	-3
628.536	1	14
628.705	1	1
628.875	1	10
629.044	1	3
629.214	1	8
629.384	1	-1
629.553	1	8
629.723	1	6
629.892	1	13
630.062	1	3
630.232	1	-9
630.401	1	1
630.571	1	3
630.740	1	0
630.910	1	7
631.079	1	9
631.249	1	-1
631.419	1	-2
631.588	1	0
631.758	1	8
631.927	1	-7
632.097	1	1
632.266	1	7
632.436	1	9
632.606	1	10
632.775	1	13
632.945	1	-2
633.114	1	4
633.284	1	1
633.453	1	-1
633.623	1	-1
633.793	1	18
633.962	1	0
634.132	1	16
634.301	1	9
634.471	1	0
634.640	1	4
634.810	1	14
634.979	1	10
635.149	1	7
635.319	1	-3
635.488	1	5
635.658	1	6
635.827	1	16
635.997	1	5
636.166	1	13
636.336	1	3
636.505	1	17
636.675	1	8
636.845	1	2
637.014	1	16
637.184	1	7
637.353	1	14
637.523	1	12
637.692	1	12
637.862	1	4
638.031	1	5
638.201	1	13
638.370	1	15
638.540	1	8
638.710	1	-7
638.879	1	-4
639.049	1	12
639.218	1	2
639.388	1	-4
639.557	1	15
639.727	1	9
639.896	1	9
640.066	1	16
640.235	1	4
640.405	1	18
640.574	1	16
640.744	1	13
640.914	1	4
641.083	1	7
641.253	1	14
641.422	1	-6
641.592	1	1
641.761	1	9
641.931	1	16
642.100	1	2
642.270	1	2
642.439	1	0
642.609	1	6
642.778	1	-1
642.948	1	16
643.117	1	8
643.287	1	2
643.456	1	9
643.626	1	1
643.795	1	-6
643.965	1	8
644.134	1	6
644.304	1	14
644.473	1	6
644.643	1	6
644.812	1	13
644.982	1	4
645.151	1	9
645.321	1	0
645.490	1	2
645.660	1	3
645.829	1	8
645.999	1	4
646.168	1	11
646.338	1	4
646.507	1	6
646.677	1	5
646.846	1	2
647.016	1	2
647.185	1	5
647.355	1	4
647.524	1	2
647.694	1	8
647.863	1	7
648.033	1	4
648.202	1	3
648.372	1	5
648.541	1	-7
648.711	1	7
648.880	1	6
649.050	1	1
649.219	1	0
649.389	1	4
649.558	1	8
649.728	1	-2
649.897	1	5
650.067	1	-2
650.236	1	2
650.406	1	6
650.575	1	8
650.745	1	6
650.914	1	14
651.084	1	11
651.253	1	6
651.423	1	10
651.592	1	3
651.762	1	-2
651.931	1	6
652.101	1	-1
652.270	1	10
652.440	1	-6
652.609	1	8
652.778	1	9
652.948	1	8
653.117	1	8
653.287	1	9
653.456	1	6
653.626	1	3
653.795	1	-9
653.965	1	5
654.134	1	-1
654.304	1	6
654.473	1	8
654.643	1	-4
654.812	1	-2
654.982	1	5
655.151	1	6
655.320	1	8
655.490	1	-1
655.659	1	6
655.829	1	3
655.998	1	7
656.168	1	-1
656.337	1	3
656.507	1	5
656.676	1	11
656.846	1	8
657.015	1	4
657.184	1	-1
657.354	1	13
657.523	1	5
657.693	1	7
657.862	1	9
658.032	1	10
658.201	1	-2
658.371	1	6
658.540	1	-2
658.709	1	-8
658.879	1	-2
659.048	1	19
659.218	1	8
659.387	1	-4
659.557	1	-7
659.726	1	6
659.895	1	10
660.065	1	9
660.234	1	3
660.404	1	6
660.573	1	-2
660.743	1	1
660.912	1	5
661.081	1	8
661.251	1	10
661.420	1	3
661.590	1	10
661.759	1	1
661.929	1	4
662.098	1	2
662.267	1	10
662.437	1	4
662.606	1	8
662.776	1	-1
662.945	1	8
663.115	1	-4
663.284	1	0
663.453	1	6
663.623	1	2
663.792	1	5
663.962	1	8
664.131	1	-2
664.300	1	-10
664.470	1	-15
664.639	1	11
664.809	1	6
664.978	1	-8
665.148	1	-2
665.317	1	14
665.486	1	-2
665.656	1	5
665.825	1	4
665.995	1	-1
666.164	1	8
666.333	1	3
666.503	1	-7
666.672	1	-3
666.842	1	-2
667.011	1	-4
667.180	1	2
667.350	1	13
667.519	1	2
667.689	1	5
667.858	1	5
668.027	1	0
668.197	1	-1
668.366	1	14
668.536	1	6
668.705	1	2
668.874	1	10
669.044	1	-5
669.213	1	-3
669.382	1	10
669.552	1	-1
669.721	1	2
669.891	1	5
670.060	1	9
670.229	1	5
670.399	1	4
670.568	1	-6
670.738	1	12
670.907	1	7
671.076	1	5
671.246	1	1
671.415	1	-1
671.584	1	2
671.754	1	10
671.923	1	-3
672.093	1	3
672.262	1	-1
672.431	1	0
672.601	1	-8
672.770	1	8
672.939	1	-8
673.109	1	7
673.278	1	6
673.448	1	7
673.617	1	1
673.786	1	-7
