325.333	1	16
325.504	1	0
325.675	1	5
325.846	1	-6
326.017	1	3
326.188	1	17
326.359	1	-4
326.531	1	4
326.702	1	12
326.873	1	0
327.044	1	6
327.215	1	4
327.386	1	7
327.557	1	9
327.728	1	6
327.899	1	14
328.070	1	2
328.241	1	10
328.412	1	-5
328.583	1	13
328.754	1	-1
328.926	1	15
329.097	1	3
329.268	1	12
329.439	1	2
329.610	1	15
329.781	1	6
329.952	1	-5
330.123	1	-1
330.294	1	11
330.465	1	-3
330.636	1	16
330.807	1	12
330.978	1	15
331.149	1	-8
331.320	1	12
331.492	1	22
331.663	1	6
331.834	1	9
332.005	1	0
332.176	1	5
332.347	1	19
332.518	1	5
332.689	1	16
332.860	1	4
333.031	1	-1
333.202	1	1
333.373	1	-5
333.544	1	5
333.715	1	3
333.886	1	9
334.057	1	15
334.228	1	11
334.399	1	0
334.570	1	5
334.741	1	3
334.912	1	9
335.084	1	1
335.255	1	4
335.426	1	2
335.597	1	6
335.768	1	0
335.939	1	16
336.110	1	10
336.281	1	3
336.452	1	3
336.623	1	-1
336.794	1	12
336.965	1	12
337.136	1	4
337.307	1	15
337.478	1	-3
337.649	1	11
337.820	1	18
337.991	1	23
338.162	1	12
338.333	1	-1
338.504	1	9
338.675	1	16
338.846	1	4
339.017	1	3
339.188	1	6
339.359	1	3
339.530	1	4
339.701	1	12
339.872	1	10
340.043	1	9
340.214	1	0
340.385	1	-5
340.556	1	2
340.727	1	17
340.898	1	10
341.069	1	11
341.240	1	10
341.411	1	12
341.582	1	-4
341.753	1	23
341.924	1	19
342.095	1	9
342.266	1	9
342.437	1	13
342.608	1	10
342.779	1	14
342.950	1	4
343.121	1	19
343.292	1	9
343.463	1	8
343.634	1	-3
343.805	1	3
343.976	1	6
344.147	1	2
344.318	1	14
344.489	1	-1
344.660	1	14
344.831	1	8
345.002	1	19
345.173	1	0
345.344	1	6
345.515	1	-5
345.686	1	2
345.857	1	13
346.028	1	10
346.199	1	4
346.370	1	21
346.541	1	1
346.712	1	5
346.883	1	7
347.054	1	-3
347.225	1	12
347.396	1	-1
347.567	1	16
347.738	1	12
347.909	1	0
348.080	1	5
348.251	1	9
348.422	1	-2
348.593	1	6
348.764	1	9
348.935	1	0
349.106	1	3
349.277	1	13
349.448	1	6
349.619	1	0
349.790	1	20
349.961	1	1
350.132	1	-1
350.303	1	11
350.474	1	7
350.645	1	9
350.816	1	9
350.987	1	1
351.157	1	10
351.328	1	0
351.499	1	25
351.670	1	9
351.841	1	19
352.012	1	22
352.183	1	-4
352.354	1	11
352.525	1	-7
352.696	1	7
352.867	1	8
353.038	1	8
353.209	1	18
353.380	1	8
353.551	1	-8
353.722	1	3
353.893	1	3
354.064	1	20
354.235	1	9
354.406	1	8
354.576	1	-2
354.747	1	0
354.918	1	10
355.089	1	6
355.260	1	6
355.431	1	0
355.602	1	7
355.773	1	2
355.944	1	9
356.115	1	-3
356.286	1	-5
356.457	1	9
356.628	1	-6
356.799	1	0
356.970	1	1
357.141	1	5
357.311	1	3
357.482	1	6
357.653	1	6
357.824	1	5
357.995	1	5
358.166	1	0
358.337	1	10
358.508	1	4
358.679	1	7
358.850	1	2
359.021	1	8
359.192	1	0
359.363	1	8
359.533	1	2
359.704	1	9
359.875	1	4
360.046	1	2
360.217	1	11
360.388	1	-8
360.559	1	8
360.730	1	-4
360.901	1	15
361.072	1	7
361.243	1	18
361.414	1	0
361.584	1	5
361.755	1	0
361.926	1	1
362.097	1	-10
362.268	1	6
362.439	1	-1
362.610	1	7
362.781	1	2
362.952	1	3
363.123	1	7
363.293	1	9
363.464	1	8
363.635	1	1
363.806	1	5
363.977	1	6
364.148	1	3
364.319	1	-1
364.490	1	-4
364.661	1	-2
364.832	1	6
365.002	1	-3
365.173	1	8
365.344	1	-6
365.515	1	2
365.686	1	8
365.857	1	-3
366.028	1	-4
366.199	1	-4
366.370	1	-17
366.540	1	-1
366.711	1	3
366.882	1	15
367.053	1	12
367.224	1	-11
367.395	1	3
367.566	1	5
367.737	1	7
367.908	1	1
368.078	1	-1
368.249	1	2
368.420	1	15
368.591	1	0
368.762	1	15
368.933	1	0
369.104	1	10
369.274	1	5
369.445	1	12
369.616	1	4
369.787	1	4
369.958	1	5
370.129	1	-2
370.300	1	2
370.471	1	9
370.641	1	8
370.812	1	0
370.983	1	2
371.154	1	17
371.325	1	2
371.496	1	4
371.667	1	4
371.837	1	11
372.008	1	-7
372.179	1	6
372.350	1	-3
372.521	1	4
372.692	1	2
372.863	1	-1
373.033	1	12
373.204	1	12
373.375	1	15
373.546	1	5
373.717	1	-2
373.888	1	-9
374.059	1	15
374.229	1	4
374.400	1	8
374.571	1	-3
374.742	1	4
374.913	1	-5
375.084	1	6
375.254	1	11
375.425	1	12
375.596	1	4
375.767	1	5
375.938	1	-2
376.109	1	0
376.279	1	3
376.450	1	3
376.621	1	5
376.792	1	-1
376.963	1	21
377.134	1	10
377.304	1	-9
377.475	1	12
377.646	1	7
377.817	1	6
377.988	1	3
378.159	1	9
378.329	1	8
378.500	1	0
378.671	1	9
378.842	1	18
379.013	1	18
379.184	1	-2
379.354	1	-1
379.525	1	9
379.696	1	1
379.867	1	9
380.038	1	14
380.209	1	-1
380.379	1	12
380.550	1	4
380.721	1	11
380.892	1	6
381.063	1	11
381.233	1	4
381.404	1	10
381.575	1	6
381.746	1	4
381.917	1	10
382.087	1	17
382.258	1	12
382.429	1	6
382.600	1	-1
382.771	1	10
382.941	1	3
383.112	1	-4
383.283	1	1
383.454	1	12
383.625	1	3
383.795	1	16
383.966	1	14
384.137	1	-5
384.308	1	9
384.479	1	12
384.649	1	6
384.820	1	4
384.991	1	20
385.162	1	7
385.333	1	2
385.503	1	4
385.674	1	6
385.845	1	5
386.016	1	15
386.187	1	5
386.357	1	-5
386.528	1	9
386.699	1	-1
386.870	1	1
387.041	1	3
387.211	1	12
387.382	1	15
387.553	1	15
387.724	1	-4
387.894	1	4
388.065	1	20
388.236	1	2
388.407	1	5
388.578	1	19
388.748	1	10
388.919	1	1
389.090	1	12
389.261	1	3
389.431	1	10
389.602	1	13
389.773	1	6
389.944	1	13
390.114	1	2
390.285	1	12
390.456	1	11
390.627	1	22
390.798	1	7
390.968	1	15
391.139	1	5
391.310	1	8
391.481	1	4
391.651	1	11
391.822	1	2
391.993	1	-10
392.164	1	1
392.334	1	7
392.505	1	4
392.676	1	4
392.847	1	7
393.017	1	4
393.188	1	8
393.359	1	8
393.530	1	3
393.700	1	9
393.871	1	8
394.042	1	9
394.213	1	8
394.383	1	5
394.554	1	8
394.725	1	21
394.896	1	9
395.066	1	13
395.237	1	0
395.408	1	18
395.579	1	10
395.749	1	9
395.920	1	2
396.091	1	6
396.262	1	1
396.432	1	4
396.603	1	2
396.774	1	14
396.945	1	2
397.115	1	10
397.286	1	5
397.457	1	12
397.627	1	9
397.798	1	11
397.969	1	13
398.140	1	3
398.310	1	16
398.481	1	9
398.652	1	0
398.823	1	13
398.993	1	7
399.164	1	8
399.335	1	5
399.505	1	7
399.676	1	1
399.847	1	17
400.018	1	17
400.188	1	8
400.359	1	-2
400.530	1	19
400.700	1	9
400.871	1	15
401.042	1	5
401.213	1	18
401.383	1	15
401.554	1	16
401.725	1	3
401.895	1	9
402.066	1	4
402.237	1	18
402.408	1	16
402.578	1	14
402.749	1	21
402.920	1	4
403.090	1	4
403.261	1	7
403.432	1	20
403.603	1	15
403.773	1	16
403.944	1	5
404.115	1	14
404.285	1	13
404.456	1	9
404.627	1	19
404.797	1	9
404.968	1	14
405.139	1	9
405.310	1	18
405.480	1	13
405.651	1	13
405.822	1	2
405.992	1	21
406.163	1	10
406.334	1	26
406.504	1	10
406.675	1	16
406.846	1	11
407.016	1	21
407.187	1	15
407.358	1	18
407.528	1	15
407.699	1	9
407.870	1	15
408.041	1	14
408.211	1	14
408.382	1	3
408.553	1	15
408.723	1	16
408.894	1	2
409.065	1	14
409.235	1	1
409.406	1	17
409.577	1	9
409.747	1	11
409.918	1	15
410.089	1	16
410.259	1	14
410.430	1	13
410.601	1	12
410.771	1	17
410.942	1	9
411.113	1	18
411.283	1	8
411.454	1	18
411.625	1	16
411.795	1	22
411.966	1	21
412.137	1	18
412.307	1	3
412.478	1	2
412.649	1	21
412.819	1	13
412.990	1	11
413.161	1	17
413.331	1	27
413.502	1	18
413.672	1	4
413.843	1	15
414.014	1	5
414.184	1	15
414.355	1	12
414.526	1	18
414.696	1	23
414.867	1	25
415.038	1	12
415.208	1	3
415.379	1	9
415.550	1	12
415.720	1	21
415.891	1	10
416.062	1	18
416.232	1	30
416.403	1	7
416.573	1	25
416.744	1	24
416.915	1	11
417.085	1	12
417.256	1	13
417.427	1	24
417.597	1	17
417.768	1	11
417.939	1	19
418.109	1	18
418.280	1	12
418.450	1	24
418.621	1	16
418.792	1	11
418.962	1	16
419.133	1	21
419.304	1	18
419.474	1	12
419.645	1	20
419.815	1	18
419.986	1	22
420.157	1	19
420.327	1	7
420.498	1	3
420.669	1	7
420.839	1	20
421.010	1	8
421.180	1	21
421.351	1	3
421.522	1	8
421.692	1	11
421.863	1	21
422.033	1	16
422.204	1	12
422.375	1	22
422.545	1	22
422.716	1	13
422.886	1	27
423.057	1	20
423.228	1	12
423.398	1	26
423.569	1	13
423.740	1	22
423.910	1	13
424.081	1	14
424.251	1	12
424.422	1	27
424.593	1	13
424.763	1	23
424.934	1	15
425.104	1	22
425.275	1	17
425.445	1	11
425.616	1	16
425.787	1	18
425.957	1	22
426.128	1	18
426.298	1	5
426.469	1	26
426.640	1	11
426.810	1	15
426.981	1	11
427.151	1	22
427.322	1	21
427.493	1	22
427.663	1	18
427.834	1	10
428.004	1	26
428.175	1	15
428.345	1	26
428.516	1	30
428.687	1	11
428.857	1	-3
429.028	1	12
429.198	1	2
429.369	1	15
429.540	1	14
429.710	1	16
429.881	1	13
430.051	1	18
430.222	1	19
430.392	1	22
430.563	1	11
430.734	1	19
430.904	1	18
431.075	1	15
431.245	1	15
431.416	1	6
431.586	1	17
431.757	1	18
431.927	1	22
432.098	1	7
432.269	1	18
432.439	1	18
432.610	1	16
432.780	1	11
432.951	1	9
433.121	1	12
433.292	1	8
433.462	1	15
433.633	1	20
433.804	1	20
433.974	1	15
434.145	1	12
434.315	1	5
434.486	1	17
434.656	1	21
434.827	1	14
434.997	1	15
435.168	1	14
435.339	1	19
435.509	1	15
435.680	1	7
435.850	1	9
436.021	1	23
436.191	1	23
436.362	1	15
436.532	1	15
436.703	1	22
436.873	1	10
437.044	1	18
437.214	1	13
437.385	1	20
437.556	1	8
437.726	1	8
437.897	1	9
438.067	1	4
438.238	1	13
438.408	1	17
438.579	1	13
438.749	1	1
438.920	1	8
439.090	1	16
439.261	1	12
439.431	1	12
439.602	1	16
439.772	1	6
439.943	1	20
440.113	1	9
440.284	1	15
440.455	1	10
440.625	1	17
440.796	1	11
440.966	1	17
441.137	1	12
441.307	1	27
441.478	1	5
441.648	1	12
441.819	1	4
441.989	1	17
442.160	1	13
442.330	1	12
442.501	1	11
442.671	1	10
442.842	1	15
443.012	1	10
443.183	1	15
443.353	1	9
443.524	1	3
443.694	1	7
443.865	1	8
444.035	1	21
444.206	1	7
444.376	1	15
444.547	1	6
444.717	1	17
444.888	1	11
445.058	1	16
445.229	1	10
445.399	1	8
445.570	1	14
445.740	1	18
445.911	1	11
446.081	1	18
446.252	1	4
446.422	1	5
446.593	1	15
446.763	1	13
446.934	1	2
447.104	1	12
447.275	1	5
447.445	1	18
447.616	1	16
447.786	1	15
447.957	1	13
448.127	1	11
448.298	1	3
448.468	1	6
448.639	1	21
448.809	1	11
448.979	1	-1
449.150	1	12
449.320	1	15
449.491	1	19
449.661	1	9
449.832	1	14
450.002	1	10
450.173	1	9
450.343	1	1
450.514	1	10
450.684	1	19
450.855	1	12
451.025	1	19
451.196	1	16
451.366	1	20
451.537	1	8
451.707	1	19
451.878	1	11
452.048	1	7
452.218	1	5
452.389	1	17
452.559	1	18
452.730	1	7
452.900	1	5
453.071	1	1
453.241	1	22
453.412	1	15
453.582	1	11
453.753	1	10
453.923	1	6
454.093	1	4
454.264	1	13
454.434	1	12
454.605	1	8
454.775	1	5
454.946	1	11
455.116	1	8
455.287	1	21
455.457	1	7
455.628	1	6
455.798	1	-4
455.968	1	17
456.139	1	6
456.309	1	14
456.480	1	13
456.650	1	18
456.821	1	17
456.991	1	19
457.161	1	9
457.332	1	4
457.502	1	22
457.673	1	9
457.843	1	13
458.014	1	6
458.184	1	10
458.355	1	16
458.525	1	15
458.695	1	2
458.866	1	5
459.036	1	8
459.207	1	12
459.377	1	14
459.548	1	11
459.718	1	4
459.888	1	6
460.059	1	2
460.229	1	6
460.400	1	20
460.570	1	10
460.740	1	7
460.911	1	18
461.081	1	5
461.252	1	5
461.422	1	10
461.593	1	11
461.763	1	11
461.933	1	10
462.104	1	5
462.274	1	13
462.445	1	23
462.615	1	1
462.785	1	6
462.956	1	7
463.126	1	8
463.297	1	17
463.467	1	15
463.638	1	4
463.808	1	7
463.978	1	14
464.149	1	7
464.319	1	8
464.490	1	3
464.660	1	5
464.830	1	2
465.001	1	15
465.171	1	9
465.342	1	4
465.512	1	-1
465.682	1	5
465.853	1	14
466.023	1	4
466.194	1	10
466.364	1	11
466.534	1	2
466.705	1	9
466.875	1	12
467.045	1	16
467.216	1	13
467.386	1	12
467.557	1	11
467.727	1	5
467.897	1	15
468.068	1	3
468.238	1	7
468.409	1	-4
468.579	1	6
468.749	1	20
468.920	1	11
469.090	1	12
469.260	1	5
469.431	1	8
469.601	1	6
469.772	1	-4
469.942	1	6
470.112	1	3
470.283	1	5
470.453	1	7
470.623	1	8
470.794	1	-9
470.964	1	15
471.135	1	-1
471.305	1	2
471.475	1	4
471.646	1	18
471.816	1	11
471.986	1	0
472.157	1	7
472.327	1	3
472.497	1	3
472.668	1	1
472.838	1	5
473.009	1	18
473.179	1	0
473.349	1	7
473.520	1	7
473.690	1	12
473.860	1	-1
474.031	1	22
474.201	1	4
474.371	1	13
474.542	1	3
474.712	1	1
474.882	1	1
475.053	1	-2
475.223	1	12
475.394	1	0
475.564	1	13
475.734	1	1
475.905	1	7
476.075	1	3
476.245	1	5
476.416	1	4
476.586	1	9
476.756	1	5
476.927	1	-2
477.097	1	-2
477.267	1	17
477.438	1	2
477.608	1	4
477.778	1	3
477.949	1	10
478.119	1	12
478.289	1	11
478.460	1	4
478.630	1	11
478.800	1	-3
478.971	1	-3
479.141	1	12
479.311	1	8
479.482	1	4
479.652	1	5
479.822	1	5
479.993	1	8
480.163	1	9
480.333	1	5
480.504	1	12
480.674	1	5
480.844	1	3
481.015	1	16
481.185	1	7
481.355	1	2
481.525	1	5
481.696	1	19
481.866	1	3
482.036	1	-5
482.207	1	15
482.377	1	-3
482.547	1	4
482.718	1	11
482.888	1	3
483.058	1	13
483.229	1	9
483.399	1	0
483.569	1	0
483.740	1	6
483.910	1	10
484.080	1	10
484.250	1	4
484.421	1	0
484.591	1	8
484.761	1	-3
484.932	1	-5
485.102	1	1
485.272	1	-1
485.443	1	9
485.613	1	4
485.783	1	0
485.953	1	6
486.124	1	4
486.294	1	4
486.464	1	10
486.635	1	4
486.805	1	9
486.975	1	13
487.146	1	1
487.316	1	22
487.486	1	-1
487.656	1	15
487.827	1	8
487.997	1	-2
488.167	1	4
488.338	1	17
488.508	1	13
488.678	1	1
488.848	1	6
489.019	1	2
489.189	1	7
489.359	1	4
489.529	1	10
489.700	1	6
489.870	1	9
490.040	1	-6
490.211	1	26
490.381	1	11
490.551	1	0
490.721	1	11
490.892	1	-12
491.062	1	1
491.232	1	12
491.402	1	-1
491.573	1	13
491.743	1	8
491.913	1	8
492.084	1	-10
492.254	1	5
492.424	1	11
492.594	1	-2
492.765	1	-6
492.935	1	9
493.105	1	8
493.275	1	1
493.446	1	-7
493.616	1	7
493.786	1	-3
493.956	1	11
494.127	1	5
494.297	1	11
494.467	1	0
494.637	1	0
494.808	1	9
494.978	1	4
495.148	1	-3
495.318	1	9
495.489	1	6
495.659	1	6
495.829	1	20
495.999	1	6
496.170	1	2
496.340	1	-2
496.510	1	-4
496.680	1	3
496.851	1	4
497.021	1	5
497.191	1	12
497.361	1	10
497.532	1	1
497.702	1	-1
497.872	1	3
498.042	1	17
498.213	1	8
498.383	1	4
498.553	1	10
498.723	1	-2
498.894	1	8
499.064	1	1
499.234	1	9
499.404	1	8
499.574	1	0
499.745	1	7
499.915	1	11
500.085	1	4
500.255	1	9
500.426	1	-6
500.596	1	6
500.766	1	6
500.936	1	11
501.106	1	1
501.277	1	5
501.447	1	2
501.617	1	7
501.787	1	5
501.958	1	-6
502.128	1	1
502.298	1	0
502.468	1	11
502.638	1	6
502.809	1	9
502.979	1	4
503.149	1	10
503.319	1	8
503.489	1	1
503.660	1	8
503.830	1	-1
504.000	1	4
504.170	1	1
504.340	1	2
504.511	1	5
504.681	1	8
504.851	1	11
505.021	1	5
505.192	1	0
505.362	1	9
505.532	1	-1
505.702	1	7
505.872	1	10
506.043	1	7
506.213	1	-1
506.383	1	4
506.553	1	9
506.723	1	4
506.893	1	2
507.064	1	-2
507.234	1	6
507.404	1	1
507.574	1	-6
507.744	1	5
507.915	1	13
508.085	1	16
508.255	1	-4
508.425	1	1
508.595	1	2
508.766	1	2
508.936	1	2
509.106	1	2
509.276	1	11
509.446	1	0
509.616	1	3
509.787	1	0
509.957	1	13
510.127	1	5
510.297	1	5
510.467	1	7
510.638	1	3
510.808	1	-1
510.978	1	3
511.148	1	2
511.318	1	-2
511.488	1	6
511.659	1	3
511.829	1	4
511.999	1	13
512.169	1	17
512.339	1	2
512.509	1	7
512.680	1	-2
512.850	1	8
513.020	1	-3
513.190	1	8
513.360	1	2
513.530	1	4
513.700	1	8
513.871	1	6
514.041	1	3
514.211	1	7
514.381	1	7
514.551	1	1
514.721	1	8
514.892	1	1
515.062	1	3
515.232	1	-1
515.402	1	6
515.572	1	20
515.742	1	-4
515.912	1	-1
516.083	1	12
516.253	1	-1
516.423	1	-3
516.593	1	2
516.763	1	-1
516.933	1	-3
517.104	1	-6
517.274	1	7
517.444	1	-1
517.614	1	-5
517.784	1	4
517.954	1	20
518.124	1	18
518.294	1	3
518.465	1	-13
518.635	1	11
518.805	1	-6
518.975	1	5
519.145	1	2
519.315	1	1
519.485	1	1
519.656	1	7
519.826	1	0
519.996	1	7
520.166	1	-5
520.336	1	0
520.506	1	12
520.676	1	11
520.846	1	11
521.017	1	2
521.187	1	-2
521.357	1	-2
521.527	1	4
521.697	1	3
521.867	1	3
522.037	1	12
522.207	1	7
522.377	1	-4
522.548	1	1
522.718	1	2
522.888	1	5
523.058	1	8
523.228	1	0
523.398	1	5
523.568	1	-5
523.738	1	5
523.909	1	5
524.079	1	11
524.249	1	3
524.419	1	0
524.589	1	-6
524.759	1	0
524.929	1	-6
525.099	1	1
525.269	1	-8
525.439	1	-1
525.610	1	2
525.780	1	-6
525.950	1	9
526.120	1	8
526.290	1	15
526.460	1	5
526.630	1	4
526.800	1	-5
526.970	1	-4
527.140	1	2
527.311	1	9
527.481	1	7
527.651	1	3
527.821	1	-8
527.991	1	6
528.161	1	1
528.331	1	1
528.501	1	6
528.671	1	-5
528.841	1	13
529.011	1	-4
529.181	1	2
529.352	1	-1
529.522	1	6
529.692	1	5
529.862	1	6
530.032	1	10
530.202	1	-1
530.372	1	-1
530.542	1	4
530.712	1	11
530.882	1	-4
531.052	1	6
531.222	1	2
531.392	1	5
531.563	1	4
531.733	1	8
531.903	1	5
532.073	1	5
532.243	1	0
532.413	1	7
532.583	1	-1
532.753	1	1
532.923	1	5
533.093	1	-6
533.263	1	-4
533.433	1	-2
533.603	1	11
533.773	1	7
533.943	1	6
534.113	1	-5
534.284	1	-1
534.454	1	-4
534.624	1	8
534.794	1	6
534.964	1	-4
535.134	1	-2
535.304	1	12
535.474	1	8
535.644	1	4
535.814	1	-2
535.984	1	13
536.154	1	2
536.324	1	-4
536.494	1	2
536.664	1	10
536.834	1	-7
537.004	1	-1
537.174	1	-3
537.344	1	8
537.514	1	5
537.685	1	6
537.855	1	9
538.025	1	-5
538.195	1	0
538.365	1	1
538.535	1	-1
538.705	1	1
538.875	1	-8
539.045	1	-3
539.215	1	11
539.385	1	15
539.555	1	1
539.725	1	3
539.895	1	4
540.065	1	-4
540.235	1	-5
540.405	1	-1
540.575	1	5
540.745	1	-2
540.915	1	3
541.085	1	-5
541.255	1	3
541.425	1	-3
541.595	1	-14
541.765	1	4
541.935	1	1
542.105	1	7
542.275	1	-2
542.445	1	3
542.615	1	-2
542.785	1	-3
542.955	1	5
543.125	1	11
543.295	1	3
543.465	1	1
543.635	1	15
543.805	1	-9
543.975	1	1
544.145	1	-4
544.315	1	5
544.485	1	-7
544.655	1	-3
544.825	1	12
544.995	1	0
545.165	1	9
545.335	1	3
545.505	1	8
545.675	1	3
545.845	1	12
546.015	1	5
546.185	1	8
546.355	1	5
546.525	1	-4
546.695	1	6
546.865	1	-2
547.035	1	0
547.205	1	6
547.375	1	9
547.545	1	8
547.715	1	-5
547.885	1	-5
548.055	1	15
548.225	1	5
548.395	1	2
548.565	1	7
548.735	1	-6
548.905	1	0
549.075	1	3
549.245	1	3
549.415	1	5
549.585	1	-12
549.755	1	5
549.925	1	15
550.095	1	3
550.265	1	-4
550.435	1	2
550.605	1	6
550.775	1	7
550.945	1	-1
551.115	1	2
551.285	1	-1
551.455	1	2
551.625	1	17
551.795	1	20
551.965	1	7
552.135	1	1
552.305	1	1
552.475	1	10
552.645	1	3
552.815	1	2
552.985	1	-18
553.155	1	-4
553.325	1	-9
553.495	1	12
553.665	1	3
553.835	1	13
554.004	1	6
554.174	1	2
554.344	1	-1
554.514	1	1
554.684	1	-9
554.854	1	6
555.024	1	-5
555.194	1	11
555.364	1	-1
555.534	1	1
555.704	1	3
555.874	1	6
556.044	1	6
556.214	1	-1
556.384	1	-6
556.554	1	-4
556.724	1	2
556.894	1	-4
557.064	1	12
557.234	1	8
557.404	1	0
557.573	1	1
557.743	1	-4
557.913	1	-3
558.083	1	5
558.253	1	2
558.423	1	3
558.593	1	12
558.763	1	6
558.933	1	8
559.103	1	-3
559.273	1	6
559.443	1	-8
559.613	1	-12
559.783	1	-8
559.953	1	-3
560.122	1	3
560.292	1	-1
560.462	1	-2
560.632	1	10
560.802	1	-4
560.972	1	-8
561.142	1	-8
561.312	1	6
561.482	1	12
561.652	1	3
561.822	1	9
561.992	1	1
562.162	1	13
562.331	1	-4
562.501	1	-3
562.671	1	1
562.841	1	1
563.011	1	4
563.181	1	5
563.351	1	-3
563.521	1	3
563.691	1	2
563.861	1	-1
564.031	1	9
564.201	1	1
564.370	1	-7
564.540	1	-6
564.710	1	0
564.880	1	-1
565.050	1	6
565.220	1	5
565.390	1	2
565.560	1	3
565.730	1	-4
565.900	1	4
566.069	1	4
566.239	1	3
566.409	1	1
566.579	1	3
566.749	1	3
566.919	1	0
567.089	1	6
567.259	1	8
567.429	1	-1
567.599	1	3
567.768	1	-2
567.938	1	14
568.108	1	3
568.278	1	-1
568.448	1	-1
568.618	1	-3
568.788	1	8
568.958	1	-8
569.128	1	-10
569.297	1	5
569.467	1	-8
569.637	1	7
569.807	1	6
569.977	1	14
570.147	1	5
570.317	1	3
570.487	1	-12
570.656	1	5
570.826	1	3
570.996	1	5
571.166	1	1
571.336	1	16
571.506	1	2
571.676	1	10
571.846	1	4
572.015	1	-1
572.185	1	-2
572.355	1	7
572.525	1	0
572.695	1	6
572.865	1	4
573.035	1	11
573.205	1	6
573.374	1	3
573.544	1	5
573.714	1	7
573.884	1	4
574.054	1	-1
574.224	1	2
574.394	1	-14
574.563	1	0
574.733	1	4
574.903	1	4
575.073	1	1
575.243	1	2
575.413	1	5
575.583	1	2
575.752	1	6
575.922	1	7
576.092	1	0
576.262	1	-7
576.432	1	11
576.602	1	0
576.772	1	7
576.941	1	1
577.111	1	13
577.281	1	-2
577.451	1	-2
577.621	1	0
577.791	1	7
577.960	1	3
578.130	1	0
578.300	1	-3
578.470	1	6
578.640	1	4
578.810	1	-8
578.979	1	6
579.149	1	0
579.319	1	-2
579.489	1	-1
579.659	1	2
579.829	1	11
579.998	1	8
580.168	1	0
580.338	1	-12
580.508	1	0
580.678	1	1
580.848	1	-10
581.017	1	-6
581.187	1	4
581.357	1	-2
581.527	1	0
581.697	1	-2
581.867	1	12
582.036	1	6
582.206	1	1
582.376	1	-3
582.546	1	1
582.716	1	-19
582.885	1	3
583.055	1	-2
583.225	1	14
583.395	1	5
583.565	1	-5
583.735	1	3
583.904	1	3
584.074	1	8
584.244	1	14
584.414	1	-10
584.584	1	2
584.753	1	1
584.923	1	5
585.093	1	1
585.263	1	7
585.433	1	-6
585.602	1	-7
585.772	1	-4
585.942	1	2
586.112	1	3
586.282	1	-2
586.451	1	2
586.621	1	2
586.791	1	5
586.961	1	1
587.131	1	0
587.300	1	1
587.470	1	12
587.640	1	2
587.810	1	4
587.980	1	-10
588.149	1	-1
588.319	1	3
588.489	1	5
588.659	1	18
588.829	1	4
588.998	1	2
589.168	1	-4
589.338	1	-7
589.508	1	4
589.677	1	-1
589.847	1	13
590.017	1	2
590.187	1	4
590.357	1	3
590.526	1	-10
590.696	1	6
590.866	1	6
591.036	1	17
591.205	1	-1
591.375	1	-10
591.545	1	6
591.715	1	-6
591.885	1	0
592.054	1	3
592.224	1	9
592.394	1	-1
592.564	1	9
592.733	1	13
592.903	1	5
593.073	1	2
593.243	1	12
593.412	1	8
593.582	1	0
593.752	1	-2
593.922	1	-6
594.091	1	8
594.261	1	11
594.431	1	0
594.601	1	-6
594.771	1	-15
594.940	1	-8
595.110	1	3
595.280	1	-4
595.450	1	4
595.619	1	-2
595.789	1	0
595.959	1	2
596.129	1	12
596.298	1	5
596.468	1	-1
596.638	1	-3
596.808	1	2
596.977	1	3
597.147	1	-6
597.317	1	0
597.487	1	-1
597.656	1	-2
597.826	1	4
597.996	1	5
598.166	1	3
598.335	1	-9
598.505	1	7
598.675	1	4
598.844	1	-2
599.014	1	-7
599.184	1	9
599.354	1	2
599.523	1	12
599.693	1	7
599.863	1	6
600.033	1	-10
600.202	1	1
600.372	1	-8
600.542	1	6
600.712	1	1
600.881	1	1
601.051	1	1
601.221	1	14
601.390	1	-6
601.560	1	7
601.730	1	8
601.900	1	3
602.069	1	2
602.239	1	14
602.409	1	0
602.578	1	5
602.748	1	7
602.918	1	1
603.088	1	6
603.257	1	11
603.427	1	3
603.597	1	2
603.767	1	-5
603.936	1	-16
604.106	1	3
604.276	1	4
604.445	1	-4
604.615	1	-1
604.785	1	10
604.954	1	6
605.124	1	11
605.294	1	7
605.464	1	11
605.633	1	0
605.803	1	12
605.973	1	8
606.142	1	6
606.312	1	8
606.482	1	1
606.652	1	-2
606.821	1	2
606.991	1	11
607.161	1	6
607.330	1	-9
607.500	1	-3
607.670	1	-4
607.839	1	3
608.009	1	-2
608.179	1	-1
608.348	1	11
608.518	1	0
608.688	1	8
608.858	1	6
609.027	1	17
609.197	1	-5
609.367	1	-4
609.536	1	2
609.706	1	2
609.876	1	9
610.045	1	-2
610.215	1	7
610.385	1	3
610.554	1	11
610.724	1	4
610.894	1	8
611.063	1	6
611.233	1	5
611.403	1	12
611.572	1	4
611.742	1	-7
611.912	1	3
612.081	1	6
612.251	1	11
612.421	1	7
612.590	1	-3
612.760	1	0
612.930	1	-9
613.099	1	11
613.269	1	2
613.439	1	4
613.608	1	3
613.778	1	-2
613.948	1	5
614.117	1	-1
614.287	1	12
614.457	1	-8
614.626	1	7
614.796	1	-1
614.966	1	12
615.135	1	2
615.305	1	15
615.475	1	14
615.644	1	-3
615.814	1	0
615.984	1	11
616.153	1	-2
616.323	1	16
616.493	1	3
616.662	1	5
616.832	1	7
617.002	1	4
617.171	1	0
617.341	1	14
617.511	1	-6
617.680	1	9
617.850	1	6
618.019	1	12
618.189	1	-5
618.359	1	2
618.528	1	8
618.698	1	4
618.868	1	-1
619.037	1	2
619.207	1	5
619.377	1	-5
619.546	1	0
619.716	1	-4
619.885	1	-3
620.055	1	-11
620.225	1	17
620.394	1	3
620.564	1	7
620.734	1	1
620.903	1	22
621.073	1	10
621.242	1	8
621.412	1	3
621.582	1	10
621.751	1	0
621.921	1	12
622.091	1	4
622.260	1	6
622.430	1	12
622.599	1	14
622.769	1	-2
622.939	1	-3
623.108	1	4
623.278	1	5
623.448	1	5
623.617	1	-4
623.787	1	3
623.956	1	2
624.126	1	7
624.296	1	10
624.465	1	-1
624.635	1	7
624.804	1	0
624.974	1	1
625.144	1	0
625.313	1	9
625.483	1	8
625.652	1	-1
625.822	1	12
625.992	1	10
626.161	1	4
626.331	1	7
626.501	1	17
626.670	1	-9
626.840	1	-1
627.009	1	17
627.179	1	12
627.348	1	3
627.518	1	1
627.688	1	7
627.857	1	15
628.027	1	8
628.196	1	-1
628.366	1	-2
628.536	1	12
628.705	1	4
628.875	1	14
629.044	1	11
629.214	1	2
629.384	1	9
629.553	1	5
629.723	1	0
629.892	1	6
630.062	1	2
630.232	1	-2
630.401	1	11
630.571	1	0
630.740	1	-5
630.910	1	19
631.079	1	15
631.249	1	10
631.419	1	-6
631.588	1	5
631.758	1	11
631.927	1	-2
632.097	1	10
632.266	1	8
632.436	1	-3
632.606	1	9
632.775	1	8
632.945	1	1
633.114	1	6
633.284	1	7
633.453	1	-8
633.623	1	6
633.793	1	4
633.962	1	2
634.132	1	6
634.301	1	6
634.471	1	-2
634.640	1	0
634.810	1	11
634.979	1	6
635.149	1	7
635.319	1	-2
635.488	1	6
635.658	1	12
635.827	1	4
635.997	1	1
636.166	1	14
636.336	1	9
636.505	1	18
636.675	1	2
636.845	1	-5
637.014	1	18
637.184	1	4
637.353	1	7
637.523	1	8
637.692	1	0
637.862	1	0
638.031	1	10
638.201	1	10
638.370	1	23
638.540	1	4
638.710	1	-2
638.879	1	-2
639.049	1	8
639.218	1	3
639.388	1	6
639.557	1	21
639.727	1	7
639.896	1	14
640.066	1	14
640.235	1	11
640.405	1	6
640.574	1	10
640.744	1	4
640.914	1	13
641.083	1	0
641.253	1	-2
641.422	1	-1
641.592	1	4
641.761	1	-1
641.931	1	14
642.100	1	3
642.270	1	-7
642.439	1	5
642.609	1	12
642.778	1	-2
642.948	1	-2
643.117	1	-1
643.287	1	1
643.456	1	12
643.626	1	7
643.795	1	-4
643.965	1	6
644.134	1	3
644.304	1	8
644.473	1	6
644.643	1	8
644.812	1	3
644.982	1	3
645.151	1	7
645.321	1	-4
645.490	1	5
645.660	1	-1
645.829	1	13
645.999	1	12
646.168	1	14
646.338	1	-4
646.507	1	13
646.677	1	8
646.846	1	7
647.016	1	1
647.185	1	11
647.355	1	4
647.524	1	1
647.694	1	15
647.863	1	10
648.033	1	5
648.202	1	4
648.372	1	1
648.541	1	6
648.711	1	2
648.880	1	0
649.050	1	7
649.219	1	11
649.389	1	4
649.558	1	9
649.728	1	4
649.897	1	2
650.067	1	-13
650.236	1	4
650.406	1	15
650.575	1	16
650.745	1	-5
650.914	1	16
651.084	1	-7
651.253	1	9
651.423	1	16
651.592	1	14
651.762	1	4
651.931	1	11
652.101	1	6
652.270	1	6
652.440	1	-13
652.609	1	12
652.778	1	3
652.948	1	6
653.117	1	19
653.287	1	10
653.456	1	9
653.626	1	7
653.795	1	-3
653.965	1	-3
654.134	1	-4
654.304	1	10
654.473	1	13
654.643	1	6
654.812	1	3
654.982	1	6
655.151	1	2
655.320	1	6
655.490	1	6
655.659	1	1
655.829	1	5
655.998	1	9
656.168	1	-3
656.337	1	3
656.507	1	10
656.676	1	-2
656.846	1	10
657.015	1	-2
657.184	1	6
657.354	1	-1
657.523	1	-2
657.693	1	4
657.862	1	6
658.032	1	10
658.201	1	10
658.371	1	3
658.540	1	-1
658.709	1	0
658.879	1	5
659.048	1	16
659.218	1	3
659.387	1	3
659.557	1	2
659.726	1	-4
659.895	1	-8
660.065	1	11
660.234	1	-2
660.404	1	16
660.573	1	6
660.743	1	1
660.912	1	7
661.081	1	9
661.251	1	7
661.420	1	-3
661.590	1	-7
661.759	1	-2
661.929	1	1
662.098	1	6
662.267	1	10
662.437	1	3
662.606	1	4
662.776	1	-3
662.945	1	9
663.115	1	2
663.284	1	6
663.453	1	-5
663.623	1	1
663.792	1	-6
663.962	1	11
664.131	1	5
664.300	1	2
664.470	1	-6
664.639	1	17
664.809	1	2
664.978	1	-3
665.148	1	11
665.317	1	11
665.486	1	-2
665.656	1	13
665.825	1	2
665.995	1	2
666.164	1	10
666.333	1	-8
666.503	1	-4
666.672	1	-6
666.842	1	3
667.011	1	-2
667.180	1	0
667.350	1	3
667.519	1	1
667.689	1	5
667.858	1	14
668.027	1	3
668.197	1	-11
668.366	1	12
668.536	1	5
668.705	1	1
668.874	1	3
669.044	1	1
669.213	1	6
669.382	1	4
669.552	1	4
669.721	1	0
669.891	1	3
670.060	1	4
670.229	1	-1
670.399	1	5
670.568	1	2
670.738	1	1
670.907	1	9
671.076	1	10
671.246	1	0
671.415	1	0
671.584	1	2
671.754	1	1
671.923	1	-3
672.093	1	7
672.262	1	-4
672.431	1	1
672.601	1	4
672.770	1	-5
672.939	1	-6
673.109	1	3
673.278	1	7
673.448	1	12
673.617	1	3
673.786	1	2
