325.333	1	10
325.504	1	9
325.675	1	11
325.846	1	-5
326.017	1	6
326.188	1	13
326.359	1	1
326.531	1	11
326.702	1	17
326.873	1	3
327.044	1	4
327.215	1	9
327.386	1	13
327.557	1	15
327.728	1	7
327.899	1	10
328.070	1	6
328.241	1	13
328.412	1	-1
328.583	1	16
328.754	1	-2
328.926	1	9
329.097	1	10
329.268	1	14
329.439	1	7
329.610	1	15
329.781	1	8
329.952	1	-1
330.123	1	-5
330.294	1	12
330.465	1	8
330.636	1	22
330.807	1	7
330.978	1	16
331.149	1	7
331.320	1	14
331.492	1	12
331.663	1	12
331.834	1	20
332.005	1	9
332.176	1	9
332.347	1	11
332.518	1	10
332.689	1	14
332.860	1	10
333.031	1	2
333.202	1	0
333.373	1	18
333.544	1	12
333.715	1	9
333.886	1	5
334.057	1	25
334.228	1	4
334.399	1	4
334.570	1	13
334.741	1	9
334.912	1	14
335.084	1	12
335.255	1	17
335.426	1	10
335.597	1	14
335.768	1	12
335.939	1	16
336.110	1	7
336.281	1	7
336.452	1	11
336.623	1	12
336.794	1	18
336.965	1	22
337.136	1	13
337.307	1	13
337.478	1	3
337.649	1	19
337.820	1	9
337.991	1	19
338.162	1	12
338.333	1	16
338.504	1	10
338.675	1	13
338.846	1	20
339.017	1	7
339.188	1	14
339.359	1	14
339.530	1	12
339.701	1	16
339.872	1	4
340.043	1	21
340.214	1	-2
340.385	1	-5
340.556	1	12
340.727	1	22
340.898	1	16
341.069	1	7
341.240	1	10
341.411	1	21
341.582	1	16
341.753	1	22
341.924	1	12
342.095	1	7
342.266	1	10
342.437	1	21
342.608	1	22
342.779	1	16
342.950	1	10
343.121	1	12
343.292	1	11
343.463	1	2
343.634	1	0
343.805	1	20
343.976	1	11
344.147	1	7
344.318	1	13
344.489	1	11
344.660	1	20
344.831	1	17
345.002	1	14
345.173	1	6
345.344	1	6
345.515	1	4
345.686	1	8
345.857	1	15
346.028	1	22
346.199	1	19
346.370	1	10
346.541	1	15
346.712	1	10
346.883	1	13
347.054	1	12
347.225	1	11
347.396	1	7
347.567	1	12
347.738	1	18
347.909	1	12
348.080	1	5
348.251	1	16
348.422	1	0
348.593	1	4
348.764	1	13
348.935	1	18
349.106	1	6
349.277	1	34
349.448	1	13
349.619	1	5
349.790	1	28
349.961	1	17
350.132	1	8
350.303	1	8
350.474	1	8
350.645	1	9
350.816	1	22
350.987	1	0
351.157	1	9
351.328	1	10
351.499	1	24
351.670	1	15
351.841	1	10
352.012	1	21
352.183	1	11
352.354	1	14
352.525	1	5
352.696	1	17
352.867	1	22
353.038	1	13
353.209	1	33
353.380	1	6
353.551	1	-1
353.722	1	11
353.893	1	10
354.064	1	16
354.235	1	15
354.406	1	14
354.576	1	12
354.747	1	14
354.918	1	17
355.089	1	15
355.260	1	13
355.431	1	3
355.602	1	8
355.773	1	10
355.944	1	11
356.115	1	10
356.286	1	5
356.457	1	18
356.628	1	12
356.799	1	5
356.970	1	10
357.141	1	20
357.311	1	16
357.482	1	9
357.653	1	8
357.824	1	14
357.995	1	25
358.166	1	18
358.337	1	14
358.508	1	18
358.679	1	7
358.850	1	17
359.021	1	13
359.192	1	21
359.363	1	13
359.533	1	10
359.704	1	20
359.875	1	10
360.046	1	16
360.217	1	13
360.388	1	4
360.559	1	7
360.730	1	7
360.901	1	16
361.072	1	19
361.243	1	15
361.414	1	13
361.584	1	11
361.755	1	19
361.926	1	5
362.097	1	1
362.268	1	7
362.439	1	11
362.610	1	20
362.781	1	8
362.952	1	10
363.123	1	8
363.293	1	18
363.464	1	12
363.635	1	17
363.806	1	13
363.977	1	26
364.148	1	9
364.319	1	18
364.490	1	10
364.661	1	12
364.832	1	12
365.002	1	6
365.173	1	12
365.344	1	8
365.515	1	12
365.686	1	12
365.857	1	12
366.028	1	7
366.199	1	11
366.370	1	8
366.540	1	15
366.711	1	8
366.882	1	11
367.053	1	9
367.224	1	7
367.395	1	9
367.566	1	12
367.737	1	15
367.908	1	11
368.078	1	13
368.249	1	19
368.420	1	9
368.591	1	9
368.762	1	18
368.933	1	12
369.104	1	9
369.274	1	8
369.445	1	14
369.616	1	10
369.787	1	21
369.958	1	13
370.129	1	7
370.300	1	7
370.471	1	14
370.641	1	16
370.812	1	11
370.983	1	16
371.154	1	17
371.325	1	16
371.496	1	11
371.667	1	8
371.837	1	21
372.008	1	11
372.179	1	12
372.350	1	13
372.521	1	8
372.692	1	11
372.863	1	11
373.033	1	21
373.204	1	17
373.375	1	16
373.546	1	8
373.717	1	12
373.888	1	8
374.059	1	20
374.229	1	16
374.400	1	15
374.571	1	9
374.742	1	14
374.913	1	6
375.084	1	14
375.254	1	14
375.425	1	14
375.596	1	13
375.767	1	21
375.938	1	10
376.109	1	5
376.279	1	6
376.450	1	17
376.621	1	22
376.792	1	10
376.963	1	17
377.134	1	20
377.304	1	3
377.475	1	19
377.646	1	6
377.817	1	20
377.988	1	7
378.159	1	6
378.329	1	10
378.500	1	12
378.671	1	16
378.842	1	20
379.013	1	27
379.184	1	13
379.354	1	12
379.525	1	9
379.696	1	12
379.867	1	17
380.038	1	16
380.209	1	13
380.379	1	27
380.550	1	9
380.721	1	17
380.892	1	20
381.063	1	11
381.233	1	19
381.404	1	25
381.575	1	19
381.746	1	12
381.917	1	18
382.087	1	26
382.258	1	19
382.429	1	23
382.600	1	11
382.771	1	13
382.941	1	15
383.112	1	11
383.283	1	19
383.454	1	20
383.625	1	14
383.795	1	12
383.966	1	18
384.137	1	9
384.308	1	18
384.479	1	24
384.649	1	19
384.820	1	15
384.991	1	25
385.162	1	17
385.333	1	9
385.503	1	11
385.674	1	21
385.845	1	11
386.016	1	23
386.187	1	13
386.357	1	15
386.528	1	22
386.699	1	7
386.870	1	16
387.041	1	22
387.211	1	21
387.382	1	22
387.553	1	18
387.724	1	6
387.894	1	10
388.065	1	13
388.236	1	28
388.407	1	32
388.578	1	23
388.748	1	28
388.919	1	19
389.090	1	20
389.261	1	16
389.431	1	39
389.602	1	24
389.773	1	10
389.944	1	27
390.114	1	15
390.285	1	17
390.456	1	27
390.627	1	35
390.798	1	35
390.968	1	21
391.139	1	21
391.310	1	25
391.481	1	16
391.651	1	33
391.822	1	21
391.993	1	9
392.164	1	18
392.334	1	23
392.505	1	23
392.676	1	13
392.847	1	25
393.017	1	13
393.188	1	25
393.359	1	26
393.530	1	23
393.700	1	24
393.871	1	23
394.042	1	26
394.213	1	18
394.383	1	23
394.554	1	22
394.725	1	29
394.896	1	10
395.066	1	27
395.237	1	10
395.408	1	19
395.579	1	28
395.749	1	20
395.920	1	17
396.091	1	29
396.262	1	18
396.432	1	5
396.603	1	27
396.774	1	29
396.945	1	12
397.115	1	38
397.286	1	25
397.457	1	31
397.627	1	25
397.798	1	42
397.969	1	27
398.140	1	14
398.310	1	30
398.481	1	27
398.652	1	19
398.823	1	16
398.993	1	24
399.164	1	20
399.335	1	25
399.505	1	11
399.676	1	21
399.847	1	19
400.018	1	29
400.188	1	33
400.359	1	19
400.530	1	33
400.700	1	27
400.871	1	42
401.042	1	23
401.213	1	27
401.383	1	40
401.554	1	37
401.725	1	36
401.895	1	28
402.066	1	23
402.237	1	41
402.408	1	29
402.578	1	30
402.749	1	28
402.920	1	31
403.090	1	23
403.261	1	22
403.432	1	32
403.603	1	34
403.773	1	33
403.944	1	34
404.115	1	33
404.285	1	28
404.456	1	36
404.627	1	32
404.797	1	27
404.968	1	24
405.139	1	29
405.310	1	25
405.480	1	32
405.651	1	28
405.822	1	22
405.992	1	35
406.163	1	31
406.334	1	36
406.504	1	39
406.675	1	32
406.846	1	31
407.016	1	38
407.187	1	25
407.358	1	30
407.528	1	28
407.699	1	24
407.870	1	32
408.041	1	34
408.211	1	35
408.382	1	32
408.553	1	31
408.723	1	44
408.894	1	29
409.065	1	35
409.235	1	19
409.406	1	25
409.577	1	36
409.747	1	32
409.918	1	29
410.089	1	32
410.259	1	45
410.430	1	24
410.601	1	42
410.771	1	28
410.942	1	28
411.113	1	36
411.283	1	34
411.454	1	38
411.625	1	40
411.795	1	38
411.966	1	34
412.137	1	45
412.307	1	21
412.478	1	38
412.649	1	32
412.819	1	33
412.990	1	38
413.161	1	32
413.331	1	42
413.502	1	35
413.672	1	28
413.843	1	42
414.014	1	33
414.184	1	34
414.355	1	37
414.526	1	35
414.696	1	37
414.867	1	42
415.038	1	27
415.208	1	16
415.379	1	25
415.550	1	34
415.720	1	20
415.891	1	33
416.062	1	29
416.232	1	34
416.403	1	27
416.573	1	36
416.744	1	33
416.915	1	26
417.085	1	36
417.256	1	34
417.427	1	37
417.597	1	28
417.768	1	32
417.939	1	34
418.109	1	43
418.280	1	35
418.450	1	41
418.621	1	30
418.792	1	36
418.962	1	35
419.133	1	36
419.304	1	33
419.474	1	36
419.645	1	35
419.815	1	41
419.986	1	44
420.157	1	41
420.327	1	34
420.498	1	20
420.669	1	30
420.839	1	34
421.010	1	41
421.180	1	38
421.351	1	28
421.522	1	29
421.692	1	35
421.863	1	34
422.033	1	37
422.204	1	33
422.375	1	47
422.545	1	40
422.716	1	29
422.886	1	36
423.057	1	39
423.228	1	33
423.398	1	45
423.569	1	39
423.740	1	29
423.910	1	33
424.081	1	43
424.251	1	34
424.422	1	33
424.593	1	35
424.763	1	43
424.934	1	36
425.104	1	41
425.275	1	43
425.445	1	36
425.616	1	30
425.787	1	37
425.957	1	43
426.128	1	40
426.298	1	28
426.469	1	38
426.640	1	37
426.810	1	33
426.981	1	34
427.151	1	35
427.322	1	37
427.493	1	38
427.663	1	38
427.834	1	26
428.004	1	40
428.175	1	27
428.345	1	32
428.516	1	40
428.687	1	32
428.857	1	28
429.028	1	27
429.198	1	33
429.369	1	34
429.540	1	33
429.710	1	38
429.881	1	30
430.051	1	28
430.222	1	41
430.392	1	40
430.563	1	36
430.734	1	33
430.904	1	37
431.075	1	37
431.245	1	35
431.416	1	20
431.586	1	32
431.757	1	48
431.927	1	33
432.098	1	31
432.269	1	46
432.439	1	33
432.610	1	39
432.780	1	27
432.951	1	31
433.121	1	24
433.292	1	33
433.462	1	37
433.633	1	39
433.804	1	32
433.974	1	32
434.145	1	34
434.315	1	38
434.486	1	44
434.656	1	38
434.827	1	25
434.997	1	40
435.168	1	27
435.339	1	41
435.509	1	48
435.680	1	36
435.850	1	36
436.021	1	44
436.191	1	30
436.362	1	43
436.532	1	36
436.703	1	48
436.873	1	34
437.044	1	34
437.214	1	29
437.385	1	28
437.556	1	36
437.726	1	33
437.897	1	32
438.067	1	31
438.238	1	39
438.408	1	40
438.579	1	39
438.749	1	30
438.920	1	36
439.090	1	36
439.261	1	24
439.431	1	32
439.602	1	45
439.772	1	30
439.943	1	36
440.113	1	36
440.284	1	30
440.455	1	27
440.625	1	45
440.796	1	37
440.966	1	36
441.137	1	26
441.307	1	41
441.478	1	20
441.648	1	28
441.819	1	23
441.989	1	40
442.160	1	38
442.330	1	28
442.501	1	25
442.671	1	39
442.842	1	21
443.012	1	38
443.183	1	43
443.353	1	26
443.524	1	30
443.694	1	21
443.865	1	25
444.035	1	33
444.206	1	33
444.376	1	28
444.547	1	27
444.717	1	33
444.888	1	39
445.058	1	39
445.229	1	28
445.399	1	28
445.570	1	26
445.740	1	30
445.911	1	24
446.081	1	31
446.252	1	24
446.422	1	28
446.593	1	21
446.763	1	29
446.934	1	24
447.104	1	23
447.275	1	30
447.445	1	38
447.616	1	21
447.786	1	27
447.957	1	26
448.127	1	20
448.298	1	29
448.468	1	22
448.639	1	36
448.809	1	35
448.979	1	22
449.150	1	35
449.320	1	40
449.491	1	37
449.661	1	25
449.832	1	26
450.002	1	22
450.173	1	26
450.343	1	25
450.514	1	46
450.684	1	44
450.855	1	28
451.025	1	35
451.196	1	37
451.366	1	36
451.537	1	18
451.707	1	35
451.878	1	26
452.048	1	22
452.218	1	33
452.389	1	45
452.559	1	42
452.730	1	19
452.900	1	18
453.071	1	25
453.241	1	26
453.412	1	28
453.582	1	26
453.753	1	31
453.923	1	34
454.093	1	22
454.264	1	38
454.434	1	17
454.605	1	27
454.775	1	26
454.946	1	17
455.116	1	27
455.287	1	32
455.457	1	25
455.628	1	11
455.798	1	24
455.968	1	21
456.139	1	19
456.309	1	35
456.480	1	24
456.650	1	30
456.821	1	20
456.991	1	18
457.161	1	25
457.332	1	26
457.502	1	29
457.673	1	20
457.843	1	31
458.014	1	19
458.184	1	27
458.355	1	29
458.525	1	21
458.695	1	24
458.866	1	11
459.036	1	15
459.207	1	32
459.377	1	20
459.548	1	16
459.718	1	14
459.888	1	16
460.059	1	10
460.229	1	32
460.400	1	32
460.570	1	21
460.740	1	15
460.911	1	24
461.081	1	21
461.252	1	15
461.422	1	19
461.593	1	21
461.763	1	22
461.933	1	20
462.104	1	21
462.274	1	17
462.445	1	30
462.615	1	14
462.785	1	23
462.956	1	18
463.126	1	19
463.297	1	34
463.467	1	19
463.638	1	12
463.808	1	26
463.978	1	23
464.149	1	22
464.319	1	30
464.490	1	11
464.660	1	18
464.830	1	28
465.001	1	21
465.171	1	32
465.342	1	23
465.512	1	18
465.682	1	22
465.853	1	27
466.023	1	18
466.194	1	18
466.364	1	25
466.534	1	14
466.705	1	21
466.875	1	14
467.045	1	24
467.216	1	26
467.386	1	17
467.557	1	20
467.727	1	13
467.897	1	29
468.068	1	13
468.238	1	13
468.409	1	18
468.579	1	14
468.749	1	21
468.920	1	25
469.090	1	22
469.260	1	22
469.431	1	17
469.601	1	25
469.772	1	9
469.942	1	14
470.112	1	15
470.283	1	19
470.453	1	13
470.623	1	22
470.794	1	1
470.964	1	23
471.135	1	14
471.305	1	15
471.475	1	10
471.646	1	15
471.816	1	18
471.986	1	25
472.157	1	28
472.327	1	3
472.497	1	15
472.668	1	24
472.838	1	11
473.009	1	28
473.179	1	28
473.349	1	19
473.520	1	9
473.690	1	20
473.860	1	19
474.031	1	28
474.201	1	8
474.371	1	23
474.542	1	24
474.712	1	14
474.882	1	12
475.053	1	16
475.223	1	26
475.394	1	-5
475.564	1	15
475.734	1	26
475.905	1	21
476.075	1	9
476.245	1	7
476.416	1	20
476.586	1	22
476.756	1	12
476.927	1	4
477.097	1	17
477.267	1	6
477.438	1	15
477.608	1	10
477.778	1	18
477.949	1	25
478.119	1	18
478.289	1	19
478.460	1	22
478.630	1	17
478.800	1	15
478.971	1	5
479.141	1	14
479.311	1	21
479.482	1	12
479.652	1	19
479.822	1	22
479.993	1	14
480.163	1	16
480.333	1	13
480.504	1	13
480.674	1	12
480.844	1	15
481.015	1	19
481.185	1	14
481.355	1	19
481.525	1	12
481.696	1	22
481.866	1	16
482.036	1	8
482.207	1	22
482.377	1	11
482.547	1	22
482.718	1	11
482.888	1	12
483.058	1	18
483.229	1	22
483.399	1	19
483.569	1	10
483.740	1	14
483.910	1	4
484.080	1	17
484.250	1	18
484.421	1	16
484.591	1	18
484.761	1	18
484.932	1	9
485.102	1	14
485.272	1	8
485.443	1	10
485.613	1	7
485.783	1	14
485.953	1	13
486.124	1	19
486.294	1	19
486.464	1	19
486.635	1	11
486.805	1	13
486.975	1	20
487.146	1	8
487.316	1	23
487.486	1	15
487.656	1	28
487.827	1	12
487.997	1	10
488.167	1	17
488.338	1	28
488.508	1	19
488.678	1	15
488.848	1	13
489.019	1	20
489.189	1	21
489.359	1	14
489.529	1	14
489.700	1	5
489.870	1	11
490.040	1	15
490.211	1	32
490.381	1	20
490.551	1	8
490.721	1	21
490.892	1	7
491.062	1	15
491.232	1	13
491.402	1	15
491.573	1	11
491.743	1	17
491.913	1	20
492.084	1	7
492.254	1	16
492.424	1	18
492.594	1	7
492.765	1	8
492.935	1	22
493.105	1	16
493.275	1	13
493.446	1	8
493.616	1	14
493.786	1	7
493.956	1	21
494.127	1	12
494.297	1	15
494.467	1	19
494.637	1	10
494.808	1	23
494.978	1	11
495.148	1	7
495.318	1	17
495.489	1	6
495.659	1	8
495.829	1	9
495.999	1	6
496.170	1	5
496.340	1	12
496.510	1	3
496.680	1	15
496.851	1	15
497.021	1	21
497.191	1	14
497.361	1	13
497.532	1	8
497.702	1	16
497.872	1	6
498.042	1	10
498.213	1	18
498.383	1	16
498.553	1	12
498.723	1	4
498.894	1	17
499.064	1	12
499.234	1	17
499.404	1	10
499.574	1	1
499.745	1	11
499.915	1	26
500.085	1	7
500.255	1	18
500.426	1	11
500.596	1	13
500.766	1	14
500.936	1	18
501.106	1	2
501.277	1	11
501.447	1	12
501.617	1	8
501.787	1	11
501.958	1	-3
502.128	1	22
502.298	1	7
502.468	1	13
502.638	1	13
502.809	1	20
502.979	1	11
503.149	1	15
503.319	1	10
503.489	1	12
503.660	1	10
503.830	1	7
504.000	1	6
504.170	1	11
504.340	1	15
504.511	1	13
504.681	1	13
504.851	1	17
505.021	1	21
505.192	1	16
505.362	1	18
505.532	1	-3
505.702	1	10
505.872	1	12
506.043	1	16
506.213	1	-3
506.383	1	10
506.553	1	15
506.723	1	10
506.893	1	12
507.064	1	15
507.234	1	10
507.404	1	9
507.574	1	-2
507.744	1	10
507.915	1	14
508.085	1	16
508.255	1	5
508.425	1	16
508.595	1	14
508.766	1	8
508.936	1	12
509.106	1	4
509.276	1	7
509.446	1	11
509.616	1	7
509.787	1	10
509.957	1	12
510.127	1	6
510.297	1	9
510.467	1	4
510.638	1	11
510.808	1	6
510.978	1	7
511.148	1	14
511.318	1	8
511.488	1	13
511.659	1	13
511.829	1	5
511.999	1	16
512.169	1	21
512.339	1	12
512.509	1	3
512.680	1	1
512.850	1	9
513.020	1	12
513.190	1	6
513.360	1	13
513.530	1	15
513.700	1	14
513.871	1	10
514.041	1	14
514.211	1	25
514.381	1	2
514.551	1	7
514.721	1	11
514.892	1	9
515.062	1	-4
515.232	1	2
515.402	1	13
515.572	1	15
515.742	1	7
515.912	1	9
516.083	1	16
516.253	1	6
516.423	1	5
516.593	1	9
516.763	1	2
516.933	1	6
517.104	1	-3
517.274	1	18
517.444	1	-2
517.614	1	3
517.784	1	18
517.954	1	15
518.124	1	20
518.294	1	8
518.465	1	9
518.635	1	11
518.805	1	3
518.975	1	5
519.145	1	3
519.315	1	9
519.485	1	14
519.656	1	1
519.826	1	10
519.996	1	9
520.166	1	2
520.336	1	-10
520.506	1	8
520.676	1	-1
520.846	1	14
521.017	1	11
521.187	1	12
521.357	1	0
521.527	1	-1
521.697	1	10
521.867	1	-4
522.037	1	13
522.207	1	2
522.377	1	2
522.548	1	7
522.718	1	10
522.888	1	13
523.058	1	14
523.228	1	3
523.398	1	22
523.568	1	-7
523.738	1	-5
523.909	1	10
524.079	1	13
524.249	1	16
524.419	1	0
524.589	1	1
524.759	1	6
524.929	1	5
525.099	1	9
525.269	1	2
525.439	1	0
525.610	1	11
525.780	1	3
525.950	1	10
526.120	1	19
526.290	1	23
526.460	1	2
526.630	1	5
526.800	1	0
526.970	1	4
527.140	1	13
527.311	1	12
527.481	1	8
527.651	1	15
527.821	1	-6
527.991	1	10
528.161	1	16
528.331	1	4
528.501	1	10
528.671	1	5
528.841	1	7
529.011	1	5
529.181	1	0
529.352	1	4
529.522	1	11
529.692	1	8
529.862	1	4
530.032	1	16
530.202	1	3
530.372	1	12
530.542	1	7
530.712	1	11
530.882	1	-6
531.052	1	8
531.222	1	10
531.392	1	3
531.563	1	-6
531.733	1	14
531.903	1	0
532.073	1	12
532.243	1	15
532.413	1	8
532.583	1	-4
532.753	1	3
532.923	1	14
533.093	1	9
533.263	1	2
533.433	1	6
533.603	1	17
533.773	1	14
533.943	1	5
534.113	1	-3
534.284	1	6
534.454	1	3
534.624	1	5
534.794	1	-1
534.964	1	4
535.134	1	9
535.304	1	14
535.474	1	9
535.644	1	3
535.814	1	5
535.984	1	7
536.154	1	6
536.324	1	-3
536.494	1	10
536.664	1	9
536.834	1	4
537.004	1	11
537.174	1	1
537.344	1	10
537.514	1	9
537.685	1	8
537.855	1	9
538.025	1	10
538.195	1	-3
538.365	1	5
538.535	1	2
538.705	1	-4
538.875	1	8
539.045	1	8
539.215	1	14
539.385	1	11
539.555	1	12
539.725	1	-1
539.895	1	8
540.065	1	5
540.235	1	1
540.405	1	7
540.575	1	13
540.745	1	5
540.915	1	8
541.085	1	8
541.255	1	9
541.425	1	-2
541.595	1	-4
541.765	1	2
541.935	1	15
542.105	1	14
542.275	1	-3
542.445	1	-1
542.615	1	9
542.785	1	6
542.955	1	1
543.125	1	4
543.295	1	9
543.465	1	6
543.635	1	-1
543.805	1	1
543.975	1	-1
544.145	1	5
544.315	1	12
544.485	1	-2
544.655	1	8
544.825	1	5
544.995	1	-2
545.165	1	10
545.335	1	9
545.505	1	8
545.675	1	6
545.845	1	18
546.015	1	3
546.185	1	12
546.355	1	8
546.525	1	2
546.695	1	12
546.865	1	14
547.035	1	3
547.205	1	6
547.375	1	8
547.545	1	7
547.715	1	4
547.885	1	-1
548.055	1	17
548.225	1	1
548.395	1	-7
548.565	1	8
548.735	1	-6
548.905	1	21
549.075	1	8
549.245	1	13
549.415	1	3
549.585	1	11
549.755	1	5
549.925	1	8
550.095	1	6
550.265	1	13
550.435	1	12
550.605	1	3
550.775	1	4
550.945	1	9
551.115	1	6
551.285	1	3
551.455	1	11
551.625	1	9
551.795	1	13
551.965	1	2
552.135	1	7
552.305	1	4
552.475	1	6
552.645	1	-1
552.815	1	8
552.985	1	-7
553.155	1	5
553.325	1	-2
553.495	1	4
553.665	1	8
553.835	1	16
554.004	1	13
554.174	1	-7
554.344	1	1
554.514	1	4
554.684	1	2
554.854	1	5
555.024	1	-3
555.194	1	12
555.364	1	1
555.534	1	-1
555.704	1	10
555.874	1	8
556.044	1	12
556.214	1	0
556.384	1	6
556.554	1	1
556.724	1	7
556.894	1	-4
557.064	1	4
557.234	1	4
557.404	1	-1
557.573	1	8
557.743	1	-6
557.913	1	0
558.083	1	4
558.253	1	2
558.423	1	11
558.593	1	22
558.763	1	5
558.933	1	2
559.103	1	5
559.273	1	1
559.443	1	4
559.613	1	-8
559.783	1	6
559.953	1	-3
560.122	1	5
560.292	1	4
560.462	1	-2
560.632	1	11
560.802	1	3
560.972	1	-2
561.142	1	-4
561.312	1	-7
561.482	1	10
561.652	1	14
561.822	1	15
561.992	1	8
562.162	1	16
562.331	1	9
562.501	1	-3
562.671	1	-6
562.841	1	9
563.011	1	-2
563.181	1	4
563.351	1	2
563.521	1	16
563.691	1	0
563.861	1	2
564.031	1	8
564.201	1	8
564.370	1	3
564.540	1	-1
564.710	1	8
564.880	1	-8
565.050	1	2
565.220	1	4
565.390	1	5
565.560	1	9
565.730	1	1
565.900	1	7
566.069	1	-2
566.239	1	4
566.409	1	-1
566.579	1	8
566.749	1	12
566.919	1	-2
567.089	1	2
567.259	1	13
567.429	1	2
567.599	1	5
567.768	1	-7
567.938	1	9
568.108	1	0
568.278	1	9
568.448	1	5
568.618	1	16
568.788	1	8
568.958	1	-3
569.128	1	2
569.297	1	12
569.467	1	5
569.637	1	12
569.807	1	13
569.977	1	9
570.147	1	6
570.317	1	8
570.487	1	-3
570.656	1	8
570.826	1	2
570.996	1	1
571.166	1	6
571.336	1	13
571.506	1	4
571.676	1	4
571.846	1	2
572.015	1	-2
572.185	1	2
572.355	1	5
572.525	1	5
572.695	1	10
572.865	1	9
573.035	1	15
573.205	1	-3
573.374	1	6
573.544	1	0
573.714	1	14
573.884	1	-4
574.054	1	9
574.224	1	17
574.394	1	-6
574.563	1	2
574.733	1	6
574.903	1	8
575.073	1	10
575.243	1	7
575.413	1	7
575.583	1	6
575.752	1	9
575.922	1	9
576.092	1	4
576.262	1	5
576.432	1	12
576.602	1	7
576.772	1	1
576.941	1	1
577.111	1	6
577.281	1	1
577.451	1	2
577.621	1	-2
577.791	1	14
577.960	1	14
578.130	1	5
578.300	1	7
578.470	1	11
578.640	1	2
578.810	1	0
578.979	1	5
579.149	1	6
579.319	1	4
579.489	1	4
579.659	1	21
579.829	1	8
579.998	1	14
580.168	1	4
580.338	1	-9
580.508	1	13
580.678	1	1
580.848	1	-3
581.017	1	6
581.187	1	11
581.357	1	13
581.527	1	8
581.697	1	6
581.867	1	5
582.036	1	10
582.206	1	1
582.376	1	0
582.546	1	-5
582.716	1	-1
582.885	1	7
583.055	1	11
583.225	1	16
583.395	1	5
583.565	1	7
583.735	1	10
583.904	1	4
584.074	1	7
584.244	1	7
584.414	1	2
584.584	1	9
584.753	1	5
584.923	1	14
585.093	1	-7
585.263	1	12
585.433	1	-1
585.602	1	9
585.772	1	9
585.942	1	8
586.112	1	1
586.282	1	7
586.451	1	4
586.621	1	7
586.791	1	13
586.961	1	10
587.131	1	2
587.300	1	1
587.470	1	14
587.640	1	4
587.810	1	7
587.980	1	4
588.149	1	6
588.319	1	4
588.489	1	9
588.659	1	21
588.829	1	14
588.998	1	5
589.168	1	10
589.338	1	7
589.508	1	5
589.677	1	-8
589.847	1	16
590.017	1	12
590.187	1	10
590.357	1	-1
590.526	1	10
590.696	1	10
590.866	1	5
591.036	1	13
591.205	1	4
591.375	1	-8
591.545	1	20
591.715	1	-5
591.885	1	2
592.054	1	4
592.224	1	9
592.394	1	0
592.564	1	4
592.733	1	22
592.903	1	10
593.073	1	2
593.243	1	10
593.412	1	10
593.582	1	2
593.752	1	5
593.922	1	-1
594.091	1	5
594.261	1	5
594.431	1	9
594.601	1	-3
594.771	1	-1
594.940	1	-3
595.110	1	6
595.280	1	2
595.450	1	16
595.619	1	-2
595.789	1	0
595.959	1	6
596.129	1	11
596.298	1	15
596.468	1	2
596.638	1	-6
596.808	1	2
596.977	1	3
597.147	1	3
597.317	1	5
597.487	1	-4
597.656	1	-3
597.826	1	-9
597.996	1	2
598.166	1	6
598.335	1	0
598.505	1	12
598.675	1	-4
598.844	1	0
599.014	1	4
599.184	1	16
599.354	1	15
599.523	1	3
599.693	1	6
599.863	1	5
600.033	1	-9
600.202	1	1
600.372	1	2
600.542	1	0
600.712	1	6
600.881	1	1
601.051	1	13
601.221	1	11
601.390	1	-1
601.560	1	3
601.730	1	6
601.900	1	-4
602.069	1	5
602.239	1	17
602.409	1	-1
602.578	1	1
602.748	1	7
602.918	1	6
603.088	1	6
603.257	1	11
603.427	1	-4
603.597	1	4
603.767	1	3
603.936	1	-4
604.106	1	5
604.276	1	12
604.445	1	8
604.615	1	-1
604.785	1	10
604.954	1	2
605.124	1	14
605.294	1	3
605.464	1	13
605.633	1	5
605.803	1	11
605.973	1	15
606.142	1	8
606.312	1	4
606.482	1	6
606.652	1	0
606.821	1	4
606.991	1	16
607.161	1	6
607.330	1	1
607.500	1	10
607.670	1	5
607.839	1	9
608.009	1	14
608.179	1	2
608.348	1	14
608.518	1	8
608.688	1	4
608.858	1	14
609.027	1	18
609.197	1	-10
609.367	1	0
609.536	1	6
609.706	1	5
609.876	1	8
610.045	1	2
610.215	1	7
610.385	1	4
610.554	1	6
610.724	1	3
610.894	1	1
611.063	1	8
611.233	1	5
611.403	1	11
611.572	1	4
611.742	1	4
611.912	1	-5
612.081	1	13
612.251	1	7
612.421	1	9
612.590	1	2
612.760	1	12
612.930	1	5
613.099	1	9
613.269	1	3
613.439	1	11
613.608	1	8
613.778	1	7
613.948	1	1
614.117	1	2
614.287	1	1
614.457	1	8
614.626	1	3
614.796	1	14
614.966	1	15
615.135	1	17
615.305	1	9
615.475	1	11
615.644	1	0
615.814	1	4
615.984	1	11
616.153	1	-5
616.323	1	13
616.493	1	1
616.662	1	4
616.832	1	4
617.002	1	5
617.171	1	8
617.341	1	9
617.511	1	1
617.680	1	11
617.850	1	3
618.019	1	8
618.189	1	-1
618.359	1	3
618.528	1	4
618.698	1	2
618.868	1	5
619.037	1	5
619.207	1	7
619.377	1	-1
619.546	1	1
619.716	1	-2
619.885	1	10
620.055	1	2
620.225	1	11
620.394	1	8
620.564	1	2
620.734	1	-4
620.903	1	9
621.073	1	11
621.242	1	9
621.412	1	-2
621.582	1	12
621.751	1	10
621.921	1	7
622.091	1	10
622.260	1	4
622.430	1	17
622.599	1	18
622.769	1	7
622.939	1	10
623.108	1	7
623.278	1	5
623.448	1	6
623.617	1	6
623.787	1	1
623.956	1	9
624.126	1	3
624.296	1	2
624.465	1	2
624.635	1	17
624.804	1	1
624.974	1	3
625.144	1	8
625.313	1	14
625.483	1	12
625.652	1	5
625.822	1	25
625.992	1	8
626.161	1	4
626.331	1	18
626.501	1	19
626.670	1	-8
626.840	1	2
627.009	1	17
627.179	1	9
627.348	1	-2
627.518	1	7
627.688	1	12
627.857	1	14
628.027	1	2
628.196	1	0
628.366	1	12
628.536	1	8
628.705	1	-3
628.875	1	8
629.044	1	11
629.214	1	10
629.384	1	2
629.553	1	4
629.723	1	8
629.892	1	8
630.062	1	3
630.232	1	9
630.401	1	8
630.571	1	12
630.740	1	15
630.910	1	15
631.079	1	12
631.249	1	14
631.419	1	-4
631.588	1	8
631.758	1	3
631.927	1	3
632.097	1	4
632.266	1	12
632.436	1	9
632.606	1	5
632.775	1	12
632.945	1	7
633.114	1	6
633.284	1	7
633.453	1	-5
633.623	1	5
633.793	1	23
633.962	1	6
634.132	1	16
634.301	1	6
634.471	1	2
634.640	1	6
634.810	1	10
634.979	1	19
635.149	1	11
635.319	1	1
635.488	1	10
635.658	1	7
635.827	1	15
635.997	1	12
636.166	1	22
636.336	1	8
636.505	1	14
636.675	1	10
636.845	1	3
637.014	1	24
637.184	1	11
637.353	1	9
637.523	1	17
637.692	1	2
637.862	1	11
638.031	1	12
638.201	1	9
638.370	1	14
638.540	1	4
638.710	1	9
638.879	1	4
639.049	1	16
639.218	1	7
639.388	1	3
639.557	1	9
639.727	1	15
639.896	1	12
640.066	1	17
640.235	1	12
640.405	1	12
640.574	1	11
640.744	1	5
640.914	1	8
641.083	1	8
641.253	1	10
641.422	1	4
641.592	1	9
641.761	1	10
641.931	1	18
642.100	1	7
642.270	1	-2
642.439	1	3
642.609	1	16
642.778	1	-6
642.948	1	14
643.117	1	0
643.287	1	5
643.456	1	2
643.626	1	8
643.795	1	-5
643.965	1	17
644.134	1	-6
644.304	1	15
644.473	1	11
644.643	1	11
644.812	1	3
644.982	1	12
645.151	1	11
645.321	1	9
645.490	1	6
645.660	1	-2
645.829	1	13
645.999	1	11
646.168	1	12
646.338	1	3
646.507	1	10
646.677	1	5
646.846	1	3
647.016	1	9
647.185	1	5
647.355	1	13
647.524	1	4
647.694	1	2
647.863	1	8
648.033	1	13
648.202	1	3
648.372	1	10
648.541	1	2
648.711	1	11
648.880	1	5
649.050	1	1
649.219	1	18
649.389	1	7
649.558	1	16
649.728	1	2
649.897	1	10
650.067	1	-3
650.236	1	2
650.406	1	17
650.575	1	11
650.745	1	5
650.914	1	15
651.084	1	5
651.253	1	8
651.423	1	18
651.592	1	10
651.762	1	9
651.931	1	15
652.101	1	6
652.270	1	11
652.440	1	-8
652.609	1	14
652.778	1	6
652.948	1	12
653.117	1	9
653.287	1	13
653.456	1	10
653.626	1	14
653.795	1	4
653.965	1	11
654.134	1	2
654.304	1	6
654.473	1	12
654.643	1	-2
654.812	1	5
654.982	1	-1
655.151	1	8
655.320	1	13
655.490	1	4
655.659	1	-2
655.829	1	0
655.998	1	6
656.168	1	6
656.337	1	9
656.507	1	5
656.676	1	0
656.846	1	11
657.015	1	6
657.184	1	4
657.354	1	14
657.523	1	4
657.693	1	2
657.862	1	4
658.032	1	11
658.201	1	20
658.371	1	10
658.540	1	0
658.709	1	8
658.879	1	-2
659.048	1	16
659.218	1	12
659.387	1	1
659.557	1	2
659.726	1	8
659.895	1	1
660.065	1	8
660.234	1	8
660.404	1	6
660.573	1	11
660.743	1	-2
660.912	1	4
661.081	1	7
661.251	1	10
661.420	1	7
661.590	1	6
661.759	1	4
661.929	1	10
662.098	1	1
662.267	1	14
662.437	1	3
662.606	1	7
662.776	1	3
662.945	1	7
663.115	1	3
663.284	1	2
663.453	1	6
663.623	1	-3
663.792	1	-6
663.962	1	4
664.131	1	15
664.300	1	2
664.470	1	2
664.639	1	17
664.809	1	3
664.978	1	-6
665.148	1	15
665.317	1	10
665.486	1	4
665.656	1	8
665.825	1	4
665.995	1	-1
666.164	1	22
666.333	1	11
666.503	1	11
666.672	1	9
666.842	1	0
667.011	1	14
667.180	1	9
667.350	1	7
667.519	1	3
667.689	1	8
667.858	1	7
668.027	1	3
668.197	1	3
668.366	1	10
668.536	1	12
668.705	1	3
668.874	1	14
669.044	1	2
669.213	1	3
669.382	1	7
669.552	1	-2
669.721	1	12
669.891	1	3
670.060	1	22
670.229	1	9
670.399	1	1
670.568	1	-5
670.738	1	7
670.907	1	8
671.076	1	7
671.246	1	6
671.415	1	2
671.584	1	12
671.754	1	9
671.923	1	6
672.093	1	5
672.262	1	-1
672.431	1	-4
672.601	1	-2
672.770	1	5
672.939	1	-1
673.109	1	15
673.278	1	7
673.448	1	11
673.617	1	6
673.786	1	7
