325.333	1	19
325.504	1	13
325.675	1	-1
325.846	1	-4
326.017	1	6
326.188	1	7
326.359	1	2
326.531	1	2
326.702	1	9
326.873	1	8
327.044	1	4
327.215	1	10
327.386	1	2
327.557	1	10
327.728	1	7
327.899	1	7
328.070	1	19
328.241	1	4
328.412	1	-2
328.583	1	10
328.754	1	4
328.926	1	7
329.097	1	7
329.268	1	12
329.439	1	-5
329.610	1	14
329.781	1	7
329.952	1	4
330.123	1	2
330.294	1	17
330.465	1	7
330.636	1	17
330.807	1	16
330.978	1	14
331.149	1	-4
331.320	1	14
331.492	1	4
331.663	1	2
331.834	1	5
332.005	1	1
332.176	1	-2
332.347	1	14
332.518	1	5
332.689	1	-2
332.860	1	13
333.031	1	-1
333.202	1	8
333.373	1	9
333.544	1	6
333.715	1	7
333.886	1	4
334.057	1	22
334.228	1	5
334.399	1	-4
334.570	1	7
334.741	1	-1
334.912	1	6
335.084	1	11
335.255	1	6
335.426	1	7
335.597	1	5
335.768	1	8
335.939	1	18
336.110	1	7
336.281	1	15
336.452	1	4
336.623	1	12
336.794	1	5
336.965	1	13
337.136	1	9
337.307	1	7
337.478	1	-2
337.649	1	13
337.820	1	8
337.991	1	12
338.162	1	13
338.333	1	13
338.504	1	17
338.675	1	3
338.846	1	11
339.017	1	5
339.188	1	-1
339.359	1	3
339.530	1	4
339.701	1	15
339.872	1	10
340.043	1	7
340.214	1	8
340.385	1	-6
340.556	1	4
340.727	1	17
340.898	1	18
341.069	1	4
341.240	1	14
341.411	1	6
341.582	1	-2
341.753	1	15
341.924	1	10
342.095	1	12
342.266	1	8
342.437	1	16
342.608	1	5
342.779	1	1
342.950	1	5
343.121	1	5
343.292	1	5
343.463	1	10
343.634	1	6
343.805	1	9
343.976	1	6
344.147	1	2
344.318	1	14
344.489	1	7
344.660	1	11
344.831	1	-7
345.002	1	10
345.173	1	1
345.344	1	10
345.515	1	-3
345.686	1	5
345.857	1	8
346.028	1	8
346.199	1	7
346.370	1	8
346.541	1	7
346.712	1	10
346.883	1	16
347.054	1	3
347.225	1	11
347.396	1	7
347.567	1	8
347.738	1	3
347.909	1	2
348.080	1	6
348.251	1	7
348.422	1	-2
348.593	1	6
348.764	1	5
348.935	1	3
349.106	1	-7
349.277	1	20
349.448	1	11
349.619	1	3
349.790	1	14
349.961	1	12
350.132	1	3
350.303	1	4
350.474	1	3
350.645	1	3
350.816	1	7
350.987	1	-1
351.157	1	11
351.328	1	2
351.499	1	18
351.670	1	10
351.841	1	12
352.012	1	17
352.183	1	2
352.354	1	12
352.525	1	4
352.696	1	15
352.867	1	5
353.038	1	4
353.209	1	10
353.380	1	1
353.551	1	-6
353.722	1	-9
353.893	1	4
354.064	1	11
354.235	1	6
354.406	1	7
354.576	1	-11
354.747	1	5
354.918	1	20
355.089	1	5
355.260	1	9
355.431	1	3
355.602	1	0
355.773	1	-1
355.944	1	3
356.115	1	1
356.286	1	3
356.457	1	13
356.628	1	-1
356.799	1	6
356.970	1	1
357.141	1	6
357.311	1	4
357.482	1	5
357.653	1	-4
357.824	1	-2
357.995	1	2
358.166	1	5
358.337	1	6
358.508	1	4
358.679	1	0
358.850	1	11
359.021	1	1
359.192	1	0
359.363	1	-1
359.533	1	-2
359.704	1	6
359.875	1	4
360.046	1	8
360.217	1	4
360.388	1	-4
360.559	1	3
360.730	1	12
360.901	1	5
361.072	1	3
361.243	1	9
361.414	1	3
361.584	1	-7
361.755	1	2
361.926	1	5
362.097	1	-5
362.268	1	-4
362.439	1	3
362.610	1	0
362.781	1	7
362.952	1	2
363.123	1	-3
363.293	1	11
363.464	1	3
363.635	1	19
363.806	1	4
363.977	1	16
364.148	1	8
364.319	1	6
364.490	1	0
364.661	1	-9
364.832	1	4
365.002	1	-8
365.173	1	3
365.344	1	-3
365.515	1	2
365.686	1	0
365.857	1	-4
366.028	1	2
366.199	1	4
366.370	1	-7
366.540	1	8
366.711	1	1
366.882	1	12
367.053	1	7
367.224	1	-3
367.395	1	1
367.566	1	2
367.737	1	12
367.908	1	2
368.078	1	3
368.249	1	-4
368.420	1	2
368.591	1	5
368.762	1	10
368.933	1	9
369.104	1	1
369.274	1	-2
369.445	1	6
369.616	1	6
369.787	1	10
369.958	1	6
370.129	1	10
370.300	1	4
370.471	1	9
370.641	1	7
370.812	1	-2
370.983	1	0
371.154	1	8
371.325	1	7
371.496	1	5
371.667	1	4
371.837	1	7
372.008	1	-1
372.179	1	-2
372.350	1	8
372.521	1	0
372.692	1	1
372.863	1	9
373.033	1	6
373.204	1	10
373.375	1	4
373.546	1	0
373.717	1	3
373.888	1	2
374.059	1	4
374.229	1	4
374.400	1	1
374.571	1	2
374.742	1	3
374.913	1	-1
375.084	1	4
375.254	1	12
375.425	1	10
375.596	1	12
375.767	1	11
375.938	1	-9
376.109	1	0
376.279	1	1
376.450	1	10
376.621	1	9
376.792	1	7
376.963	1	6
377.134	1	2
377.304	1	-8
377.475	1	8
377.646	1	2
377.817	1	8
377.988	1	2
378.159	1	10
378.329	1	6
378.500	1	-7
378.671	1	16
378.842	1	18
379.013	1	8
379.184	1	6
379.354	1	-6
379.525	1	8
379.696	1	2
379.867	1	9
380.038	1	8
380.209	1	4
380.379	1	1
380.550	1	-4
380.721	1	15
380.892	1	4
381.063	1	11
381.233	1	12
381.404	1	19
381.575	1	16
381.746	1	-1
381.917	1	6
382.087	1	3
382.258	1	4
382.429	1	7
382.600	1	2
382.771	1	11
382.941	1	-6
383.112	1	3
383.283	1	-4
383.454	1	1
383.625	1	2
383.795	1	10
383.966	1	14
384.137	1	-2
384.308	1	6
384.479	1	8
384.649	1	0
384.820	1	10
384.991	1	18
385.162	1	12
385.333	1	-1
385.503	1	1
385.674	1	14
385.845	1	1
386.016	1	13
386.187	1	9
386.357	1	-9
386.528	1	2
386.699	1	10
386.870	1	8
387.041	1	11
387.211	1	1
387.382	1	4
387.553	1	2
387.724	1	-8
387.894	1	8
388.065	1	18
388.236	1	5
388.407	1	10
388.578	1	14
388.748	1	8
388.919	1	-5
389.090	1	10
389.261	1	-1
389.431	1	14
389.602	1	4
389.773	1	-2
389.944	1	2
390.114	1	4
390.285	1	7
390.456	1	8
390.627	1	14
390.798	1	13
390.968	1	7
391.139	1	1
391.310	1	6
391.481	1	6
391.651	1	5
391.822	1	8
391.993	1	-5
392.164	1	10
392.334	1	11
392.505	1	5
392.676	1	10
392.847	1	6
393.017	1	3
393.188	1	12
393.359	1	5
393.530	1	11
393.700	1	18
393.871	1	16
394.042	1	5
394.213	1	9
394.383	1	6
394.554	1	6
394.725	1	21
394.896	1	8
395.066	1	16
395.237	1	5
395.408	1	3
395.579	1	12
395.749	1	-2
395.920	1	4
396.091	1	10
396.262	1	5
396.432	1	6
396.603	1	1
396.774	1	8
396.945	1	12
397.115	1	17
397.286	1	9
397.457	1	18
397.627	1	10
397.798	1	13
397.969	1	9
398.140	1	4
398.310	1	21
398.481	1	0
398.652	1	0
398.823	1	1
398.993	1	18
399.164	1	-1
399.335	1	12
399.505	1	3
399.676	1	2
399.847	1	4
400.018	1	12
400.188	1	7
400.359	1	9
400.530	1	18
400.700	1	3
400.871	1	18
401.042	1	11
401.213	1	13
401.383	1	15
401.554	1	11
401.725	1	8
401.895	1	13
402.066	1	-3
402.237	1	18
402.408	1	13
402.578	1	17
402.749	1	15
402.920	1	4
403.090	1	4
403.261	1	4
403.432	1	13
403.603	1	5
403.773	1	14
403.944	1	15
404.115	1	21
404.285	1	6
404.456	1	12
404.627	1	13
404.797	1	12
404.968	1	10
405.139	1	3
405.310	1	7
405.480	1	5
405.651	1	4
405.822	1	1
405.992	1	23
406.163	1	0
406.334	1	12
406.504	1	14
406.675	1	14
406.846	1	11
407.016	1	11
407.187	1	21
407.358	1	9
407.528	1	10
407.699	1	12
407.870	1	18
408.041	1	17
408.211	1	16
408.382	1	8
408.553	1	15
408.723	1	23
408.894	1	0
409.065	1	14
409.235	1	11
409.406	1	19
409.577	1	18
409.747	1	9
409.918	1	13
410.089	1	17
410.259	1	18
410.430	1	2
410.601	1	22
410.771	1	19
410.942	1	12
411.113	1	11
411.283	1	9
411.454	1	20
411.625	1	16
411.795	1	18
411.966	1	5
412.137	1	12
412.307	1	1
412.478	1	8
412.649	1	19
412.819	1	23
412.990	1	8
413.161	1	10
413.331	1	10
413.502	1	11
413.672	1	2
413.843	1	17
414.014	1	6
414.184	1	19
414.355	1	20
414.526	1	19
414.696	1	12
414.867	1	21
415.038	1	13
415.208	1	-7
415.379	1	7
415.550	1	13
415.720	1	14
415.891	1	14
416.062	1	8
416.232	1	22
416.403	1	2
416.573	1	14
416.744	1	18
416.915	1	15
417.085	1	18
417.256	1	10
417.427	1	13
417.597	1	13
417.768	1	8
417.939	1	10
418.109	1	30
418.280	1	18
418.450	1	13
418.621	1	20
418.792	1	7
418.962	1	12
419.133	1	19
419.304	1	17
419.474	1	18
419.645	1	10
419.815	1	25
419.986	1	20
420.157	1	15
420.327	1	18
420.498	1	6
420.669	1	12
420.839	1	13
421.010	1	7
421.180	1	16
421.351	1	7
421.522	1	10
421.692	1	7
421.863	1	19
422.033	1	17
422.204	1	4
422.375	1	33
422.545	1	22
422.716	1	7
422.886	1	28
423.057	1	11
423.228	1	17
423.398	1	27
423.569	1	7
423.740	1	27
423.910	1	12
424.081	1	18
424.251	1	5
424.422	1	18
424.593	1	22
424.763	1	27
424.934	1	17
425.104	1	17
425.275	1	26
425.445	1	17
425.616	1	4
425.787	1	12
425.957	1	23
426.128	1	19
426.298	1	7
426.469	1	21
426.640	1	15
426.810	1	19
426.981	1	13
427.151	1	16
427.322	1	20
427.493	1	21
427.663	1	18
427.834	1	0
428.004	1	25
428.175	1	7
428.345	1	17
428.516	1	13
428.687	1	13
428.857	1	-1
429.028	1	13
429.198	1	7
429.369	1	19
429.540	1	16
429.710	1	18
429.881	1	14
430.051	1	9
430.222	1	19
430.392	1	3
430.563	1	15
430.734	1	15
430.904	1	11
431.075	1	18
431.245	1	3
431.416	1	-4
431.586	1	10
431.757	1	22
431.927	1	10
432.098	1	16
432.269	1	19
432.439	1	10
432.610	1	13
432.780	1	10
432.951	1	17
433.121	1	9
433.292	1	9
433.462	1	13
433.633	1	20
433.804	1	14
433.974	1	11
434.145	1	13
434.315	1	15
434.486	1	14
434.656	1	16
434.827	1	9
434.997	1	23
435.168	1	4
435.339	1	20
435.509	1	14
435.680	1	7
435.850	1	13
436.021	1	15
436.191	1	12
436.362	1	19
436.532	1	16
436.703	1	25
436.873	1	13
437.044	1	18
437.214	1	11
437.385	1	13
437.556	1	7
437.726	1	5
437.897	1	4
438.067	1	10
438.238	1	17
438.408	1	18
438.579	1	26
438.749	1	11
438.920	1	18
439.090	1	22
439.261	1	15
439.431	1	12
439.602	1	10
439.772	1	11
439.943	1	13
440.113	1	16
440.284	1	13
440.455	1	11
440.625	1	15
440.796	1	17
440.966	1	19
441.137	1	16
441.307	1	20
441.478	1	8
441.648	1	6
441.819	1	8
441.989	1	2
442.160	1	17
442.330	1	7
442.501	1	12
442.671	1	11
442.842	1	14
443.012	1	19
443.183	1	15
443.353	1	5
443.524	1	7
443.694	1	5
443.865	1	5
444.035	1	19
444.206	1	6
444.376	1	6
444.547	1	7
444.717	1	8
444.888	1	18
445.058	1	16
445.229	1	16
445.399	1	6
445.570	1	14
445.740	1	9
445.911	1	12
446.081	1	0
446.252	1	11
446.422	1	5
446.593	1	7
446.763	1	8
446.934	1	-3
447.104	1	3
447.275	1	13
447.445	1	8
447.616	1	18
447.786	1	11
447.957	1	7
448.127	1	5
448.298	1	3
448.468	1	13
448.639	1	19
448.809	1	11
448.979	1	10
449.150	1	17
449.320	1	14
449.491	1	25
449.661	1	4
449.832	1	9
450.002	1	11
450.173	1	13
450.343	1	2
450.514	1	9
450.684	1	21
450.855	1	15
451.025	1	17
451.196	1	13
451.366	1	22
451.537	1	4
451.707	1	16
451.878	1	8
452.048	1	8
452.218	1	-3
452.389	1	21
452.559	1	19
452.730	1	8
452.900	1	-3
453.071	1	13
453.241	1	15
453.412	1	3
453.582	1	10
453.753	1	22
453.923	1	10
454.093	1	-1
454.264	1	11
454.434	1	7
454.605	1	9
454.775	1	5
454.946	1	6
455.116	1	13
455.287	1	18
455.457	1	9
455.628	1	2
455.798	1	3
455.968	1	8
456.139	1	6
456.309	1	10
456.480	1	8
456.650	1	15
456.821	1	11
456.991	1	16
457.161	1	15
457.332	1	8
457.502	1	18
457.673	1	10
457.843	1	3
458.014	1	15
458.184	1	17
458.355	1	16
458.525	1	17
458.695	1	7
458.866	1	12
459.036	1	4
459.207	1	17
459.377	1	5
459.548	1	-2
459.718	1	5
459.888	1	2
460.059	1	3
460.229	1	16
460.400	1	22
460.570	1	5
460.740	1	-2
460.911	1	17
461.081	1	9
461.252	1	15
461.422	1	11
461.593	1	17
461.763	1	3
461.933	1	13
462.104	1	2
462.274	1	5
462.445	1	14
462.615	1	6
462.785	1	6
462.956	1	9
463.126	1	2
463.297	1	0
463.467	1	10
463.638	1	8
463.808	1	7
463.978	1	0
464.149	1	15
464.319	1	1
464.490	1	3
464.660	1	2
464.830	1	-2
465.001	1	13
465.171	1	2
465.342	1	2
465.512	1	4
465.682	1	9
465.853	1	2
466.023	1	7
466.194	1	12
466.364	1	15
466.534	1	3
466.705	1	1
466.875	1	10
467.045	1	8
467.216	1	18
467.386	1	11
467.557	1	3
467.727	1	4
467.897	1	1
468.068	1	1
468.238	1	1
468.409	1	7
468.579	1	7
468.749	1	17
468.920	1	11
469.090	1	8
469.260	1	5
469.431	1	2
469.601	1	14
469.772	1	-15
469.942	1	2
470.112	1	1
470.283	1	11
470.453	1	5
470.623	1	11
470.794	1	-9
470.964	1	16
471.135	1	8
471.305	1	1
471.475	1	4
471.646	1	10
471.816	1	0
471.986	1	8
472.157	1	1
472.327	1	-1
472.497	1	0
472.668	1	4
472.838	1	8
473.009	1	16
473.179	1	8
473.349	1	7
473.520	1	12
473.690	1	4
473.860	1	-1
474.031	1	14
474.201	1	3
474.371	1	13
474.542	1	9
474.712	1	8
474.882	1	2
475.053	1	7
475.223	1	12
475.394	1	-2
475.564	1	10
475.734	1	9
475.905	1	0
476.075	1	-3
476.245	1	11
476.416	1	-1
476.586	1	12
476.756	1	-1
476.927	1	6
477.097	1	0
477.267	1	10
477.438	1	5
477.608	1	2
477.778	1	4
477.949	1	-2
478.119	1	7
478.289	1	9
478.460	1	-6
478.630	1	5
478.800	1	14
478.971	1	-3
479.141	1	4
479.311	1	8
479.482	1	11
479.652	1	2
479.822	1	12
479.993	1	2
480.163	1	10
480.333	1	8
480.504	1	9
480.674	1	-1
480.844	1	2
481.015	1	17
481.185	1	4
481.355	1	7
481.525	1	9
481.696	1	17
481.866	1	16
482.036	1	6
482.207	1	18
482.377	1	1
482.547	1	8
482.718	1	7
482.888	1	5
483.058	1	12
483.229	1	9
483.399	1	-1
483.569	1	1
483.740	1	-5
483.910	1	2
484.080	1	5
484.250	1	6
484.421	1	-2
484.591	1	1
484.761	1	2
484.932	1	4
485.102	1	8
485.272	1	2
485.443	1	18
485.613	1	7
485.783	1	-2
485.953	1	10
486.124	1	6
486.294	1	6
486.464	1	-1
486.635	1	5
486.805	1	5
486.975	1	4
487.146	1	5
487.316	1	12
487.486	1	10
487.656	1	17
487.827	1	3
487.997	1	4
488.167	1	20
488.338	1	9
488.508	1	8
488.678	1	11
488.848	1	7
489.019	1	4
489.189	1	8
489.359	1	0
489.529	1	7
489.700	1	-13
489.870	1	9
490.040	1	12
490.211	1	26
490.381	1	5
490.551	1	5
490.721	1	9
490.892	1	-1
491.062	1	2
491.232	1	10
491.402	1	7
491.573	1	9
491.743	1	13
491.913	1	10
492.084	1	-5
492.254	1	5
492.424	1	7
492.594	1	-3
492.765	1	-2
492.935	1	7
493.105	1	0
493.275	1	8
493.446	1	-1
493.616	1	5
493.786	1	6
493.956	1	16
494.127	1	0
494.297	1	6
494.467	1	-1
494.637	1	6
494.808	1	4
494.978	1	3
495.148	1	-3
495.318	1	10
495.489	1	7
495.659	1	4
495.829	1	6
495.999	1	-1
496.170	1	-6
496.340	1	2
496.510	1	11
496.680	1	3
496.851	1	7
497.021	1	7
497.191	1	7
497.361	1	7
497.532	1	-2
497.702	1	0
497.872	1	4
498.042	1	8
498.213	1	11
498.383	1	8
498.553	1	4
498.723	1	3
498.894	1	5
499.064	1	3
499.234	1	9
499.404	1	6
499.574	1	9
499.745	1	-1
499.915	1	16
500.085	1	-7
500.255	1	7
500.426	1	7
500.596	1	6
500.766	1	6
500.936	1	6
501.106	1	-4
501.277	1	-1
501.447	1	7
501.617	1	3
501.787	1	14
501.958	1	-6
502.128	1	1
502.298	1	2
502.468	1	6
502.638	1	-2
502.809	1	10
502.979	1	5
503.149	1	8
503.319	1	6
503.489	1	6
503.660	1	-2
503.830	1	-10
504.000	1	3
504.170	1	4
504.340	1	3
504.511	1	4
504.681	1	5
504.851	1	2
505.021	1	10
505.192	1	0
505.362	1	4
505.532	1	-4
505.702	1	10
505.872	1	2
506.043	1	12
506.213	1	-1
506.383	1	2
506.553	1	5
506.723	1	-3
506.893	1	0
507.064	1	5
507.234	1	7
507.404	1	10
507.574	1	-7
507.744	1	4
507.915	1	1
508.085	1	10
508.255	1	-7
508.425	1	4
508.595	1	1
508.766	1	-7
508.936	1	-3
509.106	1	-4
509.276	1	15
509.446	1	-5
509.616	1	-1
509.787	1	-7
509.957	1	9
510.127	1	-2
510.297	1	0
510.467	1	1
510.638	1	4
510.808	1	0
510.978	1	0
511.148	1	11
511.318	1	8
511.488	1	6
511.659	1	-1
511.829	1	0
511.999	1	11
512.169	1	8
512.339	1	8
512.509	1	9
512.680	1	-1
512.850	1	0
513.020	1	6
513.190	1	2
513.360	1	-1
513.530	1	7
513.700	1	0
513.871	1	12
514.041	1	7
514.211	1	12
514.381	1	4
514.551	1	6
514.721	1	12
514.892	1	-2
515.062	1	10
515.232	1	-8
515.402	1	14
515.572	1	8
515.742	1	0
515.912	1	-3
516.083	1	7
516.253	1	9
516.423	1	2
516.593	1	3
516.763	1	-10
516.933	1	-5
517.104	1	-16
517.274	1	12
517.444	1	1
517.614	1	-12
517.784	1	3
517.954	1	11
518.124	1	10
518.294	1	4
518.465	1	-2
518.635	1	8
518.805	1	2
518.975	1	-4
519.145	1	3
519.315	1	5
519.485	1	14
519.656	1	-1
519.826	1	-1
519.996	1	7
520.166	1	0
520.336	1	-3
520.506	1	5
520.676	1	6
520.846	1	15
521.017	1	6
521.187	1	2
521.357	1	-1
521.527	1	-7
521.697	1	1
521.867	1	-7
522.037	1	6
522.207	1	4
522.377	1	-1
522.548	1	-2
522.718	1	10
522.888	1	5
523.058	1	6
523.228	1	-10
523.398	1	9
523.568	1	0
523.738	1	-5
523.909	1	6
524.079	1	2
524.249	1	3
524.419	1	10
524.589	1	-2
524.759	1	6
524.929	1	-9
525.099	1	3
525.269	1	-7
525.439	1	-5
525.610	1	-5
525.780	1	-5
525.950	1	17
526.120	1	7
526.290	1	5
526.460	1	-1
526.630	1	-1
526.800	1	-8
526.970	1	3
527.140	1	4
527.311	1	1
527.481	1	6
527.651	1	10
527.821	1	-3
527.991	1	9
528.161	1	3
528.331	1	-1
528.501	1	8
528.671	1	3
528.841	1	0
529.011	1	-2
529.181	1	-5
529.352	1	7
529.522	1	2
529.692	1	15
529.862	1	6
530.032	1	5
530.202	1	0
530.372	1	2
530.542	1	-3
530.712	1	2
530.882	1	-10
531.052	1	-1
531.222	1	2
531.392	1	-2
531.563	1	-1
531.733	1	14
531.903	1	-4
532.073	1	3
532.243	1	8
532.413	1	1
532.583	1	-11
532.753	1	1
532.923	1	7
533.093	1	1
533.263	1	1
533.433	1	4
533.603	1	7
533.773	1	1
533.943	1	5
534.113	1	4
534.284	1	1
534.454	1	6
534.624	1	8
534.794	1	-2
534.964	1	10
535.134	1	2
535.304	1	5
535.474	1	10
535.644	1	6
535.814	1	-5
535.984	1	9
536.154	1	1
536.324	1	-3
536.494	1	7
536.664	1	-3
536.834	1	-3
537.004	1	1
537.174	1	-5
537.344	1	7
537.514	1	7
537.685	1	5
537.855	1	4
538.025	1	8
538.195	1	-1
538.365	1	-5
538.535	1	-2
538.705	1	0
538.875	1	-3
539.045	1	2
539.215	1	6
539.385	1	3
539.555	1	0
539.725	1	-4
539.895	1	12
540.065	1	2
540.235	1	-7
540.405	1	-3
540.575	1	-1
540.745	1	4
540.915	1	0
541.085	1	-11
541.255	1	8
541.425	1	-8
541.595	1	0
541.765	1	-4
541.935	1	4
542.105	1	4
542.275	1	-6
542.445	1	-3
542.615	1	5
542.785	1	4
542.955	1	8
543.125	1	3
543.295	1	2
543.465	1	13
543.635	1	-3
543.805	1	-3
543.975	1	3
544.145	1	-5
544.315	1	6
544.485	1	-9
544.655	1	10
544.825	1	7
544.995	1	8
545.165	1	7
545.335	1	2
545.505	1	1
545.675	1	8
545.845	1	7
546.015	1	0
546.185	1	3
546.355	1	0
546.525	1	4
546.695	1	19
546.865	1	0
547.035	1	1
547.205	1	-1
547.375	1	7
547.545	1	-5
547.715	1	-6
547.885	1	-1
548.055	1	12
548.225	1	-5
548.395	1	-1
548.565	1	6
548.735	1	1
548.905	1	11
549.075	1	7
549.245	1	8
549.415	1	5
549.585	1	-4
549.755	1	4
549.925	1	17
550.095	1	-9
550.265	1	6
550.435	1	4
550.605	1	12
550.775	1	-4
550.945	1	6
551.115	1	3
551.285	1	0
551.455	1	12
551.625	1	5
551.795	1	4
551.965	1	1
552.135	1	2
552.305	1	8
552.475	1	3
552.645	1	12
552.815	1	-3
552.985	1	-7
553.155	1	0
553.325	1	5
553.495	1	3
553.665	1	7
553.835	1	13
554.004	1	5
554.174	1	-9
554.344	1	4
554.514	1	-1
554.684	1	-7
554.854	1	-3
555.024	1	-5
555.194	1	13
555.364	1	-5
555.534	1	0
555.704	1	2
555.874	1	9
556.044	1	-1
556.214	1	-3
556.384	1	0
556.554	1	-7
556.724	1	-3
556.894	1	-6
557.064	1	9
557.234	1	7
557.404	1	2
557.573	1	10
557.743	1	-12
557.913	1	-2
558.083	1	0
558.253	1	-6
558.423	1	6
558.593	1	3
558.763	1	5
558.933	1	2
559.103	1	-1
559.273	1	-2
559.443	1	-3
559.613	1	-16
559.783	1	7
559.953	1	1
560.122	1	-8
560.292	1	-2
560.462	1	-3
560.632	1	4
560.802	1	-1
560.972	1	2
561.142	1	-1
561.312	1	-1
561.482	1	7
561.652	1	-3
561.822	1	12
561.992	1	4
562.162	1	8
562.331	1	6
562.501	1	-5
562.671	1	2
562.841	1	2
563.011	1	-4
563.181	1	3
563.351	1	4
563.521	1	7
563.691	1	5
563.861	1	3
564.031	1	13
564.201	1	9
564.370	1	0
564.540	1	-6
564.710	1	-7
564.880	1	3
565.050	1	6
565.220	1	11
565.390	1	2
565.560	1	3
565.730	1	1
565.900	1	6
566.069	1	7
566.239	1	-1
566.409	1	5
566.579	1	-4
566.749	1	-4
566.919	1	-4
567.089	1	6
567.259	1	10
567.429	1	-8
567.599	1	10
567.768	1	1
567.938	1	3
568.108	1	0
568.278	1	4
568.448	1	-1
568.618	1	14
568.788	1	7
568.958	1	4
569.128	1	-5
569.297	1	2
569.467	1	-4
569.637	1	12
569.807	1	1
569.977	1	13
570.147	1	5
570.317	1	5
570.487	1	-2
570.656	1	2
570.826	1	-6
570.996	1	-7
571.166	1	14
571.336	1	10
571.506	1	-3
571.676	1	0
571.846	1	3
572.015	1	5
572.185	1	-2
572.355	1	16
572.525	1	-8
572.695	1	-1
572.865	1	9
573.035	1	7
573.205	1	7
573.374	1	9
573.544	1	0
573.714	1	-3
573.884	1	-1
574.054	1	1
574.224	1	14
574.394	1	-2
574.563	1	5
574.733	1	6
574.903	1	6
575.073	1	5
575.243	1	4
575.413	1	1
575.583	1	5
575.752	1	4
575.922	1	-1
576.092	1	1
576.262	1	3
576.432	1	8
576.602	1	8
576.772	1	4
576.941	1	4
577.111	1	4
577.281	1	-8
577.451	1	1
577.621	1	0
577.791	1	8
577.960	1	15
578.130	1	-9
578.300	1	9
578.470	1	6
578.640	1	4
578.810	1	-8
578.979	1	7
579.149	1	5
579.319	1	3
579.489	1	3
579.659	1	5
579.829	1	8
579.998	1	6
580.168	1	1
580.338	1	-4
580.508	1	3
580.678	1	3
580.848	1	-1
581.017	1	-6
581.187	1	4
581.357	1	1
581.527	1	5
581.697	1	0
581.867	1	10
582.036	1	8
582.206	1	-5
582.376	1	2
582.546	1	-4
582.716	1	-6
582.885	1	1
583.055	1	4
583.225	1	12
583.395	1	-6
583.565	1	4
583.735	1	13
583.904	1	7
584.074	1	6
584.244	1	4
584.414	1	-6
584.584	1	4
584.753	1	-3
584.923	1	5
585.093	1	-3
585.263	1	3
585.433	1	1
585.602	1	0
585.772	1	1
585.942	1	-9
586.112	1	-2
586.282	1	0
586.451	1	8
586.621	1	-3
586.791	1	10
586.961	1	-3
587.131	1	2
587.300	1	-7
587.470	1	4
587.640	1	1
587.810	1	19
587.980	1	2
588.149	1	1
588.319	1	-1
588.489	1	4
588.659	1	7
588.829	1	7
588.998	1	-1
589.168	1	4
589.338	1	4
589.508	1	-4
589.677	1	-5
589.847	1	14
590.017	1	7
590.187	1	14
590.357	1	-6
590.526	1	-7
590.696	1	3
590.866	1	8
591.036	1	7
591.205	1	0
591.375	1	-6
591.545	1	6
591.715	1	-3
591.885	1	3
592.054	1	3
592.224	1	10
592.394	1	-2
592.564	1	10
592.733	1	10
592.903	1	4
593.073	1	3
593.243	1	9
593.412	1	8
593.582	1	-5
593.752	1	0
593.922	1	3
594.091	1	9
594.261	1	4
594.431	1	11
594.601	1	-4
594.771	1	-10
594.940	1	-2
595.110	1	-1
595.280	1	-4
595.450	1	4
595.619	1	-9
595.789	1	-5
595.959	1	7
596.129	1	12
596.298	1	17
596.468	1	-3
596.638	1	1
596.808	1	0
596.977	1	15
597.147	1	4
597.317	1	-3
597.487	1	0
597.656	1	-3
597.826	1	-2
597.996	1	1
598.166	1	0
598.335	1	5
598.505	1	1
598.675	1	6
598.844	1	6
599.014	1	-2
599.184	1	15
599.354	1	3
599.523	1	5
599.693	1	-3
599.863	1	9
600.033	1	-3
600.202	1	2
600.372	1	-2
600.542	1	0
600.712	1	6
600.881	1	2
601.051	1	3
601.221	1	2
601.390	1	2
601.560	1	0
601.730	1	8
601.900	1	-5
602.069	1	-3
602.239	1	11
602.409	1	4
602.578	1	2
602.748	1	4
602.918	1	0
603.088	1	4
603.257	1	5
603.427	1	1
603.597	1	3
603.767	1	-3
603.936	1	-4
604.106	1	4
604.276	1	5
604.445	1	1
604.615	1	-7
604.785	1	9
604.954	1	1
605.124	1	8
605.294	1	9
605.464	1	13
605.633	1	4
605.803	1	-2
605.973	1	6
606.142	1	6
606.312	1	9
606.482	1	13
606.652	1	-7
606.821	1	-1
606.991	1	0
607.161	1	2
607.330	1	-6
607.500	1	-2
607.670	1	1
607.839	1	7
608.009	1	5
608.179	1	0
608.348	1	14
608.518	1	-5
608.688	1	5
608.858	1	5
609.027	1	9
609.197	1	-6
609.367	1	3
609.536	1	12
609.706	1	3
609.876	1	3
610.045	1	-2
610.215	1	5
610.385	1	7
610.554	1	13
610.724	1	9
610.894	1	8
611.063	1	-3
611.233	1	4
611.403	1	3
611.572	1	-7
611.742	1	-4
611.912	1	-6
612.081	1	8
612.251	1	8
612.421	1	3
612.590	1	-1
612.760	1	9
612.930	1	-8
613.099	1	8
613.269	1	1
613.439	1	2
613.608	1	-6
613.778	1	-2
613.948	1	3
614.117	1	5
614.287	1	11
614.457	1	7
614.626	1	0
614.796	1	4
614.966	1	5
615.135	1	12
615.305	1	-1
615.475	1	6
615.644	1	-1
615.814	1	3
615.984	1	12
616.153	1	0
616.323	1	7
616.493	1	2
616.662	1	7
616.832	1	9
617.002	1	-3
617.171	1	2
617.341	1	4
617.511	1	-8
617.680	1	12
617.850	1	7
618.019	1	8
618.189	1	-3
618.359	1	2
618.528	1	4
618.698	1	-1
618.868	1	-1
619.037	1	10
619.207	1	3
619.377	1	-2
619.546	1	-5
619.716	1	3
619.885	1	6
620.055	1	-2
620.225	1	3
620.394	1	12
620.564	1	5
620.734	1	3
620.903	1	-1
621.073	1	-4
621.242	1	9
621.412	1	-1
621.582	1	19
621.751	1	4
621.921	1	11
622.091	1	-1
622.260	1	2
622.430	1	3
622.599	1	12
622.769	1	-2
622.939	1	1
623.108	1	4
623.278	1	16
623.448	1	6
623.617	1	0
623.787	1	-4
623.956	1	5
624.126	1	-4
624.296	1	7
624.465	1	1
624.635	1	13
624.804	1	4
624.974	1	2
625.144	1	2
625.313	1	3
625.483	1	11
625.652	1	-7
625.822	1	19
625.992	1	3
626.161	1	5
626.331	1	14
626.501	1	19
626.670	1	-3
626.840	1	-6
627.009	1	9
627.179	1	14
627.348	1	7
627.518	1	1
627.688	1	2
627.857	1	14
628.027	1	-3
628.196	1	-4
628.366	1	-3
628.536	1	16
628.705	1	10
628.875	1	10
629.044	1	5
629.214	1	5
629.384	1	5
629.553	1	1
629.723	1	6
629.892	1	3
630.062	1	9
630.232	1	-14
630.401	1	4
630.571	1	13
630.740	1	5
630.910	1	15
631.079	1	7
631.249	1	12
631.419	1	-1
631.588	1	14
631.758	1	9
631.927	1	4
632.097	1	3
632.266	1	-2
632.436	1	12
632.606	1	12
632.775	1	12
632.945	1	12
633.114	1	5
633.284	1	-3
633.453	1	-4
633.623	1	9
633.793	1	8
633.962	1	14
634.132	1	9
634.301	1	3
634.471	1	-2
634.640	1	9
634.810	1	15
634.979	1	7
635.149	1	4
635.319	1	5
635.488	1	3
635.658	1	9
635.827	1	12
635.997	1	-2
636.166	1	12
636.336	1	14
636.505	1	12
636.675	1	-1
636.845	1	3
637.014	1	13
637.184	1	9
637.353	1	10
637.523	1	17
637.692	1	0
637.862	1	2
638.031	1	18
638.201	1	14
638.370	1	13
638.540	1	8
638.710	1	6
638.879	1	3
639.049	1	1
639.218	1	2
639.388	1	3
639.557	1	22
639.727	1	11
639.896	1	12
640.066	1	19
640.235	1	9
640.405	1	5
640.574	1	11
640.744	1	5
640.914	1	-1
641.083	1	6
641.253	1	0
641.422	1	5
641.592	1	-5
641.761	1	8
641.931	1	9
642.100	1	4
642.270	1	2
642.439	1	0
642.609	1	0
642.778	1	-1
642.948	1	17
643.117	1	6
643.287	1	3
643.456	1	3
643.626	1	11
643.795	1	-2
643.965	1	4
644.134	1	4
644.304	1	12
644.473	1	3
644.643	1	3
644.812	1	-1
644.982	1	-3
645.151	1	10
645.321	1	1
645.490	1	15
645.660	1	-1
645.829	1	4
645.999	1	9
646.168	1	14
646.338	1	7
646.507	1	2
646.677	1	2
646.846	1	-4
647.016	1	9
647.185	1	2
647.355	1	15
647.524	1	8
647.694	1	7
647.863	1	5
648.033	1	8
648.202	1	7
648.372	1	2
648.541	1	-8
648.711	1	11
648.880	1	-1
649.050	1	11
649.219	1	8
649.389	1	3
649.558	1	9
649.728	1	6
649.897	1	5
650.067	1	-4
650.236	1	4
650.406	1	1
650.575	1	12
650.745	1	4
650.914	1	17
651.084	1	5
651.253	1	8
651.423	1	13
651.592	1	9
651.762	1	5
651.931	1	8
652.101	1	8
652.270	1	4
652.440	1	-5
652.609	1	2
652.778	1	5
652.948	1	5
653.117	1	9
653.287	1	3
653.456	1	5
653.626	1	11
653.795	1	0
653.965	1	8
654.134	1	-6
654.304	1	13
654.473	1	9
654.643	1	-4
654.812	1	4
654.982	1	4
655.151	1	9
655.320	1	1
655.490	1	2
655.659	1	5
655.829	1	2
655.998	1	9
656.168	1	0
656.337	1	4
656.507	1	1
656.676	1	0
656.846	1	13
657.015	1	10
657.184	1	5
657.354	1	13
657.523	1	1
657.693	1	-2
657.862	1	5
658.032	1	19
658.201	1	5
658.371	1	-3
658.540	1	2
658.709	1	-2
658.879	1	5
659.048	1	3
659.218	1	14
659.387	1	0
659.557	1	-2
659.726	1	0
659.895	1	6
660.065	1	7
660.234	1	-7
660.404	1	8
660.573	1	16
660.743	1	1
660.912	1	5
661.081	1	9
661.251	1	5
661.420	1	1
661.590	1	2
661.759	1	10
661.929	1	8
662.098	1	1
662.267	1	5
662.437	1	5
662.606	1	1
662.776	1	-3
662.945	1	4
663.115	1	-4
663.284	1	3
663.453	1	10
663.623	1	1
663.792	1	6
663.962	1	1
664.131	1	0
664.300	1	-5
664.470	1	5
664.639	1	14
664.809	1	4
664.978	1	-10
665.148	1	6
665.317	1	6
665.486	1	2
665.656	1	8
665.825	1	11
665.995	1	-8
666.164	1	6
666.333	1	1
666.503	1	1
666.672	1	0
666.842	1	5
667.011	1	5
667.180	1	4
667.350	1	-2
667.519	1	-13
667.689	1	4
667.858	1	6
668.027	1	0
668.197	1	-1
668.366	1	10
668.536	1	1
668.705	1	10
668.874	1	4
669.044	1	3
669.213	1	3
669.382	1	6
669.552	1	-4
669.721	1	-3
669.891	1	8
670.060	1	6
670.229	1	7
670.399	1	3
670.568	1	-8
670.738	1	-1
670.907	1	14
671.076	1	5
671.246	1	6
671.415	1	0
671.584	1	4
671.754	1	6
671.923	1	8
672.093	1	-1
672.262	1	-5
672.431	1	-1
672.601	1	-1
672.770	1	3
672.939	1	-1
673.109	1	0
673.278	1	4
673.448	1	6
673.617	1	1
673.786	1	-1
