325.333	1	10
325.504	1	8
325.675	1	6
325.846	1	-5
326.017	1	8
326.188	1	15
326.359	1	-10
326.531	1	1
326.702	1	19
326.873	1	3
327.044	1	8
327.215	1	-6
327.386	1	9
327.557	1	4
327.728	1	12
327.899	1	8
328.070	1	16
328.241	1	3
328.412	1	-5
328.583	1	1
328.754	1	1
328.926	1	7
329.097	1	3
329.268	1	13
329.439	1	8
329.610	1	17
329.781	1	9
329.952	1	0
330.123	1	2
330.294	1	6
330.465	1	6
330.636	1	18
330.807	1	20
330.978	1	1
331.149	1	3
331.320	1	12
331.492	1	12
331.663	1	4
331.834	1	2
332.005	1	2
332.176	1	7
332.347	1	11
332.518	1	12
332.689	1	15
332.860	1	6
333.031	1	-2
333.202	1	0
333.373	1	9
333.544	1	6
333.715	1	3
333.886	1	3
334.057	1	13
334.228	1	0
334.399	1	0
334.570	1	7
334.741	1	-4
334.912	1	13
335.084	1	7
335.255	1	-3
335.426	1	9
335.597	1	12
335.768	1	13
335.939	1	16
336.110	1	11
336.281	1	15
336.452	1	8
336.623	1	0
336.794	1	8
336.965	1	12
337.136	1	4
337.307	1	2
337.478	1	5
337.649	1	13
337.820	1	1
337.991	1	14
338.162	1	11
338.333	1	7
338.504	1	12
338.675	1	13
338.846	1	7
339.017	1	0
339.188	1	8
339.359	1	11
339.530	1	5
339.701	1	11
339.872	1	0
340.043	1	10
340.214	1	13
340.385	1	-4
340.556	1	10
340.727	1	13
340.898	1	15
341.069	1	-1
341.240	1	2
341.411	1	8
341.582	1	4
341.753	1	19
341.924	1	8
342.095	1	10
342.266	1	-2
342.437	1	7
342.608	1	14
342.779	1	9
342.950	1	0
343.121	1	12
343.292	1	6
343.463	1	4
343.634	1	-2
343.805	1	9
343.976	1	9
344.147	1	-5
344.318	1	14
344.489	1	6
344.660	1	6
344.831	1	3
345.002	1	5
345.173	1	8
345.344	1	4
345.515	1	2
345.686	1	8
345.857	1	4
346.028	1	10
346.199	1	6
346.370	1	7
346.541	1	7
346.712	1	11
346.883	1	15
347.054	1	2
347.225	1	6
347.396	1	14
347.567	1	17
347.738	1	7
347.909	1	9
348.080	1	-3
348.251	1	13
348.422	1	-1
348.593	1	0
348.764	1	17
348.935	1	5
349.106	1	8
349.277	1	13
349.448	1	3
349.619	1	-3
349.790	1	17
349.961	1	9
350.132	1	-3
350.303	1	2
350.474	1	1
350.645	1	8
350.816	1	8
350.987	1	-2
351.157	1	13
351.328	1	-6
351.499	1	10
351.670	1	3
351.841	1	7
352.012	1	11
352.183	1	6
352.354	1	17
352.525	1	14
352.696	1	13
352.867	1	8
353.038	1	14
353.209	1	13
353.380	1	12
353.551	1	-4
353.722	1	2
353.893	1	6
354.064	1	12
354.235	1	14
354.406	1	15
354.576	1	5
354.747	1	3
354.918	1	17
355.089	1	-1
355.260	1	6
355.431	1	3
355.602	1	0
355.773	1	0
355.944	1	16
356.115	1	6
356.286	1	0
356.457	1	6
356.628	1	6
356.799	1	-1
356.970	1	1
357.141	1	18
357.311	1	1
357.482	1	9
357.653	1	-4
357.824	1	3
357.995	1	7
358.166	1	11
358.337	1	11
358.508	1	4
358.679	1	2
358.850	1	0
359.021	1	0
359.192	1	-1
359.363	1	0
359.533	1	-5
359.704	1	8
359.875	1	3
360.046	1	-1
360.217	1	3
360.388	1	4
360.559	1	6
360.730	1	-3
360.901	1	7
361.072	1	1
361.243	1	22
361.414	1	4
361.584	1	2
361.755	1	8
361.926	1	9
362.097	1	5
362.268	1	7
362.439	1	4
362.610	1	8
362.781	1	3
362.952	1	2
363.123	1	-11
363.293	1	6
363.464	1	4
363.635	1	15
363.806	1	2
363.977	1	13
364.148	1	12
364.319	1	10
364.490	1	14
364.661	1	-4
364.832	1	7
365.002	1	-7
365.173	1	-1
365.344	1	-7
365.515	1	5
365.686	1	1
365.857	1	-3
366.028	1	6
366.199	1	0
366.370	1	-6
366.540	1	10
366.711	1	2
366.882	1	10
367.053	1	5
367.224	1	5
367.395	1	-3
367.566	1	10
367.737	1	6
367.908	1	0
368.078	1	3
368.249	1	6
368.420	1	8
368.591	1	-1
368.762	1	13
368.933	1	5
369.104	1	0
369.274	1	-3
369.445	1	1
369.616	1	12
369.787	1	8
369.958	1	7
370.129	1	3
370.300	1	2
370.471	1	16
370.641	1	14
370.812	1	0
370.983	1	10
371.154	1	12
371.325	1	-6
371.496	1	0
371.667	1	8
371.837	1	9
372.008	1	0
372.179	1	4
372.350	1	4
372.521	1	8
372.692	1	5
372.863	1	3
373.033	1	12
373.204	1	4
373.375	1	3
373.546	1	4
373.717	1	1
373.888	1	-6
374.059	1	7
374.229	1	4
374.400	1	15
374.571	1	0
374.742	1	10
374.913	1	3
375.084	1	6
375.254	1	12
375.425	1	11
375.596	1	3
375.767	1	9
375.938	1	8
376.109	1	2
376.279	1	3
376.450	1	4
376.621	1	2
376.792	1	-1
376.963	1	5
377.134	1	16
377.304	1	0
377.475	1	3
377.646	1	4
377.817	1	6
377.988	1	7
378.159	1	2
378.329	1	3
378.500	1	12
378.671	1	11
378.842	1	0
379.013	1	12
379.184	1	3
379.354	1	9
379.525	1	1
379.696	1	5
379.867	1	8
380.038	1	9
380.209	1	6
380.379	1	3
380.550	1	0
380.721	1	13
380.892	1	6
381.063	1	7
381.233	1	2
381.404	1	14
381.575	1	8
381.746	1	-2
381.917	1	1
382.087	1	4
382.258	1	7
382.429	1	8
382.600	1	4
382.771	1	13
382.941	1	4
383.112	1	3
383.283	1	6
383.454	1	6
383.625	1	2
383.795	1	9
383.966	1	21
384.137	1	6
384.308	1	9
384.479	1	16
384.649	1	10
384.820	1	14
384.991	1	13
385.162	1	-2
385.333	1	6
385.503	1	3
385.674	1	9
385.845	1	0
386.016	1	12
386.187	1	9
386.357	1	3
386.528	1	12
386.699	1	11
386.870	1	1
387.041	1	-2
387.211	1	10
387.382	1	3
387.553	1	1
387.724	1	-8
387.894	1	-2
388.065	1	16
388.236	1	9
388.407	1	11
388.578	1	22
388.748	1	18
388.919	1	-3
389.090	1	18
389.261	1	-4
389.431	1	13
389.602	1	13
389.773	1	7
389.944	1	16
390.114	1	18
390.285	1	9
390.456	1	9
390.627	1	11
390.798	1	8
390.968	1	16
391.139	1	0
391.310	1	5
391.481	1	7
391.651	1	9
391.822	1	3
391.993	1	-1
392.164	1	10
392.334	1	11
392.505	1	11
392.676	1	15
392.847	1	6
393.017	1	4
393.188	1	13
393.359	1	10
393.530	1	13
393.700	1	15
393.871	1	9
394.042	1	9
394.213	1	8
394.383	1	6
394.554	1	6
394.725	1	15
394.896	1	15
395.066	1	6
395.237	1	6
395.408	1	2
395.579	1	1
395.749	1	8
395.920	1	6
396.091	1	6
396.262	1	2
396.432	1	6
396.603	1	7
396.774	1	16
396.945	1	3
397.115	1	6
397.286	1	11
397.457	1	9
397.627	1	7
397.798	1	13
397.969	1	7
398.140	1	6
398.310	1	31
398.481	1	7
398.652	1	14
398.823	1	18
398.993	1	14
399.164	1	4
399.335	1	2
399.505	1	8
399.676	1	6
399.847	1	15
400.018	1	12
400.188	1	10
400.359	1	5
400.530	1	20
400.700	1	11
400.871	1	16
401.042	1	18
401.213	1	14
401.383	1	21
401.554	1	22
401.725	1	-1
401.895	1	5
402.066	1	8
402.237	1	20
402.408	1	15
402.578	1	5
402.749	1	22
402.920	1	2
403.090	1	0
403.261	1	5
403.432	1	8
403.603	1	11
403.773	1	14
403.944	1	15
404.115	1	16
404.285	1	6
404.456	1	21
404.627	1	14
404.797	1	11
404.968	1	7
405.139	1	12
405.310	1	10
405.480	1	8
405.651	1	13
405.822	1	11
405.992	1	18
406.163	1	7
406.334	1	24
406.504	1	12
406.675	1	10
406.846	1	15
407.016	1	17
407.187	1	18
407.358	1	3
407.528	1	14
407.699	1	10
407.870	1	13
408.041	1	18
408.211	1	22
408.382	1	9
408.553	1	13
408.723	1	23
408.894	1	13
409.065	1	17
409.235	1	-3
409.406	1	14
409.577	1	24
409.747	1	16
409.918	1	21
410.089	1	13
410.259	1	20
410.430	1	6
410.601	1	27
410.771	1	16
410.942	1	13
411.113	1	21
411.283	1	14
411.454	1	16
411.625	1	15
411.795	1	17
411.966	1	13
412.137	1	20
412.307	1	4
412.478	1	12
412.649	1	17
412.819	1	23
412.990	1	17
413.161	1	12
413.331	1	22
413.502	1	20
413.672	1	4
413.843	1	21
414.014	1	10
414.184	1	20
414.355	1	17
414.526	1	18
414.696	1	21
414.867	1	17
415.038	1	13
415.208	1	5
415.379	1	13
415.550	1	15
415.720	1	19
415.891	1	17
416.062	1	7
416.232	1	26
416.403	1	9
416.573	1	13
416.744	1	11
416.915	1	19
417.085	1	19
417.256	1	22
417.427	1	9
417.597	1	17
417.768	1	17
417.939	1	0
418.109	1	23
418.280	1	25
418.450	1	17
418.621	1	21
418.792	1	13
418.962	1	21
419.133	1	17
419.304	1	24
419.474	1	14
419.645	1	13
419.815	1	14
419.986	1	24
420.157	1	25
420.327	1	10
420.498	1	17
420.669	1	6
420.839	1	15
421.010	1	23
421.180	1	17
421.351	1	4
421.522	1	21
421.692	1	12
421.863	1	21
422.033	1	27
422.204	1	8
422.375	1	19
422.545	1	40
422.716	1	13
422.886	1	20
423.057	1	19
423.228	1	14
423.398	1	11
423.569	1	11
423.740	1	16
423.910	1	20
424.081	1	18
424.251	1	17
424.422	1	20
424.593	1	3
424.763	1	18
424.934	1	26
425.104	1	30
425.275	1	16
425.445	1	20
425.616	1	22
425.787	1	19
425.957	1	7
426.128	1	16
426.298	1	6
426.469	1	12
426.640	1	16
426.810	1	21
426.981	1	22
427.151	1	20
427.322	1	26
427.493	1	22
427.663	1	14
427.834	1	5
428.004	1	16
428.175	1	0
428.345	1	15
428.516	1	18
428.687	1	11
428.857	1	3
429.028	1	17
429.198	1	14
429.369	1	17
429.540	1	18
429.710	1	12
429.881	1	9
430.051	1	11
430.222	1	21
430.392	1	21
430.563	1	18
430.734	1	12
430.904	1	15
431.075	1	17
431.245	1	13
431.416	1	2
431.586	1	15
431.757	1	23
431.927	1	25
432.098	1	11
432.269	1	15
432.439	1	12
432.610	1	17
432.780	1	9
432.951	1	7
433.121	1	1
433.292	1	10
433.462	1	14
433.633	1	18
433.804	1	16
433.974	1	23
434.145	1	13
434.315	1	14
434.486	1	17
434.656	1	20
434.827	1	1
434.997	1	20
435.168	1	14
435.339	1	13
435.509	1	26
435.680	1	14
435.850	1	12
436.021	1	14
436.191	1	19
436.362	1	17
436.532	1	14
436.703	1	18
436.873	1	17
437.044	1	23
437.214	1	12
437.385	1	17
437.556	1	17
437.726	1	9
437.897	1	7
438.067	1	14
438.238	1	16
438.408	1	16
438.579	1	14
438.749	1	16
438.920	1	10
439.090	1	20
439.261	1	13
439.431	1	23
439.602	1	17
439.772	1	12
439.943	1	20
440.113	1	14
440.284	1	11
440.455	1	7
440.625	1	14
440.796	1	20
440.966	1	14
441.137	1	8
441.307	1	25
441.478	1	11
441.648	1	12
441.819	1	9
441.989	1	13
442.160	1	20
442.330	1	15
442.501	1	10
442.671	1	18
442.842	1	13
443.012	1	16
443.183	1	20
443.353	1	7
443.524	1	3
443.694	1	5
443.865	1	6
444.035	1	22
444.206	1	9
444.376	1	16
444.547	1	9
444.717	1	10
444.888	1	6
445.058	1	20
445.229	1	3
445.399	1	11
445.570	1	13
445.740	1	15
445.911	1	12
446.081	1	8
446.252	1	17
446.422	1	11
446.593	1	20
446.763	1	8
446.934	1	2
447.104	1	12
447.275	1	12
447.445	1	18
447.616	1	13
447.786	1	7
447.957	1	8
448.127	1	5
448.298	1	8
448.468	1	24
448.639	1	17
448.809	1	6
448.979	1	16
449.150	1	10
449.320	1	17
449.491	1	16
449.661	1	9
449.832	1	8
450.002	1	11
450.173	1	12
450.343	1	10
450.514	1	16
450.684	1	11
450.855	1	9
451.025	1	17
451.196	1	25
451.366	1	13
451.537	1	6
451.707	1	24
451.878	1	6
452.048	1	7
452.218	1	9
452.389	1	21
452.559	1	18
452.730	1	7
452.900	1	9
453.071	1	11
453.241	1	18
453.412	1	17
453.582	1	7
453.753	1	6
453.923	1	3
454.093	1	-1
454.264	1	12
454.434	1	8
454.605	1	0
454.775	1	4
454.946	1	18
455.116	1	9
455.287	1	21
455.457	1	9
455.628	1	6
455.798	1	2
455.968	1	9
456.139	1	2
456.309	1	14
456.480	1	5
456.650	1	7
456.821	1	7
456.991	1	12
457.161	1	22
457.332	1	8
457.502	1	14
457.673	1	16
457.843	1	0
458.014	1	24
458.184	1	12
458.355	1	20
458.525	1	17
458.695	1	4
458.866	1	5
459.036	1	3
459.207	1	17
459.377	1	4
459.548	1	7
459.718	1	8
459.888	1	13
460.059	1	3
460.229	1	11
460.400	1	24
460.570	1	11
460.740	1	6
460.911	1	26
461.081	1	2
461.252	1	11
461.422	1	7
461.593	1	9
461.763	1	9
461.933	1	8
462.104	1	10
462.274	1	10
462.445	1	5
462.615	1	11
462.785	1	7
462.956	1	11
463.126	1	3
463.297	1	9
463.467	1	9
463.638	1	12
463.808	1	13
463.978	1	11
464.149	1	18
464.319	1	7
464.490	1	3
464.660	1	3
464.830	1	6
465.001	1	8
465.171	1	12
465.342	1	3
465.512	1	10
465.682	1	13
465.853	1	11
466.023	1	16
466.194	1	14
466.364	1	-2
466.534	1	6
466.705	1	16
466.875	1	7
467.045	1	12
467.216	1	16
467.386	1	1
467.557	1	17
467.727	1	8
467.897	1	5
468.068	1	5
468.238	1	2
468.409	1	10
468.579	1	10
468.749	1	19
468.920	1	13
469.090	1	7
469.260	1	-3
469.431	1	15
469.601	1	11
469.772	1	4
469.942	1	2
470.112	1	6
470.283	1	9
470.453	1	-2
470.623	1	10
470.794	1	-3
470.964	1	7
471.135	1	0
471.305	1	0
471.475	1	8
471.646	1	10
471.816	1	11
471.986	1	14
472.157	1	1
472.327	1	0
472.497	1	-4
472.668	1	5
472.838	1	10
473.009	1	9
473.179	1	7
473.349	1	10
473.520	1	6
473.690	1	8
473.860	1	2
474.031	1	16
474.201	1	5
474.371	1	13
474.542	1	7
474.712	1	7
474.882	1	1
475.053	1	6
475.223	1	13
475.394	1	-5
475.564	1	13
475.734	1	9
475.905	1	1
476.075	1	0
476.245	1	-3
476.416	1	15
476.586	1	7
476.756	1	4
476.927	1	6
477.097	1	-1
477.267	1	10
477.438	1	12
477.608	1	-3
477.778	1	7
477.949	1	2
478.119	1	8
478.289	1	6
478.460	1	6
478.630	1	14
478.800	1	15
478.971	1	-2
479.141	1	13
479.311	1	13
479.482	1	-1
479.652	1	8
479.822	1	14
479.993	1	4
480.163	1	3
480.333	1	4
480.504	1	1
480.674	1	-1
480.844	1	7
481.015	1	10
481.185	1	4
481.355	1	11
481.525	1	7
481.696	1	11
481.866	1	4
482.036	1	0
482.207	1	12
482.377	1	-5
482.547	1	9
482.718	1	14
482.888	1	6
483.058	1	2
483.229	1	7
483.399	1	7
483.569	1	1
483.740	1	3
483.910	1	7
484.080	1	11
484.250	1	8
484.421	1	-1
484.591	1	6
484.761	1	-3
484.932	1	-1
485.102	1	1
485.272	1	1
485.443	1	4
485.613	1	6
485.783	1	-3
485.953	1	14
486.124	1	4
486.294	1	15
486.464	1	-1
486.635	1	-7
486.805	1	2
486.975	1	9
487.146	1	1
487.316	1	7
487.486	1	14
487.656	1	15
487.827	1	4
487.997	1	-3
488.167	1	8
488.338	1	7
488.508	1	10
488.678	1	12
488.848	1	7
489.019	1	6
489.189	1	2
489.359	1	3
489.529	1	12
489.700	1	0
489.870	1	12
490.040	1	12
490.211	1	17
490.381	1	13
490.551	1	0
490.721	1	2
490.892	1	-7
491.062	1	5
491.232	1	3
491.402	1	4
491.573	1	13
491.743	1	9
491.913	1	13
492.084	1	-5
492.254	1	0
492.424	1	16
492.594	1	1
492.765	1	0
492.935	1	-2
493.105	1	11
493.275	1	12
493.446	1	4
493.616	1	3
493.786	1	5
493.956	1	16
494.127	1	10
494.297	1	4
494.467	1	0
494.637	1	12
494.808	1	5
494.978	1	10
495.148	1	-9
495.318	1	5
495.489	1	1
495.659	1	0
495.829	1	14
495.999	1	0
496.170	1	-2
496.340	1	12
496.510	1	0
496.680	1	9
496.851	1	16
497.021	1	-2
497.191	1	13
497.361	1	5
497.532	1	6
497.702	1	4
497.872	1	11
498.042	1	15
498.213	1	8
498.383	1	14
498.553	1	11
498.723	1	3
498.894	1	4
499.064	1	-6
499.234	1	13
499.404	1	0
499.574	1	-2
499.745	1	2
499.915	1	5
500.085	1	6
500.255	1	11
500.426	1	3
500.596	1	1
500.766	1	8
500.936	1	-5
501.106	1	1
501.277	1	3
501.447	1	0
501.617	1	2
501.787	1	17
501.958	1	-2
502.128	1	3
502.298	1	1
502.468	1	2
502.638	1	-2
502.809	1	-1
502.979	1	8
503.149	1	17
503.319	1	2
503.489	1	7
503.660	1	3
503.830	1	-1
504.000	1	1
504.170	1	-1
504.340	1	8
504.511	1	-2
504.681	1	10
504.851	1	4
505.021	1	8
505.192	1	-1
505.362	1	4
505.532	1	5
505.702	1	4
505.872	1	5
506.043	1	5
506.213	1	5
506.383	1	6
506.553	1	4
506.723	1	4
506.893	1	12
507.064	1	6
507.234	1	13
507.404	1	12
507.574	1	-8
507.744	1	3
507.915	1	0
508.085	1	18
508.255	1	-9
508.425	1	6
508.595	1	4
508.766	1	6
508.936	1	-4
509.106	1	1
509.276	1	1
509.446	1	-6
509.616	1	8
509.787	1	4
509.957	1	6
510.127	1	-5
510.297	1	4
510.467	1	6
510.638	1	5
510.808	1	-4
510.978	1	4
511.148	1	10
511.318	1	5
511.488	1	11
511.659	1	5
511.829	1	-1
511.999	1	16
512.169	1	4
512.339	1	14
512.509	1	8
512.680	1	10
512.850	1	-2
513.020	1	8
513.190	1	7
513.360	1	7
513.530	1	5
513.700	1	3
513.871	1	14
514.041	1	5
514.211	1	13
514.381	1	0
514.551	1	4
514.721	1	2
514.892	1	1
515.062	1	4
515.232	1	0
515.402	1	9
515.572	1	13
515.742	1	-3
515.912	1	-1
516.083	1	8
516.253	1	0
516.423	1	2
516.593	1	1
516.763	1	-2
516.933	1	1
517.104	1	-9
517.274	1	11
517.444	1	-1
517.614	1	-6
517.784	1	4
517.954	1	10
518.124	1	10
518.294	1	-3
518.465	1	-5
518.635	1	6
518.805	1	-3
518.975	1	6
519.145	1	3
519.315	1	9
519.485	1	12
519.656	1	-4
519.826	1	0
519.996	1	11
520.166	1	3
520.336	1	-2
520.506	1	0
520.676	1	0
520.846	1	4
521.017	1	3
521.187	1	4
521.357	1	7
521.527	1	-7
521.697	1	9
521.867	1	-7
522.037	1	17
522.207	1	1
522.377	1	-4
522.548	1	2
522.718	1	16
522.888	1	9
523.058	1	-1
523.228	1	0
523.398	1	2
523.568	1	2
523.738	1	4
523.909	1	4
524.079	1	18
524.249	1	2
524.419	1	-2
524.589	1	3
524.759	1	1
524.929	1	-10
525.099	1	1
525.269	1	-3
525.439	1	5
525.610	1	4
525.780	1	-4
525.950	1	3
526.120	1	7
526.290	1	10
526.460	1	2
526.630	1	0
526.800	1	-8
526.970	1	-5
527.140	1	-2
527.311	1	5
527.481	1	9
527.651	1	8
527.821	1	0
527.991	1	1
528.161	1	7
528.331	1	-1
528.501	1	-1
528.671	1	-9
528.841	1	16
529.011	1	3
529.181	1	6
529.352	1	1
529.522	1	5
529.692	1	5
529.862	1	4
530.032	1	7
530.202	1	-5
530.372	1	-3
530.542	1	-2
530.712	1	7
530.882	1	-1
531.052	1	10
531.222	1	1
531.392	1	-5
531.563	1	0
531.733	1	8
531.903	1	-8
532.073	1	-1
532.243	1	3
532.413	1	1
532.583	1	-9
532.753	1	-2
532.923	1	7
533.093	1	0
533.263	1	16
533.433	1	8
533.603	1	14
533.773	1	11
533.943	1	4
534.113	1	3
534.284	1	-4
534.454	1	0
534.624	1	5
534.794	1	5
534.964	1	8
535.134	1	-8
535.304	1	-1
535.474	1	8
535.644	1	-3
535.814	1	-11
535.984	1	4
536.154	1	0
536.324	1	5
536.494	1	-3
536.664	1	6
536.834	1	-8
537.004	1	10
537.174	1	-1
537.344	1	7
537.514	1	-4
537.685	1	9
537.855	1	3
538.025	1	-4
538.195	1	5
538.365	1	7
538.535	1	6
538.705	1	-4
538.875	1	-2
539.045	1	-8
539.215	1	7
539.385	1	10
539.555	1	-2
539.725	1	-1
539.895	1	9
540.065	1	6
540.235	1	-1
540.405	1	4
540.575	1	8
540.745	1	-2
540.915	1	4
541.085	1	1
541.255	1	2
541.425	1	-5
541.595	1	-11
541.765	1	0
541.935	1	12
542.105	1	3
542.275	1	-4
542.445	1	-9
542.615	1	5
542.785	1	11
542.955	1	8
543.125	1	-4
543.295	1	10
543.465	1	7
543.635	1	1
543.805	1	-12
543.975	1	-6
544.145	1	-1
544.315	1	8
544.485	1	-4
544.655	1	2
544.825	1	4
544.995	1	5
545.165	1	-1
545.335	1	3
545.505	1	1
545.675	1	4
545.845	1	12
546.015	1	2
546.185	1	10
546.355	1	-2
546.525	1	11
546.695	1	2
546.865	1	-3
547.035	1	5
547.205	1	-4
547.375	1	12
547.545	1	-2
547.715	1	7
547.885	1	-1
548.055	1	18
548.225	1	9
548.395	1	4
548.565	1	8
548.735	1	-7
548.905	1	10
549.075	1	-1
549.245	1	-2
549.415	1	-2
549.585	1	1
549.755	1	2
549.925	1	15
550.095	1	3
550.265	1	0
550.435	1	-1
550.605	1	2
550.775	1	5
550.945	1	-3
551.115	1	-1
551.285	1	-5
551.455	1	13
551.625	1	9
551.795	1	8
551.965	1	5
552.135	1	9
552.305	1	4
552.475	1	4
552.645	1	3
552.815	1	-1
552.985	1	-20
553.155	1	6
553.325	1	-1
553.495	1	5
553.665	1	7
553.835	1	18
554.004	1	8
554.174	1	-6
554.344	1	11
554.514	1	4
554.684	1	-2
554.854	1	-2
555.024	1	-10
555.194	1	-2
555.364	1	-1
555.534	1	2
555.704	1	4
555.874	1	1
556.044	1	5
556.214	1	-3
556.384	1	4
556.554	1	-12
556.724	1	0
556.894	1	5
557.064	1	7
557.234	1	2
557.404	1	0
557.573	1	0
557.743	1	-10
557.913	1	6
558.083	1	5
558.253	1	-1
558.423	1	6
558.593	1	15
558.763	1	15
558.933	1	5
559.103	1	-3
559.273	1	-1
559.443	1	-2
559.613	1	-4
559.783	1	0
559.953	1	-9
560.122	1	-9
560.292	1	-4
560.462	1	-4
560.632	1	10
560.802	1	-2
560.972	1	1
561.142	1	-8
561.312	1	3
561.482	1	8
561.652	1	7
561.822	1	6
561.992	1	1
562.162	1	4
562.331	1	0
562.501	1	-1
562.671	1	1
562.841	1	2
563.011	1	-15
563.181	1	-2
563.351	1	5
563.521	1	3
563.691	1	6
563.861	1	4
564.031	1	3
564.201	1	5
564.370	1	-4
564.540	1	-1
564.710	1	-2
564.880	1	-4
565.050	1	17
565.220	1	7
565.390	1	6
565.560	1	3
565.730	1	-5
565.900	1	2
566.069	1	6
566.239	1	-6
566.409	1	6
566.579	1	1
566.749	1	1
566.919	1	-4
567.089	1	-5
567.259	1	9
567.429	1	2
567.599	1	-4
567.768	1	4
567.938	1	4
568.108	1	0
568.278	1	1
568.448	1	2
568.618	1	7
568.788	1	2
568.958	1	-2
569.128	1	-12
569.297	1	4
569.467	1	-13
569.637	1	3
569.807	1	4
569.977	1	7
570.147	1	4
570.317	1	5
570.487	1	-5
570.656	1	3
570.826	1	-4
570.996	1	3
571.166	1	7
571.336	1	8
571.506	1	2
571.676	1	5
571.846	1	11
572.015	1	-1
572.185	1	-2
572.355	1	11
572.525	1	3
572.695	1	4
572.865	1	1
573.035	1	12
573.205	1	5
573.374	1	-1
573.544	1	15
573.714	1	5
573.884	1	-10
574.054	1	9
574.224	1	4
574.394	1	-9
574.563	1	2
574.733	1	3
574.903	1	0
575.073	1	4
575.243	1	-1
575.413	1	4
575.583	1	5
575.752	1	1
575.922	1	-3
576.092	1	3
576.262	1	3
576.432	1	16
576.602	1	0
576.772	1	4
576.941	1	-5
577.111	1	3
577.281	1	-5
577.451	1	4
577.621	1	-4
577.791	1	0
577.960	1	0
578.130	1	-7
578.300	1	3
578.470	1	7
578.640	1	-5
578.810	1	-7
578.979	1	5
579.149	1	2
579.319	1	2
579.489	1	5
579.659	1	11
579.829	1	8
579.998	1	-8
580.168	1	8
580.338	1	-3
580.508	1	10
580.678	1	-3
580.848	1	-6
581.017	1	-10
581.187	1	3
581.357	1	-3
581.527	1	0
581.697	1	-2
581.867	1	10
582.036	1	7
582.206	1	-2
582.376	1	11
582.546	1	-1
582.716	1	2
582.885	1	7
583.055	1	5
583.225	1	13
583.395	1	-1
583.565	1	4
583.735	1	4
583.904	1	-5
584.074	1	7
584.244	1	5
584.414	1	5
584.584	1	6
584.753	1	4
584.923	1	9
585.093	1	8
585.263	1	3
585.433	1	-4
585.602	1	0
585.772	1	2
585.942	1	0
586.112	1	-2
586.282	1	0
586.451	1	7
586.621	1	11
586.791	1	9
586.961	1	-1
587.131	1	7
587.300	1	1
587.470	1	2
587.640	1	6
587.810	1	6
587.980	1	5
588.149	1	-3
588.319	1	2
588.489	1	-3
588.659	1	13
588.829	1	4
588.998	1	3
589.168	1	4
589.338	1	3
589.508	1	1
589.677	1	-6
589.847	1	17
590.017	1	4
590.187	1	1
590.357	1	-5
590.526	1	-3
590.696	1	-4
590.866	1	13
591.036	1	20
591.205	1	8
591.375	1	-11
591.545	1	10
591.715	1	1
591.885	1	1
592.054	1	3
592.224	1	12
592.394	1	-10
592.564	1	3
592.733	1	19
592.903	1	11
593.073	1	-9
593.243	1	12
593.412	1	15
593.582	1	-2
593.752	1	1
593.922	1	-4
594.091	1	5
594.261	1	6
594.431	1	11
594.601	1	-1
594.771	1	2
594.940	1	-4
595.110	1	7
595.280	1	0
595.450	1	12
595.619	1	-4
595.789	1	2
595.959	1	6
596.129	1	7
596.298	1	8
596.468	1	9
596.638	1	1
596.808	1	1
596.977	1	7
597.147	1	5
597.317	1	-6
597.487	1	-1
597.656	1	-4
597.826	1	1
597.996	1	4
598.166	1	2
598.335	1	0
598.505	1	6
598.675	1	-5
598.844	1	-2
599.014	1	-4
599.184	1	5
599.354	1	-7
599.523	1	0
599.693	1	8
599.863	1	1
600.033	1	-4
600.202	1	8
600.372	1	3
600.542	1	2
600.712	1	4
600.881	1	-6
601.051	1	-2
601.221	1	15
601.390	1	3
601.560	1	1
601.730	1	8
601.900	1	-1
602.069	1	1
602.239	1	18
602.409	1	-2
602.578	1	2
602.748	1	6
602.918	1	-7
603.088	1	0
603.257	1	10
603.427	1	6
603.597	1	3
603.767	1	-1
603.936	1	-13
604.106	1	-7
604.276	1	6
604.445	1	8
604.615	1	0
604.785	1	10
604.954	1	-12
605.124	1	13
605.294	1	10
605.464	1	3
605.633	1	5
605.803	1	8
605.973	1	11
606.142	1	0
606.312	1	2
606.482	1	2
606.652	1	-2
606.821	1	0
606.991	1	12
607.161	1	6
607.330	1	-10
607.500	1	1
607.670	1	3
607.839	1	4
608.009	1	1
608.179	1	10
608.348	1	6
608.518	1	3
608.688	1	9
608.858	1	5
609.027	1	23
609.197	1	0
609.367	1	8
609.536	1	4
609.706	1	7
609.876	1	17
610.045	1	-1
610.215	1	15
610.385	1	3
610.554	1	11
610.724	1	1
610.894	1	11
611.063	1	9
611.233	1	4
611.403	1	-1
611.572	1	-7
611.742	1	-11
611.912	1	5
612.081	1	1
612.251	1	8
612.421	1	1
612.590	1	0
612.760	1	9
612.930	1	-8
613.099	1	7
613.269	1	-3
613.439	1	6
613.608	1	1
613.778	1	-2
613.948	1	4
614.117	1	3
614.287	1	14
614.457	1	0
614.626	1	10
614.796	1	4
614.966	1	0
615.135	1	7
615.305	1	3
615.475	1	6
615.644	1	1
615.814	1	4
615.984	1	10
616.153	1	-7
616.323	1	2
616.493	1	3
616.662	1	4
616.832	1	7
617.002	1	-6
617.171	1	1
617.341	1	10
617.511	1	-12
617.680	1	2
617.850	1	4
618.019	1	9
618.189	1	-3
618.359	1	7
618.528	1	5
618.698	1	-6
618.868	1	-2
619.037	1	4
619.207	1	6
619.377	1	2
619.546	1	-3
619.716	1	-3
619.885	1	-4
620.055	1	-7
620.225	1	9
620.394	1	2
620.564	1	6
620.734	1	-1
620.903	1	6
621.073	1	13
621.242	1	14
621.412	1	4
621.582	1	13
621.751	1	-3
621.921	1	5
622.091	1	-6
622.260	1	4
622.430	1	3
622.599	1	14
622.769	1	2
622.939	1	4
623.108	1	3
623.278	1	6
623.448	1	5
623.617	1	5
623.787	1	7
623.956	1	5
624.126	1	-12
624.296	1	14
624.465	1	-4
624.635	1	14
624.804	1	-3
624.974	1	9
625.144	1	3
625.313	1	4
625.483	1	11
625.652	1	-5
625.822	1	17
625.992	1	2
626.161	1	3
626.331	1	8
626.501	1	20
626.670	1	-2
626.840	1	1
627.009	1	8
627.179	1	5
627.348	1	6
627.518	1	5
627.688	1	-4
627.857	1	13
628.027	1	0
628.196	1	-7
628.366	1	14
628.536	1	8
628.705	1	-1
628.875	1	12
629.044	1	6
629.214	1	10
629.384	1	-7
629.553	1	6
629.723	1	-2
629.892	1	6
630.062	1	1
630.232	1	-4
630.401	1	9
630.571	1	2
630.740	1	8
630.910	1	3
631.079	1	7
631.249	1	4
631.419	1	6
631.588	1	9
631.758	1	13
631.927	1	-7
632.097	1	0
632.266	1	8
632.436	1	10
632.606	1	9
632.775	1	6
632.945	1	-3
633.114	1	10
633.284	1	13
633.453	1	4
633.623	1	3
633.793	1	8
633.962	1	10
634.132	1	5
634.301	1	14
634.471	1	3
634.640	1	6
634.810	1	9
634.979	1	11
635.149	1	6
635.319	1	5
635.488	1	5
635.658	1	19
635.827	1	5
635.997	1	3
636.166	1	11
636.336	1	12
636.505	1	17
636.675	1	-5
636.845	1	4
637.014	1	17
637.184	1	10
637.353	1	9
637.523	1	5
637.692	1	6
637.862	1	0
638.031	1	12
638.201	1	13
638.370	1	17
638.540	1	5
638.710	1	-1
638.879	1	1
639.049	1	7
639.218	1	-1
639.388	1	3
639.557	1	13
639.727	1	9
639.896	1	13
640.066	1	18
640.235	1	12
640.405	1	6
640.574	1	17
640.744	1	3
640.914	1	6
641.083	1	-1
641.253	1	5
641.422	1	2
641.592	1	0
641.761	1	7
641.931	1	18
642.100	1	2
642.270	1	6
642.439	1	17
642.609	1	2
642.778	1	0
642.948	1	6
643.117	1	0
643.287	1	-2
643.456	1	8
643.626	1	0
643.795	1	-2
643.965	1	-1
644.134	1	6
644.304	1	6
644.473	1	5
644.643	1	3
644.812	1	12
644.982	1	-1
645.151	1	9
645.321	1	1
645.490	1	4
645.660	1	4
645.829	1	5
645.999	1	10
646.168	1	12
646.338	1	0
646.507	1	8
646.677	1	2
646.846	1	11
647.016	1	9
647.185	1	2
647.355	1	5
647.524	1	8
647.694	1	4
647.863	1	13
648.033	1	6
648.202	1	3
648.372	1	13
648.541	1	7
648.711	1	13
648.880	1	2
649.050	1	0
649.219	1	4
649.389	1	9
649.558	1	6
649.728	1	-1
649.897	1	9
650.067	1	-2
650.236	1	3
650.406	1	5
650.575	1	12
650.745	1	-3
650.914	1	18
651.084	1	-4
651.253	1	-5
651.423	1	18
651.592	1	17
651.762	1	-4
651.931	1	12
652.101	1	11
652.270	1	6
652.440	1	2
652.609	1	1
652.778	1	-2
652.948	1	7
653.117	1	7
653.287	1	8
653.456	1	-5
653.626	1	15
653.795	1	-7
653.965	1	7
654.134	1	-5
654.304	1	10
654.473	1	13
654.643	1	-8
654.812	1	-5
654.982	1	11
655.151	1	8
655.320	1	8
655.490	1	-3
655.659	1	16
655.829	1	4
655.998	1	16
656.168	1	-3
656.337	1	6
656.507	1	-1
656.676	1	4
656.846	1	8
657.015	1	15
657.184	1	-4
657.354	1	11
657.523	1	4
657.693	1	-1
657.862	1	5
658.032	1	10
658.201	1	5
658.371	1	3
658.540	1	-4
658.709	1	2
658.879	1	8
659.048	1	14
659.218	1	7
659.387	1	-3
659.557	1	-7
659.726	1	-2
659.895	1	0
660.065	1	8
660.234	1	-2
660.404	1	6
660.573	1	-1
660.743	1	6
660.912	1	8
661.081	1	5
661.251	1	4
661.420	1	3
661.590	1	5
661.759	1	9
661.929	1	-4
662.098	1	4
662.267	1	15
662.437	1	6
662.606	1	-1
662.776	1	1
662.945	1	4
663.115	1	-2
663.284	1	6
663.453	1	1
663.623	1	3
663.792	1	0
663.962	1	13
664.131	1	3
664.300	1	-2
664.470	1	-1
664.639	1	16
664.809	1	2
664.978	1	-7
665.148	1	5
665.317	1	17
665.486	1	3
665.656	1	13
665.825	1	6
665.995	1	-8
666.164	1	10
666.333	1	-3
666.503	1	0
666.672	1	-1
666.842	1	0
667.011	1	0
667.180	1	4
667.350	1	10
667.519	1	-3
667.689	1	3
667.858	1	5
668.027	1	10
668.197	1	-1
668.366	1	15
668.536	1	1
668.705	1	5
668.874	1	1
669.044	1	-1
669.213	1	-1
669.382	1	3
669.552	1	4
669.721	1	9
669.891	1	4
670.060	1	2
670.229	1	12
670.399	1	6
670.568	1	2
670.738	1	11
670.907	1	5
671.076	1	8
671.246	1	0
671.415	1	4
671.584	1	8
671.754	1	8
671.923	1	-1
672.093	1	2
672.262	1	-7
672.431	1	7
672.601	1	4
672.770	1	0
672.939	1	-8
673.109	1	8
673.278	1	7
673.448	1	11
673.617	1	3
673.786	1	-8
