325.333	1	14
325.504	1	5
325.675	1	0
325.846	1	-7
326.017	1	3
326.188	1	3
326.359	1	-6
326.531	1	-4
326.702	1	9
326.873	1	5
327.044	1	2
327.215	1	9
327.386	1	3
327.557	1	4
327.728	1	1
327.899	1	9
328.070	1	7
328.241	1	-3
328.412	1	-1
328.583	1	9
328.754	1	6
328.926	1	6
329.097	1	7
329.268	1	11
329.439	1	-2
329.610	1	10
329.781	1	6
329.952	1	-5
330.123	1	9
330.294	1	19
330.465	1	0
330.636	1	14
330.807	1	5
330.978	1	4
331.149	1	4
331.320	1	9
331.492	1	3
331.663	1	-5
331.834	1	7
332.005	1	-1
332.176	1	5
332.347	1	12
332.518	1	2
332.689	1	11
332.860	1	7
333.031	1	4
333.202	1	9
333.373	1	6
333.544	1	-1
333.715	1	2
333.886	1	5
334.057	1	18
334.228	1	3
334.399	1	-2
334.570	1	0
334.741	1	3
334.912	1	3
335.084	1	-2
335.255	1	5
335.426	1	0
335.597	1	5
335.768	1	6
335.939	1	11
336.110	1	3
336.281	1	8
336.452	1	12
336.623	1	5
336.794	1	9
336.965	1	10
337.136	1	5
337.307	1	10
337.478	1	5
337.649	1	9
337.820	1	13
337.991	1	5
338.162	1	18
338.333	1	11
338.504	1	10
338.675	1	1
338.846	1	10
339.017	1	2
339.188	1	4
339.359	1	10
339.530	1	-4
339.701	1	13
339.872	1	4
340.043	1	12
340.214	1	3
340.385	1	-3
340.556	1	9
340.727	1	15
340.898	1	5
341.069	1	-5
341.240	1	8
341.411	1	13
341.582	1	7
341.753	1	22
341.924	1	1
342.095	1	3
342.266	1	5
342.437	1	12
342.608	1	4
342.779	1	9
342.950	1	6
343.121	1	6
343.292	1	8
343.463	1	2
343.634	1	6
343.805	1	10
343.976	1	11
344.147	1	1
344.318	1	1
344.489	1	12
344.660	1	5
344.831	1	-3
345.002	1	10
345.173	1	-1
345.344	1	-4
345.515	1	-4
345.686	1	4
345.857	1	7
346.028	1	4
346.199	1	4
346.370	1	8
346.541	1	8
346.712	1	2
346.883	1	13
347.054	1	-4
347.225	1	-3
347.396	1	-6
347.567	1	8
347.738	1	0
347.909	1	-1
348.080	1	9
348.251	1	13
348.422	1	-4
348.593	1	2
348.764	1	13
348.935	1	-2
349.106	1	0
349.277	1	10
349.448	1	8
349.619	1	3
349.790	1	10
349.961	1	15
350.132	1	2
350.303	1	13
350.474	1	1
350.645	1	0
350.816	1	5
350.987	1	-8
351.157	1	12
351.328	1	0
351.499	1	16
351.670	1	11
351.841	1	11
352.012	1	11
352.183	1	3
352.354	1	9
352.525	1	-2
352.696	1	3
352.867	1	2
353.038	1	7
353.209	1	11
353.380	1	2
353.551	1	-8
353.722	1	-2
353.893	1	0
354.064	1	7
354.235	1	0
354.406	1	4
354.576	1	2
354.747	1	3
354.918	1	17
355.089	1	5
355.260	1	5
355.431	1	1
355.602	1	0
355.773	1	-3
355.944	1	7
356.115	1	4
356.286	1	6
356.457	1	12
356.628	1	4
356.799	1	-6
356.970	1	-6
357.141	1	13
357.311	1	-2
357.482	1	4
357.653	1	2
357.824	1	1
357.995	1	3
358.166	1	2
358.337	1	15
358.508	1	-1
358.679	1	-2
358.850	1	9
359.021	1	-2
359.192	1	9
359.363	1	-7
359.533	1	-5
359.704	1	12
359.875	1	8
360.046	1	3
360.217	1	7
360.388	1	6
360.559	1	4
360.730	1	-2
360.901	1	1
361.072	1	-5
361.243	1	6
361.414	1	1
361.584	1	-5
361.755	1	7
361.926	1	1
362.097	1	-1
362.268	1	5
362.439	1	-4
362.610	1	9
362.781	1	-3
362.952	1	-5
363.123	1	-4
363.293	1	5
363.464	1	1
363.635	1	8
363.806	1	4
363.977	1	9
364.148	1	4
364.319	1	2
364.490	1	8
364.661	1	-3
364.832	1	8
365.002	1	-4
365.173	1	-3
365.344	1	-16
365.515	1	10
365.686	1	7
365.857	1	-4
366.028	1	11
366.199	1	-11
366.370	1	1
366.540	1	4
366.711	1	-3
366.882	1	0
367.053	1	12
367.224	1	-12
367.395	1	-1
367.566	1	-1
367.737	1	14
367.908	1	1
368.078	1	1
368.249	1	9
368.420	1	8
368.591	1	2
368.762	1	4
368.933	1	11
369.104	1	4
369.274	1	-2
369.445	1	-1
369.616	1	14
369.787	1	-8
369.958	1	5
370.129	1	4
370.300	1	8
370.471	1	-2
370.641	1	2
370.812	1	3
370.983	1	1
371.154	1	9
371.325	1	-1
371.496	1	3
371.667	1	-5
371.837	1	8
372.008	1	7
372.179	1	3
372.350	1	3
372.521	1	0
372.692	1	-1
372.863	1	-3
373.033	1	4
373.204	1	11
373.375	1	3
373.546	1	-1
373.717	1	2
373.888	1	-2
374.059	1	2
374.229	1	0
374.400	1	4
374.571	1	-3
374.742	1	6
374.913	1	-3
375.084	1	1
375.254	1	5
375.425	1	12
375.596	1	9
375.767	1	8
375.938	1	-8
376.109	1	2
376.279	1	0
376.450	1	7
376.621	1	3
376.792	1	-4
376.963	1	12
377.134	1	6
377.304	1	0
377.475	1	4
377.646	1	-3
377.817	1	-1
377.988	1	2
378.159	1	0
378.329	1	6
378.500	1	-4
378.671	1	6
378.842	1	14
379.013	1	10
379.184	1	8
379.354	1	5
379.525	1	5
379.696	1	-4
379.867	1	11
380.038	1	8
380.209	1	4
380.379	1	9
380.550	1	-3
380.721	1	9
380.892	1	12
381.063	1	3
381.233	1	9
381.404	1	13
381.575	1	11
381.746	1	4
381.917	1	1
382.087	1	6
382.258	1	8
382.429	1	10
382.600	1	-3
382.771	1	1
382.941	1	-8
383.112	1	-7
383.283	1	1
383.454	1	9
383.625	1	-3
383.795	1	14
383.966	1	21
384.137	1	0
384.308	1	13
384.479	1	10
384.649	1	-1
384.820	1	5
384.991	1	13
385.162	1	6
385.333	1	3
385.503	1	3
385.674	1	8
385.845	1	0
386.016	1	17
386.187	1	8
386.357	1	-1
386.528	1	3
386.699	1	0
386.870	1	-3
387.041	1	7
387.211	1	7
387.382	1	4
387.553	1	8
387.724	1	-10
387.894	1	8
388.065	1	2
388.236	1	8
388.407	1	4
388.578	1	9
388.748	1	8
388.919	1	2
389.090	1	15
389.261	1	-2
389.431	1	13
389.602	1	3
389.773	1	5
389.944	1	5
390.114	1	1
390.285	1	8
390.456	1	12
390.627	1	8
390.798	1	7
390.968	1	13
391.139	1	-4
391.310	1	4
391.481	1	4
391.651	1	11
391.822	1	7
391.993	1	-3
392.164	1	6
392.334	1	-1
392.505	1	5
392.676	1	-5
392.847	1	11
393.017	1	-1
393.188	1	2
393.359	1	11
393.530	1	8
393.700	1	13
393.871	1	5
394.042	1	11
394.213	1	5
394.383	1	4
394.554	1	12
394.725	1	12
394.896	1	4
395.066	1	12
395.237	1	0
395.408	1	-1
395.579	1	-1
395.749	1	5
395.920	1	8
396.091	1	4
396.262	1	-1
396.432	1	6
396.603	1	13
396.774	1	7
396.945	1	3
397.115	1	15
397.286	1	-6
397.457	1	13
397.627	1	1
397.798	1	11
397.969	1	10
398.140	1	6
398.310	1	13
398.481	1	3
398.652	1	12
398.823	1	8
398.993	1	13
399.164	1	-2
399.335	1	8
399.505	1	-3
399.676	1	2
399.847	1	13
400.018	1	17
400.188	1	5
400.359	1	3
400.530	1	20
400.700	1	3
400.871	1	22
401.042	1	7
401.213	1	1
401.383	1	3
401.554	1	6
401.725	1	-1
401.895	1	-5
402.066	1	1
402.237	1	20
402.408	1	18
402.578	1	7
402.749	1	7
402.920	1	0
403.090	1	2
403.261	1	11
403.432	1	5
403.603	1	12
403.773	1	14
403.944	1	8
404.115	1	15
404.285	1	13
404.456	1	4
404.627	1	8
404.797	1	5
404.968	1	19
405.139	1	8
405.310	1	12
405.480	1	9
405.651	1	0
405.822	1	6
405.992	1	14
406.163	1	12
406.334	1	16
406.504	1	7
406.675	1	15
406.846	1	12
407.016	1	14
407.187	1	10
407.358	1	-4
407.528	1	-1
407.699	1	8
407.870	1	13
408.041	1	17
408.211	1	5
408.382	1	6
408.553	1	8
408.723	1	17
408.894	1	2
409.065	1	5
409.235	1	10
409.406	1	10
409.577	1	17
409.747	1	3
409.918	1	9
410.089	1	9
410.259	1	7
410.430	1	10
410.601	1	15
410.771	1	9
410.942	1	10
411.113	1	9
411.283	1	3
411.454	1	14
411.625	1	13
411.795	1	12
411.966	1	13
412.137	1	25
412.307	1	0
412.478	1	7
412.649	1	13
412.819	1	10
412.990	1	11
413.161	1	14
413.331	1	5
413.502	1	15
413.672	1	4
413.843	1	9
414.014	1	3
414.184	1	10
414.355	1	13
414.526	1	5
414.696	1	13
414.867	1	20
415.038	1	0
415.208	1	-3
415.379	1	6
415.550	1	10
415.720	1	6
415.891	1	8
416.062	1	2
416.232	1	11
416.403	1	5
416.573	1	7
416.744	1	11
416.915	1	3
417.085	1	17
417.256	1	5
417.427	1	7
417.597	1	14
417.768	1	9
417.939	1	1
418.109	1	18
418.280	1	17
418.450	1	13
418.621	1	9
418.792	1	10
418.962	1	15
419.133	1	17
419.304	1	1
419.474	1	12
419.645	1	15
419.815	1	26
419.986	1	19
420.157	1	17
420.327	1	7
420.498	1	6
420.669	1	10
420.839	1	15
421.010	1	10
421.180	1	14
421.351	1	-3
421.522	1	4
421.692	1	6
421.863	1	10
422.033	1	4
422.204	1	1
422.375	1	22
422.545	1	16
422.716	1	8
422.886	1	5
423.057	1	17
423.228	1	7
423.398	1	21
423.569	1	6
423.740	1	6
423.910	1	7
424.081	1	18
424.251	1	13
424.422	1	12
424.593	1	18
424.763	1	16
424.934	1	16
425.104	1	16
425.275	1	11
425.445	1	9
425.616	1	12
425.787	1	18
425.957	1	18
426.128	1	24
426.298	1	2
426.469	1	22
426.640	1	1
426.810	1	11
426.981	1	9
427.151	1	10
427.322	1	25
427.493	1	11
427.663	1	23
427.834	1	3
428.004	1	8
428.175	1	4
428.345	1	14
428.516	1	16
428.687	1	11
428.857	1	-2
429.028	1	13
429.198	1	10
429.369	1	12
429.540	1	12
429.710	1	10
429.881	1	8
430.051	1	10
430.222	1	13
430.392	1	14
430.563	1	16
430.734	1	9
430.904	1	8
431.075	1	9
431.245	1	5
431.416	1	-6
431.586	1	0
431.757	1	9
431.927	1	16
432.098	1	10
432.269	1	15
432.439	1	9
432.610	1	12
432.780	1	-2
432.951	1	12
433.121	1	10
433.292	1	1
433.462	1	16
433.633	1	17
433.804	1	14
433.974	1	13
434.145	1	11
434.315	1	14
434.486	1	14
434.656	1	4
434.827	1	8
434.997	1	15
435.168	1	7
435.339	1	9
435.509	1	18
435.680	1	-5
435.850	1	-2
436.021	1	5
436.191	1	10
436.362	1	14
436.532	1	10
436.703	1	10
436.873	1	7
437.044	1	16
437.214	1	15
437.385	1	19
437.556	1	11
437.726	1	-2
437.897	1	6
438.067	1	6
438.238	1	12
438.408	1	15
438.579	1	7
438.749	1	3
438.920	1	12
439.090	1	10
439.261	1	9
439.431	1	16
439.602	1	12
439.772	1	9
439.943	1	11
440.113	1	10
440.284	1	8
440.455	1	3
440.625	1	11
440.796	1	17
440.966	1	7
441.137	1	2
441.307	1	16
441.478	1	3
441.648	1	12
441.819	1	5
441.989	1	9
442.160	1	20
442.330	1	5
442.501	1	0
442.671	1	17
442.842	1	10
443.012	1	16
443.183	1	14
443.353	1	8
443.524	1	5
443.694	1	9
443.865	1	11
444.035	1	10
444.206	1	5
444.376	1	12
444.547	1	-3
444.717	1	-1
444.888	1	19
445.058	1	13
445.229	1	5
445.399	1	4
445.570	1	14
445.740	1	3
445.911	1	-1
446.081	1	3
446.252	1	6
446.422	1	2
446.593	1	15
446.763	1	8
446.934	1	-7
447.104	1	6
447.275	1	14
447.445	1	12
447.616	1	15
447.786	1	5
447.957	1	8
448.127	1	-1
448.298	1	6
448.468	1	10
448.639	1	20
448.809	1	11
448.979	1	7
449.150	1	5
449.320	1	12
449.491	1	15
449.661	1	-2
449.832	1	10
450.002	1	4
450.173	1	10
450.343	1	3
450.514	1	6
450.684	1	13
450.855	1	15
451.025	1	12
451.196	1	9
451.366	1	14
451.537	1	6
451.707	1	13
451.878	1	9
452.048	1	3
452.218	1	20
452.389	1	11
452.559	1	22
452.730	1	-8
452.900	1	4
453.071	1	7
453.241	1	7
453.412	1	11
453.582	1	8
453.753	1	14
453.923	1	8
454.093	1	3
454.264	1	5
454.434	1	10
454.605	1	9
454.775	1	4
454.946	1	7
455.116	1	5
455.287	1	15
455.457	1	5
455.628	1	2
455.798	1	-1
455.968	1	5
456.139	1	4
456.309	1	6
456.480	1	-4
456.650	1	16
456.821	1	4
456.991	1	8
457.161	1	10
457.332	1	0
457.502	1	21
457.673	1	8
457.843	1	3
458.014	1	5
458.184	1	9
458.355	1	23
458.525	1	12
458.695	1	4
458.866	1	2
459.036	1	-4
459.207	1	7
459.377	1	2
459.548	1	-4
459.718	1	1
459.888	1	1
460.059	1	4
460.229	1	8
460.400	1	20
460.570	1	5
460.740	1	-1
460.911	1	16
461.081	1	6
461.252	1	1
461.422	1	9
461.593	1	13
461.763	1	11
461.933	1	4
462.104	1	8
462.274	1	10
462.445	1	4
462.615	1	-2
462.785	1	-1
462.956	1	5
463.126	1	4
463.297	1	14
463.467	1	7
463.638	1	8
463.808	1	6
463.978	1	10
464.149	1	17
464.319	1	-1
464.490	1	1
464.660	1	3
464.830	1	-2
465.001	1	8
465.171	1	4
465.342	1	7
465.512	1	12
465.682	1	4
465.853	1	1
466.023	1	6
466.194	1	-4
466.364	1	5
466.534	1	6
466.705	1	5
466.875	1	2
467.045	1	15
467.216	1	9
467.386	1	8
467.557	1	2
467.727	1	8
467.897	1	7
468.068	1	-5
468.238	1	1
468.409	1	4
468.579	1	12
468.749	1	14
468.920	1	2
469.090	1	5
469.260	1	4
469.431	1	-1
469.601	1	1
469.772	1	-8
469.942	1	0
470.112	1	-2
470.283	1	9
470.453	1	10
470.623	1	5
470.794	1	-13
470.964	1	8
471.135	1	1
471.305	1	-4
471.475	1	0
471.646	1	6
471.816	1	2
471.986	1	13
472.157	1	3
472.327	1	3
472.497	1	1
472.668	1	-3
472.838	1	1
473.009	1	12
473.179	1	7
473.349	1	4
473.520	1	2
473.690	1	8
473.860	1	1
474.031	1	6
474.201	1	3
474.371	1	5
474.542	1	7
474.712	1	0
474.882	1	3
475.053	1	6
475.223	1	10
475.394	1	-5
475.564	1	12
475.734	1	11
475.905	1	-1
476.075	1	8
476.245	1	-5
476.416	1	1
476.586	1	13
476.756	1	-2
476.927	1	-7
477.097	1	-2
477.267	1	5
477.438	1	1
477.608	1	0
477.778	1	4
477.949	1	6
478.119	1	4
478.289	1	3
478.460	1	-1
478.630	1	4
478.800	1	-2
478.971	1	-11
479.141	1	1
479.311	1	10
479.482	1	7
479.652	1	11
479.822	1	3
479.993	1	1
480.163	1	7
480.333	1	2
480.504	1	2
480.674	1	-8
480.844	1	-2
481.015	1	9
481.185	1	1
481.355	1	9
481.525	1	7
481.696	1	17
481.866	1	6
482.036	1	4
482.207	1	7
482.377	1	-3
482.547	1	2
482.718	1	2
482.888	1	-6
483.058	1	5
483.229	1	6
483.399	1	8
483.569	1	10
483.740	1	1
483.910	1	-3
484.080	1	12
484.250	1	5
484.421	1	4
484.591	1	4
484.761	1	2
484.932	1	-2
485.102	1	7
485.272	1	1
485.443	1	18
485.613	1	2
485.783	1	3
485.953	1	6
486.124	1	-8
486.294	1	5
486.464	1	8
486.635	1	9
486.805	1	3
486.975	1	0
487.146	1	5
487.316	1	7
487.486	1	2
487.656	1	13
487.827	1	4
487.997	1	-2
488.167	1	8
488.338	1	6
488.508	1	13
488.678	1	5
488.848	1	12
489.019	1	0
489.189	1	1
489.359	1	-8
489.529	1	-1
489.700	1	-9
489.870	1	4
490.040	1	9
490.211	1	18
490.381	1	18
490.551	1	0
490.721	1	1
490.892	1	-11
491.062	1	-2
491.232	1	5
491.402	1	8
491.573	1	10
491.743	1	2
491.913	1	9
492.084	1	-2
492.254	1	2
492.424	1	5
492.594	1	-2
492.765	1	-3
492.935	1	5
493.105	1	10
493.275	1	0
493.446	1	-1
493.616	1	0
493.786	1	4
493.956	1	17
494.127	1	8
494.297	1	6
494.467	1	2
494.637	1	5
494.808	1	2
494.978	1	1
495.148	1	-9
495.318	1	6
495.489	1	-2
495.659	1	2
495.829	1	6
495.999	1	-3
496.170	1	1
496.340	1	-3
496.510	1	2
496.680	1	8
496.851	1	2
497.021	1	7
497.191	1	3
497.361	1	4
497.532	1	-1
497.702	1	2
497.872	1	3
498.042	1	1
498.213	1	2
498.383	1	2
498.553	1	5
498.723	1	-6
498.894	1	9
499.064	1	4
499.234	1	13
499.404	1	3
499.574	1	-1
499.745	1	-4
499.915	1	4
500.085	1	-6
500.255	1	13
500.426	1	2
500.596	1	-2
500.766	1	4
500.936	1	3
501.106	1	-3
501.277	1	1
501.447	1	-1
501.617	1	8
501.787	1	0
501.958	1	-7
502.128	1	5
502.298	1	3
502.468	1	0
502.638	1	-6
502.809	1	1
502.979	1	0
503.149	1	5
503.319	1	2
503.489	1	10
503.660	1	1
503.830	1	5
504.000	1	2
504.170	1	-1
504.340	1	-1
504.511	1	-2
504.681	1	14
504.851	1	14
505.021	1	0
505.192	1	8
505.362	1	7
505.532	1	2
505.702	1	7
505.872	1	1
506.043	1	7
506.213	1	1
506.383	1	1
506.553	1	-2
506.723	1	-6
506.893	1	4
507.064	1	1
507.234	1	6
507.404	1	9
507.574	1	-4
507.744	1	-1
507.915	1	-8
508.085	1	8
508.255	1	-3
508.425	1	-1
508.595	1	10
508.766	1	1
508.936	1	6
509.106	1	-6
509.276	1	12
509.446	1	-5
509.616	1	-1
509.787	1	-4
509.957	1	9
510.127	1	5
510.297	1	7
510.467	1	0
510.638	1	8
510.808	1	2
510.978	1	1
511.148	1	3
511.318	1	-3
511.488	1	7
511.659	1	-2
511.829	1	0
511.999	1	16
512.169	1	6
512.339	1	1
512.509	1	0
512.680	1	-1
512.850	1	8
513.020	1	4
513.190	1	2
513.360	1	4
513.530	1	1
513.700	1	5
513.871	1	10
514.041	1	3
514.211	1	9
514.381	1	2
514.551	1	1
514.721	1	6
514.892	1	-4
515.062	1	1
515.232	1	-9
515.402	1	3
515.572	1	18
515.742	1	0
515.912	1	0
516.083	1	3
516.253	1	-1
516.423	1	8
516.593	1	4
516.763	1	-3
516.933	1	-1
517.104	1	-8
517.274	1	4
517.444	1	8
517.614	1	-4
517.784	1	7
517.954	1	6
518.124	1	24
518.294	1	8
518.465	1	-12
518.635	1	2
518.805	1	-1
518.975	1	5
519.145	1	-4
519.315	1	11
519.485	1	0
519.656	1	7
519.826	1	-1
519.996	1	4
520.166	1	0
520.336	1	-5
520.506	1	-1
520.676	1	2
520.846	1	-1
521.017	1	7
521.187	1	6
521.357	1	8
521.527	1	-7
521.697	1	-1
521.867	1	-4
522.037	1	9
522.207	1	-1
522.377	1	5
522.548	1	-2
522.718	1	7
522.888	1	-5
523.058	1	3
523.228	1	-1
523.398	1	4
523.568	1	-4
523.738	1	5
523.909	1	2
524.079	1	4
524.249	1	-5
524.419	1	5
524.589	1	5
524.759	1	5
524.929	1	5
525.099	1	-1
525.269	1	-5
525.439	1	7
525.610	1	4
525.780	1	3
525.950	1	3
526.120	1	6
526.290	1	3
526.460	1	2
526.630	1	9
526.800	1	-7
526.970	1	-4
527.140	1	3
527.311	1	3
527.481	1	4
527.651	1	7
527.821	1	-1
527.991	1	10
528.161	1	-4
528.331	1	0
528.501	1	2
528.671	1	2
528.841	1	4
529.011	1	-5
529.181	1	1
529.352	1	5
529.522	1	3
529.692	1	5
529.862	1	-11
530.032	1	-1
530.202	1	-6
530.372	1	-5
530.542	1	-1
530.712	1	3
530.882	1	-3
531.052	1	3
531.222	1	2
531.392	1	-7
531.563	1	-5
531.733	1	7
531.903	1	1
532.073	1	-2
532.243	1	1
532.413	1	2
532.583	1	0
532.753	1	7
532.923	1	4
533.093	1	-4
533.263	1	-2
533.433	1	-5
533.603	1	16
533.773	1	13
533.943	1	-6
534.113	1	12
534.284	1	-2
534.454	1	0
534.624	1	6
534.794	1	7
534.964	1	8
535.134	1	4
535.304	1	8
535.474	1	5
535.644	1	-2
535.814	1	-9
535.984	1	13
536.154	1	8
536.324	1	5
536.494	1	2
536.664	1	12
536.834	1	-2
537.004	1	1
537.174	1	-11
537.344	1	9
537.514	1	2
537.685	1	12
537.855	1	-4
538.025	1	-3
538.195	1	0
538.365	1	4
538.535	1	-1
538.705	1	-11
538.875	1	3
539.045	1	0
539.215	1	10
539.385	1	7
539.555	1	-5
539.725	1	-8
539.895	1	13
540.065	1	1
540.235	1	-6
540.405	1	-3
540.575	1	8
540.745	1	3
540.915	1	-2
541.085	1	-1
541.255	1	3
541.425	1	-11
541.595	1	-14
541.765	1	-2
541.935	1	11
542.105	1	-1
542.275	1	0
542.445	1	-2
542.615	1	0
542.785	1	-1
542.955	1	8
543.125	1	12
543.295	1	6
543.465	1	5
543.635	1	4
543.805	1	-5
543.975	1	5
544.145	1	-9
544.315	1	6
544.485	1	-4
544.655	1	6
544.825	1	5
544.995	1	-3
545.165	1	7
545.335	1	2
545.505	1	5
545.675	1	5
545.845	1	9
546.015	1	2
546.185	1	7
546.355	1	-7
546.525	1	5
546.695	1	11
546.865	1	-3
547.035	1	-1
547.205	1	0
547.375	1	2
547.545	1	10
547.715	1	-7
547.885	1	-1
548.055	1	10
548.225	1	-1
548.395	1	-3
548.565	1	3
548.735	1	-8
548.905	1	14
549.075	1	2
549.245	1	1
549.415	1	1
549.585	1	-1
549.755	1	-1
549.925	1	5
550.095	1	-2
550.265	1	1
550.435	1	5
550.605	1	0
550.775	1	-1
550.945	1	0
551.115	1	-1
551.285	1	-6
551.455	1	9
551.625	1	7
551.795	1	8
551.965	1	-1
552.135	1	-3
552.305	1	10
552.475	1	3
552.645	1	9
552.815	1	-11
552.985	1	-5
553.155	1	-2
553.325	1	2
553.495	1	-3
553.665	1	4
553.835	1	6
554.004	1	3
554.174	1	-12
554.344	1	4
554.514	1	4
554.684	1	-7
554.854	1	-4
555.024	1	-15
555.194	1	7
555.364	1	-2
555.534	1	8
555.704	1	6
555.874	1	3
556.044	1	-5
556.214	1	0
556.384	1	-2
556.554	1	-12
556.724	1	-4
556.894	1	-6
557.064	1	2
557.234	1	-4
557.404	1	-10
557.573	1	3
557.743	1	-7
557.913	1	6
558.083	1	10
558.253	1	-1
558.423	1	0
558.593	1	12
558.763	1	2
558.933	1	5
559.103	1	0
559.273	1	-1
559.443	1	-5
559.613	1	-11
559.783	1	-3
559.953	1	-14
560.122	1	-13
560.292	1	-2
560.462	1	4
560.632	1	4
560.802	1	1
560.972	1	-1
561.142	1	-7
561.312	1	-5
561.482	1	0
561.652	1	7
561.822	1	10
561.992	1	0
562.162	1	8
562.331	1	-4
562.501	1	-2
562.671	1	-6
562.841	1	2
563.011	1	0
563.181	1	2
563.351	1	-5
563.521	1	0
563.691	1	0
563.861	1	2
564.031	1	-3
564.201	1	6
564.370	1	-5
564.540	1	-2
564.710	1	0
564.880	1	4
565.050	1	6
565.220	1	-6
565.390	1	3
565.560	1	8
565.730	1	-7
565.900	1	-2
566.069	1	0
566.239	1	0
566.409	1	6
566.579	1	-1
566.749	1	16
566.919	1	-7
567.089	1	12
567.259	1	1
567.429	1	-10
567.599	1	4
567.768	1	0
567.938	1	8
568.108	1	3
568.278	1	5
568.448	1	3
568.618	1	10
568.788	1	0
568.958	1	-3
569.128	1	-2
569.297	1	4
569.467	1	-7
569.637	1	11
569.807	1	4
569.977	1	2
570.147	1	-2
570.317	1	5
570.487	1	-3
570.656	1	3
570.826	1	-4
570.996	1	-6
571.166	1	1
571.336	1	6
571.506	1	7
571.676	1	1
571.846	1	1
572.015	1	-7
572.185	1	-6
572.355	1	7
572.525	1	-5
572.695	1	-2
572.865	1	6
573.035	1	18
573.205	1	1
573.374	1	11
573.544	1	1
573.714	1	8
573.884	1	-1
574.054	1	2
574.224	1	4
574.394	1	-7
574.563	1	-3
574.733	1	5
574.903	1	4
575.073	1	8
575.243	1	7
575.413	1	5
575.583	1	9
575.752	1	2
575.922	1	-8
576.092	1	5
576.262	1	4
576.432	1	13
576.602	1	4
576.772	1	1
576.941	1	-1
577.111	1	11
577.281	1	-4
577.451	1	6
577.621	1	-2
577.791	1	6
577.960	1	2
578.130	1	-5
578.300	1	3
578.470	1	-1
578.640	1	-5
578.810	1	-6
578.979	1	1
579.149	1	-2
579.319	1	-5
579.489	1	1
579.659	1	6
579.829	1	7
579.998	1	1
580.168	1	-2
580.338	1	-5
580.508	1	2
580.678	1	6
580.848	1	-9
581.017	1	5
581.187	1	-5
581.357	1	0
581.527	1	-8
581.697	1	8
581.867	1	2
582.036	1	3
582.206	1	-1
582.376	1	5
582.546	1	-8
582.716	1	4
582.885	1	7
583.055	1	-2
583.225	1	14
583.395	1	-1
583.565	1	-3
583.735	1	-1
583.904	1	6
584.074	1	12
584.244	1	10
584.414	1	-6
584.584	1	9
584.753	1	5
584.923	1	5
585.093	1	-3
585.263	1	4
585.433	1	-3
585.602	1	-1
585.772	1	-3
585.942	1	2
586.112	1	0
586.282	1	-4
586.451	1	0
586.621	1	3
586.791	1	6
586.961	1	-4
587.131	1	-4
587.300	1	-8
587.470	1	9
587.640	1	-4
587.810	1	7
587.980	1	1
588.149	1	3
588.319	1	-7
588.489	1	-2
588.659	1	5
588.829	1	12
588.998	1	-2
589.168	1	2
589.338	1	-3
589.508	1	-6
589.677	1	-8
589.847	1	12
590.017	1	7
590.187	1	-1
590.357	1	-10
590.526	1	-2
590.696	1	1
590.866	1	11
591.036	1	11
591.205	1	10
591.375	1	-11
591.545	1	11
591.715	1	-5
591.885	1	2
592.054	1	-6
592.224	1	3
592.394	1	-5
592.564	1	0
592.733	1	11
592.903	1	4
593.073	1	5
593.243	1	7
593.412	1	9
593.582	1	-2
593.752	1	10
593.922	1	-5
594.091	1	7
594.261	1	5
594.431	1	9
594.601	1	-1
594.771	1	-4
594.940	1	-9
595.110	1	-5
595.280	1	-2
595.450	1	4
595.619	1	6
595.789	1	-5
595.959	1	5
596.129	1	5
596.298	1	20
596.468	1	4
596.638	1	-9
596.808	1	-1
596.977	1	10
597.147	1	5
597.317	1	-2
597.487	1	-4
597.656	1	1
597.826	1	-5
597.996	1	-1
598.166	1	1
598.335	1	-5
598.505	1	1
598.675	1	6
598.844	1	-1
599.014	1	-11
599.184	1	5
599.354	1	4
599.523	1	9
599.693	1	7
599.863	1	1
600.033	1	-7
600.202	1	3
600.372	1	-2
600.542	1	2
600.712	1	0
600.881	1	1
601.051	1	-4
601.221	1	-3
601.390	1	-8
601.560	1	7
601.730	1	3
601.900	1	0
602.069	1	0
602.239	1	16
602.409	1	-6
602.578	1	-3
602.748	1	-1
602.918	1	-3
603.088	1	11
603.257	1	4
603.427	1	2
603.597	1	8
603.767	1	3
603.936	1	-13
604.106	1	-8
604.276	1	2
604.445	1	7
604.615	1	-6
604.785	1	9
604.954	1	-5
605.124	1	12
605.294	1	-4
605.464	1	4
605.633	1	-2
605.803	1	10
605.973	1	-2
606.142	1	7
606.312	1	2
606.482	1	6
606.652	1	-4
606.821	1	-3
606.991	1	3
607.161	1	5
607.330	1	-6
607.500	1	-11
607.670	1	-5
607.839	1	-3
608.009	1	-2
608.179	1	1
608.348	1	15
608.518	1	-5
608.688	1	11
608.858	1	7
609.027	1	12
609.197	1	-6
609.367	1	8
609.536	1	0
609.706	1	0
609.876	1	3
610.045	1	-8
610.215	1	8
610.385	1	5
610.554	1	10
610.724	1	-1
610.894	1	3
611.063	1	-5
611.233	1	5
611.403	1	7
611.572	1	0
611.742	1	-8
611.912	1	6
612.081	1	10
612.251	1	3
612.421	1	5
612.590	1	-5
612.760	1	8
612.930	1	-8
613.099	1	9
613.269	1	1
613.439	1	6
613.608	1	0
613.778	1	6
613.948	1	5
614.117	1	-1
614.287	1	18
614.457	1	-2
614.626	1	9
614.796	1	7
614.966	1	7
615.135	1	8
615.305	1	-2
615.475	1	-2
615.644	1	-14
615.814	1	5
615.984	1	11
616.153	1	-5
616.323	1	3
616.493	1	2
616.662	1	4
616.832	1	3
617.002	1	-6
617.171	1	-1
617.341	1	9
617.511	1	3
617.680	1	15
617.850	1	7
618.019	1	4
618.189	1	-2
618.359	1	7
618.528	1	8
618.698	1	-7
618.868	1	0
619.037	1	8
619.207	1	5
619.377	1	1
619.546	1	-8
619.716	1	0
619.885	1	-3
620.055	1	-8
620.225	1	6
620.394	1	8
620.564	1	1
620.734	1	3
620.903	1	5
621.073	1	3
621.242	1	6
621.412	1	2
621.582	1	2
621.751	1	3
621.921	1	5
622.091	1	4
622.260	1	-7
622.430	1	5
622.599	1	2
622.769	1	5
622.939	1	6
623.108	1	0
623.278	1	-2
623.448	1	-2
623.617	1	-5
623.787	1	4
623.956	1	2
624.126	1	-4
624.296	1	-1
624.465	1	3
624.635	1	17
624.804	1	-3
624.974	1	12
625.144	1	3
625.313	1	0
625.483	1	10
625.652	1	-4
625.822	1	3
625.992	1	0
626.161	1	17
626.331	1	11
626.501	1	14
626.670	1	-3
626.840	1	-1
627.009	1	9
627.179	1	7
627.348	1	8
627.518	1	6
627.688	1	5
627.857	1	1
628.027	1	6
628.196	1	-6
628.366	1	-1
628.536	1	-1
628.705	1	5
628.875	1	7
629.044	1	5
629.214	1	16
629.384	1	-1
629.553	1	10
629.723	1	0
629.892	1	13
630.062	1	-2
630.232	1	6
630.401	1	4
630.571	1	15
630.740	1	0
630.910	1	9
631.079	1	16
631.249	1	7
631.419	1	-5
631.588	1	0
631.758	1	9
631.927	1	1
632.097	1	0
632.266	1	6
632.436	1	4
632.606	1	7
632.775	1	12
632.945	1	4
633.114	1	2
633.284	1	0
633.453	1	-2
633.623	1	6
633.793	1	15
633.962	1	-2
634.132	1	2
634.301	1	6
634.471	1	-9
634.640	1	-2
634.810	1	4
634.979	1	10
635.149	1	9
635.319	1	-2
635.488	1	6
635.658	1	10
635.827	1	1
635.997	1	5
636.166	1	7
636.336	1	3
636.505	1	16
636.675	1	2
636.845	1	1
637.014	1	10
637.184	1	10
637.353	1	7
637.523	1	18
637.692	1	8
637.862	1	8
638.031	1	11
638.201	1	8
638.370	1	8
638.540	1	1
638.710	1	-1
638.879	1	3
639.049	1	8
639.218	1	-9
639.388	1	11
639.557	1	18
639.727	1	2
639.896	1	14
640.066	1	11
640.235	1	5
640.405	1	7
640.574	1	8
640.744	1	12
640.914	1	-2
641.083	1	7
641.253	1	-4
641.422	1	1
641.592	1	-5
641.761	1	3
641.931	1	12
642.100	1	11
642.270	1	5
642.439	1	2
642.609	1	13
642.778	1	-5
642.948	1	16
643.117	1	0
643.287	1	5
643.456	1	6
643.626	1	5
643.795	1	-11
643.965	1	9
644.134	1	6
644.304	1	10
644.473	1	2
644.643	1	6
644.812	1	4
644.982	1	6
645.151	1	1
645.321	1	7
645.490	1	7
645.660	1	1
645.829	1	4
645.999	1	5
646.168	1	5
646.338	1	-8
646.507	1	-3
646.677	1	-7
646.846	1	-1
647.016	1	8
647.185	1	5
647.355	1	7
647.524	1	3
647.694	1	9
647.863	1	10
648.033	1	8
648.202	1	-4
648.372	1	4
648.541	1	4
648.711	1	1
648.880	1	2
649.050	1	12
649.219	1	9
649.389	1	1
649.558	1	0
649.728	1	0
649.897	1	10
650.067	1	-2
650.236	1	1
650.406	1	15
650.575	1	11
650.745	1	2
650.914	1	17
651.084	1	1
651.253	1	-1
651.423	1	13
651.592	1	11
651.762	1	-2
651.931	1	6
652.101	1	5
652.270	1	4
652.440	1	-4
652.609	1	4
652.778	1	-5
652.948	1	12
653.117	1	12
653.287	1	-4
653.456	1	6
653.626	1	1
653.795	1	-1
653.965	1	10
654.134	1	-3
654.304	1	4
654.473	1	13
654.643	1	-10
654.812	1	-3
654.982	1	2
655.151	1	6
655.320	1	7
655.490	1	4
655.659	1	-3
655.829	1	7
655.998	1	8
656.168	1	6
656.337	1	7
656.507	1	4
656.676	1	0
656.846	1	9
657.015	1	5
657.184	1	-1
657.354	1	1
657.523	1	6
657.693	1	-3
657.862	1	5
658.032	1	11
658.201	1	8
658.371	1	6
658.540	1	-8
658.709	1	-10
658.879	1	-4
659.048	1	6
659.218	1	7
659.387	1	7
659.557	1	-1
659.726	1	-2
659.895	1	-10
660.065	1	3
660.234	1	-5
660.404	1	12
660.573	1	-2
660.743	1	-5
660.912	1	-5
661.081	1	12
661.251	1	19
661.420	1	-6
661.590	1	-5
661.759	1	0
661.929	1	8
662.098	1	-3
662.267	1	10
662.437	1	5
662.606	1	7
662.776	1	3
662.945	1	4
663.115	1	-2
663.284	1	0
663.453	1	-1
663.623	1	-4
663.792	1	5
663.962	1	5
664.131	1	4
664.300	1	-4
664.470	1	2
664.639	1	16
664.809	1	-5
664.978	1	-8
665.148	1	3
665.317	1	8
665.486	1	1
665.656	1	9
665.825	1	-2
665.995	1	-10
666.164	1	13
666.333	1	0
666.503	1	4
666.672	1	-3
666.842	1	6
667.011	1	5
667.180	1	-1
667.350	1	-3
667.519	1	-9
667.689	1	3
667.858	1	-6
668.027	1	13
668.197	1	-2
668.366	1	11
668.536	1	-2
668.705	1	10
668.874	1	10
669.044	1	-4
669.213	1	2
669.382	1	9
669.552	1	-1
669.721	1	-3
669.891	1	-4
670.060	1	7
670.229	1	2
670.399	1	5
670.568	1	-6
670.738	1	14
670.907	1	3
671.076	1	6
671.246	1	3
671.415	1	1
671.584	1	-7
671.754	1	3
671.923	1	3
672.093	1	1
672.262	1	-4
672.431	1	2
672.601	1	6
672.770	1	-4
672.939	1	-11
673.109	1	0
673.278	1	4
673.448	1	9
673.617	1	-6
673.786	1	-5
