325.333	1	14
325.504	1	3
325.675	1	10
325.846	1	2
326.017	1	12
326.188	1	8
326.359	1	6
326.531	1	13
326.702	1	11
326.873	1	-2
327.044	1	2
327.215	1	4
327.386	1	13
327.557	1	5
327.728	1	7
327.899	1	10
328.070	1	8
328.241	1	3
328.412	1	-3
328.583	1	6
328.754	1	6
328.926	1	12
329.097	1	7
329.268	1	15
329.439	1	1
329.610	1	15
329.781	1	4
329.952	1	0
330.123	1	2
330.294	1	9
330.465	1	7
330.636	1	16
330.807	1	15
330.978	1	6
331.149	1	2
331.320	1	17
331.492	1	5
331.663	1	7
331.834	1	4
332.005	1	7
332.176	1	9
332.347	1	15
332.518	1	10
332.689	1	11
332.860	1	19
333.031	1	0
333.202	1	9
333.373	1	14
333.544	1	12
333.715	1	-2
333.886	1	4
334.057	1	7
334.228	1	6
334.399	1	2
334.570	1	8
334.741	1	1
334.912	1	6
335.084	1	10
335.255	1	12
335.426	1	3
335.597	1	5
335.768	1	3
335.939	1	17
336.110	1	14
336.281	1	17
336.452	1	7
336.623	1	5
336.794	1	3
336.965	1	7
337.136	1	3
337.307	1	6
337.478	1	-4
337.649	1	15
337.820	1	5
337.991	1	17
338.162	1	18
338.333	1	12
338.504	1	8
338.675	1	10
338.846	1	11
339.017	1	8
339.188	1	11
339.359	1	2
339.530	1	7
339.701	1	12
339.872	1	9
340.043	1	16
340.214	1	-10
340.385	1	9
340.556	1	12
340.727	1	21
340.898	1	7
341.069	1	9
341.240	1	9
341.411	1	18
341.582	1	11
341.753	1	14
341.924	1	16
342.095	1	9
342.266	1	10
342.437	1	8
342.608	1	10
342.779	1	9
342.950	1	2
343.121	1	17
343.292	1	14
343.463	1	1
343.634	1	5
343.805	1	12
343.976	1	5
344.147	1	9
344.318	1	17
344.489	1	4
344.660	1	16
344.831	1	9
345.002	1	7
345.173	1	8
345.344	1	14
345.515	1	-2
345.686	1	4
345.857	1	8
346.028	1	15
346.199	1	9
346.370	1	5
346.541	1	7
346.712	1	8
346.883	1	13
347.054	1	6
347.225	1	6
347.396	1	13
347.567	1	15
347.738	1	7
347.909	1	3
348.080	1	1
348.251	1	6
348.422	1	-8
348.593	1	4
348.764	1	21
348.935	1	12
349.106	1	9
349.277	1	17
349.448	1	5
349.619	1	7
349.790	1	21
349.961	1	4
350.132	1	6
350.303	1	1
350.474	1	12
350.645	1	13
350.816	1	14
350.987	1	0
351.157	1	3
351.328	1	0
351.499	1	18
351.670	1	18
351.841	1	10
352.012	1	9
352.183	1	3
352.354	1	20
352.525	1	4
352.696	1	12
352.867	1	8
353.038	1	4
353.209	1	18
353.380	1	4
353.551	1	5
353.722	1	1
353.893	1	10
354.064	1	10
354.235	1	8
354.406	1	13
354.576	1	1
354.747	1	10
354.918	1	16
355.089	1	-1
355.260	1	11
355.431	1	5
355.602	1	4
355.773	1	8
355.944	1	5
356.115	1	1
356.286	1	4
356.457	1	11
356.628	1	6
356.799	1	6
356.970	1	-6
357.141	1	15
357.311	1	7
357.482	1	9
357.653	1	-3
357.824	1	12
357.995	1	11
358.166	1	10
358.337	1	12
358.508	1	5
358.679	1	8
358.850	1	2
359.021	1	0
359.192	1	4
359.363	1	12
359.533	1	2
359.704	1	10
359.875	1	4
360.046	1	10
360.217	1	0
360.388	1	7
360.559	1	10
360.730	1	4
360.901	1	13
361.072	1	1
361.243	1	13
361.414	1	0
361.584	1	1
361.755	1	6
361.926	1	4
362.097	1	3
362.268	1	4
362.439	1	6
362.610	1	10
362.781	1	11
362.952	1	-3
363.123	1	-10
363.293	1	10
363.464	1	9
363.635	1	9
363.806	1	7
363.977	1	24
364.148	1	6
364.319	1	9
364.490	1	1
364.661	1	0
364.832	1	10
365.002	1	-1
365.173	1	0
365.344	1	-2
365.515	1	3
365.686	1	5
365.857	1	3
366.028	1	1
366.199	1	-6
366.370	1	-2
366.540	1	15
366.711	1	3
366.882	1	12
367.053	1	11
367.224	1	5
367.395	1	-4
367.566	1	6
367.737	1	7
367.908	1	-8
368.078	1	-2
368.249	1	-2
368.420	1	7
368.591	1	-7
368.762	1	10
368.933	1	14
369.104	1	18
369.274	1	-4
369.445	1	8
369.616	1	18
369.787	1	5
369.958	1	-1
370.129	1	10
370.300	1	3
370.471	1	14
370.641	1	7
370.812	1	5
370.983	1	1
371.154	1	13
371.325	1	10
371.496	1	-4
371.667	1	7
371.837	1	10
372.008	1	11
372.179	1	10
372.350	1	5
372.521	1	2
372.692	1	8
372.863	1	5
373.033	1	3
373.204	1	3
373.375	1	16
373.546	1	-1
373.717	1	3
373.888	1	13
374.059	1	3
374.229	1	-4
374.400	1	15
374.571	1	5
374.742	1	9
374.913	1	-6
375.084	1	14
375.254	1	3
375.425	1	9
375.596	1	10
375.767	1	17
375.938	1	-9
376.109	1	-4
376.279	1	-4
376.450	1	18
376.621	1	4
376.792	1	8
376.963	1	14
377.134	1	8
377.304	1	-4
377.475	1	8
377.646	1	2
377.817	1	3
377.988	1	2
378.159	1	-1
378.329	1	10
378.500	1	-1
378.671	1	16
378.842	1	17
379.013	1	9
379.184	1	9
379.354	1	2
379.525	1	14
379.696	1	10
379.867	1	8
380.038	1	14
380.209	1	7
380.379	1	6
380.550	1	15
380.721	1	16
380.892	1	6
381.063	1	15
381.233	1	20
381.404	1	11
381.575	1	14
381.746	1	5
381.917	1	7
382.087	1	7
382.258	1	13
382.429	1	10
382.600	1	14
382.771	1	12
382.941	1	6
383.112	1	5
383.283	1	4
383.454	1	7
383.625	1	6
383.795	1	11
383.966	1	25
384.137	1	10
384.308	1	16
384.479	1	17
384.649	1	8
384.820	1	10
384.991	1	26
385.162	1	9
385.333	1	13
385.503	1	6
385.674	1	17
385.845	1	-2
386.016	1	16
386.187	1	1
386.357	1	10
386.528	1	15
386.699	1	10
386.870	1	5
387.041	1	11
387.211	1	12
387.382	1	12
387.553	1	12
387.724	1	-9
387.894	1	10
388.065	1	15
388.236	1	13
388.407	1	13
388.578	1	13
388.748	1	20
388.919	1	-2
389.090	1	13
389.261	1	13
389.431	1	16
389.602	1	21
389.773	1	6
389.944	1	13
390.114	1	7
390.285	1	19
390.456	1	16
390.627	1	25
390.798	1	12
390.968	1	17
391.139	1	5
391.310	1	14
391.481	1	12
391.651	1	11
391.822	1	9
391.993	1	7
392.164	1	6
392.334	1	9
392.505	1	9
392.676	1	9
392.847	1	18
393.017	1	15
393.188	1	17
393.359	1	23
393.530	1	10
393.700	1	21
393.871	1	9
394.042	1	6
394.213	1	4
394.383	1	8
394.554	1	3
394.725	1	19
394.896	1	27
395.066	1	21
395.237	1	14
395.408	1	22
395.579	1	8
395.749	1	13
395.920	1	-1
396.091	1	10
396.262	1	10
396.432	1	8
396.603	1	19
396.774	1	12
396.945	1	7
397.115	1	20
397.286	1	5
397.457	1	22
397.627	1	16
397.798	1	16
397.969	1	15
398.140	1	5
398.310	1	19
398.481	1	16
398.652	1	12
398.823	1	15
398.993	1	10
399.164	1	8
399.335	1	12
399.505	1	12
399.676	1	15
399.847	1	21
400.018	1	22
400.188	1	4
400.359	1	8
400.530	1	20
400.700	1	7
400.871	1	21
401.042	1	19
401.213	1	6
401.383	1	14
401.554	1	17
401.725	1	7
401.895	1	10
402.066	1	18
402.237	1	28
402.408	1	20
402.578	1	15
402.749	1	9
402.920	1	20
403.090	1	2
403.261	1	7
403.432	1	22
403.603	1	17
403.773	1	15
403.944	1	17
404.115	1	19
404.285	1	7
404.456	1	12
404.627	1	33
404.797	1	11
404.968	1	14
405.139	1	16
405.310	1	15
405.480	1	4
405.651	1	24
405.822	1	12
405.992	1	19
406.163	1	19
406.334	1	26
406.504	1	15
406.675	1	13
406.846	1	13
407.016	1	32
407.187	1	23
407.358	1	18
407.528	1	33
407.699	1	9
407.870	1	7
408.041	1	20
408.211	1	12
408.382	1	9
408.553	1	23
408.723	1	22
408.894	1	7
409.065	1	13
409.235	1	4
409.406	1	19
409.577	1	32
409.747	1	19
409.918	1	23
410.089	1	29
410.259	1	23
410.430	1	9
410.601	1	31
410.771	1	23
410.942	1	14
411.113	1	28
411.283	1	16
411.454	1	23
411.625	1	21
411.795	1	20
411.966	1	18
412.137	1	33
412.307	1	10
412.478	1	15
412.649	1	34
412.819	1	25
412.990	1	11
413.161	1	28
413.331	1	27
413.502	1	21
413.672	1	1
413.843	1	20
414.014	1	10
414.184	1	29
414.355	1	23
414.526	1	15
414.696	1	31
414.867	1	29
415.038	1	13
415.208	1	7
415.379	1	8
415.550	1	23
415.720	1	17
415.891	1	26
416.062	1	13
416.232	1	26
416.403	1	10
416.573	1	16
416.744	1	15
416.915	1	17
417.085	1	24
417.256	1	14
417.427	1	16
417.597	1	7
417.768	1	17
417.939	1	20
418.109	1	24
418.280	1	22
418.450	1	25
418.621	1	15
418.792	1	12
418.962	1	24
419.133	1	20
419.304	1	23
419.474	1	17
419.645	1	23
419.815	1	25
419.986	1	27
420.157	1	20
420.327	1	14
420.498	1	15
420.669	1	12
420.839	1	23
421.010	1	14
421.180	1	14
421.351	1	9
421.522	1	12
421.692	1	17
421.863	1	24
422.033	1	16
422.204	1	13
422.375	1	27
422.545	1	33
422.716	1	22
422.886	1	24
423.057	1	29
423.228	1	21
423.398	1	24
423.569	1	19
423.740	1	28
423.910	1	25
424.081	1	14
424.251	1	28
424.422	1	21
424.593	1	17
424.763	1	22
424.934	1	19
425.104	1	27
425.275	1	23
425.445	1	21
425.616	1	23
425.787	1	22
425.957	1	29
426.128	1	33
426.298	1	10
426.469	1	37
426.640	1	13
426.810	1	18
426.981	1	23
427.151	1	16
427.322	1	28
427.493	1	29
427.663	1	27
427.834	1	13
428.004	1	31
428.175	1	16
428.345	1	18
428.516	1	25
428.687	1	13
428.857	1	10
429.028	1	18
429.198	1	8
429.369	1	18
429.540	1	19
429.710	1	28
429.881	1	20
430.051	1	8
430.222	1	30
430.392	1	17
430.563	1	27
430.734	1	27
430.904	1	16
431.075	1	22
431.245	1	19
431.416	1	6
431.586	1	15
431.757	1	29
431.927	1	9
432.098	1	16
432.269	1	25
432.439	1	16
432.610	1	19
432.780	1	12
432.951	1	20
433.121	1	12
433.292	1	17
433.462	1	25
433.633	1	24
433.804	1	25
433.974	1	26
434.145	1	14
434.315	1	19
434.486	1	23
434.656	1	19
434.827	1	17
434.997	1	15
435.168	1	21
435.339	1	15
435.509	1	24
435.680	1	7
435.850	1	16
436.021	1	15
436.191	1	20
436.362	1	24
436.532	1	18
436.703	1	30
436.873	1	13
437.044	1	32
437.214	1	30
437.385	1	17
437.556	1	18
437.726	1	19
437.897	1	9
438.067	1	15
438.238	1	32
438.408	1	27
438.579	1	20
438.749	1	23
438.920	1	19
439.090	1	21
439.261	1	30
439.431	1	22
439.602	1	25
439.772	1	21
439.943	1	17
440.113	1	15
440.284	1	4
440.455	1	13
440.625	1	14
440.796	1	14
440.966	1	18
441.137	1	6
441.307	1	27
441.478	1	20
441.648	1	24
441.819	1	14
441.989	1	16
442.160	1	16
442.330	1	23
442.501	1	13
442.671	1	21
442.842	1	17
443.012	1	21
443.183	1	27
443.353	1	14
443.524	1	8
443.694	1	12
443.865	1	9
444.035	1	27
444.206	1	22
444.376	1	12
444.547	1	7
444.717	1	30
444.888	1	13
445.058	1	21
445.229	1	17
445.399	1	5
445.570	1	6
445.740	1	17
445.911	1	17
446.081	1	12
446.252	1	9
446.422	1	17
446.593	1	10
446.763	1	17
446.934	1	8
447.104	1	25
447.275	1	16
447.445	1	19
447.616	1	23
447.786	1	12
447.957	1	14
448.127	1	9
448.298	1	6
448.468	1	10
448.639	1	29
448.809	1	21
448.979	1	15
449.150	1	17
449.320	1	15
449.491	1	19
449.661	1	11
449.832	1	4
450.002	1	16
450.173	1	19
450.343	1	0
450.514	1	19
450.684	1	23
450.855	1	19
451.025	1	17
451.196	1	19
451.366	1	14
451.537	1	13
451.707	1	24
451.878	1	12
452.048	1	11
452.218	1	13
452.389	1	23
452.559	1	19
452.730	1	9
452.900	1	13
453.071	1	12
453.241	1	23
453.412	1	20
453.582	1	13
453.753	1	8
453.923	1	19
454.093	1	7
454.264	1	18
454.434	1	11
454.605	1	12
454.775	1	16
454.946	1	12
455.116	1	15
455.287	1	22
455.457	1	9
455.628	1	8
455.798	1	5
455.968	1	16
456.139	1	1
456.309	1	15
456.480	1	12
456.650	1	14
456.821	1	8
456.991	1	13
457.161	1	26
457.332	1	24
457.502	1	26
457.673	1	7
457.843	1	6
458.014	1	15
458.184	1	12
458.355	1	24
458.525	1	16
458.695	1	9
458.866	1	5
459.036	1	16
459.207	1	18
459.377	1	10
459.548	1	8
459.718	1	12
459.888	1	18
460.059	1	7
460.229	1	15
460.400	1	30
460.570	1	15
460.740	1	5
460.911	1	26
461.081	1	16
461.252	1	11
461.422	1	11
461.593	1	18
461.763	1	17
461.933	1	19
462.104	1	9
462.274	1	6
462.445	1	9
462.615	1	17
462.785	1	2
462.956	1	4
463.126	1	8
463.297	1	9
463.467	1	11
463.638	1	6
463.808	1	15
463.978	1	19
464.149	1	15
464.319	1	8
464.490	1	2
464.660	1	5
464.830	1	9
465.001	1	18
465.171	1	10
465.342	1	14
465.512	1	6
465.682	1	9
465.853	1	11
466.023	1	14
466.194	1	14
466.364	1	10
466.534	1	14
466.705	1	6
466.875	1	5
467.045	1	15
467.216	1	16
467.386	1	1
467.557	1	8
467.727	1	9
467.897	1	17
468.068	1	13
468.238	1	8
468.409	1	8
468.579	1	11
468.749	1	14
468.920	1	14
469.090	1	9
469.260	1	13
469.431	1	3
469.601	1	22
469.772	1	-1
469.942	1	8
470.112	1	3
470.283	1	11
470.453	1	8
470.623	1	10
470.794	1	-4
470.964	1	12
471.135	1	9
471.305	1	7
471.475	1	12
471.646	1	17
471.816	1	13
471.986	1	9
472.157	1	13
472.327	1	5
472.497	1	6
472.668	1	-3
472.838	1	14
473.009	1	12
473.179	1	11
473.349	1	10
473.520	1	7
473.690	1	12
473.860	1	4
474.031	1	15
474.201	1	9
474.371	1	19
474.542	1	15
474.712	1	15
474.882	1	3
475.053	1	17
475.223	1	13
475.394	1	-1
475.564	1	7
475.734	1	15
475.905	1	11
476.075	1	11
476.245	1	1
476.416	1	19
476.586	1	21
476.756	1	4
476.927	1	3
477.097	1	0
477.267	1	6
477.438	1	15
477.608	1	9
477.778	1	4
477.949	1	7
478.119	1	19
478.289	1	0
478.460	1	8
478.630	1	6
478.800	1	10
478.971	1	4
479.141	1	11
479.311	1	11
479.482	1	7
479.652	1	12
479.822	1	19
479.993	1	2
480.163	1	3
480.333	1	4
480.504	1	10
480.674	1	-1
480.844	1	13
481.015	1	5
481.185	1	13
481.355	1	14
481.525	1	3
481.696	1	15
481.866	1	5
482.036	1	10
482.207	1	14
482.377	1	0
482.547	1	14
482.718	1	14
482.888	1	13
483.058	1	5
483.229	1	12
483.399	1	0
483.569	1	6
483.740	1	0
483.910	1	9
484.080	1	12
484.250	1	10
484.421	1	7
484.591	1	9
484.761	1	6
484.932	1	0
485.102	1	11
485.272	1	0
485.443	1	9
485.613	1	5
485.783	1	3
485.953	1	7
486.124	1	8
486.294	1	15
486.464	1	8
486.635	1	9
486.805	1	8
486.975	1	5
487.146	1	4
487.316	1	13
487.486	1	8
487.656	1	13
487.827	1	6
487.997	1	-1
488.167	1	15
488.338	1	16
488.508	1	11
488.678	1	6
488.848	1	13
489.019	1	3
489.189	1	8
489.359	1	1
489.529	1	16
489.700	1	-3
489.870	1	15
490.040	1	10
490.211	1	12
490.381	1	14
490.551	1	-5
490.721	1	-1
490.892	1	-4
491.062	1	5
491.232	1	15
491.402	1	7
491.573	1	11
491.743	1	10
491.913	1	11
492.084	1	-6
492.254	1	8
492.424	1	9
492.594	1	-6
492.765	1	9
492.935	1	11
493.105	1	15
493.275	1	8
493.446	1	3
493.616	1	5
493.786	1	0
493.956	1	10
494.127	1	4
494.297	1	6
494.467	1	9
494.637	1	6
494.808	1	15
494.978	1	11
495.148	1	1
495.318	1	16
495.489	1	6
495.659	1	4
495.829	1	2
495.999	1	15
496.170	1	0
496.340	1	10
496.510	1	1
496.680	1	12
496.851	1	3
497.021	1	12
497.191	1	12
497.361	1	5
497.532	1	-1
497.702	1	4
497.872	1	15
498.042	1	7
498.213	1	9
498.383	1	19
498.553	1	8
498.723	1	-3
498.894	1	7
499.064	1	14
499.234	1	17
499.404	1	-3
499.574	1	-2
499.745	1	4
499.915	1	9
500.085	1	3
500.255	1	9
500.426	1	-1
500.596	1	7
500.766	1	7
500.936	1	7
501.106	1	3
501.277	1	1
501.447	1	4
501.617	1	5
501.787	1	10
501.958	1	2
502.128	1	5
502.298	1	-2
502.468	1	0
502.638	1	0
502.809	1	8
502.979	1	7
503.149	1	8
503.319	1	12
503.489	1	-4
503.660	1	1
503.830	1	-2
504.000	1	1
504.170	1	-2
504.340	1	11
504.511	1	6
504.681	1	7
504.851	1	5
505.021	1	3
505.192	1	8
505.362	1	5
505.532	1	0
505.702	1	9
505.872	1	10
506.043	1	3
506.213	1	3
506.383	1	-4
506.553	1	3
506.723	1	4
506.893	1	5
507.064	1	2
507.234	1	3
507.404	1	7
507.574	1	3
507.744	1	1
507.915	1	8
508.085	1	13
508.255	1	2
508.425	1	7
508.595	1	14
508.766	1	-5
508.936	1	4
509.106	1	-2
509.276	1	4
509.446	1	-1
509.616	1	7
509.787	1	3
509.957	1	8
510.127	1	-1
510.297	1	5
510.467	1	4
510.638	1	6
510.808	1	9
510.978	1	11
511.148	1	10
511.318	1	-5
511.488	1	7
511.659	1	0
511.829	1	-2
511.999	1	11
512.169	1	8
512.339	1	1
512.509	1	11
512.680	1	14
512.850	1	-3
513.020	1	-1
513.190	1	2
513.360	1	7
513.530	1	3
513.700	1	17
513.871	1	6
514.041	1	2
514.211	1	10
514.381	1	5
514.551	1	9
514.721	1	12
514.892	1	0
515.062	1	9
515.232	1	4
515.402	1	10
515.572	1	3
515.742	1	-3
515.912	1	2
516.083	1	10
516.253	1	-1
516.423	1	9
516.593	1	3
516.763	1	-1
516.933	1	4
517.104	1	-12
517.274	1	1
517.444	1	-6
517.614	1	-4
517.784	1	-1
517.954	1	7
518.124	1	16
518.294	1	8
518.465	1	-4
518.635	1	1
518.805	1	0
518.975	1	11
519.145	1	-2
519.315	1	1
519.485	1	12
519.656	1	7
519.826	1	5
519.996	1	9
520.166	1	-2
520.336	1	5
520.506	1	-3
520.676	1	-1
520.846	1	5
521.017	1	9
521.187	1	3
521.357	1	11
521.527	1	-6
521.697	1	5
521.867	1	1
522.037	1	12
522.207	1	2
522.377	1	1
522.548	1	6
522.718	1	7
522.888	1	2
523.058	1	4
523.228	1	5
523.398	1	4
523.568	1	-3
523.738	1	2
523.909	1	7
524.079	1	8
524.249	1	8
524.419	1	5
524.589	1	3
524.759	1	-2
524.929	1	-2
525.099	1	6
525.269	1	-1
525.439	1	-9
525.610	1	-2
525.780	1	7
525.950	1	13
526.120	1	4
526.290	1	13
526.460	1	5
526.630	1	3
526.800	1	-4
526.970	1	1
527.140	1	8
527.311	1	8
527.481	1	6
527.651	1	7
527.821	1	-1
527.991	1	2
528.161	1	11
528.331	1	1
528.501	1	5
528.671	1	3
528.841	1	8
529.011	1	-11
529.181	1	1
529.352	1	2
529.522	1	3
529.692	1	6
529.862	1	-5
530.032	1	7
530.202	1	11
530.372	1	7
530.542	1	-3
530.712	1	12
530.882	1	-8
531.052	1	4
531.222	1	6
531.392	1	4
531.563	1	0
531.733	1	12
531.903	1	-2
532.073	1	4
532.243	1	6
532.413	1	1
532.583	1	4
532.753	1	-1
532.923	1	1
533.093	1	-1
533.263	1	1
533.433	1	3
533.603	1	13
533.773	1	0
533.943	1	6
534.113	1	10
534.284	1	5
534.454	1	-3
534.624	1	5
534.794	1	7
534.964	1	1
535.134	1	-4
535.304	1	-2
535.474	1	18
535.644	1	5
535.814	1	4
535.984	1	-1
536.154	1	6
536.324	1	1
536.494	1	9
536.664	1	15
536.834	1	-2
537.004	1	8
537.174	1	5
537.344	1	9
537.514	1	-1
537.685	1	13
537.855	1	0
538.025	1	-3
538.195	1	0
538.365	1	4
538.535	1	4
538.705	1	-4
538.875	1	2
539.045	1	0
539.215	1	14
539.385	1	5
539.555	1	-5
539.725	1	5
539.895	1	8
540.065	1	-5
540.235	1	0
540.405	1	1
540.575	1	9
540.745	1	8
540.915	1	8
541.085	1	2
541.255	1	0
541.425	1	-9
541.595	1	0
541.765	1	4
541.935	1	9
542.105	1	7
542.275	1	1
542.445	1	-9
542.615	1	8
542.785	1	-6
542.955	1	10
543.125	1	1
543.295	1	3
543.465	1	12
543.635	1	9
543.805	1	-14
543.975	1	3
544.145	1	1
544.315	1	15
544.485	1	5
544.655	1	6
544.825	1	3
544.995	1	9
545.165	1	7
545.335	1	1
545.505	1	1
545.675	1	12
545.845	1	16
546.015	1	5
546.185	1	11
546.355	1	5
546.525	1	2
546.695	1	10
546.865	1	-2
547.035	1	-7
547.205	1	-2
547.375	1	10
547.545	1	7
547.715	1	2
547.885	1	2
548.055	1	18
548.225	1	0
548.395	1	3
548.565	1	-3
548.735	1	-3
548.905	1	14
549.075	1	5
549.245	1	12
549.415	1	1
549.585	1	-2
549.755	1	0
549.925	1	15
550.095	1	0
550.265	1	15
550.435	1	3
550.605	1	4
550.775	1	3
550.945	1	8
551.115	1	11
551.285	1	6
551.455	1	11
551.625	1	14
551.795	1	8
551.965	1	11
552.135	1	1
552.305	1	8
552.475	1	-4
552.645	1	1
552.815	1	1
552.985	1	-2
553.155	1	-3
553.325	1	-1
553.495	1	4
553.665	1	10
553.835	1	7
554.004	1	2
554.174	1	-11
554.344	1	6
554.514	1	0
554.684	1	-13
554.854	1	4
555.024	1	-4
555.194	1	15
555.364	1	-6
555.534	1	5
555.704	1	6
555.874	1	2
556.044	1	3
556.214	1	8
556.384	1	-7
556.554	1	-4
556.724	1	-2
556.894	1	11
557.064	1	10
557.234	1	11
557.404	1	3
557.573	1	6
557.743	1	-8
557.913	1	2
558.083	1	8
558.253	1	-3
558.423	1	6
558.593	1	2
558.763	1	11
558.933	1	0
559.103	1	-7
559.273	1	2
559.443	1	-1
559.613	1	-9
559.783	1	1
559.953	1	-13
560.122	1	-2
560.292	1	5
560.462	1	0
560.632	1	9
560.802	1	-6
560.972	1	4
561.142	1	-15
561.312	1	2
561.482	1	5
561.652	1	9
561.822	1	4
561.992	1	9
562.162	1	9
562.331	1	9
562.501	1	2
562.671	1	-4
562.841	1	5
563.011	1	1
563.181	1	5
563.351	1	-3
563.521	1	9
563.691	1	5
563.861	1	4
564.031	1	9
564.201	1	3
564.370	1	-6
564.540	1	-9
564.710	1	-1
564.880	1	5
565.050	1	5
565.220	1	10
565.390	1	-4
565.560	1	18
565.730	1	9
565.900	1	-1
566.069	1	13
566.239	1	3
566.409	1	3
566.579	1	4
566.749	1	-1
566.919	1	-2
567.089	1	1
567.259	1	-1
567.429	1	4
567.599	1	10
567.768	1	-1
567.938	1	0
568.108	1	5
568.278	1	2
568.448	1	3
568.618	1	12
568.788	1	7
568.958	1	2
569.128	1	1
569.297	1	6
569.467	1	-2
569.637	1	14
569.807	1	6
569.977	1	14
570.147	1	4
570.317	1	8
570.487	1	-5
570.656	1	12
570.826	1	3
570.996	1	-2
571.166	1	15
571.336	1	7
571.506	1	12
571.676	1	4
571.846	1	10
572.015	1	4
572.185	1	7
572.355	1	7
572.525	1	-7
572.695	1	8
572.865	1	4
573.035	1	19
573.205	1	3
573.374	1	3
573.544	1	6
573.714	1	12
573.884	1	0
574.054	1	0
574.224	1	6
574.394	1	-6
574.563	1	7
574.733	1	4
574.903	1	0
575.073	1	15
575.243	1	10
575.413	1	-2
575.583	1	13
575.752	1	1
575.922	1	2
576.092	1	9
576.262	1	6
576.432	1	14
576.602	1	5
576.772	1	-3
576.941	1	-2
577.111	1	15
577.281	1	-3
577.451	1	11
577.621	1	3
577.791	1	6
577.960	1	-3
578.130	1	-3
578.300	1	1
578.470	1	6
578.640	1	-1
578.810	1	8
578.979	1	9
579.149	1	0
579.319	1	7
579.489	1	1
579.659	1	-5
579.829	1	2
579.998	1	8
580.168	1	13
580.338	1	-7
580.508	1	7
580.678	1	-2
580.848	1	-7
581.017	1	-5
581.187	1	-2
581.357	1	5
581.527	1	1
581.697	1	0
581.867	1	8
582.036	1	0
582.206	1	0
582.376	1	3
582.546	1	2
582.716	1	-8
582.885	1	1
583.055	1	0
583.225	1	15
583.395	1	0
583.565	1	0
583.735	1	10
583.904	1	8
584.074	1	-1
584.244	1	4
584.414	1	-2
584.584	1	2
584.753	1	5
584.923	1	15
585.093	1	-1
585.263	1	6
585.433	1	0
585.602	1	4
585.772	1	-3
585.942	1	-1
586.112	1	7
586.282	1	-3
586.451	1	-2
586.621	1	3
586.791	1	0
586.961	1	-3
587.131	1	3
587.300	1	5
587.470	1	12
587.640	1	-1
587.810	1	6
587.980	1	-2
588.149	1	2
588.319	1	11
588.489	1	5
588.659	1	9
588.829	1	10
588.998	1	-8
589.168	1	14
589.338	1	3
589.508	1	-4
589.677	1	-4
589.847	1	22
590.017	1	3
590.187	1	0
590.357	1	-3
590.526	1	-6
590.696	1	5
590.866	1	-2
591.036	1	13
591.205	1	3
591.375	1	-11
591.545	1	13
591.715	1	-10
591.885	1	-1
592.054	1	3
592.224	1	5
592.394	1	0
592.564	1	2
592.733	1	12
592.903	1	6
593.073	1	-7
593.243	1	6
593.412	1	13
593.582	1	5
593.752	1	2
593.922	1	-8
594.091	1	2
594.261	1	8
594.431	1	12
594.601	1	6
594.771	1	-2
594.940	1	-8
595.110	1	-7
595.280	1	0
595.450	1	10
595.619	1	2
595.789	1	4
595.959	1	-4
596.129	1	6
596.298	1	9
596.468	1	6
596.638	1	-3
596.808	1	-5
596.977	1	7
597.147	1	5
597.317	1	8
597.487	1	-3
597.656	1	-2
597.826	1	6
597.996	1	1
598.166	1	6
598.335	1	-1
598.505	1	12
598.675	1	-5
598.844	1	1
599.014	1	2
599.184	1	9
599.354	1	11
599.523	1	-5
599.693	1	7
599.863	1	3
600.033	1	-5
600.202	1	5
600.372	1	7
600.542	1	-2
600.712	1	4
600.881	1	2
601.051	1	1
601.221	1	3
601.390	1	-4
601.560	1	0
601.730	1	4
601.900	1	4
602.069	1	1
602.239	1	20
602.409	1	6
602.578	1	2
602.748	1	8
602.918	1	5
603.088	1	8
603.257	1	7
603.427	1	1
603.597	1	2
603.767	1	-7
603.936	1	-11
604.106	1	5
604.276	1	-1
604.445	1	-2
604.615	1	-7
604.785	1	2
604.954	1	5
605.124	1	6
605.294	1	7
605.464	1	10
605.633	1	-4
605.803	1	6
605.973	1	8
606.142	1	5
606.312	1	11
606.482	1	9
606.652	1	-4
606.821	1	5
606.991	1	5
607.161	1	5
607.330	1	0
607.500	1	-6
607.670	1	-3
607.839	1	5
608.009	1	13
608.179	1	2
608.348	1	17
608.518	1	11
608.688	1	9
608.858	1	11
609.027	1	10
609.197	1	-13
609.367	1	-1
609.536	1	6
609.706	1	3
609.876	1	9
610.045	1	1
610.215	1	4
610.385	1	11
610.554	1	2
610.724	1	-2
610.894	1	15
611.063	1	3
611.233	1	-5
611.403	1	13
611.572	1	-3
611.742	1	4
611.912	1	-5
612.081	1	9
612.251	1	5
612.421	1	1
612.590	1	6
612.760	1	12
612.930	1	-2
613.099	1	8
613.269	1	2
613.439	1	9
613.608	1	1
613.778	1	0
613.948	1	5
614.117	1	5
614.287	1	13
614.457	1	1
614.626	1	4
614.796	1	13
614.966	1	4
615.135	1	9
615.305	1	10
615.475	1	0
615.644	1	-1
615.814	1	15
615.984	1	7
616.153	1	-1
616.323	1	8
616.493	1	2
616.662	1	9
616.832	1	8
617.002	1	6
617.171	1	-2
617.341	1	9
617.511	1	0
617.680	1	12
617.850	1	2
618.019	1	16
618.189	1	1
618.359	1	3
618.528	1	5
618.698	1	6
618.868	1	-8
619.037	1	9
619.207	1	2
619.377	1	3
619.546	1	-4
619.716	1	5
619.885	1	-4
620.055	1	-3
620.225	1	5
620.394	1	8
620.564	1	7
620.734	1	-3
620.903	1	8
621.073	1	8
621.242	1	17
621.412	1	1
621.582	1	13
621.751	1	-1
621.921	1	7
622.091	1	-1
622.260	1	10
622.430	1	2
622.599	1	3
622.769	1	8
622.939	1	4
623.108	1	9
623.278	1	5
623.448	1	6
623.617	1	7
623.787	1	0
623.956	1	4
624.126	1	0
624.296	1	-2
624.465	1	-6
624.635	1	16
624.804	1	2
624.974	1	10
625.144	1	0
625.313	1	10
625.483	1	18
625.652	1	6
625.822	1	16
625.992	1	6
626.161	1	2
626.331	1	12
626.501	1	18
626.670	1	-7
626.840	1	9
627.009	1	18
627.179	1	5
627.348	1	6
627.518	1	5
627.688	1	-4
627.857	1	7
628.027	1	6
628.196	1	3
628.366	1	3
628.536	1	3
628.705	1	11
628.875	1	8
629.044	1	4
629.214	1	0
629.384	1	13
629.553	1	7
629.723	1	0
629.892	1	17
630.062	1	9
630.232	1	-6
630.401	1	-2
630.571	1	11
630.740	1	9
630.910	1	19
631.079	1	11
631.249	1	7
631.419	1	1
631.588	1	11
631.758	1	9
631.927	1	6
632.097	1	3
632.266	1	7
632.436	1	12
632.606	1	10
632.775	1	9
632.945	1	13
633.114	1	8
633.284	1	2
633.453	1	10
633.623	1	4
633.793	1	21
633.962	1	4
634.132	1	-2
634.301	1	8
634.471	1	-4
634.640	1	5
634.810	1	23
634.979	1	17
635.149	1	11
635.319	1	1
635.488	1	6
635.658	1	15
635.827	1	11
635.997	1	3
636.166	1	12
636.336	1	10
636.505	1	18
636.675	1	-3
636.845	1	11
637.014	1	16
637.184	1	8
637.353	1	8
637.523	1	18
637.692	1	8
637.862	1	10
638.031	1	12
638.201	1	8
638.370	1	9
638.540	1	9
638.710	1	-3
638.879	1	6
639.049	1	12
639.218	1	7
639.388	1	3
639.557	1	17
639.727	1	9
639.896	1	16
640.066	1	15
640.235	1	4
640.405	1	11
640.574	1	12
640.744	1	1
640.914	1	-2
641.083	1	3
641.253	1	9
641.422	1	-10
641.592	1	-2
641.761	1	5
641.931	1	20
642.100	1	-5
642.270	1	-2
642.439	1	-3
642.609	1	4
642.778	1	-3
642.948	1	12
643.117	1	1
643.287	1	2
643.456	1	7
643.626	1	9
643.795	1	-4
643.965	1	3
644.134	1	5
644.304	1	12
644.473	1	3
644.643	1	7
644.812	1	-1
644.982	1	7
645.151	1	5
645.321	1	7
645.490	1	12
645.660	1	-4
645.829	1	13
645.999	1	4
646.168	1	8
646.338	1	1
646.507	1	12
646.677	1	-5
646.846	1	2
647.016	1	11
647.185	1	12
647.355	1	9
647.524	1	11
647.694	1	11
647.863	1	5
648.033	1	12
648.202	1	7
648.372	1	8
648.541	1	9
648.711	1	2
648.880	1	14
649.050	1	6
649.219	1	5
649.389	1	6
649.558	1	2
649.728	1	-2
649.897	1	10
650.067	1	-9
650.236	1	6
650.406	1	17
650.575	1	13
650.745	1	-3
650.914	1	16
651.084	1	-9
651.253	1	2
651.423	1	15
651.592	1	17
651.762	1	-5
651.931	1	11
652.101	1	0
652.270	1	10
652.440	1	-6
652.609	1	8
652.778	1	-7
652.948	1	5
653.117	1	12
653.287	1	6
653.456	1	7
653.626	1	6
653.795	1	3
653.965	1	10
654.134	1	5
654.304	1	-3
654.473	1	9
654.643	1	-5
654.812	1	6
654.982	1	12
655.151	1	8
655.320	1	6
655.490	1	-2
655.659	1	1
655.829	1	4
655.998	1	6
656.168	1	-1
656.337	1	3
656.507	1	1
656.676	1	7
656.846	1	10
657.015	1	5
657.184	1	8
657.354	1	10
657.523	1	11
657.693	1	8
657.862	1	-1
658.032	1	22
658.201	1	4
658.371	1	6
658.540	1	6
658.709	1	-2
658.879	1	-1
659.048	1	10
659.218	1	13
659.387	1	5
659.557	1	-1
659.726	1	5
659.895	1	2
660.065	1	9
660.234	1	0
660.404	1	3
660.573	1	3
660.743	1	11
660.912	1	11
661.081	1	10
661.251	1	17
661.420	1	2
661.590	1	10
661.759	1	5
661.929	1	8
662.098	1	1
662.267	1	5
662.437	1	11
662.606	1	8
662.776	1	7
662.945	1	9
663.115	1	1
663.284	1	7
663.453	1	9
663.623	1	1
663.792	1	5
663.962	1	0
664.131	1	-1
664.300	1	-6
664.470	1	1
664.639	1	16
664.809	1	1
664.978	1	-7
665.148	1	6
665.317	1	8
665.486	1	3
665.656	1	10
665.825	1	7
665.995	1	6
666.164	1	20
666.333	1	-1
666.503	1	11
666.672	1	6
666.842	1	-3
667.011	1	2
667.180	1	-1
667.350	1	8
667.519	1	-7
667.689	1	10
667.858	1	5
668.027	1	6
668.197	1	2
668.366	1	9
668.536	1	-2
668.705	1	0
668.874	1	11
669.044	1	-2
669.213	1	3
669.382	1	11
669.552	1	2
669.721	1	9
669.891	1	5
670.060	1	10
670.229	1	15
670.399	1	8
670.568	1	-5
670.738	1	6
670.907	1	11
671.076	1	10
671.246	1	6
671.415	1	0
671.584	1	11
671.754	1	3
671.923	1	-3
672.093	1	-8
672.262	1	-9
672.431	1	5
672.601	1	-2
672.770	1	3
672.939	1	4
673.109	1	8
673.278	1	6
673.448	1	9
673.617	1	-2
673.786	1	-1
