325.333	1	14
325.504	1	9
325.675	1	6
325.846	1	-7
326.017	1	5
326.188	1	8
326.359	1	-7
326.531	1	4
326.702	1	15
326.873	1	5
327.044	1	7
327.215	1	2
327.386	1	11
327.557	1	7
327.728	1	8
327.899	1	8
328.070	1	15
328.241	1	7
328.412	1	2
328.583	1	14
328.754	1	1
328.926	1	-2
329.097	1	6
329.268	1	15
329.439	1	-1
329.610	1	9
329.781	1	7
329.952	1	-2
330.123	1	-1
330.294	1	13
330.465	1	10
330.636	1	15
330.807	1	12
330.978	1	5
331.149	1	11
331.320	1	6
331.492	1	6
331.663	1	2
331.834	1	3
332.005	1	-2
332.176	1	7
332.347	1	14
332.518	1	2
332.689	1	5
332.860	1	10
333.031	1	-2
333.202	1	4
333.373	1	9
333.544	1	11
333.715	1	9
333.886	1	9
334.057	1	14
334.228	1	-1
334.399	1	3
334.570	1	10
334.741	1	9
334.912	1	9
335.084	1	3
335.255	1	11
335.426	1	8
335.597	1	2
335.768	1	3
335.939	1	11
336.110	1	11
336.281	1	17
336.452	1	9
336.623	1	11
336.794	1	7
336.965	1	11
337.136	1	3
337.307	1	8
337.478	1	3
337.649	1	11
337.820	1	4
337.991	1	17
338.162	1	6
338.333	1	7
338.504	1	14
338.675	1	5
338.846	1	8
339.017	1	10
339.188	1	9
339.359	1	16
339.530	1	5
339.701	1	12
339.872	1	7
340.043	1	6
340.214	1	-6
340.385	1	0
340.556	1	4
340.727	1	17
340.898	1	13
341.069	1	7
341.240	1	10
341.411	1	13
341.582	1	4
341.753	1	18
341.924	1	2
342.095	1	4
342.266	1	10
342.437	1	7
342.608	1	7
342.779	1	8
342.950	1	1
343.121	1	13
343.292	1	15
343.463	1	1
343.634	1	6
343.805	1	12
343.976	1	1
344.147	1	3
344.318	1	7
344.489	1	4
344.660	1	23
344.831	1	4
345.002	1	16
345.173	1	0
345.344	1	6
345.515	1	1
345.686	1	6
345.857	1	3
346.028	1	13
346.199	1	12
346.370	1	14
346.541	1	10
346.712	1	11
346.883	1	8
347.054	1	0
347.225	1	8
347.396	1	4
347.567	1	13
347.738	1	14
347.909	1	3
348.080	1	-3
348.251	1	13
348.422	1	-11
348.593	1	-7
348.764	1	8
348.935	1	5
349.106	1	3
349.277	1	25
349.448	1	13
349.619	1	6
349.790	1	14
349.961	1	5
350.132	1	2
350.303	1	11
350.474	1	0
350.645	1	3
350.816	1	1
350.987	1	-2
351.157	1	6
351.328	1	3
351.499	1	20
351.670	1	2
351.841	1	9
352.012	1	12
352.183	1	2
352.354	1	6
352.525	1	-1
352.696	1	13
352.867	1	12
353.038	1	1
353.209	1	11
353.380	1	10
353.551	1	1
353.722	1	0
353.893	1	4
354.064	1	9
354.235	1	2
354.406	1	6
354.576	1	-4
354.747	1	4
354.918	1	5
355.089	1	4
355.260	1	5
355.431	1	3
355.602	1	1
355.773	1	4
355.944	1	12
356.115	1	-2
356.286	1	-2
356.457	1	12
356.628	1	1
356.799	1	-4
356.970	1	-8
357.141	1	12
357.311	1	6
357.482	1	-1
357.653	1	5
357.824	1	3
357.995	1	0
358.166	1	8
358.337	1	15
358.508	1	1
358.679	1	1
358.850	1	12
359.021	1	8
359.192	1	-1
359.363	1	3
359.533	1	1
359.704	1	1
359.875	1	3
360.046	1	2
360.217	1	9
360.388	1	-3
360.559	1	10
360.730	1	2
360.901	1	7
361.072	1	2
361.243	1	5
361.414	1	5
361.584	1	2
361.755	1	5
361.926	1	2
362.097	1	0
362.268	1	4
362.439	1	5
362.610	1	0
362.781	1	3
362.952	1	-4
363.123	1	6
363.293	1	7
363.464	1	6
363.635	1	14
363.806	1	13
363.977	1	9
364.148	1	2
364.319	1	2
364.490	1	7
364.661	1	-2
364.832	1	7
365.002	1	-3
365.173	1	0
365.344	1	-4
365.515	1	3
365.686	1	-1
365.857	1	7
366.028	1	9
366.199	1	-6
366.370	1	1
366.540	1	4
366.711	1	-2
366.882	1	11
367.053	1	4
367.224	1	-3
367.395	1	-5
367.566	1	-2
367.737	1	2
367.908	1	4
368.078	1	3
368.249	1	5
368.420	1	6
368.591	1	0
368.762	1	3
368.933	1	5
369.104	1	8
369.274	1	-3
369.445	1	0
369.616	1	13
369.787	1	1
369.958	1	4
370.129	1	9
370.300	1	-13
370.471	1	7
370.641	1	-4
370.812	1	-3
370.983	1	4
371.154	1	3
371.325	1	3
371.496	1	-1
371.667	1	4
371.837	1	6
372.008	1	2
372.179	1	10
372.350	1	9
372.521	1	-2
372.692	1	0
372.863	1	6
373.033	1	5
373.204	1	5
373.375	1	0
373.546	1	-5
373.717	1	1
373.888	1	9
374.059	1	-5
374.229	1	1
374.400	1	10
374.571	1	3
374.742	1	5
374.913	1	-9
375.084	1	5
375.254	1	7
375.425	1	3
375.596	1	7
375.767	1	2
375.938	1	-6
376.109	1	1
376.279	1	-9
376.450	1	-1
376.621	1	-2
376.792	1	-6
376.963	1	13
377.134	1	3
377.304	1	0
377.475	1	3
377.646	1	8
377.817	1	0
377.988	1	6
378.159	1	3
378.329	1	10
378.500	1	-6
378.671	1	4
378.842	1	12
379.013	1	10
379.184	1	11
379.354	1	1
379.525	1	4
379.696	1	5
379.867	1	1
380.038	1	11
380.209	1	0
380.379	1	9
380.550	1	0
380.721	1	10
380.892	1	1
381.063	1	7
381.233	1	3
381.404	1	20
381.575	1	9
381.746	1	-4
381.917	1	13
382.087	1	6
382.258	1	10
382.429	1	6
382.600	1	2
382.771	1	7
382.941	1	3
383.112	1	5
383.283	1	0
383.454	1	7
383.625	1	3
383.795	1	6
383.966	1	17
384.137	1	7
384.308	1	8
384.479	1	12
384.649	1	6
384.820	1	4
384.991	1	9
385.162	1	2
385.333	1	2
385.503	1	-3
385.674	1	6
385.845	1	-2
386.016	1	19
386.187	1	1
386.357	1	3
386.528	1	13
386.699	1	1
386.870	1	1
387.041	1	16
387.211	1	5
387.382	1	15
387.553	1	-2
387.724	1	-8
387.894	1	1
388.065	1	16
388.236	1	9
388.407	1	9
388.578	1	9
388.748	1	1
388.919	1	-3
389.090	1	13
389.261	1	0
389.431	1	12
389.602	1	8
389.773	1	10
389.944	1	-3
390.114	1	7
390.285	1	7
390.456	1	10
390.627	1	15
390.798	1	7
390.968	1	11
391.139	1	3
391.310	1	9
391.481	1	11
391.651	1	13
391.822	1	0
391.993	1	2
392.164	1	2
392.334	1	9
392.505	1	7
392.676	1	-1
392.847	1	5
393.017	1	2
393.188	1	12
393.359	1	6
393.530	1	6
393.700	1	17
393.871	1	6
394.042	1	4
394.213	1	3
394.383	1	3
394.554	1	10
394.725	1	14
394.896	1	11
395.066	1	12
395.237	1	1
395.408	1	19
395.579	1	19
395.749	1	6
395.920	1	3
396.091	1	5
396.262	1	-7
396.432	1	2
396.603	1	6
396.774	1	8
396.945	1	3
397.115	1	9
397.286	1	7
397.457	1	10
397.627	1	6
397.798	1	22
397.969	1	9
398.140	1	-7
398.310	1	17
398.481	1	2
398.652	1	11
398.823	1	9
398.993	1	15
399.164	1	3
399.335	1	14
399.505	1	0
399.676	1	10
399.847	1	12
400.018	1	11
400.188	1	11
400.359	1	10
400.530	1	14
400.700	1	15
400.871	1	18
401.042	1	12
401.213	1	9
401.383	1	17
401.554	1	13
401.725	1	8
401.895	1	4
402.066	1	-1
402.237	1	23
402.408	1	16
402.578	1	5
402.749	1	18
402.920	1	5
403.090	1	-8
403.261	1	9
403.432	1	5
403.603	1	8
403.773	1	15
403.944	1	10
404.115	1	12
404.285	1	11
404.456	1	24
404.627	1	16
404.797	1	8
404.968	1	11
405.139	1	7
405.310	1	14
405.480	1	14
405.651	1	2
405.822	1	3
405.992	1	15
406.163	1	10
406.334	1	23
406.504	1	11
406.675	1	6
406.846	1	17
407.016	1	15
407.187	1	11
407.358	1	15
407.528	1	9
407.699	1	7
407.870	1	14
408.041	1	13
408.211	1	18
408.382	1	12
408.553	1	15
408.723	1	15
408.894	1	2
409.065	1	14
409.235	1	2
409.406	1	25
409.577	1	16
409.747	1	12
409.918	1	6
410.089	1	16
410.259	1	10
410.430	1	4
410.601	1	15
410.771	1	18
410.942	1	15
411.113	1	17
411.283	1	16
411.454	1	22
411.625	1	9
411.795	1	10
411.966	1	13
412.137	1	20
412.307	1	-3
412.478	1	18
412.649	1	17
412.819	1	15
412.990	1	15
413.161	1	11
413.331	1	13
413.502	1	17
413.672	1	4
413.843	1	14
414.014	1	3
414.184	1	19
414.355	1	13
414.526	1	12
414.696	1	10
414.867	1	30
415.038	1	13
415.208	1	4
415.379	1	10
415.550	1	13
415.720	1	12
415.891	1	9
416.062	1	8
416.232	1	16
416.403	1	7
416.573	1	25
416.744	1	17
416.915	1	18
417.085	1	13
417.256	1	16
417.427	1	19
417.597	1	21
417.768	1	14
417.939	1	17
418.109	1	24
418.280	1	9
418.450	1	21
418.621	1	13
418.792	1	13
418.962	1	18
419.133	1	12
419.304	1	27
419.474	1	12
419.645	1	11
419.815	1	26
419.986	1	17
420.157	1	15
420.327	1	7
420.498	1	8
420.669	1	18
420.839	1	17
421.010	1	12
421.180	1	11
421.351	1	6
421.522	1	14
421.692	1	18
421.863	1	10
422.033	1	7
422.204	1	21
422.375	1	27
422.545	1	23
422.716	1	28
422.886	1	20
423.057	1	18
423.228	1	29
423.398	1	19
423.569	1	13
423.740	1	23
423.910	1	20
424.081	1	13
424.251	1	6
424.422	1	12
424.593	1	12
424.763	1	15
424.934	1	16
425.104	1	16
425.275	1	18
425.445	1	5
425.616	1	13
425.787	1	9
425.957	1	23
426.128	1	25
426.298	1	2
426.469	1	34
426.640	1	-1
426.810	1	21
426.981	1	20
427.151	1	14
427.322	1	10
427.493	1	20
427.663	1	18
427.834	1	8
428.004	1	19
428.175	1	11
428.345	1	15
428.516	1	20
428.687	1	15
428.857	1	7
429.028	1	9
429.198	1	5
429.369	1	10
429.540	1	13
429.710	1	14
429.881	1	18
430.051	1	16
430.222	1	15
430.392	1	11
430.563	1	14
430.734	1	25
430.904	1	19
431.075	1	19
431.245	1	2
431.416	1	3
431.586	1	12
431.757	1	13
431.927	1	8
432.098	1	16
432.269	1	19
432.439	1	14
432.610	1	13
432.780	1	11
432.951	1	9
433.121	1	9
433.292	1	10
433.462	1	16
433.633	1	22
433.804	1	19
433.974	1	16
434.145	1	9
434.315	1	10
434.486	1	20
434.656	1	19
434.827	1	4
434.997	1	15
435.168	1	19
435.339	1	11
435.509	1	24
435.680	1	11
435.850	1	-1
436.021	1	23
436.191	1	8
436.362	1	20
436.532	1	6
436.703	1	19
436.873	1	21
437.044	1	20
437.214	1	12
437.385	1	14
437.556	1	14
437.726	1	13
437.897	1	9
438.067	1	10
438.238	1	23
438.408	1	18
438.579	1	14
438.749	1	17
438.920	1	11
439.090	1	22
439.261	1	6
439.431	1	20
439.602	1	12
439.772	1	7
439.943	1	16
440.113	1	14
440.284	1	18
440.455	1	15
440.625	1	19
440.796	1	10
440.966	1	19
441.137	1	-1
441.307	1	19
441.478	1	10
441.648	1	7
441.819	1	1
441.989	1	16
442.160	1	15
442.330	1	12
442.501	1	10
442.671	1	20
442.842	1	13
443.012	1	14
443.183	1	23
443.353	1	12
443.524	1	5
443.694	1	3
443.865	1	10
444.035	1	18
444.206	1	12
444.376	1	16
444.547	1	-1
444.717	1	14
444.888	1	14
445.058	1	20
445.229	1	3
445.399	1	18
445.570	1	16
445.740	1	8
445.911	1	7
446.081	1	10
446.252	1	8
446.422	1	9
446.593	1	14
446.763	1	9
446.934	1	12
447.104	1	5
447.275	1	12
447.445	1	21
447.616	1	21
447.786	1	9
447.957	1	15
448.127	1	11
448.298	1	13
448.468	1	9
448.639	1	25
448.809	1	13
448.979	1	8
449.150	1	14
449.320	1	17
449.491	1	21
449.661	1	10
449.832	1	10
450.002	1	2
450.173	1	11
450.343	1	4
450.514	1	17
450.684	1	16
450.855	1	11
451.025	1	13
451.196	1	16
451.366	1	10
451.537	1	11
451.707	1	5
451.878	1	11
452.048	1	9
452.218	1	14
452.389	1	17
452.559	1	16
452.730	1	14
452.900	1	1
453.071	1	18
453.241	1	15
453.412	1	19
453.582	1	5
453.753	1	13
453.923	1	9
454.093	1	1
454.264	1	8
454.434	1	9
454.605	1	9
454.775	1	11
454.946	1	10
455.116	1	5
455.287	1	21
455.457	1	6
455.628	1	-10
455.798	1	2
455.968	1	6
456.139	1	1
456.309	1	10
456.480	1	13
456.650	1	5
456.821	1	16
456.991	1	14
457.161	1	16
457.332	1	13
457.502	1	28
457.673	1	13
457.843	1	4
458.014	1	4
458.184	1	11
458.355	1	20
458.525	1	15
458.695	1	4
458.866	1	5
459.036	1	14
459.207	1	6
459.377	1	7
459.548	1	5
459.718	1	-6
459.888	1	13
460.059	1	6
460.229	1	12
460.400	1	21
460.570	1	10
460.740	1	6
460.911	1	15
461.081	1	11
461.252	1	8
461.422	1	5
461.593	1	5
461.763	1	6
461.933	1	10
462.104	1	11
462.274	1	0
462.445	1	15
462.615	1	10
462.785	1	-4
462.956	1	2
463.126	1	2
463.297	1	11
463.467	1	9
463.638	1	7
463.808	1	7
463.978	1	11
464.149	1	11
464.319	1	2
464.490	1	7
464.660	1	-7
464.830	1	12
465.001	1	7
465.171	1	-2
465.342	1	4
465.512	1	14
465.682	1	9
465.853	1	1
466.023	1	8
466.194	1	11
466.364	1	0
466.534	1	0
466.705	1	6
466.875	1	3
467.045	1	5
467.216	1	21
467.386	1	1
467.557	1	2
467.727	1	13
467.897	1	12
468.068	1	2
468.238	1	-1
468.409	1	16
468.579	1	0
468.749	1	9
468.920	1	8
469.090	1	9
469.260	1	5
469.431	1	-1
469.601	1	12
469.772	1	-14
469.942	1	6
470.112	1	2
470.283	1	14
470.453	1	3
470.623	1	15
470.794	1	3
470.964	1	14
471.135	1	12
471.305	1	9
471.475	1	5
471.646	1	10
471.816	1	15
471.986	1	15
472.157	1	9
472.327	1	2
472.497	1	-7
472.668	1	0
472.838	1	9
473.009	1	14
473.179	1	5
473.349	1	6
473.520	1	14
473.690	1	8
473.860	1	4
474.031	1	14
474.201	1	3
474.371	1	14
474.542	1	7
474.712	1	3
474.882	1	1
475.053	1	3
475.223	1	13
475.394	1	-8
475.564	1	12
475.734	1	13
475.905	1	-5
476.075	1	7
476.245	1	0
476.416	1	2
476.586	1	17
476.756	1	8
476.927	1	5
477.097	1	1
477.267	1	4
477.438	1	0
477.608	1	-9
477.778	1	2
477.949	1	-1
478.119	1	9
478.289	1	9
478.460	1	10
478.630	1	7
478.800	1	19
478.971	1	0
479.141	1	3
479.311	1	5
479.482	1	3
479.652	1	5
479.822	1	3
479.993	1	2
480.163	1	12
480.333	1	11
480.504	1	2
480.674	1	-2
480.844	1	8
481.015	1	12
481.185	1	0
481.355	1	5
481.525	1	2
481.696	1	11
481.866	1	6
482.036	1	-2
482.207	1	9
482.377	1	2
482.547	1	7
482.718	1	7
482.888	1	10
483.058	1	-5
483.229	1	16
483.399	1	2
483.569	1	12
483.740	1	2
483.910	1	3
484.080	1	10
484.250	1	6
484.421	1	-2
484.591	1	8
484.761	1	-4
484.932	1	-3
485.102	1	9
485.272	1	8
485.443	1	8
485.613	1	4
485.783	1	0
485.953	1	9
486.124	1	1
486.294	1	5
486.464	1	4
486.635	1	4
486.805	1	0
486.975	1	8
487.146	1	-1
487.316	1	7
487.486	1	3
487.656	1	9
487.827	1	4
487.997	1	-9
488.167	1	16
488.338	1	11
488.508	1	8
488.678	1	12
488.848	1	11
489.019	1	2
489.189	1	17
489.359	1	10
489.529	1	12
489.700	1	-4
489.870	1	7
490.040	1	14
490.211	1	20
490.381	1	18
490.551	1	4
490.721	1	2
490.892	1	-10
491.062	1	6
491.232	1	6
491.402	1	10
491.573	1	4
491.743	1	9
491.913	1	10
492.084	1	-8
492.254	1	-3
492.424	1	7
492.594	1	7
492.765	1	-6
492.935	1	8
493.105	1	15
493.275	1	1
493.446	1	4
493.616	1	4
493.786	1	8
493.956	1	7
494.127	1	12
494.297	1	8
494.467	1	4
494.637	1	10
494.808	1	12
494.978	1	5
495.148	1	3
495.318	1	5
495.489	1	4
495.659	1	-1
495.829	1	7
495.999	1	-1
496.170	1	5
496.340	1	5
496.510	1	-2
496.680	1	5
496.851	1	7
497.021	1	7
497.191	1	12
497.361	1	7
497.532	1	1
497.702	1	3
497.872	1	8
498.042	1	15
498.213	1	15
498.383	1	2
498.553	1	14
498.723	1	-2
498.894	1	7
499.064	1	3
499.234	1	4
499.404	1	5
499.574	1	6
499.745	1	13
499.915	1	15
500.085	1	3
500.255	1	11
500.426	1	-4
500.596	1	12
500.766	1	-2
500.936	1	11
501.106	1	2
501.277	1	3
501.447	1	-3
501.617	1	3
501.787	1	4
501.958	1	-8
502.128	1	5
502.298	1	7
502.468	1	8
502.638	1	-3
502.809	1	11
502.979	1	4
503.149	1	3
503.319	1	5
503.489	1	11
503.660	1	2
503.830	1	-3
504.000	1	4
504.170	1	6
504.340	1	3
504.511	1	3
504.681	1	2
504.851	1	5
505.021	1	2
505.192	1	3
505.362	1	7
505.532	1	-6
505.702	1	6
505.872	1	5
506.043	1	13
506.213	1	5
506.383	1	0
506.553	1	4
506.723	1	2
506.893	1	-9
507.064	1	3
507.234	1	7
507.404	1	8
507.574	1	-5
507.744	1	6
507.915	1	9
508.085	1	8
508.255	1	2
508.425	1	3
508.595	1	4
508.766	1	-6
508.936	1	-4
509.106	1	-9
509.276	1	2
509.446	1	2
509.616	1	11
509.787	1	-7
509.957	1	8
510.127	1	-4
510.297	1	4
510.467	1	-2
510.638	1	1
510.808	1	2
510.978	1	7
511.148	1	3
511.318	1	4
511.488	1	11
511.659	1	2
511.829	1	1
511.999	1	19
512.169	1	8
512.339	1	3
512.509	1	4
512.680	1	1
512.850	1	-3
513.020	1	-2
513.190	1	5
513.360	1	6
513.530	1	-1
513.700	1	4
513.871	1	4
514.041	1	5
514.211	1	2
514.381	1	4
514.551	1	0
514.721	1	6
514.892	1	-13
515.062	1	5
515.232	1	-12
515.402	1	6
515.572	1	8
515.742	1	0
515.912	1	-1
516.083	1	9
516.253	1	-3
516.423	1	7
516.593	1	6
516.763	1	-6
516.933	1	-9
517.104	1	-10
517.274	1	14
517.444	1	1
517.614	1	4
517.784	1	0
517.954	1	6
518.124	1	18
518.294	1	-3
518.465	1	-13
518.635	1	7
518.805	1	2
518.975	1	2
519.145	1	4
519.315	1	6
519.485	1	15
519.656	1	1
519.826	1	12
519.996	1	-6
520.166	1	4
520.336	1	1
520.506	1	5
520.676	1	-1
520.846	1	8
521.017	1	12
521.187	1	9
521.357	1	3
521.527	1	1
521.697	1	-4
521.867	1	1
522.037	1	10
522.207	1	1
522.377	1	-5
522.548	1	6
522.718	1	6
522.888	1	8
523.058	1	2
523.228	1	-7
523.398	1	6
523.568	1	-6
523.738	1	-1
523.909	1	4
524.079	1	6
524.249	1	0
524.419	1	0
524.589	1	8
524.759	1	6
524.929	1	-3
525.099	1	5
525.269	1	-5
525.439	1	-8
525.610	1	1
525.780	1	-5
525.950	1	11
526.120	1	5
526.290	1	8
526.460	1	-3
526.630	1	0
526.800	1	-10
526.970	1	0
527.140	1	9
527.311	1	13
527.481	1	1
527.651	1	6
527.821	1	-10
527.991	1	15
528.161	1	-1
528.331	1	-6
528.501	1	-10
528.671	1	-8
528.841	1	5
529.011	1	-1
529.181	1	0
529.352	1	1
529.522	1	2
529.692	1	8
529.862	1	7
530.032	1	6
530.202	1	-2
530.372	1	0
530.542	1	-1
530.712	1	8
530.882	1	-12
531.052	1	14
531.222	1	1
531.392	1	3
531.563	1	-7
531.733	1	7
531.903	1	0
532.073	1	1
532.243	1	5
532.413	1	18
532.583	1	6
532.753	1	6
532.923	1	5
533.093	1	6
533.263	1	3
533.433	1	-1
533.603	1	12
533.773	1	3
533.943	1	-1
534.113	1	6
534.284	1	5
534.454	1	-1
534.624	1	0
534.794	1	10
534.964	1	7
535.134	1	2
535.304	1	7
535.474	1	5
535.644	1	1
535.814	1	-4
535.984	1	5
536.154	1	9
536.324	1	-1
536.494	1	6
536.664	1	3
536.834	1	3
537.004	1	-4
537.174	1	0
537.344	1	9
537.514	1	-3
537.685	1	9
537.855	1	-5
538.025	1	-2
538.195	1	-3
538.365	1	13
538.535	1	-1
538.705	1	-1
538.875	1	-11
539.045	1	4
539.215	1	2
539.385	1	2
539.555	1	-3
539.725	1	10
539.895	1	17
540.065	1	-1
540.235	1	3
540.405	1	-6
540.575	1	15
540.745	1	-3
540.915	1	2
541.085	1	-1
541.255	1	10
541.425	1	4
541.595	1	-3
541.765	1	-4
541.935	1	7
542.105	1	1
542.275	1	-1
542.445	1	-7
542.615	1	4
542.785	1	8
542.955	1	5
543.125	1	8
543.295	1	3
543.465	1	16
543.635	1	6
543.805	1	-5
543.975	1	8
544.145	1	-5
544.315	1	11
544.485	1	-7
544.655	1	-4
544.825	1	3
544.995	1	5
545.165	1	5
545.335	1	-1
545.505	1	3
545.675	1	8
545.845	1	5
546.015	1	7
546.185	1	9
546.355	1	4
546.525	1	-9
546.695	1	2
546.865	1	7
547.035	1	2
547.205	1	4
547.375	1	9
547.545	1	0
547.715	1	0
547.885	1	6
548.055	1	17
548.225	1	6
548.395	1	4
548.565	1	6
548.735	1	-3
548.905	1	12
549.075	1	-5
549.245	1	3
549.415	1	2
549.585	1	-2
549.755	1	-3
549.925	1	12
550.095	1	3
550.265	1	11
550.435	1	1
550.605	1	7
550.775	1	1
550.945	1	4
551.115	1	8
551.285	1	2
551.455	1	3
551.625	1	7
551.795	1	2
551.965	1	9
552.135	1	13
552.305	1	8
552.475	1	3
552.645	1	4
552.815	1	-5
552.985	1	-12
553.155	1	2
553.325	1	5
553.495	1	2
553.665	1	5
553.835	1	15
554.004	1	5
554.174	1	-5
554.344	1	12
554.514	1	2
554.684	1	-7
554.854	1	-5
555.024	1	-10
555.194	1	4
555.364	1	-6
555.534	1	-2
555.704	1	4
555.874	1	14
556.044	1	-4
556.214	1	4
556.384	1	-4
556.554	1	2
556.724	1	-3
556.894	1	-3
557.064	1	7
557.234	1	8
557.404	1	-5
557.573	1	3
557.743	1	-6
557.913	1	-1
558.083	1	5
558.253	1	2
558.423	1	-2
558.593	1	6
558.763	1	4
558.933	1	-1
559.103	1	-2
559.273	1	7
559.443	1	-4
559.613	1	-8
559.783	1	-2
559.953	1	-7
560.122	1	-6
560.292	1	-5
560.462	1	-8
560.632	1	7
560.802	1	-3
560.972	1	1
561.142	1	1
561.312	1	-10
561.482	1	10
561.652	1	13
561.822	1	6
561.992	1	-4
562.162	1	8
562.331	1	2
562.501	1	-3
562.671	1	-3
562.841	1	10
563.011	1	-4
563.181	1	-2
563.351	1	3
563.521	1	3
563.691	1	-8
563.861	1	-3
564.031	1	13
564.201	1	10
564.370	1	-7
564.540	1	-5
564.710	1	-3
564.880	1	1
565.050	1	20
565.220	1	-1
565.390	1	6
565.560	1	6
565.730	1	0
565.900	1	6
566.069	1	3
566.239	1	4
566.409	1	1
566.579	1	-6
566.749	1	3
566.919	1	-3
567.089	1	0
567.259	1	3
567.429	1	3
567.599	1	3
567.768	1	3
567.938	1	-1
568.108	1	2
568.278	1	3
568.448	1	1
568.618	1	11
568.788	1	13
568.958	1	-4
569.128	1	-2
569.297	1	3
569.467	1	-2
569.637	1	1
569.807	1	6
569.977	1	16
570.147	1	7
570.317	1	5
570.487	1	4
570.656	1	-6
570.826	1	3
570.996	1	16
571.166	1	8
571.336	1	-2
571.506	1	-1
571.676	1	12
571.846	1	4
572.015	1	-10
572.185	1	-1
572.355	1	3
572.525	1	4
572.695	1	2
572.865	1	10
573.035	1	11
573.205	1	-4
573.374	1	11
573.544	1	2
573.714	1	8
573.884	1	2
574.054	1	4
574.224	1	3
574.394	1	-3
574.563	1	4
574.733	1	4
574.903	1	7
575.073	1	5
575.243	1	2
575.413	1	5
575.583	1	7
575.752	1	5
575.922	1	2
576.092	1	-1
576.262	1	1
576.432	1	4
576.602	1	6
576.772	1	3
576.941	1	-5
577.111	1	2
577.281	1	3
577.451	1	1
577.621	1	-7
577.791	1	-5
577.960	1	7
578.130	1	1
578.300	1	-7
578.470	1	8
578.640	1	0
578.810	1	-1
578.979	1	4
579.149	1	-4
579.319	1	-2
579.489	1	6
579.659	1	15
579.829	1	8
579.998	1	-2
580.168	1	11
580.338	1	-12
580.508	1	5
580.678	1	4
580.848	1	-6
581.017	1	1
581.187	1	8
581.357	1	3
581.527	1	-11
581.697	1	4
581.867	1	4
582.036	1	-2
582.206	1	-6
582.376	1	5
582.546	1	-1
582.716	1	-2
582.885	1	4
583.055	1	10
583.225	1	9
583.395	1	0
583.565	1	-4
583.735	1	4
583.904	1	4
584.074	1	7
584.244	1	6
584.414	1	2
584.584	1	7
584.753	1	1
584.923	1	7
585.093	1	-8
585.263	1	-1
585.433	1	-4
585.602	1	-2
585.772	1	4
585.942	1	-1
586.112	1	5
586.282	1	5
586.451	1	2
586.621	1	6
586.791	1	-1
586.961	1	-2
587.131	1	10
587.300	1	-1
587.470	1	9
587.640	1	-3
587.810	1	10
587.980	1	-6
588.149	1	-1
588.319	1	-3
588.489	1	-2
588.659	1	12
588.829	1	3
588.998	1	3
589.168	1	13
589.338	1	3
589.508	1	-1
589.677	1	0
589.847	1	22
590.017	1	-5
590.187	1	0
590.357	1	5
590.526	1	7
590.696	1	6
590.866	1	0
591.036	1	6
591.205	1	1
591.375	1	-6
591.545	1	3
591.715	1	-8
591.885	1	4
592.054	1	-1
592.224	1	8
592.394	1	6
592.564	1	5
592.733	1	13
592.903	1	5
593.073	1	-1
593.243	1	4
593.412	1	11
593.582	1	-2
593.752	1	2
593.922	1	-3
594.091	1	1
594.261	1	18
594.431	1	14
594.601	1	2
594.771	1	1
594.940	1	-8
595.110	1	1
595.280	1	-4
595.450	1	10
595.619	1	-1
595.789	1	13
595.959	1	12
596.129	1	5
596.298	1	9
596.468	1	-8
596.638	1	-10
596.808	1	-2
596.977	1	9
597.147	1	5
597.317	1	3
597.487	1	-5
597.656	1	-1
597.826	1	8
597.996	1	1
598.166	1	-1
598.335	1	-9
598.505	1	3
598.675	1	5
598.844	1	1
599.014	1	0
599.184	1	3
599.354	1	0
599.523	1	3
599.693	1	0
599.863	1	-3
600.033	1	-2
600.202	1	4
600.372	1	-5
600.542	1	1
600.712	1	-6
600.881	1	1
601.051	1	5
601.221	1	2
601.390	1	0
601.560	1	1
601.730	1	6
601.900	1	0
602.069	1	1
602.239	1	19
602.409	1	7
602.578	1	-4
602.748	1	-1
602.918	1	7
603.088	1	2
603.257	1	2
603.427	1	-3
603.597	1	10
603.767	1	-5
603.936	1	-15
604.106	1	3
604.276	1	4
604.445	1	-4
604.615	1	-3
604.785	1	6
604.954	1	-1
605.124	1	4
605.294	1	-2
605.464	1	7
605.633	1	0
605.803	1	1
605.973	1	12
606.142	1	7
606.312	1	9
606.482	1	6
606.652	1	-1
606.821	1	-5
606.991	1	10
607.161	1	6
607.330	1	-7
607.500	1	-6
607.670	1	-1
607.839	1	0
608.009	1	1
608.179	1	-2
608.348	1	10
608.518	1	-2
608.688	1	12
608.858	1	9
609.027	1	14
609.197	1	-8
609.367	1	-7
609.536	1	8
609.706	1	4
609.876	1	18
610.045	1	1
610.215	1	-3
610.385	1	3
610.554	1	9
610.724	1	-3
610.894	1	7
611.063	1	-7
611.233	1	4
611.403	1	12
611.572	1	1
611.742	1	-6
611.912	1	4
612.081	1	12
612.251	1	-2
612.421	1	-2
612.590	1	12
612.760	1	10
612.930	1	-1
613.099	1	18
613.269	1	2
613.439	1	3
613.608	1	1
613.778	1	-1
613.948	1	5
614.117	1	-6
614.287	1	8
614.457	1	-1
614.626	1	5
614.796	1	5
614.966	1	9
615.135	1	13
615.305	1	2
615.475	1	2
615.644	1	-6
615.814	1	-1
615.984	1	6
616.153	1	-13
616.323	1	10
616.493	1	11
616.662	1	7
616.832	1	6
617.002	1	-4
617.171	1	1
617.341	1	9
617.511	1	-5
617.680	1	8
617.850	1	2
618.019	1	15
618.189	1	-7
618.359	1	9
618.528	1	18
618.698	1	5
618.868	1	-10
619.037	1	1
619.207	1	2
619.377	1	-2
619.546	1	3
619.716	1	3
619.885	1	8
620.055	1	-5
620.225	1	2
620.394	1	7
620.564	1	-4
620.734	1	3
620.903	1	4
621.073	1	7
621.242	1	14
621.412	1	-1
621.582	1	5
621.751	1	2
621.921	1	11
622.091	1	0
622.260	1	2
622.430	1	6
622.599	1	10
622.769	1	-2
622.939	1	5
623.108	1	0
623.278	1	4
623.448	1	5
623.617	1	6
623.787	1	-4
623.956	1	4
624.126	1	-2
624.296	1	-2
624.465	1	-7
624.635	1	14
624.804	1	6
624.974	1	3
625.144	1	-4
625.313	1	13
625.483	1	11
625.652	1	8
625.822	1	11
625.992	1	1
626.161	1	16
626.331	1	7
626.501	1	26
626.670	1	-1
626.840	1	-5
627.009	1	7
627.179	1	12
627.348	1	4
627.518	1	11
627.688	1	0
627.857	1	15
628.027	1	6
628.196	1	-1
628.366	1	5
628.536	1	3
628.705	1	1
628.875	1	12
629.044	1	15
629.214	1	9
629.384	1	-7
629.553	1	2
629.723	1	4
629.892	1	8
630.062	1	2
630.232	1	-2
630.401	1	13
630.571	1	8
630.740	1	0
630.910	1	10
631.079	1	10
631.249	1	4
631.419	1	0
631.588	1	5
631.758	1	14
631.927	1	4
632.097	1	-2
632.266	1	4
632.436	1	12
632.606	1	12
632.775	1	11
632.945	1	2
633.114	1	1
633.284	1	-3
633.453	1	9
633.623	1	0
633.793	1	18
633.962	1	8
634.132	1	10
634.301	1	3
634.471	1	3
634.640	1	7
634.810	1	10
634.979	1	4
635.149	1	10
635.319	1	4
635.488	1	1
635.658	1	10
635.827	1	7
635.997	1	3
636.166	1	10
636.336	1	6
636.505	1	19
636.675	1	1
636.845	1	9
637.014	1	12
637.184	1	5
637.353	1	4
637.523	1	10
637.692	1	-1
637.862	1	4
638.031	1	14
638.201	1	7
638.370	1	15
638.540	1	11
638.710	1	3
638.879	1	-1
639.049	1	13
639.218	1	-6
639.388	1	3
639.557	1	18
639.727	1	10
639.896	1	9
640.066	1	10
640.235	1	14
640.405	1	7
640.574	1	11
640.744	1	11
640.914	1	-8
641.083	1	12
641.253	1	3
641.422	1	-2
641.592	1	-1
641.761	1	15
641.931	1	20
642.100	1	6
642.270	1	3
642.439	1	0
642.609	1	1
642.778	1	-9
642.948	1	12
643.117	1	5
643.287	1	5
643.456	1	10
643.626	1	7
643.795	1	2
643.965	1	9
644.134	1	4
644.304	1	15
644.473	1	9
644.643	1	0
644.812	1	9
644.982	1	3
645.151	1	1
645.321	1	2
645.490	1	10
645.660	1	-7
645.829	1	0
645.999	1	4
646.168	1	12
646.338	1	-5
646.507	1	8
646.677	1	-1
646.846	1	3
647.016	1	6
647.185	1	10
647.355	1	9
647.524	1	8
647.694	1	6
647.863	1	15
648.033	1	9
648.202	1	-3
648.372	1	3
648.541	1	9
648.711	1	3
648.880	1	1
649.050	1	4
649.219	1	6
649.389	1	0
649.558	1	6
649.728	1	-1
649.897	1	6
650.067	1	-8
650.236	1	7
650.406	1	6
650.575	1	6
650.745	1	9
650.914	1	26
651.084	1	11
651.253	1	-2
651.423	1	20
651.592	1	11
651.762	1	-4
651.931	1	17
652.101	1	4
652.270	1	2
652.440	1	2
652.609	1	5
652.778	1	7
652.948	1	12
653.117	1	3
653.287	1	0
653.456	1	10
653.626	1	9
653.795	1	-4
653.965	1	7
654.134	1	4
654.304	1	15
654.473	1	8
654.643	1	0
654.812	1	3
654.982	1	4
655.151	1	0
655.320	1	7
655.490	1	-3
655.659	1	4
655.829	1	2
655.998	1	7
656.168	1	-2
656.337	1	7
656.507	1	2
656.676	1	5
656.846	1	11
657.015	1	11
657.184	1	5
657.354	1	3
657.523	1	5
657.693	1	3
657.862	1	11
658.032	1	14
658.201	1	6
658.371	1	13
658.540	1	3
658.709	1	-5
658.879	1	7
659.048	1	5
659.218	1	6
659.387	1	8
659.557	1	-6
659.726	1	-13
659.895	1	-1
660.065	1	9
660.234	1	5
660.404	1	0
660.573	1	2
660.743	1	7
660.912	1	0
661.081	1	9
661.251	1	9
661.420	1	9
661.590	1	9
661.759	1	14
661.929	1	7
662.098	1	0
662.267	1	14
662.437	1	9
662.606	1	17
662.776	1	-1
662.945	1	0
663.115	1	-4
663.284	1	5
663.453	1	-4
663.623	1	-9
663.792	1	-3
663.962	1	-3
664.131	1	6
664.300	1	-7
664.470	1	3
664.639	1	9
664.809	1	-5
664.978	1	-5
665.148	1	13
665.317	1	22
665.486	1	4
665.656	1	11
665.825	1	2
665.995	1	-6
666.164	1	8
666.333	1	-1
666.503	1	-3
666.672	1	-4
666.842	1	4
667.011	1	8
667.180	1	3
667.350	1	4
667.519	1	-4
667.689	1	10
667.858	1	8
668.027	1	3
668.197	1	3
668.366	1	16
668.536	1	0
668.705	1	12
668.874	1	-6
669.044	1	1
669.213	1	3
669.382	1	1
669.552	1	8
669.721	1	4
669.891	1	0
670.060	1	16
670.229	1	4
670.399	1	11
670.568	1	0
670.738	1	2
670.907	1	12
671.076	1	5
671.246	1	3
671.415	1	-4
671.584	1	11
671.754	1	14
671.923	1	7
672.093	1	-9
672.262	1	1
672.431	1	9
672.601	1	-4
672.770	1	-4
672.939	1	-2
673.109	1	6
673.278	1	0
673.448	1	18
673.617	1	1
673.786	1	3
