325.333	1	23
325.504	1	14
325.675	1	4
325.846	1	-7
326.017	1	8
326.188	1	10
326.359	1	11
326.531	1	7
326.702	1	15
326.873	1	8
327.044	1	11
327.215	1	4
327.386	1	17
327.557	1	10
327.728	1	8
327.899	1	12
328.070	1	10
328.241	1	5
328.412	1	8
328.583	1	16
328.754	1	10
328.926	1	8
329.097	1	17
329.268	1	15
329.439	1	4
329.610	1	15
329.781	1	8
329.952	1	9
330.123	1	12
330.294	1	15
330.465	1	4
330.636	1	26
330.807	1	14
330.978	1	14
331.149	1	4
331.320	1	21
331.492	1	16
331.663	1	16
331.834	1	12
332.005	1	13
332.176	1	0
332.347	1	23
332.518	1	7
332.689	1	24
332.860	1	16
333.031	1	7
333.202	1	4
333.373	1	20
333.544	1	9
333.715	1	9
333.886	1	8
334.057	1	20
334.228	1	15
334.399	1	5
334.570	1	5
334.741	1	-2
334.912	1	18
335.084	1	5
335.255	1	5
335.426	1	23
335.597	1	28
335.768	1	16
335.939	1	27
336.110	1	20
336.281	1	11
336.452	1	17
336.623	1	6
336.794	1	17
336.965	1	10
337.136	1	23
337.307	1	24
337.478	1	22
337.649	1	27
337.820	1	15
337.991	1	22
338.162	1	19
338.333	1	11
338.504	1	9
338.675	1	20
338.846	1	19
339.017	1	21
339.188	1	11
339.359	1	17
339.530	1	19
339.701	1	13
339.872	1	24
340.043	1	28
340.214	1	16
340.385	1	14
340.556	1	24
340.727	1	22
340.898	1	25
341.069	1	21
341.240	1	14
341.411	1	20
341.582	1	22
341.753	1	25
341.924	1	14
342.095	1	12
342.266	1	20
342.437	1	22
342.608	1	17
342.779	1	15
342.950	1	11
343.121	1	19
343.292	1	8
343.463	1	11
343.634	1	15
343.805	1	12
343.976	1	16
344.147	1	8
344.318	1	26
344.489	1	10
344.660	1	33
344.831	1	13
345.002	1	17
345.173	1	12
345.344	1	17
345.515	1	12
345.686	1	17
345.857	1	22
346.028	1	19
346.199	1	16
346.370	1	25
346.541	1	18
346.712	1	16
346.883	1	25
347.054	1	9
347.225	1	13
347.396	1	13
347.567	1	19
347.738	1	20
347.909	1	14
348.080	1	13
348.251	1	27
348.422	1	7
348.593	1	3
348.764	1	18
348.935	1	14
349.106	1	11
349.277	1	27
349.448	1	25
349.619	1	19
349.790	1	27
349.961	1	19
350.132	1	18
350.303	1	27
350.474	1	21
350.645	1	22
350.816	1	27
350.987	1	15
351.157	1	19
351.328	1	18
351.499	1	25
351.670	1	20
351.841	1	21
352.012	1	31
352.183	1	14
352.354	1	24
352.525	1	17
352.696	1	28
352.867	1	24
353.038	1	17
353.209	1	29
353.380	1	34
353.551	1	9
353.722	1	21
353.893	1	27
354.064	1	24
354.235	1	28
354.406	1	24
354.576	1	15
354.747	1	28
354.918	1	28
355.089	1	15
355.260	1	31
355.431	1	15
355.602	1	13
355.773	1	18
355.944	1	19
356.115	1	19
356.286	1	7
356.457	1	24
356.628	1	17
356.799	1	17
356.970	1	8
357.141	1	28
357.311	1	22
357.482	1	22
357.653	1	16
357.824	1	29
357.995	1	19
358.166	1	24
358.337	1	25
358.508	1	21
358.679	1	14
358.850	1	17
359.021	1	22
359.192	1	32
359.363	1	23
359.533	1	10
359.704	1	28
359.875	1	27
360.046	1	23
360.217	1	26
360.388	1	19
360.559	1	24
360.730	1	17
360.901	1	26
361.072	1	13
361.243	1	29
361.414	1	13
361.584	1	13
361.755	1	37
361.926	1	24
362.097	1	16
362.268	1	31
362.439	1	30
362.610	1	21
362.781	1	27
362.952	1	18
363.123	1	13
363.293	1	24
363.464	1	21
363.635	1	24
363.806	1	25
363.977	1	35
364.148	1	28
364.319	1	17
364.490	1	35
364.661	1	14
364.832	1	13
365.002	1	26
365.173	1	23
365.344	1	16
365.515	1	29
365.686	1	32
365.857	1	24
366.028	1	31
366.199	1	28
366.370	1	21
366.540	1	20
366.711	1	25
366.882	1	33
367.053	1	34
367.224	1	18
367.395	1	22
367.566	1	38
367.737	1	16
367.908	1	33
368.078	1	22
368.249	1	28
368.420	1	30
368.591	1	27
368.762	1	34
368.933	1	34
369.104	1	23
369.274	1	29
369.445	1	32
369.616	1	30
369.787	1	26
369.958	1	29
370.129	1	40
370.300	1	25
370.471	1	26
370.641	1	27
370.812	1	22
370.983	1	25
371.154	1	23
371.325	1	35
371.496	1	23
371.667	1	25
371.837	1	33
372.008	1	23
372.179	1	27
372.350	1	25
372.521	1	25
372.692	1	34
372.863	1	25
373.033	1	29
373.204	1	32
373.375	1	27
373.546	1	26
373.717	1	21
373.888	1	27
374.059	1	25
374.229	1	18
374.400	1	34
374.571	1	28
374.742	1	25
374.913	1	17
375.084	1	32
375.254	1	31
375.425	1	41
375.596	1	37
375.767	1	37
375.938	1	19
376.109	1	33
376.279	1	24
376.450	1	27
376.621	1	27
376.792	1	30
376.963	1	36
377.134	1	34
377.304	1	24
377.475	1	34
377.646	1	25
377.817	1	29
377.988	1	28
378.159	1	42
378.329	1	36
378.500	1	31
378.671	1	38
378.842	1	34
379.013	1	42
379.184	1	27
379.354	1	25
379.525	1	36
379.696	1	34
379.867	1	43
380.038	1	39
380.209	1	25
380.379	1	32
380.550	1	29
380.721	1	34
380.892	1	28
381.063	1	41
381.233	1	31
381.404	1	39
381.575	1	31
381.746	1	27
381.917	1	30
382.087	1	34
382.258	1	40
382.429	1	39
382.600	1	33
382.771	1	33
382.941	1	36
383.112	1	26
383.283	1	23
383.454	1	35
383.625	1	40
383.795	1	48
383.966	1	40
384.137	1	30
384.308	1	36
384.479	1	41
384.649	1	30
384.820	1	29
384.991	1	44
385.162	1	33
385.333	1	31
385.503	1	27
385.674	1	37
385.845	1	31
386.016	1	41
386.187	1	33
386.357	1	42
386.528	1	33
386.699	1	33
386.870	1	27
387.041	1	41
387.211	1	38
387.382	1	44
387.553	1	37
387.724	1	11
387.894	1	25
388.065	1	40
388.236	1	39
388.407	1	39
388.578	1	35
388.748	1	43
388.919	1	35
389.090	1	50
389.261	1	24
389.431	1	50
389.602	1	33
389.773	1	41
389.944	1	47
390.114	1	34
390.285	1	43
390.456	1	45
390.627	1	53
390.798	1	39
390.968	1	39
391.139	1	37
391.310	1	43
391.481	1	36
391.651	1	45
391.822	1	40
391.993	1	25
392.164	1	31
392.334	1	37
392.505	1	39
392.676	1	38
392.847	1	35
393.017	1	32
393.188	1	42
393.359	1	48
393.530	1	43
393.700	1	46
393.871	1	27
394.042	1	47
394.213	1	34
394.383	1	39
394.554	1	36
394.725	1	38
394.896	1	40
395.066	1	45
395.237	1	43
395.408	1	48
395.579	1	48
395.749	1	38
395.920	1	36
396.091	1	45
396.262	1	34
396.432	1	40
396.603	1	44
396.774	1	42
396.945	1	36
397.115	1	48
397.286	1	42
397.457	1	40
397.627	1	38
397.798	1	47
397.969	1	41
398.140	1	39
398.310	1	53
398.481	1	40
398.652	1	42
398.823	1	32
398.993	1	32
399.164	1	38
399.335	1	52
399.505	1	38
399.676	1	43
399.847	1	46
400.018	1	51
400.188	1	44
400.359	1	35
400.530	1	52
400.700	1	37
400.871	1	49
401.042	1	44
401.213	1	42
401.383	1	43
401.554	1	49
401.725	1	46
401.895	1	37
402.066	1	35
402.237	1	53
402.408	1	47
402.578	1	43
402.749	1	49
402.920	1	27
403.090	1	33
403.261	1	40
403.432	1	40
403.603	1	43
403.773	1	45
403.944	1	42
404.115	1	58
404.285	1	36
404.456	1	44
404.627	1	34
404.797	1	41
404.968	1	41
405.139	1	42
405.310	1	45
405.480	1	47
405.651	1	43
405.822	1	32
405.992	1	41
406.163	1	35
406.334	1	46
406.504	1	44
406.675	1	41
406.846	1	40
407.016	1	49
407.187	1	39
407.358	1	52
407.528	1	40
407.699	1	34
407.870	1	54
408.041	1	45
408.211	1	49
408.382	1	44
408.553	1	48
408.723	1	50
408.894	1	32
409.065	1	58
409.235	1	38
409.406	1	52
409.577	1	49
409.747	1	41
409.918	1	50
410.089	1	39
410.259	1	43
410.430	1	34
410.601	1	48
410.771	1	42
410.942	1	49
411.113	1	44
411.283	1	47
411.454	1	48
411.625	1	43
411.795	1	51
411.966	1	49
412.137	1	59
412.307	1	37
412.478	1	46
412.649	1	60
412.819	1	52
412.990	1	58
413.161	1	48
413.331	1	64
413.502	1	56
413.672	1	41
413.843	1	46
414.014	1	46
414.184	1	52
414.355	1	46
414.526	1	46
414.696	1	45
414.867	1	56
415.038	1	43
415.208	1	32
415.379	1	46
415.550	1	47
415.720	1	36
415.891	1	45
416.062	1	44
416.232	1	46
416.403	1	34
416.573	1	47
416.744	1	51
416.915	1	40
417.085	1	57
417.256	1	38
417.427	1	52
417.597	1	40
417.768	1	42
417.939	1	51
418.109	1	49
418.280	1	42
418.450	1	49
418.621	1	48
418.792	1	39
418.962	1	52
419.133	1	49
419.304	1	48
419.474	1	49
419.645	1	42
419.815	1	51
419.986	1	52
420.157	1	50
420.327	1	41
420.498	1	34
420.669	1	46
420.839	1	44
421.010	1	56
421.180	1	45
421.351	1	38
421.522	1	47
421.692	1	44
421.863	1	46
422.033	1	39
422.204	1	40
422.375	1	59
422.545	1	51
422.716	1	44
422.886	1	50
423.057	1	60
423.228	1	51
423.398	1	50
423.569	1	52
423.740	1	53
423.910	1	62
424.081	1	43
424.251	1	44
424.422	1	48
424.593	1	41
424.763	1	63
424.934	1	55
425.104	1	68
425.275	1	52
425.445	1	43
425.616	1	47
425.787	1	49
425.957	1	60
426.128	1	54
426.298	1	36
426.469	1	71
426.640	1	45
426.810	1	46
426.981	1	46
427.151	1	47
427.322	1	54
427.493	1	48
427.663	1	50
427.834	1	43
428.004	1	56
428.175	1	45
428.345	1	51
428.516	1	50
428.687	1	45
428.857	1	34
429.028	1	48
429.198	1	40
429.369	1	44
429.540	1	53
429.710	1	53
429.881	1	53
430.051	1	41
430.222	1	51
430.392	1	52
430.563	1	49
430.734	1	47
430.904	1	44
431.075	1	49
431.245	1	36
431.416	1	25
431.586	1	39
431.757	1	56
431.927	1	48
432.098	1	31
432.269	1	51
432.439	1	49
432.610	1	49
432.780	1	35
432.951	1	39
433.121	1	41
433.292	1	46
433.462	1	55
433.633	1	57
433.804	1	54
433.974	1	51
434.145	1	43
434.315	1	45
434.486	1	47
434.656	1	51
434.827	1	40
434.997	1	57
435.168	1	41
435.339	1	49
435.509	1	60
435.680	1	41
435.850	1	47
436.021	1	50
436.191	1	48
436.362	1	47
436.532	1	49
436.703	1	54
436.873	1	51
437.044	1	57
437.214	1	45
437.385	1	54
437.556	1	36
437.726	1	46
437.897	1	40
438.067	1	45
438.238	1	47
438.408	1	48
438.579	1	48
438.749	1	39
438.920	1	52
439.090	1	56
439.261	1	51
439.431	1	40
439.602	1	50
439.772	1	36
439.943	1	48
440.113	1	40
440.284	1	53
440.455	1	45
440.625	1	53
440.796	1	49
440.966	1	44
441.137	1	26
441.307	1	44
441.478	1	37
441.648	1	44
441.819	1	40
441.989	1	45
442.160	1	49
442.330	1	49
442.501	1	37
442.671	1	55
442.842	1	50
443.012	1	46
443.183	1	44
443.353	1	46
443.524	1	40
443.694	1	32
443.865	1	35
444.035	1	43
444.206	1	44
444.376	1	45
444.547	1	43
444.717	1	46
444.888	1	42
445.058	1	45
445.229	1	39
445.399	1	42
445.570	1	47
445.740	1	42
445.911	1	41
446.081	1	40
446.252	1	44
446.422	1	35
446.593	1	45
446.763	1	46
446.934	1	29
447.104	1	50
447.275	1	40
447.445	1	49
447.616	1	45
447.786	1	48
447.957	1	43
448.127	1	39
448.298	1	31
448.468	1	54
448.639	1	53
448.809	1	47
448.979	1	34
449.150	1	44
449.320	1	49
449.491	1	48
449.661	1	41
449.832	1	42
450.002	1	47
450.173	1	37
450.343	1	43
450.514	1	48
450.684	1	44
450.855	1	47
451.025	1	46
451.196	1	36
451.366	1	59
451.537	1	45
451.707	1	52
451.878	1	42
452.048	1	32
452.218	1	42
452.389	1	57
452.559	1	40
452.730	1	36
452.900	1	37
453.071	1	52
453.241	1	29
453.412	1	49
453.582	1	46
453.753	1	54
453.923	1	41
454.093	1	31
454.264	1	53
454.434	1	39
454.605	1	35
454.775	1	40
454.946	1	40
455.116	1	45
455.287	1	57
455.457	1	41
455.628	1	30
455.798	1	37
455.968	1	32
456.139	1	36
456.309	1	37
456.480	1	39
456.650	1	34
456.821	1	37
456.991	1	38
457.161	1	37
457.332	1	38
457.502	1	57
457.673	1	39
457.843	1	39
458.014	1	39
458.184	1	36
458.355	1	48
458.525	1	34
458.695	1	32
458.866	1	35
459.036	1	39
459.207	1	40
459.377	1	33
459.548	1	36
459.718	1	34
459.888	1	41
460.059	1	33
460.229	1	43
460.400	1	49
460.570	1	33
460.740	1	36
460.911	1	51
461.081	1	36
461.252	1	41
461.422	1	30
461.593	1	41
461.763	1	41
461.933	1	34
462.104	1	45
462.274	1	34
462.445	1	33
462.615	1	40
462.785	1	31
462.956	1	25
463.126	1	36
463.297	1	40
463.467	1	40
463.638	1	41
463.808	1	32
463.978	1	35
464.149	1	45
464.319	1	35
464.490	1	32
464.660	1	28
464.830	1	34
465.001	1	45
465.171	1	37
465.342	1	32
465.512	1	34
465.682	1	33
465.853	1	44
466.023	1	46
466.194	1	41
466.364	1	35
466.534	1	23
466.705	1	36
466.875	1	38
467.045	1	39
467.216	1	35
467.386	1	33
467.557	1	37
467.727	1	40
467.897	1	38
468.068	1	30
468.238	1	37
468.409	1	33
468.579	1	37
468.749	1	40
468.920	1	48
469.090	1	32
469.260	1	36
469.431	1	37
469.601	1	45
469.772	1	24
469.942	1	26
470.112	1	33
470.283	1	38
470.453	1	40
470.623	1	23
470.794	1	21
470.964	1	25
471.135	1	31
471.305	1	24
471.475	1	40
471.646	1	41
471.816	1	39
471.986	1	32
472.157	1	29
472.327	1	21
472.497	1	17
472.668	1	26
472.838	1	32
473.009	1	36
473.179	1	46
473.349	1	37
473.520	1	27
473.690	1	37
473.860	1	23
474.031	1	43
474.201	1	26
474.371	1	50
474.542	1	42
474.712	1	38
474.882	1	32
475.053	1	32
475.223	1	37
475.394	1	23
475.564	1	28
475.734	1	34
475.905	1	29
476.075	1	19
476.245	1	26
476.416	1	31
476.586	1	36
476.756	1	32
476.927	1	28
477.097	1	29
477.267	1	28
477.438	1	35
477.608	1	34
477.778	1	38
477.949	1	32
478.119	1	30
478.289	1	31
478.460	1	27
478.630	1	42
478.800	1	33
478.971	1	16
479.141	1	45
479.311	1	30
479.482	1	28
479.652	1	36
479.822	1	33
479.993	1	32
480.163	1	28
480.333	1	33
480.504	1	34
480.674	1	23
480.844	1	37
481.015	1	33
481.185	1	41
481.355	1	29
481.525	1	23
481.696	1	39
481.866	1	32
482.036	1	17
482.207	1	47
482.377	1	24
482.547	1	28
482.718	1	40
482.888	1	32
483.058	1	38
483.229	1	30
483.399	1	28
483.569	1	35
483.740	1	26
483.910	1	25
484.080	1	42
484.250	1	34
484.421	1	24
484.591	1	27
484.761	1	26
484.932	1	31
485.102	1	39
485.272	1	27
485.443	1	28
485.613	1	21
485.783	1	23
485.953	1	23
486.124	1	29
486.294	1	34
486.464	1	19
486.635	1	25
486.805	1	34
486.975	1	29
487.146	1	27
487.316	1	32
487.486	1	37
487.656	1	43
487.827	1	23
487.997	1	16
488.167	1	35
488.338	1	22
488.508	1	32
488.678	1	33
488.848	1	25
489.019	1	32
489.189	1	30
489.359	1	20
489.529	1	25
489.700	1	14
489.870	1	24
490.040	1	27
490.211	1	35
490.381	1	28
490.551	1	23
490.721	1	21
490.892	1	16
491.062	1	25
491.232	1	34
491.402	1	31
491.573	1	36
491.743	1	41
491.913	1	23
492.084	1	24
492.254	1	25
492.424	1	23
492.594	1	29
492.765	1	10
492.935	1	27
493.105	1	26
493.275	1	19
493.446	1	26
493.616	1	30
493.786	1	20
493.956	1	38
494.127	1	33
494.297	1	30
494.467	1	35
494.637	1	22
494.808	1	26
494.978	1	19
495.148	1	8
495.318	1	27
495.489	1	20
495.659	1	17
495.829	1	25
495.999	1	16
496.170	1	24
496.340	1	25
496.510	1	17
496.680	1	42
496.851	1	24
497.021	1	18
497.191	1	25
497.361	1	19
497.532	1	24
497.702	1	24
497.872	1	22
498.042	1	34
498.213	1	25
498.383	1	15
498.553	1	32
498.723	1	11
498.894	1	25
499.064	1	24
499.234	1	24
499.404	1	16
499.574	1	22
499.745	1	13
499.915	1	28
500.085	1	29
500.255	1	15
500.426	1	13
500.596	1	26
500.766	1	29
500.936	1	31
501.106	1	19
501.277	1	18
501.447	1	24
501.617	1	16
501.787	1	19
501.958	1	15
502.128	1	22
502.298	1	22
502.468	1	15
502.638	1	22
502.809	1	27
502.979	1	10
503.149	1	32
503.319	1	21
503.489	1	25
503.660	1	33
503.830	1	19
504.000	1	16
504.170	1	20
504.340	1	33
504.511	1	8
504.681	1	19
504.851	1	16
505.021	1	23
505.192	1	22
505.362	1	27
505.532	1	12
505.702	1	14
505.872	1	22
506.043	1	25
506.213	1	13
506.383	1	23
506.553	1	21
506.723	1	17
506.893	1	14
507.064	1	20
507.234	1	21
507.404	1	22
507.574	1	10
507.744	1	23
507.915	1	16
508.085	1	31
508.255	1	10
508.425	1	22
508.595	1	20
508.766	1	15
508.936	1	21
509.106	1	7
509.276	1	18
509.446	1	7
509.616	1	25
509.787	1	14
509.957	1	34
510.127	1	11
510.297	1	22
510.467	1	22
510.638	1	15
510.808	1	8
510.978	1	19
511.148	1	19
511.318	1	15
511.488	1	28
511.659	1	20
511.829	1	12
511.999	1	25
512.169	1	21
512.339	1	16
512.509	1	22
512.680	1	14
512.850	1	16
513.020	1	19
513.190	1	13
513.360	1	17
513.530	1	18
513.700	1	21
513.871	1	24
514.041	1	17
514.211	1	31
514.381	1	12
514.551	1	15
514.721	1	10
514.892	1	19
515.062	1	21
515.232	1	9
515.402	1	20
515.572	1	27
515.742	1	15
515.912	1	16
516.083	1	17
516.253	1	16
516.423	1	22
516.593	1	21
516.763	1	12
516.933	1	10
517.104	1	5
517.274	1	24
517.444	1	11
517.614	1	11
517.784	1	21
517.954	1	24
518.124	1	29
518.294	1	15
518.465	1	9
518.635	1	19
518.805	1	14
518.975	1	19
519.145	1	16
519.315	1	18
519.485	1	28
519.656	1	16
519.826	1	16
519.996	1	22
520.166	1	18
520.336	1	6
520.506	1	21
520.676	1	18
520.846	1	26
521.017	1	19
521.187	1	16
521.357	1	14
521.527	1	15
521.697	1	16
521.867	1	14
522.037	1	20
522.207	1	5
522.377	1	10
522.548	1	13
522.718	1	11
522.888	1	19
523.058	1	1
523.228	1	16
523.398	1	21
523.568	1	14
523.738	1	10
523.909	1	23
524.079	1	16
524.249	1	22
524.419	1	11
524.589	1	19
524.759	1	11
524.929	1	16
525.099	1	9
525.269	1	10
525.439	1	6
525.610	1	14
525.780	1	14
525.950	1	24
526.120	1	18
526.290	1	28
526.460	1	14
526.630	1	3
526.800	1	0
526.970	1	8
527.140	1	14
527.311	1	16
527.481	1	22
527.651	1	18
527.821	1	6
527.991	1	12
528.161	1	9
528.331	1	12
528.501	1	5
528.671	1	3
528.841	1	12
529.011	1	7
529.181	1	11
529.352	1	11
529.522	1	10
529.692	1	19
529.862	1	10
530.032	1	19
530.202	1	19
530.372	1	11
530.542	1	10
530.712	1	8
530.882	1	10
531.052	1	20
531.222	1	19
531.392	1	8
531.563	1	12
531.733	1	12
531.903	1	13
532.073	1	10
532.243	1	14
532.413	1	14
532.583	1	3
532.753	1	13
532.923	1	14
533.093	1	13
533.263	1	9
533.433	1	12
533.603	1	32
533.773	1	17
533.943	1	9
534.113	1	12
534.284	1	12
534.454	1	8
534.624	1	14
534.794	1	18
534.964	1	24
535.134	1	14
535.304	1	10
535.474	1	24
535.644	1	3
535.814	1	5
535.984	1	11
536.154	1	17
536.324	1	15
536.494	1	10
536.664	1	16
536.834	1	9
537.004	1	11
537.174	1	2
537.344	1	22
537.514	1	7
537.685	1	24
537.855	1	8
538.025	1	18
538.195	1	12
538.365	1	24
538.535	1	8
538.705	1	7
538.875	1	4
539.045	1	3
539.215	1	16
539.385	1	14
539.555	1	9
539.725	1	13
539.895	1	15
540.065	1	17
540.235	1	14
540.405	1	6
540.575	1	10
540.745	1	7
540.915	1	14
541.085	1	9
541.255	1	12
541.425	1	8
541.595	1	-1
541.765	1	11
541.935	1	22
542.105	1	15
542.275	1	12
542.445	1	2
542.615	1	9
542.785	1	14
542.955	1	25
543.125	1	14
543.295	1	11
543.465	1	11
543.635	1	9
543.805	1	-2
543.975	1	10
544.145	1	2
544.315	1	16
544.485	1	7
544.655	1	6
544.825	1	16
544.995	1	6
545.165	1	16
545.335	1	9
545.505	1	13
545.675	1	14
545.845	1	26
546.015	1	11
546.185	1	14
546.355	1	13
546.525	1	1
546.695	1	21
546.865	1	18
547.035	1	5
547.205	1	14
547.375	1	17
547.545	1	8
547.715	1	8
547.885	1	-1
548.055	1	17
548.225	1	17
548.395	1	3
548.565	1	8
548.735	1	5
548.905	1	14
549.075	1	0
549.245	1	11
549.415	1	12
549.585	1	12
549.755	1	1
549.925	1	18
550.095	1	7
550.265	1	9
550.435	1	10
550.605	1	11
550.775	1	3
550.945	1	4
551.115	1	15
551.285	1	13
551.455	1	11
551.625	1	12
551.795	1	17
551.965	1	16
552.135	1	12
552.305	1	11
552.475	1	12
552.645	1	13
552.815	1	2
552.985	1	-12
553.155	1	15
553.325	1	8
553.495	1	17
553.665	1	21
553.835	1	18
554.004	1	5
554.174	1	1
554.344	1	12
554.514	1	10
554.684	1	4
554.854	1	8
555.024	1	1
555.194	1	12
555.364	1	10
555.534	1	13
555.704	1	13
555.874	1	11
556.044	1	14
556.214	1	7
556.384	1	1
556.554	1	6
556.724	1	5
556.894	1	11
557.064	1	19
557.234	1	17
557.404	1	11
557.573	1	13
557.743	1	-4
557.913	1	12
558.083	1	13
558.253	1	1
558.423	1	22
558.593	1	23
558.763	1	15
558.933	1	12
559.103	1	13
559.273	1	4
559.443	1	7
559.613	1	-2
559.783	1	6
559.953	1	1
560.122	1	19
560.292	1	12
560.462	1	6
560.632	1	20
560.802	1	10
560.972	1	11
561.142	1	-3
561.312	1	9
561.482	1	13
561.652	1	5
561.822	1	10
561.992	1	13
562.162	1	12
562.331	1	18
562.501	1	-6
562.671	1	6
562.841	1	11
563.011	1	5
563.181	1	2
563.351	1	11
563.521	1	15
563.691	1	8
563.861	1	17
564.031	1	14
564.201	1	12
564.370	1	6
564.540	1	4
564.710	1	6
564.880	1	9
565.050	1	18
565.220	1	10
565.390	1	8
565.560	1	14
565.730	1	14
565.900	1	9
566.069	1	15
566.239	1	10
566.409	1	9
566.579	1	9
566.749	1	12
566.919	1	0
567.089	1	9
567.259	1	14
567.429	1	6
567.599	1	7
567.768	1	13
567.938	1	12
568.108	1	11
568.278	1	15
568.448	1	10
568.618	1	16
568.788	1	15
568.958	1	11
569.128	1	7
569.297	1	10
569.467	1	5
569.637	1	21
569.807	1	6
569.977	1	15
570.147	1	14
570.317	1	9
570.487	1	6
570.656	1	0
570.826	1	13
570.996	1	11
571.166	1	12
571.336	1	14
571.506	1	11
571.676	1	16
571.846	1	14
572.015	1	3
572.185	1	9
572.355	1	9
572.525	1	13
572.695	1	4
572.865	1	10
573.035	1	22
573.205	1	13
573.374	1	21
573.544	1	15
573.714	1	17
573.884	1	3
574.054	1	15
574.224	1	14
574.394	1	3
574.563	1	6
574.733	1	13
574.903	1	12
575.073	1	7
575.243	1	17
575.413	1	15
575.583	1	9
575.752	1	10
575.922	1	9
576.092	1	14
576.262	1	9
576.432	1	17
576.602	1	5
576.772	1	11
576.941	1	15
577.111	1	15
577.281	1	4
577.451	1	15
577.621	1	4
577.791	1	10
577.960	1	6
578.130	1	1
578.300	1	7
578.470	1	12
578.640	1	7
578.810	1	8
578.979	1	8
579.149	1	-1
579.319	1	10
579.489	1	8
579.659	1	14
579.829	1	14
579.998	1	4
580.168	1	12
580.338	1	3
580.508	1	9
580.678	1	12
580.848	1	7
581.017	1	2
581.187	1	6
581.357	1	3
581.527	1	0
581.697	1	7
581.867	1	7
582.036	1	12
582.206	1	8
582.376	1	11
582.546	1	12
582.716	1	0
582.885	1	14
583.055	1	17
583.225	1	21
583.395	1	9
583.565	1	1
583.735	1	17
583.904	1	12
584.074	1	6
584.244	1	14
584.414	1	10
584.584	1	9
584.753	1	2
584.923	1	16
585.093	1	0
585.263	1	18
585.433	1	7
585.602	1	2
585.772	1	10
585.942	1	3
586.112	1	9
586.282	1	18
586.451	1	6
586.621	1	13
586.791	1	7
586.961	1	6
587.131	1	7
587.300	1	7
587.470	1	11
587.640	1	7
587.810	1	17
587.980	1	1
588.149	1	5
588.319	1	7
588.489	1	7
588.659	1	24
588.829	1	6
588.998	1	2
589.168	1	13
589.338	1	8
589.508	1	-2
589.677	1	-3
589.847	1	13
590.017	1	14
590.187	1	7
590.357	1	14
590.526	1	4
590.696	1	11
590.866	1	16
591.036	1	12
591.205	1	0
591.375	1	7
591.545	1	19
591.715	1	0
591.885	1	9
592.054	1	14
592.224	1	14
592.394	1	-1
592.564	1	16
592.733	1	18
592.903	1	19
593.073	1	5
593.243	1	11
593.412	1	20
593.582	1	3
593.752	1	4
593.922	1	3
594.091	1	8
594.261	1	13
594.431	1	18
594.601	1	8
594.771	1	1
594.940	1	4
595.110	1	3
595.280	1	11
595.450	1	18
595.619	1	2
595.789	1	2
595.959	1	7
596.129	1	13
596.298	1	13
596.468	1	0
596.638	1	-1
596.808	1	6
596.977	1	12
597.147	1	6
597.317	1	6
597.487	1	5
597.656	1	8
597.826	1	7
597.996	1	13
598.166	1	8
598.335	1	6
598.505	1	12
598.675	1	12
598.844	1	18
599.014	1	3
599.184	1	11
599.354	1	-2
599.523	1	3
599.693	1	8
599.863	1	4
600.033	1	-2
600.202	1	4
600.372	1	0
600.542	1	7
600.712	1	9
600.881	1	6
601.051	1	5
601.221	1	18
601.390	1	2
601.560	1	2
601.730	1	15
601.900	1	-1
602.069	1	7
602.239	1	27
602.409	1	4
602.578	1	7
602.748	1	19
602.918	1	9
603.088	1	12
603.257	1	13
603.427	1	1
603.597	1	10
603.767	1	2
603.936	1	-4
604.106	1	5
604.276	1	9
604.445	1	8
604.615	1	6
604.785	1	16
604.954	1	3
605.124	1	16
605.294	1	12
605.464	1	8
605.633	1	7
605.803	1	18
605.973	1	18
606.142	1	14
606.312	1	12
606.482	1	14
606.652	1	5
606.821	1	3
606.991	1	9
607.161	1	8
607.330	1	4
607.500	1	3
607.670	1	3
607.839	1	12
608.009	1	5
608.179	1	14
608.348	1	16
608.518	1	1
608.688	1	15
608.858	1	21
609.027	1	17
609.197	1	0
609.367	1	9
609.536	1	9
609.706	1	15
609.876	1	13
610.045	1	1
610.215	1	24
610.385	1	14
610.554	1	8
610.724	1	6
610.894	1	10
611.063	1	3
611.233	1	11
611.403	1	31
611.572	1	4
611.742	1	0
611.912	1	3
612.081	1	8
612.251	1	2
612.421	1	2
612.590	1	7
612.760	1	19
612.930	1	10
613.099	1	10
613.269	1	12
613.439	1	20
613.608	1	7
613.778	1	8
613.948	1	10
614.117	1	8
614.287	1	15
614.457	1	8
614.626	1	14
614.796	1	11
614.966	1	7
615.135	1	19
615.305	1	9
615.475	1	11
615.644	1	2
615.814	1	-4
615.984	1	11
616.153	1	6
616.323	1	8
616.493	1	10
616.662	1	9
616.832	1	4
617.002	1	5
617.171	1	0
617.341	1	8
617.511	1	-2
617.680	1	9
617.850	1	8
618.019	1	21
618.189	1	0
618.359	1	12
618.528	1	12
618.698	1	10
618.868	1	7
619.037	1	13
619.207	1	-1
619.377	1	5
619.546	1	8
619.716	1	0
619.885	1	12
620.055	1	7
620.225	1	16
620.394	1	3
620.564	1	7
620.734	1	9
620.903	1	15
621.073	1	9
621.242	1	21
621.412	1	6
621.582	1	15
621.751	1	18
621.921	1	7
622.091	1	6
622.260	1	4
622.430	1	10
622.599	1	17
622.769	1	8
622.939	1	16
623.108	1	7
623.278	1	7
623.448	1	6
623.617	1	5
623.787	1	12
623.956	1	13
624.126	1	-10
624.296	1	12
624.465	1	1
624.635	1	19
624.804	1	6
624.974	1	10
625.144	1	5
625.313	1	19
625.483	1	11
625.652	1	7
625.822	1	15
625.992	1	10
626.161	1	15
626.331	1	19
626.501	1	23
626.670	1	0
626.840	1	4
627.009	1	16
627.179	1	12
627.348	1	7
627.518	1	11
627.688	1	-3
627.857	1	20
628.027	1	2
628.196	1	8
628.366	1	4
628.536	1	12
628.705	1	4
628.875	1	16
629.044	1	11
629.214	1	9
629.384	1	9
629.553	1	9
629.723	1	9
629.892	1	15
630.062	1	11
630.232	1	-3
630.401	1	14
630.571	1	8
630.740	1	1
630.910	1	10
631.079	1	15
631.249	1	20
631.419	1	5
631.588	1	17
631.758	1	12
631.927	1	11
632.097	1	15
632.266	1	12
632.436	1	11
632.606	1	23
632.775	1	17
632.945	1	6
633.114	1	25
633.284	1	9
633.453	1	4
633.623	1	16
633.793	1	26
633.962	1	11
634.132	1	2
634.301	1	7
634.471	1	1
634.640	1	16
634.810	1	17
634.979	1	15
635.149	1	25
635.319	1	5
635.488	1	5
635.658	1	16
635.827	1	12
635.997	1	11
636.166	1	17
636.336	1	21
636.505	1	23
636.675	1	8
636.845	1	13
637.014	1	17
637.184	1	14
637.353	1	11
637.523	1	19
637.692	1	7
637.862	1	4
638.031	1	15
638.201	1	9
638.370	1	17
638.540	1	16
638.710	1	5
638.879	1	6
639.049	1	13
639.218	1	9
639.388	1	13
639.557	1	20
639.727	1	14
639.896	1	14
640.066	1	12
640.235	1	10
640.405	1	5
640.574	1	13
640.744	1	14
640.914	1	9
641.083	1	15
641.253	1	8
641.422	1	6
641.592	1	11
641.761	1	23
641.931	1	26
642.100	1	10
642.270	1	12
642.439	1	11
642.609	1	11
642.778	1	10
642.948	1	17
643.117	1	9
643.287	1	4
643.456	1	14
643.626	1	10
643.795	1	2
643.965	1	11
644.134	1	16
644.304	1	21
644.473	1	21
644.643	1	6
644.812	1	7
644.982	1	9
645.151	1	9
645.321	1	11
645.490	1	9
645.660	1	10
645.829	1	16
645.999	1	15
646.168	1	13
646.338	1	0
646.507	1	8
646.677	1	6
646.846	1	4
647.016	1	11
647.185	1	8
647.355	1	17
647.524	1	17
647.694	1	13
647.863	1	21
648.033	1	14
648.202	1	12
648.372	1	16
648.541	1	4
648.711	1	4
648.880	1	9
649.050	1	14
649.219	1	6
649.389	1	14
649.558	1	4
649.728	1	12
649.897	1	13
650.067	1	6
650.236	1	8
650.406	1	17
650.575	1	12
650.745	1	5
650.914	1	24
651.084	1	2
651.253	1	14
651.423	1	22
651.592	1	16
651.762	1	10
651.931	1	15
652.101	1	0
652.270	1	5
652.440	1	6
652.609	1	13
652.778	1	6
652.948	1	17
653.117	1	21
653.287	1	11
653.456	1	-2
653.626	1	17
653.795	1	7
653.965	1	13
654.134	1	0
654.304	1	9
654.473	1	15
654.643	1	3
654.812	1	7
654.982	1	14
655.151	1	7
655.320	1	10
655.490	1	10
655.659	1	6
655.829	1	10
655.998	1	14
656.168	1	7
656.337	1	18
656.507	1	5
656.676	1	11
656.846	1	18
657.015	1	9
657.184	1	15
657.354	1	9
657.523	1	14
657.693	1	7
657.862	1	14
658.032	1	17
658.201	1	9
658.371	1	6
658.540	1	6
658.709	1	4
658.879	1	8
659.048	1	21
659.218	1	9
659.387	1	6
659.557	1	3
659.726	1	12
659.895	1	3
660.065	1	14
660.234	1	7
660.404	1	20
660.573	1	11
660.743	1	-2
660.912	1	18
661.081	1	15
661.251	1	7
661.420	1	9
661.590	1	12
661.759	1	5
661.929	1	9
662.098	1	21
662.267	1	17
662.437	1	13
662.606	1	8
662.776	1	8
662.945	1	9
663.115	1	9
663.284	1	6
663.453	1	11
663.623	1	10
663.792	1	6
663.962	1	16
664.131	1	15
664.300	1	4
664.470	1	5
664.639	1	20
664.809	1	6
664.978	1	2
665.148	1	14
665.317	1	28
665.486	1	11
665.656	1	12
665.825	1	10
665.995	1	3
666.164	1	12
666.333	1	8
666.503	1	13
666.672	1	14
666.842	1	6
667.011	1	14
667.180	1	8
667.350	1	20
667.519	1	2
667.689	1	7
667.858	1	7
668.027	1	8
668.197	1	12
668.366	1	22
668.536	1	6
668.705	1	16
668.874	1	8
669.044	1	7
669.213	1	6
669.382	1	14
669.552	1	7
669.721	1	5
669.891	1	14
670.060	1	14
670.229	1	15
670.399	1	13
670.568	1	-3
670.738	1	19
670.907	1	15
671.076	1	13
671.246	1	14
671.415	1	7
671.584	1	12
671.754	1	17
671.923	1	10
672.093	1	17
672.262	1	8
672.431	1	12
672.601	1	6
672.770	1	2
672.939	1	7
673.109	1	10
673.278	1	15
673.448	1	15
673.617	1	8
673.786	1	12
