325.333	1	25
325.504	1	8
325.675	1	14
325.846	1	-2
326.017	1	9
326.188	1	16
326.359	1	2
326.531	1	8
326.702	1	23
326.873	1	7
327.044	1	16
327.215	1	6
327.386	1	2
327.557	1	0
327.728	1	5
327.899	1	5
328.070	1	11
328.241	1	5
328.412	1	-4
328.583	1	19
328.754	1	7
328.926	1	11
329.097	1	1
329.268	1	20
329.439	1	10
329.610	1	10
329.781	1	6
329.952	1	6
330.123	1	6
330.294	1	14
330.465	1	17
330.636	1	12
330.807	1	12
330.978	1	8
331.149	1	8
331.320	1	19
331.492	1	17
331.663	1	9
331.834	1	7
332.005	1	10
332.176	1	12
332.347	1	14
332.518	1	4
332.689	1	15
332.860	1	10
333.031	1	7
333.202	1	11
333.373	1	11
333.544	1	12
333.715	1	8
333.886	1	14
334.057	1	23
334.228	1	9
334.399	1	2
334.570	1	9
334.741	1	1
334.912	1	11
335.084	1	13
335.255	1	4
335.426	1	17
335.597	1	14
335.768	1	7
335.939	1	8
336.110	1	10
336.281	1	4
336.452	1	18
336.623	1	8
336.794	1	16
336.965	1	14
337.136	1	9
337.307	1	10
337.478	1	9
337.649	1	22
337.820	1	5
337.991	1	25
338.162	1	6
338.333	1	13
338.504	1	6
338.675	1	19
338.846	1	7
339.017	1	6
339.188	1	17
339.359	1	9
339.530	1	12
339.701	1	18
339.872	1	8
340.043	1	19
340.214	1	10
340.385	1	3
340.556	1	4
340.727	1	21
340.898	1	17
341.069	1	9
341.240	1	21
341.411	1	17
341.582	1	11
341.753	1	13
341.924	1	12
342.095	1	14
342.266	1	6
342.437	1	11
342.608	1	11
342.779	1	12
342.950	1	14
343.121	1	21
343.292	1	9
343.463	1	13
343.634	1	7
343.805	1	5
343.976	1	12
344.147	1	4
344.318	1	15
344.489	1	12
344.660	1	29
344.831	1	11
345.002	1	13
345.173	1	8
345.344	1	7
345.515	1	10
345.686	1	13
345.857	1	19
346.028	1	9
346.199	1	3
346.370	1	19
346.541	1	22
346.712	1	3
346.883	1	10
347.054	1	10
347.225	1	16
347.396	1	2
347.567	1	17
347.738	1	10
347.909	1	6
348.080	1	14
348.251	1	27
348.422	1	12
348.593	1	7
348.764	1	10
348.935	1	7
349.106	1	10
349.277	1	10
349.448	1	12
349.619	1	11
349.790	1	23
349.961	1	18
350.132	1	9
350.303	1	14
350.474	1	15
350.645	1	14
350.816	1	12
350.987	1	1
351.157	1	4
351.328	1	11
351.499	1	28
351.670	1	12
351.841	1	15
352.012	1	20
352.183	1	14
352.354	1	21
352.525	1	8
352.696	1	23
352.867	1	6
353.038	1	11
353.209	1	24
353.380	1	21
353.551	1	9
353.722	1	6
353.893	1	13
354.064	1	15
354.235	1	13
354.406	1	15
354.576	1	1
354.747	1	13
354.918	1	21
355.089	1	16
355.260	1	14
355.431	1	7
355.602	1	4
355.773	1	11
355.944	1	13
356.115	1	4
356.286	1	10
356.457	1	10
356.628	1	6
356.799	1	3
356.970	1	6
357.141	1	26
357.311	1	4
357.482	1	10
357.653	1	2
357.824	1	11
357.995	1	11
358.166	1	16
358.337	1	19
358.508	1	18
358.679	1	5
358.850	1	16
359.021	1	6
359.192	1	3
359.363	1	10
359.533	1	4
359.704	1	12
359.875	1	4
360.046	1	11
360.217	1	12
360.388	1	9
360.559	1	12
360.730	1	10
360.901	1	18
361.072	1	14
361.243	1	20
361.414	1	13
361.584	1	15
361.755	1	12
361.926	1	13
362.097	1	9
362.268	1	23
362.439	1	13
362.610	1	15
362.781	1	8
362.952	1	6
363.123	1	10
363.293	1	18
363.464	1	15
363.635	1	17
363.806	1	13
363.977	1	15
364.148	1	8
364.319	1	14
364.490	1	10
364.661	1	-3
364.832	1	20
365.002	1	3
365.173	1	8
365.344	1	-6
365.515	1	8
365.686	1	15
365.857	1	5
366.028	1	18
366.199	1	8
366.370	1	9
366.540	1	11
366.711	1	7
366.882	1	18
367.053	1	10
367.224	1	-1
367.395	1	5
367.566	1	18
367.737	1	21
367.908	1	13
368.078	1	8
368.249	1	17
368.420	1	15
368.591	1	23
368.762	1	19
368.933	1	22
369.104	1	10
369.274	1	8
369.445	1	11
369.616	1	22
369.787	1	13
369.958	1	31
370.129	1	18
370.300	1	13
370.471	1	18
370.641	1	10
370.812	1	6
370.983	1	13
371.154	1	22
371.325	1	31
371.496	1	7
371.667	1	13
371.837	1	21
372.008	1	18
372.179	1	11
372.350	1	8
372.521	1	5
372.692	1	8
372.863	1	14
373.033	1	20
373.204	1	22
373.375	1	12
373.546	1	12
373.717	1	9
373.888	1	14
374.059	1	17
374.229	1	17
374.400	1	9
374.571	1	1
374.742	1	19
374.913	1	5
375.084	1	13
375.254	1	21
375.425	1	18
375.596	1	20
375.767	1	9
375.938	1	17
376.109	1	7
376.279	1	13
376.450	1	7
376.621	1	9
376.792	1	11
376.963	1	20
377.134	1	9
377.304	1	3
377.475	1	17
377.646	1	20
377.817	1	21
377.988	1	17
378.159	1	19
378.329	1	12
378.500	1	7
378.671	1	12
378.842	1	21
379.013	1	20
379.184	1	10
379.354	1	15
379.525	1	21
379.696	1	8
379.867	1	21
380.038	1	30
380.209	1	15
380.379	1	15
380.550	1	16
380.721	1	20
380.892	1	14
381.063	1	20
381.233	1	25
381.404	1	25
381.575	1	22
381.746	1	7
381.917	1	28
382.087	1	17
382.258	1	19
382.429	1	33
382.600	1	18
382.771	1	19
382.941	1	17
383.112	1	10
383.283	1	12
383.454	1	21
383.625	1	25
383.795	1	17
383.966	1	27
384.137	1	13
384.308	1	19
384.479	1	21
384.649	1	27
384.820	1	14
384.991	1	32
385.162	1	26
385.333	1	5
385.503	1	8
385.674	1	20
385.845	1	8
386.016	1	28
386.187	1	19
386.357	1	15
386.528	1	16
386.699	1	13
386.870	1	15
387.041	1	15
387.211	1	30
387.382	1	30
387.553	1	17
387.724	1	12
387.894	1	16
388.065	1	31
388.236	1	26
388.407	1	18
388.578	1	28
388.748	1	24
388.919	1	12
389.090	1	18
389.261	1	7
389.431	1	23
389.602	1	17
389.773	1	20
389.944	1	29
390.114	1	18
390.285	1	24
390.456	1	34
390.627	1	29
390.798	1	21
390.968	1	37
391.139	1	12
391.310	1	26
391.481	1	25
391.651	1	14
391.822	1	23
391.993	1	19
392.164	1	17
392.334	1	20
392.505	1	31
392.676	1	22
392.847	1	23
393.017	1	22
393.188	1	25
393.359	1	19
393.530	1	19
393.700	1	25
393.871	1	20
394.042	1	25
394.213	1	27
394.383	1	15
394.554	1	23
394.725	1	33
394.896	1	22
395.066	1	32
395.237	1	16
395.408	1	24
395.579	1	34
395.749	1	20
395.920	1	11
396.091	1	39
396.262	1	12
396.432	1	13
396.603	1	25
396.774	1	26
396.945	1	17
397.115	1	34
397.286	1	24
397.457	1	29
397.627	1	30
397.798	1	25
397.969	1	20
398.140	1	26
398.310	1	28
398.481	1	18
398.652	1	33
398.823	1	14
398.993	1	26
399.164	1	29
399.335	1	33
399.505	1	31
399.676	1	27
399.847	1	26
400.018	1	43
400.188	1	27
400.359	1	21
400.530	1	40
400.700	1	34
400.871	1	28
401.042	1	26
401.213	1	32
401.383	1	27
401.554	1	42
401.725	1	22
401.895	1	17
402.066	1	23
402.237	1	41
402.408	1	27
402.578	1	37
402.749	1	38
402.920	1	17
403.090	1	19
403.261	1	17
403.432	1	18
403.603	1	31
403.773	1	32
403.944	1	30
404.115	1	31
404.285	1	18
404.456	1	20
404.627	1	30
404.797	1	25
404.968	1	23
405.139	1	28
405.310	1	32
405.480	1	28
405.651	1	33
405.822	1	14
405.992	1	38
406.163	1	32
406.334	1	32
406.504	1	27
406.675	1	29
406.846	1	29
407.016	1	39
407.187	1	27
407.358	1	27
407.528	1	21
407.699	1	19
407.870	1	29
408.041	1	32
408.211	1	27
408.382	1	27
408.553	1	38
408.723	1	43
408.894	1	25
409.065	1	33
409.235	1	27
409.406	1	44
409.577	1	34
409.747	1	28
409.918	1	44
410.089	1	37
410.259	1	44
410.430	1	21
410.601	1	45
410.771	1	33
410.942	1	29
411.113	1	44
411.283	1	35
411.454	1	40
411.625	1	31
411.795	1	46
411.966	1	36
412.137	1	46
412.307	1	25
412.478	1	34
412.649	1	32
412.819	1	28
412.990	1	38
413.161	1	33
413.331	1	44
413.502	1	39
413.672	1	18
413.843	1	54
414.014	1	24
414.184	1	44
414.355	1	39
414.526	1	38
414.696	1	33
414.867	1	39
415.038	1	38
415.208	1	26
415.379	1	27
415.550	1	34
415.720	1	33
415.891	1	35
416.062	1	28
416.232	1	45
416.403	1	24
416.573	1	37
416.744	1	34
416.915	1	25
417.085	1	44
417.256	1	28
417.427	1	35
417.597	1	38
417.768	1	33
417.939	1	21
418.109	1	40
418.280	1	47
418.450	1	28
418.621	1	40
418.792	1	28
418.962	1	37
419.133	1	42
419.304	1	36
419.474	1	31
419.645	1	32
419.815	1	36
419.986	1	42
420.157	1	40
420.327	1	39
420.498	1	25
420.669	1	36
420.839	1	30
421.010	1	25
421.180	1	35
421.351	1	30
421.522	1	25
421.692	1	36
421.863	1	39
422.033	1	46
422.204	1	30
422.375	1	46
422.545	1	43
422.716	1	31
422.886	1	38
423.057	1	29
423.228	1	38
423.398	1	39
423.569	1	43
423.740	1	43
423.910	1	39
424.081	1	33
424.251	1	36
424.422	1	32
424.593	1	29
424.763	1	44
424.934	1	34
425.104	1	45
425.275	1	29
425.445	1	29
425.616	1	34
425.787	1	49
425.957	1	52
426.128	1	35
426.298	1	30
426.469	1	44
426.640	1	28
426.810	1	41
426.981	1	36
427.151	1	35
427.322	1	33
427.493	1	41
427.663	1	39
427.834	1	24
428.004	1	33
428.175	1	32
428.345	1	38
428.516	1	36
428.687	1	30
428.857	1	20
429.028	1	31
429.198	1	26
429.369	1	44
429.540	1	34
429.710	1	32
429.881	1	33
430.051	1	40
430.222	1	36
430.392	1	33
430.563	1	48
430.734	1	36
430.904	1	41
431.075	1	40
431.245	1	27
431.416	1	22
431.586	1	34
431.757	1	38
431.927	1	44
432.098	1	23
432.269	1	47
432.439	1	37
432.610	1	45
432.780	1	30
432.951	1	37
433.121	1	26
433.292	1	34
433.462	1	41
433.633	1	30
433.804	1	39
433.974	1	34
434.145	1	37
434.315	1	42
434.486	1	33
434.656	1	43
434.827	1	34
434.997	1	39
435.168	1	34
435.339	1	31
435.509	1	38
435.680	1	33
435.850	1	40
436.021	1	42
436.191	1	45
436.362	1	32
436.532	1	30
436.703	1	41
436.873	1	29
437.044	1	34
437.214	1	35
437.385	1	38
437.556	1	30
437.726	1	27
437.897	1	24
438.067	1	37
438.238	1	42
438.408	1	42
438.579	1	29
438.749	1	33
438.920	1	28
439.090	1	34
439.261	1	32
439.431	1	38
439.602	1	41
439.772	1	29
439.943	1	34
440.113	1	31
440.284	1	32
440.455	1	29
440.625	1	31
440.796	1	36
440.966	1	36
441.137	1	23
441.307	1	41
441.478	1	30
441.648	1	33
441.819	1	30
441.989	1	27
442.160	1	30
442.330	1	43
442.501	1	23
442.671	1	38
442.842	1	30
443.012	1	37
443.183	1	38
443.353	1	28
443.524	1	29
443.694	1	33
443.865	1	24
444.035	1	35
444.206	1	27
444.376	1	40
444.547	1	22
444.717	1	27
444.888	1	33
445.058	1	34
445.229	1	26
445.399	1	27
445.570	1	28
445.740	1	28
445.911	1	21
446.081	1	27
446.252	1	29
446.422	1	25
446.593	1	21
446.763	1	30
446.934	1	25
447.104	1	28
447.275	1	32
447.445	1	37
447.616	1	42
447.786	1	34
447.957	1	36
448.127	1	24
448.298	1	28
448.468	1	23
448.639	1	40
448.809	1	41
448.979	1	18
449.150	1	35
449.320	1	39
449.491	1	35
449.661	1	19
449.832	1	20
450.002	1	37
450.173	1	25
450.343	1	14
450.514	1	34
450.684	1	47
450.855	1	27
451.025	1	30
451.196	1	38
451.366	1	20
451.537	1	33
451.707	1	27
451.878	1	24
452.048	1	27
452.218	1	30
452.389	1	34
452.559	1	45
452.730	1	30
452.900	1	23
453.071	1	29
453.241	1	43
453.412	1	29
453.582	1	23
453.753	1	34
453.923	1	32
454.093	1	11
454.264	1	35
454.434	1	30
454.605	1	8
454.775	1	23
454.946	1	29
455.116	1	15
455.287	1	27
455.457	1	19
455.628	1	13
455.798	1	9
455.968	1	21
456.139	1	23
456.309	1	32
456.480	1	18
456.650	1	26
456.821	1	22
456.991	1	21
457.161	1	22
457.332	1	20
457.502	1	32
457.673	1	24
457.843	1	15
458.014	1	21
458.184	1	29
458.355	1	24
458.525	1	27
458.695	1	22
458.866	1	16
459.036	1	14
459.207	1	26
459.377	1	12
459.548	1	17
459.718	1	23
459.888	1	19
460.059	1	26
460.229	1	32
460.400	1	44
460.570	1	20
460.740	1	21
460.911	1	41
461.081	1	16
461.252	1	31
461.422	1	9
461.593	1	31
461.763	1	36
461.933	1	16
462.104	1	25
462.274	1	21
462.445	1	24
462.615	1	30
462.785	1	18
462.956	1	12
463.126	1	14
463.297	1	25
463.467	1	16
463.638	1	19
463.808	1	27
463.978	1	21
464.149	1	28
464.319	1	27
464.490	1	11
464.660	1	12
464.830	1	28
465.001	1	31
465.171	1	12
465.342	1	29
465.512	1	24
465.682	1	21
465.853	1	21
466.023	1	31
466.194	1	11
466.364	1	28
466.534	1	25
466.705	1	24
466.875	1	21
467.045	1	24
467.216	1	17
467.386	1	18
467.557	1	15
467.727	1	14
467.897	1	27
468.068	1	17
468.238	1	17
468.409	1	14
468.579	1	15
468.749	1	35
468.920	1	31
469.090	1	8
469.260	1	25
469.431	1	19
469.601	1	18
469.772	1	13
469.942	1	7
470.112	1	16
470.283	1	15
470.453	1	21
470.623	1	17
470.794	1	2
470.964	1	17
471.135	1	14
471.305	1	13
471.475	1	16
471.646	1	18
471.816	1	20
471.986	1	21
472.157	1	18
472.327	1	17
472.497	1	11
472.668	1	18
472.838	1	14
473.009	1	20
473.179	1	29
473.349	1	20
473.520	1	22
473.690	1	20
473.860	1	20
474.031	1	28
474.201	1	16
474.371	1	27
474.542	1	20
474.712	1	9
474.882	1	12
475.053	1	9
475.223	1	26
475.394	1	5
475.564	1	21
475.734	1	14
475.905	1	14
476.075	1	6
476.245	1	5
476.416	1	25
476.586	1	22
476.756	1	14
476.927	1	8
477.097	1	13
477.267	1	14
477.438	1	14
477.608	1	10
477.778	1	19
477.949	1	7
478.119	1	10
478.289	1	15
478.460	1	10
478.630	1	14
478.800	1	13
478.971	1	12
479.141	1	21
479.311	1	15
479.482	1	20
479.652	1	21
479.822	1	21
479.993	1	13
480.163	1	16
480.333	1	17
480.504	1	11
480.674	1	3
480.844	1	13
481.015	1	24
481.185	1	14
481.355	1	21
481.525	1	18
481.696	1	19
481.866	1	21
482.036	1	16
482.207	1	20
482.377	1	4
482.547	1	25
482.718	1	18
482.888	1	20
483.058	1	15
483.229	1	23
483.399	1	9
483.569	1	15
483.740	1	5
483.910	1	10
484.080	1	24
484.250	1	15
484.421	1	12
484.591	1	14
484.761	1	14
484.932	1	5
485.102	1	14
485.272	1	11
485.443	1	25
485.613	1	12
485.783	1	6
485.953	1	13
486.124	1	20
486.294	1	13
486.464	1	15
486.635	1	8
486.805	1	17
486.975	1	14
487.146	1	10
487.316	1	12
487.486	1	20
487.656	1	16
487.827	1	18
487.997	1	3
488.167	1	15
488.338	1	16
488.508	1	24
488.678	1	18
488.848	1	20
489.019	1	16
489.189	1	12
489.359	1	15
489.529	1	18
489.700	1	4
489.870	1	16
490.040	1	19
490.211	1	33
490.381	1	12
490.551	1	7
490.721	1	9
490.892	1	-8
491.062	1	22
491.232	1	22
491.402	1	16
491.573	1	14
491.743	1	17
491.913	1	17
492.084	1	8
492.254	1	12
492.424	1	18
492.594	1	8
492.765	1	7
492.935	1	10
493.105	1	22
493.275	1	19
493.446	1	4
493.616	1	22
493.786	1	6
493.956	1	25
494.127	1	19
494.297	1	12
494.467	1	12
494.637	1	21
494.808	1	22
494.978	1	10
495.148	1	5
495.318	1	20
495.489	1	0
495.659	1	6
495.829	1	12
495.999	1	5
496.170	1	13
496.340	1	12
496.510	1	7
496.680	1	23
496.851	1	8
497.021	1	24
497.191	1	6
497.361	1	11
497.532	1	8
497.702	1	11
497.872	1	9
498.042	1	16
498.213	1	17
498.383	1	22
498.553	1	18
498.723	1	1
498.894	1	15
499.064	1	10
499.234	1	16
499.404	1	6
499.574	1	4
499.745	1	21
499.915	1	23
500.085	1	11
500.255	1	6
500.426	1	8
500.596	1	17
500.766	1	20
500.936	1	11
501.106	1	2
501.277	1	10
501.447	1	10
501.617	1	13
501.787	1	13
501.958	1	5
502.128	1	7
502.298	1	9
502.468	1	12
502.638	1	6
502.809	1	2
502.979	1	11
503.149	1	13
503.319	1	7
503.489	1	19
503.660	1	3
503.830	1	4
504.000	1	11
504.170	1	15
504.340	1	23
504.511	1	5
504.681	1	18
504.851	1	9
505.021	1	16
505.192	1	5
505.362	1	16
505.532	1	-4
505.702	1	13
505.872	1	13
506.043	1	14
506.213	1	10
506.383	1	11
506.553	1	11
506.723	1	7
506.893	1	5
507.064	1	11
507.234	1	15
507.404	1	11
507.574	1	2
507.744	1	15
507.915	1	21
508.085	1	27
508.255	1	7
508.425	1	7
508.595	1	6
508.766	1	6
508.936	1	10
509.106	1	3
509.276	1	16
509.446	1	2
509.616	1	13
509.787	1	3
509.957	1	12
510.127	1	10
510.297	1	11
510.467	1	12
510.638	1	6
510.808	1	11
510.978	1	8
511.148	1	14
511.318	1	5
511.488	1	21
511.659	1	11
511.829	1	2
511.999	1	19
512.169	1	11
512.339	1	14
512.509	1	7
512.680	1	8
512.850	1	1
513.020	1	12
513.190	1	8
513.360	1	15
513.530	1	9
513.700	1	6
513.871	1	16
514.041	1	13
514.211	1	10
514.381	1	16
514.551	1	6
514.721	1	12
514.892	1	3
515.062	1	8
515.232	1	2
515.402	1	8
515.572	1	16
515.742	1	2
515.912	1	11
516.083	1	8
516.253	1	7
516.423	1	3
516.593	1	4
516.763	1	4
516.933	1	0
517.104	1	-2
517.274	1	13
517.444	1	0
517.614	1	9
517.784	1	8
517.954	1	17
518.124	1	12
518.294	1	10
518.465	1	-2
518.635	1	13
518.805	1	10
518.975	1	6
519.145	1	14
519.315	1	13
519.485	1	14
519.656	1	11
519.826	1	4
519.996	1	17
520.166	1	9
520.336	1	2
520.506	1	12
520.676	1	10
520.846	1	14
521.017	1	14
521.187	1	7
521.357	1	6
521.527	1	0
521.697	1	9
521.867	1	-10
522.037	1	14
522.207	1	8
522.377	1	11
522.548	1	2
522.718	1	10
522.888	1	14
523.058	1	9
523.228	1	4
523.398	1	9
523.568	1	-5
523.738	1	5
523.909	1	11
524.079	1	16
524.249	1	7
524.419	1	4
524.589	1	13
524.759	1	12
524.929	1	-3
525.099	1	6
525.269	1	-3
525.439	1	6
525.610	1	7
525.780	1	7
525.950	1	13
526.120	1	10
526.290	1	16
526.460	1	9
526.630	1	1
526.800	1	-3
526.970	1	6
527.140	1	5
527.311	1	18
527.481	1	17
527.651	1	15
527.821	1	2
527.991	1	7
528.161	1	6
528.331	1	1
528.501	1	-6
528.671	1	2
528.841	1	11
529.011	1	8
529.181	1	9
529.352	1	0
529.522	1	8
529.692	1	11
529.862	1	10
530.032	1	13
530.202	1	0
530.372	1	5
530.542	1	0
530.712	1	6
530.882	1	-8
531.052	1	8
531.222	1	3
531.392	1	0
531.563	1	-3
531.733	1	14
531.903	1	-3
532.073	1	2
532.243	1	14
532.413	1	7
532.583	1	4
532.753	1	11
532.923	1	11
533.093	1	7
533.263	1	9
533.433	1	2
533.603	1	16
533.773	1	12
533.943	1	14
534.113	1	16
534.284	1	-1
534.454	1	2
534.624	1	12
534.794	1	5
534.964	1	6
535.134	1	6
535.304	1	13
535.474	1	17
535.644	1	-2
535.814	1	3
535.984	1	10
536.154	1	1
536.324	1	1
536.494	1	0
536.664	1	14
536.834	1	-2
537.004	1	12
537.174	1	6
537.344	1	22
537.514	1	5
537.685	1	8
537.855	1	5
538.025	1	2
538.195	1	4
538.365	1	9
538.535	1	8
538.705	1	6
538.875	1	2
539.045	1	-4
539.215	1	17
539.385	1	13
539.555	1	3
539.725	1	-1
539.895	1	16
540.065	1	-1
540.235	1	5
540.405	1	4
540.575	1	7
540.745	1	4
540.915	1	5
541.085	1	4
541.255	1	5
541.425	1	6
541.595	1	-3
541.765	1	2
541.935	1	12
542.105	1	13
542.275	1	1
542.445	1	8
542.615	1	7
542.785	1	0
542.955	1	7
543.125	1	5
543.295	1	8
543.465	1	11
543.635	1	7
543.805	1	-3
543.975	1	3
544.145	1	-7
544.315	1	12
544.485	1	9
544.655	1	11
544.825	1	4
544.995	1	3
545.165	1	3
545.335	1	5
545.505	1	4
545.675	1	9
545.845	1	10
546.015	1	6
546.185	1	14
546.355	1	1
546.525	1	3
546.695	1	10
546.865	1	12
547.035	1	8
547.205	1	4
547.375	1	20
547.545	1	12
547.715	1	-2
547.885	1	11
548.055	1	18
548.225	1	6
548.395	1	6
548.565	1	15
548.735	1	-3
548.905	1	19
549.075	1	4
549.245	1	9
549.415	1	2
549.585	1	2
549.755	1	1
549.925	1	13
550.095	1	2
550.265	1	9
550.435	1	8
550.605	1	4
550.775	1	3
550.945	1	9
551.115	1	9
551.285	1	9
551.455	1	13
551.625	1	12
551.795	1	23
551.965	1	5
552.135	1	0
552.305	1	9
552.475	1	8
552.645	1	2
552.815	1	6
552.985	1	-14
553.155	1	11
553.325	1	-7
553.495	1	10
553.665	1	14
553.835	1	18
554.004	1	12
554.174	1	-6
554.344	1	14
554.514	1	12
554.684	1	-4
554.854	1	6
555.024	1	-3
555.194	1	-3
555.364	1	0
555.534	1	7
555.704	1	12
555.874	1	15
556.044	1	8
556.214	1	7
556.384	1	-5
556.554	1	9
556.724	1	6
556.894	1	6
557.064	1	-1
557.234	1	9
557.404	1	-3
557.573	1	17
557.743	1	-7
557.913	1	11
558.083	1	6
558.253	1	9
558.423	1	12
558.593	1	12
558.763	1	5
558.933	1	8
559.103	1	-1
559.273	1	13
559.443	1	-11
559.613	1	-9
559.783	1	6
559.953	1	-1
560.122	1	-4
560.292	1	3
560.462	1	-5
560.632	1	9
560.802	1	0
560.972	1	5
561.142	1	-1
561.312	1	6
561.482	1	7
561.652	1	1
561.822	1	5
561.992	1	5
562.162	1	6
562.331	1	12
562.501	1	-2
562.671	1	2
562.841	1	3
563.011	1	0
563.181	1	1
563.351	1	6
563.521	1	16
563.691	1	7
563.861	1	7
564.031	1	5
564.201	1	19
564.370	1	-4
564.540	1	7
564.710	1	8
564.880	1	13
565.050	1	10
565.220	1	-4
565.390	1	13
565.560	1	8
565.730	1	-1
565.900	1	6
566.069	1	11
566.239	1	6
566.409	1	3
566.579	1	1
566.749	1	6
566.919	1	0
567.089	1	-2
567.259	1	16
567.429	1	6
567.599	1	12
567.768	1	5
567.938	1	9
568.108	1	0
568.278	1	6
568.448	1	-3
568.618	1	8
568.788	1	-1
568.958	1	1
569.128	1	1
569.297	1	6
569.467	1	5
569.637	1	16
569.807	1	7
569.977	1	11
570.147	1	9
570.317	1	1
570.487	1	0
570.656	1	10
570.826	1	12
570.996	1	11
571.166	1	19
571.336	1	9
571.506	1	2
571.676	1	5
571.846	1	8
572.015	1	3
572.185	1	4
572.355	1	10
572.525	1	2
572.695	1	10
572.865	1	8
573.035	1	16
573.205	1	-1
573.374	1	16
573.544	1	11
573.714	1	6
573.884	1	-1
574.054	1	-2
574.224	1	5
574.394	1	2
574.563	1	9
574.733	1	8
574.903	1	8
575.073	1	1
575.243	1	11
575.413	1	6
575.583	1	10
575.752	1	2
575.922	1	8
576.092	1	13
576.262	1	3
576.432	1	9
576.602	1	0
576.772	1	9
576.941	1	5
577.111	1	16
577.281	1	2
577.451	1	3
577.621	1	2
577.791	1	3
577.960	1	3
578.130	1	-2
578.300	1	-3
578.470	1	1
578.640	1	-5
578.810	1	6
578.979	1	9
579.149	1	-1
579.319	1	0
579.489	1	20
579.659	1	16
579.829	1	17
579.998	1	-3
580.168	1	8
580.338	1	3
580.508	1	13
580.678	1	5
580.848	1	0
581.017	1	2
581.187	1	-1
581.357	1	6
581.527	1	3
581.697	1	2
581.867	1	5
582.036	1	8
582.206	1	-1
582.376	1	1
582.546	1	2
582.716	1	-1
582.885	1	6
583.055	1	-1
583.225	1	19
583.395	1	6
583.565	1	-3
583.735	1	-1
583.904	1	10
584.074	1	9
584.244	1	10
584.414	1	4
584.584	1	6
584.753	1	6
584.923	1	9
585.093	1	4
585.263	1	7
585.433	1	-1
585.602	1	7
585.772	1	9
585.942	1	9
586.112	1	3
586.282	1	9
586.451	1	3
586.621	1	2
586.791	1	11
586.961	1	0
587.131	1	8
587.300	1	1
587.470	1	10
587.640	1	5
587.810	1	19
587.980	1	3
588.149	1	4
588.319	1	-1
588.489	1	-7
588.659	1	17
588.829	1	8
588.998	1	6
589.168	1	11
589.338	1	4
589.508	1	4
589.677	1	-10
589.847	1	22
590.017	1	4
590.187	1	1
590.357	1	0
590.526	1	1
590.696	1	0
590.866	1	20
591.036	1	14
591.205	1	5
591.375	1	-6
591.545	1	13
591.715	1	0
591.885	1	3
592.054	1	1
592.224	1	18
592.394	1	-2
592.564	1	9
592.733	1	13
592.903	1	16
593.073	1	8
593.243	1	10
593.412	1	12
593.582	1	-1
593.752	1	4
593.922	1	5
594.091	1	7
594.261	1	13
594.431	1	10
594.601	1	6
594.771	1	2
594.940	1	-1
595.110	1	-3
595.280	1	3
595.450	1	13
595.619	1	-9
595.789	1	-2
595.959	1	12
596.129	1	14
596.298	1	7
596.468	1	3
596.638	1	2
596.808	1	0
596.977	1	8
597.147	1	-1
597.317	1	-5
597.487	1	1
597.656	1	-7
597.826	1	7
597.996	1	4
598.166	1	-2
598.335	1	2
598.505	1	3
598.675	1	8
598.844	1	2
599.014	1	-4
599.184	1	10
599.354	1	-2
599.523	1	1
599.693	1	4
599.863	1	13
600.033	1	3
600.202	1	8
600.372	1	3
600.542	1	4
600.712	1	3
600.881	1	0
601.051	1	2
601.221	1	12
601.390	1	-1
601.560	1	2
601.730	1	11
601.900	1	4
602.069	1	9
602.239	1	21
602.409	1	-1
602.578	1	0
602.748	1	12
602.918	1	5
603.088	1	5
603.257	1	7
603.427	1	-1
603.597	1	10
603.767	1	0
603.936	1	1
604.106	1	-2
604.276	1	8
604.445	1	6
604.615	1	1
604.785	1	7
604.954	1	5
605.124	1	11
605.294	1	6
605.464	1	14
605.633	1	7
605.803	1	7
605.973	1	8
606.142	1	6
606.312	1	5
606.482	1	8
606.652	1	6
606.821	1	2
606.991	1	10
607.161	1	20
607.330	1	0
607.500	1	0
607.670	1	-6
607.839	1	3
608.009	1	3
608.179	1	5
608.348	1	15
608.518	1	9
608.688	1	15
608.858	1	8
609.027	1	14
609.197	1	-20
609.367	1	0
609.536	1	4
609.706	1	9
609.876	1	11
610.045	1	1
610.215	1	12
610.385	1	4
610.554	1	14
610.724	1	2
610.894	1	13
611.063	1	4
611.233	1	5
611.403	1	11
611.572	1	-1
611.742	1	5
611.912	1	2
612.081	1	7
612.251	1	5
612.421	1	7
612.590	1	7
612.760	1	13
612.930	1	-9
613.099	1	13
613.269	1	1
613.439	1	20
613.608	1	6
613.778	1	1
613.948	1	9
614.117	1	6
614.287	1	11
614.457	1	2
614.626	1	4
614.796	1	17
614.966	1	13
615.135	1	17
615.305	1	6
615.475	1	6
615.644	1	-4
615.814	1	2
615.984	1	6
616.153	1	7
616.323	1	12
616.493	1	7
616.662	1	9
616.832	1	6
617.002	1	0
617.171	1	2
617.341	1	10
617.511	1	-5
617.680	1	24
617.850	1	3
618.019	1	5
618.189	1	1
618.359	1	4
618.528	1	9
618.698	1	-6
618.868	1	-1
619.037	1	9
619.207	1	9
619.377	1	-4
619.546	1	1
619.716	1	7
619.885	1	9
620.055	1	1
620.225	1	13
620.394	1	9
620.564	1	-2
620.734	1	1
620.903	1	10
621.073	1	8
621.242	1	7
621.412	1	13
621.582	1	18
621.751	1	1
621.921	1	10
622.091	1	4
622.260	1	10
622.430	1	5
622.599	1	12
622.769	1	-2
622.939	1	11
623.108	1	11
623.278	1	14
623.448	1	12
623.617	1	8
623.787	1	13
623.956	1	4
624.126	1	0
624.296	1	1
624.465	1	5
624.635	1	20
624.804	1	0
624.974	1	16
625.144	1	5
625.313	1	9
625.483	1	15
625.652	1	-1
625.822	1	11
625.992	1	11
626.161	1	4
626.331	1	14
626.501	1	23
626.670	1	-1
626.840	1	9
627.009	1	21
627.179	1	7
627.348	1	6
627.518	1	14
627.688	1	6
627.857	1	6
628.027	1	7
628.196	1	2
628.366	1	5
628.536	1	24
628.705	1	9
628.875	1	17
629.044	1	8
629.214	1	13
629.384	1	7
629.553	1	2
629.723	1	6
629.892	1	18
630.062	1	11
630.232	1	3
630.401	1	18
630.571	1	12
630.740	1	5
630.910	1	9
631.079	1	11
631.249	1	14
631.419	1	5
631.588	1	6
631.758	1	12
631.927	1	-1
632.097	1	5
632.266	1	7
632.436	1	18
632.606	1	10
632.775	1	14
632.945	1	3
633.114	1	12
633.284	1	17
633.453	1	6
633.623	1	1
633.793	1	16
633.962	1	13
634.132	1	11
634.301	1	10
634.471	1	6
634.640	1	11
634.810	1	16
634.979	1	15
635.149	1	9
635.319	1	6
635.488	1	5
635.658	1	11
635.827	1	13
635.997	1	11
636.166	1	15
636.336	1	14
636.505	1	16
636.675	1	0
636.845	1	6
637.014	1	15
637.184	1	7
637.353	1	8
637.523	1	25
637.692	1	14
637.862	1	3
638.031	1	8
638.201	1	10
638.370	1	14
638.540	1	14
638.710	1	6
638.879	1	13
639.049	1	12
639.218	1	13
639.388	1	-2
639.557	1	23
639.727	1	19
639.896	1	19
640.066	1	17
640.235	1	20
640.405	1	11
640.574	1	18
640.744	1	10
640.914	1	12
641.083	1	3
641.253	1	4
641.422	1	-1
641.592	1	10
641.761	1	2
641.931	1	7
642.100	1	8
642.270	1	0
642.439	1	12
642.609	1	14
642.778	1	-2
642.948	1	14
643.117	1	0
643.287	1	1
643.456	1	10
643.626	1	17
643.795	1	3
643.965	1	6
644.134	1	5
644.304	1	13
644.473	1	15
644.643	1	18
644.812	1	1
644.982	1	7
645.151	1	4
645.321	1	3
645.490	1	16
645.660	1	4
645.829	1	15
645.999	1	10
646.168	1	8
646.338	1	3
646.507	1	5
646.677	1	7
646.846	1	5
647.016	1	5
647.185	1	8
647.355	1	11
647.524	1	9
647.694	1	-2
647.863	1	13
648.033	1	14
648.202	1	0
648.372	1	9
648.541	1	0
648.711	1	10
648.880	1	13
649.050	1	6
649.219	1	19
649.389	1	6
649.558	1	5
649.728	1	8
649.897	1	10
650.067	1	2
650.236	1	6
650.406	1	20
650.575	1	6
650.745	1	10
650.914	1	21
651.084	1	5
651.253	1	12
651.423	1	6
651.592	1	16
651.762	1	8
651.931	1	14
652.101	1	-1
652.270	1	8
652.440	1	-1
652.609	1	6
652.778	1	-1
652.948	1	11
653.117	1	11
653.287	1	6
653.456	1	5
653.626	1	11
653.795	1	8
653.965	1	2
654.134	1	-3
654.304	1	15
654.473	1	21
654.643	1	7
654.812	1	5
654.982	1	8
655.151	1	6
655.320	1	15
655.490	1	9
655.659	1	10
655.829	1	4
655.998	1	14
656.168	1	10
656.337	1	8
656.507	1	3
656.676	1	7
656.846	1	11
657.015	1	1
657.184	1	4
657.354	1	3
657.523	1	11
657.693	1	6
657.862	1	7
658.032	1	11
658.201	1	9
658.371	1	14
658.540	1	5
658.709	1	2
658.879	1	9
659.048	1	16
659.218	1	15
659.387	1	7
659.557	1	-1
659.726	1	10
659.895	1	-3
660.065	1	14
660.234	1	6
660.404	1	17
660.573	1	6
660.743	1	8
660.912	1	3
661.081	1	16
661.251	1	18
661.420	1	-3
661.590	1	0
661.759	1	10
661.929	1	5
662.098	1	14
662.267	1	12
662.437	1	1
662.606	1	5
662.776	1	0
662.945	1	11
663.115	1	6
663.284	1	7
663.453	1	8
663.623	1	8
663.792	1	15
663.962	1	-4
664.131	1	7
664.300	1	0
664.470	1	4
664.639	1	14
664.809	1	0
664.978	1	-6
665.148	1	7
665.317	1	16
665.486	1	6
665.656	1	5
665.825	1	4
665.995	1	2
666.164	1	23
666.333	1	7
666.503	1	-1
666.672	1	7
666.842	1	9
667.011	1	8
667.180	1	10
667.350	1	11
667.519	1	-3
667.689	1	14
667.858	1	5
668.027	1	9
668.197	1	4
668.366	1	20
668.536	1	1
668.705	1	8
668.874	1	10
669.044	1	3
669.213	1	11
669.382	1	5
669.552	1	11
669.721	1	5
669.891	1	2
670.060	1	12
670.229	1	4
670.399	1	4
670.568	1	-5
670.738	1	13
670.907	1	13
671.076	1	14
671.246	1	8
671.415	1	-1
671.584	1	11
671.754	1	11
671.923	1	2
672.093	1	6
672.262	1	6
672.431	1	2
672.601	1	9
672.770	1	-5
672.939	1	-5
673.109	1	5
673.278	1	7
673.448	1	16
673.617	1	2
673.786	1	-1
