325.333	1	13
325.504	1	8
325.675	1	6
325.846	1	-1
326.017	1	7
326.188	1	22
326.359	1	11
326.531	1	-2
326.702	1	5
326.873	1	13
327.044	1	-1
327.215	1	-1
327.386	1	15
327.557	1	8
327.728	1	8
327.899	1	11
328.070	1	12
328.241	1	9
328.412	1	-1
328.583	1	8
328.754	1	7
328.926	1	13
329.097	1	0
329.268	1	17
329.439	1	9
329.610	1	12
329.781	1	4
329.952	1	0
330.123	1	5
330.294	1	19
330.465	1	1
330.636	1	7
330.807	1	11
330.978	1	6
331.149	1	8
331.320	1	17
331.492	1	21
331.663	1	4
331.834	1	8
332.005	1	8
332.176	1	6
332.347	1	15
332.518	1	9
332.689	1	12
332.860	1	8
333.031	1	-6
333.202	1	6
333.373	1	15
333.544	1	4
333.715	1	7
333.886	1	13
334.057	1	9
334.228	1	-2
334.399	1	4
334.570	1	9
334.741	1	6
334.912	1	9
335.084	1	14
335.255	1	10
335.426	1	14
335.597	1	14
335.768	1	1
335.939	1	11
336.110	1	9
336.281	1	8
336.452	1	8
336.623	1	11
336.794	1	10
336.965	1	13
337.136	1	3
337.307	1	3
337.478	1	-1
337.649	1	21
337.820	1	-1
337.991	1	11
338.162	1	18
338.333	1	13
338.504	1	-1
338.675	1	13
338.846	1	9
339.017	1	10
339.188	1	7
339.359	1	8
339.530	1	10
339.701	1	8
339.872	1	7
340.043	1	15
340.214	1	1
340.385	1	8
340.556	1	11
340.727	1	11
340.898	1	19
341.069	1	3
341.240	1	2
341.411	1	15
341.582	1	4
341.753	1	16
341.924	1	14
342.095	1	-2
342.266	1	1
342.437	1	-3
342.608	1	9
342.779	1	2
342.950	1	2
343.121	1	6
343.292	1	11
343.463	1	6
343.634	1	7
343.805	1	9
343.976	1	-2
344.147	1	1
344.318	1	17
344.489	1	10
344.660	1	13
344.831	1	8
345.002	1	10
345.173	1	1
345.344	1	14
345.515	1	0
345.686	1	7
345.857	1	7
346.028	1	5
346.199	1	12
346.370	1	14
346.541	1	11
346.712	1	9
346.883	1	9
347.054	1	3
347.225	1	12
347.396	1	9
347.567	1	10
347.738	1	3
347.909	1	12
348.080	1	8
348.251	1	17
348.422	1	-4
348.593	1	-2
348.764	1	14
348.935	1	-1
349.106	1	12
349.277	1	18
349.448	1	14
349.619	1	0
349.790	1	21
349.961	1	10
350.132	1	4
350.303	1	8
350.474	1	13
350.645	1	-1
350.816	1	12
350.987	1	-4
351.157	1	11
351.328	1	4
351.499	1	19
351.670	1	13
351.841	1	19
352.012	1	10
352.183	1	9
352.354	1	10
352.525	1	2
352.696	1	13
352.867	1	13
353.038	1	10
353.209	1	12
353.380	1	12
353.551	1	11
353.722	1	-7
353.893	1	8
354.064	1	16
354.235	1	11
354.406	1	7
354.576	1	-3
354.747	1	5
354.918	1	17
355.089	1	8
355.260	1	8
355.431	1	7
355.602	1	0
355.773	1	0
355.944	1	4
356.115	1	5
356.286	1	7
356.457	1	11
356.628	1	1
356.799	1	4
356.970	1	2
357.141	1	11
357.311	1	-8
357.482	1	5
357.653	1	2
357.824	1	9
357.995	1	8
358.166	1	-3
358.337	1	5
358.508	1	5
358.679	1	6
358.850	1	5
359.021	1	7
359.192	1	1
359.363	1	-4
359.533	1	0
359.704	1	16
359.875	1	5
360.046	1	3
360.217	1	13
360.388	1	6
360.559	1	4
360.730	1	5
360.901	1	15
361.072	1	15
361.243	1	14
361.414	1	5
361.584	1	3
361.755	1	9
361.926	1	2
362.097	1	1
362.268	1	4
362.439	1	7
362.610	1	7
362.781	1	6
362.952	1	-1
363.123	1	7
363.293	1	7
363.464	1	11
363.635	1	5
363.806	1	-1
363.977	1	20
364.148	1	5
364.319	1	4
364.490	1	12
364.661	1	0
364.832	1	1
365.002	1	4
365.173	1	0
365.344	1	-5
365.515	1	11
365.686	1	4
365.857	1	-1
366.028	1	4
366.199	1	1
366.370	1	-1
366.540	1	5
366.711	1	-1
366.882	1	12
367.053	1	-3
367.224	1	2
367.395	1	-3
367.566	1	14
367.737	1	5
367.908	1	2
368.078	1	7
368.249	1	7
368.420	1	1
368.591	1	4
368.762	1	23
368.933	1	17
369.104	1	8
369.274	1	15
369.445	1	6
369.616	1	9
369.787	1	5
369.958	1	-1
370.129	1	14
370.300	1	6
370.471	1	15
370.641	1	8
370.812	1	2
370.983	1	11
371.154	1	2
371.325	1	20
371.496	1	-2
371.667	1	-2
371.837	1	1
372.008	1	2
372.179	1	5
372.350	1	11
372.521	1	-3
372.692	1	1
372.863	1	12
373.033	1	11
373.204	1	8
373.375	1	12
373.546	1	3
373.717	1	5
373.888	1	7
374.059	1	8
374.229	1	9
374.400	1	8
374.571	1	2
374.742	1	12
374.913	1	1
375.084	1	6
375.254	1	8
375.425	1	12
375.596	1	15
375.767	1	4
375.938	1	2
376.109	1	1
376.279	1	-2
376.450	1	6
376.621	1	16
376.792	1	5
376.963	1	12
377.134	1	1
377.304	1	1
377.475	1	5
377.646	1	1
377.817	1	8
377.988	1	4
378.159	1	4
378.329	1	1
378.500	1	0
378.671	1	15
378.842	1	14
379.013	1	15
379.184	1	8
379.354	1	1
379.525	1	3
379.696	1	3
379.867	1	9
380.038	1	17
380.209	1	3
380.379	1	12
380.550	1	7
380.721	1	1
380.892	1	7
381.063	1	1
381.233	1	3
381.404	1	5
381.575	1	7
381.746	1	0
381.917	1	18
382.087	1	10
382.258	1	12
382.429	1	4
382.600	1	2
382.771	1	16
382.941	1	11
383.112	1	4
383.283	1	-3
383.454	1	-5
383.625	1	4
383.795	1	18
383.966	1	18
384.137	1	11
384.308	1	19
384.479	1	7
384.649	1	13
384.820	1	9
384.991	1	11
385.162	1	9
385.333	1	5
385.503	1	8
385.674	1	13
385.845	1	7
386.016	1	23
386.187	1	8
386.357	1	4
386.528	1	9
386.699	1	0
386.870	1	8
387.041	1	2
387.211	1	9
387.382	1	14
387.553	1	11
387.724	1	-11
387.894	1	11
388.065	1	8
388.236	1	12
388.407	1	8
388.578	1	11
388.748	1	10
388.919	1	1
389.090	1	12
389.261	1	-1
389.431	1	19
389.602	1	10
389.773	1	8
389.944	1	13
390.114	1	-3
390.285	1	9
390.456	1	9
390.627	1	21
390.798	1	17
390.968	1	14
391.139	1	5
391.310	1	10
391.481	1	5
391.651	1	20
391.822	1	11
391.993	1	-4
392.164	1	5
392.334	1	16
392.505	1	8
392.676	1	6
392.847	1	16
393.017	1	9
393.188	1	17
393.359	1	8
393.530	1	8
393.700	1	18
393.871	1	13
394.042	1	11
394.213	1	-1
394.383	1	10
394.554	1	10
394.725	1	19
394.896	1	9
395.066	1	13
395.237	1	6
395.408	1	16
395.579	1	19
395.749	1	15
395.920	1	-1
396.091	1	4
396.262	1	3
396.432	1	5
396.603	1	6
396.774	1	14
396.945	1	4
397.115	1	20
397.286	1	15
397.457	1	20
397.627	1	8
397.798	1	20
397.969	1	13
398.140	1	14
398.310	1	18
398.481	1	11
398.652	1	12
398.823	1	16
398.993	1	7
399.164	1	15
399.335	1	10
399.505	1	5
399.676	1	7
399.847	1	8
400.018	1	16
400.188	1	9
400.359	1	5
400.530	1	32
400.700	1	16
400.871	1	15
401.042	1	11
401.213	1	20
401.383	1	23
401.554	1	19
401.725	1	5
401.895	1	12
402.066	1	9
402.237	1	25
402.408	1	10
402.578	1	16
402.749	1	17
402.920	1	2
403.090	1	9
403.261	1	15
403.432	1	12
403.603	1	9
403.773	1	17
403.944	1	11
404.115	1	19
404.285	1	3
404.456	1	21
404.627	1	16
404.797	1	12
404.968	1	11
405.139	1	18
405.310	1	14
405.480	1	7
405.651	1	12
405.822	1	9
405.992	1	29
406.163	1	10
406.334	1	28
406.504	1	17
406.675	1	19
406.846	1	18
407.016	1	23
407.187	1	10
407.358	1	19
407.528	1	9
407.699	1	11
407.870	1	15
408.041	1	13
408.211	1	17
408.382	1	7
408.553	1	26
408.723	1	18
408.894	1	12
409.065	1	16
409.235	1	8
409.406	1	18
409.577	1	20
409.747	1	10
409.918	1	19
410.089	1	19
410.259	1	20
410.430	1	11
410.601	1	21
410.771	1	21
410.942	1	17
411.113	1	21
411.283	1	6
411.454	1	18
411.625	1	19
411.795	1	29
411.966	1	20
412.137	1	34
412.307	1	20
412.478	1	12
412.649	1	30
412.819	1	23
412.990	1	25
413.161	1	26
413.331	1	22
413.502	1	33
413.672	1	9
413.843	1	15
414.014	1	26
414.184	1	25
414.355	1	26
414.526	1	24
414.696	1	18
414.867	1	37
415.038	1	19
415.208	1	8
415.379	1	19
415.550	1	16
415.720	1	22
415.891	1	27
416.062	1	9
416.232	1	23
416.403	1	22
416.573	1	25
416.744	1	17
416.915	1	25
417.085	1	22
417.256	1	8
417.427	1	33
417.597	1	27
417.768	1	11
417.939	1	19
418.109	1	31
418.280	1	17
418.450	1	19
418.621	1	19
418.792	1	11
418.962	1	23
419.133	1	26
419.304	1	20
419.474	1	16
419.645	1	19
419.815	1	27
419.986	1	22
420.157	1	19
420.327	1	18
420.498	1	20
420.669	1	16
420.839	1	12
421.010	1	20
421.180	1	21
421.351	1	14
421.522	1	10
421.692	1	13
421.863	1	22
422.033	1	21
422.204	1	15
422.375	1	25
422.545	1	24
422.716	1	13
422.886	1	24
423.057	1	26
423.228	1	15
423.398	1	19
423.569	1	9
423.740	1	18
423.910	1	16
424.081	1	22
424.251	1	30
424.422	1	24
424.593	1	18
424.763	1	33
424.934	1	21
425.104	1	30
425.275	1	36
425.445	1	14
425.616	1	10
425.787	1	25
425.957	1	21
426.128	1	26
426.298	1	7
426.469	1	34
426.640	1	8
426.810	1	23
426.981	1	29
427.151	1	22
427.322	1	27
427.493	1	16
427.663	1	19
427.834	1	4
428.004	1	23
428.175	1	4
428.345	1	22
428.516	1	21
428.687	1	18
428.857	1	1
429.028	1	20
429.198	1	16
429.369	1	26
429.540	1	16
429.710	1	14
429.881	1	19
430.051	1	24
430.222	1	20
430.392	1	19
430.563	1	25
430.734	1	27
430.904	1	24
431.075	1	19
431.245	1	15
431.416	1	12
431.586	1	18
431.757	1	24
431.927	1	20
432.098	1	16
432.269	1	21
432.439	1	28
432.610	1	18
432.780	1	11
432.951	1	12
433.121	1	10
433.292	1	16
433.462	1	27
433.633	1	21
433.804	1	22
433.974	1	23
434.145	1	18
434.315	1	22
434.486	1	22
434.656	1	25
434.827	1	10
434.997	1	18
435.168	1	15
435.339	1	18
435.509	1	27
435.680	1	13
435.850	1	17
436.021	1	20
436.191	1	14
436.362	1	25
436.532	1	20
436.703	1	17
436.873	1	12
437.044	1	22
437.214	1	15
437.385	1	22
437.556	1	14
437.726	1	9
437.897	1	7
438.067	1	18
438.238	1	8
438.408	1	20
438.579	1	14
438.749	1	9
438.920	1	17
439.090	1	21
439.261	1	19
439.431	1	19
439.602	1	21
439.772	1	16
439.943	1	13
440.113	1	14
440.284	1	14
440.455	1	16
440.625	1	19
440.796	1	24
440.966	1	19
441.137	1	10
441.307	1	25
441.478	1	9
441.648	1	16
441.819	1	9
441.989	1	10
442.160	1	22
442.330	1	15
442.501	1	14
442.671	1	20
442.842	1	25
443.012	1	16
443.183	1	17
443.353	1	12
443.524	1	4
443.694	1	13
443.865	1	14
444.035	1	28
444.206	1	13
444.376	1	13
444.547	1	5
444.717	1	21
444.888	1	25
445.058	1	18
445.229	1	13
445.399	1	8
445.570	1	14
445.740	1	21
445.911	1	7
446.081	1	7
446.252	1	4
446.422	1	13
446.593	1	24
446.763	1	16
446.934	1	4
447.104	1	6
447.275	1	18
447.445	1	17
447.616	1	14
447.786	1	5
447.957	1	19
448.127	1	21
448.298	1	8
448.468	1	10
448.639	1	27
448.809	1	12
448.979	1	13
449.150	1	9
449.320	1	15
449.491	1	17
449.661	1	14
449.832	1	7
450.002	1	8
450.173	1	12
450.343	1	7
450.514	1	21
450.684	1	13
450.855	1	16
451.025	1	19
451.196	1	23
451.366	1	26
451.537	1	8
451.707	1	22
451.878	1	15
452.048	1	16
452.218	1	11
452.389	1	21
452.559	1	22
452.730	1	7
452.900	1	16
453.071	1	7
453.241	1	8
453.412	1	8
453.582	1	8
453.753	1	12
453.923	1	8
454.093	1	7
454.264	1	19
454.434	1	18
454.605	1	10
454.775	1	15
454.946	1	6
455.116	1	10
455.287	1	19
455.457	1	9
455.628	1	5
455.798	1	7
455.968	1	9
456.139	1	13
456.309	1	12
456.480	1	14
456.650	1	11
456.821	1	19
456.991	1	16
457.161	1	19
457.332	1	16
457.502	1	25
457.673	1	14
457.843	1	14
458.014	1	11
458.184	1	6
458.355	1	15
458.525	1	21
458.695	1	5
458.866	1	-2
459.036	1	-2
459.207	1	12
459.377	1	7
459.548	1	19
459.718	1	5
459.888	1	20
460.059	1	7
460.229	1	17
460.400	1	24
460.570	1	23
460.740	1	0
460.911	1	32
461.081	1	15
461.252	1	9
461.422	1	10
461.593	1	6
461.763	1	9
461.933	1	9
462.104	1	9
462.274	1	15
462.445	1	16
462.615	1	13
462.785	1	-1
462.956	1	8
463.126	1	10
463.297	1	15
463.467	1	16
463.638	1	5
463.808	1	13
463.978	1	4
464.149	1	12
464.319	1	0
464.490	1	6
464.660	1	2
464.830	1	17
465.001	1	21
465.171	1	15
465.342	1	10
465.512	1	4
465.682	1	16
465.853	1	10
466.023	1	14
466.194	1	8
466.364	1	6
466.534	1	1
466.705	1	7
466.875	1	9
467.045	1	13
467.216	1	21
467.386	1	10
467.557	1	10
467.727	1	7
467.897	1	21
468.068	1	6
468.238	1	1
468.409	1	10
468.579	1	16
468.749	1	17
468.920	1	9
469.090	1	11
469.260	1	7
469.431	1	1
469.601	1	13
469.772	1	-12
469.942	1	10
470.112	1	5
470.283	1	16
470.453	1	11
470.623	1	9
470.794	1	-2
470.964	1	15
471.135	1	-2
471.305	1	9
471.475	1	9
471.646	1	10
471.816	1	17
471.986	1	13
472.157	1	4
472.327	1	8
472.497	1	11
472.668	1	1
472.838	1	16
473.009	1	23
473.179	1	0
473.349	1	5
473.520	1	11
473.690	1	10
473.860	1	3
474.031	1	13
474.201	1	9
474.371	1	26
474.542	1	10
474.712	1	15
474.882	1	12
475.053	1	6
475.223	1	19
475.394	1	-2
475.564	1	7
475.734	1	5
475.905	1	-1
476.075	1	9
476.245	1	-2
476.416	1	7
476.586	1	19
476.756	1	14
476.927	1	9
477.097	1	4
477.267	1	10
477.438	1	5
477.608	1	3
477.778	1	7
477.949	1	5
478.119	1	12
478.289	1	6
478.460	1	5
478.630	1	4
478.800	1	17
478.971	1	3
479.141	1	5
479.311	1	7
479.482	1	9
479.652	1	10
479.822	1	14
479.993	1	2
480.163	1	6
480.333	1	6
480.504	1	0
480.674	1	-3
480.844	1	11
481.015	1	16
481.185	1	9
481.355	1	2
481.525	1	6
481.696	1	19
481.866	1	1
482.036	1	-6
482.207	1	19
482.377	1	12
482.547	1	21
482.718	1	16
482.888	1	3
483.058	1	7
483.229	1	8
483.399	1	8
483.569	1	9
483.740	1	0
483.910	1	10
484.080	1	15
484.250	1	12
484.421	1	10
484.591	1	8
484.761	1	0
484.932	1	8
485.102	1	1
485.272	1	3
485.443	1	9
485.613	1	2
485.783	1	6
485.953	1	3
486.124	1	6
486.294	1	6
486.464	1	17
486.635	1	8
486.805	1	10
486.975	1	8
487.146	1	9
487.316	1	9
487.486	1	1
487.656	1	19
487.827	1	-2
487.997	1	8
488.167	1	14
488.338	1	11
488.508	1	16
488.678	1	13
488.848	1	10
489.019	1	6
489.189	1	3
489.359	1	8
489.529	1	10
489.700	1	1
489.870	1	8
490.040	1	5
490.211	1	17
490.381	1	17
490.551	1	2
490.721	1	8
490.892	1	-9
491.062	1	5
491.232	1	8
491.402	1	12
491.573	1	9
491.743	1	8
491.913	1	12
492.084	1	-5
492.254	1	11
492.424	1	7
492.594	1	5
492.765	1	-10
492.935	1	7
493.105	1	-1
493.275	1	6
493.446	1	3
493.616	1	4
493.786	1	5
493.956	1	9
494.127	1	3
494.297	1	13
494.467	1	11
494.637	1	7
494.808	1	6
494.978	1	7
495.148	1	-5
495.318	1	10
495.489	1	0
495.659	1	4
495.829	1	5
495.999	1	3
496.170	1	3
496.340	1	5
496.510	1	-2
496.680	1	10
496.851	1	12
497.021	1	6
497.191	1	12
497.361	1	18
497.532	1	0
497.702	1	3
497.872	1	0
498.042	1	10
498.213	1	11
498.383	1	11
498.553	1	3
498.723	1	-1
498.894	1	9
499.064	1	-3
499.234	1	9
499.404	1	0
499.574	1	0
499.745	1	5
499.915	1	12
500.085	1	-2
500.255	1	9
500.426	1	2
500.596	1	2
500.766	1	9
500.936	1	1
501.106	1	-2
501.277	1	5
501.447	1	-4
501.617	1	6
501.787	1	20
501.958	1	-6
502.128	1	-3
502.298	1	5
502.468	1	2
502.638	1	-2
502.809	1	4
502.979	1	7
503.149	1	5
503.319	1	0
503.489	1	3
503.660	1	4
503.830	1	3
504.000	1	2
504.170	1	3
504.340	1	14
504.511	1	2
504.681	1	10
504.851	1	8
505.021	1	1
505.192	1	0
505.362	1	7
505.532	1	6
505.702	1	19
505.872	1	10
506.043	1	4
506.213	1	6
506.383	1	2
506.553	1	13
506.723	1	-2
506.893	1	7
507.064	1	8
507.234	1	4
507.404	1	2
507.574	1	0
507.744	1	5
507.915	1	9
508.085	1	14
508.255	1	3
508.425	1	1
508.595	1	-3
508.766	1	7
508.936	1	9
509.106	1	1
509.276	1	13
509.446	1	-2
509.616	1	12
509.787	1	9
509.957	1	14
510.127	1	7
510.297	1	4
510.467	1	7
510.638	1	11
510.808	1	3
510.978	1	9
511.148	1	14
511.318	1	5
511.488	1	11
511.659	1	6
511.829	1	-5
511.999	1	16
512.169	1	9
512.339	1	9
512.509	1	2
512.680	1	-5
512.850	1	-8
513.020	1	5
513.190	1	8
513.360	1	2
513.530	1	-4
513.700	1	6
513.871	1	6
514.041	1	16
514.211	1	16
514.381	1	5
514.551	1	10
514.721	1	7
514.892	1	-5
515.062	1	5
515.232	1	-9
515.402	1	8
515.572	1	14
515.742	1	0
515.912	1	0
516.083	1	10
516.253	1	2
516.423	1	9
516.593	1	-2
516.763	1	-10
516.933	1	-2
517.104	1	-3
517.274	1	7
517.444	1	-9
517.614	1	-2
517.784	1	6
517.954	1	16
518.124	1	15
518.294	1	12
518.465	1	5
518.635	1	8
518.805	1	9
518.975	1	9
519.145	1	9
519.315	1	10
519.485	1	4
519.656	1	1
519.826	1	18
519.996	1	7
520.166	1	3
520.336	1	-3
520.506	1	0
520.676	1	-2
520.846	1	11
521.017	1	12
521.187	1	6
521.357	1	9
521.527	1	2
521.697	1	-1
521.867	1	-6
522.037	1	1
522.207	1	5
522.377	1	-12
522.548	1	3
522.718	1	16
522.888	1	7
523.058	1	-6
523.228	1	-2
523.398	1	8
523.568	1	-1
523.738	1	2
523.909	1	4
524.079	1	7
524.249	1	-2
524.419	1	4
524.589	1	-3
524.759	1	10
524.929	1	7
525.099	1	6
525.269	1	1
525.439	1	-2
525.610	1	2
525.780	1	-6
525.950	1	6
526.120	1	8
526.290	1	16
526.460	1	1
526.630	1	12
526.800	1	1
526.970	1	6
527.140	1	-2
527.311	1	15
527.481	1	11
527.651	1	8
527.821	1	1
527.991	1	5
528.161	1	-1
528.331	1	3
528.501	1	0
528.671	1	3
528.841	1	13
529.011	1	0
529.181	1	6
529.352	1	3
529.522	1	1
529.692	1	10
529.862	1	-2
530.032	1	1
530.202	1	-1
530.372	1	2
530.542	1	-1
530.712	1	4
530.882	1	-9
531.052	1	16
531.222	1	6
531.392	1	0
531.563	1	0
531.733	1	7
531.903	1	1
532.073	1	11
532.243	1	13
532.413	1	8
532.583	1	-6
532.753	1	10
532.923	1	3
533.093	1	4
533.263	1	3
533.433	1	3
533.603	1	5
533.773	1	16
533.943	1	0
534.113	1	8
534.284	1	1
534.454	1	3
534.624	1	7
534.794	1	7
534.964	1	2
535.134	1	-1
535.304	1	10
535.474	1	8
535.644	1	-2
535.814	1	-9
535.984	1	6
536.154	1	9
536.324	1	2
536.494	1	1
536.664	1	1
536.834	1	-5
537.004	1	6
537.174	1	-7
537.344	1	3
537.514	1	1
537.685	1	7
537.855	1	0
538.025	1	2
538.195	1	1
538.365	1	1
538.535	1	0
538.705	1	-5
538.875	1	-1
539.045	1	-9
539.215	1	12
539.385	1	6
539.555	1	-1
539.725	1	-1
539.895	1	16
540.065	1	0
540.235	1	0
540.405	1	-5
540.575	1	8
540.745	1	7
540.915	1	10
541.085	1	0
541.255	1	7
541.425	1	-4
541.595	1	-12
541.765	1	-7
541.935	1	7
542.105	1	4
542.275	1	-5
542.445	1	-7
542.615	1	10
542.785	1	-5
542.955	1	15
543.125	1	1
543.295	1	10
543.465	1	0
543.635	1	-2
543.805	1	-1
543.975	1	3
544.145	1	1
544.315	1	8
544.485	1	-3
544.655	1	3
544.825	1	8
544.995	1	7
545.165	1	14
545.335	1	-4
545.505	1	4
545.675	1	11
545.845	1	14
546.015	1	-4
546.185	1	5
546.355	1	8
546.525	1	5
546.695	1	8
546.865	1	3
547.035	1	-4
547.205	1	2
547.375	1	10
547.545	1	1
547.715	1	0
547.885	1	5
548.055	1	20
548.225	1	10
548.395	1	-3
548.565	1	9
548.735	1	1
548.905	1	10
549.075	1	2
549.245	1	10
549.415	1	1
549.585	1	3
549.755	1	4
549.925	1	10
550.095	1	3
550.265	1	2
550.435	1	9
550.605	1	3
550.775	1	0
550.945	1	7
551.115	1	6
551.285	1	-5
551.455	1	5
551.625	1	6
551.795	1	13
551.965	1	0
552.135	1	6
552.305	1	10
552.475	1	0
552.645	1	6
552.815	1	-3
552.985	1	-10
553.155	1	5
553.325	1	-3
553.495	1	12
553.665	1	11
553.835	1	14
554.004	1	7
554.174	1	-5
554.344	1	13
554.514	1	5
554.684	1	-8
554.854	1	-2
555.024	1	-8
555.194	1	2
555.364	1	2
555.534	1	2
555.704	1	3
555.874	1	10
556.044	1	8
556.214	1	10
556.384	1	-7
556.554	1	-6
556.724	1	-2
556.894	1	-2
557.064	1	11
557.234	1	2
557.404	1	-8
557.573	1	6
557.743	1	1
557.913	1	3
558.083	1	6
558.253	1	1
558.423	1	5
558.593	1	9
558.763	1	10
558.933	1	6
559.103	1	2
559.273	1	2
559.443	1	-9
559.613	1	-7
559.783	1	2
559.953	1	-10
560.122	1	-1
560.292	1	0
560.462	1	-2
560.632	1	10
560.802	1	-9
560.972	1	-4
561.142	1	-12
561.312	1	1
561.482	1	6
561.652	1	10
561.822	1	7
561.992	1	1
562.162	1	5
562.331	1	6
562.501	1	0
562.671	1	3
562.841	1	-2
563.011	1	-9
563.181	1	-3
563.351	1	4
563.521	1	11
563.691	1	4
563.861	1	4
564.031	1	8
564.201	1	4
564.370	1	-1
564.540	1	-5
564.710	1	2
564.880	1	-6
565.050	1	11
565.220	1	7
565.390	1	1
565.560	1	11
565.730	1	-7
565.900	1	1
566.069	1	0
566.239	1	0
566.409	1	4
566.579	1	-1
566.749	1	-8
566.919	1	-6
567.089	1	0
567.259	1	18
567.429	1	-8
567.599	1	9
567.768	1	2
567.938	1	0
568.108	1	-6
568.278	1	6
568.448	1	7
568.618	1	11
568.788	1	13
568.958	1	10
569.128	1	-9
569.297	1	0
569.467	1	11
569.637	1	8
569.807	1	1
569.977	1	6
570.147	1	5
570.317	1	1
570.487	1	3
570.656	1	6
570.826	1	14
570.996	1	-3
571.166	1	-1
571.336	1	7
571.506	1	6
571.676	1	4
571.846	1	9
572.015	1	6
572.185	1	2
572.355	1	2
572.525	1	3
572.695	1	9
572.865	1	2
573.035	1	10
573.205	1	3
573.374	1	12
573.544	1	5
573.714	1	5
573.884	1	-5
574.054	1	11
574.224	1	5
574.394	1	5
574.563	1	3
574.733	1	4
574.903	1	12
575.073	1	9
575.243	1	1
575.413	1	6
575.583	1	7
575.752	1	2
575.922	1	6
576.092	1	-4
576.262	1	1
576.432	1	2
576.602	1	2
576.772	1	-1
576.941	1	-6
577.111	1	11
577.281	1	-2
577.451	1	6
577.621	1	-2
577.791	1	5
577.960	1	5
578.130	1	-2
578.300	1	0
578.470	1	8
578.640	1	-3
578.810	1	5
578.979	1	4
579.149	1	6
579.319	1	5
579.489	1	6
579.659	1	10
579.829	1	6
579.998	1	-2
580.168	1	-6
580.338	1	-7
580.508	1	7
580.678	1	8
580.848	1	-8
581.017	1	2
581.187	1	12
581.357	1	0
581.527	1	0
581.697	1	4
581.867	1	-4
582.036	1	9
582.206	1	0
582.376	1	3
582.546	1	-5
582.716	1	-8
582.885	1	-7
583.055	1	7
583.225	1	8
583.395	1	0
583.565	1	-6
583.735	1	6
583.904	1	2
584.074	1	0
584.244	1	7
584.414	1	-1
584.584	1	-1
584.753	1	5
584.923	1	14
585.093	1	4
585.263	1	10
585.433	1	0
585.602	1	-2
585.772	1	-4
585.942	1	0
586.112	1	5
586.282	1	-1
586.451	1	1
586.621	1	5
586.791	1	14
586.961	1	-7
587.131	1	3
587.300	1	7
587.470	1	14
587.640	1	9
587.810	1	16
587.980	1	4
588.149	1	-3
588.319	1	3
588.489	1	-2
588.659	1	10
588.829	1	7
588.998	1	9
589.168	1	6
589.338	1	5
589.508	1	-5
589.677	1	-6
589.847	1	17
590.017	1	8
590.187	1	4
590.357	1	-7
590.526	1	-5
590.696	1	19
590.866	1	17
591.036	1	11
591.205	1	3
591.375	1	-9
591.545	1	8
591.715	1	-7
591.885	1	-1
592.054	1	4
592.224	1	14
592.394	1	-13
592.564	1	-2
592.733	1	23
592.903	1	3
593.073	1	-3
593.243	1	14
593.412	1	12
593.582	1	-3
593.752	1	-4
593.922	1	-3
594.091	1	11
594.261	1	9
594.431	1	2
594.601	1	9
594.771	1	-3
594.940	1	-1
595.110	1	0
595.280	1	4
595.450	1	6
595.619	1	-4
595.789	1	-6
595.959	1	-1
596.129	1	6
596.298	1	14
596.468	1	4
596.638	1	-3
596.808	1	9
596.977	1	6
597.147	1	2
597.317	1	6
597.487	1	1
597.656	1	5
597.826	1	1
597.996	1	-2
598.166	1	5
598.335	1	-4
598.505	1	5
598.675	1	4
598.844	1	-1
599.014	1	-1
599.184	1	9
599.354	1	11
599.523	1	-1
599.693	1	5
599.863	1	2
600.033	1	-5
600.202	1	-6
600.372	1	3
600.542	1	3
600.712	1	1
600.881	1	-11
601.051	1	-1
601.221	1	20
601.390	1	5
601.560	1	7
601.730	1	6
601.900	1	2
602.069	1	-4
602.239	1	13
602.409	1	7
602.578	1	7
602.748	1	2
602.918	1	7
603.088	1	2
603.257	1	12
603.427	1	-12
603.597	1	9
603.767	1	-10
603.936	1	-7
604.106	1	-3
604.276	1	13
604.445	1	2
604.615	1	6
604.785	1	10
604.954	1	-5
605.124	1	9
605.294	1	1
605.464	1	12
605.633	1	-1
605.803	1	11
605.973	1	9
606.142	1	7
606.312	1	2
606.482	1	3
606.652	1	-6
606.821	1	3
606.991	1	2
607.161	1	9
607.330	1	-1
607.500	1	8
607.670	1	-2
607.839	1	2
608.009	1	5
608.179	1	-2
608.348	1	9
608.518	1	3
608.688	1	7
608.858	1	6
609.027	1	7
609.197	1	-13
609.367	1	-1
609.536	1	13
609.706	1	-2
609.876	1	6
610.045	1	10
610.215	1	11
610.385	1	-3
610.554	1	8
610.724	1	-2
610.894	1	3
611.063	1	3
611.233	1	5
611.403	1	9
611.572	1	-5
611.742	1	1
611.912	1	6
612.081	1	7
612.251	1	6
612.421	1	2
612.590	1	-2
612.760	1	9
612.930	1	-4
613.099	1	8
613.269	1	5
613.439	1	2
613.608	1	1
613.778	1	-9
613.948	1	5
614.117	1	12
614.287	1	8
614.457	1	1
614.626	1	6
614.796	1	3
614.966	1	10
615.135	1	10
615.305	1	7
615.475	1	9
615.644	1	2
615.814	1	7
615.984	1	23
616.153	1	2
616.323	1	13
616.493	1	5
616.662	1	-7
616.832	1	8
617.002	1	-3
617.171	1	-1
617.341	1	10
617.511	1	-4
617.680	1	9
617.850	1	5
618.019	1	19
618.189	1	-8
618.359	1	5
618.528	1	8
618.698	1	4
618.868	1	-2
619.037	1	13
619.207	1	-3
619.377	1	5
619.546	1	-3
619.716	1	9
619.885	1	6
620.055	1	-3
620.225	1	9
620.394	1	9
620.564	1	2
620.734	1	11
620.903	1	1
621.073	1	4
621.242	1	14
621.412	1	3
621.582	1	12
621.751	1	0
621.921	1	4
622.091	1	5
622.260	1	5
622.430	1	4
622.599	1	-1
622.769	1	2
622.939	1	-1
623.108	1	7
623.278	1	17
623.448	1	10
623.617	1	1
623.787	1	7
623.956	1	13
624.126	1	-9
624.296	1	0
624.465	1	-7
624.635	1	9
624.804	1	3
624.974	1	8
625.144	1	-2
625.313	1	7
625.483	1	14
625.652	1	-2
625.822	1	15
625.992	1	4
626.161	1	13
626.331	1	20
626.501	1	18
626.670	1	-8
626.840	1	-2
627.009	1	8
627.179	1	14
627.348	1	-4
627.518	1	5
627.688	1	-3
627.857	1	11
628.027	1	7
628.196	1	3
628.366	1	-9
628.536	1	18
628.705	1	9
628.875	1	11
629.044	1	9
629.214	1	6
629.384	1	6
629.553	1	1
629.723	1	4
629.892	1	14
630.062	1	8
630.232	1	-7
630.401	1	7
630.571	1	4
630.740	1	9
630.910	1	0
631.079	1	6
631.249	1	7
631.419	1	4
631.588	1	2
631.758	1	9
631.927	1	-4
632.097	1	5
632.266	1	-1
632.436	1	14
632.606	1	14
632.775	1	10
632.945	1	8
633.114	1	11
633.284	1	8
633.453	1	5
633.623	1	7
633.793	1	8
633.962	1	11
634.132	1	6
634.301	1	14
634.471	1	-4
634.640	1	7
634.810	1	7
634.979	1	14
635.149	1	9
635.319	1	3
635.488	1	0
635.658	1	11
635.827	1	10
635.997	1	8
636.166	1	10
636.336	1	5
636.505	1	23
636.675	1	0
636.845	1	5
637.014	1	20
637.184	1	11
637.353	1	3
637.523	1	20
637.692	1	4
637.862	1	8
638.031	1	12
638.201	1	6
638.370	1	16
638.540	1	9
638.710	1	1
638.879	1	4
639.049	1	22
639.218	1	2
639.388	1	2
639.557	1	28
639.727	1	10
639.896	1	12
640.066	1	10
640.235	1	12
640.405	1	13
640.574	1	13
640.744	1	5
640.914	1	6
641.083	1	1
641.253	1	8
641.422	1	-8
641.592	1	7
641.761	1	10
641.931	1	17
642.100	1	-3
642.270	1	-6
642.439	1	7
642.609	1	11
642.778	1	0
642.948	1	17
643.117	1	7
643.287	1	9
643.456	1	3
643.626	1	-1
643.795	1	1
643.965	1	6
644.134	1	6
644.304	1	9
644.473	1	2
644.643	1	11
644.812	1	6
644.982	1	7
645.151	1	13
645.321	1	6
645.490	1	16
645.660	1	-7
645.829	1	2
645.999	1	9
646.168	1	18
646.338	1	4
646.507	1	9
646.677	1	8
646.846	1	9
647.016	1	7
647.185	1	10
647.355	1	13
647.524	1	6
647.694	1	9
647.863	1	12
648.033	1	5
648.202	1	0
648.372	1	4
648.541	1	2
648.711	1	6
648.880	1	8
649.050	1	2
649.219	1	12
649.389	1	-5
649.558	1	3
649.728	1	8
649.897	1	9
650.067	1	3
650.236	1	-1
650.406	1	8
650.575	1	17
650.745	1	1
650.914	1	13
651.084	1	-1
651.253	1	6
651.423	1	17
651.592	1	1
651.762	1	0
651.931	1	8
652.101	1	13
652.270	1	8
652.440	1	1
652.609	1	1
652.778	1	0
652.948	1	8
653.117	1	9
653.287	1	12
653.456	1	3
653.626	1	11
653.795	1	5
653.965	1	4
654.134	1	-5
654.304	1	15
654.473	1	5
654.643	1	0
654.812	1	5
654.982	1	10
655.151	1	-1
655.320	1	11
655.490	1	0
655.659	1	3
655.829	1	-1
655.998	1	8
656.168	1	1
656.337	1	-3
656.507	1	4
656.676	1	1
656.846	1	13
657.015	1	9
657.184	1	-5
657.354	1	7
657.523	1	-5
657.693	1	8
657.862	1	9
658.032	1	16
658.201	1	4
658.371	1	9
658.540	1	11
658.709	1	-7
658.879	1	3
659.048	1	16
659.218	1	8
659.387	1	7
659.557	1	-1
659.726	1	6
659.895	1	0
660.065	1	7
660.234	1	1
660.404	1	8
660.573	1	4
660.743	1	-5
660.912	1	7
661.081	1	12
661.251	1	6
661.420	1	-3
661.590	1	10
661.759	1	0
661.929	1	-1
662.098	1	-4
662.267	1	5
662.437	1	-3
662.606	1	13
662.776	1	3
662.945	1	-3
663.115	1	-4
663.284	1	4
663.453	1	7
663.623	1	-4
663.792	1	0
663.962	1	3
664.131	1	2
664.300	1	-3
664.470	1	8
664.639	1	13
664.809	1	0
664.978	1	-2
665.148	1	7
665.317	1	12
665.486	1	-1
665.656	1	16
665.825	1	9
665.995	1	12
666.164	1	4
666.333	1	-3
666.503	1	-1
666.672	1	-6
666.842	1	7
667.011	1	2
667.180	1	1
667.350	1	8
667.519	1	2
667.689	1	12
667.858	1	6
668.027	1	3
668.197	1	7
668.366	1	12
668.536	1	0
668.705	1	11
668.874	1	4
669.044	1	2
669.213	1	8
669.382	1	8
669.552	1	8
669.721	1	2
669.891	1	-4
670.060	1	8
670.229	1	12
670.399	1	9
670.568	1	-6
670.738	1	13
670.907	1	2
671.076	1	6
671.246	1	8
671.415	1	15
671.584	1	10
671.754	1	12
671.923	1	6
672.093	1	0
672.262	1	-9
672.431	1	3
672.601	1	-1
672.770	1	8
672.939	1	-9
673.109	1	6
673.278	1	5
673.448	1	4
673.617	1	7
673.786	1	-2
