325.333	1	-3
325.504	1	5
325.675	1	4
325.846	1	-6
326.017	1	7
326.188	1	0
326.359	1	-5
326.531	1	1
326.702	1	15
326.873	1	4
327.044	1	13
327.215	1	-5
327.386	1	1
327.557	1	3
327.728	1	0
327.899	1	7
328.070	1	11
328.241	1	8
328.412	1	-11
328.583	1	3
328.754	1	-5
328.926	1	15
329.097	1	2
329.268	1	10
329.439	1	7
329.610	1	4
329.781	1	12
329.952	1	-5
330.123	1	0
330.294	1	11
330.465	1	14
330.636	1	13
330.807	1	8
330.978	1	15
331.149	1	-1
331.320	1	5
331.492	1	14
331.663	1	-5
331.834	1	11
332.005	1	5
332.176	1	7
332.347	1	12
332.518	1	7
332.689	1	13
332.860	1	0
333.031	1	-4
333.202	1	-2
333.373	1	5
333.544	1	11
333.715	1	-4
333.886	1	5
334.057	1	13
334.228	1	4
334.399	1	1
334.570	1	6
334.741	1	-6
334.912	1	6
335.084	1	-4
335.255	1	1
335.426	1	0
335.597	1	6
335.768	1	4
335.939	1	12
336.110	1	7
336.281	1	10
336.452	1	3
336.623	1	9
336.794	1	7
336.965	1	8
337.136	1	5
337.307	1	8
337.478	1	0
337.649	1	18
337.820	1	5
337.991	1	10
338.162	1	10
338.333	1	4
338.504	1	10
338.675	1	7
338.846	1	7
339.017	1	2
339.188	1	2
339.359	1	0
339.530	1	6
339.701	1	8
339.872	1	7
340.043	1	3
340.214	1	-4
340.385	1	-3
340.556	1	-2
340.727	1	14
340.898	1	17
341.069	1	9
341.240	1	5
341.411	1	13
341.582	1	10
341.753	1	12
341.924	1	5
342.095	1	-6
342.266	1	3
342.437	1	4
342.608	1	10
342.779	1	6
342.950	1	4
343.121	1	14
343.292	1	8
343.463	1	8
343.634	1	0
343.805	1	8
343.976	1	-1
344.147	1	8
344.318	1	7
344.489	1	7
344.660	1	16
344.831	1	2
345.002	1	13
345.173	1	5
345.344	1	-1
345.515	1	1
345.686	1	-3
345.857	1	0
346.028	1	-1
346.199	1	6
346.370	1	14
346.541	1	12
346.712	1	7
346.883	1	14
347.054	1	2
347.225	1	3
347.396	1	1
347.567	1	11
347.738	1	0
347.909	1	-7
348.080	1	4
348.251	1	12
348.422	1	-5
348.593	1	-5
348.764	1	9
348.935	1	3
349.106	1	-1
349.277	1	7
349.448	1	10
349.619	1	3
349.790	1	21
349.961	1	2
350.132	1	2
350.303	1	0
350.474	1	2
350.645	1	-1
350.816	1	7
350.987	1	-12
351.157	1	13
351.328	1	4
351.499	1	4
351.670	1	-2
351.841	1	14
352.012	1	6
352.183	1	9
352.354	1	7
352.525	1	-3
352.696	1	10
352.867	1	-8
353.038	1	3
353.209	1	6
353.380	1	10
353.551	1	-8
353.722	1	-3
353.893	1	3
354.064	1	15
354.235	1	7
354.406	1	7
354.576	1	-7
354.747	1	-5
354.918	1	8
355.089	1	-3
355.260	1	2
355.431	1	2
355.602	1	-1
355.773	1	1
355.944	1	6
356.115	1	5
356.286	1	0
356.457	1	5
356.628	1	0
356.799	1	-3
356.970	1	0
357.141	1	8
357.311	1	3
357.482	1	3
357.653	1	4
357.824	1	5
357.995	1	6
358.166	1	1
358.337	1	4
358.508	1	0
358.679	1	1
358.850	1	1
359.021	1	7
359.192	1	-1
359.363	1	0
359.533	1	-6
359.704	1	3
359.875	1	-1
360.046	1	6
360.217	1	9
360.388	1	2
360.559	1	9
360.730	1	4
360.901	1	16
361.072	1	-1
361.243	1	10
361.414	1	-2
361.584	1	1
361.755	1	3
361.926	1	1
362.097	1	-1
362.268	1	7
362.439	1	1
362.610	1	7
362.781	1	-5
362.952	1	5
363.123	1	-2
363.293	1	-2
363.464	1	6
363.635	1	4
363.806	1	4
363.977	1	13
364.148	1	4
364.319	1	3
364.490	1	14
364.661	1	-8
364.832	1	6
365.002	1	-9
365.173	1	-9
365.344	1	-11
365.515	1	7
365.686	1	12
365.857	1	0
366.028	1	5
366.199	1	4
366.370	1	-3
366.540	1	9
366.711	1	-12
366.882	1	4
367.053	1	3
367.224	1	-5
367.395	1	2
367.566	1	-3
367.737	1	9
367.908	1	-3
368.078	1	4
368.249	1	-6
368.420	1	-1
368.591	1	2
368.762	1	9
368.933	1	5
369.104	1	6
369.274	1	9
369.445	1	1
369.616	1	15
369.787	1	5
369.958	1	9
370.129	1	2
370.300	1	-4
370.471	1	3
370.641	1	9
370.812	1	-2
370.983	1	5
371.154	1	3
371.325	1	6
371.496	1	0
371.667	1	3
371.837	1	11
372.008	1	-4
372.179	1	5
372.350	1	-5
372.521	1	-6
372.692	1	-4
372.863	1	3
373.033	1	2
373.204	1	0
373.375	1	5
373.546	1	4
373.717	1	0
373.888	1	-3
374.059	1	7
374.229	1	-3
374.400	1	4
374.571	1	-1
374.742	1	3
374.913	1	-7
375.084	1	11
375.254	1	5
375.425	1	19
375.596	1	9
375.767	1	9
375.938	1	0
376.109	1	0
376.279	1	-5
376.450	1	-9
376.621	1	-6
376.792	1	2
376.963	1	2
377.134	1	8
377.304	1	0
377.475	1	2
377.646	1	6
377.817	1	5
377.988	1	2
378.159	1	1
378.329	1	-2
378.500	1	-1
378.671	1	4
378.842	1	7
379.013	1	12
379.184	1	8
379.354	1	6
379.525	1	6
379.696	1	-4
379.867	1	11
380.038	1	8
380.209	1	5
380.379	1	6
380.550	1	-5
380.721	1	9
380.892	1	6
381.063	1	6
381.233	1	5
381.404	1	6
381.575	1	8
381.746	1	-18
381.917	1	1
382.087	1	0
382.258	1	7
382.429	1	8
382.600	1	5
382.771	1	12
382.941	1	3
383.112	1	-6
383.283	1	4
383.454	1	-2
383.625	1	9
383.795	1	12
383.966	1	15
384.137	1	4
384.308	1	-1
384.479	1	15
384.649	1	7
384.820	1	5
384.991	1	8
385.162	1	7
385.333	1	-5
385.503	1	4
385.674	1	1
385.845	1	-1
386.016	1	18
386.187	1	3
386.357	1	-4
386.528	1	8
386.699	1	-7
386.870	1	-4
387.041	1	3
387.211	1	3
387.382	1	9
387.553	1	7
387.724	1	-10
387.894	1	-5
388.065	1	10
388.236	1	7
388.407	1	3
388.578	1	7
388.748	1	7
388.919	1	0
389.090	1	5
389.261	1	1
389.431	1	11
389.602	1	7
389.773	1	9
389.944	1	11
390.114	1	4
390.285	1	6
390.456	1	8
390.627	1	16
390.798	1	7
390.968	1	10
391.139	1	-4
391.310	1	11
391.481	1	1
391.651	1	3
391.822	1	2
391.993	1	-4
392.164	1	1
392.334	1	8
392.505	1	3
392.676	1	0
392.847	1	8
393.017	1	-1
393.188	1	4
393.359	1	6
393.530	1	9
393.700	1	1
393.871	1	8
394.042	1	8
394.213	1	2
394.383	1	7
394.554	1	0
394.725	1	15
394.896	1	8
395.066	1	11
395.237	1	14
395.408	1	4
395.579	1	10
395.749	1	-1
395.920	1	0
396.091	1	8
396.262	1	3
396.432	1	7
396.603	1	10
396.774	1	16
396.945	1	8
397.115	1	13
397.286	1	8
397.457	1	12
397.627	1	2
397.798	1	7
397.969	1	6
398.140	1	0
398.310	1	21
398.481	1	9
398.652	1	8
398.823	1	9
398.993	1	5
399.164	1	2
399.335	1	7
399.505	1	-1
399.676	1	-8
399.847	1	2
400.018	1	4
400.188	1	22
400.359	1	-1
400.530	1	23
400.700	1	3
400.871	1	10
401.042	1	10
401.213	1	7
401.383	1	19
401.554	1	17
401.725	1	3
401.895	1	-1
402.066	1	5
402.237	1	7
402.408	1	14
402.578	1	0
402.749	1	6
402.920	1	1
403.090	1	4
403.261	1	6
403.432	1	2
403.603	1	11
403.773	1	8
403.944	1	13
404.115	1	9
404.285	1	2
404.456	1	15
404.627	1	13
404.797	1	3
404.968	1	9
405.139	1	3
405.310	1	0
405.480	1	14
405.651	1	3
405.822	1	1
405.992	1	19
406.163	1	6
406.334	1	10
406.504	1	5
406.675	1	10
406.846	1	7
407.016	1	17
407.187	1	23
407.358	1	6
407.528	1	9
407.699	1	10
407.870	1	8
408.041	1	6
408.211	1	9
408.382	1	9
408.553	1	13
408.723	1	4
408.894	1	0
409.065	1	13
409.235	1	0
409.406	1	17
409.577	1	9
409.747	1	15
409.918	1	10
410.089	1	10
410.259	1	2
410.430	1	1
410.601	1	9
410.771	1	16
410.942	1	-1
411.113	1	18
411.283	1	10
411.454	1	13
411.625	1	11
411.795	1	9
411.966	1	14
412.137	1	20
412.307	1	4
412.478	1	3
412.649	1	20
412.819	1	15
412.990	1	18
413.161	1	12
413.331	1	20
413.502	1	3
413.672	1	-1
413.843	1	8
414.014	1	-1
414.184	1	12
414.355	1	8
414.526	1	16
414.696	1	15
414.867	1	16
415.038	1	1
415.208	1	-6
415.379	1	8
415.550	1	6
415.720	1	7
415.891	1	9
416.062	1	5
416.232	1	19
416.403	1	-1
416.573	1	14
416.744	1	3
416.915	1	16
417.085	1	21
417.256	1	6
417.427	1	9
417.597	1	10
417.768	1	2
417.939	1	18
418.109	1	29
418.280	1	15
418.450	1	13
418.621	1	-7
418.792	1	7
418.962	1	13
419.133	1	14
419.304	1	12
419.474	1	15
419.645	1	12
419.815	1	23
419.986	1	14
420.157	1	12
420.327	1	8
420.498	1	1
420.669	1	4
420.839	1	5
421.010	1	11
421.180	1	4
421.351	1	6
421.522	1	9
421.692	1	7
421.863	1	22
422.033	1	13
422.204	1	2
422.375	1	19
422.545	1	25
422.716	1	5
422.886	1	14
423.057	1	9
423.228	1	13
423.398	1	22
423.569	1	18
423.740	1	23
423.910	1	8
424.081	1	14
424.251	1	12
424.422	1	11
424.593	1	15
424.763	1	14
424.934	1	17
425.104	1	21
425.275	1	28
425.445	1	7
425.616	1	14
425.787	1	19
425.957	1	15
426.128	1	14
426.298	1	-7
426.469	1	22
426.640	1	4
426.810	1	22
426.981	1	18
427.151	1	13
427.322	1	3
427.493	1	4
427.663	1	15
427.834	1	-5
428.004	1	16
428.175	1	9
428.345	1	17
428.516	1	18
428.687	1	3
428.857	1	-1
429.028	1	8
429.198	1	0
429.369	1	17
429.540	1	6
429.710	1	10
429.881	1	6
430.051	1	13
430.222	1	9
430.392	1	20
430.563	1	18
430.734	1	11
430.904	1	11
431.075	1	6
431.245	1	12
431.416	1	4
431.586	1	12
431.757	1	8
431.927	1	9
432.098	1	8
432.269	1	16
432.439	1	8
432.610	1	1
432.780	1	1
432.951	1	6
433.121	1	3
433.292	1	1
433.462	1	18
433.633	1	20
433.804	1	10
433.974	1	13
434.145	1	-1
434.315	1	6
434.486	1	12
434.656	1	10
434.827	1	5
434.997	1	13
435.168	1	7
435.339	1	13
435.509	1	19
435.680	1	7
435.850	1	4
436.021	1	14
436.191	1	9
436.362	1	11
436.532	1	8
436.703	1	19
436.873	1	8
437.044	1	19
437.214	1	6
437.385	1	12
437.556	1	10
437.726	1	-1
437.897	1	8
438.067	1	7
438.238	1	11
438.408	1	12
438.579	1	15
438.749	1	7
438.920	1	13
439.090	1	9
439.261	1	14
439.431	1	9
439.602	1	9
439.772	1	12
439.943	1	12
440.113	1	12
440.284	1	11
440.455	1	11
440.625	1	17
440.796	1	10
440.966	1	12
441.137	1	-1
441.307	1	22
441.478	1	7
441.648	1	15
441.819	1	3
441.989	1	8
442.160	1	14
442.330	1	19
442.501	1	1
442.671	1	5
442.842	1	9
443.012	1	15
443.183	1	13
443.353	1	10
443.524	1	-3
443.694	1	2
443.865	1	5
444.035	1	14
444.206	1	0
444.376	1	8
444.547	1	9
444.717	1	6
444.888	1	3
445.058	1	17
445.229	1	10
445.399	1	9
445.570	1	11
445.740	1	7
445.911	1	7
446.081	1	10
446.252	1	7
446.422	1	1
446.593	1	0
446.763	1	22
446.934	1	0
447.104	1	6
447.275	1	8
447.445	1	4
447.616	1	10
447.786	1	7
447.957	1	3
448.127	1	9
448.298	1	1
448.468	1	9
448.639	1	16
448.809	1	11
448.979	1	-2
449.150	1	7
449.320	1	7
449.491	1	11
449.661	1	3
449.832	1	9
450.002	1	6
450.173	1	6
450.343	1	-3
450.514	1	14
450.684	1	20
450.855	1	15
451.025	1	11
451.196	1	13
451.366	1	10
451.537	1	-4
451.707	1	14
451.878	1	9
452.048	1	1
452.218	1	5
452.389	1	14
452.559	1	11
452.730	1	-2
452.900	1	1
453.071	1	-3
453.241	1	21
453.412	1	8
453.582	1	11
453.753	1	14
453.923	1	4
454.093	1	-1
454.264	1	6
454.434	1	0
454.605	1	-2
454.775	1	7
454.946	1	8
455.116	1	0
455.287	1	14
455.457	1	8
455.628	1	-7
455.798	1	-2
455.968	1	4
456.139	1	7
456.309	1	21
456.480	1	9
456.650	1	7
456.821	1	6
456.991	1	12
457.161	1	12
457.332	1	8
457.502	1	9
457.673	1	-6
457.843	1	3
458.014	1	10
458.184	1	9
458.355	1	14
458.525	1	12
458.695	1	-3
458.866	1	4
459.036	1	6
459.207	1	11
459.377	1	-5
459.548	1	3
459.718	1	10
459.888	1	0
460.059	1	6
460.229	1	22
460.400	1	20
460.570	1	7
460.740	1	5
460.911	1	16
461.081	1	12
461.252	1	6
461.422	1	4
461.593	1	3
461.763	1	0
461.933	1	8
462.104	1	12
462.274	1	3
462.445	1	8
462.615	1	10
462.785	1	2
462.956	1	14
463.126	1	2
463.297	1	22
463.467	1	4
463.638	1	-6
463.808	1	7
463.978	1	-2
464.149	1	12
464.319	1	5
464.490	1	6
464.660	1	-1
464.830	1	-1
465.001	1	13
465.171	1	-1
465.342	1	-9
465.512	1	4
465.682	1	2
465.853	1	5
466.023	1	4
466.194	1	10
466.364	1	8
466.534	1	4
466.705	1	7
466.875	1	4
467.045	1	9
467.216	1	4
467.386	1	-1
467.557	1	-4
467.727	1	-1
467.897	1	9
468.068	1	-2
468.238	1	-11
468.409	1	5
468.579	1	4
468.749	1	23
468.920	1	2
469.090	1	-4
469.260	1	3
469.431	1	7
469.601	1	14
469.772	1	-5
469.942	1	7
470.112	1	-13
470.283	1	2
470.453	1	15
470.623	1	-1
470.794	1	-6
470.964	1	0
471.135	1	7
471.305	1	-1
471.475	1	6
471.646	1	7
471.816	1	17
471.986	1	6
472.157	1	5
472.327	1	-5
472.497	1	-1
472.668	1	0
472.838	1	-6
473.009	1	19
473.179	1	2
473.349	1	8
473.520	1	2
473.690	1	10
473.860	1	13
474.031	1	14
474.201	1	3
474.371	1	12
474.542	1	6
474.712	1	-1
474.882	1	7
475.053	1	0
475.223	1	6
475.394	1	-11
475.564	1	9
475.734	1	12
475.905	1	2
476.075	1	-4
476.245	1	2
476.416	1	0
476.586	1	13
476.756	1	-11
476.927	1	-8
477.097	1	-3
477.267	1	12
477.438	1	3
477.608	1	2
477.778	1	6
477.949	1	-2
478.119	1	5
478.289	1	4
478.460	1	-3
478.630	1	0
478.800	1	3
478.971	1	-5
479.141	1	1
479.311	1	12
479.482	1	1
479.652	1	4
479.822	1	4
479.993	1	-7
480.163	1	0
480.333	1	15
480.504	1	5
480.674	1	-7
480.844	1	9
481.015	1	6
481.185	1	6
481.355	1	3
481.525	1	3
481.696	1	10
481.866	1	4
482.036	1	6
482.207	1	7
482.377	1	-1
482.547	1	13
482.718	1	11
482.888	1	-4
483.058	1	5
483.229	1	0
483.399	1	8
483.569	1	-5
483.740	1	6
483.910	1	1
484.080	1	14
484.250	1	13
484.421	1	6
484.591	1	6
484.761	1	4
484.932	1	-4
485.102	1	3
485.272	1	2
485.443	1	4
485.613	1	-2
485.783	1	-5
485.953	1	13
486.124	1	4
486.294	1	5
486.464	1	13
486.635	1	-3
486.805	1	6
486.975	1	13
487.146	1	-5
487.316	1	0
487.486	1	6
487.656	1	12
487.827	1	5
487.997	1	-9
488.167	1	12
488.338	1	6
488.508	1	7
488.678	1	0
488.848	1	7
489.019	1	5
489.189	1	6
489.359	1	1
489.529	1	1
489.700	1	-5
489.870	1	2
490.040	1	5
490.211	1	22
490.381	1	4
490.551	1	-3
490.721	1	6
490.892	1	-13
491.062	1	-1
491.232	1	7
491.402	1	15
491.573	1	4
491.743	1	3
491.913	1	7
492.084	1	4
492.254	1	-5
492.424	1	10
492.594	1	-1
492.765	1	-13
492.935	1	5
493.105	1	5
493.275	1	5
493.446	1	5
493.616	1	2
493.786	1	-2
493.956	1	16
494.127	1	7
494.297	1	7
494.467	1	5
494.637	1	3
494.808	1	8
494.978	1	3
495.148	1	-2
495.318	1	3
495.489	1	-3
495.659	1	-4
495.829	1	-2
495.999	1	5
496.170	1	7
496.340	1	8
496.510	1	2
496.680	1	7
496.851	1	3
497.021	1	6
497.191	1	8
497.361	1	-1
497.532	1	8
497.702	1	0
497.872	1	4
498.042	1	13
498.213	1	9
498.383	1	8
498.553	1	10
498.723	1	-10
498.894	1	7
499.064	1	-5
499.234	1	4
499.404	1	-4
499.574	1	5
499.745	1	5
499.915	1	10
500.085	1	2
500.255	1	8
500.426	1	-2
500.596	1	6
500.766	1	1
500.936	1	3
501.106	1	0
501.277	1	-3
501.447	1	3
501.617	1	2
501.787	1	7
501.958	1	-3
502.128	1	5
502.298	1	-3
502.468	1	5
502.638	1	0
502.809	1	1
502.979	1	0
503.149	1	4
503.319	1	3
503.489	1	2
503.660	1	4
503.830	1	-6
504.000	1	-3
504.170	1	-4
504.340	1	7
504.511	1	-3
504.681	1	0
504.851	1	9
505.021	1	10
505.192	1	4
505.362	1	10
505.532	1	-4
505.702	1	13
505.872	1	2
506.043	1	8
506.213	1	3
506.383	1	1
506.553	1	10
506.723	1	-4
506.893	1	-3
507.064	1	-3
507.234	1	5
507.404	1	8
507.574	1	-14
507.744	1	-4
507.915	1	-4
508.085	1	9
508.255	1	1
508.425	1	3
508.595	1	14
508.766	1	-3
508.936	1	8
509.106	1	-6
509.276	1	8
509.446	1	-3
509.616	1	5
509.787	1	-2
509.957	1	5
510.127	1	2
510.297	1	17
510.467	1	-4
510.638	1	-4
510.808	1	-1
510.978	1	9
511.148	1	5
511.318	1	-6
511.488	1	5
511.659	1	4
511.829	1	1
511.999	1	17
512.169	1	19
512.339	1	5
512.509	1	-1
512.680	1	-5
512.850	1	-11
513.020	1	-1
513.190	1	7
513.360	1	1
513.530	1	1
513.700	1	7
513.871	1	13
514.041	1	3
514.211	1	1
514.381	1	2
514.551	1	2
514.721	1	0
514.892	1	-4
515.062	1	5
515.232	1	-3
515.402	1	16
515.572	1	15
515.742	1	1
515.912	1	-7
516.083	1	-5
516.253	1	-6
516.423	1	-4
516.593	1	-2
516.763	1	-9
516.933	1	5
517.104	1	-1
517.274	1	6
517.444	1	-5
517.614	1	-5
517.784	1	2
517.954	1	10
518.124	1	12
518.294	1	1
518.465	1	-3
518.635	1	10
518.805	1	-4
518.975	1	-2
519.145	1	-4
519.315	1	6
519.485	1	8
519.656	1	4
519.826	1	-1
519.996	1	5
520.166	1	-3
520.336	1	6
520.506	1	11
520.676	1	-4
520.846	1	3
521.017	1	6
521.187	1	-1
521.357	1	1
521.527	1	0
521.697	1	11
521.867	1	0
522.037	1	11
522.207	1	7
522.377	1	-1
522.548	1	7
522.718	1	8
522.888	1	10
523.058	1	-7
523.228	1	-2
523.398	1	12
523.568	1	-4
523.738	1	-1
523.909	1	4
524.079	1	12
524.249	1	5
524.419	1	1
524.589	1	8
524.759	1	-6
524.929	1	0
525.099	1	-2
525.269	1	-6
525.439	1	-14
525.610	1	-4
525.780	1	-14
525.950	1	7
526.120	1	5
526.290	1	9
526.460	1	0
526.630	1	5
526.800	1	-6
526.970	1	-9
527.140	1	-1
527.311	1	14
527.481	1	4
527.651	1	8
527.821	1	-15
527.991	1	-3
528.161	1	4
528.331	1	5
528.501	1	-5
528.671	1	0
528.841	1	6
529.011	1	-2
529.181	1	0
529.352	1	-9
529.522	1	-7
529.692	1	6
529.862	1	-1
530.032	1	6
530.202	1	-5
530.372	1	6
530.542	1	2
530.712	1	3
530.882	1	-10
531.052	1	5
531.222	1	4
531.392	1	2
531.563	1	-3
531.733	1	10
531.903	1	1
532.073	1	0
532.243	1	4
532.413	1	-3
532.583	1	-1
532.753	1	3
532.923	1	4
533.093	1	-5
533.263	1	4
533.433	1	-3
533.603	1	10
533.773	1	13
533.943	1	6
534.113	1	4
534.284	1	-2
534.454	1	-6
534.624	1	0
534.794	1	3
534.964	1	8
535.134	1	-3
535.304	1	3
535.474	1	3
535.644	1	-2
535.814	1	-8
535.984	1	14
536.154	1	1
536.324	1	2
536.494	1	-5
536.664	1	0
536.834	1	-4
537.004	1	5
537.174	1	6
537.344	1	6
537.514	1	2
537.685	1	2
537.855	1	-5
538.025	1	-9
538.195	1	1
538.365	1	0
538.535	1	9
538.705	1	-2
538.875	1	-6
539.045	1	-1
539.215	1	6
539.385	1	12
539.555	1	-2
539.725	1	2
539.895	1	7
540.065	1	-4
540.235	1	-7
540.405	1	-6
540.575	1	5
540.745	1	0
540.915	1	-10
541.085	1	-6
541.255	1	3
541.425	1	-7
541.595	1	-10
541.765	1	3
541.935	1	4
542.105	1	-5
542.275	1	-4
542.445	1	-7
542.615	1	1
542.785	1	3
542.955	1	6
543.125	1	1
543.295	1	5
543.465	1	-1
543.635	1	5
543.805	1	-7
543.975	1	6
544.145	1	-9
544.315	1	8
544.485	1	-7
544.655	1	3
544.825	1	8
544.995	1	-1
545.165	1	2
545.335	1	-6
545.505	1	6
545.675	1	4
545.845	1	19
546.015	1	-1
546.185	1	12
546.355	1	1
546.525	1	-6
546.695	1	2
546.865	1	3
547.035	1	-1
547.205	1	4
547.375	1	8
547.545	1	0
547.715	1	-10
547.885	1	0
548.055	1	10
548.225	1	2
548.395	1	-6
548.565	1	3
548.735	1	-10
548.905	1	15
549.075	1	9
549.245	1	7
549.415	1	-1
549.585	1	-3
549.755	1	-5
549.925	1	10
550.095	1	-2
550.265	1	0
550.435	1	-7
550.605	1	-5
550.775	1	1
550.945	1	-3
551.115	1	10
551.285	1	0
551.455	1	-1
551.625	1	10
551.795	1	2
551.965	1	3
552.135	1	-7
552.305	1	5
552.475	1	14
552.645	1	7
552.815	1	-1
552.985	1	-17
553.155	1	-2
553.325	1	3
553.495	1	0
553.665	1	4
553.835	1	9
554.004	1	4
554.174	1	-9
554.344	1	0
554.514	1	0
554.684	1	-8
554.854	1	-3
555.024	1	-6
555.194	1	2
555.364	1	-1
555.534	1	4
555.704	1	4
555.874	1	4
556.044	1	6
556.214	1	1
556.384	1	5
556.554	1	3
556.724	1	-5
556.894	1	-1
557.064	1	9
557.234	1	1
557.404	1	2
557.573	1	4
557.743	1	1
557.913	1	2
558.083	1	3
558.253	1	-2
558.423	1	10
558.593	1	7
558.763	1	4
558.933	1	-5
559.103	1	3
559.273	1	-6
559.443	1	-2
559.613	1	-15
559.783	1	8
559.953	1	-7
560.122	1	-4
560.292	1	-5
560.462	1	-3
560.632	1	6
560.802	1	2
560.972	1	-3
561.142	1	-9
561.312	1	1
561.482	1	9
561.652	1	0
561.822	1	6
561.992	1	4
562.162	1	13
562.331	1	0
562.501	1	-3
562.671	1	6
562.841	1	3
563.011	1	4
563.181	1	0
563.351	1	-3
563.521	1	9
563.691	1	-2
563.861	1	-5
564.031	1	7
564.201	1	5
564.370	1	2
564.540	1	-1
564.710	1	2
564.880	1	-2
565.050	1	-1
565.220	1	-4
565.390	1	5
565.560	1	12
565.730	1	6
565.900	1	-2
566.069	1	-1
566.239	1	6
566.409	1	3
566.579	1	-2
566.749	1	4
566.919	1	-1
567.089	1	7
567.259	1	10
567.429	1	0
567.599	1	-2
567.768	1	-4
567.938	1	5
568.108	1	-3
568.278	1	-4
568.448	1	-10
568.618	1	16
568.788	1	6
568.958	1	3
569.128	1	2
569.297	1	12
569.467	1	1
569.637	1	7
569.807	1	1
569.977	1	5
570.147	1	1
570.317	1	-4
570.487	1	-5
570.656	1	4
570.826	1	-4
570.996	1	11
571.166	1	8
571.336	1	6
571.506	1	0
571.676	1	-4
571.846	1	-1
572.015	1	-3
572.185	1	-1
572.355	1	15
572.525	1	4
572.695	1	5
572.865	1	4
573.035	1	12
573.205	1	1
573.374	1	3
573.544	1	-7
573.714	1	-4
573.884	1	-4
574.054	1	14
574.224	1	0
574.394	1	-1
574.563	1	4
574.733	1	4
574.903	1	-1
575.073	1	-7
575.243	1	8
575.413	1	4
575.583	1	9
575.752	1	4
575.922	1	0
576.092	1	2
576.262	1	-2
576.432	1	3
576.602	1	8
576.772	1	-3
576.941	1	0
577.111	1	5
577.281	1	-8
577.451	1	6
577.621	1	-4
577.791	1	3
577.960	1	9
578.130	1	0
578.300	1	-9
578.470	1	1
578.640	1	-11
578.810	1	3
578.979	1	1
579.149	1	-6
579.319	1	7
579.489	1	5
579.659	1	14
579.829	1	8
579.998	1	-2
580.168	1	-5
580.338	1	-10
580.508	1	3
580.678	1	2
580.848	1	0
581.017	1	-1
581.187	1	1
581.357	1	7
581.527	1	6
581.697	1	-3
581.867	1	-3
582.036	1	-2
582.206	1	-2
582.376	1	-11
582.546	1	2
582.716	1	-3
582.885	1	-5
583.055	1	5
583.225	1	8
583.395	1	7
583.565	1	-6
583.735	1	-1
583.904	1	-4
584.074	1	10
584.244	1	6
584.414	1	-7
584.584	1	8
584.753	1	5
584.923	1	12
585.093	1	-8
585.263	1	7
585.433	1	-4
585.602	1	3
585.772	1	-2
585.942	1	-5
586.112	1	2
586.282	1	2
586.451	1	1
586.621	1	3
586.791	1	5
586.961	1	-4
587.131	1	6
587.300	1	8
587.470	1	1
587.640	1	-1
587.810	1	5
587.980	1	-3
588.149	1	0
588.319	1	1
588.489	1	-8
588.659	1	22
588.829	1	-1
588.998	1	2
589.168	1	2
589.338	1	5
589.508	1	12
589.677	1	-11
589.847	1	11
590.017	1	3
590.187	1	5
590.357	1	-8
590.526	1	3
590.696	1	2
590.866	1	4
591.036	1	7
591.205	1	-1
591.375	1	-7
591.545	1	5
591.715	1	-11
591.885	1	4
592.054	1	-9
592.224	1	13
592.394	1	-7
592.564	1	8
592.733	1	11
592.903	1	5
593.073	1	-6
593.243	1	18
593.412	1	10
593.582	1	-6
593.752	1	-1
593.922	1	-5
594.091	1	2
594.261	1	4
594.431	1	6
594.601	1	3
594.771	1	4
594.940	1	-3
595.110	1	2
595.280	1	-2
595.450	1	4
595.619	1	-4
595.789	1	-9
595.959	1	4
596.129	1	-2
596.298	1	15
596.468	1	3
596.638	1	-5
596.808	1	1
596.977	1	2
597.147	1	5
597.317	1	-8
597.487	1	-12
597.656	1	-2
597.826	1	3
597.996	1	2
598.166	1	-1
598.335	1	-5
598.505	1	-1
598.675	1	8
598.844	1	5
599.014	1	-6
599.184	1	7
599.354	1	-1
599.523	1	5
599.693	1	1
599.863	1	0
600.033	1	-6
600.202	1	7
600.372	1	-2
600.542	1	4
600.712	1	0
600.881	1	4
601.051	1	7
601.221	1	-1
601.390	1	0
601.560	1	10
601.730	1	13
601.900	1	8
602.069	1	-1
602.239	1	20
602.409	1	-1
602.578	1	-5
602.748	1	2
602.918	1	5
603.088	1	4
603.257	1	3
603.427	1	3
603.597	1	3
603.767	1	4
603.936	1	-17
604.106	1	-2
604.276	1	7
604.445	1	2
604.615	1	-3
604.785	1	9
604.954	1	-7
605.124	1	2
605.294	1	7
605.464	1	16
605.633	1	4
605.803	1	-3
605.973	1	12
606.142	1	4
606.312	1	1
606.482	1	2
606.652	1	3
606.821	1	-3
606.991	1	7
607.161	1	10
607.330	1	0
607.500	1	-4
607.670	1	-4
607.839	1	-4
608.009	1	2
608.179	1	-3
608.348	1	10
608.518	1	-7
608.688	1	15
608.858	1	0
609.027	1	11
609.197	1	-17
609.367	1	-6
609.536	1	4
609.706	1	-3
609.876	1	19
610.045	1	0
610.215	1	3
610.385	1	2
610.554	1	4
610.724	1	-8
610.894	1	2
611.063	1	0
611.233	1	5
611.403	1	7
611.572	1	5
611.742	1	-3
611.912	1	-6
612.081	1	8
612.251	1	3
612.421	1	3
612.590	1	-5
612.760	1	13
612.930	1	-9
613.099	1	9
613.269	1	-5
613.439	1	1
613.608	1	9
613.778	1	2
613.948	1	7
614.117	1	5
614.287	1	3
614.457	1	-6
614.626	1	13
614.796	1	10
614.966	1	2
615.135	1	3
615.305	1	6
615.475	1	6
615.644	1	-4
615.814	1	0
615.984	1	6
616.153	1	-5
616.323	1	7
616.493	1	2
616.662	1	2
616.832	1	5
617.002	1	3
617.171	1	0
617.341	1	10
617.511	1	-3
617.680	1	13
617.850	1	-2
618.019	1	19
618.189	1	-10
618.359	1	2
618.528	1	3
618.698	1	-4
618.868	1	6
619.037	1	8
619.207	1	6
619.377	1	-1
619.546	1	-8
619.716	1	-2
619.885	1	-2
620.055	1	0
620.225	1	3
620.394	1	8
620.564	1	3
620.734	1	-6
620.903	1	4
621.073	1	3
621.242	1	15
621.412	1	2
621.582	1	-1
621.751	1	1
621.921	1	4
622.091	1	2
622.260	1	2
622.430	1	6
622.599	1	12
622.769	1	4
622.939	1	2
623.108	1	12
623.278	1	5
623.448	1	-2
623.617	1	1
623.787	1	1
623.956	1	2
624.126	1	-6
624.296	1	-1
624.465	1	5
624.635	1	12
624.804	1	6
624.974	1	13
625.144	1	-6
625.313	1	12
625.483	1	2
625.652	1	-3
625.822	1	1
625.992	1	0
626.161	1	6
626.331	1	16
626.501	1	15
626.670	1	2
626.840	1	2
627.009	1	6
627.179	1	5
627.348	1	3
627.518	1	12
627.688	1	-8
627.857	1	12
628.027	1	4
628.196	1	-5
628.366	1	-6
628.536	1	6
628.705	1	2
628.875	1	1
629.044	1	7
629.214	1	6
629.384	1	2
629.553	1	-8
629.723	1	3
629.892	1	17
630.062	1	6
630.232	1	-8
630.401	1	-1
630.571	1	6
630.740	1	11
630.910	1	11
631.079	1	2
631.249	1	4
631.419	1	-7
631.588	1	12
631.758	1	5
631.927	1	1
632.097	1	0
632.266	1	6
632.436	1	6
632.606	1	16
632.775	1	8
632.945	1	3
633.114	1	5
633.284	1	7
633.453	1	-1
633.623	1	1
633.793	1	11
633.962	1	1
634.132	1	4
634.301	1	-4
634.471	1	-2
634.640	1	8
634.810	1	8
634.979	1	3
635.149	1	5
635.319	1	-1
635.488	1	4
635.658	1	6
635.827	1	4
635.997	1	1
636.166	1	5
636.336	1	0
636.505	1	13
636.675	1	8
636.845	1	2
637.014	1	6
637.184	1	8
637.353	1	7
637.523	1	15
637.692	1	0
637.862	1	6
638.031	1	16
638.201	1	0
638.370	1	8
638.540	1	9
638.710	1	0
638.879	1	1
639.049	1	19
639.218	1	9
639.388	1	10
639.557	1	15
639.727	1	5
639.896	1	10
640.066	1	3
640.235	1	-1
640.405	1	10
640.574	1	6
640.744	1	8
640.914	1	7
641.083	1	5
641.253	1	3
641.422	1	-3
641.592	1	4
641.761	1	10
641.931	1	14
642.100	1	-1
642.270	1	-3
642.439	1	10
642.609	1	2
642.778	1	-7
642.948	1	3
643.117	1	5
643.287	1	-2
643.456	1	6
643.626	1	7
643.795	1	0
643.965	1	5
644.134	1	4
644.304	1	11
644.473	1	-1
644.643	1	7
644.812	1	-3
644.982	1	7
645.151	1	6
645.321	1	0
645.490	1	7
645.660	1	0
645.829	1	5
645.999	1	-2
646.168	1	7
646.338	1	-7
646.507	1	-2
646.677	1	2
646.846	1	-5
647.016	1	10
647.185	1	4
647.355	1	7
647.524	1	-1
647.694	1	3
647.863	1	9
648.033	1	10
648.202	1	6
648.372	1	5
648.541	1	1
648.711	1	8
648.880	1	-1
649.050	1	8
649.219	1	5
649.389	1	4
649.558	1	-7
649.728	1	3
649.897	1	1
650.067	1	-4
650.236	1	0
650.406	1	9
650.575	1	9
650.745	1	-2
650.914	1	16
651.084	1	-4
651.253	1	5
651.423	1	24
651.592	1	7
651.762	1	-2
651.931	1	12
652.101	1	1
652.270	1	5
652.440	1	-3
652.609	1	5
652.778	1	-2
652.948	1	9
653.117	1	14
653.287	1	6
653.456	1	-1
653.626	1	4
653.795	1	1
653.965	1	8
654.134	1	2
654.304	1	0
654.473	1	5
654.643	1	-9
654.812	1	4
654.982	1	2
655.151	1	9
655.320	1	2
655.490	1	1
655.659	1	-1
655.829	1	-3
655.998	1	2
656.168	1	4
656.337	1	-2
656.507	1	-3
656.676	1	0
656.846	1	-3
657.015	1	8
657.184	1	3
657.354	1	7
657.523	1	-2
657.693	1	10
657.862	1	11
658.032	1	3
658.201	1	8
658.371	1	4
658.540	1	-4
658.709	1	-5
658.879	1	0
659.048	1	17
659.218	1	11
659.387	1	6
659.557	1	0
659.726	1	12
659.895	1	-2
660.065	1	13
660.234	1	-5
660.404	1	4
660.573	1	8
660.743	1	0
660.912	1	8
661.081	1	2
661.251	1	9
661.420	1	-3
661.590	1	11
661.759	1	5
661.929	1	3
662.098	1	-4
662.267	1	9
662.437	1	-8
662.606	1	2
662.776	1	-3
662.945	1	8
663.115	1	-7
663.284	1	-1
663.453	1	-3
663.623	1	-3
663.792	1	1
663.962	1	-1
664.131	1	-1
664.300	1	-9
664.470	1	-3
664.639	1	1
664.809	1	3
664.978	1	-8
665.148	1	13
665.317	1	2
665.486	1	-11
665.656	1	9
665.825	1	1
665.995	1	-2
666.164	1	6
666.333	1	5
666.503	1	-5
666.672	1	2
666.842	1	10
667.011	1	7
667.180	1	-6
667.350	1	3
667.519	1	3
667.689	1	10
667.858	1	4
668.027	1	-9
668.197	1	1
668.366	1	14
668.536	1	-5
668.705	1	7
668.874	1	4
669.044	1	-9
669.213	1	-7
669.382	1	5
669.552	1	6
669.721	1	5
669.891	1	3
670.060	1	13
670.229	1	2
670.399	1	0
670.568	1	-3
670.738	1	4
670.907	1	-3
671.076	1	4
671.246	1	9
671.415	1	-7
671.584	1	10
671.754	1	10
671.923	1	7
672.093	1	1
672.262	1	-2
672.431	1	7
672.601	1	-1
672.770	1	-14
672.939	1	-1
673.109	1	5
673.278	1	4
673.448	1	4
673.617	1	-1
673.786	1	11
