325.333	1	19
325.504	1	15
325.675	1	12
325.846	1	1
326.017	1	12
326.188	1	18
326.359	1	10
326.531	1	21
326.702	1	17
326.873	1	8
327.044	1	14
327.215	1	-2
327.386	1	8
327.557	1	8
327.728	1	15
327.899	1	14
328.070	1	6
328.241	1	12
328.412	1	1
328.583	1	13
328.754	1	-4
328.926	1	10
329.097	1	15
329.268	1	17
329.439	1	9
329.610	1	19
329.781	1	5
329.952	1	10
330.123	1	3
330.294	1	24
330.465	1	11
330.636	1	17
330.807	1	14
330.978	1	18
331.149	1	5
331.320	1	12
331.492	1	17
331.663	1	11
331.834	1	12
332.005	1	11
332.176	1	14
332.347	1	13
332.518	1	9
332.689	1	15
332.860	1	11
333.031	1	0
333.202	1	11
333.373	1	14
333.544	1	6
333.715	1	7
333.886	1	5
334.057	1	27
334.228	1	13
334.399	1	10
334.570	1	7
334.741	1	3
334.912	1	15
335.084	1	9
335.255	1	11
335.426	1	2
335.597	1	11
335.768	1	9
335.939	1	23
336.110	1	18
336.281	1	5
336.452	1	9
336.623	1	3
336.794	1	19
336.965	1	22
337.136	1	5
337.307	1	10
337.478	1	11
337.649	1	25
337.820	1	16
337.991	1	17
338.162	1	12
338.333	1	16
338.504	1	12
338.675	1	9
338.846	1	17
339.017	1	11
339.188	1	15
339.359	1	16
339.530	1	12
339.701	1	22
339.872	1	9
340.043	1	10
340.214	1	8
340.385	1	-1
340.556	1	3
340.727	1	28
340.898	1	19
341.069	1	9
341.240	1	13
341.411	1	13
341.582	1	13
341.753	1	12
341.924	1	18
342.095	1	10
342.266	1	15
342.437	1	9
342.608	1	21
342.779	1	17
342.950	1	3
343.121	1	8
343.292	1	6
343.463	1	0
343.634	1	1
343.805	1	16
343.976	1	9
344.147	1	7
344.318	1	11
344.489	1	19
344.660	1	15
344.831	1	17
345.002	1	11
345.173	1	7
345.344	1	3
345.515	1	6
345.686	1	8
345.857	1	14
346.028	1	20
346.199	1	11
346.370	1	22
346.541	1	9
346.712	1	14
346.883	1	20
347.054	1	2
347.225	1	13
347.396	1	12
347.567	1	18
347.738	1	13
347.909	1	15
348.080	1	2
348.251	1	9
348.422	1	8
348.593	1	6
348.764	1	8
348.935	1	14
349.106	1	8
349.277	1	21
349.448	1	18
349.619	1	8
349.790	1	29
349.961	1	7
350.132	1	13
350.303	1	6
350.474	1	12
350.645	1	13
350.816	1	16
350.987	1	8
351.157	1	14
351.328	1	14
351.499	1	20
351.670	1	21
351.841	1	23
352.012	1	19
352.183	1	8
352.354	1	22
352.525	1	7
352.696	1	18
352.867	1	10
353.038	1	18
353.209	1	23
353.380	1	19
353.551	1	6
353.722	1	8
353.893	1	8
354.064	1	11
354.235	1	18
354.406	1	19
354.576	1	2
354.747	1	11
354.918	1	27
355.089	1	20
355.260	1	16
355.431	1	14
355.602	1	5
355.773	1	10
355.944	1	16
356.115	1	9
356.286	1	11
356.457	1	10
356.628	1	16
356.799	1	12
356.970	1	9
357.141	1	17
357.311	1	11
357.482	1	15
357.653	1	7
357.824	1	14
357.995	1	15
358.166	1	13
358.337	1	22
358.508	1	5
358.679	1	8
358.850	1	24
359.021	1	11
359.192	1	11
359.363	1	11
359.533	1	14
359.704	1	9
359.875	1	10
360.046	1	21
360.217	1	23
360.388	1	14
360.559	1	15
360.730	1	13
360.901	1	25
361.072	1	6
361.243	1	14
361.414	1	18
361.584	1	18
361.755	1	16
361.926	1	11
362.097	1	9
362.268	1	14
362.439	1	8
362.610	1	26
362.781	1	18
362.952	1	9
363.123	1	3
363.293	1	16
363.464	1	17
363.635	1	19
363.806	1	12
363.977	1	19
364.148	1	20
364.319	1	16
364.490	1	23
364.661	1	7
364.832	1	11
365.002	1	1
365.173	1	10
365.344	1	13
365.515	1	16
365.686	1	17
365.857	1	6
366.028	1	18
366.199	1	5
366.370	1	11
366.540	1	13
366.711	1	19
366.882	1	10
367.053	1	18
367.224	1	13
367.395	1	4
367.566	1	14
367.737	1	20
367.908	1	8
368.078	1	14
368.249	1	13
368.420	1	21
368.591	1	15
368.762	1	21
368.933	1	28
369.104	1	10
369.274	1	12
369.445	1	18
369.616	1	22
369.787	1	16
369.958	1	19
370.129	1	18
370.300	1	13
370.471	1	18
370.641	1	21
370.812	1	8
370.983	1	12
371.154	1	19
371.325	1	20
371.496	1	21
371.667	1	17
371.837	1	22
372.008	1	21
372.179	1	9
372.350	1	10
372.521	1	13
372.692	1	14
372.863	1	17
373.033	1	13
373.204	1	14
373.375	1	10
373.546	1	12
373.717	1	10
373.888	1	18
374.059	1	22
374.229	1	13
374.400	1	15
374.571	1	13
374.742	1	10
374.913	1	10
375.084	1	17
375.254	1	19
375.425	1	17
375.596	1	17
375.767	1	14
375.938	1	11
376.109	1	11
376.279	1	13
376.450	1	20
376.621	1	16
376.792	1	21
376.963	1	23
377.134	1	15
377.304	1	5
377.475	1	18
377.646	1	10
377.817	1	17
377.988	1	7
378.159	1	30
378.329	1	12
378.500	1	19
378.671	1	30
378.842	1	29
379.013	1	34
379.184	1	21
379.354	1	14
379.525	1	26
379.696	1	17
379.867	1	16
380.038	1	31
380.209	1	15
380.379	1	27
380.550	1	18
380.721	1	11
380.892	1	24
381.063	1	10
381.233	1	23
381.404	1	26
381.575	1	26
381.746	1	13
381.917	1	13
382.087	1	16
382.258	1	22
382.429	1	27
382.600	1	21
382.771	1	21
382.941	1	16
383.112	1	16
383.283	1	14
383.454	1	16
383.625	1	14
383.795	1	27
383.966	1	22
384.137	1	24
384.308	1	23
384.479	1	27
384.649	1	21
384.820	1	13
384.991	1	31
385.162	1	10
385.333	1	18
385.503	1	16
385.674	1	22
385.845	1	7
386.016	1	30
386.187	1	4
386.357	1	15
386.528	1	23
386.699	1	12
386.870	1	18
387.041	1	26
387.211	1	27
387.382	1	17
387.553	1	22
387.724	1	16
387.894	1	17
388.065	1	27
388.236	1	33
388.407	1	28
388.578	1	25
388.748	1	36
388.919	1	24
389.090	1	30
389.261	1	29
389.431	1	32
389.602	1	33
389.773	1	24
389.944	1	35
390.114	1	24
390.285	1	30
390.456	1	24
390.627	1	44
390.798	1	31
390.968	1	33
391.139	1	25
391.310	1	25
391.481	1	29
391.651	1	23
391.822	1	27
391.993	1	14
392.164	1	23
392.334	1	32
392.505	1	27
392.676	1	28
392.847	1	28
393.017	1	29
393.188	1	24
393.359	1	28
393.530	1	26
393.700	1	25
393.871	1	23
394.042	1	25
394.213	1	21
394.383	1	22
394.554	1	21
394.725	1	23
394.896	1	17
395.066	1	19
395.237	1	25
395.408	1	21
395.579	1	33
395.749	1	33
395.920	1	15
396.091	1	32
396.262	1	24
396.432	1	22
396.603	1	25
396.774	1	26
396.945	1	38
397.115	1	29
397.286	1	28
397.457	1	31
397.627	1	33
397.798	1	29
397.969	1	34
398.140	1	22
398.310	1	44
398.481	1	20
398.652	1	29
398.823	1	26
398.993	1	27
399.164	1	28
399.335	1	28
399.505	1	30
399.676	1	23
399.847	1	33
400.018	1	32
400.188	1	37
400.359	1	24
400.530	1	32
400.700	1	26
400.871	1	44
401.042	1	28
401.213	1	32
401.383	1	44
401.554	1	40
401.725	1	11
401.895	1	26
402.066	1	34
402.237	1	25
402.408	1	32
402.578	1	30
402.749	1	22
402.920	1	25
403.090	1	27
403.261	1	25
403.432	1	37
403.603	1	22
403.773	1	43
403.944	1	35
404.115	1	32
404.285	1	20
404.456	1	39
404.627	1	35
404.797	1	35
404.968	1	39
405.139	1	42
405.310	1	34
405.480	1	35
405.651	1	28
405.822	1	28
405.992	1	37
406.163	1	27
406.334	1	38
406.504	1	33
406.675	1	32
406.846	1	37
407.016	1	44
407.187	1	33
407.358	1	28
407.528	1	38
407.699	1	32
407.870	1	37
408.041	1	45
408.211	1	34
408.382	1	30
408.553	1	34
408.723	1	48
408.894	1	22
409.065	1	44
409.235	1	37
409.406	1	32
409.577	1	34
409.747	1	26
409.918	1	49
410.089	1	34
410.259	1	41
410.430	1	32
410.601	1	39
410.771	1	30
410.942	1	35
411.113	1	35
411.283	1	38
411.454	1	34
411.625	1	43
411.795	1	51
411.966	1	44
412.137	1	44
412.307	1	31
412.478	1	37
412.649	1	45
412.819	1	31
412.990	1	44
413.161	1	49
413.331	1	45
413.502	1	56
413.672	1	30
413.843	1	40
414.014	1	29
414.184	1	38
414.355	1	41
414.526	1	33
414.696	1	43
414.867	1	41
415.038	1	32
415.208	1	29
415.379	1	37
415.550	1	40
415.720	1	33
415.891	1	41
416.062	1	23
416.232	1	45
416.403	1	28
416.573	1	44
416.744	1	35
416.915	1	35
417.085	1	48
417.256	1	42
417.427	1	37
417.597	1	45
417.768	1	34
417.939	1	30
418.109	1	46
418.280	1	37
418.450	1	41
418.621	1	34
418.792	1	33
418.962	1	35
419.133	1	55
419.304	1	38
419.474	1	42
419.645	1	29
419.815	1	43
419.986	1	50
420.157	1	35
420.327	1	40
420.498	1	29
420.669	1	38
420.839	1	38
421.010	1	40
421.180	1	38
421.351	1	26
421.522	1	35
421.692	1	34
421.863	1	27
422.033	1	45
422.204	1	36
422.375	1	41
422.545	1	49
422.716	1	37
422.886	1	45
423.057	1	42
423.228	1	32
423.398	1	44
423.569	1	29
423.740	1	46
423.910	1	27
424.081	1	40
424.251	1	33
424.422	1	51
424.593	1	38
424.763	1	47
424.934	1	37
425.104	1	39
425.275	1	38
425.445	1	30
425.616	1	40
425.787	1	34
425.957	1	44
426.128	1	45
426.298	1	30
426.469	1	40
426.640	1	31
426.810	1	50
426.981	1	34
427.151	1	32
427.322	1	38
427.493	1	39
427.663	1	38
427.834	1	26
428.004	1	39
428.175	1	32
428.345	1	31
428.516	1	38
428.687	1	35
428.857	1	20
429.028	1	36
429.198	1	38
429.369	1	38
429.540	1	35
429.710	1	43
429.881	1	41
430.051	1	39
430.222	1	46
430.392	1	36
430.563	1	40
430.734	1	34
430.904	1	34
431.075	1	36
431.245	1	30
431.416	1	20
431.586	1	30
431.757	1	41
431.927	1	44
432.098	1	30
432.269	1	43
432.439	1	37
432.610	1	39
432.780	1	22
432.951	1	31
433.121	1	27
433.292	1	31
433.462	1	42
433.633	1	36
433.804	1	38
433.974	1	42
434.145	1	30
434.315	1	48
434.486	1	32
434.656	1	38
434.827	1	41
434.997	1	42
435.168	1	35
435.339	1	43
435.509	1	46
435.680	1	31
435.850	1	30
436.021	1	40
436.191	1	46
436.362	1	48
436.532	1	36
436.703	1	34
436.873	1	35
437.044	1	42
437.214	1	41
437.385	1	41
437.556	1	33
437.726	1	31
437.897	1	32
438.067	1	36
438.238	1	38
438.408	1	40
438.579	1	29
438.749	1	35
438.920	1	36
439.090	1	26
439.261	1	32
439.431	1	36
439.602	1	31
439.772	1	31
439.943	1	38
440.113	1	31
440.284	1	37
440.455	1	36
440.625	1	40
440.796	1	36
440.966	1	36
441.137	1	23
441.307	1	41
441.478	1	22
441.648	1	42
441.819	1	34
441.989	1	33
442.160	1	40
442.330	1	38
442.501	1	23
442.671	1	38
442.842	1	32
443.012	1	31
443.183	1	31
443.353	1	32
443.524	1	20
443.694	1	38
443.865	1	35
444.035	1	36
444.206	1	28
444.376	1	39
444.547	1	30
444.717	1	28
444.888	1	40
445.058	1	42
445.229	1	38
445.399	1	26
445.570	1	34
445.740	1	28
445.911	1	32
446.081	1	26
446.252	1	30
446.422	1	34
446.593	1	35
446.763	1	22
446.934	1	21
447.104	1	40
447.275	1	18
447.445	1	38
447.616	1	32
447.786	1	24
447.957	1	37
448.127	1	26
448.298	1	20
448.468	1	34
448.639	1	37
448.809	1	43
448.979	1	32
449.150	1	34
449.320	1	36
449.491	1	42
449.661	1	26
449.832	1	37
450.002	1	34
450.173	1	39
450.343	1	27
450.514	1	38
450.684	1	39
450.855	1	37
451.025	1	30
451.196	1	37
451.366	1	36
451.537	1	31
451.707	1	41
451.878	1	22
452.048	1	31
452.218	1	32
452.389	1	26
452.559	1	47
452.730	1	39
452.900	1	20
453.071	1	33
453.241	1	39
453.412	1	31
453.582	1	33
453.753	1	36
453.923	1	28
454.093	1	30
454.264	1	37
454.434	1	36
454.605	1	24
454.775	1	31
454.946	1	33
455.116	1	22
455.287	1	45
455.457	1	22
455.628	1	22
455.798	1	14
455.968	1	41
456.139	1	25
456.309	1	29
456.480	1	32
456.650	1	39
456.821	1	31
456.991	1	26
457.161	1	35
457.332	1	39
457.502	1	36
457.673	1	33
457.843	1	27
458.014	1	28
458.184	1	28
458.355	1	35
458.525	1	37
458.695	1	26
458.866	1	25
459.036	1	30
459.207	1	25
459.377	1	32
459.548	1	19
459.718	1	14
459.888	1	30
460.059	1	22
460.229	1	36
460.400	1	48
460.570	1	20
460.740	1	17
460.911	1	35
461.081	1	25
461.252	1	27
461.422	1	14
461.593	1	38
461.763	1	28
461.933	1	16
462.104	1	32
462.274	1	27
462.445	1	23
462.615	1	29
462.785	1	18
462.956	1	29
463.126	1	32
463.297	1	37
463.467	1	30
463.638	1	28
463.808	1	29
463.978	1	24
464.149	1	32
464.319	1	21
464.490	1	23
464.660	1	15
464.830	1	11
465.001	1	30
465.171	1	21
465.342	1	12
465.512	1	32
465.682	1	19
465.853	1	21
466.023	1	34
466.194	1	16
466.364	1	22
466.534	1	21
466.705	1	25
466.875	1	28
467.045	1	24
467.216	1	30
467.386	1	30
467.557	1	12
467.727	1	16
467.897	1	27
468.068	1	20
468.238	1	16
468.409	1	12
468.579	1	34
468.749	1	27
468.920	1	32
469.090	1	26
469.260	1	18
469.431	1	24
469.601	1	38
469.772	1	6
469.942	1	18
470.112	1	28
470.283	1	27
470.453	1	19
470.623	1	30
470.794	1	5
470.964	1	22
471.135	1	15
471.305	1	16
471.475	1	15
471.646	1	23
471.816	1	32
471.986	1	20
472.157	1	22
472.327	1	24
472.497	1	14
472.668	1	6
472.838	1	19
473.009	1	22
473.179	1	23
473.349	1	12
473.520	1	17
473.690	1	24
473.860	1	21
474.031	1	31
474.201	1	13
474.371	1	31
474.542	1	23
474.712	1	20
474.882	1	15
475.053	1	11
475.223	1	20
475.394	1	16
475.564	1	24
475.734	1	17
475.905	1	16
476.075	1	9
476.245	1	11
476.416	1	9
476.586	1	23
476.756	1	20
476.927	1	9
477.097	1	20
477.267	1	16
477.438	1	20
477.608	1	14
477.778	1	17
477.949	1	16
478.119	1	20
478.289	1	17
478.460	1	26
478.630	1	10
478.800	1	15
478.971	1	2
479.141	1	23
479.311	1	20
479.482	1	15
479.652	1	23
479.822	1	15
479.993	1	9
480.163	1	17
480.333	1	18
480.504	1	13
480.674	1	7
480.844	1	21
481.015	1	14
481.185	1	20
481.355	1	13
481.525	1	20
481.696	1	28
481.866	1	15
482.036	1	13
482.207	1	14
482.377	1	12
482.547	1	17
482.718	1	21
482.888	1	20
483.058	1	19
483.229	1	22
483.399	1	5
483.569	1	18
483.740	1	10
483.910	1	16
484.080	1	25
484.250	1	21
484.421	1	24
484.591	1	11
484.761	1	12
484.932	1	13
485.102	1	16
485.272	1	13
485.443	1	21
485.613	1	10
485.783	1	14
485.953	1	16
486.124	1	3
486.294	1	18
486.464	1	17
486.635	1	12
486.805	1	15
486.975	1	17
487.146	1	13
487.316	1	21
487.486	1	10
487.656	1	25
487.827	1	15
487.997	1	15
488.167	1	17
488.338	1	19
488.508	1	23
488.678	1	19
488.848	1	22
489.019	1	15
489.189	1	12
489.359	1	21
489.529	1	17
489.700	1	17
489.870	1	19
490.040	1	22
490.211	1	21
490.381	1	32
490.551	1	6
490.721	1	13
490.892	1	8
491.062	1	12
491.232	1	17
491.402	1	19
491.573	1	15
491.743	1	14
491.913	1	19
492.084	1	13
492.254	1	14
492.424	1	19
492.594	1	13
492.765	1	6
492.935	1	16
493.105	1	19
493.275	1	29
493.446	1	10
493.616	1	16
493.786	1	22
493.956	1	22
494.127	1	22
494.297	1	6
494.467	1	19
494.637	1	13
494.808	1	12
494.978	1	19
495.148	1	3
495.318	1	18
495.489	1	17
495.659	1	13
495.829	1	22
495.999	1	15
496.170	1	9
496.340	1	12
496.510	1	11
496.680	1	20
496.851	1	19
497.021	1	18
497.191	1	16
497.361	1	21
497.532	1	6
497.702	1	1
497.872	1	2
498.042	1	17
498.213	1	21
498.383	1	25
498.553	1	19
498.723	1	4
498.894	1	18
499.064	1	9
499.234	1	23
499.404	1	4
499.574	1	10
499.745	1	10
499.915	1	16
500.085	1	10
500.255	1	18
500.426	1	17
500.596	1	17
500.766	1	14
500.936	1	10
501.106	1	12
501.277	1	8
501.447	1	16
501.617	1	5
501.787	1	6
501.958	1	1
502.128	1	4
502.298	1	11
502.468	1	17
502.638	1	10
502.809	1	14
502.979	1	16
503.149	1	7
503.319	1	16
503.489	1	14
503.660	1	8
503.830	1	12
504.000	1	13
504.170	1	16
504.340	1	17
504.511	1	2
504.681	1	16
504.851	1	22
505.021	1	6
505.192	1	9
505.362	1	14
505.532	1	6
505.702	1	3
505.872	1	16
506.043	1	21
506.213	1	6
506.383	1	10
506.553	1	12
506.723	1	17
506.893	1	13
507.064	1	3
507.234	1	11
507.404	1	13
507.574	1	7
507.744	1	11
507.915	1	7
508.085	1	19
508.255	1	7
508.425	1	13
508.595	1	18
508.766	1	7
508.936	1	13
509.106	1	3
509.276	1	16
509.446	1	5
509.616	1	17
509.787	1	16
509.957	1	14
510.127	1	2
510.297	1	11
510.467	1	16
510.638	1	13
510.808	1	8
510.978	1	17
511.148	1	18
511.318	1	11
511.488	1	14
511.659	1	11
511.829	1	9
511.999	1	17
512.169	1	21
512.339	1	20
512.509	1	-1
512.680	1	5
512.850	1	5
513.020	1	15
513.190	1	4
513.360	1	15
513.530	1	8
513.700	1	15
513.871	1	15
514.041	1	20
514.211	1	21
514.381	1	10
514.551	1	8
514.721	1	16
514.892	1	7
515.062	1	2
515.232	1	11
515.402	1	14
515.572	1	17
515.742	1	9
515.912	1	7
516.083	1	12
516.253	1	4
516.423	1	10
516.593	1	5
516.763	1	0
516.933	1	5
517.104	1	-3
517.274	1	9
517.444	1	-4
517.614	1	12
517.784	1	12
517.954	1	16
518.124	1	20
518.294	1	11
518.465	1	2
518.635	1	16
518.805	1	6
518.975	1	13
519.145	1	9
519.315	1	4
519.485	1	14
519.656	1	12
519.826	1	13
519.996	1	9
520.166	1	9
520.336	1	3
520.506	1	8
520.676	1	3
520.846	1	20
521.017	1	14
521.187	1	8
521.357	1	7
521.527	1	13
521.697	1	13
521.867	1	1
522.037	1	19
522.207	1	4
522.377	1	3
522.548	1	11
522.718	1	14
522.888	1	14
523.058	1	6
523.228	1	7
523.398	1	11
523.568	1	4
523.738	1	17
523.909	1	17
524.079	1	11
524.249	1	5
524.419	1	1
524.589	1	10
524.759	1	2
524.929	1	5
525.099	1	5
525.269	1	8
525.439	1	9
525.610	1	5
525.780	1	-3
525.950	1	13
526.120	1	5
526.290	1	17
526.460	1	9
526.630	1	11
526.800	1	5
526.970	1	10
527.140	1	13
527.311	1	20
527.481	1	20
527.651	1	11
527.821	1	-5
527.991	1	2
528.161	1	5
528.331	1	6
528.501	1	-2
528.671	1	5
528.841	1	9
529.011	1	7
529.181	1	8
529.352	1	0
529.522	1	13
529.692	1	9
529.862	1	11
530.032	1	13
530.202	1	10
530.372	1	13
530.542	1	0
530.712	1	16
530.882	1	10
531.052	1	14
531.222	1	10
531.392	1	11
531.563	1	0
531.733	1	13
531.903	1	10
532.073	1	5
532.243	1	9
532.413	1	14
532.583	1	0
532.753	1	3
532.923	1	1
533.093	1	3
533.263	1	12
533.433	1	6
533.603	1	14
533.773	1	15
533.943	1	7
534.113	1	16
534.284	1	1
534.454	1	5
534.624	1	5
534.794	1	3
534.964	1	8
535.134	1	8
535.304	1	18
535.474	1	21
535.644	1	5
535.814	1	-7
535.984	1	18
536.154	1	13
536.324	1	4
536.494	1	5
536.664	1	10
536.834	1	3
537.004	1	7
537.174	1	3
537.344	1	18
537.514	1	5
537.685	1	11
537.855	1	9
538.025	1	4
538.195	1	-2
538.365	1	10
538.535	1	2
538.705	1	8
538.875	1	8
539.045	1	9
539.215	1	12
539.385	1	13
539.555	1	3
539.725	1	-1
539.895	1	16
540.065	1	6
540.235	1	3
540.405	1	9
540.575	1	12
540.745	1	5
540.915	1	7
541.085	1	10
541.255	1	5
541.425	1	-6
541.595	1	-4
541.765	1	6
541.935	1	12
542.105	1	7
542.275	1	5
542.445	1	7
542.615	1	14
542.785	1	7
542.955	1	12
543.125	1	12
543.295	1	3
543.465	1	6
543.635	1	5
543.805	1	1
543.975	1	9
544.145	1	7
544.315	1	11
544.485	1	2
544.655	1	10
544.825	1	5
544.995	1	1
545.165	1	6
545.335	1	3
545.505	1	8
545.675	1	6
545.845	1	17
546.015	1	1
546.185	1	5
546.355	1	6
546.525	1	2
546.695	1	4
546.865	1	10
547.035	1	0
547.205	1	2
547.375	1	15
547.545	1	9
547.715	1	5
547.885	1	2
548.055	1	15
548.225	1	25
548.395	1	8
548.565	1	2
548.735	1	1
548.905	1	11
549.075	1	6
549.245	1	22
549.415	1	8
549.585	1	1
549.755	1	1
549.925	1	11
550.095	1	11
550.265	1	4
550.435	1	8
550.605	1	5
550.775	1	-8
550.945	1	1
551.115	1	7
551.285	1	8
551.455	1	11
551.625	1	18
551.795	1	17
551.965	1	13
552.135	1	10
552.305	1	13
552.475	1	8
552.645	1	7
552.815	1	7
552.985	1	-5
553.155	1	2
553.325	1	6
553.495	1	9
553.665	1	13
553.835	1	12
554.004	1	10
554.174	1	2
554.344	1	6
554.514	1	2
554.684	1	-10
554.854	1	8
555.024	1	-4
555.194	1	12
555.364	1	3
555.534	1	8
555.704	1	19
555.874	1	13
556.044	1	10
556.214	1	5
556.384	1	4
556.554	1	4
556.724	1	-1
556.894	1	6
557.064	1	8
557.234	1	7
557.404	1	-1
557.573	1	3
557.743	1	-6
557.913	1	8
558.083	1	3
558.253	1	0
558.423	1	8
558.593	1	21
558.763	1	20
558.933	1	9
559.103	1	1
559.273	1	9
559.443	1	-3
559.613	1	-4
559.783	1	4
559.953	1	-10
560.122	1	0
560.292	1	5
560.462	1	-2
560.632	1	5
560.802	1	3
560.972	1	1
561.142	1	-2
561.312	1	4
561.482	1	7
561.652	1	4
561.822	1	6
561.992	1	4
562.162	1	15
562.331	1	12
562.501	1	2
562.671	1	5
562.841	1	0
563.011	1	0
563.181	1	10
563.351	1	5
563.521	1	9
563.691	1	-1
563.861	1	-1
564.031	1	8
564.201	1	11
564.370	1	-2
564.540	1	-1
564.710	1	3
564.880	1	8
565.050	1	9
565.220	1	5
565.390	1	10
565.560	1	14
565.730	1	3
565.900	1	10
566.069	1	6
566.239	1	0
566.409	1	10
566.579	1	5
566.749	1	7
566.919	1	-2
567.089	1	-2
567.259	1	1
567.429	1	9
567.599	1	7
567.768	1	0
567.938	1	10
568.108	1	-1
568.278	1	4
568.448	1	-2
568.618	1	13
568.788	1	8
568.958	1	-8
569.128	1	-9
569.297	1	9
569.467	1	1
569.637	1	18
569.807	1	6
569.977	1	14
570.147	1	13
570.317	1	11
570.487	1	-1
570.656	1	-3
570.826	1	5
570.996	1	5
571.166	1	16
571.336	1	0
571.506	1	6
571.676	1	11
571.846	1	0
572.015	1	3
572.185	1	3
572.355	1	13
572.525	1	1
572.695	1	6
572.865	1	3
573.035	1	12
573.205	1	3
573.374	1	4
573.544	1	-3
573.714	1	8
573.884	1	3
574.054	1	12
574.224	1	13
574.394	1	-3
574.563	1	19
574.733	1	6
574.903	1	10
575.073	1	6
575.243	1	13
575.413	1	9
575.583	1	8
575.752	1	3
575.922	1	5
576.092	1	11
576.262	1	3
576.432	1	17
576.602	1	4
576.772	1	5
576.941	1	10
577.111	1	10
577.281	1	1
577.451	1	4
577.621	1	3
577.791	1	13
577.960	1	15
578.130	1	-1
578.300	1	3
578.470	1	4
578.640	1	-1
578.810	1	-2
578.979	1	10
579.149	1	10
579.319	1	4
579.489	1	4
579.659	1	12
579.829	1	10
579.998	1	5
580.168	1	6
580.338	1	1
580.508	1	8
580.678	1	7
580.848	1	7
581.017	1	-2
581.187	1	6
581.357	1	16
581.527	1	5
581.697	1	-3
581.867	1	15
582.036	1	3
582.206	1	0
582.376	1	8
582.546	1	4
582.716	1	4
582.885	1	5
583.055	1	5
583.225	1	18
583.395	1	6
583.565	1	-1
583.735	1	0
583.904	1	7
584.074	1	16
584.244	1	4
584.414	1	1
584.584	1	2
584.753	1	11
584.923	1	5
585.093	1	-4
585.263	1	2
585.433	1	9
585.602	1	-5
585.772	1	4
585.942	1	11
586.112	1	11
586.282	1	1
586.451	1	6
586.621	1	7
586.791	1	11
586.961	1	-2
587.131	1	5
587.300	1	2
587.470	1	6
587.640	1	-2
587.810	1	7
587.980	1	-3
588.149	1	1
588.319	1	11
588.489	1	-3
588.659	1	14
588.829	1	6
588.998	1	10
589.168	1	8
589.338	1	7
589.508	1	2
589.677	1	6
589.847	1	19
590.017	1	10
590.187	1	1
590.357	1	-6
590.526	1	0
590.696	1	10
590.866	1	13
591.036	1	15
591.205	1	2
591.375	1	-12
591.545	1	10
591.715	1	3
591.885	1	6
592.054	1	1
592.224	1	16
592.394	1	-1
592.564	1	7
592.733	1	11
592.903	1	8
593.073	1	11
593.243	1	8
593.412	1	16
593.582	1	-4
593.752	1	7
593.922	1	-3
594.091	1	4
594.261	1	11
594.431	1	17
594.601	1	10
594.771	1	-5
594.940	1	-2
595.110	1	2
595.280	1	8
595.450	1	9
595.619	1	-3
595.789	1	2
595.959	1	13
596.129	1	10
596.298	1	6
596.468	1	5
596.638	1	-1
596.808	1	-6
596.977	1	11
597.147	1	5
597.317	1	3
597.487	1	-5
597.656	1	0
597.826	1	1
597.996	1	9
598.166	1	1
598.335	1	1
598.505	1	13
598.675	1	2
598.844	1	7
599.014	1	4
599.184	1	6
599.354	1	9
599.523	1	1
599.693	1	10
599.863	1	14
600.033	1	-5
600.202	1	-1
600.372	1	-8
600.542	1	6
600.712	1	3
600.881	1	14
601.051	1	3
601.221	1	12
601.390	1	-1
601.560	1	-4
601.730	1	7
601.900	1	6
602.069	1	5
602.239	1	18
602.409	1	6
602.578	1	10
602.748	1	11
602.918	1	9
603.088	1	12
603.257	1	5
603.427	1	9
603.597	1	3
603.767	1	-3
603.936	1	-13
604.106	1	0
604.276	1	15
604.445	1	13
604.615	1	2
604.785	1	9
604.954	1	4
605.124	1	10
605.294	1	6
605.464	1	12
605.633	1	12
605.803	1	11
605.973	1	9
606.142	1	10
606.312	1	12
606.482	1	2
606.652	1	10
606.821	1	2
606.991	1	11
607.161	1	3
607.330	1	0
607.500	1	0
607.670	1	4
607.839	1	5
608.009	1	4
608.179	1	7
608.348	1	11
608.518	1	3
608.688	1	15
608.858	1	10
609.027	1	16
609.197	1	-3
609.367	1	3
609.536	1	15
609.706	1	-4
609.876	1	16
610.045	1	7
610.215	1	20
610.385	1	3
610.554	1	16
610.724	1	8
610.894	1	7
611.063	1	3
611.233	1	8
611.403	1	12
611.572	1	-3
611.742	1	6
611.912	1	7
612.081	1	8
612.251	1	10
612.421	1	11
612.590	1	-1
612.760	1	18
612.930	1	-2
613.099	1	9
613.269	1	2
613.439	1	7
613.608	1	5
613.778	1	-3
613.948	1	15
614.117	1	3
614.287	1	19
614.457	1	1
614.626	1	8
614.796	1	11
614.966	1	9
615.135	1	8
615.305	1	9
615.475	1	5
615.644	1	-3
615.814	1	5
615.984	1	19
616.153	1	-4
616.323	1	4
616.493	1	13
616.662	1	5
616.832	1	3
617.002	1	6
617.171	1	-7
617.341	1	14
617.511	1	2
617.680	1	18
617.850	1	15
618.019	1	16
618.189	1	7
618.359	1	9
618.528	1	19
618.698	1	-1
618.868	1	-1
619.037	1	12
619.207	1	16
619.377	1	9
619.546	1	0
619.716	1	3
619.885	1	7
620.055	1	-1
620.225	1	9
620.394	1	2
620.564	1	9
620.734	1	3
620.903	1	8
621.073	1	11
621.242	1	13
621.412	1	4
621.582	1	11
621.751	1	-2
621.921	1	11
622.091	1	6
622.260	1	10
622.430	1	13
622.599	1	21
622.769	1	7
622.939	1	5
623.108	1	15
623.278	1	7
623.448	1	-1
623.617	1	3
623.787	1	1
623.956	1	7
624.126	1	-2
624.296	1	5
624.465	1	4
624.635	1	12
624.804	1	7
624.974	1	11
625.144	1	3
625.313	1	17
625.483	1	22
625.652	1	-5
625.822	1	17
625.992	1	1
626.161	1	10
626.331	1	7
626.501	1	27
626.670	1	0
626.840	1	-2
627.009	1	19
627.179	1	18
627.348	1	1
627.518	1	9
627.688	1	5
627.857	1	18
628.027	1	6
628.196	1	0
628.366	1	2
628.536	1	5
628.705	1	7
628.875	1	19
629.044	1	7
629.214	1	19
629.384	1	5
629.553	1	9
629.723	1	9
629.892	1	10
630.062	1	7
630.232	1	-2
630.401	1	10
630.571	1	-2
630.740	1	6
630.910	1	11
631.079	1	7
631.249	1	4
631.419	1	5
631.588	1	12
631.758	1	19
631.927	1	13
632.097	1	5
632.266	1	13
632.436	1	6
632.606	1	6
632.775	1	9
632.945	1	5
633.114	1	5
633.284	1	10
633.453	1	8
633.623	1	13
633.793	1	22
633.962	1	4
634.132	1	-2
634.301	1	10
634.471	1	13
634.640	1	8
634.810	1	15
634.979	1	17
635.149	1	4
635.319	1	8
635.488	1	6
635.658	1	16
635.827	1	3
635.997	1	3
636.166	1	8
636.336	1	17
636.505	1	22
636.675	1	-3
636.845	1	18
637.014	1	22
637.184	1	21
637.353	1	5
637.523	1	15
637.692	1	8
637.862	1	12
638.031	1	12
638.201	1	16
638.370	1	20
638.540	1	15
638.710	1	5
638.879	1	6
639.049	1	16
639.218	1	11
639.388	1	11
639.557	1	21
639.727	1	11
639.896	1	12
640.066	1	15
640.235	1	15
640.405	1	11
640.574	1	19
640.744	1	15
640.914	1	2
641.083	1	1
641.253	1	5
641.422	1	4
641.592	1	7
641.761	1	14
641.931	1	28
642.100	1	7
642.270	1	5
642.439	1	5
642.609	1	13
642.778	1	4
642.948	1	16
643.117	1	9
643.287	1	20
643.456	1	6
643.626	1	8
643.795	1	0
643.965	1	5
644.134	1	16
644.304	1	11
644.473	1	12
644.643	1	11
644.812	1	12
644.982	1	2
645.151	1	9
645.321	1	3
645.490	1	10
645.660	1	11
645.829	1	5
645.999	1	11
646.168	1	5
646.338	1	-2
646.507	1	5
646.677	1	5
646.846	1	10
647.016	1	7
647.185	1	11
647.355	1	13
647.524	1	3
647.694	1	13
647.863	1	15
648.033	1	14
648.202	1	4
648.372	1	10
648.541	1	4
648.711	1	12
648.880	1	8
649.050	1	10
649.219	1	15
649.389	1	-2
649.558	1	7
649.728	1	1
649.897	1	12
650.067	1	4
650.236	1	5
650.406	1	16
650.575	1	12
650.745	1	0
650.914	1	16
651.084	1	6
651.253	1	6
651.423	1	22
651.592	1	16
651.762	1	-3
651.931	1	16
652.101	1	0
652.270	1	14
652.440	1	1
652.609	1	14
652.778	1	5
652.948	1	21
653.117	1	3
653.287	1	14
653.456	1	4
653.626	1	10
653.795	1	4
653.965	1	5
654.134	1	5
654.304	1	12
654.473	1	16
654.643	1	8
654.812	1	4
654.982	1	6
655.151	1	11
655.320	1	8
655.490	1	-9
655.659	1	3
655.829	1	9
655.998	1	17
656.168	1	3
656.337	1	19
656.507	1	8
656.676	1	8
656.846	1	8
657.015	1	4
657.184	1	0
657.354	1	5
657.523	1	16
657.693	1	5
657.862	1	11
658.032	1	11
658.201	1	14
658.371	1	14
658.540	1	3
658.709	1	8
658.879	1	2
659.048	1	9
659.218	1	14
659.387	1	9
659.557	1	0
659.726	1	5
659.895	1	-5
660.065	1	15
660.234	1	-2
660.404	1	14
660.573	1	12
660.743	1	4
660.912	1	12
661.081	1	5
661.251	1	18
661.420	1	5
661.590	1	10
661.759	1	9
661.929	1	6
662.098	1	6
662.267	1	15
662.437	1	5
662.606	1	10
662.776	1	6
662.945	1	11
663.115	1	4
663.284	1	12
663.453	1	17
663.623	1	-7
663.792	1	4
663.962	1	9
664.131	1	11
664.300	1	1
664.470	1	3
664.639	1	5
664.809	1	0
664.978	1	6
665.148	1	9
665.317	1	13
665.486	1	6
665.656	1	13
665.825	1	6
665.995	1	0
666.164	1	15
666.333	1	3
666.503	1	2
666.672	1	2
666.842	1	3
667.011	1	20
667.180	1	-3
667.350	1	10
667.519	1	0
667.689	1	3
667.858	1	11
668.027	1	7
668.197	1	5
668.366	1	14
668.536	1	9
668.705	1	9
668.874	1	4
669.044	1	10
669.213	1	7
669.382	1	5
669.552	1	9
669.721	1	16
669.891	1	4
670.060	1	18
670.229	1	8
670.399	1	14
670.568	1	3
670.738	1	17
670.907	1	7
671.076	1	19
671.246	1	10
671.415	1	7
671.584	1	7
671.754	1	16
671.923	1	4
672.093	1	2
672.262	1	-1
672.431	1	0
672.601	1	6
672.770	1	5
672.939	1	3
673.109	1	24
673.278	1	9
673.448	1	16
673.617	1	12
673.786	1	3
