325.333	1	16
325.504	1	12
325.675	1	7
325.846	1	3
326.017	1	8
326.188	1	20
326.359	1	15
326.531	1	7
326.702	1	19
326.873	1	-3
327.044	1	3
327.215	1	-2
327.386	1	14
327.557	1	6
327.728	1	8
327.899	1	14
328.070	1	7
328.241	1	8
328.412	1	4
328.583	1	13
328.754	1	4
328.926	1	10
329.097	1	10
329.268	1	17
329.439	1	9
329.610	1	18
329.781	1	5
329.952	1	-4
330.123	1	8
330.294	1	17
330.465	1	1
330.636	1	21
330.807	1	15
330.978	1	15
331.149	1	3
331.320	1	18
331.492	1	14
331.663	1	7
331.834	1	8
332.005	1	2
332.176	1	11
332.347	1	15
332.518	1	9
332.689	1	15
332.860	1	14
333.031	1	-1
333.202	1	10
333.373	1	11
333.544	1	9
333.715	1	-5
333.886	1	10
334.057	1	19
334.228	1	7
334.399	1	-2
334.570	1	12
334.741	1	13
334.912	1	11
335.084	1	11
335.255	1	6
335.426	1	9
335.597	1	5
335.768	1	8
335.939	1	11
336.110	1	15
336.281	1	11
336.452	1	11
336.623	1	16
336.794	1	14
336.965	1	19
337.136	1	11
337.307	1	9
337.478	1	-3
337.649	1	20
337.820	1	13
337.991	1	17
338.162	1	17
338.333	1	17
338.504	1	11
338.675	1	11
338.846	1	4
339.017	1	8
339.188	1	15
339.359	1	2
339.530	1	11
339.701	1	22
339.872	1	5
340.043	1	17
340.214	1	10
340.385	1	4
340.556	1	2
340.727	1	19
340.898	1	11
341.069	1	8
341.240	1	3
341.411	1	13
341.582	1	9
341.753	1	12
341.924	1	18
342.095	1	11
342.266	1	8
342.437	1	11
342.608	1	11
342.779	1	16
342.950	1	8
343.121	1	21
343.292	1	15
343.463	1	13
343.634	1	2
343.805	1	20
343.976	1	11
344.147	1	6
344.318	1	11
344.489	1	10
344.660	1	19
344.831	1	5
345.002	1	8
345.173	1	16
345.344	1	9
345.515	1	8
345.686	1	9
345.857	1	12
346.028	1	16
346.199	1	12
346.370	1	20
346.541	1	8
346.712	1	17
346.883	1	7
347.054	1	1
347.225	1	6
347.396	1	9
347.567	1	25
347.738	1	5
347.909	1	9
348.080	1	6
348.251	1	13
348.422	1	-1
348.593	1	1
348.764	1	14
348.935	1	4
349.106	1	3
349.277	1	9
349.448	1	9
349.619	1	2
349.790	1	33
349.961	1	4
350.132	1	10
350.303	1	9
350.474	1	19
350.645	1	7
350.816	1	11
350.987	1	-6
351.157	1	13
351.328	1	4
351.499	1	22
351.670	1	12
351.841	1	13
352.012	1	24
352.183	1	8
352.354	1	14
352.525	1	12
352.696	1	21
352.867	1	14
353.038	1	16
353.209	1	14
353.380	1	14
353.551	1	2
353.722	1	-6
353.893	1	13
354.064	1	20
354.235	1	9
354.406	1	19
354.576	1	3
354.747	1	9
354.918	1	23
355.089	1	11
355.260	1	12
355.431	1	11
355.602	1	14
355.773	1	3
355.944	1	8
356.115	1	13
356.286	1	3
356.457	1	19
356.628	1	11
356.799	1	7
356.970	1	7
357.141	1	15
357.311	1	5
357.482	1	16
357.653	1	5
357.824	1	8
357.995	1	10
358.166	1	10
358.337	1	21
358.508	1	10
358.679	1	4
358.850	1	1
359.021	1	17
359.192	1	9
359.363	1	8
359.533	1	9
359.704	1	15
359.875	1	19
360.046	1	13
360.217	1	14
360.388	1	1
360.559	1	14
360.730	1	6
360.901	1	7
361.072	1	5
361.243	1	24
361.414	1	8
361.584	1	0
361.755	1	17
361.926	1	7
362.097	1	13
362.268	1	9
362.439	1	10
362.610	1	13
362.781	1	0
362.952	1	9
363.123	1	0
363.293	1	9
363.464	1	14
363.635	1	21
363.806	1	24
363.977	1	19
364.148	1	3
364.319	1	15
364.490	1	16
364.661	1	3
364.832	1	11
365.002	1	4
365.173	1	15
365.344	1	1
365.515	1	16
365.686	1	14
365.857	1	8
366.028	1	12
366.199	1	9
366.370	1	-2
366.540	1	13
366.711	1	13
366.882	1	13
367.053	1	9
367.224	1	1
367.395	1	7
367.566	1	12
367.737	1	10
367.908	1	8
368.078	1	1
368.249	1	-3
368.420	1	20
368.591	1	12
368.762	1	12
368.933	1	16
369.104	1	16
369.274	1	5
369.445	1	6
369.616	1	15
369.787	1	10
369.958	1	12
370.129	1	11
370.300	1	14
370.471	1	17
370.641	1	12
370.812	1	7
370.983	1	-1
371.154	1	21
371.325	1	15
371.496	1	0
371.667	1	7
371.837	1	10
372.008	1	6
372.179	1	11
372.350	1	1
372.521	1	5
372.692	1	13
372.863	1	11
373.033	1	6
373.204	1	25
373.375	1	7
373.546	1	8
373.717	1	9
373.888	1	4
374.059	1	10
374.229	1	11
374.400	1	19
374.571	1	6
374.742	1	7
374.913	1	-7
375.084	1	19
375.254	1	12
375.425	1	13
375.596	1	20
375.767	1	8
375.938	1	12
376.109	1	7
376.279	1	-1
376.450	1	12
376.621	1	15
376.792	1	7
376.963	1	9
377.134	1	19
377.304	1	-2
377.475	1	16
377.646	1	3
377.817	1	7
377.988	1	12
378.159	1	7
378.329	1	16
378.500	1	11
378.671	1	6
378.842	1	19
379.013	1	28
379.184	1	11
379.354	1	14
379.525	1	19
379.696	1	20
379.867	1	12
380.038	1	19
380.209	1	8
380.379	1	10
380.550	1	10
380.721	1	21
380.892	1	13
381.063	1	10
381.233	1	21
381.404	1	26
381.575	1	8
381.746	1	5
381.917	1	17
382.087	1	7
382.258	1	16
382.429	1	21
382.600	1	18
382.771	1	20
382.941	1	10
383.112	1	2
383.283	1	17
383.454	1	21
383.625	1	7
383.795	1	15
383.966	1	23
384.137	1	3
384.308	1	22
384.479	1	20
384.649	1	20
384.820	1	8
384.991	1	27
385.162	1	19
385.333	1	13
385.503	1	7
385.674	1	20
385.845	1	12
386.016	1	19
386.187	1	13
386.357	1	5
386.528	1	24
386.699	1	8
386.870	1	20
387.041	1	9
387.211	1	20
387.382	1	13
387.553	1	20
387.724	1	8
387.894	1	11
388.065	1	18
388.236	1	15
388.407	1	24
388.578	1	25
388.748	1	17
388.919	1	12
389.090	1	24
389.261	1	12
389.431	1	28
389.602	1	16
389.773	1	9
389.944	1	20
390.114	1	21
390.285	1	24
390.456	1	18
390.627	1	23
390.798	1	26
390.968	1	29
391.139	1	15
391.310	1	12
391.481	1	13
391.651	1	12
391.822	1	19
391.993	1	7
392.164	1	20
392.334	1	14
392.505	1	18
392.676	1	14
392.847	1	24
393.017	1	13
393.188	1	28
393.359	1	15
393.530	1	11
393.700	1	29
393.871	1	19
394.042	1	28
394.213	1	12
394.383	1	25
394.554	1	15
394.725	1	29
394.896	1	11
395.066	1	25
395.237	1	16
395.408	1	18
395.579	1	13
395.749	1	17
395.920	1	17
396.091	1	19
396.262	1	19
396.432	1	17
396.603	1	28
396.774	1	20
396.945	1	16
397.115	1	29
397.286	1	16
397.457	1	33
397.627	1	24
397.798	1	21
397.969	1	22
398.140	1	21
398.310	1	27
398.481	1	20
398.652	1	28
398.823	1	26
398.993	1	31
399.164	1	20
399.335	1	21
399.505	1	23
399.676	1	25
399.847	1	18
400.018	1	31
400.188	1	29
400.359	1	16
400.530	1	34
400.700	1	25
400.871	1	24
401.042	1	29
401.213	1	21
401.383	1	24
401.554	1	30
401.725	1	12
401.895	1	17
402.066	1	26
402.237	1	29
402.408	1	26
402.578	1	21
402.749	1	16
402.920	1	18
403.090	1	12
403.261	1	20
403.432	1	14
403.603	1	15
403.773	1	21
403.944	1	30
404.115	1	37
404.285	1	16
404.456	1	37
404.627	1	30
404.797	1	15
404.968	1	32
405.139	1	28
405.310	1	18
405.480	1	23
405.651	1	28
405.822	1	15
405.992	1	30
406.163	1	13
406.334	1	32
406.504	1	25
406.675	1	23
406.846	1	33
407.016	1	49
407.187	1	17
407.358	1	32
407.528	1	28
407.699	1	18
407.870	1	28
408.041	1	29
408.211	1	24
408.382	1	26
408.553	1	37
408.723	1	31
408.894	1	20
409.065	1	36
409.235	1	18
409.406	1	40
409.577	1	31
409.747	1	31
409.918	1	37
410.089	1	35
410.259	1	26
410.430	1	22
410.601	1	38
410.771	1	37
410.942	1	32
411.113	1	34
411.283	1	22
411.454	1	47
411.625	1	30
411.795	1	40
411.966	1	23
412.137	1	40
412.307	1	16
412.478	1	22
412.649	1	36
412.819	1	35
412.990	1	35
413.161	1	31
413.331	1	37
413.502	1	20
413.672	1	20
413.843	1	21
414.014	1	25
414.184	1	35
414.355	1	23
414.526	1	34
414.696	1	31
414.867	1	36
415.038	1	33
415.208	1	19
415.379	1	23
415.550	1	30
415.720	1	36
415.891	1	29
416.062	1	27
416.232	1	35
416.403	1	26
416.573	1	30
416.744	1	46
416.915	1	37
417.085	1	40
417.256	1	23
417.427	1	41
417.597	1	36
417.768	1	24
417.939	1	19
418.109	1	30
418.280	1	39
418.450	1	32
418.621	1	35
418.792	1	27
418.962	1	28
419.133	1	38
419.304	1	33
419.474	1	28
419.645	1	35
419.815	1	41
419.986	1	37
420.157	1	35
420.327	1	27
420.498	1	22
420.669	1	27
420.839	1	26
421.010	1	25
421.180	1	33
421.351	1	26
421.522	1	32
421.692	1	37
421.863	1	27
422.033	1	31
422.204	1	21
422.375	1	41
422.545	1	34
422.716	1	29
422.886	1	37
423.057	1	29
423.228	1	32
423.398	1	47
423.569	1	37
423.740	1	35
423.910	1	35
424.081	1	28
424.251	1	29
424.422	1	36
424.593	1	25
424.763	1	42
424.934	1	28
425.104	1	44
425.275	1	34
425.445	1	31
425.616	1	35
425.787	1	35
425.957	1	39
426.128	1	48
426.298	1	25
426.469	1	46
426.640	1	18
426.810	1	34
426.981	1	35
427.151	1	30
427.322	1	31
427.493	1	39
427.663	1	34
427.834	1	23
428.004	1	26
428.175	1	24
428.345	1	40
428.516	1	35
428.687	1	22
428.857	1	22
429.028	1	36
429.198	1	28
429.369	1	40
429.540	1	33
429.710	1	39
429.881	1	40
430.051	1	27
430.222	1	29
430.392	1	34
430.563	1	32
430.734	1	31
430.904	1	29
431.075	1	36
431.245	1	26
431.416	1	32
431.586	1	33
431.757	1	28
431.927	1	30
432.098	1	18
432.269	1	30
432.439	1	40
432.610	1	35
432.780	1	20
432.951	1	14
433.121	1	35
433.292	1	28
433.462	1	37
433.633	1	36
433.804	1	32
433.974	1	33
434.145	1	30
434.315	1	24
434.486	1	40
434.656	1	33
434.827	1	28
434.997	1	30
435.168	1	23
435.339	1	31
435.509	1	35
435.680	1	25
435.850	1	26
436.021	1	39
436.191	1	34
436.362	1	44
436.532	1	27
436.703	1	29
436.873	1	27
437.044	1	35
437.214	1	22
437.385	1	35
437.556	1	26
437.726	1	20
437.897	1	29
438.067	1	33
438.238	1	31
438.408	1	39
438.579	1	23
438.749	1	27
438.920	1	28
439.090	1	33
439.261	1	26
439.431	1	43
439.602	1	34
439.772	1	28
439.943	1	29
440.113	1	33
440.284	1	21
440.455	1	25
440.625	1	32
440.796	1	31
440.966	1	33
441.137	1	20
441.307	1	34
441.478	1	26
441.648	1	33
441.819	1	24
441.989	1	25
442.160	1	27
442.330	1	27
442.501	1	22
442.671	1	30
442.842	1	23
443.012	1	29
443.183	1	32
443.353	1	24
443.524	1	20
443.694	1	30
443.865	1	25
444.035	1	34
444.206	1	28
444.376	1	22
444.547	1	25
444.717	1	25
444.888	1	16
445.058	1	34
445.229	1	25
445.399	1	23
445.570	1	28
445.740	1	27
445.911	1	29
446.081	1	23
446.252	1	17
446.422	1	18
446.593	1	30
446.763	1	24
446.934	1	11
447.104	1	27
447.275	1	36
447.445	1	26
447.616	1	36
447.786	1	25
447.957	1	23
448.127	1	22
448.298	1	19
448.468	1	30
448.639	1	40
448.809	1	24
448.979	1	27
449.150	1	29
449.320	1	22
449.491	1	33
449.661	1	17
449.832	1	24
450.002	1	24
450.173	1	17
450.343	1	14
450.514	1	24
450.684	1	30
450.855	1	27
451.025	1	34
451.196	1	26
451.366	1	23
451.537	1	27
451.707	1	28
451.878	1	24
452.048	1	16
452.218	1	17
452.389	1	38
452.559	1	25
452.730	1	21
452.900	1	22
453.071	1	23
453.241	1	32
453.412	1	28
453.582	1	6
453.753	1	27
453.923	1	24
454.093	1	13
454.264	1	23
454.434	1	23
454.605	1	15
454.775	1	29
454.946	1	16
455.116	1	14
455.287	1	41
455.457	1	15
455.628	1	17
455.798	1	9
455.968	1	22
456.139	1	25
456.309	1	20
456.480	1	25
456.650	1	30
456.821	1	26
456.991	1	34
457.161	1	28
457.332	1	29
457.502	1	36
457.673	1	9
457.843	1	19
458.014	1	18
458.184	1	18
458.355	1	17
458.525	1	22
458.695	1	22
458.866	1	21
459.036	1	15
459.207	1	24
459.377	1	14
459.548	1	16
459.718	1	10
459.888	1	20
460.059	1	14
460.229	1	24
460.400	1	31
460.570	1	17
460.740	1	12
460.911	1	33
461.081	1	33
461.252	1	20
461.422	1	10
461.593	1	34
461.763	1	15
461.933	1	25
462.104	1	29
462.274	1	23
462.445	1	14
462.615	1	25
462.785	1	10
462.956	1	17
463.126	1	18
463.297	1	18
463.467	1	16
463.638	1	23
463.808	1	23
463.978	1	13
464.149	1	23
464.319	1	15
464.490	1	18
464.660	1	12
464.830	1	23
465.001	1	23
465.171	1	13
465.342	1	8
465.512	1	24
465.682	1	13
465.853	1	21
466.023	1	24
466.194	1	26
466.364	1	25
466.534	1	11
466.705	1	21
466.875	1	16
467.045	1	18
467.216	1	27
467.386	1	19
467.557	1	18
467.727	1	19
467.897	1	13
468.068	1	15
468.238	1	12
468.409	1	28
468.579	1	22
468.749	1	27
468.920	1	24
469.090	1	10
469.260	1	13
469.431	1	11
469.601	1	25
469.772	1	7
469.942	1	15
470.112	1	16
470.283	1	20
470.453	1	24
470.623	1	9
470.794	1	6
470.964	1	13
471.135	1	16
471.305	1	16
471.475	1	13
471.646	1	10
471.816	1	13
471.986	1	15
472.157	1	15
472.327	1	8
472.497	1	8
472.668	1	11
472.838	1	5
473.009	1	25
473.179	1	12
473.349	1	8
473.520	1	10
473.690	1	16
473.860	1	16
474.031	1	27
474.201	1	11
474.371	1	26
474.542	1	20
474.712	1	14
474.882	1	5
475.053	1	2
475.223	1	22
475.394	1	5
475.564	1	18
475.734	1	28
475.905	1	13
476.075	1	7
476.245	1	18
476.416	1	10
476.586	1	22
476.756	1	5
476.927	1	19
477.097	1	11
477.267	1	9
477.438	1	19
477.608	1	6
477.778	1	11
477.949	1	4
478.119	1	23
478.289	1	12
478.460	1	9
478.630	1	10
478.800	1	10
478.971	1	8
479.141	1	20
479.311	1	8
479.482	1	11
479.652	1	16
479.822	1	13
479.993	1	6
480.163	1	17
480.333	1	8
480.504	1	21
480.674	1	10
480.844	1	23
481.015	1	9
481.185	1	16
481.355	1	7
481.525	1	7
481.696	1	16
481.866	1	13
482.036	1	3
482.207	1	17
482.377	1	10
482.547	1	18
482.718	1	18
482.888	1	14
483.058	1	11
483.229	1	14
483.399	1	6
483.569	1	12
483.740	1	6
483.910	1	12
484.080	1	19
484.250	1	17
484.421	1	12
484.591	1	9
484.761	1	5
484.932	1	5
485.102	1	8
485.272	1	4
485.443	1	17
485.613	1	9
485.783	1	3
485.953	1	10
486.124	1	13
486.294	1	17
486.464	1	10
486.635	1	15
486.805	1	12
486.975	1	11
487.146	1	3
487.316	1	20
487.486	1	15
487.656	1	20
487.827	1	18
487.997	1	9
488.167	1	17
488.338	1	16
488.508	1	14
488.678	1	4
488.848	1	15
489.019	1	17
489.189	1	5
489.359	1	12
489.529	1	15
489.700	1	1
489.870	1	17
490.040	1	10
490.211	1	28
490.381	1	10
490.551	1	8
490.721	1	16
490.892	1	4
491.062	1	7
491.232	1	19
491.402	1	9
491.573	1	24
491.743	1	7
491.913	1	12
492.084	1	-1
492.254	1	13
492.424	1	5
492.594	1	1
492.765	1	-2
492.935	1	16
493.105	1	14
493.275	1	13
493.446	1	1
493.616	1	5
493.786	1	5
493.956	1	21
494.127	1	20
494.297	1	12
494.467	1	10
494.637	1	18
494.808	1	11
494.978	1	1
495.148	1	-3
495.318	1	10
495.489	1	4
495.659	1	3
495.829	1	5
495.999	1	10
496.170	1	5
496.340	1	19
496.510	1	2
496.680	1	13
496.851	1	9
497.021	1	5
497.191	1	15
497.361	1	1
497.532	1	6
497.702	1	14
497.872	1	4
498.042	1	17
498.213	1	23
498.383	1	9
498.553	1	9
498.723	1	7
498.894	1	16
499.064	1	1
499.234	1	12
499.404	1	7
499.574	1	9
499.745	1	10
499.915	1	20
500.085	1	10
500.255	1	17
500.426	1	2
500.596	1	7
500.766	1	14
500.936	1	7
501.106	1	3
501.277	1	12
501.447	1	6
501.617	1	11
501.787	1	13
501.958	1	2
502.128	1	9
502.298	1	1
502.468	1	3
502.638	1	3
502.809	1	6
502.979	1	9
503.149	1	9
503.319	1	6
503.489	1	13
503.660	1	-2
503.830	1	-2
504.000	1	13
504.170	1	7
504.340	1	11
504.511	1	3
504.681	1	12
504.851	1	6
505.021	1	5
505.192	1	17
505.362	1	14
505.532	1	-5
505.702	1	5
505.872	1	8
506.043	1	12
506.213	1	9
506.383	1	9
506.553	1	9
506.723	1	8
506.893	1	12
507.064	1	5
507.234	1	16
507.404	1	9
507.574	1	-3
507.744	1	7
507.915	1	13
508.085	1	21
508.255	1	-3
508.425	1	4
508.595	1	11
508.766	1	0
508.936	1	5
509.106	1	-1
509.276	1	14
509.446	1	-3
509.616	1	13
509.787	1	-2
509.957	1	13
510.127	1	3
510.297	1	9
510.467	1	3
510.638	1	8
510.808	1	-1
510.978	1	15
511.148	1	16
511.318	1	5
511.488	1	17
511.659	1	7
511.829	1	-1
511.999	1	9
512.169	1	10
512.339	1	6
512.509	1	2
512.680	1	7
512.850	1	9
513.020	1	9
513.190	1	12
513.360	1	9
513.530	1	12
513.700	1	14
513.871	1	6
514.041	1	19
514.211	1	17
514.381	1	4
514.551	1	3
514.721	1	11
514.892	1	3
515.062	1	8
515.232	1	2
515.402	1	14
515.572	1	12
515.742	1	5
515.912	1	12
516.083	1	9
516.253	1	-5
516.423	1	5
516.593	1	9
516.763	1	-1
516.933	1	5
517.104	1	-7
517.274	1	16
517.444	1	4
517.614	1	0
517.784	1	7
517.954	1	17
518.124	1	14
518.294	1	9
518.465	1	0
518.635	1	6
518.805	1	5
518.975	1	15
519.145	1	7
519.315	1	8
519.485	1	15
519.656	1	9
519.826	1	6
519.996	1	8
520.166	1	7
520.336	1	-3
520.506	1	-4
520.676	1	1
520.846	1	12
521.017	1	5
521.187	1	3
521.357	1	7
521.527	1	5
521.697	1	15
521.867	1	0
522.037	1	14
522.207	1	2
522.377	1	7
522.548	1	5
522.718	1	18
522.888	1	12
523.058	1	12
523.228	1	12
523.398	1	11
523.568	1	14
523.738	1	4
523.909	1	12
524.079	1	9
524.249	1	10
524.419	1	5
524.589	1	-1
524.759	1	8
524.929	1	-3
525.099	1	1
525.269	1	-8
525.439	1	7
525.610	1	13
525.780	1	-1
525.950	1	11
526.120	1	4
526.290	1	13
526.460	1	2
526.630	1	11
526.800	1	-7
526.970	1	-1
527.140	1	3
527.311	1	12
527.481	1	10
527.651	1	11
527.821	1	-4
527.991	1	14
528.161	1	-1
528.331	1	-4
528.501	1	2
528.671	1	0
528.841	1	8
529.011	1	-2
529.181	1	5
529.352	1	3
529.522	1	4
529.692	1	8
529.862	1	9
530.032	1	14
530.202	1	3
530.372	1	11
530.542	1	5
530.712	1	7
530.882	1	-1
531.052	1	7
531.222	1	10
531.392	1	2
531.563	1	2
531.733	1	12
531.903	1	9
532.073	1	-5
532.243	1	15
532.413	1	1
532.583	1	3
532.753	1	8
532.923	1	6
533.093	1	12
533.263	1	2
533.433	1	5
533.603	1	6
533.773	1	15
533.943	1	0
534.113	1	10
534.284	1	5
534.454	1	4
534.624	1	0
534.794	1	17
534.964	1	5
535.134	1	3
535.304	1	5
535.474	1	9
535.644	1	3
535.814	1	1
535.984	1	9
536.154	1	12
536.324	1	6
536.494	1	-1
536.664	1	12
536.834	1	11
537.004	1	-8
537.174	1	-4
537.344	1	14
537.514	1	3
537.685	1	16
537.855	1	7
538.025	1	2
538.195	1	5
538.365	1	0
538.535	1	8
538.705	1	5
538.875	1	2
539.045	1	1
539.215	1	11
539.385	1	11
539.555	1	3
539.725	1	4
539.895	1	15
540.065	1	9
540.235	1	0
540.405	1	-5
540.575	1	12
540.745	1	4
540.915	1	9
541.085	1	7
541.255	1	3
541.425	1	0
541.595	1	7
541.765	1	0
541.935	1	16
542.105	1	1
542.275	1	1
542.445	1	-5
542.615	1	10
542.785	1	0
542.955	1	14
543.125	1	10
543.295	1	3
543.465	1	12
543.635	1	-7
543.805	1	-7
543.975	1	5
544.145	1	0
544.315	1	12
544.485	1	0
544.655	1	3
544.825	1	6
544.995	1	6
545.165	1	6
545.335	1	-1
545.505	1	12
545.675	1	4
545.845	1	13
546.015	1	4
546.185	1	9
546.355	1	4
546.525	1	4
546.695	1	2
546.865	1	7
547.035	1	3
547.205	1	9
547.375	1	7
547.545	1	1
547.715	1	4
547.885	1	7
548.055	1	12
548.225	1	7
548.395	1	5
548.565	1	8
548.735	1	-4
548.905	1	9
549.075	1	13
549.245	1	8
549.415	1	11
549.585	1	11
549.755	1	3
549.925	1	11
550.095	1	-3
550.265	1	10
550.435	1	4
550.605	1	6
550.775	1	-1
550.945	1	4
551.115	1	2
551.285	1	-5
551.455	1	18
551.625	1	14
551.795	1	19
551.965	1	4
552.135	1	1
552.305	1	4
552.475	1	2
552.645	1	4
552.815	1	1
552.985	1	-6
553.155	1	6
553.325	1	-6
553.495	1	1
553.665	1	6
553.835	1	22
554.004	1	9
554.174	1	-7
554.344	1	5
554.514	1	6
554.684	1	1
554.854	1	5
555.024	1	-3
555.194	1	17
555.364	1	4
555.534	1	8
555.704	1	8
555.874	1	13
556.044	1	0
556.214	1	7
556.384	1	-2
556.554	1	-6
556.724	1	-2
556.894	1	3
557.064	1	10
557.234	1	8
557.404	1	-1
557.573	1	12
557.743	1	-1
557.913	1	4
558.083	1	7
558.253	1	6
558.423	1	18
558.593	1	5
558.763	1	15
558.933	1	12
559.103	1	5
559.273	1	2
559.443	1	-10
559.613	1	-13
559.783	1	5
559.953	1	-3
560.122	1	1
560.292	1	4
560.462	1	-7
560.632	1	1
560.802	1	-1
560.972	1	-1
561.142	1	-3
561.312	1	-6
561.482	1	4
561.652	1	10
561.822	1	6
561.992	1	-2
562.162	1	20
562.331	1	6
562.501	1	-5
562.671	1	5
562.841	1	5
563.011	1	-6
563.181	1	4
563.351	1	5
563.521	1	3
563.691	1	5
563.861	1	14
564.031	1	12
564.201	1	3
564.370	1	1
564.540	1	-1
564.710	1	-6
564.880	1	-3
565.050	1	9
565.220	1	3
565.390	1	8
565.560	1	7
565.730	1	6
565.900	1	2
566.069	1	22
566.239	1	5
566.409	1	9
566.579	1	-3
566.749	1	1
566.919	1	0
567.089	1	5
567.259	1	13
567.429	1	7
567.599	1	6
567.768	1	-4
567.938	1	12
568.108	1	11
568.278	1	5
568.448	1	3
568.618	1	10
568.788	1	13
568.958	1	0
569.128	1	1
569.297	1	1
569.467	1	-1
569.637	1	13
569.807	1	3
569.977	1	8
570.147	1	6
570.317	1	1
570.487	1	-1
570.656	1	-3
570.826	1	-3
570.996	1	11
571.166	1	16
571.336	1	15
571.506	1	8
571.676	1	9
571.846	1	4
572.015	1	2
572.185	1	-3
572.355	1	7
572.525	1	2
572.695	1	16
572.865	1	8
573.035	1	16
573.205	1	4
573.374	1	-1
573.544	1	-1
573.714	1	1
573.884	1	2
574.054	1	10
574.224	1	7
574.394	1	-4
574.563	1	2
574.733	1	4
574.903	1	13
575.073	1	8
575.243	1	4
575.413	1	8
575.583	1	8
575.752	1	13
575.922	1	2
576.092	1	4
576.262	1	3
576.432	1	4
576.602	1	6
576.772	1	3
576.941	1	0
577.111	1	14
577.281	1	2
577.451	1	-2
577.621	1	4
577.791	1	9
577.960	1	6
578.130	1	-6
578.300	1	5
578.470	1	0
578.640	1	0
578.810	1	-7
578.979	1	2
579.149	1	8
579.319	1	7
579.489	1	12
579.659	1	11
579.829	1	10
579.998	1	2
580.168	1	9
580.338	1	-7
580.508	1	6
580.678	1	-2
580.848	1	-8
581.017	1	2
581.187	1	6
581.357	1	4
581.527	1	2
581.697	1	-3
581.867	1	6
582.036	1	1
582.206	1	5
582.376	1	3
582.546	1	-3
582.716	1	-2
582.885	1	5
583.055	1	19
583.225	1	19
583.395	1	1
583.565	1	-6
583.735	1	-1
583.904	1	3
584.074	1	8
584.244	1	9
584.414	1	3
584.584	1	2
584.753	1	5
584.923	1	12
585.093	1	-1
585.263	1	6
585.433	1	-2
585.602	1	9
585.772	1	-1
585.942	1	3
586.112	1	4
586.282	1	6
586.451	1	0
586.621	1	6
586.791	1	3
586.961	1	4
587.131	1	15
587.300	1	-7
587.470	1	14
587.640	1	5
587.810	1	15
587.980	1	-6
588.149	1	-1
588.319	1	6
588.489	1	14
588.659	1	11
588.829	1	2
588.998	1	2
589.168	1	9
589.338	1	11
589.508	1	1
589.677	1	-6
589.847	1	13
590.017	1	4
590.187	1	4
590.357	1	0
590.526	1	-6
590.696	1	11
590.866	1	16
591.036	1	14
591.205	1	-3
591.375	1	-2
591.545	1	13
591.715	1	-5
591.885	1	2
592.054	1	6
592.224	1	12
592.394	1	3
592.564	1	5
592.733	1	14
592.903	1	3
593.073	1	6
593.243	1	12
593.412	1	12
593.582	1	1
593.752	1	4
593.922	1	-6
594.091	1	10
594.261	1	7
594.431	1	12
594.601	1	8
594.771	1	-2
594.940	1	-4
595.110	1	-2
595.280	1	8
595.450	1	10
595.619	1	5
595.789	1	-1
595.959	1	5
596.129	1	21
596.298	1	17
596.468	1	3
596.638	1	-2
596.808	1	1
596.977	1	9
597.147	1	-1
597.317	1	7
597.487	1	-2
597.656	1	-3
597.826	1	2
597.996	1	7
598.166	1	3
598.335	1	-6
598.505	1	10
598.675	1	8
598.844	1	-4
599.014	1	3
599.184	1	16
599.354	1	3
599.523	1	3
599.693	1	7
599.863	1	5
600.033	1	-4
600.202	1	3
600.372	1	0
600.542	1	4
600.712	1	5
600.881	1	3
601.051	1	1
601.221	1	8
601.390	1	-7
601.560	1	6
601.730	1	-3
601.900	1	-6
602.069	1	3
602.239	1	26
602.409	1	3
602.578	1	6
602.748	1	10
602.918	1	2
603.088	1	7
603.257	1	21
603.427	1	-1
603.597	1	15
603.767	1	-5
603.936	1	-9
604.106	1	0
604.276	1	8
604.445	1	9
604.615	1	-4
604.785	1	10
604.954	1	6
605.124	1	7
605.294	1	5
605.464	1	22
605.633	1	5
605.803	1	1
605.973	1	8
606.142	1	10
606.312	1	6
606.482	1	7
606.652	1	9
606.821	1	1
606.991	1	15
607.161	1	13
607.330	1	-3
607.500	1	3
607.670	1	3
607.839	1	-3
608.009	1	11
608.179	1	5
608.348	1	9
608.518	1	3
608.688	1	8
608.858	1	20
609.027	1	13
609.197	1	-7
609.367	1	-12
609.536	1	11
609.706	1	0
609.876	1	4
610.045	1	2
610.215	1	5
610.385	1	11
610.554	1	5
610.724	1	3
610.894	1	11
611.063	1	2
611.233	1	6
611.403	1	15
611.572	1	0
611.742	1	3
611.912	1	4
612.081	1	7
612.251	1	13
612.421	1	4
612.590	1	6
612.760	1	8
612.930	1	2
613.099	1	10
613.269	1	1
613.439	1	8
613.608	1	4
613.778	1	7
613.948	1	2
614.117	1	6
614.287	1	10
614.457	1	4
614.626	1	5
614.796	1	6
614.966	1	16
615.135	1	13
615.305	1	7
615.475	1	8
615.644	1	-4
615.814	1	0
615.984	1	4
616.153	1	4
616.323	1	15
616.493	1	8
616.662	1	2
616.832	1	7
617.002	1	0
617.171	1	5
617.341	1	11
617.511	1	0
617.680	1	10
617.850	1	8
618.019	1	8
618.189	1	-9
618.359	1	6
618.528	1	4
618.698	1	5
618.868	1	9
619.037	1	9
619.207	1	5
619.377	1	4
619.546	1	-1
619.716	1	4
619.885	1	5
620.055	1	-11
620.225	1	17
620.394	1	6
620.564	1	6
620.734	1	7
620.903	1	8
621.073	1	11
621.242	1	22
621.412	1	3
621.582	1	9
621.751	1	-3
621.921	1	7
622.091	1	3
622.260	1	11
622.430	1	8
622.599	1	7
622.769	1	5
622.939	1	7
623.108	1	7
623.278	1	2
623.448	1	10
623.617	1	-4
623.787	1	6
623.956	1	4
624.126	1	-1
624.296	1	2
624.465	1	5
624.635	1	10
624.804	1	3
624.974	1	6
625.144	1	-1
625.313	1	9
625.483	1	10
625.652	1	9
625.822	1	10
625.992	1	11
626.161	1	11
626.331	1	14
626.501	1	16
626.670	1	1
626.840	1	11
627.009	1	14
627.179	1	11
627.348	1	4
627.518	1	10
627.688	1	1
627.857	1	6
628.027	1	7
628.196	1	2
628.366	1	3
628.536	1	10
628.705	1	8
628.875	1	7
629.044	1	4
629.214	1	4
629.384	1	-1
629.553	1	4
629.723	1	4
629.892	1	12
630.062	1	4
630.232	1	-3
630.401	1	11
630.571	1	14
630.740	1	12
630.910	1	6
631.079	1	13
631.249	1	6
631.419	1	6
631.588	1	13
631.758	1	14
631.927	1	5
632.097	1	19
632.266	1	5
632.436	1	13
632.606	1	13
632.775	1	13
632.945	1	7
633.114	1	5
633.284	1	8
633.453	1	0
633.623	1	4
633.793	1	9
633.962	1	12
634.132	1	4
634.301	1	13
634.471	1	-4
634.640	1	9
634.810	1	18
634.979	1	9
635.149	1	7
635.319	1	-2
635.488	1	-6
635.658	1	20
635.827	1	7
635.997	1	14
636.166	1	14
636.336	1	17
636.505	1	18
636.675	1	2
636.845	1	-1
637.014	1	17
637.184	1	14
637.353	1	8
637.523	1	18
637.692	1	12
637.862	1	4
638.031	1	15
638.201	1	12
638.370	1	19
638.540	1	5
638.710	1	2
638.879	1	8
639.049	1	15
639.218	1	7
639.388	1	6
639.557	1	12
639.727	1	20
639.896	1	17
640.066	1	17
640.235	1	8
640.405	1	7
640.574	1	15
640.744	1	9
640.914	1	5
641.083	1	5
641.253	1	-2
641.422	1	2
641.592	1	0
641.761	1	3
641.931	1	16
642.100	1	7
642.270	1	3
642.439	1	3
642.609	1	14
642.778	1	-3
642.948	1	16
643.117	1	4
643.287	1	4
643.456	1	14
643.626	1	11
643.795	1	2
643.965	1	16
644.134	1	7
644.304	1	23
644.473	1	17
644.643	1	12
644.812	1	-3
644.982	1	-5
645.151	1	4
645.321	1	-3
645.490	1	9
645.660	1	4
645.829	1	6
645.999	1	20
646.168	1	8
646.338	1	2
646.507	1	9
646.677	1	9
646.846	1	8
647.016	1	0
647.185	1	9
647.355	1	6
647.524	1	5
647.694	1	16
647.863	1	10
648.033	1	11
648.202	1	-2
648.372	1	-1
648.541	1	10
648.711	1	16
648.880	1	2
649.050	1	6
649.219	1	8
649.389	1	6
649.558	1	16
649.728	1	4
649.897	1	14
650.067	1	-4
650.236	1	1
650.406	1	14
650.575	1	16
650.745	1	-7
650.914	1	24
651.084	1	12
651.253	1	10
651.423	1	17
651.592	1	5
651.762	1	4
651.931	1	9
652.101	1	7
652.270	1	-2
652.440	1	-5
652.609	1	7
652.778	1	4
652.948	1	6
653.117	1	11
653.287	1	10
653.456	1	8
653.626	1	3
653.795	1	-4
653.965	1	4
654.134	1	-4
654.304	1	4
654.473	1	21
654.643	1	1
654.812	1	-1
654.982	1	11
655.151	1	-2
655.320	1	13
655.490	1	1
655.659	1	11
655.829	1	1
655.998	1	16
656.168	1	7
656.337	1	13
656.507	1	7
656.676	1	7
656.846	1	4
657.015	1	5
657.184	1	8
657.354	1	10
657.523	1	0
657.693	1	15
657.862	1	11
658.032	1	11
658.201	1	9
658.371	1	14
658.540	1	-3
658.709	1	4
658.879	1	-4
659.048	1	20
659.218	1	13
659.387	1	6
659.557	1	6
659.726	1	5
659.895	1	0
660.065	1	8
660.234	1	-5
660.404	1	12
660.573	1	4
660.743	1	-3
660.912	1	5
661.081	1	2
661.251	1	14
661.420	1	0
661.590	1	13
661.759	1	-7
661.929	1	7
662.098	1	7
662.267	1	5
662.437	1	-2
662.606	1	8
662.776	1	0
662.945	1	5
663.115	1	7
663.284	1	2
663.453	1	6
663.623	1	4
663.792	1	4
663.962	1	9
664.131	1	1
664.300	1	-3
664.470	1	9
664.639	1	11
664.809	1	1
664.978	1	-2
665.148	1	16
665.317	1	14
665.486	1	2
665.656	1	12
665.825	1	2
665.995	1	-5
666.164	1	10
666.333	1	1
666.503	1	3
666.672	1	7
666.842	1	7
667.011	1	18
667.180	1	5
667.350	1	9
667.519	1	0
667.689	1	9
667.858	1	-2
668.027	1	8
668.197	1	-4
668.366	1	18
668.536	1	0
668.705	1	14
668.874	1	20
669.044	1	0
669.213	1	-1
669.382	1	7
669.552	1	3
669.721	1	12
669.891	1	4
670.060	1	13
670.229	1	4
670.399	1	7
670.568	1	-4
670.738	1	9
670.907	1	10
671.076	1	1
671.246	1	9
671.415	1	1
671.584	1	10
671.754	1	17
671.923	1	0
672.093	1	8
672.262	1	-1
672.431	1	1
672.601	1	5
672.770	1	9
672.939	1	-4
673.109	1	11
673.278	1	7
673.448	1	3
673.617	1	4
673.786	1	-4
