325.333	1	16
325.504	1	6
325.675	1	11
325.846	1	-5
326.017	1	8
326.188	1	19
326.359	1	4
326.531	1	6
326.702	1	19
326.873	1	0
327.044	1	11
327.215	1	4
327.386	1	10
327.557	1	7
327.728	1	10
327.899	1	13
328.070	1	17
328.241	1	14
328.412	1	-3
328.583	1	12
328.754	1	3
328.926	1	10
329.097	1	3
329.268	1	17
329.439	1	3
329.610	1	18
329.781	1	5
329.952	1	4
330.123	1	15
330.294	1	15
330.465	1	9
330.636	1	22
330.807	1	10
330.978	1	17
331.149	1	6
331.320	1	24
331.492	1	17
331.663	1	7
331.834	1	7
332.005	1	10
332.176	1	13
332.347	1	19
332.518	1	7
332.689	1	14
332.860	1	11
333.031	1	1
333.202	1	4
333.373	1	12
333.544	1	19
333.715	1	6
333.886	1	8
334.057	1	14
334.228	1	4
334.399	1	-5
334.570	1	15
334.741	1	11
334.912	1	8
335.084	1	4
335.255	1	10
335.426	1	3
335.597	1	13
335.768	1	8
335.939	1	17
336.110	1	14
336.281	1	14
336.452	1	14
336.623	1	9
336.794	1	9
336.965	1	18
337.136	1	15
337.307	1	9
337.478	1	3
337.649	1	20
337.820	1	4
337.991	1	20
338.162	1	6
338.333	1	19
338.504	1	7
338.675	1	14
338.846	1	11
339.017	1	7
339.188	1	15
339.359	1	9
339.530	1	13
339.701	1	20
339.872	1	15
340.043	1	15
340.214	1	5
340.385	1	2
340.556	1	14
340.727	1	26
340.898	1	7
341.069	1	3
341.240	1	11
341.411	1	23
341.582	1	3
341.753	1	10
341.924	1	9
342.095	1	10
342.266	1	13
342.437	1	16
342.608	1	7
342.779	1	12
342.950	1	5
343.121	1	12
343.292	1	23
343.463	1	11
343.634	1	7
343.805	1	14
343.976	1	16
344.147	1	10
344.318	1	15
344.489	1	7
344.660	1	15
344.831	1	9
345.002	1	18
345.173	1	11
345.344	1	16
345.515	1	9
345.686	1	5
345.857	1	2
346.028	1	19
346.199	1	9
346.370	1	9
346.541	1	11
346.712	1	5
346.883	1	15
347.054	1	3
347.225	1	18
347.396	1	5
347.567	1	9
347.738	1	12
347.909	1	12
348.080	1	14
348.251	1	18
348.422	1	7
348.593	1	1
348.764	1	12
348.935	1	3
349.106	1	15
349.277	1	11
349.448	1	12
349.619	1	13
349.790	1	27
349.961	1	15
350.132	1	2
350.303	1	14
350.474	1	8
350.645	1	8
350.816	1	12
350.987	1	-3
351.157	1	15
351.328	1	15
351.499	1	21
351.670	1	15
351.841	1	17
352.012	1	18
352.183	1	12
352.354	1	21
352.525	1	15
352.696	1	22
352.867	1	12
353.038	1	18
353.209	1	20
353.380	1	14
353.551	1	9
353.722	1	6
353.893	1	11
354.064	1	15
354.235	1	8
354.406	1	10
354.576	1	5
354.747	1	9
354.918	1	23
355.089	1	10
355.260	1	14
355.431	1	3
355.602	1	9
355.773	1	4
355.944	1	11
356.115	1	3
356.286	1	13
356.457	1	20
356.628	1	-2
356.799	1	13
356.970	1	3
357.141	1	24
357.311	1	9
357.482	1	11
357.653	1	10
357.824	1	10
357.995	1	7
358.166	1	11
358.337	1	14
358.508	1	9
358.679	1	6
358.850	1	4
359.021	1	10
359.192	1	12
359.363	1	8
359.533	1	9
359.704	1	13
359.875	1	18
360.046	1	11
360.217	1	16
360.388	1	6
360.559	1	17
360.730	1	9
360.901	1	18
361.072	1	7
361.243	1	18
361.414	1	11
361.584	1	5
361.755	1	22
361.926	1	7
362.097	1	-1
362.268	1	9
362.439	1	8
362.610	1	10
362.781	1	8
362.952	1	5
363.123	1	7
363.293	1	21
363.464	1	15
363.635	1	17
363.806	1	9
363.977	1	20
364.148	1	4
364.319	1	9
364.490	1	9
364.661	1	9
364.832	1	13
365.002	1	12
365.173	1	4
365.344	1	-1
365.515	1	9
365.686	1	11
365.857	1	1
366.028	1	16
366.199	1	4
366.370	1	-3
366.540	1	7
366.711	1	6
366.882	1	18
367.053	1	16
367.224	1	0
367.395	1	11
367.566	1	7
367.737	1	11
367.908	1	6
368.078	1	7
368.249	1	3
368.420	1	13
368.591	1	5
368.762	1	21
368.933	1	21
369.104	1	11
369.274	1	2
369.445	1	5
369.616	1	14
369.787	1	6
369.958	1	17
370.129	1	19
370.300	1	5
370.471	1	18
370.641	1	18
370.812	1	13
370.983	1	8
371.154	1	15
371.325	1	18
371.496	1	11
371.667	1	7
371.837	1	15
372.008	1	15
372.179	1	16
372.350	1	9
372.521	1	13
372.692	1	11
372.863	1	15
373.033	1	20
373.204	1	23
373.375	1	11
373.546	1	0
373.717	1	9
373.888	1	7
374.059	1	14
374.229	1	11
374.400	1	8
374.571	1	7
374.742	1	12
374.913	1	-1
375.084	1	23
375.254	1	14
375.425	1	10
375.596	1	16
375.767	1	17
375.938	1	0
376.109	1	7
376.279	1	3
376.450	1	9
376.621	1	12
376.792	1	12
376.963	1	17
377.134	1	17
377.304	1	-2
377.475	1	13
377.646	1	14
377.817	1	8
377.988	1	12
378.159	1	22
378.329	1	17
378.500	1	2
378.671	1	22
378.842	1	23
379.013	1	18
379.184	1	11
379.354	1	12
379.525	1	14
379.696	1	9
379.867	1	9
380.038	1	14
380.209	1	10
380.379	1	10
380.550	1	3
380.721	1	22
380.892	1	14
381.063	1	22
381.233	1	9
381.404	1	20
381.575	1	15
381.746	1	7
381.917	1	11
382.087	1	16
382.258	1	18
382.429	1	18
382.600	1	8
382.771	1	15
382.941	1	6
383.112	1	9
383.283	1	11
383.454	1	19
383.625	1	9
383.795	1	22
383.966	1	20
384.137	1	16
384.308	1	23
384.479	1	29
384.649	1	22
384.820	1	20
384.991	1	29
385.162	1	12
385.333	1	19
385.503	1	7
385.674	1	16
385.845	1	6
386.016	1	26
386.187	1	20
386.357	1	12
386.528	1	16
386.699	1	3
386.870	1	17
387.041	1	14
387.211	1	15
387.382	1	22
387.553	1	28
387.724	1	5
387.894	1	16
388.065	1	22
388.236	1	8
388.407	1	25
388.578	1	25
388.748	1	26
388.919	1	14
389.090	1	19
389.261	1	9
389.431	1	29
389.602	1	15
389.773	1	13
389.944	1	14
390.114	1	20
390.285	1	21
390.456	1	17
390.627	1	22
390.798	1	28
390.968	1	25
391.139	1	18
391.310	1	24
391.481	1	20
391.651	1	18
391.822	1	24
391.993	1	8
392.164	1	25
392.334	1	11
392.505	1	14
392.676	1	28
392.847	1	17
393.017	1	14
393.188	1	27
393.359	1	24
393.530	1	19
393.700	1	31
393.871	1	12
394.042	1	14
394.213	1	27
394.383	1	23
394.554	1	15
394.725	1	28
394.896	1	14
395.066	1	21
395.237	1	18
395.408	1	24
395.579	1	26
395.749	1	21
395.920	1	8
396.091	1	30
396.262	1	10
396.432	1	18
396.603	1	26
396.774	1	20
396.945	1	23
397.115	1	31
397.286	1	9
397.457	1	33
397.627	1	22
397.798	1	29
397.969	1	27
398.140	1	23
398.310	1	37
398.481	1	13
398.652	1	21
398.823	1	21
398.993	1	19
399.164	1	21
399.335	1	26
399.505	1	16
399.676	1	18
399.847	1	28
400.018	1	31
400.188	1	29
400.359	1	24
400.530	1	37
400.700	1	20
400.871	1	31
401.042	1	32
401.213	1	19
401.383	1	34
401.554	1	31
401.725	1	22
401.895	1	20
402.066	1	17
402.237	1	29
402.408	1	32
402.578	1	31
402.749	1	32
402.920	1	28
403.090	1	6
403.261	1	24
403.432	1	25
403.603	1	25
403.773	1	28
403.944	1	42
404.115	1	22
404.285	1	22
404.456	1	34
404.627	1	22
404.797	1	22
404.968	1	21
405.139	1	26
405.310	1	22
405.480	1	7
405.651	1	22
405.822	1	19
405.992	1	43
406.163	1	15
406.334	1	40
406.504	1	34
406.675	1	19
406.846	1	21
407.016	1	30
407.187	1	22
407.358	1	23
407.528	1	24
407.699	1	26
407.870	1	24
408.041	1	37
408.211	1	39
408.382	1	26
408.553	1	37
408.723	1	30
408.894	1	19
409.065	1	26
409.235	1	16
409.406	1	37
409.577	1	28
409.747	1	41
409.918	1	35
410.089	1	32
410.259	1	32
410.430	1	26
410.601	1	35
410.771	1	28
410.942	1	26
411.113	1	31
411.283	1	33
411.454	1	35
411.625	1	31
411.795	1	35
411.966	1	39
412.137	1	47
412.307	1	22
412.478	1	35
412.649	1	37
412.819	1	30
412.990	1	28
413.161	1	41
413.331	1	35
413.502	1	37
413.672	1	25
413.843	1	39
414.014	1	28
414.184	1	35
414.355	1	40
414.526	1	32
414.696	1	29
414.867	1	33
415.038	1	32
415.208	1	27
415.379	1	33
415.550	1	23
415.720	1	26
415.891	1	27
416.062	1	24
416.232	1	30
416.403	1	30
416.573	1	28
416.744	1	39
416.915	1	26
417.085	1	33
417.256	1	24
417.427	1	35
417.597	1	42
417.768	1	31
417.939	1	31
418.109	1	37
418.280	1	40
418.450	1	40
418.621	1	31
418.792	1	28
418.962	1	32
419.133	1	42
419.304	1	31
419.474	1	40
419.645	1	27
419.815	1	54
419.986	1	36
420.157	1	39
420.327	1	31
420.498	1	28
420.669	1	27
420.839	1	33
421.010	1	25
421.180	1	29
421.351	1	31
421.522	1	26
421.692	1	47
421.863	1	28
422.033	1	44
422.204	1	32
422.375	1	41
422.545	1	41
422.716	1	36
422.886	1	31
423.057	1	38
423.228	1	24
423.398	1	44
423.569	1	32
423.740	1	29
423.910	1	35
424.081	1	34
424.251	1	27
424.422	1	33
424.593	1	34
424.763	1	38
424.934	1	31
425.104	1	41
425.275	1	35
425.445	1	23
425.616	1	39
425.787	1	30
425.957	1	35
426.128	1	36
426.298	1	18
426.469	1	35
426.640	1	24
426.810	1	32
426.981	1	32
427.151	1	28
427.322	1	35
427.493	1	39
427.663	1	38
427.834	1	26
428.004	1	36
428.175	1	25
428.345	1	27
428.516	1	32
428.687	1	23
428.857	1	25
429.028	1	27
429.198	1	32
429.369	1	27
429.540	1	37
429.710	1	34
429.881	1	32
430.051	1	20
430.222	1	36
430.392	1	40
430.563	1	33
430.734	1	37
430.904	1	32
431.075	1	29
431.245	1	26
431.416	1	25
431.586	1	30
431.757	1	27
431.927	1	40
432.098	1	21
432.269	1	37
432.439	1	34
432.610	1	41
432.780	1	21
432.951	1	27
433.121	1	32
433.292	1	36
433.462	1	34
433.633	1	37
433.804	1	35
433.974	1	36
434.145	1	28
434.315	1	30
434.486	1	31
434.656	1	38
434.827	1	30
434.997	1	37
435.168	1	33
435.339	1	24
435.509	1	37
435.680	1	23
435.850	1	30
436.021	1	26
436.191	1	36
436.362	1	39
436.532	1	22
436.703	1	44
436.873	1	33
437.044	1	34
437.214	1	27
437.385	1	26
437.556	1	29
437.726	1	19
437.897	1	15
438.067	1	36
438.238	1	38
438.408	1	36
438.579	1	32
438.749	1	36
438.920	1	30
439.090	1	31
439.261	1	32
439.431	1	22
439.602	1	24
439.772	1	25
439.943	1	23
440.113	1	26
440.284	1	31
440.455	1	25
440.625	1	41
440.796	1	29
440.966	1	28
441.137	1	18
441.307	1	39
441.478	1	19
441.648	1	33
441.819	1	24
441.989	1	31
442.160	1	21
442.330	1	37
442.501	1	30
442.671	1	23
442.842	1	37
443.012	1	36
443.183	1	28
443.353	1	33
443.524	1	23
443.694	1	29
443.865	1	23
444.035	1	31
444.206	1	28
444.376	1	26
444.547	1	22
444.717	1	29
444.888	1	32
445.058	1	22
445.229	1	38
445.399	1	28
445.570	1	17
445.740	1	22
445.911	1	13
446.081	1	18
446.252	1	11
446.422	1	25
446.593	1	19
446.763	1	23
446.934	1	19
447.104	1	25
447.275	1	15
447.445	1	46
447.616	1	34
447.786	1	29
447.957	1	33
448.127	1	27
448.298	1	26
448.468	1	18
448.639	1	35
448.809	1	35
448.979	1	26
449.150	1	24
449.320	1	29
449.491	1	32
449.661	1	29
449.832	1	27
450.002	1	23
450.173	1	26
450.343	1	21
450.514	1	30
450.684	1	32
450.855	1	30
451.025	1	31
451.196	1	27
451.366	1	36
451.537	1	22
451.707	1	22
451.878	1	31
452.048	1	24
452.218	1	16
452.389	1	31
452.559	1	44
452.730	1	22
452.900	1	22
453.071	1	19
453.241	1	30
453.412	1	35
453.582	1	18
453.753	1	31
453.923	1	30
454.093	1	18
454.264	1	26
454.434	1	29
454.605	1	17
454.775	1	19
454.946	1	25
455.116	1	20
455.287	1	34
455.457	1	28
455.628	1	3
455.798	1	18
455.968	1	17
456.139	1	26
456.309	1	34
456.480	1	22
456.650	1	32
456.821	1	26
456.991	1	29
457.161	1	32
457.332	1	36
457.502	1	44
457.673	1	18
457.843	1	27
458.014	1	26
458.184	1	17
458.355	1	35
458.525	1	30
458.695	1	12
458.866	1	22
459.036	1	19
459.207	1	14
459.377	1	27
459.548	1	11
459.718	1	16
459.888	1	18
460.059	1	16
460.229	1	20
460.400	1	29
460.570	1	18
460.740	1	22
460.911	1	36
461.081	1	18
461.252	1	22
461.422	1	21
461.593	1	25
461.763	1	20
461.933	1	22
462.104	1	19
462.274	1	14
462.445	1	27
462.615	1	23
462.785	1	14
462.956	1	24
463.126	1	13
463.297	1	23
463.467	1	23
463.638	1	20
463.808	1	18
463.978	1	14
464.149	1	19
464.319	1	17
464.490	1	21
464.660	1	13
464.830	1	11
465.001	1	29
465.171	1	14
465.342	1	12
465.512	1	8
465.682	1	30
465.853	1	6
466.023	1	29
466.194	1	29
466.364	1	13
466.534	1	19
466.705	1	23
466.875	1	24
467.045	1	24
467.216	1	14
467.386	1	28
467.557	1	23
467.727	1	-1
467.897	1	19
468.068	1	6
468.238	1	3
468.409	1	16
468.579	1	21
468.749	1	28
468.920	1	23
469.090	1	13
469.260	1	10
469.431	1	17
469.601	1	21
469.772	1	9
469.942	1	11
470.112	1	10
470.283	1	20
470.453	1	24
470.623	1	15
470.794	1	17
470.964	1	10
471.135	1	8
471.305	1	14
471.475	1	15
471.646	1	17
471.816	1	23
471.986	1	10
472.157	1	4
472.327	1	11
472.497	1	11
472.668	1	10
472.838	1	9
473.009	1	22
473.179	1	14
473.349	1	16
473.520	1	14
473.690	1	19
473.860	1	11
474.031	1	27
474.201	1	21
474.371	1	35
474.542	1	25
474.712	1	20
474.882	1	8
475.053	1	3
475.223	1	16
475.394	1	5
475.564	1	19
475.734	1	25
475.905	1	6
476.075	1	10
476.245	1	5
476.416	1	11
476.586	1	16
476.756	1	11
476.927	1	6
477.097	1	7
477.267	1	13
477.438	1	10
477.608	1	6
477.778	1	14
477.949	1	14
478.119	1	12
478.289	1	14
478.460	1	6
478.630	1	18
478.800	1	11
478.971	1	10
479.141	1	20
479.311	1	22
479.482	1	8
479.652	1	23
479.822	1	17
479.993	1	12
480.163	1	6
480.333	1	14
480.504	1	12
480.674	1	14
480.844	1	15
481.015	1	11
481.185	1	16
481.355	1	16
481.525	1	13
481.696	1	15
481.866	1	8
482.036	1	8
482.207	1	15
482.377	1	5
482.547	1	21
482.718	1	22
482.888	1	20
483.058	1	9
483.229	1	20
483.399	1	16
483.569	1	13
483.740	1	7
483.910	1	12
484.080	1	16
484.250	1	10
484.421	1	12
484.591	1	12
484.761	1	5
484.932	1	14
485.102	1	13
485.272	1	15
485.443	1	23
485.613	1	9
485.783	1	16
485.953	1	16
486.124	1	15
486.294	1	13
486.464	1	13
486.635	1	6
486.805	1	18
486.975	1	20
487.146	1	11
487.316	1	16
487.486	1	9
487.656	1	29
487.827	1	11
487.997	1	0
488.167	1	22
488.338	1	20
488.508	1	8
488.678	1	17
488.848	1	14
489.019	1	15
489.189	1	12
489.359	1	16
489.529	1	9
489.700	1	0
489.870	1	20
490.040	1	16
490.211	1	22
490.381	1	24
490.551	1	12
490.721	1	15
490.892	1	1
491.062	1	4
491.232	1	8
491.402	1	14
491.573	1	21
491.743	1	14
491.913	1	23
492.084	1	11
492.254	1	7
492.424	1	13
492.594	1	6
492.765	1	-7
492.935	1	13
493.105	1	16
493.275	1	15
493.446	1	6
493.616	1	10
493.786	1	12
493.956	1	20
494.127	1	9
494.297	1	9
494.467	1	8
494.637	1	14
494.808	1	16
494.978	1	10
495.148	1	2
495.318	1	13
495.489	1	4
495.659	1	19
495.829	1	14
495.999	1	6
496.170	1	3
496.340	1	13
496.510	1	5
496.680	1	25
496.851	1	16
497.021	1	11
497.191	1	13
497.361	1	13
497.532	1	7
497.702	1	13
497.872	1	5
498.042	1	15
498.213	1	21
498.383	1	18
498.553	1	10
498.723	1	3
498.894	1	10
499.064	1	5
499.234	1	17
499.404	1	5
499.574	1	4
499.745	1	13
499.915	1	15
500.085	1	11
500.255	1	10
500.426	1	2
500.596	1	4
500.766	1	10
500.936	1	9
501.106	1	8
501.277	1	8
501.447	1	3
501.617	1	8
501.787	1	13
501.958	1	0
502.128	1	18
502.298	1	10
502.468	1	10
502.638	1	1
502.809	1	5
502.979	1	11
503.149	1	14
503.319	1	8
503.489	1	14
503.660	1	10
503.830	1	8
504.000	1	7
504.170	1	9
504.340	1	11
504.511	1	4
504.681	1	6
504.851	1	9
505.021	1	13
505.192	1	14
505.362	1	15
505.532	1	2
505.702	1	18
505.872	1	11
506.043	1	11
506.213	1	6
506.383	1	8
506.553	1	15
506.723	1	3
506.893	1	8
507.064	1	10
507.234	1	11
507.404	1	7
507.574	1	2
507.744	1	15
507.915	1	10
508.085	1	11
508.255	1	-3
508.425	1	10
508.595	1	9
508.766	1	9
508.936	1	11
509.106	1	5
509.276	1	15
509.446	1	8
509.616	1	10
509.787	1	8
509.957	1	22
510.127	1	6
510.297	1	15
510.467	1	9
510.638	1	5
510.808	1	8
510.978	1	9
511.148	1	15
511.318	1	15
511.488	1	8
511.659	1	14
511.829	1	1
511.999	1	18
512.169	1	18
512.339	1	6
512.509	1	2
512.680	1	14
512.850	1	2
513.020	1	10
513.190	1	6
513.360	1	9
513.530	1	10
513.700	1	14
513.871	1	12
514.041	1	7
514.211	1	16
514.381	1	6
514.551	1	11
514.721	1	11
514.892	1	4
515.062	1	14
515.232	1	6
515.402	1	14
515.572	1	2
515.742	1	8
515.912	1	6
516.083	1	5
516.253	1	3
516.423	1	5
516.593	1	5
516.763	1	6
516.933	1	-8
517.104	1	-4
517.274	1	16
517.444	1	6
517.614	1	3
517.784	1	15
517.954	1	17
518.124	1	27
518.294	1	7
518.465	1	11
518.635	1	10
518.805	1	-1
518.975	1	5
519.145	1	4
519.315	1	15
519.485	1	14
519.656	1	10
519.826	1	4
519.996	1	9
520.166	1	6
520.336	1	0
520.506	1	1
520.676	1	2
520.846	1	17
521.017	1	11
521.187	1	8
521.357	1	5
521.527	1	0
521.697	1	6
521.867	1	3
522.037	1	16
522.207	1	7
522.377	1	-1
522.548	1	11
522.718	1	10
522.888	1	22
523.058	1	3
523.228	1	8
523.398	1	13
523.568	1	5
523.738	1	4
523.909	1	11
524.079	1	9
524.249	1	8
524.419	1	1
524.589	1	3
524.759	1	-1
524.929	1	1
525.099	1	10
525.269	1	3
525.439	1	-4
525.610	1	12
525.780	1	8
525.950	1	9
526.120	1	7
526.290	1	7
526.460	1	9
526.630	1	9
526.800	1	-4
526.970	1	1
527.140	1	13
527.311	1	10
527.481	1	10
527.651	1	13
527.821	1	-3
527.991	1	4
528.161	1	12
528.331	1	5
528.501	1	2
528.671	1	7
528.841	1	17
529.011	1	2
529.181	1	7
529.352	1	6
529.522	1	2
529.692	1	6
529.862	1	2
530.032	1	17
530.202	1	9
530.372	1	-1
530.542	1	-4
530.712	1	5
530.882	1	5
531.052	1	12
531.222	1	4
531.392	1	3
531.563	1	4
531.733	1	8
531.903	1	7
532.073	1	6
532.243	1	8
532.413	1	18
532.583	1	-8
532.753	1	9
532.923	1	5
533.093	1	5
533.263	1	3
533.433	1	2
533.603	1	17
533.773	1	8
533.943	1	1
534.113	1	7
534.284	1	2
534.454	1	6
534.624	1	12
534.794	1	8
534.964	1	6
535.134	1	5
535.304	1	15
535.474	1	9
535.644	1	0
535.814	1	6
535.984	1	12
536.154	1	8
536.324	1	3
536.494	1	3
536.664	1	10
536.834	1	10
537.004	1	2
537.174	1	1
537.344	1	11
537.514	1	-2
537.685	1	-3
537.855	1	4
538.025	1	-5
538.195	1	7
538.365	1	11
538.535	1	12
538.705	1	10
538.875	1	7
539.045	1	3
539.215	1	14
539.385	1	9
539.555	1	-2
539.725	1	0
539.895	1	13
540.065	1	4
540.235	1	-4
540.405	1	-3
540.575	1	9
540.745	1	16
540.915	1	9
541.085	1	-1
541.255	1	6
541.425	1	1
541.595	1	-3
541.765	1	1
541.935	1	8
542.105	1	4
542.275	1	0
542.445	1	4
542.615	1	8
542.785	1	15
542.955	1	15
543.125	1	-2
543.295	1	2
543.465	1	6
543.635	1	8
543.805	1	-9
543.975	1	-1
544.145	1	-3
544.315	1	12
544.485	1	-9
544.655	1	10
544.825	1	9
544.995	1	8
545.165	1	16
545.335	1	-3
545.505	1	7
545.675	1	11
545.845	1	16
546.015	1	2
546.185	1	10
546.355	1	5
546.525	1	6
546.695	1	16
546.865	1	2
547.035	1	-1
547.205	1	7
547.375	1	9
547.545	1	13
547.715	1	-7
547.885	1	-3
548.055	1	20
548.225	1	5
548.395	1	4
548.565	1	11
548.735	1	-6
548.905	1	13
549.075	1	6
549.245	1	13
549.415	1	3
549.585	1	6
549.755	1	1
549.925	1	0
550.095	1	6
550.265	1	11
550.435	1	15
550.605	1	2
550.775	1	-4
550.945	1	8
551.115	1	2
551.285	1	10
551.455	1	10
551.625	1	15
551.795	1	9
551.965	1	-3
552.135	1	16
552.305	1	16
552.475	1	13
552.645	1	1
552.815	1	11
552.985	1	-4
553.155	1	-1
553.325	1	12
553.495	1	2
553.665	1	12
553.835	1	10
554.004	1	7
554.174	1	-6
554.344	1	17
554.514	1	8
554.684	1	5
554.854	1	8
555.024	1	-4
555.194	1	17
555.364	1	4
555.534	1	8
555.704	1	4
555.874	1	15
556.044	1	7
556.214	1	1
556.384	1	3
556.554	1	-2
556.724	1	5
556.894	1	7
557.064	1	14
557.234	1	14
557.404	1	-3
557.573	1	-1
557.743	1	1
557.913	1	10
558.083	1	5
558.253	1	2
558.423	1	6
558.593	1	11
558.763	1	12
558.933	1	3
559.103	1	0
559.273	1	8
559.443	1	-2
559.613	1	-8
559.783	1	10
559.953	1	-7
560.122	1	0
560.292	1	0
560.462	1	-4
560.632	1	11
560.802	1	8
560.972	1	1
561.142	1	-5
561.312	1	1
561.482	1	17
561.652	1	4
561.822	1	9
561.992	1	6
562.162	1	12
562.331	1	1
562.501	1	9
562.671	1	3
562.841	1	5
563.011	1	2
563.181	1	6
563.351	1	-1
563.521	1	8
563.691	1	-3
563.861	1	10
564.031	1	11
564.201	1	11
564.370	1	2
564.540	1	0
564.710	1	-4
564.880	1	0
565.050	1	9
565.220	1	7
565.390	1	8
565.560	1	16
565.730	1	5
565.900	1	4
566.069	1	8
566.239	1	9
566.409	1	11
566.579	1	12
566.749	1	1
566.919	1	-1
567.089	1	1
567.259	1	8
567.429	1	1
567.599	1	8
567.768	1	6
567.938	1	6
568.108	1	-1
568.278	1	11
568.448	1	10
568.618	1	15
568.788	1	6
568.958	1	-5
569.128	1	-3
569.297	1	15
569.467	1	-3
569.637	1	11
569.807	1	0
569.977	1	10
570.147	1	3
570.317	1	5
570.487	1	0
570.656	1	5
570.826	1	2
570.996	1	4
571.166	1	8
571.336	1	8
571.506	1	2
571.676	1	7
571.846	1	12
572.015	1	4
572.185	1	6
572.355	1	11
572.525	1	-2
572.695	1	9
572.865	1	-2
573.035	1	14
573.205	1	0
573.374	1	10
573.544	1	1
573.714	1	6
573.884	1	2
574.054	1	8
574.224	1	10
574.394	1	-4
574.563	1	11
574.733	1	14
574.903	1	0
575.073	1	11
575.243	1	5
575.413	1	3
575.583	1	12
575.752	1	-1
575.922	1	10
576.092	1	6
576.262	1	-7
576.432	1	15
576.602	1	8
576.772	1	4
576.941	1	4
577.111	1	6
577.281	1	-9
577.451	1	7
577.621	1	1
577.791	1	3
577.960	1	3
578.130	1	5
578.300	1	2
578.470	1	3
578.640	1	-5
578.810	1	1
578.979	1	-2
579.149	1	6
579.319	1	3
579.489	1	11
579.659	1	4
579.829	1	13
579.998	1	10
580.168	1	6
580.338	1	4
580.508	1	8
580.678	1	4
580.848	1	-6
581.017	1	-6
581.187	1	8
581.357	1	1
581.527	1	6
581.697	1	0
581.867	1	14
582.036	1	6
582.206	1	1
582.376	1	15
582.546	1	-2
582.716	1	-11
582.885	1	1
583.055	1	6
583.225	1	20
583.395	1	1
583.565	1	1
583.735	1	10
583.904	1	12
584.074	1	3
584.244	1	4
584.414	1	3
584.584	1	2
584.753	1	0
584.923	1	6
585.093	1	-3
585.263	1	1
585.433	1	-3
585.602	1	10
585.772	1	4
585.942	1	1
586.112	1	6
586.282	1	1
586.451	1	4
586.621	1	5
586.791	1	10
586.961	1	-5
587.131	1	5
587.300	1	2
587.470	1	10
587.640	1	5
587.810	1	7
587.980	1	9
588.149	1	6
588.319	1	1
588.489	1	1
588.659	1	21
588.829	1	5
588.998	1	13
589.168	1	9
589.338	1	11
589.508	1	-2
589.677	1	-10
589.847	1	21
590.017	1	3
590.187	1	6
590.357	1	-3
590.526	1	2
590.696	1	5
590.866	1	18
591.036	1	10
591.205	1	8
591.375	1	-2
591.545	1	13
591.715	1	-10
591.885	1	1
592.054	1	6
592.224	1	16
592.394	1	7
592.564	1	7
592.733	1	11
592.903	1	6
593.073	1	-1
593.243	1	11
593.412	1	14
593.582	1	1
593.752	1	-1
593.922	1	-6
594.091	1	11
594.261	1	6
594.431	1	10
594.601	1	-2
594.771	1	1
594.940	1	2
595.110	1	-1
595.280	1	7
595.450	1	10
595.619	1	0
595.789	1	-2
595.959	1	11
596.129	1	7
596.298	1	16
596.468	1	4
596.638	1	-3
596.808	1	3
596.977	1	6
597.147	1	-1
597.317	1	4
597.487	1	-1
597.656	1	2
597.826	1	-5
597.996	1	11
598.166	1	1
598.335	1	3
598.505	1	4
598.675	1	-2
598.844	1	9
599.014	1	3
599.184	1	4
599.354	1	12
599.523	1	6
599.693	1	3
599.863	1	11
600.033	1	-1
600.202	1	3
600.372	1	7
600.542	1	-3
600.712	1	7
600.881	1	0
601.051	1	6
601.221	1	9
601.390	1	4
601.560	1	2
601.730	1	1
601.900	1	2
602.069	1	6
602.239	1	20
602.409	1	2
602.578	1	5
602.748	1	7
602.918	1	2
603.088	1	-1
603.257	1	13
603.427	1	5
603.597	1	12
603.767	1	-3
603.936	1	-8
604.106	1	5
604.276	1	4
604.445	1	0
604.615	1	0
604.785	1	6
604.954	1	6
605.124	1	9
605.294	1	9
605.464	1	20
605.633	1	5
605.803	1	5
605.973	1	10
606.142	1	7
606.312	1	10
606.482	1	5
606.652	1	0
606.821	1	6
606.991	1	12
607.161	1	3
607.330	1	2
607.500	1	-5
607.670	1	1
607.839	1	13
608.009	1	1
608.179	1	-1
608.348	1	11
608.518	1	3
608.688	1	18
608.858	1	11
609.027	1	8
609.197	1	-2
609.367	1	1
609.536	1	7
609.706	1	3
609.876	1	8
610.045	1	12
610.215	1	8
610.385	1	8
610.554	1	9
610.724	1	13
610.894	1	11
611.063	1	-3
611.233	1	3
611.403	1	16
611.572	1	-5
611.742	1	1
611.912	1	4
612.081	1	6
612.251	1	10
612.421	1	4
612.590	1	2
612.760	1	12
612.930	1	0
613.099	1	14
613.269	1	5
613.439	1	10
613.608	1	0
613.778	1	8
613.948	1	12
614.117	1	10
614.287	1	18
614.457	1	8
614.626	1	12
614.796	1	6
614.966	1	4
615.135	1	10
615.305	1	4
615.475	1	2
615.644	1	-10
615.814	1	8
615.984	1	14
616.153	1	-2
616.323	1	11
616.493	1	19
616.662	1	7
616.832	1	3
617.002	1	-4
617.171	1	7
617.341	1	9
617.511	1	-2
617.680	1	14
617.850	1	12
618.019	1	16
618.189	1	5
618.359	1	11
618.528	1	14
618.698	1	-3
618.868	1	7
619.037	1	6
619.207	1	7
619.377	1	0
619.546	1	8
619.716	1	1
619.885	1	17
620.055	1	2
620.225	1	10
620.394	1	9
620.564	1	13
620.734	1	-2
620.903	1	4
621.073	1	0
621.242	1	16
621.412	1	6
621.582	1	17
621.751	1	11
621.921	1	6
622.091	1	8
622.260	1	8
622.430	1	7
622.599	1	14
622.769	1	2
622.939	1	8
623.108	1	11
623.278	1	15
623.448	1	6
623.617	1	6
623.787	1	12
623.956	1	-3
624.126	1	0
624.296	1	4
624.465	1	5
624.635	1	25
624.804	1	4
624.974	1	9
625.144	1	-5
625.313	1	10
625.483	1	3
625.652	1	11
625.822	1	16
625.992	1	4
626.161	1	11
626.331	1	15
626.501	1	20
626.670	1	1
626.840	1	9
627.009	1	9
627.179	1	10
627.348	1	6
627.518	1	14
627.688	1	0
627.857	1	12
628.027	1	7
628.196	1	2
628.366	1	9
628.536	1	13
628.705	1	5
628.875	1	9
629.044	1	8
629.214	1	24
629.384	1	2
629.553	1	9
629.723	1	6
629.892	1	12
630.062	1	7
630.232	1	-5
630.401	1	6
630.571	1	14
630.740	1	6
630.910	1	14
631.079	1	15
631.249	1	7
631.419	1	0
631.588	1	6
631.758	1	5
631.927	1	5
632.097	1	2
632.266	1	10
632.436	1	15
632.606	1	21
632.775	1	19
632.945	1	7
633.114	1	6
633.284	1	4
633.453	1	0
633.623	1	9
633.793	1	19
633.962	1	7
634.132	1	9
634.301	1	8
634.471	1	0
634.640	1	9
634.810	1	20
634.979	1	7
635.149	1	3
635.319	1	2
635.488	1	6
635.658	1	15
635.827	1	12
635.997	1	5
636.166	1	18
636.336	1	10
636.505	1	23
636.675	1	2
636.845	1	8
637.014	1	22
637.184	1	7
637.353	1	9
637.523	1	15
637.692	1	4
637.862	1	8
638.031	1	7
638.201	1	6
638.370	1	21
638.540	1	8
638.710	1	4
638.879	1	9
639.049	1	3
639.218	1	10
639.388	1	2
639.557	1	23
639.727	1	12
639.896	1	13
640.066	1	15
640.235	1	15
640.405	1	7
640.574	1	8
640.744	1	10
640.914	1	4
641.083	1	9
641.253	1	8
641.422	1	2
641.592	1	15
641.761	1	10
641.931	1	22
642.100	1	1
642.270	1	3
642.439	1	11
642.609	1	-1
642.778	1	-2
642.948	1	23
643.117	1	10
643.287	1	15
643.456	1	10
643.626	1	7
643.795	1	1
643.965	1	5
644.134	1	5
644.304	1	8
644.473	1	2
644.643	1	11
644.812	1	4
644.982	1	5
645.151	1	6
645.321	1	7
645.490	1	9
645.660	1	1
645.829	1	13
645.999	1	14
646.168	1	13
646.338	1	-1
646.507	1	9
646.677	1	6
646.846	1	2
647.016	1	11
647.185	1	-1
647.355	1	18
647.524	1	10
647.694	1	8
647.863	1	16
648.033	1	2
648.202	1	-3
648.372	1	8
648.541	1	5
648.711	1	9
648.880	1	8
649.050	1	2
649.219	1	6
649.389	1	1
649.558	1	12
649.728	1	8
649.897	1	4
650.067	1	3
650.236	1	9
650.406	1	11
650.575	1	13
650.745	1	2
650.914	1	19
651.084	1	2
651.253	1	9
651.423	1	18
651.592	1	8
651.762	1	11
651.931	1	8
652.101	1	-1
652.270	1	1
652.440	1	0
652.609	1	14
652.778	1	2
652.948	1	10
653.117	1	14
653.287	1	10
653.456	1	11
653.626	1	13
653.795	1	5
653.965	1	7
654.134	1	7
654.304	1	6
654.473	1	13
654.643	1	-5
654.812	1	3
654.982	1	5
655.151	1	11
655.320	1	9
655.490	1	2
655.659	1	4
655.829	1	2
655.998	1	6
656.168	1	13
656.337	1	7
656.507	1	1
656.676	1	-1
656.846	1	14
657.015	1	6
657.184	1	10
657.354	1	9
657.523	1	2
657.693	1	15
657.862	1	5
658.032	1	18
658.201	1	6
658.371	1	11
658.540	1	4
658.709	1	4
658.879	1	6
659.048	1	15
659.218	1	12
659.387	1	2
659.557	1	-1
659.726	1	15
659.895	1	-4
660.065	1	9
660.234	1	-4
660.404	1	9
660.573	1	9
660.743	1	8
660.912	1	19
661.081	1	11
661.251	1	3
661.420	1	-9
661.590	1	5
661.759	1	9
661.929	1	1
662.098	1	3
662.267	1	14
662.437	1	7
662.606	1	3
662.776	1	7
662.945	1	0
663.115	1	8
663.284	1	7
663.453	1	6
663.623	1	-3
663.792	1	-1
663.962	1	8
664.131	1	7
664.300	1	1
664.470	1	-5
664.639	1	8
664.809	1	-2
664.978	1	2
665.148	1	7
665.317	1	21
665.486	1	-3
665.656	1	0
665.825	1	10
665.995	1	10
666.164	1	20
666.333	1	3
666.503	1	-4
666.672	1	7
666.842	1	1
667.011	1	7
667.180	1	7
667.350	1	9
667.519	1	4
667.689	1	11
667.858	1	10
668.027	1	1
668.197	1	5
668.366	1	3
668.536	1	3
668.705	1	10
668.874	1	12
669.044	1	3
669.213	1	-7
669.382	1	17
669.552	1	1
669.721	1	4
669.891	1	0
670.060	1	17
670.229	1	7
670.399	1	5
670.568	1	-2
670.738	1	12
670.907	1	17
671.076	1	14
671.246	1	12
671.415	1	1
671.584	1	17
671.754	1	13
671.923	1	14
672.093	1	0
672.262	1	6
672.431	1	7
672.601	1	3
672.770	1	13
672.939	1	-7
673.109	1	11
673.278	1	4
673.448	1	8
673.617	1	11
673.786	1	-4
