325.333	1	14
325.504	1	2
325.675	1	6
325.846	1	-5
326.017	1	7
326.188	1	10
326.359	1	-10
326.531	1	5
326.702	1	14
326.873	1	-4
327.044	1	8
327.215	1	5
327.386	1	13
327.557	1	6
327.728	1	15
327.899	1	9
328.070	1	19
328.241	1	8
328.412	1	-5
328.583	1	-4
328.754	1	7
328.926	1	13
329.097	1	3
329.268	1	12
329.439	1	-3
329.610	1	15
329.781	1	9
329.952	1	0
330.123	1	3
330.294	1	8
330.465	1	4
330.636	1	14
330.807	1	7
330.978	1	8
331.149	1	9
331.320	1	17
331.492	1	7
331.663	1	-1
331.834	1	3
332.005	1	-2
332.176	1	1
332.347	1	16
332.518	1	5
332.689	1	17
332.860	1	6
333.031	1	2
333.202	1	4
333.373	1	12
333.544	1	3
333.715	1	0
333.886	1	3
334.057	1	9
334.228	1	9
334.399	1	1
334.570	1	2
334.741	1	2
334.912	1	6
335.084	1	-3
335.255	1	7
335.426	1	4
335.597	1	9
335.768	1	7
335.939	1	7
336.110	1	5
336.281	1	12
336.452	1	5
336.623	1	-5
336.794	1	10
336.965	1	6
337.136	1	9
337.307	1	7
337.478	1	4
337.649	1	15
337.820	1	5
337.991	1	13
338.162	1	15
338.333	1	16
338.504	1	3
338.675	1	13
338.846	1	3
339.017	1	8
339.188	1	7
339.359	1	10
339.530	1	1
339.701	1	12
339.872	1	14
340.043	1	12
340.214	1	-5
340.385	1	-7
340.556	1	12
340.727	1	13
340.898	1	7
341.069	1	20
341.240	1	7
341.411	1	10
341.582	1	-1
341.753	1	8
341.924	1	9
342.095	1	7
342.266	1	7
342.437	1	10
342.608	1	0
342.779	1	8
342.950	1	2
343.121	1	8
343.292	1	13
343.463	1	-6
343.634	1	-2
343.805	1	10
343.976	1	7
344.147	1	3
344.318	1	6
344.489	1	9
344.660	1	19
344.831	1	2
345.002	1	9
345.173	1	4
345.344	1	2
345.515	1	8
345.686	1	1
345.857	1	8
346.028	1	11
346.199	1	2
346.370	1	9
346.541	1	9
346.712	1	1
346.883	1	8
347.054	1	-2
347.225	1	9
347.396	1	6
347.567	1	25
347.738	1	0
347.909	1	10
348.080	1	-3
348.251	1	13
348.422	1	-2
348.593	1	-5
348.764	1	6
348.935	1	5
349.106	1	1
349.277	1	26
349.448	1	-3
349.619	1	7
349.790	1	19
349.961	1	13
350.132	1	7
350.303	1	10
350.474	1	3
350.645	1	3
350.816	1	1
350.987	1	-2
351.157	1	13
351.328	1	2
351.499	1	14
351.670	1	-2
351.841	1	2
352.012	1	13
352.183	1	-3
352.354	1	22
352.525	1	-1
352.696	1	7
352.867	1	4
353.038	1	8
353.209	1	15
353.380	1	12
353.551	1	6
353.722	1	2
353.893	1	12
354.064	1	3
354.235	1	4
354.406	1	7
354.576	1	-4
354.747	1	-4
354.918	1	13
355.089	1	2
355.260	1	-2
355.431	1	-1
355.602	1	-2
355.773	1	-7
355.944	1	1
356.115	1	11
356.286	1	1
356.457	1	4
356.628	1	0
356.799	1	1
356.970	1	-1
357.141	1	15
357.311	1	1
357.482	1	3
357.653	1	2
357.824	1	-1
357.995	1	4
358.166	1	3
358.337	1	16
358.508	1	4
358.679	1	6
358.850	1	1
359.021	1	-2
359.192	1	-1
359.363	1	0
359.533	1	0
359.704	1	10
359.875	1	6
360.046	1	7
360.217	1	1
360.388	1	7
360.559	1	3
360.730	1	8
360.901	1	9
361.072	1	-2
361.243	1	15
361.414	1	3
361.584	1	5
361.755	1	5
361.926	1	-6
362.097	1	-4
362.268	1	7
362.439	1	9
362.610	1	6
362.781	1	2
362.952	1	-6
363.123	1	-2
363.293	1	4
363.464	1	1
363.635	1	9
363.806	1	-2
363.977	1	12
364.148	1	3
364.319	1	4
364.490	1	12
364.661	1	-4
364.832	1	15
365.002	1	-3
365.173	1	1
365.344	1	0
365.515	1	3
365.686	1	7
365.857	1	6
366.028	1	10
366.199	1	0
366.370	1	-3
366.540	1	6
366.711	1	-1
366.882	1	9
367.053	1	9
367.224	1	4
367.395	1	-5
367.566	1	4
367.737	1	6
367.908	1	1
368.078	1	2
368.249	1	2
368.420	1	7
368.591	1	9
368.762	1	12
368.933	1	6
369.104	1	6
369.274	1	-4
369.445	1	1
369.616	1	8
369.787	1	16
369.958	1	10
370.129	1	4
370.300	1	0
370.471	1	9
370.641	1	1
370.812	1	2
370.983	1	4
371.154	1	5
371.325	1	3
371.496	1	-2
371.667	1	-8
371.837	1	10
372.008	1	5
372.179	1	7
372.350	1	-7
372.521	1	0
372.692	1	8
372.863	1	7
373.033	1	1
373.204	1	10
373.375	1	-2
373.546	1	0
373.717	1	-2
373.888	1	6
374.059	1	7
374.229	1	-1
374.400	1	12
374.571	1	10
374.742	1	-2
374.913	1	-5
375.084	1	9
375.254	1	10
375.425	1	4
375.596	1	7
375.767	1	10
375.938	1	-3
376.109	1	-6
376.279	1	3
376.450	1	6
376.621	1	-2
376.792	1	0
376.963	1	2
377.134	1	-1
377.304	1	-8
377.475	1	3
377.646	1	0
377.817	1	1
377.988	1	3
378.159	1	6
378.329	1	13
378.500	1	-2
378.671	1	5
378.842	1	15
379.013	1	8
379.184	1	5
379.354	1	0
379.525	1	7
379.696	1	1
379.867	1	14
380.038	1	10
380.209	1	5
380.379	1	14
380.550	1	1
380.721	1	7
380.892	1	6
381.063	1	2
381.233	1	12
381.404	1	15
381.575	1	3
381.746	1	-2
381.917	1	-2
382.087	1	14
382.258	1	10
382.429	1	10
382.600	1	10
382.771	1	7
382.941	1	3
383.112	1	-8
383.283	1	0
383.454	1	-4
383.625	1	-2
383.795	1	8
383.966	1	15
384.137	1	0
384.308	1	17
384.479	1	17
384.649	1	11
384.820	1	-7
384.991	1	26
385.162	1	10
385.333	1	-2
385.503	1	2
385.674	1	8
385.845	1	2
386.016	1	15
386.187	1	-5
386.357	1	12
386.528	1	4
386.699	1	-4
386.870	1	10
387.041	1	6
387.211	1	9
387.382	1	11
387.553	1	-1
387.724	1	-9
387.894	1	2
388.065	1	18
388.236	1	18
388.407	1	0
388.578	1	9
388.748	1	9
388.919	1	4
389.090	1	5
389.261	1	5
389.431	1	18
389.602	1	12
389.773	1	11
389.944	1	5
390.114	1	5
390.285	1	13
390.456	1	15
390.627	1	13
390.798	1	9
390.968	1	16
391.139	1	5
391.310	1	-1
391.481	1	11
391.651	1	10
391.822	1	20
391.993	1	-3
392.164	1	7
392.334	1	-3
392.505	1	3
392.676	1	6
392.847	1	10
393.017	1	4
393.188	1	14
393.359	1	13
393.530	1	15
393.700	1	16
393.871	1	4
394.042	1	13
394.213	1	12
394.383	1	-1
394.554	1	8
394.725	1	14
394.896	1	8
395.066	1	11
395.237	1	11
395.408	1	7
395.579	1	14
395.749	1	10
395.920	1	1
396.091	1	2
396.262	1	-2
396.432	1	6
396.603	1	10
396.774	1	11
396.945	1	3
397.115	1	14
397.286	1	4
397.457	1	8
397.627	1	3
397.798	1	22
397.969	1	11
398.140	1	3
398.310	1	15
398.481	1	8
398.652	1	11
398.823	1	13
398.993	1	9
399.164	1	11
399.335	1	11
399.505	1	-8
399.676	1	5
399.847	1	6
400.018	1	17
400.188	1	10
400.359	1	5
400.530	1	24
400.700	1	11
400.871	1	17
401.042	1	16
401.213	1	5
401.383	1	9
401.554	1	18
401.725	1	9
401.895	1	11
402.066	1	12
402.237	1	30
402.408	1	14
402.578	1	4
402.749	1	11
402.920	1	5
403.090	1	0
403.261	1	3
403.432	1	17
403.603	1	6
403.773	1	14
403.944	1	11
404.115	1	12
404.285	1	13
404.456	1	17
404.627	1	15
404.797	1	12
404.968	1	9
405.139	1	5
405.310	1	9
405.480	1	10
405.651	1	15
405.822	1	6
405.992	1	31
406.163	1	10
406.334	1	23
406.504	1	10
406.675	1	11
406.846	1	12
407.016	1	14
407.187	1	16
407.358	1	15
407.528	1	12
407.699	1	17
407.870	1	12
408.041	1	17
408.211	1	12
408.382	1	1
408.553	1	17
408.723	1	22
408.894	1	1
409.065	1	15
409.235	1	-2
409.406	1	17
409.577	1	12
409.747	1	8
409.918	1	17
410.089	1	9
410.259	1	22
410.430	1	13
410.601	1	25
410.771	1	17
410.942	1	4
411.113	1	16
411.283	1	12
411.454	1	11
411.625	1	8
411.795	1	15
411.966	1	20
412.137	1	17
412.307	1	9
412.478	1	14
412.649	1	18
412.819	1	18
412.990	1	13
413.161	1	22
413.331	1	20
413.502	1	16
413.672	1	6
413.843	1	17
414.014	1	12
414.184	1	18
414.355	1	15
414.526	1	9
414.696	1	16
414.867	1	24
415.038	1	15
415.208	1	0
415.379	1	12
415.550	1	15
415.720	1	11
415.891	1	18
416.062	1	3
416.232	1	20
416.403	1	0
416.573	1	18
416.744	1	28
416.915	1	16
417.085	1	12
417.256	1	18
417.427	1	16
417.597	1	19
417.768	1	13
417.939	1	20
418.109	1	23
418.280	1	21
418.450	1	19
418.621	1	18
418.792	1	14
418.962	1	12
419.133	1	17
419.304	1	20
419.474	1	13
419.645	1	13
419.815	1	20
419.986	1	19
420.157	1	12
420.327	1	7
420.498	1	15
420.669	1	7
420.839	1	14
421.010	1	27
421.180	1	24
421.351	1	9
421.522	1	15
421.692	1	24
421.863	1	20
422.033	1	11
422.204	1	21
422.375	1	24
422.545	1	20
422.716	1	23
422.886	1	23
423.057	1	18
423.228	1	12
423.398	1	21
423.569	1	11
423.740	1	16
423.910	1	19
424.081	1	15
424.251	1	19
424.422	1	24
424.593	1	10
424.763	1	21
424.934	1	13
425.104	1	27
425.275	1	11
425.445	1	13
425.616	1	13
425.787	1	26
425.957	1	26
426.128	1	15
426.298	1	7
426.469	1	25
426.640	1	11
426.810	1	16
426.981	1	11
427.151	1	17
427.322	1	17
427.493	1	21
427.663	1	24
427.834	1	9
428.004	1	19
428.175	1	6
428.345	1	19
428.516	1	11
428.687	1	9
428.857	1	8
429.028	1	18
429.198	1	7
429.369	1	20
429.540	1	15
429.710	1	26
429.881	1	10
430.051	1	11
430.222	1	20
430.392	1	21
430.563	1	17
430.734	1	20
430.904	1	16
431.075	1	13
431.245	1	15
431.416	1	6
431.586	1	20
431.757	1	14
431.927	1	18
432.098	1	15
432.269	1	15
432.439	1	17
432.610	1	10
432.780	1	7
432.951	1	21
433.121	1	7
433.292	1	11
433.462	1	17
433.633	1	25
433.804	1	16
433.974	1	19
434.145	1	9
434.315	1	10
434.486	1	16
434.656	1	11
434.827	1	19
434.997	1	18
435.168	1	11
435.339	1	11
435.509	1	25
435.680	1	12
435.850	1	4
436.021	1	25
436.191	1	13
436.362	1	16
436.532	1	9
436.703	1	21
436.873	1	9
437.044	1	19
437.214	1	6
437.385	1	20
437.556	1	12
437.726	1	6
437.897	1	5
438.067	1	13
438.238	1	13
438.408	1	22
438.579	1	11
438.749	1	14
438.920	1	17
439.090	1	16
439.261	1	9
439.431	1	20
439.602	1	13
439.772	1	15
439.943	1	13
440.113	1	19
440.284	1	12
440.455	1	6
440.625	1	17
440.796	1	13
440.966	1	21
441.137	1	10
441.307	1	26
441.478	1	6
441.648	1	15
441.819	1	3
441.989	1	3
442.160	1	17
442.330	1	15
442.501	1	9
442.671	1	22
442.842	1	11
443.012	1	16
443.183	1	6
443.353	1	17
443.524	1	9
443.694	1	9
443.865	1	5
444.035	1	17
444.206	1	11
444.376	1	14
444.547	1	9
444.717	1	16
444.888	1	12
445.058	1	16
445.229	1	13
445.399	1	13
445.570	1	5
445.740	1	13
445.911	1	14
446.081	1	12
446.252	1	6
446.422	1	5
446.593	1	12
446.763	1	9
446.934	1	3
447.104	1	8
447.275	1	13
447.445	1	21
447.616	1	11
447.786	1	12
447.957	1	18
448.127	1	13
448.298	1	8
448.468	1	7
448.639	1	19
448.809	1	20
448.979	1	10
449.150	1	22
449.320	1	4
449.491	1	25
449.661	1	7
449.832	1	12
450.002	1	13
450.173	1	17
450.343	1	2
450.514	1	16
450.684	1	21
450.855	1	12
451.025	1	21
451.196	1	16
451.366	1	18
451.537	1	5
451.707	1	12
451.878	1	18
452.048	1	10
452.218	1	11
452.389	1	19
452.559	1	23
452.730	1	15
452.900	1	8
453.071	1	10
453.241	1	16
453.412	1	16
453.582	1	9
453.753	1	15
453.923	1	3
454.093	1	6
454.264	1	15
454.434	1	8
454.605	1	7
454.775	1	11
454.946	1	5
455.116	1	9
455.287	1	13
455.457	1	6
455.628	1	-3
455.798	1	-2
455.968	1	6
456.139	1	0
456.309	1	16
456.480	1	9
456.650	1	12
456.821	1	19
456.991	1	17
457.161	1	12
457.332	1	10
457.502	1	32
457.673	1	6
457.843	1	8
458.014	1	2
458.184	1	8
458.355	1	22
458.525	1	18
458.695	1	8
458.866	1	0
459.036	1	12
459.207	1	5
459.377	1	2
459.548	1	3
459.718	1	2
459.888	1	7
460.059	1	7
460.229	1	8
460.400	1	16
460.570	1	6
460.740	1	5
460.911	1	26
461.081	1	4
461.252	1	12
461.422	1	5
461.593	1	13
461.763	1	5
461.933	1	7
462.104	1	8
462.274	1	5
462.445	1	4
462.615	1	10
462.785	1	5
462.956	1	6
463.126	1	4
463.297	1	19
463.467	1	6
463.638	1	10
463.808	1	7
463.978	1	2
464.149	1	14
464.319	1	1
464.490	1	4
464.660	1	3
464.830	1	-2
465.001	1	16
465.171	1	3
465.342	1	4
465.512	1	9
465.682	1	7
465.853	1	-10
466.023	1	15
466.194	1	8
466.364	1	14
466.534	1	2
466.705	1	3
466.875	1	9
467.045	1	11
467.216	1	8
467.386	1	5
467.557	1	12
467.727	1	14
467.897	1	10
468.068	1	7
468.238	1	0
468.409	1	1
468.579	1	6
468.749	1	16
468.920	1	18
469.090	1	4
469.260	1	6
469.431	1	12
469.601	1	11
469.772	1	1
469.942	1	-2
470.112	1	0
470.283	1	11
470.453	1	10
470.623	1	7
470.794	1	-13
470.964	1	9
471.135	1	4
471.305	1	-4
471.475	1	6
471.646	1	4
471.816	1	8
471.986	1	1
472.157	1	1
472.327	1	3
472.497	1	3
472.668	1	0
472.838	1	-6
473.009	1	13
473.179	1	2
473.349	1	8
473.520	1	12
473.690	1	15
473.860	1	5
474.031	1	17
474.201	1	4
474.371	1	8
474.542	1	10
474.712	1	7
474.882	1	11
475.053	1	7
475.223	1	15
475.394	1	0
475.564	1	10
475.734	1	11
475.905	1	3
476.075	1	-1
476.245	1	-12
476.416	1	2
476.586	1	14
476.756	1	4
476.927	1	4
477.097	1	-5
477.267	1	6
477.438	1	-1
477.608	1	-1
477.778	1	4
477.949	1	11
478.119	1	9
478.289	1	11
478.460	1	1
478.630	1	3
478.800	1	8
478.971	1	-2
479.141	1	9
479.311	1	-2
479.482	1	1
479.652	1	7
479.822	1	6
479.993	1	0
480.163	1	7
480.333	1	14
480.504	1	7
480.674	1	-4
480.844	1	9
481.015	1	6
481.185	1	-2
481.355	1	2
481.525	1	8
481.696	1	15
481.866	1	-1
482.036	1	3
482.207	1	6
482.377	1	0
482.547	1	6
482.718	1	11
482.888	1	5
483.058	1	7
483.229	1	9
483.399	1	3
483.569	1	3
483.740	1	-2
483.910	1	7
484.080	1	21
484.250	1	22
484.421	1	4
484.591	1	13
484.761	1	0
484.932	1	8
485.102	1	2
485.272	1	-3
485.443	1	10
485.613	1	9
485.783	1	11
485.953	1	1
486.124	1	1
486.294	1	4
486.464	1	6
486.635	1	3
486.805	1	8
486.975	1	4
487.146	1	-3
487.316	1	4
487.486	1	10
487.656	1	16
487.827	1	8
487.997	1	0
488.167	1	-1
488.338	1	15
488.508	1	5
488.678	1	5
488.848	1	5
489.019	1	3
489.189	1	7
489.359	1	8
489.529	1	11
489.700	1	-4
489.870	1	7
490.040	1	14
490.211	1	17
490.381	1	12
490.551	1	4
490.721	1	11
490.892	1	-13
491.062	1	5
491.232	1	19
491.402	1	5
491.573	1	10
491.743	1	10
491.913	1	6
492.084	1	-2
492.254	1	10
492.424	1	8
492.594	1	-6
492.765	1	-1
492.935	1	5
493.105	1	7
493.275	1	8
493.446	1	2
493.616	1	3
493.786	1	9
493.956	1	8
494.127	1	1
494.297	1	1
494.467	1	9
494.637	1	8
494.808	1	4
494.978	1	10
495.148	1	-5
495.318	1	8
495.489	1	1
495.659	1	2
495.829	1	11
495.999	1	-2
496.170	1	3
496.340	1	14
496.510	1	-2
496.680	1	-1
496.851	1	5
497.021	1	9
497.191	1	2
497.361	1	1
497.532	1	6
497.702	1	-1
497.872	1	7
498.042	1	11
498.213	1	14
498.383	1	13
498.553	1	-6
498.723	1	9
498.894	1	1
499.064	1	2
499.234	1	11
499.404	1	7
499.574	1	-2
499.745	1	6
499.915	1	13
500.085	1	9
500.255	1	11
500.426	1	-4
500.596	1	2
500.766	1	2
500.936	1	6
501.106	1	-3
501.277	1	-1
501.447	1	0
501.617	1	3
501.787	1	11
501.958	1	2
502.128	1	3
502.298	1	-7
502.468	1	12
502.638	1	7
502.809	1	-1
502.979	1	-1
503.149	1	14
503.319	1	-1
503.489	1	7
503.660	1	3
503.830	1	-4
504.000	1	0
504.170	1	6
504.340	1	10
504.511	1	2
504.681	1	9
504.851	1	8
505.021	1	9
505.192	1	6
505.362	1	7
505.532	1	-14
505.702	1	4
505.872	1	5
506.043	1	12
506.213	1	2
506.383	1	6
506.553	1	4
506.723	1	2
506.893	1	0
507.064	1	-5
507.234	1	0
507.404	1	5
507.574	1	-6
507.744	1	7
507.915	1	0
508.085	1	12
508.255	1	-7
508.425	1	0
508.595	1	7
508.766	1	-3
508.936	1	1
509.106	1	-1
509.276	1	5
509.446	1	-5
509.616	1	6
509.787	1	7
509.957	1	6
510.127	1	4
510.297	1	3
510.467	1	8
510.638	1	-1
510.808	1	11
510.978	1	9
511.148	1	10
511.318	1	-2
511.488	1	3
511.659	1	2
511.829	1	-10
511.999	1	9
512.169	1	10
512.339	1	6
512.509	1	3
512.680	1	13
512.850	1	-5
513.020	1	2
513.190	1	3
513.360	1	2
513.530	1	5
513.700	1	3
513.871	1	8
514.041	1	4
514.211	1	7
514.381	1	3
514.551	1	5
514.721	1	1
514.892	1	-10
515.062	1	2
515.232	1	1
515.402	1	4
515.572	1	11
515.742	1	-8
515.912	1	-2
516.083	1	9
516.253	1	1
516.423	1	-2
516.593	1	-2
516.763	1	-7
516.933	1	-4
517.104	1	-8
517.274	1	6
517.444	1	3
517.614	1	0
517.784	1	3
517.954	1	11
518.124	1	12
518.294	1	4
518.465	1	-7
518.635	1	16
518.805	1	8
518.975	1	10
519.145	1	4
519.315	1	6
519.485	1	14
519.656	1	1
519.826	1	5
519.996	1	8
520.166	1	0
520.336	1	-6
520.506	1	2
520.676	1	4
520.846	1	24
521.017	1	7
521.187	1	3
521.357	1	5
521.527	1	-4
521.697	1	7
521.867	1	-6
522.037	1	3
522.207	1	6
522.377	1	4
522.548	1	0
522.718	1	9
522.888	1	5
523.058	1	9
523.228	1	-4
523.398	1	13
523.568	1	-4
523.738	1	7
523.909	1	13
524.079	1	1
524.249	1	7
524.419	1	7
524.589	1	-5
524.759	1	1
524.929	1	6
525.099	1	-2
525.269	1	1
525.439	1	-9
525.610	1	4
525.780	1	-4
525.950	1	3
526.120	1	2
526.290	1	9
526.460	1	7
526.630	1	2
526.800	1	-2
526.970	1	0
527.140	1	5
527.311	1	1
527.481	1	7
527.651	1	14
527.821	1	-12
527.991	1	1
528.161	1	11
528.331	1	3
528.501	1	7
528.671	1	-3
528.841	1	5
529.011	1	-7
529.181	1	4
529.352	1	-10
529.522	1	3
529.692	1	4
529.862	1	6
530.032	1	16
530.202	1	8
530.372	1	5
530.542	1	3
530.712	1	2
530.882	1	-13
531.052	1	3
531.222	1	-1
531.392	1	-1
531.563	1	0
531.733	1	0
531.903	1	8
532.073	1	-5
532.243	1	3
532.413	1	0
532.583	1	-1
532.753	1	1
532.923	1	4
533.093	1	-4
533.263	1	2
533.433	1	0
533.603	1	9
533.773	1	11
533.943	1	1
534.113	1	5
534.284	1	-6
534.454	1	-1
534.624	1	0
534.794	1	4
534.964	1	-5
535.134	1	5
535.304	1	2
535.474	1	0
535.644	1	5
535.814	1	-1
535.984	1	4
536.154	1	4
536.324	1	-9
536.494	1	2
536.664	1	4
536.834	1	5
537.004	1	-3
537.174	1	-7
537.344	1	6
537.514	1	0
537.685	1	1
537.855	1	2
538.025	1	-7
538.195	1	1
538.365	1	2
538.535	1	0
538.705	1	-4
538.875	1	2
539.045	1	-10
539.215	1	12
539.385	1	9
539.555	1	4
539.725	1	-3
539.895	1	11
540.065	1	-2
540.235	1	-1
540.405	1	-10
540.575	1	6
540.745	1	0
540.915	1	6
541.085	1	-2
541.255	1	1
541.425	1	-3
541.595	1	-12
541.765	1	1
541.935	1	7
542.105	1	5
542.275	1	-9
542.445	1	-1
542.615	1	-5
542.785	1	6
542.955	1	7
543.125	1	9
543.295	1	0
543.465	1	2
543.635	1	2
543.805	1	-8
543.975	1	-5
544.145	1	3
544.315	1	3
544.485	1	-6
544.655	1	3
544.825	1	5
544.995	1	-2
545.165	1	8
545.335	1	4
545.505	1	9
545.675	1	0
545.845	1	12
546.015	1	0
546.185	1	13
546.355	1	5
546.525	1	-1
546.695	1	9
546.865	1	-1
547.035	1	3
547.205	1	0
547.375	1	3
547.545	1	11
547.715	1	-1
547.885	1	0
548.055	1	21
548.225	1	5
548.395	1	-2
548.565	1	7
548.735	1	-11
548.905	1	-2
549.075	1	4
549.245	1	9
549.415	1	3
549.585	1	7
549.755	1	2
549.925	1	12
550.095	1	-3
550.265	1	1
550.435	1	7
550.605	1	1
550.775	1	-7
550.945	1	2
551.115	1	14
551.285	1	-1
551.455	1	12
551.625	1	6
551.795	1	14
551.965	1	7
552.135	1	-3
552.305	1	11
552.475	1	4
552.645	1	-5
552.815	1	-2
552.985	1	-12
553.155	1	4
553.325	1	-4
553.495	1	7
553.665	1	11
553.835	1	9
554.004	1	9
554.174	1	-10
554.344	1	12
554.514	1	1
554.684	1	1
554.854	1	-3
555.024	1	-11
555.194	1	5
555.364	1	9
555.534	1	0
555.704	1	6
555.874	1	7
556.044	1	6
556.214	1	4
556.384	1	-2
556.554	1	-9
556.724	1	-4
556.894	1	-7
557.064	1	8
557.234	1	4
557.404	1	1
557.573	1	5
557.743	1	-4
557.913	1	7
558.083	1	4
558.253	1	-3
558.423	1	9
558.593	1	16
558.763	1	20
558.933	1	10
559.103	1	7
559.273	1	1
559.443	1	1
559.613	1	-12
559.783	1	1
559.953	1	-8
560.122	1	-5
560.292	1	0
560.462	1	-1
560.632	1	7
560.802	1	2
560.972	1	2
561.142	1	-11
561.312	1	5
561.482	1	6
561.652	1	0
561.822	1	6
561.992	1	4
562.162	1	11
562.331	1	0
562.501	1	-2
562.671	1	1
562.841	1	5
563.011	1	-8
563.181	1	-3
563.351	1	0
563.521	1	2
563.691	1	-3
563.861	1	0
564.031	1	2
564.201	1	16
564.370	1	-6
564.540	1	-3
564.710	1	-7
564.880	1	-3
565.050	1	8
565.220	1	6
565.390	1	1
565.560	1	6
565.730	1	-5
565.900	1	-2
566.069	1	14
566.239	1	4
566.409	1	-6
566.579	1	0
566.749	1	-3
566.919	1	-3
567.089	1	2
567.259	1	8
567.429	1	-2
567.599	1	6
567.768	1	-3
567.938	1	-1
568.108	1	0
568.278	1	3
568.448	1	-11
568.618	1	6
568.788	1	7
568.958	1	-9
569.128	1	-6
569.297	1	-2
569.467	1	-2
569.637	1	6
569.807	1	-2
569.977	1	13
570.147	1	4
570.317	1	-3
570.487	1	-7
570.656	1	0
570.826	1	9
570.996	1	8
571.166	1	2
571.336	1	13
571.506	1	0
571.676	1	1
571.846	1	2
572.015	1	-3
572.185	1	-5
572.355	1	2
572.525	1	-5
572.695	1	15
572.865	1	5
573.035	1	11
573.205	1	3
573.374	1	1
573.544	1	8
573.714	1	0
573.884	1	-3
574.054	1	7
574.224	1	8
574.394	1	1
574.563	1	0
574.733	1	-5
574.903	1	0
575.073	1	-2
575.243	1	2
575.413	1	-7
575.583	1	18
575.752	1	8
575.922	1	10
576.092	1	-3
576.262	1	-2
576.432	1	2
576.602	1	0
576.772	1	-5
576.941	1	-5
577.111	1	11
577.281	1	2
577.451	1	4
577.621	1	5
577.791	1	4
577.960	1	8
578.130	1	2
578.300	1	-5
578.470	1	2
578.640	1	1
578.810	1	-8
578.979	1	3
579.149	1	4
579.319	1	2
579.489	1	3
579.659	1	5
579.829	1	13
579.998	1	1
580.168	1	7
580.338	1	7
580.508	1	8
580.678	1	2
580.848	1	-2
581.017	1	2
581.187	1	1
581.357	1	16
581.527	1	-1
581.697	1	2
581.867	1	7
582.036	1	11
582.206	1	2
582.376	1	4
582.546	1	-5
582.716	1	-5
582.885	1	1
583.055	1	0
583.225	1	15
583.395	1	1
583.565	1	-6
583.735	1	4
583.904	1	4
584.074	1	11
584.244	1	1
584.414	1	-5
584.584	1	9
584.753	1	0
584.923	1	-2
585.093	1	-3
585.263	1	9
585.433	1	-10
585.602	1	0
585.772	1	-4
585.942	1	3
586.112	1	8
586.282	1	7
586.451	1	4
586.621	1	-1
586.791	1	3
586.961	1	-1
587.131	1	5
587.300	1	0
587.470	1	4
587.640	1	-2
587.810	1	8
587.980	1	0
588.149	1	-9
588.319	1	8
588.489	1	-5
588.659	1	11
588.829	1	7
588.998	1	4
589.168	1	6
589.338	1	-1
589.508	1	-7
589.677	1	-6
589.847	1	16
590.017	1	5
590.187	1	8
590.357	1	-5
590.526	1	1
590.696	1	-1
590.866	1	5
591.036	1	22
591.205	1	-6
591.375	1	-20
591.545	1	8
591.715	1	-1
591.885	1	-1
592.054	1	-6
592.224	1	6
592.394	1	3
592.564	1	8
592.733	1	6
592.903	1	-1
593.073	1	4
593.243	1	8
593.412	1	20
593.582	1	3
593.752	1	-2
593.922	1	-2
594.091	1	4
594.261	1	3
594.431	1	3
594.601	1	-1
594.771	1	-7
594.940	1	-5
595.110	1	4
595.280	1	3
595.450	1	5
595.619	1	6
595.789	1	-7
595.959	1	7
596.129	1	11
596.298	1	15
596.468	1	4
596.638	1	-13
596.808	1	1
596.977	1	6
597.147	1	10
597.317	1	2
597.487	1	-5
597.656	1	-2
597.826	1	-4
597.996	1	13
598.166	1	-2
598.335	1	3
598.505	1	7
598.675	1	1
598.844	1	-6
599.014	1	-8
599.184	1	7
599.354	1	0
599.523	1	-1
599.693	1	2
599.863	1	-2
600.033	1	-7
600.202	1	3
600.372	1	-6
600.542	1	-1
600.712	1	3
600.881	1	2
601.051	1	-1
601.221	1	6
601.390	1	4
601.560	1	9
601.730	1	0
601.900	1	6
602.069	1	7
602.239	1	11
602.409	1	5
602.578	1	-5
602.748	1	3
602.918	1	0
603.088	1	13
603.257	1	14
603.427	1	5
603.597	1	3
603.767	1	0
603.936	1	-10
604.106	1	-5
604.276	1	0
604.445	1	-6
604.615	1	0
604.785	1	1
604.954	1	5
605.124	1	16
605.294	1	7
605.464	1	11
605.633	1	4
605.803	1	2
605.973	1	17
606.142	1	-3
606.312	1	8
606.482	1	7
606.652	1	9
606.821	1	-2
606.991	1	3
607.161	1	-3
607.330	1	-10
607.500	1	-8
607.670	1	-5
607.839	1	5
608.009	1	5
608.179	1	6
608.348	1	10
608.518	1	1
608.688	1	10
608.858	1	10
609.027	1	12
609.197	1	-10
609.367	1	-3
609.536	1	0
609.706	1	-2
609.876	1	10
610.045	1	-6
610.215	1	9
610.385	1	0
610.554	1	6
610.724	1	7
610.894	1	7
611.063	1	1
611.233	1	-6
611.403	1	9
611.572	1	-1
611.742	1	6
611.912	1	3
612.081	1	4
612.251	1	5
612.421	1	0
612.590	1	-1
612.760	1	9
612.930	1	-5
613.099	1	7
613.269	1	2
613.439	1	4
613.608	1	3
613.778	1	0
613.948	1	3
614.117	1	5
614.287	1	8
614.457	1	-9
614.626	1	1
614.796	1	7
614.966	1	15
615.135	1	4
615.305	1	6
615.475	1	8
615.644	1	-11
615.814	1	1
615.984	1	2
616.153	1	6
616.323	1	2
616.493	1	10
616.662	1	-6
616.832	1	11
617.002	1	-2
617.171	1	-1
617.341	1	10
617.511	1	-1
617.680	1	3
617.850	1	6
618.019	1	15
618.189	1	4
618.359	1	3
618.528	1	8
618.698	1	5
618.868	1	-2
619.037	1	2
619.207	1	8
619.377	1	5
619.546	1	-2
619.716	1	7
619.885	1	3
620.055	1	-11
620.225	1	5
620.394	1	2
620.564	1	3
620.734	1	-2
620.903	1	9
621.073	1	6
621.242	1	8
621.412	1	6
621.582	1	6
621.751	1	-1
621.921	1	11
622.091	1	5
622.260	1	0
622.430	1	5
622.599	1	13
622.769	1	9
622.939	1	4
623.108	1	7
623.278	1	-2
623.448	1	-1
623.617	1	-2
623.787	1	-4
623.956	1	3
624.126	1	-2
624.296	1	8
624.465	1	-3
624.635	1	13
624.804	1	-2
624.974	1	0
625.144	1	-3
625.313	1	13
625.483	1	7
625.652	1	11
625.822	1	14
625.992	1	7
626.161	1	9
626.331	1	18
626.501	1	16
626.670	1	-8
626.840	1	3
627.009	1	9
627.179	1	12
627.348	1	9
627.518	1	-3
627.688	1	-1
627.857	1	7
628.027	1	9
628.196	1	0
628.366	1	-3
628.536	1	9
628.705	1	3
628.875	1	1
629.044	1	6
629.214	1	-4
629.384	1	4
629.553	1	2
629.723	1	1
629.892	1	6
630.062	1	-1
630.232	1	-7
630.401	1	13
630.571	1	14
630.740	1	11
630.910	1	5
631.079	1	6
631.249	1	12
631.419	1	-6
631.588	1	13
631.758	1	7
631.927	1	-1
632.097	1	-3
632.266	1	11
632.436	1	13
632.606	1	10
632.775	1	11
632.945	1	4
633.114	1	8
633.284	1	6
633.453	1	2
633.623	1	17
633.793	1	17
633.962	1	3
634.132	1	3
634.301	1	1
634.471	1	-6
634.640	1	4
634.810	1	4
634.979	1	13
635.149	1	7
635.319	1	-4
635.488	1	1
635.658	1	15
635.827	1	5
635.997	1	6
636.166	1	10
636.336	1	6
636.505	1	8
636.675	1	1
636.845	1	1
637.014	1	17
637.184	1	11
637.353	1	6
637.523	1	14
637.692	1	2
637.862	1	3
638.031	1	9
638.201	1	8
638.370	1	8
638.540	1	1
638.710	1	6
638.879	1	2
639.049	1	21
639.218	1	6
639.388	1	-2
639.557	1	18
639.727	1	1
639.896	1	9
640.066	1	9
640.235	1	10
640.405	1	10
640.574	1	10
640.744	1	14
640.914	1	2
641.083	1	2
641.253	1	3
641.422	1	-5
641.592	1	6
641.761	1	10
641.931	1	17
642.100	1	0
642.270	1	3
642.439	1	10
642.609	1	0
642.778	1	-6
642.948	1	19
643.117	1	5
643.287	1	7
643.456	1	9
643.626	1	4
643.795	1	-1
643.965	1	12
644.134	1	1
644.304	1	8
644.473	1	7
644.643	1	3
644.812	1	8
644.982	1	-3
645.151	1	-1
645.321	1	11
645.490	1	15
645.660	1	-1
645.829	1	1
645.999	1	-1
646.168	1	17
646.338	1	-4
646.507	1	1
646.677	1	6
646.846	1	2
647.016	1	12
647.185	1	2
647.355	1	13
647.524	1	4
647.694	1	9
647.863	1	5
648.033	1	7
648.202	1	-8
648.372	1	9
648.541	1	7
648.711	1	5
648.880	1	1
649.050	1	10
649.219	1	6
649.389	1	6
649.558	1	7
649.728	1	0
649.897	1	6
650.067	1	-2
650.236	1	8
650.406	1	13
650.575	1	0
650.745	1	-1
650.914	1	18
651.084	1	-1
651.253	1	0
651.423	1	22
651.592	1	8
651.762	1	7
651.931	1	8
652.101	1	-2
652.270	1	11
652.440	1	-14
652.609	1	0
652.778	1	-1
652.948	1	9
653.117	1	4
653.287	1	3
653.456	1	8
653.626	1	10
653.795	1	-1
653.965	1	2
654.134	1	-9
654.304	1	7
654.473	1	4
654.643	1	-4
654.812	1	-2
654.982	1	1
655.151	1	0
655.320	1	10
655.490	1	-1
655.659	1	4
655.829	1	7
655.998	1	13
656.168	1	-6
656.337	1	4
656.507	1	5
656.676	1	1
656.846	1	11
657.015	1	11
657.184	1	5
657.354	1	0
657.523	1	3
657.693	1	9
657.862	1	0
658.032	1	13
658.201	1	8
658.371	1	9
658.540	1	-4
658.709	1	0
658.879	1	6
659.048	1	14
659.218	1	4
659.387	1	0
659.557	1	-5
659.726	1	6
659.895	1	1
660.065	1	5
660.234	1	2
660.404	1	12
660.573	1	7
660.743	1	-1
660.912	1	1
661.081	1	11
661.251	1	10
661.420	1	1
661.590	1	11
661.759	1	-2
661.929	1	4
662.098	1	2
662.267	1	3
662.437	1	3
662.606	1	13
662.776	1	-5
662.945	1	5
663.115	1	1
663.284	1	-3
663.453	1	4
663.623	1	-1
663.792	1	5
663.962	1	-4
664.131	1	1
664.300	1	1
664.470	1	-6
664.639	1	11
664.809	1	0
664.978	1	-3
665.148	1	10
665.317	1	10
665.486	1	1
665.656	1	0
665.825	1	7
665.995	1	-9
666.164	1	17
666.333	1	5
666.503	1	-5
666.672	1	0
666.842	1	2
667.011	1	4
667.180	1	9
667.350	1	4
667.519	1	-7
667.689	1	3
667.858	1	9
668.027	1	-2
668.197	1	1
668.366	1	14
668.536	1	10
668.705	1	9
668.874	1	6
669.044	1	2
669.213	1	0
669.382	1	9
669.552	1	-8
669.721	1	-3
669.891	1	-6
670.060	1	14
670.229	1	13
670.399	1	11
670.568	1	-12
670.738	1	10
670.907	1	2
671.076	1	13
671.246	1	5
671.415	1	-2
671.584	1	13
671.754	1	3
671.923	1	2
672.093	1	4
672.262	1	-1
672.431	1	7
672.601	1	-4
672.770	1	2
672.939	1	-4
673.109	1	2
673.278	1	7
673.448	1	7
673.617	1	1
673.786	1	2
