325.333	1	11
325.504	1	9
325.675	1	13
325.846	1	-4
326.017	1	6
326.188	1	14
326.359	1	3
326.531	1	4
326.702	1	14
326.873	1	2
327.044	1	15
327.215	1	4
327.386	1	10
327.557	1	2
327.728	1	13
327.899	1	13
328.070	1	7
328.241	1	9
328.412	1	3
328.583	1	7
328.754	1	3
328.926	1	17
329.097	1	9
329.268	1	28
329.439	1	4
329.610	1	14
329.781	1	11
329.952	1	0
330.123	1	0
330.294	1	24
330.465	1	10
330.636	1	19
330.807	1	9
330.978	1	9
331.149	1	6
331.320	1	19
331.492	1	12
331.663	1	7
331.834	1	8
332.005	1	1
332.176	1	2
332.347	1	12
332.518	1	13
332.689	1	12
332.860	1	10
333.031	1	-5
333.202	1	10
333.373	1	17
333.544	1	8
333.715	1	7
333.886	1	10
334.057	1	21
334.228	1	7
334.399	1	1
334.570	1	6
334.741	1	-3
334.912	1	12
335.084	1	7
335.255	1	11
335.426	1	8
335.597	1	13
335.768	1	8
335.939	1	8
336.110	1	5
336.281	1	9
336.452	1	15
336.623	1	-3
336.794	1	11
336.965	1	12
337.136	1	15
337.307	1	14
337.478	1	9
337.649	1	20
337.820	1	4
337.991	1	20
338.162	1	7
338.333	1	18
338.504	1	12
338.675	1	10
338.846	1	19
339.017	1	8
339.188	1	12
339.359	1	21
339.530	1	5
339.701	1	14
339.872	1	8
340.043	1	18
340.214	1	1
340.385	1	-1
340.556	1	11
340.727	1	14
340.898	1	10
341.069	1	20
341.240	1	7
341.411	1	24
341.582	1	8
341.753	1	18
341.924	1	15
342.095	1	4
342.266	1	9
342.437	1	11
342.608	1	15
342.779	1	10
342.950	1	2
343.121	1	8
343.292	1	7
343.463	1	10
343.634	1	8
343.805	1	21
343.976	1	5
344.147	1	5
344.318	1	19
344.489	1	14
344.660	1	25
344.831	1	16
345.002	1	11
345.173	1	4
345.344	1	11
345.515	1	0
345.686	1	13
345.857	1	11
346.028	1	13
346.199	1	10
346.370	1	24
346.541	1	22
346.712	1	14
346.883	1	15
347.054	1	7
347.225	1	7
347.396	1	5
347.567	1	15
347.738	1	18
347.909	1	15
348.080	1	8
348.251	1	15
348.422	1	2
348.593	1	10
348.764	1	21
348.935	1	11
349.106	1	1
349.277	1	25
349.448	1	11
349.619	1	10
349.790	1	20
349.961	1	10
350.132	1	8
350.303	1	19
350.474	1	18
350.645	1	10
350.816	1	1
350.987	1	5
351.157	1	10
351.328	1	6
351.499	1	28
351.670	1	12
351.841	1	17
352.012	1	23
352.183	1	10
352.354	1	12
352.525	1	8
352.696	1	21
352.867	1	26
353.038	1	9
353.209	1	23
353.380	1	15
353.551	1	15
353.722	1	9
353.893	1	7
354.064	1	20
354.235	1	13
354.406	1	15
354.576	1	-1
354.747	1	14
354.918	1	17
355.089	1	14
355.260	1	9
355.431	1	14
355.602	1	13
355.773	1	4
355.944	1	12
356.115	1	7
356.286	1	15
356.457	1	25
356.628	1	10
356.799	1	11
356.970	1	2
357.141	1	20
357.311	1	6
357.482	1	5
357.653	1	4
357.824	1	18
357.995	1	13
358.166	1	14
358.337	1	15
358.508	1	15
358.679	1	11
358.850	1	9
359.021	1	10
359.192	1	12
359.363	1	12
359.533	1	-3
359.704	1	21
359.875	1	9
360.046	1	13
360.217	1	16
360.388	1	13
360.559	1	10
360.730	1	12
360.901	1	26
361.072	1	9
361.243	1	20
361.414	1	8
361.584	1	8
361.755	1	16
361.926	1	8
362.097	1	7
362.268	1	12
362.439	1	11
362.610	1	17
362.781	1	9
362.952	1	4
363.123	1	7
363.293	1	20
363.464	1	13
363.635	1	10
363.806	1	13
363.977	1	28
364.148	1	12
364.319	1	17
364.490	1	11
364.661	1	10
364.832	1	16
365.002	1	8
365.173	1	17
365.344	1	-1
365.515	1	14
365.686	1	5
365.857	1	-2
366.028	1	11
366.199	1	10
366.370	1	14
366.540	1	15
366.711	1	1
366.882	1	20
367.053	1	22
367.224	1	4
367.395	1	8
367.566	1	15
367.737	1	17
367.908	1	15
368.078	1	3
368.249	1	13
368.420	1	11
368.591	1	14
368.762	1	17
368.933	1	12
369.104	1	16
369.274	1	7
369.445	1	12
369.616	1	16
369.787	1	25
369.958	1	8
370.129	1	7
370.300	1	8
370.471	1	21
370.641	1	20
370.812	1	8
370.983	1	8
371.154	1	13
371.325	1	16
371.496	1	14
371.667	1	7
371.837	1	16
372.008	1	6
372.179	1	18
372.350	1	8
372.521	1	6
372.692	1	10
372.863	1	12
373.033	1	15
373.204	1	6
373.375	1	14
373.546	1	7
373.717	1	8
373.888	1	11
374.059	1	7
374.229	1	10
374.400	1	15
374.571	1	17
374.742	1	14
374.913	1	9
375.084	1	12
375.254	1	11
375.425	1	17
375.596	1	21
375.767	1	20
375.938	1	1
376.109	1	12
376.279	1	8
376.450	1	8
376.621	1	20
376.792	1	15
376.963	1	23
377.134	1	13
377.304	1	7
377.475	1	13
377.646	1	18
377.817	1	9
377.988	1	16
378.159	1	19
378.329	1	16
378.500	1	15
378.671	1	26
378.842	1	21
379.013	1	18
379.184	1	6
379.354	1	20
379.525	1	20
379.696	1	14
379.867	1	20
380.038	1	17
380.209	1	12
380.379	1	19
380.550	1	5
380.721	1	24
380.892	1	9
381.063	1	11
381.233	1	6
381.404	1	31
381.575	1	25
381.746	1	17
381.917	1	9
382.087	1	15
382.258	1	23
382.429	1	18
382.600	1	12
382.771	1	17
382.941	1	25
383.112	1	4
383.283	1	20
383.454	1	22
383.625	1	19
383.795	1	22
383.966	1	20
384.137	1	6
384.308	1	31
384.479	1	20
384.649	1	18
384.820	1	17
384.991	1	28
385.162	1	11
385.333	1	22
385.503	1	12
385.674	1	23
385.845	1	18
386.016	1	22
386.187	1	18
386.357	1	6
386.528	1	29
386.699	1	13
386.870	1	15
387.041	1	25
387.211	1	15
387.382	1	22
387.553	1	18
387.724	1	9
387.894	1	11
388.065	1	24
388.236	1	19
388.407	1	31
388.578	1	25
388.748	1	28
388.919	1	11
389.090	1	29
389.261	1	18
389.431	1	21
389.602	1	32
389.773	1	19
389.944	1	18
390.114	1	29
390.285	1	24
390.456	1	21
390.627	1	36
390.798	1	23
390.968	1	21
391.139	1	23
391.310	1	17
391.481	1	12
391.651	1	16
391.822	1	23
391.993	1	11
392.164	1	16
392.334	1	20
392.505	1	21
392.676	1	21
392.847	1	24
393.017	1	23
393.188	1	25
393.359	1	27
393.530	1	28
393.700	1	20
393.871	1	12
394.042	1	26
394.213	1	17
394.383	1	10
394.554	1	19
394.725	1	30
394.896	1	28
395.066	1	15
395.237	1	20
395.408	1	23
395.579	1	23
395.749	1	16
395.920	1	15
396.091	1	16
396.262	1	11
396.432	1	21
396.603	1	28
396.774	1	24
396.945	1	10
397.115	1	28
397.286	1	23
397.457	1	27
397.627	1	26
397.798	1	29
397.969	1	28
398.140	1	30
398.310	1	30
398.481	1	34
398.652	1	23
398.823	1	17
398.993	1	25
399.164	1	18
399.335	1	31
399.505	1	18
399.676	1	19
399.847	1	26
400.018	1	19
400.188	1	33
400.359	1	22
400.530	1	27
400.700	1	33
400.871	1	39
401.042	1	9
401.213	1	29
401.383	1	33
401.554	1	24
401.725	1	28
401.895	1	24
402.066	1	20
402.237	1	40
402.408	1	29
402.578	1	28
402.749	1	32
402.920	1	26
403.090	1	15
403.261	1	34
403.432	1	27
403.603	1	27
403.773	1	33
403.944	1	40
404.115	1	45
404.285	1	25
404.456	1	37
404.627	1	32
404.797	1	18
404.968	1	33
405.139	1	22
405.310	1	22
405.480	1	32
405.651	1	21
405.822	1	28
405.992	1	39
406.163	1	15
406.334	1	41
406.504	1	29
406.675	1	30
406.846	1	31
407.016	1	32
407.187	1	35
407.358	1	28
407.528	1	34
407.699	1	23
407.870	1	30
408.041	1	32
408.211	1	28
408.382	1	23
408.553	1	37
408.723	1	43
408.894	1	21
409.065	1	32
409.235	1	27
409.406	1	41
409.577	1	37
409.747	1	27
409.918	1	28
410.089	1	33
410.259	1	35
410.430	1	32
410.601	1	46
410.771	1	47
410.942	1	25
411.113	1	34
411.283	1	38
411.454	1	44
411.625	1	27
411.795	1	45
411.966	1	30
412.137	1	39
412.307	1	22
412.478	1	38
412.649	1	36
412.819	1	40
412.990	1	44
413.161	1	28
413.331	1	42
413.502	1	39
413.672	1	28
413.843	1	43
414.014	1	20
414.184	1	31
414.355	1	33
414.526	1	23
414.696	1	36
414.867	1	31
415.038	1	18
415.208	1	21
415.379	1	28
415.550	1	25
415.720	1	32
415.891	1	25
416.062	1	31
416.232	1	34
416.403	1	31
416.573	1	38
416.744	1	36
416.915	1	39
417.085	1	34
417.256	1	29
417.427	1	39
417.597	1	29
417.768	1	35
417.939	1	41
418.109	1	40
418.280	1	33
418.450	1	35
418.621	1	36
418.792	1	21
418.962	1	35
419.133	1	39
419.304	1	43
419.474	1	29
419.645	1	23
419.815	1	38
419.986	1	43
420.157	1	22
420.327	1	26
420.498	1	25
420.669	1	18
420.839	1	28
421.010	1	44
421.180	1	32
421.351	1	32
421.522	1	25
421.692	1	30
421.863	1	35
422.033	1	32
422.204	1	29
422.375	1	33
422.545	1	39
422.716	1	41
422.886	1	33
423.057	1	37
423.228	1	34
423.398	1	48
423.569	1	23
423.740	1	37
423.910	1	36
424.081	1	32
424.251	1	34
424.422	1	36
424.593	1	33
424.763	1	42
424.934	1	43
425.104	1	51
425.275	1	32
425.445	1	31
425.616	1	28
425.787	1	33
425.957	1	33
426.128	1	33
426.298	1	17
426.469	1	43
426.640	1	28
426.810	1	31
426.981	1	39
427.151	1	31
427.322	1	43
427.493	1	37
427.663	1	39
427.834	1	21
428.004	1	37
428.175	1	25
428.345	1	34
428.516	1	41
428.687	1	26
428.857	1	18
429.028	1	30
429.198	1	26
429.369	1	36
429.540	1	29
429.710	1	42
429.881	1	33
430.051	1	29
430.222	1	29
430.392	1	33
430.563	1	29
430.734	1	28
430.904	1	39
431.075	1	41
431.245	1	31
431.416	1	18
431.586	1	36
431.757	1	39
431.927	1	31
432.098	1	25
432.269	1	30
432.439	1	38
432.610	1	36
432.780	1	28
432.951	1	31
433.121	1	24
433.292	1	27
433.462	1	46
433.633	1	48
433.804	1	34
433.974	1	35
434.145	1	37
434.315	1	37
434.486	1	29
434.656	1	36
434.827	1	29
434.997	1	33
435.168	1	30
435.339	1	29
435.509	1	38
435.680	1	31
435.850	1	37
436.021	1	33
436.191	1	44
436.362	1	37
436.532	1	40
436.703	1	41
436.873	1	42
437.044	1	42
437.214	1	26
437.385	1	38
437.556	1	26
437.726	1	30
437.897	1	32
438.067	1	36
438.238	1	37
438.408	1	40
438.579	1	33
438.749	1	33
438.920	1	32
439.090	1	33
439.261	1	29
439.431	1	35
439.602	1	36
439.772	1	28
439.943	1	32
440.113	1	29
440.284	1	33
440.455	1	34
440.625	1	35
440.796	1	31
440.966	1	31
441.137	1	19
441.307	1	39
441.478	1	20
441.648	1	41
441.819	1	30
441.989	1	32
442.160	1	22
442.330	1	33
442.501	1	18
442.671	1	30
442.842	1	35
443.012	1	26
443.183	1	34
443.353	1	30
443.524	1	21
443.694	1	25
443.865	1	27
444.035	1	33
444.206	1	28
444.376	1	27
444.547	1	21
444.717	1	29
444.888	1	31
445.058	1	40
445.229	1	31
445.399	1	22
445.570	1	18
445.740	1	30
445.911	1	13
446.081	1	20
446.252	1	20
446.422	1	27
446.593	1	32
446.763	1	33
446.934	1	29
447.104	1	33
447.275	1	22
447.445	1	29
447.616	1	41
447.786	1	36
447.957	1	36
448.127	1	24
448.298	1	19
448.468	1	32
448.639	1	47
448.809	1	22
448.979	1	31
449.150	1	28
449.320	1	26
449.491	1	29
449.661	1	30
449.832	1	25
450.002	1	21
450.173	1	31
450.343	1	25
450.514	1	25
450.684	1	37
450.855	1	33
451.025	1	25
451.196	1	38
451.366	1	36
451.537	1	18
451.707	1	38
451.878	1	28
452.048	1	13
452.218	1	21
452.389	1	24
452.559	1	25
452.730	1	14
452.900	1	21
453.071	1	26
453.241	1	29
453.412	1	29
453.582	1	27
453.753	1	38
453.923	1	22
454.093	1	15
454.264	1	25
454.434	1	29
454.605	1	7
454.775	1	17
454.946	1	23
455.116	1	31
455.287	1	42
455.457	1	27
455.628	1	21
455.798	1	23
455.968	1	27
456.139	1	22
456.309	1	23
456.480	1	21
456.650	1	36
456.821	1	23
456.991	1	31
457.161	1	35
457.332	1	17
457.502	1	40
457.673	1	25
457.843	1	22
458.014	1	25
458.184	1	24
458.355	1	26
458.525	1	26
458.695	1	21
458.866	1	15
459.036	1	19
459.207	1	31
459.377	1	14
459.548	1	15
459.718	1	16
459.888	1	16
460.059	1	18
460.229	1	32
460.400	1	28
460.570	1	19
460.740	1	15
460.911	1	34
461.081	1	24
461.252	1	15
461.422	1	15
461.593	1	29
461.763	1	19
461.933	1	18
462.104	1	23
462.274	1	11
462.445	1	24
462.615	1	23
462.785	1	13
462.956	1	22
463.126	1	12
463.297	1	16
463.467	1	14
463.638	1	12
463.808	1	22
463.978	1	21
464.149	1	31
464.319	1	22
464.490	1	11
464.660	1	19
464.830	1	25
465.001	1	20
465.171	1	29
465.342	1	25
465.512	1	16
465.682	1	25
465.853	1	12
466.023	1	17
466.194	1	28
466.364	1	23
466.534	1	12
466.705	1	20
466.875	1	11
467.045	1	31
467.216	1	16
467.386	1	21
467.557	1	18
467.727	1	16
467.897	1	19
468.068	1	19
468.238	1	12
468.409	1	13
468.579	1	23
468.749	1	20
468.920	1	29
469.090	1	21
469.260	1	22
469.431	1	19
469.601	1	24
469.772	1	8
469.942	1	16
470.112	1	13
470.283	1	19
470.453	1	15
470.623	1	18
470.794	1	1
470.964	1	23
471.135	1	18
471.305	1	15
471.475	1	11
471.646	1	21
471.816	1	24
471.986	1	19
472.157	1	22
472.327	1	19
472.497	1	3
472.668	1	2
472.838	1	13
473.009	1	23
473.179	1	23
473.349	1	11
473.520	1	24
473.690	1	18
473.860	1	15
474.031	1	17
474.201	1	17
474.371	1	19
474.542	1	28
474.712	1	26
474.882	1	12
475.053	1	22
475.223	1	17
475.394	1	16
475.564	1	20
475.734	1	22
475.905	1	24
476.075	1	9
476.245	1	11
476.416	1	21
476.586	1	21
476.756	1	7
476.927	1	11
477.097	1	18
477.267	1	19
477.438	1	13
477.608	1	15
477.778	1	12
477.949	1	10
478.119	1	16
478.289	1	18
478.460	1	14
478.630	1	20
478.800	1	15
478.971	1	5
479.141	1	23
479.311	1	14
479.482	1	13
479.652	1	23
479.822	1	19
479.993	1	11
480.163	1	6
480.333	1	20
480.504	1	29
480.674	1	11
480.844	1	12
481.015	1	25
481.185	1	16
481.355	1	27
481.525	1	10
481.696	1	24
481.866	1	22
482.036	1	14
482.207	1	24
482.377	1	7
482.547	1	19
482.718	1	13
482.888	1	16
483.058	1	9
483.229	1	26
483.399	1	14
483.569	1	10
483.740	1	4
483.910	1	20
484.080	1	32
484.250	1	18
484.421	1	11
484.591	1	19
484.761	1	-1
484.932	1	7
485.102	1	14
485.272	1	7
485.443	1	24
485.613	1	13
485.783	1	11
485.953	1	10
486.124	1	15
486.294	1	10
486.464	1	17
486.635	1	21
486.805	1	14
486.975	1	12
487.146	1	9
487.316	1	21
487.486	1	17
487.656	1	18
487.827	1	16
487.997	1	8
488.167	1	21
488.338	1	16
488.508	1	21
488.678	1	6
488.848	1	11
489.019	1	11
489.189	1	16
489.359	1	12
489.529	1	15
489.700	1	-3
489.870	1	7
490.040	1	24
490.211	1	23
490.381	1	24
490.551	1	11
490.721	1	13
490.892	1	2
491.062	1	21
491.232	1	12
491.402	1	12
491.573	1	10
491.743	1	20
491.913	1	22
492.084	1	10
492.254	1	18
492.424	1	7
492.594	1	-5
492.765	1	7
492.935	1	18
493.105	1	19
493.275	1	12
493.446	1	6
493.616	1	6
493.786	1	3
493.956	1	24
494.127	1	10
494.297	1	14
494.467	1	11
494.637	1	13
494.808	1	25
494.978	1	13
495.148	1	-4
495.318	1	13
495.489	1	3
495.659	1	8
495.829	1	15
495.999	1	11
496.170	1	10
496.340	1	16
496.510	1	5
496.680	1	15
496.851	1	13
497.021	1	15
497.191	1	20
497.361	1	8
497.532	1	2
497.702	1	4
497.872	1	8
498.042	1	11
498.213	1	15
498.383	1	11
498.553	1	19
498.723	1	3
498.894	1	23
499.064	1	7
499.234	1	23
499.404	1	8
499.574	1	10
499.745	1	12
499.915	1	16
500.085	1	15
500.255	1	13
500.426	1	15
500.596	1	11
500.766	1	14
500.936	1	9
501.106	1	16
501.277	1	13
501.447	1	0
501.617	1	8
501.787	1	12
501.958	1	4
502.128	1	16
502.298	1	11
502.468	1	8
502.638	1	7
502.809	1	6
502.979	1	22
503.149	1	16
503.319	1	1
503.489	1	2
503.660	1	9
503.830	1	8
504.000	1	8
504.170	1	14
504.340	1	9
504.511	1	8
504.681	1	13
504.851	1	15
505.021	1	18
505.192	1	19
505.362	1	24
505.532	1	-2
505.702	1	9
505.872	1	12
506.043	1	12
506.213	1	17
506.383	1	9
506.553	1	18
506.723	1	11
506.893	1	15
507.064	1	0
507.234	1	17
507.404	1	10
507.574	1	3
507.744	1	8
507.915	1	5
508.085	1	14
508.255	1	0
508.425	1	9
508.595	1	13
508.766	1	5
508.936	1	8
509.106	1	7
509.276	1	13
509.446	1	-2
509.616	1	12
509.787	1	18
509.957	1	9
510.127	1	10
510.297	1	9
510.467	1	5
510.638	1	14
510.808	1	5
510.978	1	10
511.148	1	9
511.318	1	5
511.488	1	6
511.659	1	9
511.829	1	13
511.999	1	19
512.169	1	19
512.339	1	13
512.509	1	6
512.680	1	6
512.850	1	-8
513.020	1	6
513.190	1	7
513.360	1	9
513.530	1	13
513.700	1	16
513.871	1	6
514.041	1	12
514.211	1	16
514.381	1	8
514.551	1	9
514.721	1	11
514.892	1	2
515.062	1	17
515.232	1	5
515.402	1	15
515.572	1	15
515.742	1	3
515.912	1	10
516.083	1	5
516.253	1	2
516.423	1	18
516.593	1	8
516.763	1	3
516.933	1	10
517.104	1	2
517.274	1	18
517.444	1	3
517.614	1	0
517.784	1	10
517.954	1	13
518.124	1	9
518.294	1	7
518.465	1	-4
518.635	1	12
518.805	1	7
518.975	1	10
519.145	1	3
519.315	1	11
519.485	1	13
519.656	1	7
519.826	1	18
519.996	1	5
520.166	1	6
520.336	1	0
520.506	1	6
520.676	1	6
520.846	1	13
521.017	1	12
521.187	1	10
521.357	1	4
521.527	1	5
521.697	1	15
521.867	1	9
522.037	1	18
522.207	1	8
522.377	1	4
522.548	1	6
522.718	1	18
522.888	1	12
523.058	1	14
523.228	1	2
523.398	1	14
523.568	1	0
523.738	1	0
523.909	1	2
524.079	1	8
524.249	1	6
524.419	1	8
524.589	1	0
524.759	1	11
524.929	1	8
525.099	1	8
525.269	1	2
525.439	1	-11
525.610	1	10
525.780	1	1
525.950	1	19
526.120	1	9
526.290	1	9
526.460	1	3
526.630	1	10
526.800	1	4
526.970	1	2
527.140	1	5
527.311	1	13
527.481	1	10
527.651	1	6
527.821	1	-3
527.991	1	9
528.161	1	10
528.331	1	-3
528.501	1	7
528.671	1	16
528.841	1	10
529.011	1	0
529.181	1	3
529.352	1	6
529.522	1	6
529.692	1	3
529.862	1	0
530.032	1	10
530.202	1	10
530.372	1	16
530.542	1	9
530.712	1	17
530.882	1	1
531.052	1	11
531.222	1	5
531.392	1	15
531.563	1	5
531.733	1	12
531.903	1	1
532.073	1	11
532.243	1	13
532.413	1	8
532.583	1	2
532.753	1	18
532.923	1	8
533.093	1	2
533.263	1	9
533.433	1	13
533.603	1	19
533.773	1	4
533.943	1	9
534.113	1	7
534.284	1	6
534.454	1	7
534.624	1	7
534.794	1	18
534.964	1	6
535.134	1	1
535.304	1	15
535.474	1	17
535.644	1	-1
535.814	1	-7
535.984	1	6
536.154	1	1
536.324	1	3
536.494	1	1
536.664	1	6
536.834	1	4
537.004	1	9
537.174	1	4
537.344	1	18
537.514	1	1
537.685	1	14
537.855	1	0
538.025	1	4
538.195	1	11
538.365	1	13
538.535	1	8
538.705	1	5
538.875	1	2
539.045	1	-2
539.215	1	16
539.385	1	14
539.555	1	9
539.725	1	6
539.895	1	11
540.065	1	5
540.235	1	1
540.405	1	-7
540.575	1	15
540.745	1	5
540.915	1	15
541.085	1	-1
541.255	1	8
541.425	1	1
541.595	1	6
541.765	1	-7
541.935	1	7
542.105	1	4
542.275	1	1
542.445	1	5
542.615	1	10
542.785	1	5
542.955	1	7
543.125	1	6
543.295	1	1
543.465	1	15
543.635	1	4
543.805	1	5
543.975	1	8
544.145	1	-5
544.315	1	18
544.485	1	0
544.655	1	7
544.825	1	12
544.995	1	1
545.165	1	7
545.335	1	7
545.505	1	15
545.675	1	6
545.845	1	18
546.015	1	7
546.185	1	19
546.355	1	6
546.525	1	1
546.695	1	8
546.865	1	6
547.035	1	7
547.205	1	6
547.375	1	8
547.545	1	6
547.715	1	-6
547.885	1	5
548.055	1	10
548.225	1	10
548.395	1	3
548.565	1	8
548.735	1	7
548.905	1	15
549.075	1	6
549.245	1	9
549.415	1	0
549.585	1	0
549.755	1	0
549.925	1	10
550.095	1	10
550.265	1	12
550.435	1	11
550.605	1	9
550.775	1	6
550.945	1	1
551.115	1	7
551.285	1	3
551.455	1	14
551.625	1	10
551.795	1	10
551.965	1	1
552.135	1	0
552.305	1	5
552.475	1	11
552.645	1	11
552.815	1	-1
552.985	1	-5
553.155	1	10
553.325	1	6
553.495	1	2
553.665	1	11
553.835	1	12
554.004	1	5
554.174	1	-10
554.344	1	14
554.514	1	0
554.684	1	-2
554.854	1	-2
555.024	1	1
555.194	1	7
555.364	1	4
555.534	1	10
555.704	1	7
555.874	1	8
556.044	1	2
556.214	1	-9
556.384	1	-3
556.554	1	-2
556.724	1	1
556.894	1	3
557.064	1	14
557.234	1	6
557.404	1	-6
557.573	1	10
557.743	1	7
557.913	1	4
558.083	1	12
558.253	1	10
558.423	1	12
558.593	1	11
558.763	1	14
558.933	1	13
559.103	1	5
559.273	1	10
559.443	1	4
559.613	1	-12
559.783	1	5
559.953	1	-4
560.122	1	-2
560.292	1	5
560.462	1	0
560.632	1	11
560.802	1	2
560.972	1	4
561.142	1	-4
561.312	1	6
561.482	1	4
561.652	1	4
561.822	1	4
561.992	1	-1
562.162	1	9
562.331	1	0
562.501	1	4
562.671	1	2
562.841	1	8
563.011	1	-8
563.181	1	6
563.351	1	-2
563.521	1	1
563.691	1	5
563.861	1	-6
564.031	1	9
564.201	1	-1
564.370	1	-2
564.540	1	6
564.710	1	3
564.880	1	3
565.050	1	6
565.220	1	9
565.390	1	6
565.560	1	12
565.730	1	-3
565.900	1	4
566.069	1	8
566.239	1	3
566.409	1	-2
566.579	1	4
566.749	1	10
566.919	1	-1
567.089	1	5
567.259	1	19
567.429	1	-1
567.599	1	-3
567.768	1	3
567.938	1	20
568.108	1	-2
568.278	1	13
568.448	1	7
568.618	1	22
568.788	1	14
568.958	1	2
569.128	1	-10
569.297	1	6
569.467	1	0
569.637	1	9
569.807	1	6
569.977	1	12
570.147	1	10
570.317	1	5
570.487	1	5
570.656	1	-1
570.826	1	1
570.996	1	10
571.166	1	13
571.336	1	18
571.506	1	2
571.676	1	15
571.846	1	1
572.015	1	4
572.185	1	2
572.355	1	16
572.525	1	2
572.695	1	14
572.865	1	5
573.035	1	18
573.205	1	9
573.374	1	4
573.544	1	2
573.714	1	9
573.884	1	6
574.054	1	4
574.224	1	6
574.394	1	9
574.563	1	5
574.733	1	9
574.903	1	3
575.073	1	2
575.243	1	12
575.413	1	6
575.583	1	13
575.752	1	0
575.922	1	2
576.092	1	2
576.262	1	-4
576.432	1	15
576.602	1	10
576.772	1	3
576.941	1	0
577.111	1	10
577.281	1	-6
577.451	1	9
577.621	1	-7
577.791	1	11
577.960	1	8
578.130	1	15
578.300	1	0
578.470	1	7
578.640	1	1
578.810	1	-2
578.979	1	6
579.149	1	5
579.319	1	1
579.489	1	8
579.659	1	15
579.829	1	13
579.998	1	5
580.168	1	4
580.338	1	-1
580.508	1	2
580.678	1	-1
580.848	1	-4
581.017	1	10
581.187	1	5
581.357	1	-2
581.527	1	-2
581.697	1	2
581.867	1	16
582.036	1	7
582.206	1	-2
582.376	1	5
582.546	1	-7
582.716	1	-2
582.885	1	4
583.055	1	0
583.225	1	12
583.395	1	2
583.565	1	-2
583.735	1	2
583.904	1	12
584.074	1	10
584.244	1	9
584.414	1	4
584.584	1	14
584.753	1	3
584.923	1	12
585.093	1	-6
585.263	1	1
585.433	1	-4
585.602	1	-2
585.772	1	-6
585.942	1	-2
586.112	1	7
586.282	1	2
586.451	1	0
586.621	1	13
586.791	1	17
586.961	1	-7
587.131	1	3
587.300	1	0
587.470	1	16
587.640	1	1
587.810	1	3
587.980	1	7
588.149	1	-2
588.319	1	8
588.489	1	13
588.659	1	23
588.829	1	-5
588.998	1	0
589.168	1	11
589.338	1	10
589.508	1	1
589.677	1	1
589.847	1	15
590.017	1	-3
590.187	1	11
590.357	1	12
590.526	1	1
590.696	1	6
590.866	1	14
591.036	1	14
591.205	1	5
591.375	1	-6
591.545	1	9
591.715	1	-6
591.885	1	0
592.054	1	3
592.224	1	15
592.394	1	0
592.564	1	8
592.733	1	14
592.903	1	9
593.073	1	10
593.243	1	19
593.412	1	11
593.582	1	-1
593.752	1	3
593.922	1	-5
594.091	1	1
594.261	1	8
594.431	1	7
594.601	1	3
594.771	1	2
594.940	1	-5
595.110	1	3
595.280	1	-5
595.450	1	9
595.619	1	-2
595.789	1	1
595.959	1	2
596.129	1	18
596.298	1	12
596.468	1	7
596.638	1	-2
596.808	1	2
596.977	1	5
597.147	1	-2
597.317	1	-2
597.487	1	-5
597.656	1	1
597.826	1	3
597.996	1	9
598.166	1	11
598.335	1	2
598.505	1	11
598.675	1	9
598.844	1	3
599.014	1	5
599.184	1	13
599.354	1	7
599.523	1	13
599.693	1	4
599.863	1	10
600.033	1	7
600.202	1	5
600.372	1	-4
600.542	1	0
600.712	1	12
600.881	1	2
601.051	1	3
601.221	1	14
601.390	1	2
601.560	1	-1
601.730	1	8
601.900	1	4
602.069	1	12
602.239	1	15
602.409	1	1
602.578	1	0
602.748	1	0
602.918	1	13
603.088	1	13
603.257	1	13
603.427	1	12
603.597	1	11
603.767	1	-1
603.936	1	-8
604.106	1	-1
604.276	1	10
604.445	1	9
604.615	1	1
604.785	1	16
604.954	1	5
605.124	1	15
605.294	1	2
605.464	1	12
605.633	1	8
605.803	1	8
605.973	1	4
606.142	1	3
606.312	1	8
606.482	1	19
606.652	1	3
606.821	1	2
606.991	1	16
607.161	1	4
607.330	1	2
607.500	1	-1
607.670	1	-1
607.839	1	8
608.009	1	6
608.179	1	7
608.348	1	4
608.518	1	1
608.688	1	20
608.858	1	8
609.027	1	15
609.197	1	-3
609.367	1	0
609.536	1	9
609.706	1	-1
609.876	1	5
610.045	1	-2
610.215	1	9
610.385	1	8
610.554	1	11
610.724	1	11
610.894	1	8
611.063	1	5
611.233	1	-3
611.403	1	11
611.572	1	-2
611.742	1	3
611.912	1	-2
612.081	1	18
612.251	1	14
612.421	1	4
612.590	1	7
612.760	1	20
612.930	1	6
613.099	1	13
613.269	1	12
613.439	1	-4
613.608	1	3
613.778	1	-9
613.948	1	2
614.117	1	1
614.287	1	10
614.457	1	5
614.626	1	11
614.796	1	14
614.966	1	16
615.135	1	11
615.305	1	12
615.475	1	-1
615.644	1	-3
615.814	1	6
615.984	1	14
616.153	1	5
616.323	1	15
616.493	1	4
616.662	1	10
616.832	1	9
617.002	1	-6
617.171	1	-2
617.341	1	6
617.511	1	-4
617.680	1	13
617.850	1	1
618.019	1	13
618.189	1	0
618.359	1	9
618.528	1	10
618.698	1	-9
618.868	1	3
619.037	1	18
619.207	1	7
619.377	1	10
619.546	1	-2
619.716	1	13
619.885	1	3
620.055	1	-1
620.225	1	18
620.394	1	9
620.564	1	3
620.734	1	-5
620.903	1	7
621.073	1	9
621.242	1	14
621.412	1	-5
621.582	1	10
621.751	1	9
621.921	1	12
622.091	1	2
622.260	1	6
622.430	1	14
622.599	1	14
622.769	1	5
622.939	1	4
623.108	1	8
623.278	1	7
623.448	1	7
623.617	1	8
623.787	1	3
623.956	1	3
624.126	1	-8
624.296	1	14
624.465	1	6
624.635	1	11
624.804	1	-5
624.974	1	8
625.144	1	0
625.313	1	11
625.483	1	10
625.652	1	3
625.822	1	8
625.992	1	11
626.161	1	5
626.331	1	13
626.501	1	19
626.670	1	3
626.840	1	11
627.009	1	8
627.179	1	9
627.348	1	7
627.518	1	6
627.688	1	3
627.857	1	23
628.027	1	1
628.196	1	4
628.366	1	12
628.536	1	15
628.705	1	4
628.875	1	12
629.044	1	6
629.214	1	13
629.384	1	0
629.553	1	2
629.723	1	-3
629.892	1	7
630.062	1	12
630.232	1	0
630.401	1	8
630.571	1	8
630.740	1	10
630.910	1	15
631.079	1	11
631.249	1	12
631.419	1	3
631.588	1	10
631.758	1	13
631.927	1	7
632.097	1	-1
632.266	1	8
632.436	1	16
632.606	1	18
632.775	1	11
632.945	1	16
633.114	1	6
633.284	1	8
633.453	1	-5
633.623	1	5
633.793	1	12
633.962	1	15
634.132	1	-5
634.301	1	6
634.471	1	5
634.640	1	12
634.810	1	13
634.979	1	13
635.149	1	12
635.319	1	1
635.488	1	5
635.658	1	16
635.827	1	18
635.997	1	2
636.166	1	17
636.336	1	10
636.505	1	19
636.675	1	10
636.845	1	5
637.014	1	21
637.184	1	5
637.353	1	11
637.523	1	21
637.692	1	4
637.862	1	9
638.031	1	19
638.201	1	7
638.370	1	24
638.540	1	6
638.710	1	0
638.879	1	5
639.049	1	19
639.218	1	9
639.388	1	7
639.557	1	19
639.727	1	10
639.896	1	15
640.066	1	11
640.235	1	15
640.405	1	14
640.574	1	5
640.744	1	16
640.914	1	4
641.083	1	12
641.253	1	8
641.422	1	4
641.592	1	10
641.761	1	20
641.931	1	19
642.100	1	8
642.270	1	7
642.439	1	16
642.609	1	15
642.778	1	9
642.948	1	18
643.117	1	8
643.287	1	13
643.456	1	12
643.626	1	13
643.795	1	-5
643.965	1	12
644.134	1	6
644.304	1	11
644.473	1	12
644.643	1	6
644.812	1	2
644.982	1	3
645.151	1	6
645.321	1	17
645.490	1	16
645.660	1	-5
645.829	1	14
645.999	1	6
646.168	1	13
646.338	1	9
646.507	1	12
646.677	1	1
646.846	1	-1
647.016	1	4
647.185	1	18
647.355	1	15
647.524	1	11
647.694	1	4
647.863	1	14
648.033	1	5
648.202	1	2
648.372	1	4
648.541	1	6
648.711	1	11
648.880	1	-1
649.050	1	7
649.219	1	4
649.389	1	4
649.558	1	10
649.728	1	8
649.897	1	5
650.067	1	1
650.236	1	7
650.406	1	7
650.575	1	19
650.745	1	5
650.914	1	15
651.084	1	-4
651.253	1	8
651.423	1	18
651.592	1	11
651.762	1	7
651.931	1	8
652.101	1	3
652.270	1	6
652.440	1	-4
652.609	1	12
652.778	1	4
652.948	1	17
653.117	1	12
653.287	1	10
653.456	1	5
653.626	1	13
653.795	1	3
653.965	1	0
654.134	1	3
654.304	1	8
654.473	1	8
654.643	1	5
654.812	1	9
654.982	1	8
655.151	1	10
655.320	1	7
655.490	1	-2
655.659	1	7
655.829	1	-4
655.998	1	9
656.168	1	1
656.337	1	9
656.507	1	5
656.676	1	3
656.846	1	10
657.015	1	3
657.184	1	2
657.354	1	7
657.523	1	13
657.693	1	8
657.862	1	11
658.032	1	15
658.201	1	10
658.371	1	5
658.540	1	1
658.709	1	-1
658.879	1	5
659.048	1	12
659.218	1	10
659.387	1	7
659.557	1	-2
659.726	1	3
659.895	1	-8
660.065	1	8
660.234	1	6
660.404	1	19
660.573	1	12
660.743	1	6
660.912	1	15
661.081	1	14
661.251	1	8
661.420	1	-10
661.590	1	10
661.759	1	12
661.929	1	9
662.098	1	6
662.267	1	3
662.437	1	14
662.606	1	5
662.776	1	-4
662.945	1	-2
663.115	1	5
663.284	1	4
663.453	1	14
663.623	1	-2
663.792	1	5
663.962	1	4
664.131	1	7
664.300	1	-7
664.470	1	10
664.639	1	13
664.809	1	3
664.978	1	-8
665.148	1	3
665.317	1	8
665.486	1	6
665.656	1	12
665.825	1	11
665.995	1	1
666.164	1	15
666.333	1	-3
666.503	1	-1
666.672	1	-5
666.842	1	3
667.011	1	-4
667.180	1	-1
667.350	1	6
667.519	1	2
667.689	1	14
667.858	1	4
668.027	1	7
668.197	1	7
668.366	1	26
668.536	1	-3
668.705	1	11
668.874	1	8
669.044	1	4
669.213	1	7
669.382	1	3
669.552	1	5
669.721	1	8
669.891	1	8
670.060	1	16
670.229	1	2
670.399	1	12
670.568	1	3
670.738	1	9
670.907	1	8
671.076	1	7
671.246	1	10
671.415	1	-3
671.584	1	11
671.754	1	17
671.923	1	10
672.093	1	-2
672.262	1	0
672.431	1	6
672.601	1	-2
672.770	1	8
672.939	1	12
673.109	1	12
673.278	1	15
673.448	1	11
673.617	1	-3
673.786	1	-1
