325.333	1	17
325.504	1	5
325.675	1	6
325.846	1	-5
326.017	1	5
326.188	1	10
326.359	1	-6
326.531	1	2
326.702	1	5
326.873	1	-8
327.044	1	11
327.215	1	9
327.386	1	4
327.557	1	3
327.728	1	2
327.899	1	13
328.070	1	11
328.241	1	-5
328.412	1	-7
328.583	1	9
328.754	1	-2
328.926	1	8
329.097	1	4
329.268	1	5
329.439	1	-1
329.610	1	7
329.781	1	-1
329.952	1	-2
330.123	1	1
330.294	1	10
330.465	1	12
330.636	1	11
330.807	1	8
330.978	1	5
331.149	1	1
331.320	1	15
331.492	1	13
331.663	1	5
331.834	1	9
332.005	1	4
332.176	1	2
332.347	1	18
332.518	1	-5
332.689	1	6
332.860	1	-3
333.031	1	0
333.202	1	-2
333.373	1	18
333.544	1	2
333.715	1	-5
333.886	1	5
334.057	1	9
334.228	1	-1
334.399	1	5
334.570	1	4
334.741	1	-3
334.912	1	11
335.084	1	5
335.255	1	-6
335.426	1	6
335.597	1	-5
335.768	1	3
335.939	1	12
336.110	1	3
336.281	1	17
336.452	1	6
336.623	1	12
336.794	1	11
336.965	1	9
337.136	1	-3
337.307	1	10
337.478	1	-2
337.649	1	11
337.820	1	-1
337.991	1	14
338.162	1	7
338.333	1	13
338.504	1	9
338.675	1	18
338.846	1	2
339.017	1	0
339.188	1	-5
339.359	1	8
339.530	1	4
339.701	1	15
339.872	1	8
340.043	1	5
340.214	1	3
340.385	1	-3
340.556	1	10
340.727	1	12
340.898	1	7
341.069	1	9
341.240	1	7
341.411	1	13
341.582	1	1
341.753	1	9
341.924	1	12
342.095	1	5
342.266	1	8
342.437	1	6
342.608	1	2
342.779	1	1
342.950	1	1
343.121	1	12
343.292	1	7
343.463	1	6
343.634	1	11
343.805	1	4
343.976	1	6
344.147	1	6
344.318	1	10
344.489	1	-5
344.660	1	19
344.831	1	-12
345.002	1	10
345.173	1	2
345.344	1	8
345.515	1	-4
345.686	1	5
345.857	1	2
346.028	1	-3
346.199	1	4
346.370	1	12
346.541	1	6
346.712	1	0
346.883	1	2
347.054	1	1
347.225	1	12
347.396	1	-1
347.567	1	10
347.738	1	6
347.909	1	-3
348.080	1	1
348.251	1	12
348.422	1	-5
348.593	1	-7
348.764	1	12
348.935	1	-2
349.106	1	9
349.277	1	15
349.448	1	8
349.619	1	2
349.790	1	7
349.961	1	2
350.132	1	6
350.303	1	1
350.474	1	-2
350.645	1	5
350.816	1	5
350.987	1	-13
351.157	1	9
351.328	1	2
351.499	1	19
351.670	1	1
351.841	1	7
352.012	1	8
352.183	1	10
352.354	1	21
352.525	1	8
352.696	1	7
352.867	1	-7
353.038	1	5
353.209	1	12
353.380	1	7
353.551	1	-6
353.722	1	-3
353.893	1	0
354.064	1	12
354.235	1	2
354.406	1	5
354.576	1	-9
354.747	1	-2
354.918	1	6
355.089	1	0
355.260	1	1
355.431	1	-4
355.602	1	6
355.773	1	11
355.944	1	-2
356.115	1	5
356.286	1	-7
356.457	1	6
356.628	1	-5
356.799	1	0
356.970	1	-1
357.141	1	17
357.311	1	-2
357.482	1	16
357.653	1	6
357.824	1	7
357.995	1	-3
358.166	1	-3
358.337	1	9
358.508	1	3
358.679	1	1
358.850	1	6
359.021	1	2
359.192	1	2
359.363	1	0
359.533	1	-3
359.704	1	10
359.875	1	-2
360.046	1	5
360.217	1	4
360.388	1	-3
360.559	1	4
360.730	1	4
360.901	1	9
361.072	1	4
361.243	1	7
361.414	1	-3
361.584	1	3
361.755	1	3
361.926	1	-10
362.097	1	3
362.268	1	12
362.439	1	-3
362.610	1	12
362.781	1	5
362.952	1	-2
363.123	1	2
363.293	1	-2
363.464	1	1
363.635	1	7
363.806	1	0
363.977	1	9
364.148	1	7
364.319	1	7
364.490	1	12
364.661	1	1
364.832	1	6
365.002	1	-8
365.173	1	-5
365.344	1	-1
365.515	1	4
365.686	1	8
365.857	1	0
366.028	1	-6
366.199	1	-2
366.370	1	-1
366.540	1	8
366.711	1	-6
366.882	1	5
367.053	1	6
367.224	1	-3
367.395	1	-2
367.566	1	13
367.737	1	6
367.908	1	5
368.078	1	-2
368.249	1	-1
368.420	1	2
368.591	1	1
368.762	1	3
368.933	1	10
369.104	1	7
369.274	1	2
369.445	1	-3
369.616	1	2
369.787	1	4
369.958	1	8
370.129	1	6
370.300	1	-2
370.471	1	7
370.641	1	11
370.812	1	-2
370.983	1	2
371.154	1	12
371.325	1	0
371.496	1	3
371.667	1	-9
371.837	1	8
372.008	1	-9
372.179	1	9
372.350	1	-12
372.521	1	-6
372.692	1	-1
372.863	1	6
373.033	1	0
373.204	1	15
373.375	1	0
373.546	1	6
373.717	1	2
373.888	1	7
374.059	1	-2
374.229	1	4
374.400	1	3
374.571	1	-3
374.742	1	3
374.913	1	1
375.084	1	4
375.254	1	8
375.425	1	8
375.596	1	13
375.767	1	4
375.938	1	-3
376.109	1	-2
376.279	1	-2
376.450	1	5
376.621	1	13
376.792	1	4
376.963	1	10
377.134	1	-3
377.304	1	-5
377.475	1	0
377.646	1	8
377.817	1	2
377.988	1	3
378.159	1	19
378.329	1	9
378.500	1	-8
378.671	1	12
378.842	1	6
379.013	1	19
379.184	1	1
379.354	1	-5
379.525	1	7
379.696	1	-1
379.867	1	11
380.038	1	11
380.209	1	3
380.379	1	6
380.550	1	-12
380.721	1	4
380.892	1	2
381.063	1	5
381.233	1	5
381.404	1	12
381.575	1	7
381.746	1	2
381.917	1	8
382.087	1	-4
382.258	1	1
382.429	1	10
382.600	1	-2
382.771	1	-3
382.941	1	-1
383.112	1	3
383.283	1	1
383.454	1	6
383.625	1	10
383.795	1	17
383.966	1	4
384.137	1	2
384.308	1	14
384.479	1	15
384.649	1	6
384.820	1	2
384.991	1	13
385.162	1	1
385.333	1	0
385.503	1	2
385.674	1	5
385.845	1	0
386.016	1	9
386.187	1	-2
386.357	1	-4
386.528	1	11
386.699	1	1
386.870	1	5
387.041	1	1
387.211	1	8
387.382	1	10
387.553	1	8
387.724	1	-13
387.894	1	2
388.065	1	2
388.236	1	9
388.407	1	4
388.578	1	9
388.748	1	3
388.919	1	-3
389.090	1	13
389.261	1	-2
389.431	1	6
389.602	1	0
389.773	1	0
389.944	1	0
390.114	1	-2
390.285	1	8
390.456	1	10
390.627	1	18
390.798	1	-3
390.968	1	9
391.139	1	5
391.310	1	-1
391.481	1	5
391.651	1	11
391.822	1	7
391.993	1	-6
392.164	1	9
392.334	1	6
392.505	1	9
392.676	1	0
392.847	1	1
393.017	1	5
393.188	1	6
393.359	1	3
393.530	1	8
393.700	1	8
393.871	1	6
394.042	1	3
394.213	1	7
394.383	1	7
394.554	1	8
394.725	1	14
394.896	1	6
395.066	1	9
395.237	1	-2
395.408	1	5
395.579	1	10
395.749	1	16
395.920	1	0
396.091	1	13
396.262	1	1
396.432	1	4
396.603	1	3
396.774	1	6
396.945	1	7
397.115	1	9
397.286	1	-2
397.457	1	19
397.627	1	-4
397.798	1	5
397.969	1	7
398.140	1	-2
398.310	1	18
398.481	1	-6
398.652	1	8
398.823	1	5
398.993	1	7
399.164	1	0
399.335	1	-1
399.505	1	4
399.676	1	4
399.847	1	6
400.018	1	7
400.188	1	5
400.359	1	-5
400.530	1	12
400.700	1	5
400.871	1	5
401.042	1	11
401.213	1	8
401.383	1	8
401.554	1	10
401.725	1	0
401.895	1	1
402.066	1	0
402.237	1	17
402.408	1	9
402.578	1	9
402.749	1	12
402.920	1	5
403.090	1	5
403.261	1	0
403.432	1	5
403.603	1	8
403.773	1	4
403.944	1	15
404.115	1	7
404.285	1	2
404.456	1	6
404.627	1	15
404.797	1	6
404.968	1	3
405.139	1	5
405.310	1	5
405.480	1	5
405.651	1	7
405.822	1	2
405.992	1	23
406.163	1	6
406.334	1	19
406.504	1	12
406.675	1	11
406.846	1	8
407.016	1	15
407.187	1	18
407.358	1	6
407.528	1	-5
407.699	1	2
407.870	1	10
408.041	1	3
408.211	1	12
408.382	1	3
408.553	1	17
408.723	1	19
408.894	1	9
409.065	1	9
409.235	1	0
409.406	1	12
409.577	1	14
409.747	1	6
409.918	1	16
410.089	1	11
410.259	1	10
410.430	1	1
410.601	1	10
410.771	1	17
410.942	1	12
411.113	1	11
411.283	1	1
411.454	1	9
411.625	1	16
411.795	1	11
411.966	1	10
412.137	1	6
412.307	1	4
412.478	1	12
412.649	1	12
412.819	1	20
412.990	1	15
413.161	1	14
413.331	1	14
413.502	1	9
413.672	1	3
413.843	1	16
414.014	1	-2
414.184	1	16
414.355	1	7
414.526	1	17
414.696	1	12
414.867	1	12
415.038	1	12
415.208	1	-6
415.379	1	16
415.550	1	15
415.720	1	3
415.891	1	7
416.062	1	3
416.232	1	17
416.403	1	-2
416.573	1	5
416.744	1	14
416.915	1	5
417.085	1	14
417.256	1	1
417.427	1	15
417.597	1	14
417.768	1	16
417.939	1	12
418.109	1	17
418.280	1	12
418.450	1	2
418.621	1	7
418.792	1	8
418.962	1	6
419.133	1	23
419.304	1	11
419.474	1	9
419.645	1	11
419.815	1	24
419.986	1	21
420.157	1	8
420.327	1	6
420.498	1	2
420.669	1	11
420.839	1	11
421.010	1	11
421.180	1	11
421.351	1	6
421.522	1	10
421.692	1	10
421.863	1	14
422.033	1	5
422.204	1	16
422.375	1	16
422.545	1	7
422.716	1	10
422.886	1	16
423.057	1	12
423.228	1	12
423.398	1	12
423.569	1	10
423.740	1	11
423.910	1	10
424.081	1	7
424.251	1	7
424.422	1	10
424.593	1	10
424.763	1	20
424.934	1	18
425.104	1	19
425.275	1	6
425.445	1	7
425.616	1	11
425.787	1	13
425.957	1	12
426.128	1	14
426.298	1	4
426.469	1	20
426.640	1	10
426.810	1	18
426.981	1	15
427.151	1	9
427.322	1	13
427.493	1	13
427.663	1	23
427.834	1	2
428.004	1	14
428.175	1	-6
428.345	1	18
428.516	1	13
428.687	1	9
428.857	1	-6
429.028	1	4
429.198	1	2
429.369	1	6
429.540	1	11
429.710	1	12
429.881	1	9
430.051	1	15
430.222	1	13
430.392	1	10
430.563	1	7
430.734	1	4
430.904	1	10
431.075	1	6
431.245	1	1
431.416	1	-5
431.586	1	12
431.757	1	10
431.927	1	17
432.098	1	11
432.269	1	4
432.439	1	10
432.610	1	11
432.780	1	7
432.951	1	6
433.121	1	4
433.292	1	12
433.462	1	10
433.633	1	13
433.804	1	12
433.974	1	15
434.145	1	6
434.315	1	12
434.486	1	19
434.656	1	0
434.827	1	9
434.997	1	12
435.168	1	-4
435.339	1	2
435.509	1	15
435.680	1	7
435.850	1	4
436.021	1	12
436.191	1	19
436.362	1	18
436.532	1	15
436.703	1	20
436.873	1	14
437.044	1	14
437.214	1	10
437.385	1	13
437.556	1	12
437.726	1	7
437.897	1	6
438.067	1	8
438.238	1	11
438.408	1	10
438.579	1	10
438.749	1	4
438.920	1	11
439.090	1	12
439.261	1	6
439.431	1	12
439.602	1	7
439.772	1	13
439.943	1	12
440.113	1	-1
440.284	1	7
440.455	1	11
440.625	1	21
440.796	1	8
440.966	1	16
441.137	1	3
441.307	1	16
441.478	1	6
441.648	1	7
441.819	1	2
441.989	1	4
442.160	1	15
442.330	1	14
442.501	1	10
442.671	1	12
442.842	1	11
443.012	1	13
443.183	1	7
443.353	1	1
443.524	1	3
443.694	1	5
443.865	1	2
444.035	1	17
444.206	1	3
444.376	1	10
444.547	1	2
444.717	1	7
444.888	1	8
445.058	1	6
445.229	1	6
445.399	1	1
445.570	1	8
445.740	1	2
445.911	1	-1
446.081	1	2
446.252	1	-5
446.422	1	6
446.593	1	1
446.763	1	12
446.934	1	5
447.104	1	6
447.275	1	12
447.445	1	14
447.616	1	12
447.786	1	10
447.957	1	10
448.127	1	5
448.298	1	-5
448.468	1	0
448.639	1	24
448.809	1	12
448.979	1	-1
449.150	1	9
449.320	1	10
449.491	1	14
449.661	1	8
449.832	1	-6
450.002	1	7
450.173	1	7
450.343	1	-1
450.514	1	10
450.684	1	16
450.855	1	21
451.025	1	10
451.196	1	14
451.366	1	16
451.537	1	-3
451.707	1	14
451.878	1	2
452.048	1	8
452.218	1	6
452.389	1	15
452.559	1	15
452.730	1	2
452.900	1	7
453.071	1	4
453.241	1	5
453.412	1	7
453.582	1	9
453.753	1	7
453.923	1	9
454.093	1	-2
454.264	1	13
454.434	1	5
454.605	1	4
454.775	1	10
454.946	1	5
455.116	1	-1
455.287	1	8
455.457	1	-11
455.628	1	0
455.798	1	-1
455.968	1	5
456.139	1	4
456.309	1	22
456.480	1	4
456.650	1	15
456.821	1	6
456.991	1	12
457.161	1	8
457.332	1	13
457.502	1	23
457.673	1	1
457.843	1	3
458.014	1	13
458.184	1	7
458.355	1	11
458.525	1	18
458.695	1	0
458.866	1	0
459.036	1	-2
459.207	1	4
459.377	1	3
459.548	1	1
459.718	1	7
459.888	1	9
460.059	1	-5
460.229	1	7
460.400	1	16
460.570	1	10
460.740	1	2
460.911	1	19
461.081	1	3
461.252	1	10
461.422	1	-5
461.593	1	4
461.763	1	9
461.933	1	7
462.104	1	5
462.274	1	10
462.445	1	9
462.615	1	3
462.785	1	1
462.956	1	-7
463.126	1	5
463.297	1	7
463.467	1	9
463.638	1	5
463.808	1	3
463.978	1	3
464.149	1	4
464.319	1	1
464.490	1	5
464.660	1	1
464.830	1	-1
465.001	1	16
465.171	1	0
465.342	1	-2
465.512	1	2
465.682	1	11
465.853	1	3
466.023	1	3
466.194	1	8
466.364	1	9
466.534	1	1
466.705	1	9
466.875	1	-2
467.045	1	4
467.216	1	8
467.386	1	-2
467.557	1	5
467.727	1	3
467.897	1	11
468.068	1	1
468.238	1	-6
468.409	1	-3
468.579	1	7
468.749	1	8
468.920	1	13
469.090	1	5
469.260	1	0
469.431	1	-1
469.601	1	5
469.772	1	-8
469.942	1	-3
470.112	1	-2
470.283	1	9
470.453	1	11
470.623	1	5
470.794	1	-7
470.964	1	5
471.135	1	-5
471.305	1	5
471.475	1	6
471.646	1	4
471.816	1	-2
471.986	1	8
472.157	1	8
472.327	1	-1
472.497	1	-3
472.668	1	2
472.838	1	2
473.009	1	11
473.179	1	14
473.349	1	-2
473.520	1	-2
473.690	1	5
473.860	1	1
474.031	1	12
474.201	1	5
474.371	1	10
474.542	1	9
474.712	1	15
474.882	1	2
475.053	1	-1
475.223	1	11
475.394	1	-1
475.564	1	12
475.734	1	3
475.905	1	-3
476.075	1	-3
476.245	1	-2
476.416	1	7
476.586	1	10
476.756	1	-5
476.927	1	2
477.097	1	4
477.267	1	5
477.438	1	-6
477.608	1	9
477.778	1	14
477.949	1	8
478.119	1	10
478.289	1	0
478.460	1	2
478.630	1	2
478.800	1	7
478.971	1	-10
479.141	1	9
479.311	1	4
479.482	1	-1
479.652	1	1
479.822	1	3
479.993	1	0
480.163	1	2
480.333	1	3
480.504	1	1
480.674	1	-1
480.844	1	9
481.015	1	3
481.185	1	10
481.355	1	-1
481.525	1	11
481.696	1	15
481.866	1	4
482.036	1	3
482.207	1	1
482.377	1	-4
482.547	1	1
482.718	1	2
482.888	1	6
483.058	1	7
483.229	1	-2
483.399	1	8
483.569	1	-1
483.740	1	1
483.910	1	3
484.080	1	13
484.250	1	13
484.421	1	0
484.591	1	-2
484.761	1	0
484.932	1	-3
485.102	1	0
485.272	1	3
485.443	1	2
485.613	1	2
485.783	1	-4
485.953	1	7
486.124	1	2
486.294	1	3
486.464	1	8
486.635	1	4
486.805	1	4
486.975	1	4
487.146	1	-1
487.316	1	-2
487.486	1	6
487.656	1	10
487.827	1	12
487.997	1	-3
488.167	1	3
488.338	1	8
488.508	1	-1
488.678	1	5
488.848	1	10
489.019	1	6
489.189	1	1
489.359	1	5
489.529	1	9
489.700	1	0
489.870	1	4
490.040	1	-2
490.211	1	14
490.381	1	9
490.551	1	1
490.721	1	-2
490.892	1	-14
491.062	1	8
491.232	1	11
491.402	1	3
491.573	1	0
491.743	1	0
491.913	1	11
492.084	1	4
492.254	1	-3
492.424	1	7
492.594	1	-1
492.765	1	-2
492.935	1	4
493.105	1	13
493.275	1	0
493.446	1	-4
493.616	1	5
493.786	1	5
493.956	1	10
494.127	1	2
494.297	1	3
494.467	1	7
494.637	1	-2
494.808	1	11
494.978	1	-3
495.148	1	-6
495.318	1	8
495.489	1	1
495.659	1	-4
495.829	1	4
495.999	1	7
496.170	1	1
496.340	1	8
496.510	1	1
496.680	1	11
496.851	1	8
497.021	1	5
497.191	1	2
497.361	1	-3
497.532	1	-1
497.702	1	7
497.872	1	0
498.042	1	-1
498.213	1	-1
498.383	1	7
498.553	1	1
498.723	1	6
498.894	1	4
499.064	1	-1
499.234	1	8
499.404	1	3
499.574	1	-4
499.745	1	6
499.915	1	12
500.085	1	-5
500.255	1	5
500.426	1	1
500.596	1	7
500.766	1	9
500.936	1	1
501.106	1	7
501.277	1	-5
501.447	1	-8
501.617	1	8
501.787	1	-1
501.958	1	3
502.128	1	8
502.298	1	6
502.468	1	-7
502.638	1	-1
502.809	1	-4
502.979	1	6
503.149	1	4
503.319	1	8
503.489	1	9
503.660	1	-2
503.830	1	-3
504.000	1	-16
504.170	1	1
504.340	1	-3
504.511	1	1
504.681	1	9
504.851	1	7
505.021	1	6
505.192	1	-2
505.362	1	6
505.532	1	-4
505.702	1	11
505.872	1	8
506.043	1	-4
506.213	1	-7
506.383	1	-1
506.553	1	16
506.723	1	5
506.893	1	6
507.064	1	-6
507.234	1	5
507.404	1	2
507.574	1	-12
507.744	1	-1
507.915	1	2
508.085	1	11
508.255	1	3
508.425	1	4
508.595	1	4
508.766	1	0
508.936	1	3
509.106	1	-10
509.276	1	1
509.446	1	-5
509.616	1	3
509.787	1	-3
509.957	1	15
510.127	1	0
510.297	1	1
510.467	1	3
510.638	1	5
510.808	1	5
510.978	1	4
511.148	1	0
511.318	1	-3
511.488	1	3
511.659	1	5
511.829	1	-3
511.999	1	10
512.169	1	12
512.339	1	12
512.509	1	5
512.680	1	-5
512.850	1	-4
513.020	1	0
513.190	1	10
513.360	1	3
513.530	1	3
513.700	1	11
513.871	1	10
514.041	1	-3
514.211	1	11
514.381	1	-1
514.551	1	-3
514.721	1	2
514.892	1	-5
515.062	1	4
515.232	1	-10
515.402	1	2
515.572	1	0
515.742	1	3
515.912	1	4
516.083	1	2
516.253	1	-2
516.423	1	-2
516.593	1	-5
516.763	1	-7
516.933	1	-7
517.104	1	-12
517.274	1	3
517.444	1	-3
517.614	1	-4
517.784	1	0
517.954	1	16
518.124	1	11
518.294	1	4
518.465	1	-21
518.635	1	2
518.805	1	2
518.975	1	4
519.145	1	6
519.315	1	5
519.485	1	9
519.656	1	-1
519.826	1	5
519.996	1	8
520.166	1	-5
520.336	1	-5
520.506	1	-2
520.676	1	1
520.846	1	10
521.017	1	7
521.187	1	7
521.357	1	-5
521.527	1	-6
521.697	1	-1
521.867	1	-1
522.037	1	7
522.207	1	4
522.377	1	-9
522.548	1	6
522.718	1	9
522.888	1	7
523.058	1	5
523.228	1	-5
523.398	1	6
523.568	1	-9
523.738	1	1
523.909	1	-1
524.079	1	13
524.249	1	1
524.419	1	4
524.589	1	-9
524.759	1	-5
524.929	1	-13
525.099	1	5
525.269	1	-3
525.439	1	-8
525.610	1	8
525.780	1	4
525.950	1	9
526.120	1	9
526.290	1	-2
526.460	1	-8
526.630	1	-1
526.800	1	-5
526.970	1	-1
527.140	1	1
527.311	1	10
527.481	1	-1
527.651	1	5
527.821	1	-12
527.991	1	2
528.161	1	4
528.331	1	-6
528.501	1	5
528.671	1	-3
528.841	1	1
529.011	1	-4
529.181	1	5
529.352	1	2
529.522	1	0
529.692	1	2
529.862	1	0
530.032	1	9
530.202	1	3
530.372	1	10
530.542	1	-6
530.712	1	-1
530.882	1	-3
531.052	1	8
531.222	1	-2
531.392	1	-2
531.563	1	6
531.733	1	2
531.903	1	-1
532.073	1	1
532.243	1	4
532.413	1	6
532.583	1	-6
532.753	1	-4
532.923	1	-7
533.093	1	4
533.263	1	0
533.433	1	-3
533.603	1	11
533.773	1	5
533.943	1	6
534.113	1	8
534.284	1	0
534.454	1	4
534.624	1	4
534.794	1	9
534.964	1	-4
535.134	1	4
535.304	1	6
535.474	1	9
535.644	1	-14
535.814	1	-10
535.984	1	3
536.154	1	5
536.324	1	-3
536.494	1	-3
536.664	1	3
536.834	1	0
537.004	1	-7
537.174	1	0
537.344	1	8
537.514	1	8
537.685	1	5
537.855	1	-1
538.025	1	-3
538.195	1	-2
538.365	1	-2
538.535	1	-3
538.705	1	-9
538.875	1	3
539.045	1	-3
539.215	1	2
539.385	1	6
539.555	1	-1
539.725	1	-3
539.895	1	9
540.065	1	-2
540.235	1	-2
540.405	1	-2
540.575	1	9
540.745	1	4
540.915	1	-1
541.085	1	-11
541.255	1	-2
541.425	1	-2
541.595	1	-9
541.765	1	-5
541.935	1	3
542.105	1	1
542.275	1	-1
542.445	1	-8
542.615	1	7
542.785	1	-3
542.955	1	2
543.125	1	2
543.295	1	-2
543.465	1	8
543.635	1	-3
543.805	1	-1
543.975	1	5
544.145	1	-1
544.315	1	10
544.485	1	-4
544.655	1	1
544.825	1	-2
544.995	1	1
545.165	1	6
545.335	1	-7
545.505	1	-5
545.675	1	3
545.845	1	10
546.015	1	8
546.185	1	-2
546.355	1	-3
546.525	1	4
546.695	1	15
546.865	1	-7
547.035	1	-3
547.205	1	3
547.375	1	0
547.545	1	-2
547.715	1	-6
547.885	1	-6
548.055	1	20
548.225	1	8
548.395	1	0
548.565	1	-2
548.735	1	-15
548.905	1	5
549.075	1	7
549.245	1	10
549.415	1	-2
549.585	1	-2
549.755	1	0
549.925	1	-1
550.095	1	-1
550.265	1	8
550.435	1	-3
550.605	1	6
550.775	1	3
550.945	1	6
551.115	1	-5
551.285	1	-1
551.455	1	8
551.625	1	15
551.795	1	8
551.965	1	-3
552.135	1	1
552.305	1	-1
552.475	1	10
552.645	1	2
552.815	1	-1
552.985	1	-13
553.155	1	5
553.325	1	1
553.495	1	0
553.665	1	9
553.835	1	16
554.004	1	1
554.174	1	-11
554.344	1	5
554.514	1	2
554.684	1	-12
554.854	1	-3
555.024	1	-8
555.194	1	6
555.364	1	5
555.534	1	7
555.704	1	3
555.874	1	3
556.044	1	3
556.214	1	5
556.384	1	-11
556.554	1	-6
556.724	1	1
556.894	1	2
557.064	1	5
557.234	1	10
557.404	1	-13
557.573	1	4
557.743	1	-15
557.913	1	1
558.083	1	4
558.253	1	2
558.423	1	6
558.593	1	7
558.763	1	7
558.933	1	8
559.103	1	-9
559.273	1	-1
559.443	1	-7
559.613	1	-10
559.783	1	4
559.953	1	-5
560.122	1	-3
560.292	1	-1
560.462	1	-9
560.632	1	11
560.802	1	-5
560.972	1	-6
561.142	1	-12
561.312	1	-3
561.482	1	11
561.652	1	3
561.822	1	4
561.992	1	-7
562.162	1	1
562.331	1	-2
562.501	1	-4
562.671	1	3
562.841	1	0
563.011	1	1
563.181	1	-8
563.351	1	-1
563.521	1	4
563.691	1	3
563.861	1	3
564.031	1	-1
564.201	1	0
564.370	1	0
564.540	1	-8
564.710	1	-4
564.880	1	-4
565.050	1	12
565.220	1	4
565.390	1	3
565.560	1	4
565.730	1	-6
565.900	1	4
566.069	1	1
566.239	1	1
566.409	1	1
566.579	1	-12
566.749	1	0
566.919	1	-3
567.089	1	-8
567.259	1	3
567.429	1	-5
567.599	1	1
567.768	1	-8
567.938	1	5
568.108	1	-2
568.278	1	3
568.448	1	4
568.618	1	11
568.788	1	9
568.958	1	-13
569.128	1	-11
569.297	1	-5
569.467	1	-4
569.637	1	10
569.807	1	8
569.977	1	6
570.147	1	10
570.317	1	-7
570.487	1	-18
570.656	1	2
570.826	1	-3
570.996	1	6
571.166	1	10
571.336	1	9
571.506	1	0
571.676	1	3
571.846	1	2
572.015	1	1
572.185	1	5
572.355	1	11
572.525	1	2
572.695	1	4
572.865	1	3
573.035	1	11
573.205	1	4
573.374	1	1
573.544	1	5
573.714	1	2
573.884	1	-2
574.054	1	0
574.224	1	7
574.394	1	-5
574.563	1	-2
574.733	1	0
574.903	1	-7
575.073	1	8
575.243	1	1
575.413	1	9
575.583	1	7
575.752	1	-4
575.922	1	-2
576.092	1	4
576.262	1	0
576.432	1	8
576.602	1	3
576.772	1	-4
576.941	1	-3
577.111	1	2
577.281	1	-10
577.451	1	4
577.621	1	-7
577.791	1	3
577.960	1	4
578.130	1	-1
578.300	1	0
578.470	1	4
578.640	1	0
578.810	1	-6
578.979	1	6
579.149	1	0
579.319	1	5
579.489	1	-3
579.659	1	7
579.829	1	10
579.998	1	4
580.168	1	1
580.338	1	-10
580.508	1	10
580.678	1	-4
580.848	1	-2
581.017	1	-2
581.187	1	6
581.357	1	-2
581.527	1	-4
581.697	1	-1
581.867	1	3
582.036	1	5
582.206	1	-5
582.376	1	0
582.546	1	-8
582.716	1	-12
582.885	1	-1
583.055	1	6
583.225	1	14
583.395	1	-6
583.565	1	-7
583.735	1	4
583.904	1	7
584.074	1	-1
584.244	1	3
584.414	1	-8
584.584	1	6
584.753	1	-1
584.923	1	3
585.093	1	-1
585.263	1	3
585.433	1	-6
585.602	1	6
585.772	1	-1
585.942	1	0
586.112	1	3
586.282	1	0
586.451	1	-1
586.621	1	5
586.791	1	1
586.961	1	-3
587.131	1	6
587.300	1	0
587.470	1	12
587.640	1	-1
587.810	1	3
587.980	1	-1
588.149	1	-6
588.319	1	5
588.489	1	-5
588.659	1	14
588.829	1	6
588.998	1	-5
589.168	1	1
589.338	1	9
589.508	1	-7
589.677	1	-8
589.847	1	7
590.017	1	11
590.187	1	-11
590.357	1	-2
590.526	1	0
590.696	1	-3
590.866	1	11
591.036	1	13
591.205	1	2
591.375	1	-5
591.545	1	-5
591.715	1	-13
591.885	1	3
592.054	1	-5
592.224	1	9
592.394	1	-10
592.564	1	9
592.733	1	8
592.903	1	9
593.073	1	-8
593.243	1	1
593.412	1	5
593.582	1	-2
593.752	1	4
593.922	1	-7
594.091	1	10
594.261	1	7
594.431	1	12
594.601	1	3
594.771	1	1
594.940	1	-3
595.110	1	-5
595.280	1	-8
595.450	1	17
595.619	1	2
595.789	1	-9
595.959	1	8
596.129	1	1
596.298	1	12
596.468	1	0
596.638	1	-7
596.808	1	2
596.977	1	8
597.147	1	7
597.317	1	-2
597.487	1	-9
597.656	1	-6
597.826	1	1
597.996	1	10
598.166	1	-2
598.335	1	-4
598.505	1	-2
598.675	1	-3
598.844	1	-6
599.014	1	2
599.184	1	6
599.354	1	10
599.523	1	0
599.693	1	-5
599.863	1	2
600.033	1	-7
600.202	1	-1
600.372	1	-6
600.542	1	-5
600.712	1	0
600.881	1	5
601.051	1	3
601.221	1	13
601.390	1	-6
601.560	1	-2
601.730	1	0
601.900	1	-5
602.069	1	1
602.239	1	19
602.409	1	-1
602.578	1	-1
602.748	1	1
602.918	1	2
603.088	1	6
603.257	1	4
603.427	1	-5
603.597	1	-1
603.767	1	2
603.936	1	-6
604.106	1	-1
604.276	1	6
604.445	1	2
604.615	1	0
604.785	1	12
604.954	1	-3
605.124	1	2
605.294	1	-2
605.464	1	15
605.633	1	2
605.803	1	4
605.973	1	3
606.142	1	2
606.312	1	5
606.482	1	4
606.652	1	-4
606.821	1	-10
606.991	1	10
607.161	1	4
607.330	1	-3
607.500	1	-12
607.670	1	-4
607.839	1	1
608.009	1	9
608.179	1	-2
608.348	1	9
608.518	1	3
608.688	1	17
608.858	1	7
609.027	1	8
609.197	1	-4
609.367	1	7
609.536	1	3
609.706	1	-1
609.876	1	4
610.045	1	-3
610.215	1	0
610.385	1	-3
610.554	1	2
610.724	1	7
610.894	1	3
611.063	1	6
611.233	1	-1
611.403	1	2
611.572	1	-8
611.742	1	-3
611.912	1	7
612.081	1	4
612.251	1	4
612.421	1	9
612.590	1	-8
612.760	1	2
612.930	1	-1
613.099	1	9
613.269	1	3
613.439	1	4
613.608	1	1
613.778	1	-1
613.948	1	4
614.117	1	3
614.287	1	7
614.457	1	9
614.626	1	13
614.796	1	12
614.966	1	12
615.135	1	3
615.305	1	-3
615.475	1	2
615.644	1	-2
615.814	1	1
615.984	1	12
616.153	1	-5
616.323	1	6
616.493	1	3
616.662	1	-2
616.832	1	5
617.002	1	-4
617.171	1	0
617.341	1	-2
617.511	1	-13
617.680	1	12
617.850	1	5
618.019	1	10
618.189	1	-7
618.359	1	-1
618.528	1	4
618.698	1	-5
618.868	1	-2
619.037	1	4
619.207	1	2
619.377	1	-4
619.546	1	2
619.716	1	-3
619.885	1	8
620.055	1	-13
620.225	1	8
620.394	1	11
620.564	1	3
620.734	1	-8
620.903	1	11
621.073	1	4
621.242	1	4
621.412	1	2
621.582	1	5
621.751	1	3
621.921	1	6
622.091	1	0
622.260	1	1
622.430	1	2
622.599	1	11
622.769	1	2
622.939	1	3
623.108	1	2
623.278	1	1
623.448	1	10
623.617	1	0
623.787	1	5
623.956	1	1
624.126	1	1
624.296	1	-2
624.465	1	2
624.635	1	15
624.804	1	3
624.974	1	4
625.144	1	-6
625.313	1	7
625.483	1	14
625.652	1	-2
625.822	1	11
625.992	1	7
626.161	1	14
626.331	1	6
626.501	1	17
626.670	1	-4
626.840	1	-1
627.009	1	15
627.179	1	8
627.348	1	6
627.518	1	9
627.688	1	-8
627.857	1	5
628.027	1	4
628.196	1	-1
628.366	1	1
628.536	1	-3
628.705	1	0
628.875	1	3
629.044	1	1
629.214	1	14
629.384	1	-5
629.553	1	4
629.723	1	3
629.892	1	10
630.062	1	1
630.232	1	-7
630.401	1	11
630.571	1	9
630.740	1	8
630.910	1	10
631.079	1	5
631.249	1	16
631.419	1	-4
631.588	1	1
631.758	1	9
631.927	1	-3
632.097	1	-4
632.266	1	13
632.436	1	4
632.606	1	10
632.775	1	3
632.945	1	4
633.114	1	1
633.284	1	8
633.453	1	6
633.623	1	2
633.793	1	11
633.962	1	12
634.132	1	-6
634.301	1	1
634.471	1	-1
634.640	1	4
634.810	1	4
634.979	1	14
635.149	1	2
635.319	1	-3
635.488	1	10
635.658	1	4
635.827	1	6
635.997	1	1
636.166	1	14
636.336	1	11
636.505	1	13
636.675	1	-2
636.845	1	0
637.014	1	12
637.184	1	1
637.353	1	4
637.523	1	11
637.692	1	3
637.862	1	-1
638.031	1	10
638.201	1	8
638.370	1	5
638.540	1	5
638.710	1	-2
638.879	1	7
639.049	1	4
639.218	1	5
639.388	1	6
639.557	1	14
639.727	1	-1
639.896	1	12
640.066	1	13
640.235	1	5
640.405	1	10
640.574	1	16
640.744	1	9
640.914	1	3
641.083	1	4
641.253	1	3
641.422	1	-7
641.592	1	-1
641.761	1	10
641.931	1	19
642.100	1	5
642.270	1	-2
642.439	1	9
642.609	1	8
642.778	1	-1
642.948	1	7
643.117	1	-7
643.287	1	8
643.456	1	3
643.626	1	8
643.795	1	-3
643.965	1	5
644.134	1	4
644.304	1	4
644.473	1	4
644.643	1	3
644.812	1	4
644.982	1	4
645.151	1	2
645.321	1	-2
645.490	1	9
645.660	1	7
645.829	1	2
645.999	1	-3
646.168	1	10
646.338	1	-2
646.507	1	-5
646.677	1	-2
646.846	1	0
647.016	1	0
647.185	1	1
647.355	1	8
647.524	1	8
647.694	1	11
647.863	1	10
648.033	1	5
648.202	1	-5
648.372	1	3
648.541	1	0
648.711	1	5
648.880	1	3
649.050	1	13
649.219	1	4
649.389	1	6
649.558	1	6
649.728	1	3
649.897	1	7
650.067	1	-5
650.236	1	2
650.406	1	3
650.575	1	8
650.745	1	2
650.914	1	3
651.084	1	-2
651.253	1	4
651.423	1	22
651.592	1	7
651.762	1	5
651.931	1	3
652.101	1	-11
652.270	1	11
652.440	1	-6
652.609	1	0
652.778	1	1
652.948	1	13
653.117	1	16
653.287	1	1
653.456	1	4
653.626	1	14
653.795	1	-5
653.965	1	-1
654.134	1	3
654.304	1	3
654.473	1	8
654.643	1	4
654.812	1	-7
654.982	1	10
655.151	1	4
655.320	1	15
655.490	1	1
655.659	1	1
655.829	1	0
655.998	1	10
656.168	1	2
656.337	1	1
656.507	1	1
656.676	1	-1
656.846	1	13
657.015	1	-4
657.184	1	0
657.354	1	6
657.523	1	-1
657.693	1	0
657.862	1	2
658.032	1	9
658.201	1	1
658.371	1	4
658.540	1	3
658.709	1	2
658.879	1	-2
659.048	1	7
659.218	1	2
659.387	1	-1
659.557	1	-5
659.726	1	1
659.895	1	-4
660.065	1	-3
660.234	1	-8
660.404	1	9
660.573	1	11
660.743	1	6
660.912	1	8
661.081	1	10
661.251	1	2
661.420	1	-6
661.590	1	9
661.759	1	3
661.929	1	1
662.098	1	5
662.267	1	8
662.437	1	-5
662.606	1	1
662.776	1	-6
662.945	1	2
663.115	1	-2
663.284	1	-4
663.453	1	-1
663.623	1	-4
663.792	1	-2
663.962	1	1
664.131	1	9
664.300	1	-6
664.470	1	4
664.639	1	10
664.809	1	-5
664.978	1	-7
665.148	1	16
665.317	1	11
665.486	1	9
665.656	1	7
665.825	1	2
665.995	1	-1
666.164	1	9
666.333	1	-4
666.503	1	-5
666.672	1	-2
666.842	1	-2
667.011	1	2
667.180	1	-2
667.350	1	4
667.519	1	-1
667.689	1	4
667.858	1	6
668.027	1	3
668.197	1	2
668.366	1	9
668.536	1	2
668.705	1	-4
668.874	1	2
669.044	1	4
669.213	1	5
669.382	1	4
669.552	1	-1
669.721	1	-5
669.891	1	-1
670.060	1	5
670.229	1	4
670.399	1	1
670.568	1	-8
670.738	1	3
670.907	1	14
671.076	1	13
671.246	1	-4
671.415	1	0
671.584	1	7
671.754	1	5
671.923	1	1
672.093	1	-2
672.262	1	-5
672.431	1	12
672.601	1	-3
672.770	1	3
672.939	1	-4
673.109	1	-4
673.278	1	8
673.448	1	8
673.617	1	1
673.786	1	-3
