325.333	1	7
325.504	1	10
325.675	1	19
325.846	1	6
326.017	1	13
326.188	1	13
326.359	1	3
326.531	1	11
326.702	1	8
326.873	1	14
327.044	1	10
327.215	1	5
327.386	1	17
327.557	1	8
327.728	1	22
327.899	1	15
328.070	1	15
328.241	1	23
328.412	1	3
328.583	1	10
328.754	1	13
328.926	1	8
329.097	1	11
329.268	1	20
329.439	1	7
329.610	1	17
329.781	1	11
329.952	1	11
330.123	1	5
330.294	1	14
330.465	1	9
330.636	1	17
330.807	1	13
330.978	1	15
331.149	1	5
331.320	1	20
331.492	1	19
331.663	1	9
331.834	1	22
332.005	1	6
332.176	1	16
332.347	1	19
332.518	1	11
332.689	1	13
332.860	1	7
333.031	1	5
333.202	1	9
333.373	1	17
333.544	1	9
333.715	1	5
333.886	1	5
334.057	1	25
334.228	1	6
334.399	1	10
334.570	1	16
334.741	1	16
334.912	1	6
335.084	1	17
335.255	1	6
335.426	1	7
335.597	1	7
335.768	1	11
335.939	1	12
336.110	1	10
336.281	1	12
336.452	1	14
336.623	1	4
336.794	1	14
336.965	1	13
337.136	1	5
337.307	1	14
337.478	1	5
337.649	1	26
337.820	1	4
337.991	1	15
338.162	1	13
338.333	1	8
338.504	1	17
338.675	1	15
338.846	1	21
339.017	1	9
339.188	1	11
339.359	1	9
339.530	1	16
339.701	1	22
339.872	1	12
340.043	1	18
340.214	1	3
340.385	1	-1
340.556	1	7
340.727	1	21
340.898	1	16
341.069	1	6
341.240	1	9
341.411	1	20
341.582	1	10
341.753	1	25
341.924	1	8
342.095	1	9
342.266	1	12
342.437	1	11
342.608	1	17
342.779	1	11
342.950	1	5
343.121	1	12
343.292	1	13
343.463	1	6
343.634	1	10
343.805	1	24
343.976	1	4
344.147	1	7
344.318	1	19
344.489	1	5
344.660	1	21
344.831	1	7
345.002	1	16
345.173	1	8
345.344	1	12
345.515	1	13
345.686	1	13
345.857	1	17
346.028	1	10
346.199	1	12
346.370	1	22
346.541	1	6
346.712	1	13
346.883	1	23
347.054	1	12
347.225	1	18
347.396	1	3
347.567	1	26
347.738	1	15
347.909	1	11
348.080	1	10
348.251	1	11
348.422	1	10
348.593	1	8
348.764	1	19
348.935	1	5
349.106	1	10
349.277	1	23
349.448	1	12
349.619	1	9
349.790	1	15
349.961	1	12
350.132	1	5
350.303	1	12
350.474	1	13
350.645	1	20
350.816	1	14
350.987	1	3
351.157	1	17
351.328	1	7
351.499	1	24
351.670	1	6
351.841	1	23
352.012	1	24
352.183	1	11
352.354	1	19
352.525	1	17
352.696	1	18
352.867	1	14
353.038	1	13
353.209	1	28
353.380	1	12
353.551	1	6
353.722	1	6
353.893	1	20
354.064	1	20
354.235	1	20
354.406	1	13
354.576	1	14
354.747	1	11
354.918	1	27
355.089	1	7
355.260	1	14
355.431	1	6
355.602	1	9
355.773	1	7
355.944	1	12
356.115	1	16
356.286	1	13
356.457	1	20
356.628	1	11
356.799	1	6
356.970	1	5
357.141	1	17
357.311	1	16
357.482	1	22
357.653	1	14
357.824	1	13
357.995	1	12
358.166	1	14
358.337	1	15
358.508	1	15
358.679	1	3
358.850	1	24
359.021	1	17
359.192	1	19
359.363	1	11
359.533	1	-1
359.704	1	17
359.875	1	12
360.046	1	11
360.217	1	19
360.388	1	9
360.559	1	25
360.730	1	11
360.901	1	22
361.072	1	4
361.243	1	23
361.414	1	8
361.584	1	16
361.755	1	19
361.926	1	6
362.097	1	10
362.268	1	17
362.439	1	11
362.610	1	22
362.781	1	5
362.952	1	16
363.123	1	14
363.293	1	18
363.464	1	5
363.635	1	21
363.806	1	10
363.977	1	29
364.148	1	13
364.319	1	32
364.490	1	19
364.661	1	7
364.832	1	24
365.002	1	13
365.173	1	-1
365.344	1	7
365.515	1	10
365.686	1	13
365.857	1	10
366.028	1	16
366.199	1	12
366.370	1	4
366.540	1	5
366.711	1	7
366.882	1	21
367.053	1	23
367.224	1	14
367.395	1	17
367.566	1	25
367.737	1	9
367.908	1	14
368.078	1	12
368.249	1	12
368.420	1	22
368.591	1	16
368.762	1	19
368.933	1	21
369.104	1	20
369.274	1	10
369.445	1	4
369.616	1	26
369.787	1	14
369.958	1	20
370.129	1	11
370.300	1	11
370.471	1	9
370.641	1	20
370.812	1	13
370.983	1	15
371.154	1	27
371.325	1	27
371.496	1	4
371.667	1	14
371.837	1	14
372.008	1	19
372.179	1	18
372.350	1	15
372.521	1	9
372.692	1	10
372.863	1	17
373.033	1	10
373.204	1	21
373.375	1	13
373.546	1	7
373.717	1	16
373.888	1	15
374.059	1	25
374.229	1	13
374.400	1	22
374.571	1	7
374.742	1	6
374.913	1	1
375.084	1	26
375.254	1	17
375.425	1	16
375.596	1	20
375.767	1	27
375.938	1	11
376.109	1	14
376.279	1	10
376.450	1	13
376.621	1	16
376.792	1	16
376.963	1	19
377.134	1	19
377.304	1	5
377.475	1	15
377.646	1	19
377.817	1	15
377.988	1	9
378.159	1	15
378.329	1	26
378.500	1	16
378.671	1	16
378.842	1	26
379.013	1	24
379.184	1	19
379.354	1	12
379.525	1	24
379.696	1	14
379.867	1	22
380.038	1	20
380.209	1	15
380.379	1	13
380.550	1	13
380.721	1	14
380.892	1	17
381.063	1	27
381.233	1	14
381.404	1	19
381.575	1	27
381.746	1	22
381.917	1	15
382.087	1	18
382.258	1	29
382.429	1	26
382.600	1	8
382.771	1	29
382.941	1	15
383.112	1	18
383.283	1	23
383.454	1	14
383.625	1	26
383.795	1	28
383.966	1	25
384.137	1	14
384.308	1	15
384.479	1	31
384.649	1	18
384.820	1	24
384.991	1	28
385.162	1	15
385.333	1	21
385.503	1	19
385.674	1	25
385.845	1	16
386.016	1	29
386.187	1	14
386.357	1	15
386.528	1	23
386.699	1	10
386.870	1	18
387.041	1	14
387.211	1	22
387.382	1	26
387.553	1	21
387.724	1	4
387.894	1	11
388.065	1	30
388.236	1	26
388.407	1	25
388.578	1	31
388.748	1	27
388.919	1	11
389.090	1	27
389.261	1	12
389.431	1	27
389.602	1	23
389.773	1	18
389.944	1	25
390.114	1	13
390.285	1	25
390.456	1	30
390.627	1	34
390.798	1	23
390.968	1	38
391.139	1	31
391.310	1	12
391.481	1	26
391.651	1	30
391.822	1	23
391.993	1	22
392.164	1	23
392.334	1	22
392.505	1	26
392.676	1	19
392.847	1	17
393.017	1	29
393.188	1	15
393.359	1	33
393.530	1	25
393.700	1	30
393.871	1	26
394.042	1	23
394.213	1	24
394.383	1	31
394.554	1	29
394.725	1	38
394.896	1	25
395.066	1	27
395.237	1	21
395.408	1	31
395.579	1	31
395.749	1	18
395.920	1	19
396.091	1	18
396.262	1	14
396.432	1	21
396.603	1	31
396.774	1	31
396.945	1	18
397.115	1	28
397.286	1	27
397.457	1	30
397.627	1	15
397.798	1	32
397.969	1	27
398.140	1	20
398.310	1	30
398.481	1	25
398.652	1	13
398.823	1	23
398.993	1	37
399.164	1	23
399.335	1	29
399.505	1	17
399.676	1	23
399.847	1	28
400.018	1	27
400.188	1	32
400.359	1	19
400.530	1	39
400.700	1	28
400.871	1	39
401.042	1	31
401.213	1	18
401.383	1	29
401.554	1	30
401.725	1	22
401.895	1	40
402.066	1	30
402.237	1	44
402.408	1	45
402.578	1	27
402.749	1	29
402.920	1	29
403.090	1	31
403.261	1	34
403.432	1	26
403.603	1	37
403.773	1	39
403.944	1	33
404.115	1	40
404.285	1	25
404.456	1	31
404.627	1	34
404.797	1	26
404.968	1	32
405.139	1	33
405.310	1	34
405.480	1	32
405.651	1	36
405.822	1	31
405.992	1	34
406.163	1	25
406.334	1	40
406.504	1	36
406.675	1	36
406.846	1	35
407.016	1	36
407.187	1	41
407.358	1	28
407.528	1	36
407.699	1	28
407.870	1	27
408.041	1	29
408.211	1	41
408.382	1	29
408.553	1	40
408.723	1	38
408.894	1	30
409.065	1	36
409.235	1	22
409.406	1	37
409.577	1	36
409.747	1	38
409.918	1	34
410.089	1	42
410.259	1	34
410.430	1	28
410.601	1	53
410.771	1	36
410.942	1	38
411.113	1	39
411.283	1	38
411.454	1	45
411.625	1	37
411.795	1	44
411.966	1	37
412.137	1	43
412.307	1	32
412.478	1	40
412.649	1	43
412.819	1	43
412.990	1	37
413.161	1	42
413.331	1	34
413.502	1	38
413.672	1	24
413.843	1	43
414.014	1	37
414.184	1	41
414.355	1	42
414.526	1	42
414.696	1	34
414.867	1	57
415.038	1	37
415.208	1	25
415.379	1	33
415.550	1	37
415.720	1	39
415.891	1	29
416.062	1	27
416.232	1	52
416.403	1	21
416.573	1	40
416.744	1	43
416.915	1	36
417.085	1	37
417.256	1	24
417.427	1	42
417.597	1	31
417.768	1	40
417.939	1	37
418.109	1	41
418.280	1	37
418.450	1	38
418.621	1	28
418.792	1	38
418.962	1	42
419.133	1	44
419.304	1	38
419.474	1	43
419.645	1	34
419.815	1	46
419.986	1	41
420.157	1	33
420.327	1	31
420.498	1	34
420.669	1	28
420.839	1	40
421.010	1	29
421.180	1	36
421.351	1	29
421.522	1	32
421.692	1	38
421.863	1	33
422.033	1	39
422.204	1	34
422.375	1	43
422.545	1	43
422.716	1	46
422.886	1	42
423.057	1	40
423.228	1	42
423.398	1	38
423.569	1	38
423.740	1	40
423.910	1	35
424.081	1	45
424.251	1	30
424.422	1	39
424.593	1	35
424.763	1	36
424.934	1	38
425.104	1	47
425.275	1	47
425.445	1	36
425.616	1	45
425.787	1	30
425.957	1	35
426.128	1	30
426.298	1	30
426.469	1	45
426.640	1	36
426.810	1	38
426.981	1	29
427.151	1	49
427.322	1	37
427.493	1	38
427.663	1	39
427.834	1	25
428.004	1	43
428.175	1	31
428.345	1	35
428.516	1	31
428.687	1	35
428.857	1	40
429.028	1	33
429.198	1	33
429.369	1	38
429.540	1	41
429.710	1	39
429.881	1	38
430.051	1	30
430.222	1	35
430.392	1	41
430.563	1	50
430.734	1	45
430.904	1	34
431.075	1	37
431.245	1	35
431.416	1	26
431.586	1	37
431.757	1	46
431.927	1	32
432.098	1	31
432.269	1	45
432.439	1	36
432.610	1	42
432.780	1	36
432.951	1	26
433.121	1	38
433.292	1	37
433.462	1	41
433.633	1	51
433.804	1	37
433.974	1	52
434.145	1	38
434.315	1	41
434.486	1	36
434.656	1	39
434.827	1	27
434.997	1	38
435.168	1	39
435.339	1	38
435.509	1	49
435.680	1	35
435.850	1	34
436.021	1	36
436.191	1	38
436.362	1	31
436.532	1	42
436.703	1	39
436.873	1	34
437.044	1	48
437.214	1	41
437.385	1	38
437.556	1	42
437.726	1	32
437.897	1	29
438.067	1	28
438.238	1	34
438.408	1	40
438.579	1	34
438.749	1	40
438.920	1	33
439.090	1	39
439.261	1	46
439.431	1	35
439.602	1	42
439.772	1	29
439.943	1	38
440.113	1	27
440.284	1	34
440.455	1	37
440.625	1	29
440.796	1	38
440.966	1	43
441.137	1	31
441.307	1	36
441.478	1	35
441.648	1	44
441.819	1	36
441.989	1	38
442.160	1	35
442.330	1	36
442.501	1	24
442.671	1	43
442.842	1	29
443.012	1	48
443.183	1	37
443.353	1	26
443.524	1	24
443.694	1	24
443.865	1	31
444.035	1	33
444.206	1	31
444.376	1	33
444.547	1	22
444.717	1	40
444.888	1	40
445.058	1	36
445.229	1	34
445.399	1	33
445.570	1	32
445.740	1	35
445.911	1	41
446.081	1	33
446.252	1	23
446.422	1	29
446.593	1	28
446.763	1	30
446.934	1	26
447.104	1	25
447.275	1	32
447.445	1	41
447.616	1	36
447.786	1	35
447.957	1	25
448.127	1	26
448.298	1	23
448.468	1	36
448.639	1	40
448.809	1	40
448.979	1	32
449.150	1	35
449.320	1	36
449.491	1	42
449.661	1	23
449.832	1	34
450.002	1	31
450.173	1	39
450.343	1	27
450.514	1	38
450.684	1	35
450.855	1	32
451.025	1	28
451.196	1	41
451.366	1	45
451.537	1	35
451.707	1	38
451.878	1	34
452.048	1	25
452.218	1	23
452.389	1	31
452.559	1	41
452.730	1	31
452.900	1	24
453.071	1	29
453.241	1	42
453.412	1	31
453.582	1	31
453.753	1	33
453.923	1	29
454.093	1	14
454.264	1	31
454.434	1	27
454.605	1	24
454.775	1	36
454.946	1	29
455.116	1	29
455.287	1	35
455.457	1	31
455.628	1	19
455.798	1	32
455.968	1	29
456.139	1	30
456.309	1	34
456.480	1	33
456.650	1	32
456.821	1	30
456.991	1	43
457.161	1	36
457.332	1	42
457.502	1	40
457.673	1	29
457.843	1	24
458.014	1	26
458.184	1	26
458.355	1	40
458.525	1	34
458.695	1	24
458.866	1	12
459.036	1	23
459.207	1	33
459.377	1	20
459.548	1	26
459.718	1	25
459.888	1	22
460.059	1	24
460.229	1	45
460.400	1	38
460.570	1	26
460.740	1	17
460.911	1	38
461.081	1	29
461.252	1	14
461.422	1	21
461.593	1	21
461.763	1	25
461.933	1	18
462.104	1	26
462.274	1	29
462.445	1	26
462.615	1	16
462.785	1	15
462.956	1	29
463.126	1	25
463.297	1	24
463.467	1	26
463.638	1	25
463.808	1	18
463.978	1	28
464.149	1	39
464.319	1	25
464.490	1	17
464.660	1	16
464.830	1	27
465.001	1	23
465.171	1	17
465.342	1	19
465.512	1	19
465.682	1	17
465.853	1	13
466.023	1	28
466.194	1	24
466.364	1	22
466.534	1	23
466.705	1	24
466.875	1	21
467.045	1	35
467.216	1	20
467.386	1	18
467.557	1	23
467.727	1	21
467.897	1	29
468.068	1	15
468.238	1	11
468.409	1	22
468.579	1	11
468.749	1	26
468.920	1	27
469.090	1	16
469.260	1	22
469.431	1	20
469.601	1	30
469.772	1	12
469.942	1	20
470.112	1	11
470.283	1	18
470.453	1	16
470.623	1	20
470.794	1	12
470.964	1	21
471.135	1	22
471.305	1	13
471.475	1	18
471.646	1	22
471.816	1	25
471.986	1	16
472.157	1	17
472.327	1	8
472.497	1	7
472.668	1	10
472.838	1	24
473.009	1	36
473.179	1	11
473.349	1	27
473.520	1	15
473.690	1	15
473.860	1	18
474.031	1	29
474.201	1	17
474.371	1	26
474.542	1	23
474.712	1	18
474.882	1	14
475.053	1	17
475.223	1	20
475.394	1	4
475.564	1	17
475.734	1	22
475.905	1	19
476.075	1	14
476.245	1	19
476.416	1	20
476.586	1	27
476.756	1	22
476.927	1	17
477.097	1	5
477.267	1	29
477.438	1	17
477.608	1	16
477.778	1	25
477.949	1	18
478.119	1	27
478.289	1	27
478.460	1	14
478.630	1	17
478.800	1	28
478.971	1	8
479.141	1	16
479.311	1	27
479.482	1	19
479.652	1	14
479.822	1	29
479.993	1	22
480.163	1	9
480.333	1	21
480.504	1	28
480.674	1	10
480.844	1	18
481.015	1	23
481.185	1	16
481.355	1	16
481.525	1	13
481.696	1	22
481.866	1	17
482.036	1	8
482.207	1	24
482.377	1	9
482.547	1	17
482.718	1	22
482.888	1	16
483.058	1	15
483.229	1	22
483.399	1	16
483.569	1	15
483.740	1	11
483.910	1	8
484.080	1	23
484.250	1	13
484.421	1	26
484.591	1	15
484.761	1	5
484.932	1	7
485.102	1	13
485.272	1	9
485.443	1	25
485.613	1	12
485.783	1	10
485.953	1	17
486.124	1	21
486.294	1	15
486.464	1	15
486.635	1	12
486.805	1	21
486.975	1	22
487.146	1	19
487.316	1	23
487.486	1	21
487.656	1	23
487.827	1	16
487.997	1	8
488.167	1	13
488.338	1	19
488.508	1	6
488.678	1	8
488.848	1	22
489.019	1	17
489.189	1	24
489.359	1	14
489.529	1	9
489.700	1	6
489.870	1	15
490.040	1	16
490.211	1	31
490.381	1	15
490.551	1	7
490.721	1	20
490.892	1	-3
491.062	1	22
491.232	1	17
491.402	1	22
491.573	1	23
491.743	1	13
491.913	1	19
492.084	1	3
492.254	1	11
492.424	1	14
492.594	1	9
492.765	1	7
492.935	1	18
493.105	1	19
493.275	1	24
493.446	1	12
493.616	1	11
493.786	1	4
493.956	1	20
494.127	1	17
494.297	1	16
494.467	1	24
494.637	1	20
494.808	1	20
494.978	1	29
495.148	1	8
495.318	1	16
495.489	1	15
495.659	1	-2
495.829	1	15
495.999	1	9
496.170	1	14
496.340	1	21
496.510	1	17
496.680	1	15
496.851	1	11
497.021	1	11
497.191	1	22
497.361	1	14
497.532	1	12
497.702	1	10
497.872	1	15
498.042	1	23
498.213	1	26
498.383	1	21
498.553	1	19
498.723	1	10
498.894	1	10
499.064	1	2
499.234	1	17
499.404	1	2
499.574	1	9
499.745	1	15
499.915	1	7
500.085	1	16
500.255	1	19
500.426	1	10
500.596	1	15
500.766	1	16
500.936	1	14
501.106	1	7
501.277	1	11
501.447	1	8
501.617	1	7
501.787	1	13
501.958	1	4
502.128	1	12
502.298	1	19
502.468	1	10
502.638	1	3
502.809	1	8
502.979	1	18
503.149	1	11
503.319	1	11
503.489	1	11
503.660	1	11
503.830	1	6
504.000	1	15
504.170	1	15
504.340	1	13
504.511	1	9
504.681	1	11
504.851	1	21
505.021	1	10
505.192	1	13
505.362	1	15
505.532	1	12
505.702	1	18
505.872	1	12
506.043	1	16
506.213	1	12
506.383	1	19
506.553	1	11
506.723	1	6
506.893	1	13
507.064	1	10
507.234	1	13
507.404	1	20
507.574	1	1
507.744	1	16
507.915	1	9
508.085	1	18
508.255	1	11
508.425	1	9
508.595	1	22
508.766	1	18
508.936	1	27
509.106	1	-1
509.276	1	15
509.446	1	15
509.616	1	9
509.787	1	6
509.957	1	18
510.127	1	9
510.297	1	16
510.467	1	10
510.638	1	9
510.808	1	3
510.978	1	16
511.148	1	9
511.318	1	0
511.488	1	16
511.659	1	14
511.829	1	10
511.999	1	20
512.169	1	25
512.339	1	13
512.509	1	11
512.680	1	8
512.850	1	5
513.020	1	6
513.190	1	11
513.360	1	9
513.530	1	13
513.700	1	16
513.871	1	11
514.041	1	12
514.211	1	10
514.381	1	5
514.551	1	12
514.721	1	19
514.892	1	-5
515.062	1	10
515.232	1	11
515.402	1	16
515.572	1	26
515.742	1	5
515.912	1	4
516.083	1	16
516.253	1	-1
516.423	1	14
516.593	1	9
516.763	1	-2
516.933	1	-3
517.104	1	-3
517.274	1	21
517.444	1	8
517.614	1	0
517.784	1	9
517.954	1	17
518.124	1	17
518.294	1	11
518.465	1	-7
518.635	1	8
518.805	1	8
518.975	1	15
519.145	1	0
519.315	1	18
519.485	1	8
519.656	1	9
519.826	1	6
519.996	1	12
520.166	1	3
520.336	1	3
520.506	1	1
520.676	1	4
520.846	1	12
521.017	1	16
521.187	1	4
521.357	1	2
521.527	1	2
521.697	1	7
521.867	1	-1
522.037	1	8
522.207	1	7
522.377	1	0
522.548	1	12
522.718	1	15
522.888	1	9
523.058	1	14
523.228	1	4
523.398	1	20
523.568	1	4
523.738	1	2
523.909	1	11
524.079	1	16
524.249	1	18
524.419	1	0
524.589	1	3
524.759	1	8
524.929	1	1
525.099	1	12
525.269	1	-1
525.439	1	5
525.610	1	1
525.780	1	6
525.950	1	16
526.120	1	15
526.290	1	13
526.460	1	-4
526.630	1	7
526.800	1	4
526.970	1	6
527.140	1	6
527.311	1	8
527.481	1	17
527.651	1	6
527.821	1	-3
527.991	1	7
528.161	1	15
528.331	1	1
528.501	1	6
528.671	1	12
528.841	1	5
529.011	1	1
529.181	1	9
529.352	1	10
529.522	1	2
529.692	1	9
529.862	1	7
530.032	1	14
530.202	1	8
530.372	1	5
530.542	1	12
530.712	1	4
530.882	1	6
531.052	1	13
531.222	1	5
531.392	1	2
531.563	1	11
531.733	1	11
531.903	1	1
532.073	1	3
532.243	1	9
532.413	1	7
532.583	1	-5
532.753	1	5
532.923	1	6
533.093	1	2
533.263	1	6
533.433	1	12
533.603	1	20
533.773	1	7
533.943	1	8
534.113	1	6
534.284	1	4
534.454	1	2
534.624	1	16
534.794	1	10
534.964	1	15
535.134	1	7
535.304	1	9
535.474	1	9
535.644	1	7
535.814	1	2
535.984	1	16
536.154	1	0
536.324	1	2
536.494	1	10
536.664	1	10
536.834	1	6
537.004	1	10
537.174	1	-3
537.344	1	7
537.514	1	8
537.685	1	5
537.855	1	9
538.025	1	4
538.195	1	3
538.365	1	13
538.535	1	7
538.705	1	13
538.875	1	6
539.045	1	-11
539.215	1	13
539.385	1	16
539.555	1	3
539.725	1	4
539.895	1	12
540.065	1	7
540.235	1	5
540.405	1	5
540.575	1	11
540.745	1	8
540.915	1	11
541.085	1	9
541.255	1	4
541.425	1	8
541.595	1	5
541.765	1	7
541.935	1	6
542.105	1	3
542.275	1	-4
542.445	1	-3
542.615	1	8
542.785	1	9
542.955	1	16
543.125	1	17
543.295	1	7
543.465	1	3
543.635	1	11
543.805	1	-3
543.975	1	13
544.145	1	-2
544.315	1	9
544.485	1	2
544.655	1	6
544.825	1	5
544.995	1	-1
545.165	1	7
545.335	1	6
545.505	1	2
545.675	1	12
545.845	1	4
546.015	1	9
546.185	1	18
546.355	1	13
546.525	1	2
546.695	1	18
546.865	1	6
547.035	1	11
547.205	1	9
547.375	1	11
547.545	1	7
547.715	1	6
547.885	1	12
548.055	1	25
548.225	1	12
548.395	1	-3
548.565	1	5
548.735	1	-3
548.905	1	12
549.075	1	6
549.245	1	15
549.415	1	4
549.585	1	4
549.755	1	8
549.925	1	19
550.095	1	7
550.265	1	12
550.435	1	13
550.605	1	12
550.775	1	4
550.945	1	1
551.115	1	7
551.285	1	9
551.455	1	10
551.625	1	13
551.795	1	13
551.965	1	6
552.135	1	10
552.305	1	6
552.475	1	5
552.645	1	10
552.815	1	-2
552.985	1	-5
553.155	1	2
553.325	1	-1
553.495	1	6
553.665	1	10
553.835	1	15
554.004	1	4
554.174	1	0
554.344	1	15
554.514	1	5
554.684	1	-6
554.854	1	-1
555.024	1	2
555.194	1	14
555.364	1	3
555.534	1	11
555.704	1	7
555.874	1	12
556.044	1	11
556.214	1	13
556.384	1	11
556.554	1	-2
556.724	1	8
556.894	1	6
557.064	1	14
557.234	1	2
557.404	1	-2
557.573	1	12
557.743	1	-1
557.913	1	1
558.083	1	9
558.253	1	6
558.423	1	10
558.593	1	15
558.763	1	16
558.933	1	6
559.103	1	1
559.273	1	3
559.443	1	4
559.613	1	-7
559.783	1	3
559.953	1	0
560.122	1	-5
560.292	1	9
560.462	1	8
560.632	1	6
560.802	1	1
560.972	1	-3
561.142	1	-8
561.312	1	2
561.482	1	10
561.652	1	13
561.822	1	10
561.992	1	7
562.162	1	14
562.331	1	0
562.501	1	-5
562.671	1	-4
562.841	1	12
563.011	1	1
563.181	1	8
563.351	1	4
563.521	1	3
563.691	1	12
563.861	1	5
564.031	1	16
564.201	1	3
564.370	1	-3
564.540	1	2
564.710	1	1
564.880	1	-2
565.050	1	9
565.220	1	4
565.390	1	7
565.560	1	12
565.730	1	3
565.900	1	10
566.069	1	-1
566.239	1	7
566.409	1	11
566.579	1	-1
566.749	1	1
566.919	1	7
567.089	1	5
567.259	1	13
567.429	1	-3
567.599	1	11
567.768	1	3
567.938	1	6
568.108	1	8
568.278	1	8
568.448	1	4
568.618	1	8
568.788	1	15
568.958	1	0
569.128	1	2
569.297	1	13
569.467	1	5
569.637	1	5
569.807	1	3
569.977	1	5
570.147	1	8
570.317	1	6
570.487	1	-5
570.656	1	6
570.826	1	7
570.996	1	3
571.166	1	13
571.336	1	12
571.506	1	8
571.676	1	7
571.846	1	7
572.015	1	2
572.185	1	-2
572.355	1	11
572.525	1	2
572.695	1	1
572.865	1	5
573.035	1	17
573.205	1	7
573.374	1	-1
573.544	1	5
573.714	1	9
573.884	1	9
574.054	1	8
574.224	1	13
574.394	1	0
574.563	1	1
574.733	1	10
574.903	1	6
575.073	1	3
575.243	1	6
575.413	1	10
575.583	1	13
575.752	1	6
575.922	1	5
576.092	1	2
576.262	1	4
576.432	1	18
576.602	1	4
576.772	1	-1
576.941	1	4
577.111	1	5
577.281	1	9
577.451	1	4
577.621	1	6
577.791	1	6
577.960	1	14
578.130	1	-3
578.300	1	3
578.470	1	14
578.640	1	-5
578.810	1	-4
578.979	1	9
579.149	1	5
579.319	1	9
579.489	1	11
579.659	1	10
579.829	1	17
579.998	1	0
580.168	1	3
580.338	1	7
580.508	1	8
580.678	1	3
580.848	1	-3
581.017	1	3
581.187	1	3
581.357	1	7
581.527	1	7
581.697	1	5
581.867	1	11
582.036	1	3
582.206	1	5
582.376	1	1
582.546	1	-5
582.716	1	5
582.885	1	11
583.055	1	7
583.225	1	20
583.395	1	4
583.565	1	-2
583.735	1	9
583.904	1	6
584.074	1	0
584.244	1	10
584.414	1	8
584.584	1	5
584.753	1	11
584.923	1	16
585.093	1	6
585.263	1	8
585.433	1	2
585.602	1	6
585.772	1	-2
585.942	1	-2
586.112	1	3
586.282	1	14
586.451	1	0
586.621	1	4
586.791	1	10
586.961	1	7
587.131	1	7
587.300	1	-2
587.470	1	10
587.640	1	2
587.810	1	5
587.980	1	9
588.149	1	5
588.319	1	5
588.489	1	-1
588.659	1	15
588.829	1	6
588.998	1	8
589.168	1	9
589.338	1	9
589.508	1	0
589.677	1	1
589.847	1	18
590.017	1	2
590.187	1	9
590.357	1	2
590.526	1	2
590.696	1	6
590.866	1	9
591.036	1	14
591.205	1	6
591.375	1	-3
591.545	1	16
591.715	1	0
591.885	1	8
592.054	1	-2
592.224	1	8
592.394	1	10
592.564	1	5
592.733	1	13
592.903	1	12
593.073	1	7
593.243	1	18
593.412	1	6
593.582	1	2
593.752	1	-2
593.922	1	4
594.091	1	3
594.261	1	10
594.431	1	14
594.601	1	5
594.771	1	1
594.940	1	5
595.110	1	-2
595.280	1	11
595.450	1	5
595.619	1	8
595.789	1	3
595.959	1	13
596.129	1	7
596.298	1	19
596.468	1	8
596.638	1	1
596.808	1	1
596.977	1	1
597.147	1	6
597.317	1	8
597.487	1	-1
597.656	1	-5
597.826	1	-2
597.996	1	4
598.166	1	7
598.335	1	4
598.505	1	9
598.675	1	5
598.844	1	-6
599.014	1	-2
599.184	1	14
599.354	1	5
599.523	1	10
599.693	1	10
599.863	1	17
600.033	1	2
600.202	1	8
600.372	1	0
600.542	1	8
600.712	1	3
600.881	1	4
601.051	1	10
601.221	1	13
601.390	1	5
601.560	1	0
601.730	1	3
601.900	1	12
602.069	1	-2
602.239	1	28
602.409	1	2
602.578	1	9
602.748	1	3
602.918	1	-1
603.088	1	9
603.257	1	13
603.427	1	2
603.597	1	6
603.767	1	4
603.936	1	-11
604.106	1	-2
604.276	1	6
604.445	1	8
604.615	1	4
604.785	1	13
604.954	1	-5
605.124	1	13
605.294	1	9
605.464	1	11
605.633	1	9
605.803	1	7
605.973	1	8
606.142	1	8
606.312	1	4
606.482	1	9
606.652	1	7
606.821	1	5
606.991	1	14
607.161	1	10
607.330	1	-2
607.500	1	8
607.670	1	1
607.839	1	4
608.009	1	6
608.179	1	4
608.348	1	11
608.518	1	-1
608.688	1	10
608.858	1	13
609.027	1	9
609.197	1	-3
609.367	1	2
609.536	1	7
609.706	1	5
609.876	1	7
610.045	1	5
610.215	1	12
610.385	1	5
610.554	1	9
610.724	1	7
610.894	1	5
611.063	1	-1
611.233	1	4
611.403	1	6
611.572	1	3
611.742	1	10
611.912	1	8
612.081	1	9
612.251	1	1
612.421	1	14
612.590	1	4
612.760	1	14
612.930	1	-5
613.099	1	9
613.269	1	-3
613.439	1	13
613.608	1	8
613.778	1	6
613.948	1	9
614.117	1	8
614.287	1	14
614.457	1	9
614.626	1	7
614.796	1	10
614.966	1	17
615.135	1	9
615.305	1	8
615.475	1	13
615.644	1	-3
615.814	1	-5
615.984	1	19
616.153	1	0
616.323	1	17
616.493	1	3
616.662	1	8
616.832	1	7
617.002	1	5
617.171	1	0
617.341	1	8
617.511	1	-1
617.680	1	16
617.850	1	6
618.019	1	8
618.189	1	-8
618.359	1	12
618.528	1	14
618.698	1	7
618.868	1	-3
619.037	1	16
619.207	1	7
619.377	1	3
619.546	1	-3
619.716	1	10
619.885	1	6
620.055	1	-2
620.225	1	11
620.394	1	13
620.564	1	-1
620.734	1	-2
620.903	1	13
621.073	1	4
621.242	1	13
621.412	1	13
621.582	1	15
621.751	1	1
621.921	1	14
622.091	1	4
622.260	1	8
622.430	1	12
622.599	1	10
622.769	1	15
622.939	1	3
623.108	1	7
623.278	1	9
623.448	1	15
623.617	1	2
623.787	1	5
623.956	1	12
624.126	1	-4
624.296	1	8
624.465	1	5
624.635	1	23
624.804	1	6
624.974	1	13
625.144	1	-3
625.313	1	16
625.483	1	19
625.652	1	4
625.822	1	17
625.992	1	2
626.161	1	16
626.331	1	5
626.501	1	17
626.670	1	-6
626.840	1	7
627.009	1	17
627.179	1	11
627.348	1	13
627.518	1	11
627.688	1	8
627.857	1	8
628.027	1	12
628.196	1	-2
628.366	1	6
628.536	1	3
628.705	1	10
628.875	1	15
629.044	1	14
629.214	1	8
629.384	1	11
629.553	1	1
629.723	1	2
629.892	1	22
630.062	1	19
630.232	1	0
630.401	1	19
630.571	1	10
630.740	1	9
630.910	1	21
631.079	1	18
631.249	1	18
631.419	1	-2
631.588	1	11
631.758	1	9
631.927	1	3
632.097	1	4
632.266	1	11
632.436	1	10
632.606	1	15
632.775	1	16
632.945	1	8
633.114	1	15
633.284	1	5
633.453	1	-2
633.623	1	8
633.793	1	27
633.962	1	8
634.132	1	16
634.301	1	13
634.471	1	5
634.640	1	6
634.810	1	14
634.979	1	15
635.149	1	15
635.319	1	3
635.488	1	13
635.658	1	14
635.827	1	8
635.997	1	1
636.166	1	19
636.336	1	4
636.505	1	14
636.675	1	-2
636.845	1	11
637.014	1	13
637.184	1	17
637.353	1	8
637.523	1	12
637.692	1	5
637.862	1	3
638.031	1	14
638.201	1	11
638.370	1	2
638.540	1	3
638.710	1	8
638.879	1	12
639.049	1	13
639.218	1	11
639.388	1	5
639.557	1	18
639.727	1	9
639.896	1	15
640.066	1	13
640.235	1	8
640.405	1	7
640.574	1	15
640.744	1	8
640.914	1	6
641.083	1	12
641.253	1	7
641.422	1	1
641.592	1	7
641.761	1	13
641.931	1	9
642.100	1	9
642.270	1	6
642.439	1	7
642.609	1	9
642.778	1	9
642.948	1	19
643.117	1	8
643.287	1	7
643.456	1	7
643.626	1	8
643.795	1	-6
643.965	1	7
644.134	1	3
644.304	1	23
644.473	1	3
644.643	1	10
644.812	1	4
644.982	1	5
645.151	1	2
645.321	1	5
645.490	1	10
645.660	1	6
645.829	1	7
645.999	1	8
646.168	1	16
646.338	1	-2
646.507	1	9
646.677	1	8
646.846	1	5
647.016	1	3
647.185	1	10
647.355	1	10
647.524	1	8
647.694	1	13
647.863	1	16
648.033	1	13
648.202	1	7
648.372	1	7
648.541	1	4
648.711	1	12
648.880	1	11
649.050	1	3
649.219	1	4
649.389	1	3
649.558	1	14
649.728	1	7
649.897	1	11
650.067	1	0
650.236	1	3
650.406	1	22
650.575	1	11
650.745	1	8
650.914	1	18
651.084	1	1
651.253	1	7
651.423	1	22
651.592	1	-1
651.762	1	10
651.931	1	9
652.101	1	14
652.270	1	2
652.440	1	0
652.609	1	9
652.778	1	0
652.948	1	16
653.117	1	19
653.287	1	11
653.456	1	10
653.626	1	19
653.795	1	8
653.965	1	9
654.134	1	8
654.304	1	8
654.473	1	18
654.643	1	-11
654.812	1	6
654.982	1	7
655.151	1	12
655.320	1	17
655.490	1	5
655.659	1	-2
655.829	1	6
655.998	1	15
656.168	1	5
656.337	1	15
656.507	1	5
656.676	1	2
656.846	1	18
657.015	1	4
657.184	1	11
657.354	1	14
657.523	1	4
657.693	1	9
657.862	1	4
658.032	1	14
658.201	1	11
658.371	1	6
658.540	1	7
658.709	1	-3
658.879	1	8
659.048	1	26
659.218	1	14
659.387	1	9
659.557	1	4
659.726	1	6
659.895	1	6
660.065	1	13
660.234	1	1
660.404	1	13
660.573	1	13
660.743	1	8
660.912	1	16
661.081	1	9
661.251	1	15
661.420	1	9
661.590	1	3
661.759	1	4
661.929	1	16
662.098	1	4
662.267	1	11
662.437	1	6
662.606	1	12
662.776	1	4
662.945	1	5
663.115	1	10
663.284	1	5
663.453	1	1
663.623	1	-2
663.792	1	6
663.962	1	9
664.131	1	2
664.300	1	0
664.470	1	10
664.639	1	18
664.809	1	10
664.978	1	-3
665.148	1	13
665.317	1	10
665.486	1	1
665.656	1	16
665.825	1	11
665.995	1	7
666.164	1	10
666.333	1	4
666.503	1	16
666.672	1	-1
666.842	1	-4
667.011	1	11
667.180	1	6
667.350	1	14
667.519	1	4
667.689	1	5
667.858	1	9
668.027	1	13
668.197	1	4
668.366	1	22
668.536	1	2
668.705	1	8
668.874	1	4
669.044	1	-2
669.213	1	4
669.382	1	7
669.552	1	6
669.721	1	8
669.891	1	10
670.060	1	9
670.229	1	5
670.399	1	10
670.568	1	-6
670.738	1	13
670.907	1	9
671.076	1	15
671.246	1	11
671.415	1	2
671.584	1	18
671.754	1	15
671.923	1	3
672.093	1	0
672.262	1	0
672.431	1	7
672.601	1	-2
672.770	1	0
672.939	1	6
673.109	1	19
673.278	1	20
673.448	1	10
673.617	1	6
673.786	1	-1
