325.333	1	13
325.504	1	5
325.675	1	2
325.846	1	-4
326.017	1	14
326.188	1	3
326.359	1	-2
326.531	1	12
326.702	1	4
326.873	1	-8
327.044	1	-2
327.215	1	7
327.386	1	7
327.557	1	-4
327.728	1	9
327.899	1	11
328.070	1	0
328.241	1	8
328.412	1	-6
328.583	1	9
328.754	1	0
328.926	1	8
329.097	1	4
329.268	1	17
329.439	1	-6
329.610	1	13
329.781	1	7
329.952	1	-7
330.123	1	-11
330.294	1	18
330.465	1	1
330.636	1	16
330.807	1	4
330.978	1	7
331.149	1	-2
331.320	1	11
331.492	1	11
331.663	1	5
331.834	1	-4
332.005	1	5
332.176	1	3
332.347	1	6
332.518	1	6
332.689	1	12
332.860	1	5
333.031	1	4
333.202	1	7
333.373	1	8
333.544	1	-2
333.715	1	-2
333.886	1	9
334.057	1	2
334.228	1	1
334.399	1	6
334.570	1	16
334.741	1	1
334.912	1	9
335.084	1	10
335.255	1	9
335.426	1	8
335.597	1	0
335.768	1	5
335.939	1	10
336.110	1	11
336.281	1	7
336.452	1	5
336.623	1	4
336.794	1	11
336.965	1	11
337.136	1	8
337.307	1	9
337.478	1	-12
337.649	1	15
337.820	1	4
337.991	1	15
338.162	1	17
338.333	1	11
338.504	1	9
338.675	1	-1
338.846	1	5
339.017	1	5
339.188	1	4
339.359	1	0
339.530	1	8
339.701	1	9
339.872	1	11
340.043	1	11
340.214	1	1
340.385	1	-5
340.556	1	-9
340.727	1	9
340.898	1	17
341.069	1	-7
341.240	1	10
341.411	1	21
341.582	1	4
341.753	1	15
341.924	1	8
342.095	1	-1
342.266	1	4
342.437	1	1
342.608	1	13
342.779	1	7
342.950	1	-4
343.121	1	13
343.292	1	12
343.463	1	0
343.634	1	8
343.805	1	24
343.976	1	1
344.147	1	1
344.318	1	7
344.489	1	7
344.660	1	9
344.831	1	0
345.002	1	9
345.173	1	5
345.344	1	5
345.515	1	-3
345.686	1	-3
345.857	1	0
346.028	1	9
346.199	1	3
346.370	1	12
346.541	1	8
346.712	1	6
346.883	1	13
347.054	1	5
347.225	1	13
347.396	1	-4
347.567	1	11
347.738	1	9
347.909	1	0
348.080	1	-1
348.251	1	12
348.422	1	-8
348.593	1	-4
348.764	1	8
348.935	1	8
349.106	1	2
349.277	1	12
349.448	1	12
349.619	1	0
349.790	1	14
349.961	1	2
350.132	1	6
350.303	1	11
350.474	1	1
350.645	1	11
350.816	1	5
350.987	1	-2
351.157	1	2
351.328	1	3
351.499	1	20
351.670	1	13
351.841	1	13
352.012	1	12
352.183	1	8
352.354	1	1
352.525	1	2
352.696	1	13
352.867	1	0
353.038	1	-1
353.209	1	19
353.380	1	9
353.551	1	4
353.722	1	1
353.893	1	5
354.064	1	10
354.235	1	4
354.406	1	5
354.576	1	-3
354.747	1	3
354.918	1	10
355.089	1	9
355.260	1	11
355.431	1	6
355.602	1	-8
355.773	1	2
355.944	1	3
356.115	1	2
356.286	1	-2
356.457	1	11
356.628	1	-1
356.799	1	-12
356.970	1	-4
357.141	1	8
357.311	1	-4
357.482	1	-1
357.653	1	-4
357.824	1	-3
357.995	1	1
358.166	1	13
358.337	1	9
358.508	1	4
358.679	1	-4
358.850	1	6
359.021	1	4
359.192	1	8
359.363	1	-3
359.533	1	-5
359.704	1	10
359.875	1	-1
360.046	1	9
360.217	1	2
360.388	1	1
360.559	1	0
360.730	1	4
360.901	1	18
361.072	1	6
361.243	1	8
361.414	1	-8
361.584	1	4
361.755	1	1
361.926	1	6
362.097	1	5
362.268	1	2
362.439	1	-4
362.610	1	6
362.781	1	2
362.952	1	1
363.123	1	-1
363.293	1	11
363.464	1	-5
363.635	1	2
363.806	1	9
363.977	1	10
364.148	1	6
364.319	1	-4
364.490	1	5
364.661	1	-3
364.832	1	5
365.002	1	-4
365.173	1	0
365.344	1	-5
365.515	1	5
365.686	1	9
365.857	1	-2
366.028	1	6
366.199	1	-3
366.370	1	-5
366.540	1	1
366.711	1	4
366.882	1	10
367.053	1	0
367.224	1	-14
367.395	1	-3
367.566	1	-6
367.737	1	2
367.908	1	-1
368.078	1	-3
368.249	1	-3
368.420	1	14
368.591	1	6
368.762	1	3
368.933	1	7
369.104	1	7
369.274	1	0
369.445	1	5
369.616	1	11
369.787	1	10
369.958	1	6
370.129	1	-1
370.300	1	3
370.471	1	4
370.641	1	5
370.812	1	-3
370.983	1	-8
371.154	1	4
371.325	1	9
371.496	1	-3
371.667	1	-2
371.837	1	5
372.008	1	2
372.179	1	7
372.350	1	0
372.521	1	-8
372.692	1	4
372.863	1	3
373.033	1	7
373.204	1	1
373.375	1	0
373.546	1	4
373.717	1	5
373.888	1	8
374.059	1	5
374.229	1	0
374.400	1	4
374.571	1	-1
374.742	1	7
374.913	1	-5
375.084	1	12
375.254	1	4
375.425	1	4
375.596	1	8
375.767	1	9
375.938	1	2
376.109	1	2
376.279	1	-4
376.450	1	-4
376.621	1	-2
376.792	1	-2
376.963	1	7
377.134	1	8
377.304	1	-3
377.475	1	13
377.646	1	-3
377.817	1	0
377.988	1	-1
378.159	1	1
378.329	1	5
378.500	1	2
378.671	1	1
378.842	1	11
379.013	1	12
379.184	1	7
379.354	1	9
379.525	1	4
379.696	1	5
379.867	1	8
380.038	1	6
380.209	1	5
380.379	1	-1
380.550	1	-5
380.721	1	11
380.892	1	9
381.063	1	6
381.233	1	11
381.404	1	7
381.575	1	-1
381.746	1	-6
381.917	1	2
382.087	1	7
382.258	1	6
382.429	1	1
382.600	1	1
382.771	1	5
382.941	1	2
383.112	1	-11
383.283	1	0
383.454	1	2
383.625	1	5
383.795	1	12
383.966	1	13
384.137	1	5
384.308	1	9
384.479	1	15
384.649	1	9
384.820	1	8
384.991	1	12
385.162	1	-3
385.333	1	-5
385.503	1	3
385.674	1	9
385.845	1	10
386.016	1	9
386.187	1	4
386.357	1	-3
386.528	1	-1
386.699	1	-2
386.870	1	5
387.041	1	7
387.211	1	6
387.382	1	-2
387.553	1	6
387.724	1	-5
387.894	1	2
388.065	1	13
388.236	1	15
388.407	1	-2
388.578	1	2
388.748	1	5
388.919	1	2
389.090	1	14
389.261	1	7
389.431	1	10
389.602	1	12
389.773	1	0
389.944	1	4
390.114	1	4
390.285	1	13
390.456	1	15
390.627	1	5
390.798	1	5
390.968	1	17
391.139	1	-1
391.310	1	8
391.481	1	10
391.651	1	10
391.822	1	13
391.993	1	-9
392.164	1	0
392.334	1	6
392.505	1	5
392.676	1	7
392.847	1	8
393.017	1	4
393.188	1	7
393.359	1	4
393.530	1	6
393.700	1	19
393.871	1	4
394.042	1	7
394.213	1	9
394.383	1	1
394.554	1	4
394.725	1	11
394.896	1	5
395.066	1	13
395.237	1	0
395.408	1	12
395.579	1	8
395.749	1	12
395.920	1	0
396.091	1	5
396.262	1	5
396.432	1	7
396.603	1	7
396.774	1	2
396.945	1	6
397.115	1	10
397.286	1	-5
397.457	1	16
397.627	1	-2
397.798	1	18
397.969	1	8
398.140	1	2
398.310	1	10
398.481	1	7
398.652	1	4
398.823	1	4
398.993	1	3
399.164	1	4
399.335	1	15
399.505	1	0
399.676	1	8
399.847	1	5
400.018	1	10
400.188	1	3
400.359	1	5
400.530	1	16
400.700	1	3
400.871	1	21
401.042	1	12
401.213	1	-1
401.383	1	10
401.554	1	16
401.725	1	7
401.895	1	-4
402.066	1	11
402.237	1	14
402.408	1	16
402.578	1	8
402.749	1	18
402.920	1	9
403.090	1	5
403.261	1	10
403.432	1	9
403.603	1	8
403.773	1	10
403.944	1	13
404.115	1	6
404.285	1	2
404.456	1	14
404.627	1	17
404.797	1	9
404.968	1	11
405.139	1	11
405.310	1	11
405.480	1	9
405.651	1	2
405.822	1	-1
405.992	1	21
406.163	1	4
406.334	1	15
406.504	1	16
406.675	1	7
406.846	1	17
407.016	1	15
407.187	1	13
407.358	1	3
407.528	1	8
407.699	1	11
407.870	1	15
408.041	1	19
408.211	1	7
408.382	1	6
408.553	1	17
408.723	1	23
408.894	1	8
409.065	1	6
409.235	1	5
409.406	1	13
409.577	1	16
409.747	1	3
409.918	1	11
410.089	1	11
410.259	1	12
410.430	1	4
410.601	1	16
410.771	1	11
410.942	1	6
411.113	1	16
411.283	1	13
411.454	1	23
411.625	1	3
411.795	1	7
411.966	1	13
412.137	1	17
412.307	1	5
412.478	1	8
412.649	1	19
412.819	1	7
412.990	1	19
413.161	1	20
413.331	1	15
413.502	1	12
413.672	1	6
413.843	1	17
414.014	1	5
414.184	1	10
414.355	1	8
414.526	1	21
414.696	1	13
414.867	1	26
415.038	1	6
415.208	1	12
415.379	1	5
415.550	1	21
415.720	1	11
415.891	1	13
416.062	1	2
416.232	1	25
416.403	1	7
416.573	1	19
416.744	1	19
416.915	1	6
417.085	1	29
417.256	1	9
417.427	1	11
417.597	1	23
417.768	1	8
417.939	1	15
418.109	1	16
418.280	1	11
418.450	1	19
418.621	1	3
418.792	1	10
418.962	1	18
419.133	1	18
419.304	1	14
419.474	1	7
419.645	1	9
419.815	1	21
419.986	1	18
420.157	1	13
420.327	1	22
420.498	1	8
420.669	1	10
420.839	1	21
421.010	1	9
421.180	1	6
421.351	1	1
421.522	1	8
421.692	1	14
421.863	1	5
422.033	1	14
422.204	1	11
422.375	1	23
422.545	1	17
422.716	1	15
422.886	1	20
423.057	1	19
423.228	1	8
423.398	1	16
423.569	1	6
423.740	1	13
423.910	1	14
424.081	1	13
424.251	1	5
424.422	1	15
424.593	1	11
424.763	1	22
424.934	1	14
425.104	1	21
425.275	1	13
425.445	1	6
425.616	1	15
425.787	1	21
425.957	1	20
426.128	1	15
426.298	1	4
426.469	1	18
426.640	1	3
426.810	1	12
426.981	1	19
427.151	1	15
427.322	1	25
427.493	1	11
427.663	1	19
427.834	1	-2
428.004	1	16
428.175	1	4
428.345	1	17
428.516	1	24
428.687	1	17
428.857	1	3
429.028	1	17
429.198	1	7
429.369	1	17
429.540	1	25
429.710	1	19
429.881	1	9
430.051	1	11
430.222	1	26
430.392	1	18
430.563	1	15
430.734	1	15
430.904	1	9
431.075	1	17
431.245	1	4
431.416	1	1
431.586	1	4
431.757	1	14
431.927	1	16
432.098	1	7
432.269	1	15
432.439	1	12
432.610	1	13
432.780	1	-6
432.951	1	14
433.121	1	7
433.292	1	15
433.462	1	21
433.633	1	14
433.804	1	14
433.974	1	8
434.145	1	14
434.315	1	21
434.486	1	12
434.656	1	12
434.827	1	2
434.997	1	11
435.168	1	14
435.339	1	11
435.509	1	26
435.680	1	9
435.850	1	10
436.021	1	6
436.191	1	11
436.362	1	15
436.532	1	6
436.703	1	20
436.873	1	14
437.044	1	21
437.214	1	14
437.385	1	14
437.556	1	13
437.726	1	8
437.897	1	13
438.067	1	6
438.238	1	22
438.408	1	9
438.579	1	15
438.749	1	14
438.920	1	9
439.090	1	15
439.261	1	4
439.431	1	7
439.602	1	18
439.772	1	5
439.943	1	14
440.113	1	9
440.284	1	7
440.455	1	5
440.625	1	18
440.796	1	10
440.966	1	11
441.137	1	-1
441.307	1	10
441.478	1	11
441.648	1	16
441.819	1	5
441.989	1	11
442.160	1	16
442.330	1	16
442.501	1	6
442.671	1	14
442.842	1	19
443.012	1	17
443.183	1	16
443.353	1	10
443.524	1	4
443.694	1	9
443.865	1	7
444.035	1	16
444.206	1	9
444.376	1	3
444.547	1	8
444.717	1	9
444.888	1	16
445.058	1	13
445.229	1	9
445.399	1	5
445.570	1	24
445.740	1	6
445.911	1	2
446.081	1	13
446.252	1	-4
446.422	1	6
446.593	1	12
446.763	1	13
446.934	1	3
447.104	1	15
447.275	1	9
447.445	1	22
447.616	1	15
447.786	1	15
447.957	1	11
448.127	1	7
448.298	1	6
448.468	1	5
448.639	1	12
448.809	1	12
448.979	1	1
449.150	1	13
449.320	1	16
449.491	1	9
449.661	1	15
449.832	1	11
450.002	1	15
450.173	1	9
450.343	1	7
450.514	1	14
450.684	1	13
450.855	1	15
451.025	1	13
451.196	1	6
451.366	1	12
451.537	1	1
451.707	1	13
451.878	1	5
452.048	1	-1
452.218	1	12
452.389	1	17
452.559	1	13
452.730	1	0
452.900	1	1
453.071	1	6
453.241	1	9
453.412	1	12
453.582	1	10
453.753	1	8
453.923	1	13
454.093	1	-4
454.264	1	6
454.434	1	-1
454.605	1	7
454.775	1	14
454.946	1	2
455.116	1	10
455.287	1	25
455.457	1	12
455.628	1	-1
455.798	1	1
455.968	1	9
456.139	1	8
456.309	1	11
456.480	1	9
456.650	1	10
456.821	1	0
456.991	1	15
457.161	1	18
457.332	1	4
457.502	1	25
457.673	1	0
457.843	1	8
458.014	1	12
458.184	1	5
458.355	1	12
458.525	1	16
458.695	1	4
458.866	1	5
459.036	1	4
459.207	1	-3
459.377	1	4
459.548	1	-2
459.718	1	4
459.888	1	5
460.059	1	4
460.229	1	16
460.400	1	21
460.570	1	3
460.740	1	0
460.911	1	24
461.081	1	11
461.252	1	6
461.422	1	7
461.593	1	13
461.763	1	11
461.933	1	16
462.104	1	-4
462.274	1	-3
462.445	1	7
462.615	1	2
462.785	1	6
462.956	1	12
463.126	1	7
463.297	1	9
463.467	1	5
463.638	1	10
463.808	1	6
463.978	1	3
464.149	1	10
464.319	1	2
464.490	1	-1
464.660	1	5
464.830	1	5
465.001	1	20
465.171	1	6
465.342	1	4
465.512	1	10
465.682	1	14
465.853	1	-7
466.023	1	13
466.194	1	15
466.364	1	1
466.534	1	0
466.705	1	5
466.875	1	5
467.045	1	-1
467.216	1	6
467.386	1	0
467.557	1	8
467.727	1	2
467.897	1	13
468.068	1	6
468.238	1	-9
468.409	1	0
468.579	1	5
468.749	1	16
468.920	1	8
469.090	1	9
469.260	1	7
469.431	1	-3
469.601	1	16
469.772	1	0
469.942	1	8
470.112	1	9
470.283	1	8
470.453	1	-2
470.623	1	8
470.794	1	-9
470.964	1	11
471.135	1	3
471.305	1	0
471.475	1	5
471.646	1	10
471.816	1	8
471.986	1	5
472.157	1	-1
472.327	1	-1
472.497	1	0
472.668	1	-5
472.838	1	5
473.009	1	4
473.179	1	8
473.349	1	6
473.520	1	7
473.690	1	6
473.860	1	1
474.031	1	13
474.201	1	6
474.371	1	13
474.542	1	4
474.712	1	3
474.882	1	3
475.053	1	1
475.223	1	14
475.394	1	-6
475.564	1	-2
475.734	1	7
475.905	1	-2
476.075	1	1
476.245	1	-4
476.416	1	0
476.586	1	4
476.756	1	1
476.927	1	-7
477.097	1	-1
477.267	1	9
477.438	1	3
477.608	1	1
477.778	1	5
477.949	1	2
478.119	1	14
478.289	1	0
478.460	1	7
478.630	1	5
478.800	1	10
478.971	1	-12
479.141	1	4
479.311	1	5
479.482	1	5
479.652	1	13
479.822	1	9
479.993	1	-3
480.163	1	4
480.333	1	3
480.504	1	6
480.674	1	-3
480.844	1	5
481.015	1	10
481.185	1	3
481.355	1	10
481.525	1	7
481.696	1	10
481.866	1	2
482.036	1	-8
482.207	1	6
482.377	1	2
482.547	1	14
482.718	1	6
482.888	1	3
483.058	1	9
483.229	1	12
483.399	1	-1
483.569	1	1
483.740	1	-2
483.910	1	4
484.080	1	5
484.250	1	-1
484.421	1	8
484.591	1	5
484.761	1	1
484.932	1	2
485.102	1	8
485.272	1	7
485.443	1	12
485.613	1	7
485.783	1	-1
485.953	1	8
486.124	1	-3
486.294	1	6
486.464	1	7
486.635	1	2
486.805	1	9
486.975	1	7
487.146	1	5
487.316	1	10
487.486	1	3
487.656	1	14
487.827	1	-2
487.997	1	-3
488.167	1	7
488.338	1	0
488.508	1	8
488.678	1	4
488.848	1	9
489.019	1	2
489.189	1	-1
489.359	1	6
489.529	1	5
489.700	1	-10
489.870	1	3
490.040	1	8
490.211	1	25
490.381	1	27
490.551	1	-7
490.721	1	12
490.892	1	-11
491.062	1	2
491.232	1	16
491.402	1	6
491.573	1	13
491.743	1	13
491.913	1	8
492.084	1	-14
492.254	1	10
492.424	1	3
492.594	1	-1
492.765	1	-8
492.935	1	-4
493.105	1	6
493.275	1	5
493.446	1	-3
493.616	1	-1
493.786	1	4
493.956	1	14
494.127	1	0
494.297	1	3
494.467	1	7
494.637	1	4
494.808	1	9
494.978	1	6
495.148	1	-2
495.318	1	4
495.489	1	-2
495.659	1	-4
495.829	1	9
495.999	1	6
496.170	1	-4
496.340	1	3
496.510	1	-1
496.680	1	10
496.851	1	1
497.021	1	4
497.191	1	6
497.361	1	5
497.532	1	1
497.702	1	0
497.872	1	7
498.042	1	8
498.213	1	10
498.383	1	10
498.553	1	2
498.723	1	-4
498.894	1	2
499.064	1	4
499.234	1	5
499.404	1	-2
499.574	1	-3
499.745	1	4
499.915	1	10
500.085	1	-5
500.255	1	10
500.426	1	-3
500.596	1	3
500.766	1	5
500.936	1	-2
501.106	1	1
501.277	1	-11
501.447	1	0
501.617	1	-2
501.787	1	5
501.958	1	-1
502.128	1	10
502.298	1	1
502.468	1	1
502.638	1	-4
502.809	1	3
502.979	1	2
503.149	1	7
503.319	1	-6
503.489	1	2
503.660	1	-2
503.830	1	2
504.000	1	-3
504.170	1	-3
504.340	1	9
504.511	1	-9
504.681	1	-1
504.851	1	9
505.021	1	5
505.192	1	4
505.362	1	10
505.532	1	4
505.702	1	13
505.872	1	-1
506.043	1	1
506.213	1	1
506.383	1	4
506.553	1	-3
506.723	1	-2
506.893	1	2
507.064	1	2
507.234	1	-1
507.404	1	10
507.574	1	-4
507.744	1	9
507.915	1	3
508.085	1	12
508.255	1	-11
508.425	1	6
508.595	1	10
508.766	1	-6
508.936	1	-5
509.106	1	-2
509.276	1	7
509.446	1	0
509.616	1	4
509.787	1	-3
509.957	1	4
510.127	1	-4
510.297	1	6
510.467	1	5
510.638	1	1
510.808	1	1
510.978	1	6
511.148	1	7
511.318	1	6
511.488	1	6
511.659	1	5
511.829	1	-2
511.999	1	9
512.169	1	14
512.339	1	-3
512.509	1	0
512.680	1	0
512.850	1	-6
513.020	1	1
513.190	1	0
513.360	1	1
513.530	1	1
513.700	1	8
513.871	1	2
514.041	1	7
514.211	1	11
514.381	1	-3
514.551	1	-1
514.721	1	-3
514.892	1	-9
515.062	1	3
515.232	1	-6
515.402	1	4
515.572	1	13
515.742	1	-5
515.912	1	0
516.083	1	9
516.253	1	-5
516.423	1	1
516.593	1	-1
516.763	1	0
516.933	1	-3
517.104	1	-11
517.274	1	9
517.444	1	-1
517.614	1	-2
517.784	1	8
517.954	1	13
518.124	1	4
518.294	1	-1
518.465	1	-7
518.635	1	10
518.805	1	-1
518.975	1	-1
519.145	1	2
519.315	1	7
519.485	1	11
519.656	1	4
519.826	1	9
519.996	1	3
520.166	1	0
520.336	1	-5
520.506	1	3
520.676	1	-5
520.846	1	5
521.017	1	7
521.187	1	7
521.357	1	1
521.527	1	2
521.697	1	-1
521.867	1	3
522.037	1	7
522.207	1	-3
522.377	1	-5
522.548	1	7
522.718	1	4
522.888	1	3
523.058	1	7
523.228	1	2
523.398	1	4
523.568	1	-3
523.738	1	-3
523.909	1	5
524.079	1	11
524.249	1	-6
524.419	1	4
524.589	1	2
524.759	1	2
524.929	1	-2
525.099	1	-2
525.269	1	-8
525.439	1	-12
525.610	1	-8
525.780	1	-2
525.950	1	17
526.120	1	12
526.290	1	6
526.460	1	-6
526.630	1	4
526.800	1	-11
526.970	1	-15
527.140	1	2
527.311	1	12
527.481	1	4
527.651	1	7
527.821	1	-6
527.991	1	4
528.161	1	5
528.331	1	-8
528.501	1	-2
528.671	1	2
528.841	1	6
529.011	1	2
529.181	1	0
529.352	1	8
529.522	1	-5
529.692	1	-3
529.862	1	5
530.032	1	14
530.202	1	-6
530.372	1	7
530.542	1	-6
530.712	1	0
530.882	1	-11
531.052	1	11
531.222	1	-3
531.392	1	5
531.563	1	-3
531.733	1	2
531.903	1	-1
532.073	1	-3
532.243	1	4
532.413	1	7
532.583	1	-5
532.753	1	5
532.923	1	3
533.093	1	12
533.263	1	-2
533.433	1	-4
533.603	1	6
533.773	1	7
533.943	1	2
534.113	1	2
534.284	1	-1
534.454	1	5
534.624	1	8
534.794	1	6
534.964	1	-7
535.134	1	-2
535.304	1	-3
535.474	1	7
535.644	1	-6
535.814	1	-2
535.984	1	4
536.154	1	-2
536.324	1	-4
536.494	1	-5
536.664	1	1
536.834	1	3
537.004	1	-5
537.174	1	-7
537.344	1	0
537.514	1	-4
537.685	1	3
537.855	1	3
538.025	1	3
538.195	1	-4
538.365	1	5
538.535	1	7
538.705	1	-3
538.875	1	-3
539.045	1	-13
539.215	1	9
539.385	1	1
539.555	1	-3
539.725	1	1
539.895	1	20
540.065	1	-1
540.235	1	0
540.405	1	-2
540.575	1	3
540.745	1	2
540.915	1	5
541.085	1	-3
541.255	1	11
541.425	1	-7
541.595	1	-3
541.765	1	5
541.935	1	6
542.105	1	-1
542.275	1	-1
542.445	1	-4
542.615	1	3
542.785	1	0
542.955	1	2
543.125	1	-6
543.295	1	-2
543.465	1	4
543.635	1	4
543.805	1	-1
543.975	1	6
544.145	1	-8
544.315	1	0
544.485	1	0
544.655	1	2
544.825	1	1
544.995	1	1
545.165	1	7
545.335	1	1
545.505	1	6
545.675	1	-1
545.845	1	7
546.015	1	5
546.185	1	6
546.355	1	4
546.525	1	-4
546.695	1	9
546.865	1	0
547.035	1	-11
547.205	1	0
547.375	1	8
547.545	1	3
547.715	1	-7
547.885	1	2
548.055	1	16
548.225	1	5
548.395	1	6
548.565	1	1
548.735	1	-7
548.905	1	3
549.075	1	-5
549.245	1	14
549.415	1	8
549.585	1	5
549.755	1	-2
549.925	1	4
550.095	1	-5
550.265	1	6
550.435	1	0
550.605	1	1
550.775	1	2
550.945	1	1
551.115	1	7
551.285	1	4
551.455	1	13
551.625	1	1
551.795	1	4
551.965	1	-3
552.135	1	2
552.305	1	12
552.475	1	10
552.645	1	-1
552.815	1	5
552.985	1	-19
553.155	1	4
553.325	1	-2
553.495	1	8
553.665	1	2
553.835	1	6
554.004	1	9
554.174	1	-11
554.344	1	13
554.514	1	-1
554.684	1	-4
554.854	1	-8
555.024	1	0
555.194	1	7
555.364	1	9
555.534	1	-3
555.704	1	-6
555.874	1	8
556.044	1	6
556.214	1	10
556.384	1	-2
556.554	1	-3
556.724	1	6
556.894	1	-8
557.064	1	7
557.234	1	15
557.404	1	-1
557.573	1	10
557.743	1	-10
557.913	1	5
558.083	1	9
558.253	1	1
558.423	1	2
558.593	1	8
558.763	1	19
558.933	1	3
559.103	1	5
559.273	1	4
559.443	1	1
559.613	1	-6
559.783	1	-2
559.953	1	-11
560.122	1	-8
560.292	1	-3
560.462	1	3
560.632	1	7
560.802	1	-2
560.972	1	6
561.142	1	-2
561.312	1	-6
561.482	1	8
561.652	1	6
561.822	1	-1
561.992	1	-3
562.162	1	3
562.331	1	6
562.501	1	-11
562.671	1	2
562.841	1	2
563.011	1	2
563.181	1	2
563.351	1	1
563.521	1	-6
563.691	1	-8
563.861	1	1
564.031	1	1
564.201	1	9
564.370	1	1
564.540	1	-3
564.710	1	-5
564.880	1	-1
565.050	1	2
565.220	1	4
565.390	1	6
565.560	1	-2
565.730	1	-3
565.900	1	4
566.069	1	18
566.239	1	5
566.409	1	0
566.579	1	8
566.749	1	2
566.919	1	-5
567.089	1	4
567.259	1	6
567.429	1	-1
567.599	1	7
567.768	1	8
567.938	1	12
568.108	1	-2
568.278	1	8
568.448	1	4
568.618	1	9
568.788	1	2
568.958	1	-2
569.128	1	1
569.297	1	-1
569.467	1	-3
569.637	1	7
569.807	1	11
569.977	1	7
570.147	1	11
570.317	1	3
570.487	1	-1
570.656	1	3
570.826	1	-2
570.996	1	-4
571.166	1	6
571.336	1	3
571.506	1	6
571.676	1	-1
571.846	1	10
572.015	1	-9
572.185	1	3
572.355	1	4
572.525	1	5
572.695	1	-2
572.865	1	8
573.035	1	9
573.205	1	5
573.374	1	4
573.544	1	4
573.714	1	6
573.884	1	-2
574.054	1	10
574.224	1	3
574.394	1	-9
574.563	1	6
574.733	1	2
574.903	1	0
575.073	1	1
575.243	1	0
575.413	1	0
575.583	1	1
575.752	1	0
575.922	1	1
576.092	1	-4
576.262	1	-3
576.432	1	6
576.602	1	-8
576.772	1	4
576.941	1	-3
577.111	1	10
577.281	1	-6
577.451	1	1
577.621	1	-2
577.791	1	13
577.960	1	11
578.130	1	-2
578.300	1	1
578.470	1	1
578.640	1	-1
578.810	1	8
578.979	1	0
579.149	1	5
579.319	1	-6
579.489	1	12
579.659	1	12
579.829	1	10
579.998	1	-2
580.168	1	2
580.338	1	-11
580.508	1	14
580.678	1	4
580.848	1	5
581.017	1	-3
581.187	1	-8
581.357	1	3
581.527	1	-4
581.697	1	-4
581.867	1	7
582.036	1	7
582.206	1	-4
582.376	1	7
582.546	1	-4
582.716	1	-5
582.885	1	8
583.055	1	6
583.225	1	17
583.395	1	-1
583.565	1	-1
583.735	1	-4
583.904	1	11
584.074	1	5
584.244	1	12
584.414	1	2
584.584	1	-1
584.753	1	-7
584.923	1	9
585.093	1	-3
585.263	1	-5
585.433	1	-1
585.602	1	6
585.772	1	3
585.942	1	1
586.112	1	3
586.282	1	-6
586.451	1	0
586.621	1	6
586.791	1	6
586.961	1	-3
587.131	1	4
587.300	1	-4
587.470	1	9
587.640	1	-1
587.810	1	7
587.980	1	-12
588.149	1	0
588.319	1	1
588.489	1	1
588.659	1	7
588.829	1	9
588.998	1	-4
589.168	1	7
589.338	1	1
589.508	1	-5
589.677	1	-5
589.847	1	10
590.017	1	2
590.187	1	6
590.357	1	-4
590.526	1	-11
590.696	1	10
590.866	1	12
591.036	1	9
591.205	1	-4
591.375	1	-4
591.545	1	5
591.715	1	-9
591.885	1	2
592.054	1	-2
592.224	1	6
592.394	1	-4
592.564	1	0
592.733	1	10
592.903	1	-2
593.073	1	6
593.243	1	17
593.412	1	12
593.582	1	-3
593.752	1	-2
593.922	1	-3
594.091	1	-1
594.261	1	4
594.431	1	6
594.601	1	-7
594.771	1	3
594.940	1	-2
595.110	1	4
595.280	1	7
595.450	1	2
595.619	1	-5
595.789	1	-8
595.959	1	8
596.129	1	4
596.298	1	20
596.468	1	2
596.638	1	0
596.808	1	5
596.977	1	8
597.147	1	4
597.317	1	5
597.487	1	-9
597.656	1	-2
597.826	1	-7
597.996	1	1
598.166	1	-3
598.335	1	6
598.505	1	4
598.675	1	-4
598.844	1	3
599.014	1	-3
599.184	1	7
599.354	1	3
599.523	1	2
599.693	1	-4
599.863	1	4
600.033	1	-6
600.202	1	11
600.372	1	-8
600.542	1	0
600.712	1	0
600.881	1	-2
601.051	1	3
601.221	1	6
601.390	1	2
601.560	1	2
601.730	1	0
601.900	1	-8
602.069	1	4
602.239	1	10
602.409	1	5
602.578	1	0
602.748	1	7
602.918	1	1
603.088	1	1
603.257	1	10
603.427	1	0
603.597	1	6
603.767	1	1
603.936	1	-11
604.106	1	2
604.276	1	-1
604.445	1	-1
604.615	1	-2
604.785	1	8
604.954	1	2
605.124	1	8
605.294	1	6
605.464	1	7
605.633	1	-1
605.803	1	-1
605.973	1	8
606.142	1	7
606.312	1	0
606.482	1	4
606.652	1	-3
606.821	1	-3
606.991	1	6
607.161	1	4
607.330	1	-7
607.500	1	-1
607.670	1	-4
607.839	1	5
608.009	1	-6
608.179	1	-4
608.348	1	10
608.518	1	7
608.688	1	6
608.858	1	5
609.027	1	18
609.197	1	-11
609.367	1	-6
609.536	1	2
609.706	1	2
609.876	1	11
610.045	1	3
610.215	1	10
610.385	1	-4
610.554	1	11
610.724	1	10
610.894	1	3
611.063	1	4
611.233	1	-4
611.403	1	1
611.572	1	-5
611.742	1	3
611.912	1	3
612.081	1	9
612.251	1	3
612.421	1	-2
612.590	1	-4
612.760	1	6
612.930	1	-2
613.099	1	-2
613.269	1	-4
613.439	1	5
613.608	1	5
613.778	1	2
613.948	1	2
614.117	1	7
614.287	1	7
614.457	1	5
614.626	1	4
614.796	1	11
614.966	1	12
615.135	1	11
615.305	1	-1
615.475	1	7
615.644	1	-5
615.814	1	-4
615.984	1	11
616.153	1	1
616.323	1	7
616.493	1	1
616.662	1	-2
616.832	1	9
617.002	1	-9
617.171	1	-9
617.341	1	5
617.511	1	-5
617.680	1	3
617.850	1	6
618.019	1	-1
618.189	1	5
618.359	1	9
618.528	1	16
618.698	1	-2
618.868	1	-8
619.037	1	5
619.207	1	7
619.377	1	-12
619.546	1	-4
619.716	1	-3
619.885	1	6
620.055	1	-5
620.225	1	5
620.394	1	3
620.564	1	-2
620.734	1	1
620.903	1	6
621.073	1	-1
621.242	1	11
621.412	1	3
621.582	1	2
621.751	1	3
621.921	1	5
622.091	1	-7
622.260	1	5
622.430	1	8
622.599	1	5
622.769	1	-6
622.939	1	1
623.108	1	7
623.278	1	5
623.448	1	2
623.617	1	0
623.787	1	5
623.956	1	1
624.126	1	-1
624.296	1	-2
624.465	1	-3
624.635	1	14
624.804	1	2
624.974	1	10
625.144	1	2
625.313	1	3
625.483	1	8
625.652	1	-2
625.822	1	6
625.992	1	6
626.161	1	7
626.331	1	21
626.501	1	16
626.670	1	-5
626.840	1	-1
627.009	1	11
627.179	1	3
627.348	1	-7
627.518	1	-7
627.688	1	-5
627.857	1	9
628.027	1	-3
628.196	1	-3
628.366	1	6
628.536	1	6
628.705	1	-1
628.875	1	9
629.044	1	1
629.214	1	11
629.384	1	0
629.553	1	3
629.723	1	4
629.892	1	2
630.062	1	1
630.232	1	-2
630.401	1	8
630.571	1	11
630.740	1	4
630.910	1	8
631.079	1	11
631.249	1	4
631.419	1	3
631.588	1	2
631.758	1	5
631.927	1	11
632.097	1	5
632.266	1	7
632.436	1	3
632.606	1	17
632.775	1	7
632.945	1	1
633.114	1	0
633.284	1	7
633.453	1	1
633.623	1	8
633.793	1	13
633.962	1	5
634.132	1	2
634.301	1	3
634.471	1	-7
634.640	1	1
634.810	1	15
634.979	1	9
635.149	1	13
635.319	1	4
635.488	1	1
635.658	1	9
635.827	1	4
635.997	1	-1
636.166	1	9
636.336	1	7
636.505	1	17
636.675	1	1
636.845	1	3
637.014	1	9
637.184	1	8
637.353	1	6
637.523	1	13
637.692	1	3
637.862	1	4
638.031	1	16
638.201	1	11
638.370	1	15
638.540	1	13
638.710	1	-1
638.879	1	0
639.049	1	12
639.218	1	0
639.388	1	0
639.557	1	10
639.727	1	4
639.896	1	6
640.066	1	14
640.235	1	8
640.405	1	8
640.574	1	6
640.744	1	7
640.914	1	-1
641.083	1	-1
641.253	1	-1
641.422	1	-7
641.592	1	-3
641.761	1	12
641.931	1	7
642.100	1	3
642.270	1	0
642.439	1	1
642.609	1	18
642.778	1	-1
642.948	1	10
643.117	1	-5
643.287	1	-1
643.456	1	5
643.626	1	0
643.795	1	-4
643.965	1	11
644.134	1	6
644.304	1	4
644.473	1	1
644.643	1	3
644.812	1	0
644.982	1	5
645.151	1	3
645.321	1	-4
645.490	1	7
645.660	1	-2
645.829	1	6
645.999	1	5
646.168	1	14
646.338	1	-2
646.507	1	6
646.677	1	10
646.846	1	-2
647.016	1	14
647.185	1	4
647.355	1	10
647.524	1	8
647.694	1	10
647.863	1	6
648.033	1	8
648.202	1	-2
648.372	1	3
648.541	1	3
648.711	1	10
648.880	1	4
649.050	1	3
649.219	1	16
649.389	1	1
649.558	1	1
649.728	1	-1
649.897	1	-2
650.067	1	1
650.236	1	2
650.406	1	6
650.575	1	7
650.745	1	-5
650.914	1	11
651.084	1	-7
651.253	1	8
651.423	1	13
651.592	1	10
651.762	1	7
651.931	1	15
652.101	1	1
652.270	1	4
652.440	1	-9
652.609	1	-1
652.778	1	2
652.948	1	-4
653.117	1	19
653.287	1	-3
653.456	1	15
653.626	1	11
653.795	1	-1
653.965	1	6
654.134	1	-6
654.304	1	5
654.473	1	7
654.643	1	2
654.812	1	-1
654.982	1	2
655.151	1	1
655.320	1	9
655.490	1	5
655.659	1	1
655.829	1	-1
655.998	1	9
656.168	1	2
656.337	1	4
656.507	1	7
656.676	1	2
656.846	1	9
657.015	1	8
657.184	1	0
657.354	1	1
657.523	1	1
657.693	1	4
657.862	1	7
658.032	1	14
658.201	1	6
658.371	1	7
658.540	1	-6
658.709	1	0
658.879	1	12
659.048	1	16
659.218	1	1
659.387	1	0
659.557	1	-2
659.726	1	-5
659.895	1	4
660.065	1	7
660.234	1	-1
660.404	1	8
660.573	1	7
660.743	1	1
660.912	1	1
661.081	1	8
661.251	1	10
661.420	1	2
661.590	1	5
661.759	1	-1
661.929	1	10
662.098	1	-3
662.267	1	13
662.437	1	5
662.606	1	1
662.776	1	4
662.945	1	4
663.115	1	6
663.284	1	-3
663.453	1	-6
663.623	1	-5
663.792	1	2
663.962	1	1
664.131	1	0
664.300	1	-11
664.470	1	5
664.639	1	16
664.809	1	0
664.978	1	-3
665.148	1	7
665.317	1	12
665.486	1	0
665.656	1	3
665.825	1	2
665.995	1	-2
666.164	1	10
666.333	1	0
666.503	1	-3
666.672	1	7
666.842	1	2
667.011	1	8
667.180	1	10
667.350	1	8
667.519	1	-11
667.689	1	13
667.858	1	-3
668.027	1	-2
668.197	1	-6
668.366	1	13
668.536	1	7
668.705	1	0
668.874	1	-5
669.044	1	5
669.213	1	-4
669.382	1	1
669.552	1	7
669.721	1	7
669.891	1	5
670.060	1	4
670.229	1	8
670.399	1	5
670.568	1	-12
670.738	1	3
670.907	1	6
671.076	1	4
671.246	1	0
671.415	1	11
671.584	1	1
671.754	1	7
671.923	1	-8
672.093	1	2
672.262	1	-10
672.431	1	-1
672.601	1	0
672.770	1	-7
672.939	1	-5
673.109	1	9
673.278	1	7
673.448	1	8
673.617	1	6
673.786	1	-8
