325.333	1	13
325.504	1	10
325.675	1	9
325.846	1	2
326.017	1	11
326.188	1	18
326.359	1	9
326.531	1	15
326.702	1	17
326.873	1	5
327.044	1	4
327.215	1	1
327.386	1	13
327.557	1	4
327.728	1	15
327.899	1	5
328.070	1	19
328.241	1	9
328.412	1	-9
328.583	1	17
328.754	1	11
328.926	1	14
329.097	1	5
329.268	1	17
329.439	1	3
329.610	1	21
329.781	1	5
329.952	1	9
330.123	1	-2
330.294	1	13
330.465	1	11
330.636	1	18
330.807	1	19
330.978	1	12
331.149	1	6
331.320	1	23
331.492	1	21
331.663	1	9
331.834	1	12
332.005	1	-1
332.176	1	11
332.347	1	10
332.518	1	14
332.689	1	13
332.860	1	16
333.031	1	1
333.202	1	16
333.373	1	17
333.544	1	15
333.715	1	3
333.886	1	5
334.057	1	19
334.228	1	8
334.399	1	13
334.570	1	16
334.741	1	1
334.912	1	15
335.084	1	10
335.255	1	14
335.426	1	17
335.597	1	5
335.768	1	11
335.939	1	16
336.110	1	7
336.281	1	16
336.452	1	18
336.623	1	21
336.794	1	14
336.965	1	15
337.136	1	23
337.307	1	15
337.478	1	9
337.649	1	25
337.820	1	14
337.991	1	29
338.162	1	11
338.333	1	14
338.504	1	16
338.675	1	19
338.846	1	14
339.017	1	18
339.188	1	15
339.359	1	16
339.530	1	23
339.701	1	22
339.872	1	14
340.043	1	26
340.214	1	10
340.385	1	7
340.556	1	16
340.727	1	19
340.898	1	16
341.069	1	16
341.240	1	23
341.411	1	22
341.582	1	18
341.753	1	24
341.924	1	16
342.095	1	11
342.266	1	22
342.437	1	22
342.608	1	21
342.779	1	11
342.950	1	15
343.121	1	14
343.292	1	19
343.463	1	13
343.634	1	11
343.805	1	22
343.976	1	16
344.147	1	10
344.318	1	20
344.489	1	11
344.660	1	18
344.831	1	12
345.002	1	23
345.173	1	10
345.344	1	17
345.515	1	11
345.686	1	14
345.857	1	19
346.028	1	11
346.199	1	12
346.370	1	19
346.541	1	15
346.712	1	10
346.883	1	22
347.054	1	14
347.225	1	19
347.396	1	13
347.567	1	27
347.738	1	15
347.909	1	12
348.080	1	6
348.251	1	24
348.422	1	7
348.593	1	15
348.764	1	20
348.935	1	11
349.106	1	8
349.277	1	37
349.448	1	20
349.619	1	9
349.790	1	33
349.961	1	19
350.132	1	6
350.303	1	10
350.474	1	26
350.645	1	21
350.816	1	24
350.987	1	11
351.157	1	22
351.328	1	9
351.499	1	24
351.670	1	24
351.841	1	31
352.012	1	30
352.183	1	19
352.354	1	32
352.525	1	19
352.696	1	20
352.867	1	26
353.038	1	13
353.209	1	21
353.380	1	29
353.551	1	10
353.722	1	5
353.893	1	29
354.064	1	23
354.235	1	25
354.406	1	31
354.576	1	14
354.747	1	19
354.918	1	35
355.089	1	23
355.260	1	22
355.431	1	20
355.602	1	14
355.773	1	16
355.944	1	26
356.115	1	10
356.286	1	17
356.457	1	11
356.628	1	19
356.799	1	16
356.970	1	2
357.141	1	19
357.311	1	9
357.482	1	9
357.653	1	23
357.824	1	19
357.995	1	13
358.166	1	30
358.337	1	22
358.508	1	25
358.679	1	17
358.850	1	23
359.021	1	27
359.192	1	14
359.363	1	16
359.533	1	20
359.704	1	20
359.875	1	15
360.046	1	30
360.217	1	20
360.388	1	21
360.559	1	29
360.730	1	23
360.901	1	22
361.072	1	27
361.243	1	29
361.414	1	14
361.584	1	20
361.755	1	31
361.926	1	28
362.097	1	7
362.268	1	26
362.439	1	29
362.610	1	26
362.781	1	28
362.952	1	22
363.123	1	8
363.293	1	21
363.464	1	17
363.635	1	31
363.806	1	20
363.977	1	38
364.148	1	31
364.319	1	23
364.490	1	32
364.661	1	21
364.832	1	19
365.002	1	16
365.173	1	21
365.344	1	13
365.515	1	11
365.686	1	13
365.857	1	15
366.028	1	24
366.199	1	19
366.370	1	8
366.540	1	13
366.711	1	16
366.882	1	34
367.053	1	36
367.224	1	9
367.395	1	19
367.566	1	31
367.737	1	27
367.908	1	13
368.078	1	25
368.249	1	11
368.420	1	22
368.591	1	32
368.762	1	32
368.933	1	30
369.104	1	34
369.274	1	19
369.445	1	16
369.616	1	30
369.787	1	20
369.958	1	21
370.129	1	29
370.300	1	23
370.471	1	27
370.641	1	30
370.812	1	17
370.983	1	30
371.154	1	34
371.325	1	25
371.496	1	31
371.667	1	21
371.837	1	25
372.008	1	27
372.179	1	19
372.350	1	24
372.521	1	16
372.692	1	22
372.863	1	28
373.033	1	22
373.204	1	21
373.375	1	14
373.546	1	10
373.717	1	18
373.888	1	28
374.059	1	21
374.229	1	14
374.400	1	28
374.571	1	13
374.742	1	28
374.913	1	19
375.084	1	21
375.254	1	26
375.425	1	31
375.596	1	22
375.767	1	27
375.938	1	19
376.109	1	16
376.279	1	13
376.450	1	34
376.621	1	25
376.792	1	21
376.963	1	29
377.134	1	20
377.304	1	22
377.475	1	40
377.646	1	26
377.817	1	32
377.988	1	24
378.159	1	32
378.329	1	26
378.500	1	28
378.671	1	31
378.842	1	33
379.013	1	35
379.184	1	31
379.354	1	28
379.525	1	37
379.696	1	26
379.867	1	30
380.038	1	35
380.209	1	21
380.379	1	25
380.550	1	16
380.721	1	29
380.892	1	29
381.063	1	27
381.233	1	33
381.404	1	45
381.575	1	39
381.746	1	26
381.917	1	35
382.087	1	30
382.258	1	30
382.429	1	43
382.600	1	29
382.771	1	39
382.941	1	22
383.112	1	22
383.283	1	21
383.454	1	27
383.625	1	38
383.795	1	43
383.966	1	32
384.137	1	29
384.308	1	31
384.479	1	38
384.649	1	32
384.820	1	36
384.991	1	58
385.162	1	29
385.333	1	28
385.503	1	24
385.674	1	29
385.845	1	28
386.016	1	40
386.187	1	28
386.357	1	24
386.528	1	35
386.699	1	34
386.870	1	28
387.041	1	25
387.211	1	36
387.382	1	26
387.553	1	25
387.724	1	19
387.894	1	28
388.065	1	50
388.236	1	37
388.407	1	37
388.578	1	40
388.748	1	39
388.919	1	27
389.090	1	34
389.261	1	22
389.431	1	51
389.602	1	33
389.773	1	29
389.944	1	32
390.114	1	29
390.285	1	41
390.456	1	32
390.627	1	45
390.798	1	38
390.968	1	38
391.139	1	37
391.310	1	28
391.481	1	27
391.651	1	37
391.822	1	42
391.993	1	32
392.164	1	33
392.334	1	34
392.505	1	33
392.676	1	36
392.847	1	32
393.017	1	39
393.188	1	32
393.359	1	40
393.530	1	41
393.700	1	48
393.871	1	32
394.042	1	34
394.213	1	41
394.383	1	30
394.554	1	37
394.725	1	40
394.896	1	36
395.066	1	33
395.237	1	34
395.408	1	31
395.579	1	35
395.749	1	25
395.920	1	29
396.091	1	35
396.262	1	27
396.432	1	37
396.603	1	36
396.774	1	43
396.945	1	38
397.115	1	46
397.286	1	29
397.457	1	42
397.627	1	36
397.798	1	46
397.969	1	43
398.140	1	27
398.310	1	45
398.481	1	39
398.652	1	50
398.823	1	41
398.993	1	38
399.164	1	27
399.335	1	45
399.505	1	29
399.676	1	32
399.847	1	47
400.018	1	45
400.188	1	34
400.359	1	29
400.530	1	59
400.700	1	39
400.871	1	47
401.042	1	40
401.213	1	37
401.383	1	43
401.554	1	46
401.725	1	27
401.895	1	42
402.066	1	38
402.237	1	51
402.408	1	49
402.578	1	45
402.749	1	44
402.920	1	39
403.090	1	35
403.261	1	34
403.432	1	31
403.603	1	45
403.773	1	38
403.944	1	49
404.115	1	43
404.285	1	32
404.456	1	46
404.627	1	53
404.797	1	30
404.968	1	41
405.139	1	35
405.310	1	45
405.480	1	34
405.651	1	46
405.822	1	33
405.992	1	42
406.163	1	32
406.334	1	46
406.504	1	49
406.675	1	41
406.846	1	44
407.016	1	53
407.187	1	43
407.358	1	46
407.528	1	42
407.699	1	32
407.870	1	42
408.041	1	46
408.211	1	42
408.382	1	37
408.553	1	52
408.723	1	44
408.894	1	34
409.065	1	48
409.235	1	29
409.406	1	50
409.577	1	50
409.747	1	49
409.918	1	47
410.089	1	37
410.259	1	41
410.430	1	40
410.601	1	44
410.771	1	47
410.942	1	38
411.113	1	51
411.283	1	43
411.454	1	50
411.625	1	53
411.795	1	50
411.966	1	56
412.137	1	59
412.307	1	39
412.478	1	41
412.649	1	53
412.819	1	39
412.990	1	41
413.161	1	58
413.331	1	54
413.502	1	60
413.672	1	27
413.843	1	45
414.014	1	51
414.184	1	45
414.355	1	47
414.526	1	42
414.696	1	50
414.867	1	58
415.038	1	47
415.208	1	37
415.379	1	47
415.550	1	46
415.720	1	48
415.891	1	44
416.062	1	35
416.232	1	48
416.403	1	43
416.573	1	44
416.744	1	50
416.915	1	45
417.085	1	50
417.256	1	43
417.427	1	51
417.597	1	51
417.768	1	33
417.939	1	40
418.109	1	54
418.280	1	43
418.450	1	48
418.621	1	44
418.792	1	35
418.962	1	51
419.133	1	40
419.304	1	38
419.474	1	37
419.645	1	38
419.815	1	42
419.986	1	53
420.157	1	48
420.327	1	46
420.498	1	50
420.669	1	37
420.839	1	50
421.010	1	39
421.180	1	41
421.351	1	38
421.522	1	48
421.692	1	39
421.863	1	43
422.033	1	48
422.204	1	39
422.375	1	56
422.545	1	60
422.716	1	44
422.886	1	40
423.057	1	53
423.228	1	41
423.398	1	50
423.569	1	38
423.740	1	47
423.910	1	45
424.081	1	44
424.251	1	49
424.422	1	48
424.593	1	50
424.763	1	56
424.934	1	49
425.104	1	57
425.275	1	49
425.445	1	49
425.616	1	36
425.787	1	48
425.957	1	49
426.128	1	49
426.298	1	36
426.469	1	53
426.640	1	39
426.810	1	37
426.981	1	46
427.151	1	49
427.322	1	55
427.493	1	47
427.663	1	57
427.834	1	35
428.004	1	49
428.175	1	37
428.345	1	52
428.516	1	53
428.687	1	43
428.857	1	29
429.028	1	42
429.198	1	44
429.369	1	44
429.540	1	38
429.710	1	45
429.881	1	42
430.051	1	37
430.222	1	48
430.392	1	48
430.563	1	43
430.734	1	55
430.904	1	50
431.075	1	46
431.245	1	40
431.416	1	39
431.586	1	40
431.757	1	47
431.927	1	44
432.098	1	49
432.269	1	48
432.439	1	49
432.610	1	52
432.780	1	50
432.951	1	43
433.121	1	45
433.292	1	43
433.462	1	45
433.633	1	46
433.804	1	44
433.974	1	47
434.145	1	51
434.315	1	37
434.486	1	53
434.656	1	50
434.827	1	37
434.997	1	47
435.168	1	53
435.339	1	48
435.509	1	50
435.680	1	42
435.850	1	38
436.021	1	56
436.191	1	47
436.362	1	53
436.532	1	47
436.703	1	53
436.873	1	49
437.044	1	38
437.214	1	43
437.385	1	52
437.556	1	54
437.726	1	38
437.897	1	41
438.067	1	40
438.238	1	40
438.408	1	48
438.579	1	46
438.749	1	42
438.920	1	47
439.090	1	46
439.261	1	48
439.431	1	52
439.602	1	50
439.772	1	43
439.943	1	38
440.113	1	36
440.284	1	45
440.455	1	39
440.625	1	42
440.796	1	43
440.966	1	44
441.137	1	38
441.307	1	47
441.478	1	35
441.648	1	59
441.819	1	43
441.989	1	44
442.160	1	53
442.330	1	41
442.501	1	38
442.671	1	46
442.842	1	41
443.012	1	52
443.183	1	48
443.353	1	46
443.524	1	26
443.694	1	38
443.865	1	33
444.035	1	51
444.206	1	47
444.376	1	46
444.547	1	38
444.717	1	37
444.888	1	44
445.058	1	51
445.229	1	37
445.399	1	50
445.570	1	45
445.740	1	42
445.911	1	40
446.081	1	42
446.252	1	33
446.422	1	41
446.593	1	35
446.763	1	41
446.934	1	40
447.104	1	39
447.275	1	40
447.445	1	43
447.616	1	40
447.786	1	43
447.957	1	41
448.127	1	38
448.298	1	23
448.468	1	41
448.639	1	51
448.809	1	45
448.979	1	29
449.150	1	45
449.320	1	55
449.491	1	47
449.661	1	48
449.832	1	31
450.002	1	34
450.173	1	41
450.343	1	45
450.514	1	43
450.684	1	57
450.855	1	48
451.025	1	50
451.196	1	56
451.366	1	48
451.537	1	41
451.707	1	47
451.878	1	46
452.048	1	30
452.218	1	35
452.389	1	48
452.559	1	47
452.730	1	35
452.900	1	39
453.071	1	36
453.241	1	51
453.412	1	38
453.582	1	47
453.753	1	40
453.923	1	44
454.093	1	24
454.264	1	49
454.434	1	43
454.605	1	36
454.775	1	34
454.946	1	38
455.116	1	29
455.287	1	45
455.457	1	38
455.628	1	29
455.798	1	30
455.968	1	46
456.139	1	41
456.309	1	43
456.480	1	41
456.650	1	42
456.821	1	34
456.991	1	40
457.161	1	42
457.332	1	44
457.502	1	47
457.673	1	44
457.843	1	43
458.014	1	39
458.184	1	37
458.355	1	46
458.525	1	42
458.695	1	33
458.866	1	25
459.036	1	25
459.207	1	41
459.377	1	30
459.548	1	33
459.718	1	35
459.888	1	36
460.059	1	27
460.229	1	38
460.400	1	53
460.570	1	39
460.740	1	29
460.911	1	58
461.081	1	32
461.252	1	43
461.422	1	37
461.593	1	32
461.763	1	31
461.933	1	36
462.104	1	34
462.274	1	33
462.445	1	33
462.615	1	37
462.785	1	32
462.956	1	30
463.126	1	29
463.297	1	46
463.467	1	33
463.638	1	39
463.808	1	39
463.978	1	41
464.149	1	37
464.319	1	27
464.490	1	29
464.660	1	28
464.830	1	30
465.001	1	38
465.171	1	31
465.342	1	35
465.512	1	47
465.682	1	32
465.853	1	38
466.023	1	38
466.194	1	38
466.364	1	32
466.534	1	18
466.705	1	40
466.875	1	28
467.045	1	40
467.216	1	40
467.386	1	27
467.557	1	36
467.727	1	42
467.897	1	36
468.068	1	35
468.238	1	20
468.409	1	26
468.579	1	34
468.749	1	43
468.920	1	38
469.090	1	40
469.260	1	32
469.431	1	40
469.601	1	35
469.772	1	19
469.942	1	33
470.112	1	29
470.283	1	36
470.453	1	40
470.623	1	30
470.794	1	21
470.964	1	20
471.135	1	29
471.305	1	26
471.475	1	31
471.646	1	30
471.816	1	39
471.986	1	26
472.157	1	30
472.327	1	22
472.497	1	29
472.668	1	19
472.838	1	31
473.009	1	40
473.179	1	30
473.349	1	20
473.520	1	35
473.690	1	36
473.860	1	23
474.031	1	46
474.201	1	23
474.371	1	40
474.542	1	33
474.712	1	30
474.882	1	31
475.053	1	30
475.223	1	35
475.394	1	8
475.564	1	30
475.734	1	32
475.905	1	26
476.075	1	22
476.245	1	23
476.416	1	23
476.586	1	41
476.756	1	27
476.927	1	25
477.097	1	24
477.267	1	35
477.438	1	19
477.608	1	30
477.778	1	25
477.949	1	23
478.119	1	33
478.289	1	37
478.460	1	35
478.630	1	29
478.800	1	28
478.971	1	17
479.141	1	30
479.311	1	26
479.482	1	26
479.652	1	31
479.822	1	25
479.993	1	33
480.163	1	23
480.333	1	28
480.504	1	31
480.674	1	13
480.844	1	30
481.015	1	30
481.185	1	27
481.355	1	36
481.525	1	22
481.696	1	42
481.866	1	27
482.036	1	23
482.207	1	33
482.377	1	19
482.547	1	32
482.718	1	38
482.888	1	24
483.058	1	38
483.229	1	33
483.399	1	31
483.569	1	22
483.740	1	21
483.910	1	25
484.080	1	37
484.250	1	26
484.421	1	27
484.591	1	28
484.761	1	12
484.932	1	23
485.102	1	23
485.272	1	23
485.443	1	27
485.613	1	19
485.783	1	25
485.953	1	21
486.124	1	17
486.294	1	35
486.464	1	28
486.635	1	20
486.805	1	25
486.975	1	28
487.146	1	16
487.316	1	28
487.486	1	27
487.656	1	26
487.827	1	28
487.997	1	23
488.167	1	22
488.338	1	39
488.508	1	26
488.678	1	24
488.848	1	30
489.019	1	22
489.189	1	21
489.359	1	33
489.529	1	21
489.700	1	16
489.870	1	29
490.040	1	27
490.211	1	40
490.381	1	32
490.551	1	14
490.721	1	22
490.892	1	13
491.062	1	14
491.232	1	22
491.402	1	34
491.573	1	20
491.743	1	25
491.913	1	33
492.084	1	11
492.254	1	18
492.424	1	31
492.594	1	12
492.765	1	8
492.935	1	26
493.105	1	24
493.275	1	21
493.446	1	15
493.616	1	13
493.786	1	18
493.956	1	31
494.127	1	15
494.297	1	12
494.467	1	16
494.637	1	26
494.808	1	29
494.978	1	23
495.148	1	17
495.318	1	18
495.489	1	8
495.659	1	29
495.829	1	19
495.999	1	12
496.170	1	21
496.340	1	21
496.510	1	15
496.680	1	26
496.851	1	23
497.021	1	27
497.191	1	23
497.361	1	20
497.532	1	19
497.702	1	26
497.872	1	18
498.042	1	17
498.213	1	28
498.383	1	22
498.553	1	21
498.723	1	16
498.894	1	12
499.064	1	20
499.234	1	20
499.404	1	16
499.574	1	25
499.745	1	12
499.915	1	25
500.085	1	23
500.255	1	22
500.426	1	13
500.596	1	28
500.766	1	14
500.936	1	11
501.106	1	17
501.277	1	14
501.447	1	18
501.617	1	12
501.787	1	15
501.958	1	1
502.128	1	18
502.298	1	23
502.468	1	17
502.638	1	16
502.809	1	26
502.979	1	12
503.149	1	14
503.319	1	32
503.489	1	17
503.660	1	13
503.830	1	13
504.000	1	12
504.170	1	10
504.340	1	16
504.511	1	8
504.681	1	25
504.851	1	22
505.021	1	20
505.192	1	17
505.362	1	10
505.532	1	7
505.702	1	21
505.872	1	24
506.043	1	20
506.213	1	18
506.383	1	13
506.553	1	22
506.723	1	4
506.893	1	12
507.064	1	10
507.234	1	13
507.404	1	15
507.574	1	6
507.744	1	28
507.915	1	24
508.085	1	26
508.255	1	17
508.425	1	13
508.595	1	15
508.766	1	4
508.936	1	24
509.106	1	2
509.276	1	16
509.446	1	7
509.616	1	20
509.787	1	9
509.957	1	19
510.127	1	17
510.297	1	21
510.467	1	9
510.638	1	13
510.808	1	16
510.978	1	10
511.148	1	23
511.318	1	16
511.488	1	24
511.659	1	16
511.829	1	10
511.999	1	16
512.169	1	20
512.339	1	18
512.509	1	19
512.680	1	16
512.850	1	12
513.020	1	10
513.190	1	13
513.360	1	22
513.530	1	17
513.700	1	13
513.871	1	21
514.041	1	12
514.211	1	24
514.381	1	15
514.551	1	17
514.721	1	17
514.892	1	6
515.062	1	22
515.232	1	6
515.402	1	23
515.572	1	25
515.742	1	8
515.912	1	4
516.083	1	16
516.253	1	5
516.423	1	12
516.593	1	5
516.763	1	12
516.933	1	11
517.104	1	3
517.274	1	29
517.444	1	3
517.614	1	8
517.784	1	10
517.954	1	20
518.124	1	20
518.294	1	24
518.465	1	2
518.635	1	16
518.805	1	5
518.975	1	8
519.145	1	13
519.315	1	9
519.485	1	22
519.656	1	11
519.826	1	12
519.996	1	22
520.166	1	17
520.336	1	-5
520.506	1	10
520.676	1	14
520.846	1	22
521.017	1	11
521.187	1	15
521.357	1	15
521.527	1	6
521.697	1	13
521.867	1	1
522.037	1	19
522.207	1	5
522.377	1	12
522.548	1	8
522.718	1	10
522.888	1	15
523.058	1	17
523.228	1	10
523.398	1	15
523.568	1	10
523.738	1	3
523.909	1	23
524.079	1	14
524.249	1	12
524.419	1	6
524.589	1	10
524.759	1	9
524.929	1	7
525.099	1	10
525.269	1	15
525.439	1	10
525.610	1	14
525.780	1	3
525.950	1	5
526.120	1	5
526.290	1	15
526.460	1	6
526.630	1	11
526.800	1	6
526.970	1	7
527.140	1	17
527.311	1	16
527.481	1	25
527.651	1	15
527.821	1	7
527.991	1	5
528.161	1	17
528.331	1	7
528.501	1	10
528.671	1	11
528.841	1	17
529.011	1	4
529.181	1	10
529.352	1	6
529.522	1	8
529.692	1	22
529.862	1	6
530.032	1	11
530.202	1	7
530.372	1	10
530.542	1	13
530.712	1	20
530.882	1	4
531.052	1	11
531.222	1	3
531.392	1	-3
531.563	1	5
531.733	1	14
531.903	1	3
532.073	1	8
532.243	1	15
532.413	1	13
532.583	1	6
532.753	1	8
532.923	1	10
533.093	1	5
533.263	1	8
533.433	1	9
533.603	1	9
533.773	1	15
533.943	1	16
534.113	1	12
534.284	1	11
534.454	1	4
534.624	1	10
534.794	1	10
534.964	1	6
535.134	1	9
535.304	1	10
535.474	1	15
535.644	1	12
535.814	1	4
535.984	1	18
536.154	1	3
536.324	1	11
536.494	1	5
536.664	1	14
536.834	1	5
537.004	1	0
537.174	1	0
537.344	1	16
537.514	1	18
537.685	1	16
537.855	1	7
538.025	1	-3
538.195	1	5
538.365	1	6
538.535	1	7
538.705	1	5
538.875	1	1
539.045	1	-3
539.215	1	18
539.385	1	20
539.555	1	8
539.725	1	4
539.895	1	17
540.065	1	6
540.235	1	1
540.405	1	6
540.575	1	10
540.745	1	6
540.915	1	14
541.085	1	5
541.255	1	15
541.425	1	1
541.595	1	-6
541.765	1	9
541.935	1	12
542.105	1	5
542.275	1	-1
542.445	1	-1
542.615	1	8
542.785	1	15
542.955	1	19
543.125	1	5
543.295	1	15
543.465	1	9
543.635	1	8
543.805	1	3
543.975	1	5
544.145	1	12
544.315	1	13
544.485	1	-1
544.655	1	15
544.825	1	11
544.995	1	5
545.165	1	16
545.335	1	2
545.505	1	14
545.675	1	12
545.845	1	17
546.015	1	10
546.185	1	15
546.355	1	15
546.525	1	6
546.695	1	19
546.865	1	10
547.035	1	5
547.205	1	10
547.375	1	22
547.545	1	11
547.715	1	4
547.885	1	14
548.055	1	14
548.225	1	8
548.395	1	11
548.565	1	16
548.735	1	4
548.905	1	11
549.075	1	7
549.245	1	5
549.415	1	0
549.585	1	9
549.755	1	4
549.925	1	22
550.095	1	7
550.265	1	10
550.435	1	13
550.605	1	14
550.775	1	3
550.945	1	11
551.115	1	10
551.285	1	10
551.455	1	12
551.625	1	19
551.795	1	10
551.965	1	11
552.135	1	14
552.305	1	19
552.475	1	5
552.645	1	8
552.815	1	5
552.985	1	-7
553.155	1	4
553.325	1	9
553.495	1	11
553.665	1	15
553.835	1	18
554.004	1	14
554.174	1	3
554.344	1	15
554.514	1	2
554.684	1	4
554.854	1	8
555.024	1	-5
555.194	1	10
555.364	1	17
555.534	1	9
555.704	1	8
555.874	1	8
556.044	1	9
556.214	1	8
556.384	1	4
556.554	1	3
556.724	1	9
556.894	1	9
557.064	1	12
557.234	1	10
557.404	1	8
557.573	1	3
557.743	1	0
557.913	1	10
558.083	1	10
558.253	1	4
558.423	1	9
558.593	1	18
558.763	1	10
558.933	1	9
559.103	1	6
559.273	1	6
559.443	1	-2
559.613	1	-3
559.783	1	8
559.953	1	-5
560.122	1	4
560.292	1	4
560.462	1	-5
560.632	1	7
560.802	1	9
560.972	1	7
561.142	1	-3
561.312	1	13
561.482	1	14
561.652	1	12
561.822	1	14
561.992	1	11
562.162	1	15
562.331	1	5
562.501	1	6
562.671	1	12
562.841	1	8
563.011	1	3
563.181	1	3
563.351	1	-1
563.521	1	11
563.691	1	3
563.861	1	9
564.031	1	6
564.201	1	12
564.370	1	11
564.540	1	1
564.710	1	1
564.880	1	6
565.050	1	8
565.220	1	8
565.390	1	14
565.560	1	17
565.730	1	8
565.900	1	12
566.069	1	16
566.239	1	6
566.409	1	4
566.579	1	5
566.749	1	6
566.919	1	4
567.089	1	-1
567.259	1	18
567.429	1	-1
567.599	1	5
567.768	1	4
567.938	1	11
568.108	1	1
568.278	1	-1
568.448	1	7
568.618	1	15
568.788	1	17
568.958	1	6
569.128	1	-3
569.297	1	2
569.467	1	2
569.637	1	16
569.807	1	8
569.977	1	12
570.147	1	10
570.317	1	9
570.487	1	1
570.656	1	4
570.826	1	7
570.996	1	4
571.166	1	7
571.336	1	9
571.506	1	5
571.676	1	2
571.846	1	4
572.015	1	-1
572.185	1	7
572.355	1	12
572.525	1	13
572.695	1	3
572.865	1	10
573.035	1	24
573.205	1	4
573.374	1	9
573.544	1	6
573.714	1	9
573.884	1	7
574.054	1	20
574.224	1	14
574.394	1	2
574.563	1	6
574.733	1	4
574.903	1	12
575.073	1	8
575.243	1	9
575.413	1	15
575.583	1	6
575.752	1	11
575.922	1	15
576.092	1	10
576.262	1	7
576.432	1	14
576.602	1	4
576.772	1	10
576.941	1	-8
577.111	1	15
577.281	1	-4
577.451	1	13
577.621	1	0
577.791	1	11
577.960	1	3
578.130	1	7
578.300	1	3
578.470	1	5
578.640	1	6
578.810	1	2
578.979	1	4
579.149	1	6
579.319	1	7
579.489	1	16
579.659	1	14
579.829	1	9
579.998	1	6
580.168	1	7
580.338	1	8
580.508	1	14
580.678	1	4
580.848	1	4
581.017	1	6
581.187	1	1
581.357	1	14
581.527	1	3
581.697	1	8
581.867	1	9
582.036	1	18
582.206	1	11
582.376	1	7
582.546	1	-2
582.716	1	6
582.885	1	0
583.055	1	7
583.225	1	23
583.395	1	7
583.565	1	-2
583.735	1	11
583.904	1	12
584.074	1	11
584.244	1	13
584.414	1	1
584.584	1	12
584.753	1	10
584.923	1	13
585.093	1	5
585.263	1	12
585.433	1	4
585.602	1	12
585.772	1	7
585.942	1	6
586.112	1	8
586.282	1	9
586.451	1	6
586.621	1	7
586.791	1	11
586.961	1	-3
587.131	1	9
587.300	1	1
587.470	1	11
587.640	1	11
587.810	1	9
587.980	1	3
588.149	1	0
588.319	1	6
588.489	1	2
588.659	1	18
588.829	1	10
588.998	1	16
589.168	1	8
589.338	1	12
589.508	1	0
589.677	1	-1
589.847	1	8
590.017	1	5
590.187	1	8
590.357	1	0
590.526	1	1
590.696	1	12
590.866	1	10
591.036	1	11
591.205	1	1
591.375	1	-8
591.545	1	20
591.715	1	2
591.885	1	13
592.054	1	2
592.224	1	15
592.394	1	8
592.564	1	8
592.733	1	17
592.903	1	9
593.073	1	13
593.243	1	7
593.412	1	12
593.582	1	4
593.752	1	-4
593.922	1	-1
594.091	1	2
594.261	1	17
594.431	1	19
594.601	1	1
594.771	1	3
594.940	1	0
595.110	1	2
595.280	1	-1
595.450	1	12
595.619	1	6
595.789	1	-8
595.959	1	0
596.129	1	15
596.298	1	15
596.468	1	6
596.638	1	3
596.808	1	3
596.977	1	16
597.147	1	16
597.317	1	-2
597.487	1	3
597.656	1	5
597.826	1	3
597.996	1	15
598.166	1	5
598.335	1	10
598.505	1	-2
598.675	1	6
598.844	1	5
599.014	1	3
599.184	1	5
599.354	1	16
599.523	1	12
599.693	1	6
599.863	1	7
600.033	1	2
600.202	1	3
600.372	1	2
600.542	1	7
600.712	1	11
600.881	1	9
601.051	1	3
601.221	1	17
601.390	1	12
601.560	1	11
601.730	1	7
601.900	1	8
602.069	1	5
602.239	1	22
602.409	1	3
602.578	1	5
602.748	1	16
602.918	1	14
603.088	1	19
603.257	1	7
603.427	1	13
603.597	1	12
603.767	1	8
603.936	1	-11
604.106	1	7
604.276	1	6
604.445	1	9
604.615	1	2
604.785	1	15
604.954	1	6
605.124	1	13
605.294	1	8
605.464	1	18
605.633	1	16
605.803	1	10
605.973	1	14
606.142	1	13
606.312	1	12
606.482	1	8
606.652	1	13
606.821	1	7
606.991	1	9
607.161	1	10
607.330	1	1
607.500	1	1
607.670	1	5
607.839	1	2
608.009	1	7
608.179	1	9
608.348	1	16
608.518	1	15
608.688	1	27
608.858	1	8
609.027	1	14
609.197	1	-9
609.367	1	6
609.536	1	2
609.706	1	10
609.876	1	19
610.045	1	6
610.215	1	12
610.385	1	16
610.554	1	19
610.724	1	12
610.894	1	-2
611.063	1	3
611.233	1	8
611.403	1	10
611.572	1	4
611.742	1	3
611.912	1	5
612.081	1	22
612.251	1	10
612.421	1	12
612.590	1	5
612.760	1	12
612.930	1	0
613.099	1	16
613.269	1	0
613.439	1	6
613.608	1	0
613.778	1	8
613.948	1	11
614.117	1	12
614.287	1	21
614.457	1	1
614.626	1	7
614.796	1	20
614.966	1	17
615.135	1	13
615.305	1	14
615.475	1	9
615.644	1	5
615.814	1	11
615.984	1	22
616.153	1	9
616.323	1	11
616.493	1	9
616.662	1	12
616.832	1	9
617.002	1	3
617.171	1	4
617.341	1	2
617.511	1	-1
617.680	1	15
617.850	1	13
618.019	1	17
618.189	1	2
618.359	1	9
618.528	1	8
618.698	1	1
618.868	1	-5
619.037	1	7
619.207	1	5
619.377	1	6
619.546	1	4
619.716	1	5
619.885	1	15
620.055	1	0
620.225	1	19
620.394	1	10
620.564	1	16
620.734	1	10
620.903	1	14
621.073	1	13
621.242	1	8
621.412	1	8
621.582	1	18
621.751	1	13
621.921	1	13
622.091	1	7
622.260	1	14
622.430	1	18
622.599	1	14
622.769	1	1
622.939	1	3
623.108	1	15
623.278	1	4
623.448	1	11
623.617	1	7
623.787	1	11
623.956	1	13
624.126	1	4
624.296	1	7
624.465	1	-1
624.635	1	24
624.804	1	7
624.974	1	10
625.144	1	16
625.313	1	24
625.483	1	18
625.652	1	7
625.822	1	5
625.992	1	11
626.161	1	12
626.331	1	21
626.501	1	16
626.670	1	-2
626.840	1	10
627.009	1	11
627.179	1	16
627.348	1	13
627.518	1	9
627.688	1	1
627.857	1	17
628.027	1	3
628.196	1	-2
628.366	1	7
628.536	1	17
628.705	1	10
628.875	1	18
629.044	1	15
629.214	1	7
629.384	1	9
629.553	1	13
629.723	1	7
629.892	1	20
630.062	1	9
630.232	1	8
630.401	1	12
630.571	1	22
630.740	1	8
630.910	1	16
631.079	1	10
631.249	1	11
631.419	1	-4
631.588	1	12
631.758	1	7
631.927	1	12
632.097	1	7
632.266	1	6
632.436	1	15
632.606	1	14
632.775	1	19
632.945	1	12
633.114	1	7
633.284	1	12
633.453	1	-8
633.623	1	3
633.793	1	14
633.962	1	9
634.132	1	4
634.301	1	4
634.471	1	-1
634.640	1	9
634.810	1	14
634.979	1	20
635.149	1	13
635.319	1	10
635.488	1	16
635.658	1	13
635.827	1	10
635.997	1	11
636.166	1	13
636.336	1	9
636.505	1	24
636.675	1	6
636.845	1	12
637.014	1	16
637.184	1	9
637.353	1	9
637.523	1	22
637.692	1	8
637.862	1	6
638.031	1	7
638.201	1	18
638.370	1	15
638.540	1	7
638.710	1	5
638.879	1	7
639.049	1	16
639.218	1	8
639.388	1	10
639.557	1	20
639.727	1	15
639.896	1	16
640.066	1	17
640.235	1	11
640.405	1	18
640.574	1	16
640.744	1	13
640.914	1	6
641.083	1	16
641.253	1	14
641.422	1	8
641.592	1	14
641.761	1	12
641.931	1	22
642.100	1	1
642.270	1	-1
642.439	1	12
642.609	1	10
642.778	1	-3
642.948	1	20
643.117	1	3
643.287	1	19
643.456	1	8
643.626	1	12
643.795	1	-2
643.965	1	5
644.134	1	11
644.304	1	14
644.473	1	11
644.643	1	12
644.812	1	10
644.982	1	13
645.151	1	7
645.321	1	18
645.490	1	10
645.660	1	-3
645.829	1	10
645.999	1	9
646.168	1	5
646.338	1	6
646.507	1	6
646.677	1	-5
646.846	1	8
647.016	1	16
647.185	1	19
647.355	1	12
647.524	1	8
647.694	1	16
647.863	1	3
648.033	1	14
648.202	1	6
648.372	1	16
648.541	1	10
648.711	1	6
648.880	1	8
649.050	1	19
649.219	1	13
649.389	1	-8
649.558	1	13
649.728	1	3
649.897	1	10
650.067	1	0
650.236	1	7
650.406	1	21
650.575	1	13
650.745	1	7
650.914	1	22
651.084	1	6
651.253	1	2
651.423	1	21
651.592	1	15
651.762	1	10
651.931	1	16
652.101	1	14
652.270	1	19
652.440	1	2
652.609	1	17
652.778	1	0
652.948	1	18
653.117	1	22
653.287	1	8
653.456	1	9
653.626	1	9
653.795	1	7
653.965	1	5
654.134	1	1
654.304	1	11
654.473	1	17
654.643	1	7
654.812	1	4
654.982	1	9
655.151	1	13
655.320	1	9
655.490	1	6
655.659	1	11
655.829	1	11
655.998	1	14
656.168	1	-3
656.337	1	8
656.507	1	11
656.676	1	6
656.846	1	8
657.015	1	7
657.184	1	8
657.354	1	11
657.523	1	13
657.693	1	10
657.862	1	15
658.032	1	10
658.201	1	23
658.371	1	17
658.540	1	10
658.709	1	1
658.879	1	12
659.048	1	16
659.218	1	6
659.387	1	1
659.557	1	-1
659.726	1	7
659.895	1	-2
660.065	1	15
660.234	1	10
660.404	1	22
660.573	1	10
660.743	1	6
660.912	1	7
661.081	1	24
661.251	1	14
661.420	1	5
661.590	1	12
661.759	1	11
661.929	1	7
662.098	1	15
662.267	1	17
662.437	1	5
662.606	1	14
662.776	1	0
662.945	1	15
663.115	1	7
663.284	1	7
663.453	1	0
663.623	1	7
663.792	1	14
663.962	1	5
664.131	1	10
664.300	1	0
664.470	1	6
664.639	1	21
664.809	1	15
664.978	1	4
665.148	1	14
665.317	1	18
665.486	1	6
665.656	1	19
665.825	1	8
665.995	1	-6
666.164	1	18
666.333	1	3
666.503	1	6
666.672	1	6
666.842	1	9
667.011	1	10
667.180	1	8
667.350	1	14
667.519	1	5
667.689	1	6
667.858	1	10
668.027	1	4
668.197	1	8
668.366	1	15
668.536	1	6
668.705	1	16
668.874	1	7
669.044	1	1
669.213	1	9
669.382	1	4
669.552	1	4
669.721	1	11
669.891	1	10
670.060	1	17
670.229	1	8
670.399	1	11
670.568	1	-4
670.738	1	12
670.907	1	15
671.076	1	16
671.246	1	8
671.415	1	7
671.584	1	9
671.754	1	10
671.923	1	13
672.093	1	6
672.262	1	4
672.431	1	11
672.601	1	4
672.770	1	8
672.939	1	8
673.109	1	9
673.278	1	11
673.448	1	21
673.617	1	0
673.786	1	0
