325.333	1	20
325.504	1	20
325.675	1	14
325.846	1	0
326.017	1	16
326.188	1	12
326.359	1	7
326.531	1	11
326.702	1	9
326.873	1	2
327.044	1	9
327.215	1	3
327.386	1	12
327.557	1	8
327.728	1	9
327.899	1	7
328.070	1	18
328.241	1	6
328.412	1	7
328.583	1	4
328.754	1	6
328.926	1	15
329.097	1	6
329.268	1	15
329.439	1	4
329.610	1	13
329.781	1	2
329.952	1	16
330.123	1	3
330.294	1	24
330.465	1	12
330.636	1	16
330.807	1	16
330.978	1	14
331.149	1	-1
331.320	1	18
331.492	1	11
331.663	1	3
331.834	1	12
332.005	1	15
332.176	1	7
332.347	1	8
332.518	1	9
332.689	1	14
332.860	1	0
333.031	1	-1
333.202	1	3
333.373	1	13
333.544	1	6
333.715	1	-2
333.886	1	16
334.057	1	15
334.228	1	3
334.399	1	-4
334.570	1	11
334.741	1	7
334.912	1	9
335.084	1	3
335.255	1	6
335.426	1	16
335.597	1	3
335.768	1	12
335.939	1	11
336.110	1	5
336.281	1	0
336.452	1	14
336.623	1	8
336.794	1	14
336.965	1	20
337.136	1	10
337.307	1	13
337.478	1	0
337.649	1	21
337.820	1	5
337.991	1	15
338.162	1	10
338.333	1	3
338.504	1	17
338.675	1	13
338.846	1	5
339.017	1	6
339.188	1	14
339.359	1	7
339.530	1	5
339.701	1	12
339.872	1	16
340.043	1	8
340.214	1	6
340.385	1	0
340.556	1	9
340.727	1	21
340.898	1	9
341.069	1	5
341.240	1	3
341.411	1	20
341.582	1	7
341.753	1	12
341.924	1	14
342.095	1	12
342.266	1	8
342.437	1	11
342.608	1	12
342.779	1	8
342.950	1	13
343.121	1	17
343.292	1	7
343.463	1	7
343.634	1	3
343.805	1	15
343.976	1	18
344.147	1	-1
344.318	1	13
344.489	1	4
344.660	1	26
344.831	1	-3
345.002	1	14
345.173	1	3
345.344	1	8
345.515	1	1
345.686	1	16
345.857	1	7
346.028	1	5
346.199	1	14
346.370	1	20
346.541	1	8
346.712	1	7
346.883	1	18
347.054	1	5
347.225	1	18
347.396	1	3
347.567	1	22
347.738	1	9
347.909	1	11
348.080	1	8
348.251	1	9
348.422	1	-5
348.593	1	1
348.764	1	17
348.935	1	5
349.106	1	6
349.277	1	22
349.448	1	9
349.619	1	10
349.790	1	22
349.961	1	9
350.132	1	7
350.303	1	6
350.474	1	-1
350.645	1	19
350.816	1	7
350.987	1	5
351.157	1	12
351.328	1	4
351.499	1	16
351.670	1	8
351.841	1	11
352.012	1	16
352.183	1	5
352.354	1	8
352.525	1	18
352.696	1	7
352.867	1	2
353.038	1	9
353.209	1	22
353.380	1	15
353.551	1	2
353.722	1	1
353.893	1	8
354.064	1	20
354.235	1	-1
354.406	1	12
354.576	1	5
354.747	1	10
354.918	1	20
355.089	1	12
355.260	1	12
355.431	1	-1
355.602	1	5
355.773	1	5
355.944	1	9
356.115	1	3
356.286	1	6
356.457	1	12
356.628	1	4
356.799	1	5
356.970	1	4
357.141	1	11
357.311	1	8
357.482	1	13
357.653	1	5
357.824	1	7
357.995	1	9
358.166	1	0
358.337	1	16
358.508	1	14
358.679	1	2
358.850	1	16
359.021	1	12
359.192	1	10
359.363	1	10
359.533	1	5
359.704	1	22
359.875	1	8
360.046	1	11
360.217	1	9
360.388	1	6
360.559	1	9
360.730	1	3
360.901	1	13
361.072	1	5
361.243	1	5
361.414	1	6
361.584	1	12
361.755	1	2
361.926	1	6
362.097	1	6
362.268	1	15
362.439	1	7
362.610	1	12
362.781	1	6
362.952	1	4
363.123	1	4
363.293	1	15
363.464	1	15
363.635	1	13
363.806	1	20
363.977	1	7
364.148	1	5
364.319	1	14
364.490	1	12
364.661	1	2
364.832	1	8
365.002	1	-1
365.173	1	10
365.344	1	-2
365.515	1	12
365.686	1	16
365.857	1	12
366.028	1	3
366.199	1	2
366.370	1	4
366.540	1	8
366.711	1	10
366.882	1	19
367.053	1	16
367.224	1	2
367.395	1	9
367.566	1	9
367.737	1	14
367.908	1	0
368.078	1	-2
368.249	1	8
368.420	1	18
368.591	1	0
368.762	1	11
368.933	1	13
369.104	1	3
369.274	1	8
369.445	1	4
369.616	1	10
369.787	1	25
369.958	1	7
370.129	1	11
370.300	1	5
370.471	1	14
370.641	1	14
370.812	1	4
370.983	1	8
371.154	1	22
371.325	1	11
371.496	1	10
371.667	1	11
371.837	1	10
372.008	1	13
372.179	1	8
372.350	1	2
372.521	1	6
372.692	1	6
372.863	1	7
373.033	1	16
373.204	1	16
373.375	1	11
373.546	1	5
373.717	1	7
373.888	1	7
374.059	1	12
374.229	1	13
374.400	1	11
374.571	1	9
374.742	1	13
374.913	1	-2
375.084	1	8
375.254	1	11
375.425	1	20
375.596	1	8
375.767	1	18
375.938	1	-5
376.109	1	3
376.279	1	5
376.450	1	18
376.621	1	15
376.792	1	2
376.963	1	7
377.134	1	3
377.304	1	6
377.475	1	14
377.646	1	7
377.817	1	9
377.988	1	12
378.159	1	8
378.329	1	15
378.500	1	-2
378.671	1	5
378.842	1	17
379.013	1	16
379.184	1	9
379.354	1	13
379.525	1	18
379.696	1	11
379.867	1	27
380.038	1	19
380.209	1	4
380.379	1	7
380.550	1	2
380.721	1	25
380.892	1	10
381.063	1	2
381.233	1	14
381.404	1	17
381.575	1	9
381.746	1	9
381.917	1	22
382.087	1	16
382.258	1	17
382.429	1	16
382.600	1	14
382.771	1	13
382.941	1	16
383.112	1	5
383.283	1	4
383.454	1	3
383.625	1	16
383.795	1	18
383.966	1	15
384.137	1	18
384.308	1	30
384.479	1	17
384.649	1	9
384.820	1	5
384.991	1	27
385.162	1	13
385.333	1	6
385.503	1	6
385.674	1	18
385.845	1	6
386.016	1	25
386.187	1	14
386.357	1	13
386.528	1	19
386.699	1	1
386.870	1	9
387.041	1	14
387.211	1	14
387.382	1	18
387.553	1	17
387.724	1	3
387.894	1	5
388.065	1	20
388.236	1	13
388.407	1	16
388.578	1	9
388.748	1	20
388.919	1	4
389.090	1	19
389.261	1	10
389.431	1	20
389.602	1	16
389.773	1	7
389.944	1	15
390.114	1	17
390.285	1	15
390.456	1	16
390.627	1	26
390.798	1	16
390.968	1	27
391.139	1	8
391.310	1	11
391.481	1	11
391.651	1	14
391.822	1	13
391.993	1	12
392.164	1	15
392.334	1	4
392.505	1	15
392.676	1	20
392.847	1	16
393.017	1	20
393.188	1	18
393.359	1	23
393.530	1	14
393.700	1	19
393.871	1	11
394.042	1	15
394.213	1	17
394.383	1	13
394.554	1	18
394.725	1	29
394.896	1	13
395.066	1	11
395.237	1	10
395.408	1	16
395.579	1	10
395.749	1	19
395.920	1	10
396.091	1	22
396.262	1	7
396.432	1	17
396.603	1	13
396.774	1	14
396.945	1	7
397.115	1	16
397.286	1	8
397.457	1	23
397.627	1	15
397.798	1	15
397.969	1	22
398.140	1	11
398.310	1	17
398.481	1	12
398.652	1	12
398.823	1	22
398.993	1	24
399.164	1	13
399.335	1	16
399.505	1	16
399.676	1	14
399.847	1	24
400.018	1	22
400.188	1	13
400.359	1	3
400.530	1	32
400.700	1	23
400.871	1	37
401.042	1	17
401.213	1	27
401.383	1	26
401.554	1	34
401.725	1	30
401.895	1	12
402.066	1	25
402.237	1	36
402.408	1	21
402.578	1	30
402.749	1	23
402.920	1	12
403.090	1	15
403.261	1	13
403.432	1	12
403.603	1	21
403.773	1	30
403.944	1	22
404.115	1	24
404.285	1	24
404.456	1	29
404.627	1	18
404.797	1	17
404.968	1	31
405.139	1	17
405.310	1	19
405.480	1	24
405.651	1	22
405.822	1	19
405.992	1	18
406.163	1	13
406.334	1	32
406.504	1	13
406.675	1	17
406.846	1	27
407.016	1	30
407.187	1	18
407.358	1	22
407.528	1	25
407.699	1	15
407.870	1	19
408.041	1	36
408.211	1	25
408.382	1	8
408.553	1	29
408.723	1	20
408.894	1	19
409.065	1	34
409.235	1	11
409.406	1	35
409.577	1	34
409.747	1	18
409.918	1	28
410.089	1	32
410.259	1	13
410.430	1	29
410.601	1	31
410.771	1	28
410.942	1	19
411.113	1	34
411.283	1	23
411.454	1	22
411.625	1	18
411.795	1	31
411.966	1	28
412.137	1	45
412.307	1	15
412.478	1	24
412.649	1	26
412.819	1	30
412.990	1	33
413.161	1	24
413.331	1	25
413.502	1	34
413.672	1	13
413.843	1	21
414.014	1	23
414.184	1	28
414.355	1	34
414.526	1	35
414.696	1	37
414.867	1	38
415.038	1	24
415.208	1	12
415.379	1	21
415.550	1	27
415.720	1	19
415.891	1	27
416.062	1	21
416.232	1	24
416.403	1	22
416.573	1	29
416.744	1	24
416.915	1	26
417.085	1	30
417.256	1	18
417.427	1	29
417.597	1	30
417.768	1	17
417.939	1	35
418.109	1	37
418.280	1	32
418.450	1	36
418.621	1	21
418.792	1	30
418.962	1	31
419.133	1	18
419.304	1	36
419.474	1	26
419.645	1	23
419.815	1	33
419.986	1	31
420.157	1	20
420.327	1	24
420.498	1	20
420.669	1	15
420.839	1	29
421.010	1	21
421.180	1	20
421.351	1	19
421.522	1	20
421.692	1	23
421.863	1	30
422.033	1	23
422.204	1	17
422.375	1	41
422.545	1	20
422.716	1	27
422.886	1	33
423.057	1	32
423.228	1	23
423.398	1	37
423.569	1	23
423.740	1	22
423.910	1	29
424.081	1	26
424.251	1	24
424.422	1	30
424.593	1	29
424.763	1	39
424.934	1	34
425.104	1	38
425.275	1	32
425.445	1	22
425.616	1	33
425.787	1	34
425.957	1	24
426.128	1	31
426.298	1	23
426.469	1	28
426.640	1	18
426.810	1	33
426.981	1	20
427.151	1	24
427.322	1	24
427.493	1	19
427.663	1	22
427.834	1	15
428.004	1	32
428.175	1	18
428.345	1	39
428.516	1	37
428.687	1	19
428.857	1	19
429.028	1	24
429.198	1	13
429.369	1	23
429.540	1	17
429.710	1	23
429.881	1	16
430.051	1	25
430.222	1	31
430.392	1	32
430.563	1	26
430.734	1	35
430.904	1	31
431.075	1	26
431.245	1	22
431.416	1	15
431.586	1	19
431.757	1	31
431.927	1	32
432.098	1	16
432.269	1	35
432.439	1	24
432.610	1	22
432.780	1	21
432.951	1	19
433.121	1	19
433.292	1	26
433.462	1	25
433.633	1	34
433.804	1	34
433.974	1	20
434.145	1	26
434.315	1	27
434.486	1	26
434.656	1	34
434.827	1	23
434.997	1	27
435.168	1	22
435.339	1	27
435.509	1	41
435.680	1	29
435.850	1	19
436.021	1	37
436.191	1	36
436.362	1	26
436.532	1	16
436.703	1	40
436.873	1	16
437.044	1	32
437.214	1	25
437.385	1	30
437.556	1	37
437.726	1	24
437.897	1	26
438.067	1	20
438.238	1	23
438.408	1	30
438.579	1	22
438.749	1	22
438.920	1	28
439.090	1	40
439.261	1	17
439.431	1	21
439.602	1	25
439.772	1	18
439.943	1	25
440.113	1	18
440.284	1	22
440.455	1	27
440.625	1	24
440.796	1	24
440.966	1	28
441.137	1	14
441.307	1	28
441.478	1	16
441.648	1	23
441.819	1	14
441.989	1	18
442.160	1	21
442.330	1	27
442.501	1	16
442.671	1	33
442.842	1	23
443.012	1	22
443.183	1	36
443.353	1	12
443.524	1	28
443.694	1	32
443.865	1	15
444.035	1	28
444.206	1	22
444.376	1	20
444.547	1	16
444.717	1	34
444.888	1	29
445.058	1	27
445.229	1	23
445.399	1	21
445.570	1	23
445.740	1	16
445.911	1	6
446.081	1	9
446.252	1	20
446.422	1	11
446.593	1	26
446.763	1	24
446.934	1	10
447.104	1	25
447.275	1	22
447.445	1	26
447.616	1	33
447.786	1	17
447.957	1	15
448.127	1	29
448.298	1	14
448.468	1	21
448.639	1	31
448.809	1	27
448.979	1	17
449.150	1	18
449.320	1	27
449.491	1	27
449.661	1	18
449.832	1	19
450.002	1	22
450.173	1	19
450.343	1	14
450.514	1	28
450.684	1	34
450.855	1	26
451.025	1	34
451.196	1	35
451.366	1	14
451.537	1	18
451.707	1	24
451.878	1	16
452.048	1	12
452.218	1	18
452.389	1	35
452.559	1	25
452.730	1	20
452.900	1	25
453.071	1	21
453.241	1	20
453.412	1	30
453.582	1	8
453.753	1	15
453.923	1	17
454.093	1	8
454.264	1	29
454.434	1	16
454.605	1	18
454.775	1	21
454.946	1	21
455.116	1	18
455.287	1	24
455.457	1	12
455.628	1	11
455.798	1	11
455.968	1	11
456.139	1	14
456.309	1	13
456.480	1	11
456.650	1	21
456.821	1	15
456.991	1	16
457.161	1	25
457.332	1	15
457.502	1	36
457.673	1	15
457.843	1	18
458.014	1	12
458.184	1	16
458.355	1	23
458.525	1	26
458.695	1	16
458.866	1	5
459.036	1	15
459.207	1	18
459.377	1	21
459.548	1	7
459.718	1	11
459.888	1	13
460.059	1	10
460.229	1	20
460.400	1	22
460.570	1	13
460.740	1	15
460.911	1	34
461.081	1	19
461.252	1	16
461.422	1	4
461.593	1	16
461.763	1	19
461.933	1	14
462.104	1	24
462.274	1	13
462.445	1	14
462.615	1	19
462.785	1	11
462.956	1	17
463.126	1	14
463.297	1	16
463.467	1	15
463.638	1	11
463.808	1	27
463.978	1	8
464.149	1	22
464.319	1	20
464.490	1	14
464.660	1	1
464.830	1	14
465.001	1	11
465.171	1	16
465.342	1	9
465.512	1	11
465.682	1	20
465.853	1	16
466.023	1	17
466.194	1	19
466.364	1	10
466.534	1	2
466.705	1	17
466.875	1	17
467.045	1	12
467.216	1	26
467.386	1	14
467.557	1	12
467.727	1	7
467.897	1	16
468.068	1	14
468.238	1	2
468.409	1	12
468.579	1	16
468.749	1	29
468.920	1	13
469.090	1	5
469.260	1	12
469.431	1	21
469.601	1	13
469.772	1	8
469.942	1	10
470.112	1	8
470.283	1	16
470.453	1	5
470.623	1	12
470.794	1	-5
470.964	1	10
471.135	1	14
471.305	1	13
471.475	1	19
471.646	1	13
471.816	1	18
471.986	1	16
472.157	1	13
472.327	1	5
472.497	1	8
472.668	1	1
472.838	1	16
473.009	1	22
473.179	1	10
473.349	1	17
473.520	1	16
473.690	1	18
473.860	1	11
474.031	1	19
474.201	1	5
474.371	1	10
474.542	1	7
474.712	1	20
474.882	1	21
475.053	1	9
475.223	1	24
475.394	1	1
475.564	1	21
475.734	1	14
475.905	1	10
476.075	1	11
476.245	1	4
476.416	1	13
476.586	1	15
476.756	1	11
476.927	1	8
477.097	1	4
477.267	1	17
477.438	1	9
477.608	1	5
477.778	1	16
477.949	1	8
478.119	1	17
478.289	1	5
478.460	1	8
478.630	1	14
478.800	1	9
478.971	1	2
479.141	1	10
479.311	1	27
479.482	1	6
479.652	1	9
479.822	1	15
479.993	1	11
480.163	1	2
480.333	1	18
480.504	1	15
480.674	1	8
480.844	1	17
481.015	1	11
481.185	1	12
481.355	1	11
481.525	1	10
481.696	1	12
481.866	1	15
482.036	1	11
482.207	1	15
482.377	1	4
482.547	1	11
482.718	1	16
482.888	1	14
483.058	1	10
483.229	1	11
483.399	1	6
483.569	1	14
483.740	1	9
483.910	1	15
484.080	1	18
484.250	1	19
484.421	1	10
484.591	1	18
484.761	1	14
484.932	1	5
485.102	1	17
485.272	1	8
485.443	1	17
485.613	1	14
485.783	1	-2
485.953	1	6
486.124	1	3
486.294	1	23
486.464	1	14
486.635	1	16
486.805	1	12
486.975	1	15
487.146	1	6
487.316	1	14
487.486	1	8
487.656	1	19
487.827	1	13
487.997	1	11
488.167	1	15
488.338	1	17
488.508	1	10
488.678	1	21
488.848	1	13
489.019	1	14
489.189	1	11
489.359	1	5
489.529	1	14
489.700	1	4
489.870	1	5
490.040	1	15
490.211	1	28
490.381	1	18
490.551	1	6
490.721	1	5
490.892	1	-4
491.062	1	9
491.232	1	13
491.402	1	14
491.573	1	13
491.743	1	9
491.913	1	11
492.084	1	3
492.254	1	18
492.424	1	14
492.594	1	11
492.765	1	2
492.935	1	16
493.105	1	12
493.275	1	12
493.446	1	5
493.616	1	9
493.786	1	9
493.956	1	24
494.127	1	7
494.297	1	12
494.467	1	4
494.637	1	5
494.808	1	12
494.978	1	11
495.148	1	-7
495.318	1	15
495.489	1	9
495.659	1	12
495.829	1	8
495.999	1	11
496.170	1	-3
496.340	1	8
496.510	1	12
496.680	1	14
496.851	1	8
497.021	1	4
497.191	1	15
497.361	1	5
497.532	1	6
497.702	1	5
497.872	1	7
498.042	1	11
498.213	1	11
498.383	1	14
498.553	1	6
498.723	1	-2
498.894	1	14
499.064	1	6
499.234	1	17
499.404	1	4
499.574	1	12
499.745	1	14
499.915	1	8
500.085	1	12
500.255	1	9
500.426	1	4
500.596	1	9
500.766	1	10
500.936	1	17
501.106	1	-4
501.277	1	6
501.447	1	1
501.617	1	11
501.787	1	12
501.958	1	-1
502.128	1	7
502.298	1	8
502.468	1	10
502.638	1	10
502.809	1	13
502.979	1	12
503.149	1	7
503.319	1	13
503.489	1	12
503.660	1	6
503.830	1	2
504.000	1	10
504.170	1	14
504.340	1	10
504.511	1	-5
504.681	1	7
504.851	1	10
505.021	1	5
505.192	1	10
505.362	1	15
505.532	1	7
505.702	1	15
505.872	1	20
506.043	1	9
506.213	1	0
506.383	1	8
506.553	1	7
506.723	1	9
506.893	1	4
507.064	1	2
507.234	1	6
507.404	1	7
507.574	1	2
507.744	1	6
507.915	1	2
508.085	1	18
508.255	1	-3
508.425	1	5
508.595	1	10
508.766	1	-3
508.936	1	6
509.106	1	-2
509.276	1	15
509.446	1	3
509.616	1	7
509.787	1	11
509.957	1	15
510.127	1	6
510.297	1	9
510.467	1	7
510.638	1	4
510.808	1	-2
510.978	1	4
511.148	1	14
511.318	1	10
511.488	1	11
511.659	1	3
511.829	1	7
511.999	1	6
512.169	1	12
512.339	1	5
512.509	1	-1
512.680	1	9
512.850	1	-5
513.020	1	5
513.190	1	7
513.360	1	10
513.530	1	11
513.700	1	12
513.871	1	16
514.041	1	5
514.211	1	5
514.381	1	11
514.551	1	10
514.721	1	9
514.892	1	-1
515.062	1	14
515.232	1	4
515.402	1	13
515.572	1	17
515.742	1	5
515.912	1	6
516.083	1	4
516.253	1	-11
516.423	1	7
516.593	1	4
516.763	1	8
516.933	1	1
517.104	1	-8
517.274	1	9
517.444	1	2
517.614	1	1
517.784	1	5
517.954	1	11
518.124	1	17
518.294	1	9
518.465	1	1
518.635	1	8
518.805	1	-1
518.975	1	13
519.145	1	6
519.315	1	9
519.485	1	11
519.656	1	4
519.826	1	3
519.996	1	4
520.166	1	7
520.336	1	3
520.506	1	4
520.676	1	0
520.846	1	15
521.017	1	10
521.187	1	5
521.357	1	3
521.527	1	4
521.697	1	2
521.867	1	-7
522.037	1	11
522.207	1	2
522.377	1	7
522.548	1	5
522.718	1	16
522.888	1	12
523.058	1	13
523.228	1	3
523.398	1	4
523.568	1	1
523.738	1	4
523.909	1	6
524.079	1	7
524.249	1	8
524.419	1	0
524.589	1	10
524.759	1	5
524.929	1	8
525.099	1	3
525.269	1	0
525.439	1	-4
525.610	1	7
525.780	1	-5
525.950	1	1
526.120	1	5
526.290	1	12
526.460	1	6
526.630	1	9
526.800	1	-3
526.970	1	-7
527.140	1	5
527.311	1	8
527.481	1	10
527.651	1	13
527.821	1	1
527.991	1	7
528.161	1	8
528.331	1	4
528.501	1	1
528.671	1	7
528.841	1	5
529.011	1	-1
529.181	1	10
529.352	1	1
529.522	1	2
529.692	1	-2
529.862	1	-4
530.032	1	14
530.202	1	2
530.372	1	3
530.542	1	4
530.712	1	-3
530.882	1	-4
531.052	1	8
531.222	1	1
531.392	1	7
531.563	1	4
531.733	1	14
531.903	1	6
532.073	1	1
532.243	1	10
532.413	1	4
532.583	1	0
532.753	1	9
532.923	1	-3
533.093	1	4
533.263	1	4
533.433	1	7
533.603	1	10
533.773	1	9
533.943	1	1
534.113	1	7
534.284	1	1
534.454	1	3
534.624	1	0
534.794	1	6
534.964	1	10
535.134	1	0
535.304	1	0
535.474	1	9
535.644	1	0
535.814	1	0
535.984	1	0
536.154	1	4
536.324	1	2
536.494	1	-1
536.664	1	12
536.834	1	3
537.004	1	-1
537.174	1	-8
537.344	1	16
537.514	1	4
537.685	1	12
537.855	1	-2
538.025	1	-1
538.195	1	5
538.365	1	12
538.535	1	6
538.705	1	2
538.875	1	8
539.045	1	-4
539.215	1	14
539.385	1	9
539.555	1	5
539.725	1	-6
539.895	1	11
540.065	1	2
540.235	1	2
540.405	1	7
540.575	1	5
540.745	1	6
540.915	1	10
541.085	1	-3
541.255	1	10
541.425	1	0
541.595	1	-5
541.765	1	-3
541.935	1	15
542.105	1	6
542.275	1	-5
542.445	1	4
542.615	1	2
542.785	1	-6
542.955	1	8
543.125	1	14
543.295	1	0
543.465	1	1
543.635	1	-3
543.805	1	5
543.975	1	2
544.145	1	2
544.315	1	5
544.485	1	-1
544.655	1	-1
544.825	1	8
544.995	1	10
545.165	1	1
545.335	1	3
545.505	1	13
545.675	1	10
545.845	1	14
546.015	1	4
546.185	1	13
546.355	1	7
546.525	1	-2
546.695	1	13
546.865	1	6
547.035	1	2
547.205	1	9
547.375	1	7
547.545	1	1
547.715	1	-11
547.885	1	2
548.055	1	10
548.225	1	4
548.395	1	1
548.565	1	11
548.735	1	-1
548.905	1	11
549.075	1	3
549.245	1	5
549.415	1	3
549.585	1	11
549.755	1	9
549.925	1	16
550.095	1	3
550.265	1	10
550.435	1	14
550.605	1	0
550.775	1	3
550.945	1	1
551.115	1	4
551.285	1	3
551.455	1	13
551.625	1	11
551.795	1	10
551.965	1	4
552.135	1	11
552.305	1	9
552.475	1	-6
552.645	1	8
552.815	1	-9
552.985	1	-16
553.155	1	10
553.325	1	-3
553.495	1	13
553.665	1	9
553.835	1	13
554.004	1	7
554.174	1	-5
554.344	1	10
554.514	1	5
554.684	1	1
554.854	1	4
555.024	1	-3
555.194	1	12
555.364	1	6
555.534	1	3
555.704	1	7
555.874	1	6
556.044	1	5
556.214	1	2
556.384	1	1
556.554	1	-2
556.724	1	5
556.894	1	2
557.064	1	1
557.234	1	8
557.404	1	-3
557.573	1	2
557.743	1	-4
557.913	1	3
558.083	1	6
558.253	1	1
558.423	1	17
558.593	1	11
558.763	1	15
558.933	1	8
559.103	1	4
559.273	1	0
559.443	1	-2
559.613	1	-8
559.783	1	4
559.953	1	-4
560.122	1	4
560.292	1	-6
560.462	1	0
560.632	1	11
560.802	1	3
560.972	1	-3
561.142	1	3
561.312	1	-2
561.482	1	11
561.652	1	6
561.822	1	10
561.992	1	5
562.162	1	7
562.331	1	-2
562.501	1	-7
562.671	1	9
562.841	1	8
563.011	1	-1
563.181	1	7
563.351	1	3
563.521	1	1
563.691	1	12
563.861	1	4
564.031	1	10
564.201	1	11
564.370	1	1
564.540	1	-1
564.710	1	2
564.880	1	0
565.050	1	9
565.220	1	5
565.390	1	-3
565.560	1	8
565.730	1	5
565.900	1	3
566.069	1	13
566.239	1	9
566.409	1	4
566.579	1	0
566.749	1	-4
566.919	1	-3
567.089	1	3
567.259	1	6
567.429	1	-2
567.599	1	0
567.768	1	0
567.938	1	7
568.108	1	7
568.278	1	6
568.448	1	3
568.618	1	14
568.788	1	8
568.958	1	-2
569.128	1	-3
569.297	1	9
569.467	1	-1
569.637	1	13
569.807	1	-1
569.977	1	15
570.147	1	6
570.317	1	6
570.487	1	-2
570.656	1	-3
570.826	1	-3
570.996	1	-8
571.166	1	8
571.336	1	8
571.506	1	-1
571.676	1	9
571.846	1	6
572.015	1	3
572.185	1	-3
572.355	1	-1
572.525	1	1
572.695	1	8
572.865	1	8
573.035	1	11
573.205	1	3
573.374	1	10
573.544	1	5
573.714	1	6
573.884	1	-1
574.054	1	9
574.224	1	4
574.394	1	-4
574.563	1	2
574.733	1	9
574.903	1	4
575.073	1	9
575.243	1	14
575.413	1	3
575.583	1	5
575.752	1	-1
575.922	1	7
576.092	1	6
576.262	1	-1
576.432	1	11
576.602	1	-2
576.772	1	2
576.941	1	-2
577.111	1	7
577.281	1	0
577.451	1	9
577.621	1	4
577.791	1	7
577.960	1	6
578.130	1	0
578.300	1	1
578.470	1	7
578.640	1	-7
578.810	1	-7
578.979	1	-2
579.149	1	6
579.319	1	8
579.489	1	0
579.659	1	9
579.829	1	9
579.998	1	11
580.168	1	9
580.338	1	-10
580.508	1	9
580.678	1	4
580.848	1	-1
581.017	1	-1
581.187	1	6
581.357	1	2
581.527	1	-4
581.697	1	0
581.867	1	9
582.036	1	7
582.206	1	1
582.376	1	6
582.546	1	3
582.716	1	0
582.885	1	11
583.055	1	3
583.225	1	13
583.395	1	1
583.565	1	2
583.735	1	0
583.904	1	7
584.074	1	11
584.244	1	9
584.414	1	8
584.584	1	13
584.753	1	9
584.923	1	10
585.093	1	0
585.263	1	3
585.433	1	2
585.602	1	-2
585.772	1	4
585.942	1	-4
586.112	1	2
586.282	1	8
586.451	1	10
586.621	1	8
586.791	1	8
586.961	1	-2
587.131	1	9
587.300	1	2
587.470	1	14
587.640	1	5
587.810	1	12
587.980	1	2
588.149	1	-4
588.319	1	3
588.489	1	2
588.659	1	14
588.829	1	-1
588.998	1	4
589.168	1	12
589.338	1	-4
589.508	1	-8
589.677	1	1
589.847	1	18
590.017	1	9
590.187	1	0
590.357	1	-7
590.526	1	2
590.696	1	7
590.866	1	10
591.036	1	6
591.205	1	-1
591.375	1	-4
591.545	1	12
591.715	1	-5
591.885	1	-2
592.054	1	3
592.224	1	2
592.394	1	2
592.564	1	5
592.733	1	13
592.903	1	-2
593.073	1	8
593.243	1	13
593.412	1	4
593.582	1	-1
593.752	1	-4
593.922	1	0
594.091	1	3
594.261	1	8
594.431	1	11
594.601	1	0
594.771	1	1
594.940	1	-1
595.110	1	1
595.280	1	-4
595.450	1	6
595.619	1	5
595.789	1	-2
595.959	1	2
596.129	1	11
596.298	1	9
596.468	1	1
596.638	1	-2
596.808	1	-5
596.977	1	12
597.147	1	0
597.317	1	3
597.487	1	-4
597.656	1	-1
597.826	1	-3
597.996	1	9
598.166	1	-1
598.335	1	3
598.505	1	9
598.675	1	-5
598.844	1	4
599.014	1	-4
599.184	1	17
599.354	1	4
599.523	1	4
599.693	1	12
599.863	1	1
600.033	1	-7
600.202	1	4
600.372	1	-5
600.542	1	-3
600.712	1	-3
600.881	1	3
601.051	1	3
601.221	1	16
601.390	1	-11
601.560	1	5
601.730	1	7
601.900	1	0
602.069	1	4
602.239	1	21
602.409	1	7
602.578	1	4
602.748	1	-1
602.918	1	5
603.088	1	10
603.257	1	10
603.427	1	3
603.597	1	4
603.767	1	-12
603.936	1	-7
604.106	1	0
604.276	1	4
604.445	1	-1
604.615	1	0
604.785	1	5
604.954	1	2
605.124	1	15
605.294	1	5
605.464	1	18
605.633	1	8
605.803	1	5
605.973	1	5
606.142	1	8
606.312	1	8
606.482	1	5
606.652	1	2
606.821	1	3
606.991	1	8
607.161	1	12
607.330	1	0
607.500	1	9
607.670	1	-5
607.839	1	7
608.009	1	9
608.179	1	2
608.348	1	3
608.518	1	10
608.688	1	16
608.858	1	11
609.027	1	16
609.197	1	-5
609.367	1	4
609.536	1	-1
609.706	1	0
609.876	1	-1
610.045	1	6
610.215	1	11
610.385	1	10
610.554	1	13
610.724	1	6
610.894	1	2
611.063	1	6
611.233	1	5
611.403	1	16
611.572	1	3
611.742	1	-4
611.912	1	0
612.081	1	3
612.251	1	3
612.421	1	-1
612.590	1	5
612.760	1	16
612.930	1	-2
613.099	1	13
613.269	1	-1
613.439	1	-1
613.608	1	8
613.778	1	-5
613.948	1	7
614.117	1	7
614.287	1	15
614.457	1	5
614.626	1	4
614.796	1	20
614.966	1	13
615.135	1	6
615.305	1	2
615.475	1	12
615.644	1	-2
615.814	1	14
615.984	1	17
616.153	1	0
616.323	1	22
616.493	1	6
616.662	1	-1
616.832	1	7
617.002	1	-3
617.171	1	-7
617.341	1	7
617.511	1	-6
617.680	1	5
617.850	1	2
618.019	1	17
618.189	1	2
618.359	1	13
618.528	1	15
618.698	1	-2
618.868	1	-5
619.037	1	4
619.207	1	2
619.377	1	4
619.546	1	-1
619.716	1	1
619.885	1	7
620.055	1	1
620.225	1	9
620.394	1	9
620.564	1	-1
620.734	1	-4
620.903	1	5
621.073	1	8
621.242	1	8
621.412	1	7
621.582	1	12
621.751	1	7
621.921	1	8
622.091	1	3
622.260	1	4
622.430	1	2
622.599	1	7
622.769	1	12
622.939	1	4
623.108	1	-2
623.278	1	6
623.448	1	3
623.617	1	8
623.787	1	5
623.956	1	10
624.126	1	3
624.296	1	12
624.465	1	-1
624.635	1	15
624.804	1	7
624.974	1	6
625.144	1	-2
625.313	1	13
625.483	1	11
625.652	1	3
625.822	1	13
625.992	1	12
626.161	1	2
626.331	1	6
626.501	1	16
626.670	1	0
626.840	1	8
627.009	1	6
627.179	1	12
627.348	1	9
627.518	1	13
627.688	1	1
627.857	1	17
628.027	1	8
628.196	1	-4
628.366	1	1
628.536	1	10
628.705	1	-1
628.875	1	12
629.044	1	5
629.214	1	15
629.384	1	2
629.553	1	7
629.723	1	4
629.892	1	14
630.062	1	2
630.232	1	-1
630.401	1	2
630.571	1	11
630.740	1	4
630.910	1	16
631.079	1	19
631.249	1	15
631.419	1	0
631.588	1	5
631.758	1	13
631.927	1	1
632.097	1	0
632.266	1	11
632.436	1	10
632.606	1	21
632.775	1	3
632.945	1	0
633.114	1	1
633.284	1	4
633.453	1	3
633.623	1	13
633.793	1	13
633.962	1	4
634.132	1	8
634.301	1	3
634.471	1	-4
634.640	1	16
634.810	1	11
634.979	1	4
635.149	1	15
635.319	1	5
635.488	1	7
635.658	1	9
635.827	1	19
635.997	1	-6
636.166	1	14
636.336	1	12
636.505	1	16
636.675	1	-1
636.845	1	15
637.014	1	10
637.184	1	18
637.353	1	6
637.523	1	15
637.692	1	11
637.862	1	7
638.031	1	8
638.201	1	13
638.370	1	18
638.540	1	2
638.710	1	1
638.879	1	12
639.049	1	10
639.218	1	9
639.388	1	2
639.557	1	20
639.727	1	7
639.896	1	11
640.066	1	13
640.235	1	13
640.405	1	21
640.574	1	11
640.744	1	12
640.914	1	4
641.083	1	9
641.253	1	1
641.422	1	5
641.592	1	6
641.761	1	12
641.931	1	10
642.100	1	5
642.270	1	5
642.439	1	10
642.609	1	5
642.778	1	1
642.948	1	21
643.117	1	-6
643.287	1	2
643.456	1	7
643.626	1	10
643.795	1	-4
643.965	1	6
644.134	1	8
644.304	1	19
644.473	1	8
644.643	1	1
644.812	1	6
644.982	1	3
645.151	1	0
645.321	1	7
645.490	1	12
645.660	1	11
645.829	1	7
645.999	1	22
646.168	1	9
646.338	1	11
646.507	1	7
646.677	1	3
646.846	1	4
647.016	1	1
647.185	1	5
647.355	1	9
647.524	1	9
647.694	1	1
647.863	1	12
648.033	1	10
648.202	1	2
648.372	1	3
648.541	1	-3
648.711	1	0
648.880	1	9
649.050	1	12
649.219	1	7
649.389	1	5
649.558	1	15
649.728	1	13
649.897	1	6
650.067	1	3
650.236	1	0
650.406	1	12
650.575	1	11
650.745	1	-2
650.914	1	16
651.084	1	0
651.253	1	4
651.423	1	14
651.592	1	7
651.762	1	0
651.931	1	9
652.101	1	1
652.270	1	11
652.440	1	-9
652.609	1	9
652.778	1	6
652.948	1	10
653.117	1	17
653.287	1	11
653.456	1	8
653.626	1	5
653.795	1	0
653.965	1	3
654.134	1	10
654.304	1	0
654.473	1	20
654.643	1	-4
654.812	1	6
654.982	1	2
655.151	1	6
655.320	1	15
655.490	1	0
655.659	1	4
655.829	1	5
655.998	1	6
656.168	1	5
656.337	1	2
656.507	1	5
656.676	1	0
656.846	1	4
657.015	1	1
657.184	1	5
657.354	1	9
657.523	1	6
657.693	1	3
657.862	1	5
658.032	1	11
658.201	1	7
658.371	1	4
658.540	1	1
658.709	1	12
658.879	1	10
659.048	1	18
659.218	1	5
659.387	1	2
659.557	1	0
659.726	1	6
659.895	1	7
660.065	1	0
660.234	1	-10
660.404	1	5
660.573	1	8
660.743	1	5
660.912	1	9
661.081	1	0
661.251	1	14
661.420	1	-7
661.590	1	5
661.759	1	5
661.929	1	8
662.098	1	3
662.267	1	7
662.437	1	4
662.606	1	3
662.776	1	-6
662.945	1	1
663.115	1	-8
663.284	1	3
663.453	1	1
663.623	1	8
663.792	1	3
663.962	1	3
664.131	1	2
664.300	1	-9
664.470	1	2
664.639	1	7
664.809	1	6
664.978	1	-5
665.148	1	11
665.317	1	15
665.486	1	8
665.656	1	15
665.825	1	7
665.995	1	0
666.164	1	25
666.333	1	-2
666.503	1	-3
666.672	1	3
666.842	1	4
667.011	1	-6
667.180	1	10
667.350	1	11
667.519	1	5
667.689	1	10
667.858	1	13
668.027	1	5
668.197	1	6
668.366	1	12
668.536	1	3
668.705	1	10
668.874	1	3
669.044	1	-8
669.213	1	2
669.382	1	-1
669.552	1	4
669.721	1	4
669.891	1	4
670.060	1	14
670.229	1	6
670.399	1	4
670.568	1	-4
670.738	1	8
670.907	1	5
671.076	1	6
671.246	1	10
671.415	1	-1
671.584	1	10
671.754	1	8
671.923	1	7
672.093	1	6
672.262	1	-3
672.431	1	15
672.601	1	1
672.770	1	-1
672.939	1	2
673.109	1	6
673.278	1	10
673.448	1	13
673.617	1	-3
673.786	1	6
