325.333	1	9
325.504	1	7
325.675	1	15
325.846	1	1
326.017	1	1
326.188	1	15
326.359	1	3
326.531	1	5
326.702	1	23
326.873	1	-2
327.044	1	4
327.215	1	4
327.386	1	7
327.557	1	4
327.728	1	11
327.899	1	4
328.070	1	8
328.241	1	6
328.412	1	1
328.583	1	17
328.754	1	9
328.926	1	4
329.097	1	8
329.268	1	14
329.439	1	5
329.610	1	19
329.781	1	0
329.952	1	-4
330.123	1	1
330.294	1	17
330.465	1	3
330.636	1	13
330.807	1	18
330.978	1	8
331.149	1	7
331.320	1	19
331.492	1	8
331.663	1	1
331.834	1	13
332.005	1	8
332.176	1	4
332.347	1	19
332.518	1	4
332.689	1	21
332.860	1	7
333.031	1	8
333.202	1	9
333.373	1	14
333.544	1	5
333.715	1	19
333.886	1	9
334.057	1	23
334.228	1	10
334.399	1	10
334.570	1	15
334.741	1	5
334.912	1	6
335.084	1	9
335.255	1	15
335.426	1	7
335.597	1	3
335.768	1	10
335.939	1	16
336.110	1	11
336.281	1	9
336.452	1	19
336.623	1	6
336.794	1	16
336.965	1	21
337.136	1	15
337.307	1	9
337.478	1	3
337.649	1	11
337.820	1	9
337.991	1	23
338.162	1	17
338.333	1	19
338.504	1	7
338.675	1	15
338.846	1	5
339.017	1	-2
339.188	1	15
339.359	1	11
339.530	1	8
339.701	1	13
339.872	1	15
340.043	1	22
340.214	1	16
340.385	1	2
340.556	1	9
340.727	1	14
340.898	1	28
341.069	1	11
341.240	1	10
341.411	1	10
341.582	1	14
341.753	1	26
341.924	1	13
342.095	1	12
342.266	1	3
342.437	1	17
342.608	1	14
342.779	1	18
342.950	1	12
343.121	1	17
343.292	1	8
343.463	1	12
343.634	1	7
343.805	1	15
343.976	1	13
344.147	1	-1
344.318	1	16
344.489	1	14
344.660	1	25
344.831	1	15
345.002	1	19
345.173	1	8
345.344	1	8
345.515	1	1
345.686	1	13
345.857	1	4
346.028	1	10
346.199	1	7
346.370	1	18
346.541	1	9
346.712	1	18
346.883	1	26
347.054	1	10
347.225	1	8
347.396	1	5
347.567	1	29
347.738	1	14
347.909	1	12
348.080	1	4
348.251	1	13
348.422	1	5
348.593	1	5
348.764	1	13
348.935	1	7
349.106	1	10
349.277	1	15
349.448	1	13
349.619	1	0
349.790	1	24
349.961	1	15
350.132	1	12
350.303	1	13
350.474	1	14
350.645	1	10
350.816	1	12
350.987	1	-3
351.157	1	17
351.328	1	5
351.499	1	24
351.670	1	9
351.841	1	21
352.012	1	13
352.183	1	18
352.354	1	26
352.525	1	9
352.696	1	12
352.867	1	13
353.038	1	13
353.209	1	10
353.380	1	10
353.551	1	6
353.722	1	3
353.893	1	0
354.064	1	15
354.235	1	15
354.406	1	15
354.576	1	8
354.747	1	13
354.918	1	22
355.089	1	10
355.260	1	18
355.431	1	6
355.602	1	4
355.773	1	9
355.944	1	18
356.115	1	5
356.286	1	7
356.457	1	16
356.628	1	7
356.799	1	8
356.970	1	3
357.141	1	23
357.311	1	12
357.482	1	16
357.653	1	6
357.824	1	15
357.995	1	16
358.166	1	11
358.337	1	16
358.508	1	6
358.679	1	10
358.850	1	13
359.021	1	12
359.192	1	19
359.363	1	0
359.533	1	3
359.704	1	13
359.875	1	5
360.046	1	15
360.217	1	19
360.388	1	9
360.559	1	16
360.730	1	1
360.901	1	11
361.072	1	8
361.243	1	13
361.414	1	11
361.584	1	3
361.755	1	13
361.926	1	10
362.097	1	3
362.268	1	15
362.439	1	7
362.610	1	13
362.781	1	14
362.952	1	5
363.123	1	9
363.293	1	14
363.464	1	18
363.635	1	18
363.806	1	14
363.977	1	25
364.148	1	17
364.319	1	17
364.490	1	12
364.661	1	3
364.832	1	17
365.002	1	7
365.173	1	12
365.344	1	0
365.515	1	5
365.686	1	18
365.857	1	12
366.028	1	13
366.199	1	11
366.370	1	6
366.540	1	17
366.711	1	9
366.882	1	13
367.053	1	14
367.224	1	6
367.395	1	6
367.566	1	17
367.737	1	11
367.908	1	16
368.078	1	13
368.249	1	5
368.420	1	15
368.591	1	18
368.762	1	11
368.933	1	15
369.104	1	10
369.274	1	22
369.445	1	17
369.616	1	20
369.787	1	19
369.958	1	23
370.129	1	8
370.300	1	10
370.471	1	12
370.641	1	11
370.812	1	8
370.983	1	14
371.154	1	16
371.325	1	17
371.496	1	10
371.667	1	10
371.837	1	19
372.008	1	5
372.179	1	13
372.350	1	10
372.521	1	8
372.692	1	19
372.863	1	22
373.033	1	13
373.204	1	18
373.375	1	15
373.546	1	4
373.717	1	0
373.888	1	13
374.059	1	14
374.229	1	13
374.400	1	17
374.571	1	14
374.742	1	16
374.913	1	9
375.084	1	12
375.254	1	7
375.425	1	22
375.596	1	18
375.767	1	18
375.938	1	5
376.109	1	16
376.279	1	5
376.450	1	8
376.621	1	12
376.792	1	5
376.963	1	8
377.134	1	16
377.304	1	3
377.475	1	8
377.646	1	13
377.817	1	18
377.988	1	7
378.159	1	7
378.329	1	13
378.500	1	22
378.671	1	22
378.842	1	16
379.013	1	31
379.184	1	17
379.354	1	10
379.525	1	17
379.696	1	18
379.867	1	12
380.038	1	17
380.209	1	10
380.379	1	12
380.550	1	14
380.721	1	26
380.892	1	18
381.063	1	27
381.233	1	17
381.404	1	30
381.575	1	21
381.746	1	12
381.917	1	13
382.087	1	22
382.258	1	17
382.429	1	22
382.600	1	15
382.771	1	18
382.941	1	16
383.112	1	0
383.283	1	13
383.454	1	24
383.625	1	8
383.795	1	24
383.966	1	21
384.137	1	18
384.308	1	15
384.479	1	24
384.649	1	17
384.820	1	27
384.991	1	23
385.162	1	14
385.333	1	17
385.503	1	5
385.674	1	20
385.845	1	11
386.016	1	24
386.187	1	15
386.357	1	8
386.528	1	16
386.699	1	16
386.870	1	26
387.041	1	9
387.211	1	21
387.382	1	18
387.553	1	18
387.724	1	-3
387.894	1	8
388.065	1	23
388.236	1	19
388.407	1	15
388.578	1	25
388.748	1	19
388.919	1	10
389.090	1	20
389.261	1	10
389.431	1	19
389.602	1	25
389.773	1	7
389.944	1	16
390.114	1	21
390.285	1	25
390.456	1	21
390.627	1	25
390.798	1	21
390.968	1	21
391.139	1	17
391.310	1	20
391.481	1	14
391.651	1	19
391.822	1	22
391.993	1	13
392.164	1	16
392.334	1	24
392.505	1	27
392.676	1	21
392.847	1	22
393.017	1	24
393.188	1	20
393.359	1	16
393.530	1	33
393.700	1	27
393.871	1	22
394.042	1	19
394.213	1	21
394.383	1	10
394.554	1	8
394.725	1	28
394.896	1	25
395.066	1	20
395.237	1	19
395.408	1	25
395.579	1	19
395.749	1	20
395.920	1	25
396.091	1	14
396.262	1	8
396.432	1	11
396.603	1	14
396.774	1	17
396.945	1	15
397.115	1	18
397.286	1	5
397.457	1	30
397.627	1	13
397.798	1	26
397.969	1	35
398.140	1	14
398.310	1	23
398.481	1	24
398.652	1	22
398.823	1	23
398.993	1	24
399.164	1	13
399.335	1	20
399.505	1	12
399.676	1	16
399.847	1	32
400.018	1	29
400.188	1	14
400.359	1	18
400.530	1	36
400.700	1	23
400.871	1	31
401.042	1	25
401.213	1	24
401.383	1	31
401.554	1	39
401.725	1	28
401.895	1	30
402.066	1	24
402.237	1	42
402.408	1	28
402.578	1	32
402.749	1	32
402.920	1	18
403.090	1	26
403.261	1	19
403.432	1	11
403.603	1	34
403.773	1	24
403.944	1	34
404.115	1	31
404.285	1	17
404.456	1	32
404.627	1	31
404.797	1	10
404.968	1	31
405.139	1	38
405.310	1	21
405.480	1	28
405.651	1	29
405.822	1	23
405.992	1	26
406.163	1	26
406.334	1	35
406.504	1	20
406.675	1	26
406.846	1	31
407.016	1	34
407.187	1	27
407.358	1	26
407.528	1	26
407.699	1	12
407.870	1	33
408.041	1	29
408.211	1	32
408.382	1	29
408.553	1	31
408.723	1	37
408.894	1	25
409.065	1	32
409.235	1	16
409.406	1	31
409.577	1	35
409.747	1	31
409.918	1	29
410.089	1	28
410.259	1	40
410.430	1	27
410.601	1	36
410.771	1	29
410.942	1	32
411.113	1	30
411.283	1	31
411.454	1	33
411.625	1	32
411.795	1	36
411.966	1	40
412.137	1	38
412.307	1	32
412.478	1	26
412.649	1	30
412.819	1	42
412.990	1	32
413.161	1	42
413.331	1	34
413.502	1	28
413.672	1	23
413.843	1	36
414.014	1	37
414.184	1	34
414.355	1	28
414.526	1	39
414.696	1	34
414.867	1	45
415.038	1	22
415.208	1	20
415.379	1	22
415.550	1	28
415.720	1	33
415.891	1	39
416.062	1	35
416.232	1	37
416.403	1	20
416.573	1	29
416.744	1	39
416.915	1	32
417.085	1	33
417.256	1	33
417.427	1	32
417.597	1	34
417.768	1	32
417.939	1	27
418.109	1	35
418.280	1	37
418.450	1	36
418.621	1	35
418.792	1	30
418.962	1	41
419.133	1	30
419.304	1	23
419.474	1	28
419.645	1	31
419.815	1	33
419.986	1	35
420.157	1	48
420.327	1	36
420.498	1	27
420.669	1	33
420.839	1	27
421.010	1	25
421.180	1	30
421.351	1	29
421.522	1	30
421.692	1	38
421.863	1	31
422.033	1	34
422.204	1	33
422.375	1	36
422.545	1	35
422.716	1	34
422.886	1	29
423.057	1	37
423.228	1	32
423.398	1	46
423.569	1	30
423.740	1	26
423.910	1	33
424.081	1	38
424.251	1	21
424.422	1	40
424.593	1	36
424.763	1	29
424.934	1	38
425.104	1	39
425.275	1	43
425.445	1	29
425.616	1	33
425.787	1	42
425.957	1	32
426.128	1	34
426.298	1	23
426.469	1	37
426.640	1	25
426.810	1	34
426.981	1	38
427.151	1	31
427.322	1	46
427.493	1	41
427.663	1	32
427.834	1	20
428.004	1	34
428.175	1	31
428.345	1	26
428.516	1	44
428.687	1	25
428.857	1	19
429.028	1	37
429.198	1	21
429.369	1	32
429.540	1	28
429.710	1	40
429.881	1	30
430.051	1	37
430.222	1	35
430.392	1	33
430.563	1	38
430.734	1	45
430.904	1	31
431.075	1	37
431.245	1	23
431.416	1	19
431.586	1	35
431.757	1	29
431.927	1	39
432.098	1	22
432.269	1	39
432.439	1	26
432.610	1	32
432.780	1	18
432.951	1	32
433.121	1	23
433.292	1	31
433.462	1	36
433.633	1	45
433.804	1	42
433.974	1	32
434.145	1	38
434.315	1	29
434.486	1	40
434.656	1	33
434.827	1	30
434.997	1	33
435.168	1	28
435.339	1	33
435.509	1	34
435.680	1	31
435.850	1	20
436.021	1	41
436.191	1	33
436.362	1	36
436.532	1	28
436.703	1	41
436.873	1	30
437.044	1	34
437.214	1	31
437.385	1	26
437.556	1	24
437.726	1	33
437.897	1	17
438.067	1	31
438.238	1	37
438.408	1	37
438.579	1	29
438.749	1	36
438.920	1	37
439.090	1	36
439.261	1	28
439.431	1	35
439.602	1	32
439.772	1	32
439.943	1	33
440.113	1	25
440.284	1	35
440.455	1	25
440.625	1	38
440.796	1	27
440.966	1	35
441.137	1	19
441.307	1	36
441.478	1	33
441.648	1	34
441.819	1	33
441.989	1	26
442.160	1	37
442.330	1	31
442.501	1	27
442.671	1	38
442.842	1	26
443.012	1	28
443.183	1	36
443.353	1	36
443.524	1	25
443.694	1	29
443.865	1	23
444.035	1	36
444.206	1	31
444.376	1	32
444.547	1	18
444.717	1	33
444.888	1	30
445.058	1	33
445.229	1	34
445.399	1	36
445.570	1	29
445.740	1	21
445.911	1	20
446.081	1	28
446.252	1	15
446.422	1	30
446.593	1	25
446.763	1	19
446.934	1	27
447.104	1	30
447.275	1	20
447.445	1	34
447.616	1	21
447.786	1	28
447.957	1	26
448.127	1	26
448.298	1	25
448.468	1	31
448.639	1	37
448.809	1	36
448.979	1	17
449.150	1	28
449.320	1	23
449.491	1	34
449.661	1	35
449.832	1	24
450.002	1	23
450.173	1	33
450.343	1	20
450.514	1	27
450.684	1	36
450.855	1	34
451.025	1	37
451.196	1	34
451.366	1	31
451.537	1	25
451.707	1	24
451.878	1	29
452.048	1	24
452.218	1	17
452.389	1	26
452.559	1	35
452.730	1	17
452.900	1	15
453.071	1	27
453.241	1	31
453.412	1	13
453.582	1	23
453.753	1	25
453.923	1	18
454.093	1	5
454.264	1	26
454.434	1	19
454.605	1	21
454.775	1	27
454.946	1	25
455.116	1	15
455.287	1	43
455.457	1	16
455.628	1	12
455.798	1	19
455.968	1	20
456.139	1	17
456.309	1	40
456.480	1	18
456.650	1	22
456.821	1	24
456.991	1	32
457.161	1	27
457.332	1	27
457.502	1	38
457.673	1	16
457.843	1	31
458.014	1	27
458.184	1	17
458.355	1	34
458.525	1	29
458.695	1	8
458.866	1	21
459.036	1	19
459.207	1	21
459.377	1	20
459.548	1	12
459.718	1	19
459.888	1	22
460.059	1	15
460.229	1	20
460.400	1	28
460.570	1	23
460.740	1	10
460.911	1	27
461.081	1	8
461.252	1	22
461.422	1	23
461.593	1	28
461.763	1	13
461.933	1	22
462.104	1	21
462.274	1	19
462.445	1	15
462.615	1	22
462.785	1	25
462.956	1	21
463.126	1	12
463.297	1	28
463.467	1	15
463.638	1	25
463.808	1	21
463.978	1	19
464.149	1	27
464.319	1	15
464.490	1	13
464.660	1	13
464.830	1	22
465.001	1	29
465.171	1	14
465.342	1	9
465.512	1	15
465.682	1	16
465.853	1	16
466.023	1	20
466.194	1	24
466.364	1	28
466.534	1	7
466.705	1	16
466.875	1	14
467.045	1	23
467.216	1	22
467.386	1	15
467.557	1	10
467.727	1	11
467.897	1	23
468.068	1	21
468.238	1	9
468.409	1	18
468.579	1	24
468.749	1	24
468.920	1	20
469.090	1	22
469.260	1	22
469.431	1	9
469.601	1	27
469.772	1	10
469.942	1	20
470.112	1	15
470.283	1	21
470.453	1	16
470.623	1	14
470.794	1	13
470.964	1	15
471.135	1	14
471.305	1	10
471.475	1	21
471.646	1	22
471.816	1	25
471.986	1	19
472.157	1	14
472.327	1	10
472.497	1	7
472.668	1	12
472.838	1	16
473.009	1	27
473.179	1	22
473.349	1	16
473.520	1	16
473.690	1	16
473.860	1	9
474.031	1	28
474.201	1	18
474.371	1	20
474.542	1	27
474.712	1	20
474.882	1	14
475.053	1	16
475.223	1	22
475.394	1	15
475.564	1	16
475.734	1	11
475.905	1	24
476.075	1	11
476.245	1	11
476.416	1	9
476.586	1	21
476.756	1	7
476.927	1	13
477.097	1	11
477.267	1	27
477.438	1	13
477.608	1	-2
477.778	1	29
477.949	1	8
478.119	1	17
478.289	1	19
478.460	1	24
478.630	1	11
478.800	1	15
478.971	1	13
479.141	1	17
479.311	1	18
479.482	1	15
479.652	1	11
479.822	1	14
479.993	1	0
480.163	1	27
480.333	1	15
480.504	1	8
480.674	1	8
480.844	1	23
481.015	1	18
481.185	1	15
481.355	1	19
481.525	1	21
481.696	1	16
481.866	1	12
482.036	1	16
482.207	1	20
482.377	1	6
482.547	1	21
482.718	1	21
482.888	1	15
483.058	1	11
483.229	1	17
483.399	1	11
483.569	1	9
483.740	1	5
483.910	1	16
484.080	1	18
484.250	1	17
484.421	1	20
484.591	1	14
484.761	1	3
484.932	1	7
485.102	1	7
485.272	1	9
485.443	1	17
485.613	1	12
485.783	1	12
485.953	1	15
486.124	1	12
486.294	1	14
486.464	1	17
486.635	1	15
486.805	1	13
486.975	1	5
487.146	1	10
487.316	1	16
487.486	1	20
487.656	1	16
487.827	1	17
487.997	1	4
488.167	1	11
488.338	1	14
488.508	1	19
488.678	1	16
488.848	1	16
489.019	1	8
489.189	1	10
489.359	1	19
489.529	1	10
489.700	1	10
489.870	1	15
490.040	1	15
490.211	1	28
490.381	1	17
490.551	1	3
490.721	1	18
490.892	1	3
491.062	1	14
491.232	1	13
491.402	1	11
491.573	1	18
491.743	1	13
491.913	1	13
492.084	1	3
492.254	1	16
492.424	1	27
492.594	1	12
492.765	1	7
492.935	1	12
493.105	1	10
493.275	1	12
493.446	1	11
493.616	1	9
493.786	1	18
493.956	1	15
494.127	1	19
494.297	1	19
494.467	1	13
494.637	1	13
494.808	1	12
494.978	1	12
495.148	1	4
495.318	1	13
495.489	1	11
495.659	1	7
495.829	1	13
495.999	1	13
496.170	1	16
496.340	1	16
496.510	1	13
496.680	1	13
496.851	1	8
497.021	1	17
497.191	1	18
497.361	1	10
497.532	1	5
497.702	1	9
497.872	1	1
498.042	1	6
498.213	1	10
498.383	1	20
498.553	1	17
498.723	1	-3
498.894	1	24
499.064	1	5
499.234	1	20
499.404	1	-1
499.574	1	2
499.745	1	10
499.915	1	17
500.085	1	12
500.255	1	17
500.426	1	7
500.596	1	4
500.766	1	19
500.936	1	19
501.106	1	2
501.277	1	7
501.447	1	7
501.617	1	5
501.787	1	12
501.958	1	-1
502.128	1	1
502.298	1	15
502.468	1	10
502.638	1	8
502.809	1	12
502.979	1	20
503.149	1	8
503.319	1	13
503.489	1	12
503.660	1	5
503.830	1	-4
504.000	1	3
504.170	1	12
504.340	1	10
504.511	1	1
504.681	1	21
504.851	1	21
505.021	1	10
505.192	1	16
505.362	1	12
505.532	1	2
505.702	1	15
505.872	1	13
506.043	1	8
506.213	1	3
506.383	1	7
506.553	1	9
506.723	1	9
506.893	1	10
507.064	1	7
507.234	1	9
507.404	1	6
507.574	1	-6
507.744	1	17
507.915	1	18
508.085	1	19
508.255	1	3
508.425	1	7
508.595	1	10
508.766	1	4
508.936	1	13
509.106	1	-1
509.276	1	19
509.446	1	-4
509.616	1	8
509.787	1	4
509.957	1	14
510.127	1	7
510.297	1	10
510.467	1	9
510.638	1	12
510.808	1	12
510.978	1	-3
511.148	1	16
511.318	1	6
511.488	1	14
511.659	1	13
511.829	1	3
511.999	1	22
512.169	1	19
512.339	1	13
512.509	1	3
512.680	1	18
512.850	1	3
513.020	1	8
513.190	1	-1
513.360	1	13
513.530	1	13
513.700	1	9
513.871	1	14
514.041	1	8
514.211	1	20
514.381	1	5
514.551	1	7
514.721	1	12
514.892	1	-5
515.062	1	10
515.232	1	2
515.402	1	5
515.572	1	19
515.742	1	10
515.912	1	13
516.083	1	13
516.253	1	-6
516.423	1	9
516.593	1	8
516.763	1	-3
516.933	1	2
517.104	1	2
517.274	1	17
517.444	1	-1
517.614	1	8
517.784	1	5
517.954	1	17
518.124	1	22
518.294	1	5
518.465	1	-1
518.635	1	11
518.805	1	8
518.975	1	9
519.145	1	4
519.315	1	10
519.485	1	18
519.656	1	9
519.826	1	16
519.996	1	9
520.166	1	9
520.336	1	7
520.506	1	6
520.676	1	11
520.846	1	21
521.017	1	14
521.187	1	2
521.357	1	8
521.527	1	9
521.697	1	11
521.867	1	-3
522.037	1	16
522.207	1	4
522.377	1	-2
522.548	1	8
522.718	1	22
522.888	1	12
523.058	1	9
523.228	1	10
523.398	1	14
523.568	1	3
523.738	1	3
523.909	1	11
524.079	1	19
524.249	1	4
524.419	1	2
524.589	1	7
524.759	1	10
524.929	1	0
525.099	1	3
525.269	1	8
525.439	1	3
525.610	1	4
525.780	1	8
525.950	1	5
526.120	1	12
526.290	1	4
526.460	1	8
526.630	1	12
526.800	1	-8
526.970	1	6
527.140	1	-1
527.311	1	6
527.481	1	13
527.651	1	15
527.821	1	-8
527.991	1	3
528.161	1	10
528.331	1	12
528.501	1	-7
528.671	1	8
528.841	1	2
529.011	1	-2
529.181	1	10
529.352	1	7
529.522	1	5
529.692	1	9
529.862	1	4
530.032	1	13
530.202	1	6
530.372	1	11
530.542	1	1
530.712	1	10
530.882	1	0
531.052	1	12
531.222	1	0
531.392	1	6
531.563	1	1
531.733	1	9
531.903	1	6
532.073	1	6
532.243	1	8
532.413	1	6
532.583	1	-2
532.753	1	10
532.923	1	3
533.093	1	14
533.263	1	4
533.433	1	18
533.603	1	14
533.773	1	11
533.943	1	11
534.113	1	11
534.284	1	-1
534.454	1	10
534.624	1	2
534.794	1	11
534.964	1	5
535.134	1	0
535.304	1	3
535.474	1	8
535.644	1	7
535.814	1	2
535.984	1	7
536.154	1	10
536.324	1	10
536.494	1	2
536.664	1	12
536.834	1	6
537.004	1	7
537.174	1	2
537.344	1	10
537.514	1	3
537.685	1	11
537.855	1	2
538.025	1	0
538.195	1	7
538.365	1	1
538.535	1	6
538.705	1	6
538.875	1	6
539.045	1	3
539.215	1	14
539.385	1	13
539.555	1	8
539.725	1	3
539.895	1	15
540.065	1	6
540.235	1	0
540.405	1	-1
540.575	1	8
540.745	1	2
540.915	1	9
541.085	1	1
541.255	1	11
541.425	1	3
541.595	1	-3
541.765	1	1
541.935	1	19
542.105	1	3
542.275	1	3
542.445	1	-6
542.615	1	9
542.785	1	-2
542.955	1	16
543.125	1	4
543.295	1	2
543.465	1	9
543.635	1	5
543.805	1	-3
543.975	1	1
544.145	1	2
544.315	1	11
544.485	1	2
544.655	1	3
544.825	1	9
544.995	1	6
545.165	1	9
545.335	1	7
545.505	1	9
545.675	1	7
545.845	1	21
546.015	1	0
546.185	1	1
546.355	1	9
546.525	1	0
546.695	1	14
546.865	1	-5
547.035	1	9
547.205	1	4
547.375	1	8
547.545	1	13
547.715	1	0
547.885	1	2
548.055	1	23
548.225	1	7
548.395	1	4
548.565	1	9
548.735	1	5
548.905	1	16
549.075	1	2
549.245	1	11
549.415	1	-2
549.585	1	7
549.755	1	-4
549.925	1	11
550.095	1	0
550.265	1	5
550.435	1	6
550.605	1	4
550.775	1	7
550.945	1	10
551.115	1	0
551.285	1	2
551.455	1	12
551.625	1	21
551.795	1	4
551.965	1	3
552.135	1	5
552.305	1	10
552.475	1	9
552.645	1	-1
552.815	1	8
552.985	1	-3
553.155	1	5
553.325	1	-4
553.495	1	4
553.665	1	4
553.835	1	3
554.004	1	6
554.174	1	-1
554.344	1	9
554.514	1	5
554.684	1	-5
554.854	1	5
555.024	1	-6
555.194	1	10
555.364	1	-7
555.534	1	-6
555.704	1	6
555.874	1	7
556.044	1	3
556.214	1	5
556.384	1	-4
556.554	1	5
556.724	1	5
556.894	1	2
557.064	1	15
557.234	1	10
557.404	1	-3
557.573	1	14
557.743	1	-7
557.913	1	6
558.083	1	15
558.253	1	-7
558.423	1	11
558.593	1	17
558.763	1	11
558.933	1	5
559.103	1	5
559.273	1	9
559.443	1	2
559.613	1	-3
559.783	1	9
559.953	1	-3
560.122	1	3
560.292	1	2
560.462	1	-2
560.632	1	10
560.802	1	-2
560.972	1	-2
561.142	1	-9
561.312	1	4
561.482	1	11
561.652	1	6
561.822	1	13
561.992	1	6
562.162	1	5
562.331	1	0
562.501	1	-8
562.671	1	2
562.841	1	4
563.011	1	3
563.181	1	3
563.351	1	3
563.521	1	-1
563.691	1	7
563.861	1	7
564.031	1	0
564.201	1	11
564.370	1	2
564.540	1	-9
564.710	1	1
564.880	1	-1
565.050	1	10
565.220	1	16
565.390	1	5
565.560	1	16
565.730	1	-4
565.900	1	2
566.069	1	5
566.239	1	-3
566.409	1	11
566.579	1	6
566.749	1	3
566.919	1	-1
567.089	1	7
567.259	1	17
567.429	1	2
567.599	1	5
567.768	1	1
567.938	1	6
568.108	1	5
568.278	1	1
568.448	1	-2
568.618	1	4
568.788	1	7
568.958	1	1
569.128	1	-2
569.297	1	2
569.467	1	-6
569.637	1	5
569.807	1	9
569.977	1	13
570.147	1	4
570.317	1	7
570.487	1	-7
570.656	1	18
570.826	1	3
570.996	1	15
571.166	1	18
571.336	1	2
571.506	1	-1
571.676	1	3
571.846	1	5
572.015	1	-2
572.185	1	10
572.355	1	12
572.525	1	12
572.695	1	9
572.865	1	8
573.035	1	14
573.205	1	4
573.374	1	11
573.544	1	7
573.714	1	9
573.884	1	9
574.054	1	12
574.224	1	12
574.394	1	-5
574.563	1	12
574.733	1	2
574.903	1	4
575.073	1	8
575.243	1	6
575.413	1	9
575.583	1	-1
575.752	1	-5
575.922	1	3
576.092	1	-5
576.262	1	1
576.432	1	11
576.602	1	8
576.772	1	5
576.941	1	0
577.111	1	14
577.281	1	6
577.451	1	5
577.621	1	-3
577.791	1	8
577.960	1	8
578.130	1	-5
578.300	1	3
578.470	1	15
578.640	1	2
578.810	1	-6
578.979	1	11
579.149	1	-3
579.319	1	5
579.489	1	5
579.659	1	6
579.829	1	12
579.998	1	3
580.168	1	-3
580.338	1	-7
580.508	1	11
580.678	1	5
580.848	1	-2
581.017	1	-8
581.187	1	7
581.357	1	0
581.527	1	1
581.697	1	12
581.867	1	8
582.036	1	9
582.206	1	0
582.376	1	2
582.546	1	1
582.716	1	-1
582.885	1	3
583.055	1	10
583.225	1	21
583.395	1	-2
583.565	1	-4
583.735	1	10
583.904	1	11
584.074	1	0
584.244	1	4
584.414	1	3
584.584	1	3
584.753	1	3
584.923	1	16
585.093	1	4
585.263	1	6
585.433	1	4
585.602	1	4
585.772	1	7
585.942	1	0
586.112	1	4
586.282	1	1
586.451	1	-2
586.621	1	-1
586.791	1	11
586.961	1	0
587.131	1	6
587.300	1	3
587.470	1	15
587.640	1	-3
587.810	1	13
587.980	1	-3
588.149	1	1
588.319	1	0
588.489	1	7
588.659	1	21
588.829	1	5
588.998	1	1
589.168	1	6
589.338	1	8
589.508	1	4
589.677	1	-10
589.847	1	12
590.017	1	6
590.187	1	3
590.357	1	-3
590.526	1	-3
590.696	1	14
590.866	1	5
591.036	1	16
591.205	1	1
591.375	1	-6
591.545	1	13
591.715	1	-4
591.885	1	2
592.054	1	8
592.224	1	16
592.394	1	-4
592.564	1	14
592.733	1	5
592.903	1	4
593.073	1	-2
593.243	1	12
593.412	1	20
593.582	1	-1
593.752	1	5
593.922	1	5
594.091	1	-2
594.261	1	3
594.431	1	2
594.601	1	-4
594.771	1	-3
594.940	1	-4
595.110	1	12
595.280	1	4
595.450	1	11
595.619	1	-1
595.789	1	7
595.959	1	2
596.129	1	9
596.298	1	14
596.468	1	2
596.638	1	-4
596.808	1	4
596.977	1	8
597.147	1	8
597.317	1	-2
597.487	1	3
597.656	1	-1
597.826	1	5
597.996	1	4
598.166	1	-2
598.335	1	0
598.505	1	10
598.675	1	5
598.844	1	4
599.014	1	8
599.184	1	12
599.354	1	3
599.523	1	7
599.693	1	1
599.863	1	14
600.033	1	-17
600.202	1	-3
600.372	1	-1
600.542	1	-3
600.712	1	12
600.881	1	5
601.051	1	5
601.221	1	14
601.390	1	-2
601.560	1	2
601.730	1	5
601.900	1	-5
602.069	1	9
602.239	1	21
602.409	1	10
602.578	1	2
602.748	1	5
602.918	1	8
603.088	1	5
603.257	1	11
603.427	1	7
603.597	1	3
603.767	1	-2
603.936	1	-8
604.106	1	6
604.276	1	2
604.445	1	3
604.615	1	14
604.785	1	12
604.954	1	-2
605.124	1	12
605.294	1	6
605.464	1	16
605.633	1	5
605.803	1	12
605.973	1	1
606.142	1	3
606.312	1	17
606.482	1	8
606.652	1	5
606.821	1	-6
606.991	1	5
607.161	1	6
607.330	1	0
607.500	1	-3
607.670	1	1
607.839	1	9
608.009	1	2
608.179	1	-4
608.348	1	17
608.518	1	0
608.688	1	7
608.858	1	13
609.027	1	19
609.197	1	-6
609.367	1	11
609.536	1	11
609.706	1	9
609.876	1	10
610.045	1	2
610.215	1	0
610.385	1	1
610.554	1	17
610.724	1	8
610.894	1	6
611.063	1	-2
611.233	1	5
611.403	1	6
611.572	1	13
611.742	1	-1
611.912	1	1
612.081	1	7
612.251	1	6
612.421	1	7
612.590	1	5
612.760	1	8
612.930	1	4
613.099	1	14
613.269	1	10
613.439	1	7
613.608	1	3
613.778	1	6
613.948	1	3
614.117	1	10
614.287	1	8
614.457	1	-7
614.626	1	6
614.796	1	14
614.966	1	15
615.135	1	14
615.305	1	0
615.475	1	9
615.644	1	3
615.814	1	10
615.984	1	14
616.153	1	2
616.323	1	13
616.493	1	5
616.662	1	5
616.832	1	8
617.002	1	-3
617.171	1	1
617.341	1	2
617.511	1	-6
617.680	1	13
617.850	1	7
618.019	1	12
618.189	1	-3
618.359	1	13
618.528	1	9
618.698	1	5
618.868	1	0
619.037	1	17
619.207	1	4
619.377	1	-1
619.546	1	-4
619.716	1	1
619.885	1	-2
620.055	1	-4
620.225	1	12
620.394	1	12
620.564	1	3
620.734	1	5
620.903	1	0
621.073	1	6
621.242	1	17
621.412	1	8
621.582	1	5
621.751	1	0
621.921	1	6
622.091	1	5
622.260	1	0
622.430	1	3
622.599	1	10
622.769	1	6
622.939	1	7
623.108	1	10
623.278	1	14
623.448	1	6
623.617	1	9
623.787	1	2
623.956	1	5
624.126	1	-3
624.296	1	5
624.465	1	0
624.635	1	21
624.804	1	3
624.974	1	8
625.144	1	1
625.313	1	11
625.483	1	2
625.652	1	0
625.822	1	2
625.992	1	7
626.161	1	12
626.331	1	14
626.501	1	18
626.670	1	-2
626.840	1	11
627.009	1	20
627.179	1	8
627.348	1	5
627.518	1	8
627.688	1	5
627.857	1	14
628.027	1	5
628.196	1	11
628.366	1	6
628.536	1	9
628.705	1	5
628.875	1	15
629.044	1	2
629.214	1	15
629.384	1	5
629.553	1	15
629.723	1	10
629.892	1	13
630.062	1	9
630.232	1	6
630.401	1	10
630.571	1	16
630.740	1	14
630.910	1	15
631.079	1	4
631.249	1	-2
631.419	1	5
631.588	1	9
631.758	1	15
631.927	1	1
632.097	1	-2
632.266	1	14
632.436	1	6
632.606	1	12
632.775	1	13
632.945	1	1
633.114	1	12
633.284	1	1
633.453	1	6
633.623	1	3
633.793	1	16
633.962	1	4
634.132	1	5
634.301	1	10
634.471	1	-6
634.640	1	1
634.810	1	12
634.979	1	13
635.149	1	10
635.319	1	1
635.488	1	-2
635.658	1	13
635.827	1	11
635.997	1	2
636.166	1	6
636.336	1	20
636.505	1	15
636.675	1	2
636.845	1	4
637.014	1	8
637.184	1	14
637.353	1	6
637.523	1	16
637.692	1	15
637.862	1	3
638.031	1	14
638.201	1	13
638.370	1	21
638.540	1	7
638.710	1	1
638.879	1	3
639.049	1	11
639.218	1	-1
639.388	1	-6
639.557	1	21
639.727	1	12
639.896	1	15
640.066	1	15
640.235	1	12
640.405	1	17
640.574	1	5
640.744	1	16
640.914	1	9
641.083	1	3
641.253	1	5
641.422	1	2
641.592	1	2
641.761	1	10
641.931	1	18
642.100	1	4
642.270	1	-3
642.439	1	11
642.609	1	17
642.778	1	-4
642.948	1	19
643.117	1	2
643.287	1	7
643.456	1	3
643.626	1	8
643.795	1	-5
643.965	1	12
644.134	1	5
644.304	1	21
644.473	1	15
644.643	1	13
644.812	1	8
644.982	1	-3
645.151	1	2
645.321	1	0
645.490	1	17
645.660	1	2
645.829	1	15
645.999	1	11
646.168	1	13
646.338	1	4
646.507	1	4
646.677	1	-1
646.846	1	12
647.016	1	7
647.185	1	8
647.355	1	13
647.524	1	10
647.694	1	6
647.863	1	15
648.033	1	11
648.202	1	4
648.372	1	-5
648.541	1	7
648.711	1	3
648.880	1	6
649.050	1	2
649.219	1	4
649.389	1	5
649.558	1	9
649.728	1	9
649.897	1	10
650.067	1	0
650.236	1	5
650.406	1	12
650.575	1	12
650.745	1	-3
650.914	1	18
651.084	1	8
651.253	1	7
651.423	1	25
651.592	1	15
651.762	1	6
651.931	1	8
652.101	1	0
652.270	1	5
652.440	1	1
652.609	1	6
652.778	1	3
652.948	1	13
653.117	1	10
653.287	1	-1
653.456	1	2
653.626	1	10
653.795	1	12
653.965	1	8
654.134	1	0
654.304	1	10
654.473	1	13
654.643	1	6
654.812	1	7
654.982	1	7
655.151	1	-4
655.320	1	2
655.490	1	1
655.659	1	14
655.829	1	8
655.998	1	9
656.168	1	-1
656.337	1	10
656.507	1	6
656.676	1	-2
656.846	1	12
657.015	1	13
657.184	1	14
657.354	1	11
657.523	1	9
657.693	1	3
657.862	1	18
658.032	1	20
658.201	1	7
658.371	1	6
658.540	1	4
658.709	1	6
658.879	1	11
659.048	1	16
659.218	1	0
659.387	1	1
659.557	1	8
659.726	1	10
659.895	1	3
660.065	1	19
660.234	1	-5
660.404	1	9
660.573	1	6
660.743	1	6
660.912	1	11
661.081	1	5
661.251	1	4
661.420	1	3
661.590	1	13
661.759	1	12
661.929	1	7
662.098	1	19
662.267	1	9
662.437	1	12
662.606	1	1
662.776	1	5
662.945	1	5
663.115	1	-4
663.284	1	1
663.453	1	0
663.623	1	-1
663.792	1	2
663.962	1	6
664.131	1	8
664.300	1	-8
664.470	1	-5
664.639	1	10
664.809	1	6
664.978	1	-5
665.148	1	12
665.317	1	21
665.486	1	4
665.656	1	10
665.825	1	9
665.995	1	1
666.164	1	18
666.333	1	2
666.503	1	8
666.672	1	3
666.842	1	-2
667.011	1	13
667.180	1	0
667.350	1	14
667.519	1	10
667.689	1	0
667.858	1	12
668.027	1	8
668.197	1	-2
668.366	1	17
668.536	1	-2
668.705	1	15
668.874	1	5
669.044	1	3
669.213	1	12
669.382	1	1
669.552	1	6
669.721	1	0
669.891	1	1
670.060	1	11
670.229	1	6
670.399	1	18
670.568	1	-1
670.738	1	17
670.907	1	10
671.076	1	13
671.246	1	4
671.415	1	4
671.584	1	13
671.754	1	7
671.923	1	7
672.093	1	5
672.262	1	0
672.431	1	0
672.601	1	-2
672.770	1	8
672.939	1	9
673.109	1	4
673.278	1	14
673.448	1	9
673.617	1	12
673.786	1	7
