325.333	1	18
325.504	1	9
325.675	1	10
325.846	1	-2
326.017	1	12
326.188	1	20
326.359	1	-11
326.531	1	12
326.702	1	23
326.873	1	6
327.044	1	8
327.215	1	15
327.386	1	12
327.557	1	5
327.728	1	24
327.899	1	18
328.070	1	19
328.241	1	8
328.412	1	-6
328.583	1	18
328.754	1	14
328.926	1	5
329.097	1	13
329.268	1	13
329.439	1	9
329.610	1	21
329.781	1	13
329.952	1	2
330.123	1	13
330.294	1	23
330.465	1	15
330.636	1	18
330.807	1	19
330.978	1	13
331.149	1	11
331.320	1	13
331.492	1	19
331.663	1	0
331.834	1	20
332.005	1	15
332.176	1	13
332.347	1	15
332.518	1	13
332.689	1	12
332.860	1	11
333.031	1	-4
333.202	1	5
333.373	1	22
333.544	1	5
333.715	1	12
333.886	1	12
334.057	1	25
334.228	1	13
334.399	1	-1
334.570	1	11
334.741	1	7
334.912	1	14
335.084	1	11
335.255	1	19
335.426	1	12
335.597	1	11
335.768	1	8
335.939	1	28
336.110	1	19
336.281	1	15
336.452	1	16
336.623	1	21
336.794	1	11
336.965	1	26
337.136	1	28
337.307	1	20
337.478	1	12
337.649	1	17
337.820	1	16
337.991	1	20
338.162	1	19
338.333	1	23
338.504	1	20
338.675	1	20
338.846	1	15
339.017	1	16
339.188	1	19
339.359	1	17
339.530	1	7
339.701	1	30
339.872	1	24
340.043	1	14
340.214	1	24
340.385	1	9
340.556	1	12
340.727	1	28
340.898	1	16
341.069	1	20
341.240	1	14
341.411	1	24
341.582	1	17
341.753	1	23
341.924	1	18
342.095	1	10
342.266	1	16
342.437	1	15
342.608	1	19
342.779	1	9
342.950	1	8
343.121	1	14
343.292	1	12
343.463	1	13
343.634	1	14
343.805	1	18
343.976	1	13
344.147	1	12
344.318	1	15
344.489	1	16
344.660	1	24
344.831	1	17
345.002	1	16
345.173	1	12
345.344	1	15
345.515	1	10
345.686	1	21
345.857	1	24
346.028	1	23
346.199	1	22
346.370	1	13
346.541	1	14
346.712	1	18
346.883	1	22
347.054	1	21
347.225	1	20
347.396	1	2
347.567	1	29
347.738	1	13
347.909	1	18
348.080	1	1
348.251	1	31
348.422	1	12
348.593	1	9
348.764	1	23
348.935	1	9
349.106	1	12
349.277	1	26
349.448	1	15
349.619	1	11
349.790	1	23
349.961	1	17
350.132	1	10
350.303	1	16
350.474	1	22
350.645	1	25
350.816	1	26
350.987	1	5
351.157	1	27
351.328	1	21
351.499	1	30
351.670	1	17
351.841	1	26
352.012	1	26
352.183	1	20
352.354	1	30
352.525	1	21
352.696	1	17
352.867	1	32
353.038	1	10
353.209	1	26
353.380	1	22
353.551	1	22
353.722	1	12
353.893	1	13
354.064	1	35
354.235	1	19
354.406	1	23
354.576	1	15
354.747	1	18
354.918	1	26
355.089	1	14
355.260	1	20
355.431	1	16
355.602	1	28
355.773	1	16
355.944	1	23
356.115	1	17
356.286	1	26
356.457	1	24
356.628	1	25
356.799	1	23
356.970	1	10
357.141	1	23
357.311	1	21
357.482	1	20
357.653	1	12
357.824	1	6
357.995	1	22
358.166	1	21
358.337	1	21
358.508	1	12
358.679	1	17
358.850	1	26
359.021	1	22
359.192	1	19
359.363	1	35
359.533	1	18
359.704	1	17
359.875	1	24
360.046	1	29
360.217	1	21
360.388	1	22
360.559	1	35
360.730	1	12
360.901	1	39
361.072	1	17
361.243	1	29
361.414	1	26
361.584	1	8
361.755	1	30
361.926	1	32
362.097	1	12
362.268	1	31
362.439	1	21
362.610	1	22
362.781	1	13
362.952	1	12
363.123	1	18
363.293	1	18
363.464	1	27
363.635	1	29
363.806	1	26
363.977	1	39
364.148	1	18
364.319	1	23
364.490	1	30
364.661	1	5
364.832	1	25
365.002	1	17
365.173	1	18
365.344	1	16
365.515	1	20
365.686	1	20
365.857	1	21
366.028	1	16
366.199	1	11
366.370	1	6
366.540	1	18
366.711	1	18
366.882	1	25
367.053	1	21
367.224	1	15
367.395	1	19
367.566	1	19
367.737	1	21
367.908	1	19
368.078	1	26
368.249	1	13
368.420	1	25
368.591	1	26
368.762	1	20
368.933	1	21
369.104	1	31
369.274	1	25
369.445	1	22
369.616	1	31
369.787	1	27
369.958	1	15
370.129	1	22
370.300	1	24
370.471	1	23
370.641	1	28
370.812	1	26
370.983	1	17
371.154	1	33
371.325	1	33
371.496	1	23
371.667	1	19
371.837	1	28
372.008	1	20
372.179	1	25
372.350	1	19
372.521	1	15
372.692	1	22
372.863	1	28
373.033	1	24
373.204	1	24
373.375	1	27
373.546	1	20
373.717	1	24
373.888	1	19
374.059	1	27
374.229	1	31
374.400	1	16
374.571	1	25
374.742	1	25
374.913	1	26
375.084	1	34
375.254	1	22
375.425	1	38
375.596	1	24
375.767	1	22
375.938	1	19
376.109	1	16
376.279	1	13
376.450	1	30
376.621	1	15
376.792	1	16
376.963	1	33
377.134	1	22
377.304	1	22
377.475	1	34
377.646	1	23
377.817	1	37
377.988	1	22
378.159	1	19
378.329	1	28
378.500	1	16
378.671	1	28
378.842	1	34
379.013	1	29
379.184	1	34
379.354	1	35
379.525	1	42
379.696	1	26
379.867	1	32
380.038	1	33
380.209	1	26
380.379	1	34
380.550	1	26
380.721	1	36
380.892	1	27
381.063	1	32
381.233	1	42
381.404	1	43
381.575	1	35
381.746	1	29
381.917	1	22
382.087	1	31
382.258	1	39
382.429	1	30
382.600	1	31
382.771	1	45
382.941	1	34
383.112	1	23
383.283	1	28
383.454	1	26
383.625	1	31
383.795	1	33
383.966	1	36
384.137	1	31
384.308	1	42
384.479	1	35
384.649	1	38
384.820	1	24
384.991	1	35
385.162	1	25
385.333	1	27
385.503	1	26
385.674	1	29
385.845	1	25
386.016	1	49
386.187	1	31
386.357	1	23
386.528	1	37
386.699	1	27
386.870	1	26
387.041	1	29
387.211	1	33
387.382	1	36
387.553	1	34
387.724	1	31
387.894	1	32
388.065	1	39
388.236	1	32
388.407	1	39
388.578	1	46
388.748	1	32
388.919	1	19
389.090	1	41
389.261	1	28
389.431	1	41
389.602	1	36
389.773	1	24
389.944	1	30
390.114	1	42
390.285	1	43
390.456	1	40
390.627	1	42
390.798	1	36
390.968	1	48
391.139	1	37
391.310	1	35
391.481	1	32
391.651	1	36
391.822	1	37
391.993	1	36
392.164	1	35
392.334	1	30
392.505	1	32
392.676	1	25
392.847	1	29
393.017	1	43
393.188	1	28
393.359	1	37
393.530	1	33
393.700	1	43
393.871	1	26
394.042	1	32
394.213	1	40
394.383	1	41
394.554	1	24
394.725	1	46
394.896	1	36
395.066	1	46
395.237	1	34
395.408	1	42
395.579	1	37
395.749	1	33
395.920	1	34
396.091	1	32
396.262	1	35
396.432	1	36
396.603	1	41
396.774	1	33
396.945	1	35
397.115	1	38
397.286	1	30
397.457	1	49
397.627	1	34
397.798	1	52
397.969	1	32
398.140	1	35
398.310	1	47
398.481	1	43
398.652	1	43
398.823	1	48
398.993	1	50
399.164	1	34
399.335	1	37
399.505	1	39
399.676	1	37
399.847	1	35
400.018	1	50
400.188	1	44
400.359	1	40
400.530	1	55
400.700	1	42
400.871	1	43
401.042	1	41
401.213	1	38
401.383	1	42
401.554	1	47
401.725	1	39
401.895	1	43
402.066	1	39
402.237	1	52
402.408	1	40
402.578	1	36
402.749	1	43
402.920	1	30
403.090	1	34
403.261	1	36
403.432	1	43
403.603	1	44
403.773	1	49
403.944	1	43
404.115	1	44
404.285	1	34
404.456	1	40
404.627	1	45
404.797	1	46
404.968	1	46
405.139	1	36
405.310	1	42
405.480	1	31
405.651	1	37
405.822	1	34
405.992	1	53
406.163	1	38
406.334	1	48
406.504	1	35
406.675	1	42
406.846	1	45
407.016	1	41
407.187	1	52
407.358	1	35
407.528	1	36
407.699	1	37
407.870	1	36
408.041	1	47
408.211	1	49
408.382	1	41
408.553	1	58
408.723	1	50
408.894	1	44
409.065	1	57
409.235	1	40
409.406	1	39
409.577	1	51
409.747	1	39
409.918	1	52
410.089	1	40
410.259	1	46
410.430	1	50
410.601	1	51
410.771	1	51
410.942	1	49
411.113	1	44
411.283	1	46
411.454	1	43
411.625	1	51
411.795	1	43
411.966	1	43
412.137	1	63
412.307	1	40
412.478	1	44
412.649	1	45
412.819	1	59
412.990	1	46
413.161	1	52
413.331	1	55
413.502	1	46
413.672	1	33
413.843	1	48
414.014	1	50
414.184	1	42
414.355	1	50
414.526	1	45
414.696	1	45
414.867	1	54
415.038	1	30
415.208	1	33
415.379	1	40
415.550	1	42
415.720	1	41
415.891	1	46
416.062	1	41
416.232	1	48
416.403	1	40
416.573	1	36
416.744	1	52
416.915	1	48
417.085	1	43
417.256	1	47
417.427	1	43
417.597	1	48
417.768	1	37
417.939	1	40
418.109	1	52
418.280	1	52
418.450	1	56
418.621	1	45
418.792	1	41
418.962	1	37
419.133	1	53
419.304	1	52
419.474	1	46
419.645	1	50
419.815	1	55
419.986	1	47
420.157	1	46
420.327	1	54
420.498	1	52
420.669	1	39
420.839	1	45
421.010	1	47
421.180	1	47
421.351	1	31
421.522	1	40
421.692	1	45
421.863	1	56
422.033	1	42
422.204	1	44
422.375	1	52
422.545	1	55
422.716	1	47
422.886	1	54
423.057	1	54
423.228	1	44
423.398	1	48
423.569	1	42
423.740	1	50
423.910	1	57
424.081	1	43
424.251	1	47
424.422	1	50
424.593	1	42
424.763	1	47
424.934	1	58
425.104	1	62
425.275	1	42
425.445	1	45
425.616	1	49
425.787	1	43
425.957	1	53
426.128	1	51
426.298	1	34
426.469	1	48
426.640	1	32
426.810	1	45
426.981	1	50
427.151	1	46
427.322	1	55
427.493	1	49
427.663	1	51
427.834	1	35
428.004	1	44
428.175	1	35
428.345	1	46
428.516	1	46
428.687	1	43
428.857	1	28
429.028	1	38
429.198	1	36
429.369	1	42
429.540	1	43
429.710	1	45
429.881	1	45
430.051	1	46
430.222	1	53
430.392	1	45
430.563	1	47
430.734	1	41
430.904	1	56
431.075	1	52
431.245	1	44
431.416	1	24
431.586	1	52
431.757	1	51
431.927	1	43
432.098	1	45
432.269	1	52
432.439	1	38
432.610	1	52
432.780	1	31
432.951	1	45
433.121	1	32
433.292	1	41
433.462	1	54
433.633	1	50
433.804	1	40
433.974	1	51
434.145	1	43
434.315	1	46
434.486	1	49
434.656	1	54
434.827	1	36
434.997	1	43
435.168	1	43
435.339	1	54
435.509	1	57
435.680	1	40
435.850	1	40
436.021	1	52
436.191	1	42
436.362	1	50
436.532	1	48
436.703	1	48
436.873	1	45
437.044	1	59
437.214	1	44
437.385	1	53
437.556	1	45
437.726	1	39
437.897	1	38
438.067	1	51
438.238	1	49
438.408	1	45
438.579	1	43
438.749	1	39
438.920	1	49
439.090	1	49
439.261	1	46
439.431	1	45
439.602	1	47
439.772	1	38
439.943	1	41
440.113	1	43
440.284	1	39
440.455	1	44
440.625	1	48
440.796	1	44
440.966	1	52
441.137	1	40
441.307	1	46
441.478	1	31
441.648	1	41
441.819	1	41
441.989	1	42
442.160	1	53
442.330	1	51
442.501	1	41
442.671	1	49
442.842	1	45
443.012	1	45
443.183	1	52
443.353	1	39
443.524	1	33
443.694	1	36
443.865	1	43
444.035	1	46
444.206	1	38
444.376	1	47
444.547	1	42
444.717	1	44
444.888	1	51
445.058	1	35
445.229	1	37
445.399	1	34
445.570	1	46
445.740	1	45
445.911	1	41
446.081	1	45
446.252	1	36
446.422	1	44
446.593	1	39
446.763	1	35
446.934	1	37
447.104	1	47
447.275	1	43
447.445	1	39
447.616	1	43
447.786	1	49
447.957	1	42
448.127	1	23
448.298	1	30
448.468	1	42
448.639	1	57
448.809	1	40
448.979	1	37
449.150	1	47
449.320	1	41
449.491	1	47
449.661	1	38
449.832	1	31
450.002	1	35
450.173	1	48
450.343	1	35
450.514	1	35
450.684	1	47
450.855	1	50
451.025	1	52
451.196	1	46
451.366	1	46
451.537	1	41
451.707	1	39
451.878	1	35
452.048	1	39
452.218	1	46
452.389	1	54
452.559	1	51
452.730	1	35
452.900	1	40
453.071	1	34
453.241	1	31
453.412	1	40
453.582	1	46
453.753	1	45
453.923	1	39
454.093	1	26
454.264	1	43
454.434	1	34
454.605	1	45
454.775	1	48
454.946	1	50
455.116	1	36
455.287	1	40
455.457	1	32
455.628	1	20
455.798	1	36
455.968	1	34
456.139	1	35
456.309	1	38
456.480	1	42
456.650	1	44
456.821	1	41
456.991	1	36
457.161	1	39
457.332	1	41
457.502	1	51
457.673	1	33
457.843	1	31
458.014	1	43
458.184	1	31
458.355	1	43
458.525	1	47
458.695	1	32
458.866	1	25
459.036	1	38
459.207	1	43
459.377	1	34
459.548	1	36
459.718	1	40
459.888	1	38
460.059	1	33
460.229	1	45
460.400	1	40
460.570	1	38
460.740	1	26
460.911	1	50
461.081	1	31
461.252	1	35
461.422	1	31
461.593	1	42
461.763	1	35
461.933	1	33
462.104	1	41
462.274	1	33
462.445	1	40
462.615	1	36
462.785	1	32
462.956	1	32
463.126	1	32
463.297	1	35
463.467	1	32
463.638	1	36
463.808	1	27
463.978	1	34
464.149	1	43
464.319	1	39
464.490	1	34
464.660	1	29
464.830	1	34
465.001	1	33
465.171	1	34
465.342	1	35
465.512	1	40
465.682	1	35
465.853	1	32
466.023	1	46
466.194	1	42
466.364	1	28
466.534	1	26
466.705	1	36
466.875	1	34
467.045	1	37
467.216	1	32
467.386	1	30
467.557	1	33
467.727	1	27
467.897	1	40
468.068	1	27
468.238	1	23
468.409	1	32
468.579	1	34
468.749	1	40
468.920	1	35
469.090	1	38
469.260	1	35
469.431	1	25
469.601	1	42
469.772	1	23
469.942	1	30
470.112	1	24
470.283	1	38
470.453	1	28
470.623	1	42
470.794	1	22
470.964	1	35
471.135	1	39
471.305	1	30
471.475	1	27
471.646	1	44
471.816	1	41
471.986	1	39
472.157	1	36
472.327	1	26
472.497	1	29
472.668	1	20
472.838	1	28
473.009	1	32
473.179	1	34
473.349	1	30
473.520	1	30
473.690	1	39
473.860	1	29
474.031	1	44
474.201	1	27
474.371	1	35
474.542	1	31
474.712	1	29
474.882	1	35
475.053	1	24
475.223	1	44
475.394	1	21
475.564	1	30
475.734	1	32
475.905	1	27
476.075	1	22
476.245	1	21
476.416	1	28
476.586	1	28
476.756	1	24
476.927	1	15
477.097	1	17
477.267	1	36
477.438	1	18
477.608	1	20
477.778	1	23
477.949	1	23
478.119	1	20
478.289	1	21
478.460	1	24
478.630	1	27
478.800	1	26
478.971	1	24
479.141	1	36
479.311	1	23
479.482	1	29
479.652	1	29
479.822	1	22
479.993	1	27
480.163	1	28
480.333	1	24
480.504	1	36
480.674	1	24
480.844	1	14
481.015	1	30
481.185	1	30
481.355	1	21
481.525	1	35
481.696	1	31
481.866	1	28
482.036	1	26
482.207	1	32
482.377	1	25
482.547	1	38
482.718	1	37
482.888	1	23
483.058	1	33
483.229	1	39
483.399	1	21
483.569	1	33
483.740	1	15
483.910	1	34
484.080	1	28
484.250	1	21
484.421	1	35
484.591	1	21
484.761	1	12
484.932	1	21
485.102	1	17
485.272	1	7
485.443	1	34
485.613	1	16
485.783	1	16
485.953	1	34
486.124	1	15
486.294	1	26
486.464	1	29
486.635	1	21
486.805	1	19
486.975	1	27
487.146	1	17
487.316	1	20
487.486	1	34
487.656	1	35
487.827	1	23
487.997	1	18
488.167	1	30
488.338	1	19
488.508	1	38
488.678	1	24
488.848	1	27
489.019	1	32
489.189	1	14
489.359	1	18
489.529	1	22
489.700	1	15
489.870	1	19
490.040	1	23
490.211	1	30
490.381	1	32
490.551	1	14
490.721	1	21
490.892	1	20
491.062	1	28
491.232	1	26
491.402	1	19
491.573	1	29
491.743	1	21
491.913	1	32
492.084	1	3
492.254	1	13
492.424	1	33
492.594	1	17
492.765	1	11
492.935	1	26
493.105	1	20
493.275	1	19
493.446	1	8
493.616	1	18
493.786	1	10
493.956	1	31
494.127	1	21
494.297	1	14
494.467	1	22
494.637	1	12
494.808	1	11
494.978	1	10
495.148	1	17
495.318	1	19
495.489	1	12
495.659	1	23
495.829	1	23
495.999	1	17
496.170	1	27
496.340	1	15
496.510	1	27
496.680	1	25
496.851	1	17
497.021	1	31
497.191	1	19
497.361	1	18
497.532	1	28
497.702	1	11
497.872	1	15
498.042	1	26
498.213	1	28
498.383	1	20
498.553	1	28
498.723	1	19
498.894	1	15
499.064	1	24
499.234	1	22
499.404	1	5
499.574	1	12
499.745	1	10
499.915	1	22
500.085	1	15
500.255	1	28
500.426	1	14
500.596	1	18
500.766	1	23
500.936	1	6
501.106	1	13
501.277	1	14
501.447	1	15
501.617	1	14
501.787	1	17
501.958	1	10
502.128	1	22
502.298	1	14
502.468	1	23
502.638	1	7
502.809	1	25
502.979	1	15
503.149	1	25
503.319	1	21
503.489	1	21
503.660	1	17
503.830	1	6
504.000	1	17
504.170	1	11
504.340	1	16
504.511	1	12
504.681	1	11
504.851	1	15
505.021	1	21
505.192	1	23
505.362	1	26
505.532	1	7
505.702	1	17
505.872	1	22
506.043	1	18
506.213	1	13
506.383	1	14
506.553	1	19
506.723	1	9
506.893	1	21
507.064	1	10
507.234	1	26
507.404	1	19
507.574	1	7
507.744	1	21
507.915	1	21
508.085	1	14
508.255	1	7
508.425	1	18
508.595	1	8
508.766	1	12
508.936	1	21
509.106	1	11
509.276	1	14
509.446	1	5
509.616	1	19
509.787	1	8
509.957	1	19
510.127	1	8
510.297	1	21
510.467	1	18
510.638	1	20
510.808	1	19
510.978	1	21
511.148	1	16
511.318	1	15
511.488	1	23
511.659	1	16
511.829	1	6
511.999	1	27
512.169	1	21
512.339	1	19
512.509	1	12
512.680	1	15
512.850	1	12
513.020	1	17
513.190	1	16
513.360	1	9
513.530	1	15
513.700	1	17
513.871	1	19
514.041	1	14
514.211	1	21
514.381	1	2
514.551	1	17
514.721	1	11
514.892	1	14
515.062	1	14
515.232	1	16
515.402	1	16
515.572	1	28
515.742	1	11
515.912	1	15
516.083	1	16
516.253	1	14
516.423	1	11
516.593	1	15
516.763	1	9
516.933	1	10
517.104	1	-3
517.274	1	19
517.444	1	12
517.614	1	10
517.784	1	18
517.954	1	19
518.124	1	26
518.294	1	13
518.465	1	4
518.635	1	21
518.805	1	12
518.975	1	15
519.145	1	18
519.315	1	15
519.485	1	16
519.656	1	17
519.826	1	10
519.996	1	13
520.166	1	4
520.336	1	-1
520.506	1	13
520.676	1	4
520.846	1	21
521.017	1	20
521.187	1	16
521.357	1	17
521.527	1	10
521.697	1	11
521.867	1	5
522.037	1	16
522.207	1	13
522.377	1	17
522.548	1	8
522.718	1	15
522.888	1	13
523.058	1	17
523.228	1	8
523.398	1	17
523.568	1	14
523.738	1	15
523.909	1	21
524.079	1	23
524.249	1	12
524.419	1	17
524.589	1	13
524.759	1	15
524.929	1	5
525.099	1	15
525.269	1	4
525.439	1	3
525.610	1	17
525.780	1	8
525.950	1	13
526.120	1	20
526.290	1	28
526.460	1	9
526.630	1	10
526.800	1	-1
526.970	1	3
527.140	1	14
527.311	1	12
527.481	1	19
527.651	1	18
527.821	1	6
527.991	1	15
528.161	1	17
528.331	1	-2
528.501	1	15
528.671	1	7
528.841	1	17
529.011	1	9
529.181	1	7
529.352	1	6
529.522	1	10
529.692	1	14
529.862	1	9
530.032	1	13
530.202	1	8
530.372	1	13
530.542	1	4
530.712	1	13
530.882	1	6
531.052	1	24
531.222	1	6
531.392	1	10
531.563	1	4
531.733	1	12
531.903	1	8
532.073	1	11
532.243	1	16
532.413	1	12
532.583	1	7
532.753	1	13
532.923	1	12
533.093	1	19
533.263	1	16
533.433	1	7
533.603	1	13
533.773	1	22
533.943	1	9
534.113	1	13
534.284	1	17
534.454	1	2
534.624	1	16
534.794	1	9
534.964	1	15
535.134	1	11
535.304	1	3
535.474	1	6
535.644	1	11
535.814	1	6
535.984	1	17
536.154	1	16
536.324	1	4
536.494	1	15
536.664	1	15
536.834	1	7
537.004	1	4
537.174	1	-4
537.344	1	9
537.514	1	11
537.685	1	15
537.855	1	13
538.025	1	9
538.195	1	13
538.365	1	11
538.535	1	10
538.705	1	10
538.875	1	9
539.045	1	11
539.215	1	17
539.385	1	9
539.555	1	1
539.725	1	11
539.895	1	18
540.065	1	10
540.235	1	8
540.405	1	-3
540.575	1	14
540.745	1	13
540.915	1	5
541.085	1	6
541.255	1	10
541.425	1	7
541.595	1	-8
541.765	1	2
541.935	1	19
542.105	1	2
542.275	1	-1
542.445	1	4
542.615	1	11
542.785	1	4
542.955	1	19
543.125	1	13
543.295	1	9
543.465	1	16
543.635	1	2
543.805	1	4
543.975	1	14
544.145	1	9
544.315	1	15
544.485	1	1
544.655	1	2
544.825	1	13
544.995	1	12
545.165	1	13
545.335	1	18
545.505	1	6
545.675	1	11
545.845	1	12
546.015	1	6
546.185	1	11
546.355	1	4
546.525	1	4
546.695	1	9
546.865	1	11
547.035	1	4
547.205	1	13
547.375	1	16
547.545	1	11
547.715	1	6
547.885	1	7
548.055	1	15
548.225	1	11
548.395	1	15
548.565	1	7
548.735	1	4
548.905	1	16
549.075	1	12
549.245	1	14
549.415	1	12
549.585	1	3
549.755	1	6
549.925	1	13
550.095	1	7
550.265	1	14
550.435	1	6
550.605	1	8
550.775	1	5
550.945	1	0
551.115	1	6
551.285	1	8
551.455	1	21
551.625	1	14
551.795	1	28
551.965	1	14
552.135	1	8
552.305	1	12
552.475	1	15
552.645	1	14
552.815	1	9
552.985	1	-7
553.155	1	-1
553.325	1	1
553.495	1	8
553.665	1	10
553.835	1	14
554.004	1	9
554.174	1	3
554.344	1	16
554.514	1	6
554.684	1	2
554.854	1	11
555.024	1	3
555.194	1	3
555.364	1	10
555.534	1	10
555.704	1	13
555.874	1	14
556.044	1	16
556.214	1	10
556.384	1	5
556.554	1	0
556.724	1	8
556.894	1	9
557.064	1	15
557.234	1	12
557.404	1	3
557.573	1	11
557.743	1	0
557.913	1	7
558.083	1	13
558.253	1	3
558.423	1	5
558.593	1	18
558.763	1	19
558.933	1	9
559.103	1	7
559.273	1	10
559.443	1	7
559.613	1	-14
559.783	1	9
559.953	1	4
560.122	1	5
560.292	1	7
560.462	1	5
560.632	1	13
560.802	1	1
560.972	1	1
561.142	1	5
561.312	1	4
561.482	1	15
561.652	1	4
561.822	1	13
561.992	1	7
562.162	1	10
562.331	1	15
562.501	1	0
562.671	1	7
562.841	1	5
563.011	1	1
563.181	1	3
563.351	1	4
563.521	1	9
563.691	1	3
563.861	1	7
564.031	1	6
564.201	1	11
564.370	1	5
564.540	1	2
564.710	1	4
564.880	1	7
565.050	1	7
565.220	1	7
565.390	1	12
565.560	1	14
565.730	1	-2
565.900	1	14
566.069	1	10
566.239	1	-2
566.409	1	13
566.579	1	12
566.749	1	6
566.919	1	-3
567.089	1	5
567.259	1	9
567.429	1	0
567.599	1	8
567.768	1	7
567.938	1	2
568.108	1	4
568.278	1	11
568.448	1	11
568.618	1	26
568.788	1	16
568.958	1	-1
569.128	1	2
569.297	1	7
569.467	1	-2
569.637	1	19
569.807	1	4
569.977	1	13
570.147	1	8
570.317	1	9
570.487	1	-1
570.656	1	14
570.826	1	12
570.996	1	8
571.166	1	10
571.336	1	2
571.506	1	3
571.676	1	10
571.846	1	5
572.015	1	-2
572.185	1	13
572.355	1	14
572.525	1	11
572.695	1	10
572.865	1	7
573.035	1	12
573.205	1	2
573.374	1	11
573.544	1	8
573.714	1	13
573.884	1	8
574.054	1	7
574.224	1	16
574.394	1	5
574.563	1	12
574.733	1	16
574.903	1	10
575.073	1	5
575.243	1	10
575.413	1	5
575.583	1	5
575.752	1	2
575.922	1	7
576.092	1	13
576.262	1	6
576.432	1	17
576.602	1	4
576.772	1	-2
576.941	1	5
577.111	1	9
577.281	1	2
577.451	1	4
577.621	1	8
577.791	1	8
577.960	1	19
578.130	1	6
578.300	1	6
578.470	1	14
578.640	1	2
578.810	1	-3
578.979	1	3
579.149	1	9
579.319	1	1
579.489	1	10
579.659	1	19
579.829	1	8
579.998	1	5
580.168	1	2
580.338	1	2
580.508	1	14
580.678	1	5
580.848	1	1
581.017	1	-2
581.187	1	14
581.357	1	6
581.527	1	3
581.697	1	4
581.867	1	11
582.036	1	12
582.206	1	1
582.376	1	11
582.546	1	2
582.716	1	-1
582.885	1	5
583.055	1	7
583.225	1	11
583.395	1	9
583.565	1	6
583.735	1	10
583.904	1	11
584.074	1	9
584.244	1	13
584.414	1	11
584.584	1	-6
584.753	1	15
584.923	1	10
585.093	1	2
585.263	1	-1
585.433	1	0
585.602	1	-1
585.772	1	6
585.942	1	9
586.112	1	6
586.282	1	14
586.451	1	10
586.621	1	10
586.791	1	8
586.961	1	6
587.131	1	7
587.300	1	1
587.470	1	22
587.640	1	10
587.810	1	15
587.980	1	8
588.149	1	2
588.319	1	1
588.489	1	8
588.659	1	20
588.829	1	8
588.998	1	7
589.168	1	17
589.338	1	8
589.508	1	7
589.677	1	2
589.847	1	23
590.017	1	10
590.187	1	9
590.357	1	0
590.526	1	-6
590.696	1	2
590.866	1	14
591.036	1	23
591.205	1	7
591.375	1	-6
591.545	1	12
591.715	1	-7
591.885	1	4
592.054	1	3
592.224	1	19
592.394	1	2
592.564	1	14
592.733	1	23
592.903	1	10
593.073	1	3
593.243	1	19
593.412	1	16
593.582	1	5
593.752	1	6
593.922	1	7
594.091	1	11
594.261	1	11
594.431	1	13
594.601	1	8
594.771	1	2
594.940	1	-3
595.110	1	0
595.280	1	5
595.450	1	8
595.619	1	5
595.789	1	2
595.959	1	17
596.129	1	19
596.298	1	14
596.468	1	11
596.638	1	-1
596.808	1	2
596.977	1	9
597.147	1	8
597.317	1	3
597.487	1	4
597.656	1	4
597.826	1	3
597.996	1	4
598.166	1	7
598.335	1	5
598.505	1	6
598.675	1	11
598.844	1	7
599.014	1	4
599.184	1	11
599.354	1	15
599.523	1	3
599.693	1	14
599.863	1	6
600.033	1	4
600.202	1	9
600.372	1	-4
600.542	1	5
600.712	1	6
600.881	1	16
601.051	1	4
601.221	1	15
601.390	1	-3
601.560	1	-3
601.730	1	6
601.900	1	9
602.069	1	9
602.239	1	19
602.409	1	12
602.578	1	1
602.748	1	7
602.918	1	3
603.088	1	7
603.257	1	14
603.427	1	8
603.597	1	11
603.767	1	1
603.936	1	-11
604.106	1	-2
604.276	1	9
604.445	1	7
604.615	1	7
604.785	1	14
604.954	1	11
605.124	1	12
605.294	1	9
605.464	1	20
605.633	1	-3
605.803	1	14
605.973	1	10
606.142	1	12
606.312	1	-3
606.482	1	8
606.652	1	3
606.821	1	-1
606.991	1	18
607.161	1	8
607.330	1	-2
607.500	1	11
607.670	1	0
607.839	1	0
608.009	1	-4
608.179	1	5
608.348	1	14
608.518	1	8
608.688	1	27
608.858	1	12
609.027	1	16
609.197	1	-2
609.367	1	4
609.536	1	8
609.706	1	8
609.876	1	3
610.045	1	1
610.215	1	8
610.385	1	4
610.554	1	13
610.724	1	8
610.894	1	11
611.063	1	4
611.233	1	11
611.403	1	13
611.572	1	5
611.742	1	-2
611.912	1	5
612.081	1	10
612.251	1	9
612.421	1	12
612.590	1	4
612.760	1	17
612.930	1	-2
613.099	1	8
613.269	1	12
613.439	1	12
613.608	1	1
613.778	1	5
613.948	1	9
614.117	1	5
614.287	1	12
614.457	1	4
614.626	1	16
614.796	1	13
614.966	1	17
615.135	1	18
615.305	1	17
615.475	1	17
615.644	1	5
615.814	1	4
615.984	1	16
616.153	1	14
616.323	1	14
616.493	1	-2
616.662	1	7
616.832	1	6
617.002	1	1
617.171	1	8
617.341	1	5
617.511	1	9
617.680	1	12
617.850	1	21
618.019	1	15
618.189	1	3
618.359	1	9
618.528	1	11
618.698	1	0
618.868	1	-5
619.037	1	14
619.207	1	9
619.377	1	4
619.546	1	14
619.716	1	10
619.885	1	9
620.055	1	-8
620.225	1	16
620.394	1	12
620.564	1	3
620.734	1	10
620.903	1	7
621.073	1	15
621.242	1	22
621.412	1	3
621.582	1	8
621.751	1	9
621.921	1	10
622.091	1	-2
622.260	1	6
622.430	1	10
622.599	1	16
622.769	1	9
622.939	1	18
623.108	1	11
623.278	1	7
623.448	1	12
623.617	1	14
623.787	1	8
623.956	1	6
624.126	1	7
624.296	1	10
624.465	1	-1
624.635	1	24
624.804	1	11
624.974	1	12
625.144	1	5
625.313	1	13
625.483	1	19
625.652	1	5
625.822	1	25
625.992	1	17
626.161	1	19
626.331	1	10
626.501	1	25
626.670	1	-1
626.840	1	3
627.009	1	16
627.179	1	13
627.348	1	11
627.518	1	7
627.688	1	-3
627.857	1	28
628.027	1	9
628.196	1	10
628.366	1	0
628.536	1	15
628.705	1	6
628.875	1	16
629.044	1	8
629.214	1	15
629.384	1	14
629.553	1	9
629.723	1	7
629.892	1	9
630.062	1	16
630.232	1	3
630.401	1	5
630.571	1	6
630.740	1	5
630.910	1	9
631.079	1	10
631.249	1	13
631.419	1	-3
631.588	1	12
631.758	1	16
631.927	1	11
632.097	1	4
632.266	1	11
632.436	1	6
632.606	1	17
632.775	1	29
632.945	1	16
633.114	1	6
633.284	1	14
633.453	1	2
633.623	1	8
633.793	1	20
633.962	1	11
634.132	1	12
634.301	1	1
634.471	1	7
634.640	1	9
634.810	1	16
634.979	1	14
635.149	1	12
635.319	1	23
635.488	1	18
635.658	1	18
635.827	1	17
635.997	1	8
636.166	1	15
636.336	1	12
636.505	1	16
636.675	1	0
636.845	1	15
637.014	1	18
637.184	1	16
637.353	1	23
637.523	1	25
637.692	1	11
637.862	1	6
638.031	1	13
638.201	1	27
638.370	1	22
638.540	1	7
638.710	1	4
638.879	1	17
639.049	1	14
639.218	1	9
639.388	1	4
639.557	1	25
639.727	1	8
639.896	1	15
640.066	1	25
640.235	1	14
640.405	1	21
640.574	1	17
640.744	1	21
640.914	1	12
641.083	1	8
641.253	1	11
641.422	1	3
641.592	1	5
641.761	1	12
641.931	1	15
642.100	1	18
642.270	1	12
642.439	1	20
642.609	1	6
642.778	1	0
642.948	1	11
643.117	1	6
643.287	1	11
643.456	1	7
643.626	1	23
643.795	1	3
643.965	1	11
644.134	1	1
644.304	1	12
644.473	1	14
644.643	1	14
644.812	1	2
644.982	1	9
645.151	1	5
645.321	1	4
645.490	1	11
645.660	1	6
645.829	1	8
645.999	1	10
646.168	1	13
646.338	1	1
646.507	1	3
646.677	1	10
646.846	1	5
647.016	1	18
647.185	1	10
647.355	1	19
647.524	1	1
647.694	1	16
647.863	1	11
648.033	1	6
648.202	1	-2
648.372	1	3
648.541	1	12
648.711	1	7
648.880	1	17
649.050	1	14
649.219	1	10
649.389	1	12
649.558	1	14
649.728	1	11
649.897	1	13
650.067	1	-2
650.236	1	6
650.406	1	14
650.575	1	18
650.745	1	16
650.914	1	24
651.084	1	9
651.253	1	6
651.423	1	25
651.592	1	10
651.762	1	7
651.931	1	13
652.101	1	6
652.270	1	11
652.440	1	0
652.609	1	7
652.778	1	9
652.948	1	21
653.117	1	14
653.287	1	6
653.456	1	12
653.626	1	16
653.795	1	14
653.965	1	10
654.134	1	8
654.304	1	7
654.473	1	23
654.643	1	3
654.812	1	0
654.982	1	17
655.151	1	13
655.320	1	14
655.490	1	9
655.659	1	6
655.829	1	6
655.998	1	5
656.168	1	0
656.337	1	10
656.507	1	4
656.676	1	9
656.846	1	10
657.015	1	13
657.184	1	8
657.354	1	9
657.523	1	3
657.693	1	16
657.862	1	7
658.032	1	22
658.201	1	18
658.371	1	9
658.540	1	8
658.709	1	8
658.879	1	6
659.048	1	19
659.218	1	15
659.387	1	10
659.557	1	1
659.726	1	8
659.895	1	10
660.065	1	14
660.234	1	-1
660.404	1	19
660.573	1	11
660.743	1	7
660.912	1	8
661.081	1	11
661.251	1	17
661.420	1	4
661.590	1	9
661.759	1	9
661.929	1	10
662.098	1	5
662.267	1	13
662.437	1	15
662.606	1	11
662.776	1	7
662.945	1	6
663.115	1	4
663.284	1	11
663.453	1	7
663.623	1	1
663.792	1	13
663.962	1	8
664.131	1	10
664.300	1	2
664.470	1	-2
664.639	1	15
664.809	1	2
664.978	1	-1
665.148	1	10
665.317	1	17
665.486	1	1
665.656	1	7
665.825	1	13
665.995	1	6
666.164	1	25
666.333	1	10
666.503	1	12
666.672	1	9
666.842	1	13
667.011	1	1
667.180	1	12
667.350	1	6
667.519	1	11
667.689	1	5
667.858	1	10
668.027	1	10
668.197	1	3
668.366	1	21
668.536	1	12
668.705	1	12
668.874	1	11
669.044	1	2
669.213	1	4
669.382	1	9
669.552	1	-1
669.721	1	10
669.891	1	10
670.060	1	13
670.229	1	13
670.399	1	4
670.568	1	2
670.738	1	16
670.907	1	11
671.076	1	18
671.246	1	7
671.415	1	-2
671.584	1	2
671.754	1	16
671.923	1	6
672.093	1	7
672.262	1	8
672.431	1	7
672.601	1	17
672.770	1	8
672.939	1	10
673.109	1	16
673.278	1	19
673.448	1	8
673.617	1	3
673.786	1	-4
