325.333	1	11
325.504	1	5
325.675	1	2
325.846	1	-9
326.017	1	11
326.188	1	3
326.359	1	-1
326.531	1	13
326.702	1	13
326.873	1	-4
327.044	1	-6
327.215	1	1
327.386	1	9
327.557	1	9
327.728	1	9
327.899	1	5
328.070	1	1
328.241	1	-2
328.412	1	-3
328.583	1	11
328.754	1	1
328.926	1	6
329.097	1	5
329.268	1	14
329.439	1	6
329.610	1	15
329.781	1	-2
329.952	1	-4
330.123	1	8
330.294	1	16
330.465	1	1
330.636	1	12
330.807	1	8
330.978	1	1
331.149	1	-4
331.320	1	16
331.492	1	16
331.663	1	-4
331.834	1	10
332.005	1	2
332.176	1	6
332.347	1	5
332.518	1	7
332.689	1	6
332.860	1	-7
333.031	1	0
333.202	1	4
333.373	1	9
333.544	1	7
333.715	1	2
333.886	1	4
334.057	1	18
334.228	1	-3
334.399	1	3
334.570	1	10
334.741	1	-3
334.912	1	20
335.084	1	7
335.255	1	21
335.426	1	3
335.597	1	11
335.768	1	8
335.939	1	7
336.110	1	8
336.281	1	3
336.452	1	9
336.623	1	5
336.794	1	3
336.965	1	15
337.136	1	8
337.307	1	14
337.478	1	3
337.649	1	9
337.820	1	-5
337.991	1	17
338.162	1	9
338.333	1	8
338.504	1	2
338.675	1	7
338.846	1	10
339.017	1	5
339.188	1	7
339.359	1	6
339.530	1	2
339.701	1	19
339.872	1	8
340.043	1	13
340.214	1	-3
340.385	1	-2
340.556	1	13
340.727	1	16
340.898	1	13
341.069	1	3
341.240	1	9
341.411	1	4
341.582	1	15
341.753	1	20
341.924	1	14
342.095	1	7
342.266	1	8
342.437	1	10
342.608	1	10
342.779	1	5
342.950	1	15
343.121	1	10
343.292	1	9
343.463	1	1
343.634	1	-2
343.805	1	10
343.976	1	5
344.147	1	6
344.318	1	5
344.489	1	9
344.660	1	16
344.831	1	-4
345.002	1	13
345.173	1	5
345.344	1	4
345.515	1	5
345.686	1	-4
345.857	1	4
346.028	1	10
346.199	1	4
346.370	1	9
346.541	1	5
346.712	1	4
346.883	1	6
347.054	1	-3
347.225	1	9
347.396	1	6
347.567	1	12
347.738	1	-1
347.909	1	9
348.080	1	-1
348.251	1	15
348.422	1	-3
348.593	1	0
348.764	1	6
348.935	1	-8
349.106	1	13
349.277	1	15
349.448	1	4
349.619	1	2
349.790	1	17
349.961	1	4
350.132	1	-4
350.303	1	1
350.474	1	3
350.645	1	-4
350.816	1	10
350.987	1	-4
351.157	1	10
351.328	1	7
351.499	1	13
351.670	1	8
351.841	1	17
352.012	1	16
352.183	1	1
352.354	1	16
352.525	1	3
352.696	1	8
352.867	1	5
353.038	1	1
353.209	1	10
353.380	1	8
353.551	1	-5
353.722	1	-6
353.893	1	6
354.064	1	9
354.235	1	3
354.406	1	7
354.576	1	1
354.747	1	10
354.918	1	10
355.089	1	-6
355.260	1	1
355.431	1	-4
355.602	1	-6
355.773	1	2
355.944	1	11
356.115	1	10
356.286	1	-2
356.457	1	16
356.628	1	6
356.799	1	0
356.970	1	6
357.141	1	12
357.311	1	-5
357.482	1	1
357.653	1	-9
357.824	1	3
357.995	1	10
358.166	1	5
358.337	1	9
358.508	1	6
358.679	1	-1
358.850	1	1
359.021	1	-11
359.192	1	3
359.363	1	7
359.533	1	4
359.704	1	0
359.875	1	2
360.046	1	7
360.217	1	9
360.388	1	1
360.559	1	8
360.730	1	3
360.901	1	4
361.072	1	2
361.243	1	8
361.414	1	-1
361.584	1	-4
361.755	1	-4
361.926	1	-7
362.097	1	0
362.268	1	7
362.439	1	0
362.610	1	4
362.781	1	-7
362.952	1	-5
363.123	1	-1
363.293	1	9
363.464	1	-5
363.635	1	8
363.806	1	-7
363.977	1	14
364.148	1	8
364.319	1	5
364.490	1	1
364.661	1	-15
364.832	1	10
365.002	1	7
365.173	1	-2
365.344	1	-5
365.515	1	-2
365.686	1	-1
365.857	1	0
366.028	1	7
366.199	1	0
366.370	1	-5
366.540	1	5
366.711	1	1
366.882	1	12
367.053	1	2
367.224	1	-8
367.395	1	-5
367.566	1	1
367.737	1	14
367.908	1	2
368.078	1	-5
368.249	1	-1
368.420	1	5
368.591	1	1
368.762	1	11
368.933	1	15
369.104	1	13
369.274	1	4
369.445	1	-2
369.616	1	10
369.787	1	-5
369.958	1	3
370.129	1	4
370.300	1	0
370.471	1	-3
370.641	1	5
370.812	1	-3
370.983	1	12
371.154	1	3
371.325	1	17
371.496	1	1
371.667	1	5
371.837	1	6
372.008	1	2
372.179	1	2
372.350	1	-4
372.521	1	-3
372.692	1	-3
372.863	1	0
373.033	1	7
373.204	1	7
373.375	1	-11
373.546	1	-5
373.717	1	4
373.888	1	-3
374.059	1	0
374.229	1	2
374.400	1	-1
374.571	1	10
374.742	1	2
374.913	1	-1
375.084	1	0
375.254	1	4
375.425	1	4
375.596	1	10
375.767	1	10
375.938	1	5
376.109	1	-5
376.279	1	-13
376.450	1	-3
376.621	1	7
376.792	1	-5
376.963	1	8
377.134	1	1
377.304	1	-8
377.475	1	1
377.646	1	10
377.817	1	0
377.988	1	8
378.159	1	3
378.329	1	-2
378.500	1	-1
378.671	1	7
378.842	1	11
379.013	1	7
379.184	1	1
379.354	1	-8
379.525	1	5
379.696	1	13
379.867	1	12
380.038	1	8
380.209	1	3
380.379	1	5
380.550	1	-2
380.721	1	5
380.892	1	6
381.063	1	2
381.233	1	12
381.404	1	9
381.575	1	13
381.746	1	-8
381.917	1	0
382.087	1	9
382.258	1	11
382.429	1	4
382.600	1	4
382.771	1	6
382.941	1	8
383.112	1	-7
383.283	1	-2
383.454	1	2
383.625	1	-3
383.795	1	7
383.966	1	12
384.137	1	10
384.308	1	19
384.479	1	8
384.649	1	9
384.820	1	9
384.991	1	16
385.162	1	8
385.333	1	0
385.503	1	0
385.674	1	5
385.845	1	0
386.016	1	20
386.187	1	0
386.357	1	7
386.528	1	12
386.699	1	-1
386.870	1	0
387.041	1	5
387.211	1	1
387.382	1	16
387.553	1	3
387.724	1	-11
387.894	1	-2
388.065	1	13
388.236	1	10
388.407	1	7
388.578	1	7
388.748	1	2
388.919	1	-4
389.090	1	14
389.261	1	-1
389.431	1	12
389.602	1	3
389.773	1	4
389.944	1	3
390.114	1	1
390.285	1	10
390.456	1	16
390.627	1	2
390.798	1	17
390.968	1	11
391.139	1	2
391.310	1	11
391.481	1	4
391.651	1	5
391.822	1	7
391.993	1	-1
392.164	1	6
392.334	1	2
392.505	1	3
392.676	1	-2
392.847	1	3
393.017	1	4
393.188	1	1
393.359	1	12
393.530	1	3
393.700	1	8
393.871	1	7
394.042	1	12
394.213	1	11
394.383	1	7
394.554	1	-3
394.725	1	14
394.896	1	1
395.066	1	3
395.237	1	4
395.408	1	15
395.579	1	13
395.749	1	1
395.920	1	-1
396.091	1	12
396.262	1	6
396.432	1	3
396.603	1	7
396.774	1	9
396.945	1	-1
397.115	1	17
397.286	1	-2
397.457	1	14
397.627	1	6
397.798	1	10
397.969	1	13
398.140	1	1
398.310	1	12
398.481	1	2
398.652	1	3
398.823	1	14
398.993	1	16
399.164	1	11
399.335	1	8
399.505	1	-1
399.676	1	-2
399.847	1	6
400.018	1	14
400.188	1	-3
400.359	1	-3
400.530	1	21
400.700	1	-1
400.871	1	18
401.042	1	5
401.213	1	17
401.383	1	13
401.554	1	18
401.725	1	4
401.895	1	8
402.066	1	0
402.237	1	23
402.408	1	9
402.578	1	13
402.749	1	14
402.920	1	-3
403.090	1	0
403.261	1	3
403.432	1	0
403.603	1	10
403.773	1	4
403.944	1	11
404.115	1	10
404.285	1	-4
404.456	1	7
404.627	1	7
404.797	1	9
404.968	1	0
405.139	1	8
405.310	1	10
405.480	1	8
405.651	1	10
405.822	1	-1
405.992	1	12
406.163	1	5
406.334	1	18
406.504	1	10
406.675	1	14
406.846	1	6
407.016	1	21
407.187	1	10
407.358	1	10
407.528	1	2
407.699	1	8
407.870	1	7
408.041	1	18
408.211	1	16
408.382	1	6
408.553	1	12
408.723	1	20
408.894	1	3
409.065	1	16
409.235	1	-10
409.406	1	8
409.577	1	8
409.747	1	0
409.918	1	21
410.089	1	18
410.259	1	19
410.430	1	11
410.601	1	14
410.771	1	12
410.942	1	14
411.113	1	13
411.283	1	15
411.454	1	17
411.625	1	14
411.795	1	11
411.966	1	22
412.137	1	25
412.307	1	2
412.478	1	8
412.649	1	11
412.819	1	18
412.990	1	13
413.161	1	13
413.331	1	22
413.502	1	20
413.672	1	3
413.843	1	23
414.014	1	2
414.184	1	19
414.355	1	19
414.526	1	10
414.696	1	6
414.867	1	20
415.038	1	11
415.208	1	-7
415.379	1	6
415.550	1	8
415.720	1	7
415.891	1	11
416.062	1	4
416.232	1	21
416.403	1	0
416.573	1	23
416.744	1	10
416.915	1	10
417.085	1	16
417.256	1	16
417.427	1	17
417.597	1	14
417.768	1	7
417.939	1	11
418.109	1	19
418.280	1	16
418.450	1	21
418.621	1	7
418.792	1	7
418.962	1	18
419.133	1	21
419.304	1	15
419.474	1	14
419.645	1	6
419.815	1	20
419.986	1	9
420.157	1	5
420.327	1	11
420.498	1	7
420.669	1	15
420.839	1	10
421.010	1	10
421.180	1	11
421.351	1	3
421.522	1	0
421.692	1	10
421.863	1	15
422.033	1	15
422.204	1	4
422.375	1	18
422.545	1	13
422.716	1	14
422.886	1	11
423.057	1	15
423.228	1	12
423.398	1	22
423.569	1	19
423.740	1	16
423.910	1	16
424.081	1	8
424.251	1	14
424.422	1	8
424.593	1	13
424.763	1	11
424.934	1	12
425.104	1	16
425.275	1	13
425.445	1	13
425.616	1	9
425.787	1	16
425.957	1	10
426.128	1	20
426.298	1	-2
426.469	1	16
426.640	1	5
426.810	1	12
426.981	1	20
427.151	1	12
427.322	1	19
427.493	1	14
427.663	1	17
427.834	1	2
428.004	1	14
428.175	1	6
428.345	1	19
428.516	1	28
428.687	1	3
428.857	1	0
429.028	1	14
429.198	1	9
429.369	1	7
429.540	1	13
429.710	1	13
429.881	1	6
430.051	1	3
430.222	1	15
430.392	1	18
430.563	1	9
430.734	1	22
430.904	1	11
431.075	1	5
431.245	1	11
431.416	1	-5
431.586	1	22
431.757	1	12
431.927	1	16
432.098	1	10
432.269	1	15
432.439	1	12
432.610	1	14
432.780	1	2
432.951	1	5
433.121	1	7
433.292	1	4
433.462	1	16
433.633	1	15
433.804	1	10
433.974	1	17
434.145	1	10
434.315	1	18
434.486	1	15
434.656	1	21
434.827	1	14
434.997	1	20
435.168	1	11
435.339	1	11
435.509	1	29
435.680	1	6
435.850	1	1
436.021	1	15
436.191	1	24
436.362	1	12
436.532	1	10
436.703	1	15
436.873	1	17
437.044	1	23
437.214	1	14
437.385	1	16
437.556	1	11
437.726	1	-1
437.897	1	11
438.067	1	19
438.238	1	16
438.408	1	18
438.579	1	13
438.749	1	6
438.920	1	11
439.090	1	13
439.261	1	-1
439.431	1	20
439.602	1	13
439.772	1	12
439.943	1	16
440.113	1	18
440.284	1	14
440.455	1	11
440.625	1	12
440.796	1	12
440.966	1	5
441.137	1	7
441.307	1	24
441.478	1	3
441.648	1	17
441.819	1	3
441.989	1	18
442.160	1	12
442.330	1	19
442.501	1	6
442.671	1	9
442.842	1	11
443.012	1	17
443.183	1	16
443.353	1	9
443.524	1	8
443.694	1	2
443.865	1	6
444.035	1	12
444.206	1	1
444.376	1	12
444.547	1	4
444.717	1	10
444.888	1	12
445.058	1	15
445.229	1	12
445.399	1	13
445.570	1	6
445.740	1	15
445.911	1	1
446.081	1	6
446.252	1	4
446.422	1	0
446.593	1	8
446.763	1	4
446.934	1	2
447.104	1	12
447.275	1	17
447.445	1	12
447.616	1	6
447.786	1	10
447.957	1	0
448.127	1	9
448.298	1	5
448.468	1	13
448.639	1	12
448.809	1	16
448.979	1	6
449.150	1	20
449.320	1	18
449.491	1	17
449.661	1	14
449.832	1	-6
450.002	1	1
450.173	1	2
450.343	1	8
450.514	1	4
450.684	1	20
450.855	1	16
451.025	1	15
451.196	1	13
451.366	1	20
451.537	1	0
451.707	1	17
451.878	1	7
452.048	1	-5
452.218	1	3
452.389	1	11
452.559	1	17
452.730	1	-1
452.900	1	8
453.071	1	17
453.241	1	18
453.412	1	7
453.582	1	7
453.753	1	13
453.923	1	3
454.093	1	-5
454.264	1	15
454.434	1	8
454.605	1	-2
454.775	1	9
454.946	1	12
455.116	1	12
455.287	1	18
455.457	1	10
455.628	1	-4
455.798	1	1
455.968	1	2
456.139	1	0
456.309	1	19
456.480	1	6
456.650	1	9
456.821	1	5
456.991	1	14
457.161	1	12
457.332	1	5
457.502	1	25
457.673	1	3
457.843	1	8
458.014	1	5
458.184	1	9
458.355	1	20
458.525	1	8
458.695	1	7
458.866	1	5
459.036	1	6
459.207	1	12
459.377	1	3
459.548	1	0
459.718	1	3
459.888	1	3
460.059	1	1
460.229	1	8
460.400	1	20
460.570	1	8
460.740	1	-2
460.911	1	23
461.081	1	9
461.252	1	14
461.422	1	4
461.593	1	16
461.763	1	7
461.933	1	12
462.104	1	11
462.274	1	-3
462.445	1	9
462.615	1	11
462.785	1	1
462.956	1	-5
463.126	1	14
463.297	1	14
463.467	1	15
463.638	1	0
463.808	1	11
463.978	1	10
464.149	1	5
464.319	1	3
464.490	1	-2
464.660	1	1
464.830	1	8
465.001	1	10
465.171	1	16
465.342	1	9
465.512	1	12
465.682	1	6
465.853	1	9
466.023	1	14
466.194	1	9
466.364	1	5
466.534	1	5
466.705	1	14
466.875	1	6
467.045	1	15
467.216	1	6
467.386	1	-3
467.557	1	11
467.727	1	3
467.897	1	8
468.068	1	2
468.238	1	-6
468.409	1	4
468.579	1	1
468.749	1	17
468.920	1	11
469.090	1	3
469.260	1	2
469.431	1	2
469.601	1	7
469.772	1	-6
469.942	1	11
470.112	1	2
470.283	1	8
470.453	1	4
470.623	1	3
470.794	1	-9
470.964	1	2
471.135	1	4
471.305	1	3
471.475	1	11
471.646	1	3
471.816	1	5
471.986	1	6
472.157	1	6
472.327	1	2
472.497	1	-5
472.668	1	-6
472.838	1	2
473.009	1	11
473.179	1	1
473.349	1	8
473.520	1	2
473.690	1	7
473.860	1	-3
474.031	1	4
474.201	1	2
474.371	1	18
474.542	1	12
474.712	1	6
474.882	1	12
475.053	1	0
475.223	1	8
475.394	1	0
475.564	1	9
475.734	1	3
475.905	1	2
476.075	1	2
476.245	1	-6
476.416	1	1
476.586	1	12
476.756	1	6
476.927	1	-6
477.097	1	6
477.267	1	6
477.438	1	-5
477.608	1	-5
477.778	1	11
477.949	1	-6
478.119	1	6
478.289	1	2
478.460	1	-4
478.630	1	0
478.800	1	9
478.971	1	-10
479.141	1	0
479.311	1	0
479.482	1	5
479.652	1	5
479.822	1	3
479.993	1	1
480.163	1	6
480.333	1	3
480.504	1	8
480.674	1	4
480.844	1	10
481.015	1	11
481.185	1	1
481.355	1	12
481.525	1	5
481.696	1	19
481.866	1	2
482.036	1	8
482.207	1	18
482.377	1	2
482.547	1	12
482.718	1	11
482.888	1	-1
483.058	1	13
483.229	1	2
483.399	1	3
483.569	1	6
483.740	1	-1
483.910	1	3
484.080	1	8
484.250	1	10
484.421	1	-1
484.591	1	12
484.761	1	-5
484.932	1	-3
485.102	1	4
485.272	1	-5
485.443	1	7
485.613	1	7
485.783	1	-2
485.953	1	9
486.124	1	0
486.294	1	6
486.464	1	6
486.635	1	-1
486.805	1	2
486.975	1	8
487.146	1	3
487.316	1	8
487.486	1	-1
487.656	1	10
487.827	1	7
487.997	1	1
488.167	1	5
488.338	1	10
488.508	1	6
488.678	1	-2
488.848	1	11
489.019	1	10
489.189	1	4
489.359	1	3
489.529	1	1
489.700	1	-5
489.870	1	4
490.040	1	7
490.211	1	15
490.381	1	13
490.551	1	-8
490.721	1	3
490.892	1	-14
491.062	1	2
491.232	1	13
491.402	1	2
491.573	1	6
491.743	1	5
491.913	1	10
492.084	1	-5
492.254	1	7
492.424	1	7
492.594	1	0
492.765	1	-11
492.935	1	3
493.105	1	7
493.275	1	9
493.446	1	-3
493.616	1	-1
493.786	1	0
493.956	1	23
494.127	1	6
494.297	1	6
494.467	1	-3
494.637	1	11
494.808	1	6
494.978	1	6
495.148	1	-7
495.318	1	13
495.489	1	1
495.659	1	2
495.829	1	6
495.999	1	7
496.170	1	-4
496.340	1	4
496.510	1	4
496.680	1	5
496.851	1	2
497.021	1	-1
497.191	1	8
497.361	1	3
497.532	1	-2
497.702	1	3
497.872	1	5
498.042	1	3
498.213	1	8
498.383	1	9
498.553	1	3
498.723	1	-1
498.894	1	7
499.064	1	1
499.234	1	12
499.404	1	-1
499.574	1	3
499.745	1	0
499.915	1	10
500.085	1	3
500.255	1	5
500.426	1	0
500.596	1	3
500.766	1	8
500.936	1	4
501.106	1	5
501.277	1	-5
501.447	1	6
501.617	1	7
501.787	1	12
501.958	1	-2
502.128	1	7
502.298	1	5
502.468	1	1
502.638	1	-2
502.809	1	5
502.979	1	-2
503.149	1	7
503.319	1	5
503.489	1	2
503.660	1	2
503.830	1	-13
504.000	1	0
504.170	1	6
504.340	1	9
504.511	1	-7
504.681	1	7
504.851	1	8
505.021	1	2
505.192	1	1
505.362	1	4
505.532	1	-5
505.702	1	10
505.872	1	-2
506.043	1	8
506.213	1	-5
506.383	1	3
506.553	1	2
506.723	1	-2
506.893	1	4
507.064	1	1
507.234	1	10
507.404	1	2
507.574	1	-3
507.744	1	6
507.915	1	5
508.085	1	17
508.255	1	1
508.425	1	7
508.595	1	6
508.766	1	-1
508.936	1	3
509.106	1	-3
509.276	1	6
509.446	1	3
509.616	1	9
509.787	1	-2
509.957	1	2
510.127	1	-2
510.297	1	9
510.467	1	10
510.638	1	1
510.808	1	3
510.978	1	7
511.148	1	2
511.318	1	6
511.488	1	5
511.659	1	5
511.829	1	-7
511.999	1	14
512.169	1	16
512.339	1	3
512.509	1	-4
512.680	1	2
512.850	1	-1
513.020	1	6
513.190	1	-1
513.360	1	8
513.530	1	-7
513.700	1	11
513.871	1	-1
514.041	1	4
514.211	1	9
514.381	1	10
514.551	1	3
514.721	1	9
514.892	1	3
515.062	1	1
515.232	1	-6
515.402	1	-5
515.572	1	15
515.742	1	0
515.912	1	0
516.083	1	3
516.253	1	-2
516.423	1	5
516.593	1	-1
516.763	1	-12
516.933	1	-2
517.104	1	-8
517.274	1	6
517.444	1	-6
517.614	1	0
517.784	1	-3
517.954	1	10
518.124	1	9
518.294	1	12
518.465	1	-9
518.635	1	9
518.805	1	7
518.975	1	8
519.145	1	3
519.315	1	6
519.485	1	6
519.656	1	8
519.826	1	-5
519.996	1	1
520.166	1	8
520.336	1	-5
520.506	1	3
520.676	1	2
520.846	1	6
521.017	1	1
521.187	1	3
521.357	1	-5
521.527	1	2
521.697	1	-1
521.867	1	-1
522.037	1	4
522.207	1	3
522.377	1	-3
522.548	1	2
522.718	1	7
522.888	1	-2
523.058	1	3
523.228	1	6
523.398	1	8
523.568	1	-1
523.738	1	-9
523.909	1	1
524.079	1	11
524.249	1	8
524.419	1	-2
524.589	1	-9
524.759	1	-7
524.929	1	-5
525.099	1	7
525.269	1	-3
525.439	1	-9
525.610	1	-1
525.780	1	-8
525.950	1	10
526.120	1	14
526.290	1	12
526.460	1	1
526.630	1	4
526.800	1	-11
526.970	1	-1
527.140	1	-3
527.311	1	8
527.481	1	6
527.651	1	10
527.821	1	-12
527.991	1	-3
528.161	1	0
528.331	1	3
528.501	1	-2
528.671	1	6
528.841	1	1
529.011	1	0
529.181	1	8
529.352	1	3
529.522	1	-6
529.692	1	1
529.862	1	-4
530.032	1	4
530.202	1	-11
530.372	1	-3
530.542	1	3
530.712	1	2
530.882	1	-4
531.052	1	10
531.222	1	-6
531.392	1	0
531.563	1	4
531.733	1	9
531.903	1	-2
532.073	1	0
532.243	1	4
532.413	1	3
532.583	1	-8
532.753	1	10
532.923	1	9
533.093	1	7
533.263	1	6
533.433	1	-5
533.603	1	-1
533.773	1	10
533.943	1	8
534.113	1	5
534.284	1	-1
534.454	1	-2
534.624	1	5
534.794	1	4
534.964	1	-6
535.134	1	-4
535.304	1	2
535.474	1	7
535.644	1	2
535.814	1	0
535.984	1	16
536.154	1	1
536.324	1	1
536.494	1	6
536.664	1	4
536.834	1	4
537.004	1	-6
537.174	1	-8
537.344	1	6
537.514	1	8
537.685	1	2
537.855	1	0
538.025	1	9
538.195	1	-4
538.365	1	6
538.535	1	-1
538.705	1	-2
538.875	1	4
539.045	1	-2
539.215	1	8
539.385	1	2
539.555	1	-1
539.725	1	-10
539.895	1	11
540.065	1	1
540.235	1	1
540.405	1	-13
540.575	1	8
540.745	1	-2
540.915	1	0
541.085	1	-2
541.255	1	5
541.425	1	-11
541.595	1	-9
541.765	1	4
541.935	1	14
542.105	1	0
542.275	1	-8
542.445	1	-10
542.615	1	7
542.785	1	3
542.955	1	7
543.125	1	2
543.295	1	5
543.465	1	5
543.635	1	-3
543.805	1	-7
543.975	1	-4
544.145	1	-2
544.315	1	3
544.485	1	1
544.655	1	-3
544.825	1	4
544.995	1	-4
545.165	1	2
545.335	1	6
545.505	1	0
545.675	1	4
545.845	1	3
546.015	1	-2
546.185	1	4
546.355	1	9
546.525	1	5
546.695	1	0
546.865	1	2
547.035	1	-5
547.205	1	0
547.375	1	2
547.545	1	2
547.715	1	-6
547.885	1	6
548.055	1	20
548.225	1	-2
548.395	1	5
548.565	1	-1
548.735	1	3
548.905	1	10
549.075	1	-2
549.245	1	6
549.415	1	7
549.585	1	5
549.755	1	2
549.925	1	6
550.095	1	4
550.265	1	11
550.435	1	6
550.605	1	-5
550.775	1	-6
550.945	1	-5
551.115	1	3
551.285	1	5
551.455	1	4
551.625	1	16
551.795	1	4
551.965	1	2
552.135	1	-4
552.305	1	4
552.475	1	3
552.645	1	2
552.815	1	4
552.985	1	-11
553.155	1	2
553.325	1	-9
553.495	1	7
553.665	1	12
553.835	1	4
554.004	1	5
554.174	1	-3
554.344	1	5
554.514	1	-3
554.684	1	-10
554.854	1	-2
555.024	1	-8
555.194	1	2
555.364	1	2
555.534	1	0
555.704	1	2
555.874	1	8
556.044	1	1
556.214	1	-6
556.384	1	-11
556.554	1	-5
556.724	1	-6
556.894	1	2
557.064	1	3
557.234	1	1
557.404	1	-12
557.573	1	11
557.743	1	-9
557.913	1	4
558.083	1	8
558.253	1	7
558.423	1	3
558.593	1	2
558.763	1	9
558.933	1	-1
559.103	1	1
559.273	1	5
559.443	1	-4
559.613	1	-14
559.783	1	3
559.953	1	-5
560.122	1	-7
560.292	1	-1
560.462	1	-2
560.632	1	7
560.802	1	-7
560.972	1	0
561.142	1	-5
561.312	1	-4
561.482	1	9
561.652	1	1
561.822	1	7
561.992	1	-4
562.162	1	5
562.331	1	-2
562.501	1	2
562.671	1	2
562.841	1	2
563.011	1	-14
563.181	1	-6
563.351	1	2
563.521	1	7
563.691	1	-1
563.861	1	0
564.031	1	5
564.201	1	3
564.370	1	0
564.540	1	-3
564.710	1	8
564.880	1	-6
565.050	1	13
565.220	1	-2
565.390	1	7
565.560	1	8
565.730	1	1
565.900	1	3
566.069	1	3
566.239	1	0
566.409	1	8
566.579	1	-7
566.749	1	-1
566.919	1	-3
567.089	1	0
567.259	1	7
567.429	1	-4
567.599	1	5
567.768	1	-1
567.938	1	0
568.108	1	-11
568.278	1	8
568.448	1	0
568.618	1	3
568.788	1	6
568.958	1	5
569.128	1	-3
569.297	1	7
569.467	1	6
569.637	1	1
569.807	1	4
569.977	1	6
570.147	1	7
570.317	1	1
570.487	1	-6
570.656	1	-2
570.826	1	1
570.996	1	3
571.166	1	9
571.336	1	-1
571.506	1	-1
571.676	1	0
571.846	1	6
572.015	1	-6
572.185	1	-3
572.355	1	8
572.525	1	1
572.695	1	7
572.865	1	5
573.035	1	12
573.205	1	-3
573.374	1	-4
573.544	1	5
573.714	1	9
573.884	1	2
574.054	1	11
574.224	1	12
574.394	1	-2
574.563	1	-1
574.733	1	1
574.903	1	7
575.073	1	2
575.243	1	6
575.413	1	-3
575.583	1	6
575.752	1	1
575.922	1	9
576.092	1	5
576.262	1	-2
576.432	1	6
576.602	1	2
576.772	1	5
576.941	1	-7
577.111	1	0
577.281	1	-2
577.451	1	1
577.621	1	3
577.791	1	13
577.960	1	1
578.130	1	-3
578.300	1	1
578.470	1	7
578.640	1	-3
578.810	1	-3
578.979	1	6
579.149	1	2
579.319	1	-9
579.489	1	3
579.659	1	15
579.829	1	-1
579.998	1	3
580.168	1	6
580.338	1	1
580.508	1	-5
580.678	1	-2
580.848	1	-3
581.017	1	1
581.187	1	6
581.357	1	-4
581.527	1	-4
581.697	1	-2
581.867	1	4
582.036	1	6
582.206	1	-10
582.376	1	0
582.546	1	-12
582.716	1	-7
582.885	1	5
583.055	1	5
583.225	1	10
583.395	1	-6
583.565	1	-7
583.735	1	7
583.904	1	8
584.074	1	10
584.244	1	5
584.414	1	-8
584.584	1	10
584.753	1	0
584.923	1	13
585.093	1	-12
585.263	1	8
585.433	1	1
585.602	1	-3
585.772	1	3
585.942	1	3
586.112	1	-2
586.282	1	7
586.451	1	-2
586.621	1	5
586.791	1	4
586.961	1	-13
587.131	1	2
587.300	1	10
587.470	1	3
587.640	1	2
587.810	1	2
587.980	1	1
588.149	1	0
588.319	1	2
588.489	1	-6
588.659	1	13
588.829	1	3
588.998	1	3
589.168	1	4
589.338	1	-4
589.508	1	-7
589.677	1	0
589.847	1	20
590.017	1	10
590.187	1	10
590.357	1	2
590.526	1	-2
590.696	1	0
590.866	1	8
591.036	1	11
591.205	1	3
591.375	1	-7
591.545	1	14
591.715	1	-7
591.885	1	-1
592.054	1	1
592.224	1	13
592.394	1	-4
592.564	1	7
592.733	1	12
592.903	1	7
593.073	1	-8
593.243	1	2
593.412	1	6
593.582	1	-6
593.752	1	-2
593.922	1	0
594.091	1	6
594.261	1	14
594.431	1	9
594.601	1	0
594.771	1	1
594.940	1	-4
595.110	1	-8
595.280	1	7
595.450	1	11
595.619	1	-4
595.789	1	-3
595.959	1	9
596.129	1	9
596.298	1	11
596.468	1	6
596.638	1	0
596.808	1	-4
596.977	1	3
597.147	1	4
597.317	1	4
597.487	1	-3
597.656	1	-3
597.826	1	1
597.996	1	6
598.166	1	0
598.335	1	-7
598.505	1	2
598.675	1	3
598.844	1	3
599.014	1	-10
599.184	1	8
599.354	1	-3
599.523	1	9
599.693	1	-1
599.863	1	12
600.033	1	-5
600.202	1	8
600.372	1	-5
600.542	1	2
600.712	1	1
600.881	1	5
601.051	1	2
601.221	1	10
601.390	1	-2
601.560	1	4
601.730	1	3
601.900	1	5
602.069	1	1
602.239	1	21
602.409	1	1
602.578	1	-5
602.748	1	5
602.918	1	3
603.088	1	2
603.257	1	9
603.427	1	3
603.597	1	3
603.767	1	-4
603.936	1	-12
604.106	1	-2
604.276	1	-3
604.445	1	-1
604.615	1	-1
604.785	1	-3
604.954	1	-7
605.124	1	5
605.294	1	-3
605.464	1	18
605.633	1	6
605.803	1	1
605.973	1	9
606.142	1	12
606.312	1	1
606.482	1	4
606.652	1	7
606.821	1	-6
606.991	1	14
607.161	1	0
607.330	1	-2
607.500	1	7
607.670	1	-7
607.839	1	-2
608.009	1	-6
608.179	1	2
608.348	1	7
608.518	1	1
608.688	1	5
608.858	1	11
609.027	1	7
609.197	1	-3
609.367	1	8
609.536	1	8
609.706	1	-4
609.876	1	8
610.045	1	-4
610.215	1	10
610.385	1	-1
610.554	1	-3
610.724	1	1
610.894	1	1
611.063	1	-1
611.233	1	5
611.403	1	2
611.572	1	-4
611.742	1	-7
611.912	1	-1
612.081	1	5
612.251	1	15
612.421	1	5
612.590	1	-4
612.760	1	8
612.930	1	-2
613.099	1	6
613.269	1	0
613.439	1	7
613.608	1	-3
613.778	1	-5
613.948	1	-2
614.117	1	5
614.287	1	7
614.457	1	8
614.626	1	4
614.796	1	11
614.966	1	-6
615.135	1	5
615.305	1	-2
615.475	1	2
615.644	1	-6
615.814	1	0
615.984	1	9
616.153	1	-1
616.323	1	5
616.493	1	0
616.662	1	5
616.832	1	4
617.002	1	-2
617.171	1	-8
617.341	1	13
617.511	1	-6
617.680	1	13
617.850	1	3
618.019	1	17
618.189	1	-2
618.359	1	6
618.528	1	4
618.698	1	-2
618.868	1	1
619.037	1	9
619.207	1	-4
619.377	1	-8
619.546	1	-4
619.716	1	-5
619.885	1	9
620.055	1	-8
620.225	1	2
620.394	1	10
620.564	1	14
620.734	1	-4
620.903	1	2
621.073	1	3
621.242	1	6
621.412	1	-6
621.582	1	-3
621.751	1	0
621.921	1	9
622.091	1	12
622.260	1	1
622.430	1	15
622.599	1	7
622.769	1	-3
622.939	1	3
623.108	1	8
623.278	1	7
623.448	1	9
623.617	1	-9
623.787	1	-4
623.956	1	7
624.126	1	-7
624.296	1	-3
624.465	1	1
624.635	1	13
624.804	1	-3
624.974	1	7
625.144	1	5
625.313	1	2
625.483	1	7
625.652	1	-1
625.822	1	9
625.992	1	7
626.161	1	7
626.331	1	9
626.501	1	14
626.670	1	-13
626.840	1	7
627.009	1	14
627.179	1	9
627.348	1	11
627.518	1	3
627.688	1	-6
627.857	1	12
628.027	1	8
628.196	1	1
628.366	1	-4
628.536	1	14
628.705	1	0
628.875	1	13
629.044	1	8
629.214	1	9
629.384	1	15
629.553	1	3
629.723	1	7
629.892	1	9
630.062	1	4
630.232	1	-3
630.401	1	6
630.571	1	-6
630.740	1	5
630.910	1	10
631.079	1	4
631.249	1	10
631.419	1	4
631.588	1	4
631.758	1	11
631.927	1	-5
632.097	1	10
632.266	1	-2
632.436	1	3
632.606	1	7
632.775	1	11
632.945	1	1
633.114	1	7
633.284	1	6
633.453	1	10
633.623	1	3
633.793	1	12
633.962	1	0
634.132	1	8
634.301	1	4
634.471	1	1
634.640	1	5
634.810	1	7
634.979	1	2
635.149	1	6
635.319	1	3
635.488	1	3
635.658	1	4
635.827	1	4
635.997	1	4
636.166	1	8
636.336	1	6
636.505	1	15
636.675	1	-5
636.845	1	2
637.014	1	14
637.184	1	17
637.353	1	1
637.523	1	9
637.692	1	-1
637.862	1	-3
638.031	1	8
638.201	1	7
638.370	1	9
638.540	1	-1
638.710	1	0
638.879	1	6
639.049	1	14
639.218	1	6
639.388	1	4
639.557	1	10
639.727	1	6
639.896	1	5
640.066	1	10
640.235	1	12
640.405	1	10
640.574	1	5
640.744	1	9
640.914	1	11
641.083	1	9
641.253	1	5
641.422	1	1
641.592	1	-2
641.761	1	6
641.931	1	9
642.100	1	2
642.270	1	1
642.439	1	9
642.609	1	9
642.778	1	-2
642.948	1	17
643.117	1	3
643.287	1	-1
643.456	1	11
643.626	1	7
643.795	1	-10
643.965	1	6
644.134	1	1
644.304	1	14
644.473	1	-2
644.643	1	8
644.812	1	4
644.982	1	4
645.151	1	-3
645.321	1	-5
645.490	1	11
645.660	1	7
645.829	1	3
645.999	1	12
646.168	1	5
646.338	1	-7
646.507	1	5
646.677	1	3
646.846	1	-8
647.016	1	2
647.185	1	1
647.355	1	9
647.524	1	9
647.694	1	10
647.863	1	4
648.033	1	2
648.202	1	-5
648.372	1	7
648.541	1	1
648.711	1	3
648.880	1	11
649.050	1	4
649.219	1	5
649.389	1	10
649.558	1	12
649.728	1	1
649.897	1	6
650.067	1	-3
650.236	1	1
650.406	1	4
650.575	1	7
650.745	1	3
650.914	1	5
651.084	1	0
651.253	1	-3
651.423	1	12
651.592	1	8
651.762	1	0
651.931	1	7
652.101	1	-1
652.270	1	5
652.440	1	4
652.609	1	6
652.778	1	1
652.948	1	4
653.117	1	8
653.287	1	1
653.456	1	6
653.626	1	2
653.795	1	-4
653.965	1	9
654.134	1	-2
654.304	1	13
654.473	1	14
654.643	1	-3
654.812	1	-5
654.982	1	7
655.151	1	0
655.320	1	7
655.490	1	-7
655.659	1	3
655.829	1	1
655.998	1	10
656.168	1	2
656.337	1	-2
656.507	1	3
656.676	1	3
656.846	1	7
657.015	1	4
657.184	1	1
657.354	1	5
657.523	1	2
657.693	1	5
657.862	1	-1
658.032	1	11
658.201	1	5
658.371	1	8
658.540	1	-2
658.709	1	6
658.879	1	3
659.048	1	10
659.218	1	9
659.387	1	2
659.557	1	-3
659.726	1	6
659.895	1	-3
660.065	1	11
660.234	1	-4
660.404	1	11
660.573	1	-4
660.743	1	6
660.912	1	4
661.081	1	3
661.251	1	6
661.420	1	0
661.590	1	9
661.759	1	1
661.929	1	9
662.098	1	5
662.267	1	4
662.437	1	-1
662.606	1	4
662.776	1	-7
662.945	1	3
663.115	1	-1
663.284	1	6
663.453	1	-2
663.623	1	5
663.792	1	6
663.962	1	1
664.131	1	3
664.300	1	-5
664.470	1	1
664.639	1	4
664.809	1	7
664.978	1	-2
665.148	1	11
665.317	1	10
665.486	1	2
665.656	1	2
665.825	1	6
665.995	1	-4
666.164	1	16
666.333	1	-3
666.503	1	1
666.672	1	-8
666.842	1	6
667.011	1	1
667.180	1	-8
667.350	1	3
667.519	1	1
667.689	1	4
667.858	1	10
668.027	1	-1
668.197	1	-7
668.366	1	11
668.536	1	-1
668.705	1	7
668.874	1	8
669.044	1	-3
669.213	1	0
669.382	1	4
669.552	1	1
669.721	1	7
669.891	1	7
670.060	1	9
670.229	1	3
670.399	1	3
670.568	1	-5
670.738	1	4
670.907	1	13
671.076	1	1
671.246	1	1
671.415	1	-2
671.584	1	11
671.754	1	7
671.923	1	-9
672.093	1	3
672.262	1	-4
672.431	1	0
672.601	1	2
672.770	1	-3
672.939	1	-3
673.109	1	4
673.278	1	7
673.448	1	10
673.617	1	-2
673.786	1	-10
