325.333	1	7
325.504	1	6
325.675	1	1
325.846	1	-6
326.017	1	15
326.188	1	11
326.359	1	-4
326.531	1	9
326.702	1	15
326.873	1	-2
327.044	1	7
327.215	1	4
327.386	1	6
327.557	1	13
327.728	1	5
327.899	1	19
328.070	1	5
328.241	1	2
328.412	1	-5
328.583	1	20
328.754	1	1
328.926	1	13
329.097	1	4
329.268	1	15
329.439	1	5
329.610	1	14
329.781	1	-3
329.952	1	2
330.123	1	1
330.294	1	13
330.465	1	11
330.636	1	17
330.807	1	15
330.978	1	13
331.149	1	1
331.320	1	20
331.492	1	6
331.663	1	-4
331.834	1	8
332.005	1	0
332.176	1	9
332.347	1	17
332.518	1	13
332.689	1	23
332.860	1	4
333.031	1	1
333.202	1	10
333.373	1	21
333.544	1	9
333.715	1	1
333.886	1	5
334.057	1	18
334.228	1	5
334.399	1	6
334.570	1	9
334.741	1	1
334.912	1	19
335.084	1	12
335.255	1	12
335.426	1	1
335.597	1	8
335.768	1	0
335.939	1	10
336.110	1	13
336.281	1	5
336.452	1	8
336.623	1	14
336.794	1	17
336.965	1	12
337.136	1	13
337.307	1	6
337.478	1	2
337.649	1	20
337.820	1	-8
337.991	1	15
338.162	1	7
338.333	1	12
338.504	1	2
338.675	1	8
338.846	1	10
339.017	1	9
339.188	1	4
339.359	1	12
339.530	1	2
339.701	1	13
339.872	1	3
340.043	1	9
340.214	1	2
340.385	1	2
340.556	1	9
340.727	1	20
340.898	1	14
341.069	1	12
341.240	1	10
341.411	1	18
341.582	1	7
341.753	1	19
341.924	1	6
342.095	1	7
342.266	1	2
342.437	1	11
342.608	1	18
342.779	1	6
342.950	1	4
343.121	1	14
343.292	1	5
343.463	1	3
343.634	1	2
343.805	1	9
343.976	1	9
344.147	1	0
344.318	1	12
344.489	1	8
344.660	1	11
344.831	1	2
345.002	1	14
345.173	1	8
345.344	1	-2
345.515	1	4
345.686	1	6
345.857	1	10
346.028	1	7
346.199	1	14
346.370	1	15
346.541	1	6
346.712	1	10
346.883	1	13
347.054	1	1
347.225	1	6
347.396	1	-2
347.567	1	13
347.738	1	5
347.909	1	5
348.080	1	2
348.251	1	6
348.422	1	-6
348.593	1	0
348.764	1	19
348.935	1	8
349.106	1	2
349.277	1	13
349.448	1	12
349.619	1	11
349.790	1	14
349.961	1	8
350.132	1	6
350.303	1	2
350.474	1	9
350.645	1	8
350.816	1	7
350.987	1	1
351.157	1	7
351.328	1	5
351.499	1	24
351.670	1	6
351.841	1	11
352.012	1	18
352.183	1	-3
352.354	1	12
352.525	1	3
352.696	1	10
352.867	1	6
353.038	1	6
353.209	1	7
353.380	1	3
353.551	1	4
353.722	1	-2
353.893	1	7
354.064	1	28
354.235	1	9
354.406	1	7
354.576	1	-3
354.747	1	-1
354.918	1	10
355.089	1	2
355.260	1	9
355.431	1	8
355.602	1	9
355.773	1	6
355.944	1	3
356.115	1	0
356.286	1	1
356.457	1	9
356.628	1	6
356.799	1	8
356.970	1	-1
357.141	1	11
357.311	1	4
357.482	1	12
357.653	1	-2
357.824	1	1
357.995	1	1
358.166	1	6
358.337	1	7
358.508	1	6
358.679	1	2
358.850	1	7
359.021	1	10
359.192	1	11
359.363	1	0
359.533	1	6
359.704	1	5
359.875	1	5
360.046	1	7
360.217	1	11
360.388	1	3
360.559	1	7
360.730	1	5
360.901	1	13
361.072	1	-3
361.243	1	8
361.414	1	3
361.584	1	-3
361.755	1	8
361.926	1	5
362.097	1	3
362.268	1	10
362.439	1	2
362.610	1	7
362.781	1	4
362.952	1	-1
363.123	1	3
363.293	1	-2
363.464	1	3
363.635	1	0
363.806	1	6
363.977	1	15
364.148	1	16
364.319	1	10
364.490	1	7
364.661	1	-8
364.832	1	10
365.002	1	-6
365.173	1	-2
365.344	1	-8
365.515	1	-3
365.686	1	7
365.857	1	12
366.028	1	10
366.199	1	-1
366.370	1	-1
366.540	1	5
366.711	1	10
366.882	1	18
367.053	1	9
367.224	1	3
367.395	1	-9
367.566	1	1
367.737	1	16
367.908	1	8
368.078	1	2
368.249	1	2
368.420	1	9
368.591	1	-1
368.762	1	3
368.933	1	18
369.104	1	5
369.274	1	6
369.445	1	1
369.616	1	11
369.787	1	11
369.958	1	8
370.129	1	8
370.300	1	4
370.471	1	7
370.641	1	4
370.812	1	-1
370.983	1	6
371.154	1	17
371.325	1	9
371.496	1	3
371.667	1	-4
371.837	1	12
372.008	1	4
372.179	1	4
372.350	1	-7
372.521	1	2
372.692	1	5
372.863	1	-2
373.033	1	10
373.204	1	5
373.375	1	8
373.546	1	6
373.717	1	7
373.888	1	10
374.059	1	4
374.229	1	4
374.400	1	12
374.571	1	7
374.742	1	3
374.913	1	-7
375.084	1	11
375.254	1	9
375.425	1	13
375.596	1	16
375.767	1	2
375.938	1	-4
376.109	1	-6
376.279	1	3
376.450	1	3
376.621	1	0
376.792	1	6
376.963	1	14
377.134	1	-8
377.304	1	-5
377.475	1	6
377.646	1	2
377.817	1	9
377.988	1	-1
378.159	1	5
378.329	1	9
378.500	1	8
378.671	1	-1
378.842	1	12
379.013	1	15
379.184	1	12
379.354	1	14
379.525	1	14
379.696	1	5
379.867	1	4
380.038	1	14
380.209	1	2
380.379	1	13
380.550	1	1
380.721	1	14
380.892	1	6
381.063	1	10
381.233	1	14
381.404	1	11
381.575	1	9
381.746	1	0
381.917	1	8
382.087	1	7
382.258	1	6
382.429	1	9
382.600	1	2
382.771	1	7
382.941	1	9
383.112	1	-3
383.283	1	8
383.454	1	2
383.625	1	7
383.795	1	16
383.966	1	10
384.137	1	-5
384.308	1	14
384.479	1	12
384.649	1	10
384.820	1	-2
384.991	1	16
385.162	1	2
385.333	1	2
385.503	1	6
385.674	1	4
385.845	1	4
386.016	1	14
386.187	1	8
386.357	1	3
386.528	1	14
386.699	1	9
386.870	1	3
387.041	1	5
387.211	1	15
387.382	1	16
387.553	1	11
387.724	1	-14
387.894	1	9
388.065	1	12
388.236	1	4
388.407	1	9
388.578	1	15
388.748	1	11
388.919	1	-6
389.090	1	10
389.261	1	4
389.431	1	11
389.602	1	6
389.773	1	10
389.944	1	8
390.114	1	-1
390.285	1	17
390.456	1	12
390.627	1	23
390.798	1	9
390.968	1	25
391.139	1	17
391.310	1	9
391.481	1	12
391.651	1	11
391.822	1	14
391.993	1	-4
392.164	1	6
392.334	1	4
392.505	1	15
392.676	1	8
392.847	1	9
393.017	1	7
393.188	1	11
393.359	1	21
393.530	1	16
393.700	1	17
393.871	1	6
394.042	1	12
394.213	1	13
394.383	1	7
394.554	1	13
394.725	1	18
394.896	1	12
395.066	1	15
395.237	1	16
395.408	1	14
395.579	1	11
395.749	1	12
395.920	1	4
396.091	1	9
396.262	1	2
396.432	1	10
396.603	1	14
396.774	1	12
396.945	1	8
397.115	1	20
397.286	1	11
397.457	1	24
397.627	1	11
397.798	1	22
397.969	1	13
398.140	1	8
398.310	1	23
398.481	1	12
398.652	1	11
398.823	1	18
398.993	1	8
399.164	1	4
399.335	1	7
399.505	1	2
399.676	1	8
399.847	1	13
400.018	1	22
400.188	1	9
400.359	1	5
400.530	1	28
400.700	1	18
400.871	1	22
401.042	1	20
401.213	1	13
401.383	1	17
401.554	1	21
401.725	1	-1
401.895	1	12
402.066	1	-1
402.237	1	13
402.408	1	19
402.578	1	12
402.749	1	16
402.920	1	7
403.090	1	24
403.261	1	13
403.432	1	1
403.603	1	17
403.773	1	18
403.944	1	20
404.115	1	19
404.285	1	9
404.456	1	20
404.627	1	21
404.797	1	6
404.968	1	10
405.139	1	11
405.310	1	12
405.480	1	15
405.651	1	21
405.822	1	10
405.992	1	26
406.163	1	5
406.334	1	13
406.504	1	15
406.675	1	17
406.846	1	13
407.016	1	27
407.187	1	19
407.358	1	16
407.528	1	13
407.699	1	11
407.870	1	16
408.041	1	12
408.211	1	25
408.382	1	4
408.553	1	22
408.723	1	16
408.894	1	13
409.065	1	8
409.235	1	13
409.406	1	17
409.577	1	18
409.747	1	14
409.918	1	16
410.089	1	16
410.259	1	21
410.430	1	14
410.601	1	18
410.771	1	19
410.942	1	13
411.113	1	14
411.283	1	11
411.454	1	15
411.625	1	20
411.795	1	25
411.966	1	16
412.137	1	18
412.307	1	5
412.478	1	19
412.649	1	25
412.819	1	16
412.990	1	12
413.161	1	22
413.331	1	13
413.502	1	20
413.672	1	14
413.843	1	14
414.014	1	13
414.184	1	21
414.355	1	21
414.526	1	23
414.696	1	16
414.867	1	23
415.038	1	11
415.208	1	7
415.379	1	13
415.550	1	13
415.720	1	10
415.891	1	17
416.062	1	14
416.232	1	29
416.403	1	9
416.573	1	20
416.744	1	32
416.915	1	10
417.085	1	23
417.256	1	14
417.427	1	15
417.597	1	24
417.768	1	10
417.939	1	14
418.109	1	29
418.280	1	23
418.450	1	19
418.621	1	13
418.792	1	15
418.962	1	19
419.133	1	16
419.304	1	10
419.474	1	15
419.645	1	22
419.815	1	22
419.986	1	26
420.157	1	20
420.327	1	15
420.498	1	5
420.669	1	14
420.839	1	10
421.010	1	17
421.180	1	16
421.351	1	25
421.522	1	20
421.692	1	8
421.863	1	32
422.033	1	21
422.204	1	22
422.375	1	33
422.545	1	19
422.716	1	30
422.886	1	32
423.057	1	26
423.228	1	25
423.398	1	24
423.569	1	10
423.740	1	30
423.910	1	20
424.081	1	18
424.251	1	31
424.422	1	18
424.593	1	10
424.763	1	18
424.934	1	26
425.104	1	27
425.275	1	23
425.445	1	6
425.616	1	23
425.787	1	25
425.957	1	18
426.128	1	28
426.298	1	5
426.469	1	22
426.640	1	14
426.810	1	30
426.981	1	22
427.151	1	23
427.322	1	30
427.493	1	15
427.663	1	19
427.834	1	6
428.004	1	14
428.175	1	13
428.345	1	20
428.516	1	26
428.687	1	26
428.857	1	7
429.028	1	14
429.198	1	16
429.369	1	7
429.540	1	17
429.710	1	14
429.881	1	18
430.051	1	10
430.222	1	23
430.392	1	26
430.563	1	22
430.734	1	29
430.904	1	15
431.075	1	14
431.245	1	12
431.416	1	-3
431.586	1	18
431.757	1	17
431.927	1	13
432.098	1	11
432.269	1	23
432.439	1	21
432.610	1	18
432.780	1	2
432.951	1	14
433.121	1	7
433.292	1	12
433.462	1	23
433.633	1	28
433.804	1	18
433.974	1	20
434.145	1	14
434.315	1	21
434.486	1	21
434.656	1	16
434.827	1	13
434.997	1	12
435.168	1	19
435.339	1	15
435.509	1	29
435.680	1	2
435.850	1	15
436.021	1	27
436.191	1	14
436.362	1	22
436.532	1	10
436.703	1	25
436.873	1	10
437.044	1	20
437.214	1	16
437.385	1	21
437.556	1	7
437.726	1	17
437.897	1	11
438.067	1	25
438.238	1	19
438.408	1	13
438.579	1	27
438.749	1	14
438.920	1	20
439.090	1	25
439.261	1	15
439.431	1	23
439.602	1	18
439.772	1	16
439.943	1	8
440.113	1	10
440.284	1	12
440.455	1	20
440.625	1	15
440.796	1	20
440.966	1	13
441.137	1	10
441.307	1	24
441.478	1	1
441.648	1	24
441.819	1	11
441.989	1	18
442.160	1	15
442.330	1	23
442.501	1	7
442.671	1	18
442.842	1	11
443.012	1	7
443.183	1	19
443.353	1	8
443.524	1	4
443.694	1	9
443.865	1	12
444.035	1	25
444.206	1	15
444.376	1	15
444.547	1	8
444.717	1	11
444.888	1	20
445.058	1	18
445.229	1	21
445.399	1	6
445.570	1	12
445.740	1	3
445.911	1	10
446.081	1	10
446.252	1	12
446.422	1	15
446.593	1	20
446.763	1	17
446.934	1	1
447.104	1	15
447.275	1	11
447.445	1	14
447.616	1	14
447.786	1	13
447.957	1	11
448.127	1	2
448.298	1	15
448.468	1	16
448.639	1	20
448.809	1	17
448.979	1	8
449.150	1	9
449.320	1	15
449.491	1	20
449.661	1	6
449.832	1	5
450.002	1	13
450.173	1	16
450.343	1	14
450.514	1	14
450.684	1	15
450.855	1	19
451.025	1	20
451.196	1	17
451.366	1	10
451.537	1	10
451.707	1	22
451.878	1	23
452.048	1	9
452.218	1	10
452.389	1	27
452.559	1	21
452.730	1	15
452.900	1	4
453.071	1	6
453.241	1	18
453.412	1	16
453.582	1	10
453.753	1	13
453.923	1	5
454.093	1	7
454.264	1	22
454.434	1	12
454.605	1	5
454.775	1	19
454.946	1	15
455.116	1	10
455.287	1	20
455.457	1	13
455.628	1	-3
455.798	1	12
455.968	1	-1
456.139	1	12
456.309	1	19
456.480	1	21
456.650	1	12
456.821	1	13
456.991	1	18
457.161	1	15
457.332	1	21
457.502	1	24
457.673	1	14
457.843	1	3
458.014	1	18
458.184	1	14
458.355	1	28
458.525	1	19
458.695	1	9
458.866	1	2
459.036	1	2
459.207	1	11
459.377	1	1
459.548	1	6
459.718	1	10
459.888	1	13
460.059	1	12
460.229	1	16
460.400	1	34
460.570	1	11
460.740	1	6
460.911	1	19
461.081	1	14
461.252	1	16
461.422	1	8
461.593	1	15
461.763	1	15
461.933	1	12
462.104	1	10
462.274	1	14
462.445	1	12
462.615	1	7
462.785	1	-1
462.956	1	21
463.126	1	0
463.297	1	15
463.467	1	12
463.638	1	11
463.808	1	16
463.978	1	15
464.149	1	19
464.319	1	5
464.490	1	-6
464.660	1	-1
464.830	1	11
465.001	1	22
465.171	1	8
465.342	1	6
465.512	1	12
465.682	1	8
465.853	1	6
466.023	1	22
466.194	1	11
466.364	1	5
466.534	1	3
466.705	1	15
466.875	1	6
467.045	1	18
467.216	1	14
467.386	1	9
467.557	1	9
467.727	1	10
467.897	1	7
468.068	1	3
468.238	1	2
468.409	1	6
468.579	1	0
468.749	1	14
468.920	1	19
469.090	1	8
469.260	1	14
469.431	1	10
469.601	1	16
469.772	1	-14
469.942	1	12
470.112	1	2
470.283	1	16
470.453	1	5
470.623	1	9
470.794	1	1
470.964	1	16
471.135	1	1
471.305	1	-4
471.475	1	0
471.646	1	17
471.816	1	3
471.986	1	12
472.157	1	1
472.327	1	10
472.497	1	-6
472.668	1	-8
472.838	1	16
473.009	1	12
473.179	1	11
473.349	1	9
473.520	1	9
473.690	1	5
473.860	1	5
474.031	1	24
474.201	1	-1
474.371	1	16
474.542	1	8
474.712	1	11
474.882	1	13
475.053	1	1
475.223	1	21
475.394	1	-3
475.564	1	12
475.734	1	9
475.905	1	2
476.075	1	6
476.245	1	-1
476.416	1	13
476.586	1	14
476.756	1	2
476.927	1	-4
477.097	1	-1
477.267	1	14
477.438	1	4
477.608	1	-1
477.778	1	9
477.949	1	7
478.119	1	20
478.289	1	8
478.460	1	2
478.630	1	11
478.800	1	16
478.971	1	-4
479.141	1	-1
479.311	1	12
479.482	1	6
479.652	1	11
479.822	1	8
479.993	1	4
480.163	1	12
480.333	1	1
480.504	1	1
480.674	1	-4
480.844	1	8
481.015	1	14
481.185	1	8
481.355	1	13
481.525	1	5
481.696	1	10
481.866	1	11
482.036	1	6
482.207	1	14
482.377	1	0
482.547	1	12
482.718	1	9
482.888	1	-2
483.058	1	0
483.229	1	7
483.399	1	-3
483.569	1	2
483.740	1	0
483.910	1	9
484.080	1	11
484.250	1	2
484.421	1	4
484.591	1	4
484.761	1	6
484.932	1	3
485.102	1	1
485.272	1	4
485.443	1	14
485.613	1	-2
485.783	1	6
485.953	1	13
486.124	1	3
486.294	1	14
486.464	1	10
486.635	1	4
486.805	1	10
486.975	1	6
487.146	1	4
487.316	1	10
487.486	1	6
487.656	1	13
487.827	1	1
487.997	1	-6
488.167	1	20
488.338	1	11
488.508	1	12
488.678	1	3
488.848	1	6
489.019	1	4
489.189	1	7
489.359	1	6
489.529	1	3
489.700	1	-1
489.870	1	9
490.040	1	16
490.211	1	9
490.381	1	7
490.551	1	8
490.721	1	17
490.892	1	-5
491.062	1	17
491.232	1	13
491.402	1	11
491.573	1	13
491.743	1	1
491.913	1	9
492.084	1	-3
492.254	1	5
492.424	1	12
492.594	1	3
492.765	1	1
492.935	1	2
493.105	1	11
493.275	1	13
493.446	1	1
493.616	1	-3
493.786	1	-4
493.956	1	13
494.127	1	12
494.297	1	10
494.467	1	5
494.637	1	5
494.808	1	9
494.978	1	8
495.148	1	-2
495.318	1	14
495.489	1	-5
495.659	1	6
495.829	1	10
495.999	1	4
496.170	1	7
496.340	1	6
496.510	1	5
496.680	1	10
496.851	1	9
497.021	1	8
497.191	1	0
497.361	1	7
497.532	1	6
497.702	1	-2
497.872	1	2
498.042	1	8
498.213	1	11
498.383	1	13
498.553	1	5
498.723	1	-4
498.894	1	9
499.064	1	-8
499.234	1	15
499.404	1	2
499.574	1	4
499.745	1	13
499.915	1	8
500.085	1	1
500.255	1	11
500.426	1	1
500.596	1	0
500.766	1	4
500.936	1	9
501.106	1	-2
501.277	1	-1
501.447	1	-2
501.617	1	5
501.787	1	5
501.958	1	6
502.128	1	2
502.298	1	-1
502.468	1	2
502.638	1	10
502.809	1	2
502.979	1	3
503.149	1	9
503.319	1	7
503.489	1	4
503.660	1	-2
503.830	1	-6
504.000	1	1
504.170	1	1
504.340	1	12
504.511	1	6
504.681	1	0
504.851	1	12
505.021	1	8
505.192	1	5
505.362	1	5
505.532	1	-1
505.702	1	1
505.872	1	7
506.043	1	5
506.213	1	-2
506.383	1	4
506.553	1	2
506.723	1	4
506.893	1	1
507.064	1	3
507.234	1	3
507.404	1	14
507.574	1	-1
507.744	1	7
507.915	1	-1
508.085	1	14
508.255	1	-2
508.425	1	5
508.595	1	10
508.766	1	-7
508.936	1	2
509.106	1	7
509.276	1	17
509.446	1	4
509.616	1	13
509.787	1	2
509.957	1	10
510.127	1	-1
510.297	1	5
510.467	1	5
510.638	1	9
510.808	1	-1
510.978	1	9
511.148	1	2
511.318	1	1
511.488	1	2
511.659	1	9
511.829	1	4
511.999	1	19
512.169	1	15
512.339	1	-4
512.509	1	3
512.680	1	-1
512.850	1	-5
513.020	1	4
513.190	1	6
513.360	1	6
513.530	1	4
513.700	1	14
513.871	1	12
514.041	1	7
514.211	1	19
514.381	1	-3
514.551	1	4
514.721	1	3
514.892	1	-2
515.062	1	4
515.232	1	-7
515.402	1	5
515.572	1	13
515.742	1	1
515.912	1	3
516.083	1	9
516.253	1	-2
516.423	1	2
516.593	1	4
516.763	1	-5
516.933	1	-7
517.104	1	-7
517.274	1	11
517.444	1	-5
517.614	1	-2
517.784	1	-2
517.954	1	6
518.124	1	13
518.294	1	5
518.465	1	-7
518.635	1	9
518.805	1	4
518.975	1	9
519.145	1	11
519.315	1	1
519.485	1	11
519.656	1	2
519.826	1	-1
519.996	1	11
520.166	1	2
520.336	1	-10
520.506	1	6
520.676	1	1
520.846	1	15
521.017	1	1
521.187	1	3
521.357	1	6
521.527	1	-7
521.697	1	-3
521.867	1	13
522.037	1	15
522.207	1	6
522.377	1	-6
522.548	1	12
522.718	1	9
522.888	1	10
523.058	1	8
523.228	1	-3
523.398	1	5
523.568	1	-2
523.738	1	2
523.909	1	8
524.079	1	12
524.249	1	7
524.419	1	-3
524.589	1	5
524.759	1	2
524.929	1	1
525.099	1	7
525.269	1	-5
525.439	1	-8
525.610	1	3
525.780	1	4
525.950	1	12
526.120	1	13
526.290	1	9
526.460	1	-5
526.630	1	2
526.800	1	-12
526.970	1	2
527.140	1	3
527.311	1	6
527.481	1	17
527.651	1	5
527.821	1	-10
527.991	1	-2
528.161	1	14
528.331	1	-8
528.501	1	2
528.671	1	-2
528.841	1	7
529.011	1	0
529.181	1	-5
529.352	1	-6
529.522	1	9
529.692	1	5
529.862	1	7
530.032	1	15
530.202	1	5
530.372	1	6
530.542	1	5
530.712	1	0
530.882	1	2
531.052	1	6
531.222	1	4
531.392	1	16
531.563	1	-5
531.733	1	16
531.903	1	0
532.073	1	5
532.243	1	2
532.413	1	11
532.583	1	3
532.753	1	2
532.923	1	2
533.093	1	5
533.263	1	6
533.433	1	-1
533.603	1	9
533.773	1	10
533.943	1	8
534.113	1	3
534.284	1	-3
534.454	1	-6
534.624	1	5
534.794	1	6
534.964	1	3
535.134	1	-6
535.304	1	11
535.474	1	5
535.644	1	2
535.814	1	3
535.984	1	3
536.154	1	4
536.324	1	5
536.494	1	14
536.664	1	13
536.834	1	-4
537.004	1	9
537.174	1	-12
537.344	1	6
537.514	1	9
537.685	1	16
537.855	1	0
538.025	1	-4
538.195	1	2
538.365	1	10
538.535	1	-9
538.705	1	0
538.875	1	5
539.045	1	-8
539.215	1	-2
539.385	1	2
539.555	1	6
539.725	1	-6
539.895	1	15
540.065	1	-8
540.235	1	5
540.405	1	-9
540.575	1	12
540.745	1	6
540.915	1	2
541.085	1	-7
541.255	1	3
541.425	1	0
541.595	1	-6
541.765	1	0
541.935	1	8
542.105	1	7
542.275	1	-3
542.445	1	-3
542.615	1	8
542.785	1	-7
542.955	1	9
543.125	1	3
543.295	1	10
543.465	1	15
543.635	1	9
543.805	1	-6
543.975	1	4
544.145	1	-7
544.315	1	11
544.485	1	-1
544.655	1	0
544.825	1	7
544.995	1	-3
545.165	1	13
545.335	1	3
545.505	1	3
545.675	1	-1
545.845	1	12
546.015	1	6
546.185	1	9
546.355	1	3
546.525	1	8
546.695	1	18
546.865	1	3
547.035	1	-6
547.205	1	0
547.375	1	16
547.545	1	0
547.715	1	-5
547.885	1	0
548.055	1	19
548.225	1	12
548.395	1	-2
548.565	1	6
548.735	1	-14
548.905	1	11
549.075	1	-1
549.245	1	12
549.415	1	8
549.585	1	-3
549.755	1	4
549.925	1	6
550.095	1	-2
550.265	1	5
550.435	1	9
550.605	1	-3
550.775	1	7
550.945	1	0
551.115	1	3
551.285	1	-7
551.455	1	19
551.625	1	10
551.795	1	15
551.965	1	1
552.135	1	2
552.305	1	8
552.475	1	6
552.645	1	2
552.815	1	1
552.985	1	-8
553.155	1	4
553.325	1	-1
553.495	1	8
553.665	1	5
553.835	1	10
554.004	1	11
554.174	1	3
554.344	1	-1
554.514	1	2
554.684	1	-8
554.854	1	8
555.024	1	-8
555.194	1	8
555.364	1	8
555.534	1	13
555.704	1	10
555.874	1	6
556.044	1	-2
556.214	1	4
556.384	1	-11
556.554	1	-6
556.724	1	0
556.894	1	3
557.064	1	9
557.234	1	4
557.404	1	1
557.573	1	-2
557.743	1	-5
557.913	1	6
558.083	1	6
558.253	1	-3
558.423	1	6
558.593	1	8
558.763	1	13
558.933	1	3
559.103	1	2
559.273	1	6
559.443	1	3
559.613	1	-5
559.783	1	5
559.953	1	-11
560.122	1	-15
560.292	1	5
560.462	1	-4
560.632	1	15
560.802	1	-1
560.972	1	-3
561.142	1	-5
561.312	1	2
561.482	1	11
561.652	1	-3
561.822	1	8
561.992	1	-1
562.162	1	3
562.331	1	-3
562.501	1	-11
562.671	1	-1
562.841	1	12
563.011	1	2
563.181	1	3
563.351	1	4
563.521	1	-2
563.691	1	-4
563.861	1	9
564.031	1	2
564.201	1	5
564.370	1	1
564.540	1	-3
564.710	1	0
564.880	1	-5
565.050	1	10
565.220	1	6
565.390	1	10
565.560	1	6
565.730	1	-9
565.900	1	11
566.069	1	7
566.239	1	5
566.409	1	7
566.579	1	6
566.749	1	-1
566.919	1	3
567.089	1	0
567.259	1	10
567.429	1	-9
567.599	1	2
567.768	1	-5
567.938	1	15
568.108	1	0
568.278	1	3
568.448	1	-2
568.618	1	20
568.788	1	10
568.958	1	-4
569.128	1	1
569.297	1	5
569.467	1	-5
569.637	1	11
569.807	1	0
569.977	1	10
570.147	1	5
570.317	1	-2
570.487	1	-1
570.656	1	-1
570.826	1	4
570.996	1	3
571.166	1	13
571.336	1	-4
571.506	1	-4
571.676	1	11
571.846	1	5
572.015	1	-3
572.185	1	4
572.355	1	8
572.525	1	-6
572.695	1	7
572.865	1	1
573.035	1	16
573.205	1	6
573.374	1	5
573.544	1	3
573.714	1	16
573.884	1	0
574.054	1	-1
574.224	1	0
574.394	1	2
574.563	1	2
574.733	1	8
574.903	1	1
575.073	1	6
575.243	1	1
575.413	1	7
575.583	1	6
575.752	1	3
575.922	1	-5
576.092	1	-2
576.262	1	4
576.432	1	13
576.602	1	-2
576.772	1	5
576.941	1	-4
577.111	1	7
577.281	1	-3
577.451	1	10
577.621	1	6
577.791	1	7
577.960	1	-6
578.130	1	-2
578.300	1	0
578.470	1	-1
578.640	1	-8
578.810	1	3
578.979	1	8
579.149	1	2
579.319	1	7
579.489	1	7
579.659	1	10
579.829	1	3
579.998	1	3
580.168	1	1
580.338	1	-1
580.508	1	7
580.678	1	3
580.848	1	-3
581.017	1	0
581.187	1	10
581.357	1	5
581.527	1	-3
581.697	1	-2
581.867	1	12
582.036	1	3
582.206	1	-5
582.376	1	7
582.546	1	-3
582.716	1	-5
582.885	1	0
583.055	1	9
583.225	1	15
583.395	1	5
583.565	1	-10
583.735	1	11
583.904	1	3
584.074	1	7
584.244	1	3
584.414	1	7
584.584	1	2
584.753	1	-2
584.923	1	11
585.093	1	0
585.263	1	2
585.433	1	-1
585.602	1	4
585.772	1	4
585.942	1	-1
586.112	1	8
586.282	1	-1
586.451	1	9
586.621	1	1
586.791	1	2
586.961	1	-6
587.131	1	1
587.300	1	5
587.470	1	7
587.640	1	-6
587.810	1	2
587.980	1	4
588.149	1	0
588.319	1	5
588.489	1	-3
588.659	1	15
588.829	1	3
588.998	1	6
589.168	1	6
589.338	1	2
589.508	1	-5
589.677	1	3
589.847	1	10
590.017	1	-1
590.187	1	-1
590.357	1	-7
590.526	1	1
590.696	1	9
590.866	1	14
591.036	1	20
591.205	1	7
591.375	1	-10
591.545	1	13
591.715	1	-13
591.885	1	-5
592.054	1	-3
592.224	1	21
592.394	1	-3
592.564	1	4
592.733	1	11
592.903	1	5
593.073	1	-1
593.243	1	13
593.412	1	5
593.582	1	0
593.752	1	-3
593.922	1	1
594.091	1	8
594.261	1	10
594.431	1	10
594.601	1	0
594.771	1	2
594.940	1	-2
595.110	1	1
595.280	1	-5
595.450	1	8
595.619	1	-2
595.789	1	-6
595.959	1	18
596.129	1	15
596.298	1	11
596.468	1	10
596.638	1	9
596.808	1	-6
596.977	1	6
597.147	1	-7
597.317	1	-3
597.487	1	-6
597.656	1	-3
597.826	1	-2
597.996	1	7
598.166	1	0
598.335	1	-1
598.505	1	0
598.675	1	-7
598.844	1	3
599.014	1	-5
599.184	1	9
599.354	1	5
599.523	1	8
599.693	1	9
599.863	1	-5
600.033	1	-3
600.202	1	2
600.372	1	-3
600.542	1	-1
600.712	1	7
600.881	1	6
601.051	1	2
601.221	1	5
601.390	1	-1
601.560	1	1
601.730	1	6
601.900	1	-1
602.069	1	0
602.239	1	15
602.409	1	7
602.578	1	6
602.748	1	10
602.918	1	3
603.088	1	2
603.257	1	15
603.427	1	1
603.597	1	7
603.767	1	-1
603.936	1	-15
604.106	1	-11
604.276	1	12
604.445	1	1
604.615	1	-4
604.785	1	10
604.954	1	-3
605.124	1	10
605.294	1	6
605.464	1	19
605.633	1	6
605.803	1	9
605.973	1	1
606.142	1	5
606.312	1	4
606.482	1	13
606.652	1	0
606.821	1	-3
606.991	1	8
607.161	1	7
607.330	1	-9
607.500	1	-1
607.670	1	-5
607.839	1	-2
608.009	1	1
608.179	1	3
608.348	1	11
608.518	1	4
608.688	1	11
608.858	1	14
609.027	1	19
609.197	1	-12
609.367	1	5
609.536	1	8
609.706	1	-4
609.876	1	12
610.045	1	-1
610.215	1	9
610.385	1	6
610.554	1	8
610.724	1	-2
610.894	1	8
611.063	1	5
611.233	1	9
611.403	1	3
611.572	1	-6
611.742	1	4
611.912	1	-2
612.081	1	4
612.251	1	-1
612.421	1	5
612.590	1	2
612.760	1	11
612.930	1	2
613.099	1	9
613.269	1	2
613.439	1	8
613.608	1	5
613.778	1	-4
613.948	1	4
614.117	1	2
614.287	1	25
614.457	1	-3
614.626	1	11
614.796	1	11
614.966	1	12
615.135	1	5
615.305	1	2
615.475	1	11
615.644	1	1
615.814	1	-2
615.984	1	11
616.153	1	0
616.323	1	13
616.493	1	4
616.662	1	-3
616.832	1	7
617.002	1	-1
617.171	1	-12
617.341	1	9
617.511	1	-6
617.680	1	11
617.850	1	5
618.019	1	20
618.189	1	4
618.359	1	5
618.528	1	7
618.698	1	-1
618.868	1	0
619.037	1	10
619.207	1	2
619.377	1	-2
619.546	1	0
619.716	1	-7
619.885	1	9
620.055	1	-2
620.225	1	12
620.394	1	6
620.564	1	-8
620.734	1	5
620.903	1	5
621.073	1	7
621.242	1	9
621.412	1	3
621.582	1	4
621.751	1	5
621.921	1	3
622.091	1	-3
622.260	1	-1
622.430	1	4
622.599	1	4
622.769	1	3
622.939	1	1
623.108	1	9
623.278	1	12
623.448	1	12
623.617	1	-2
623.787	1	2
623.956	1	9
624.126	1	0
624.296	1	4
624.465	1	1
624.635	1	14
624.804	1	1
624.974	1	1
625.144	1	-9
625.313	1	13
625.483	1	13
625.652	1	-3
625.822	1	14
625.992	1	0
626.161	1	19
626.331	1	17
626.501	1	17
626.670	1	-5
626.840	1	2
627.009	1	13
627.179	1	6
627.348	1	8
627.518	1	3
627.688	1	1
627.857	1	8
628.027	1	16
628.196	1	-3
628.366	1	-4
628.536	1	8
628.705	1	10
628.875	1	14
629.044	1	7
629.214	1	4
629.384	1	3
629.553	1	-1
629.723	1	3
629.892	1	7
630.062	1	9
630.232	1	1
630.401	1	14
630.571	1	13
630.740	1	5
630.910	1	12
631.079	1	7
631.249	1	10
631.419	1	-4
631.588	1	10
631.758	1	3
631.927	1	-1
632.097	1	0
632.266	1	12
632.436	1	7
632.606	1	8
632.775	1	10
632.945	1	8
633.114	1	17
633.284	1	11
633.453	1	2
633.623	1	-1
633.793	1	7
633.962	1	-1
634.132	1	3
634.301	1	-1
634.471	1	-3
634.640	1	13
634.810	1	12
634.979	1	4
635.149	1	10
635.319	1	2
635.488	1	6
635.658	1	4
635.827	1	6
635.997	1	-1
636.166	1	16
636.336	1	3
636.505	1	14
636.675	1	5
636.845	1	4
637.014	1	16
637.184	1	15
637.353	1	3
637.523	1	9
637.692	1	9
637.862	1	3
638.031	1	18
638.201	1	9
638.370	1	6
638.540	1	5
638.710	1	-5
638.879	1	-3
639.049	1	14
639.218	1	8
639.388	1	2
639.557	1	14
639.727	1	7
639.896	1	19
640.066	1	14
640.235	1	5
640.405	1	13
640.574	1	16
640.744	1	15
640.914	1	-1
641.083	1	1
641.253	1	9
641.422	1	-9
641.592	1	9
641.761	1	7
641.931	1	14
642.100	1	4
642.270	1	3
642.439	1	5
642.609	1	11
642.778	1	-8
642.948	1	19
643.117	1	5
643.287	1	10
643.456	1	6
643.626	1	9
643.795	1	-3
643.965	1	3
644.134	1	2
644.304	1	6
644.473	1	11
644.643	1	8
644.812	1	14
644.982	1	0
645.151	1	-4
645.321	1	3
645.490	1	12
645.660	1	-3
645.829	1	7
645.999	1	12
646.168	1	20
646.338	1	-4
646.507	1	6
646.677	1	-4
646.846	1	6
647.016	1	10
647.185	1	3
647.355	1	9
647.524	1	11
647.694	1	4
647.863	1	11
648.033	1	14
648.202	1	1
648.372	1	1
648.541	1	11
648.711	1	7
648.880	1	3
649.050	1	-4
649.219	1	12
649.389	1	0
649.558	1	5
649.728	1	3
649.897	1	8
650.067	1	-9
650.236	1	-1
650.406	1	11
650.575	1	9
650.745	1	0
650.914	1	12
651.084	1	10
651.253	1	4
651.423	1	17
651.592	1	19
651.762	1	7
651.931	1	7
652.101	1	1
652.270	1	12
652.440	1	-7
652.609	1	4
652.778	1	-1
652.948	1	10
653.117	1	13
653.287	1	2
653.456	1	13
653.626	1	13
653.795	1	5
653.965	1	0
654.134	1	-5
654.304	1	0
654.473	1	3
654.643	1	-7
654.812	1	6
654.982	1	7
655.151	1	11
655.320	1	12
655.490	1	-5
655.659	1	0
655.829	1	1
655.998	1	4
656.168	1	4
656.337	1	6
656.507	1	-7
656.676	1	3
656.846	1	7
657.015	1	11
657.184	1	-2
657.354	1	-2
657.523	1	7
657.693	1	4
657.862	1	2
658.032	1	3
658.201	1	8
658.371	1	14
658.540	1	3
658.709	1	3
658.879	1	5
659.048	1	6
659.218	1	2
659.387	1	-4
659.557	1	-10
659.726	1	9
659.895	1	-1
660.065	1	11
660.234	1	1
660.404	1	10
660.573	1	9
660.743	1	2
660.912	1	12
661.081	1	11
661.251	1	5
661.420	1	2
661.590	1	4
661.759	1	5
661.929	1	8
662.098	1	6
662.267	1	6
662.437	1	7
662.606	1	10
662.776	1	-6
662.945	1	0
663.115	1	-4
663.284	1	5
663.453	1	2
663.623	1	3
663.792	1	0
663.962	1	6
664.131	1	-10
664.300	1	1
664.470	1	-5
664.639	1	14
664.809	1	3
664.978	1	-4
665.148	1	1
665.317	1	3
665.486	1	-1
665.656	1	11
665.825	1	2
665.995	1	0
666.164	1	11
666.333	1	1
666.503	1	-4
666.672	1	8
666.842	1	8
667.011	1	-4
667.180	1	5
667.350	1	10
667.519	1	0
667.689	1	3
667.858	1	-2
668.027	1	1
668.197	1	0
668.366	1	11
668.536	1	-3
668.705	1	9
668.874	1	10
669.044	1	3
669.213	1	1
669.382	1	10
669.552	1	-5
669.721	1	11
669.891	1	8
670.060	1	0
670.229	1	6
670.399	1	6
670.568	1	-1
670.738	1	15
670.907	1	9
671.076	1	4
671.246	1	3
671.415	1	-7
671.584	1	6
671.754	1	8
671.923	1	3
672.093	1	4
672.262	1	-1
672.431	1	6
672.601	1	0
672.770	1	0
672.939	1	-1
673.109	1	4
673.278	1	6
673.448	1	9
673.617	1	1
673.786	1	-7
