325.333	1	12
325.504	1	9
325.675	1	0
325.846	1	3
326.017	1	4
326.188	1	9
326.359	1	5
326.531	1	5
326.702	1	10
326.873	1	3
327.044	1	15
327.215	1	4
327.386	1	12
327.557	1	15
327.728	1	7
327.899	1	7
328.070	1	-1
328.241	1	3
328.412	1	0
328.583	1	8
328.754	1	6
328.926	1	13
329.097	1	10
329.268	1	8
329.439	1	3
329.610	1	16
329.781	1	8
329.952	1	-1
330.123	1	2
330.294	1	15
330.465	1	5
330.636	1	14
330.807	1	6
330.978	1	12
331.149	1	2
331.320	1	9
331.492	1	6
331.663	1	3
331.834	1	4
332.005	1	0
332.176	1	7
332.347	1	16
332.518	1	6
332.689	1	17
332.860	1	12
333.031	1	-2
333.202	1	-2
333.373	1	9
333.544	1	6
333.715	1	9
333.886	1	1
334.057	1	10
334.228	1	6
334.399	1	-2
334.570	1	9
334.741	1	-7
334.912	1	9
335.084	1	14
335.255	1	13
335.426	1	16
335.597	1	7
335.768	1	10
335.939	1	12
336.110	1	11
336.281	1	8
336.452	1	6
336.623	1	5
336.794	1	11
336.965	1	23
337.136	1	16
337.307	1	12
337.478	1	3
337.649	1	14
337.820	1	8
337.991	1	15
338.162	1	11
338.333	1	13
338.504	1	11
338.675	1	12
338.846	1	13
339.017	1	13
339.188	1	10
339.359	1	9
339.530	1	14
339.701	1	14
339.872	1	4
340.043	1	9
340.214	1	10
340.385	1	-7
340.556	1	11
340.727	1	17
340.898	1	20
341.069	1	3
341.240	1	4
341.411	1	20
341.582	1	8
341.753	1	12
341.924	1	11
342.095	1	9
342.266	1	8
342.437	1	7
342.608	1	17
342.779	1	10
342.950	1	4
343.121	1	11
343.292	1	18
343.463	1	17
343.634	1	3
343.805	1	13
343.976	1	13
344.147	1	4
344.318	1	13
344.489	1	15
344.660	1	12
344.831	1	10
345.002	1	18
345.173	1	12
345.344	1	7
345.515	1	2
345.686	1	9
345.857	1	10
346.028	1	16
346.199	1	10
346.370	1	18
346.541	1	3
346.712	1	5
346.883	1	6
347.054	1	10
347.225	1	12
347.396	1	3
347.567	1	17
347.738	1	13
347.909	1	4
348.080	1	4
348.251	1	13
348.422	1	-3
348.593	1	9
348.764	1	2
348.935	1	4
349.106	1	12
349.277	1	13
349.448	1	14
349.619	1	-4
349.790	1	22
349.961	1	11
350.132	1	6
350.303	1	8
350.474	1	4
350.645	1	1
350.816	1	12
350.987	1	-6
351.157	1	-2
351.328	1	0
351.499	1	19
351.670	1	14
351.841	1	9
352.012	1	18
352.183	1	8
352.354	1	13
352.525	1	7
352.696	1	16
352.867	1	3
353.038	1	14
353.209	1	11
353.380	1	8
353.551	1	8
353.722	1	10
353.893	1	11
354.064	1	3
354.235	1	16
354.406	1	9
354.576	1	-5
354.747	1	-1
354.918	1	20
355.089	1	12
355.260	1	9
355.431	1	3
355.602	1	6
355.773	1	-2
355.944	1	5
356.115	1	11
356.286	1	10
356.457	1	10
356.628	1	3
356.799	1	2
356.970	1	2
357.141	1	15
357.311	1	1
357.482	1	5
357.653	1	-4
357.824	1	3
357.995	1	6
358.166	1	10
358.337	1	7
358.508	1	3
358.679	1	5
358.850	1	11
359.021	1	7
359.192	1	3
359.363	1	3
359.533	1	-4
359.704	1	5
359.875	1	2
360.046	1	11
360.217	1	6
360.388	1	7
360.559	1	17
360.730	1	13
360.901	1	14
361.072	1	11
361.243	1	7
361.414	1	7
361.584	1	2
361.755	1	9
361.926	1	7
362.097	1	9
362.268	1	16
362.439	1	1
362.610	1	13
362.781	1	8
362.952	1	3
363.123	1	-6
363.293	1	9
363.464	1	14
363.635	1	10
363.806	1	12
363.977	1	20
364.148	1	2
364.319	1	14
364.490	1	7
364.661	1	-4
364.832	1	6
365.002	1	-5
365.173	1	8
365.344	1	-1
365.515	1	2
365.686	1	10
365.857	1	-3
366.028	1	8
366.199	1	3
366.370	1	-8
366.540	1	5
366.711	1	9
366.882	1	17
367.053	1	5
367.224	1	7
367.395	1	11
367.566	1	7
367.737	1	12
367.908	1	5
368.078	1	-2
368.249	1	-5
368.420	1	18
368.591	1	6
368.762	1	17
368.933	1	17
369.104	1	7
369.274	1	12
369.445	1	-3
369.616	1	11
369.787	1	11
369.958	1	9
370.129	1	4
370.300	1	4
370.471	1	7
370.641	1	1
370.812	1	1
370.983	1	11
371.154	1	10
371.325	1	5
371.496	1	4
371.667	1	6
371.837	1	8
372.008	1	3
372.179	1	5
372.350	1	4
372.521	1	2
372.692	1	9
372.863	1	10
373.033	1	10
373.204	1	10
373.375	1	0
373.546	1	-4
373.717	1	7
373.888	1	8
374.059	1	11
374.229	1	6
374.400	1	6
374.571	1	8
374.742	1	6
374.913	1	-9
375.084	1	5
375.254	1	8
375.425	1	17
375.596	1	8
375.767	1	10
375.938	1	-2
376.109	1	6
376.279	1	5
376.450	1	4
376.621	1	15
376.792	1	5
376.963	1	9
377.134	1	10
377.304	1	-6
377.475	1	8
377.646	1	11
377.817	1	8
377.988	1	10
378.159	1	7
378.329	1	4
378.500	1	3
378.671	1	8
378.842	1	10
379.013	1	15
379.184	1	7
379.354	1	6
379.525	1	20
379.696	1	9
379.867	1	14
380.038	1	17
380.209	1	3
380.379	1	6
380.550	1	2
380.721	1	25
380.892	1	4
381.063	1	10
381.233	1	15
381.404	1	17
381.575	1	15
381.746	1	10
381.917	1	13
382.087	1	18
382.258	1	15
382.429	1	6
382.600	1	5
382.771	1	17
382.941	1	7
383.112	1	2
383.283	1	2
383.454	1	4
383.625	1	9
383.795	1	20
383.966	1	17
384.137	1	10
384.308	1	10
384.479	1	11
384.649	1	8
384.820	1	3
384.991	1	16
385.162	1	8
385.333	1	4
385.503	1	7
385.674	1	18
385.845	1	10
386.016	1	26
386.187	1	5
386.357	1	3
386.528	1	12
386.699	1	3
386.870	1	9
387.041	1	9
387.211	1	15
387.382	1	19
387.553	1	20
387.724	1	-10
387.894	1	5
388.065	1	18
388.236	1	10
388.407	1	12
388.578	1	13
388.748	1	4
388.919	1	6
389.090	1	17
389.261	1	10
389.431	1	14
389.602	1	16
389.773	1	3
389.944	1	7
390.114	1	7
390.285	1	11
390.456	1	20
390.627	1	27
390.798	1	16
390.968	1	19
391.139	1	10
391.310	1	9
391.481	1	10
391.651	1	14
391.822	1	18
391.993	1	4
392.164	1	10
392.334	1	5
392.505	1	7
392.676	1	10
392.847	1	15
393.017	1	11
393.188	1	24
393.359	1	13
393.530	1	18
393.700	1	14
393.871	1	17
394.042	1	17
394.213	1	17
394.383	1	15
394.554	1	10
394.725	1	23
394.896	1	10
395.066	1	22
395.237	1	7
395.408	1	18
395.579	1	17
395.749	1	18
395.920	1	13
396.091	1	9
396.262	1	7
396.432	1	18
396.603	1	9
396.774	1	12
396.945	1	-1
397.115	1	14
397.286	1	4
397.457	1	22
397.627	1	13
397.798	1	23
397.969	1	12
398.140	1	13
398.310	1	17
398.481	1	4
398.652	1	14
398.823	1	11
398.993	1	15
399.164	1	16
399.335	1	18
399.505	1	10
399.676	1	6
399.847	1	15
400.018	1	19
400.188	1	19
400.359	1	9
400.530	1	22
400.700	1	15
400.871	1	32
401.042	1	20
401.213	1	19
401.383	1	26
401.554	1	13
401.725	1	14
401.895	1	8
402.066	1	13
402.237	1	15
402.408	1	22
402.578	1	13
402.749	1	17
402.920	1	4
403.090	1	9
403.261	1	13
403.432	1	20
403.603	1	12
403.773	1	28
403.944	1	24
404.115	1	15
404.285	1	23
404.456	1	8
404.627	1	22
404.797	1	15
404.968	1	18
405.139	1	21
405.310	1	21
405.480	1	4
405.651	1	6
405.822	1	8
405.992	1	13
406.163	1	6
406.334	1	26
406.504	1	17
406.675	1	23
406.846	1	18
407.016	1	32
407.187	1	16
407.358	1	13
407.528	1	12
407.699	1	13
407.870	1	15
408.041	1	20
408.211	1	12
408.382	1	19
408.553	1	27
408.723	1	31
408.894	1	15
409.065	1	9
409.235	1	20
409.406	1	20
409.577	1	24
409.747	1	22
409.918	1	27
410.089	1	11
410.259	1	25
410.430	1	27
410.601	1	28
410.771	1	14
410.942	1	30
411.113	1	20
411.283	1	16
411.454	1	29
411.625	1	26
411.795	1	24
411.966	1	30
412.137	1	27
412.307	1	9
412.478	1	26
412.649	1	24
412.819	1	21
412.990	1	25
413.161	1	26
413.331	1	23
413.502	1	36
413.672	1	4
413.843	1	22
414.014	1	24
414.184	1	26
414.355	1	23
414.526	1	24
414.696	1	11
414.867	1	22
415.038	1	19
415.208	1	12
415.379	1	16
415.550	1	24
415.720	1	11
415.891	1	24
416.062	1	21
416.232	1	31
416.403	1	29
416.573	1	30
416.744	1	30
416.915	1	21
417.085	1	34
417.256	1	21
417.427	1	21
417.597	1	28
417.768	1	23
417.939	1	20
418.109	1	31
418.280	1	32
418.450	1	25
418.621	1	24
418.792	1	15
418.962	1	20
419.133	1	23
419.304	1	16
419.474	1	13
419.645	1	22
419.815	1	35
419.986	1	35
420.157	1	20
420.327	1	21
420.498	1	32
420.669	1	18
420.839	1	29
421.010	1	16
421.180	1	11
421.351	1	17
421.522	1	17
421.692	1	16
421.863	1	24
422.033	1	20
422.204	1	22
422.375	1	26
422.545	1	37
422.716	1	23
422.886	1	20
423.057	1	30
423.228	1	21
423.398	1	28
423.569	1	24
423.740	1	26
423.910	1	24
424.081	1	24
424.251	1	14
424.422	1	22
424.593	1	31
424.763	1	27
424.934	1	26
425.104	1	42
425.275	1	19
425.445	1	10
425.616	1	25
425.787	1	29
425.957	1	18
426.128	1	27
426.298	1	16
426.469	1	26
426.640	1	13
426.810	1	33
426.981	1	26
427.151	1	25
427.322	1	30
427.493	1	30
427.663	1	32
427.834	1	15
428.004	1	26
428.175	1	26
428.345	1	22
428.516	1	27
428.687	1	21
428.857	1	10
429.028	1	23
429.198	1	9
429.369	1	18
429.540	1	20
429.710	1	28
429.881	1	19
430.051	1	22
430.222	1	33
430.392	1	23
430.563	1	34
430.734	1	23
430.904	1	16
431.075	1	31
431.245	1	15
431.416	1	14
431.586	1	25
431.757	1	28
431.927	1	33
432.098	1	20
432.269	1	34
432.439	1	21
432.610	1	16
432.780	1	20
432.951	1	17
433.121	1	9
433.292	1	17
433.462	1	26
433.633	1	17
433.804	1	23
433.974	1	30
434.145	1	26
434.315	1	26
434.486	1	32
434.656	1	24
434.827	1	19
434.997	1	28
435.168	1	15
435.339	1	14
435.509	1	37
435.680	1	26
435.850	1	8
436.021	1	30
436.191	1	30
436.362	1	28
436.532	1	27
436.703	1	30
436.873	1	28
437.044	1	31
437.214	1	27
437.385	1	29
437.556	1	17
437.726	1	14
437.897	1	11
438.067	1	13
438.238	1	23
438.408	1	20
438.579	1	22
438.749	1	17
438.920	1	23
439.090	1	22
439.261	1	11
439.431	1	15
439.602	1	21
439.772	1	17
439.943	1	25
440.113	1	21
440.284	1	22
440.455	1	23
440.625	1	19
440.796	1	23
440.966	1	28
441.137	1	9
441.307	1	28
441.478	1	23
441.648	1	16
441.819	1	13
441.989	1	32
442.160	1	17
442.330	1	20
442.501	1	9
442.671	1	28
442.842	1	10
443.012	1	16
443.183	1	19
443.353	1	16
443.524	1	13
443.694	1	8
443.865	1	11
444.035	1	16
444.206	1	14
444.376	1	16
444.547	1	3
444.717	1	8
444.888	1	18
445.058	1	26
445.229	1	25
445.399	1	17
445.570	1	13
445.740	1	16
445.911	1	9
446.081	1	21
446.252	1	10
446.422	1	5
446.593	1	27
446.763	1	18
446.934	1	13
447.104	1	16
447.275	1	17
447.445	1	15
447.616	1	21
447.786	1	17
447.957	1	22
448.127	1	12
448.298	1	16
448.468	1	9
448.639	1	28
448.809	1	26
448.979	1	7
449.150	1	20
449.320	1	16
449.491	1	20
449.661	1	12
449.832	1	8
450.002	1	10
450.173	1	18
450.343	1	12
450.514	1	10
450.684	1	26
450.855	1	22
451.025	1	21
451.196	1	16
451.366	1	16
451.537	1	10
451.707	1	22
451.878	1	13
452.048	1	23
452.218	1	17
452.389	1	24
452.559	1	38
452.730	1	13
452.900	1	12
453.071	1	14
453.241	1	27
453.412	1	11
453.582	1	22
453.753	1	23
453.923	1	8
454.093	1	0
454.264	1	17
454.434	1	13
454.605	1	13
454.775	1	17
454.946	1	11
455.116	1	9
455.287	1	10
455.457	1	11
455.628	1	1
455.798	1	7
455.968	1	8
456.139	1	11
456.309	1	21
456.480	1	17
456.650	1	19
456.821	1	12
456.991	1	9
457.161	1	8
457.332	1	14
457.502	1	24
457.673	1	24
457.843	1	12
458.014	1	14
458.184	1	22
458.355	1	18
458.525	1	17
458.695	1	24
458.866	1	9
459.036	1	13
459.207	1	19
459.377	1	6
459.548	1	6
459.718	1	12
459.888	1	12
460.059	1	11
460.229	1	20
460.400	1	23
460.570	1	17
460.740	1	8
460.911	1	32
461.081	1	11
461.252	1	16
461.422	1	7
461.593	1	17
461.763	1	3
461.933	1	24
462.104	1	8
462.274	1	9
462.445	1	14
462.615	1	19
462.785	1	6
462.956	1	9
463.126	1	9
463.297	1	9
463.467	1	11
463.638	1	16
463.808	1	20
463.978	1	17
464.149	1	25
464.319	1	11
464.490	1	4
464.660	1	7
464.830	1	15
465.001	1	15
465.171	1	15
465.342	1	4
465.512	1	7
465.682	1	12
465.853	1	4
466.023	1	11
466.194	1	11
466.364	1	22
466.534	1	2
466.705	1	15
466.875	1	15
467.045	1	14
467.216	1	16
467.386	1	3
467.557	1	10
467.727	1	15
467.897	1	11
468.068	1	14
468.238	1	4
468.409	1	16
468.579	1	9
468.749	1	25
468.920	1	11
469.090	1	10
469.260	1	5
469.431	1	8
469.601	1	23
469.772	1	-2
469.942	1	15
470.112	1	9
470.283	1	22
470.453	1	11
470.623	1	14
470.794	1	-2
470.964	1	11
471.135	1	11
471.305	1	9
471.475	1	3
471.646	1	16
471.816	1	10
471.986	1	9
472.157	1	7
472.327	1	7
472.497	1	6
472.668	1	1
472.838	1	7
473.009	1	22
473.179	1	10
473.349	1	7
473.520	1	14
473.690	1	13
473.860	1	-2
474.031	1	18
474.201	1	11
474.371	1	17
474.542	1	12
474.712	1	14
474.882	1	12
475.053	1	1
475.223	1	11
475.394	1	-1
475.564	1	22
475.734	1	-1
475.905	1	8
476.075	1	6
476.245	1	8
476.416	1	3
476.586	1	20
476.756	1	8
476.927	1	3
477.097	1	9
477.267	1	8
477.438	1	7
477.608	1	9
477.778	1	6
477.949	1	4
478.119	1	15
478.289	1	3
478.460	1	0
478.630	1	10
478.800	1	12
478.971	1	2
479.141	1	7
479.311	1	6
479.482	1	8
479.652	1	7
479.822	1	9
479.993	1	7
480.163	1	9
480.333	1	9
480.504	1	8
480.674	1	4
480.844	1	3
481.015	1	16
481.185	1	11
481.355	1	9
481.525	1	7
481.696	1	20
481.866	1	25
482.036	1	7
482.207	1	20
482.377	1	16
482.547	1	12
482.718	1	6
482.888	1	14
483.058	1	10
483.229	1	19
483.399	1	-1
483.569	1	11
483.740	1	-3
483.910	1	6
484.080	1	4
484.250	1	11
484.421	1	5
484.591	1	5
484.761	1	7
484.932	1	-1
485.102	1	13
485.272	1	1
485.443	1	13
485.613	1	1
485.783	1	7
485.953	1	6
486.124	1	0
486.294	1	12
486.464	1	8
486.635	1	12
486.805	1	15
486.975	1	4
487.146	1	5
487.316	1	12
487.486	1	6
487.656	1	18
487.827	1	3
487.997	1	-1
488.167	1	19
488.338	1	10
488.508	1	17
488.678	1	8
488.848	1	11
489.019	1	7
489.189	1	5
489.359	1	9
489.529	1	9
489.700	1	1
489.870	1	7
490.040	1	13
490.211	1	24
490.381	1	17
490.551	1	5
490.721	1	19
490.892	1	-5
491.062	1	3
491.232	1	12
491.402	1	11
491.573	1	8
491.743	1	10
491.913	1	15
492.084	1	-1
492.254	1	9
492.424	1	7
492.594	1	14
492.765	1	-10
492.935	1	10
493.105	1	8
493.275	1	16
493.446	1	-3
493.616	1	6
493.786	1	5
493.956	1	16
494.127	1	2
494.297	1	7
494.467	1	1
494.637	1	2
494.808	1	11
494.978	1	8
495.148	1	4
495.318	1	18
495.489	1	-2
495.659	1	5
495.829	1	9
495.999	1	7
496.170	1	10
496.340	1	9
496.510	1	4
496.680	1	13
496.851	1	8
497.021	1	5
497.191	1	18
497.361	1	10
497.532	1	-10
497.702	1	11
497.872	1	6
498.042	1	7
498.213	1	10
498.383	1	9
498.553	1	6
498.723	1	1
498.894	1	10
499.064	1	-2
499.234	1	12
499.404	1	9
499.574	1	8
499.745	1	1
499.915	1	17
500.085	1	5
500.255	1	7
500.426	1	-4
500.596	1	9
500.766	1	14
500.936	1	8
501.106	1	3
501.277	1	-2
501.447	1	11
501.617	1	6
501.787	1	10
501.958	1	-3
502.128	1	-3
502.298	1	-2
502.468	1	10
502.638	1	8
502.809	1	2
502.979	1	4
503.149	1	3
503.319	1	3
503.489	1	2
503.660	1	2
503.830	1	-2
504.000	1	4
504.170	1	13
504.340	1	15
504.511	1	4
504.681	1	13
504.851	1	14
505.021	1	7
505.192	1	9
505.362	1	6
505.532	1	-1
505.702	1	5
505.872	1	10
506.043	1	7
506.213	1	8
506.383	1	5
506.553	1	7
506.723	1	-1
506.893	1	7
507.064	1	1
507.234	1	10
507.404	1	3
507.574	1	-4
507.744	1	7
507.915	1	9
508.085	1	8
508.255	1	-8
508.425	1	0
508.595	1	6
508.766	1	1
508.936	1	5
509.106	1	0
509.276	1	10
509.446	1	0
509.616	1	10
509.787	1	3
509.957	1	13
510.127	1	3
510.297	1	-2
510.467	1	12
510.638	1	8
510.808	1	5
510.978	1	4
511.148	1	8
511.318	1	-2
511.488	1	10
511.659	1	12
511.829	1	6
511.999	1	7
512.169	1	13
512.339	1	7
512.509	1	5
512.680	1	2
512.850	1	-2
513.020	1	0
513.190	1	8
513.360	1	2
513.530	1	5
513.700	1	12
513.871	1	14
514.041	1	7
514.211	1	1
514.381	1	7
514.551	1	8
514.721	1	10
514.892	1	-2
515.062	1	2
515.232	1	-2
515.402	1	8
515.572	1	14
515.742	1	2
515.912	1	-1
516.083	1	14
516.253	1	2
516.423	1	4
516.593	1	4
516.763	1	-12
516.933	1	-9
517.104	1	-3
517.274	1	12
517.444	1	-3
517.614	1	-4
517.784	1	2
517.954	1	8
518.124	1	12
518.294	1	9
518.465	1	-5
518.635	1	9
518.805	1	0
518.975	1	6
519.145	1	-2
519.315	1	3
519.485	1	11
519.656	1	2
519.826	1	-1
519.996	1	5
520.166	1	6
520.336	1	-6
520.506	1	4
520.676	1	-2
520.846	1	15
521.017	1	7
521.187	1	8
521.357	1	11
521.527	1	5
521.697	1	2
521.867	1	1
522.037	1	13
522.207	1	1
522.377	1	-8
522.548	1	2
522.718	1	-1
522.888	1	17
523.058	1	6
523.228	1	7
523.398	1	13
523.568	1	5
523.738	1	6
523.909	1	15
524.079	1	11
524.249	1	0
524.419	1	5
524.589	1	0
524.759	1	9
524.929	1	1
525.099	1	4
525.269	1	3
525.439	1	-7
525.610	1	5
525.780	1	2
525.950	1	13
526.120	1	2
526.290	1	11
526.460	1	4
526.630	1	2
526.800	1	-7
526.970	1	-1
527.140	1	8
527.311	1	10
527.481	1	12
527.651	1	3
527.821	1	-11
527.991	1	3
528.161	1	3
528.331	1	5
528.501	1	-1
528.671	1	6
528.841	1	11
529.011	1	-3
529.181	1	-7
529.352	1	-4
529.522	1	2
529.692	1	12
529.862	1	5
530.032	1	13
530.202	1	4
530.372	1	-6
530.542	1	-5
530.712	1	8
530.882	1	-2
531.052	1	3
531.222	1	1
531.392	1	7
531.563	1	10
531.733	1	6
531.903	1	5
532.073	1	5
532.243	1	15
532.413	1	6
532.583	1	-13
532.753	1	1
532.923	1	5
533.093	1	2
533.263	1	2
533.433	1	6
533.603	1	6
533.773	1	6
533.943	1	0
534.113	1	13
534.284	1	4
534.454	1	3
534.624	1	6
534.794	1	3
534.964	1	3
535.134	1	6
535.304	1	6
535.474	1	9
535.644	1	9
535.814	1	-9
535.984	1	5
536.154	1	6
536.324	1	6
536.494	1	-1
536.664	1	12
536.834	1	7
537.004	1	5
537.174	1	-3
537.344	1	12
537.514	1	-1
537.685	1	11
537.855	1	-2
538.025	1	0
538.195	1	1
538.365	1	13
538.535	1	2
538.705	1	6
538.875	1	-2
539.045	1	3
539.215	1	13
539.385	1	8
539.555	1	1
539.725	1	-5
539.895	1	14
540.065	1	7
540.235	1	6
540.405	1	1
540.575	1	8
540.745	1	7
540.915	1	2
541.085	1	-6
541.255	1	1
541.425	1	1
541.595	1	-8
541.765	1	-1
541.935	1	9
542.105	1	8
542.275	1	-5
542.445	1	2
542.615	1	2
542.785	1	-6
542.955	1	11
543.125	1	1
543.295	1	6
543.465	1	2
543.635	1	7
543.805	1	-3
543.975	1	-1
544.145	1	-3
544.315	1	10
544.485	1	-6
544.655	1	7
544.825	1	10
544.995	1	-7
545.165	1	8
545.335	1	3
545.505	1	1
545.675	1	9
545.845	1	11
546.015	1	2
546.185	1	6
546.355	1	5
546.525	1	5
546.695	1	10
546.865	1	8
547.035	1	3
547.205	1	0
547.375	1	10
547.545	1	7
547.715	1	-7
547.885	1	3
548.055	1	16
548.225	1	6
548.395	1	3
548.565	1	6
548.735	1	-4
548.905	1	14
549.075	1	2
549.245	1	11
549.415	1	6
549.585	1	8
549.755	1	0
549.925	1	15
550.095	1	2
550.265	1	8
550.435	1	2
550.605	1	-4
550.775	1	0
550.945	1	0
551.115	1	4
551.285	1	5
551.455	1	12
551.625	1	15
551.795	1	7
551.965	1	-2
552.135	1	3
552.305	1	8
552.475	1	8
552.645	1	10
552.815	1	2
552.985	1	-7
553.155	1	-2
553.325	1	-3
553.495	1	4
553.665	1	11
553.835	1	16
554.004	1	-3
554.174	1	-6
554.344	1	14
554.514	1	2
554.684	1	0
554.854	1	-2
555.024	1	-7
555.194	1	3
555.364	1	0
555.534	1	3
555.704	1	4
555.874	1	7
556.044	1	5
556.214	1	1
556.384	1	2
556.554	1	-4
556.724	1	0
556.894	1	-3
557.064	1	13
557.234	1	5
557.404	1	-2
557.573	1	10
557.743	1	-10
557.913	1	1
558.083	1	12
558.253	1	-2
558.423	1	4
558.593	1	20
558.763	1	11
558.933	1	7
559.103	1	2
559.273	1	0
559.443	1	1
559.613	1	-6
559.783	1	6
559.953	1	-4
560.122	1	0
560.292	1	1
560.462	1	0
560.632	1	9
560.802	1	-2
560.972	1	-4
561.142	1	-8
561.312	1	1
561.482	1	8
561.652	1	5
561.822	1	14
561.992	1	-3
562.162	1	8
562.331	1	6
562.501	1	0
562.671	1	-5
562.841	1	4
563.011	1	-7
563.181	1	6
563.351	1	5
563.521	1	-1
563.691	1	-2
563.861	1	4
564.031	1	6
564.201	1	4
564.370	1	4
564.540	1	-4
564.710	1	8
564.880	1	3
565.050	1	6
565.220	1	1
565.390	1	-1
565.560	1	8
565.730	1	-9
565.900	1	4
566.069	1	-1
566.239	1	4
566.409	1	7
566.579	1	-2
566.749	1	8
566.919	1	-1
567.089	1	0
567.259	1	8
567.429	1	-5
567.599	1	2
567.768	1	0
567.938	1	-1
568.108	1	-1
568.278	1	10
568.448	1	0
568.618	1	10
568.788	1	11
568.958	1	-5
569.128	1	-1
569.297	1	11
569.467	1	-9
569.637	1	10
569.807	1	5
569.977	1	8
570.147	1	0
570.317	1	-5
570.487	1	-4
570.656	1	2
570.826	1	6
570.996	1	9
571.166	1	13
571.336	1	-1
571.506	1	1
571.676	1	10
571.846	1	9
572.015	1	-1
572.185	1	9
572.355	1	8
572.525	1	3
572.695	1	6
572.865	1	6
573.035	1	16
573.205	1	-2
573.374	1	14
573.544	1	-4
573.714	1	9
573.884	1	-2
574.054	1	9
574.224	1	0
574.394	1	-1
574.563	1	-2
574.733	1	-3
574.903	1	-2
575.073	1	5
575.243	1	11
575.413	1	2
575.583	1	-1
575.752	1	5
575.922	1	8
576.092	1	4
576.262	1	4
576.432	1	13
576.602	1	2
576.772	1	3
576.941	1	-6
577.111	1	9
577.281	1	-3
577.451	1	9
577.621	1	0
577.791	1	0
577.960	1	8
578.130	1	1
578.300	1	2
578.470	1	12
578.640	1	-5
578.810	1	-3
578.979	1	-3
579.149	1	5
579.319	1	5
579.489	1	8
579.659	1	10
579.829	1	15
579.998	1	5
580.168	1	9
580.338	1	1
580.508	1	9
580.678	1	5
580.848	1	-9
581.017	1	1
581.187	1	4
581.357	1	7
581.527	1	-4
581.697	1	1
581.867	1	7
582.036	1	6
582.206	1	4
582.376	1	2
582.546	1	-3
582.716	1	-8
582.885	1	1
583.055	1	3
583.225	1	14
583.395	1	-4
583.565	1	0
583.735	1	1
583.904	1	8
584.074	1	1
584.244	1	8
584.414	1	1
584.584	1	10
584.753	1	0
584.923	1	10
585.093	1	-6
585.263	1	6
585.433	1	-4
585.602	1	3
585.772	1	-6
585.942	1	1
586.112	1	-2
586.282	1	3
586.451	1	-2
586.621	1	8
586.791	1	7
586.961	1	-6
587.131	1	5
587.300	1	-8
587.470	1	6
587.640	1	2
587.810	1	5
587.980	1	6
588.149	1	-2
588.319	1	0
588.489	1	8
588.659	1	12
588.829	1	1
588.998	1	8
589.168	1	13
589.338	1	8
589.508	1	-1
589.677	1	-8
589.847	1	15
590.017	1	4
590.187	1	2
590.357	1	1
590.526	1	-2
590.696	1	4
590.866	1	5
591.036	1	13
591.205	1	8
591.375	1	-4
591.545	1	-1
591.715	1	-3
591.885	1	-4
592.054	1	-11
592.224	1	9
592.394	1	-1
592.564	1	5
592.733	1	11
592.903	1	-1
593.073	1	8
593.243	1	13
593.412	1	14
593.582	1	2
593.752	1	4
593.922	1	0
594.091	1	-5
594.261	1	8
594.431	1	6
594.601	1	-7
594.771	1	-1
594.940	1	2
595.110	1	0
595.280	1	-10
595.450	1	17
595.619	1	4
595.789	1	-6
595.959	1	1
596.129	1	15
596.298	1	7
596.468	1	-2
596.638	1	3
596.808	1	-1
596.977	1	1
597.147	1	2
597.317	1	-1
597.487	1	-6
597.656	1	-1
597.826	1	4
597.996	1	0
598.166	1	16
598.335	1	-1
598.505	1	0
598.675	1	8
598.844	1	2
599.014	1	1
599.184	1	15
599.354	1	-2
599.523	1	6
599.693	1	8
599.863	1	13
600.033	1	-9
600.202	1	7
600.372	1	0
600.542	1	1
600.712	1	2
600.881	1	1
601.051	1	-2
601.221	1	7
601.390	1	0
601.560	1	-1
601.730	1	13
601.900	1	-2
602.069	1	0
602.239	1	20
602.409	1	1
602.578	1	4
602.748	1	7
602.918	1	9
603.088	1	9
603.257	1	8
603.427	1	1
603.597	1	13
603.767	1	-5
603.936	1	-2
604.106	1	1
604.276	1	7
604.445	1	6
604.615	1	4
604.785	1	5
604.954	1	-7
605.124	1	3
605.294	1	4
605.464	1	12
605.633	1	1
605.803	1	9
605.973	1	12
606.142	1	12
606.312	1	14
606.482	1	-3
606.652	1	2
606.821	1	-2
606.991	1	10
607.161	1	5
607.330	1	-2
607.500	1	3
607.670	1	0
607.839	1	3
608.009	1	4
608.179	1	7
608.348	1	17
608.518	1	5
608.688	1	20
608.858	1	9
609.027	1	9
609.197	1	-8
609.367	1	7
609.536	1	15
609.706	1	1
609.876	1	9
610.045	1	9
610.215	1	7
610.385	1	-5
610.554	1	1
610.724	1	-4
610.894	1	7
611.063	1	-3
611.233	1	12
611.403	1	12
611.572	1	-5
611.742	1	-4
611.912	1	9
612.081	1	6
612.251	1	4
612.421	1	6
612.590	1	7
612.760	1	6
612.930	1	-1
613.099	1	11
613.269	1	-5
613.439	1	4
613.608	1	-5
613.778	1	7
613.948	1	3
614.117	1	12
614.287	1	12
614.457	1	5
614.626	1	1
614.796	1	10
614.966	1	17
615.135	1	14
615.305	1	7
615.475	1	8
615.644	1	-6
615.814	1	2
615.984	1	4
616.153	1	6
616.323	1	8
616.493	1	7
616.662	1	6
616.832	1	11
617.002	1	-1
617.171	1	-1
617.341	1	12
617.511	1	-3
617.680	1	9
617.850	1	1
618.019	1	13
618.189	1	3
618.359	1	14
618.528	1	2
618.698	1	3
618.868	1	-3
619.037	1	13
619.207	1	9
619.377	1	-8
619.546	1	5
619.716	1	5
619.885	1	6
620.055	1	-5
620.225	1	12
620.394	1	8
620.564	1	3
620.734	1	3
620.903	1	7
621.073	1	5
621.242	1	21
621.412	1	0
621.582	1	10
621.751	1	2
621.921	1	16
622.091	1	1
622.260	1	1
622.430	1	4
622.599	1	8
622.769	1	4
622.939	1	-4
623.108	1	7
623.278	1	6
623.448	1	5
623.617	1	0
623.787	1	3
623.956	1	6
624.126	1	-8
624.296	1	-3
624.465	1	0
624.635	1	17
624.804	1	-1
624.974	1	7
625.144	1	5
625.313	1	12
625.483	1	3
625.652	1	3
625.822	1	8
625.992	1	6
626.161	1	9
626.331	1	18
626.501	1	22
626.670	1	-1
626.840	1	6
627.009	1	10
627.179	1	13
627.348	1	3
627.518	1	8
627.688	1	-1
627.857	1	7
628.027	1	6
628.196	1	-2
628.366	1	6
628.536	1	6
628.705	1	-3
628.875	1	16
629.044	1	4
629.214	1	17
629.384	1	4
629.553	1	2
629.723	1	12
629.892	1	6
630.062	1	9
630.232	1	-10
630.401	1	4
630.571	1	4
630.740	1	5
630.910	1	13
631.079	1	18
631.249	1	9
631.419	1	0
631.588	1	3
631.758	1	8
631.927	1	-4
632.097	1	9
632.266	1	8
632.436	1	11
632.606	1	7
632.775	1	11
632.945	1	0
633.114	1	4
633.284	1	1
633.453	1	-2
633.623	1	1
633.793	1	18
633.962	1	4
634.132	1	5
634.301	1	7
634.471	1	1
634.640	1	5
634.810	1	13
634.979	1	4
635.149	1	6
635.319	1	-4
635.488	1	2
635.658	1	12
635.827	1	17
635.997	1	5
636.166	1	10
636.336	1	17
636.505	1	13
636.675	1	-1
636.845	1	4
637.014	1	12
637.184	1	13
637.353	1	7
637.523	1	17
637.692	1	3
637.862	1	3
638.031	1	16
638.201	1	10
638.370	1	10
638.540	1	6
638.710	1	0
638.879	1	7
639.049	1	8
639.218	1	7
639.388	1	1
639.557	1	24
639.727	1	16
639.896	1	18
640.066	1	3
640.235	1	8
640.405	1	6
640.574	1	16
640.744	1	13
640.914	1	2
641.083	1	15
641.253	1	9
641.422	1	5
641.592	1	0
641.761	1	7
641.931	1	15
642.100	1	2
642.270	1	8
642.439	1	11
642.609	1	1
642.778	1	7
642.948	1	14
643.117	1	-2
643.287	1	10
643.456	1	9
643.626	1	10
643.795	1	3
643.965	1	13
644.134	1	5
644.304	1	16
644.473	1	9
644.643	1	11
644.812	1	2
644.982	1	1
645.151	1	5
645.321	1	1
645.490	1	14
645.660	1	-5
645.829	1	8
645.999	1	8
646.168	1	10
646.338	1	0
646.507	1	0
646.677	1	9
646.846	1	6
647.016	1	9
647.185	1	8
647.355	1	10
647.524	1	4
647.694	1	1
647.863	1	4
648.033	1	7
648.202	1	2
648.372	1	-2
648.541	1	5
648.711	1	4
648.880	1	4
649.050	1	4
649.219	1	5
649.389	1	-1
649.558	1	5
649.728	1	16
649.897	1	4
650.067	1	1
650.236	1	2
650.406	1	12
650.575	1	10
650.745	1	-1
650.914	1	8
651.084	1	2
651.253	1	4
651.423	1	12
651.592	1	13
651.762	1	-3
651.931	1	12
652.101	1	1
652.270	1	5
652.440	1	-6
652.609	1	14
652.778	1	1
652.948	1	12
653.117	1	11
653.287	1	14
653.456	1	6
653.626	1	14
653.795	1	-1
653.965	1	14
654.134	1	3
654.304	1	7
654.473	1	3
654.643	1	-9
654.812	1	1
654.982	1	10
655.151	1	7
655.320	1	12
655.490	1	4
655.659	1	-2
655.829	1	12
655.998	1	4
656.168	1	4
656.337	1	13
656.507	1	0
656.676	1	4
656.846	1	7
657.015	1	18
657.184	1	13
657.354	1	6
657.523	1	4
657.693	1	2
657.862	1	0
658.032	1	22
658.201	1	13
658.371	1	8
658.540	1	2
658.709	1	11
658.879	1	4
659.048	1	16
659.218	1	11
659.387	1	5
659.557	1	2
659.726	1	-2
659.895	1	-2
660.065	1	12
660.234	1	1
660.404	1	8
660.573	1	2
660.743	1	4
660.912	1	5
661.081	1	3
661.251	1	11
661.420	1	8
661.590	1	13
661.759	1	4
661.929	1	-3
662.098	1	8
662.267	1	13
662.437	1	0
662.606	1	0
662.776	1	-3
662.945	1	10
663.115	1	5
663.284	1	3
663.453	1	4
663.623	1	10
663.792	1	1
663.962	1	-4
664.131	1	0
664.300	1	-6
664.470	1	5
664.639	1	19
664.809	1	-2
664.978	1	-10
665.148	1	9
665.317	1	13
665.486	1	4
665.656	1	16
665.825	1	5
665.995	1	3
666.164	1	14
666.333	1	9
666.503	1	0
666.672	1	-3
666.842	1	1
667.011	1	5
667.180	1	8
667.350	1	5
667.519	1	-6
667.689	1	3
667.858	1	4
668.027	1	-4
668.197	1	2
668.366	1	16
668.536	1	11
668.705	1	3
668.874	1	6
669.044	1	4
669.213	1	8
669.382	1	-1
669.552	1	3
669.721	1	9
669.891	1	3
670.060	1	13
670.229	1	11
670.399	1	3
670.568	1	-5
670.738	1	6
670.907	1	16
671.076	1	7
671.246	1	8
671.415	1	3
671.584	1	-2
671.754	1	6
671.923	1	2
672.093	1	-1
672.262	1	0
672.431	1	4
672.601	1	10
672.770	1	14
672.939	1	-8
673.109	1	2
673.278	1	5
673.448	1	6
673.617	1	0
673.786	1	-5
