325.333	1	14
325.504	1	7
325.675	1	7
325.846	1	-8
326.017	1	7
326.188	1	5
326.359	1	-3
326.531	1	-3
326.702	1	9
326.873	1	3
327.044	1	3
327.215	1	7
327.386	1	9
327.557	1	6
327.728	1	10
327.899	1	3
328.070	1	5
328.241	1	4
328.412	1	-7
328.583	1	12
328.754	1	-5
328.926	1	7
329.097	1	6
329.268	1	17
329.439	1	-2
329.610	1	11
329.781	1	1
329.952	1	-3
330.123	1	8
330.294	1	11
330.465	1	3
330.636	1	19
330.807	1	8
330.978	1	18
331.149	1	2
331.320	1	10
331.492	1	5
331.663	1	5
331.834	1	8
332.005	1	-3
332.176	1	7
332.347	1	7
332.518	1	0
332.689	1	8
332.860	1	1
333.031	1	0
333.202	1	-2
333.373	1	5
333.544	1	10
333.715	1	4
333.886	1	-5
334.057	1	8
334.228	1	5
334.399	1	5
334.570	1	7
334.741	1	-1
334.912	1	12
335.084	1	6
335.255	1	4
335.426	1	2
335.597	1	4
335.768	1	-3
335.939	1	14
336.110	1	11
336.281	1	8
336.452	1	3
336.623	1	5
336.794	1	6
336.965	1	9
337.136	1	10
337.307	1	0
337.478	1	1
337.649	1	15
337.820	1	7
337.991	1	20
338.162	1	9
338.333	1	11
338.504	1	5
338.675	1	5
338.846	1	-1
339.017	1	2
339.188	1	7
339.359	1	12
339.530	1	4
339.701	1	14
339.872	1	10
340.043	1	10
340.214	1	2
340.385	1	-9
340.556	1	10
340.727	1	18
340.898	1	2
341.069	1	0
341.240	1	12
341.411	1	14
341.582	1	1
341.753	1	21
341.924	1	2
342.095	1	10
342.266	1	3
342.437	1	7
342.608	1	14
342.779	1	7
342.950	1	-5
343.121	1	16
343.292	1	17
343.463	1	0
343.634	1	-2
343.805	1	10
343.976	1	4
344.147	1	-3
344.318	1	2
344.489	1	2
344.660	1	17
344.831	1	3
345.002	1	5
345.173	1	11
345.344	1	-8
345.515	1	5
345.686	1	5
345.857	1	5
346.028	1	7
346.199	1	5
346.370	1	11
346.541	1	13
346.712	1	9
346.883	1	11
347.054	1	-2
347.225	1	8
347.396	1	-7
347.567	1	16
347.738	1	1
347.909	1	3
348.080	1	8
348.251	1	12
348.422	1	-1
348.593	1	-1
348.764	1	13
348.935	1	4
349.106	1	1
349.277	1	13
349.448	1	10
349.619	1	8
349.790	1	20
349.961	1	7
350.132	1	4
350.303	1	7
350.474	1	6
350.645	1	3
350.816	1	1
350.987	1	-9
351.157	1	2
351.328	1	1
351.499	1	16
351.670	1	2
351.841	1	12
352.012	1	9
352.183	1	3
352.354	1	7
352.525	1	3
352.696	1	3
352.867	1	4
353.038	1	1
353.209	1	22
353.380	1	10
353.551	1	-3
353.722	1	5
353.893	1	-3
354.064	1	11
354.235	1	5
354.406	1	11
354.576	1	-2
354.747	1	-2
354.918	1	20
355.089	1	2
355.260	1	5
355.431	1	-1
355.602	1	3
355.773	1	-5
355.944	1	8
356.115	1	-7
356.286	1	6
356.457	1	10
356.628	1	0
356.799	1	-3
356.970	1	-3
357.141	1	1
357.311	1	6
357.482	1	2
357.653	1	1
357.824	1	4
357.995	1	3
358.166	1	3
358.337	1	6
358.508	1	-2
358.679	1	3
358.850	1	7
359.021	1	-4
359.192	1	2
359.363	1	-4
359.533	1	-4
359.704	1	3
359.875	1	6
360.046	1	-2
360.217	1	0
360.388	1	-4
360.559	1	12
360.730	1	7
360.901	1	11
361.072	1	2
361.243	1	-1
361.414	1	2
361.584	1	3
361.755	1	4
361.926	1	0
362.097	1	2
362.268	1	5
362.439	1	0
362.610	1	11
362.781	1	4
362.952	1	-9
363.123	1	-3
363.293	1	7
363.464	1	8
363.635	1	9
363.806	1	0
363.977	1	18
364.148	1	4
364.319	1	7
364.490	1	8
364.661	1	-8
364.832	1	-1
365.002	1	-7
365.173	1	3
365.344	1	-5
365.515	1	2
365.686	1	2
365.857	1	-5
366.028	1	0
366.199	1	8
366.370	1	0
366.540	1	4
366.711	1	-9
366.882	1	9
367.053	1	7
367.224	1	2
367.395	1	-1
367.566	1	7
367.737	1	8
367.908	1	-3
368.078	1	-1
368.249	1	-5
368.420	1	6
368.591	1	-6
368.762	1	10
368.933	1	9
369.104	1	8
369.274	1	3
369.445	1	-1
369.616	1	9
369.787	1	9
369.958	1	1
370.129	1	3
370.300	1	-5
370.471	1	5
370.641	1	12
370.812	1	-6
370.983	1	1
371.154	1	11
371.325	1	2
371.496	1	3
371.667	1	-11
371.837	1	8
372.008	1	3
372.179	1	8
372.350	1	0
372.521	1	-2
372.692	1	0
372.863	1	0
373.033	1	9
373.204	1	1
373.375	1	5
373.546	1	-15
373.717	1	5
373.888	1	0
374.059	1	5
374.229	1	-3
374.400	1	6
374.571	1	-3
374.742	1	1
374.913	1	2
375.084	1	0
375.254	1	1
375.425	1	12
375.596	1	7
375.767	1	6
375.938	1	-3
376.109	1	2
376.279	1	5
376.450	1	8
376.621	1	-5
376.792	1	4
376.963	1	10
377.134	1	8
377.304	1	-5
377.475	1	7
377.646	1	-2
377.817	1	1
377.988	1	1
378.159	1	-1
378.329	1	-2
378.500	1	-5
378.671	1	9
378.842	1	16
379.013	1	10
379.184	1	-7
379.354	1	7
379.525	1	13
379.696	1	8
379.867	1	-2
380.038	1	17
380.209	1	9
380.379	1	16
380.550	1	-4
380.721	1	12
380.892	1	8
381.063	1	6
381.233	1	1
381.404	1	11
381.575	1	4
381.746	1	-4
381.917	1	4
382.087	1	14
382.258	1	13
382.429	1	7
382.600	1	2
382.771	1	9
382.941	1	0
383.112	1	-3
383.283	1	-2
383.454	1	5
383.625	1	3
383.795	1	15
383.966	1	13
384.137	1	6
384.308	1	15
384.479	1	14
384.649	1	3
384.820	1	9
384.991	1	18
385.162	1	6
385.333	1	3
385.503	1	2
385.674	1	4
385.845	1	1
386.016	1	13
386.187	1	11
386.357	1	-2
386.528	1	0
386.699	1	5
386.870	1	7
387.041	1	11
387.211	1	8
387.382	1	9
387.553	1	8
387.724	1	0
387.894	1	-2
388.065	1	7
388.236	1	10
388.407	1	11
388.578	1	1
388.748	1	13
388.919	1	-4
389.090	1	15
389.261	1	8
389.431	1	14
389.602	1	13
389.773	1	1
389.944	1	4
390.114	1	4
390.285	1	21
390.456	1	7
390.627	1	13
390.798	1	10
390.968	1	12
391.139	1	-5
391.310	1	4
391.481	1	-5
391.651	1	6
391.822	1	1
391.993	1	-6
392.164	1	7
392.334	1	0
392.505	1	13
392.676	1	-2
392.847	1	0
393.017	1	-1
393.188	1	11
393.359	1	13
393.530	1	9
393.700	1	15
393.871	1	7
394.042	1	-3
394.213	1	13
394.383	1	16
394.554	1	2
394.725	1	9
394.896	1	14
395.066	1	9
395.237	1	3
395.408	1	6
395.579	1	9
395.749	1	-3
395.920	1	5
396.091	1	5
396.262	1	-2
396.432	1	7
396.603	1	0
396.774	1	6
396.945	1	5
397.115	1	13
397.286	1	4
397.457	1	10
397.627	1	5
397.798	1	15
397.969	1	11
398.140	1	-9
398.310	1	23
398.481	1	7
398.652	1	9
398.823	1	9
398.993	1	10
399.164	1	-2
399.335	1	10
399.505	1	12
399.676	1	10
399.847	1	12
400.018	1	13
400.188	1	12
400.359	1	2
400.530	1	20
400.700	1	5
400.871	1	16
401.042	1	19
401.213	1	-1
401.383	1	9
401.554	1	9
401.725	1	1
401.895	1	4
402.066	1	14
402.237	1	13
402.408	1	20
402.578	1	14
402.749	1	13
402.920	1	2
403.090	1	-1
403.261	1	5
403.432	1	7
403.603	1	16
403.773	1	22
403.944	1	9
404.115	1	11
404.285	1	4
404.456	1	12
404.627	1	25
404.797	1	12
404.968	1	11
405.139	1	11
405.310	1	4
405.480	1	6
405.651	1	8
405.822	1	4
405.992	1	20
406.163	1	5
406.334	1	15
406.504	1	8
406.675	1	14
406.846	1	17
407.016	1	12
407.187	1	14
407.358	1	11
407.528	1	10
407.699	1	17
407.870	1	5
408.041	1	13
408.211	1	8
408.382	1	7
408.553	1	18
408.723	1	12
408.894	1	6
409.065	1	9
409.235	1	2
409.406	1	15
409.577	1	24
409.747	1	9
409.918	1	8
410.089	1	9
410.259	1	18
410.430	1	5
410.601	1	21
410.771	1	14
410.942	1	4
411.113	1	11
411.283	1	12
411.454	1	11
411.625	1	19
411.795	1	20
411.966	1	16
412.137	1	23
412.307	1	2
412.478	1	15
412.649	1	16
412.819	1	11
412.990	1	10
413.161	1	15
413.331	1	23
413.502	1	16
413.672	1	3
413.843	1	20
414.014	1	12
414.184	1	23
414.355	1	13
414.526	1	22
414.696	1	12
414.867	1	22
415.038	1	17
415.208	1	0
415.379	1	10
415.550	1	16
415.720	1	3
415.891	1	7
416.062	1	13
416.232	1	21
416.403	1	5
416.573	1	15
416.744	1	19
416.915	1	12
417.085	1	12
417.256	1	9
417.427	1	16
417.597	1	18
417.768	1	7
417.939	1	13
418.109	1	15
418.280	1	13
418.450	1	16
418.621	1	9
418.792	1	14
418.962	1	18
419.133	1	20
419.304	1	19
419.474	1	16
419.645	1	16
419.815	1	24
419.986	1	19
420.157	1	9
420.327	1	10
420.498	1	12
420.669	1	6
420.839	1	18
421.010	1	15
421.180	1	14
421.351	1	18
421.522	1	9
421.692	1	7
421.863	1	14
422.033	1	14
422.204	1	7
422.375	1	20
422.545	1	18
422.716	1	5
422.886	1	13
423.057	1	22
423.228	1	11
423.398	1	18
423.569	1	16
423.740	1	20
423.910	1	19
424.081	1	19
424.251	1	10
424.422	1	15
424.593	1	7
424.763	1	17
424.934	1	10
425.104	1	30
425.275	1	20
425.445	1	13
425.616	1	20
425.787	1	14
425.957	1	16
426.128	1	19
426.298	1	6
426.469	1	26
426.640	1	7
426.810	1	12
426.981	1	12
427.151	1	13
427.322	1	23
427.493	1	14
427.663	1	19
427.834	1	6
428.004	1	24
428.175	1	10
428.345	1	19
428.516	1	23
428.687	1	9
428.857	1	1
429.028	1	12
429.198	1	4
429.369	1	23
429.540	1	11
429.710	1	16
429.881	1	5
430.051	1	11
430.222	1	12
430.392	1	16
430.563	1	21
430.734	1	7
430.904	1	15
431.075	1	18
431.245	1	13
431.416	1	-3
431.586	1	17
431.757	1	17
431.927	1	8
432.098	1	11
432.269	1	14
432.439	1	9
432.610	1	14
432.780	1	2
432.951	1	6
433.121	1	6
433.292	1	14
433.462	1	23
433.633	1	22
433.804	1	16
433.974	1	21
434.145	1	7
434.315	1	14
434.486	1	19
434.656	1	17
434.827	1	6
434.997	1	15
435.168	1	5
435.339	1	21
435.509	1	19
435.680	1	-5
435.850	1	5
436.021	1	24
436.191	1	14
436.362	1	12
436.532	1	21
436.703	1	16
436.873	1	10
437.044	1	20
437.214	1	11
437.385	1	9
437.556	1	11
437.726	1	3
437.897	1	13
438.067	1	17
438.238	1	16
438.408	1	18
438.579	1	13
438.749	1	9
438.920	1	15
439.090	1	16
439.261	1	7
439.431	1	24
439.602	1	19
439.772	1	8
439.943	1	17
440.113	1	16
440.284	1	15
440.455	1	16
440.625	1	18
440.796	1	11
440.966	1	11
441.137	1	2
441.307	1	24
441.478	1	5
441.648	1	19
441.819	1	1
441.989	1	7
442.160	1	19
442.330	1	20
442.501	1	12
442.671	1	7
442.842	1	16
443.012	1	18
443.183	1	18
443.353	1	19
443.524	1	6
443.694	1	10
443.865	1	3
444.035	1	24
444.206	1	8
444.376	1	15
444.547	1	3
444.717	1	16
444.888	1	16
445.058	1	16
445.229	1	7
445.399	1	14
445.570	1	14
445.740	1	14
445.911	1	0
446.081	1	12
446.252	1	3
446.422	1	8
446.593	1	12
446.763	1	17
446.934	1	3
447.104	1	14
447.275	1	4
447.445	1	16
447.616	1	17
447.786	1	6
447.957	1	10
448.127	1	8
448.298	1	6
448.468	1	12
448.639	1	20
448.809	1	17
448.979	1	5
449.150	1	8
449.320	1	16
449.491	1	15
449.661	1	15
449.832	1	6
450.002	1	11
450.173	1	11
450.343	1	4
450.514	1	2
450.684	1	12
450.855	1	22
451.025	1	13
451.196	1	13
451.366	1	10
451.537	1	5
451.707	1	17
451.878	1	7
452.048	1	7
452.218	1	6
452.389	1	22
452.559	1	21
452.730	1	6
452.900	1	8
453.071	1	3
453.241	1	14
453.412	1	19
453.582	1	2
453.753	1	17
453.923	1	2
454.093	1	0
454.264	1	10
454.434	1	9
454.605	1	10
454.775	1	8
454.946	1	8
455.116	1	14
455.287	1	11
455.457	1	8
455.628	1	4
455.798	1	-2
455.968	1	4
456.139	1	2
456.309	1	12
456.480	1	8
456.650	1	16
456.821	1	14
456.991	1	11
457.161	1	20
457.332	1	16
457.502	1	24
457.673	1	7
457.843	1	1
458.014	1	13
458.184	1	3
458.355	1	18
458.525	1	7
458.695	1	-4
458.866	1	2
459.036	1	9
459.207	1	8
459.377	1	5
459.548	1	4
459.718	1	8
459.888	1	2
460.059	1	5
460.229	1	18
460.400	1	28
460.570	1	7
460.740	1	2
460.911	1	21
461.081	1	16
461.252	1	10
461.422	1	6
461.593	1	13
461.763	1	17
461.933	1	11
462.104	1	-2
462.274	1	1
462.445	1	5
462.615	1	5
462.785	1	6
462.956	1	7
463.126	1	0
463.297	1	13
463.467	1	13
463.638	1	9
463.808	1	12
463.978	1	5
464.149	1	4
464.319	1	4
464.490	1	0
464.660	1	-4
464.830	1	6
465.001	1	10
465.171	1	5
465.342	1	6
465.512	1	3
465.682	1	2
465.853	1	5
466.023	1	4
466.194	1	8
466.364	1	8
466.534	1	-2
466.705	1	3
466.875	1	15
467.045	1	13
467.216	1	15
467.386	1	6
467.557	1	4
467.727	1	3
467.897	1	18
468.068	1	12
468.238	1	-5
468.409	1	3
468.579	1	6
468.749	1	22
468.920	1	10
469.090	1	1
469.260	1	7
469.431	1	2
469.601	1	16
469.772	1	-7
469.942	1	11
470.112	1	6
470.283	1	6
470.453	1	6
470.623	1	14
470.794	1	-5
470.964	1	2
471.135	1	9
471.305	1	-4
471.475	1	8
471.646	1	8
471.816	1	14
471.986	1	-2
472.157	1	4
472.327	1	-5
472.497	1	-4
472.668	1	-1
472.838	1	9
473.009	1	13
473.179	1	10
473.349	1	9
473.520	1	4
473.690	1	17
473.860	1	-1
474.031	1	13
474.201	1	11
474.371	1	7
474.542	1	1
474.712	1	15
474.882	1	4
475.053	1	6
475.223	1	10
475.394	1	-5
475.564	1	14
475.734	1	4
475.905	1	0
476.075	1	1
476.245	1	5
476.416	1	4
476.586	1	12
476.756	1	0
476.927	1	-4
477.097	1	1
477.267	1	14
477.438	1	6
477.608	1	-3
477.778	1	-1
477.949	1	7
478.119	1	8
478.289	1	-1
478.460	1	6
478.630	1	1
478.800	1	12
478.971	1	-6
479.141	1	10
479.311	1	11
479.482	1	5
479.652	1	8
479.822	1	7
479.993	1	-5
480.163	1	10
480.333	1	11
480.504	1	9
480.674	1	1
480.844	1	9
481.015	1	7
481.185	1	4
481.355	1	4
481.525	1	3
481.696	1	7
481.866	1	-5
482.036	1	8
482.207	1	11
482.377	1	9
482.547	1	6
482.718	1	11
482.888	1	9
483.058	1	3
483.229	1	8
483.399	1	4
483.569	1	5
483.740	1	0
483.910	1	-3
484.080	1	13
484.250	1	12
484.421	1	4
484.591	1	1
484.761	1	2
484.932	1	-5
485.102	1	5
485.272	1	1
485.443	1	14
485.613	1	1
485.783	1	-5
485.953	1	5
486.124	1	-1
486.294	1	4
486.464	1	-3
486.635	1	15
486.805	1	13
486.975	1	-1
487.146	1	-5
487.316	1	17
487.486	1	12
487.656	1	14
487.827	1	3
487.997	1	0
488.167	1	3
488.338	1	7
488.508	1	3
488.678	1	5
488.848	1	12
489.019	1	9
489.189	1	0
489.359	1	5
489.529	1	6
489.700	1	-4
489.870	1	9
490.040	1	1
490.211	1	15
490.381	1	17
490.551	1	-2
490.721	1	9
490.892	1	-16
491.062	1	10
491.232	1	9
491.402	1	7
491.573	1	11
491.743	1	5
491.913	1	14
492.084	1	-6
492.254	1	-1
492.424	1	12
492.594	1	6
492.765	1	-8
492.935	1	1
493.105	1	11
493.275	1	4
493.446	1	3
493.616	1	6
493.786	1	1
493.956	1	12
494.127	1	-2
494.297	1	4
494.467	1	5
494.637	1	3
494.808	1	8
494.978	1	4
495.148	1	-5
495.318	1	7
495.489	1	5
495.659	1	-4
495.829	1	11
495.999	1	5
496.170	1	1
496.340	1	9
496.510	1	2
496.680	1	6
496.851	1	9
497.021	1	4
497.191	1	9
497.361	1	6
497.532	1	5
497.702	1	5
497.872	1	-1
498.042	1	-2
498.213	1	11
498.383	1	9
498.553	1	9
498.723	1	-7
498.894	1	10
499.064	1	6
499.234	1	17
499.404	1	-7
499.574	1	6
499.745	1	8
499.915	1	15
500.085	1	-1
500.255	1	-2
500.426	1	-3
500.596	1	7
500.766	1	8
500.936	1	1
501.106	1	1
501.277	1	-5
501.447	1	2
501.617	1	2
501.787	1	7
501.958	1	-2
502.128	1	2
502.298	1	0
502.468	1	-7
502.638	1	2
502.809	1	3
502.979	1	7
503.149	1	4
503.319	1	2
503.489	1	4
503.660	1	6
503.830	1	0
504.000	1	1
504.170	1	1
504.340	1	5
504.511	1	-10
504.681	1	6
504.851	1	9
505.021	1	7
505.192	1	-1
505.362	1	7
505.532	1	1
505.702	1	20
505.872	1	3
506.043	1	7
506.213	1	-5
506.383	1	0
506.553	1	4
506.723	1	4
506.893	1	-5
507.064	1	-1
507.234	1	0
507.404	1	5
507.574	1	4
507.744	1	8
507.915	1	2
508.085	1	13
508.255	1	-1
508.425	1	0
508.595	1	1
508.766	1	-1
508.936	1	-4
509.106	1	-1
509.276	1	9
509.446	1	-5
509.616	1	12
509.787	1	11
509.957	1	10
510.127	1	10
510.297	1	6
510.467	1	3
510.638	1	-1
510.808	1	0
510.978	1	6
511.148	1	9
511.318	1	-1
511.488	1	8
511.659	1	-1
511.829	1	-5
511.999	1	10
512.169	1	13
512.339	1	3
512.509	1	2
512.680	1	2
512.850	1	-6
513.020	1	1
513.190	1	4
513.360	1	2
513.530	1	-2
513.700	1	10
513.871	1	12
514.041	1	11
514.211	1	14
514.381	1	2
514.551	1	5
514.721	1	7
514.892	1	1
515.062	1	-5
515.232	1	-1
515.402	1	9
515.572	1	13
515.742	1	-3
515.912	1	8
516.083	1	8
516.253	1	-9
516.423	1	4
516.593	1	-2
516.763	1	-5
516.933	1	-7
517.104	1	-4
517.274	1	14
517.444	1	-6
517.614	1	-12
517.784	1	-4
517.954	1	12
518.124	1	18
518.294	1	4
518.465	1	-9
518.635	1	9
518.805	1	0
518.975	1	7
519.145	1	1
519.315	1	2
519.485	1	9
519.656	1	-2
519.826	1	3
519.996	1	-4
520.166	1	1
520.336	1	-6
520.506	1	8
520.676	1	1
520.846	1	15
521.017	1	1
521.187	1	3
521.357	1	3
521.527	1	-3
521.697	1	2
521.867	1	-1
522.037	1	18
522.207	1	8
522.377	1	-2
522.548	1	-2
522.718	1	9
522.888	1	1
523.058	1	6
523.228	1	4
523.398	1	9
523.568	1	-6
523.738	1	4
523.909	1	11
524.079	1	14
524.249	1	2
524.419	1	-1
524.589	1	0
524.759	1	-1
524.929	1	0
525.099	1	2
525.269	1	-4
525.439	1	-2
525.610	1	-2
525.780	1	4
525.950	1	-2
526.120	1	4
526.290	1	2
526.460	1	7
526.630	1	2
526.800	1	1
526.970	1	-2
527.140	1	7
527.311	1	13
527.481	1	6
527.651	1	10
527.821	1	-5
527.991	1	-2
528.161	1	5
528.331	1	1
528.501	1	-1
528.671	1	2
528.841	1	6
529.011	1	-6
529.181	1	-2
529.352	1	-1
529.522	1	-5
529.692	1	0
529.862	1	8
530.032	1	4
530.202	1	2
530.372	1	-3
530.542	1	4
530.712	1	6
530.882	1	-11
531.052	1	8
531.222	1	5
531.392	1	-1
531.563	1	-6
531.733	1	5
531.903	1	3
532.073	1	-1
532.243	1	5
532.413	1	6
532.583	1	-3
532.753	1	2
532.923	1	3
533.093	1	-5
533.263	1	8
533.433	1	4
533.603	1	12
533.773	1	-1
533.943	1	13
534.113	1	7
534.284	1	-2
534.454	1	1
534.624	1	9
534.794	1	-4
534.964	1	-1
535.134	1	-8
535.304	1	7
535.474	1	2
535.644	1	-5
535.814	1	-4
535.984	1	9
536.154	1	5
536.324	1	1
536.494	1	6
536.664	1	0
536.834	1	-5
537.004	1	4
537.174	1	-3
537.344	1	10
537.514	1	0
537.685	1	5
537.855	1	-1
538.025	1	-4
538.195	1	-5
538.365	1	4
538.535	1	-3
538.705	1	-1
538.875	1	-11
539.045	1	-2
539.215	1	13
539.385	1	10
539.555	1	2
539.725	1	-4
539.895	1	5
540.065	1	-1
540.235	1	6
540.405	1	5
540.575	1	8
540.745	1	-6
540.915	1	2
541.085	1	0
541.255	1	4
541.425	1	2
541.595	1	-7
541.765	1	6
541.935	1	-1
542.105	1	5
542.275	1	-1
542.445	1	-6
542.615	1	-1
542.785	1	-5
542.955	1	12
543.125	1	-1
543.295	1	5
543.465	1	2
543.635	1	7
543.805	1	-8
543.975	1	9
544.145	1	-9
544.315	1	10
544.485	1	4
544.655	1	4
544.825	1	1
544.995	1	5
545.165	1	0
545.335	1	-3
545.505	1	-5
545.675	1	6
545.845	1	4
546.015	1	4
546.185	1	5
546.355	1	-2
546.525	1	-2
546.695	1	10
546.865	1	8
547.035	1	-2
547.205	1	0
547.375	1	14
547.545	1	-3
547.715	1	-3
547.885	1	-1
548.055	1	8
548.225	1	-2
548.395	1	-1
548.565	1	8
548.735	1	5
548.905	1	13
549.075	1	-2
549.245	1	2
549.415	1	-2
549.585	1	5
549.755	1	-3
549.925	1	2
550.095	1	-1
550.265	1	9
550.435	1	9
550.605	1	7
550.775	1	-1
550.945	1	1
551.115	1	4
551.285	1	1
551.455	1	10
551.625	1	6
551.795	1	6
551.965	1	4
552.135	1	4
552.305	1	8
552.475	1	3
552.645	1	2
552.815	1	-1
552.985	1	-10
553.155	1	4
553.325	1	-12
553.495	1	7
553.665	1	2
553.835	1	2
554.004	1	6
554.174	1	-4
554.344	1	7
554.514	1	0
554.684	1	-9
554.854	1	3
555.024	1	-10
555.194	1	10
555.364	1	-7
555.534	1	9
555.704	1	2
555.874	1	7
556.044	1	7
556.214	1	11
556.384	1	-10
556.554	1	-9
556.724	1	-2
556.894	1	4
557.064	1	16
557.234	1	-1
557.404	1	-1
557.573	1	2
557.743	1	-6
557.913	1	0
558.083	1	3
558.253	1	-15
558.423	1	5
558.593	1	16
558.763	1	8
558.933	1	4
559.103	1	-5
559.273	1	-5
559.443	1	0
559.613	1	-17
559.783	1	2
559.953	1	-3
560.122	1	5
560.292	1	3
560.462	1	-1
560.632	1	7
560.802	1	-2
560.972	1	2
561.142	1	-2
561.312	1	2
561.482	1	1
561.652	1	3
561.822	1	5
561.992	1	2
562.162	1	10
562.331	1	6
562.501	1	-3
562.671	1	-2
562.841	1	-1
563.011	1	-8
563.181	1	-4
563.351	1	-5
563.521	1	4
563.691	1	-11
563.861	1	4
564.031	1	4
564.201	1	4
564.370	1	-2
564.540	1	-9
564.710	1	3
564.880	1	0
565.050	1	11
565.220	1	-4
565.390	1	-1
565.560	1	8
565.730	1	7
565.900	1	5
566.069	1	1
566.239	1	9
566.409	1	4
566.579	1	-6
566.749	1	7
566.919	1	-3
567.089	1	6
567.259	1	19
567.429	1	-1
567.599	1	-1
567.768	1	4
567.938	1	4
568.108	1	-4
568.278	1	-1
568.448	1	-10
568.618	1	7
568.788	1	9
568.958	1	-8
569.128	1	-13
569.297	1	5
569.467	1	-1
569.637	1	14
569.807	1	6
569.977	1	7
570.147	1	5
570.317	1	1
570.487	1	4
570.656	1	-1
570.826	1	-4
570.996	1	2
571.166	1	7
571.336	1	6
571.506	1	3
571.676	1	6
571.846	1	-1
572.015	1	-6
572.185	1	7
572.355	1	14
572.525	1	5
572.695	1	5
572.865	1	1
573.035	1	6
573.205	1	-2
573.374	1	-5
573.544	1	7
573.714	1	2
573.884	1	-3
574.054	1	9
574.224	1	9
574.394	1	-10
574.563	1	4
574.733	1	2
574.903	1	3
575.073	1	2
575.243	1	6
575.413	1	5
575.583	1	7
575.752	1	-1
575.922	1	5
576.092	1	0
576.262	1	3
576.432	1	11
576.602	1	4
576.772	1	-3
576.941	1	3
577.111	1	5
577.281	1	-7
577.451	1	3
577.621	1	7
577.791	1	0
577.960	1	4
578.130	1	2
578.300	1	-1
578.470	1	10
578.640	1	-6
578.810	1	-8
578.979	1	4
579.149	1	0
579.319	1	10
579.489	1	4
579.659	1	8
579.829	1	11
579.998	1	8
580.168	1	5
580.338	1	-7
580.508	1	4
580.678	1	2
580.848	1	-3
581.017	1	-4
581.187	1	4
581.357	1	-4
581.527	1	-3
581.697	1	-6
581.867	1	10
582.036	1	2
582.206	1	-6
582.376	1	7
582.546	1	-3
582.716	1	-2
582.885	1	7
583.055	1	2
583.225	1	19
583.395	1	-5
583.565	1	-3
583.735	1	1
583.904	1	1
584.074	1	4
584.244	1	5
584.414	1	-8
584.584	1	4
584.753	1	10
584.923	1	12
585.093	1	3
585.263	1	7
585.433	1	-3
585.602	1	1
585.772	1	5
585.942	1	4
586.112	1	6
586.282	1	5
586.451	1	6
586.621	1	-2
586.791	1	3
586.961	1	-9
587.131	1	9
587.300	1	0
587.470	1	3
587.640	1	-3
587.810	1	13
587.980	1	5
588.149	1	2
588.319	1	1
588.489	1	-1
588.659	1	11
588.829	1	7
588.998	1	-6
589.168	1	3
589.338	1	7
589.508	1	3
589.677	1	-4
589.847	1	13
590.017	1	-2
590.187	1	6
590.357	1	-2
590.526	1	-1
590.696	1	4
590.866	1	9
591.036	1	7
591.205	1	5
591.375	1	-1
591.545	1	6
591.715	1	-9
591.885	1	-1
592.054	1	-9
592.224	1	9
592.394	1	-1
592.564	1	10
592.733	1	10
592.903	1	0
593.073	1	-2
593.243	1	9
593.412	1	10
593.582	1	1
593.752	1	5
593.922	1	3
594.091	1	-2
594.261	1	3
594.431	1	4
594.601	1	-4
594.771	1	-3
594.940	1	-1
595.110	1	9
595.280	1	9
595.450	1	11
595.619	1	-7
595.789	1	-2
595.959	1	3
596.129	1	4
596.298	1	9
596.468	1	2
596.638	1	2
596.808	1	-4
596.977	1	6
597.147	1	-3
597.317	1	-6
597.487	1	-5
597.656	1	-3
597.826	1	8
597.996	1	4
598.166	1	5
598.335	1	-3
598.505	1	5
598.675	1	-1
598.844	1	2
599.014	1	-1
599.184	1	2
599.354	1	11
599.523	1	4
599.693	1	-5
599.863	1	0
600.033	1	-11
600.202	1	5
600.372	1	-2
600.542	1	1
600.712	1	2
600.881	1	3
601.051	1	3
601.221	1	10
601.390	1	-11
601.560	1	4
601.730	1	-1
601.900	1	-3
602.069	1	-2
602.239	1	10
602.409	1	-2
602.578	1	0
602.748	1	3
602.918	1	-1
603.088	1	3
603.257	1	4
603.427	1	-2
603.597	1	6
603.767	1	-1
603.936	1	-4
604.106	1	-2
604.276	1	4
604.445	1	8
604.615	1	6
604.785	1	12
604.954	1	-2
605.124	1	12
605.294	1	5
605.464	1	14
605.633	1	-1
605.803	1	2
605.973	1	2
606.142	1	5
606.312	1	7
606.482	1	4
606.652	1	-6
606.821	1	4
606.991	1	12
607.161	1	3
607.330	1	1
607.500	1	0
607.670	1	-4
607.839	1	-2
608.009	1	0
608.179	1	4
608.348	1	5
608.518	1	-1
608.688	1	8
608.858	1	10
609.027	1	17
609.197	1	-2
609.367	1	-5
609.536	1	11
609.706	1	1
609.876	1	9
610.045	1	3
610.215	1	0
610.385	1	-2
610.554	1	1
610.724	1	2
610.894	1	-4
611.063	1	2
611.233	1	2
611.403	1	16
611.572	1	4
611.742	1	-5
611.912	1	-1
612.081	1	-3
612.251	1	7
612.421	1	6
612.590	1	2
612.760	1	12
612.930	1	5
613.099	1	10
613.269	1	-4
613.439	1	3
613.608	1	-8
613.778	1	-4
613.948	1	0
614.117	1	-3
614.287	1	14
614.457	1	1
614.626	1	8
614.796	1	11
614.966	1	8
615.135	1	-1
615.305	1	6
615.475	1	-2
615.644	1	0
615.814	1	3
615.984	1	15
616.153	1	-2
616.323	1	12
616.493	1	2
616.662	1	3
616.832	1	1
617.002	1	-6
617.171	1	-6
617.341	1	6
617.511	1	-11
617.680	1	7
617.850	1	4
618.019	1	9
618.189	1	-6
618.359	1	4
618.528	1	0
618.698	1	-1
618.868	1	-1
619.037	1	7
619.207	1	-10
619.377	1	9
619.546	1	10
619.716	1	-4
619.885	1	-1
620.055	1	-8
620.225	1	13
620.394	1	5
620.564	1	-1
620.734	1	-12
620.903	1	-1
621.073	1	8
621.242	1	5
621.412	1	-4
621.582	1	12
621.751	1	4
621.921	1	10
622.091	1	7
622.260	1	-5
622.430	1	3
622.599	1	7
622.769	1	2
622.939	1	2
623.108	1	1
623.278	1	5
623.448	1	3
623.617	1	2
623.787	1	12
623.956	1	11
624.126	1	0
624.296	1	7
624.465	1	-8
624.635	1	15
624.804	1	7
624.974	1	-1
625.144	1	-3
625.313	1	4
625.483	1	13
625.652	1	3
625.822	1	11
625.992	1	-5
626.161	1	10
626.331	1	7
626.501	1	12
626.670	1	-5
626.840	1	-1
627.009	1	8
627.179	1	6
627.348	1	-4
627.518	1	4
627.688	1	-7
627.857	1	4
628.027	1	12
628.196	1	-5
628.366	1	6
628.536	1	6
628.705	1	-4
628.875	1	9
629.044	1	12
629.214	1	1
629.384	1	13
629.553	1	5
629.723	1	-1
629.892	1	16
630.062	1	-1
630.232	1	-7
630.401	1	2
630.571	1	9
630.740	1	4
630.910	1	17
631.079	1	0
631.249	1	1
631.419	1	0
631.588	1	6
631.758	1	4
631.927	1	-2
632.097	1	-5
632.266	1	7
632.436	1	0
632.606	1	9
632.775	1	6
632.945	1	0
633.114	1	1
633.284	1	2
633.453	1	-3
633.623	1	1
633.793	1	10
633.962	1	5
634.132	1	10
634.301	1	4
634.471	1	-5
634.640	1	7
634.810	1	13
634.979	1	6
635.149	1	10
635.319	1	-1
635.488	1	12
635.658	1	15
635.827	1	3
635.997	1	2
636.166	1	12
636.336	1	8
636.505	1	16
636.675	1	-8
636.845	1	4
637.014	1	11
637.184	1	12
637.353	1	9
637.523	1	17
637.692	1	2
637.862	1	4
638.031	1	10
638.201	1	12
638.370	1	15
638.540	1	1
638.710	1	-7
638.879	1	6
639.049	1	16
639.218	1	8
639.388	1	-1
639.557	1	16
639.727	1	3
639.896	1	10
640.066	1	11
640.235	1	9
640.405	1	-1
640.574	1	5
640.744	1	14
640.914	1	5
641.083	1	9
641.253	1	8
641.422	1	-3
641.592	1	6
641.761	1	10
641.931	1	6
642.100	1	0
642.270	1	-8
642.439	1	17
642.609	1	10
642.778	1	-2
642.948	1	6
643.117	1	-2
643.287	1	11
643.456	1	4
643.626	1	11
643.795	1	-2
643.965	1	13
644.134	1	3
644.304	1	8
644.473	1	12
644.643	1	6
644.812	1	2
644.982	1	7
645.151	1	6
645.321	1	-7
645.490	1	7
645.660	1	1
645.829	1	14
645.999	1	4
646.168	1	11
646.338	1	-4
646.507	1	8
646.677	1	-10
646.846	1	10
647.016	1	6
647.185	1	1
647.355	1	16
647.524	1	0
647.694	1	7
647.863	1	5
648.033	1	10
648.202	1	1
648.372	1	4
648.541	1	4
648.711	1	7
648.880	1	1
649.050	1	7
649.219	1	1
649.389	1	2
649.558	1	1
649.728	1	2
649.897	1	0
650.067	1	0
650.236	1	2
650.406	1	14
650.575	1	6
650.745	1	2
650.914	1	11
651.084	1	0
651.253	1	-3
651.423	1	19
651.592	1	9
651.762	1	1
651.931	1	7
652.101	1	4
652.270	1	3
652.440	1	-12
652.609	1	1
652.778	1	-11
652.948	1	-1
653.117	1	12
653.287	1	5
653.456	1	7
653.626	1	12
653.795	1	2
653.965	1	5
654.134	1	9
654.304	1	1
654.473	1	14
654.643	1	-8
654.812	1	-5
654.982	1	-1
655.151	1	-6
655.320	1	7
655.490	1	-2
655.659	1	5
655.829	1	0
655.998	1	19
656.168	1	0
656.337	1	9
656.507	1	-6
656.676	1	7
656.846	1	4
657.015	1	9
657.184	1	6
657.354	1	6
657.523	1	4
657.693	1	6
657.862	1	6
658.032	1	3
658.201	1	7
658.371	1	-1
658.540	1	0
658.709	1	-7
658.879	1	2
659.048	1	10
659.218	1	14
659.387	1	0
659.557	1	-4
659.726	1	3
659.895	1	1
660.065	1	11
660.234	1	-1
660.404	1	7
660.573	1	3
660.743	1	1
660.912	1	8
661.081	1	0
661.251	1	9
661.420	1	1
661.590	1	9
661.759	1	8
661.929	1	8
662.098	1	-2
662.267	1	16
662.437	1	4
662.606	1	6
662.776	1	1
662.945	1	9
663.115	1	-1
663.284	1	6
663.453	1	-4
663.623	1	-3
663.792	1	-2
663.962	1	4
664.131	1	-1
664.300	1	-5
664.470	1	-6
664.639	1	8
664.809	1	0
664.978	1	-3
665.148	1	4
665.317	1	6
665.486	1	6
665.656	1	9
665.825	1	8
665.995	1	-13
666.164	1	9
666.333	1	-1
666.503	1	-5
666.672	1	4
666.842	1	4
667.011	1	0
667.180	1	-5
667.350	1	8
667.519	1	-2
667.689	1	11
667.858	1	3
668.027	1	1
668.197	1	1
668.366	1	15
668.536	1	3
668.705	1	5
668.874	1	-1
669.044	1	2
669.213	1	1
669.382	1	5
669.552	1	1
669.721	1	5
669.891	1	-5
670.060	1	7
670.229	1	7
670.399	1	9
670.568	1	-9
670.738	1	4
670.907	1	10
671.076	1	1
671.246	1	1
671.415	1	5
671.584	1	8
671.754	1	6
671.923	1	-4
672.093	1	-1
672.262	1	-7
672.431	1	9
672.601	1	-7
672.770	1	4
672.939	1	-7
673.109	1	-1
673.278	1	8
673.448	1	17
673.617	1	0
673.786	1	-3
