325.333	1	9
325.504	1	-1
325.675	1	8
325.846	1	-11
326.017	1	9
326.188	1	3
326.359	1	-4
326.531	1	-6
326.702	1	4
326.873	1	-1
327.044	1	3
327.215	1	-3
327.386	1	7
327.557	1	3
327.728	1	2
327.899	1	3
328.070	1	6
328.241	1	-1
328.412	1	-16
328.583	1	7
328.754	1	-5
328.926	1	4
329.097	1	-1
329.268	1	8
329.439	1	-4
329.610	1	6
329.781	1	-5
329.952	1	-3
330.123	1	-7
330.294	1	12
330.465	1	1
330.636	1	9
330.807	1	-4
330.978	1	6
331.149	1	-6
331.320	1	8
331.492	1	-7
331.663	1	-2
331.834	1	-2
332.005	1	-4
332.176	1	3
332.347	1	2
332.518	1	-7
332.689	1	3
332.860	1	-1
333.031	1	-11
333.202	1	-10
333.373	1	4
333.544	1	0
333.715	1	-10
333.886	1	-4
334.057	1	3
334.228	1	2
334.399	1	-19
334.570	1	3
334.741	1	-1
334.912	1	4
335.084	1	2
335.255	1	-10
335.426	1	1
335.597	1	-6
335.768	1	-5
335.939	1	-1
336.110	1	-5
336.281	1	1
336.452	1	3
336.623	1	2
336.794	1	0
336.965	1	9
337.136	1	-3
337.307	1	4
337.478	1	-6
337.649	1	2
337.820	1	-7
337.991	1	9
338.162	1	5
338.333	1	0
338.504	1	-5
338.675	1	2
338.846	1	7
339.017	1	-8
339.188	1	1
339.359	1	-4
339.530	1	-7
339.701	1	6
339.872	1	-5
340.043	1	5
340.214	1	-4
340.385	1	-10
340.556	1	5
340.727	1	11
340.898	1	2
341.069	1	-2
341.240	1	-7
341.411	1	7
341.582	1	-2
341.753	1	3
341.924	1	11
342.095	1	-3
342.266	1	6
342.437	1	7
342.608	1	-8
342.779	1	1
342.950	1	0
343.121	1	-6
343.292	1	8
343.463	1	7
343.634	1	-7
343.805	1	2
343.976	1	6
344.147	1	-6
344.318	1	0
344.489	1	-5
344.660	1	10
344.831	1	-7
345.002	1	7
345.173	1	3
345.344	1	2
345.515	1	-5
345.686	1	-5
345.857	1	3
346.028	1	2
346.199	1	-7
346.370	1	6
346.541	1	2
346.712	1	-1
346.883	1	4
347.054	1	0
347.225	1	10
347.396	1	5
347.567	1	9
347.738	1	-2
347.909	1	-4
348.080	1	-11
348.251	1	6
348.422	1	-7
348.593	1	-2
348.764	1	5
348.935	1	2
349.106	1	3
349.277	1	16
349.448	1	0
349.619	1	-6
349.790	1	6
349.961	1	1
350.132	1	1
350.303	1	0
350.474	1	-3
350.645	1	9
350.816	1	6
350.987	1	-7
351.157	1	6
351.328	1	-6
351.499	1	15
351.670	1	-1
351.841	1	6
352.012	1	8
352.183	1	-1
352.354	1	6
352.525	1	-1
352.696	1	11
352.867	1	-4
353.038	1	5
353.209	1	5
353.380	1	6
353.551	1	-8
353.722	1	-13
353.893	1	0
354.064	1	8
354.235	1	1
354.406	1	3
354.576	1	-4
354.747	1	-8
354.918	1	9
355.089	1	3
355.260	1	0
355.431	1	-6
355.602	1	1
355.773	1	-3
355.944	1	1
356.115	1	-5
356.286	1	-4
356.457	1	4
356.628	1	-9
356.799	1	-10
356.970	1	-12
357.141	1	3
357.311	1	5
357.482	1	0
357.653	1	-5
357.824	1	-7
357.995	1	3
358.166	1	7
358.337	1	6
358.508	1	3
358.679	1	-2
358.850	1	-4
359.021	1	0
359.192	1	-3
359.363	1	5
359.533	1	-2
359.704	1	5
359.875	1	-5
360.046	1	5
360.217	1	3
360.388	1	6
360.559	1	12
360.730	1	-3
360.901	1	9
361.072	1	1
361.243	1	2
361.414	1	-4
361.584	1	3
361.755	1	6
361.926	1	-6
362.097	1	-7
362.268	1	1
362.439	1	0
362.610	1	1
362.781	1	-10
362.952	1	3
363.123	1	-1
363.293	1	8
363.464	1	-3
363.635	1	-1
363.806	1	0
363.977	1	5
364.148	1	8
364.319	1	7
364.490	1	0
364.661	1	-6
364.832	1	0
365.002	1	-11
365.173	1	5
365.344	1	-5
365.515	1	8
365.686	1	3
365.857	1	-8
366.028	1	7
366.199	1	0
366.370	1	-12
366.540	1	-2
366.711	1	-6
366.882	1	0
367.053	1	5
367.224	1	-3
367.395	1	-9
367.566	1	11
367.737	1	-2
367.908	1	1
368.078	1	-9
368.249	1	3
368.420	1	-1
368.591	1	3
368.762	1	6
368.933	1	9
369.104	1	1
369.274	1	1
369.445	1	3
369.616	1	5
369.787	1	1
369.958	1	3
370.129	1	3
370.300	1	-5
370.471	1	9
370.641	1	9
370.812	1	-5
370.983	1	1
371.154	1	3
371.325	1	2
371.496	1	-3
371.667	1	1
371.837	1	4
372.008	1	4
372.179	1	-1
372.350	1	-8
372.521	1	-17
372.692	1	-5
372.863	1	6
373.033	1	3
373.204	1	6
373.375	1	-2
373.546	1	-5
373.717	1	4
373.888	1	-1
374.059	1	-5
374.229	1	-4
374.400	1	3
374.571	1	-10
374.742	1	1
374.913	1	-4
375.084	1	8
375.254	1	7
375.425	1	4
375.596	1	7
375.767	1	2
375.938	1	-5
376.109	1	-4
376.279	1	-8
376.450	1	8
376.621	1	-5
376.792	1	7
376.963	1	-2
377.134	1	3
377.304	1	-18
377.475	1	6
377.646	1	3
377.817	1	4
377.988	1	-1
378.159	1	3
378.329	1	0
378.500	1	-14
378.671	1	1
378.842	1	3
379.013	1	7
379.184	1	0
379.354	1	3
379.525	1	7
379.696	1	1
379.867	1	4
380.038	1	3
380.209	1	-6
380.379	1	0
380.550	1	4
380.721	1	9
380.892	1	-2
381.063	1	-1
381.233	1	4
381.404	1	10
381.575	1	15
381.746	1	-6
381.917	1	1
382.087	1	2
382.258	1	0
382.429	1	4
382.600	1	8
382.771	1	11
382.941	1	0
383.112	1	0
383.283	1	-8
383.454	1	2
383.625	1	1
383.795	1	7
383.966	1	2
384.137	1	-10
384.308	1	7
384.479	1	5
384.649	1	0
384.820	1	-3
384.991	1	21
385.162	1	-5
385.333	1	-13
385.503	1	1
385.674	1	1
385.845	1	-9
386.016	1	5
386.187	1	1
386.357	1	1
386.528	1	4
386.699	1	-6
386.870	1	3
387.041	1	2
387.211	1	-3
387.382	1	-1
387.553	1	-3
387.724	1	-14
387.894	1	1
388.065	1	12
388.236	1	6
388.407	1	2
388.578	1	5
388.748	1	6
388.919	1	-8
389.090	1	8
389.261	1	-5
389.431	1	9
389.602	1	5
389.773	1	4
389.944	1	-2
390.114	1	-3
390.285	1	1
390.456	1	1
390.627	1	6
390.798	1	7
390.968	1	8
391.139	1	0
391.310	1	-8
391.481	1	-7
391.651	1	-6
391.822	1	3
391.993	1	-7
392.164	1	5
392.334	1	-1
392.505	1	-1
392.676	1	-8
392.847	1	5
393.017	1	2
393.188	1	10
393.359	1	4
393.530	1	3
393.700	1	13
393.871	1	1
394.042	1	7
394.213	1	2
394.383	1	-4
394.554	1	-6
394.725	1	16
394.896	1	4
395.066	1	3
395.237	1	-4
395.408	1	-2
395.579	1	11
395.749	1	-6
395.920	1	-3
396.091	1	-4
396.262	1	-8
396.432	1	-3
396.603	1	-1
396.774	1	-5
396.945	1	-4
397.115	1	2
397.286	1	-5
397.457	1	4
397.627	1	-3
397.798	1	7
397.969	1	-4
398.140	1	0
398.310	1	8
398.481	1	3
398.652	1	-2
398.823	1	2
398.993	1	1
399.164	1	-11
399.335	1	4
399.505	1	-2
399.676	1	-3
399.847	1	-4
400.018	1	-2
400.188	1	0
400.359	1	-3
400.530	1	6
400.700	1	-2
400.871	1	3
401.042	1	12
401.213	1	-2
401.383	1	3
401.554	1	5
401.725	1	-7
401.895	1	-8
402.066	1	-5
402.237	1	15
402.408	1	2
402.578	1	-1
402.749	1	-2
402.920	1	-5
403.090	1	-11
403.261	1	-4
403.432	1	-3
403.603	1	-4
403.773	1	0
403.944	1	-2
404.115	1	6
404.285	1	-6
404.456	1	10
404.627	1	7
404.797	1	2
404.968	1	-5
405.139	1	2
405.310	1	-4
405.480	1	-8
405.651	1	-3
405.822	1	-6
405.992	1	6
406.163	1	-10
406.334	1	10
406.504	1	0
406.675	1	2
406.846	1	0
407.016	1	1
407.187	1	4
407.358	1	-2
407.528	1	-3
407.699	1	-5
407.870	1	1
408.041	1	2
408.211	1	2
408.382	1	-4
408.553	1	-1
408.723	1	10
408.894	1	-15
409.065	1	-8
409.235	1	-6
409.406	1	8
409.577	1	2
409.747	1	-2
409.918	1	2
410.089	1	9
410.259	1	3
410.430	1	-9
410.601	1	4
410.771	1	4
410.942	1	-4
411.113	1	-1
411.283	1	3
411.454	1	15
411.625	1	1
411.795	1	2
411.966	1	1
412.137	1	10
412.307	1	-14
412.478	1	-9
412.649	1	2
412.819	1	5
412.990	1	-6
413.161	1	-3
413.331	1	8
413.502	1	0
413.672	1	-9
413.843	1	0
414.014	1	-5
414.184	1	9
414.355	1	5
414.526	1	-2
414.696	1	4
414.867	1	8
415.038	1	-6
415.208	1	-14
415.379	1	-5
415.550	1	6
415.720	1	-11
415.891	1	-1
416.062	1	-7
416.232	1	11
416.403	1	-14
416.573	1	0
416.744	1	5
416.915	1	-6
417.085	1	-5
417.256	1	-2
417.427	1	5
417.597	1	-2
417.768	1	0
417.939	1	-5
418.109	1	4
418.280	1	-3
418.450	1	-4
418.621	1	0
418.792	1	-4
418.962	1	9
419.133	1	4
419.304	1	0
419.474	1	-7
419.645	1	0
419.815	1	4
419.986	1	9
420.157	1	-2
420.327	1	7
420.498	1	-4
420.669	1	6
420.839	1	-7
421.010	1	-4
421.180	1	-7
421.351	1	-4
421.522	1	-1
421.692	1	-1
421.863	1	-1
422.033	1	4
422.204	1	1
422.375	1	11
422.545	1	4
422.716	1	-3
422.886	1	-1
423.057	1	2
423.228	1	-3
423.398	1	5
423.569	1	4
423.740	1	9
423.910	1	2
424.081	1	0
424.251	1	-6
424.422	1	4
424.593	1	3
424.763	1	12
424.934	1	1
425.104	1	16
425.275	1	-2
425.445	1	-7
425.616	1	-7
425.787	1	4
425.957	1	8
426.128	1	6
426.298	1	-14
426.469	1	3
426.640	1	-8
426.810	1	-2
426.981	1	-2
427.151	1	5
427.322	1	9
427.493	1	-1
427.663	1	3
427.834	1	-8
428.004	1	3
428.175	1	-9
428.345	1	5
428.516	1	4
428.687	1	-6
428.857	1	-14
429.028	1	3
429.198	1	1
429.369	1	4
429.540	1	-10
429.710	1	6
429.881	1	1
430.051	1	-1
430.222	1	8
430.392	1	11
430.563	1	1
430.734	1	2
430.904	1	2
431.075	1	-5
431.245	1	-6
431.416	1	-8
431.586	1	3
431.757	1	-2
431.927	1	12
432.098	1	-11
432.269	1	1
432.439	1	0
432.610	1	8
432.780	1	-4
432.951	1	-3
433.121	1	-8
433.292	1	-1
433.462	1	7
433.633	1	2
433.804	1	11
433.974	1	6
434.145	1	0
434.315	1	-5
434.486	1	1
434.656	1	4
434.827	1	-1
434.997	1	4
435.168	1	-6
435.339	1	-4
435.509	1	2
435.680	1	5
435.850	1	-7
436.021	1	4
436.191	1	6
436.362	1	-7
436.532	1	2
436.703	1	1
436.873	1	0
437.044	1	8
437.214	1	-8
437.385	1	2
437.556	1	1
437.726	1	-1
437.897	1	-9
438.067	1	1
438.238	1	2
438.408	1	8
438.579	1	-5
438.749	1	8
438.920	1	5
439.090	1	5
439.261	1	-7
439.431	1	4
439.602	1	7
439.772	1	-3
439.943	1	-1
440.113	1	-7
440.284	1	2
440.455	1	-3
440.625	1	3
440.796	1	-1
440.966	1	5
441.137	1	-2
441.307	1	5
441.478	1	-6
441.648	1	4
441.819	1	-8
441.989	1	1
442.160	1	13
442.330	1	4
442.501	1	-5
442.671	1	5
442.842	1	-8
443.012	1	0
443.183	1	-6
443.353	1	-2
443.524	1	-6
443.694	1	-5
443.865	1	-9
444.035	1	0
444.206	1	0
444.376	1	2
444.547	1	0
444.717	1	0
444.888	1	2
445.058	1	2
445.229	1	-1
445.399	1	2
445.570	1	-1
445.740	1	-8
445.911	1	-5
446.081	1	-10
446.252	1	-5
446.422	1	-4
446.593	1	8
446.763	1	1
446.934	1	-6
447.104	1	1
447.275	1	-6
447.445	1	13
447.616	1	3
447.786	1	-4
447.957	1	-4
448.127	1	-9
448.298	1	-7
448.468	1	-8
448.639	1	17
448.809	1	9
448.979	1	-6
449.150	1	2
449.320	1	4
449.491	1	10
449.661	1	-10
449.832	1	-6
450.002	1	2
450.173	1	13
450.343	1	-7
450.514	1	5
450.684	1	4
450.855	1	8
451.025	1	2
451.196	1	9
451.366	1	13
451.537	1	-4
451.707	1	0
451.878	1	-7
452.048	1	-3
452.218	1	1
452.389	1	8
452.559	1	7
452.730	1	1
452.900	1	0
453.071	1	-1
453.241	1	12
453.412	1	-3
453.582	1	-4
453.753	1	3
453.923	1	-7
454.093	1	-15
454.264	1	15
454.434	1	1
454.605	1	1
454.775	1	7
454.946	1	-7
455.116	1	-3
455.287	1	7
455.457	1	0
455.628	1	-16
455.798	1	-12
455.968	1	-2
456.139	1	2
456.309	1	11
456.480	1	6
456.650	1	9
456.821	1	-8
456.991	1	3
457.161	1	3
457.332	1	-3
457.502	1	6
457.673	1	3
457.843	1	-7
458.014	1	1
458.184	1	2
458.355	1	15
458.525	1	8
458.695	1	-1
458.866	1	-7
459.036	1	-1
459.207	1	2
459.377	1	1
459.548	1	-7
459.718	1	-5
459.888	1	6
460.059	1	-3
460.229	1	9
460.400	1	13
460.570	1	0
460.740	1	-14
460.911	1	12
461.081	1	-8
461.252	1	0
461.422	1	-2
461.593	1	12
461.763	1	-10
461.933	1	-1
462.104	1	4
462.274	1	-9
462.445	1	7
462.615	1	-5
462.785	1	0
462.956	1	-4
463.126	1	2
463.297	1	9
463.467	1	0
463.638	1	-1
463.808	1	7
463.978	1	-10
464.149	1	6
464.319	1	-5
464.490	1	-4
464.660	1	-8
464.830	1	-3
465.001	1	7
465.171	1	-4
465.342	1	-9
465.512	1	4
465.682	1	2
465.853	1	-10
466.023	1	-5
466.194	1	2
466.364	1	5
466.534	1	-13
466.705	1	-3
466.875	1	13
467.045	1	4
467.216	1	12
467.386	1	-7
467.557	1	3
467.727	1	-6
467.897	1	-1
468.068	1	-4
468.238	1	-9
468.409	1	0
468.579	1	10
468.749	1	7
468.920	1	-2
469.090	1	1
469.260	1	6
469.431	1	-1
469.601	1	11
469.772	1	-14
469.942	1	5
470.112	1	-2
470.283	1	7
470.453	1	-1
470.623	1	-5
470.794	1	-15
470.964	1	3
471.135	1	-1
471.305	1	-6
471.475	1	4
471.646	1	7
471.816	1	1
471.986	1	7
472.157	1	-2
472.327	1	-3
472.497	1	-12
472.668	1	-5
472.838	1	-4
473.009	1	2
473.179	1	2
473.349	1	7
473.520	1	3
473.690	1	12
473.860	1	-8
474.031	1	7
474.201	1	-4
474.371	1	13
474.542	1	8
474.712	1	4
474.882	1	-10
475.053	1	-1
475.223	1	6
475.394	1	-16
475.564	1	1
475.734	1	0
475.905	1	-8
476.075	1	-5
476.245	1	-13
476.416	1	0
476.586	1	9
476.756	1	0
476.927	1	-6
477.097	1	-2
477.267	1	0
477.438	1	-1
477.608	1	2
477.778	1	-4
477.949	1	-4
478.119	1	3
478.289	1	0
478.460	1	2
478.630	1	-1
478.800	1	4
478.971	1	-7
479.141	1	8
479.311	1	-5
479.482	1	-1
479.652	1	2
479.822	1	-2
479.993	1	-2
480.163	1	1
480.333	1	1
480.504	1	4
480.674	1	-8
480.844	1	6
481.015	1	3
481.185	1	-4
481.355	1	0
481.525	1	-7
481.696	1	7
481.866	1	-4
482.036	1	-6
482.207	1	9
482.377	1	-8
482.547	1	10
482.718	1	7
482.888	1	3
483.058	1	-4
483.229	1	-7
483.399	1	-3
483.569	1	-4
483.740	1	-9
483.910	1	4
484.080	1	8
484.250	1	5
484.421	1	-2
484.591	1	3
484.761	1	-4
484.932	1	-8
485.102	1	9
485.272	1	-11
485.443	1	-4
485.613	1	-2
485.783	1	-2
485.953	1	-1
486.124	1	-1
486.294	1	10
486.464	1	1
486.635	1	-7
486.805	1	1
486.975	1	-1
487.146	1	-5
487.316	1	11
487.486	1	-7
487.656	1	9
487.827	1	1
487.997	1	-5
488.167	1	11
488.338	1	9
488.508	1	4
488.678	1	5
488.848	1	1
489.019	1	-1
489.189	1	-8
489.359	1	2
489.529	1	-2
489.700	1	-2
489.870	1	4
490.040	1	8
490.211	1	15
490.381	1	12
490.551	1	-3
490.721	1	1
490.892	1	-8
491.062	1	1
491.232	1	1
491.402	1	1
491.573	1	8
491.743	1	0
491.913	1	4
492.084	1	-6
492.254	1	-2
492.424	1	6
492.594	1	-4
492.765	1	-7
492.935	1	6
493.105	1	5
493.275	1	4
493.446	1	-6
493.616	1	3
493.786	1	-5
493.956	1	9
494.127	1	1
494.297	1	1
494.467	1	0
494.637	1	5
494.808	1	3
494.978	1	4
495.148	1	-3
495.318	1	7
495.489	1	-3
495.659	1	-8
495.829	1	-1
495.999	1	-5
496.170	1	-10
496.340	1	2
496.510	1	0
496.680	1	1
496.851	1	5
497.021	1	4
497.191	1	14
497.361	1	2
497.532	1	0
497.702	1	4
497.872	1	1
498.042	1	10
498.213	1	1
498.383	1	11
498.553	1	-6
498.723	1	-2
498.894	1	6
499.064	1	2
499.234	1	11
499.404	1	-5
499.574	1	1
499.745	1	5
499.915	1	4
500.085	1	6
500.255	1	6
500.426	1	-6
500.596	1	4
500.766	1	-2
500.936	1	3
501.106	1	-4
501.277	1	-6
501.447	1	-13
501.617	1	0
501.787	1	8
501.958	1	-10
502.128	1	4
502.298	1	-7
502.468	1	2
502.638	1	-3
502.809	1	-2
502.979	1	0
503.149	1	-3
503.319	1	8
503.489	1	4
503.660	1	-7
503.830	1	-8
504.000	1	-1
504.170	1	-5
504.340	1	1
504.511	1	-8
504.681	1	6
504.851	1	2
505.021	1	2
505.192	1	-3
505.362	1	5
505.532	1	-3
505.702	1	13
505.872	1	6
506.043	1	4
506.213	1	1
506.383	1	-7
506.553	1	5
506.723	1	0
506.893	1	6
507.064	1	-4
507.234	1	2
507.404	1	3
507.574	1	-12
507.744	1	1
507.915	1	5
508.085	1	14
508.255	1	-5
508.425	1	-2
508.595	1	2
508.766	1	0
508.936	1	4
509.106	1	1
509.276	1	0
509.446	1	-8
509.616	1	8
509.787	1	3
509.957	1	0
510.127	1	-4
510.297	1	3
510.467	1	-3
510.638	1	4
510.808	1	2
510.978	1	6
511.148	1	5
511.318	1	0
511.488	1	6
511.659	1	9
511.829	1	-3
511.999	1	10
512.169	1	8
512.339	1	-5
512.509	1	2
512.680	1	-3
512.850	1	3
513.020	1	-6
513.190	1	-1
513.360	1	3
513.530	1	0
513.700	1	5
513.871	1	-1
514.041	1	6
514.211	1	11
514.381	1	-6
514.551	1	6
514.721	1	4
514.892	1	-4
515.062	1	-7
515.232	1	4
515.402	1	8
515.572	1	6
515.742	1	-3
515.912	1	-1
516.083	1	7
516.253	1	-7
516.423	1	-1
516.593	1	-2
516.763	1	-11
516.933	1	-16
517.104	1	-9
517.274	1	13
517.444	1	-2
517.614	1	-10
517.784	1	-3
517.954	1	5
518.124	1	10
518.294	1	9
518.465	1	-8
518.635	1	5
518.805	1	-4
518.975	1	3
519.145	1	2
519.315	1	0
519.485	1	9
519.656	1	3
519.826	1	0
519.996	1	2
520.166	1	3
520.336	1	-2
520.506	1	-3
520.676	1	3
520.846	1	8
521.017	1	8
521.187	1	-1
521.357	1	3
521.527	1	-2
521.697	1	3
521.867	1	-9
522.037	1	12
522.207	1	-1
522.377	1	-14
522.548	1	-11
522.718	1	3
522.888	1	2
523.058	1	1
523.228	1	2
523.398	1	5
523.568	1	-6
523.738	1	-8
523.909	1	9
524.079	1	10
524.249	1	9
524.419	1	-1
524.589	1	-4
524.759	1	-1
524.929	1	-10
525.099	1	-4
525.269	1	-6
525.439	1	-6
525.610	1	-7
525.780	1	-5
525.950	1	1
526.120	1	-6
526.290	1	9
526.460	1	1
526.630	1	-4
526.800	1	-9
526.970	1	-1
527.140	1	-3
527.311	1	6
527.481	1	9
527.651	1	0
527.821	1	-14
527.991	1	-3
528.161	1	1
528.331	1	0
528.501	1	0
528.671	1	-8
528.841	1	4
529.011	1	2
529.181	1	-1
529.352	1	-5
529.522	1	-4
529.692	1	8
529.862	1	2
530.032	1	8
530.202	1	-3
530.372	1	-1
530.542	1	-2
530.712	1	3
530.882	1	-5
531.052	1	4
531.222	1	2
531.392	1	-6
531.563	1	2
531.733	1	3
531.903	1	4
532.073	1	-6
532.243	1	6
532.413	1	-2
532.583	1	-13
532.753	1	2
532.923	1	0
533.093	1	-2
533.263	1	1
533.433	1	3
533.603	1	19
533.773	1	1
533.943	1	6
534.113	1	9
534.284	1	-12
534.454	1	-4
534.624	1	0
534.794	1	2
534.964	1	-4
535.134	1	0
535.304	1	9
535.474	1	5
535.644	1	-6
535.814	1	-4
535.984	1	7
536.154	1	-5
536.324	1	2
536.494	1	1
536.664	1	5
536.834	1	0
537.004	1	0
537.174	1	-16
537.344	1	2
537.514	1	4
537.685	1	9
537.855	1	2
538.025	1	3
538.195	1	-1
538.365	1	-6
538.535	1	0
538.705	1	-1
538.875	1	-4
539.045	1	-9
539.215	1	10
539.385	1	0
539.555	1	-2
539.725	1	-8
539.895	1	7
540.065	1	-6
540.235	1	-7
540.405	1	-10
540.575	1	6
540.745	1	2
540.915	1	-6
541.085	1	-2
541.255	1	6
541.425	1	-2
541.595	1	-8
541.765	1	-10
541.935	1	7
542.105	1	0
542.275	1	-6
542.445	1	-3
542.615	1	-3
542.785	1	1
542.955	1	1
543.125	1	8
543.295	1	-2
543.465	1	5
543.635	1	0
543.805	1	-4
543.975	1	-4
544.145	1	-4
544.315	1	4
544.485	1	-1
544.655	1	-1
544.825	1	5
544.995	1	-9
545.165	1	3
545.335	1	2
545.505	1	1
545.675	1	4
545.845	1	7
546.015	1	-4
546.185	1	11
546.355	1	-1
546.525	1	-3
546.695	1	3
546.865	1	6
547.035	1	-11
547.205	1	4
547.375	1	7
547.545	1	3
547.715	1	-2
547.885	1	-2
548.055	1	10
548.225	1	-5
548.395	1	0
548.565	1	3
548.735	1	-6
548.905	1	0
549.075	1	10
549.245	1	6
549.415	1	13
549.585	1	6
549.755	1	-4
549.925	1	10
550.095	1	-5
550.265	1	2
550.435	1	2
550.605	1	-1
550.775	1	-5
550.945	1	-2
551.115	1	7
551.285	1	0
551.455	1	12
551.625	1	4
551.795	1	3
551.965	1	1
552.135	1	3
552.305	1	-5
552.475	1	5
552.645	1	2
552.815	1	0
552.985	1	-5
553.155	1	3
553.325	1	-13
553.495	1	-1
553.665	1	7
553.835	1	-5
554.004	1	2
554.174	1	-9
554.344	1	1
554.514	1	-2
554.684	1	-12
554.854	1	-4
555.024	1	-14
555.194	1	-2
555.364	1	3
555.534	1	-3
555.704	1	2
555.874	1	1
556.044	1	-1
556.214	1	-6
556.384	1	-6
556.554	1	-4
556.724	1	6
556.894	1	-3
557.064	1	5
557.234	1	0
557.404	1	-5
557.573	1	-2
557.743	1	-5
557.913	1	1
558.083	1	-1
558.253	1	-3
558.423	1	4
558.593	1	17
558.763	1	5
558.933	1	1
559.103	1	3
559.273	1	1
559.443	1	-2
559.613	1	-13
559.783	1	3
559.953	1	-7
560.122	1	0
560.292	1	0
560.462	1	-12
560.632	1	6
560.802	1	-10
560.972	1	4
561.142	1	-9
561.312	1	4
561.482	1	0
561.652	1	7
561.822	1	7
561.992	1	0
562.162	1	4
562.331	1	-14
562.501	1	-7
562.671	1	0
562.841	1	8
563.011	1	-4
563.181	1	0
563.351	1	3
563.521	1	-3
563.691	1	-2
563.861	1	13
564.031	1	8
564.201	1	-9
564.370	1	-6
564.540	1	-7
564.710	1	-2
564.880	1	-5
565.050	1	12
565.220	1	5
565.390	1	-1
565.560	1	6
565.730	1	-1
565.900	1	-6
566.069	1	15
566.239	1	10
566.409	1	13
566.579	1	-4
566.749	1	8
566.919	1	-7
567.089	1	-6
567.259	1	4
567.429	1	0
567.599	1	0
567.768	1	-3
567.938	1	5
568.108	1	0
568.278	1	-6
568.448	1	-3
568.618	1	11
568.788	1	6
568.958	1	-5
569.128	1	-7
569.297	1	3
569.467	1	1
569.637	1	8
569.807	1	4
569.977	1	3
570.147	1	4
570.317	1	-4
570.487	1	-6
570.656	1	-1
570.826	1	3
570.996	1	-1
571.166	1	1
571.336	1	6
571.506	1	-3
571.676	1	5
571.846	1	2
572.015	1	-9
572.185	1	-3
572.355	1	-3
572.525	1	2
572.695	1	2
572.865	1	0
573.035	1	7
573.205	1	-2
573.374	1	7
573.544	1	3
573.714	1	6
573.884	1	-6
574.054	1	0
574.224	1	7
574.394	1	-4
574.563	1	3
574.733	1	0
574.903	1	10
575.073	1	8
575.243	1	1
575.413	1	7
575.583	1	3
575.752	1	-2
575.922	1	0
576.092	1	-2
576.262	1	-3
576.432	1	13
576.602	1	0
576.772	1	-3
576.941	1	-3
577.111	1	2
577.281	1	0
577.451	1	5
577.621	1	-5
577.791	1	3
577.960	1	4
578.130	1	-2
578.300	1	-7
578.470	1	16
578.640	1	-1
578.810	1	-6
578.979	1	7
579.149	1	5
579.319	1	-7
579.489	1	3
579.659	1	6
579.829	1	8
579.998	1	8
580.168	1	-7
580.338	1	-6
580.508	1	9
580.678	1	-6
580.848	1	-3
581.017	1	-6
581.187	1	4
581.357	1	2
581.527	1	4
581.697	1	5
581.867	1	5
582.036	1	3
582.206	1	-4
582.376	1	0
582.546	1	-7
582.716	1	1
582.885	1	1
583.055	1	9
583.225	1	4
583.395	1	2
583.565	1	3
583.735	1	2
583.904	1	0
584.074	1	-2
584.244	1	0
584.414	1	-1
584.584	1	7
584.753	1	-3
584.923	1	11
585.093	1	0
585.263	1	7
585.433	1	0
585.602	1	5
585.772	1	-4
585.942	1	-4
586.112	1	3
586.282	1	2
586.451	1	1
586.621	1	2
586.791	1	7
586.961	1	0
587.131	1	1
587.300	1	-1
587.470	1	0
587.640	1	5
587.810	1	3
587.980	1	4
588.149	1	-10
588.319	1	4
588.489	1	-1
588.659	1	17
588.829	1	-6
588.998	1	-1
589.168	1	-1
589.338	1	8
589.508	1	-19
589.677	1	-14
589.847	1	9
590.017	1	0
590.187	1	4
590.357	1	1
590.526	1	-1
590.696	1	4
590.866	1	3
591.036	1	8
591.205	1	1
591.375	1	-11
591.545	1	6
591.715	1	-4
591.885	1	-2
592.054	1	-4
592.224	1	4
592.394	1	-10
592.564	1	8
592.733	1	1
592.903	1	0
593.073	1	0
593.243	1	-7
593.412	1	2
593.582	1	3
593.752	1	0
593.922	1	4
594.091	1	-5
594.261	1	0
594.431	1	3
594.601	1	3
594.771	1	-14
594.940	1	-16
595.110	1	-8
595.280	1	3
595.450	1	7
595.619	1	0
595.789	1	-6
595.959	1	-4
596.129	1	3
596.298	1	10
596.468	1	3
596.638	1	-10
596.808	1	-12
596.977	1	9
597.147	1	2
597.317	1	-8
597.487	1	1
597.656	1	-3
597.826	1	-4
597.996	1	1
598.166	1	-2
598.335	1	0
598.505	1	10
598.675	1	-1
598.844	1	-1
599.014	1	-6
599.184	1	5
599.354	1	2
599.523	1	0
599.693	1	1
599.863	1	6
600.033	1	-17
600.202	1	0
600.372	1	-5
600.542	1	-4
600.712	1	-1
600.881	1	-3
601.051	1	1
601.221	1	11
601.390	1	-8
601.560	1	5
601.730	1	-2
601.900	1	0
602.069	1	-5
602.239	1	13
602.409	1	3
602.578	1	-4
602.748	1	-1
602.918	1	-5
603.088	1	-1
603.257	1	2
603.427	1	-1
603.597	1	10
603.767	1	-5
603.936	1	-12
604.106	1	-3
604.276	1	-4
604.445	1	-3
604.615	1	-9
604.785	1	2
604.954	1	-6
605.124	1	4
605.294	1	7
605.464	1	11
605.633	1	-4
605.803	1	-6
605.973	1	5
606.142	1	1
606.312	1	10
606.482	1	-2
606.652	1	-2
606.821	1	5
606.991	1	8
607.161	1	-1
607.330	1	-7
607.500	1	-5
607.670	1	-3
607.839	1	-3
608.009	1	-2
608.179	1	-12
608.348	1	8
608.518	1	-6
608.688	1	5
608.858	1	6
609.027	1	9
609.197	1	-9
609.367	1	0
609.536	1	6
609.706	1	3
609.876	1	7
610.045	1	-1
610.215	1	4
610.385	1	-4
610.554	1	1
610.724	1	-2
610.894	1	5
611.063	1	-9
611.233	1	0
611.403	1	3
611.572	1	-9
611.742	1	-2
611.912	1	-3
612.081	1	2
612.251	1	-4
612.421	1	2
612.590	1	0
612.760	1	5
612.930	1	-6
613.099	1	0
613.269	1	-4
613.439	1	1
613.608	1	-1
613.778	1	1
613.948	1	3
614.117	1	6
614.287	1	7
614.457	1	-1
614.626	1	-2
614.796	1	-3
614.966	1	4
615.135	1	1
615.305	1	7
615.475	1	-3
615.644	1	1
615.814	1	-5
615.984	1	6
616.153	1	-8
616.323	1	4
616.493	1	-2
616.662	1	6
616.832	1	11
617.002	1	-8
617.171	1	-10
617.341	1	0
617.511	1	-8
617.680	1	12
617.850	1	2
618.019	1	2
618.189	1	-8
618.359	1	1
618.528	1	-6
618.698	1	-6
618.868	1	-5
619.037	1	6
619.207	1	-7
619.377	1	-8
619.546	1	-5
619.716	1	-5
619.885	1	1
620.055	1	-2
620.225	1	3
620.394	1	3
620.564	1	-6
620.734	1	3
620.903	1	0
621.073	1	5
621.242	1	9
621.412	1	-2
621.582	1	8
621.751	1	-5
621.921	1	-5
622.091	1	-11
622.260	1	-8
622.430	1	3
622.599	1	-3
622.769	1	6
622.939	1	-5
623.108	1	-2
623.278	1	2
623.448	1	4
623.617	1	4
623.787	1	0
623.956	1	-17
624.126	1	-5
624.296	1	-6
624.465	1	-9
624.635	1	8
624.804	1	-3
624.974	1	8
625.144	1	-12
625.313	1	1
625.483	1	1
625.652	1	-7
625.822	1	0
625.992	1	3
626.161	1	3
626.331	1	-3
626.501	1	14
626.670	1	-7
626.840	1	-5
627.009	1	6
627.179	1	2
627.348	1	-3
627.518	1	5
627.688	1	-6
627.857	1	7
628.027	1	1
628.196	1	-12
628.366	1	-6
628.536	1	1
628.705	1	-6
628.875	1	4
629.044	1	7
629.214	1	-3
629.384	1	-3
629.553	1	1
629.723	1	1
629.892	1	8
630.062	1	-1
630.232	1	-5
630.401	1	1
630.571	1	3
630.740	1	-3
630.910	1	9
631.079	1	3
631.249	1	4
631.419	1	-7
631.588	1	3
631.758	1	1
631.927	1	-4
632.097	1	-3
632.266	1	-1
632.436	1	3
632.606	1	8
632.775	1	4
632.945	1	0
633.114	1	1
633.284	1	-1
633.453	1	-7
633.623	1	7
633.793	1	5
633.962	1	-2
634.132	1	3
634.301	1	0
634.471	1	-6
634.640	1	-4
634.810	1	0
634.979	1	13
635.149	1	3
635.319	1	-8
635.488	1	-12
635.658	1	6
635.827	1	-1
635.997	1	2
636.166	1	3
636.336	1	4
636.505	1	4
636.675	1	-6
636.845	1	-1
637.014	1	7
637.184	1	1
637.353	1	4
637.523	1	10
637.692	1	-1
637.862	1	7
638.031	1	2
638.201	1	4
638.370	1	6
638.540	1	10
638.710	1	-2
638.879	1	4
639.049	1	10
639.218	1	-5
639.388	1	-4
639.557	1	15
639.727	1	6
639.896	1	8
640.066	1	0
640.235	1	8
640.405	1	1
640.574	1	5
640.744	1	-3
640.914	1	-6
641.083	1	-1
641.253	1	1
641.422	1	-2
641.592	1	-5
641.761	1	3
641.931	1	9
642.100	1	0
642.270	1	-2
642.439	1	5
642.609	1	1
642.778	1	-12
642.948	1	5
643.117	1	-10
643.287	1	5
643.456	1	1
643.626	1	7
643.795	1	-10
643.965	1	10
644.134	1	-1
644.304	1	6
644.473	1	3
644.643	1	3
644.812	1	-3
644.982	1	-9
645.151	1	-10
645.321	1	-3
645.490	1	9
645.660	1	-5
645.829	1	2
645.999	1	8
646.168	1	7
646.338	1	-13
646.507	1	4
646.677	1	-5
646.846	1	-7
647.016	1	5
647.185	1	7
647.355	1	3
647.524	1	-2
647.694	1	-9
647.863	1	5
648.033	1	5
648.202	1	-2
648.372	1	1
648.541	1	-2
648.711	1	-1
648.880	1	1
649.050	1	3
649.219	1	1
649.389	1	-1
649.558	1	3
649.728	1	2
649.897	1	8
650.067	1	0
650.236	1	1
650.406	1	0
650.575	1	3
650.745	1	-12
650.914	1	3
651.084	1	-9
651.253	1	-2
651.423	1	11
651.592	1	9
651.762	1	-6
651.931	1	-2
652.101	1	6
652.270	1	-4
652.440	1	-11
652.609	1	1
652.778	1	-6
652.948	1	4
653.117	1	9
653.287	1	0
653.456	1	0
653.626	1	-1
653.795	1	-9
653.965	1	0
654.134	1	-3
654.304	1	5
654.473	1	4
654.643	1	-12
654.812	1	2
654.982	1	-3
655.151	1	-1
655.320	1	-7
655.490	1	-4
655.659	1	-9
655.829	1	-3
655.998	1	5
656.168	1	-5
656.337	1	5
656.507	1	2
656.676	1	-6
656.846	1	5
657.015	1	-1
657.184	1	-4
657.354	1	11
657.523	1	4
657.693	1	-3
657.862	1	6
658.032	1	3
658.201	1	6
658.371	1	0
658.540	1	-6
658.709	1	-5
658.879	1	-2
659.048	1	5
659.218	1	2
659.387	1	2
659.557	1	2
659.726	1	-2
659.895	1	-9
660.065	1	-1
660.234	1	-6
660.404	1	3
660.573	1	1
660.743	1	-2
660.912	1	7
661.081	1	7
661.251	1	1
661.420	1	0
661.590	1	7
661.759	1	0
661.929	1	-4
662.098	1	5
662.267	1	2
662.437	1	-4
662.606	1	1
662.776	1	0
662.945	1	6
663.115	1	-4
663.284	1	-9
663.453	1	-1
663.623	1	-7
663.792	1	5
663.962	1	-1
664.131	1	-1
664.300	1	-2
664.470	1	-6
664.639	1	6
664.809	1	-8
664.978	1	1
665.148	1	6
665.317	1	11
665.486	1	-5
665.656	1	2
665.825	1	1
665.995	1	-6
666.164	1	5
666.333	1	-4
666.503	1	-8
666.672	1	-2
666.842	1	1
667.011	1	4
667.180	1	-10
667.350	1	-2
667.519	1	-1
667.689	1	0
667.858	1	0
668.027	1	-4
668.197	1	-1
668.366	1	5
668.536	1	1
668.705	1	4
668.874	1	4
669.044	1	-7
669.213	1	0
669.382	1	5
669.552	1	8
669.721	1	-4
669.891	1	-7
670.060	1	7
670.229	1	2
670.399	1	3
670.568	1	-11
670.738	1	4
670.907	1	10
671.076	1	-2
671.246	1	-5
671.415	1	6
671.584	1	3
671.754	1	6
671.923	1	-8
672.093	1	-7
672.262	1	-6
672.431	1	-2
672.601	1	1
672.770	1	-8
672.939	1	1
673.109	1	4
673.278	1	12
673.448	1	5
673.617	1	-5
673.786	1	-4
