325.333	1	11
325.504	1	-1
325.675	1	10
325.846	1	-7
326.017	1	4
326.188	1	10
326.359	1	5
326.531	1	15
326.702	1	14
326.873	1	9
327.044	1	3
327.215	1	6
327.386	1	8
327.557	1	9
327.728	1	13
327.899	1	10
328.070	1	11
328.241	1	4
328.412	1	-2
328.583	1	11
328.754	1	-3
328.926	1	10
329.097	1	4
329.268	1	12
329.439	1	-2
329.610	1	20
329.781	1	9
329.952	1	13
330.123	1	7
330.294	1	17
330.465	1	3
330.636	1	16
330.807	1	13
330.978	1	15
331.149	1	5
331.320	1	13
331.492	1	7
331.663	1	9
331.834	1	13
332.005	1	0
332.176	1	6
332.347	1	22
332.518	1	3
332.689	1	9
332.860	1	8
333.031	1	0
333.202	1	12
333.373	1	10
333.544	1	15
333.715	1	7
333.886	1	9
334.057	1	25
334.228	1	4
334.399	1	6
334.570	1	11
334.741	1	11
334.912	1	10
335.084	1	14
335.255	1	8
335.426	1	13
335.597	1	10
335.768	1	6
335.939	1	9
336.110	1	8
336.281	1	14
336.452	1	11
336.623	1	9
336.794	1	10
336.965	1	20
337.136	1	9
337.307	1	11
337.478	1	5
337.649	1	25
337.820	1	5
337.991	1	12
338.162	1	13
338.333	1	3
338.504	1	4
338.675	1	7
338.846	1	12
339.017	1	15
339.188	1	9
339.359	1	2
339.530	1	9
339.701	1	25
339.872	1	10
340.043	1	17
340.214	1	0
340.385	1	3
340.556	1	7
340.727	1	21
340.898	1	7
341.069	1	7
341.240	1	9
341.411	1	26
341.582	1	17
341.753	1	22
341.924	1	11
342.095	1	15
342.266	1	4
342.437	1	14
342.608	1	17
342.779	1	-2
342.950	1	9
343.121	1	17
343.292	1	15
343.463	1	5
343.634	1	7
343.805	1	11
343.976	1	10
344.147	1	0
344.318	1	15
344.489	1	12
344.660	1	13
344.831	1	8
345.002	1	19
345.173	1	8
345.344	1	16
345.515	1	-5
345.686	1	15
345.857	1	9
346.028	1	10
346.199	1	12
346.370	1	20
346.541	1	7
346.712	1	11
346.883	1	16
347.054	1	1
347.225	1	11
347.396	1	2
347.567	1	22
347.738	1	5
347.909	1	0
348.080	1	6
348.251	1	16
348.422	1	4
348.593	1	7
348.764	1	14
348.935	1	10
349.106	1	1
349.277	1	28
349.448	1	17
349.619	1	5
349.790	1	16
349.961	1	14
350.132	1	-2
350.303	1	11
350.474	1	16
350.645	1	14
350.816	1	14
350.987	1	0
351.157	1	8
351.328	1	10
351.499	1	12
351.670	1	9
351.841	1	16
352.012	1	12
352.183	1	10
352.354	1	23
352.525	1	13
352.696	1	21
352.867	1	11
353.038	1	11
353.209	1	19
353.380	1	22
353.551	1	16
353.722	1	5
353.893	1	6
354.064	1	17
354.235	1	12
354.406	1	-4
354.576	1	10
354.747	1	12
354.918	1	17
355.089	1	2
355.260	1	14
355.431	1	9
355.602	1	7
355.773	1	-3
355.944	1	9
356.115	1	11
356.286	1	10
356.457	1	13
356.628	1	7
356.799	1	14
356.970	1	12
357.141	1	7
357.311	1	6
357.482	1	10
357.653	1	7
357.824	1	20
357.995	1	13
358.166	1	16
358.337	1	16
358.508	1	11
358.679	1	11
358.850	1	7
359.021	1	13
359.192	1	5
359.363	1	3
359.533	1	14
359.704	1	3
359.875	1	10
360.046	1	18
360.217	1	17
360.388	1	9
360.559	1	13
360.730	1	10
360.901	1	20
361.072	1	1
361.243	1	19
361.414	1	7
361.584	1	-1
361.755	1	7
361.926	1	13
362.097	1	7
362.268	1	12
362.439	1	16
362.610	1	9
362.781	1	6
362.952	1	5
363.123	1	7
363.293	1	23
363.464	1	13
363.635	1	21
363.806	1	18
363.977	1	22
364.148	1	10
364.319	1	15
364.490	1	1
364.661	1	4
364.832	1	6
365.002	1	6
365.173	1	16
365.344	1	0
365.515	1	16
365.686	1	14
365.857	1	11
366.028	1	2
366.199	1	5
366.370	1	2
366.540	1	3
366.711	1	9
366.882	1	17
367.053	1	17
367.224	1	5
367.395	1	12
367.566	1	12
367.737	1	17
367.908	1	3
368.078	1	5
368.249	1	14
368.420	1	14
368.591	1	20
368.762	1	15
368.933	1	21
369.104	1	20
369.274	1	12
369.445	1	4
369.616	1	11
369.787	1	13
369.958	1	10
370.129	1	11
370.300	1	7
370.471	1	9
370.641	1	19
370.812	1	7
370.983	1	4
371.154	1	14
371.325	1	12
371.496	1	11
371.667	1	13
371.837	1	15
372.008	1	2
372.179	1	6
372.350	1	12
372.521	1	8
372.692	1	15
372.863	1	14
373.033	1	13
373.204	1	15
373.375	1	11
373.546	1	-5
373.717	1	3
373.888	1	10
374.059	1	12
374.229	1	11
374.400	1	12
374.571	1	9
374.742	1	11
374.913	1	7
375.084	1	6
375.254	1	15
375.425	1	22
375.596	1	5
375.767	1	14
375.938	1	-5
376.109	1	13
376.279	1	7
376.450	1	16
376.621	1	16
376.792	1	10
376.963	1	14
377.134	1	9
377.304	1	2
377.475	1	7
377.646	1	10
377.817	1	19
377.988	1	6
378.159	1	14
378.329	1	20
378.500	1	0
378.671	1	21
378.842	1	17
379.013	1	16
379.184	1	21
379.354	1	10
379.525	1	18
379.696	1	12
379.867	1	14
380.038	1	19
380.209	1	6
380.379	1	20
380.550	1	10
380.721	1	23
380.892	1	8
381.063	1	9
381.233	1	18
381.404	1	22
381.575	1	19
381.746	1	-1
381.917	1	21
382.087	1	25
382.258	1	16
382.429	1	16
382.600	1	11
382.771	1	19
382.941	1	13
383.112	1	6
383.283	1	18
383.454	1	11
383.625	1	22
383.795	1	19
383.966	1	25
384.137	1	13
384.308	1	13
384.479	1	29
384.649	1	17
384.820	1	19
384.991	1	26
385.162	1	18
385.333	1	10
385.503	1	13
385.674	1	17
385.845	1	11
386.016	1	22
386.187	1	13
386.357	1	11
386.528	1	26
386.699	1	-5
386.870	1	17
387.041	1	16
387.211	1	14
387.382	1	24
387.553	1	15
387.724	1	5
387.894	1	5
388.065	1	21
388.236	1	17
388.407	1	22
388.578	1	12
388.748	1	21
388.919	1	17
389.090	1	19
389.261	1	8
389.431	1	19
389.602	1	13
389.773	1	18
389.944	1	13
390.114	1	9
390.285	1	17
390.456	1	23
390.627	1	25
390.798	1	17
390.968	1	29
391.139	1	14
391.310	1	13
391.481	1	18
391.651	1	17
391.822	1	21
391.993	1	9
392.164	1	21
392.334	1	16
392.505	1	30
392.676	1	10
392.847	1	19
393.017	1	18
393.188	1	14
393.359	1	16
393.530	1	17
393.700	1	19
393.871	1	15
394.042	1	14
394.213	1	19
394.383	1	16
394.554	1	24
394.725	1	25
394.896	1	21
395.066	1	21
395.237	1	16
395.408	1	22
395.579	1	21
395.749	1	23
395.920	1	17
396.091	1	15
396.262	1	17
396.432	1	19
396.603	1	23
396.774	1	14
396.945	1	18
397.115	1	28
397.286	1	16
397.457	1	23
397.627	1	20
397.798	1	16
397.969	1	23
398.140	1	15
398.310	1	34
398.481	1	14
398.652	1	23
398.823	1	16
398.993	1	24
399.164	1	9
399.335	1	23
399.505	1	8
399.676	1	19
399.847	1	16
400.018	1	29
400.188	1	22
400.359	1	15
400.530	1	39
400.700	1	18
400.871	1	31
401.042	1	21
401.213	1	18
401.383	1	37
401.554	1	29
401.725	1	8
401.895	1	27
402.066	1	24
402.237	1	36
402.408	1	22
402.578	1	30
402.749	1	34
402.920	1	12
403.090	1	26
403.261	1	32
403.432	1	16
403.603	1	28
403.773	1	26
403.944	1	31
404.115	1	34
404.285	1	14
404.456	1	32
404.627	1	41
404.797	1	31
404.968	1	27
405.139	1	24
405.310	1	31
405.480	1	21
405.651	1	25
405.822	1	15
405.992	1	39
406.163	1	23
406.334	1	19
406.504	1	29
406.675	1	17
406.846	1	28
407.016	1	34
407.187	1	22
407.358	1	29
407.528	1	23
407.699	1	23
407.870	1	27
408.041	1	29
408.211	1	34
408.382	1	32
408.553	1	34
408.723	1	42
408.894	1	13
409.065	1	27
409.235	1	13
409.406	1	27
409.577	1	35
409.747	1	21
409.918	1	31
410.089	1	31
410.259	1	30
410.430	1	22
410.601	1	36
410.771	1	29
410.942	1	30
411.113	1	30
411.283	1	28
411.454	1	40
411.625	1	23
411.795	1	39
411.966	1	25
412.137	1	27
412.307	1	18
412.478	1	21
412.649	1	34
412.819	1	33
412.990	1	26
413.161	1	31
413.331	1	34
413.502	1	33
413.672	1	17
413.843	1	38
414.014	1	22
414.184	1	30
414.355	1	31
414.526	1	38
414.696	1	34
414.867	1	31
415.038	1	22
415.208	1	28
415.379	1	22
415.550	1	33
415.720	1	20
415.891	1	31
416.062	1	29
416.232	1	23
416.403	1	22
416.573	1	36
416.744	1	34
416.915	1	22
417.085	1	36
417.256	1	23
417.427	1	28
417.597	1	40
417.768	1	32
417.939	1	28
418.109	1	32
418.280	1	26
418.450	1	32
418.621	1	30
418.792	1	22
418.962	1	37
419.133	1	42
419.304	1	34
419.474	1	26
419.645	1	29
419.815	1	35
419.986	1	38
420.157	1	32
420.327	1	27
420.498	1	19
420.669	1	35
420.839	1	33
421.010	1	29
421.180	1	30
421.351	1	22
421.522	1	35
421.692	1	30
421.863	1	34
422.033	1	28
422.204	1	32
422.375	1	46
422.545	1	47
422.716	1	38
422.886	1	32
423.057	1	35
423.228	1	34
423.398	1	34
423.569	1	30
423.740	1	33
423.910	1	36
424.081	1	35
424.251	1	25
424.422	1	37
424.593	1	35
424.763	1	38
424.934	1	32
425.104	1	45
425.275	1	31
425.445	1	23
425.616	1	30
425.787	1	35
425.957	1	43
426.128	1	35
426.298	1	16
426.469	1	37
426.640	1	27
426.810	1	34
426.981	1	16
427.151	1	35
427.322	1	34
427.493	1	31
427.663	1	41
427.834	1	18
428.004	1	28
428.175	1	21
428.345	1	31
428.516	1	37
428.687	1	32
428.857	1	16
429.028	1	34
429.198	1	18
429.369	1	28
429.540	1	32
429.710	1	28
429.881	1	35
430.051	1	24
430.222	1	42
430.392	1	41
430.563	1	31
430.734	1	36
430.904	1	32
431.075	1	26
431.245	1	16
431.416	1	19
431.586	1	26
431.757	1	28
431.927	1	29
432.098	1	27
432.269	1	37
432.439	1	35
432.610	1	28
432.780	1	20
432.951	1	29
433.121	1	26
433.292	1	35
433.462	1	32
433.633	1	41
433.804	1	25
433.974	1	42
434.145	1	32
434.315	1	27
434.486	1	30
434.656	1	38
434.827	1	25
434.997	1	28
435.168	1	26
435.339	1	26
435.509	1	42
435.680	1	28
435.850	1	25
436.021	1	31
436.191	1	34
436.362	1	39
436.532	1	30
436.703	1	32
436.873	1	27
437.044	1	39
437.214	1	37
437.385	1	32
437.556	1	36
437.726	1	22
437.897	1	27
438.067	1	27
438.238	1	29
438.408	1	31
438.579	1	25
438.749	1	37
438.920	1	21
439.090	1	35
439.261	1	25
439.431	1	28
439.602	1	35
439.772	1	34
439.943	1	30
440.113	1	33
440.284	1	34
440.455	1	31
440.625	1	31
440.796	1	27
440.966	1	30
441.137	1	21
441.307	1	33
441.478	1	23
441.648	1	36
441.819	1	27
441.989	1	23
442.160	1	29
442.330	1	41
442.501	1	27
442.671	1	33
442.842	1	26
443.012	1	30
443.183	1	31
443.353	1	36
443.524	1	27
443.694	1	20
443.865	1	17
444.035	1	36
444.206	1	34
444.376	1	12
444.547	1	21
444.717	1	25
444.888	1	27
445.058	1	38
445.229	1	23
445.399	1	12
445.570	1	29
445.740	1	21
445.911	1	24
446.081	1	22
446.252	1	9
446.422	1	25
446.593	1	24
446.763	1	15
446.934	1	30
447.104	1	20
447.275	1	20
447.445	1	28
447.616	1	24
447.786	1	20
447.957	1	19
448.127	1	17
448.298	1	14
448.468	1	22
448.639	1	38
448.809	1	25
448.979	1	16
449.150	1	22
449.320	1	23
449.491	1	29
449.661	1	20
449.832	1	13
450.002	1	6
450.173	1	15
450.343	1	13
450.514	1	24
450.684	1	38
450.855	1	23
451.025	1	30
451.196	1	33
451.366	1	24
451.537	1	23
451.707	1	29
451.878	1	25
452.048	1	18
452.218	1	25
452.389	1	32
452.559	1	36
452.730	1	25
452.900	1	25
453.071	1	23
453.241	1	37
453.412	1	27
453.582	1	16
453.753	1	25
453.923	1	29
454.093	1	10
454.264	1	34
454.434	1	27
454.605	1	17
454.775	1	29
454.946	1	15
455.116	1	23
455.287	1	31
455.457	1	23
455.628	1	23
455.798	1	10
455.968	1	17
456.139	1	25
456.309	1	28
456.480	1	11
456.650	1	26
456.821	1	29
456.991	1	29
457.161	1	26
457.332	1	20
457.502	1	43
457.673	1	22
457.843	1	19
458.014	1	23
458.184	1	22
458.355	1	30
458.525	1	20
458.695	1	15
458.866	1	20
459.036	1	14
459.207	1	18
459.377	1	17
459.548	1	12
459.718	1	20
459.888	1	16
460.059	1	3
460.229	1	11
460.400	1	32
460.570	1	22
460.740	1	16
460.911	1	37
461.081	1	11
461.252	1	17
461.422	1	14
461.593	1	21
461.763	1	24
461.933	1	23
462.104	1	12
462.274	1	9
462.445	1	13
462.615	1	14
462.785	1	17
462.956	1	17
463.126	1	15
463.297	1	18
463.467	1	16
463.638	1	22
463.808	1	18
463.978	1	17
464.149	1	22
464.319	1	18
464.490	1	13
464.660	1	13
464.830	1	15
465.001	1	20
465.171	1	6
465.342	1	10
465.512	1	21
465.682	1	14
465.853	1	21
466.023	1	17
466.194	1	21
466.364	1	26
466.534	1	12
466.705	1	8
466.875	1	20
467.045	1	28
467.216	1	22
467.386	1	11
467.557	1	25
467.727	1	14
467.897	1	21
468.068	1	8
468.238	1	6
468.409	1	12
468.579	1	20
468.749	1	25
468.920	1	20
469.090	1	7
469.260	1	14
469.431	1	2
469.601	1	18
469.772	1	1
469.942	1	17
470.112	1	5
470.283	1	18
470.453	1	13
470.623	1	19
470.794	1	2
470.964	1	18
471.135	1	7
471.305	1	13
471.475	1	13
471.646	1	17
471.816	1	16
471.986	1	19
472.157	1	17
472.327	1	12
472.497	1	0
472.668	1	11
472.838	1	18
473.009	1	21
473.179	1	11
473.349	1	16
473.520	1	18
473.690	1	18
473.860	1	9
474.031	1	27
474.201	1	8
474.371	1	18
474.542	1	22
474.712	1	5
474.882	1	19
475.053	1	16
475.223	1	18
475.394	1	0
475.564	1	16
475.734	1	14
475.905	1	14
476.075	1	13
476.245	1	11
476.416	1	10
476.586	1	22
476.756	1	9
476.927	1	10
477.097	1	12
477.267	1	22
477.438	1	4
477.608	1	23
477.778	1	7
477.949	1	10
478.119	1	22
478.289	1	16
478.460	1	16
478.630	1	11
478.800	1	9
478.971	1	1
479.141	1	14
479.311	1	12
479.482	1	14
479.652	1	12
479.822	1	11
479.993	1	13
480.163	1	17
480.333	1	13
480.504	1	13
480.674	1	9
480.844	1	6
481.015	1	17
481.185	1	10
481.355	1	11
481.525	1	6
481.696	1	27
481.866	1	14
482.036	1	13
482.207	1	26
482.377	1	7
482.547	1	8
482.718	1	17
482.888	1	13
483.058	1	13
483.229	1	7
483.399	1	11
483.569	1	2
483.740	1	12
483.910	1	16
484.080	1	20
484.250	1	13
484.421	1	14
484.591	1	13
484.761	1	14
484.932	1	4
485.102	1	10
485.272	1	9
485.443	1	20
485.613	1	22
485.783	1	7
485.953	1	21
486.124	1	-2
486.294	1	17
486.464	1	10
486.635	1	15
486.805	1	6
486.975	1	11
487.146	1	14
487.316	1	12
487.486	1	18
487.656	1	18
487.827	1	16
487.997	1	3
488.167	1	12
488.338	1	13
488.508	1	10
488.678	1	6
488.848	1	12
489.019	1	16
489.189	1	17
489.359	1	13
489.529	1	21
489.700	1	12
489.870	1	12
490.040	1	11
490.211	1	21
490.381	1	19
490.551	1	9
490.721	1	22
490.892	1	0
491.062	1	10
491.232	1	11
491.402	1	16
491.573	1	6
491.743	1	12
491.913	1	6
492.084	1	-2
492.254	1	9
492.424	1	18
492.594	1	9
492.765	1	7
492.935	1	7
493.105	1	16
493.275	1	10
493.446	1	3
493.616	1	11
493.786	1	-1
493.956	1	21
494.127	1	2
494.297	1	18
494.467	1	13
494.637	1	13
494.808	1	16
494.978	1	11
495.148	1	-1
495.318	1	12
495.489	1	7
495.659	1	-3
495.829	1	18
495.999	1	7
496.170	1	2
496.340	1	12
496.510	1	-3
496.680	1	7
496.851	1	7
497.021	1	15
497.191	1	13
497.361	1	13
497.532	1	-2
497.702	1	10
497.872	1	10
498.042	1	10
498.213	1	21
498.383	1	22
498.553	1	19
498.723	1	5
498.894	1	11
499.064	1	0
499.234	1	16
499.404	1	14
499.574	1	2
499.745	1	11
499.915	1	13
500.085	1	12
500.255	1	18
500.426	1	-1
500.596	1	11
500.766	1	11
500.936	1	11
501.106	1	9
501.277	1	-2
501.447	1	7
501.617	1	8
501.787	1	13
501.958	1	6
502.128	1	14
502.298	1	0
502.468	1	5
502.638	1	6
502.809	1	8
502.979	1	12
503.149	1	7
503.319	1	7
503.489	1	9
503.660	1	14
503.830	1	0
504.000	1	15
504.170	1	9
504.340	1	7
504.511	1	6
504.681	1	10
504.851	1	10
505.021	1	12
505.192	1	11
505.362	1	17
505.532	1	10
505.702	1	10
505.872	1	11
506.043	1	10
506.213	1	0
506.383	1	14
506.553	1	16
506.723	1	-1
506.893	1	12
507.064	1	9
507.234	1	20
507.404	1	9
507.574	1	5
507.744	1	14
507.915	1	7
508.085	1	20
508.255	1	-3
508.425	1	8
508.595	1	14
508.766	1	6
508.936	1	14
509.106	1	-2
509.276	1	9
509.446	1	1
509.616	1	6
509.787	1	5
509.957	1	12
510.127	1	2
510.297	1	5
510.467	1	7
510.638	1	9
510.808	1	5
510.978	1	10
511.148	1	17
511.318	1	8
511.488	1	2
511.659	1	5
511.829	1	6
511.999	1	13
512.169	1	20
512.339	1	4
512.509	1	13
512.680	1	13
512.850	1	2
513.020	1	12
513.190	1	5
513.360	1	9
513.530	1	19
513.700	1	13
513.871	1	14
514.041	1	5
514.211	1	21
514.381	1	9
514.551	1	1
514.721	1	8
514.892	1	-4
515.062	1	8
515.232	1	1
515.402	1	10
515.572	1	10
515.742	1	-1
515.912	1	7
516.083	1	5
516.253	1	-1
516.423	1	-3
516.593	1	-1
516.763	1	7
516.933	1	0
517.104	1	1
517.274	1	13
517.444	1	0
517.614	1	4
517.784	1	13
517.954	1	12
518.124	1	14
518.294	1	9
518.465	1	-5
518.635	1	8
518.805	1	2
518.975	1	6
519.145	1	3
519.315	1	11
519.485	1	21
519.656	1	6
519.826	1	12
519.996	1	7
520.166	1	-1
520.336	1	-5
520.506	1	9
520.676	1	7
520.846	1	18
521.017	1	16
521.187	1	7
521.357	1	0
521.527	1	9
521.697	1	3
521.867	1	7
522.037	1	9
522.207	1	0
522.377	1	-3
522.548	1	8
522.718	1	17
522.888	1	12
523.058	1	10
523.228	1	5
523.398	1	10
523.568	1	3
523.738	1	5
523.909	1	9
524.079	1	11
524.249	1	7
524.419	1	-1
524.589	1	0
524.759	1	4
524.929	1	4
525.099	1	13
525.269	1	-8
525.439	1	-6
525.610	1	11
525.780	1	3
525.950	1	6
526.120	1	12
526.290	1	16
526.460	1	3
526.630	1	7
526.800	1	5
526.970	1	9
527.140	1	6
527.311	1	14
527.481	1	5
527.651	1	4
527.821	1	-2
527.991	1	3
528.161	1	9
528.331	1	-2
528.501	1	-7
528.671	1	-5
528.841	1	9
529.011	1	3
529.181	1	7
529.352	1	3
529.522	1	6
529.692	1	7
529.862	1	1
530.032	1	16
530.202	1	4
530.372	1	7
530.542	1	7
530.712	1	-1
530.882	1	-6
531.052	1	15
531.222	1	4
531.392	1	5
531.563	1	6
531.733	1	4
531.903	1	0
532.073	1	4
532.243	1	16
532.413	1	8
532.583	1	-6
532.753	1	10
532.923	1	-3
533.093	1	-1
533.263	1	7
533.433	1	4
533.603	1	17
533.773	1	11
533.943	1	6
534.113	1	12
534.284	1	6
534.454	1	6
534.624	1	8
534.794	1	11
534.964	1	19
535.134	1	-5
535.304	1	15
535.474	1	5
535.644	1	5
535.814	1	4
535.984	1	17
536.154	1	11
536.324	1	-2
536.494	1	1
536.664	1	15
536.834	1	4
537.004	1	0
537.174	1	2
537.344	1	13
537.514	1	4
537.685	1	13
537.855	1	6
538.025	1	-3
538.195	1	0
538.365	1	2
538.535	1	8
538.705	1	4
538.875	1	2
539.045	1	1
539.215	1	14
539.385	1	10
539.555	1	-5
539.725	1	4
539.895	1	14
540.065	1	8
540.235	1	-2
540.405	1	0
540.575	1	2
540.745	1	14
540.915	1	11
541.085	1	-3
541.255	1	4
541.425	1	4
541.595	1	-3
541.765	1	5
541.935	1	9
542.105	1	4
542.275	1	-2
542.445	1	-10
542.615	1	4
542.785	1	6
542.955	1	10
543.125	1	5
543.295	1	-3
543.465	1	9
543.635	1	7
543.805	1	4
543.975	1	14
544.145	1	-5
544.315	1	13
544.485	1	2
544.655	1	5
544.825	1	-1
544.995	1	4
545.165	1	10
545.335	1	-2
545.505	1	6
545.675	1	7
545.845	1	13
546.015	1	2
546.185	1	13
546.355	1	7
546.525	1	7
546.695	1	4
546.865	1	5
547.035	1	11
547.205	1	9
547.375	1	7
547.545	1	9
547.715	1	-10
547.885	1	8
548.055	1	14
548.225	1	14
548.395	1	4
548.565	1	10
548.735	1	-4
548.905	1	2
549.075	1	3
549.245	1	9
549.415	1	5
549.585	1	3
549.755	1	-1
549.925	1	17
550.095	1	5
550.265	1	12
550.435	1	7
550.605	1	5
550.775	1	9
550.945	1	-1
551.115	1	7
551.285	1	0
551.455	1	13
551.625	1	18
551.795	1	17
551.965	1	4
552.135	1	2
552.305	1	11
552.475	1	3
552.645	1	-3
552.815	1	3
552.985	1	-5
553.155	1	6
553.325	1	8
553.495	1	10
553.665	1	6
553.835	1	9
554.004	1	1
554.174	1	-6
554.344	1	0
554.514	1	6
554.684	1	-9
554.854	1	10
555.024	1	-5
555.194	1	12
555.364	1	6
555.534	1	11
555.704	1	0
555.874	1	5
556.044	1	4
556.214	1	-2
556.384	1	1
556.554	1	0
556.724	1	-2
556.894	1	0
557.064	1	2
557.234	1	9
557.404	1	-2
557.573	1	4
557.743	1	-1
557.913	1	-3
558.083	1	-3
558.253	1	-1
558.423	1	14
558.593	1	15
558.763	1	14
558.933	1	10
559.103	1	7
559.273	1	3
559.443	1	-6
559.613	1	-13
559.783	1	-2
559.953	1	-11
560.122	1	0
560.292	1	-4
560.462	1	5
560.632	1	12
560.802	1	-1
560.972	1	-1
561.142	1	-4
561.312	1	-2
561.482	1	6
561.652	1	3
561.822	1	7
561.992	1	4
562.162	1	11
562.331	1	5
562.501	1	1
562.671	1	2
562.841	1	10
563.011	1	-1
563.181	1	8
563.351	1	0
563.521	1	7
563.691	1	8
563.861	1	5
564.031	1	9
564.201	1	4
564.370	1	-4
564.540	1	0
564.710	1	0
564.880	1	3
565.050	1	12
565.220	1	15
565.390	1	6
565.560	1	11
565.730	1	-3
565.900	1	8
566.069	1	1
566.239	1	9
566.409	1	4
566.579	1	1
566.749	1	-6
566.919	1	3
567.089	1	-6
567.259	1	12
567.429	1	6
567.599	1	6
567.768	1	-1
567.938	1	6
568.108	1	5
568.278	1	5
568.448	1	-4
568.618	1	9
568.788	1	10
568.958	1	-3
569.128	1	-4
569.297	1	4
569.467	1	-5
569.637	1	13
569.807	1	4
569.977	1	12
570.147	1	5
570.317	1	-4
570.487	1	-2
570.656	1	5
570.826	1	10
570.996	1	-2
571.166	1	-4
571.336	1	4
571.506	1	0
571.676	1	5
571.846	1	7
572.015	1	9
572.185	1	2
572.355	1	14
572.525	1	3
572.695	1	12
572.865	1	2
573.035	1	14
573.205	1	11
573.374	1	7
573.544	1	3
573.714	1	10
573.884	1	0
574.054	1	8
574.224	1	11
574.394	1	-7
574.563	1	8
574.733	1	0
574.903	1	-3
575.073	1	-7
575.243	1	-2
575.413	1	11
575.583	1	3
575.752	1	12
575.922	1	7
576.092	1	7
576.262	1	4
576.432	1	9
576.602	1	-6
576.772	1	4
576.941	1	4
577.111	1	12
577.281	1	4
577.451	1	4
577.621	1	1
577.791	1	10
577.960	1	8
578.130	1	0
578.300	1	6
578.470	1	9
578.640	1	-7
578.810	1	2
578.979	1	1
579.149	1	10
579.319	1	-7
579.489	1	8
579.659	1	5
579.829	1	14
579.998	1	2
580.168	1	3
580.338	1	-6
580.508	1	15
580.678	1	0
580.848	1	-6
581.017	1	-3
581.187	1	3
581.357	1	3
581.527	1	4
581.697	1	4
581.867	1	13
582.036	1	12
582.206	1	4
582.376	1	5
582.546	1	-1
582.716	1	-5
582.885	1	0
583.055	1	9
583.225	1	16
583.395	1	5
583.565	1	5
583.735	1	11
583.904	1	9
584.074	1	2
584.244	1	9
584.414	1	1
584.584	1	7
584.753	1	5
584.923	1	2
585.093	1	0
585.263	1	7
585.433	1	2
585.602	1	-1
585.772	1	1
585.942	1	-5
586.112	1	1
586.282	1	0
586.451	1	2
586.621	1	13
586.791	1	5
586.961	1	2
587.131	1	7
587.300	1	5
587.470	1	13
587.640	1	0
587.810	1	12
587.980	1	-3
588.149	1	7
588.319	1	1
588.489	1	-3
588.659	1	19
588.829	1	6
588.998	1	4
589.168	1	5
589.338	1	0
589.508	1	5
589.677	1	-1
589.847	1	18
590.017	1	1
590.187	1	-3
590.357	1	-3
590.526	1	2
590.696	1	7
590.866	1	13
591.036	1	12
591.205	1	-8
591.375	1	-9
591.545	1	14
591.715	1	-2
591.885	1	-4
592.054	1	-2
592.224	1	4
592.394	1	-5
592.564	1	13
592.733	1	18
592.903	1	8
593.073	1	5
593.243	1	2
593.412	1	14
593.582	1	0
593.752	1	9
593.922	1	-1
594.091	1	10
594.261	1	8
594.431	1	7
594.601	1	2
594.771	1	6
594.940	1	5
595.110	1	1
595.280	1	3
595.450	1	16
595.619	1	-9
595.789	1	-6
595.959	1	12
596.129	1	13
596.298	1	8
596.468	1	2
596.638	1	6
596.808	1	2
596.977	1	5
597.147	1	0
597.317	1	2
597.487	1	-1
597.656	1	1
597.826	1	5
597.996	1	8
598.166	1	8
598.335	1	0
598.505	1	5
598.675	1	5
598.844	1	6
599.014	1	0
599.184	1	4
599.354	1	-6
599.523	1	2
599.693	1	-2
599.863	1	10
600.033	1	0
600.202	1	4
600.372	1	-1
600.542	1	3
600.712	1	-1
600.881	1	-1
601.051	1	1
601.221	1	13
601.390	1	5
601.560	1	4
601.730	1	17
601.900	1	9
602.069	1	2
602.239	1	17
602.409	1	1
602.578	1	5
602.748	1	-1
602.918	1	2
603.088	1	14
603.257	1	8
603.427	1	5
603.597	1	11
603.767	1	4
603.936	1	-8
604.106	1	-1
604.276	1	6
604.445	1	1
604.615	1	2
604.785	1	15
604.954	1	-2
605.124	1	7
605.294	1	8
605.464	1	18
605.633	1	1
605.803	1	5
605.973	1	3
606.142	1	10
606.312	1	13
606.482	1	9
606.652	1	-1
606.821	1	-3
606.991	1	10
607.161	1	9
607.330	1	4
607.500	1	-3
607.670	1	-3
607.839	1	5
608.009	1	5
608.179	1	3
608.348	1	15
608.518	1	11
608.688	1	14
608.858	1	13
609.027	1	14
609.197	1	-11
609.367	1	3
609.536	1	5
609.706	1	3
609.876	1	12
610.045	1	8
610.215	1	4
610.385	1	-1
610.554	1	6
610.724	1	3
610.894	1	7
611.063	1	-3
611.233	1	4
611.403	1	8
611.572	1	0
611.742	1	-1
611.912	1	2
612.081	1	9
612.251	1	8
612.421	1	5
612.590	1	-6
612.760	1	4
612.930	1	-3
613.099	1	11
613.269	1	13
613.439	1	8
613.608	1	-4
613.778	1	3
613.948	1	6
614.117	1	8
614.287	1	9
614.457	1	-1
614.626	1	20
614.796	1	14
614.966	1	14
615.135	1	9
615.305	1	8
615.475	1	9
615.644	1	1
615.814	1	1
615.984	1	9
616.153	1	5
616.323	1	13
616.493	1	-2
616.662	1	10
616.832	1	1
617.002	1	-1
617.171	1	4
617.341	1	9
617.511	1	-2
617.680	1	13
617.850	1	-5
618.019	1	6
618.189	1	-1
618.359	1	10
618.528	1	15
618.698	1	3
618.868	1	12
619.037	1	12
619.207	1	1
619.377	1	-2
619.546	1	5
619.716	1	8
619.885	1	8
620.055	1	-1
620.225	1	10
620.394	1	10
620.564	1	-4
620.734	1	-2
620.903	1	7
621.073	1	5
621.242	1	13
621.412	1	0
621.582	1	13
621.751	1	5
621.921	1	8
622.091	1	10
622.260	1	5
622.430	1	0
622.599	1	7
622.769	1	6
622.939	1	2
623.108	1	9
623.278	1	16
623.448	1	4
623.617	1	-1
623.787	1	7
623.956	1	11
624.126	1	-6
624.296	1	6
624.465	1	-9
624.635	1	17
624.804	1	6
624.974	1	13
625.144	1	2
625.313	1	15
625.483	1	9
625.652	1	5
625.822	1	14
625.992	1	2
626.161	1	9
626.331	1	19
626.501	1	19
626.670	1	-5
626.840	1	-2
627.009	1	9
627.179	1	21
627.348	1	1
627.518	1	1
627.688	1	2
627.857	1	11
628.027	1	7
628.196	1	-5
628.366	1	-1
628.536	1	15
628.705	1	-4
628.875	1	14
629.044	1	7
629.214	1	7
629.384	1	3
629.553	1	-3
629.723	1	10
629.892	1	15
630.062	1	6
630.232	1	0
630.401	1	16
630.571	1	11
630.740	1	5
630.910	1	7
631.079	1	15
631.249	1	12
631.419	1	-2
631.588	1	12
631.758	1	7
631.927	1	6
632.097	1	1
632.266	1	4
632.436	1	9
632.606	1	15
632.775	1	12
632.945	1	6
633.114	1	19
633.284	1	-7
633.453	1	7
633.623	1	12
633.793	1	18
633.962	1	13
634.132	1	1
634.301	1	7
634.471	1	1
634.640	1	5
634.810	1	14
634.979	1	13
635.149	1	20
635.319	1	10
635.488	1	11
635.658	1	14
635.827	1	16
635.997	1	9
636.166	1	1
636.336	1	16
636.505	1	18
636.675	1	5
636.845	1	6
637.014	1	13
637.184	1	19
637.353	1	10
637.523	1	16
637.692	1	6
637.862	1	8
638.031	1	13
638.201	1	12
638.370	1	19
638.540	1	10
638.710	1	12
638.879	1	11
639.049	1	20
639.218	1	9
639.388	1	14
639.557	1	13
639.727	1	13
639.896	1	9
640.066	1	21
640.235	1	16
640.405	1	17
640.574	1	15
640.744	1	5
640.914	1	5
641.083	1	13
641.253	1	7
641.422	1	-3
641.592	1	2
641.761	1	10
641.931	1	13
642.100	1	6
642.270	1	4
642.439	1	9
642.609	1	6
642.778	1	-10
642.948	1	13
643.117	1	4
643.287	1	4
643.456	1	9
643.626	1	10
643.795	1	-2
643.965	1	5
644.134	1	6
644.304	1	14
644.473	1	7
644.643	1	11
644.812	1	14
644.982	1	5
645.151	1	7
645.321	1	5
645.490	1	14
645.660	1	-7
645.829	1	-2
645.999	1	14
646.168	1	16
646.338	1	2
646.507	1	1
646.677	1	4
646.846	1	2
647.016	1	5
647.185	1	10
647.355	1	12
647.524	1	7
647.694	1	6
647.863	1	9
648.033	1	14
648.202	1	-2
648.372	1	5
648.541	1	10
648.711	1	9
648.880	1	-2
649.050	1	15
649.219	1	4
649.389	1	4
649.558	1	12
649.728	1	3
649.897	1	0
650.067	1	5
650.236	1	5
650.406	1	8
650.575	1	16
650.745	1	4
650.914	1	16
651.084	1	6
651.253	1	10
651.423	1	18
651.592	1	9
651.762	1	4
651.931	1	3
652.101	1	4
652.270	1	7
652.440	1	4
652.609	1	11
652.778	1	-4
652.948	1	13
653.117	1	15
653.287	1	7
653.456	1	13
653.626	1	16
653.795	1	8
653.965	1	3
654.134	1	3
654.304	1	11
654.473	1	14
654.643	1	-4
654.812	1	-1
654.982	1	15
655.151	1	1
655.320	1	13
655.490	1	4
655.659	1	8
655.829	1	7
655.998	1	10
656.168	1	3
656.337	1	9
656.507	1	0
656.676	1	6
656.846	1	9
657.015	1	10
657.184	1	6
657.354	1	7
657.523	1	8
657.693	1	5
657.862	1	12
658.032	1	6
658.201	1	11
658.371	1	3
658.540	1	7
658.709	1	1
658.879	1	2
659.048	1	13
659.218	1	11
659.387	1	5
659.557	1	-1
659.726	1	6
659.895	1	1
660.065	1	9
660.234	1	-6
660.404	1	6
660.573	1	9
660.743	1	-2
660.912	1	17
661.081	1	3
661.251	1	15
661.420	1	4
661.590	1	11
661.759	1	10
661.929	1	8
662.098	1	-1
662.267	1	5
662.437	1	6
662.606	1	2
662.776	1	1
662.945	1	4
663.115	1	1
663.284	1	-5
663.453	1	1
663.623	1	4
663.792	1	10
663.962	1	6
664.131	1	6
664.300	1	2
664.470	1	-3
664.639	1	14
664.809	1	-4
664.978	1	7
665.148	1	0
665.317	1	17
665.486	1	5
665.656	1	7
665.825	1	8
665.995	1	5
666.164	1	17
666.333	1	-2
666.503	1	7
666.672	1	7
666.842	1	4
667.011	1	7
667.180	1	11
667.350	1	4
667.519	1	1
667.689	1	6
667.858	1	9
668.027	1	8
668.197	1	2
668.366	1	17
668.536	1	-2
668.705	1	4
668.874	1	-2
669.044	1	3
669.213	1	8
669.382	1	0
669.552	1	-1
669.721	1	4
669.891	1	6
670.060	1	3
670.229	1	3
670.399	1	8
670.568	1	-3
670.738	1	12
670.907	1	9
671.076	1	0
671.246	1	-1
671.415	1	3
671.584	1	11
671.754	1	14
671.923	1	7
672.093	1	-5
672.262	1	6
672.431	1	13
672.601	1	4
672.770	1	5
672.939	1	-3
673.109	1	8
673.278	1	7
673.448	1	14
673.617	1	4
673.786	1	-1
