325.333	1	14
325.504	1	7
325.675	1	-4
325.846	1	-3
326.017	1	4
326.188	1	1
326.359	1	-7
326.531	1	6
326.702	1	13
326.873	1	2
327.044	1	3
327.215	1	0
327.386	1	2
327.557	1	5
327.728	1	7
327.899	1	14
328.070	1	9
328.241	1	2
328.412	1	3
328.583	1	8
328.754	1	-5
328.926	1	7
329.097	1	4
329.268	1	13
329.439	1	3
329.610	1	14
329.781	1	1
329.952	1	6
330.123	1	7
330.294	1	7
330.465	1	8
330.636	1	22
330.807	1	10
330.978	1	11
331.149	1	4
331.320	1	15
331.492	1	3
331.663	1	5
331.834	1	12
332.005	1	2
332.176	1	5
332.347	1	4
332.518	1	11
332.689	1	9
332.860	1	9
333.031	1	1
333.202	1	9
333.373	1	4
333.544	1	7
333.715	1	3
333.886	1	6
334.057	1	14
334.228	1	9
334.399	1	-1
334.570	1	16
334.741	1	4
334.912	1	11
335.084	1	4
335.255	1	3
335.426	1	3
335.597	1	8
335.768	1	-3
335.939	1	12
336.110	1	14
336.281	1	6
336.452	1	9
336.623	1	3
336.794	1	3
336.965	1	5
337.136	1	3
337.307	1	5
337.478	1	-4
337.649	1	12
337.820	1	14
337.991	1	18
338.162	1	6
338.333	1	12
338.504	1	14
338.675	1	16
338.846	1	3
339.017	1	0
339.188	1	11
339.359	1	7
339.530	1	6
339.701	1	8
339.872	1	7
340.043	1	1
340.214	1	-1
340.385	1	4
340.556	1	10
340.727	1	23
340.898	1	17
341.069	1	12
341.240	1	0
341.411	1	11
341.582	1	-4
341.753	1	14
341.924	1	7
342.095	1	4
342.266	1	5
342.437	1	7
342.608	1	8
342.779	1	14
342.950	1	-6
343.121	1	18
343.292	1	8
343.463	1	3
343.634	1	-2
343.805	1	3
343.976	1	3
344.147	1	-2
344.318	1	11
344.489	1	9
344.660	1	12
344.831	1	7
345.002	1	15
345.173	1	-1
345.344	1	9
345.515	1	-4
345.686	1	2
345.857	1	8
346.028	1	5
346.199	1	8
346.370	1	6
346.541	1	2
346.712	1	4
346.883	1	6
347.054	1	-3
347.225	1	3
347.396	1	-1
347.567	1	10
347.738	1	4
347.909	1	5
348.080	1	2
348.251	1	10
348.422	1	-1
348.593	1	-3
348.764	1	6
348.935	1	-3
349.106	1	0
349.277	1	16
349.448	1	-2
349.619	1	-4
349.790	1	9
349.961	1	0
350.132	1	4
350.303	1	3
350.474	1	11
350.645	1	2
350.816	1	3
350.987	1	7
351.157	1	13
351.328	1	2
351.499	1	14
351.670	1	2
351.841	1	7
352.012	1	11
352.183	1	4
352.354	1	10
352.525	1	4
352.696	1	11
352.867	1	7
353.038	1	7
353.209	1	12
353.380	1	0
353.551	1	-6
353.722	1	0
353.893	1	13
354.064	1	12
354.235	1	3
354.406	1	1
354.576	1	3
354.747	1	4
354.918	1	14
355.089	1	3
355.260	1	3
355.431	1	-6
355.602	1	0
355.773	1	-2
355.944	1	6
356.115	1	-1
356.286	1	6
356.457	1	9
356.628	1	3
356.799	1	-5
356.970	1	5
357.141	1	7
357.311	1	-6
357.482	1	3
357.653	1	-3
357.824	1	7
357.995	1	3
358.166	1	4
358.337	1	8
358.508	1	5
358.679	1	-3
358.850	1	4
359.021	1	4
359.192	1	7
359.363	1	0
359.533	1	-6
359.704	1	5
359.875	1	0
360.046	1	6
360.217	1	2
360.388	1	-4
360.559	1	10
360.730	1	1
360.901	1	9
361.072	1	-1
361.243	1	11
361.414	1	12
361.584	1	-3
361.755	1	0
361.926	1	3
362.097	1	-1
362.268	1	5
362.439	1	-4
362.610	1	7
362.781	1	3
362.952	1	2
363.123	1	-2
363.293	1	4
363.464	1	4
363.635	1	12
363.806	1	2
363.977	1	11
364.148	1	7
364.319	1	9
364.490	1	7
364.661	1	-2
364.832	1	3
365.002	1	-8
365.173	1	1
365.344	1	0
365.515	1	5
365.686	1	9
365.857	1	2
366.028	1	-2
366.199	1	1
366.370	1	-6
366.540	1	-3
366.711	1	-5
366.882	1	8
367.053	1	9
367.224	1	-1
367.395	1	-2
367.566	1	5
367.737	1	6
367.908	1	2
368.078	1	-1
368.249	1	-6
368.420	1	11
368.591	1	4
368.762	1	8
368.933	1	0
369.104	1	11
369.274	1	13
369.445	1	8
369.616	1	10
369.787	1	-2
369.958	1	-4
370.129	1	3
370.300	1	2
370.471	1	11
370.641	1	8
370.812	1	-6
370.983	1	6
371.154	1	8
371.325	1	7
371.496	1	-5
371.667	1	2
371.837	1	0
372.008	1	5
372.179	1	9
372.350	1	1
372.521	1	1
372.692	1	9
372.863	1	-1
373.033	1	-2
373.204	1	12
373.375	1	0
373.546	1	-3
373.717	1	-3
373.888	1	7
374.059	1	-2
374.229	1	2
374.400	1	-7
374.571	1	0
374.742	1	0
374.913	1	-16
375.084	1	5
375.254	1	1
375.425	1	6
375.596	1	4
375.767	1	4
375.938	1	-6
376.109	1	-2
376.279	1	1
376.450	1	6
376.621	1	4
376.792	1	-2
376.963	1	7
377.134	1	5
377.304	1	-1
377.475	1	7
377.646	1	5
377.817	1	2
377.988	1	9
378.159	1	-1
378.329	1	4
378.500	1	-6
378.671	1	4
378.842	1	5
379.013	1	10
379.184	1	7
379.354	1	0
379.525	1	15
379.696	1	1
379.867	1	5
380.038	1	14
380.209	1	-7
380.379	1	5
380.550	1	2
380.721	1	1
380.892	1	-2
381.063	1	0
381.233	1	10
381.404	1	16
381.575	1	10
381.746	1	2
381.917	1	3
382.087	1	0
382.258	1	-1
382.429	1	5
382.600	1	2
382.771	1	7
382.941	1	-3
383.112	1	1
383.283	1	-2
383.454	1	8
383.625	1	-15
383.795	1	13
383.966	1	11
384.137	1	5
384.308	1	8
384.479	1	6
384.649	1	11
384.820	1	8
384.991	1	18
385.162	1	5
385.333	1	-2
385.503	1	3
385.674	1	5
385.845	1	1
386.016	1	9
386.187	1	0
386.357	1	7
386.528	1	-2
386.699	1	0
386.870	1	-6
387.041	1	3
387.211	1	2
387.382	1	1
387.553	1	6
387.724	1	-9
387.894	1	-7
388.065	1	10
388.236	1	7
388.407	1	17
388.578	1	12
388.748	1	10
388.919	1	3
389.090	1	-3
389.261	1	-2
389.431	1	7
389.602	1	11
389.773	1	1
389.944	1	6
390.114	1	8
390.285	1	7
390.456	1	2
390.627	1	11
390.798	1	8
390.968	1	11
391.139	1	6
391.310	1	5
391.481	1	8
391.651	1	10
391.822	1	3
391.993	1	5
392.164	1	-2
392.334	1	-5
392.505	1	0
392.676	1	7
392.847	1	12
393.017	1	0
393.188	1	6
393.359	1	19
393.530	1	5
393.700	1	20
393.871	1	7
394.042	1	7
394.213	1	11
394.383	1	0
394.554	1	5
394.725	1	14
394.896	1	14
395.066	1	3
395.237	1	1
395.408	1	11
395.579	1	8
395.749	1	-1
395.920	1	-3
396.091	1	4
396.262	1	-1
396.432	1	7
396.603	1	8
396.774	1	0
396.945	1	4
397.115	1	5
397.286	1	12
397.457	1	14
397.627	1	4
397.798	1	4
397.969	1	0
398.140	1	0
398.310	1	12
398.481	1	11
398.652	1	9
398.823	1	5
398.993	1	4
399.164	1	1
399.335	1	7
399.505	1	2
399.676	1	6
399.847	1	9
400.018	1	7
400.188	1	7
400.359	1	-12
400.530	1	14
400.700	1	4
400.871	1	18
401.042	1	9
401.213	1	8
401.383	1	12
401.554	1	8
401.725	1	6
401.895	1	4
402.066	1	8
402.237	1	21
402.408	1	17
402.578	1	14
402.749	1	9
402.920	1	2
403.090	1	3
403.261	1	4
403.432	1	7
403.603	1	9
403.773	1	7
403.944	1	3
404.115	1	14
404.285	1	-2
404.456	1	9
404.627	1	9
404.797	1	-4
404.968	1	8
405.139	1	9
405.310	1	10
405.480	1	2
405.651	1	12
405.822	1	1
405.992	1	18
406.163	1	5
406.334	1	11
406.504	1	13
406.675	1	11
406.846	1	8
407.016	1	12
407.187	1	24
407.358	1	18
407.528	1	3
407.699	1	5
407.870	1	9
408.041	1	14
408.211	1	9
408.382	1	10
408.553	1	5
408.723	1	14
408.894	1	-5
409.065	1	8
409.235	1	1
409.406	1	16
409.577	1	9
409.747	1	10
409.918	1	8
410.089	1	8
410.259	1	15
410.430	1	0
410.601	1	11
410.771	1	10
410.942	1	9
411.113	1	10
411.283	1	11
411.454	1	8
411.625	1	9
411.795	1	10
411.966	1	10
412.137	1	19
412.307	1	2
412.478	1	12
412.649	1	18
412.819	1	13
412.990	1	16
413.161	1	12
413.331	1	19
413.502	1	9
413.672	1	5
413.843	1	6
414.014	1	11
414.184	1	15
414.355	1	16
414.526	1	13
414.696	1	10
414.867	1	22
415.038	1	7
415.208	1	-3
415.379	1	8
415.550	1	5
415.720	1	7
415.891	1	8
416.062	1	1
416.232	1	22
416.403	1	4
416.573	1	7
416.744	1	4
416.915	1	2
417.085	1	13
417.256	1	12
417.427	1	12
417.597	1	19
417.768	1	13
417.939	1	18
418.109	1	14
418.280	1	14
418.450	1	15
418.621	1	8
418.792	1	10
418.962	1	8
419.133	1	19
419.304	1	20
419.474	1	11
419.645	1	2
419.815	1	14
419.986	1	19
420.157	1	10
420.327	1	0
420.498	1	9
420.669	1	16
420.839	1	6
421.010	1	7
421.180	1	14
421.351	1	3
421.522	1	14
421.692	1	8
421.863	1	22
422.033	1	16
422.204	1	5
422.375	1	16
422.545	1	25
422.716	1	15
422.886	1	18
423.057	1	13
423.228	1	13
423.398	1	16
423.569	1	9
423.740	1	13
423.910	1	18
424.081	1	13
424.251	1	6
424.422	1	13
424.593	1	5
424.763	1	24
424.934	1	16
425.104	1	29
425.275	1	11
425.445	1	7
425.616	1	3
425.787	1	26
425.957	1	22
426.128	1	24
426.298	1	10
426.469	1	21
426.640	1	4
426.810	1	9
426.981	1	19
427.151	1	7
427.322	1	12
427.493	1	10
427.663	1	11
427.834	1	8
428.004	1	22
428.175	1	11
428.345	1	15
428.516	1	18
428.687	1	10
428.857	1	5
429.028	1	10
429.198	1	11
429.369	1	13
429.540	1	11
429.710	1	23
429.881	1	12
430.051	1	1
430.222	1	22
430.392	1	16
430.563	1	14
430.734	1	18
430.904	1	17
431.075	1	17
431.245	1	7
431.416	1	2
431.586	1	10
431.757	1	14
431.927	1	10
432.098	1	7
432.269	1	11
432.439	1	24
432.610	1	16
432.780	1	-1
432.951	1	5
433.121	1	11
433.292	1	2
433.462	1	10
433.633	1	14
433.804	1	19
433.974	1	16
434.145	1	9
434.315	1	9
434.486	1	7
434.656	1	13
434.827	1	4
434.997	1	14
435.168	1	9
435.339	1	15
435.509	1	16
435.680	1	10
435.850	1	6
436.021	1	23
436.191	1	16
436.362	1	12
436.532	1	8
436.703	1	17
436.873	1	7
437.044	1	3
437.214	1	11
437.385	1	19
437.556	1	17
437.726	1	11
437.897	1	9
438.067	1	20
438.238	1	13
438.408	1	7
438.579	1	6
438.749	1	4
438.920	1	11
439.090	1	17
439.261	1	2
439.431	1	19
439.602	1	20
439.772	1	10
439.943	1	16
440.113	1	12
440.284	1	9
440.455	1	4
440.625	1	18
440.796	1	13
440.966	1	12
441.137	1	-4
441.307	1	19
441.478	1	8
441.648	1	12
441.819	1	7
441.989	1	4
442.160	1	18
442.330	1	19
442.501	1	-1
442.671	1	16
442.842	1	9
443.012	1	10
443.183	1	17
443.353	1	11
443.524	1	5
443.694	1	6
443.865	1	5
444.035	1	10
444.206	1	15
444.376	1	15
444.547	1	14
444.717	1	8
444.888	1	13
445.058	1	16
445.229	1	16
445.399	1	10
445.570	1	9
445.740	1	9
445.911	1	1
446.081	1	6
446.252	1	13
446.422	1	9
446.593	1	14
446.763	1	7
446.934	1	6
447.104	1	9
447.275	1	-2
447.445	1	6
447.616	1	15
447.786	1	6
447.957	1	11
448.127	1	0
448.298	1	9
448.468	1	8
448.639	1	11
448.809	1	6
448.979	1	14
449.150	1	15
449.320	1	8
449.491	1	12
449.661	1	1
449.832	1	10
450.002	1	4
450.173	1	12
450.343	1	4
450.514	1	10
450.684	1	19
450.855	1	16
451.025	1	-4
451.196	1	11
451.366	1	14
451.537	1	4
451.707	1	11
451.878	1	10
452.048	1	4
452.218	1	5
452.389	1	10
452.559	1	23
452.730	1	0
452.900	1	17
453.071	1	6
453.241	1	9
453.412	1	7
453.582	1	7
453.753	1	7
453.923	1	3
454.093	1	-7
454.264	1	13
454.434	1	5
454.605	1	5
454.775	1	-4
454.946	1	7
455.116	1	6
455.287	1	26
455.457	1	6
455.628	1	0
455.798	1	-3
455.968	1	13
456.139	1	-2
456.309	1	2
456.480	1	2
456.650	1	11
456.821	1	10
456.991	1	15
457.161	1	11
457.332	1	5
457.502	1	22
457.673	1	4
457.843	1	5
458.014	1	11
458.184	1	4
458.355	1	15
458.525	1	18
458.695	1	-1
458.866	1	-1
459.036	1	10
459.207	1	7
459.377	1	8
459.548	1	3
459.718	1	-1
459.888	1	9
460.059	1	-5
460.229	1	1
460.400	1	23
460.570	1	3
460.740	1	2
460.911	1	22
461.081	1	10
461.252	1	6
461.422	1	10
461.593	1	0
461.763	1	0
461.933	1	5
462.104	1	5
462.274	1	9
462.445	1	4
462.615	1	3
462.785	1	8
462.956	1	8
463.126	1	-2
463.297	1	11
463.467	1	4
463.638	1	2
463.808	1	7
463.978	1	1
464.149	1	15
464.319	1	2
464.490	1	-2
464.660	1	2
464.830	1	2
465.001	1	-6
465.171	1	2
465.342	1	-6
465.512	1	9
465.682	1	10
465.853	1	4
466.023	1	16
466.194	1	12
466.364	1	9
466.534	1	-1
466.705	1	8
466.875	1	1
467.045	1	2
467.216	1	8
467.386	1	9
467.557	1	19
467.727	1	5
467.897	1	-1
468.068	1	-1
468.238	1	-2
468.409	1	9
468.579	1	0
468.749	1	12
468.920	1	4
469.090	1	2
469.260	1	3
469.431	1	4
469.601	1	8
469.772	1	-15
469.942	1	7
470.112	1	0
470.283	1	6
470.453	1	7
470.623	1	-2
470.794	1	-3
470.964	1	0
471.135	1	1
471.305	1	2
471.475	1	16
471.646	1	6
471.816	1	14
471.986	1	6
472.157	1	-1
472.327	1	10
472.497	1	-8
472.668	1	-4
472.838	1	1
473.009	1	11
473.179	1	12
473.349	1	9
473.520	1	2
473.690	1	2
473.860	1	2
474.031	1	18
474.201	1	5
474.371	1	16
474.542	1	5
474.712	1	10
474.882	1	13
475.053	1	1
475.223	1	7
475.394	1	-2
475.564	1	9
475.734	1	10
475.905	1	-3
476.075	1	-7
476.245	1	-1
476.416	1	4
476.586	1	7
476.756	1	5
476.927	1	-4
477.097	1	4
477.267	1	5
477.438	1	1
477.608	1	1
477.778	1	1
477.949	1	7
478.119	1	8
478.289	1	13
478.460	1	1
478.630	1	-2
478.800	1	8
478.971	1	-6
479.141	1	10
479.311	1	-2
479.482	1	-6
479.652	1	7
479.822	1	6
479.993	1	5
480.163	1	3
480.333	1	9
480.504	1	7
480.674	1	-3
480.844	1	1
481.015	1	3
481.185	1	3
481.355	1	5
481.525	1	4
481.696	1	14
481.866	1	3
482.036	1	1
482.207	1	10
482.377	1	0
482.547	1	7
482.718	1	5
482.888	1	7
483.058	1	3
483.229	1	6
483.399	1	0
483.569	1	5
483.740	1	-1
483.910	1	6
484.080	1	2
484.250	1	4
484.421	1	3
484.591	1	7
484.761	1	3
484.932	1	3
485.102	1	-2
485.272	1	-2
485.443	1	12
485.613	1	-1
485.783	1	-3
485.953	1	5
486.124	1	16
486.294	1	9
486.464	1	7
486.635	1	8
486.805	1	12
486.975	1	-1
487.146	1	2
487.316	1	5
487.486	1	5
487.656	1	13
487.827	1	1
487.997	1	-4
488.167	1	3
488.338	1	4
488.508	1	3
488.678	1	11
488.848	1	4
489.019	1	5
489.189	1	7
489.359	1	-1
489.529	1	0
489.700	1	-12
489.870	1	8
490.040	1	2
490.211	1	17
490.381	1	17
490.551	1	0
490.721	1	11
490.892	1	-3
491.062	1	0
491.232	1	9
491.402	1	4
491.573	1	10
491.743	1	5
491.913	1	14
492.084	1	2
492.254	1	-1
492.424	1	10
492.594	1	-10
492.765	1	-3
492.935	1	3
493.105	1	8
493.275	1	5
493.446	1	-2
493.616	1	9
493.786	1	-1
493.956	1	14
494.127	1	9
494.297	1	1
494.467	1	-4
494.637	1	5
494.808	1	3
494.978	1	12
495.148	1	-12
495.318	1	9
495.489	1	3
495.659	1	-2
495.829	1	8
495.999	1	4
496.170	1	-6
496.340	1	1
496.510	1	5
496.680	1	4
496.851	1	3
497.021	1	12
497.191	1	2
497.361	1	6
497.532	1	1
497.702	1	1
497.872	1	3
498.042	1	12
498.213	1	5
498.383	1	9
498.553	1	-3
498.723	1	-11
498.894	1	7
499.064	1	-1
499.234	1	11
499.404	1	4
499.574	1	-4
499.745	1	7
499.915	1	10
500.085	1	9
500.255	1	-1
500.426	1	-1
500.596	1	11
500.766	1	10
500.936	1	4
501.106	1	4
501.277	1	0
501.447	1	5
501.617	1	-1
501.787	1	3
501.958	1	-9
502.128	1	-3
502.298	1	9
502.468	1	2
502.638	1	-10
502.809	1	-3
502.979	1	10
503.149	1	10
503.319	1	-2
503.489	1	1
503.660	1	-5
503.830	1	-3
504.000	1	-6
504.170	1	-5
504.340	1	6
504.511	1	-4
504.681	1	1
504.851	1	7
505.021	1	10
505.192	1	4
505.362	1	9
505.532	1	-7
505.702	1	3
505.872	1	7
506.043	1	14
506.213	1	-1
506.383	1	5
506.553	1	7
506.723	1	4
506.893	1	1
507.064	1	8
507.234	1	3
507.404	1	3
507.574	1	-5
507.744	1	9
507.915	1	1
508.085	1	15
508.255	1	-14
508.425	1	1
508.595	1	0
508.766	1	-16
508.936	1	10
509.106	1	-5
509.276	1	-5
509.446	1	-1
509.616	1	3
509.787	1	5
509.957	1	14
510.127	1	-5
510.297	1	4
510.467	1	3
510.638	1	-1
510.808	1	3
510.978	1	-1
511.148	1	10
511.318	1	8
511.488	1	12
511.659	1	-4
511.829	1	7
511.999	1	10
512.169	1	13
512.339	1	4
512.509	1	-6
512.680	1	-2
512.850	1	0
513.020	1	3
513.190	1	-3
513.360	1	3
513.530	1	7
513.700	1	4
513.871	1	7
514.041	1	-6
514.211	1	10
514.381	1	-7
514.551	1	-1
514.721	1	5
514.892	1	-7
515.062	1	8
515.232	1	-1
515.402	1	4
515.572	1	6
515.742	1	-3
515.912	1	-2
516.083	1	7
516.253	1	-7
516.423	1	-1
516.593	1	7
516.763	1	-8
516.933	1	-2
517.104	1	-9
517.274	1	6
517.444	1	-6
517.614	1	-8
517.784	1	-2
517.954	1	5
518.124	1	10
518.294	1	2
518.465	1	-6
518.635	1	2
518.805	1	0
518.975	1	-1
519.145	1	9
519.315	1	7
519.485	1	8
519.656	1	-10
519.826	1	1
519.996	1	4
520.166	1	-5
520.336	1	-6
520.506	1	5
520.676	1	-1
520.846	1	14
521.017	1	6
521.187	1	5
521.357	1	9
521.527	1	7
521.697	1	-5
521.867	1	-5
522.037	1	2
522.207	1	10
522.377	1	-4
522.548	1	-2
522.718	1	3
522.888	1	7
523.058	1	7
523.228	1	-5
523.398	1	12
523.568	1	-2
523.738	1	3
523.909	1	8
524.079	1	7
524.249	1	-3
524.419	1	-1
524.589	1	5
524.759	1	10
524.929	1	-10
525.099	1	-11
525.269	1	-3
525.439	1	-3
525.610	1	2
525.780	1	-3
525.950	1	5
526.120	1	5
526.290	1	11
526.460	1	4
526.630	1	-3
526.800	1	-6
526.970	1	1
527.140	1	6
527.311	1	12
527.481	1	5
527.651	1	10
527.821	1	-6
527.991	1	5
528.161	1	0
528.331	1	-3
528.501	1	7
528.671	1	-3
528.841	1	5
529.011	1	-6
529.181	1	0
529.352	1	0
529.522	1	1
529.692	1	7
529.862	1	-2
530.032	1	16
530.202	1	-3
530.372	1	1
530.542	1	-6
530.712	1	6
530.882	1	-3
531.052	1	11
531.222	1	0
531.392	1	5
531.563	1	-1
531.733	1	-1
531.903	1	-4
532.073	1	0
532.243	1	1
532.413	1	5
532.583	1	-4
532.753	1	4
532.923	1	3
533.093	1	0
533.263	1	8
533.433	1	-6
533.603	1	5
533.773	1	1
533.943	1	1
534.113	1	2
534.284	1	-2
534.454	1	-4
534.624	1	-4
534.794	1	7
534.964	1	6
535.134	1	-4
535.304	1	4
535.474	1	1
535.644	1	0
535.814	1	-13
535.984	1	14
536.154	1	-2
536.324	1	-3
536.494	1	-2
536.664	1	4
536.834	1	0
537.004	1	6
537.174	1	-1
537.344	1	8
537.514	1	-5
537.685	1	4
537.855	1	1
538.025	1	10
538.195	1	9
538.365	1	0
538.535	1	0
538.705	1	-7
538.875	1	-3
539.045	1	-6
539.215	1	19
539.385	1	9
539.555	1	3
539.725	1	-3
539.895	1	9
540.065	1	-8
540.235	1	8
540.405	1	0
540.575	1	0
540.745	1	-4
540.915	1	6
541.085	1	-8
541.255	1	2
541.425	1	2
541.595	1	-5
541.765	1	-2
541.935	1	1
542.105	1	-5
542.275	1	-1
542.445	1	-2
542.615	1	0
542.785	1	-7
542.955	1	1
543.125	1	4
543.295	1	11
543.465	1	7
543.635	1	4
543.805	1	-7
543.975	1	0
544.145	1	-10
544.315	1	7
544.485	1	-7
544.655	1	-3
544.825	1	4
544.995	1	4
545.165	1	5
545.335	1	1
545.505	1	4
545.675	1	6
545.845	1	6
546.015	1	2
546.185	1	9
546.355	1	2
546.525	1	4
546.695	1	0
546.865	1	9
547.035	1	-4
547.205	1	-6
547.375	1	-5
547.545	1	5
547.715	1	-7
547.885	1	-3
548.055	1	13
548.225	1	0
548.395	1	-2
548.565	1	4
548.735	1	-7
548.905	1	8
549.075	1	8
549.245	1	6
549.415	1	8
549.585	1	0
549.755	1	-3
549.925	1	-2
550.095	1	-4
550.265	1	-2
550.435	1	7
550.605	1	-1
550.775	1	-5
550.945	1	-6
551.115	1	6
551.285	1	-4
551.455	1	9
551.625	1	11
551.795	1	5
551.965	1	3
552.135	1	-8
552.305	1	3
552.475	1	2
552.645	1	-2
552.815	1	-6
552.985	1	-15
553.155	1	2
553.325	1	2
553.495	1	7
553.665	1	5
553.835	1	7
554.004	1	0
554.174	1	-7
554.344	1	5
554.514	1	1
554.684	1	-4
554.854	1	4
555.024	1	-6
555.194	1	5
555.364	1	1
555.534	1	11
555.704	1	-2
555.874	1	7
556.044	1	-3
556.214	1	2
556.384	1	-4
556.554	1	-10
556.724	1	-2
556.894	1	2
557.064	1	-5
557.234	1	4
557.404	1	0
557.573	1	1
557.743	1	-11
557.913	1	-10
558.083	1	3
558.253	1	-7
558.423	1	1
558.593	1	15
558.763	1	12
558.933	1	4
559.103	1	-3
559.273	1	-1
559.443	1	-11
559.613	1	-16
559.783	1	-1
559.953	1	-8
560.122	1	-2
560.292	1	-2
560.462	1	-7
560.632	1	1
560.802	1	-1
560.972	1	5
561.142	1	-1
561.312	1	-9
561.482	1	0
561.652	1	-2
561.822	1	5
561.992	1	-7
562.162	1	11
562.331	1	8
562.501	1	-4
562.671	1	1
562.841	1	3
563.011	1	1
563.181	1	3
563.351	1	-2
563.521	1	2
563.691	1	3
563.861	1	1
564.031	1	6
564.201	1	0
564.370	1	1
564.540	1	-6
564.710	1	3
564.880	1	-3
565.050	1	9
565.220	1	-2
565.390	1	-3
565.560	1	2
565.730	1	-7
565.900	1	-1
566.069	1	7
566.239	1	10
566.409	1	-2
566.579	1	-6
566.749	1	2
566.919	1	-9
567.089	1	-7
567.259	1	2
567.429	1	-6
567.599	1	8
567.768	1	-2
567.938	1	3
568.108	1	-2
568.278	1	4
568.448	1	-1
568.618	1	9
568.788	1	12
568.958	1	-7
569.128	1	-5
569.297	1	6
569.467	1	4
569.637	1	8
569.807	1	-1
569.977	1	9
570.147	1	0
570.317	1	0
570.487	1	-6
570.656	1	0
570.826	1	-3
570.996	1	11
571.166	1	6
571.336	1	10
571.506	1	-2
571.676	1	-2
571.846	1	7
572.015	1	-1
572.185	1	-3
572.355	1	3
572.525	1	11
572.695	1	-2
572.865	1	2
573.035	1	14
573.205	1	2
573.374	1	9
573.544	1	-1
573.714	1	9
573.884	1	-7
574.054	1	5
574.224	1	11
574.394	1	-6
574.563	1	4
574.733	1	1
574.903	1	4
575.073	1	0
575.243	1	5
575.413	1	-7
575.583	1	5
575.752	1	13
575.922	1	3
576.092	1	-1
576.262	1	-1
576.432	1	19
576.602	1	-4
576.772	1	2
576.941	1	0
577.111	1	4
577.281	1	-4
577.451	1	4
577.621	1	3
577.791	1	2
577.960	1	5
578.130	1	1
578.300	1	8
578.470	1	0
578.640	1	0
578.810	1	-2
578.979	1	2
579.149	1	-1
579.319	1	8
579.489	1	5
579.659	1	6
579.829	1	0
579.998	1	1
580.168	1	1
580.338	1	-7
580.508	1	-1
580.678	1	-1
580.848	1	-11
581.017	1	-1
581.187	1	6
581.357	1	4
581.527	1	2
581.697	1	-8
581.867	1	3
582.036	1	7
582.206	1	-7
582.376	1	3
582.546	1	-8
582.716	1	-5
582.885	1	2
583.055	1	0
583.225	1	24
583.395	1	6
583.565	1	-3
583.735	1	5
583.904	1	-2
584.074	1	3
584.244	1	-3
584.414	1	0
584.584	1	3
584.753	1	5
584.923	1	9
585.093	1	-3
585.263	1	5
585.433	1	-2
585.602	1	7
585.772	1	-8
585.942	1	5
586.112	1	-4
586.282	1	1
586.451	1	4
586.621	1	-1
586.791	1	11
586.961	1	-7
587.131	1	-2
587.300	1	-6
587.470	1	11
587.640	1	-8
587.810	1	7
587.980	1	-1
588.149	1	0
588.319	1	6
588.489	1	-4
588.659	1	7
588.829	1	-1
588.998	1	7
589.168	1	7
589.338	1	3
589.508	1	2
589.677	1	-7
589.847	1	14
590.017	1	3
590.187	1	3
590.357	1	-2
590.526	1	0
590.696	1	12
590.866	1	5
591.036	1	14
591.205	1	9
591.375	1	-7
591.545	1	2
591.715	1	-16
591.885	1	-2
592.054	1	-5
592.224	1	4
592.394	1	-4
592.564	1	10
592.733	1	10
592.903	1	2
593.073	1	-2
593.243	1	6
593.412	1	2
593.582	1	-4
593.752	1	-3
593.922	1	-4
594.091	1	-2
594.261	1	3
594.431	1	8
594.601	1	-3
594.771	1	-7
594.940	1	0
595.110	1	0
595.280	1	-4
595.450	1	9
595.619	1	1
595.789	1	-7
595.959	1	-3
596.129	1	5
596.298	1	11
596.468	1	6
596.638	1	-6
596.808	1	-6
596.977	1	10
597.147	1	-7
597.317	1	-5
597.487	1	-6
597.656	1	-12
597.826	1	3
597.996	1	-4
598.166	1	-1
598.335	1	-7
598.505	1	6
598.675	1	5
598.844	1	0
599.014	1	-4
599.184	1	-2
599.354	1	-3
599.523	1	-1
599.693	1	6
599.863	1	4
600.033	1	-9
600.202	1	5
600.372	1	9
600.542	1	2
600.712	1	1
600.881	1	-1
601.051	1	3
601.221	1	7
601.390	1	-13
601.560	1	3
601.730	1	6
601.900	1	1
602.069	1	-4
602.239	1	8
602.409	1	-1
602.578	1	-1
602.748	1	7
602.918	1	7
603.088	1	-5
603.257	1	13
603.427	1	-2
603.597	1	6
603.767	1	-9
603.936	1	-16
604.106	1	-2
604.276	1	-1
604.445	1	0
604.615	1	5
604.785	1	11
604.954	1	-10
605.124	1	3
605.294	1	6
605.464	1	15
605.633	1	2
605.803	1	6
605.973	1	12
606.142	1	3
606.312	1	7
606.482	1	4
606.652	1	-1
606.821	1	-4
606.991	1	7
607.161	1	5
607.330	1	-4
607.500	1	-8
607.670	1	1
607.839	1	-1
608.009	1	3
608.179	1	-2
608.348	1	9
608.518	1	-2
608.688	1	18
608.858	1	9
609.027	1	12
609.197	1	1
609.367	1	5
609.536	1	0
609.706	1	4
609.876	1	2
610.045	1	8
610.215	1	4
610.385	1	1
610.554	1	5
610.724	1	0
610.894	1	-1
611.063	1	2
611.233	1	9
611.403	1	6
611.572	1	6
611.742	1	-9
611.912	1	0
612.081	1	1
612.251	1	18
612.421	1	-6
612.590	1	1
612.760	1	6
612.930	1	0
613.099	1	10
613.269	1	-2
613.439	1	6
613.608	1	1
613.778	1	-4
613.948	1	5
614.117	1	4
614.287	1	13
614.457	1	-3
614.626	1	10
614.796	1	9
614.966	1	12
615.135	1	9
615.305	1	5
615.475	1	-4
615.644	1	-2
615.814	1	2
615.984	1	6
616.153	1	-1
616.323	1	10
616.493	1	-7
616.662	1	-5
616.832	1	13
617.002	1	-9
617.171	1	-3
617.341	1	3
617.511	1	-1
617.680	1	1
617.850	1	7
618.019	1	3
618.189	1	1
618.359	1	0
618.528	1	12
618.698	1	2
618.868	1	-2
619.037	1	8
619.207	1	2
619.377	1	-5
619.546	1	-1
619.716	1	-6
619.885	1	3
620.055	1	-4
620.225	1	11
620.394	1	7
620.564	1	-2
620.734	1	-4
620.903	1	13
621.073	1	8
621.242	1	3
621.412	1	1
621.582	1	22
621.751	1	3
621.921	1	3
622.091	1	0
622.260	1	11
622.430	1	11
622.599	1	-2
622.769	1	-1
622.939	1	5
623.108	1	9
623.278	1	4
623.448	1	-1
623.617	1	0
623.787	1	3
623.956	1	3
624.126	1	-5
624.296	1	0
624.465	1	-3
624.635	1	14
624.804	1	-1
624.974	1	-3
625.144	1	-7
625.313	1	6
625.483	1	10
625.652	1	2
625.822	1	12
625.992	1	7
626.161	1	3
626.331	1	11
626.501	1	28
626.670	1	-5
626.840	1	-6
627.009	1	5
627.179	1	1
627.348	1	-1
627.518	1	1
627.688	1	8
627.857	1	13
628.027	1	2
628.196	1	-11
628.366	1	5
628.536	1	-4
628.705	1	0
628.875	1	9
629.044	1	6
629.214	1	7
629.384	1	2
629.553	1	-4
629.723	1	7
629.892	1	10
630.062	1	7
630.232	1	-7
630.401	1	8
630.571	1	8
630.740	1	7
630.910	1	10
631.079	1	11
631.249	1	8
631.419	1	-2
631.588	1	7
631.758	1	6
631.927	1	-4
632.097	1	2
632.266	1	5
632.436	1	9
632.606	1	6
632.775	1	11
632.945	1	7
633.114	1	1
633.284	1	1
633.453	1	-6
633.623	1	1
633.793	1	11
633.962	1	-4
634.132	1	4
634.301	1	8
634.471	1	6
634.640	1	2
634.810	1	9
634.979	1	4
635.149	1	6
635.319	1	2
635.488	1	3
635.658	1	11
635.827	1	0
635.997	1	-3
636.166	1	16
636.336	1	10
636.505	1	20
636.675	1	-1
636.845	1	-3
637.014	1	13
637.184	1	3
637.353	1	8
637.523	1	15
637.692	1	7
637.862	1	11
638.031	1	7
638.201	1	7
638.370	1	10
638.540	1	6
638.710	1	-9
638.879	1	4
639.049	1	6
639.218	1	9
639.388	1	3
639.557	1	19
639.727	1	6
639.896	1	10
640.066	1	10
640.235	1	13
640.405	1	8
640.574	1	19
640.744	1	3
640.914	1	4
641.083	1	1
641.253	1	2
641.422	1	-5
641.592	1	4
641.761	1	0
641.931	1	13
642.100	1	-6
642.270	1	0
642.439	1	6
642.609	1	7
642.778	1	-1
642.948	1	0
643.117	1	0
643.287	1	7
643.456	1	9
643.626	1	1
643.795	1	-10
643.965	1	10
644.134	1	4
644.304	1	17
644.473	1	12
644.643	1	8
644.812	1	-5
644.982	1	8
645.151	1	6
645.321	1	5
645.490	1	10
645.660	1	3
645.829	1	12
645.999	1	8
646.168	1	13
646.338	1	0
646.507	1	1
646.677	1	-6
646.846	1	0
647.016	1	1
647.185	1	14
647.355	1	13
647.524	1	0
647.694	1	13
647.863	1	9
648.033	1	6
648.202	1	4
648.372	1	2
648.541	1	2
648.711	1	-4
648.880	1	3
649.050	1	7
649.219	1	6
649.389	1	-5
649.558	1	8
649.728	1	6
649.897	1	1
650.067	1	-6
650.236	1	2
650.406	1	3
650.575	1	3
650.745	1	2
650.914	1	17
651.084	1	1
651.253	1	3
651.423	1	14
651.592	1	2
651.762	1	-1
651.931	1	8
652.101	1	-1
652.270	1	1
652.440	1	-3
652.609	1	9
652.778	1	1
652.948	1	5
653.117	1	3
653.287	1	9
653.456	1	4
653.626	1	5
653.795	1	-3
653.965	1	5
654.134	1	4
654.304	1	12
654.473	1	4
654.643	1	1
654.812	1	-2
654.982	1	0
655.151	1	-3
655.320	1	6
655.490	1	-1
655.659	1	-2
655.829	1	0
655.998	1	10
656.168	1	11
656.337	1	9
656.507	1	-6
656.676	1	4
656.846	1	9
657.015	1	-6
657.184	1	-4
657.354	1	8
657.523	1	3
657.693	1	5
657.862	1	-2
658.032	1	14
658.201	1	3
658.371	1	6
658.540	1	0
658.709	1	2
658.879	1	-5
659.048	1	15
659.218	1	9
659.387	1	9
659.557	1	-14
659.726	1	8
659.895	1	3
660.065	1	5
660.234	1	-8
660.404	1	3
660.573	1	4
660.743	1	4
660.912	1	9
661.081	1	9
661.251	1	12
661.420	1	-5
661.590	1	6
661.759	1	9
661.929	1	-8
662.098	1	6
662.267	1	5
662.437	1	-3
662.606	1	7
662.776	1	-2
662.945	1	5
663.115	1	1
663.284	1	1
663.453	1	-1
663.623	1	-6
663.792	1	6
663.962	1	8
664.131	1	8
664.300	1	-8
664.470	1	-3
664.639	1	15
664.809	1	2
664.978	1	-9
665.148	1	3
665.317	1	7
665.486	1	-1
665.656	1	9
665.825	1	5
665.995	1	10
666.164	1	6
666.333	1	-5
666.503	1	-2
666.672	1	4
666.842	1	0
667.011	1	5
667.180	1	2
667.350	1	-3
667.519	1	-4
667.689	1	5
667.858	1	10
668.027	1	3
668.197	1	5
668.366	1	11
668.536	1	3
668.705	1	-5
668.874	1	7
669.044	1	-4
669.213	1	0
669.382	1	-8
669.552	1	-3
669.721	1	4
669.891	1	3
670.060	1	11
670.229	1	-3
670.399	1	6
670.568	1	-8
670.738	1	8
670.907	1	0
671.076	1	2
671.246	1	3
671.415	1	-2
671.584	1	8
671.754	1	3
671.923	1	-1
672.093	1	1
672.262	1	4
672.431	1	5
672.601	1	-5
672.770	1	4
672.939	1	-2
673.109	1	-1
673.278	1	7
673.448	1	16
673.617	1	8
673.786	1	-12
