325.333	1	12
325.504	1	6
325.675	1	5
325.846	1	-11
326.017	1	7
326.188	1	19
326.359	1	-5
326.531	1	-6
326.702	1	14
326.873	1	3
327.044	1	7
327.215	1	-4
327.386	1	15
327.557	1	7
327.728	1	8
327.899	1	13
328.070	1	10
328.241	1	-3
328.412	1	-6
328.583	1	3
328.754	1	-4
328.926	1	-1
329.097	1	0
329.268	1	5
329.439	1	3
329.610	1	16
329.781	1	6
329.952	1	-3
330.123	1	2
330.294	1	11
330.465	1	-2
330.636	1	16
330.807	1	0
330.978	1	4
331.149	1	1
331.320	1	4
331.492	1	5
331.663	1	2
331.834	1	10
332.005	1	-6
332.176	1	14
332.347	1	10
332.518	1	2
332.689	1	5
332.860	1	4
333.031	1	-9
333.202	1	4
333.373	1	11
333.544	1	5
333.715	1	4
333.886	1	8
334.057	1	24
334.228	1	3
334.399	1	1
334.570	1	6
334.741	1	-2
334.912	1	7
335.084	1	7
335.255	1	13
335.426	1	5
335.597	1	6
335.768	1	0
335.939	1	4
336.110	1	6
336.281	1	13
336.452	1	12
336.623	1	1
336.794	1	2
336.965	1	11
337.136	1	4
337.307	1	3
337.478	1	3
337.649	1	11
337.820	1	3
337.991	1	16
338.162	1	10
338.333	1	-1
338.504	1	7
338.675	1	12
338.846	1	14
339.017	1	3
339.188	1	4
339.359	1	1
339.530	1	-4
339.701	1	8
339.872	1	2
340.043	1	11
340.214	1	13
340.385	1	0
340.556	1	4
340.727	1	8
340.898	1	13
341.069	1	8
341.240	1	1
341.411	1	10
341.582	1	2
341.753	1	13
341.924	1	11
342.095	1	2
342.266	1	6
342.437	1	10
342.608	1	12
342.779	1	4
342.950	1	3
343.121	1	13
343.292	1	6
343.463	1	-5
343.634	1	15
343.805	1	5
343.976	1	7
344.147	1	-8
344.318	1	1
344.489	1	-1
344.660	1	8
344.831	1	4
345.002	1	17
345.173	1	-1
345.344	1	5
345.515	1	0
345.686	1	5
345.857	1	4
346.028	1	8
346.199	1	12
346.370	1	11
346.541	1	-7
346.712	1	7
346.883	1	1
347.054	1	-1
347.225	1	12
347.396	1	-7
347.567	1	16
347.738	1	6
347.909	1	8
348.080	1	4
348.251	1	-1
348.422	1	1
348.593	1	3
348.764	1	10
348.935	1	6
349.106	1	2
349.277	1	15
349.448	1	11
349.619	1	-3
349.790	1	18
349.961	1	5
350.132	1	-7
350.303	1	10
350.474	1	4
350.645	1	7
350.816	1	9
350.987	1	0
351.157	1	-2
351.328	1	-1
351.499	1	13
351.670	1	6
351.841	1	11
352.012	1	15
352.183	1	6
352.354	1	11
352.525	1	-4
352.696	1	11
352.867	1	6
353.038	1	-4
353.209	1	1
353.380	1	2
353.551	1	-4
353.722	1	1
353.893	1	9
354.064	1	9
354.235	1	1
354.406	1	8
354.576	1	-10
354.747	1	-2
354.918	1	4
355.089	1	12
355.260	1	9
355.431	1	-7
355.602	1	-7
355.773	1	-3
355.944	1	7
356.115	1	6
356.286	1	1
356.457	1	-2
356.628	1	6
356.799	1	-2
356.970	1	-6
357.141	1	12
357.311	1	2
357.482	1	-4
357.653	1	-7
357.824	1	-2
357.995	1	4
358.166	1	5
358.337	1	5
358.508	1	0
358.679	1	9
358.850	1	-1
359.021	1	6
359.192	1	-2
359.363	1	-3
359.533	1	-7
359.704	1	9
359.875	1	2
360.046	1	11
360.217	1	11
360.388	1	0
360.559	1	12
360.730	1	-7
360.901	1	4
361.072	1	2
361.243	1	7
361.414	1	-4
361.584	1	0
361.755	1	5
361.926	1	0
362.097	1	-2
362.268	1	10
362.439	1	5
362.610	1	11
362.781	1	2
362.952	1	-7
363.123	1	3
363.293	1	5
363.464	1	4
363.635	1	4
363.806	1	5
363.977	1	10
364.148	1	0
364.319	1	4
364.490	1	4
364.661	1	-17
364.832	1	3
365.002	1	-3
365.173	1	-3
365.344	1	-7
365.515	1	5
365.686	1	-2
365.857	1	1
366.028	1	0
366.199	1	-1
366.370	1	-9
366.540	1	1
366.711	1	4
366.882	1	11
367.053	1	1
367.224	1	-11
367.395	1	1
367.566	1	1
367.737	1	10
367.908	1	-3
368.078	1	1
368.249	1	-4
368.420	1	11
368.591	1	-1
368.762	1	15
368.933	1	4
369.104	1	1
369.274	1	0
369.445	1	4
369.616	1	-4
369.787	1	-4
369.958	1	5
370.129	1	-1
370.300	1	-1
370.471	1	3
370.641	1	-3
370.812	1	-6
370.983	1	7
371.154	1	11
371.325	1	9
371.496	1	-1
371.667	1	-3
371.837	1	6
372.008	1	10
372.179	1	-2
372.350	1	-13
372.521	1	-4
372.692	1	-2
372.863	1	-6
373.033	1	6
373.204	1	-5
373.375	1	6
373.546	1	6
373.717	1	1
373.888	1	-2
374.059	1	8
374.229	1	0
374.400	1	12
374.571	1	2
374.742	1	3
374.913	1	-4
375.084	1	-1
375.254	1	14
375.425	1	10
375.596	1	8
375.767	1	7
375.938	1	-10
376.109	1	-1
376.279	1	-7
376.450	1	5
376.621	1	9
376.792	1	2
376.963	1	11
377.134	1	0
377.304	1	2
377.475	1	-1
377.646	1	-1
377.817	1	6
377.988	1	8
378.159	1	3
378.329	1	10
378.500	1	4
378.671	1	13
378.842	1	3
379.013	1	7
379.184	1	6
379.354	1	6
379.525	1	5
379.696	1	-3
379.867	1	9
380.038	1	3
380.209	1	0
380.379	1	9
380.550	1	-3
380.721	1	7
380.892	1	-5
381.063	1	-1
381.233	1	3
381.404	1	8
381.575	1	15
381.746	1	0
381.917	1	9
382.087	1	7
382.258	1	6
382.429	1	0
382.600	1	6
382.771	1	3
382.941	1	2
383.112	1	2
383.283	1	-4
383.454	1	1
383.625	1	2
383.795	1	8
383.966	1	16
384.137	1	3
384.308	1	4
384.479	1	11
384.649	1	5
384.820	1	8
384.991	1	13
385.162	1	3
385.333	1	6
385.503	1	-6
385.674	1	5
385.845	1	11
386.016	1	7
386.187	1	-2
386.357	1	-3
386.528	1	4
386.699	1	-3
386.870	1	3
387.041	1	7
387.211	1	3
387.382	1	7
387.553	1	0
387.724	1	-15
387.894	1	-5
388.065	1	4
388.236	1	1
388.407	1	9
388.578	1	10
388.748	1	8
388.919	1	-6
389.090	1	1
389.261	1	1
389.431	1	10
389.602	1	8
389.773	1	6
389.944	1	9
390.114	1	4
390.285	1	9
390.456	1	17
390.627	1	18
390.798	1	10
390.968	1	22
391.139	1	1
391.310	1	3
391.481	1	5
391.651	1	5
391.822	1	3
391.993	1	2
392.164	1	8
392.334	1	7
392.505	1	14
392.676	1	9
392.847	1	4
393.017	1	-1
393.188	1	12
393.359	1	7
393.530	1	0
393.700	1	14
393.871	1	5
394.042	1	5
394.213	1	7
394.383	1	9
394.554	1	6
394.725	1	13
394.896	1	9
395.066	1	11
395.237	1	5
395.408	1	5
395.579	1	13
395.749	1	7
395.920	1	0
396.091	1	-3
396.262	1	-1
396.432	1	0
396.603	1	3
396.774	1	3
396.945	1	3
397.115	1	11
397.286	1	-2
397.457	1	6
397.627	1	11
397.798	1	16
397.969	1	11
398.140	1	-2
398.310	1	18
398.481	1	0
398.652	1	11
398.823	1	12
398.993	1	15
399.164	1	4
399.335	1	10
399.505	1	-1
399.676	1	9
399.847	1	12
400.018	1	9
400.188	1	3
400.359	1	3
400.530	1	13
400.700	1	5
400.871	1	15
401.042	1	10
401.213	1	5
401.383	1	9
401.554	1	10
401.725	1	4
401.895	1	1
402.066	1	-5
402.237	1	28
402.408	1	7
402.578	1	2
402.749	1	12
402.920	1	0
403.090	1	6
403.261	1	0
403.432	1	1
403.603	1	15
403.773	1	6
403.944	1	14
404.115	1	18
404.285	1	4
404.456	1	14
404.627	1	8
404.797	1	3
404.968	1	16
405.139	1	4
405.310	1	8
405.480	1	2
405.651	1	10
405.822	1	1
405.992	1	12
406.163	1	2
406.334	1	13
406.504	1	8
406.675	1	2
406.846	1	11
407.016	1	22
407.187	1	11
407.358	1	3
407.528	1	7
407.699	1	4
407.870	1	-3
408.041	1	9
408.211	1	15
408.382	1	2
408.553	1	23
408.723	1	18
408.894	1	-3
409.065	1	8
409.235	1	1
409.406	1	16
409.577	1	19
409.747	1	10
409.918	1	11
410.089	1	11
410.259	1	12
410.430	1	1
410.601	1	10
410.771	1	17
410.942	1	7
411.113	1	19
411.283	1	-3
411.454	1	20
411.625	1	15
411.795	1	7
411.966	1	7
412.137	1	14
412.307	1	1
412.478	1	6
412.649	1	21
412.819	1	13
412.990	1	10
413.161	1	16
413.331	1	10
413.502	1	14
413.672	1	-2
413.843	1	11
414.014	1	12
414.184	1	15
414.355	1	11
414.526	1	8
414.696	1	14
414.867	1	22
415.038	1	12
415.208	1	-1
415.379	1	5
415.550	1	10
415.720	1	8
415.891	1	19
416.062	1	4
416.232	1	12
416.403	1	-1
416.573	1	17
416.744	1	22
416.915	1	13
417.085	1	19
417.256	1	4
417.427	1	14
417.597	1	13
417.768	1	13
417.939	1	12
418.109	1	16
418.280	1	19
418.450	1	15
418.621	1	18
418.792	1	11
418.962	1	9
419.133	1	19
419.304	1	7
419.474	1	1
419.645	1	9
419.815	1	19
419.986	1	18
420.157	1	17
420.327	1	14
420.498	1	-1
420.669	1	7
420.839	1	9
421.010	1	-1
421.180	1	7
421.351	1	5
421.522	1	9
421.692	1	16
421.863	1	10
422.033	1	11
422.204	1	14
422.375	1	23
422.545	1	11
422.716	1	4
422.886	1	15
423.057	1	12
423.228	1	11
423.398	1	13
423.569	1	6
423.740	1	22
423.910	1	17
424.081	1	13
424.251	1	9
424.422	1	12
424.593	1	13
424.763	1	18
424.934	1	24
425.104	1	20
425.275	1	13
425.445	1	8
425.616	1	15
425.787	1	14
425.957	1	14
426.128	1	14
426.298	1	-3
426.469	1	20
426.640	1	4
426.810	1	11
426.981	1	14
427.151	1	9
427.322	1	20
427.493	1	20
427.663	1	25
427.834	1	-5
428.004	1	19
428.175	1	-1
428.345	1	15
428.516	1	15
428.687	1	15
428.857	1	0
429.028	1	17
429.198	1	6
429.369	1	14
429.540	1	12
429.710	1	14
429.881	1	15
430.051	1	13
430.222	1	14
430.392	1	22
430.563	1	23
430.734	1	12
430.904	1	8
431.075	1	2
431.245	1	3
431.416	1	2
431.586	1	6
431.757	1	19
431.927	1	2
432.098	1	9
432.269	1	15
432.439	1	8
432.610	1	9
432.780	1	12
432.951	1	7
433.121	1	12
433.292	1	9
433.462	1	21
433.633	1	20
433.804	1	13
433.974	1	21
434.145	1	9
434.315	1	13
434.486	1	18
434.656	1	15
434.827	1	5
434.997	1	16
435.168	1	9
435.339	1	10
435.509	1	21
435.680	1	2
435.850	1	3
436.021	1	22
436.191	1	14
436.362	1	16
436.532	1	14
436.703	1	17
436.873	1	20
437.044	1	13
437.214	1	5
437.385	1	10
437.556	1	12
437.726	1	1
437.897	1	8
438.067	1	10
438.238	1	13
438.408	1	15
438.579	1	8
438.749	1	8
438.920	1	13
439.090	1	8
439.261	1	17
439.431	1	18
439.602	1	7
439.772	1	1
439.943	1	11
440.113	1	16
440.284	1	11
440.455	1	0
440.625	1	17
440.796	1	10
440.966	1	15
441.137	1	4
441.307	1	22
441.478	1	-1
441.648	1	12
441.819	1	1
441.989	1	10
442.160	1	12
442.330	1	12
442.501	1	4
442.671	1	14
442.842	1	4
443.012	1	19
443.183	1	15
443.353	1	6
443.524	1	-4
443.694	1	17
443.865	1	-6
444.035	1	8
444.206	1	2
444.376	1	5
444.547	1	7
444.717	1	13
444.888	1	9
445.058	1	17
445.229	1	9
445.399	1	-2
445.570	1	8
445.740	1	4
445.911	1	-3
446.081	1	11
446.252	1	-2
446.422	1	3
446.593	1	4
446.763	1	12
446.934	1	0
447.104	1	4
447.275	1	7
447.445	1	2
447.616	1	12
447.786	1	11
447.957	1	3
448.127	1	7
448.298	1	7
448.468	1	9
448.639	1	31
448.809	1	14
448.979	1	-7
449.150	1	9
449.320	1	21
449.491	1	14
449.661	1	12
449.832	1	7
450.002	1	3
450.173	1	6
450.343	1	0
450.514	1	15
450.684	1	8
450.855	1	17
451.025	1	14
451.196	1	13
451.366	1	5
451.537	1	4
451.707	1	20
451.878	1	6
452.048	1	5
452.218	1	3
452.389	1	4
452.559	1	16
452.730	1	8
452.900	1	6
453.071	1	8
453.241	1	11
453.412	1	15
453.582	1	6
453.753	1	7
453.923	1	10
454.093	1	-2
454.264	1	12
454.434	1	7
454.605	1	2
454.775	1	15
454.946	1	12
455.116	1	6
455.287	1	16
455.457	1	1
455.628	1	-2
455.798	1	0
455.968	1	13
456.139	1	1
456.309	1	6
456.480	1	6
456.650	1	11
456.821	1	11
456.991	1	11
457.161	1	5
457.332	1	16
457.502	1	12
457.673	1	5
457.843	1	2
458.014	1	13
458.184	1	1
458.355	1	17
458.525	1	13
458.695	1	0
458.866	1	-4
459.036	1	1
459.207	1	2
459.377	1	3
459.548	1	2
459.718	1	5
459.888	1	9
460.059	1	-5
460.229	1	16
460.400	1	17
460.570	1	0
460.740	1	14
460.911	1	29
461.081	1	10
461.252	1	12
461.422	1	2
461.593	1	9
461.763	1	6
461.933	1	7
462.104	1	4
462.274	1	15
462.445	1	7
462.615	1	7
462.785	1	6
462.956	1	-8
463.126	1	-2
463.297	1	22
463.467	1	4
463.638	1	7
463.808	1	12
463.978	1	8
464.149	1	9
464.319	1	10
464.490	1	2
464.660	1	4
464.830	1	2
465.001	1	4
465.171	1	7
465.342	1	5
465.512	1	9
465.682	1	16
465.853	1	-2
466.023	1	13
466.194	1	3
466.364	1	5
466.534	1	-2
466.705	1	4
466.875	1	-3
467.045	1	5
467.216	1	15
467.386	1	3
467.557	1	6
467.727	1	9
467.897	1	9
468.068	1	-1
468.238	1	-1
468.409	1	1
468.579	1	2
468.749	1	16
468.920	1	5
469.090	1	9
469.260	1	7
469.431	1	5
469.601	1	10
469.772	1	-4
469.942	1	1
470.112	1	-2
470.283	1	2
470.453	1	11
470.623	1	9
470.794	1	-5
470.964	1	7
471.135	1	3
471.305	1	2
471.475	1	-4
471.646	1	16
471.816	1	11
471.986	1	6
472.157	1	12
472.327	1	0
472.497	1	-3
472.668	1	-1
472.838	1	10
473.009	1	16
473.179	1	-2
473.349	1	2
473.520	1	3
473.690	1	13
473.860	1	-2
474.031	1	18
474.201	1	10
474.371	1	8
474.542	1	9
474.712	1	-1
474.882	1	8
475.053	1	-8
475.223	1	1
475.394	1	-4
475.564	1	6
475.734	1	11
475.905	1	-5
476.075	1	3
476.245	1	-7
476.416	1	-1
476.586	1	10
476.756	1	1
476.927	1	-1
477.097	1	2
477.267	1	3
477.438	1	2
477.608	1	-4
477.778	1	7
477.949	1	-2
478.119	1	13
478.289	1	-3
478.460	1	3
478.630	1	9
478.800	1	1
478.971	1	-6
479.141	1	2
479.311	1	5
479.482	1	10
479.652	1	-2
479.822	1	5
479.993	1	1
480.163	1	-2
480.333	1	2
480.504	1	3
480.674	1	-6
480.844	1	6
481.015	1	10
481.185	1	6
481.355	1	3
481.525	1	2
481.696	1	13
481.866	1	9
482.036	1	3
482.207	1	10
482.377	1	-2
482.547	1	5
482.718	1	10
482.888	1	7
483.058	1	7
483.229	1	3
483.399	1	-10
483.569	1	5
483.740	1	2
483.910	1	1
484.080	1	8
484.250	1	6
484.421	1	2
484.591	1	4
484.761	1	-6
484.932	1	-5
485.102	1	-1
485.272	1	3
485.443	1	13
485.613	1	-7
485.783	1	-6
485.953	1	9
486.124	1	7
486.294	1	6
486.464	1	4
486.635	1	12
486.805	1	9
486.975	1	5
487.146	1	1
487.316	1	13
487.486	1	-1
487.656	1	13
487.827	1	4
487.997	1	-1
488.167	1	17
488.338	1	11
488.508	1	15
488.678	1	12
488.848	1	4
489.019	1	-2
489.189	1	-3
489.359	1	-3
489.529	1	-1
489.700	1	3
489.870	1	-1
490.040	1	7
490.211	1	15
490.381	1	12
490.551	1	-6
490.721	1	10
490.892	1	-10
491.062	1	-2
491.232	1	-1
491.402	1	2
491.573	1	12
491.743	1	6
491.913	1	13
492.084	1	-6
492.254	1	10
492.424	1	5
492.594	1	-2
492.765	1	1
492.935	1	6
493.105	1	2
493.275	1	6
493.446	1	-2
493.616	1	8
493.786	1	1
493.956	1	15
494.127	1	1
494.297	1	8
494.467	1	-3
494.637	1	4
494.808	1	11
494.978	1	-1
495.148	1	-10
495.318	1	4
495.489	1	7
495.659	1	-7
495.829	1	6
495.999	1	7
496.170	1	0
496.340	1	-1
496.510	1	-4
496.680	1	6
496.851	1	2
497.021	1	6
497.191	1	6
497.361	1	7
497.532	1	1
497.702	1	1
497.872	1	1
498.042	1	5
498.213	1	11
498.383	1	9
498.553	1	2
498.723	1	-4
498.894	1	6
499.064	1	0
499.234	1	4
499.404	1	-4
499.574	1	4
499.745	1	6
499.915	1	13
500.085	1	2
500.255	1	11
500.426	1	3
500.596	1	7
500.766	1	8
500.936	1	1
501.106	1	0
501.277	1	3
501.447	1	-7
501.617	1	0
501.787	1	8
501.958	1	-11
502.128	1	0
502.298	1	-9
502.468	1	9
502.638	1	6
502.809	1	7
502.979	1	1
503.149	1	3
503.319	1	-3
503.489	1	1
503.660	1	-6
503.830	1	-12
504.000	1	1
504.170	1	-2
504.340	1	13
504.511	1	4
504.681	1	4
504.851	1	14
505.021	1	5
505.192	1	2
505.362	1	8
505.532	1	-10
505.702	1	9
505.872	1	8
506.043	1	5
506.213	1	3
506.383	1	6
506.553	1	1
506.723	1	-10
506.893	1	0
507.064	1	0
507.234	1	-2
507.404	1	7
507.574	1	-8
507.744	1	4
507.915	1	5
508.085	1	14
508.255	1	-4
508.425	1	6
508.595	1	2
508.766	1	-5
508.936	1	2
509.106	1	-1
509.276	1	8
509.446	1	1
509.616	1	6
509.787	1	-1
509.957	1	3
510.127	1	2
510.297	1	9
510.467	1	8
510.638	1	-2
510.808	1	-3
510.978	1	0
511.148	1	7
511.318	1	5
511.488	1	-1
511.659	1	5
511.829	1	0
511.999	1	25
512.169	1	10
512.339	1	-4
512.509	1	5
512.680	1	1
512.850	1	-4
513.020	1	1
513.190	1	2
513.360	1	-2
513.530	1	4
513.700	1	2
513.871	1	9
514.041	1	9
514.211	1	5
514.381	1	-4
514.551	1	2
514.721	1	6
514.892	1	0
515.062	1	5
515.232	1	-14
515.402	1	12
515.572	1	15
515.742	1	4
515.912	1	-5
516.083	1	16
516.253	1	2
516.423	1	-7
516.593	1	1
516.763	1	-6
516.933	1	4
517.104	1	-11
517.274	1	12
517.444	1	5
517.614	1	-2
517.784	1	7
517.954	1	11
518.124	1	15
518.294	1	-1
518.465	1	-7
518.635	1	10
518.805	1	5
518.975	1	5
519.145	1	4
519.315	1	0
519.485	1	11
519.656	1	3
519.826	1	13
519.996	1	7
520.166	1	-1
520.336	1	-4
520.506	1	-5
520.676	1	-3
520.846	1	7
521.017	1	4
521.187	1	5
521.357	1	8
521.527	1	0
521.697	1	10
521.867	1	1
522.037	1	6
522.207	1	2
522.377	1	-8
522.548	1	-3
522.718	1	10
522.888	1	8
523.058	1	6
523.228	1	-1
523.398	1	5
523.568	1	-2
523.738	1	-2
523.909	1	8
524.079	1	3
524.249	1	1
524.419	1	-1
524.589	1	0
524.759	1	-6
524.929	1	-3
525.099	1	2
525.269	1	6
525.439	1	-6
525.610	1	-2
525.780	1	2
525.950	1	2
526.120	1	7
526.290	1	5
526.460	1	1
526.630	1	-1
526.800	1	-17
526.970	1	0
527.140	1	5
527.311	1	9
527.481	1	4
527.651	1	4
527.821	1	-7
527.991	1	3
528.161	1	-1
528.331	1	-5
528.501	1	-11
528.671	1	-3
528.841	1	10
529.011	1	-7
529.181	1	2
529.352	1	-1
529.522	1	-2
529.692	1	0
529.862	1	5
530.032	1	13
530.202	1	-2
530.372	1	-1
530.542	1	-6
530.712	1	12
530.882	1	-6
531.052	1	9
531.222	1	-3
531.392	1	1
531.563	1	-6
531.733	1	1
531.903	1	5
532.073	1	1
532.243	1	7
532.413	1	-1
532.583	1	-3
532.753	1	-4
532.923	1	0
533.093	1	1
533.263	1	4
533.433	1	0
533.603	1	11
533.773	1	-3
533.943	1	-3
534.113	1	-4
534.284	1	1
534.454	1	1
534.624	1	-1
534.794	1	5
534.964	1	-3
535.134	1	-1
535.304	1	6
535.474	1	-1
535.644	1	0
535.814	1	-7
535.984	1	10
536.154	1	1
536.324	1	2
536.494	1	0
536.664	1	9
536.834	1	-2
537.004	1	3
537.174	1	-7
537.344	1	2
537.514	1	-5
537.685	1	7
537.855	1	0
538.025	1	6
538.195	1	3
538.365	1	-4
538.535	1	2
538.705	1	-4
538.875	1	-5
539.045	1	-6
539.215	1	7
539.385	1	3
539.555	1	-1
539.725	1	-1
539.895	1	17
540.065	1	-2
540.235	1	-5
540.405	1	3
540.575	1	5
540.745	1	-2
540.915	1	8
541.085	1	0
541.255	1	3
541.425	1	-7
541.595	1	-7
541.765	1	-4
541.935	1	9
542.105	1	-4
542.275	1	-3
542.445	1	-3
542.615	1	-1
542.785	1	-6
542.955	1	2
543.125	1	2
543.295	1	-7
543.465	1	7
543.635	1	3
543.805	1	-9
543.975	1	-10
544.145	1	-9
544.315	1	12
544.485	1	-6
544.655	1	8
544.825	1	1
544.995	1	0
545.165	1	14
545.335	1	-6
545.505	1	9
545.675	1	1
545.845	1	3
546.015	1	-5
546.185	1	6
546.355	1	-2
546.525	1	1
546.695	1	13
546.865	1	8
547.035	1	2
547.205	1	2
547.375	1	4
547.545	1	1
547.715	1	-2
547.885	1	-1
548.055	1	12
548.225	1	1
548.395	1	3
548.565	1	-5
548.735	1	-7
548.905	1	6
549.075	1	1
549.245	1	8
549.415	1	-2
549.585	1	1
549.755	1	-2
549.925	1	15
550.095	1	12
550.265	1	1
550.435	1	-3
550.605	1	-1
550.775	1	7
550.945	1	2
551.115	1	-2
551.285	1	-6
551.455	1	9
551.625	1	9
551.795	1	13
551.965	1	-1
552.135	1	-5
552.305	1	7
552.475	1	6
552.645	1	6
552.815	1	-3
552.985	1	-10
553.155	1	1
553.325	1	-7
553.495	1	9
553.665	1	11
553.835	1	13
554.004	1	12
554.174	1	-11
554.344	1	-1
554.514	1	2
554.684	1	-9
554.854	1	-2
555.024	1	-11
555.194	1	6
555.364	1	-8
555.534	1	5
555.704	1	-7
555.874	1	4
556.044	1	-8
556.214	1	-8
556.384	1	-5
556.554	1	-13
556.724	1	-1
556.894	1	-2
557.064	1	4
557.234	1	6
557.404	1	-10
557.573	1	3
557.743	1	-13
557.913	1	10
558.083	1	4
558.253	1	-5
558.423	1	7
558.593	1	14
558.763	1	5
558.933	1	-4
559.103	1	0
559.273	1	-1
559.443	1	-1
559.613	1	-10
559.783	1	1
559.953	1	-9
560.122	1	-6
560.292	1	-2
560.462	1	-5
560.632	1	1
560.802	1	4
560.972	1	-4
561.142	1	1
561.312	1	2
561.482	1	6
561.652	1	-2
561.822	1	13
561.992	1	-4
562.162	1	15
562.331	1	5
562.501	1	1
562.671	1	1
562.841	1	6
563.011	1	-16
563.181	1	-12
563.351	1	-2
563.521	1	2
563.691	1	0
563.861	1	6
564.031	1	8
564.201	1	7
564.370	1	4
564.540	1	-6
564.710	1	-2
564.880	1	-4
565.050	1	1
565.220	1	-3
565.390	1	2
565.560	1	5
565.730	1	-10
565.900	1	3
566.069	1	11
566.239	1	6
566.409	1	1
566.579	1	-15
566.749	1	1
566.919	1	-4
567.089	1	1
567.259	1	7
567.429	1	-4
567.599	1	6
567.768	1	4
567.938	1	5
568.108	1	4
568.278	1	1
568.448	1	-5
568.618	1	-2
568.788	1	9
568.958	1	10
569.128	1	-6
569.297	1	-2
569.467	1	-3
569.637	1	14
569.807	1	5
569.977	1	8
570.147	1	1
570.317	1	7
570.487	1	-7
570.656	1	2
570.826	1	12
570.996	1	7
571.166	1	13
571.336	1	5
571.506	1	1
571.676	1	-4
571.846	1	1
572.015	1	-6
572.185	1	5
572.355	1	2
572.525	1	8
572.695	1	1
572.865	1	4
573.035	1	9
573.205	1	-7
573.374	1	12
573.544	1	-1
573.714	1	4
573.884	1	1
574.054	1	2
574.224	1	3
574.394	1	-2
574.563	1	-8
574.733	1	-4
574.903	1	3
575.073	1	-6
575.243	1	3
575.413	1	4
575.583	1	14
575.752	1	-1
575.922	1	6
576.092	1	-2
576.262	1	-4
576.432	1	1
576.602	1	-7
576.772	1	-5
576.941	1	5
577.111	1	9
577.281	1	0
577.451	1	2
577.621	1	-3
577.791	1	4
577.960	1	4
578.130	1	-9
578.300	1	1
578.470	1	7
578.640	1	3
578.810	1	-9
578.979	1	-1
579.149	1	-2
579.319	1	5
579.489	1	5
579.659	1	1
579.829	1	12
579.998	1	2
580.168	1	2
580.338	1	-9
580.508	1	6
580.678	1	-8
580.848	1	-7
581.017	1	-2
581.187	1	4
581.357	1	-2
581.527	1	0
581.697	1	1
581.867	1	11
582.036	1	2
582.206	1	-10
582.376	1	-3
582.546	1	1
582.716	1	-4
582.885	1	7
583.055	1	4
583.225	1	7
583.395	1	9
583.565	1	-7
583.735	1	3
583.904	1	7
584.074	1	7
584.244	1	7
584.414	1	4
584.584	1	3
584.753	1	7
584.923	1	11
585.093	1	10
585.263	1	10
585.433	1	-2
585.602	1	0
585.772	1	-1
585.942	1	0
586.112	1	1
586.282	1	3
586.451	1	-4
586.621	1	6
586.791	1	3
586.961	1	-3
587.131	1	5
587.300	1	-4
587.470	1	1
587.640	1	1
587.810	1	7
587.980	1	2
588.149	1	1
588.319	1	0
588.489	1	3
588.659	1	18
588.829	1	0
588.998	1	5
589.168	1	-2
589.338	1	-2
589.508	1	0
589.677	1	-7
589.847	1	16
590.017	1	-2
590.187	1	5
590.357	1	-1
590.526	1	-2
590.696	1	5
590.866	1	7
591.036	1	2
591.205	1	2
591.375	1	-5
591.545	1	16
591.715	1	-5
591.885	1	3
592.054	1	-7
592.224	1	9
592.394	1	-7
592.564	1	4
592.733	1	8
592.903	1	6
593.073	1	1
593.243	1	5
593.412	1	8
593.582	1	1
593.752	1	2
593.922	1	0
594.091	1	3
594.261	1	6
594.431	1	5
594.601	1	-5
594.771	1	-4
594.940	1	-13
595.110	1	4
595.280	1	4
595.450	1	10
595.619	1	-1
595.789	1	-4
595.959	1	-2
596.129	1	11
596.298	1	7
596.468	1	10
596.638	1	-7
596.808	1	-7
596.977	1	11
597.147	1	-1
597.317	1	1
597.487	1	-1
597.656	1	-4
597.826	1	-9
597.996	1	4
598.166	1	-5
598.335	1	-2
598.505	1	6
598.675	1	1
598.844	1	4
599.014	1	-4
599.184	1	6
599.354	1	-4
599.523	1	-2
599.693	1	-4
599.863	1	5
600.033	1	-9
600.202	1	-3
600.372	1	3
600.542	1	5
600.712	1	9
600.881	1	-1
601.051	1	3
601.221	1	14
601.390	1	-8
601.560	1	4
601.730	1	1
601.900	1	0
602.069	1	1
602.239	1	19
602.409	1	4
602.578	1	-7
602.748	1	0
602.918	1	1
603.088	1	2
603.257	1	3
603.427	1	6
603.597	1	11
603.767	1	1
603.936	1	-12
604.106	1	0
604.276	1	3
604.445	1	-5
604.615	1	1
604.785	1	14
604.954	1	0
605.124	1	4
605.294	1	7
605.464	1	15
605.633	1	-2
605.803	1	2
605.973	1	7
606.142	1	4
606.312	1	8
606.482	1	3
606.652	1	-7
606.821	1	4
606.991	1	4
607.161	1	2
607.330	1	2
607.500	1	1
607.670	1	-7
607.839	1	12
608.009	1	7
608.179	1	3
608.348	1	12
608.518	1	-5
608.688	1	9
608.858	1	1
609.027	1	9
609.197	1	-9
609.367	1	2
609.536	1	2
609.706	1	-4
609.876	1	5
610.045	1	1
610.215	1	7
610.385	1	3
610.554	1	5
610.724	1	7
610.894	1	3
611.063	1	-5
611.233	1	-5
611.403	1	6
611.572	1	-1
611.742	1	4
611.912	1	-2
612.081	1	7
612.251	1	-3
612.421	1	5
612.590	1	-2
612.760	1	14
612.930	1	-10
613.099	1	10
613.269	1	-4
613.439	1	8
613.608	1	0
613.778	1	-2
613.948	1	7
614.117	1	8
614.287	1	13
614.457	1	-4
614.626	1	5
614.796	1	6
614.966	1	12
615.135	1	7
615.305	1	4
615.475	1	0
615.644	1	-4
615.814	1	-2
615.984	1	12
616.153	1	1
616.323	1	8
616.493	1	-4
616.662	1	2
616.832	1	7
617.002	1	-4
617.171	1	-1
617.341	1	5
617.511	1	-4
617.680	1	13
617.850	1	4
618.019	1	11
618.189	1	-3
618.359	1	2
618.528	1	3
618.698	1	2
618.868	1	4
619.037	1	8
619.207	1	-6
619.377	1	2
619.546	1	-10
619.716	1	-2
619.885	1	0
620.055	1	-12
620.225	1	10
620.394	1	6
620.564	1	0
620.734	1	0
620.903	1	-2
621.073	1	-4
621.242	1	8
621.412	1	-4
621.582	1	11
621.751	1	6
621.921	1	6
622.091	1	-1
622.260	1	7
622.430	1	-1
622.599	1	7
622.769	1	2
622.939	1	8
623.108	1	4
623.278	1	5
623.448	1	7
623.617	1	5
623.787	1	0
623.956	1	-3
624.126	1	-9
624.296	1	2
624.465	1	-4
624.635	1	20
624.804	1	4
624.974	1	15
625.144	1	3
625.313	1	8
625.483	1	10
625.652	1	-10
625.822	1	6
625.992	1	14
626.161	1	12
626.331	1	11
626.501	1	13
626.670	1	-2
626.840	1	-8
627.009	1	4
627.179	1	11
627.348	1	5
627.518	1	-6
627.688	1	-1
627.857	1	8
628.027	1	2
628.196	1	-2
628.366	1	1
628.536	1	4
628.705	1	-3
628.875	1	13
629.044	1	2
629.214	1	11
629.384	1	1
629.553	1	-6
629.723	1	11
629.892	1	6
630.062	1	6
630.232	1	-3
630.401	1	14
630.571	1	18
630.740	1	-3
630.910	1	13
631.079	1	6
631.249	1	12
631.419	1	-2
631.588	1	4
631.758	1	9
631.927	1	-1
632.097	1	-3
632.266	1	-4
632.436	1	-2
632.606	1	9
632.775	1	8
632.945	1	9
633.114	1	7
633.284	1	4
633.453	1	-3
633.623	1	3
633.793	1	10
633.962	1	1
634.132	1	-1
634.301	1	7
634.471	1	-1
634.640	1	14
634.810	1	9
634.979	1	12
635.149	1	1
635.319	1	3
635.488	1	1
635.658	1	7
635.827	1	3
635.997	1	-1
636.166	1	11
636.336	1	15
636.505	1	12
636.675	1	1
636.845	1	6
637.014	1	16
637.184	1	2
637.353	1	-2
637.523	1	11
637.692	1	9
637.862	1	3
638.031	1	10
638.201	1	6
638.370	1	9
638.540	1	0
638.710	1	1
638.879	1	-2
639.049	1	14
639.218	1	11
639.388	1	2
639.557	1	16
639.727	1	5
639.896	1	11
640.066	1	8
640.235	1	5
640.405	1	12
640.574	1	13
640.744	1	11
640.914	1	0
641.083	1	11
641.253	1	-8
641.422	1	-9
641.592	1	-3
641.761	1	10
641.931	1	18
642.100	1	1
642.270	1	-5
642.439	1	2
642.609	1	2
642.778	1	-5
642.948	1	14
643.117	1	1
643.287	1	2
643.456	1	9
643.626	1	3
643.795	1	-2
643.965	1	7
644.134	1	1
644.304	1	12
644.473	1	0
644.643	1	10
644.812	1	-3
644.982	1	6
645.151	1	0
645.321	1	6
645.490	1	2
645.660	1	0
645.829	1	2
645.999	1	13
646.168	1	-5
646.338	1	3
646.507	1	-3
646.677	1	-5
646.846	1	-2
647.016	1	9
647.185	1	13
647.355	1	2
647.524	1	12
647.694	1	10
647.863	1	8
648.033	1	8
648.202	1	2
648.372	1	7
648.541	1	6
648.711	1	3
648.880	1	9
649.050	1	-3
649.219	1	1
649.389	1	-3
649.558	1	4
649.728	1	3
649.897	1	0
650.067	1	4
650.236	1	-7
650.406	1	10
650.575	1	8
650.745	1	-8
650.914	1	12
651.084	1	0
651.253	1	1
651.423	1	15
651.592	1	8
651.762	1	1
651.931	1	9
652.101	1	-2
652.270	1	9
652.440	1	-8
652.609	1	8
652.778	1	-8
652.948	1	8
653.117	1	12
653.287	1	16
653.456	1	5
653.626	1	9
653.795	1	-5
653.965	1	4
654.134	1	7
654.304	1	3
654.473	1	8
654.643	1	-10
654.812	1	-8
654.982	1	1
655.151	1	-1
655.320	1	8
655.490	1	4
655.659	1	7
655.829	1	0
655.998	1	-1
656.168	1	2
656.337	1	5
656.507	1	-13
656.676	1	-4
656.846	1	10
657.015	1	0
657.184	1	-1
657.354	1	1
657.523	1	0
657.693	1	1
657.862	1	9
658.032	1	2
658.201	1	0
658.371	1	-3
658.540	1	6
658.709	1	-11
658.879	1	6
659.048	1	5
659.218	1	8
659.387	1	-2
659.557	1	-3
659.726	1	1
659.895	1	-3
660.065	1	6
660.234	1	-4
660.404	1	4
660.573	1	0
660.743	1	3
660.912	1	14
661.081	1	2
661.251	1	7
661.420	1	-8
661.590	1	6
661.759	1	10
661.929	1	6
662.098	1	1
662.267	1	8
662.437	1	7
662.606	1	1
662.776	1	-2
662.945	1	6
663.115	1	-1
663.284	1	1
663.453	1	6
663.623	1	0
663.792	1	6
663.962	1	6
664.131	1	11
664.300	1	-10
664.470	1	2
664.639	1	16
664.809	1	-4
664.978	1	-8
665.148	1	2
665.317	1	14
665.486	1	-9
665.656	1	3
665.825	1	9
665.995	1	3
666.164	1	8
666.333	1	-5
666.503	1	0
666.672	1	0
666.842	1	5
667.011	1	2
667.180	1	2
667.350	1	0
667.519	1	1
667.689	1	4
667.858	1	5
668.027	1	2
668.197	1	4
668.366	1	13
668.536	1	7
668.705	1	2
668.874	1	1
669.044	1	-2
669.213	1	0
669.382	1	5
669.552	1	0
669.721	1	0
669.891	1	1
670.060	1	18
670.229	1	3
670.399	1	4
670.568	1	-10
670.738	1	2
670.907	1	1
671.076	1	7
671.246	1	5
671.415	1	-3
671.584	1	7
671.754	1	9
671.923	1	5
672.093	1	-2
672.262	1	-6
672.431	1	3
672.601	1	-2
672.770	1	0
672.939	1	5
673.109	1	6
673.278	1	5
673.448	1	8
673.617	1	-1
673.786	1	-6
