325.333	1	10
325.504	1	2
325.675	1	13
325.846	1	-3
326.017	1	8
326.188	1	13
326.359	1	-1
326.531	1	19
326.702	1	15
326.873	1	4
327.044	1	10
327.215	1	-1
327.386	1	6
327.557	1	14
327.728	1	6
327.899	1	2
328.070	1	11
328.241	1	18
328.412	1	8
328.583	1	24
328.754	1	10
328.926	1	-1
329.097	1	13
329.268	1	15
329.439	1	8
329.610	1	14
329.781	1	3
329.952	1	8
330.123	1	8
330.294	1	16
330.465	1	5
330.636	1	20
330.807	1	14
330.978	1	27
331.149	1	2
331.320	1	12
331.492	1	18
331.663	1	4
331.834	1	19
332.005	1	11
332.176	1	6
332.347	1	15
332.518	1	9
332.689	1	8
332.860	1	18
333.031	1	4
333.202	1	4
333.373	1	13
333.544	1	8
333.715	1	1
333.886	1	16
334.057	1	14
334.228	1	18
334.399	1	3
334.570	1	10
334.741	1	12
334.912	1	7
335.084	1	5
335.255	1	6
335.426	1	17
335.597	1	11
335.768	1	5
335.939	1	10
336.110	1	4
336.281	1	15
336.452	1	4
336.623	1	8
336.794	1	14
336.965	1	13
337.136	1	10
337.307	1	1
337.478	1	3
337.649	1	18
337.820	1	8
337.991	1	19
338.162	1	11
338.333	1	13
338.504	1	15
338.675	1	12
338.846	1	14
339.017	1	7
339.188	1	17
339.359	1	7
339.530	1	10
339.701	1	14
339.872	1	19
340.043	1	18
340.214	1	11
340.385	1	0
340.556	1	11
340.727	1	20
340.898	1	16
341.069	1	11
341.240	1	13
341.411	1	17
341.582	1	12
341.753	1	19
341.924	1	19
342.095	1	12
342.266	1	5
342.437	1	7
342.608	1	8
342.779	1	10
342.950	1	6
343.121	1	14
343.292	1	24
343.463	1	17
343.634	1	9
343.805	1	14
343.976	1	13
344.147	1	3
344.318	1	3
344.489	1	7
344.660	1	22
344.831	1	10
345.002	1	15
345.173	1	9
345.344	1	8
345.515	1	2
345.686	1	12
345.857	1	15
346.028	1	15
346.199	1	11
346.370	1	20
346.541	1	16
346.712	1	7
346.883	1	15
347.054	1	0
347.225	1	10
347.396	1	4
347.567	1	19
347.738	1	14
347.909	1	14
348.080	1	0
348.251	1	17
348.422	1	12
348.593	1	1
348.764	1	16
348.935	1	9
349.106	1	6
349.277	1	15
349.448	1	7
349.619	1	3
349.790	1	18
349.961	1	15
350.132	1	2
350.303	1	12
350.474	1	23
350.645	1	8
350.816	1	10
350.987	1	15
351.157	1	16
351.328	1	12
351.499	1	26
351.670	1	11
351.841	1	19
352.012	1	17
352.183	1	17
352.354	1	18
352.525	1	18
352.696	1	2
352.867	1	12
353.038	1	14
353.209	1	16
353.380	1	16
353.551	1	7
353.722	1	8
353.893	1	8
354.064	1	6
354.235	1	15
354.406	1	14
354.576	1	-1
354.747	1	0
354.918	1	19
355.089	1	14
355.260	1	17
355.431	1	7
355.602	1	14
355.773	1	2
355.944	1	17
356.115	1	6
356.286	1	11
356.457	1	17
356.628	1	10
356.799	1	7
356.970	1	4
357.141	1	16
357.311	1	9
357.482	1	12
357.653	1	1
357.824	1	6
357.995	1	19
358.166	1	6
358.337	1	14
358.508	1	14
358.679	1	6
358.850	1	16
359.021	1	5
359.192	1	20
359.363	1	2
359.533	1	-1
359.704	1	18
359.875	1	13
360.046	1	12
360.217	1	22
360.388	1	2
360.559	1	5
360.730	1	8
360.901	1	18
361.072	1	7
361.243	1	25
361.414	1	3
361.584	1	15
361.755	1	15
361.926	1	11
362.097	1	10
362.268	1	9
362.439	1	9
362.610	1	21
362.781	1	7
362.952	1	9
363.123	1	9
363.293	1	12
363.464	1	14
363.635	1	22
363.806	1	14
363.977	1	26
364.148	1	9
364.319	1	14
364.490	1	14
364.661	1	3
364.832	1	12
365.002	1	10
365.173	1	7
365.344	1	2
365.515	1	15
365.686	1	26
365.857	1	10
366.028	1	4
366.199	1	17
366.370	1	-1
366.540	1	8
366.711	1	9
366.882	1	19
367.053	1	21
367.224	1	6
367.395	1	15
367.566	1	19
367.737	1	16
367.908	1	12
368.078	1	8
368.249	1	8
368.420	1	12
368.591	1	6
368.762	1	19
368.933	1	13
369.104	1	11
369.274	1	6
369.445	1	12
369.616	1	19
369.787	1	9
369.958	1	5
370.129	1	15
370.300	1	12
370.471	1	18
370.641	1	21
370.812	1	9
370.983	1	11
371.154	1	16
371.325	1	15
371.496	1	12
371.667	1	7
371.837	1	14
372.008	1	8
372.179	1	15
372.350	1	1
372.521	1	-1
372.692	1	13
372.863	1	17
373.033	1	20
373.204	1	18
373.375	1	13
373.546	1	8
373.717	1	12
373.888	1	9
374.059	1	18
374.229	1	11
374.400	1	16
374.571	1	10
374.742	1	8
374.913	1	2
375.084	1	11
375.254	1	16
375.425	1	19
375.596	1	10
375.767	1	17
375.938	1	3
376.109	1	12
376.279	1	9
376.450	1	15
376.621	1	6
376.792	1	14
376.963	1	16
377.134	1	7
377.304	1	4
377.475	1	16
377.646	1	18
377.817	1	13
377.988	1	9
378.159	1	19
378.329	1	17
378.500	1	5
378.671	1	16
378.842	1	21
379.013	1	19
379.184	1	19
379.354	1	8
379.525	1	17
379.696	1	8
379.867	1	15
380.038	1	21
380.209	1	15
380.379	1	21
380.550	1	2
380.721	1	26
380.892	1	12
381.063	1	18
381.233	1	17
381.404	1	20
381.575	1	13
381.746	1	3
381.917	1	20
382.087	1	21
382.258	1	14
382.429	1	12
382.600	1	15
382.771	1	21
382.941	1	20
383.112	1	13
383.283	1	4
383.454	1	13
383.625	1	10
383.795	1	13
383.966	1	32
384.137	1	11
384.308	1	27
384.479	1	22
384.649	1	21
384.820	1	9
384.991	1	30
385.162	1	13
385.333	1	14
385.503	1	8
385.674	1	24
385.845	1	16
386.016	1	31
386.187	1	20
386.357	1	13
386.528	1	25
386.699	1	16
386.870	1	11
387.041	1	18
387.211	1	16
387.382	1	19
387.553	1	18
387.724	1	9
387.894	1	2
388.065	1	19
388.236	1	21
388.407	1	27
388.578	1	16
388.748	1	23
388.919	1	6
389.090	1	20
389.261	1	9
389.431	1	18
389.602	1	19
389.773	1	23
389.944	1	21
390.114	1	13
390.285	1	33
390.456	1	20
390.627	1	28
390.798	1	33
390.968	1	17
391.139	1	15
391.310	1	20
391.481	1	16
391.651	1	25
391.822	1	25
391.993	1	9
392.164	1	26
392.334	1	12
392.505	1	17
392.676	1	12
392.847	1	22
393.017	1	25
393.188	1	20
393.359	1	28
393.530	1	20
393.700	1	20
393.871	1	10
394.042	1	29
394.213	1	22
394.383	1	12
394.554	1	17
394.725	1	23
394.896	1	30
395.066	1	24
395.237	1	16
395.408	1	27
395.579	1	19
395.749	1	22
395.920	1	27
396.091	1	21
396.262	1	21
396.432	1	12
396.603	1	15
396.774	1	27
396.945	1	17
397.115	1	16
397.286	1	17
397.457	1	26
397.627	1	19
397.798	1	24
397.969	1	11
398.140	1	14
398.310	1	23
398.481	1	25
398.652	1	27
398.823	1	22
398.993	1	27
399.164	1	20
399.335	1	27
399.505	1	27
399.676	1	26
399.847	1	30
400.018	1	39
400.188	1	19
400.359	1	22
400.530	1	33
400.700	1	20
400.871	1	40
401.042	1	21
401.213	1	11
401.383	1	37
401.554	1	24
401.725	1	24
401.895	1	20
402.066	1	24
402.237	1	37
402.408	1	32
402.578	1	30
402.749	1	34
402.920	1	22
403.090	1	19
403.261	1	36
403.432	1	29
403.603	1	20
403.773	1	31
403.944	1	35
404.115	1	28
404.285	1	25
404.456	1	30
404.627	1	29
404.797	1	20
404.968	1	24
405.139	1	20
405.310	1	23
405.480	1	19
405.651	1	19
405.822	1	10
405.992	1	31
406.163	1	22
406.334	1	32
406.504	1	21
406.675	1	36
406.846	1	28
407.016	1	38
407.187	1	38
407.358	1	35
407.528	1	20
407.699	1	28
407.870	1	32
408.041	1	23
408.211	1	34
408.382	1	21
408.553	1	27
408.723	1	36
408.894	1	27
409.065	1	17
409.235	1	17
409.406	1	30
409.577	1	35
409.747	1	28
409.918	1	37
410.089	1	31
410.259	1	31
410.430	1	21
410.601	1	37
410.771	1	34
410.942	1	35
411.113	1	34
411.283	1	33
411.454	1	31
411.625	1	37
411.795	1	34
411.966	1	33
412.137	1	39
412.307	1	25
412.478	1	34
412.649	1	31
412.819	1	32
412.990	1	30
413.161	1	37
413.331	1	34
413.502	1	31
413.672	1	20
413.843	1	33
414.014	1	28
414.184	1	31
414.355	1	33
414.526	1	34
414.696	1	30
414.867	1	35
415.038	1	35
415.208	1	32
415.379	1	28
415.550	1	31
415.720	1	27
415.891	1	42
416.062	1	28
416.232	1	34
416.403	1	29
416.573	1	34
416.744	1	44
416.915	1	33
417.085	1	35
417.256	1	22
417.427	1	43
417.597	1	39
417.768	1	34
417.939	1	28
418.109	1	38
418.280	1	34
418.450	1	30
418.621	1	28
418.792	1	29
418.962	1	32
419.133	1	33
419.304	1	43
419.474	1	36
419.645	1	36
419.815	1	44
419.986	1	29
420.157	1	19
420.327	1	17
420.498	1	16
420.669	1	30
420.839	1	28
421.010	1	21
421.180	1	33
421.351	1	29
421.522	1	23
421.692	1	37
421.863	1	34
422.033	1	39
422.204	1	25
422.375	1	57
422.545	1	44
422.716	1	26
422.886	1	29
423.057	1	33
423.228	1	39
423.398	1	53
423.569	1	26
423.740	1	37
423.910	1	38
424.081	1	37
424.251	1	32
424.422	1	26
424.593	1	30
424.763	1	38
424.934	1	41
425.104	1	44
425.275	1	44
425.445	1	24
425.616	1	30
425.787	1	45
425.957	1	35
426.128	1	52
426.298	1	16
426.469	1	50
426.640	1	27
426.810	1	27
426.981	1	34
427.151	1	35
427.322	1	42
427.493	1	29
427.663	1	31
427.834	1	17
428.004	1	34
428.175	1	27
428.345	1	38
428.516	1	35
428.687	1	35
428.857	1	22
429.028	1	37
429.198	1	22
429.369	1	26
429.540	1	30
429.710	1	34
429.881	1	34
430.051	1	31
430.222	1	39
430.392	1	37
430.563	1	37
430.734	1	37
430.904	1	33
431.075	1	38
431.245	1	18
431.416	1	28
431.586	1	25
431.757	1	28
431.927	1	37
432.098	1	31
432.269	1	42
432.439	1	32
432.610	1	41
432.780	1	24
432.951	1	29
433.121	1	24
433.292	1	28
433.462	1	36
433.633	1	32
433.804	1	35
433.974	1	34
434.145	1	33
434.315	1	31
434.486	1	30
434.656	1	39
434.827	1	31
434.997	1	44
435.168	1	27
435.339	1	30
435.509	1	42
435.680	1	37
435.850	1	27
436.021	1	31
436.191	1	33
436.362	1	38
436.532	1	23
436.703	1	38
436.873	1	36
437.044	1	33
437.214	1	34
437.385	1	32
437.556	1	34
437.726	1	30
437.897	1	27
438.067	1	28
438.238	1	30
438.408	1	30
438.579	1	36
438.749	1	37
438.920	1	40
439.090	1	27
439.261	1	19
439.431	1	33
439.602	1	37
439.772	1	26
439.943	1	38
440.113	1	23
440.284	1	32
440.455	1	29
440.625	1	34
440.796	1	40
440.966	1	37
441.137	1	26
441.307	1	36
441.478	1	23
441.648	1	31
441.819	1	18
441.989	1	25
442.160	1	39
442.330	1	33
442.501	1	27
442.671	1	29
442.842	1	28
443.012	1	29
443.183	1	31
443.353	1	30
443.524	1	31
443.694	1	27
443.865	1	20
444.035	1	32
444.206	1	29
444.376	1	33
444.547	1	21
444.717	1	24
444.888	1	31
445.058	1	32
445.229	1	31
445.399	1	32
445.570	1	28
445.740	1	25
445.911	1	18
446.081	1	30
446.252	1	24
446.422	1	15
446.593	1	29
446.763	1	28
446.934	1	11
447.104	1	25
447.275	1	34
447.445	1	28
447.616	1	27
447.786	1	20
447.957	1	24
448.127	1	16
448.298	1	9
448.468	1	33
448.639	1	32
448.809	1	28
448.979	1	27
449.150	1	25
449.320	1	25
449.491	1	30
449.661	1	27
449.832	1	15
450.002	1	25
450.173	1	24
450.343	1	23
450.514	1	34
450.684	1	30
450.855	1	42
451.025	1	26
451.196	1	31
451.366	1	29
451.537	1	11
451.707	1	46
451.878	1	34
452.048	1	9
452.218	1	21
452.389	1	32
452.559	1	36
452.730	1	14
452.900	1	32
453.071	1	35
453.241	1	27
453.412	1	26
453.582	1	27
453.753	1	21
453.923	1	25
454.093	1	20
454.264	1	27
454.434	1	24
454.605	1	27
454.775	1	20
454.946	1	25
455.116	1	20
455.287	1	28
455.457	1	18
455.628	1	4
455.798	1	16
455.968	1	21
456.139	1	20
456.309	1	23
456.480	1	10
456.650	1	15
456.821	1	21
456.991	1	22
457.161	1	20
457.332	1	13
457.502	1	35
457.673	1	15
457.843	1	17
458.014	1	25
458.184	1	24
458.355	1	31
458.525	1	18
458.695	1	33
458.866	1	6
459.036	1	24
459.207	1	13
459.377	1	19
459.548	1	25
459.718	1	19
459.888	1	12
460.059	1	30
460.229	1	20
460.400	1	30
460.570	1	22
460.740	1	17
460.911	1	33
461.081	1	26
461.252	1	19
461.422	1	19
461.593	1	30
461.763	1	14
461.933	1	25
462.104	1	15
462.274	1	14
462.445	1	18
462.615	1	26
462.785	1	12
462.956	1	25
463.126	1	13
463.297	1	24
463.467	1	31
463.638	1	20
463.808	1	18
463.978	1	24
464.149	1	24
464.319	1	13
464.490	1	23
464.660	1	8
464.830	1	17
465.001	1	30
465.171	1	19
465.342	1	21
465.512	1	23
465.682	1	4
465.853	1	11
466.023	1	19
466.194	1	19
466.364	1	25
466.534	1	12
466.705	1	23
466.875	1	13
467.045	1	11
467.216	1	26
467.386	1	17
467.557	1	20
467.727	1	18
467.897	1	26
468.068	1	17
468.238	1	10
468.409	1	8
468.579	1	15
468.749	1	23
468.920	1	18
469.090	1	19
469.260	1	14
469.431	1	15
469.601	1	26
469.772	1	8
469.942	1	16
470.112	1	7
470.283	1	19
470.453	1	12
470.623	1	9
470.794	1	14
470.964	1	15
471.135	1	4
471.305	1	23
471.475	1	12
471.646	1	20
471.816	1	27
471.986	1	15
472.157	1	14
472.327	1	10
472.497	1	14
472.668	1	11
472.838	1	18
473.009	1	25
473.179	1	10
473.349	1	8
473.520	1	13
473.690	1	20
473.860	1	20
474.031	1	27
474.201	1	11
474.371	1	28
474.542	1	12
474.712	1	15
474.882	1	13
475.053	1	12
475.223	1	21
475.394	1	11
475.564	1	16
475.734	1	30
475.905	1	13
476.075	1	11
476.245	1	21
476.416	1	17
476.586	1	27
476.756	1	13
476.927	1	14
477.097	1	12
477.267	1	25
477.438	1	4
477.608	1	14
477.778	1	10
477.949	1	18
478.119	1	26
478.289	1	20
478.460	1	16
478.630	1	15
478.800	1	20
478.971	1	8
479.141	1	14
479.311	1	8
479.482	1	13
479.652	1	10
479.822	1	6
479.993	1	12
480.163	1	18
480.333	1	16
480.504	1	24
480.674	1	15
480.844	1	18
481.015	1	17
481.185	1	16
481.355	1	18
481.525	1	11
481.696	1	17
481.866	1	16
482.036	1	21
482.207	1	22
482.377	1	10
482.547	1	12
482.718	1	20
482.888	1	14
483.058	1	21
483.229	1	20
483.399	1	11
483.569	1	5
483.740	1	14
483.910	1	11
484.080	1	13
484.250	1	16
484.421	1	3
484.591	1	10
484.761	1	10
484.932	1	4
485.102	1	18
485.272	1	11
485.443	1	23
485.613	1	8
485.783	1	11
485.953	1	8
486.124	1	11
486.294	1	11
486.464	1	10
486.635	1	8
486.805	1	8
486.975	1	15
487.146	1	15
487.316	1	13
487.486	1	18
487.656	1	24
487.827	1	20
487.997	1	10
488.167	1	14
488.338	1	11
488.508	1	25
488.678	1	18
488.848	1	15
489.019	1	13
489.189	1	15
489.359	1	14
489.529	1	15
489.700	1	6
489.870	1	12
490.040	1	20
490.211	1	24
490.381	1	22
490.551	1	8
490.721	1	9
490.892	1	0
491.062	1	19
491.232	1	18
491.402	1	9
491.573	1	18
491.743	1	22
491.913	1	7
492.084	1	5
492.254	1	10
492.424	1	15
492.594	1	5
492.765	1	1
492.935	1	16
493.105	1	10
493.275	1	10
493.446	1	14
493.616	1	11
493.786	1	4
493.956	1	22
494.127	1	16
494.297	1	18
494.467	1	12
494.637	1	16
494.808	1	17
494.978	1	14
495.148	1	6
495.318	1	14
495.489	1	0
495.659	1	5
495.829	1	11
495.999	1	5
496.170	1	8
496.340	1	11
496.510	1	11
496.680	1	9
496.851	1	6
497.021	1	11
497.191	1	10
497.361	1	1
497.532	1	0
497.702	1	11
497.872	1	15
498.042	1	16
498.213	1	16
498.383	1	17
498.553	1	7
498.723	1	6
498.894	1	20
499.064	1	3
499.234	1	19
499.404	1	-2
499.574	1	8
499.745	1	11
499.915	1	16
500.085	1	7
500.255	1	20
500.426	1	6
500.596	1	11
500.766	1	19
500.936	1	11
501.106	1	10
501.277	1	-2
501.447	1	6
501.617	1	24
501.787	1	9
501.958	1	0
502.128	1	18
502.298	1	10
502.468	1	22
502.638	1	-2
502.809	1	7
502.979	1	10
503.149	1	15
503.319	1	8
503.489	1	15
503.660	1	11
503.830	1	10
504.000	1	9
504.170	1	3
504.340	1	10
504.511	1	7
504.681	1	13
504.851	1	19
505.021	1	8
505.192	1	20
505.362	1	14
505.532	1	4
505.702	1	9
505.872	1	15
506.043	1	0
506.213	1	2
506.383	1	3
506.553	1	12
506.723	1	7
506.893	1	15
507.064	1	4
507.234	1	14
507.404	1	9
507.574	1	6
507.744	1	12
507.915	1	8
508.085	1	14
508.255	1	1
508.425	1	11
508.595	1	17
508.766	1	6
508.936	1	12
509.106	1	3
509.276	1	18
509.446	1	0
509.616	1	9
509.787	1	8
509.957	1	11
510.127	1	4
510.297	1	12
510.467	1	9
510.638	1	8
510.808	1	6
510.978	1	11
511.148	1	9
511.318	1	1
511.488	1	11
511.659	1	4
511.829	1	9
511.999	1	20
512.169	1	19
512.339	1	11
512.509	1	5
512.680	1	2
512.850	1	5
513.020	1	3
513.190	1	6
513.360	1	9
513.530	1	7
513.700	1	12
513.871	1	8
514.041	1	14
514.211	1	14
514.381	1	7
514.551	1	3
514.721	1	9
514.892	1	4
515.062	1	8
515.232	1	0
515.402	1	17
515.572	1	6
515.742	1	-3
515.912	1	14
516.083	1	9
516.253	1	4
516.423	1	4
516.593	1	4
516.763	1	3
516.933	1	-1
517.104	1	-7
517.274	1	15
517.444	1	2
517.614	1	3
517.784	1	12
517.954	1	18
518.124	1	24
518.294	1	6
518.465	1	-4
518.635	1	11
518.805	1	5
518.975	1	7
519.145	1	3
519.315	1	1
519.485	1	21
519.656	1	11
519.826	1	9
519.996	1	5
520.166	1	1
520.336	1	0
520.506	1	-2
520.676	1	7
520.846	1	12
521.017	1	14
521.187	1	15
521.357	1	4
521.527	1	7
521.697	1	10
521.867	1	7
522.037	1	14
522.207	1	10
522.377	1	0
522.548	1	12
522.718	1	6
522.888	1	15
523.058	1	12
523.228	1	2
523.398	1	12
523.568	1	-1
523.738	1	-2
523.909	1	15
524.079	1	13
524.249	1	12
524.419	1	6
524.589	1	0
524.759	1	0
524.929	1	3
525.099	1	4
525.269	1	-2
525.439	1	-8
525.610	1	-8
525.780	1	5
525.950	1	15
526.120	1	10
526.290	1	14
526.460	1	11
526.630	1	5
526.800	1	-6
526.970	1	8
527.140	1	6
527.311	1	8
527.481	1	10
527.651	1	11
527.821	1	0
527.991	1	2
528.161	1	8
528.331	1	-4
528.501	1	6
528.671	1	-1
528.841	1	1
529.011	1	0
529.181	1	-1
529.352	1	5
529.522	1	3
529.692	1	10
529.862	1	1
530.032	1	12
530.202	1	5
530.372	1	8
530.542	1	4
530.712	1	-3
530.882	1	-1
531.052	1	6
531.222	1	7
531.392	1	2
531.563	1	7
531.733	1	5
531.903	1	7
532.073	1	8
532.243	1	11
532.413	1	3
532.583	1	9
532.753	1	4
532.923	1	15
533.093	1	3
533.263	1	6
533.433	1	3
533.603	1	23
533.773	1	8
533.943	1	11
534.113	1	4
534.284	1	2
534.454	1	8
534.624	1	9
534.794	1	5
534.964	1	7
535.134	1	8
535.304	1	7
535.474	1	6
535.644	1	7
535.814	1	2
535.984	1	14
536.154	1	10
536.324	1	0
536.494	1	-1
536.664	1	15
536.834	1	10
537.004	1	4
537.174	1	3
537.344	1	16
537.514	1	5
537.685	1	5
537.855	1	0
538.025	1	-1
538.195	1	1
538.365	1	1
538.535	1	5
538.705	1	6
538.875	1	1
539.045	1	3
539.215	1	19
539.385	1	11
539.555	1	-1
539.725	1	4
539.895	1	14
540.065	1	2
540.235	1	0
540.405	1	-9
540.575	1	11
540.745	1	4
540.915	1	13
541.085	1	-9
541.255	1	9
541.425	1	4
541.595	1	-2
541.765	1	-6
541.935	1	14
542.105	1	3
542.275	1	6
542.445	1	1
542.615	1	8
542.785	1	7
542.955	1	7
543.125	1	8
543.295	1	7
543.465	1	4
543.635	1	9
543.805	1	1
543.975	1	15
544.145	1	-3
544.315	1	8
544.485	1	-6
544.655	1	3
544.825	1	17
544.995	1	2
545.165	1	6
545.335	1	-9
545.505	1	5
545.675	1	11
545.845	1	17
546.015	1	-2
546.185	1	7
546.355	1	7
546.525	1	0
546.695	1	6
546.865	1	7
547.035	1	5
547.205	1	7
547.375	1	9
547.545	1	8
547.715	1	-4
547.885	1	-6
548.055	1	17
548.225	1	10
548.395	1	2
548.565	1	13
548.735	1	-2
548.905	1	13
549.075	1	6
549.245	1	6
549.415	1	5
549.585	1	4
549.755	1	1
549.925	1	12
550.095	1	-1
550.265	1	8
550.435	1	6
550.605	1	13
550.775	1	10
550.945	1	6
551.115	1	9
551.285	1	-1
551.455	1	8
551.625	1	14
551.795	1	17
551.965	1	7
552.135	1	-4
552.305	1	12
552.475	1	-3
552.645	1	4
552.815	1	15
552.985	1	-6
553.155	1	3
553.325	1	-6
553.495	1	3
553.665	1	4
553.835	1	10
554.004	1	12
554.174	1	-2
554.344	1	10
554.514	1	7
554.684	1	0
554.854	1	2
555.024	1	0
555.194	1	10
555.364	1	5
555.534	1	13
555.704	1	4
555.874	1	6
556.044	1	6
556.214	1	5
556.384	1	8
556.554	1	-4
556.724	1	-1
556.894	1	3
557.064	1	17
557.234	1	4
557.404	1	-10
557.573	1	11
557.743	1	-1
557.913	1	16
558.083	1	6
558.253	1	4
558.423	1	7
558.593	1	11
558.763	1	9
558.933	1	11
559.103	1	5
559.273	1	8
559.443	1	7
559.613	1	-10
559.783	1	-4
559.953	1	-9
560.122	1	2
560.292	1	0
560.462	1	-3
560.632	1	6
560.802	1	5
560.972	1	3
561.142	1	-12
561.312	1	8
561.482	1	9
561.652	1	-1
561.822	1	12
561.992	1	2
562.162	1	10
562.331	1	-1
562.501	1	0
562.671	1	8
562.841	1	7
563.011	1	3
563.181	1	8
563.351	1	2
563.521	1	14
563.691	1	5
563.861	1	5
564.031	1	1
564.201	1	7
564.370	1	6
564.540	1	-2
564.710	1	-1
564.880	1	8
565.050	1	11
565.220	1	5
565.390	1	5
565.560	1	13
565.730	1	-9
565.900	1	9
566.069	1	13
566.239	1	12
566.409	1	1
566.579	1	9
566.749	1	14
566.919	1	-2
567.089	1	10
567.259	1	15
567.429	1	-4
567.599	1	1
567.768	1	-6
567.938	1	6
568.108	1	3
568.278	1	4
568.448	1	3
568.618	1	17
568.788	1	11
568.958	1	-5
569.128	1	-9
569.297	1	5
569.467	1	-6
569.637	1	12
569.807	1	15
569.977	1	20
570.147	1	8
570.317	1	0
570.487	1	3
570.656	1	3
570.826	1	0
570.996	1	-3
571.166	1	11
571.336	1	16
571.506	1	1
571.676	1	3
571.846	1	5
572.015	1	9
572.185	1	5
572.355	1	12
572.525	1	-2
572.695	1	5
572.865	1	8
573.035	1	7
573.205	1	1
573.374	1	7
573.544	1	0
573.714	1	14
573.884	1	0
574.054	1	11
574.224	1	9
574.394	1	2
574.563	1	6
574.733	1	-2
574.903	1	6
575.073	1	2
575.243	1	3
575.413	1	5
575.583	1	17
575.752	1	-3
575.922	1	5
576.092	1	6
576.262	1	-2
576.432	1	9
576.602	1	3
576.772	1	7
576.941	1	5
577.111	1	12
577.281	1	1
577.451	1	6
577.621	1	-1
577.791	1	3
577.960	1	9
578.130	1	7
578.300	1	-4
578.470	1	0
578.640	1	10
578.810	1	-6
578.979	1	7
579.149	1	2
579.319	1	0
579.489	1	8
579.659	1	15
579.829	1	6
579.998	1	-3
580.168	1	3
580.338	1	8
580.508	1	16
580.678	1	1
580.848	1	3
581.017	1	3
581.187	1	1
581.357	1	5
581.527	1	1
581.697	1	1
581.867	1	10
582.036	1	0
582.206	1	4
582.376	1	-1
582.546	1	6
582.716	1	-4
582.885	1	5
583.055	1	3
583.225	1	16
583.395	1	-7
583.565	1	1
583.735	1	7
583.904	1	10
584.074	1	14
584.244	1	13
584.414	1	2
584.584	1	7
584.753	1	15
584.923	1	13
585.093	1	-1
585.263	1	10
585.433	1	2
585.602	1	0
585.772	1	-1
585.942	1	-2
586.112	1	4
586.282	1	3
586.451	1	7
586.621	1	10
586.791	1	9
586.961	1	-12
587.131	1	11
587.300	1	1
587.470	1	13
587.640	1	3
587.810	1	12
587.980	1	2
588.149	1	2
588.319	1	6
588.489	1	-1
588.659	1	14
588.829	1	5
588.998	1	5
589.168	1	8
589.338	1	8
589.508	1	5
589.677	1	2
589.847	1	18
590.017	1	-1
590.187	1	3
590.357	1	-4
590.526	1	3
590.696	1	12
590.866	1	15
591.036	1	3
591.205	1	7
591.375	1	5
591.545	1	14
591.715	1	-8
591.885	1	11
592.054	1	5
592.224	1	12
592.394	1	0
592.564	1	5
592.733	1	15
592.903	1	10
593.073	1	-5
593.243	1	13
593.412	1	10
593.582	1	-2
593.752	1	-4
593.922	1	1
594.091	1	7
594.261	1	10
594.431	1	11
594.601	1	1
594.771	1	5
594.940	1	-5
595.110	1	7
595.280	1	5
595.450	1	10
595.619	1	7
595.789	1	-5
595.959	1	7
596.129	1	10
596.298	1	17
596.468	1	0
596.638	1	-4
596.808	1	-2
596.977	1	1
597.147	1	1
597.317	1	4
597.487	1	5
597.656	1	6
597.826	1	-5
597.996	1	11
598.166	1	2
598.335	1	2
598.505	1	8
598.675	1	-2
598.844	1	-3
599.014	1	-2
599.184	1	6
599.354	1	8
599.523	1	10
599.693	1	2
599.863	1	1
600.033	1	-6
600.202	1	8
600.372	1	-2
600.542	1	5
600.712	1	3
600.881	1	4
601.051	1	4
601.221	1	21
601.390	1	4
601.560	1	-2
601.730	1	9
601.900	1	10
602.069	1	9
602.239	1	20
602.409	1	9
602.578	1	5
602.748	1	6
602.918	1	7
603.088	1	5
603.257	1	14
603.427	1	0
603.597	1	7
603.767	1	10
603.936	1	-8
604.106	1	3
604.276	1	6
604.445	1	-6
604.615	1	6
604.785	1	9
604.954	1	-9
605.124	1	9
605.294	1	11
605.464	1	6
605.633	1	4
605.803	1	11
605.973	1	11
606.142	1	3
606.312	1	16
606.482	1	-1
606.652	1	7
606.821	1	4
606.991	1	11
607.161	1	11
607.330	1	5
607.500	1	4
607.670	1	3
607.839	1	3
608.009	1	11
608.179	1	5
608.348	1	10
608.518	1	8
608.688	1	12
608.858	1	6
609.027	1	14
609.197	1	5
609.367	1	0
609.536	1	-2
609.706	1	6
609.876	1	14
610.045	1	1
610.215	1	15
610.385	1	3
610.554	1	16
610.724	1	4
610.894	1	16
611.063	1	1
611.233	1	7
611.403	1	8
611.572	1	-2
611.742	1	4
611.912	1	4
612.081	1	13
612.251	1	5
612.421	1	4
612.590	1	15
612.760	1	6
612.930	1	0
613.099	1	12
613.269	1	8
613.439	1	5
613.608	1	-8
613.778	1	2
613.948	1	9
614.117	1	1
614.287	1	3
614.457	1	10
614.626	1	9
614.796	1	11
614.966	1	14
615.135	1	10
615.305	1	9
615.475	1	8
615.644	1	-3
615.814	1	3
615.984	1	16
616.153	1	14
616.323	1	15
616.493	1	3
616.662	1	2
616.832	1	6
617.002	1	-3
617.171	1	3
617.341	1	15
617.511	1	-10
617.680	1	21
617.850	1	8
618.019	1	18
618.189	1	0
618.359	1	13
618.528	1	3
618.698	1	-3
618.868	1	7
619.037	1	11
619.207	1	14
619.377	1	0
619.546	1	4
619.716	1	10
619.885	1	5
620.055	1	0
620.225	1	13
620.394	1	8
620.564	1	8
620.734	1	5
620.903	1	9
621.073	1	0
621.242	1	20
621.412	1	2
621.582	1	18
621.751	1	7
621.921	1	3
622.091	1	6
622.260	1	3
622.430	1	3
622.599	1	9
622.769	1	4
622.939	1	10
623.108	1	7
623.278	1	8
623.448	1	6
623.617	1	-4
623.787	1	4
623.956	1	10
624.126	1	2
624.296	1	5
624.465	1	-2
624.635	1	17
624.804	1	10
624.974	1	4
625.144	1	-2
625.313	1	21
625.483	1	13
625.652	1	7
625.822	1	19
625.992	1	5
626.161	1	8
626.331	1	20
626.501	1	22
626.670	1	-14
626.840	1	5
627.009	1	7
627.179	1	7
627.348	1	12
627.518	1	8
627.688	1	9
627.857	1	13
628.027	1	1
628.196	1	3
628.366	1	4
628.536	1	15
628.705	1	9
628.875	1	15
629.044	1	5
629.214	1	8
629.384	1	4
629.553	1	3
629.723	1	2
629.892	1	8
630.062	1	13
630.232	1	-6
630.401	1	11
630.571	1	16
630.740	1	7
630.910	1	10
631.079	1	12
631.249	1	11
631.419	1	-3
631.588	1	10
631.758	1	7
631.927	1	7
632.097	1	0
632.266	1	4
632.436	1	7
632.606	1	14
632.775	1	18
632.945	1	1
633.114	1	-2
633.284	1	3
633.453	1	8
633.623	1	5
633.793	1	12
633.962	1	10
634.132	1	5
634.301	1	2
634.471	1	5
634.640	1	8
634.810	1	12
634.979	1	12
635.149	1	11
635.319	1	-2
635.488	1	1
635.658	1	19
635.827	1	9
635.997	1	3
636.166	1	3
636.336	1	10
636.505	1	12
636.675	1	-3
636.845	1	5
637.014	1	18
637.184	1	10
637.353	1	9
637.523	1	11
637.692	1	8
637.862	1	5
638.031	1	10
638.201	1	8
638.370	1	13
638.540	1	15
638.710	1	6
638.879	1	9
639.049	1	23
639.218	1	8
639.388	1	-1
639.557	1	20
639.727	1	5
639.896	1	16
640.066	1	12
640.235	1	9
640.405	1	5
640.574	1	20
640.744	1	16
640.914	1	14
641.083	1	12
641.253	1	5
641.422	1	-3
641.592	1	6
641.761	1	5
641.931	1	19
642.100	1	11
642.270	1	2
642.439	1	13
642.609	1	13
642.778	1	4
642.948	1	19
643.117	1	3
643.287	1	14
643.456	1	0
643.626	1	9
643.795	1	7
643.965	1	3
644.134	1	14
644.304	1	12
644.473	1	8
644.643	1	11
644.812	1	-5
644.982	1	4
645.151	1	6
645.321	1	4
645.490	1	9
645.660	1	2
645.829	1	6
645.999	1	17
646.168	1	10
646.338	1	2
646.507	1	3
646.677	1	0
646.846	1	10
647.016	1	4
647.185	1	5
647.355	1	15
647.524	1	14
647.694	1	8
647.863	1	18
648.033	1	2
648.202	1	4
648.372	1	3
648.541	1	4
648.711	1	12
648.880	1	13
649.050	1	4
649.219	1	4
649.389	1	-1
649.558	1	10
649.728	1	14
649.897	1	7
650.067	1	3
650.236	1	1
650.406	1	11
650.575	1	17
650.745	1	1
650.914	1	17
651.084	1	11
651.253	1	6
651.423	1	14
651.592	1	8
651.762	1	6
651.931	1	6
652.101	1	8
652.270	1	5
652.440	1	-3
652.609	1	9
652.778	1	2
652.948	1	11
653.117	1	17
653.287	1	11
653.456	1	12
653.626	1	14
653.795	1	-2
653.965	1	-1
654.134	1	6
654.304	1	7
654.473	1	6
654.643	1	7
654.812	1	6
654.982	1	12
655.151	1	7
655.320	1	11
655.490	1	2
655.659	1	12
655.829	1	8
655.998	1	5
656.168	1	10
656.337	1	9
656.507	1	7
656.676	1	7
656.846	1	9
657.015	1	9
657.184	1	4
657.354	1	9
657.523	1	6
657.693	1	12
657.862	1	11
658.032	1	8
658.201	1	10
658.371	1	5
658.540	1	12
658.709	1	3
658.879	1	10
659.048	1	13
659.218	1	9
659.387	1	11
659.557	1	2
659.726	1	4
659.895	1	0
660.065	1	9
660.234	1	3
660.404	1	8
660.573	1	7
660.743	1	0
660.912	1	8
661.081	1	6
661.251	1	13
661.420	1	2
661.590	1	11
661.759	1	8
661.929	1	4
662.098	1	3
662.267	1	15
662.437	1	10
662.606	1	9
662.776	1	0
662.945	1	8
663.115	1	-7
663.284	1	11
663.453	1	-2
663.623	1	4
663.792	1	0
663.962	1	9
664.131	1	7
664.300	1	5
664.470	1	0
664.639	1	12
664.809	1	3
664.978	1	-1
665.148	1	7
665.317	1	13
665.486	1	7
665.656	1	17
665.825	1	14
665.995	1	5
666.164	1	7
666.333	1	1
666.503	1	4
666.672	1	8
666.842	1	3
667.011	1	10
667.180	1	0
667.350	1	4
667.519	1	-1
667.689	1	14
667.858	1	11
668.027	1	3
668.197	1	9
668.366	1	9
668.536	1	8
668.705	1	15
668.874	1	1
669.044	1	7
669.213	1	12
669.382	1	15
669.552	1	5
669.721	1	5
669.891	1	13
670.060	1	17
670.229	1	9
670.399	1	6
670.568	1	-6
670.738	1	8
670.907	1	7
671.076	1	17
671.246	1	-7
671.415	1	10
671.584	1	6
671.754	1	9
671.923	1	3
672.093	1	7
672.262	1	1
672.431	1	5
672.601	1	1
672.770	1	6
672.939	1	3
673.109	1	7
673.278	1	2
673.448	1	5
673.617	1	-1
673.786	1	-2
