325.333	1	17
325.504	1	11
325.675	1	12
325.846	1	-5
326.017	1	7
326.188	1	9
326.359	1	-1
326.531	1	15
326.702	1	14
326.873	1	4
327.044	1	5
327.215	1	6
327.386	1	8
327.557	1	11
327.728	1	15
327.899	1	10
328.070	1	16
328.241	1	10
328.412	1	4
328.583	1	19
328.754	1	13
328.926	1	12
329.097	1	13
329.268	1	16
329.439	1	4
329.610	1	16
329.781	1	10
329.952	1	3
330.123	1	4
330.294	1	22
330.465	1	15
330.636	1	22
330.807	1	11
330.978	1	10
331.149	1	2
331.320	1	19
331.492	1	13
331.663	1	9
331.834	1	4
332.005	1	6
332.176	1	13
332.347	1	17
332.518	1	13
332.689	1	16
332.860	1	11
333.031	1	0
333.202	1	9
333.373	1	5
333.544	1	9
333.715	1	4
333.886	1	10
334.057	1	25
334.228	1	20
334.399	1	13
334.570	1	6
334.741	1	14
334.912	1	12
335.084	1	7
335.255	1	14
335.426	1	11
335.597	1	10
335.768	1	13
335.939	1	28
336.110	1	19
336.281	1	19
336.452	1	21
336.623	1	9
336.794	1	11
336.965	1	13
337.136	1	15
337.307	1	10
337.478	1	12
337.649	1	13
337.820	1	8
337.991	1	19
338.162	1	22
338.333	1	18
338.504	1	14
338.675	1	18
338.846	1	19
339.017	1	9
339.188	1	15
339.359	1	13
339.530	1	21
339.701	1	20
339.872	1	14
340.043	1	15
340.214	1	9
340.385	1	4
340.556	1	15
340.727	1	15
340.898	1	17
341.069	1	6
341.240	1	12
341.411	1	21
341.582	1	14
341.753	1	25
341.924	1	14
342.095	1	7
342.266	1	19
342.437	1	23
342.608	1	15
342.779	1	14
342.950	1	7
343.121	1	17
343.292	1	18
343.463	1	11
343.634	1	6
343.805	1	14
343.976	1	11
344.147	1	5
344.318	1	12
344.489	1	15
344.660	1	24
344.831	1	6
345.002	1	19
345.173	1	12
345.344	1	10
345.515	1	12
345.686	1	10
345.857	1	21
346.028	1	16
346.199	1	23
346.370	1	22
346.541	1	21
346.712	1	4
346.883	1	15
347.054	1	0
347.225	1	14
347.396	1	12
347.567	1	24
347.738	1	17
347.909	1	14
348.080	1	14
348.251	1	23
348.422	1	9
348.593	1	12
348.764	1	24
348.935	1	14
349.106	1	7
349.277	1	21
349.448	1	32
349.619	1	20
349.790	1	28
349.961	1	23
350.132	1	6
350.303	1	13
350.474	1	5
350.645	1	15
350.816	1	18
350.987	1	7
351.157	1	16
351.328	1	15
351.499	1	22
351.670	1	15
351.841	1	19
352.012	1	28
352.183	1	11
352.354	1	22
352.525	1	23
352.696	1	18
352.867	1	10
353.038	1	23
353.209	1	25
353.380	1	19
353.551	1	-3
353.722	1	10
353.893	1	15
354.064	1	24
354.235	1	19
354.406	1	10
354.576	1	16
354.747	1	6
354.918	1	26
355.089	1	9
355.260	1	7
355.431	1	10
355.602	1	20
355.773	1	9
355.944	1	9
356.115	1	11
356.286	1	16
356.457	1	23
356.628	1	8
356.799	1	7
356.970	1	9
357.141	1	25
357.311	1	20
357.482	1	17
357.653	1	11
357.824	1	3
357.995	1	14
358.166	1	14
358.337	1	17
358.508	1	14
358.679	1	5
358.850	1	17
359.021	1	12
359.192	1	14
359.363	1	15
359.533	1	6
359.704	1	14
359.875	1	9
360.046	1	14
360.217	1	22
360.388	1	13
360.559	1	19
360.730	1	13
360.901	1	23
361.072	1	20
361.243	1	22
361.414	1	19
361.584	1	12
361.755	1	27
361.926	1	14
362.097	1	9
362.268	1	27
362.439	1	7
362.610	1	21
362.781	1	28
362.952	1	9
363.123	1	13
363.293	1	29
363.464	1	14
363.635	1	16
363.806	1	25
363.977	1	19
364.148	1	13
364.319	1	7
364.490	1	17
364.661	1	8
364.832	1	18
365.002	1	12
365.173	1	16
365.344	1	4
365.515	1	11
365.686	1	13
365.857	1	5
366.028	1	19
366.199	1	12
366.370	1	0
366.540	1	7
366.711	1	20
366.882	1	23
367.053	1	23
367.224	1	6
367.395	1	15
367.566	1	16
367.737	1	16
367.908	1	16
368.078	1	21
368.249	1	17
368.420	1	24
368.591	1	15
368.762	1	17
368.933	1	28
369.104	1	13
369.274	1	14
369.445	1	13
369.616	1	22
369.787	1	22
369.958	1	19
370.129	1	21
370.300	1	13
370.471	1	18
370.641	1	22
370.812	1	10
370.983	1	15
371.154	1	23
371.325	1	18
371.496	1	15
371.667	1	11
371.837	1	18
372.008	1	19
372.179	1	13
372.350	1	6
372.521	1	8
372.692	1	17
372.863	1	24
373.033	1	14
373.204	1	20
373.375	1	1
373.546	1	15
373.717	1	21
373.888	1	15
374.059	1	16
374.229	1	12
374.400	1	16
374.571	1	19
374.742	1	18
374.913	1	10
375.084	1	22
375.254	1	24
375.425	1	25
375.596	1	24
375.767	1	25
375.938	1	22
376.109	1	14
376.279	1	10
376.450	1	17
376.621	1	12
376.792	1	17
376.963	1	17
377.134	1	17
377.304	1	4
377.475	1	16
377.646	1	13
377.817	1	27
377.988	1	10
378.159	1	22
378.329	1	15
378.500	1	8
378.671	1	17
378.842	1	26
379.013	1	30
379.184	1	26
379.354	1	16
379.525	1	25
379.696	1	24
379.867	1	20
380.038	1	20
380.209	1	25
380.379	1	21
380.550	1	10
380.721	1	38
380.892	1	17
381.063	1	22
381.233	1	21
381.404	1	29
381.575	1	20
381.746	1	12
381.917	1	21
382.087	1	27
382.258	1	33
382.429	1	27
382.600	1	15
382.771	1	35
382.941	1	20
383.112	1	14
383.283	1	22
383.454	1	19
383.625	1	19
383.795	1	29
383.966	1	21
384.137	1	19
384.308	1	28
384.479	1	32
384.649	1	25
384.820	1	15
384.991	1	31
385.162	1	13
385.333	1	14
385.503	1	10
385.674	1	28
385.845	1	18
386.016	1	26
386.187	1	16
386.357	1	20
386.528	1	22
386.699	1	14
386.870	1	20
387.041	1	19
387.211	1	28
387.382	1	22
387.553	1	20
387.724	1	25
387.894	1	23
388.065	1	34
388.236	1	28
388.407	1	41
388.578	1	34
388.748	1	25
388.919	1	14
389.090	1	30
389.261	1	17
389.431	1	36
389.602	1	32
389.773	1	26
389.944	1	34
390.114	1	21
390.285	1	24
390.456	1	30
390.627	1	30
390.798	1	22
390.968	1	46
391.139	1	22
391.310	1	12
391.481	1	20
391.651	1	30
391.822	1	23
391.993	1	13
392.164	1	16
392.334	1	12
392.505	1	21
392.676	1	23
392.847	1	33
393.017	1	12
393.188	1	35
393.359	1	33
393.530	1	35
393.700	1	40
393.871	1	35
394.042	1	26
394.213	1	22
394.383	1	29
394.554	1	34
394.725	1	34
394.896	1	19
395.066	1	31
395.237	1	26
395.408	1	16
395.579	1	22
395.749	1	27
395.920	1	17
396.091	1	28
396.262	1	26
396.432	1	31
396.603	1	37
396.774	1	32
396.945	1	29
397.115	1	22
397.286	1	20
397.457	1	40
397.627	1	25
397.798	1	42
397.969	1	31
398.140	1	28
398.310	1	40
398.481	1	28
398.652	1	30
398.823	1	31
398.993	1	34
399.164	1	25
399.335	1	33
399.505	1	29
399.676	1	33
399.847	1	32
400.018	1	36
400.188	1	24
400.359	1	21
400.530	1	52
400.700	1	36
400.871	1	35
401.042	1	29
401.213	1	33
401.383	1	28
401.554	1	35
401.725	1	28
401.895	1	24
402.066	1	34
402.237	1	41
402.408	1	40
402.578	1	40
402.749	1	36
402.920	1	33
403.090	1	40
403.261	1	37
403.432	1	30
403.603	1	33
403.773	1	41
403.944	1	30
404.115	1	31
404.285	1	25
404.456	1	42
404.627	1	36
404.797	1	30
404.968	1	46
405.139	1	42
405.310	1	28
405.480	1	28
405.651	1	36
405.822	1	21
405.992	1	50
406.163	1	29
406.334	1	36
406.504	1	35
406.675	1	30
406.846	1	31
407.016	1	45
407.187	1	45
407.358	1	28
407.528	1	25
407.699	1	32
407.870	1	34
408.041	1	44
408.211	1	39
408.382	1	33
408.553	1	37
408.723	1	37
408.894	1	26
409.065	1	46
409.235	1	35
409.406	1	40
409.577	1	45
409.747	1	35
409.918	1	43
410.089	1	36
410.259	1	35
410.430	1	36
410.601	1	38
410.771	1	40
410.942	1	39
411.113	1	47
411.283	1	35
411.454	1	45
411.625	1	39
411.795	1	42
411.966	1	48
412.137	1	49
412.307	1	22
412.478	1	38
412.649	1	35
412.819	1	42
412.990	1	52
413.161	1	45
413.331	1	49
413.502	1	40
413.672	1	33
413.843	1	43
414.014	1	31
414.184	1	48
414.355	1	36
414.526	1	46
414.696	1	46
414.867	1	52
415.038	1	42
415.208	1	25
415.379	1	30
415.550	1	34
415.720	1	33
415.891	1	41
416.062	1	30
416.232	1	39
416.403	1	32
416.573	1	45
416.744	1	42
416.915	1	41
417.085	1	41
417.256	1	28
417.427	1	42
417.597	1	39
417.768	1	32
417.939	1	34
418.109	1	47
418.280	1	44
418.450	1	41
418.621	1	41
418.792	1	30
418.962	1	35
419.133	1	35
419.304	1	46
419.474	1	38
419.645	1	47
419.815	1	44
419.986	1	48
420.157	1	46
420.327	1	30
420.498	1	31
420.669	1	38
420.839	1	51
421.010	1	38
421.180	1	45
421.351	1	32
421.522	1	36
421.692	1	45
421.863	1	43
422.033	1	39
422.204	1	38
422.375	1	49
422.545	1	44
422.716	1	39
422.886	1	44
423.057	1	45
423.228	1	38
423.398	1	47
423.569	1	38
423.740	1	45
423.910	1	43
424.081	1	38
424.251	1	40
424.422	1	42
424.593	1	34
424.763	1	43
424.934	1	38
425.104	1	55
425.275	1	45
425.445	1	32
425.616	1	41
425.787	1	44
425.957	1	41
426.128	1	47
426.298	1	35
426.469	1	60
426.640	1	36
426.810	1	43
426.981	1	42
427.151	1	35
427.322	1	45
427.493	1	46
427.663	1	46
427.834	1	37
428.004	1	46
428.175	1	35
428.345	1	38
428.516	1	48
428.687	1	34
428.857	1	27
429.028	1	35
429.198	1	34
429.369	1	34
429.540	1	42
429.710	1	40
429.881	1	40
430.051	1	36
430.222	1	48
430.392	1	41
430.563	1	42
430.734	1	40
430.904	1	39
431.075	1	33
431.245	1	35
431.416	1	22
431.586	1	47
431.757	1	41
431.927	1	45
432.098	1	38
432.269	1	54
432.439	1	48
432.610	1	37
432.780	1	23
432.951	1	37
433.121	1	26
433.292	1	37
433.462	1	39
433.633	1	47
433.804	1	41
433.974	1	47
434.145	1	30
434.315	1	38
434.486	1	41
434.656	1	43
434.827	1	37
434.997	1	39
435.168	1	34
435.339	1	35
435.509	1	47
435.680	1	45
435.850	1	30
436.021	1	53
436.191	1	42
436.362	1	35
436.532	1	44
436.703	1	43
436.873	1	30
437.044	1	43
437.214	1	33
437.385	1	43
437.556	1	39
437.726	1	43
437.897	1	32
438.067	1	36
438.238	1	43
438.408	1	54
438.579	1	28
438.749	1	31
438.920	1	39
439.090	1	49
439.261	1	41
439.431	1	39
439.602	1	35
439.772	1	40
439.943	1	32
440.113	1	41
440.284	1	34
440.455	1	35
440.625	1	51
440.796	1	42
440.966	1	43
441.137	1	35
441.307	1	43
441.478	1	34
441.648	1	35
441.819	1	28
441.989	1	42
442.160	1	35
442.330	1	45
442.501	1	27
442.671	1	39
442.842	1	45
443.012	1	38
443.183	1	31
443.353	1	33
443.524	1	29
443.694	1	23
443.865	1	27
444.035	1	40
444.206	1	39
444.376	1	37
444.547	1	28
444.717	1	31
444.888	1	31
445.058	1	39
445.229	1	28
445.399	1	34
445.570	1	32
445.740	1	36
445.911	1	22
446.081	1	23
446.252	1	31
446.422	1	35
446.593	1	35
446.763	1	38
446.934	1	25
447.104	1	35
447.275	1	32
447.445	1	46
447.616	1	40
447.786	1	32
447.957	1	38
448.127	1	26
448.298	1	27
448.468	1	25
448.639	1	45
448.809	1	36
448.979	1	35
449.150	1	32
449.320	1	30
449.491	1	39
449.661	1	45
449.832	1	36
450.002	1	27
450.173	1	25
450.343	1	24
450.514	1	35
450.684	1	44
450.855	1	38
451.025	1	44
451.196	1	39
451.366	1	36
451.537	1	33
451.707	1	45
451.878	1	35
452.048	1	20
452.218	1	31
452.389	1	38
452.559	1	45
452.730	1	32
452.900	1	35
453.071	1	32
453.241	1	27
453.412	1	38
453.582	1	31
453.753	1	29
453.923	1	28
454.093	1	27
454.264	1	44
454.434	1	30
454.605	1	26
454.775	1	25
454.946	1	29
455.116	1	34
455.287	1	37
455.457	1	23
455.628	1	23
455.798	1	25
455.968	1	28
456.139	1	28
456.309	1	39
456.480	1	28
456.650	1	33
456.821	1	27
456.991	1	40
457.161	1	42
457.332	1	33
457.502	1	38
457.673	1	29
457.843	1	20
458.014	1	39
458.184	1	24
458.355	1	28
458.525	1	43
458.695	1	27
458.866	1	21
459.036	1	21
459.207	1	39
459.377	1	34
459.548	1	23
459.718	1	28
459.888	1	26
460.059	1	26
460.229	1	30
460.400	1	50
460.570	1	23
460.740	1	24
460.911	1	38
461.081	1	28
461.252	1	29
461.422	1	38
461.593	1	41
461.763	1	34
461.933	1	29
462.104	1	21
462.274	1	28
462.445	1	28
462.615	1	16
462.785	1	18
462.956	1	24
463.126	1	25
463.297	1	40
463.467	1	32
463.638	1	32
463.808	1	28
463.978	1	27
464.149	1	35
464.319	1	29
464.490	1	30
464.660	1	24
464.830	1	32
465.001	1	38
465.171	1	18
465.342	1	30
465.512	1	33
465.682	1	26
465.853	1	30
466.023	1	38
466.194	1	31
466.364	1	33
466.534	1	19
466.705	1	30
466.875	1	23
467.045	1	38
467.216	1	37
467.386	1	18
467.557	1	33
467.727	1	28
467.897	1	28
468.068	1	17
468.238	1	18
468.409	1	29
468.579	1	24
468.749	1	38
468.920	1	32
469.090	1	15
469.260	1	32
469.431	1	30
469.601	1	23
469.772	1	18
469.942	1	17
470.112	1	23
470.283	1	25
470.453	1	24
470.623	1	31
470.794	1	9
470.964	1	23
471.135	1	22
471.305	1	12
471.475	1	16
471.646	1	23
471.816	1	25
471.986	1	25
472.157	1	25
472.327	1	21
472.497	1	18
472.668	1	22
472.838	1	21
473.009	1	31
473.179	1	37
473.349	1	15
473.520	1	11
473.690	1	23
473.860	1	9
474.031	1	35
474.201	1	19
474.371	1	20
474.542	1	28
474.712	1	21
474.882	1	28
475.053	1	14
475.223	1	26
475.394	1	10
475.564	1	16
475.734	1	29
475.905	1	14
476.075	1	16
476.245	1	15
476.416	1	11
476.586	1	22
476.756	1	15
476.927	1	19
477.097	1	12
477.267	1	27
477.438	1	21
477.608	1	13
477.778	1	23
477.949	1	15
478.119	1	23
478.289	1	24
478.460	1	24
478.630	1	17
478.800	1	33
478.971	1	13
479.141	1	22
479.311	1	27
479.482	1	7
479.652	1	18
479.822	1	31
479.993	1	16
480.163	1	26
480.333	1	22
480.504	1	15
480.674	1	24
480.844	1	16
481.015	1	16
481.185	1	23
481.355	1	15
481.525	1	25
481.696	1	31
481.866	1	21
482.036	1	23
482.207	1	20
482.377	1	9
482.547	1	27
482.718	1	17
482.888	1	17
483.058	1	10
483.229	1	26
483.399	1	9
483.569	1	16
483.740	1	6
483.910	1	16
484.080	1	18
484.250	1	18
484.421	1	22
484.591	1	20
484.761	1	9
484.932	1	-2
485.102	1	26
485.272	1	18
485.443	1	25
485.613	1	27
485.783	1	17
485.953	1	27
486.124	1	18
486.294	1	21
486.464	1	27
486.635	1	10
486.805	1	19
486.975	1	30
487.146	1	14
487.316	1	18
487.486	1	20
487.656	1	24
487.827	1	19
487.997	1	15
488.167	1	13
488.338	1	22
488.508	1	21
488.678	1	19
488.848	1	22
489.019	1	10
489.189	1	11
489.359	1	21
489.529	1	18
489.700	1	20
489.870	1	24
490.040	1	19
490.211	1	34
490.381	1	19
490.551	1	7
490.721	1	12
490.892	1	4
491.062	1	16
491.232	1	23
491.402	1	20
491.573	1	21
491.743	1	21
491.913	1	27
492.084	1	5
492.254	1	14
492.424	1	21
492.594	1	10
492.765	1	4
492.935	1	19
493.105	1	16
493.275	1	17
493.446	1	12
493.616	1	13
493.786	1	13
493.956	1	24
494.127	1	20
494.297	1	11
494.467	1	14
494.637	1	11
494.808	1	24
494.978	1	18
495.148	1	2
495.318	1	11
495.489	1	14
495.659	1	14
495.829	1	9
495.999	1	11
496.170	1	12
496.340	1	20
496.510	1	18
496.680	1	16
496.851	1	18
497.021	1	19
497.191	1	12
497.361	1	19
497.532	1	-1
497.702	1	13
497.872	1	12
498.042	1	16
498.213	1	31
498.383	1	13
498.553	1	10
498.723	1	18
498.894	1	16
499.064	1	2
499.234	1	27
499.404	1	7
499.574	1	10
499.745	1	20
499.915	1	27
500.085	1	15
500.255	1	14
500.426	1	14
500.596	1	18
500.766	1	4
500.936	1	14
501.106	1	11
501.277	1	8
501.447	1	5
501.617	1	16
501.787	1	19
501.958	1	0
502.128	1	14
502.298	1	13
502.468	1	14
502.638	1	4
502.809	1	2
502.979	1	14
503.149	1	7
503.319	1	8
503.489	1	18
503.660	1	5
503.830	1	11
504.000	1	4
504.170	1	5
504.340	1	15
504.511	1	11
504.681	1	15
504.851	1	15
505.021	1	15
505.192	1	18
505.362	1	13
505.532	1	8
505.702	1	19
505.872	1	17
506.043	1	14
506.213	1	7
506.383	1	13
506.553	1	15
506.723	1	12
506.893	1	23
507.064	1	8
507.234	1	18
507.404	1	13
507.574	1	5
507.744	1	10
507.915	1	13
508.085	1	30
508.255	1	3
508.425	1	11
508.595	1	3
508.766	1	13
508.936	1	7
509.106	1	7
509.276	1	14
509.446	1	-1
509.616	1	12
509.787	1	7
509.957	1	19
510.127	1	17
510.297	1	14
510.467	1	7
510.638	1	11
510.808	1	11
510.978	1	8
511.148	1	20
511.318	1	9
511.488	1	17
511.659	1	8
511.829	1	15
511.999	1	18
512.169	1	14
512.339	1	15
512.509	1	11
512.680	1	10
512.850	1	9
513.020	1	9
513.190	1	6
513.360	1	9
513.530	1	8
513.700	1	18
513.871	1	18
514.041	1	14
514.211	1	7
514.381	1	8
514.551	1	8
514.721	1	18
514.892	1	10
515.062	1	5
515.232	1	3
515.402	1	10
515.572	1	15
515.742	1	5
515.912	1	6
516.083	1	14
516.253	1	-2
516.423	1	12
516.593	1	10
516.763	1	7
516.933	1	12
517.104	1	1
517.274	1	20
517.444	1	2
517.614	1	4
517.784	1	11
517.954	1	16
518.124	1	22
518.294	1	8
518.465	1	0
518.635	1	15
518.805	1	3
518.975	1	15
519.145	1	9
519.315	1	16
519.485	1	17
519.656	1	4
519.826	1	16
519.996	1	13
520.166	1	15
520.336	1	5
520.506	1	7
520.676	1	5
520.846	1	8
521.017	1	15
521.187	1	12
521.357	1	7
521.527	1	4
521.697	1	15
521.867	1	4
522.037	1	8
522.207	1	1
522.377	1	6
522.548	1	11
522.718	1	16
522.888	1	7
523.058	1	18
523.228	1	11
523.398	1	13
523.568	1	7
523.738	1	3
523.909	1	21
524.079	1	18
524.249	1	5
524.419	1	11
524.589	1	10
524.759	1	11
524.929	1	11
525.099	1	7
525.269	1	9
525.439	1	5
525.610	1	8
525.780	1	3
525.950	1	15
526.120	1	7
526.290	1	14
526.460	1	11
526.630	1	8
526.800	1	2
526.970	1	7
527.140	1	13
527.311	1	13
527.481	1	10
527.651	1	14
527.821	1	-2
527.991	1	13
528.161	1	8
528.331	1	6
528.501	1	7
528.671	1	7
528.841	1	12
529.011	1	1
529.181	1	11
529.352	1	11
529.522	1	7
529.692	1	10
529.862	1	7
530.032	1	7
530.202	1	9
530.372	1	8
530.542	1	-2
530.712	1	7
530.882	1	-2
531.052	1	11
531.222	1	13
531.392	1	11
531.563	1	3
531.733	1	11
531.903	1	2
532.073	1	-2
532.243	1	10
532.413	1	8
532.583	1	1
532.753	1	8
532.923	1	9
533.093	1	9
533.263	1	10
533.433	1	9
533.603	1	18
533.773	1	19
533.943	1	10
534.113	1	17
534.284	1	4
534.454	1	12
534.624	1	8
534.794	1	7
534.964	1	8
535.134	1	-3
535.304	1	11
535.474	1	17
535.644	1	-6
535.814	1	12
535.984	1	16
536.154	1	6
536.324	1	10
536.494	1	7
536.664	1	9
536.834	1	6
537.004	1	-1
537.174	1	5
537.344	1	11
537.514	1	4
537.685	1	10
537.855	1	14
538.025	1	0
538.195	1	12
538.365	1	6
538.535	1	10
538.705	1	6
538.875	1	4
539.045	1	8
539.215	1	19
539.385	1	12
539.555	1	7
539.725	1	6
539.895	1	8
540.065	1	5
540.235	1	10
540.405	1	5
540.575	1	9
540.745	1	12
540.915	1	5
541.085	1	-1
541.255	1	10
541.425	1	4
541.595	1	-5
541.765	1	4
541.935	1	12
542.105	1	2
542.275	1	7
542.445	1	-3
542.615	1	14
542.785	1	5
542.955	1	10
543.125	1	9
543.295	1	6
543.465	1	10
543.635	1	10
543.805	1	6
543.975	1	-2
544.145	1	3
544.315	1	9
544.485	1	7
544.655	1	4
544.825	1	18
544.995	1	4
545.165	1	9
545.335	1	7
545.505	1	9
545.675	1	11
545.845	1	12
546.015	1	-4
546.185	1	11
546.355	1	6
546.525	1	10
546.695	1	16
546.865	1	10
547.035	1	3
547.205	1	2
547.375	1	16
547.545	1	7
547.715	1	4
547.885	1	6
548.055	1	21
548.225	1	11
548.395	1	11
548.565	1	9
548.735	1	1
548.905	1	18
549.075	1	5
549.245	1	13
549.415	1	6
549.585	1	11
549.755	1	10
549.925	1	8
550.095	1	15
550.265	1	13
550.435	1	12
550.605	1	6
550.775	1	3
550.945	1	10
551.115	1	12
551.285	1	4
551.455	1	18
551.625	1	15
551.795	1	13
551.965	1	8
552.135	1	13
552.305	1	10
552.475	1	5
552.645	1	-1
552.815	1	-2
552.985	1	-3
553.155	1	6
553.325	1	3
553.495	1	10
553.665	1	18
553.835	1	17
554.004	1	8
554.174	1	-4
554.344	1	15
554.514	1	2
554.684	1	3
554.854	1	6
555.024	1	-4
555.194	1	13
555.364	1	5
555.534	1	19
555.704	1	9
555.874	1	8
556.044	1	9
556.214	1	2
556.384	1	-5
556.554	1	-1
556.724	1	9
556.894	1	6
557.064	1	15
557.234	1	15
557.404	1	1
557.573	1	7
557.743	1	-3
557.913	1	11
558.083	1	16
558.253	1	-8
558.423	1	4
558.593	1	15
558.763	1	19
558.933	1	8
559.103	1	0
559.273	1	12
559.443	1	-6
559.613	1	-1
559.783	1	16
559.953	1	-3
560.122	1	2
560.292	1	-4
560.462	1	4
560.632	1	19
560.802	1	5
560.972	1	3
561.142	1	-7
561.312	1	4
561.482	1	9
561.652	1	18
561.822	1	5
561.992	1	10
562.162	1	14
562.331	1	10
562.501	1	2
562.671	1	4
562.841	1	6
563.011	1	-1
563.181	1	4
563.351	1	6
563.521	1	3
563.691	1	7
563.861	1	4
564.031	1	12
564.201	1	12
564.370	1	2
564.540	1	-6
564.710	1	0
564.880	1	9
565.050	1	11
565.220	1	-1
565.390	1	0
565.560	1	13
565.730	1	10
565.900	1	6
566.069	1	11
566.239	1	7
566.409	1	15
566.579	1	2
566.749	1	13
566.919	1	3
567.089	1	6
567.259	1	13
567.429	1	1
567.599	1	9
567.768	1	5
567.938	1	11
568.108	1	-2
568.278	1	-2
568.448	1	4
568.618	1	21
568.788	1	12
568.958	1	9
569.128	1	-2
569.297	1	5
569.467	1	1
569.637	1	17
569.807	1	13
569.977	1	6
570.147	1	9
570.317	1	12
570.487	1	-2
570.656	1	14
570.826	1	6
570.996	1	16
571.166	1	16
571.336	1	9
571.506	1	8
571.676	1	7
571.846	1	0
572.015	1	-4
572.185	1	9
572.355	1	11
572.525	1	3
572.695	1	6
572.865	1	7
573.035	1	18
573.205	1	7
573.374	1	8
573.544	1	5
573.714	1	9
573.884	1	3
574.054	1	6
574.224	1	11
574.394	1	-1
574.563	1	11
574.733	1	-3
574.903	1	9
575.073	1	11
575.243	1	9
575.413	1	14
575.583	1	9
575.752	1	5
575.922	1	8
576.092	1	1
576.262	1	7
576.432	1	6
576.602	1	0
576.772	1	14
576.941	1	-3
577.111	1	10
577.281	1	0
577.451	1	16
577.621	1	4
577.791	1	10
577.960	1	7
578.130	1	6
578.300	1	5
578.470	1	6
578.640	1	6
578.810	1	6
578.979	1	7
579.149	1	5
579.319	1	15
579.489	1	0
579.659	1	14
579.829	1	10
579.998	1	10
580.168	1	3
580.338	1	-8
580.508	1	7
580.678	1	5
580.848	1	-2
581.017	1	0
581.187	1	10
581.357	1	1
581.527	1	7
581.697	1	2
581.867	1	17
582.036	1	7
582.206	1	8
582.376	1	3
582.546	1	-6
582.716	1	4
582.885	1	7
583.055	1	6
583.225	1	24
583.395	1	1
583.565	1	1
583.735	1	12
583.904	1	10
584.074	1	9
584.244	1	9
584.414	1	-4
584.584	1	5
584.753	1	9
584.923	1	9
585.093	1	-4
585.263	1	9
585.433	1	12
585.602	1	9
585.772	1	6
585.942	1	5
586.112	1	16
586.282	1	12
586.451	1	6
586.621	1	8
586.791	1	7
586.961	1	1
587.131	1	12
587.300	1	5
587.470	1	16
587.640	1	10
587.810	1	8
587.980	1	9
588.149	1	8
588.319	1	2
588.489	1	2
588.659	1	18
588.829	1	8
588.998	1	7
589.168	1	7
589.338	1	-2
589.508	1	2
589.677	1	-6
589.847	1	16
590.017	1	9
590.187	1	10
590.357	1	2
590.526	1	5
590.696	1	11
590.866	1	10
591.036	1	14
591.205	1	-1
591.375	1	-9
591.545	1	11
591.715	1	-3
591.885	1	11
592.054	1	3
592.224	1	16
592.394	1	13
592.564	1	9
592.733	1	9
592.903	1	11
593.073	1	4
593.243	1	13
593.412	1	15
593.582	1	5
593.752	1	4
593.922	1	-1
594.091	1	10
594.261	1	11
594.431	1	12
594.601	1	6
594.771	1	-6
594.940	1	-3
595.110	1	-2
595.280	1	10
595.450	1	16
595.619	1	0
595.789	1	5
595.959	1	11
596.129	1	7
596.298	1	19
596.468	1	-3
596.638	1	3
596.808	1	6
596.977	1	16
597.147	1	12
597.317	1	5
597.487	1	-6
597.656	1	-2
597.826	1	4
597.996	1	-1
598.166	1	-3
598.335	1	4
598.505	1	13
598.675	1	2
598.844	1	5
599.014	1	-2
599.184	1	5
599.354	1	3
599.523	1	2
599.693	1	2
599.863	1	13
600.033	1	-4
600.202	1	6
600.372	1	-2
600.542	1	3
600.712	1	13
600.881	1	9
601.051	1	1
601.221	1	15
601.390	1	-1
601.560	1	-2
601.730	1	8
601.900	1	7
602.069	1	7
602.239	1	16
602.409	1	8
602.578	1	0
602.748	1	4
602.918	1	7
603.088	1	9
603.257	1	15
603.427	1	1
603.597	1	10
603.767	1	0
603.936	1	-11
604.106	1	8
604.276	1	4
604.445	1	16
604.615	1	11
604.785	1	13
604.954	1	6
605.124	1	12
605.294	1	1
605.464	1	26
605.633	1	8
605.803	1	10
605.973	1	8
606.142	1	2
606.312	1	11
606.482	1	5
606.652	1	13
606.821	1	10
606.991	1	14
607.161	1	14
607.330	1	4
607.500	1	10
607.670	1	1
607.839	1	7
608.009	1	6
608.179	1	10
608.348	1	21
608.518	1	7
608.688	1	19
608.858	1	8
609.027	1	13
609.197	1	-2
609.367	1	3
609.536	1	8
609.706	1	14
609.876	1	9
610.045	1	15
610.215	1	13
610.385	1	12
610.554	1	12
610.724	1	4
610.894	1	11
611.063	1	5
611.233	1	9
611.403	1	13
611.572	1	0
611.742	1	7
611.912	1	4
612.081	1	11
612.251	1	3
612.421	1	1
612.590	1	-1
612.760	1	16
612.930	1	3
613.099	1	8
613.269	1	2
613.439	1	12
613.608	1	3
613.778	1	3
613.948	1	7
614.117	1	8
614.287	1	10
614.457	1	-5
614.626	1	10
614.796	1	12
614.966	1	11
615.135	1	13
615.305	1	9
615.475	1	15
615.644	1	-3
615.814	1	-6
615.984	1	12
616.153	1	6
616.323	1	12
616.493	1	12
616.662	1	12
616.832	1	7
617.002	1	6
617.171	1	1
617.341	1	9
617.511	1	-7
617.680	1	5
617.850	1	-2
618.019	1	22
618.189	1	0
618.359	1	12
618.528	1	6
618.698	1	0
618.868	1	4
619.037	1	19
619.207	1	6
619.377	1	5
619.546	1	5
619.716	1	8
619.885	1	17
620.055	1	0
620.225	1	16
620.394	1	11
620.564	1	7
620.734	1	11
620.903	1	21
621.073	1	5
621.242	1	11
621.412	1	-3
621.582	1	15
621.751	1	2
621.921	1	2
622.091	1	8
622.260	1	3
622.430	1	3
622.599	1	18
622.769	1	6
622.939	1	10
623.108	1	11
623.278	1	15
623.448	1	6
623.617	1	5
623.787	1	4
623.956	1	11
624.126	1	-3
624.296	1	-2
624.465	1	-3
624.635	1	13
624.804	1	5
624.974	1	14
625.144	1	2
625.313	1	19
625.483	1	8
625.652	1	5
625.822	1	14
625.992	1	11
626.161	1	15
626.331	1	25
626.501	1	26
626.670	1	-1
626.840	1	0
627.009	1	11
627.179	1	12
627.348	1	-1
627.518	1	17
627.688	1	2
627.857	1	23
628.027	1	7
628.196	1	4
628.366	1	5
628.536	1	14
628.705	1	-2
628.875	1	13
629.044	1	6
629.214	1	15
629.384	1	11
629.553	1	8
629.723	1	13
629.892	1	20
630.062	1	14
630.232	1	-4
630.401	1	14
630.571	1	0
630.740	1	7
630.910	1	16
631.079	1	9
631.249	1	21
631.419	1	1
631.588	1	8
631.758	1	14
631.927	1	11
632.097	1	1
632.266	1	12
632.436	1	7
632.606	1	14
632.775	1	11
632.945	1	9
633.114	1	4
633.284	1	8
633.453	1	14
633.623	1	9
633.793	1	15
633.962	1	17
634.132	1	7
634.301	1	4
634.471	1	3
634.640	1	16
634.810	1	15
634.979	1	21
635.149	1	3
635.319	1	16
635.488	1	6
635.658	1	18
635.827	1	7
635.997	1	4
636.166	1	8
636.336	1	18
636.505	1	22
636.675	1	-3
636.845	1	10
637.014	1	22
637.184	1	15
637.353	1	10
637.523	1	15
637.692	1	16
637.862	1	11
638.031	1	20
638.201	1	6
638.370	1	16
638.540	1	11
638.710	1	6
638.879	1	0
639.049	1	18
639.218	1	8
639.388	1	13
639.557	1	18
639.727	1	11
639.896	1	10
640.066	1	13
640.235	1	14
640.405	1	7
640.574	1	15
640.744	1	21
640.914	1	5
641.083	1	8
641.253	1	8
641.422	1	3
641.592	1	5
641.761	1	10
641.931	1	23
642.100	1	7
642.270	1	5
642.439	1	13
642.609	1	22
642.778	1	4
642.948	1	20
643.117	1	4
643.287	1	12
643.456	1	6
643.626	1	5
643.795	1	1
643.965	1	4
644.134	1	5
644.304	1	12
644.473	1	2
644.643	1	13
644.812	1	6
644.982	1	9
645.151	1	6
645.321	1	9
645.490	1	8
645.660	1	-3
645.829	1	9
645.999	1	17
646.168	1	20
646.338	1	6
646.507	1	5
646.677	1	-2
646.846	1	4
647.016	1	6
647.185	1	14
647.355	1	6
647.524	1	6
647.694	1	9
647.863	1	16
648.033	1	7
648.202	1	2
648.372	1	2
648.541	1	3
648.711	1	12
648.880	1	9
649.050	1	12
649.219	1	4
649.389	1	9
649.558	1	9
649.728	1	8
649.897	1	12
650.067	1	0
650.236	1	0
650.406	1	0
650.575	1	20
650.745	1	7
650.914	1	25
651.084	1	12
651.253	1	7
651.423	1	18
651.592	1	11
651.762	1	9
651.931	1	4
652.101	1	8
652.270	1	9
652.440	1	0
652.609	1	11
652.778	1	13
652.948	1	15
653.117	1	20
653.287	1	2
653.456	1	8
653.626	1	15
653.795	1	3
653.965	1	10
654.134	1	4
654.304	1	5
654.473	1	18
654.643	1	9
654.812	1	7
654.982	1	8
655.151	1	11
655.320	1	12
655.490	1	-2
655.659	1	6
655.829	1	7
655.998	1	11
656.168	1	7
656.337	1	11
656.507	1	15
656.676	1	4
656.846	1	12
657.015	1	12
657.184	1	12
657.354	1	11
657.523	1	16
657.693	1	14
657.862	1	12
658.032	1	12
658.201	1	14
658.371	1	11
658.540	1	7
658.709	1	6
658.879	1	4
659.048	1	17
659.218	1	14
659.387	1	8
659.557	1	3
659.726	1	15
659.895	1	5
660.065	1	13
660.234	1	1
660.404	1	16
660.573	1	7
660.743	1	5
660.912	1	17
661.081	1	8
661.251	1	13
661.420	1	4
661.590	1	13
661.759	1	18
661.929	1	5
662.098	1	11
662.267	1	7
662.437	1	4
662.606	1	-3
662.776	1	3
662.945	1	21
663.115	1	1
663.284	1	6
663.453	1	5
663.623	1	8
663.792	1	8
663.962	1	15
664.131	1	11
664.300	1	7
664.470	1	8
664.639	1	17
664.809	1	5
664.978	1	1
665.148	1	19
665.317	1	8
665.486	1	6
665.656	1	2
665.825	1	5
665.995	1	-1
666.164	1	24
666.333	1	-3
666.503	1	7
666.672	1	7
666.842	1	12
667.011	1	9
667.180	1	7
667.350	1	6
667.519	1	9
667.689	1	14
667.858	1	5
668.027	1	14
668.197	1	-2
668.366	1	23
668.536	1	8
668.705	1	6
668.874	1	8
669.044	1	4
669.213	1	2
669.382	1	6
669.552	1	3
669.721	1	6
669.891	1	10
670.060	1	14
670.229	1	10
670.399	1	13
670.568	1	2
670.738	1	9
670.907	1	18
671.076	1	6
671.246	1	7
671.415	1	5
671.584	1	12
671.754	1	14
671.923	1	4
672.093	1	11
672.262	1	7
672.431	1	3
672.601	1	6
672.770	1	8
672.939	1	-2
673.109	1	9
673.278	1	14
673.448	1	13
673.617	1	9
673.786	1	0
